time,ECG
2023-08-12 16:41:24.461294,-11.0
2023-08-12 16:41:24.468984,-7.0
2023-08-12 16:41:24.476674,-7.0
2023-08-12 16:41:24.484363,-4.0
2023-08-12 16:41:24.492053,-2.0
2023-08-12 16:41:24.499743,-4.0
2023-08-12 16:41:24.507433,-4.0
2023-08-12 16:41:24.515123,-4.0
2023-08-12 16:41:24.522812,-7.0
2023-08-12 16:41:24.530502,-7.0
2023-08-12 16:41:24.538192,-11.0
2023-08-12 16:41:24.545882,-16.0
2023-08-12 16:41:24.553572,-16.0
2023-08-12 16:41:24.561261,-19.0
2023-08-12 16:41:24.568951,-23.0
2023-08-12 16:41:24.576641,-26.0
2023-08-12 16:41:24.584331,-21.0
2023-08-12 16:41:24.592021,-23.0
2023-08-12 16:41:24.599710,-23.0
2023-08-12 16:41:24.607400,-21.0
2023-08-12 16:41:24.615090,-23.0
2023-08-12 16:41:24.622780,-21.0
2023-08-12 16:41:24.630470,-16.0
2023-08-12 16:41:24.638159,-16.0
2023-08-12 16:41:24.645849,-16.0
2023-08-12 16:41:24.653539,-14.0
2023-08-12 16:41:24.661229,-11.0
2023-08-12 16:41:24.668918,-9.0
2023-08-12 16:41:24.676608,-7.0
2023-08-12 16:41:24.684298,-4.0
2023-08-12 16:41:24.691988,-4.0
2023-08-12 16:41:24.699678,-4.0
2023-08-12 16:41:24.707367,-4.0
2023-08-12 16:41:24.715057,-4.0
2023-08-12 16:41:24.722747,-4.0
2023-08-12 16:41:24.730437,0.0
2023-08-12 16:41:24.738127,0.0
2023-08-12 16:41:24.745816,-2.0
2023-08-12 16:41:24.753506,-4.0
2023-08-12 16:41:24.761196,2.0
2023-08-12 16:41:24.768886,4.0
2023-08-12 16:41:24.776576,2.0
2023-08-12 16:41:24.784265,0.0
2023-08-12 16:41:24.791955,0.0
2023-08-12 16:41:24.799645,0.0
2023-08-12 16:41:24.807335,0.0
2023-08-12 16:41:24.815025,0.0
2023-08-12 16:41:24.822714,0.0
2023-08-12 16:41:24.830404,0.0
2023-08-12 16:41:24.838094,-7.0
2023-08-12 16:41:24.845784,-19.0
2023-08-12 16:41:24.853474,-14.0
2023-08-12 16:41:24.861163,-7.0
2023-08-12 16:41:24.868853,-11.0
2023-08-12 16:41:24.876543,-14.0
2023-08-12 16:41:24.884233,-16.0
2023-08-12 16:41:24.891922,-23.0
2023-08-12 16:41:24.899612,-23.0
2023-08-12 16:41:24.907302,-19.0
2023-08-12 16:41:24.914992,-16.0
2023-08-12 16:41:24.922682,-16.0
2023-08-12 16:41:24.930371,-16.0
2023-08-12 16:41:24.938061,-16.0
2023-08-12 16:41:24.945751,-19.0
2023-08-12 16:41:24.953441,-16.0
2023-08-12 16:41:24.961131,-14.0
2023-08-12 16:41:24.968820,-16.0
2023-08-12 16:41:24.976510,-19.0
2023-08-12 16:41:24.984200,-16.0
2023-08-12 16:41:24.991890,-19.0
2023-08-12 16:41:24.999580,-28.0
2023-08-12 16:41:25.007269,-26.0
2023-08-12 16:41:25.014959,-19.0
2023-08-12 16:41:25.022649,-23.0
2023-08-12 16:41:25.030339,-33.0
2023-08-12 16:41:25.038029,-45.0
2023-08-12 16:41:25.045718,-59.0
2023-08-12 16:41:25.053408,-71.0
2023-08-12 16:41:25.061098,-76.0
2023-08-12 16:41:25.068788,-69.0
2023-08-12 16:41:25.076477,-47.0
2023-08-12 16:41:25.084167,-33.0
2023-08-12 16:41:25.091857,-33.0
2023-08-12 16:41:25.099547,-28.0
2023-08-12 16:41:25.107237,-26.0
2023-08-12 16:41:25.114926,-28.0
2023-08-12 16:41:25.122616,-26.0
2023-08-12 16:41:25.130306,-21.0
2023-08-12 16:41:25.137996,-26.0
2023-08-12 16:41:25.145686,-33.0
2023-08-12 16:41:25.153375,-28.0
2023-08-12 16:41:25.161065,-35.0
2023-08-12 16:41:25.168755,-121.0
2023-08-12 16:41:25.176445,-333.0
2023-08-12 16:41:25.184135,-587.0
2023-08-12 16:41:25.191824,-464.0
2023-08-12 16:41:25.199514,64.0
2023-08-12 16:41:25.207204,216.0
2023-08-12 16:41:25.214894,-47.0
2023-08-12 16:41:25.222584,-61.0
2023-08-12 16:41:25.230273,57.0
2023-08-12 16:41:25.237963,11.0
2023-08-12 16:41:25.245653,-23.0
2023-08-12 16:41:25.253343,11.0
2023-08-12 16:41:25.261033,11.0
2023-08-12 16:41:25.268722,-4.0
2023-08-12 16:41:25.276412,2.0
2023-08-12 16:41:25.284102,4.0
2023-08-12 16:41:25.291792,-4.0
2023-08-12 16:41:25.299481,-7.0
2023-08-12 16:41:25.307171,-9.0
2023-08-12 16:41:25.314861,-11.0
2023-08-12 16:41:25.322551,-14.0
2023-08-12 16:41:25.330241,-19.0
2023-08-12 16:41:25.337930,-26.0
2023-08-12 16:41:25.345620,-26.0
2023-08-12 16:41:25.353310,-28.0
2023-08-12 16:41:25.361000,-35.0
2023-08-12 16:41:25.368690,-42.0
2023-08-12 16:41:25.376379,-52.0
2023-08-12 16:41:25.384069,-69.0
2023-08-12 16:41:25.391759,-76.0
2023-08-12 16:41:25.399449,-76.0
2023-08-12 16:41:25.407139,-85.0
2023-08-12 16:41:25.414828,-97.0
2023-08-12 16:41:25.422518,-102.0
2023-08-12 16:41:25.430208,-107.0
2023-08-12 16:41:25.437898,-111.0
2023-08-12 16:41:25.445588,-119.0
2023-08-12 16:41:25.453277,-121.0
2023-08-12 16:41:25.460967,-114.0
2023-08-12 16:41:25.468657,-107.0
2023-08-12 16:41:25.476347,-95.0
2023-08-12 16:41:25.484036,-69.0
2023-08-12 16:41:25.491726,-40.0
2023-08-12 16:41:25.499416,-21.0
2023-08-12 16:41:25.507106,-7.0
2023-08-12 16:41:25.514796,14.0
2023-08-12 16:41:25.522485,26.0
2023-08-12 16:41:25.530175,23.0
2023-08-12 16:41:25.537865,28.0
2023-08-12 16:41:25.545555,33.0
2023-08-12 16:41:25.553245,26.0
2023-08-12 16:41:25.560934,16.0
2023-08-12 16:41:25.568624,14.0
2023-08-12 16:41:25.576314,11.0
2023-08-12 16:41:25.584004,9.0
2023-08-12 16:41:25.591694,4.0
2023-08-12 16:41:25.599383,0.0
2023-08-12 16:41:25.607073,0.0
2023-08-12 16:41:25.614763,0.0
2023-08-12 16:41:25.622453,-4.0
2023-08-12 16:41:25.630143,-7.0
2023-08-12 16:41:25.637832,-7.0
2023-08-12 16:41:25.645522,-7.0
2023-08-12 16:41:25.653212,-7.0
2023-08-12 16:41:25.660902,-9.0
2023-08-12 16:41:25.668592,-9.0
2023-08-12 16:41:25.676281,-7.0
2023-08-12 16:41:25.683971,-7.0
2023-08-12 16:41:25.691661,-7.0
2023-08-12 16:41:25.699351,-9.0
2023-08-12 16:41:25.707040,-7.0
2023-08-12 16:41:25.714730,-2.0
2023-08-12 16:41:25.722420,0.0
2023-08-12 16:41:25.730110,-4.0
2023-08-12 16:41:25.737800,-7.0
2023-08-12 16:41:25.745489,-7.0
2023-08-12 16:41:25.753179,-9.0
2023-08-12 16:41:25.760869,-9.0
2023-08-12 16:41:25.768559,-11.0
2023-08-12 16:41:25.776249,-14.0
2023-08-12 16:41:25.783938,-16.0
2023-08-12 16:41:25.791628,-19.0
2023-08-12 16:41:25.799318,-21.0
2023-08-12 16:41:25.807008,-26.0
2023-08-12 16:41:25.814698,-30.0
2023-08-12 16:41:25.822387,-33.0
2023-08-12 16:41:25.830077,-35.0
2023-08-12 16:41:25.837767,-35.0
2023-08-12 16:41:25.845457,-40.0
2023-08-12 16:41:25.853147,-52.0
2023-08-12 16:41:25.860836,-66.0
2023-08-12 16:41:25.868526,-76.0
2023-08-12 16:41:25.876216,-83.0
2023-08-12 16:41:25.883906,-78.0
2023-08-12 16:41:25.891595,-57.0
2023-08-12 16:41:25.899285,-40.0
2023-08-12 16:41:25.906975,-38.0
2023-08-12 16:41:25.914665,-42.0
2023-08-12 16:41:25.922355,-47.0
2023-08-12 16:41:25.930044,-52.0
2023-08-12 16:41:25.937734,-47.0
2023-08-12 16:41:25.945424,-42.0
2023-08-12 16:41:25.953114,-47.0
2023-08-12 16:41:25.960804,-54.0
2023-08-12 16:41:25.968493,-54.0
2023-08-12 16:41:25.976183,-52.0
2023-08-12 16:41:25.983873,-80.0
2023-08-12 16:41:25.991563,-204.0
2023-08-12 16:41:25.999253,-476.0
2023-08-12 16:41:26.006942,-680.0
2023-08-12 16:41:26.014632,-366.0
2023-08-12 16:41:26.022322,159.0
2023-08-12 16:41:26.030012,116.0
2023-08-12 16:41:26.037702,-130.0
2023-08-12 16:41:26.045391,-42.0
2023-08-12 16:41:26.053081,19.0
2023-08-12 16:41:26.060771,-61.0
2023-08-12 16:41:26.068461,-57.0
2023-08-12 16:41:26.076151,-21.0
2023-08-12 16:41:26.083840,-42.0
2023-08-12 16:41:26.091530,-52.0
2023-08-12 16:41:26.099220,-45.0
2023-08-12 16:41:26.106910,-52.0
2023-08-12 16:41:26.114599,-57.0
2023-08-12 16:41:26.122289,-52.0
2023-08-12 16:41:26.129979,-57.0
2023-08-12 16:41:26.137669,-61.0
2023-08-12 16:41:26.145359,-66.0
2023-08-12 16:41:26.153048,-71.0
2023-08-12 16:41:26.160738,-71.0
2023-08-12 16:41:26.168428,-73.0
2023-08-12 16:41:26.176118,-78.0
2023-08-12 16:41:26.183808,-88.0
2023-08-12 16:41:26.191497,-95.0
2023-08-12 16:41:26.199187,-99.0
2023-08-12 16:41:26.206877,-109.0
2023-08-12 16:41:26.214567,-121.0
2023-08-12 16:41:26.222257,-128.0
2023-08-12 16:41:26.229946,-138.0
2023-08-12 16:41:26.237636,-149.0
2023-08-12 16:41:26.245326,-161.0
2023-08-12 16:41:26.253016,-169.0
2023-08-12 16:41:26.260706,-169.0
2023-08-12 16:41:26.268395,-169.0
2023-08-12 16:41:26.276085,-171.0
2023-08-12 16:41:26.283775,-166.0
2023-08-12 16:41:26.291465,-149.0
2023-08-12 16:41:26.299154,-123.0
2023-08-12 16:41:26.306844,-90.0
2023-08-12 16:41:26.314534,-61.0
2023-08-12 16:41:26.322224,-45.0
2023-08-12 16:41:26.329914,-30.0
2023-08-12 16:41:26.337603,-16.0
2023-08-12 16:41:26.345293,-9.0
2023-08-12 16:41:26.352983,-9.0
2023-08-12 16:41:26.360673,-7.0
2023-08-12 16:41:26.368363,-4.0
2023-08-12 16:41:26.376052,-4.0
2023-08-12 16:41:26.383742,-4.0
2023-08-12 16:41:26.391432,-7.0
2023-08-12 16:41:26.399122,-9.0
2023-08-12 16:41:26.406812,-11.0
2023-08-12 16:41:26.414501,-14.0
2023-08-12 16:41:26.422191,-19.0
2023-08-12 16:41:26.429881,-21.0
2023-08-12 16:41:26.437571,-26.0
2023-08-12 16:41:26.445261,-28.0
2023-08-12 16:41:26.452950,-28.0
2023-08-12 16:41:26.460640,-30.0
2023-08-12 16:41:26.468330,-33.0
2023-08-12 16:41:26.476020,-33.0
2023-08-12 16:41:26.483710,-35.0
2023-08-12 16:41:26.491399,-33.0
2023-08-12 16:41:26.499089,-33.0
2023-08-12 16:41:26.506779,-33.0
2023-08-12 16:41:26.514469,-33.0
2023-08-12 16:41:26.522158,-33.0
2023-08-12 16:41:26.529848,-28.0
2023-08-12 16:41:26.537538,-33.0
2023-08-12 16:41:26.545228,-38.0
2023-08-12 16:41:26.552918,-42.0
2023-08-12 16:41:26.560607,-52.0
2023-08-12 16:41:26.568297,-52.0
2023-08-12 16:41:26.575987,-49.0
2023-08-12 16:41:26.583677,-47.0
2023-08-12 16:41:26.591367,-47.0
2023-08-12 16:41:26.599056,-47.0
2023-08-12 16:41:26.606746,-49.0
2023-08-12 16:41:26.614436,-47.0
2023-08-12 16:41:26.622126,-45.0
2023-08-12 16:41:26.629816,-49.0
2023-08-12 16:41:26.637505,-49.0
2023-08-12 16:41:26.645195,-52.0
2023-08-12 16:41:26.652885,-52.0
2023-08-12 16:41:26.660575,-49.0
2023-08-12 16:41:26.668265,-47.0
2023-08-12 16:41:26.675954,-49.0
2023-08-12 16:41:26.683644,-54.0
2023-08-12 16:41:26.691334,-57.0
2023-08-12 16:41:26.699024,-59.0
2023-08-12 16:41:26.706713,-59.0
2023-08-12 16:41:26.714403,-59.0
2023-08-12 16:41:26.722093,-64.0
2023-08-12 16:41:26.729783,-64.0
2023-08-12 16:41:26.737473,-61.0
2023-08-12 16:41:26.745162,-59.0
2023-08-12 16:41:26.752852,-61.0
2023-08-12 16:41:26.760542,-64.0
2023-08-12 16:41:26.768232,-61.0
2023-08-12 16:41:26.775922,-64.0
2023-08-12 16:41:26.783611,-64.0
2023-08-12 16:41:26.791301,-64.0
2023-08-12 16:41:26.798991,-66.0
2023-08-12 16:41:26.806681,-80.0
2023-08-12 16:41:26.814371,-95.0
2023-08-12 16:41:26.822060,-99.0
2023-08-12 16:41:26.829750,-102.0
2023-08-12 16:41:26.837440,-95.0
2023-08-12 16:41:26.845130,-73.0
2023-08-12 16:41:26.852820,-59.0
2023-08-12 16:41:26.860509,-59.0
2023-08-12 16:41:26.868199,-57.0
2023-08-12 16:41:26.875889,-52.0
2023-08-12 16:41:26.883579,-49.0
2023-08-12 16:41:26.891269,-49.0
2023-08-12 16:41:26.898958,-47.0
2023-08-12 16:41:26.906648,-47.0
2023-08-12 16:41:26.914338,-49.0
2023-08-12 16:41:26.922028,-49.0
2023-08-12 16:41:26.929717,-52.0
2023-08-12 16:41:26.937407,-104.0
2023-08-12 16:41:26.945097,-276.0
2023-08-12 16:41:26.952787,-571.0
2023-08-12 16:41:26.960477,-626.0
2023-08-12 16:41:26.968166,-147.0
2023-08-12 16:41:26.975856,202.0
2023-08-12 16:41:26.983546,-4.0
2023-08-12 16:41:26.991236,-116.0
2023-08-12 16:41:26.998926,21.0
2023-08-12 16:41:27.006615,11.0
2023-08-12 16:41:27.014305,-47.0
2023-08-12 16:41:27.021995,-11.0
2023-08-12 16:41:27.029685,-7.0
2023-08-12 16:41:27.037375,-35.0
2023-08-12 16:41:27.045064,-30.0
2023-08-12 16:41:27.052754,-23.0
2023-08-12 16:41:27.060444,-38.0
2023-08-12 16:41:27.068134,-47.0
2023-08-12 16:41:27.075824,-42.0
2023-08-12 16:41:27.083513,-47.0
2023-08-12 16:41:27.091203,-59.0
2023-08-12 16:41:27.098893,-64.0
2023-08-12 16:41:27.106583,-59.0
2023-08-12 16:41:27.114272,-61.0
2023-08-12 16:41:27.121962,-71.0
2023-08-12 16:41:27.129652,-76.0
2023-08-12 16:41:27.137342,-78.0
2023-08-12 16:41:27.145032,-85.0
2023-08-12 16:41:27.152721,-90.0
2023-08-12 16:41:27.160411,-97.0
2023-08-12 16:41:27.168101,-104.0
2023-08-12 16:41:27.175791,-116.0
2023-08-12 16:41:27.183481,-126.0
2023-08-12 16:41:27.191170,-133.0
2023-08-12 16:41:27.198860,-140.0
2023-08-12 16:41:27.206550,-147.0
2023-08-12 16:41:27.214240,-152.0
2023-08-12 16:41:27.221930,-154.0
2023-08-12 16:41:27.229619,-154.0
2023-08-12 16:41:27.237309,-147.0
2023-08-12 16:41:27.244999,-130.0
2023-08-12 16:41:27.252689,-104.0
2023-08-12 16:41:27.260379,-80.0
2023-08-12 16:41:27.268068,-57.0
2023-08-12 16:41:27.275758,-35.0
2023-08-12 16:41:27.283448,-19.0
2023-08-12 16:41:27.291138,-9.0
2023-08-12 16:41:27.298827,-4.0
2023-08-12 16:41:27.306517,-4.0
2023-08-12 16:41:27.314207,-2.0
2023-08-12 16:41:27.321897,-2.0
2023-08-12 16:41:27.329587,-4.0
2023-08-12 16:41:27.337276,-7.0
2023-08-12 16:41:27.344966,-7.0
2023-08-12 16:41:27.352656,-11.0
2023-08-12 16:41:27.360346,-14.0
2023-08-12 16:41:27.368036,-14.0
2023-08-12 16:41:27.375725,-11.0
2023-08-12 16:41:27.383415,-14.0
2023-08-12 16:41:27.391105,-16.0
2023-08-12 16:41:27.398795,-16.0
2023-08-12 16:41:27.406485,-19.0
2023-08-12 16:41:27.414174,-23.0
2023-08-12 16:41:27.421864,-26.0
2023-08-12 16:41:27.429554,-23.0
2023-08-12 16:41:27.437244,-21.0
2023-08-12 16:41:27.444934,-26.0
2023-08-12 16:41:27.452623,-26.0
2023-08-12 16:41:27.460313,-23.0
2023-08-12 16:41:27.468003,-21.0
2023-08-12 16:41:27.475693,-21.0
2023-08-12 16:41:27.483383,-21.0
2023-08-12 16:41:27.491072,-21.0
2023-08-12 16:41:27.498762,-23.0
2023-08-12 16:41:27.506452,-21.0
2023-08-12 16:41:27.514142,-19.0
2023-08-12 16:41:27.521831,-23.0
2023-08-12 16:41:27.529521,-26.0
2023-08-12 16:41:27.537211,-26.0
2023-08-12 16:41:27.544901,-26.0
2023-08-12 16:41:27.552591,-26.0
2023-08-12 16:41:27.560280,-26.0
2023-08-12 16:41:27.567970,-30.0
2023-08-12 16:41:27.575660,-33.0
2023-08-12 16:41:27.583350,-33.0
2023-08-12 16:41:27.591040,-35.0
2023-08-12 16:41:27.598729,-40.0
2023-08-12 16:41:27.606419,-38.0
2023-08-12 16:41:27.614109,-33.0
2023-08-12 16:41:27.621799,-35.0
2023-08-12 16:41:27.629489,-42.0
2023-08-12 16:41:27.637178,-47.0
2023-08-12 16:41:27.644868,-42.0
2023-08-12 16:41:27.652558,-40.0
2023-08-12 16:41:27.660248,-42.0
2023-08-12 16:41:27.667938,-42.0
2023-08-12 16:41:27.675627,-42.0
2023-08-12 16:41:27.683317,-45.0
2023-08-12 16:41:27.691007,-47.0
2023-08-12 16:41:27.698697,-45.0
2023-08-12 16:41:27.706386,-45.0
2023-08-12 16:41:27.714076,-49.0
2023-08-12 16:41:27.721766,-52.0
2023-08-12 16:41:27.729456,-49.0
2023-08-12 16:41:27.737146,-52.0
2023-08-12 16:41:27.744835,-57.0
2023-08-12 16:41:27.752525,-54.0
2023-08-12 16:41:27.760215,-52.0
2023-08-12 16:41:27.767905,-59.0
2023-08-12 16:41:27.775595,-73.0
2023-08-12 16:41:27.783284,-85.0
2023-08-12 16:41:27.790974,-90.0
2023-08-12 16:41:27.798664,-92.0
2023-08-12 16:41:27.806354,-88.0
2023-08-12 16:41:27.814044,-69.0
2023-08-12 16:41:27.821733,-52.0
2023-08-12 16:41:27.829423,-49.0
2023-08-12 16:41:27.837113,-49.0
2023-08-12 16:41:27.844803,-45.0
2023-08-12 16:41:27.852493,-45.0
2023-08-12 16:41:27.860182,-47.0
2023-08-12 16:41:27.867872,-42.0
2023-08-12 16:41:27.875562,-40.0
2023-08-12 16:41:27.883252,-40.0
2023-08-12 16:41:27.890942,-40.0
2023-08-12 16:41:27.898631,-49.0
2023-08-12 16:41:27.906321,-114.0
2023-08-12 16:41:27.914011,-297.0
2023-08-12 16:41:27.921701,-573.0
2023-08-12 16:41:27.929390,-566.0
2023-08-12 16:41:27.937080,-66.0
2023-08-12 16:41:27.944770,204.0
2023-08-12 16:41:27.952460,-28.0
2023-08-12 16:41:27.960150,-95.0
2023-08-12 16:41:27.967839,38.0
2023-08-12 16:41:27.975529,11.0
2023-08-12 16:41:27.983219,-33.0
2023-08-12 16:41:27.990909,2.0
2023-08-12 16:41:27.998599,4.0
2023-08-12 16:41:28.006288,-16.0
2023-08-12 16:41:28.013978,-9.0
2023-08-12 16:41:28.021668,-7.0
2023-08-12 16:41:28.029358,-16.0
2023-08-12 16:41:28.037048,-16.0
2023-08-12 16:41:28.044737,-14.0
2023-08-12 16:41:28.052427,-19.0
2023-08-12 16:41:28.060117,-21.0
2023-08-12 16:41:28.067807,-19.0
2023-08-12 16:41:28.075497,-26.0
2023-08-12 16:41:28.083186,-35.0
2023-08-12 16:41:28.090876,-38.0
2023-08-12 16:41:28.098566,-38.0
2023-08-12 16:41:28.106256,-45.0
2023-08-12 16:41:28.113945,-54.0
2023-08-12 16:41:28.121635,-57.0
2023-08-12 16:41:28.129325,-61.0
2023-08-12 16:41:28.137015,-73.0
2023-08-12 16:41:28.144705,-85.0
2023-08-12 16:41:28.152394,-90.0
2023-08-12 16:41:28.160084,-99.0
2023-08-12 16:41:28.167774,-111.0
2023-08-12 16:41:28.175464,-114.0
2023-08-12 16:41:28.183154,-116.0
2023-08-12 16:41:28.190843,-121.0
2023-08-12 16:41:28.198533,-119.0
2023-08-12 16:41:28.206223,-109.0
2023-08-12 16:41:28.213913,-102.0
2023-08-12 16:41:28.221603,-83.0
2023-08-12 16:41:28.229292,-52.0
2023-08-12 16:41:28.236982,-23.0
2023-08-12 16:41:28.244672,-4.0
2023-08-12 16:41:28.252362,9.0
2023-08-12 16:41:28.260052,19.0
2023-08-12 16:41:28.267741,28.0
2023-08-12 16:41:28.275431,30.0
2023-08-12 16:41:28.283121,30.0
2023-08-12 16:41:28.290811,30.0
2023-08-12 16:41:28.298501,30.0
2023-08-12 16:41:28.306190,30.0
2023-08-12 16:41:28.313880,28.0
2023-08-12 16:41:28.321570,28.0
2023-08-12 16:41:28.329260,26.0
2023-08-12 16:41:28.336949,21.0
2023-08-12 16:41:28.344639,23.0
2023-08-12 16:41:28.352329,26.0
2023-08-12 16:41:28.360019,23.0
2023-08-12 16:41:28.367709,16.0
2023-08-12 16:41:28.375398,19.0
2023-08-12 16:41:28.383088,23.0
2023-08-12 16:41:28.390778,19.0
2023-08-12 16:41:28.398468,14.0
2023-08-12 16:41:28.406158,16.0
2023-08-12 16:41:28.413847,19.0
2023-08-12 16:41:28.421537,19.0
2023-08-12 16:41:28.429227,23.0
2023-08-12 16:41:28.436917,23.0
2023-08-12 16:41:28.444607,23.0
2023-08-12 16:41:28.452296,21.0
2023-08-12 16:41:28.459986,21.0
2023-08-12 16:41:28.467676,28.0
2023-08-12 16:41:28.475366,30.0
2023-08-12 16:41:28.483056,28.0
2023-08-12 16:41:28.490745,26.0
2023-08-12 16:41:28.498435,28.0
2023-08-12 16:41:28.506125,23.0
2023-08-12 16:41:28.513815,19.0
2023-08-12 16:41:28.521504,19.0
2023-08-12 16:41:28.529194,23.0
2023-08-12 16:41:28.536884,21.0
2023-08-12 16:41:28.544574,16.0
2023-08-12 16:41:28.552264,16.0
2023-08-12 16:41:28.559953,19.0
2023-08-12 16:41:28.567643,19.0
2023-08-12 16:41:28.575333,19.0
2023-08-12 16:41:28.583023,11.0
2023-08-12 16:41:28.590713,-4.0
2023-08-12 16:41:28.598402,-19.0
2023-08-12 16:41:28.606092,-21.0
2023-08-12 16:41:28.613782,-28.0
2023-08-12 16:41:28.621472,-33.0
2023-08-12 16:41:28.629162,-14.0
2023-08-12 16:41:28.636851,11.0
2023-08-12 16:41:28.644541,9.0
2023-08-12 16:41:28.652231,2.0
2023-08-12 16:41:28.659921,11.0
2023-08-12 16:41:28.667611,16.0
2023-08-12 16:41:28.675300,7.0
2023-08-12 16:41:28.682990,4.0
2023-08-12 16:41:28.690680,2.0
2023-08-12 16:41:28.698370,-4.0
2023-08-12 16:41:28.706060,-9.0
2023-08-12 16:41:28.713749,-21.0
2023-08-12 16:41:28.721439,-73.0
2023-08-12 16:41:28.729129,-221.0
2023-08-12 16:41:28.736819,-490.0
2023-08-12 16:41:28.744508,-599.0
2023-08-12 16:41:28.752198,-192.0
2023-08-12 16:41:28.759888,233.0
2023-08-12 16:41:28.767578,73.0
2023-08-12 16:41:28.775268,-121.0
2023-08-12 16:41:28.782957,-7.0
2023-08-12 16:41:28.790647,14.0
2023-08-12 16:41:28.798337,-64.0
2023-08-12 16:41:28.806027,-47.0
2023-08-12 16:41:28.813717,-26.0
2023-08-12 16:41:28.821406,-54.0
2023-08-12 16:41:28.829096,-61.0
2023-08-12 16:41:28.836786,-52.0
2023-08-12 16:41:28.844476,-69.0
2023-08-12 16:41:28.852166,-83.0
2023-08-12 16:41:28.859855,-76.0
2023-08-12 16:41:28.867545,-78.0
2023-08-12 16:41:28.875235,-85.0
2023-08-12 16:41:28.882925,-88.0
2023-08-12 16:41:28.890615,-92.0
2023-08-12 16:41:28.898304,-97.0
2023-08-12 16:41:28.905994,-99.0
2023-08-12 16:41:28.913684,-104.0
2023-08-12 16:41:28.921374,-109.0
2023-08-12 16:41:28.929063,-116.0
2023-08-12 16:41:28.936753,-126.0
2023-08-12 16:41:28.944443,-130.0
2023-08-12 16:41:28.952133,-138.0
2023-08-12 16:41:28.959823,-145.0
2023-08-12 16:41:28.967512,-157.0
2023-08-12 16:41:28.975202,-166.0
2023-08-12 16:41:28.982892,-178.0
2023-08-12 16:41:28.990582,-180.0
2023-08-12 16:41:28.998272,-183.0
2023-08-12 16:41:29.005961,-190.0
2023-08-12 16:41:29.013651,-190.0
2023-08-12 16:41:29.021341,-180.0
2023-08-12 16:41:29.029031,-166.0
2023-08-12 16:41:29.036721,-140.0
2023-08-12 16:41:29.044410,-109.0
2023-08-12 16:41:29.052100,-83.0
2023-08-12 16:41:29.059790,-64.0
2023-08-12 16:41:29.067480,-47.0
2023-08-12 16:41:29.075170,-38.0
2023-08-12 16:41:29.082859,-35.0
2023-08-12 16:41:29.090549,-35.0
2023-08-12 16:41:29.098239,-35.0
2023-08-12 16:41:29.105929,-38.0
2023-08-12 16:41:29.113619,-40.0
2023-08-12 16:41:29.121308,-40.0
2023-08-12 16:41:29.128998,-42.0
2023-08-12 16:41:29.136688,-45.0
2023-08-12 16:41:29.144378,-47.0
2023-08-12 16:41:29.152067,-49.0
2023-08-12 16:41:29.159757,-52.0
2023-08-12 16:41:29.167447,-54.0
2023-08-12 16:41:29.175137,-54.0
2023-08-12 16:41:29.182827,-57.0
2023-08-12 16:41:29.190516,-59.0
2023-08-12 16:41:29.198206,-59.0
2023-08-12 16:41:29.205896,-59.0
2023-08-12 16:41:29.213586,-61.0
2023-08-12 16:41:29.221276,-57.0
2023-08-12 16:41:29.228965,-54.0
2023-08-12 16:41:29.236655,-54.0
2023-08-12 16:41:29.244345,-57.0
2023-08-12 16:41:29.252035,-57.0
2023-08-12 16:41:29.259725,-54.0
2023-08-12 16:41:29.267414,-52.0
2023-08-12 16:41:29.275104,-52.0
2023-08-12 16:41:29.282794,-52.0
2023-08-12 16:41:29.290484,-57.0
2023-08-12 16:41:29.298174,-66.0
2023-08-12 16:41:29.305863,-64.0
2023-08-12 16:41:29.313553,-59.0
2023-08-12 16:41:29.321243,-59.0
2023-08-12 16:41:29.328933,-57.0
2023-08-12 16:41:29.336622,-61.0
2023-08-12 16:41:29.344312,-66.0
2023-08-12 16:41:29.352002,-64.0
2023-08-12 16:41:29.359692,-59.0
2023-08-12 16:41:29.367382,-59.0
2023-08-12 16:41:29.375071,-59.0
2023-08-12 16:41:29.382761,-57.0
2023-08-12 16:41:29.390451,-54.0
2023-08-12 16:41:29.398141,-54.0
2023-08-12 16:41:29.405831,-52.0
2023-08-12 16:41:29.413520,-52.0
2023-08-12 16:41:29.421210,-52.0
2023-08-12 16:41:29.428900,-49.0
2023-08-12 16:41:29.436590,-52.0
2023-08-12 16:41:29.444280,-64.0
2023-08-12 16:41:29.451969,-78.0
2023-08-12 16:41:29.459659,-85.0
2023-08-12 16:41:29.467349,-88.0
2023-08-12 16:41:29.475039,-90.0
2023-08-12 16:41:29.482729,-73.0
2023-08-12 16:41:29.490418,-52.0
2023-08-12 16:41:29.498108,-47.0
2023-08-12 16:41:29.505798,-47.0
2023-08-12 16:41:29.513488,-42.0
2023-08-12 16:41:29.521178,-40.0
2023-08-12 16:41:29.528867,-40.0
2023-08-12 16:41:29.536557,-38.0
2023-08-12 16:41:29.544247,-40.0
2023-08-12 16:41:29.551937,-38.0
2023-08-12 16:41:29.559626,-40.0
2023-08-12 16:41:29.567316,-42.0
2023-08-12 16:41:29.575006,-64.0
2023-08-12 16:41:29.582696,-169.0
2023-08-12 16:41:29.590386,-423.0
2023-08-12 16:41:29.598075,-676.0
2023-08-12 16:41:29.605765,-454.0
2023-08-12 16:41:29.613455,88.0
2023-08-12 16:41:29.621145,138.0
2023-08-12 16:41:29.628835,-121.0
2023-08-12 16:41:29.636524,-71.0
2023-08-12 16:41:29.644214,23.0
2023-08-12 16:41:29.651904,-42.0
2023-08-12 16:41:29.659594,-54.0
2023-08-12 16:41:29.667284,-14.0
2023-08-12 16:41:29.674973,-28.0
2023-08-12 16:41:29.682663,-47.0
2023-08-12 16:41:29.690353,-35.0
2023-08-12 16:41:29.698043,-38.0
2023-08-12 16:41:29.705733,-47.0
2023-08-12 16:41:29.713422,-45.0
2023-08-12 16:41:29.721112,-45.0
2023-08-12 16:41:29.728802,-49.0
2023-08-12 16:41:29.736492,-54.0
2023-08-12 16:41:29.744181,-59.0
2023-08-12 16:41:29.751871,-61.0
2023-08-12 16:41:29.759561,-64.0
2023-08-12 16:41:29.767251,-69.0
2023-08-12 16:41:29.774941,-73.0
2023-08-12 16:41:29.782630,-80.0
2023-08-12 16:41:29.790320,-90.0
2023-08-12 16:41:29.798010,-97.0
2023-08-12 16:41:29.805700,-104.0
2023-08-12 16:41:29.813390,-111.0
2023-08-12 16:41:29.821079,-119.0
2023-08-12 16:41:29.828769,-128.0
2023-08-12 16:41:29.836459,-140.0
2023-08-12 16:41:29.844149,-147.0
2023-08-12 16:41:29.851839,-149.0
2023-08-12 16:41:29.859528,-152.0
2023-08-12 16:41:29.867218,-152.0
2023-08-12 16:41:29.874908,-147.0
2023-08-12 16:41:29.882598,-135.0
2023-08-12 16:41:29.890288,-116.0
2023-08-12 16:41:29.897977,-85.0
2023-08-12 16:41:29.905667,-57.0
2023-08-12 16:41:29.913357,-35.0
2023-08-12 16:41:29.921047,-19.0
2023-08-12 16:41:29.928737,-4.0
2023-08-12 16:41:29.936426,-4.0
2023-08-12 16:41:29.944116,0.0
2023-08-12 16:41:29.951806,2.0
2023-08-12 16:41:29.959496,0.0
2023-08-12 16:41:29.967185,-2.0
2023-08-12 16:41:29.974875,-7.0
2023-08-12 16:41:29.982565,-14.0
2023-08-12 16:41:29.990255,-14.0
2023-08-12 16:41:29.997945,-11.0
2023-08-12 16:41:30.005634,-14.0
2023-08-12 16:41:30.013324,-16.0
2023-08-12 16:41:30.021014,-19.0
2023-08-12 16:41:30.028704,-19.0
2023-08-12 16:41:30.036394,-19.0
2023-08-12 16:41:30.044083,-21.0
2023-08-12 16:41:30.051773,-21.0
2023-08-12 16:41:30.059463,-21.0
2023-08-12 16:41:30.067153,-23.0
2023-08-12 16:41:30.074843,-21.0
2023-08-12 16:41:30.082532,-21.0
2023-08-12 16:41:30.090222,-23.0
2023-08-12 16:41:30.097912,-28.0
2023-08-12 16:41:30.105602,-28.0
2023-08-12 16:41:30.113292,-26.0
2023-08-12 16:41:30.120981,-26.0
2023-08-12 16:41:30.128671,-26.0
2023-08-12 16:41:30.136361,-21.0
2023-08-12 16:41:30.144051,-21.0
2023-08-12 16:41:30.151740,-23.0
2023-08-12 16:41:30.159430,-23.0
2023-08-12 16:41:30.167120,-19.0
2023-08-12 16:41:30.174810,-19.0
2023-08-12 16:41:30.182500,-19.0
2023-08-12 16:41:30.190189,-14.0
2023-08-12 16:41:30.197879,-14.0
2023-08-12 16:41:30.205569,-19.0
2023-08-12 16:41:30.213259,-19.0
2023-08-12 16:41:30.220949,-19.0
2023-08-12 16:41:30.228638,-21.0
2023-08-12 16:41:30.236328,-26.0
2023-08-12 16:41:30.244018,-26.0
2023-08-12 16:41:30.251708,-23.0
2023-08-12 16:41:30.259398,-23.0
2023-08-12 16:41:30.267087,-21.0
2023-08-12 16:41:30.274777,-21.0
2023-08-12 16:41:30.282467,-21.0
2023-08-12 16:41:30.290157,-21.0
2023-08-12 16:41:30.297847,-26.0
2023-08-12 16:41:30.305536,-26.0
2023-08-12 16:41:30.313226,-23.0
2023-08-12 16:41:30.320916,-23.0
2023-08-12 16:41:30.328606,-26.0
2023-08-12 16:41:30.336296,-26.0
2023-08-12 16:41:30.343985,-26.0
2023-08-12 16:41:30.351675,-26.0
2023-08-12 16:41:30.359365,-26.0
2023-08-12 16:41:30.367055,-26.0
2023-08-12 16:41:30.374744,-28.0
2023-08-12 16:41:30.382434,-26.0
2023-08-12 16:41:30.390124,-26.0
2023-08-12 16:41:30.397814,-26.0
2023-08-12 16:41:30.405504,-26.0
2023-08-12 16:41:30.413193,-26.0
2023-08-12 16:41:30.420883,-30.0
2023-08-12 16:41:30.428573,-28.0
2023-08-12 16:41:30.436263,-28.0
2023-08-12 16:41:30.443953,-26.0
2023-08-12 16:41:30.451642,-30.0
2023-08-12 16:41:30.459332,-49.0
2023-08-12 16:41:30.467022,-69.0
2023-08-12 16:41:30.474712,-76.0
2023-08-12 16:41:30.482402,-76.0
2023-08-12 16:41:30.490091,-71.0
2023-08-12 16:41:30.497781,-54.0
2023-08-12 16:41:30.505471,-38.0
2023-08-12 16:41:30.513161,-35.0
2023-08-12 16:41:30.520851,-33.0
2023-08-12 16:41:30.528540,-30.0
2023-08-12 16:41:30.536230,-30.0
2023-08-12 16:41:30.543920,-33.0
2023-08-12 16:41:30.551610,-33.0
2023-08-12 16:41:30.559299,-33.0
2023-08-12 16:41:30.566989,-35.0
2023-08-12 16:41:30.574679,-35.0
2023-08-12 16:41:30.582369,-47.0
2023-08-12 16:41:30.590059,-126.0
2023-08-12 16:41:30.597748,-335.0
2023-08-12 16:41:30.605438,-606.0
2023-08-12 16:41:30.613128,-511.0
2023-08-12 16:41:30.620818,4.0
2023-08-12 16:41:30.628508,176.0
2023-08-12 16:41:30.636197,-71.0
2023-08-12 16:41:30.643887,-78.0
2023-08-12 16:41:30.651577,38.0
2023-08-12 16:41:30.659267,-11.0
2023-08-12 16:41:30.666957,-35.0
2023-08-12 16:41:30.674646,2.0
2023-08-12 16:41:30.682336,-7.0
2023-08-12 16:41:30.690026,-26.0
2023-08-12 16:41:30.697716,-11.0
2023-08-12 16:41:30.705406,-11.0
2023-08-12 16:41:30.713095,-21.0
2023-08-12 16:41:30.720785,-21.0
2023-08-12 16:41:30.728475,-26.0
2023-08-12 16:41:30.736165,-28.0
2023-08-12 16:41:30.743855,-28.0
2023-08-12 16:41:30.751544,-28.0
2023-08-12 16:41:30.759234,-33.0
2023-08-12 16:41:30.766924,-40.0
2023-08-12 16:41:30.774614,-45.0
2023-08-12 16:41:30.782303,-45.0
2023-08-12 16:41:30.789993,-49.0
2023-08-12 16:41:30.797683,-54.0
2023-08-12 16:41:30.805373,-61.0
2023-08-12 16:41:30.813063,-66.0
2023-08-12 16:41:30.820752,-73.0
2023-08-12 16:41:30.828442,-83.0
2023-08-12 16:41:30.836132,-88.0
2023-08-12 16:41:30.843822,-95.0
2023-08-12 16:41:30.851512,-102.0
2023-08-12 16:41:30.859201,-104.0
2023-08-12 16:41:30.866891,-111.0
2023-08-12 16:41:30.874581,-119.0
2023-08-12 16:41:30.882271,-111.0
2023-08-12 16:41:30.889961,-99.0
2023-08-12 16:41:30.897650,-88.0
2023-08-12 16:41:30.905340,-71.0
2023-08-12 16:41:30.913030,-42.0
2023-08-12 16:41:30.920720,-16.0
2023-08-12 16:41:30.928410,2.0
2023-08-12 16:41:30.936099,16.0
2023-08-12 16:41:30.943789,26.0
2023-08-12 16:41:30.951479,30.0
2023-08-12 16:41:30.959169,33.0
2023-08-12 16:41:30.966858,33.0
2023-08-12 16:41:30.974548,30.0
2023-08-12 16:41:30.982238,30.0
2023-08-12 16:41:30.989928,30.0
2023-08-12 16:41:30.997618,26.0
2023-08-12 16:41:31.005307,21.0
2023-08-12 16:41:31.012997,23.0
2023-08-12 16:41:31.020687,26.0
2023-08-12 16:41:31.028377,19.0
2023-08-12 16:41:31.036067,16.0
2023-08-12 16:41:31.043756,23.0
2023-08-12 16:41:31.051446,23.0
2023-08-12 16:41:31.059136,19.0
2023-08-12 16:41:31.066826,21.0
2023-08-12 16:41:31.074516,26.0
2023-08-12 16:41:31.082205,16.0
2023-08-12 16:41:31.089895,11.0
2023-08-12 16:41:31.097585,16.0
2023-08-12 16:41:31.105275,16.0
2023-08-12 16:41:31.112965,11.0
2023-08-12 16:41:31.120654,9.0
2023-08-12 16:41:31.128344,11.0
2023-08-12 16:41:31.136034,16.0
2023-08-12 16:41:31.143724,14.0
2023-08-12 16:41:31.151413,14.0
2023-08-12 16:41:31.159103,19.0
2023-08-12 16:41:31.166793,23.0
2023-08-12 16:41:31.174483,21.0
2023-08-12 16:41:31.182173,19.0
2023-08-12 16:41:31.189862,21.0
2023-08-12 16:41:31.197552,19.0
2023-08-12 16:41:31.205242,19.0
2023-08-12 16:41:31.212932,21.0
2023-08-12 16:41:31.220622,19.0
2023-08-12 16:41:31.228311,11.0
2023-08-12 16:41:31.236001,9.0
2023-08-12 16:41:31.243691,14.0
2023-08-12 16:41:31.251381,19.0
2023-08-12 16:41:31.259071,16.0
2023-08-12 16:41:31.266760,11.0
2023-08-12 16:41:31.274450,11.0
2023-08-12 16:41:31.282140,4.0
2023-08-12 16:41:31.289830,-11.0
2023-08-12 16:41:31.297520,-26.0
2023-08-12 16:41:31.305209,-26.0
2023-08-12 16:41:31.312899,-23.0
2023-08-12 16:41:31.320589,-16.0
2023-08-12 16:41:31.328279,4.0
2023-08-12 16:41:31.335969,19.0
2023-08-12 16:41:31.343658,14.0
2023-08-12 16:41:31.351348,14.0
2023-08-12 16:41:31.359038,16.0
2023-08-12 16:41:31.366728,11.0
2023-08-12 16:41:31.374417,7.0
2023-08-12 16:41:31.382107,7.0
2023-08-12 16:41:31.389797,7.0
2023-08-12 16:41:31.397487,7.0
2023-08-12 16:41:31.405177,0.0
2023-08-12 16:41:31.412866,-42.0
2023-08-12 16:41:31.420556,-176.0
2023-08-12 16:41:31.428246,-433.0
2023-08-12 16:41:31.435936,-573.0
2023-08-12 16:41:31.443626,-199.0
2023-08-12 16:41:31.451315,257.0
2023-08-12 16:41:31.459005,130.0
2023-08-12 16:41:31.466695,-92.0
2023-08-12 16:41:31.474385,11.0
2023-08-12 16:41:31.482075,52.0
2023-08-12 16:41:31.489764,-23.0
2023-08-12 16:41:31.497454,-9.0
2023-08-12 16:41:31.505144,16.0
2023-08-12 16:41:31.512834,-14.0
2023-08-12 16:41:31.520524,-23.0
2023-08-12 16:41:31.528213,-11.0
2023-08-12 16:41:31.535903,-21.0
2023-08-12 16:41:31.543593,-35.0
2023-08-12 16:41:31.551283,-40.0
2023-08-12 16:41:31.558972,-45.0
2023-08-12 16:41:31.566662,-47.0
2023-08-12 16:41:31.574352,-52.0
2023-08-12 16:41:31.582042,-59.0
2023-08-12 16:41:31.589732,-69.0
2023-08-12 16:41:31.597421,-78.0
2023-08-12 16:41:31.605111,-83.0
2023-08-12 16:41:31.612801,-92.0
2023-08-12 16:41:31.620491,-104.0
2023-08-12 16:41:31.628181,-109.0
2023-08-12 16:41:31.635870,-119.0
2023-08-12 16:41:31.643560,-128.0
2023-08-12 16:41:31.651250,-133.0
2023-08-12 16:41:31.658940,-142.0
2023-08-12 16:41:31.666630,-147.0
2023-08-12 16:41:31.674319,-154.0
2023-08-12 16:41:31.682009,-161.0
2023-08-12 16:41:31.689699,-164.0
2023-08-12 16:41:31.697389,-164.0
2023-08-12 16:41:31.705079,-166.0
2023-08-12 16:41:31.712768,-161.0
2023-08-12 16:41:31.720458,-147.0
2023-08-12 16:41:31.728148,-126.0
2023-08-12 16:41:31.735838,-99.0
2023-08-12 16:41:31.743528,-73.0
2023-08-12 16:41:31.751217,-52.0
2023-08-12 16:41:31.758907,-35.0
2023-08-12 16:41:31.766597,-26.0
2023-08-12 16:41:31.774287,-21.0
2023-08-12 16:41:31.781976,-16.0
2023-08-12 16:41:31.789666,-16.0
2023-08-12 16:41:31.797356,-21.0
2023-08-12 16:41:31.805046,-21.0
2023-08-12 16:41:31.812736,-23.0
2023-08-12 16:41:31.820425,-26.0
2023-08-12 16:41:31.828115,-28.0
2023-08-12 16:41:31.835805,-30.0
2023-08-12 16:41:31.843495,-33.0
2023-08-12 16:41:31.851185,-35.0
2023-08-12 16:41:31.858874,-35.0
2023-08-12 16:41:31.866564,-38.0
2023-08-12 16:41:31.874254,-40.0
2023-08-12 16:41:31.881944,-38.0
2023-08-12 16:41:31.889634,-38.0
2023-08-12 16:41:31.897323,-38.0
2023-08-12 16:41:31.905013,-38.0
2023-08-12 16:41:31.912703,-38.0
2023-08-12 16:41:31.920393,-38.0
2023-08-12 16:41:31.928083,-35.0
2023-08-12 16:41:31.935772,-30.0
2023-08-12 16:41:31.943462,-26.0
2023-08-12 16:41:31.951152,-28.0
2023-08-12 16:41:31.958842,-33.0
2023-08-12 16:41:31.966531,-33.0
2023-08-12 16:41:31.974221,-28.0
2023-08-12 16:41:31.981911,-30.0
2023-08-12 16:41:31.989601,-33.0
2023-08-12 16:41:31.997291,-30.0
2023-08-12 16:41:32.004980,-30.0
2023-08-12 16:41:32.012670,-28.0
2023-08-12 16:41:32.020360,-30.0
2023-08-12 16:41:32.028050,-30.0
2023-08-12 16:41:32.035740,-28.0
2023-08-12 16:41:32.043429,-28.0
2023-08-12 16:41:32.051119,-30.0
2023-08-12 16:41:32.058809,-28.0
2023-08-12 16:41:32.066499,-28.0
2023-08-12 16:41:32.074189,-33.0
2023-08-12 16:41:32.081878,-42.0
2023-08-12 16:41:32.089568,-57.0
2023-08-12 16:41:32.097258,-66.0
2023-08-12 16:41:32.104948,-73.0
2023-08-12 16:41:32.112638,-69.0
2023-08-12 16:41:32.120327,-52.0
2023-08-12 16:41:32.128017,-47.0
2023-08-12 16:41:32.135707,-49.0
2023-08-12 16:41:32.143397,-42.0
2023-08-12 16:41:32.151087,-38.0
2023-08-12 16:41:32.158776,-38.0
2023-08-12 16:41:32.166466,-35.0
2023-08-12 16:41:32.174156,-38.0
2023-08-12 16:41:32.181846,-45.0
2023-08-12 16:41:32.189535,-45.0
2023-08-12 16:41:32.197225,-40.0
2023-08-12 16:41:32.204915,-42.0
2023-08-12 16:41:32.212605,-80.0
2023-08-12 16:41:32.220295,-216.0
2023-08-12 16:41:32.227984,-487.0
2023-08-12 16:41:32.235674,-659.0
2023-08-12 16:41:32.243364,-299.0
2023-08-12 16:41:32.251054,180.0
2023-08-12 16:41:32.258744,85.0
2023-08-12 16:41:32.266433,-123.0
2023-08-12 16:41:32.274123,-16.0
2023-08-12 16:41:32.281813,33.0
2023-08-12 16:41:32.289503,-38.0
2023-08-12 16:41:32.297193,-26.0
2023-08-12 16:41:32.304882,0.0
2023-08-12 16:41:32.312572,-23.0
2023-08-12 16:41:32.320262,-30.0
2023-08-12 16:41:32.327952,-21.0
2023-08-12 16:41:32.335642,-30.0
2023-08-12 16:41:32.343331,-40.0
2023-08-12 16:41:32.351021,-40.0
2023-08-12 16:41:32.358711,-45.0
2023-08-12 16:41:32.366401,-49.0
2023-08-12 16:41:32.374090,-49.0
2023-08-12 16:41:32.381780,-54.0
2023-08-12 16:41:32.389470,-61.0
2023-08-12 16:41:32.397160,-64.0
2023-08-12 16:41:32.404850,-69.0
2023-08-12 16:41:32.412539,-78.0
2023-08-12 16:41:32.420229,-85.0
2023-08-12 16:41:32.427919,-92.0
2023-08-12 16:41:32.435609,-97.0
2023-08-12 16:41:32.443299,-107.0
2023-08-12 16:41:32.450988,-119.0
2023-08-12 16:41:32.458678,-128.0
2023-08-12 16:41:32.466368,-135.0
2023-08-12 16:41:32.474058,-142.0
2023-08-12 16:41:32.481748,-149.0
2023-08-12 16:41:32.489437,-154.0
2023-08-12 16:41:32.497127,-157.0
2023-08-12 16:41:32.504817,-152.0
2023-08-12 16:41:32.512507,-147.0
2023-08-12 16:41:32.520197,-135.0
2023-08-12 16:41:32.527886,-109.0
2023-08-12 16:41:32.535576,-80.0
2023-08-12 16:41:32.543266,-54.0
2023-08-12 16:41:32.550956,-35.0
2023-08-12 16:41:32.558646,-19.0
2023-08-12 16:41:32.566335,-7.0
2023-08-12 16:41:32.574025,-2.0
2023-08-12 16:41:32.581715,-2.0
2023-08-12 16:41:32.589405,-2.0
2023-08-12 16:41:32.597094,-2.0
2023-08-12 16:41:32.604784,-2.0
2023-08-12 16:41:32.612474,-2.0
2023-08-12 16:41:32.620164,-7.0
2023-08-12 16:41:32.627854,-14.0
2023-08-12 16:41:32.635543,-14.0
2023-08-12 16:41:32.643233,-16.0
2023-08-12 16:41:32.650923,-21.0
2023-08-12 16:41:32.658613,-23.0
2023-08-12 16:41:32.666303,-26.0
2023-08-12 16:41:32.673992,-38.0
2023-08-12 16:41:32.681682,-40.0
2023-08-12 16:41:32.689372,-35.0
2023-08-12 16:41:32.697062,-40.0
2023-08-12 16:41:32.704752,-42.0
2023-08-12 16:41:32.712441,-40.0
2023-08-12 16:41:32.720131,-40.0
2023-08-12 16:41:32.727821,-40.0
2023-08-12 16:41:32.735511,-35.0
2023-08-12 16:41:32.743201,-33.0
2023-08-12 16:41:32.750890,-33.0
2023-08-12 16:41:32.758580,-33.0
2023-08-12 16:41:32.766270,-28.0
2023-08-12 16:41:32.773960,-23.0
2023-08-12 16:41:32.781649,-23.0
2023-08-12 16:41:32.789339,-26.0
2023-08-12 16:41:32.797029,-23.0
2023-08-12 16:41:32.804719,-23.0
2023-08-12 16:41:32.812409,-26.0
2023-08-12 16:41:32.820098,-23.0
2023-08-12 16:41:32.827788,-21.0
2023-08-12 16:41:32.835478,-21.0
2023-08-12 16:41:32.843168,-21.0
2023-08-12 16:41:32.850858,-23.0
2023-08-12 16:41:32.858547,-23.0
2023-08-12 16:41:32.866237,-19.0
2023-08-12 16:41:32.873927,-19.0
2023-08-12 16:41:32.881617,-21.0
2023-08-12 16:41:32.889307,-23.0
2023-08-12 16:41:32.896996,-21.0
2023-08-12 16:41:32.904686,-19.0
2023-08-12 16:41:32.912376,-19.0
2023-08-12 16:41:32.920066,-23.0
2023-08-12 16:41:32.927756,-23.0
2023-08-12 16:41:32.935445,-21.0
2023-08-12 16:41:32.943135,-23.0
2023-08-12 16:41:32.950825,-23.0
2023-08-12 16:41:32.958515,-23.0
2023-08-12 16:41:32.966205,-26.0
2023-08-12 16:41:32.973894,-26.0
2023-08-12 16:41:32.981584,-23.0
2023-08-12 16:41:32.989274,-28.0
2023-08-12 16:41:32.996964,-28.0
2023-08-12 16:41:33.004653,-23.0
2023-08-12 16:41:33.012343,-26.0
2023-08-12 16:41:33.020033,-40.0
2023-08-12 16:41:33.027723,-54.0
2023-08-12 16:41:33.035413,-59.0
2023-08-12 16:41:33.043102,-61.0
2023-08-12 16:41:33.050792,-64.0
2023-08-12 16:41:33.058482,-49.0
2023-08-12 16:41:33.066172,-28.0
2023-08-12 16:41:33.073862,-26.0
2023-08-12 16:41:33.081551,-26.0
2023-08-12 16:41:33.089241,-19.0
2023-08-12 16:41:33.096931,-19.0
2023-08-12 16:41:33.104621,-19.0
2023-08-12 16:41:33.112311,-16.0
2023-08-12 16:41:33.120000,-19.0
2023-08-12 16:41:33.127690,-26.0
2023-08-12 16:41:33.135380,-28.0
2023-08-12 16:41:33.143070,-26.0
2023-08-12 16:41:33.150760,-57.0
2023-08-12 16:41:33.158449,-190.0
2023-08-12 16:41:33.166139,-459.0
2023-08-12 16:41:33.173829,-633.0
2023-08-12 16:41:33.181519,-297.0
2023-08-12 16:41:33.189208,171.0
2023-08-12 16:41:33.196898,83.0
2023-08-12 16:41:33.204588,-121.0
2023-08-12 16:41:33.212278,-16.0
2023-08-12 16:41:33.219968,28.0
2023-08-12 16:41:33.227657,-40.0
2023-08-12 16:41:33.235347,-26.0
2023-08-12 16:41:33.243037,-2.0
2023-08-12 16:41:33.250727,-23.0
2023-08-12 16:41:33.258417,-30.0
2023-08-12 16:41:33.266106,-21.0
2023-08-12 16:41:33.273796,-28.0
2023-08-12 16:41:33.281486,-30.0
2023-08-12 16:41:33.289176,-30.0
2023-08-12 16:41:33.296866,-40.0
2023-08-12 16:41:33.304555,-47.0
2023-08-12 16:41:33.312245,-47.0
2023-08-12 16:41:33.319935,-45.0
2023-08-12 16:41:33.327625,-54.0
2023-08-12 16:41:33.335315,-61.0
2023-08-12 16:41:33.343004,-64.0
2023-08-12 16:41:33.350694,-71.0
2023-08-12 16:41:33.358384,-76.0
2023-08-12 16:41:33.366074,-80.0
2023-08-12 16:41:33.373764,-85.0
2023-08-12 16:41:33.381453,-92.0
2023-08-12 16:41:33.389143,-107.0
2023-08-12 16:41:33.396833,-114.0
2023-08-12 16:41:33.404523,-116.0
2023-08-12 16:41:33.412212,-121.0
2023-08-12 16:41:33.419902,-128.0
2023-08-12 16:41:33.427592,-133.0
2023-08-12 16:41:33.435282,-138.0
2023-08-12 16:41:33.442972,-140.0
2023-08-12 16:41:33.450661,-130.0
2023-08-12 16:41:33.458351,-116.0
2023-08-12 16:41:33.466041,-95.0
2023-08-12 16:41:33.473731,-71.0
2023-08-12 16:41:33.481421,-52.0
2023-08-12 16:41:33.489110,-33.0
2023-08-12 16:41:33.496800,-11.0
2023-08-12 16:41:33.504490,2.0
2023-08-12 16:41:33.512180,7.0
2023-08-12 16:41:33.519870,11.0
2023-08-12 16:41:33.527559,14.0
2023-08-12 16:41:33.535249,9.0
2023-08-12 16:41:33.542939,7.0
2023-08-12 16:41:33.550629,9.0
2023-08-12 16:41:33.558319,7.0
2023-08-12 16:41:33.566008,7.0
2023-08-12 16:41:33.573698,7.0
2023-08-12 16:41:33.581388,7.0
2023-08-12 16:41:33.589078,4.0
2023-08-12 16:41:33.596767,2.0
2023-08-12 16:41:33.604457,0.0
2023-08-12 16:41:33.612147,0.0
2023-08-12 16:41:33.619837,-2.0
2023-08-12 16:41:33.627527,-7.0
2023-08-12 16:41:33.635216,-11.0
2023-08-12 16:41:33.642906,-14.0
2023-08-12 16:41:33.650596,-9.0
2023-08-12 16:41:33.658286,-4.0
2023-08-12 16:41:33.665976,-4.0
2023-08-12 16:41:33.673665,-2.0
2023-08-12 16:41:33.681355,-4.0
2023-08-12 16:41:33.689045,-7.0
2023-08-12 16:41:33.696735,0.0
2023-08-12 16:41:33.704425,4.0
2023-08-12 16:41:33.712114,2.0
2023-08-12 16:41:33.719804,2.0
2023-08-12 16:41:33.727494,7.0
2023-08-12 16:41:33.735184,7.0
2023-08-12 16:41:33.742874,4.0
2023-08-12 16:41:33.750563,7.0
2023-08-12 16:41:33.758253,7.0
2023-08-12 16:41:33.765943,9.0
2023-08-12 16:41:33.773633,11.0
2023-08-12 16:41:33.781323,16.0
2023-08-12 16:41:33.789012,14.0
2023-08-12 16:41:33.796702,9.0
2023-08-12 16:41:33.804392,11.0
2023-08-12 16:41:33.812082,16.0
2023-08-12 16:41:33.819771,14.0
2023-08-12 16:41:33.827461,16.0
2023-08-12 16:41:33.835151,14.0
2023-08-12 16:41:33.842841,7.0
2023-08-12 16:41:33.850531,4.0
2023-08-12 16:41:33.858220,4.0
2023-08-12 16:41:33.865910,2.0
2023-08-12 16:41:33.873600,4.0
2023-08-12 16:41:33.881290,7.0
2023-08-12 16:41:33.888980,7.0
2023-08-12 16:41:33.896669,-4.0
2023-08-12 16:41:33.904359,-19.0
2023-08-12 16:41:33.912049,-26.0
2023-08-12 16:41:33.919739,-33.0
2023-08-12 16:41:33.927429,-38.0
2023-08-12 16:41:33.935118,-23.0
2023-08-12 16:41:33.942808,2.0
2023-08-12 16:41:33.950498,11.0
2023-08-12 16:41:33.958188,7.0
2023-08-12 16:41:33.965878,9.0
2023-08-12 16:41:33.973567,14.0
2023-08-12 16:41:33.981257,11.0
2023-08-12 16:41:33.988947,7.0
2023-08-12 16:41:33.996637,4.0
2023-08-12 16:41:34.004326,9.0
2023-08-12 16:41:34.012016,11.0
2023-08-12 16:41:34.019706,7.0
2023-08-12 16:41:34.027396,-21.0
2023-08-12 16:41:34.035086,-126.0
2023-08-12 16:41:34.042775,-361.0
2023-08-12 16:41:34.050465,-571.0
2023-08-12 16:41:34.058155,-318.0
2023-08-12 16:41:34.065845,195.0
2023-08-12 16:41:34.073535,192.0
2023-08-12 16:41:34.081224,-61.0
2023-08-12 16:41:34.088914,7.0
2023-08-12 16:41:34.096604,85.0
2023-08-12 16:41:34.104294,9.0
2023-08-12 16:41:34.111984,9.0
2023-08-12 16:41:34.119673,45.0
2023-08-12 16:41:34.127363,23.0
2023-08-12 16:41:34.135053,4.0
2023-08-12 16:41:34.142743,11.0
2023-08-12 16:41:34.150433,11.0
2023-08-12 16:41:34.158122,2.0
2023-08-12 16:41:34.165812,0.0
2023-08-12 16:41:34.173502,-9.0
2023-08-12 16:41:34.181192,-16.0
2023-08-12 16:41:34.188882,-16.0
2023-08-12 16:41:34.196571,-21.0
2023-08-12 16:41:34.204261,-28.0
2023-08-12 16:41:34.211951,-33.0
2023-08-12 16:41:34.219641,-38.0
2023-08-12 16:41:34.227330,-47.0
2023-08-12 16:41:34.235020,-59.0
2023-08-12 16:41:34.242710,-66.0
2023-08-12 16:41:34.250400,-71.0
2023-08-12 16:41:34.258090,-73.0
2023-08-12 16:41:34.265779,-83.0
2023-08-12 16:41:34.273469,-97.0
2023-08-12 16:41:34.281159,-104.0
2023-08-12 16:41:34.288849,-111.0
2023-08-12 16:41:34.296539,-116.0
2023-08-12 16:41:34.304228,-119.0
2023-08-12 16:41:34.311918,-121.0
2023-08-12 16:41:34.319608,-121.0
2023-08-12 16:41:34.327298,-116.0
2023-08-12 16:41:34.334988,-107.0
2023-08-12 16:41:34.342677,-88.0
2023-08-12 16:41:34.350367,-57.0
2023-08-12 16:41:34.358057,-28.0
2023-08-12 16:41:34.365747,-14.0
2023-08-12 16:41:34.373437,-4.0
2023-08-12 16:41:34.381126,4.0
2023-08-12 16:41:34.388816,11.0
2023-08-12 16:41:34.396506,16.0
2023-08-12 16:41:34.404196,16.0
2023-08-12 16:41:34.411885,14.0
2023-08-12 16:41:34.419575,11.0
2023-08-12 16:41:34.427265,14.0
2023-08-12 16:41:34.434955,11.0
2023-08-12 16:41:34.442645,4.0
2023-08-12 16:41:34.450334,2.0
2023-08-12 16:41:34.458024,2.0
2023-08-12 16:41:34.465714,-2.0
2023-08-12 16:41:34.473404,-4.0
2023-08-12 16:41:34.481094,-2.0
2023-08-12 16:41:34.488783,-4.0
2023-08-12 16:41:34.496473,-7.0
2023-08-12 16:41:34.504163,-7.0
2023-08-12 16:41:34.511853,-9.0
2023-08-12 16:41:34.519543,-14.0
2023-08-12 16:41:34.527232,-14.0
2023-08-12 16:41:34.534922,-7.0
2023-08-12 16:41:34.542612,-7.0
2023-08-12 16:41:34.550302,-14.0
2023-08-12 16:41:34.557992,-11.0
2023-08-12 16:41:34.565681,-2.0
2023-08-12 16:41:34.573371,-7.0
2023-08-12 16:41:34.581061,-14.0
2023-08-12 16:41:34.588751,-11.0
2023-08-12 16:41:34.596441,-9.0
2023-08-12 16:41:34.604130,-14.0
2023-08-12 16:41:34.611820,-19.0
2023-08-12 16:41:34.619510,-14.0
2023-08-12 16:41:34.627200,-14.0
2023-08-12 16:41:34.634889,-21.0
2023-08-12 16:41:34.642579,-33.0
2023-08-12 16:41:34.650269,-45.0
2023-08-12 16:41:34.657959,-54.0
2023-08-12 16:41:34.665649,-66.0
2023-08-12 16:41:34.673338,-73.0
2023-08-12 16:41:34.681028,-69.0
2023-08-12 16:41:34.688718,-45.0
2023-08-12 16:41:34.696408,-30.0
2023-08-12 16:41:34.704098,-33.0
2023-08-12 16:41:34.711787,-30.0
2023-08-12 16:41:34.719477,-28.0
2023-08-12 16:41:34.727167,-30.0
2023-08-12 16:41:34.734857,-30.0
2023-08-12 16:41:34.742547,-33.0
2023-08-12 16:41:34.750236,-33.0
2023-08-12 16:41:34.757926,-33.0
2023-08-12 16:41:34.765616,-35.0
2023-08-12 16:41:34.773306,-40.0
2023-08-12 16:41:34.780996,-78.0
2023-08-12 16:41:34.788685,-226.0
2023-08-12 16:41:34.796375,-509.0
2023-08-12 16:41:34.804065,-645.0
2023-08-12 16:41:34.811755,-242.0
2023-08-12 16:41:34.819444,207.0
2023-08-12 16:41:34.827134,64.0
2023-08-12 16:41:34.834824,-130.0
2023-08-12 16:41:34.842514,-9.0
2023-08-12 16:41:34.850204,19.0
2023-08-12 16:41:34.857893,-61.0
2023-08-12 16:41:34.865583,-42.0
2023-08-12 16:41:34.873273,-16.0
2023-08-12 16:41:34.880963,-42.0
2023-08-12 16:41:34.888653,-47.0
2023-08-12 16:41:34.896342,-38.0
2023-08-12 16:41:34.904032,-47.0
2023-08-12 16:41:34.911722,-59.0
2023-08-12 16:41:34.919412,-57.0
2023-08-12 16:41:34.927102,-59.0
2023-08-12 16:41:34.934791,-64.0
2023-08-12 16:41:34.942481,-66.0
2023-08-12 16:41:34.950171,-71.0
2023-08-12 16:41:34.957861,-80.0
2023-08-12 16:41:34.965551,-90.0
2023-08-12 16:41:34.973240,-97.0
2023-08-12 16:41:34.980930,-102.0
2023-08-12 16:41:34.988620,-107.0
2023-08-12 16:41:34.996310,-119.0
2023-08-12 16:41:35.003999,-130.0
2023-08-12 16:41:35.011689,-147.0
2023-08-12 16:41:35.019379,-159.0
2023-08-12 16:41:35.027069,-166.0
2023-08-12 16:41:35.034759,-176.0
2023-08-12 16:41:35.042448,-185.0
2023-08-12 16:41:35.050138,-192.0
2023-08-12 16:41:35.057828,-197.0
2023-08-12 16:41:35.065518,-197.0
2023-08-12 16:41:35.073208,-195.0
2023-08-12 16:41:35.080897,-183.0
2023-08-12 16:41:35.088587,-161.0
2023-08-12 16:41:35.096277,-133.0
2023-08-12 16:41:35.103967,-109.0
2023-08-12 16:41:35.111657,-88.0
2023-08-12 16:41:35.119346,-64.0
2023-08-12 16:41:35.127036,-47.0
2023-08-12 16:41:35.134726,-42.0
2023-08-12 16:41:35.142416,-38.0
2023-08-12 16:41:35.150106,-38.0
2023-08-12 16:41:35.157795,-40.0
2023-08-12 16:41:35.165485,-42.0
2023-08-12 16:41:35.173175,-38.0
2023-08-12 16:41:35.180865,-38.0
2023-08-12 16:41:35.188555,-45.0
2023-08-12 16:41:35.196244,-47.0
2023-08-12 16:41:35.203934,-47.0
2023-08-12 16:41:35.211624,-49.0
2023-08-12 16:41:35.219314,-49.0
2023-08-12 16:41:35.227003,-52.0
2023-08-12 16:41:35.234693,-52.0
2023-08-12 16:41:35.242383,-54.0
2023-08-12 16:41:35.250073,-57.0
2023-08-12 16:41:35.257763,-57.0
2023-08-12 16:41:35.265452,-57.0
2023-08-12 16:41:35.273142,-52.0
2023-08-12 16:41:35.280832,-49.0
2023-08-12 16:41:35.288522,-52.0
2023-08-12 16:41:35.296212,-54.0
2023-08-12 16:41:35.303901,-47.0
2023-08-12 16:41:35.311591,-42.0
2023-08-12 16:41:35.319281,-42.0
2023-08-12 16:41:35.326971,-45.0
2023-08-12 16:41:35.334661,-40.0
2023-08-12 16:41:35.342350,-40.0
2023-08-12 16:41:35.350040,-47.0
2023-08-12 16:41:35.357730,-47.0
2023-08-12 16:41:35.365420,-45.0
2023-08-12 16:41:35.373110,-47.0
2023-08-12 16:41:35.380799,-47.0
2023-08-12 16:41:35.388489,-45.0
2023-08-12 16:41:35.396179,-47.0
2023-08-12 16:41:35.403869,-47.0
2023-08-12 16:41:35.411558,-45.0
2023-08-12 16:41:35.419248,-49.0
2023-08-12 16:41:35.426938,-49.0
2023-08-12 16:41:35.434628,-45.0
2023-08-12 16:41:35.442318,-42.0
2023-08-12 16:41:35.450007,-42.0
2023-08-12 16:41:35.457697,-45.0
2023-08-12 16:41:35.465387,-52.0
2023-08-12 16:41:35.473077,-69.0
2023-08-12 16:41:35.480767,-80.0
2023-08-12 16:41:35.488456,-85.0
2023-08-12 16:41:35.496146,-88.0
2023-08-12 16:41:35.503836,-78.0
2023-08-12 16:41:35.511526,-64.0
2023-08-12 16:41:35.519216,-54.0
2023-08-12 16:41:35.526905,-47.0
2023-08-12 16:41:35.534595,-42.0
2023-08-12 16:41:35.542285,-42.0
2023-08-12 16:41:35.549975,-42.0
2023-08-12 16:41:35.557665,-42.0
2023-08-12 16:41:35.565354,-42.0
2023-08-12 16:41:35.573044,-42.0
2023-08-12 16:41:35.580734,-40.0
2023-08-12 16:41:35.588424,-40.0
2023-08-12 16:41:35.596114,-57.0
2023-08-12 16:41:35.603803,-130.0
2023-08-12 16:41:35.611493,-333.0
2023-08-12 16:41:35.619183,-614.0
2023-08-12 16:41:35.626873,-554.0
2023-08-12 16:41:35.634562,-21.0
2023-08-12 16:41:35.642252,197.0
2023-08-12 16:41:35.649942,-59.0
2023-08-12 16:41:35.657632,-97.0
2023-08-12 16:41:35.665322,30.0
2023-08-12 16:41:35.673011,-9.0
2023-08-12 16:41:35.680701,-45.0
2023-08-12 16:41:35.688391,-4.0
2023-08-12 16:41:35.696081,-11.0
2023-08-12 16:41:35.703771,-35.0
2023-08-12 16:41:35.711460,-21.0
2023-08-12 16:41:35.719150,-21.0
2023-08-12 16:41:35.726840,-33.0
2023-08-12 16:41:35.734530,-30.0
2023-08-12 16:41:35.742220,-30.0
2023-08-12 16:41:35.749909,-35.0
2023-08-12 16:41:35.757599,-35.0
2023-08-12 16:41:35.765289,-35.0
2023-08-12 16:41:35.772979,-45.0
2023-08-12 16:41:35.780669,-52.0
2023-08-12 16:41:35.788358,-57.0
2023-08-12 16:41:35.796048,-61.0
2023-08-12 16:41:35.803738,-71.0
2023-08-12 16:41:35.811428,-78.0
2023-08-12 16:41:35.819117,-88.0
2023-08-12 16:41:35.826807,-97.0
2023-08-12 16:41:35.834497,-107.0
2023-08-12 16:41:35.842187,-119.0
2023-08-12 16:41:35.849877,-130.0
2023-08-12 16:41:35.857566,-145.0
2023-08-12 16:41:35.865256,-157.0
2023-08-12 16:41:35.872946,-161.0
2023-08-12 16:41:35.880636,-161.0
2023-08-12 16:41:35.888326,-166.0
2023-08-12 16:41:35.896015,-166.0
2023-08-12 16:41:35.903705,-154.0
2023-08-12 16:41:35.911395,-133.0
2023-08-12 16:41:35.919085,-107.0
2023-08-12 16:41:35.926775,-80.0
2023-08-12 16:41:35.934464,-61.0
2023-08-12 16:41:35.942154,-42.0
2023-08-12 16:41:35.949844,-28.0
2023-08-12 16:41:35.957534,-21.0
2023-08-12 16:41:35.965224,-21.0
2023-08-12 16:41:35.972913,-16.0
2023-08-12 16:41:35.980603,-16.0
2023-08-12 16:41:35.988293,-19.0
2023-08-12 16:41:35.995983,-19.0
2023-08-12 16:41:36.003673,-19.0
2023-08-12 16:41:36.011362,-21.0
2023-08-12 16:41:36.019052,-23.0
2023-08-12 16:41:36.026742,-23.0
2023-08-12 16:41:36.034432,-23.0
2023-08-12 16:41:36.042121,-30.0
2023-08-12 16:41:36.049811,-38.0
2023-08-12 16:41:36.057501,-38.0
2023-08-12 16:41:36.065191,-40.0
2023-08-12 16:41:36.072881,-40.0
2023-08-12 16:41:36.080570,-40.0
2023-08-12 16:41:36.088260,-40.0
2023-08-12 16:41:36.095950,-40.0
2023-08-12 16:41:36.103640,-38.0
2023-08-12 16:41:36.111330,-35.0
2023-08-12 16:41:36.119019,-33.0
2023-08-12 16:41:36.126709,-30.0
2023-08-12 16:41:36.134399,-28.0
2023-08-12 16:41:36.142089,-28.0
2023-08-12 16:41:36.149779,-26.0
2023-08-12 16:41:36.157468,-23.0
2023-08-12 16:41:36.165158,-23.0
2023-08-12 16:41:36.172848,-23.0
2023-08-12 16:41:36.180538,-23.0
2023-08-12 16:41:36.188228,-23.0
2023-08-12 16:41:36.195917,-21.0
2023-08-12 16:41:36.203607,-21.0
2023-08-12 16:41:36.211297,-19.0
2023-08-12 16:41:36.218987,-16.0
2023-08-12 16:41:36.226676,-16.0
2023-08-12 16:41:36.234366,-16.0
2023-08-12 16:41:36.242056,-14.0
2023-08-12 16:41:36.249746,-14.0
2023-08-12 16:41:36.257436,-14.0
2023-08-12 16:41:36.265125,-14.0
2023-08-12 16:41:36.272815,-14.0
2023-08-12 16:41:36.280505,-14.0
2023-08-12 16:41:36.288195,-14.0
2023-08-12 16:41:36.295885,-11.0
2023-08-12 16:41:36.303574,-14.0
2023-08-12 16:41:36.311264,-19.0
2023-08-12 16:41:36.318954,-16.0
2023-08-12 16:41:36.326644,-14.0
2023-08-12 16:41:36.334334,-16.0
2023-08-12 16:41:36.342023,-16.0
2023-08-12 16:41:36.349713,-14.0
2023-08-12 16:41:36.357403,-19.0
2023-08-12 16:41:36.365093,-23.0
2023-08-12 16:41:36.372783,-33.0
2023-08-12 16:41:36.380472,-49.0
2023-08-12 16:41:36.388162,-59.0
2023-08-12 16:41:36.395852,-64.0
2023-08-12 16:41:36.403542,-66.0
2023-08-12 16:41:36.411232,-52.0
2023-08-12 16:41:36.418921,-28.0
2023-08-12 16:41:36.426611,-19.0
2023-08-12 16:41:36.434301,-19.0
2023-08-12 16:41:36.441991,-16.0
2023-08-12 16:41:36.449680,-16.0
2023-08-12 16:41:36.457370,-14.0
2023-08-12 16:41:36.465060,-11.0
2023-08-12 16:41:36.472750,-14.0
2023-08-12 16:41:36.480440,-11.0
2023-08-12 16:41:36.488129,-9.0
2023-08-12 16:41:36.495819,-11.0
2023-08-12 16:41:36.503509,-23.0
2023-08-12 16:41:36.511199,-92.0
2023-08-12 16:41:36.518889,-288.0
2023-08-12 16:41:36.526578,-566.0
2023-08-12 16:41:36.534268,-516.0
2023-08-12 16:41:36.541958,0.0
2023-08-12 16:41:36.549648,221.0
2023-08-12 16:41:36.557338,-21.0
2023-08-12 16:41:36.565027,-57.0
2023-08-12 16:41:36.572717,66.0
2023-08-12 16:41:36.580407,23.0
2023-08-12 16:41:36.588097,-14.0
2023-08-12 16:41:36.595787,30.0
2023-08-12 16:41:36.603476,28.0
2023-08-12 16:41:36.611166,9.0
2023-08-12 16:41:36.618856,16.0
2023-08-12 16:41:36.626546,14.0
2023-08-12 16:41:36.634235,4.0
2023-08-12 16:41:36.641925,7.0
2023-08-12 16:41:36.649615,9.0
2023-08-12 16:41:36.657305,2.0
2023-08-12 16:41:36.664995,-2.0
2023-08-12 16:41:36.672684,-4.0
2023-08-12 16:41:36.680374,-14.0
2023-08-12 16:41:36.688064,-21.0
2023-08-12 16:41:36.695754,-21.0
2023-08-12 16:41:36.703444,-23.0
2023-08-12 16:41:36.711133,-33.0
2023-08-12 16:41:36.718823,-47.0
2023-08-12 16:41:36.726513,-59.0
2023-08-12 16:41:36.734203,-66.0
2023-08-12 16:41:36.741893,-71.0
2023-08-12 16:41:36.749582,-78.0
2023-08-12 16:41:36.757272,-90.0
2023-08-12 16:41:36.764962,-102.0
2023-08-12 16:41:36.772652,-109.0
2023-08-12 16:41:36.780342,-114.0
2023-08-12 16:41:36.788031,-121.0
2023-08-12 16:41:36.795721,-123.0
2023-08-12 16:41:36.803411,-119.0
2023-08-12 16:41:36.811101,-111.0
2023-08-12 16:41:36.818791,-92.0
2023-08-12 16:41:36.826480,-69.0
2023-08-12 16:41:36.834170,-42.0
2023-08-12 16:41:36.841860,-21.0
2023-08-12 16:41:36.849550,0.0
2023-08-12 16:41:36.857239,14.0
2023-08-12 16:41:36.864929,16.0
2023-08-12 16:41:36.872619,11.0
2023-08-12 16:41:36.880309,11.0
2023-08-12 16:41:36.887999,11.0
2023-08-12 16:41:36.895688,14.0
2023-08-12 16:41:36.903378,14.0
2023-08-12 16:41:36.911068,11.0
2023-08-12 16:41:36.918758,11.0
2023-08-12 16:41:36.926448,11.0
2023-08-12 16:41:36.934137,11.0
2023-08-12 16:41:36.941827,7.0
2023-08-12 16:41:36.949517,4.0
2023-08-12 16:41:36.957207,4.0
2023-08-12 16:41:36.964897,2.0
2023-08-12 16:41:36.972586,2.0
2023-08-12 16:41:36.980276,7.0
2023-08-12 16:41:36.987966,4.0
2023-08-12 16:41:36.995656,2.0
2023-08-12 16:41:37.003346,7.0
2023-08-12 16:41:37.011035,11.0
2023-08-12 16:41:37.018725,9.0
2023-08-12 16:41:37.026415,9.0
2023-08-12 16:41:37.034105,14.0
2023-08-12 16:41:37.041794,14.0
2023-08-12 16:41:37.049484,14.0
2023-08-12 16:41:37.057174,16.0
2023-08-12 16:41:37.064864,19.0
2023-08-12 16:41:37.072554,16.0
2023-08-12 16:41:37.080243,19.0
2023-08-12 16:41:37.087933,23.0
2023-08-12 16:41:37.095623,23.0
2023-08-12 16:41:37.103313,19.0
2023-08-12 16:41:37.111003,19.0
2023-08-12 16:41:37.118692,21.0
2023-08-12 16:41:37.126382,19.0
2023-08-12 16:41:37.134072,14.0
2023-08-12 16:41:37.141762,16.0
2023-08-12 16:41:37.149452,21.0
2023-08-12 16:41:37.157141,21.0
2023-08-12 16:41:37.164831,11.0
2023-08-12 16:41:37.172521,-7.0
2023-08-12 16:41:37.180211,-21.0
2023-08-12 16:41:37.187901,-23.0
2023-08-12 16:41:37.195590,-23.0
2023-08-12 16:41:37.203280,-14.0
2023-08-12 16:41:37.210970,4.0
2023-08-12 16:41:37.218660,11.0
2023-08-12 16:41:37.226350,9.0
2023-08-12 16:41:37.234039,9.0
2023-08-12 16:41:37.241729,9.0
2023-08-12 16:41:37.249419,11.0
2023-08-12 16:41:37.257109,14.0
2023-08-12 16:41:37.264798,7.0
2023-08-12 16:41:37.272488,4.0
2023-08-12 16:41:37.280178,11.0
2023-08-12 16:41:37.287868,7.0
2023-08-12 16:41:37.295558,-7.0
2023-08-12 16:41:37.303247,-52.0
2023-08-12 16:41:37.310937,-211.0
2023-08-12 16:41:37.318627,-487.0
2023-08-12 16:41:37.326317,-528.0
2023-08-12 16:41:37.334007,-59.0
2023-08-12 16:41:37.341696,283.0
2023-08-12 16:41:37.349386,66.0
2023-08-12 16:41:37.357076,-69.0
2023-08-12 16:41:37.364766,57.0
2023-08-12 16:41:37.372456,47.0
2023-08-12 16:41:37.380145,-14.0
2023-08-12 16:41:37.387835,21.0
2023-08-12 16:41:37.395525,33.0
2023-08-12 16:41:37.403215,4.0
2023-08-12 16:41:37.410905,7.0
2023-08-12 16:41:37.418594,11.0
2023-08-12 16:41:37.426284,2.0
2023-08-12 16:41:37.433974,2.0
2023-08-12 16:41:37.441664,4.0
2023-08-12 16:41:37.449353,-4.0
2023-08-12 16:41:37.457043,-9.0
2023-08-12 16:41:37.464733,-9.0
2023-08-12 16:41:37.472423,-16.0
2023-08-12 16:41:37.480113,-21.0
2023-08-12 16:41:37.487802,-23.0
2023-08-12 16:41:37.495492,-28.0
2023-08-12 16:41:37.503182,-38.0
2023-08-12 16:41:37.510872,-47.0
2023-08-12 16:41:37.518562,-57.0
2023-08-12 16:41:37.526251,-61.0
2023-08-12 16:41:37.533941,-69.0
2023-08-12 16:41:37.541631,-80.0
2023-08-12 16:41:37.549321,-90.0
2023-08-12 16:41:37.557011,-97.0
2023-08-12 16:41:37.564700,-107.0
2023-08-12 16:41:37.572390,-116.0
2023-08-12 16:41:37.580080,-119.0
2023-08-12 16:41:37.587770,-119.0
2023-08-12 16:41:37.595460,-116.0
2023-08-12 16:41:37.603149,-107.0
2023-08-12 16:41:37.610839,-88.0
2023-08-12 16:41:37.618529,-64.0
2023-08-12 16:41:37.626219,-40.0
2023-08-12 16:41:37.633909,-23.0
2023-08-12 16:41:37.641598,-9.0
2023-08-12 16:41:37.649288,4.0
2023-08-12 16:41:37.656978,7.0
2023-08-12 16:41:37.664668,4.0
2023-08-12 16:41:37.672357,7.0
2023-08-12 16:41:37.680047,9.0
2023-08-12 16:41:37.687737,4.0
2023-08-12 16:41:37.695427,2.0
2023-08-12 16:41:37.703117,0.0
2023-08-12 16:41:37.710806,-7.0
2023-08-12 16:41:37.718496,-11.0
2023-08-12 16:41:37.726186,-11.0
2023-08-12 16:41:37.733876,-16.0
2023-08-12 16:41:37.741566,-23.0
2023-08-12 16:41:37.749255,-26.0
2023-08-12 16:41:37.756945,-35.0
2023-08-12 16:41:37.764635,-40.0
2023-08-12 16:41:37.772325,-38.0
2023-08-12 16:41:37.780015,-35.0
2023-08-12 16:41:37.787704,-38.0
2023-08-12 16:41:37.795394,-35.0
2023-08-12 16:41:37.803084,-38.0
2023-08-12 16:41:37.810774,-38.0
2023-08-12 16:41:37.818464,-33.0
2023-08-12 16:41:37.826153,-33.0
2023-08-12 16:41:37.833843,-35.0
2023-08-12 16:41:37.841533,-35.0
2023-08-12 16:41:37.849223,-33.0
2023-08-12 16:41:37.856912,-33.0
2023-08-12 16:41:37.864602,-35.0
2023-08-12 16:41:37.872292,-38.0
2023-08-12 16:41:37.879982,-42.0
2023-08-12 16:41:37.887672,-49.0
2023-08-12 16:41:37.895361,-45.0
2023-08-12 16:41:37.903051,-42.0
2023-08-12 16:41:37.910741,-42.0
2023-08-12 16:41:37.918431,-47.0
2023-08-12 16:41:37.926121,-57.0
2023-08-12 16:41:37.933810,-71.0
2023-08-12 16:41:37.941500,-80.0
2023-08-12 16:41:37.949190,-85.0
2023-08-12 16:41:37.956880,-80.0
2023-08-12 16:41:37.964570,-61.0
2023-08-12 16:41:37.972259,-42.0
2023-08-12 16:41:37.979949,-38.0
2023-08-12 16:41:37.987639,-38.0
2023-08-12 16:41:37.995329,-35.0
2023-08-12 16:41:38.003019,-35.0
2023-08-12 16:41:38.010708,-35.0
2023-08-12 16:41:38.018398,-33.0
2023-08-12 16:41:38.026088,-38.0
2023-08-12 16:41:38.033778,-40.0
2023-08-12 16:41:38.041468,-38.0
2023-08-12 16:41:38.049157,-38.0
2023-08-12 16:41:38.056847,-57.0
2023-08-12 16:41:38.064537,-145.0
2023-08-12 16:41:38.072227,-373.0
2023-08-12 16:41:38.079916,-645.0
2023-08-12 16:41:38.087606,-495.0
2023-08-12 16:41:38.095296,61.0
2023-08-12 16:41:38.102986,195.0
2023-08-12 16:41:38.110676,-83.0
2023-08-12 16:41:38.118365,-78.0
2023-08-12 16:41:38.126055,40.0
2023-08-12 16:41:38.133745,-16.0
2023-08-12 16:41:38.141435,-45.0
2023-08-12 16:41:38.149125,-4.0
2023-08-12 16:41:38.156814,-16.0
2023-08-12 16:41:38.164504,-38.0
2023-08-12 16:41:38.172194,-26.0
2023-08-12 16:41:38.179884,-23.0
2023-08-12 16:41:38.187574,-33.0
2023-08-12 16:41:38.195263,-33.0
2023-08-12 16:41:38.202953,-38.0
2023-08-12 16:41:38.210643,-42.0
2023-08-12 16:41:38.218333,-40.0
2023-08-12 16:41:38.226023,-45.0
2023-08-12 16:41:38.233712,-54.0
2023-08-12 16:41:38.241402,-57.0
2023-08-12 16:41:38.249092,-61.0
2023-08-12 16:41:38.256782,-69.0
2023-08-12 16:41:38.264471,-76.0
2023-08-12 16:41:38.272161,-83.0
2023-08-12 16:41:38.279851,-92.0
2023-08-12 16:41:38.287541,-99.0
2023-08-12 16:41:38.295231,-114.0
2023-08-12 16:41:38.302920,-128.0
2023-08-12 16:41:38.310610,-135.0
2023-08-12 16:41:38.318300,-142.0
2023-08-12 16:41:38.325990,-152.0
2023-08-12 16:41:38.333680,-159.0
2023-08-12 16:41:38.341369,-166.0
2023-08-12 16:41:38.349059,-169.0
2023-08-12 16:41:38.356749,-161.0
2023-08-12 16:41:38.364439,-149.0
2023-08-12 16:41:38.372129,-126.0
2023-08-12 16:41:38.379818,-99.0
2023-08-12 16:41:38.387508,-80.0
2023-08-12 16:41:38.395198,-64.0
2023-08-12 16:41:38.402888,-49.0
2023-08-12 16:41:38.410578,-40.0
2023-08-12 16:41:38.418267,-33.0
2023-08-12 16:41:38.425957,-33.0
2023-08-12 16:41:38.433647,-35.0
2023-08-12 16:41:38.441337,-38.0
2023-08-12 16:41:38.449027,-38.0
2023-08-12 16:41:38.456716,-40.0
2023-08-12 16:41:38.464406,-40.0
2023-08-12 16:41:38.472096,-42.0
2023-08-12 16:41:38.479786,-47.0
2023-08-12 16:41:38.487475,-49.0
2023-08-12 16:41:38.495165,-49.0
2023-08-12 16:41:38.502855,-52.0
2023-08-12 16:41:38.510545,-52.0
2023-08-12 16:41:38.518235,-52.0
2023-08-12 16:41:38.525924,-59.0
2023-08-12 16:41:38.533614,-61.0
2023-08-12 16:41:38.541304,-61.0
2023-08-12 16:41:38.548994,-61.0
2023-08-12 16:41:38.556684,-61.0
2023-08-12 16:41:38.564373,-61.0
2023-08-12 16:41:38.572063,-59.0
2023-08-12 16:41:38.579753,-57.0
2023-08-12 16:41:38.587443,-52.0
2023-08-12 16:41:38.595133,-52.0
2023-08-12 16:41:38.602822,-52.0
2023-08-12 16:41:38.610512,-57.0
2023-08-12 16:41:38.618202,-57.0
2023-08-12 16:41:38.625892,-52.0
2023-08-12 16:41:38.633582,-47.0
2023-08-12 16:41:38.641271,-52.0
2023-08-12 16:41:38.648961,-52.0
2023-08-12 16:41:38.656651,-52.0
2023-08-12 16:41:38.664341,-52.0
2023-08-12 16:41:38.672030,-49.0
2023-08-12 16:41:38.679720,-47.0
2023-08-12 16:41:38.687410,-49.0
2023-08-12 16:41:38.695100,-47.0
2023-08-12 16:41:38.702790,-49.0
2023-08-12 16:41:38.710479,-49.0
2023-08-12 16:41:38.718169,-47.0
2023-08-12 16:41:38.725859,-45.0
2023-08-12 16:41:38.733549,-47.0
2023-08-12 16:41:38.741239,-52.0
2023-08-12 16:41:38.748928,-49.0
2023-08-12 16:41:38.756618,-45.0
2023-08-12 16:41:38.764308,-47.0
2023-08-12 16:41:38.771998,-59.0
2023-08-12 16:41:38.779688,-73.0
2023-08-12 16:41:38.787377,-83.0
2023-08-12 16:41:38.795067,-85.0
2023-08-12 16:41:38.802757,-85.0
2023-08-12 16:41:38.810447,-69.0
2023-08-12 16:41:38.818137,-49.0
2023-08-12 16:41:38.825826,-47.0
2023-08-12 16:41:38.833516,-45.0
2023-08-12 16:41:38.841206,-40.0
2023-08-12 16:41:38.848896,-42.0
2023-08-12 16:41:38.856585,-45.0
2023-08-12 16:41:38.864275,-42.0
2023-08-12 16:41:38.871965,-40.0
2023-08-12 16:41:38.879655,-45.0
2023-08-12 16:41:38.887345,-52.0
2023-08-12 16:41:38.895034,-52.0
2023-08-12 16:41:38.902724,-59.0
2023-08-12 16:41:38.910414,-130.0
2023-08-12 16:41:38.918104,-335.0
2023-08-12 16:41:38.925794,-623.0
2023-08-12 16:41:38.933483,-573.0
2023-08-12 16:41:38.941173,-47.0
2023-08-12 16:41:38.948863,188.0
2023-08-12 16:41:38.956553,-61.0
2023-08-12 16:41:38.964243,-109.0
2023-08-12 16:41:38.971932,9.0
2023-08-12 16:41:38.979622,-28.0
2023-08-12 16:41:38.987312,-64.0
2023-08-12 16:41:38.995002,-23.0
2023-08-12 16:41:39.002692,-26.0
2023-08-12 16:41:39.010381,-49.0
2023-08-12 16:41:39.018071,-42.0
2023-08-12 16:41:39.025761,-38.0
2023-08-12 16:41:39.033451,-47.0
2023-08-12 16:41:39.041141,-49.0
2023-08-12 16:41:39.048830,-49.0
2023-08-12 16:41:39.056520,-49.0
2023-08-12 16:41:39.064210,-52.0
2023-08-12 16:41:39.071900,-54.0
2023-08-12 16:41:39.079589,-57.0
2023-08-12 16:41:39.087279,-61.0
2023-08-12 16:41:39.094969,-66.0
2023-08-12 16:41:39.102659,-73.0
2023-08-12 16:41:39.110349,-80.0
2023-08-12 16:41:39.118038,-85.0
2023-08-12 16:41:39.125728,-92.0
2023-08-12 16:41:39.133418,-99.0
2023-08-12 16:41:39.141108,-109.0
2023-08-12 16:41:39.148798,-119.0
2023-08-12 16:41:39.156487,-126.0
2023-08-12 16:41:39.164177,-133.0
2023-08-12 16:41:39.171867,-142.0
2023-08-12 16:41:39.179557,-152.0
2023-08-12 16:41:39.187247,-157.0
2023-08-12 16:41:39.194936,-154.0
2023-08-12 16:41:39.202626,-149.0
2023-08-12 16:41:39.210316,-142.0
2023-08-12 16:41:39.218006,-123.0
2023-08-12 16:41:39.225696,-95.0
2023-08-12 16:41:39.233385,-71.0
2023-08-12 16:41:39.241075,-52.0
2023-08-12 16:41:39.248765,-33.0
2023-08-12 16:41:39.256455,-23.0
2023-08-12 16:41:39.264144,-19.0
2023-08-12 16:41:39.271834,-16.0
2023-08-12 16:41:39.279524,-14.0
2023-08-12 16:41:39.287214,-14.0
2023-08-12 16:41:39.294904,-14.0
2023-08-12 16:41:39.302593,-16.0
2023-08-12 16:41:39.310283,-16.0
2023-08-12 16:41:39.317973,-16.0
2023-08-12 16:41:39.325663,-19.0
2023-08-12 16:41:39.333353,-21.0
2023-08-12 16:41:39.341042,-21.0
2023-08-12 16:41:39.348732,-26.0
2023-08-12 16:41:39.356422,-28.0
2023-08-12 16:41:39.364112,-30.0
2023-08-12 16:41:39.371802,-28.0
2023-08-12 16:41:39.379491,-28.0
2023-08-12 16:41:39.387181,-30.0
2023-08-12 16:41:39.394871,-38.0
2023-08-12 16:41:39.402561,-42.0
2023-08-12 16:41:39.410251,-42.0
2023-08-12 16:41:39.417940,-38.0
2023-08-12 16:41:39.425630,-42.0
2023-08-12 16:41:39.433320,-47.0
2023-08-12 16:41:39.441010,-40.0
2023-08-12 16:41:39.448700,-33.0
2023-08-12 16:41:39.456389,-35.0
2023-08-12 16:41:39.464079,-42.0
2023-08-12 16:41:39.471769,-42.0
2023-08-12 16:41:39.479459,-35.0
2023-08-12 16:41:39.487148,-33.0
2023-08-12 16:41:39.494838,-35.0
2023-08-12 16:41:39.502528,-33.0
2023-08-12 16:41:39.510218,-28.0
2023-08-12 16:41:39.517908,-28.0
2023-08-12 16:41:39.525597,-30.0
2023-08-12 16:41:39.533287,-30.0
2023-08-12 16:41:39.540977,-26.0
2023-08-12 16:41:39.548667,-21.0
2023-08-12 16:41:39.556357,-21.0
2023-08-12 16:41:39.564046,-23.0
2023-08-12 16:41:39.571736,-21.0
2023-08-12 16:41:39.579426,-19.0
2023-08-12 16:41:39.587116,-21.0
2023-08-12 16:41:39.594806,-21.0
2023-08-12 16:41:39.602495,-21.0
2023-08-12 16:41:39.610185,-35.0
2023-08-12 16:41:39.617875,-49.0
2023-08-12 16:41:39.625565,-54.0
2023-08-12 16:41:39.633255,-59.0
2023-08-12 16:41:39.640944,-54.0
2023-08-12 16:41:39.648634,-28.0
2023-08-12 16:41:39.656324,-11.0
2023-08-12 16:41:39.664014,-11.0
2023-08-12 16:41:39.671703,-9.0
2023-08-12 16:41:39.679393,-2.0
2023-08-12 16:41:39.687083,0.0
2023-08-12 16:41:39.694773,-4.0
2023-08-12 16:41:39.702463,-2.0
2023-08-12 16:41:39.710152,0.0
2023-08-12 16:41:39.717842,-2.0
2023-08-12 16:41:39.725532,-2.0
2023-08-12 16:41:39.733222,-4.0
2023-08-12 16:41:39.740912,-33.0
2023-08-12 16:41:39.748601,-145.0
2023-08-12 16:41:39.756291,-388.0
2023-08-12 16:41:39.763981,-580.0
2023-08-12 16:41:39.771671,-295.0
2023-08-12 16:41:39.779361,199.0
2023-08-12 16:41:39.787050,159.0
2023-08-12 16:41:39.794740,-78.0
2023-08-12 16:41:39.802430,2.0
2023-08-12 16:41:39.810120,73.0
2023-08-12 16:41:39.817810,2.0
2023-08-12 16:41:39.825499,4.0
2023-08-12 16:41:39.833189,30.0
2023-08-12 16:41:39.840879,9.0
2023-08-12 16:41:39.848569,2.0
2023-08-12 16:41:39.856259,7.0
2023-08-12 16:41:39.863948,0.0
2023-08-12 16:41:39.871638,0.0
2023-08-12 16:41:39.879328,0.0
2023-08-12 16:41:39.887018,-7.0
2023-08-12 16:41:39.894707,-14.0
2023-08-12 16:41:39.902397,-19.0
2023-08-12 16:41:39.910087,-26.0
2023-08-12 16:41:39.917777,-26.0
2023-08-12 16:41:39.925467,-28.0
2023-08-12 16:41:39.933156,-35.0
2023-08-12 16:41:39.940846,-40.0
2023-08-12 16:41:39.948536,-45.0
2023-08-12 16:41:39.956226,-52.0
2023-08-12 16:41:39.963916,-64.0
2023-08-12 16:41:39.971605,-69.0
2023-08-12 16:41:39.979295,-76.0
2023-08-12 16:41:39.986985,-90.0
2023-08-12 16:41:39.994675,-102.0
2023-08-12 16:41:40.002365,-111.0
2023-08-12 16:41:40.010054,-123.0
2023-08-12 16:41:40.017744,-128.0
2023-08-12 16:41:40.025434,-123.0
2023-08-12 16:41:40.033124,-126.0
2023-08-12 16:41:40.040814,-126.0
2023-08-12 16:41:40.048503,-111.0
2023-08-12 16:41:40.056193,-83.0
2023-08-12 16:41:40.063883,-52.0
2023-08-12 16:41:40.071573,-35.0
2023-08-12 16:41:40.079262,-19.0
2023-08-12 16:41:40.086952,-9.0
2023-08-12 16:41:40.094642,-7.0
2023-08-12 16:41:40.102332,-4.0
2023-08-12 16:41:40.110022,0.0
2023-08-12 16:41:40.117711,0.0
2023-08-12 16:41:40.125401,0.0
2023-08-12 16:41:40.133091,0.0
2023-08-12 16:41:40.140781,-4.0
2023-08-12 16:41:40.148471,-14.0
2023-08-12 16:41:40.156160,-19.0
2023-08-12 16:41:40.163850,-14.0
2023-08-12 16:41:40.171540,-16.0
2023-08-12 16:41:40.179230,-26.0
2023-08-12 16:41:40.186920,-28.0
2023-08-12 16:41:40.194609,-26.0
2023-08-12 16:41:40.202299,-28.0
2023-08-12 16:41:40.209989,-30.0
2023-08-12 16:41:40.217679,-28.0
2023-08-12 16:41:40.225369,-30.0
2023-08-12 16:41:40.233058,-38.0
2023-08-12 16:41:40.240748,-33.0
2023-08-12 16:41:40.248438,-26.0
2023-08-12 16:41:40.256128,-26.0
2023-08-12 16:41:40.263818,-30.0
2023-08-12 16:41:40.271507,-30.0
2023-08-12 16:41:40.279197,-26.0
2023-08-12 16:41:40.286887,-23.0
2023-08-12 16:41:40.294577,-23.0
2023-08-12 16:41:40.302266,-28.0
2023-08-12 16:41:40.309956,-33.0
2023-08-12 16:41:40.317646,-28.0
2023-08-12 16:41:40.325336,-28.0
2023-08-12 16:41:40.333026,-38.0
2023-08-12 16:41:40.340715,-54.0
2023-08-12 16:41:40.348405,-66.0
2023-08-12 16:41:40.356095,-69.0
2023-08-12 16:41:40.363785,-71.0
2023-08-12 16:41:40.371475,-61.0
2023-08-12 16:41:40.379164,-42.0
2023-08-12 16:41:40.386854,-33.0
2023-08-12 16:41:40.394544,-35.0
2023-08-12 16:41:40.402234,-42.0
2023-08-12 16:41:40.409924,-42.0
2023-08-12 16:41:40.417613,-40.0
2023-08-12 16:41:40.425303,-40.0
2023-08-12 16:41:40.432993,-40.0
2023-08-12 16:41:40.440683,-40.0
2023-08-12 16:41:40.448373,-45.0
2023-08-12 16:41:40.456062,-47.0
2023-08-12 16:41:40.463752,-49.0
2023-08-12 16:41:40.471442,-104.0
2023-08-12 16:41:40.479132,-278.0
2023-08-12 16:41:40.486821,-561.0
2023-08-12 16:41:40.494511,-604.0
2023-08-12 16:41:40.502201,-130.0
2023-08-12 16:41:40.509891,214.0
2023-08-12 16:41:40.517581,-2.0
2023-08-12 16:41:40.525270,-133.0
2023-08-12 16:41:40.532960,-2.0
2023-08-12 16:41:40.540650,-7.0
2023-08-12 16:41:40.548340,-71.0
2023-08-12 16:41:40.556030,-40.0
2023-08-12 16:41:40.563719,-28.0
2023-08-12 16:41:40.571409,-57.0
2023-08-12 16:41:40.579099,-61.0
2023-08-12 16:41:40.586789,-61.0
2023-08-12 16:41:40.594479,-76.0
2023-08-12 16:41:40.602168,-78.0
2023-08-12 16:41:40.609858,-78.0
2023-08-12 16:41:40.617548,-83.0
2023-08-12 16:41:40.625238,-88.0
2023-08-12 16:41:40.632928,-95.0
2023-08-12 16:41:40.640617,-104.0
2023-08-12 16:41:40.648307,-109.0
2023-08-12 16:41:40.655997,-109.0
2023-08-12 16:41:40.663687,-114.0
2023-08-12 16:41:40.671377,-121.0
2023-08-12 16:41:40.679066,-128.0
2023-08-12 16:41:40.686756,-135.0
2023-08-12 16:41:40.694446,-140.0
2023-08-12 16:41:40.702136,-152.0
2023-08-12 16:41:40.709825,-164.0
2023-08-12 16:41:40.717515,-169.0
2023-08-12 16:41:40.725205,-173.0
2023-08-12 16:41:40.732895,-183.0
2023-08-12 16:41:40.740585,-190.0
2023-08-12 16:41:40.748274,-192.0
2023-08-12 16:41:40.755964,-190.0
2023-08-12 16:41:40.763654,-183.0
2023-08-12 16:41:40.771344,-171.0
2023-08-12 16:41:40.779034,-149.0
2023-08-12 16:41:40.786723,-116.0
2023-08-12 16:41:40.794413,-85.0
2023-08-12 16:41:40.802103,-64.0
2023-08-12 16:41:40.809793,-49.0
2023-08-12 16:41:40.817483,-40.0
2023-08-12 16:41:40.825172,-38.0
2023-08-12 16:41:40.832862,-35.0
2023-08-12 16:41:40.840552,-30.0
2023-08-12 16:41:40.848242,-30.0
2023-08-12 16:41:40.855932,-38.0
2023-08-12 16:41:40.863621,-40.0
2023-08-12 16:41:40.871311,-40.0
2023-08-12 16:41:40.879001,-42.0
2023-08-12 16:41:40.886691,-47.0
2023-08-12 16:41:40.894380,-52.0
2023-08-12 16:41:40.902070,-59.0
2023-08-12 16:41:40.909760,-64.0
2023-08-12 16:41:40.917450,-64.0
2023-08-12 16:41:40.925140,-66.0
2023-08-12 16:41:40.932829,-71.0
2023-08-12 16:41:40.940519,-76.0
2023-08-12 16:41:40.948209,-78.0
2023-08-12 16:41:40.955899,-78.0
2023-08-12 16:41:40.963589,-76.0
2023-08-12 16:41:40.971278,-73.0
2023-08-12 16:41:40.978968,-73.0
2023-08-12 16:41:40.986658,-71.0
2023-08-12 16:41:40.994348,-69.0
2023-08-12 16:41:41.002038,-69.0
2023-08-12 16:41:41.009727,-66.0
2023-08-12 16:41:41.017417,-66.0
2023-08-12 16:41:41.025107,-64.0
2023-08-12 16:41:41.032797,-61.0
2023-08-12 16:41:41.040487,-61.0
2023-08-12 16:41:41.048176,-61.0
2023-08-12 16:41:41.055866,-61.0
2023-08-12 16:41:41.063556,-59.0
2023-08-12 16:41:41.071246,-59.0
2023-08-12 16:41:41.078936,-59.0
2023-08-12 16:41:41.086625,-59.0
2023-08-12 16:41:41.094315,-61.0
2023-08-12 16:41:41.102005,-61.0
2023-08-12 16:41:41.109695,-61.0
2023-08-12 16:41:41.117384,-59.0
2023-08-12 16:41:41.125074,-61.0
2023-08-12 16:41:41.132764,-64.0
2023-08-12 16:41:41.140454,-71.0
2023-08-12 16:41:41.148144,-88.0
2023-08-12 16:41:41.155833,-97.0
2023-08-12 16:41:41.163523,-102.0
2023-08-12 16:41:41.171213,-104.0
2023-08-12 16:41:41.178903,-102.0
2023-08-12 16:41:41.186593,-80.0
2023-08-12 16:41:41.194282,-64.0
2023-08-12 16:41:41.201972,-61.0
2023-08-12 16:41:41.209662,-54.0
2023-08-12 16:41:41.217352,-49.0
2023-08-12 16:41:41.225042,-54.0
2023-08-12 16:41:41.232731,-57.0
2023-08-12 16:41:41.240421,-52.0
2023-08-12 16:41:41.248111,-52.0
2023-08-12 16:41:41.255801,-54.0
2023-08-12 16:41:41.263491,-54.0
2023-08-12 16:41:41.271180,-52.0
2023-08-12 16:41:41.278870,-83.0
2023-08-12 16:41:41.286560,-207.0
2023-08-12 16:41:41.294250,-471.0
2023-08-12 16:41:41.301939,-652.0
2023-08-12 16:41:41.309629,-326.0
2023-08-12 16:41:41.317319,157.0
2023-08-12 16:41:41.325009,90.0
2023-08-12 16:41:41.332699,-126.0
2023-08-12 16:41:41.340388,-30.0
2023-08-12 16:41:41.348078,23.0
2023-08-12 16:41:41.355768,-45.0
2023-08-12 16:41:41.363458,-35.0
2023-08-12 16:41:41.371148,-7.0
2023-08-12 16:41:41.378837,-28.0
2023-08-12 16:41:41.386527,-35.0
2023-08-12 16:41:41.394217,-26.0
2023-08-12 16:41:41.401907,-35.0
2023-08-12 16:41:41.409597,-47.0
2023-08-12 16:41:41.417286,-42.0
2023-08-12 16:41:41.424976,-40.0
2023-08-12 16:41:41.432666,-47.0
2023-08-12 16:41:41.440356,-49.0
2023-08-12 16:41:41.448046,-52.0
2023-08-12 16:41:41.455735,-52.0
2023-08-12 16:41:41.463425,-54.0
2023-08-12 16:41:41.471115,-64.0
2023-08-12 16:41:41.478805,-71.0
2023-08-12 16:41:41.486495,-78.0
2023-08-12 16:41:41.494184,-83.0
2023-08-12 16:41:41.501874,-92.0
2023-08-12 16:41:41.509564,-102.0
2023-08-12 16:41:41.517254,-109.0
2023-08-12 16:41:41.524943,-116.0
2023-08-12 16:41:41.532633,-128.0
2023-08-12 16:41:41.540323,-138.0
2023-08-12 16:41:41.548013,-142.0
2023-08-12 16:41:41.555703,-147.0
2023-08-12 16:41:41.563392,-152.0
2023-08-12 16:41:41.571082,-152.0
2023-08-12 16:41:41.578772,-142.0
2023-08-12 16:41:41.586462,-126.0
2023-08-12 16:41:41.594152,-97.0
2023-08-12 16:41:41.601841,-69.0
2023-08-12 16:41:41.609531,-47.0
2023-08-12 16:41:41.617221,-30.0
2023-08-12 16:41:41.624911,-16.0
2023-08-12 16:41:41.632601,-11.0
2023-08-12 16:41:41.640290,-11.0
2023-08-12 16:41:41.647980,-9.0
2023-08-12 16:41:41.655670,-9.0
2023-08-12 16:41:41.663360,-14.0
2023-08-12 16:41:41.671050,-26.0
2023-08-12 16:41:41.678739,-33.0
2023-08-12 16:41:41.686429,-30.0
2023-08-12 16:41:41.694119,-35.0
2023-08-12 16:41:41.701809,-40.0
2023-08-12 16:41:41.709498,-40.0
2023-08-12 16:41:41.717188,-40.0
2023-08-12 16:41:41.724878,-45.0
2023-08-12 16:41:41.732568,-45.0
2023-08-12 16:41:41.740258,-47.0
2023-08-12 16:41:41.747947,-49.0
2023-08-12 16:41:41.755637,-49.0
2023-08-12 16:41:41.763327,-52.0
2023-08-12 16:41:41.771017,-52.0
2023-08-12 16:41:41.778707,-49.0
2023-08-12 16:41:41.786396,-47.0
2023-08-12 16:41:41.794086,-45.0
2023-08-12 16:41:41.801776,-47.0
2023-08-12 16:41:41.809466,-49.0
2023-08-12 16:41:41.817156,-47.0
2023-08-12 16:41:41.824845,-42.0
2023-08-12 16:41:41.832535,-42.0
2023-08-12 16:41:41.840225,-45.0
2023-08-12 16:41:41.847915,-42.0
2023-08-12 16:41:41.855605,-40.0
2023-08-12 16:41:41.863294,-40.0
2023-08-12 16:41:41.870984,-38.0
2023-08-12 16:41:41.878674,-40.0
2023-08-12 16:41:41.886364,-40.0
2023-08-12 16:41:41.894054,-35.0
2023-08-12 16:41:41.901743,-33.0
2023-08-12 16:41:41.909433,-38.0
2023-08-12 16:41:41.917123,-40.0
2023-08-12 16:41:41.924813,-35.0
2023-08-12 16:41:41.932502,-35.0
2023-08-12 16:41:41.940192,-35.0
2023-08-12 16:41:41.947882,-33.0
2023-08-12 16:41:41.955572,-30.0
2023-08-12 16:41:41.963262,-28.0
2023-08-12 16:41:41.970951,-28.0
2023-08-12 16:41:41.978641,-33.0
2023-08-12 16:41:41.986331,-35.0
2023-08-12 16:41:41.994021,-30.0
2023-08-12 16:41:42.001711,-26.0
2023-08-12 16:41:42.009400,-38.0
2023-08-12 16:41:42.017090,-54.0
2023-08-12 16:41:42.024780,-64.0
2023-08-12 16:41:42.032470,-66.0
2023-08-12 16:41:42.040160,-61.0
2023-08-12 16:41:42.047849,-45.0
2023-08-12 16:41:42.055539,-26.0
2023-08-12 16:41:42.063229,-21.0
2023-08-12 16:41:42.070919,-23.0
2023-08-12 16:41:42.078609,-19.0
2023-08-12 16:41:42.086298,-14.0
2023-08-12 16:41:42.093988,-11.0
2023-08-12 16:41:42.101678,-11.0
2023-08-12 16:41:42.109368,-14.0
2023-08-12 16:41:42.117057,-14.0
2023-08-12 16:41:42.124747,-11.0
2023-08-12 16:41:42.132437,-11.0
2023-08-12 16:41:42.140127,-28.0
2023-08-12 16:41:42.147817,-107.0
2023-08-12 16:41:42.155506,-316.0
2023-08-12 16:41:42.163196,-578.0
2023-08-12 16:41:42.170886,-461.0
2023-08-12 16:41:42.178576,69.0
2023-08-12 16:41:42.186266,221.0
2023-08-12 16:41:42.193955,-42.0
2023-08-12 16:41:42.201645,-47.0
2023-08-12 16:41:42.209335,61.0
2023-08-12 16:41:42.217025,0.0
2023-08-12 16:41:42.224715,-28.0
2023-08-12 16:41:42.232404,16.0
2023-08-12 16:41:42.240094,11.0
2023-08-12 16:41:42.247784,-7.0
2023-08-12 16:41:42.255474,0.0
2023-08-12 16:41:42.263164,-2.0
2023-08-12 16:41:42.270853,-9.0
2023-08-12 16:41:42.278543,-9.0
2023-08-12 16:41:42.286233,-9.0
2023-08-12 16:41:42.293923,-11.0
2023-08-12 16:41:42.301612,-16.0
2023-08-12 16:41:42.309302,-21.0
2023-08-12 16:41:42.316992,-21.0
2023-08-12 16:41:42.324682,-26.0
2023-08-12 16:41:42.332372,-38.0
2023-08-12 16:41:42.340061,-40.0
2023-08-12 16:41:42.347751,-42.0
2023-08-12 16:41:42.355441,-49.0
2023-08-12 16:41:42.363131,-54.0
2023-08-12 16:41:42.370821,-59.0
2023-08-12 16:41:42.378510,-71.0
2023-08-12 16:41:42.386200,-83.0
2023-08-12 16:41:42.393890,-92.0
2023-08-12 16:41:42.401580,-102.0
2023-08-12 16:41:42.409270,-109.0
2023-08-12 16:41:42.416959,-111.0
2023-08-12 16:41:42.424649,-116.0
2023-08-12 16:41:42.432339,-121.0
2023-08-12 16:41:42.440029,-114.0
2023-08-12 16:41:42.447719,-95.0
2023-08-12 16:41:42.455408,-73.0
2023-08-12 16:41:42.463098,-47.0
2023-08-12 16:41:42.470788,-21.0
2023-08-12 16:41:42.478478,-2.0
2023-08-12 16:41:42.486168,9.0
2023-08-12 16:41:42.493857,19.0
2023-08-12 16:41:42.501547,26.0
2023-08-12 16:41:42.509237,28.0
2023-08-12 16:41:42.516927,26.0
2023-08-12 16:41:42.524616,26.0
2023-08-12 16:41:42.532306,26.0
2023-08-12 16:41:42.539996,16.0
2023-08-12 16:41:42.547686,4.0
2023-08-12 16:41:42.555376,7.0
2023-08-12 16:41:42.563065,9.0
2023-08-12 16:41:42.570755,2.0
2023-08-12 16:41:42.578445,-4.0
2023-08-12 16:41:42.586135,-7.0
2023-08-12 16:41:42.593825,-7.0
2023-08-12 16:41:42.601514,-7.0
2023-08-12 16:41:42.609204,-9.0
2023-08-12 16:41:42.616894,-9.0
2023-08-12 16:41:42.624584,-9.0
2023-08-12 16:41:42.632274,-9.0
2023-08-12 16:41:42.639963,-11.0
2023-08-12 16:41:42.647653,-11.0
2023-08-12 16:41:42.655343,-4.0
2023-08-12 16:41:42.663033,-2.0
2023-08-12 16:41:42.670723,-4.0
2023-08-12 16:41:42.678412,-2.0
2023-08-12 16:41:42.686102,-4.0
2023-08-12 16:41:42.693792,-7.0
2023-08-12 16:41:42.701482,-4.0
2023-08-12 16:41:42.709171,0.0
2023-08-12 16:41:42.716861,-2.0
2023-08-12 16:41:42.724551,-2.0
2023-08-12 16:41:42.732241,0.0
2023-08-12 16:41:42.739931,-2.0
2023-08-12 16:41:42.747620,-14.0
2023-08-12 16:41:42.755310,-26.0
2023-08-12 16:41:42.763000,-33.0
2023-08-12 16:41:42.770690,-40.0
2023-08-12 16:41:42.778380,-45.0
2023-08-12 16:41:42.786069,-38.0
2023-08-12 16:41:42.793759,-26.0
2023-08-12 16:41:42.801449,-19.0
2023-08-12 16:41:42.809139,-16.0
2023-08-12 16:41:42.816829,-14.0
2023-08-12 16:41:42.824518,-14.0
2023-08-12 16:41:42.832208,-14.0
2023-08-12 16:41:42.839898,-21.0
2023-08-12 16:41:42.847588,-28.0
2023-08-12 16:41:42.855278,-28.0
2023-08-12 16:41:42.862967,-26.0
2023-08-12 16:41:42.870657,-28.0
2023-08-12 16:41:42.878347,-40.0
2023-08-12 16:41:42.886037,-88.0
2023-08-12 16:41:42.893727,-233.0
2023-08-12 16:41:42.901416,-514.0
2023-08-12 16:41:42.909106,-652.0
2023-08-12 16:41:42.916796,-249.0
2023-08-12 16:41:42.924486,199.0
2023-08-12 16:41:42.932175,52.0
2023-08-12 16:41:42.939865,-147.0
2023-08-12 16:41:42.947555,-23.0
2023-08-12 16:41:42.955245,11.0
2023-08-12 16:41:42.962935,-66.0
2023-08-12 16:41:42.970624,-49.0
2023-08-12 16:41:42.978314,-26.0
2023-08-12 16:41:42.986004,-47.0
2023-08-12 16:41:42.993694,-47.0
2023-08-12 16:41:43.001384,-40.0
2023-08-12 16:41:43.009073,-49.0
2023-08-12 16:41:43.016763,-52.0
2023-08-12 16:41:43.024453,-52.0
2023-08-12 16:41:43.032143,-57.0
2023-08-12 16:41:43.039833,-64.0
2023-08-12 16:41:43.047522,-64.0
2023-08-12 16:41:43.055212,-64.0
2023-08-12 16:41:43.062902,-69.0
2023-08-12 16:41:43.070592,-76.0
2023-08-12 16:41:43.078282,-80.0
2023-08-12 16:41:43.085971,-88.0
2023-08-12 16:41:43.093661,-95.0
2023-08-12 16:41:43.101351,-102.0
2023-08-12 16:41:43.109041,-109.0
2023-08-12 16:41:43.116730,-116.0
2023-08-12 16:41:43.124420,-123.0
2023-08-12 16:41:43.132110,-135.0
2023-08-12 16:41:43.139800,-142.0
2023-08-12 16:41:43.147490,-149.0
2023-08-12 16:41:43.155179,-157.0
2023-08-12 16:41:43.162869,-159.0
2023-08-12 16:41:43.170559,-157.0
2023-08-12 16:41:43.178249,-152.0
2023-08-12 16:41:43.185939,-140.0
2023-08-12 16:41:43.193628,-116.0
2023-08-12 16:41:43.201318,-88.0
2023-08-12 16:41:43.209008,-61.0
2023-08-12 16:41:43.216698,-42.0
2023-08-12 16:41:43.224388,-26.0
2023-08-12 16:41:43.232077,-14.0
2023-08-12 16:41:43.239767,-9.0
2023-08-12 16:41:43.247457,-9.0
2023-08-12 16:41:43.255147,-9.0
2023-08-12 16:41:43.262837,-7.0
2023-08-12 16:41:43.270526,-9.0
2023-08-12 16:41:43.278216,-11.0
2023-08-12 16:41:43.285906,-19.0
2023-08-12 16:41:43.293596,-26.0
2023-08-12 16:41:43.301286,-26.0
2023-08-12 16:41:43.308975,-26.0
2023-08-12 16:41:43.316665,-30.0
2023-08-12 16:41:43.324355,-35.0
2023-08-12 16:41:43.332045,-40.0
2023-08-12 16:41:43.339734,-45.0
2023-08-12 16:41:43.347424,-47.0
2023-08-12 16:41:43.355114,-52.0
2023-08-12 16:41:43.362804,-54.0
2023-08-12 16:41:43.370494,-54.0
2023-08-12 16:41:43.378183,-61.0
2023-08-12 16:41:43.385873,-71.0
2023-08-12 16:41:43.393563,-66.0
2023-08-12 16:41:43.401253,-61.0
2023-08-12 16:41:43.408943,-64.0
2023-08-12 16:41:43.416632,-69.0
2023-08-12 16:41:43.424322,-71.0
2023-08-12 16:41:43.432012,-66.0
2023-08-12 16:41:43.439702,-64.0
2023-08-12 16:41:43.447392,-66.0
2023-08-12 16:41:43.455081,-69.0
2023-08-12 16:41:43.462771,-69.0
2023-08-12 16:41:43.470461,-66.0
2023-08-12 16:41:43.478151,-64.0
2023-08-12 16:41:43.485841,-64.0
2023-08-12 16:41:43.493530,-64.0
2023-08-12 16:41:43.501220,-64.0
2023-08-12 16:41:43.508910,-61.0
2023-08-12 16:41:43.516600,-61.0
2023-08-12 16:41:43.524289,-64.0
2023-08-12 16:41:43.531979,-69.0
2023-08-12 16:41:43.539669,-64.0
2023-08-12 16:41:43.547359,-59.0
2023-08-12 16:41:43.555049,-66.0
2023-08-12 16:41:43.562738,-83.0
2023-08-12 16:41:43.570428,-95.0
2023-08-12 16:41:43.578118,-97.0
2023-08-12 16:41:43.585808,-99.0
2023-08-12 16:41:43.593498,-97.0
2023-08-12 16:41:43.601187,-80.0
2023-08-12 16:41:43.608877,-64.0
2023-08-12 16:41:43.616567,-61.0
2023-08-12 16:41:43.624257,-57.0
2023-08-12 16:41:43.631947,-52.0
2023-08-12 16:41:43.639636,-52.0
2023-08-12 16:41:43.647326,-54.0
2023-08-12 16:41:43.655016,-54.0
2023-08-12 16:41:43.662706,-54.0
2023-08-12 16:41:43.670396,-52.0
2023-08-12 16:41:43.678085,-54.0
2023-08-12 16:41:43.685775,-54.0
2023-08-12 16:41:43.693465,-76.0
2023-08-12 16:41:43.701155,-183.0
2023-08-12 16:41:43.708845,-433.0
2023-08-12 16:41:43.716534,-671.0
2023-08-12 16:41:43.724224,-435.0
2023-08-12 16:41:43.731914,109.0
2023-08-12 16:41:43.739604,140.0
2023-08-12 16:41:43.747293,-121.0
2023-08-12 16:41:43.754983,-59.0
2023-08-12 16:41:43.762673,30.0
2023-08-12 16:41:43.770363,-40.0
2023-08-12 16:41:43.778053,-52.0
2023-08-12 16:41:43.785742,-14.0
2023-08-12 16:41:43.793432,-30.0
2023-08-12 16:41:43.801122,-45.0
2023-08-12 16:41:43.808812,-30.0
2023-08-12 16:41:43.816502,-35.0
2023-08-12 16:41:43.824191,-47.0
2023-08-12 16:41:43.831881,-45.0
2023-08-12 16:41:43.839571,-45.0
2023-08-12 16:41:43.847261,-49.0
2023-08-12 16:41:43.854951,-49.0
2023-08-12 16:41:43.862640,-47.0
2023-08-12 16:41:43.870330,-57.0
2023-08-12 16:41:43.878020,-61.0
2023-08-12 16:41:43.885710,-64.0
2023-08-12 16:41:43.893400,-71.0
2023-08-12 16:41:43.901089,-78.0
2023-08-12 16:41:43.908779,-83.0
2023-08-12 16:41:43.916469,-92.0
2023-08-12 16:41:43.924159,-107.0
2023-08-12 16:41:43.931848,-114.0
2023-08-12 16:41:43.939538,-121.0
2023-08-12 16:41:43.947228,-133.0
2023-08-12 16:41:43.954918,-140.0
2023-08-12 16:41:43.962608,-152.0
2023-08-12 16:41:43.970297,-164.0
2023-08-12 16:41:43.977987,-166.0
2023-08-12 16:41:43.985677,-164.0
2023-08-12 16:41:43.993367,-154.0
2023-08-12 16:41:44.001057,-135.0
2023-08-12 16:41:44.008746,-111.0
2023-08-12 16:41:44.016436,-88.0
2023-08-12 16:41:44.024126,-64.0
2023-08-12 16:41:44.031816,-45.0
2023-08-12 16:41:44.039506,-28.0
2023-08-12 16:41:44.047195,-19.0
2023-08-12 16:41:44.054885,-19.0
2023-08-12 16:41:44.062575,-21.0
2023-08-12 16:41:44.070265,-16.0
2023-08-12 16:41:44.077955,-19.0
2023-08-12 16:41:44.085644,-26.0
2023-08-12 16:41:44.093334,-26.0
2023-08-12 16:41:44.101024,-28.0
2023-08-12 16:41:44.108714,-33.0
2023-08-12 16:41:44.116404,-33.0
2023-08-12 16:41:44.124093,-33.0
2023-08-12 16:41:44.131783,-33.0
2023-08-12 16:41:44.139473,-33.0
2023-08-12 16:41:44.147163,-40.0
2023-08-12 16:41:44.154852,-42.0
2023-08-12 16:41:44.162542,-40.0
2023-08-12 16:41:44.170232,-40.0
2023-08-12 16:41:44.177922,-42.0
2023-08-12 16:41:44.185612,-40.0
2023-08-12 16:41:44.193301,-42.0
2023-08-12 16:41:44.200991,-42.0
2023-08-12 16:41:44.208681,-42.0
2023-08-12 16:41:44.216371,-40.0
2023-08-12 16:41:44.224061,-40.0
2023-08-12 16:41:44.231750,-40.0
2023-08-12 16:41:44.239440,-38.0
2023-08-12 16:41:44.247130,-33.0
2023-08-12 16:41:44.254820,-33.0
2023-08-12 16:41:44.262510,-33.0
2023-08-12 16:41:44.270199,-35.0
2023-08-12 16:41:44.277889,-35.0
2023-08-12 16:41:44.285579,-33.0
2023-08-12 16:41:44.293269,-30.0
2023-08-12 16:41:44.300959,-30.0
2023-08-12 16:41:44.308648,-30.0
2023-08-12 16:41:44.316338,-33.0
2023-08-12 16:41:44.324028,-35.0
2023-08-12 16:41:44.331718,-30.0
2023-08-12 16:41:44.339407,-28.0
2023-08-12 16:41:44.347097,-30.0
2023-08-12 16:41:44.354787,-30.0
2023-08-12 16:41:44.362477,-28.0
2023-08-12 16:41:44.370167,-30.0
2023-08-12 16:41:44.377856,-30.0
2023-08-12 16:41:44.385546,-26.0
2023-08-12 16:41:44.393236,-23.0
2023-08-12 16:41:44.400926,-26.0
2023-08-12 16:41:44.408616,-28.0
2023-08-12 16:41:44.416305,-30.0
2023-08-12 16:41:44.423995,-30.0
2023-08-12 16:41:44.431685,-30.0
2023-08-12 16:41:44.439375,-30.0
2023-08-12 16:41:44.447065,-30.0
2023-08-12 16:41:44.454754,-30.0
2023-08-12 16:41:44.462444,-23.0
2023-08-12 16:41:44.470134,-23.0
2023-08-12 16:41:44.477824,-30.0
2023-08-12 16:41:44.485514,-33.0
2023-08-12 16:41:44.493203,-40.0
2023-08-12 16:41:44.500893,-54.0
2023-08-12 16:41:44.508583,-66.0
2023-08-12 16:41:44.516273,-69.0
2023-08-12 16:41:44.523963,-57.0
2023-08-12 16:41:44.531652,-35.0
2023-08-12 16:41:44.539342,-21.0
2023-08-12 16:41:44.547032,-19.0
2023-08-12 16:41:44.554722,-16.0
2023-08-12 16:41:44.562411,-16.0
2023-08-12 16:41:44.570101,-16.0
2023-08-12 16:41:44.577791,-9.0
2023-08-12 16:41:44.585481,-7.0
2023-08-12 16:41:44.593171,-11.0
2023-08-12 16:41:44.600860,-9.0
2023-08-12 16:41:44.608550,-4.0
2023-08-12 16:41:44.616240,-19.0
2023-08-12 16:41:44.623930,-92.0
2023-08-12 16:41:44.631620,-290.0
2023-08-12 16:41:44.639309,-568.0
2023-08-12 16:41:44.646999,-504.0
2023-08-12 16:41:44.654689,23.0
2023-08-12 16:41:44.662379,233.0
2023-08-12 16:41:44.670069,-16.0
2023-08-12 16:41:44.677758,-42.0
2023-08-12 16:41:44.685448,76.0
2023-08-12 16:41:44.693138,33.0
2023-08-12 16:41:44.700828,-2.0
2023-08-12 16:41:44.708518,35.0
2023-08-12 16:41:44.716207,30.0
2023-08-12 16:41:44.723897,11.0
2023-08-12 16:41:44.731587,19.0
2023-08-12 16:41:44.739277,21.0
2023-08-12 16:41:44.746966,14.0
2023-08-12 16:41:44.754656,14.0
2023-08-12 16:41:44.762346,9.0
2023-08-12 16:41:44.770036,0.0
2023-08-12 16:41:44.777726,-2.0
2023-08-12 16:41:44.785415,0.0
2023-08-12 16:41:44.793105,0.0
2023-08-12 16:41:44.800795,-4.0
2023-08-12 16:41:44.808485,-11.0
2023-08-12 16:41:44.816175,-19.0
2023-08-12 16:41:44.823864,-26.0
2023-08-12 16:41:44.831554,-28.0
2023-08-12 16:41:44.839244,-33.0
2023-08-12 16:41:44.846934,-42.0
2023-08-12 16:41:44.854624,-52.0
2023-08-12 16:41:44.862313,-61.0
2023-08-12 16:41:44.870003,-66.0
2023-08-12 16:41:44.877693,-76.0
2023-08-12 16:41:44.885383,-92.0
2023-08-12 16:41:44.893073,-99.0
2023-08-12 16:41:44.900762,-95.0
2023-08-12 16:41:44.908452,-99.0
2023-08-12 16:41:44.916142,-107.0
2023-08-12 16:41:44.923832,-95.0
2023-08-12 16:41:44.931522,-73.0
2023-08-12 16:41:44.939211,-54.0
2023-08-12 16:41:44.946901,-33.0
2023-08-12 16:41:44.954591,-7.0
2023-08-12 16:41:44.962281,11.0
2023-08-12 16:41:44.969970,21.0
2023-08-12 16:41:44.977660,28.0
2023-08-12 16:41:44.985350,30.0
2023-08-12 16:41:44.993040,33.0
2023-08-12 16:41:45.000730,33.0
2023-08-12 16:41:45.008419,28.0
2023-08-12 16:41:45.016109,23.0
2023-08-12 16:41:45.023799,26.0
2023-08-12 16:41:45.031489,26.0
2023-08-12 16:41:45.039179,21.0
2023-08-12 16:41:45.046868,9.0
2023-08-12 16:41:45.054558,7.0
2023-08-12 16:41:45.062248,11.0
2023-08-12 16:41:45.069938,9.0
2023-08-12 16:41:45.077628,4.0
2023-08-12 16:41:45.085317,4.0
2023-08-12 16:41:45.093007,2.0
2023-08-12 16:41:45.100697,-7.0
2023-08-12 16:41:45.108387,-4.0
2023-08-12 16:41:45.116077,0.0
2023-08-12 16:41:45.123766,0.0
2023-08-12 16:41:45.131456,-7.0
2023-08-12 16:41:45.139146,-9.0
2023-08-12 16:41:45.146836,-4.0
2023-08-12 16:41:45.154525,0.0
2023-08-12 16:41:45.162215,0.0
2023-08-12 16:41:45.169905,2.0
2023-08-12 16:41:45.177595,7.0
2023-08-12 16:41:45.185285,4.0
2023-08-12 16:41:45.192974,4.0
2023-08-12 16:41:45.200664,7.0
2023-08-12 16:41:45.208354,4.0
2023-08-12 16:41:45.216044,2.0
2023-08-12 16:41:45.223734,2.0
2023-08-12 16:41:45.231423,-2.0
2023-08-12 16:41:45.239113,-4.0
2023-08-12 16:41:45.246803,-4.0
2023-08-12 16:41:45.254493,-7.0
2023-08-12 16:41:45.262183,-4.0
2023-08-12 16:41:45.269872,-2.0
2023-08-12 16:41:45.277562,-16.0
2023-08-12 16:41:45.285252,-33.0
2023-08-12 16:41:45.292942,-35.0
2023-08-12 16:41:45.300632,-38.0
2023-08-12 16:41:45.308321,-40.0
2023-08-12 16:41:45.316011,-19.0
2023-08-12 16:41:45.323701,4.0
2023-08-12 16:41:45.331391,7.0
2023-08-12 16:41:45.339081,2.0
2023-08-12 16:41:45.346770,11.0
2023-08-12 16:41:45.354460,11.0
2023-08-12 16:41:45.362150,7.0
2023-08-12 16:41:45.369840,9.0
2023-08-12 16:41:45.377529,9.0
2023-08-12 16:41:45.385219,4.0
2023-08-12 16:41:45.392909,0.0
2023-08-12 16:41:45.400599,-2.0
2023-08-12 16:41:45.408289,-26.0
2023-08-12 16:41:45.415978,-133.0
2023-08-12 16:41:45.423668,-378.0
2023-08-12 16:41:45.431358,-606.0
2023-08-12 16:41:45.439048,-349.0
2023-08-12 16:41:45.446738,185.0
2023-08-12 16:41:45.454427,183.0
2023-08-12 16:41:45.462117,-85.0
2023-08-12 16:41:45.469807,-21.0
2023-08-12 16:41:45.477497,59.0
2023-08-12 16:41:45.485187,-14.0
2023-08-12 16:41:45.492876,-11.0
2023-08-12 16:41:45.500566,21.0
2023-08-12 16:41:45.508256,-4.0
2023-08-12 16:41:45.515946,-16.0
2023-08-12 16:41:45.523636,-2.0
2023-08-12 16:41:45.531325,-9.0
2023-08-12 16:41:45.539015,-21.0
2023-08-12 16:41:45.546705,-16.0
2023-08-12 16:41:45.554395,-14.0
2023-08-12 16:41:45.562084,-26.0
2023-08-12 16:41:45.569774,-35.0
2023-08-12 16:41:45.577464,-38.0
2023-08-12 16:41:45.585154,-40.0
2023-08-12 16:41:45.592844,-45.0
2023-08-12 16:41:45.600533,-47.0
2023-08-12 16:41:45.608223,-54.0
2023-08-12 16:41:45.615913,-66.0
2023-08-12 16:41:45.623603,-76.0
2023-08-12 16:41:45.631293,-78.0
2023-08-12 16:41:45.638982,-83.0
2023-08-12 16:41:45.646672,-97.0
2023-08-12 16:41:45.654362,-104.0
2023-08-12 16:41:45.662052,-111.0
2023-08-12 16:41:45.669742,-126.0
2023-08-12 16:41:45.677431,-130.0
2023-08-12 16:41:45.685121,-135.0
2023-08-12 16:41:45.692811,-142.0
2023-08-12 16:41:45.700501,-140.0
2023-08-12 16:41:45.708191,-126.0
2023-08-12 16:41:45.715880,-109.0
2023-08-12 16:41:45.723570,-88.0
2023-08-12 16:41:45.731260,-64.0
2023-08-12 16:41:45.738950,-40.0
2023-08-12 16:41:45.746640,-23.0
2023-08-12 16:41:45.754329,-19.0
2023-08-12 16:41:45.762019,-14.0
2023-08-12 16:41:45.769709,-7.0
2023-08-12 16:41:45.777399,-9.0
2023-08-12 16:41:45.785088,-11.0
2023-08-12 16:41:45.792778,-11.0
2023-08-12 16:41:45.800468,-14.0
2023-08-12 16:41:45.808158,-16.0
2023-08-12 16:41:45.815848,-21.0
2023-08-12 16:41:45.823537,-28.0
2023-08-12 16:41:45.831227,-28.0
2023-08-12 16:41:45.838917,-28.0
2023-08-12 16:41:45.846607,-30.0
2023-08-12 16:41:45.854297,-33.0
2023-08-12 16:41:45.861986,-35.0
2023-08-12 16:41:45.869676,-38.0
2023-08-12 16:41:45.877366,-38.0
2023-08-12 16:41:45.885056,-38.0
2023-08-12 16:41:45.892746,-35.0
2023-08-12 16:41:45.900435,-38.0
2023-08-12 16:41:45.908125,-40.0
2023-08-12 16:41:45.915815,-40.0
2023-08-12 16:41:45.923505,-35.0
2023-08-12 16:41:45.931195,-38.0
2023-08-12 16:41:45.938884,-45.0
2023-08-12 16:41:45.946574,-45.0
2023-08-12 16:41:45.954264,-38.0
2023-08-12 16:41:45.961954,-40.0
2023-08-12 16:41:45.969643,-42.0
2023-08-12 16:41:45.977333,-40.0
2023-08-12 16:41:45.985023,-38.0
2023-08-12 16:41:45.992713,-42.0
2023-08-12 16:41:46.000403,-42.0
2023-08-12 16:41:46.008092,-38.0
2023-08-12 16:41:46.015782,-38.0
2023-08-12 16:41:46.023472,-42.0
2023-08-12 16:41:46.031162,-42.0
2023-08-12 16:41:46.038852,-40.0
2023-08-12 16:41:46.046541,-40.0
2023-08-12 16:41:46.054231,-42.0
2023-08-12 16:41:46.061921,-42.0
2023-08-12 16:41:46.069611,-40.0
2023-08-12 16:41:46.077301,-40.0
2023-08-12 16:41:46.084990,-40.0
2023-08-12 16:41:46.092680,-40.0
2023-08-12 16:41:46.100370,-49.0
2023-08-12 16:41:46.108060,-66.0
2023-08-12 16:41:46.115750,-76.0
2023-08-12 16:41:46.123439,-78.0
2023-08-12 16:41:46.131129,-76.0
2023-08-12 16:41:46.138819,-59.0
2023-08-12 16:41:46.146509,-42.0
2023-08-12 16:41:46.154198,-35.0
2023-08-12 16:41:46.161888,-35.0
2023-08-12 16:41:46.169578,-40.0
2023-08-12 16:41:46.177268,-45.0
2023-08-12 16:41:46.184958,-42.0
2023-08-12 16:41:46.192647,-40.0
2023-08-12 16:41:46.200337,-42.0
2023-08-12 16:41:46.208027,-45.0
2023-08-12 16:41:46.215717,-47.0
2023-08-12 16:41:46.223407,-49.0
2023-08-12 16:41:46.231096,-80.0
2023-08-12 16:41:46.238786,-209.0
2023-08-12 16:41:46.246476,-485.0
2023-08-12 16:41:46.254166,-673.0
2023-08-12 16:41:46.261856,-326.0
2023-08-12 16:41:46.269545,176.0
2023-08-12 16:41:46.277235,95.0
2023-08-12 16:41:46.284925,-128.0
2023-08-12 16:41:46.292615,-21.0
2023-08-12 16:41:46.300305,33.0
2023-08-12 16:41:46.307994,-40.0
2023-08-12 16:41:46.315684,-33.0
2023-08-12 16:41:46.323374,-4.0
2023-08-12 16:41:46.331064,-23.0
2023-08-12 16:41:46.338754,-26.0
2023-08-12 16:41:46.346443,-19.0
2023-08-12 16:41:46.354133,-30.0
2023-08-12 16:41:46.361823,-35.0
2023-08-12 16:41:46.369513,-28.0
2023-08-12 16:41:46.377202,-28.0
2023-08-12 16:41:46.384892,-35.0
2023-08-12 16:41:46.392582,-38.0
2023-08-12 16:41:46.400272,-40.0
2023-08-12 16:41:46.407962,-45.0
2023-08-12 16:41:46.415651,-47.0
2023-08-12 16:41:46.423341,-54.0
2023-08-12 16:41:46.431031,-59.0
2023-08-12 16:41:46.438721,-61.0
2023-08-12 16:41:46.446411,-73.0
2023-08-12 16:41:46.454100,-88.0
2023-08-12 16:41:46.461790,-95.0
2023-08-12 16:41:46.469480,-99.0
2023-08-12 16:41:46.477170,-111.0
2023-08-12 16:41:46.484860,-121.0
2023-08-12 16:41:46.492549,-130.0
2023-08-12 16:41:46.500239,-138.0
2023-08-12 16:41:46.507929,-145.0
2023-08-12 16:41:46.515619,-147.0
2023-08-12 16:41:46.523309,-145.0
2023-08-12 16:41:46.530998,-135.0
2023-08-12 16:41:46.538688,-121.0
2023-08-12 16:41:46.546378,-95.0
2023-08-12 16:41:46.554068,-66.0
2023-08-12 16:41:46.561757,-42.0
2023-08-12 16:41:46.569447,-26.0
2023-08-12 16:41:46.577137,-14.0
2023-08-12 16:41:46.584827,-4.0
2023-08-12 16:41:46.592517,-4.0
2023-08-12 16:41:46.600206,-2.0
2023-08-12 16:41:46.607896,2.0
2023-08-12 16:41:46.615586,2.0
2023-08-12 16:41:46.623276,-2.0
2023-08-12 16:41:46.630966,-4.0
2023-08-12 16:41:46.638655,-2.0
2023-08-12 16:41:46.646345,-4.0
2023-08-12 16:41:46.654035,-9.0
2023-08-12 16:41:46.661725,-7.0
2023-08-12 16:41:46.669415,-9.0
2023-08-12 16:41:46.677104,-11.0
2023-08-12 16:41:46.684794,-14.0
2023-08-12 16:41:46.692484,-14.0
2023-08-12 16:41:46.700174,-16.0
2023-08-12 16:41:46.707864,-19.0
2023-08-12 16:41:46.715553,-19.0
2023-08-12 16:41:46.723243,-21.0
2023-08-12 16:41:46.730933,-26.0
2023-08-12 16:41:46.738623,-23.0
2023-08-12 16:41:46.746313,-23.0
2023-08-12 16:41:46.754002,-28.0
2023-08-12 16:41:46.761692,-26.0
2023-08-12 16:41:46.769382,-23.0
2023-08-12 16:41:46.777072,-23.0
2023-08-12 16:41:46.784761,-23.0
2023-08-12 16:41:46.792451,-23.0
2023-08-12 16:41:46.800141,-30.0
2023-08-12 16:41:46.807831,-33.0
2023-08-12 16:41:46.815521,-28.0
2023-08-12 16:41:46.823210,-28.0
2023-08-12 16:41:46.830900,-30.0
2023-08-12 16:41:46.838590,-28.0
2023-08-12 16:41:46.846280,-23.0
2023-08-12 16:41:46.853970,-23.0
2023-08-12 16:41:46.861659,-28.0
2023-08-12 16:41:46.869349,-26.0
2023-08-12 16:41:46.877039,-21.0
2023-08-12 16:41:46.884729,-23.0
2023-08-12 16:41:46.892419,-26.0
2023-08-12 16:41:46.900108,-23.0
2023-08-12 16:41:46.907798,-21.0
2023-08-12 16:41:46.915488,-23.0
2023-08-12 16:41:46.923178,-23.0
2023-08-12 16:41:46.930868,-21.0
2023-08-12 16:41:46.938557,-23.0
2023-08-12 16:41:46.946247,-28.0
2023-08-12 16:41:46.953937,-33.0
2023-08-12 16:41:46.961627,-30.0
2023-08-12 16:41:46.969316,-30.0
2023-08-12 16:41:46.977006,-33.0
2023-08-12 16:41:46.984696,-35.0
2023-08-12 16:41:46.992386,-33.0
2023-08-12 16:41:47.000076,-30.0
2023-08-12 16:41:47.007765,-30.0
2023-08-12 16:41:47.015455,-38.0
2023-08-12 16:41:47.023145,-54.0
2023-08-12 16:41:47.030835,-61.0
2023-08-12 16:41:47.038525,-66.0
2023-08-12 16:41:47.046214,-71.0
2023-08-12 16:41:47.053904,-61.0
2023-08-12 16:41:47.061594,-38.0
2023-08-12 16:41:47.069284,-26.0
2023-08-12 16:41:47.076974,-28.0
2023-08-12 16:41:47.084663,-21.0
2023-08-12 16:41:47.092353,-16.0
2023-08-12 16:41:47.100043,-21.0
2023-08-12 16:41:47.107733,-21.0
2023-08-12 16:41:47.115423,-19.0
2023-08-12 16:41:47.123112,-21.0
2023-08-12 16:41:47.130802,-21.0
2023-08-12 16:41:47.138492,-21.0
2023-08-12 16:41:47.146182,-35.0
2023-08-12 16:41:47.153872,-109.0
2023-08-12 16:41:47.161561,-311.0
2023-08-12 16:41:47.169251,-585.0
2023-08-12 16:41:47.176941,-497.0
2023-08-12 16:41:47.184631,35.0
2023-08-12 16:41:47.192320,211.0
2023-08-12 16:41:47.200010,-49.0
2023-08-12 16:41:47.207700,-64.0
2023-08-12 16:41:47.215390,61.0
2023-08-12 16:41:47.223080,11.0
2023-08-12 16:41:47.230769,-23.0
2023-08-12 16:41:47.238459,16.0
2023-08-12 16:41:47.246149,9.0
2023-08-12 16:41:47.253839,-11.0
2023-08-12 16:41:47.261529,-2.0
2023-08-12 16:41:47.269218,0.0
2023-08-12 16:41:47.276908,-9.0
2023-08-12 16:41:47.284598,-11.0
2023-08-12 16:41:47.292288,-16.0
2023-08-12 16:41:47.299978,-28.0
2023-08-12 16:41:47.307667,-35.0
2023-08-12 16:41:47.315357,-33.0
2023-08-12 16:41:47.323047,-40.0
2023-08-12 16:41:47.330737,-49.0
2023-08-12 16:41:47.338427,-54.0
2023-08-12 16:41:47.346116,-57.0
2023-08-12 16:41:47.353806,-61.0
2023-08-12 16:41:47.361496,-66.0
2023-08-12 16:41:47.369186,-71.0
2023-08-12 16:41:47.376875,-80.0
2023-08-12 16:41:47.384565,-95.0
2023-08-12 16:41:47.392255,-104.0
2023-08-12 16:41:47.399945,-107.0
2023-08-12 16:41:47.407635,-111.0
2023-08-12 16:41:47.415324,-116.0
2023-08-12 16:41:47.423014,-121.0
2023-08-12 16:41:47.430704,-126.0
2023-08-12 16:41:47.438394,-126.0
2023-08-12 16:41:47.446084,-123.0
2023-08-12 16:41:47.453773,-123.0
2023-08-12 16:41:47.461463,-104.0
2023-08-12 16:41:47.469153,-71.0
2023-08-12 16:41:47.476843,-49.0
2023-08-12 16:41:47.484533,-35.0
2023-08-12 16:41:47.492222,-11.0
2023-08-12 16:41:47.499912,2.0
2023-08-12 16:41:47.507602,2.0
2023-08-12 16:41:47.515292,4.0
2023-08-12 16:41:47.522982,9.0
2023-08-12 16:41:47.530671,9.0
2023-08-12 16:41:47.538361,7.0
2023-08-12 16:41:47.546051,9.0
2023-08-12 16:41:47.553741,7.0
2023-08-12 16:41:47.561431,4.0
2023-08-12 16:41:47.569120,2.0
2023-08-12 16:41:47.576810,4.0
2023-08-12 16:41:47.584500,4.0
2023-08-12 16:41:47.592190,0.0
2023-08-12 16:41:47.599879,-4.0
2023-08-12 16:41:47.607569,-4.0
2023-08-12 16:41:47.615259,-4.0
2023-08-12 16:41:47.622949,-4.0
2023-08-12 16:41:47.630639,-2.0
2023-08-12 16:41:47.638328,0.0
2023-08-12 16:41:47.646018,-4.0
2023-08-12 16:41:47.653708,-9.0
2023-08-12 16:41:47.661398,-4.0
2023-08-12 16:41:47.669088,-2.0
2023-08-12 16:41:47.676777,0.0
2023-08-12 16:41:47.684467,4.0
2023-08-12 16:41:47.692157,2.0
2023-08-12 16:41:47.699847,0.0
2023-08-12 16:41:47.707537,2.0
2023-08-12 16:41:47.715226,2.0
2023-08-12 16:41:47.722916,-2.0
2023-08-12 16:41:47.730606,-4.0
2023-08-12 16:41:47.738296,-2.0
2023-08-12 16:41:47.745986,0.0
2023-08-12 16:41:47.753675,0.0
2023-08-12 16:41:47.761365,0.0
2023-08-12 16:41:47.769055,0.0
2023-08-12 16:41:47.776745,-2.0
2023-08-12 16:41:47.784434,-2.0
2023-08-12 16:41:47.792124,0.0
2023-08-12 16:41:47.799814,-2.0
2023-08-12 16:41:47.807504,-4.0
2023-08-12 16:41:47.815194,-4.0
2023-08-12 16:41:47.822883,2.0
2023-08-12 16:41:47.830573,0.0
2023-08-12 16:41:47.838263,-21.0
2023-08-12 16:41:47.845953,-33.0
2023-08-12 16:41:47.853643,-30.0
2023-08-12 16:41:47.861332,-38.0
2023-08-12 16:41:47.869022,-45.0
2023-08-12 16:41:47.876712,-28.0
2023-08-12 16:41:47.884402,-11.0
2023-08-12 16:41:47.892092,-9.0
2023-08-12 16:41:47.899781,-9.0
2023-08-12 16:41:47.907471,-7.0
2023-08-12 16:41:47.915161,-4.0
2023-08-12 16:41:47.922851,-9.0
2023-08-12 16:41:47.930541,-16.0
2023-08-12 16:41:47.938230,-16.0
2023-08-12 16:41:47.945920,-14.0
2023-08-12 16:41:47.953610,-16.0
2023-08-12 16:41:47.961300,-28.0
2023-08-12 16:41:47.968990,-88.0
2023-08-12 16:41:47.976679,-242.0
2023-08-12 16:41:47.984369,-502.0
2023-08-12 16:41:47.992059,-578.0
2023-08-12 16:41:47.999749,-147.0
2023-08-12 16:41:48.007438,245.0
2023-08-12 16:41:48.015128,64.0
2023-08-12 16:41:48.022818,-107.0
2023-08-12 16:41:48.030508,21.0
2023-08-12 16:41:48.038198,35.0
2023-08-12 16:41:48.045887,-38.0
2023-08-12 16:41:48.053577,-9.0
2023-08-12 16:41:48.061267,11.0
2023-08-12 16:41:48.068957,-14.0
2023-08-12 16:41:48.076647,-11.0
2023-08-12 16:41:48.084336,0.0
2023-08-12 16:41:48.092026,-14.0
2023-08-12 16:41:48.099716,-21.0
2023-08-12 16:41:48.107406,-14.0
2023-08-12 16:41:48.115096,-19.0
2023-08-12 16:41:48.122785,-26.0
2023-08-12 16:41:48.130475,-21.0
2023-08-12 16:41:48.138165,-21.0
2023-08-12 16:41:48.145855,-30.0
2023-08-12 16:41:48.153545,-40.0
2023-08-12 16:41:48.161234,-42.0
2023-08-12 16:41:48.168924,-40.0
2023-08-12 16:41:48.176614,-49.0
2023-08-12 16:41:48.184304,-59.0
2023-08-12 16:41:48.191993,-69.0
2023-08-12 16:41:48.199683,-80.0
2023-08-12 16:41:48.207373,-92.0
2023-08-12 16:41:48.215063,-97.0
2023-08-12 16:41:48.222753,-104.0
2023-08-12 16:41:48.230442,-116.0
2023-08-12 16:41:48.238132,-123.0
2023-08-12 16:41:48.245822,-128.0
2023-08-12 16:41:48.253512,-130.0
2023-08-12 16:41:48.261202,-130.0
2023-08-12 16:41:48.268891,-121.0
2023-08-12 16:41:48.276581,-102.0
2023-08-12 16:41:48.284271,-80.0
2023-08-12 16:41:48.291961,-57.0
2023-08-12 16:41:48.299651,-35.0
2023-08-12 16:41:48.307340,-21.0
2023-08-12 16:41:48.315030,-11.0
2023-08-12 16:41:48.322720,-4.0
2023-08-12 16:41:48.330410,-2.0
2023-08-12 16:41:48.338100,-2.0
2023-08-12 16:41:48.345789,-4.0
2023-08-12 16:41:48.353479,-4.0
2023-08-12 16:41:48.361169,-4.0
2023-08-12 16:41:48.368859,-11.0
2023-08-12 16:41:48.376549,-14.0
2023-08-12 16:41:48.384238,-19.0
2023-08-12 16:41:48.391928,-23.0
2023-08-12 16:41:48.399618,-23.0
2023-08-12 16:41:48.407308,-23.0
2023-08-12 16:41:48.414997,-33.0
2023-08-12 16:41:48.422687,-42.0
2023-08-12 16:41:48.430377,-47.0
2023-08-12 16:41:48.438067,-49.0
2023-08-12 16:41:48.445757,-45.0
2023-08-12 16:41:48.453446,-42.0
2023-08-12 16:41:48.461136,-49.0
2023-08-12 16:41:48.468826,-54.0
2023-08-12 16:41:48.476516,-52.0
2023-08-12 16:41:48.484206,-49.0
2023-08-12 16:41:48.491895,-47.0
2023-08-12 16:41:48.499585,-45.0
2023-08-12 16:41:48.507275,-47.0
2023-08-12 16:41:48.514965,-47.0
2023-08-12 16:41:48.522655,-40.0
2023-08-12 16:41:48.530344,-42.0
2023-08-12 16:41:48.538034,-42.0
2023-08-12 16:41:48.545724,-38.0
2023-08-12 16:41:48.553414,-40.0
2023-08-12 16:41:48.561104,-45.0
2023-08-12 16:41:48.568793,-42.0
2023-08-12 16:41:48.576483,-38.0
2023-08-12 16:41:48.584173,-45.0
2023-08-12 16:41:48.591863,-57.0
2023-08-12 16:41:48.599552,-66.0
2023-08-12 16:41:48.607242,-76.0
2023-08-12 16:41:48.614932,-80.0
2023-08-12 16:41:48.622622,-71.0
2023-08-12 16:41:48.630312,-52.0
2023-08-12 16:41:48.638001,-40.0
2023-08-12 16:41:48.645691,-38.0
2023-08-12 16:41:48.653381,-35.0
2023-08-12 16:41:48.661071,-33.0
2023-08-12 16:41:48.668761,-35.0
2023-08-12 16:41:48.676450,-35.0
2023-08-12 16:41:48.684140,-33.0
2023-08-12 16:41:48.691830,-35.0
2023-08-12 16:41:48.699520,-38.0
2023-08-12 16:41:48.707210,-42.0
2023-08-12 16:41:48.714899,-59.0
2023-08-12 16:41:48.722589,-111.0
2023-08-12 16:41:48.730279,-288.0
2023-08-12 16:41:48.737969,-595.0
2023-08-12 16:41:48.745659,-621.0
2023-08-12 16:41:48.753348,-92.0
2023-08-12 16:41:48.761038,235.0
2023-08-12 16:41:48.768728,-16.0
2023-08-12 16:41:48.776418,-121.0
2023-08-12 16:41:48.784108,23.0
2023-08-12 16:41:48.791797,4.0
2023-08-12 16:41:48.799487,-52.0
2023-08-12 16:41:48.807177,-14.0
2023-08-12 16:41:48.814867,-7.0
2023-08-12 16:41:48.822556,-33.0
2023-08-12 16:41:48.830246,-26.0
2023-08-12 16:41:48.837936,-19.0
2023-08-12 16:41:48.845626,-30.0
2023-08-12 16:41:48.853316,-40.0
2023-08-12 16:41:48.861005,-38.0
2023-08-12 16:41:48.868695,-38.0
2023-08-12 16:41:48.876385,-42.0
2023-08-12 16:41:48.884075,-49.0
2023-08-12 16:41:48.891765,-59.0
2023-08-12 16:41:48.899454,-64.0
2023-08-12 16:41:48.907144,-64.0
2023-08-12 16:41:48.914834,-64.0
2023-08-12 16:41:48.922524,-73.0
2023-08-12 16:41:48.930214,-85.0
2023-08-12 16:41:48.937903,-95.0
2023-08-12 16:41:48.945593,-107.0
2023-08-12 16:41:48.953283,-119.0
2023-08-12 16:41:48.960973,-130.0
2023-08-12 16:41:48.968663,-142.0
2023-08-12 16:41:48.976352,-149.0
2023-08-12 16:41:48.984042,-157.0
2023-08-12 16:41:48.991732,-166.0
2023-08-12 16:41:48.999422,-171.0
2023-08-12 16:41:49.007111,-176.0
2023-08-12 16:41:49.014801,-176.0
2023-08-12 16:41:49.022491,-159.0
2023-08-12 16:41:49.030181,-130.0
2023-08-12 16:41:49.037871,-109.0
2023-08-12 16:41:49.045560,-90.0
2023-08-12 16:41:49.053250,-71.0
2023-08-12 16:41:49.060940,-54.0
2023-08-12 16:41:49.068630,-42.0
2023-08-12 16:41:49.076320,-35.0
2023-08-12 16:41:49.084009,-30.0
2023-08-12 16:41:49.091699,-28.0
2023-08-12 16:41:49.099389,-33.0
2023-08-12 16:41:49.107079,-40.0
2023-08-12 16:41:49.114769,-38.0
2023-08-12 16:41:49.122458,-35.0
2023-08-12 16:41:49.130148,-40.0
2023-08-12 16:41:49.137838,-45.0
2023-08-12 16:41:49.145528,-45.0
2023-08-12 16:41:49.153218,-45.0
2023-08-12 16:41:49.160907,-47.0
2023-08-12 16:41:49.168597,-47.0
2023-08-12 16:41:49.176287,-52.0
2023-08-12 16:41:49.183977,-57.0
2023-08-12 16:41:49.191667,-54.0
2023-08-12 16:41:49.199356,-54.0
2023-08-12 16:41:49.207046,-57.0
2023-08-12 16:41:49.214736,-54.0
2023-08-12 16:41:49.222426,-49.0
2023-08-12 16:41:49.230115,-54.0
2023-08-12 16:41:49.237805,-52.0
2023-08-12 16:41:49.245495,-45.0
2023-08-12 16:41:49.253185,-45.0
2023-08-12 16:41:49.260875,-42.0
2023-08-12 16:41:49.268564,-40.0
2023-08-12 16:41:49.276254,-45.0
2023-08-12 16:41:49.283944,-45.0
2023-08-12 16:41:49.291634,-38.0
2023-08-12 16:41:49.299324,-40.0
2023-08-12 16:41:49.307013,-42.0
2023-08-12 16:41:49.314703,-38.0
2023-08-12 16:41:49.322393,-35.0
2023-08-12 16:41:49.330083,-38.0
2023-08-12 16:41:49.337773,-35.0
2023-08-12 16:41:49.345462,-35.0
2023-08-12 16:41:49.353152,-40.0
2023-08-12 16:41:49.360842,-40.0
2023-08-12 16:41:49.368532,-35.0
2023-08-12 16:41:49.376222,-35.0
2023-08-12 16:41:49.383911,-38.0
2023-08-12 16:41:49.391601,-35.0
2023-08-12 16:41:49.399291,-35.0
2023-08-12 16:41:49.406981,-40.0
2023-08-12 16:41:49.414670,-40.0
2023-08-12 16:41:49.422360,-38.0
2023-08-12 16:41:49.430050,-38.0
2023-08-12 16:41:49.437740,-42.0
2023-08-12 16:41:49.445430,-40.0
2023-08-12 16:41:49.453119,-42.0
2023-08-12 16:41:49.460809,-54.0
2023-08-12 16:41:49.468499,-73.0
2023-08-12 16:41:49.476189,-85.0
2023-08-12 16:41:49.483879,-88.0
2023-08-12 16:41:49.491568,-90.0
2023-08-12 16:41:49.499258,-92.0
2023-08-12 16:41:49.506948,-76.0
2023-08-12 16:41:49.514638,-54.0
2023-08-12 16:41:49.522328,-52.0
2023-08-12 16:41:49.530017,-54.0
2023-08-12 16:41:49.537707,-52.0
2023-08-12 16:41:49.545397,-52.0
2023-08-12 16:41:49.553087,-59.0
2023-08-12 16:41:49.560777,-59.0
2023-08-12 16:41:49.568466,-54.0
2023-08-12 16:41:49.576156,-54.0
2023-08-12 16:41:49.583846,-59.0
2023-08-12 16:41:49.591536,-80.0
2023-08-12 16:41:49.599226,-159.0
2023-08-12 16:41:49.606915,-359.0
2023-08-12 16:41:49.614605,-626.0
2023-08-12 16:41:49.622295,-535.0
2023-08-12 16:41:49.629985,-4.0
2023-08-12 16:41:49.637674,173.0
2023-08-12 16:41:49.645364,-85.0
2023-08-12 16:41:49.653054,-99.0
2023-08-12 16:41:49.660744,23.0
2023-08-12 16:41:49.668434,-23.0
2023-08-12 16:41:49.676123,-54.0
2023-08-12 16:41:49.683813,-16.0
2023-08-12 16:41:49.691503,-23.0
2023-08-12 16:41:49.699193,-42.0
2023-08-12 16:41:49.706883,-30.0
2023-08-12 16:41:49.714572,-28.0
2023-08-12 16:41:49.722262,-35.0
2023-08-12 16:41:49.729952,-38.0
2023-08-12 16:41:49.737642,-38.0
2023-08-12 16:41:49.745332,-42.0
2023-08-12 16:41:49.753021,-45.0
2023-08-12 16:41:49.760711,-45.0
2023-08-12 16:41:49.768401,-47.0
2023-08-12 16:41:49.776091,-52.0
2023-08-12 16:41:49.783781,-54.0
2023-08-12 16:41:49.791470,-57.0
2023-08-12 16:41:49.799160,-61.0
2023-08-12 16:41:49.806850,-69.0
2023-08-12 16:41:49.814540,-78.0
2023-08-12 16:41:49.822229,-88.0
2023-08-12 16:41:49.829919,-97.0
2023-08-12 16:41:49.837609,-104.0
2023-08-12 16:41:49.845299,-109.0
2023-08-12 16:41:49.852989,-116.0
2023-08-12 16:41:49.860678,-128.0
2023-08-12 16:41:49.868368,-130.0
2023-08-12 16:41:49.876058,-130.0
2023-08-12 16:41:49.883748,-133.0
2023-08-12 16:41:49.891438,-133.0
2023-08-12 16:41:49.899127,-119.0
2023-08-12 16:41:49.906817,-99.0
2023-08-12 16:41:49.914507,-80.0
2023-08-12 16:41:49.922197,-57.0
2023-08-12 16:41:49.929887,-40.0
2023-08-12 16:41:49.937576,-26.0
2023-08-12 16:41:49.945266,-14.0
2023-08-12 16:41:49.952956,-9.0
2023-08-12 16:41:49.960646,-9.0
2023-08-12 16:41:49.968336,-11.0
2023-08-12 16:41:49.976025,-16.0
2023-08-12 16:41:49.983715,-19.0
2023-08-12 16:41:49.991405,-19.0
2023-08-12 16:41:49.999095,-19.0
2023-08-12 16:41:50.006784,-16.0
2023-08-12 16:41:50.014474,-19.0
2023-08-12 16:41:50.022164,-21.0
2023-08-12 16:41:50.029854,-21.0
2023-08-12 16:41:50.037544,-16.0
2023-08-12 16:41:50.045233,-23.0
2023-08-12 16:41:50.052923,-28.0
2023-08-12 16:41:50.060613,-23.0
2023-08-12 16:41:50.068303,-21.0
2023-08-12 16:41:50.075993,-23.0
2023-08-12 16:41:50.083682,-26.0
2023-08-12 16:41:50.091372,-23.0
2023-08-12 16:41:50.099062,-19.0
2023-08-12 16:41:50.106752,-14.0
2023-08-12 16:41:50.114442,-14.0
2023-08-12 16:41:50.122131,-14.0
2023-08-12 16:41:50.129821,-16.0
2023-08-12 16:41:50.137511,-16.0
2023-08-12 16:41:50.145201,-14.0
2023-08-12 16:41:50.152891,-11.0
2023-08-12 16:41:50.160580,-7.0
2023-08-12 16:41:50.168270,-4.0
2023-08-12 16:41:50.175960,-7.0
2023-08-12 16:41:50.183650,-11.0
2023-08-12 16:41:50.191340,-9.0
2023-08-12 16:41:50.199029,-4.0
2023-08-12 16:41:50.206719,-4.0
2023-08-12 16:41:50.214409,-7.0
2023-08-12 16:41:50.222099,-9.0
2023-08-12 16:41:50.229788,-11.0
2023-08-12 16:41:50.237478,-9.0
2023-08-12 16:41:50.245168,-7.0
2023-08-12 16:41:50.252858,-7.0
2023-08-12 16:41:50.260548,-9.0
2023-08-12 16:41:50.268237,-11.0
2023-08-12 16:41:50.275927,-11.0
2023-08-12 16:41:50.283617,-9.0
2023-08-12 16:41:50.291307,-9.0
2023-08-12 16:41:50.298997,-11.0
2023-08-12 16:41:50.306686,-11.0
2023-08-12 16:41:50.314376,-19.0
2023-08-12 16:41:50.322066,-21.0
2023-08-12 16:41:50.329756,-16.0
2023-08-12 16:41:50.337446,-9.0
2023-08-12 16:41:50.345135,-11.0
2023-08-12 16:41:50.352825,-23.0
2023-08-12 16:41:50.360515,-33.0
2023-08-12 16:41:50.368205,-33.0
2023-08-12 16:41:50.375895,-38.0
2023-08-12 16:41:50.383584,-45.0
2023-08-12 16:41:50.391274,-28.0
2023-08-12 16:41:50.398964,-2.0
2023-08-12 16:41:50.406654,2.0
2023-08-12 16:41:50.414343,4.0
2023-08-12 16:41:50.422033,7.0
2023-08-12 16:41:50.429723,7.0
2023-08-12 16:41:50.437413,4.0
2023-08-12 16:41:50.445103,7.0
2023-08-12 16:41:50.452792,7.0
2023-08-12 16:41:50.460482,7.0
2023-08-12 16:41:50.468172,4.0
2023-08-12 16:41:50.475862,-9.0
2023-08-12 16:41:50.483552,-71.0
2023-08-12 16:41:50.491241,-240.0
2023-08-12 16:41:50.498931,-511.0
2023-08-12 16:41:50.506621,-530.0
2023-08-12 16:41:50.514311,-40.0
2023-08-12 16:41:50.522001,273.0
2023-08-12 16:41:50.529690,38.0
2023-08-12 16:41:50.537380,-66.0
2023-08-12 16:41:50.545070,73.0
2023-08-12 16:41:50.552760,54.0
2023-08-12 16:41:50.560450,-4.0
2023-08-12 16:41:50.568139,38.0
2023-08-12 16:41:50.575829,45.0
2023-08-12 16:41:50.583519,14.0
2023-08-12 16:41:50.591209,21.0
2023-08-12 16:41:50.598899,28.0
2023-08-12 16:41:50.606588,16.0
2023-08-12 16:41:50.614278,19.0
2023-08-12 16:41:50.621968,19.0
2023-08-12 16:41:50.629658,9.0
2023-08-12 16:41:50.637347,9.0
2023-08-12 16:41:50.645037,9.0
2023-08-12 16:41:50.652727,4.0
2023-08-12 16:41:50.660417,0.0
2023-08-12 16:41:50.668107,-4.0
2023-08-12 16:41:50.675796,-11.0
2023-08-12 16:41:50.683486,-16.0
2023-08-12 16:41:50.691176,-21.0
2023-08-12 16:41:50.698866,-30.0
2023-08-12 16:41:50.706556,-40.0
2023-08-12 16:41:50.714245,-52.0
2023-08-12 16:41:50.721935,-64.0
2023-08-12 16:41:50.729625,-73.0
2023-08-12 16:41:50.737315,-80.0
2023-08-12 16:41:50.745005,-85.0
2023-08-12 16:41:50.752694,-90.0
2023-08-12 16:41:50.760384,-92.0
2023-08-12 16:41:50.768074,-92.0
2023-08-12 16:41:50.775764,-90.0
2023-08-12 16:41:50.783454,-80.0
2023-08-12 16:41:50.791143,-66.0
2023-08-12 16:41:50.798833,-42.0
2023-08-12 16:41:50.806523,-19.0
2023-08-12 16:41:50.814213,0.0
2023-08-12 16:41:50.821902,19.0
2023-08-12 16:41:50.829592,28.0
2023-08-12 16:41:50.837282,33.0
2023-08-12 16:41:50.844972,33.0
2023-08-12 16:41:50.852662,33.0
2023-08-12 16:41:50.860351,33.0
2023-08-12 16:41:50.868041,30.0
2023-08-12 16:41:50.875731,21.0
2023-08-12 16:41:50.883421,21.0
2023-08-12 16:41:50.891111,21.0
2023-08-12 16:41:50.898800,11.0
2023-08-12 16:41:50.906490,7.0
2023-08-12 16:41:50.914180,14.0
2023-08-12 16:41:50.921870,9.0
2023-08-12 16:41:50.929560,0.0
2023-08-12 16:41:50.937249,-2.0
2023-08-12 16:41:50.944939,4.0
2023-08-12 16:41:50.952629,4.0
2023-08-12 16:41:50.960319,0.0
2023-08-12 16:41:50.968009,2.0
2023-08-12 16:41:50.975698,9.0
2023-08-12 16:41:50.983388,7.0
2023-08-12 16:41:50.991078,0.0
2023-08-12 16:41:50.998768,0.0
2023-08-12 16:41:51.006458,4.0
2023-08-12 16:41:51.014147,9.0
2023-08-12 16:41:51.021837,7.0
2023-08-12 16:41:51.029527,4.0
2023-08-12 16:41:51.037217,7.0
2023-08-12 16:41:51.044906,9.0
2023-08-12 16:41:51.052596,9.0
2023-08-12 16:41:51.060286,7.0
2023-08-12 16:41:51.067976,-4.0
2023-08-12 16:41:51.075666,-19.0
2023-08-12 16:41:51.083355,-28.0
2023-08-12 16:41:51.091045,-33.0
2023-08-12 16:41:51.098735,-26.0
2023-08-12 16:41:51.106425,-7.0
2023-08-12 16:41:51.114115,7.0
2023-08-12 16:41:51.121804,7.0
2023-08-12 16:41:51.129494,7.0
2023-08-12 16:41:51.137184,4.0
2023-08-12 16:41:51.144874,2.0
2023-08-12 16:41:51.152564,2.0
2023-08-12 16:41:51.160253,-2.0
2023-08-12 16:41:51.167943,-7.0
2023-08-12 16:41:51.175633,-7.0
2023-08-12 16:41:51.183323,-7.0
2023-08-12 16:41:51.191013,-16.0
2023-08-12 16:41:51.198702,-76.0
2023-08-12 16:41:51.206392,-273.0
2023-08-12 16:41:51.214082,-576.0
2023-08-12 16:41:51.221772,-578.0
2023-08-12 16:41:51.229461,-61.0
2023-08-12 16:41:51.237151,245.0
2023-08-12 16:41:51.244841,4.0
2023-08-12 16:41:51.252531,-104.0
2023-08-12 16:41:51.260221,16.0
2023-08-12 16:41:51.267910,-2.0
2023-08-12 16:41:51.275600,-52.0
2023-08-12 16:41:51.283290,-19.0
2023-08-12 16:41:51.290980,-14.0
2023-08-12 16:41:51.298670,-42.0
2023-08-12 16:41:51.306359,-45.0
2023-08-12 16:41:51.314049,-38.0
2023-08-12 16:41:51.321739,-38.0
2023-08-12 16:41:51.329429,-42.0
2023-08-12 16:41:51.337119,-47.0
2023-08-12 16:41:51.344808,-52.0
2023-08-12 16:41:51.352498,-52.0
2023-08-12 16:41:51.360188,-52.0
2023-08-12 16:41:51.367878,-57.0
2023-08-12 16:41:51.375568,-59.0
2023-08-12 16:41:51.383257,-61.0
2023-08-12 16:41:51.390947,-71.0
2023-08-12 16:41:51.398637,-78.0
2023-08-12 16:41:51.406327,-85.0
2023-08-12 16:41:51.414017,-92.0
2023-08-12 16:41:51.421706,-104.0
2023-08-12 16:41:51.429396,-114.0
2023-08-12 16:41:51.437086,-123.0
2023-08-12 16:41:51.444776,-130.0
2023-08-12 16:41:51.452465,-133.0
2023-08-12 16:41:51.460155,-138.0
2023-08-12 16:41:51.467845,-142.0
2023-08-12 16:41:51.475535,-145.0
2023-08-12 16:41:51.483225,-145.0
2023-08-12 16:41:51.490914,-138.0
2023-08-12 16:41:51.498604,-123.0
2023-08-12 16:41:51.506294,-90.0
2023-08-12 16:41:51.513984,-54.0
2023-08-12 16:41:51.521674,-33.0
2023-08-12 16:41:51.529363,-19.0
2023-08-12 16:41:51.537053,-4.0
2023-08-12 16:41:51.544743,4.0
2023-08-12 16:41:51.552433,9.0
2023-08-12 16:41:51.560123,11.0
2023-08-12 16:41:51.567812,9.0
2023-08-12 16:41:51.575502,2.0
2023-08-12 16:41:51.583192,-2.0
2023-08-12 16:41:51.590882,-2.0
2023-08-12 16:41:51.598572,-4.0
2023-08-12 16:41:51.606261,-11.0
2023-08-12 16:41:51.613951,-14.0
2023-08-12 16:41:51.621641,-14.0
2023-08-12 16:41:51.629331,-21.0
2023-08-12 16:41:51.637020,-21.0
2023-08-12 16:41:51.644710,-21.0
2023-08-12 16:41:51.652400,-26.0
2023-08-12 16:41:51.660090,-30.0
2023-08-12 16:41:51.667780,-28.0
2023-08-12 16:41:51.675469,-28.0
2023-08-12 16:41:51.683159,-28.0
2023-08-12 16:41:51.690849,-21.0
2023-08-12 16:41:51.698539,-19.0
2023-08-12 16:41:51.706229,-21.0
2023-08-12 16:41:51.713918,-21.0
2023-08-12 16:41:51.721608,-21.0
2023-08-12 16:41:51.729298,-21.0
2023-08-12 16:41:51.736988,-21.0
2023-08-12 16:41:51.744678,-26.0
2023-08-12 16:41:51.752367,-23.0
2023-08-12 16:41:51.760057,-19.0
2023-08-12 16:41:51.767747,-21.0
2023-08-12 16:41:51.775437,-33.0
2023-08-12 16:41:51.783127,-45.0
2023-08-12 16:41:51.790816,-57.0
2023-08-12 16:41:51.798506,-73.0
2023-08-12 16:41:51.806196,-71.0
2023-08-12 16:41:51.813886,-40.0
2023-08-12 16:41:51.821576,-23.0
2023-08-12 16:41:51.829265,-26.0
2023-08-12 16:41:51.836955,-26.0
2023-08-12 16:41:51.844645,-30.0
2023-08-12 16:41:51.852335,-33.0
2023-08-12 16:41:51.860024,-30.0
2023-08-12 16:41:51.867714,-30.0
2023-08-12 16:41:51.875404,-33.0
2023-08-12 16:41:51.883094,-30.0
2023-08-12 16:41:51.890784,-35.0
2023-08-12 16:41:51.898473,-80.0
2023-08-12 16:41:51.906163,-242.0
2023-08-12 16:41:51.913853,-533.0
2023-08-12 16:41:51.921543,-671.0
2023-08-12 16:41:51.929233,-259.0
2023-08-12 16:41:51.936922,216.0
2023-08-12 16:41:51.944612,83.0
2023-08-12 16:41:51.952302,-126.0
2023-08-12 16:41:51.959992,-9.0
2023-08-12 16:41:51.967682,30.0
2023-08-12 16:41:51.975371,-42.0
2023-08-12 16:41:51.983061,-26.0
2023-08-12 16:41:51.990751,-2.0
2023-08-12 16:41:51.998441,-33.0
2023-08-12 16:41:52.006131,-40.0
2023-08-12 16:41:52.013820,-28.0
2023-08-12 16:41:52.021510,-33.0
2023-08-12 16:41:52.029200,-38.0
2023-08-12 16:41:52.036890,-40.0
2023-08-12 16:41:52.044579,-45.0
2023-08-12 16:41:52.052269,-47.0
2023-08-12 16:41:52.059959,-49.0
2023-08-12 16:41:52.067649,-54.0
2023-08-12 16:41:52.075339,-61.0
2023-08-12 16:41:52.083028,-66.0
2023-08-12 16:41:52.090718,-69.0
2023-08-12 16:41:52.098408,-76.0
2023-08-12 16:41:52.106098,-83.0
2023-08-12 16:41:52.113788,-92.0
2023-08-12 16:41:52.121477,-102.0
2023-08-12 16:41:52.129167,-111.0
2023-08-12 16:41:52.136857,-119.0
2023-08-12 16:41:52.144547,-130.0
2023-08-12 16:41:52.152237,-145.0
2023-08-12 16:41:52.159926,-154.0
2023-08-12 16:41:52.167616,-157.0
2023-08-12 16:41:52.175306,-161.0
2023-08-12 16:41:52.182996,-164.0
2023-08-12 16:41:52.190686,-152.0
2023-08-12 16:41:52.198375,-138.0
2023-08-12 16:41:52.206065,-114.0
2023-08-12 16:41:52.213755,-83.0
2023-08-12 16:41:52.221445,-57.0
2023-08-12 16:41:52.229135,-38.0
2023-08-12 16:41:52.236824,-21.0
2023-08-12 16:41:52.244514,-11.0
2023-08-12 16:41:52.252204,-7.0
2023-08-12 16:41:52.259894,-7.0
2023-08-12 16:41:52.267583,-9.0
2023-08-12 16:41:52.275273,-7.0
2023-08-12 16:41:52.282963,-9.0
2023-08-12 16:41:52.290653,-16.0
2023-08-12 16:41:52.298343,-19.0
2023-08-12 16:41:52.306032,-21.0
2023-08-12 16:41:52.313722,-23.0
2023-08-12 16:41:52.321412,-28.0
2023-08-12 16:41:52.329102,-38.0
2023-08-12 16:41:52.336792,-45.0
2023-08-12 16:41:52.344481,-54.0
2023-08-12 16:41:52.352171,-59.0
2023-08-12 16:41:52.359861,-61.0
2023-08-12 16:41:52.367551,-61.0
2023-08-12 16:41:52.375241,-64.0
2023-08-12 16:41:52.382930,-66.0
2023-08-12 16:41:52.390620,-66.0
2023-08-12 16:41:52.398310,-64.0
2023-08-12 16:41:52.406000,-64.0
2023-08-12 16:41:52.413690,-66.0
2023-08-12 16:41:52.421379,-61.0
2023-08-12 16:41:52.429069,-59.0
2023-08-12 16:41:52.436759,-61.0
2023-08-12 16:41:52.444449,-71.0
2023-08-12 16:41:52.452138,-80.0
2023-08-12 16:41:52.459828,-88.0
2023-08-12 16:41:52.467518,-95.0
2023-08-12 16:41:52.475208,-88.0
2023-08-12 16:41:52.482898,-66.0
2023-08-12 16:41:52.490587,-52.0
2023-08-12 16:41:52.498277,-52.0
2023-08-12 16:41:52.505967,-49.0
2023-08-12 16:41:52.513657,-47.0
2023-08-12 16:41:52.521347,-47.0
2023-08-12 16:41:52.529036,-47.0
2023-08-12 16:41:52.536726,-47.0
2023-08-12 16:41:52.544416,-49.0
2023-08-12 16:41:52.552106,-49.0
