time,ECG
2023-08-15 14:37:48.806076,-9.0
2023-08-15 14:37:48.813766,-43.0
2023-08-15 14:37:48.821455,-79.0
2023-08-15 14:37:48.829145,-100.0
2023-08-15 14:37:48.836834,-110.0
2023-08-15 14:37:48.844524,-134.0
2023-08-15 14:37:48.852213,-141.0
2023-08-15 14:37:48.859903,-136.0
2023-08-15 14:37:48.867593,-155.0
2023-08-15 14:37:48.875282,-165.0
2023-08-15 14:37:48.882972,-150.0
2023-08-15 14:37:48.890661,-153.0
2023-08-15 14:37:48.898351,-143.0
2023-08-15 14:37:48.906041,-105.0
2023-08-15 14:37:48.913730,-100.0
2023-08-15 14:37:48.921420,-150.0
2023-08-15 14:37:48.929109,-153.0
2023-08-15 14:37:48.936799,-103.0
2023-08-15 14:37:48.944488,-105.0
2023-08-15 14:37:48.952178,-117.0
2023-08-15 14:37:48.959868,-95.0
2023-08-15 14:37:48.967557,-107.0
2023-08-15 14:37:48.975247,-119.0
2023-08-15 14:37:48.982936,-110.0
2023-08-15 14:37:48.990626,-115.0
2023-08-15 14:37:48.998315,-110.0
2023-08-15 14:37:49.006005,-100.0
2023-08-15 14:37:49.013695,-110.0
2023-08-15 14:37:49.021384,-110.0
2023-08-15 14:37:49.029074,-93.0
2023-08-15 14:37:49.036763,-105.0
2023-08-15 14:37:49.044453,-136.0
2023-08-15 14:37:49.052143,-127.0
2023-08-15 14:37:49.059832,-103.0
2023-08-15 14:37:49.067522,-95.0
2023-08-15 14:37:49.075211,-100.0
2023-08-15 14:37:49.082901,-103.0
2023-08-15 14:37:49.090590,-91.0
2023-08-15 14:37:49.098280,-93.0
2023-08-15 14:37:49.105970,-112.0
2023-08-15 14:37:49.113659,-103.0
2023-08-15 14:37:49.121349,-71.0
2023-08-15 14:37:49.129038,-81.0
2023-08-15 14:37:49.136728,-112.0
2023-08-15 14:37:49.144418,-95.0
2023-08-15 14:37:49.152107,-76.0
2023-08-15 14:37:49.159797,-100.0
2023-08-15 14:37:49.167486,-100.0
2023-08-15 14:37:49.175176,-83.0
2023-08-15 14:37:49.182865,-91.0
2023-08-15 14:37:49.190555,-83.0
2023-08-15 14:37:49.198245,-71.0
2023-08-15 14:37:49.205934,-88.0
2023-08-15 14:37:49.213624,-93.0
2023-08-15 14:37:49.221313,-74.0
2023-08-15 14:37:49.229003,-67.0
2023-08-15 14:37:49.236693,-81.0
2023-08-15 14:37:49.244382,-86.0
2023-08-15 14:37:49.252072,-79.0
2023-08-15 14:37:49.259761,-91.0
2023-08-15 14:37:49.267451,-103.0
2023-08-15 14:37:49.275140,-83.0
2023-08-15 14:37:49.282830,-69.0
2023-08-15 14:37:49.290520,-62.0
2023-08-15 14:37:49.298209,-23.0
2023-08-15 14:37:49.305899,-9.0
2023-08-15 14:37:49.313588,-35.0
2023-08-15 14:37:49.321278,-47.0
2023-08-15 14:37:49.328968,-67.0
2023-08-15 14:37:49.336657,-88.0
2023-08-15 14:37:49.344347,-76.0
2023-08-15 14:37:49.352036,-59.0
2023-08-15 14:37:49.359726,-55.0
2023-08-15 14:37:49.367415,-57.0
2023-08-15 14:37:49.375105,-76.0
2023-08-15 14:37:49.382795,-67.0
2023-08-15 14:37:49.390484,-43.0
2023-08-15 14:37:49.398174,-40.0
2023-08-15 14:37:49.405863,-55.0
2023-08-15 14:37:49.413553,11.0
2023-08-15 14:37:49.421243,263.0
2023-08-15 14:37:49.428932,630.0
2023-08-15 14:37:49.436622,946.0
2023-08-15 14:37:49.444311,867.0
2023-08-15 14:37:49.452001,93.0
2023-08-15 14:37:49.459690,-584.0
2023-08-15 14:37:49.467380,-383.0
2023-08-15 14:37:49.475070,-38.0
2023-08-15 14:37:49.482759,-110.0
2023-08-15 14:37:49.490449,-162.0
2023-08-15 14:37:49.498138,-100.0
2023-08-15 14:37:49.505828,-105.0
2023-08-15 14:37:49.513518,-98.0
2023-08-15 14:37:49.521207,-64.0
2023-08-15 14:37:49.528897,-62.0
2023-08-15 14:37:49.536586,-52.0
2023-08-15 14:37:49.544276,-43.0
2023-08-15 14:37:49.551965,-52.0
2023-08-15 14:37:49.559655,-31.0
2023-08-15 14:37:49.567345,-2.0
2023-08-15 14:37:49.575034,0.0
2023-08-15 14:37:49.582724,19.0
2023-08-15 14:37:49.590413,40.0
2023-08-15 14:37:49.598103,31.0
2023-08-15 14:37:49.605793,40.0
2023-08-15 14:37:49.613482,62.0
2023-08-15 14:37:49.621172,62.0
2023-08-15 14:37:49.628861,81.0
2023-08-15 14:37:49.636551,107.0
2023-08-15 14:37:49.644240,122.0
2023-08-15 14:37:49.651930,141.0
2023-08-15 14:37:49.659620,122.0
2023-08-15 14:37:49.667309,76.0
2023-08-15 14:37:49.674999,79.0
2023-08-15 14:37:49.682688,83.0
2023-08-15 14:37:49.690378,47.0
2023-08-15 14:37:49.698068,45.0
2023-08-15 14:37:49.705757,76.0
2023-08-15 14:37:49.713447,50.0
2023-08-15 14:37:49.721136,-23.0
2023-08-15 14:37:49.728826,-57.0
2023-08-15 14:37:49.736515,-50.0
2023-08-15 14:37:49.744205,-91.0
2023-08-15 14:37:49.751895,-139.0
2023-08-15 14:37:49.759584,-139.0
2023-08-15 14:37:49.767274,-143.0
2023-08-15 14:37:49.774963,-158.0
2023-08-15 14:37:49.782653,-141.0
2023-08-15 14:37:49.790343,-124.0
2023-08-15 14:37:49.798032,-124.0
2023-08-15 14:37:49.805722,-127.0
2023-08-15 14:37:49.813411,-136.0
2023-08-15 14:37:49.821101,-143.0
2023-08-15 14:37:49.828790,-136.0
2023-08-15 14:37:49.836480,-139.0
2023-08-15 14:37:49.844170,-139.0
2023-08-15 14:37:49.851859,-117.0
2023-08-15 14:37:49.859549,-117.0
2023-08-15 14:37:49.867238,-129.0
2023-08-15 14:37:49.874928,-115.0
2023-08-15 14:37:49.882618,-110.0
2023-08-15 14:37:49.890307,-129.0
2023-08-15 14:37:49.897997,-122.0
2023-08-15 14:37:49.905686,-110.0
2023-08-15 14:37:49.913376,-124.0
2023-08-15 14:37:49.921065,-122.0
2023-08-15 14:37:49.928755,-119.0
2023-08-15 14:37:49.936445,-131.0
2023-08-15 14:37:49.944134,-131.0
2023-08-15 14:37:49.951824,-117.0
2023-08-15 14:37:49.959513,-105.0
2023-08-15 14:37:49.967203,-103.0
2023-08-15 14:37:49.974893,-105.0
2023-08-15 14:37:49.982582,-119.0
2023-08-15 14:37:49.990272,-117.0
2023-08-15 14:37:49.997961,-103.0
2023-08-15 14:37:50.005651,-100.0
2023-08-15 14:37:50.013340,-105.0
2023-08-15 14:37:50.021030,-105.0
2023-08-15 14:37:50.028720,-95.0
2023-08-15 14:37:50.036409,-95.0
2023-08-15 14:37:50.044099,-107.0
2023-08-15 14:37:50.051788,-110.0
2023-08-15 14:37:50.059478,-98.0
2023-08-15 14:37:50.067168,-79.0
2023-08-15 14:37:50.074857,-93.0
2023-08-15 14:37:50.082547,-103.0
2023-08-15 14:37:50.090236,-86.0
2023-08-15 14:37:50.097926,-91.0
2023-08-15 14:37:50.105615,-100.0
2023-08-15 14:37:50.113305,-91.0
2023-08-15 14:37:50.120995,-86.0
2023-08-15 14:37:50.128684,-69.0
2023-08-15 14:37:50.136374,-43.0
2023-08-15 14:37:50.144063,-43.0
2023-08-15 14:37:50.151753,-50.0
2023-08-15 14:37:50.159443,-38.0
2023-08-15 14:37:50.167132,-23.0
2023-08-15 14:37:50.174822,-43.0
2023-08-15 14:37:50.182511,-79.0
2023-08-15 14:37:50.190201,-91.0
2023-08-15 14:37:50.197890,-71.0
2023-08-15 14:37:50.205580,-67.0
2023-08-15 14:37:50.213270,-91.0
2023-08-15 14:37:50.220959,-86.0
2023-08-15 14:37:50.228649,-69.0
2023-08-15 14:37:50.236338,-76.0
2023-08-15 14:37:50.244028,-67.0
2023-08-15 14:37:50.251718,-55.0
2023-08-15 14:37:50.259407,-7.0
2023-08-15 14:37:50.267097,196.0
2023-08-15 14:37:50.274786,541.0
2023-08-15 14:37:50.282476,925.0
2023-08-15 14:37:50.290165,977.0
2023-08-15 14:37:50.297855,256.0
2023-08-15 14:37:50.305545,-505.0
2023-08-15 14:37:50.313234,-395.0
2023-08-15 14:37:50.320924,-83.0
2023-08-15 14:37:50.328613,-170.0
2023-08-15 14:37:50.336303,-206.0
2023-08-15 14:37:50.343993,-110.0
2023-08-15 14:37:50.351682,-112.0
2023-08-15 14:37:50.359372,-143.0
2023-08-15 14:37:50.367061,-124.0
2023-08-15 14:37:50.374751,-93.0
2023-08-15 14:37:50.382440,-74.0
2023-08-15 14:37:50.390130,-71.0
2023-08-15 14:37:50.397820,-69.0
2023-08-15 14:37:50.405509,-59.0
2023-08-15 14:37:50.413199,-59.0
2023-08-15 14:37:50.420888,-57.0
2023-08-15 14:37:50.428578,-38.0
2023-08-15 14:37:50.436267,-16.0
2023-08-15 14:37:50.443957,-4.0
2023-08-15 14:37:50.451647,23.0
2023-08-15 14:37:50.459336,50.0
2023-08-15 14:37:50.467026,47.0
2023-08-15 14:37:50.474715,50.0
2023-08-15 14:37:50.482405,76.0
2023-08-15 14:37:50.490095,95.0
2023-08-15 14:37:50.497784,100.0
2023-08-15 14:37:50.505474,105.0
2023-08-15 14:37:50.513163,105.0
2023-08-15 14:37:50.520853,100.0
2023-08-15 14:37:50.528542,86.0
2023-08-15 14:37:50.536232,69.0
2023-08-15 14:37:50.543922,52.0
2023-08-15 14:37:50.551611,33.0
2023-08-15 14:37:50.559301,7.0
2023-08-15 14:37:50.566990,-28.0
2023-08-15 14:37:50.574680,-64.0
2023-08-15 14:37:50.582370,-95.0
2023-08-15 14:37:50.590059,-124.0
2023-08-15 14:37:50.597749,-143.0
2023-08-15 14:37:50.605438,-155.0
2023-08-15 14:37:50.613128,-165.0
2023-08-15 14:37:50.620817,-172.0
2023-08-15 14:37:50.628507,-179.0
2023-08-15 14:37:50.636197,-174.0
2023-08-15 14:37:50.643886,-160.0
2023-08-15 14:37:50.651576,-153.0
2023-08-15 14:37:50.659265,-150.0
2023-08-15 14:37:50.666955,-143.0
2023-08-15 14:37:50.674645,-141.0
2023-08-15 14:37:50.682334,-136.0
2023-08-15 14:37:50.690024,-122.0
2023-08-15 14:37:50.697713,-119.0
2023-08-15 14:37:50.705403,-115.0
2023-08-15 14:37:50.713092,-105.0
2023-08-15 14:37:50.720782,-112.0
2023-08-15 14:37:50.728472,-117.0
2023-08-15 14:37:50.736161,-105.0
2023-08-15 14:37:50.743851,-100.0
2023-08-15 14:37:50.751540,-107.0
2023-08-15 14:37:50.759230,-107.0
2023-08-15 14:37:50.766920,-100.0
2023-08-15 14:37:50.774609,-98.0
2023-08-15 14:37:50.782299,-107.0
2023-08-15 14:37:50.789988,-107.0
2023-08-15 14:37:50.797678,-103.0
2023-08-15 14:37:50.805367,-110.0
2023-08-15 14:37:50.813057,-115.0
2023-08-15 14:37:50.820747,-103.0
2023-08-15 14:37:50.828436,-98.0
2023-08-15 14:37:50.836126,-100.0
2023-08-15 14:37:50.843815,-93.0
2023-08-15 14:37:50.851505,-88.0
2023-08-15 14:37:50.859195,-86.0
2023-08-15 14:37:50.866884,-81.0
2023-08-15 14:37:50.874574,-83.0
2023-08-15 14:37:50.882263,-81.0
2023-08-15 14:37:50.889953,-76.0
2023-08-15 14:37:50.897642,-74.0
2023-08-15 14:37:50.905332,-74.0
2023-08-15 14:37:50.913022,-71.0
2023-08-15 14:37:50.920711,-69.0
2023-08-15 14:37:50.928401,-64.0
2023-08-15 14:37:50.936090,-59.0
2023-08-15 14:37:50.943780,-67.0
2023-08-15 14:37:50.951470,-76.0
2023-08-15 14:37:50.959159,-71.0
2023-08-15 14:37:50.966849,-69.0
2023-08-15 14:37:50.974538,-71.0
2023-08-15 14:37:50.982228,-69.0
2023-08-15 14:37:50.989917,-67.0
2023-08-15 14:37:50.997607,-71.0
2023-08-15 14:37:51.005297,-74.0
2023-08-15 14:37:51.012986,-67.0
2023-08-15 14:37:51.020676,-50.0
2023-08-15 14:37:51.028365,-33.0
2023-08-15 14:37:51.036055,-21.0
2023-08-15 14:37:51.043745,-11.0
2023-08-15 14:37:51.051434,-4.0
2023-08-15 14:37:51.059124,-11.0
2023-08-15 14:37:51.066813,-26.0
2023-08-15 14:37:51.074503,-40.0
2023-08-15 14:37:51.082192,-47.0
2023-08-15 14:37:51.089882,-52.0
2023-08-15 14:37:51.097572,-57.0
2023-08-15 14:37:51.105261,-52.0
2023-08-15 14:37:51.112951,-47.0
2023-08-15 14:37:51.120640,-47.0
2023-08-15 14:37:51.128330,-50.0
2023-08-15 14:37:51.136020,-45.0
2023-08-15 14:37:51.143709,-33.0
2023-08-15 14:37:51.151399,14.0
2023-08-15 14:37:51.159088,172.0
2023-08-15 14:37:51.166778,440.0
2023-08-15 14:37:51.174467,812.0
2023-08-15 14:37:51.182157,1080.0
2023-08-15 14:37:51.189847,637.0
2023-08-15 14:37:51.197536,-289.0
2023-08-15 14:37:51.205226,-503.0
2023-08-15 14:37:51.212915,-95.0
2023-08-15 14:37:51.220605,-59.0
2023-08-15 14:37:51.228295,-210.0
2023-08-15 14:37:51.235984,-136.0
2023-08-15 14:37:51.243674,-91.0
2023-08-15 14:37:51.251363,-134.0
2023-08-15 14:37:51.259053,-112.0
2023-08-15 14:37:51.266742,-79.0
2023-08-15 14:37:51.274432,-83.0
2023-08-15 14:37:51.282122,-76.0
2023-08-15 14:37:51.289811,-62.0
2023-08-15 14:37:51.297501,-59.0
2023-08-15 14:37:51.305190,-47.0
2023-08-15 14:37:51.312880,-31.0
2023-08-15 14:37:51.320570,-19.0
2023-08-15 14:37:51.328259,-7.0
2023-08-15 14:37:51.335949,9.0
2023-08-15 14:37:51.343638,31.0
2023-08-15 14:37:51.351328,50.0
2023-08-15 14:37:51.359017,69.0
2023-08-15 14:37:51.366707,83.0
2023-08-15 14:37:51.374397,95.0
2023-08-15 14:37:51.382086,107.0
2023-08-15 14:37:51.389776,119.0
2023-08-15 14:37:51.397465,129.0
2023-08-15 14:37:51.405155,127.0
2023-08-15 14:37:51.412845,119.0
2023-08-15 14:37:51.420534,112.0
2023-08-15 14:37:51.428224,100.0
2023-08-15 14:37:51.435913,83.0
2023-08-15 14:37:51.443603,62.0
2023-08-15 14:37:51.451292,38.0
2023-08-15 14:37:51.458982,2.0
2023-08-15 14:37:51.466672,-43.0
2023-08-15 14:37:51.474361,-76.0
2023-08-15 14:37:51.482051,-107.0
2023-08-15 14:37:51.489740,-136.0
2023-08-15 14:37:51.497430,-155.0
2023-08-15 14:37:51.505120,-158.0
2023-08-15 14:37:51.512809,-165.0
2023-08-15 14:37:51.520499,-172.0
2023-08-15 14:37:51.528188,-165.0
2023-08-15 14:37:51.535878,-155.0
2023-08-15 14:37:51.543567,-153.0
2023-08-15 14:37:51.551257,-143.0
2023-08-15 14:37:51.558947,-134.0
2023-08-15 14:37:51.566636,-131.0
2023-08-15 14:37:51.574326,-131.0
2023-08-15 14:37:51.582015,-124.0
2023-08-15 14:37:51.589705,-112.0
2023-08-15 14:37:51.597395,-105.0
2023-08-15 14:37:51.605084,-103.0
2023-08-15 14:37:51.612774,-100.0
2023-08-15 14:37:51.620463,-100.0
2023-08-15 14:37:51.628153,-98.0
2023-08-15 14:37:51.635842,-93.0
2023-08-15 14:37:51.643532,-93.0
2023-08-15 14:37:51.651222,-95.0
2023-08-15 14:37:51.658911,-98.0
2023-08-15 14:37:51.666601,-98.0
2023-08-15 14:37:51.674290,-98.0
2023-08-15 14:37:51.681980,-93.0
2023-08-15 14:37:51.689670,-86.0
2023-08-15 14:37:51.697359,-86.0
2023-08-15 14:37:51.705049,-88.0
2023-08-15 14:37:51.712738,-91.0
2023-08-15 14:37:51.720428,-88.0
2023-08-15 14:37:51.728117,-81.0
2023-08-15 14:37:51.735807,-79.0
2023-08-15 14:37:51.743497,-76.0
2023-08-15 14:37:51.751186,-79.0
2023-08-15 14:37:51.758876,-79.0
2023-08-15 14:37:51.766565,-74.0
2023-08-15 14:37:51.774255,-69.0
2023-08-15 14:37:51.781944,-64.0
2023-08-15 14:37:51.789634,-64.0
2023-08-15 14:37:51.797324,-71.0
2023-08-15 14:37:51.805013,-76.0
2023-08-15 14:37:51.812703,-71.0
2023-08-15 14:37:51.820392,-71.0
2023-08-15 14:37:51.828082,-71.0
2023-08-15 14:37:51.835772,-57.0
2023-08-15 14:37:51.843461,-38.0
2023-08-15 14:37:51.851151,-23.0
2023-08-15 14:37:51.858840,-11.0
2023-08-15 14:37:51.866530,-4.0
2023-08-15 14:37:51.874219,-14.0
2023-08-15 14:37:51.881909,-33.0
2023-08-15 14:37:51.889599,-45.0
2023-08-15 14:37:51.897288,-52.0
2023-08-15 14:37:51.904978,-55.0
2023-08-15 14:37:51.912667,-55.0
2023-08-15 14:37:51.920357,-52.0
2023-08-15 14:37:51.928047,-50.0
2023-08-15 14:37:51.935736,-55.0
2023-08-15 14:37:51.943426,-57.0
2023-08-15 14:37:51.951115,-50.0
2023-08-15 14:37:51.958805,-45.0
2023-08-15 14:37:51.966494,-4.0
2023-08-15 14:37:51.974184,174.0
2023-08-15 14:37:51.981874,532.0
2023-08-15 14:37:51.989563,946.0
2023-08-15 14:37:51.997253,1140.0
2023-08-15 14:37:52.004942,591.0
2023-08-15 14:37:52.012632,-462.0
2023-08-15 14:37:52.020322,-716.0
2023-08-15 14:37:52.028011,-182.0
2023-08-15 14:37:52.035701,-52.0
2023-08-15 14:37:52.043390,-225.0
2023-08-15 14:37:52.051080,-148.0
2023-08-15 14:37:52.058769,-74.0
2023-08-15 14:37:52.066459,-127.0
2023-08-15 14:37:52.074149,-112.0
2023-08-15 14:37:52.081838,-67.0
2023-08-15 14:37:52.089528,-69.0
2023-08-15 14:37:52.097217,-69.0
2023-08-15 14:37:52.104907,-45.0
2023-08-15 14:37:52.112597,-33.0
2023-08-15 14:37:52.120286,-28.0
2023-08-15 14:37:52.127976,-14.0
2023-08-15 14:37:52.135665,2.0
2023-08-15 14:37:52.143355,16.0
2023-08-15 14:37:52.151044,33.0
2023-08-15 14:37:52.158734,50.0
2023-08-15 14:37:52.166424,67.0
2023-08-15 14:37:52.174113,91.0
2023-08-15 14:37:52.181803,115.0
2023-08-15 14:37:52.189492,136.0
2023-08-15 14:37:52.197182,155.0
2023-08-15 14:37:52.204872,167.0
2023-08-15 14:37:52.212561,172.0
2023-08-15 14:37:52.220251,172.0
2023-08-15 14:37:52.227940,162.0
2023-08-15 14:37:52.235630,146.0
2023-08-15 14:37:52.243319,122.0
2023-08-15 14:37:52.251009,91.0
2023-08-15 14:37:52.258699,55.0
2023-08-15 14:37:52.266388,14.0
2023-08-15 14:37:52.274078,-31.0
2023-08-15 14:37:52.281767,-76.0
2023-08-15 14:37:52.289457,-110.0
2023-08-15 14:37:52.297147,-143.0
2023-08-15 14:37:52.304836,-177.0
2023-08-15 14:37:52.312526,-198.0
2023-08-15 14:37:52.320215,-203.0
2023-08-15 14:37:52.327905,-208.0
2023-08-15 14:37:52.335594,-208.0
2023-08-15 14:37:52.343284,-203.0
2023-08-15 14:37:52.350974,-196.0
2023-08-15 14:37:52.358663,-186.0
2023-08-15 14:37:52.366353,-172.0
2023-08-15 14:37:52.374042,-162.0
2023-08-15 14:37:52.381732,-153.0
2023-08-15 14:37:52.389422,-143.0
2023-08-15 14:37:52.397111,-136.0
2023-08-15 14:37:52.404801,-129.0
2023-08-15 14:37:52.412490,-122.0
2023-08-15 14:37:52.420180,-117.0
2023-08-15 14:37:52.427869,-115.0
2023-08-15 14:37:52.435559,-115.0
2023-08-15 14:37:52.443249,-115.0
2023-08-15 14:37:52.450938,-117.0
2023-08-15 14:37:52.458628,-119.0
2023-08-15 14:37:52.466317,-117.0
2023-08-15 14:37:52.474007,-119.0
2023-08-15 14:37:52.481697,-119.0
2023-08-15 14:37:52.489386,-117.0
2023-08-15 14:37:52.497076,-117.0
2023-08-15 14:37:52.504765,-115.0
2023-08-15 14:37:52.512455,-112.0
2023-08-15 14:37:52.520144,-112.0
2023-08-15 14:37:52.527834,-110.0
2023-08-15 14:37:52.535524,-110.0
2023-08-15 14:37:52.543213,-105.0
2023-08-15 14:37:52.550903,-103.0
2023-08-15 14:37:52.558592,-103.0
2023-08-15 14:37:52.566282,-100.0
2023-08-15 14:37:52.573972,-100.0
2023-08-15 14:37:52.581661,-98.0
2023-08-15 14:37:52.589351,-95.0
2023-08-15 14:37:52.597040,-93.0
2023-08-15 14:37:52.604730,-93.0
2023-08-15 14:37:52.612419,-103.0
2023-08-15 14:37:52.620109,-107.0
2023-08-15 14:37:52.627799,-110.0
2023-08-15 14:37:52.635488,-112.0
2023-08-15 14:37:52.643178,-117.0
2023-08-15 14:37:52.650867,-107.0
2023-08-15 14:37:52.658557,-88.0
2023-08-15 14:37:52.666247,-71.0
2023-08-15 14:37:52.673936,-57.0
2023-08-15 14:37:52.681626,-40.0
2023-08-15 14:37:52.689315,-38.0
2023-08-15 14:37:52.697005,-50.0
2023-08-15 14:37:52.704694,-62.0
2023-08-15 14:37:52.712384,-71.0
2023-08-15 14:37:52.720074,-81.0
2023-08-15 14:37:52.727763,-88.0
2023-08-15 14:37:52.735453,-86.0
2023-08-15 14:37:52.743142,-83.0
2023-08-15 14:37:52.750832,-83.0
2023-08-15 14:37:52.758522,-81.0
2023-08-15 14:37:52.766211,-79.0
2023-08-15 14:37:52.773901,-71.0
2023-08-15 14:37:52.781590,-55.0
2023-08-15 14:37:52.789280,9.0
2023-08-15 14:37:52.796969,186.0
2023-08-15 14:37:52.804659,508.0
2023-08-15 14:37:52.812349,970.0
2023-08-15 14:37:52.820038,1234.0
2023-08-15 14:37:52.827728,589.0
2023-08-15 14:37:52.835417,-452.0
2023-08-15 14:37:52.843107,-522.0
2023-08-15 14:37:52.850797,-76.0
2023-08-15 14:37:52.858486,-139.0
2023-08-15 14:37:52.866176,-275.0
2023-08-15 14:37:52.873865,-160.0
2023-08-15 14:37:52.881555,-139.0
2023-08-15 14:37:52.889244,-186.0
2023-08-15 14:37:52.896934,-148.0
2023-08-15 14:37:52.904624,-115.0
2023-08-15 14:37:52.912313,-124.0
2023-08-15 14:37:52.920003,-110.0
2023-08-15 14:37:52.927692,-88.0
2023-08-15 14:37:52.935382,-83.0
2023-08-15 14:37:52.943072,-76.0
2023-08-15 14:37:52.950761,-62.0
2023-08-15 14:37:52.958451,-47.0
2023-08-15 14:37:52.966140,-33.0
2023-08-15 14:37:52.973830,-16.0
2023-08-15 14:37:52.981519,2.0
2023-08-15 14:37:52.989209,21.0
2023-08-15 14:37:52.996899,38.0
2023-08-15 14:37:53.004588,55.0
2023-08-15 14:37:53.012278,74.0
2023-08-15 14:37:53.019967,91.0
2023-08-15 14:37:53.027657,103.0
2023-08-15 14:37:53.035347,110.0
2023-08-15 14:37:53.043036,110.0
2023-08-15 14:37:53.050726,103.0
2023-08-15 14:37:53.058415,88.0
2023-08-15 14:37:53.066105,71.0
2023-08-15 14:37:53.073794,50.0
2023-08-15 14:37:53.081484,23.0
2023-08-15 14:37:53.089174,-9.0
2023-08-15 14:37:53.096863,-47.0
2023-08-15 14:37:53.104553,-86.0
2023-08-15 14:37:53.112242,-117.0
2023-08-15 14:37:53.119932,-139.0
2023-08-15 14:37:53.127621,-158.0
2023-08-15 14:37:53.135311,-172.0
2023-08-15 14:37:53.143001,-179.0
2023-08-15 14:37:53.150690,-189.0
2023-08-15 14:37:53.158380,-196.0
2023-08-15 14:37:53.166069,-189.0
2023-08-15 14:37:53.173759,-182.0
2023-08-15 14:37:53.181449,-182.0
2023-08-15 14:37:53.189138,-179.0
2023-08-15 14:37:53.196828,-179.0
2023-08-15 14:37:53.204517,-177.0
2023-08-15 14:37:53.212207,-167.0
2023-08-15 14:37:53.219896,-160.0
2023-08-15 14:37:53.227586,-155.0
2023-08-15 14:37:53.235276,-150.0
2023-08-15 14:37:53.242965,-146.0
2023-08-15 14:37:53.250655,-143.0
2023-08-15 14:37:53.258344,-139.0
2023-08-15 14:37:53.266034,-136.0
2023-08-15 14:37:53.273724,-139.0
2023-08-15 14:37:53.281413,-136.0
2023-08-15 14:37:53.289103,-136.0
2023-08-15 14:37:53.296792,-134.0
2023-08-15 14:37:53.304482,-134.0
2023-08-15 14:37:53.312171,-136.0
2023-08-15 14:37:53.319861,-139.0
2023-08-15 14:37:53.327551,-136.0
2023-08-15 14:37:53.335240,-134.0
2023-08-15 14:37:53.342930,-131.0
2023-08-15 14:37:53.350619,-127.0
2023-08-15 14:37:53.358309,-124.0
2023-08-15 14:37:53.365999,-124.0
2023-08-15 14:37:53.373688,-122.0
2023-08-15 14:37:53.381378,-119.0
2023-08-15 14:37:53.389067,-117.0
2023-08-15 14:37:53.396757,-115.0
2023-08-15 14:37:53.404446,-112.0
2023-08-15 14:37:53.412136,-110.0
2023-08-15 14:37:53.419826,-110.0
2023-08-15 14:37:53.427515,-107.0
2023-08-15 14:37:53.435205,-107.0
2023-08-15 14:37:53.442894,-107.0
2023-08-15 14:37:53.450584,-107.0
2023-08-15 14:37:53.458274,-107.0
2023-08-15 14:37:53.465963,-110.0
2023-08-15 14:37:53.473653,-112.0
2023-08-15 14:37:53.481342,-110.0
2023-08-15 14:37:53.489032,-98.0
2023-08-15 14:37:53.496721,-79.0
2023-08-15 14:37:53.504411,-62.0
2023-08-15 14:37:53.512101,-50.0
2023-08-15 14:37:53.519790,-35.0
2023-08-15 14:37:53.527480,-33.0
2023-08-15 14:37:53.535169,-50.0
2023-08-15 14:37:53.542859,-64.0
2023-08-15 14:37:53.550549,-74.0
2023-08-15 14:37:53.558238,-83.0
2023-08-15 14:37:53.565928,-88.0
2023-08-15 14:37:53.573617,-83.0
2023-08-15 14:37:53.581307,-81.0
2023-08-15 14:37:53.588996,-81.0
2023-08-15 14:37:53.596686,-81.0
2023-08-15 14:37:53.604376,-81.0
2023-08-15 14:37:53.612065,-71.0
2023-08-15 14:37:53.619755,-50.0
2023-08-15 14:37:53.627444,38.0
2023-08-15 14:37:53.635134,254.0
2023-08-15 14:37:53.642824,601.0
2023-08-15 14:37:53.650513,997.0
2023-08-15 14:37:53.658203,939.0
2023-08-15 14:37:53.665892,57.0
2023-08-15 14:37:53.673582,-620.0
2023-08-15 14:37:53.681271,-316.0
2023-08-15 14:37:53.688961,-26.0
2023-08-15 14:37:53.696651,-198.0
2023-08-15 14:37:53.704340,-218.0
2023-08-15 14:37:53.712030,-110.0
2023-08-15 14:37:53.719719,-141.0
2023-08-15 14:37:53.727409,-162.0
2023-08-15 14:37:53.735099,-122.0
2023-08-15 14:37:53.742788,-117.0
2023-08-15 14:37:53.750478,-117.0
2023-08-15 14:37:53.758167,-93.0
2023-08-15 14:37:53.765857,-76.0
2023-08-15 14:37:53.773546,-71.0
2023-08-15 14:37:53.781236,-59.0
2023-08-15 14:37:53.788926,-45.0
2023-08-15 14:37:53.796615,-33.0
2023-08-15 14:37:53.804305,-16.0
2023-08-15 14:37:53.811994,0.0
2023-08-15 14:37:53.819684,11.0
2023-08-15 14:37:53.827374,21.0
2023-08-15 14:37:53.835063,40.0
2023-08-15 14:37:53.842753,59.0
2023-08-15 14:37:53.850442,71.0
2023-08-15 14:37:53.858132,83.0
2023-08-15 14:37:53.865821,93.0
2023-08-15 14:37:53.873511,93.0
2023-08-15 14:37:53.881201,86.0
2023-08-15 14:37:53.888890,81.0
2023-08-15 14:37:53.896580,69.0
2023-08-15 14:37:53.904269,52.0
2023-08-15 14:37:53.911959,33.0
2023-08-15 14:37:53.919649,7.0
2023-08-15 14:37:53.927338,-23.0
2023-08-15 14:37:53.935028,-59.0
2023-08-15 14:37:53.942717,-91.0
2023-08-15 14:37:53.950407,-119.0
2023-08-15 14:37:53.958096,-141.0
2023-08-15 14:37:53.965786,-160.0
2023-08-15 14:37:53.973476,-170.0
2023-08-15 14:37:53.981165,-170.0
2023-08-15 14:37:53.988855,-167.0
2023-08-15 14:37:53.996544,-165.0
2023-08-15 14:37:54.004234,-165.0
2023-08-15 14:37:54.011924,-162.0
2023-08-15 14:37:54.019613,-158.0
2023-08-15 14:37:54.027303,-150.0
2023-08-15 14:37:54.034992,-146.0
2023-08-15 14:37:54.042682,-143.0
2023-08-15 14:37:54.050371,-143.0
2023-08-15 14:37:54.058061,-141.0
2023-08-15 14:37:54.065751,-136.0
2023-08-15 14:37:54.073440,-134.0
2023-08-15 14:37:54.081130,-131.0
2023-08-15 14:37:54.088819,-129.0
2023-08-15 14:37:54.096509,-131.0
2023-08-15 14:37:54.104199,-131.0
2023-08-15 14:37:54.111888,-129.0
2023-08-15 14:37:54.119578,-127.0
2023-08-15 14:37:54.127267,-127.0
2023-08-15 14:37:54.134957,-124.0
2023-08-15 14:37:54.142646,-124.0
2023-08-15 14:37:54.150336,-124.0
2023-08-15 14:37:54.158026,-119.0
2023-08-15 14:37:54.165715,-117.0
2023-08-15 14:37:54.173405,-119.0
2023-08-15 14:37:54.181094,-119.0
2023-08-15 14:37:54.188784,-117.0
2023-08-15 14:37:54.196474,-115.0
2023-08-15 14:37:54.204163,-112.0
2023-08-15 14:37:54.211853,-110.0
2023-08-15 14:37:54.219542,-107.0
2023-08-15 14:37:54.227232,-105.0
2023-08-15 14:37:54.234921,-105.0
2023-08-15 14:37:54.242611,-103.0
2023-08-15 14:37:54.250301,-98.0
2023-08-15 14:37:54.257990,-93.0
2023-08-15 14:37:54.265680,-93.0
2023-08-15 14:37:54.273369,-93.0
2023-08-15 14:37:54.281059,-93.0
2023-08-15 14:37:54.288749,-93.0
2023-08-15 14:37:54.296438,-91.0
2023-08-15 14:37:54.304128,-91.0
2023-08-15 14:37:54.311817,-93.0
2023-08-15 14:37:54.319507,-100.0
2023-08-15 14:37:54.327196,-105.0
2023-08-15 14:37:54.334886,-88.0
2023-08-15 14:37:54.342576,-59.0
2023-08-15 14:37:54.350265,-45.0
2023-08-15 14:37:54.357955,-31.0
2023-08-15 14:37:54.365644,-21.0
2023-08-15 14:37:54.373334,-33.0
2023-08-15 14:37:54.381024,-52.0
2023-08-15 14:37:54.388713,-62.0
2023-08-15 14:37:54.396403,-71.0
2023-08-15 14:37:54.404092,-79.0
2023-08-15 14:37:54.411782,-79.0
2023-08-15 14:37:54.419471,-74.0
2023-08-15 14:37:54.427161,-74.0
2023-08-15 14:37:54.434851,-71.0
2023-08-15 14:37:54.442540,-76.0
2023-08-15 14:37:54.450230,-76.0
2023-08-15 14:37:54.457919,-64.0
2023-08-15 14:37:54.465609,-21.0
2023-08-15 14:37:54.473299,124.0
2023-08-15 14:37:54.480988,412.0
2023-08-15 14:37:54.488678,807.0
2023-08-15 14:37:54.496367,1040.0
2023-08-15 14:37:54.504057,517.0
2023-08-15 14:37:54.511746,-409.0
2023-08-15 14:37:54.519436,-532.0
2023-08-15 14:37:54.527126,-91.0
2023-08-15 14:37:54.534815,-76.0
2023-08-15 14:37:54.542505,-225.0
2023-08-15 14:37:54.550194,-143.0
2023-08-15 14:37:54.557884,-105.0
2023-08-15 14:37:54.565573,-148.0
2023-08-15 14:37:54.573263,-119.0
2023-08-15 14:37:54.580953,-83.0
2023-08-15 14:37:54.588642,-95.0
2023-08-15 14:37:54.596332,-88.0
2023-08-15 14:37:54.604021,-59.0
2023-08-15 14:37:54.611711,-50.0
2023-08-15 14:37:54.619401,-40.0
2023-08-15 14:37:54.627090,-21.0
2023-08-15 14:37:54.634780,-7.0
2023-08-15 14:37:54.642469,0.0
2023-08-15 14:37:54.650159,2.0
2023-08-15 14:37:54.657848,21.0
2023-08-15 14:37:54.665538,50.0
2023-08-15 14:37:54.673228,59.0
2023-08-15 14:37:54.680917,74.0
2023-08-15 14:37:54.688607,100.0
2023-08-15 14:37:54.696296,103.0
2023-08-15 14:37:54.703986,110.0
2023-08-15 14:37:54.711676,117.0
2023-08-15 14:37:54.719365,105.0
2023-08-15 14:37:54.727055,103.0
2023-08-15 14:37:54.734744,100.0
2023-08-15 14:37:54.742434,71.0
2023-08-15 14:37:54.750123,47.0
2023-08-15 14:37:54.757813,35.0
2023-08-15 14:37:54.765503,11.0
2023-08-15 14:37:54.773192,-16.0
2023-08-15 14:37:54.780882,-40.0
2023-08-15 14:37:54.788571,-62.0
2023-08-15 14:37:54.796261,-91.0
2023-08-15 14:37:54.803951,-119.0
2023-08-15 14:37:54.811640,-134.0
2023-08-15 14:37:54.819330,-136.0
2023-08-15 14:37:54.827019,-139.0
2023-08-15 14:37:54.834709,-148.0
2023-08-15 14:37:54.842398,-148.0
2023-08-15 14:37:54.850088,-134.0
2023-08-15 14:37:54.857778,-131.0
2023-08-15 14:37:54.865467,-150.0
2023-08-15 14:37:54.873157,-153.0
2023-08-15 14:37:54.880846,-134.0
2023-08-15 14:37:54.888536,-129.0
2023-08-15 14:37:54.896226,-129.0
2023-08-15 14:37:54.903915,-134.0
2023-08-15 14:37:54.911605,-146.0
2023-08-15 14:37:54.919294,-143.0
2023-08-15 14:37:54.926984,-134.0
2023-08-15 14:37:54.934673,-143.0
2023-08-15 14:37:54.942363,-139.0
2023-08-15 14:37:54.950053,-119.0
2023-08-15 14:37:54.957742,-131.0
2023-08-15 14:37:54.965432,-150.0
2023-08-15 14:37:54.973121,-143.0
2023-08-15 14:37:54.980811,-131.0
2023-08-15 14:37:54.988501,-129.0
2023-08-15 14:37:54.996190,-129.0
2023-08-15 14:37:55.003880,-124.0
2023-08-15 14:37:55.011569,-122.0
2023-08-15 14:37:55.019259,-122.0
2023-08-15 14:37:55.026948,-127.0
2023-08-15 14:37:55.034638,-122.0
2023-08-15 14:37:55.042328,-112.0
2023-08-15 14:37:55.050017,-119.0
2023-08-15 14:37:55.057707,-131.0
2023-08-15 14:37:55.065396,-162.0
2023-08-15 14:37:55.073086,-182.0
2023-08-15 14:37:55.080776,-136.0
2023-08-15 14:37:55.088465,-110.0
2023-08-15 14:37:55.096155,-136.0
2023-08-15 14:37:55.103844,-150.0
2023-08-15 14:37:55.111534,-143.0
2023-08-15 14:37:55.119223,-115.0
2023-08-15 14:37:55.126913,-95.0
2023-08-15 14:37:55.134603,-127.0
2023-08-15 14:37:55.142292,-143.0
2023-08-15 14:37:55.149982,-115.0
2023-08-15 14:37:55.157671,-98.0
2023-08-15 14:37:55.165361,-88.0
2023-08-15 14:37:55.173051,-62.0
2023-08-15 14:37:55.180740,-50.0
2023-08-15 14:37:55.188430,-69.0
2023-08-15 14:37:55.196119,-83.0
2023-08-15 14:37:55.203809,-100.0
2023-08-15 14:37:55.211498,-112.0
2023-08-15 14:37:55.219188,-93.0
2023-08-15 14:37:55.226878,-86.0
2023-08-15 14:37:55.234567,-110.0
2023-08-15 14:37:55.242257,-119.0
2023-08-15 14:37:55.249946,-81.0
2023-08-15 14:37:55.257636,-76.0
2023-08-15 14:37:55.265326,-112.0
2023-08-15 14:37:55.273015,-100.0
2023-08-15 14:37:55.280705,-59.0
2023-08-15 14:37:55.288394,0.0
2023-08-15 14:37:55.296084,215.0
2023-08-15 14:37:55.303773,599.0
2023-08-15 14:37:55.311463,920.0
2023-08-15 14:37:55.319153,805.0
2023-08-15 14:37:55.326842,43.0
2023-08-15 14:37:55.334532,-623.0
2023-08-15 14:37:55.342221,-455.0
2023-08-15 14:37:55.349911,-100.0
2023-08-15 14:37:55.357601,-148.0
2023-08-15 14:37:55.365290,-203.0
2023-08-15 14:37:55.372980,-122.0
2023-08-15 14:37:55.380669,-105.0
2023-08-15 14:37:55.388359,-124.0
2023-08-15 14:37:55.396048,-110.0
2023-08-15 14:37:55.403738,-98.0
2023-08-15 14:37:55.411428,-86.0
2023-08-15 14:37:55.419117,-67.0
2023-08-15 14:37:55.426807,-64.0
2023-08-15 14:37:55.434496,-59.0
2023-08-15 14:37:55.442186,-43.0
2023-08-15 14:37:55.449876,-33.0
2023-08-15 14:37:55.457565,-28.0
2023-08-15 14:37:55.465255,-16.0
2023-08-15 14:37:55.472944,-7.0
2023-08-15 14:37:55.480634,4.0
2023-08-15 14:37:55.488323,26.0
2023-08-15 14:37:55.496013,45.0
2023-08-15 14:37:55.503703,64.0
2023-08-15 14:37:55.511392,83.0
2023-08-15 14:37:55.519082,95.0
2023-08-15 14:37:55.526771,98.0
2023-08-15 14:37:55.534461,88.0
2023-08-15 14:37:55.542151,88.0
2023-08-15 14:37:55.549840,95.0
2023-08-15 14:37:55.557530,71.0
2023-08-15 14:37:55.565219,35.0
2023-08-15 14:37:55.572909,33.0
2023-08-15 14:37:55.580598,43.0
2023-08-15 14:37:55.588288,21.0
2023-08-15 14:37:55.595978,-28.0
2023-08-15 14:37:55.603667,-59.0
2023-08-15 14:37:55.611357,-76.0
2023-08-15 14:37:55.619046,-95.0
2023-08-15 14:37:55.626736,-115.0
2023-08-15 14:37:55.634426,-146.0
2023-08-15 14:37:55.642115,-153.0
2023-08-15 14:37:55.649805,-136.0
2023-08-15 14:37:55.657494,-148.0
2023-08-15 14:37:55.665184,-160.0
2023-08-15 14:37:55.672873,-136.0
2023-08-15 14:37:55.680563,-134.0
2023-08-15 14:37:55.688253,-148.0
2023-08-15 14:37:55.695942,-119.0
2023-08-15 14:37:55.703632,-95.0
2023-08-15 14:37:55.711321,-119.0
2023-08-15 14:37:55.719011,-129.0
2023-08-15 14:37:55.726701,-107.0
2023-08-15 14:37:55.734390,-105.0
2023-08-15 14:37:55.742080,-98.0
2023-08-15 14:37:55.749769,-86.0
2023-08-15 14:37:55.757459,-107.0
2023-08-15 14:37:55.765148,-117.0
2023-08-15 14:37:55.772838,-105.0
2023-08-15 14:37:55.780528,-67.0
2023-08-15 14:37:55.788217,16.0
2023-08-15 14:37:55.795907,19.0
2023-08-15 14:37:55.803596,-136.0
2023-08-15 14:37:55.811286,-225.0
2023-08-15 14:37:55.818976,-150.0
2023-08-15 14:37:55.826665,-88.0
2023-08-15 14:37:55.834355,-105.0
2023-08-15 14:37:55.842044,-182.0
2023-08-15 14:37:55.849734,-191.0
2023-08-15 14:37:55.857423,-52.0
2023-08-15 14:37:55.865113,-35.0
2023-08-15 14:37:55.872803,-127.0
2023-08-15 14:37:55.880492,-91.0
2023-08-15 14:37:55.888182,-64.0
2023-08-15 14:37:55.895871,-93.0
2023-08-15 14:37:55.903561,-31.0
2023-08-15 14:37:55.911250,33.0
2023-08-15 14:37:55.918940,-7.0
2023-08-15 14:37:55.926630,-45.0
2023-08-15 14:37:55.934319,-35.0
2023-08-15 14:37:55.942009,-38.0
2023-08-15 14:37:55.949698,-69.0
2023-08-15 14:37:55.957388,-81.0
2023-08-15 14:37:55.965078,-62.0
2023-08-15 14:37:55.972767,-43.0
2023-08-15 14:37:55.980457,-59.0
2023-08-15 14:37:55.988146,-93.0
2023-08-15 14:37:55.995836,-105.0
2023-08-15 14:37:56.003525,-79.0
2023-08-15 14:37:56.011215,-62.0
2023-08-15 14:37:56.018905,-74.0
2023-08-15 14:37:56.026594,-59.0
2023-08-15 14:37:56.034284,-21.0
2023-08-15 14:37:56.041973,83.0
2023-08-15 14:37:56.049663,438.0
2023-08-15 14:37:56.057353,901.0
2023-08-15 14:37:56.065042,975.0
2023-08-15 14:37:56.072732,381.0
2023-08-15 14:37:56.080421,-417.0
2023-08-15 14:37:56.088111,-529.0
2023-08-15 14:37:56.095800,-146.0
2023-08-15 14:37:56.103490,-110.0
2023-08-15 14:37:56.111180,-266.0
2023-08-15 14:37:56.118869,-162.0
2023-08-15 14:37:56.126559,-38.0
2023-08-15 14:37:56.134248,-83.0
2023-08-15 14:37:56.141938,-119.0
2023-08-15 14:37:56.149628,-100.0
2023-08-15 14:37:56.157317,-95.0
2023-08-15 14:37:56.165007,-88.0
2023-08-15 14:37:56.172696,-67.0
2023-08-15 14:37:56.180386,-35.0
2023-08-15 14:37:56.188075,-21.0
2023-08-15 14:37:56.195765,-28.0
2023-08-15 14:37:56.203455,-43.0
2023-08-15 14:37:56.211144,-40.0
2023-08-15 14:37:56.218834,-4.0
2023-08-15 14:37:56.226523,16.0
2023-08-15 14:37:56.234213,14.0
2023-08-15 14:37:56.241903,38.0
2023-08-15 14:37:56.249592,69.0
2023-08-15 14:37:56.257282,86.0
2023-08-15 14:37:56.264971,110.0
2023-08-15 14:37:56.272661,110.0
2023-08-15 14:37:56.280350,83.0
2023-08-15 14:37:56.288040,69.0
2023-08-15 14:37:56.295730,86.0
2023-08-15 14:37:56.303419,81.0
2023-08-15 14:37:56.311109,64.0
2023-08-15 14:37:56.318798,62.0
2023-08-15 14:37:56.326488,33.0
2023-08-15 14:37:56.334178,-2.0
2023-08-15 14:37:56.341867,-19.0
2023-08-15 14:37:56.349557,-57.0
2023-08-15 14:37:56.357246,-81.0
2023-08-15 14:37:56.364936,-86.0
2023-08-15 14:37:56.372625,-122.0
2023-08-15 14:37:56.380315,-167.0
2023-08-15 14:37:56.388005,-170.0
2023-08-15 14:37:56.395694,-139.0
2023-08-15 14:37:56.403384,-122.0
2023-08-15 14:37:56.411073,-134.0
2023-08-15 14:37:56.418763,-155.0
2023-08-15 14:37:56.426453,-143.0
2023-08-15 14:37:56.434142,-127.0
2023-08-15 14:37:56.441832,-127.0
2023-08-15 14:37:56.449521,-115.0
2023-08-15 14:37:56.457211,-115.0
2023-08-15 14:37:56.464900,-124.0
2023-08-15 14:37:56.472590,-119.0
2023-08-15 14:37:56.480280,-95.0
2023-08-15 14:37:56.487969,-74.0
2023-08-15 14:37:56.495659,-103.0
2023-08-15 14:37:56.503348,-143.0
2023-08-15 14:37:56.511038,-129.0
2023-08-15 14:37:56.518728,-110.0
2023-08-15 14:37:56.526417,-103.0
2023-08-15 14:37:56.534107,-98.0
2023-08-15 14:37:56.541796,-107.0
2023-08-15 14:37:56.549486,-110.0
2023-08-15 14:37:56.557175,-98.0
2023-08-15 14:37:56.564865,-115.0
2023-08-15 14:37:56.572555,-158.0
2023-08-15 14:37:56.580244,-153.0
2023-08-15 14:37:56.587934,-117.0
2023-08-15 14:37:56.595623,-117.0
2023-08-15 14:37:56.603313,-136.0
2023-08-15 14:37:56.611003,-124.0
2023-08-15 14:37:56.618692,-105.0
2023-08-15 14:37:56.626382,-110.0
2023-08-15 14:37:56.634071,-105.0
2023-08-15 14:37:56.641761,-95.0
2023-08-15 14:37:56.649450,-115.0
2023-08-15 14:37:56.657140,-129.0
2023-08-15 14:37:56.664830,-91.0
2023-08-15 14:37:56.672519,-59.0
2023-08-15 14:37:56.680209,-69.0
2023-08-15 14:37:56.687898,-76.0
2023-08-15 14:37:56.695588,-88.0
2023-08-15 14:37:56.703278,-110.0
2023-08-15 14:37:56.710967,-98.0
2023-08-15 14:37:56.718657,-62.0
2023-08-15 14:37:56.726346,-57.0
2023-08-15 14:37:56.734036,-110.0
2023-08-15 14:37:56.741725,-131.0
2023-08-15 14:37:56.749415,-86.0
2023-08-15 14:37:56.757105,-79.0
2023-08-15 14:37:56.764794,-136.0
2023-08-15 14:37:56.772484,-160.0
2023-08-15 14:37:56.780173,-117.0
2023-08-15 14:37:56.787863,-59.0
2023-08-15 14:37:56.795553,2.0
2023-08-15 14:37:56.803242,177.0
2023-08-15 14:37:56.810932,589.0
2023-08-15 14:37:56.818621,934.0
2023-08-15 14:37:56.826311,632.0
2023-08-15 14:37:56.834000,-170.0
2023-08-15 14:37:56.841690,-520.0
2023-08-15 14:37:56.849380,-242.0
2023-08-15 14:37:56.857069,-105.0
2023-08-15 14:37:56.864759,-172.0
2023-08-15 14:37:56.872448,-119.0
2023-08-15 14:37:56.880138,-103.0
2023-08-15 14:37:56.887828,-174.0
2023-08-15 14:37:56.895517,-174.0
2023-08-15 14:37:56.903207,-91.0
2023-08-15 14:37:56.910896,-62.0
2023-08-15 14:37:56.918586,-100.0
2023-08-15 14:37:56.926275,-76.0
2023-08-15 14:37:56.933965,-26.0
2023-08-15 14:37:56.941655,-52.0
2023-08-15 14:37:56.949344,-86.0
2023-08-15 14:37:56.957034,-33.0
2023-08-15 14:37:56.964723,16.0
2023-08-15 14:37:56.972413,-31.0
2023-08-15 14:37:56.980103,-28.0
2023-08-15 14:37:56.987792,43.0
2023-08-15 14:37:56.995482,40.0
2023-08-15 14:37:57.003171,28.0
2023-08-15 14:37:57.010861,62.0
2023-08-15 14:37:57.018550,76.0
2023-08-15 14:37:57.026240,67.0
2023-08-15 14:37:57.033930,79.0
2023-08-15 14:37:57.041619,95.0
2023-08-15 14:37:57.049309,91.0
2023-08-15 14:37:57.056998,74.0
2023-08-15 14:37:57.064688,45.0
2023-08-15 14:37:57.072378,23.0
2023-08-15 14:37:57.080067,31.0
2023-08-15 14:37:57.087757,43.0
2023-08-15 14:37:57.095446,19.0
2023-08-15 14:37:57.103136,-45.0
2023-08-15 14:37:57.110825,-93.0
2023-08-15 14:37:57.118515,-115.0
2023-08-15 14:37:57.126205,-131.0
2023-08-15 14:37:57.133894,-143.0
2023-08-15 14:37:57.141584,-158.0
2023-08-15 14:37:57.149273,-155.0
2023-08-15 14:37:57.156963,-150.0
2023-08-15 14:37:57.164653,-172.0
2023-08-15 14:37:57.172342,-160.0
2023-08-15 14:37:57.180032,-112.0
2023-08-15 14:37:57.187721,-107.0
2023-08-15 14:37:57.195411,-153.0
2023-08-15 14:37:57.203100,-186.0
2023-08-15 14:37:57.210790,-124.0
2023-08-15 14:37:57.218480,-76.0
2023-08-15 14:37:57.226169,-136.0
2023-08-15 14:37:57.233859,-127.0
2023-08-15 14:37:57.241548,-47.0
2023-08-15 14:37:57.249238,-93.0
2023-08-15 14:37:57.256927,-167.0
2023-08-15 14:37:57.264617,-127.0
2023-08-15 14:37:57.272307,-100.0
2023-08-15 14:37:57.279996,-115.0
2023-08-15 14:37:57.287686,-93.0
2023-08-15 14:37:57.295375,-107.0
2023-08-15 14:37:57.303065,-153.0
2023-08-15 14:37:57.310755,-131.0
2023-08-15 14:37:57.318444,-100.0
2023-08-15 14:37:57.326134,-93.0
2023-08-15 14:37:57.333823,-83.0
2023-08-15 14:37:57.341513,-117.0
2023-08-15 14:37:57.349202,-139.0
2023-08-15 14:37:57.356892,-76.0
2023-08-15 14:37:57.364582,-62.0
2023-08-15 14:37:57.372271,-139.0
2023-08-15 14:37:57.379961,-189.0
2023-08-15 14:37:57.387650,-162.0
2023-08-15 14:37:57.395340,-81.0
2023-08-15 14:37:57.403030,-40.0
2023-08-15 14:37:57.410719,-57.0
2023-08-15 14:37:57.418409,-55.0
2023-08-15 14:37:57.426098,-62.0
2023-08-15 14:37:57.433788,-105.0
2023-08-15 14:37:57.441477,-127.0
2023-08-15 14:37:57.449167,-103.0
2023-08-15 14:37:57.456857,-76.0
2023-08-15 14:37:57.464546,-91.0
2023-08-15 14:37:57.472236,-136.0
2023-08-15 14:37:57.479925,-124.0
2023-08-15 14:37:57.487615,-74.0
2023-08-15 14:37:57.495305,-93.0
2023-08-15 14:37:57.502994,-139.0
2023-08-15 14:37:57.510684,-129.0
2023-08-15 14:37:57.518373,-95.0
2023-08-15 14:37:57.526063,-62.0
2023-08-15 14:37:57.533752,62.0
2023-08-15 14:37:57.541442,325.0
2023-08-15 14:37:57.549132,663.0
2023-08-15 14:37:57.556821,826.0
2023-08-15 14:37:57.564511,405.0
2023-08-15 14:37:57.572200,-311.0
2023-08-15 14:37:57.579890,-460.0
2023-08-15 14:37:57.587580,-148.0
2023-08-15 14:37:57.595269,-86.0
2023-08-15 14:37:57.602959,-208.0
2023-08-15 14:37:57.610648,-186.0
2023-08-15 14:37:57.618338,-122.0
2023-08-15 14:37:57.626027,-153.0
2023-08-15 14:37:57.633717,-167.0
2023-08-15 14:37:57.641407,-107.0
2023-08-15 14:37:57.649096,-86.0
2023-08-15 14:37:57.656786,-117.0
2023-08-15 14:37:57.664475,-115.0
2023-08-15 14:37:57.672165,-71.0
2023-08-15 14:37:57.679855,-33.0
2023-08-15 14:37:57.687544,-21.0
2023-08-15 14:37:57.695234,-67.0
2023-08-15 14:37:57.702923,-88.0
2023-08-15 14:37:57.710613,-40.0
2023-08-15 14:37:57.718302,2.0
2023-08-15 14:37:57.725992,16.0
2023-08-15 14:37:57.733682,23.0
2023-08-15 14:37:57.741371,23.0
2023-08-15 14:37:57.749061,21.0
2023-08-15 14:37:57.756750,45.0
2023-08-15 14:37:57.764440,74.0
2023-08-15 14:37:57.772130,55.0
2023-08-15 14:37:57.779819,40.0
2023-08-15 14:37:57.787509,71.0
2023-08-15 14:37:57.795198,95.0
2023-08-15 14:37:57.802888,67.0
2023-08-15 14:37:57.810577,23.0
2023-08-15 14:37:57.818267,23.0
2023-08-15 14:37:57.825957,9.0
2023-08-15 14:37:57.833646,-38.0
2023-08-15 14:37:57.841336,-38.0
2023-08-15 14:37:57.849025,-55.0
2023-08-15 14:37:57.856715,-112.0
2023-08-15 14:37:57.864405,-139.0
2023-08-15 14:37:57.872094,-158.0
2023-08-15 14:37:57.879784,-143.0
2023-08-15 14:37:57.887473,-107.0
2023-08-15 14:37:57.895163,-141.0
2023-08-15 14:37:57.902852,-162.0
2023-08-15 14:37:57.910542,-119.0
2023-08-15 14:37:57.918232,-95.0
2023-08-15 14:37:57.925921,-115.0
2023-08-15 14:37:57.933611,-136.0
2023-08-15 14:37:57.941300,-117.0
2023-08-15 14:37:57.948990,-105.0
2023-08-15 14:37:57.956680,-134.0
2023-08-15 14:37:57.964369,-110.0
2023-08-15 14:37:57.972059,-40.0
2023-08-15 14:37:57.979748,-57.0
2023-08-15 14:37:57.987438,-117.0
2023-08-15 14:37:57.995127,-119.0
2023-08-15 14:37:58.002817,-107.0
2023-08-15 14:37:58.010507,-100.0
2023-08-15 14:37:58.018196,-91.0
2023-08-15 14:37:58.025886,-103.0
2023-08-15 14:37:58.033575,-112.0
2023-08-15 14:37:58.041265,-86.0
2023-08-15 14:37:58.048955,-91.0
2023-08-15 14:37:58.056644,-122.0
2023-08-15 14:37:58.064334,-100.0
2023-08-15 14:37:58.072023,-74.0
2023-08-15 14:37:58.079713,-79.0
2023-08-15 14:37:58.087402,-86.0
2023-08-15 14:37:58.095092,-115.0
2023-08-15 14:37:58.102782,-143.0
2023-08-15 14:37:58.110471,-110.0
2023-08-15 14:37:58.118161,-55.0
2023-08-15 14:37:58.125850,-47.0
2023-08-15 14:37:58.133540,-57.0
2023-08-15 14:37:58.141230,-52.0
2023-08-15 14:37:58.148919,-45.0
2023-08-15 14:37:58.156609,-52.0
2023-08-15 14:37:58.164298,-91.0
2023-08-15 14:37:58.171988,-103.0
2023-08-15 14:37:58.179677,-74.0
2023-08-15 14:37:58.187367,-88.0
2023-08-15 14:37:58.195057,-100.0
2023-08-15 14:37:58.202746,-83.0
2023-08-15 14:37:58.210436,-93.0
2023-08-15 14:37:58.218125,-86.0
2023-08-15 14:37:58.225815,-71.0
2023-08-15 14:37:58.233505,-103.0
2023-08-15 14:37:58.241194,-124.0
2023-08-15 14:37:58.248884,-88.0
2023-08-15 14:37:58.256573,26.0
2023-08-15 14:37:58.264263,244.0
2023-08-15 14:37:58.271952,558.0
2023-08-15 14:37:58.279642,841.0
2023-08-15 14:37:58.287332,623.0
2023-08-15 14:37:58.295021,-162.0
2023-08-15 14:37:58.302711,-577.0
2023-08-15 14:37:58.310400,-292.0
2023-08-15 14:37:58.318090,-93.0
2023-08-15 14:37:58.325780,-191.0
2023-08-15 14:37:58.333469,-186.0
2023-08-15 14:37:58.341159,-127.0
2023-08-15 14:37:58.348848,-134.0
2023-08-15 14:37:58.356538,-117.0
2023-08-15 14:37:58.364227,-105.0
2023-08-15 14:37:58.371917,-129.0
2023-08-15 14:37:58.379607,-124.0
2023-08-15 14:37:58.387296,-86.0
2023-08-15 14:37:58.394986,-79.0
2023-08-15 14:37:58.402675,-100.0
2023-08-15 14:37:58.410365,-81.0
2023-08-15 14:37:58.418055,-33.0
2023-08-15 14:37:58.425744,-19.0
2023-08-15 14:37:58.433434,-31.0
2023-08-15 14:37:58.441123,-21.0
2023-08-15 14:37:58.448813,2.0
2023-08-15 14:37:58.456502,16.0
2023-08-15 14:37:58.464192,26.0
2023-08-15 14:37:58.471882,33.0
2023-08-15 14:37:58.479571,59.0
2023-08-15 14:37:58.487261,100.0
2023-08-15 14:37:58.494950,74.0
2023-08-15 14:37:58.502640,16.0
2023-08-15 14:37:58.510330,59.0
2023-08-15 14:37:58.518019,127.0
2023-08-15 14:37:58.525709,79.0
2023-08-15 14:37:58.533398,11.0
2023-08-15 14:37:58.541088,11.0
2023-08-15 14:37:58.548777,28.0
2023-08-15 14:37:58.556467,4.0
2023-08-15 14:37:58.564157,-40.0
2023-08-15 14:37:58.571846,-45.0
2023-08-15 14:37:58.579536,-38.0
2023-08-15 14:37:58.587225,-112.0
2023-08-15 14:37:58.594915,-162.0
2023-08-15 14:37:58.602605,-136.0
2023-08-15 14:37:58.610294,-148.0
2023-08-15 14:37:58.617984,-150.0
2023-08-15 14:37:58.625673,-110.0
2023-08-15 14:37:58.633363,-112.0
2023-08-15 14:37:58.641052,-150.0
2023-08-15 14:37:58.648742,-143.0
2023-08-15 14:37:58.656432,-105.0
2023-08-15 14:37:58.664121,-103.0
2023-08-15 14:37:58.671811,-124.0
2023-08-15 14:37:58.679500,-100.0
2023-08-15 14:37:58.687190,-93.0
2023-08-15 14:37:58.694879,-110.0
2023-08-15 14:37:58.702569,-88.0
2023-08-15 14:37:58.710259,-117.0
2023-08-15 14:37:58.717948,-129.0
2023-08-15 14:37:58.725638,-52.0
2023-08-15 14:37:58.733327,-40.0
2023-08-15 14:37:58.741017,-115.0
2023-08-15 14:37:58.748707,-143.0
2023-08-15 14:37:58.756396,-107.0
2023-08-15 14:37:58.764086,-93.0
2023-08-15 14:37:58.771775,-117.0
2023-08-15 14:37:58.779465,-131.0
2023-08-15 14:37:58.787154,-110.0
2023-08-15 14:37:58.794844,-93.0
2023-08-15 14:37:58.802534,-105.0
2023-08-15 14:37:58.810223,-105.0
2023-08-15 14:37:58.817913,-88.0
2023-08-15 14:37:58.825602,-105.0
2023-08-15 14:37:58.833292,-127.0
2023-08-15 14:37:58.840982,-91.0
2023-08-15 14:37:58.848671,-47.0
2023-08-15 14:37:58.856361,-64.0
2023-08-15 14:37:58.864050,-95.0
2023-08-15 14:37:58.871740,-76.0
2023-08-15 14:37:58.879429,-50.0
2023-08-15 14:37:58.887119,-76.0
2023-08-15 14:37:58.894809,-117.0
2023-08-15 14:37:58.902498,-119.0
2023-08-15 14:37:58.910188,-129.0
2023-08-15 14:37:58.917877,-143.0
2023-08-15 14:37:58.925567,-110.0
2023-08-15 14:37:58.933257,-91.0
2023-08-15 14:37:58.940946,-103.0
2023-08-15 14:37:58.948636,-93.0
2023-08-15 14:37:58.956325,-107.0
2023-08-15 14:37:58.964015,-122.0
2023-08-15 14:37:58.971704,-55.0
2023-08-15 14:37:58.979394,93.0
2023-08-15 14:37:58.987084,325.0
2023-08-15 14:37:58.994773,668.0
2023-08-15 14:37:59.002463,905.0
2023-08-15 14:37:59.010152,536.0
2023-08-15 14:37:59.017842,-299.0
2023-08-15 14:37:59.025532,-575.0
2023-08-15 14:37:59.033221,-201.0
2023-08-15 14:37:59.040911,-81.0
2023-08-15 14:37:59.048600,-239.0
2023-08-15 14:37:59.056290,-210.0
2023-08-15 14:37:59.063979,-119.0
2023-08-15 14:37:59.071669,-143.0
2023-08-15 14:37:59.079359,-150.0
2023-08-15 14:37:59.087048,-110.0
2023-08-15 14:37:59.094738,-110.0
2023-08-15 14:37:59.102427,-115.0
2023-08-15 14:37:59.110117,-91.0
2023-08-15 14:37:59.117807,-69.0
2023-08-15 14:37:59.125496,-59.0
2023-08-15 14:37:59.133186,-62.0
2023-08-15 14:37:59.140875,-71.0
2023-08-15 14:37:59.148565,-57.0
2023-08-15 14:37:59.156254,-21.0
2023-08-15 14:37:59.163944,-4.0
2023-08-15 14:37:59.171634,-14.0
2023-08-15 14:37:59.179323,2.0
2023-08-15 14:37:59.187013,33.0
2023-08-15 14:37:59.194702,62.0
2023-08-15 14:37:59.202392,71.0
2023-08-15 14:37:59.210082,64.0
2023-08-15 14:37:59.217771,76.0
2023-08-15 14:37:59.225461,81.0
2023-08-15 14:37:59.233150,71.0
2023-08-15 14:37:59.240840,52.0
2023-08-15 14:37:59.248529,28.0
2023-08-15 14:37:59.256219,35.0
2023-08-15 14:37:59.263909,43.0
2023-08-15 14:37:59.271598,4.0
2023-08-15 14:37:59.279288,-35.0
2023-08-15 14:37:59.286977,-55.0
2023-08-15 14:37:59.294667,-79.0
2023-08-15 14:37:59.302357,-100.0
2023-08-15 14:37:59.310046,-127.0
2023-08-15 14:37:59.317736,-158.0
2023-08-15 14:37:59.325425,-160.0
2023-08-15 14:37:59.333115,-167.0
2023-08-15 14:37:59.340804,-179.0
2023-08-15 14:37:59.348494,-167.0
2023-08-15 14:37:59.356184,-146.0
2023-08-15 14:37:59.363873,-139.0
2023-08-15 14:37:59.371563,-148.0
2023-08-15 14:37:59.379252,-153.0
2023-08-15 14:37:59.386942,-141.0
2023-08-15 14:37:59.394632,-122.0
2023-08-15 14:37:59.402321,-117.0
2023-08-15 14:37:59.410011,-119.0
2023-08-15 14:37:59.417700,-110.0
2023-08-15 14:37:59.425390,-95.0
2023-08-15 14:37:59.433079,-105.0
2023-08-15 14:37:59.440769,-117.0
2023-08-15 14:37:59.448459,-103.0
2023-08-15 14:37:59.456148,-93.0
2023-08-15 14:37:59.463838,-107.0
2023-08-15 14:37:59.471527,-122.0
2023-08-15 14:37:59.479217,-110.0
2023-08-15 14:37:59.486907,-100.0
2023-08-15 14:37:59.494596,-105.0
2023-08-15 14:37:59.502286,-100.0
2023-08-15 14:37:59.509975,-103.0
2023-08-15 14:37:59.517665,-103.0
2023-08-15 14:37:59.525354,-83.0
2023-08-15 14:37:59.533044,-81.0
2023-08-15 14:37:59.540734,-105.0
2023-08-15 14:37:59.548423,-103.0
2023-08-15 14:37:59.556113,-88.0
2023-08-15 14:37:59.563802,-98.0
2023-08-15 14:37:59.571492,-95.0
2023-08-15 14:37:59.579182,-67.0
2023-08-15 14:37:59.586871,-50.0
2023-08-15 14:37:59.594561,-45.0
2023-08-15 14:37:59.602250,-33.0
2023-08-15 14:37:59.609940,-31.0
2023-08-15 14:37:59.617629,-47.0
2023-08-15 14:37:59.625319,-59.0
2023-08-15 14:37:59.633009,-67.0
2023-08-15 14:37:59.640698,-83.0
2023-08-15 14:37:59.648388,-91.0
2023-08-15 14:37:59.656077,-79.0
2023-08-15 14:37:59.663767,-76.0
2023-08-15 14:37:59.671457,-88.0
2023-08-15 14:37:59.679146,-86.0
2023-08-15 14:37:59.686836,-76.0
2023-08-15 14:37:59.694525,-76.0
2023-08-15 14:37:59.702215,-79.0
2023-08-15 14:37:59.709904,-31.0
2023-08-15 14:37:59.717594,119.0
2023-08-15 14:37:59.725284,369.0
2023-08-15 14:37:59.732973,728.0
2023-08-15 14:37:59.740663,1018.0
2023-08-15 14:37:59.748352,620.0
2023-08-15 14:37:59.756042,-299.0
2023-08-15 14:37:59.763732,-534.0
2023-08-15 14:37:59.771421,-131.0
2023-08-15 14:37:59.779111,-93.0
2023-08-15 14:37:59.786800,-242.0
2023-08-15 14:37:59.794490,-160.0
2023-08-15 14:37:59.802179,-117.0
2023-08-15 14:37:59.809869,-172.0
2023-08-15 14:37:59.817559,-153.0
2023-08-15 14:37:59.825248,-117.0
2023-08-15 14:37:59.832938,-119.0
2023-08-15 14:37:59.840627,-115.0
2023-08-15 14:37:59.848317,-100.0
2023-08-15 14:37:59.856007,-86.0
2023-08-15 14:37:59.863696,-76.0
2023-08-15 14:37:59.871386,-74.0
2023-08-15 14:37:59.879075,-67.0
2023-08-15 14:37:59.886765,-43.0
2023-08-15 14:37:59.894454,-21.0
2023-08-15 14:37:59.902144,-7.0
2023-08-15 14:37:59.909834,9.0
2023-08-15 14:37:59.917523,11.0
2023-08-15 14:37:59.925213,14.0
2023-08-15 14:37:59.932902,50.0
2023-08-15 14:37:59.940592,71.0
2023-08-15 14:37:59.948282,64.0
2023-08-15 14:37:59.955971,74.0
2023-08-15 14:37:59.963661,86.0
2023-08-15 14:37:59.971350,81.0
2023-08-15 14:37:59.979040,74.0
2023-08-15 14:37:59.986729,64.0
2023-08-15 14:37:59.994419,47.0
2023-08-15 14:38:00.002109,31.0
2023-08-15 14:38:00.009798,2.0
2023-08-15 14:38:00.017488,-43.0
2023-08-15 14:38:00.025177,-79.0
2023-08-15 14:38:00.032867,-103.0
2023-08-15 14:38:00.040556,-129.0
2023-08-15 14:38:00.048246,-148.0
2023-08-15 14:38:00.055936,-150.0
2023-08-15 14:38:00.063625,-158.0
2023-08-15 14:38:00.071315,-177.0
2023-08-15 14:38:00.079004,-170.0
2023-08-15 14:38:00.086694,-155.0
2023-08-15 14:38:00.094384,-160.0
2023-08-15 14:38:00.102073,-155.0
2023-08-15 14:38:00.109763,-136.0
2023-08-15 14:38:00.117452,-134.0
2023-08-15 14:38:00.125142,-139.0
2023-08-15 14:38:00.132831,-129.0
2023-08-15 14:38:00.140521,-122.0
2023-08-15 14:38:00.148211,-122.0
2023-08-15 14:38:00.155900,-112.0
2023-08-15 14:38:00.163590,-105.0
2023-08-15 14:38:00.171279,-112.0
2023-08-15 14:38:00.178969,-112.0
2023-08-15 14:38:00.186659,-112.0
2023-08-15 14:38:00.194348,-115.0
2023-08-15 14:38:00.202038,-107.0
2023-08-15 14:38:00.209727,-107.0
2023-08-15 14:38:00.217417,-112.0
2023-08-15 14:38:00.225106,-110.0
2023-08-15 14:38:00.232796,-105.0
2023-08-15 14:38:00.240486,-107.0
2023-08-15 14:38:00.248175,-105.0
2023-08-15 14:38:00.255865,-98.0
2023-08-15 14:38:00.263554,-98.0
2023-08-15 14:38:00.271244,-110.0
2023-08-15 14:38:00.278934,-107.0
2023-08-15 14:38:00.286623,-88.0
2023-08-15 14:38:00.294313,-76.0
2023-08-15 14:38:00.302002,-91.0
2023-08-15 14:38:00.309692,-110.0
2023-08-15 14:38:00.317381,-110.0
2023-08-15 14:38:00.325071,-95.0
2023-08-15 14:38:00.332761,-91.0
2023-08-15 14:38:00.340450,-93.0
2023-08-15 14:38:00.348140,-71.0
2023-08-15 14:38:00.355829,-40.0
2023-08-15 14:38:00.363519,-38.0
2023-08-15 14:38:00.371209,-50.0
2023-08-15 14:38:00.378898,-69.0
2023-08-15 14:38:00.386588,-88.0
2023-08-15 14:38:00.394277,-83.0
2023-08-15 14:38:00.401967,-83.0
2023-08-15 14:38:00.409656,-98.0
2023-08-15 14:38:00.417346,-100.0
2023-08-15 14:38:00.425036,-98.0
2023-08-15 14:38:00.432725,-93.0
2023-08-15 14:38:00.440415,-88.0
2023-08-15 14:38:00.448104,-95.0
2023-08-15 14:38:00.455794,-103.0
2023-08-15 14:38:00.463484,-86.0
2023-08-15 14:38:00.471173,-69.0
2023-08-15 14:38:00.478863,-52.0
2023-08-15 14:38:00.486552,38.0
2023-08-15 14:38:00.494242,263.0
2023-08-15 14:38:00.501931,596.0
2023-08-15 14:38:00.509621,929.0
2023-08-15 14:38:00.517311,805.0
2023-08-15 14:38:00.525000,-55.0
2023-08-15 14:38:00.532690,-654.0
2023-08-15 14:38:00.540379,-333.0
2023-08-15 14:38:00.548069,-45.0
2023-08-15 14:38:00.555759,-206.0
2023-08-15 14:38:00.563448,-234.0
2023-08-15 14:38:00.571138,-134.0
2023-08-15 14:38:00.578827,-150.0
2023-08-15 14:38:00.586517,-165.0
2023-08-15 14:38:00.594206,-124.0
2023-08-15 14:38:00.601896,-115.0
2023-08-15 14:38:00.609586,-119.0
2023-08-15 14:38:00.617275,-103.0
2023-08-15 14:38:00.624965,-91.0
2023-08-15 14:38:00.632654,-76.0
2023-08-15 14:38:00.640344,-57.0
2023-08-15 14:38:00.648034,-45.0
2023-08-15 14:38:00.655723,-35.0
2023-08-15 14:38:00.663413,-21.0
2023-08-15 14:38:00.671102,4.0
2023-08-15 14:38:00.678792,21.0
2023-08-15 14:38:00.686481,23.0
2023-08-15 14:38:00.694171,38.0
2023-08-15 14:38:00.701861,57.0
2023-08-15 14:38:00.709550,76.0
2023-08-15 14:38:00.717240,91.0
2023-08-15 14:38:00.724929,91.0
2023-08-15 14:38:00.732619,88.0
2023-08-15 14:38:00.740309,86.0
2023-08-15 14:38:00.747998,71.0
2023-08-15 14:38:00.755688,64.0
2023-08-15 14:38:00.763377,59.0
2023-08-15 14:38:00.771067,43.0
2023-08-15 14:38:00.778756,19.0
2023-08-15 14:38:00.786446,-4.0
2023-08-15 14:38:00.794136,-31.0
2023-08-15 14:38:00.801825,-69.0
2023-08-15 14:38:00.809515,-112.0
2023-08-15 14:38:00.817204,-134.0
2023-08-15 14:38:00.824894,-146.0
2023-08-15 14:38:00.832584,-158.0
2023-08-15 14:38:00.840273,-160.0
2023-08-15 14:38:00.847963,-160.0
2023-08-15 14:38:00.855652,-160.0
2023-08-15 14:38:00.863342,-155.0
2023-08-15 14:38:00.871031,-146.0
2023-08-15 14:38:00.878721,-136.0
2023-08-15 14:38:00.886411,-141.0
2023-08-15 14:38:00.894100,-150.0
2023-08-15 14:38:00.901790,-141.0
2023-08-15 14:38:00.909479,-129.0
2023-08-15 14:38:00.917169,-127.0
2023-08-15 14:38:00.924859,-124.0
2023-08-15 14:38:00.932548,-119.0
2023-08-15 14:38:00.940238,-122.0
2023-08-15 14:38:00.947927,-122.0
2023-08-15 14:38:00.955617,-117.0
2023-08-15 14:38:00.963306,-112.0
2023-08-15 14:38:00.970996,-119.0
2023-08-15 14:38:00.978686,-127.0
2023-08-15 14:38:00.986375,-119.0
2023-08-15 14:38:00.994065,-115.0
2023-08-15 14:38:01.001754,-115.0
2023-08-15 14:38:01.009444,-107.0
2023-08-15 14:38:01.017134,-110.0
2023-08-15 14:38:01.024823,-122.0
2023-08-15 14:38:01.032513,-119.0
2023-08-15 14:38:01.040202,-107.0
2023-08-15 14:38:01.047892,-110.0
2023-08-15 14:38:01.055581,-124.0
2023-08-15 14:38:01.063271,-127.0
2023-08-15 14:38:01.070961,-115.0
2023-08-15 14:38:01.078650,-112.0
2023-08-15 14:38:01.086340,-124.0
2023-08-15 14:38:01.094029,-119.0
2023-08-15 14:38:01.101719,-86.0
2023-08-15 14:38:01.109409,-62.0
2023-08-15 14:38:01.117098,-59.0
2023-08-15 14:38:01.124788,-52.0
2023-08-15 14:38:01.132477,-43.0
2023-08-15 14:38:01.140167,-52.0
2023-08-15 14:38:01.147856,-67.0
2023-08-15 14:38:01.155546,-79.0
2023-08-15 14:38:01.163236,-91.0
2023-08-15 14:38:01.170925,-105.0
2023-08-15 14:38:01.178615,-105.0
2023-08-15 14:38:01.186304,-95.0
2023-08-15 14:38:01.193994,-93.0
2023-08-15 14:38:01.201684,-98.0
2023-08-15 14:38:01.209373,-91.0
2023-08-15 14:38:01.217063,-86.0
2023-08-15 14:38:01.224752,-86.0
2023-08-15 14:38:01.232442,-74.0
2023-08-15 14:38:01.240131,4.0
2023-08-15 14:38:01.247821,251.0
2023-08-15 14:38:01.255511,649.0
2023-08-15 14:38:01.263200,1064.0
2023-08-15 14:38:01.270890,1018.0
2023-08-15 14:38:01.278579,105.0
2023-08-15 14:38:01.286269,-680.0
2023-08-15 14:38:01.293959,-414.0
2023-08-15 14:38:01.301648,-55.0
2023-08-15 14:38:01.309338,-198.0
2023-08-15 14:38:01.317027,-244.0
2023-08-15 14:38:01.324717,-129.0
2023-08-15 14:38:01.332406,-150.0
2023-08-15 14:38:01.340096,-177.0
2023-08-15 14:38:01.347786,-134.0
2023-08-15 14:38:01.355475,-115.0
2023-08-15 14:38:01.363165,-112.0
2023-08-15 14:38:01.370854,-93.0
2023-08-15 14:38:01.378544,-91.0
2023-08-15 14:38:01.386233,-95.0
2023-08-15 14:38:01.393923,-81.0
2023-08-15 14:38:01.401613,-59.0
2023-08-15 14:38:01.409302,-45.0
2023-08-15 14:38:01.416992,-26.0
2023-08-15 14:38:01.424681,-7.0
2023-08-15 14:38:01.432371,7.0
2023-08-15 14:38:01.440061,23.0
2023-08-15 14:38:01.447750,47.0
2023-08-15 14:38:01.455440,67.0
2023-08-15 14:38:01.463129,76.0
2023-08-15 14:38:01.470819,88.0
2023-08-15 14:38:01.478508,100.0
2023-08-15 14:38:01.486198,100.0
2023-08-15 14:38:01.493888,83.0
2023-08-15 14:38:01.501577,67.0
2023-08-15 14:38:01.509267,62.0
2023-08-15 14:38:01.516956,52.0
2023-08-15 14:38:01.524646,26.0
2023-08-15 14:38:01.532336,-4.0
2023-08-15 14:38:01.540025,-31.0
2023-08-15 14:38:01.547715,-59.0
2023-08-15 14:38:01.555404,-88.0
2023-08-15 14:38:01.563094,-119.0
2023-08-15 14:38:01.570783,-155.0
2023-08-15 14:38:01.578473,-170.0
2023-08-15 14:38:01.586163,-162.0
2023-08-15 14:38:01.593852,-177.0
2023-08-15 14:38:01.601542,-186.0
2023-08-15 14:38:01.609231,-177.0
2023-08-15 14:38:01.616921,-170.0
2023-08-15 14:38:01.624611,-167.0
2023-08-15 14:38:01.632300,-155.0
2023-08-15 14:38:01.639990,-150.0
2023-08-15 14:38:01.647679,-143.0
2023-08-15 14:38:01.655369,-134.0
2023-08-15 14:38:01.663058,-131.0
2023-08-15 14:38:01.670748,-134.0
2023-08-15 14:38:01.678438,-129.0
2023-08-15 14:38:01.686127,-119.0
2023-08-15 14:38:01.693817,-117.0
2023-08-15 14:38:01.701506,-119.0
2023-08-15 14:38:01.709196,-117.0
2023-08-15 14:38:01.716886,-112.0
2023-08-15 14:38:01.724575,-122.0
2023-08-15 14:38:01.732265,-124.0
2023-08-15 14:38:01.739954,-119.0
2023-08-15 14:38:01.747644,-119.0
2023-08-15 14:38:01.755333,-112.0
2023-08-15 14:38:01.763023,-107.0
2023-08-15 14:38:01.770713,-117.0
2023-08-15 14:38:01.778402,-115.0
2023-08-15 14:38:01.786092,-103.0
2023-08-15 14:38:01.793781,-103.0
2023-08-15 14:38:01.801471,-107.0
2023-08-15 14:38:01.809161,-107.0
2023-08-15 14:38:01.816850,-105.0
2023-08-15 14:38:01.824540,-98.0
2023-08-15 14:38:01.832229,-103.0
2023-08-15 14:38:01.839919,-112.0
2023-08-15 14:38:01.847608,-107.0
2023-08-15 14:38:01.855298,-95.0
2023-08-15 14:38:01.862988,-100.0
2023-08-15 14:38:01.870677,-112.0
2023-08-15 14:38:01.878367,-107.0
2023-08-15 14:38:01.886056,-100.0
2023-08-15 14:38:01.893746,-103.0
2023-08-15 14:38:01.901436,-112.0
2023-08-15 14:38:01.909125,-103.0
2023-08-15 14:38:01.916815,-83.0
2023-08-15 14:38:01.924504,-69.0
2023-08-15 14:38:01.932194,-59.0
2023-08-15 14:38:01.939883,-47.0
2023-08-15 14:38:01.947573,-40.0
2023-08-15 14:38:01.955263,-47.0
2023-08-15 14:38:01.962952,-62.0
2023-08-15 14:38:01.970642,-74.0
2023-08-15 14:38:01.978331,-83.0
2023-08-15 14:38:01.986021,-86.0
2023-08-15 14:38:01.993711,-91.0
2023-08-15 14:38:02.001400,-93.0
2023-08-15 14:38:02.009090,-91.0
2023-08-15 14:38:02.016779,-88.0
2023-08-15 14:38:02.024469,-88.0
2023-08-15 14:38:02.032158,-86.0
2023-08-15 14:38:02.039848,-83.0
2023-08-15 14:38:02.047538,-47.0
2023-08-15 14:38:02.055227,100.0
2023-08-15 14:38:02.062917,385.0
2023-08-15 14:38:02.070606,805.0
2023-08-15 14:38:02.078296,1100.0
2023-08-15 14:38:02.085986,615.0
2023-08-15 14:38:02.093675,-371.0
2023-08-15 14:38:02.101365,-570.0
2023-08-15 14:38:02.109054,-131.0
2023-08-15 14:38:02.116744,-98.0
2023-08-15 14:38:02.124433,-256.0
2023-08-15 14:38:02.132123,-177.0
2023-08-15 14:38:02.139813,-131.0
2023-08-15 14:38:02.147502,-177.0
2023-08-15 14:38:02.155192,-155.0
2023-08-15 14:38:02.162881,-129.0
2023-08-15 14:38:02.170571,-136.0
2023-08-15 14:38:02.178261,-115.0
2023-08-15 14:38:02.185950,-91.0
2023-08-15 14:38:02.193640,-93.0
2023-08-15 14:38:02.201329,-86.0
2023-08-15 14:38:02.209019,-62.0
2023-08-15 14:38:02.216708,-40.0
2023-08-15 14:38:02.224398,-33.0
2023-08-15 14:38:02.232088,-21.0
2023-08-15 14:38:02.239777,-4.0
2023-08-15 14:38:02.247467,9.0
2023-08-15 14:38:02.255156,28.0
2023-08-15 14:38:02.262846,47.0
2023-08-15 14:38:02.270536,62.0
2023-08-15 14:38:02.278225,76.0
2023-08-15 14:38:02.285915,88.0
2023-08-15 14:38:02.293604,91.0
2023-08-15 14:38:02.301294,83.0
2023-08-15 14:38:02.308983,76.0
2023-08-15 14:38:02.316673,67.0
2023-08-15 14:38:02.324363,52.0
2023-08-15 14:38:02.332052,38.0
2023-08-15 14:38:02.339742,21.0
2023-08-15 14:38:02.347431,0.0
2023-08-15 14:38:02.355121,-26.0
2023-08-15 14:38:02.362811,-52.0
2023-08-15 14:38:02.370500,-81.0
2023-08-15 14:38:02.378190,-107.0
2023-08-15 14:38:02.385879,-127.0
2023-08-15 14:38:02.393569,-141.0
2023-08-15 14:38:02.401258,-153.0
2023-08-15 14:38:02.408948,-158.0
2023-08-15 14:38:02.416638,-155.0
2023-08-15 14:38:02.424327,-150.0
2023-08-15 14:38:02.432017,-146.0
2023-08-15 14:38:02.439706,-136.0
2023-08-15 14:38:02.447396,-134.0
2023-08-15 14:38:02.455086,-136.0
2023-08-15 14:38:02.462775,-134.0
2023-08-15 14:38:02.470465,-129.0
2023-08-15 14:38:02.478154,-124.0
2023-08-15 14:38:02.485844,-117.0
2023-08-15 14:38:02.493533,-112.0
2023-08-15 14:38:02.501223,-105.0
2023-08-15 14:38:02.508913,-105.0
2023-08-15 14:38:02.516602,-122.0
2023-08-15 14:38:02.524292,-129.0
2023-08-15 14:38:02.531981,-117.0
2023-08-15 14:38:02.539671,-112.0
2023-08-15 14:38:02.547361,-115.0
2023-08-15 14:38:02.555050,-117.0
2023-08-15 14:38:02.562740,-122.0
2023-08-15 14:38:02.570429,-122.0
2023-08-15 14:38:02.578119,-117.0
2023-08-15 14:38:02.585808,-117.0
2023-08-15 14:38:02.593498,-117.0
2023-08-15 14:38:02.601188,-117.0
2023-08-15 14:38:02.608877,-112.0
2023-08-15 14:38:02.616567,-105.0
2023-08-15 14:38:02.624256,-110.0
2023-08-15 14:38:02.631946,-115.0
2023-08-15 14:38:02.639636,-107.0
2023-08-15 14:38:02.647325,-103.0
2023-08-15 14:38:02.655015,-103.0
2023-08-15 14:38:02.662704,-100.0
2023-08-15 14:38:02.670394,-95.0
2023-08-15 14:38:02.678083,-93.0
2023-08-15 14:38:02.685773,-98.0
2023-08-15 14:38:02.693463,-105.0
2023-08-15 14:38:02.701152,-107.0
2023-08-15 14:38:02.708842,-100.0
2023-08-15 14:38:02.716531,-103.0
2023-08-15 14:38:02.724221,-110.0
2023-08-15 14:38:02.731911,-107.0
2023-08-15 14:38:02.739600,-110.0
2023-08-15 14:38:02.747290,-110.0
2023-08-15 14:38:02.754979,-88.0
2023-08-15 14:38:02.762669,-67.0
2023-08-15 14:38:02.770358,-57.0
2023-08-15 14:38:02.778048,-50.0
2023-08-15 14:38:02.785738,-40.0
2023-08-15 14:38:02.793427,-50.0
2023-08-15 14:38:02.801117,-69.0
2023-08-15 14:38:02.808806,-76.0
2023-08-15 14:38:02.816496,-86.0
2023-08-15 14:38:02.824185,-100.0
2023-08-15 14:38:02.831875,-103.0
2023-08-15 14:38:02.839565,-95.0
2023-08-15 14:38:02.847254,-91.0
2023-08-15 14:38:02.854944,-88.0
2023-08-15 14:38:02.862633,-86.0
2023-08-15 14:38:02.870323,-86.0
2023-08-15 14:38:02.878013,-88.0
2023-08-15 14:38:02.885702,-62.0
2023-08-15 14:38:02.893392,74.0
2023-08-15 14:38:02.901081,347.0
2023-08-15 14:38:02.908771,718.0
2023-08-15 14:38:02.916460,1018.0
2023-08-15 14:38:02.924150,683.0
2023-08-15 14:38:02.931840,-273.0
2023-08-15 14:38:02.939529,-637.0
2023-08-15 14:38:02.947219,-201.0
2023-08-15 14:38:02.954908,-57.0
2023-08-15 14:38:02.962598,-225.0
2023-08-15 14:38:02.970288,-172.0
2023-08-15 14:38:02.977977,-107.0
2023-08-15 14:38:02.985667,-155.0
2023-08-15 14:38:02.993356,-136.0
2023-08-15 14:38:03.001046,-93.0
2023-08-15 14:38:03.008735,-103.0
2023-08-15 14:38:03.016425,-100.0
2023-08-15 14:38:03.024115,-74.0
2023-08-15 14:38:03.031804,-59.0
2023-08-15 14:38:03.039494,-52.0
2023-08-15 14:38:03.047183,-50.0
2023-08-15 14:38:03.054873,-40.0
2023-08-15 14:38:03.062563,-16.0
2023-08-15 14:38:03.070252,2.0
2023-08-15 14:38:03.077942,14.0
2023-08-15 14:38:03.085631,38.0
2023-08-15 14:38:03.093321,50.0
2023-08-15 14:38:03.101010,52.0
2023-08-15 14:38:03.108700,71.0
2023-08-15 14:38:03.116390,93.0
2023-08-15 14:38:03.124079,100.0
2023-08-15 14:38:03.131769,100.0
2023-08-15 14:38:03.139458,100.0
2023-08-15 14:38:03.147148,93.0
2023-08-15 14:38:03.154838,71.0
2023-08-15 14:38:03.162527,62.0
2023-08-15 14:38:03.170217,57.0
2023-08-15 14:38:03.177906,38.0
2023-08-15 14:38:03.185596,7.0
2023-08-15 14:38:03.193285,-16.0
2023-08-15 14:38:03.200975,-33.0
2023-08-15 14:38:03.208665,-55.0
2023-08-15 14:38:03.216354,-83.0
2023-08-15 14:38:03.224044,-117.0
2023-08-15 14:38:03.231733,-134.0
2023-08-15 14:38:03.239423,-134.0
2023-08-15 14:38:03.247113,-134.0
2023-08-15 14:38:03.254802,-131.0
2023-08-15 14:38:03.262492,-127.0
2023-08-15 14:38:03.270181,-122.0
2023-08-15 14:38:03.277871,-124.0
2023-08-15 14:38:03.285560,-127.0
2023-08-15 14:38:03.293250,-122.0
2023-08-15 14:38:03.300940,-117.0
2023-08-15 14:38:03.308629,-115.0
2023-08-15 14:38:03.316319,-112.0
2023-08-15 14:38:03.324008,-124.0
2023-08-15 14:38:03.331698,-131.0
2023-08-15 14:38:03.339388,-119.0
2023-08-15 14:38:03.347077,-115.0
2023-08-15 14:38:03.354767,-119.0
2023-08-15 14:38:03.362456,-115.0
2023-08-15 14:38:03.370146,-112.0
2023-08-15 14:38:03.377835,-119.0
2023-08-15 14:38:03.385525,-122.0
2023-08-15 14:38:03.393215,-115.0
2023-08-15 14:38:03.400904,-112.0
2023-08-15 14:38:03.408594,-117.0
2023-08-15 14:38:03.416283,-124.0
2023-08-15 14:38:03.423973,-122.0
2023-08-15 14:38:03.431663,-110.0
2023-08-15 14:38:03.439352,-103.0
2023-08-15 14:38:03.447042,-115.0
2023-08-15 14:38:03.454731,-119.0
2023-08-15 14:38:03.462421,-117.0
2023-08-15 14:38:03.470110,-115.0
2023-08-15 14:38:03.477800,-112.0
2023-08-15 14:38:03.485490,-110.0
2023-08-15 14:38:03.493179,-105.0
2023-08-15 14:38:03.500869,-105.0
2023-08-15 14:38:03.508558,-105.0
2023-08-15 14:38:03.516248,-112.0
2023-08-15 14:38:03.523938,-117.0
2023-08-15 14:38:03.531627,-105.0
2023-08-15 14:38:03.539317,-88.0
2023-08-15 14:38:03.547006,-95.0
2023-08-15 14:38:03.554696,-103.0
2023-08-15 14:38:03.562385,-91.0
2023-08-15 14:38:03.570075,-98.0
2023-08-15 14:38:03.577765,-124.0
2023-08-15 14:38:03.585454,-124.0
2023-08-15 14:38:03.593144,-105.0
2023-08-15 14:38:03.600833,-76.0
2023-08-15 14:38:03.608523,-57.0
2023-08-15 14:38:03.616213,-47.0
2023-08-15 14:38:03.623902,-33.0
2023-08-15 14:38:03.631592,-31.0
2023-08-15 14:38:03.639281,-50.0
2023-08-15 14:38:03.646971,-64.0
2023-08-15 14:38:03.654660,-74.0
2023-08-15 14:38:03.662350,-81.0
2023-08-15 14:38:03.670040,-81.0
2023-08-15 14:38:03.677729,-79.0
2023-08-15 14:38:03.685419,-83.0
2023-08-15 14:38:03.693108,-83.0
2023-08-15 14:38:03.700798,-71.0
2023-08-15 14:38:03.708488,-64.0
2023-08-15 14:38:03.716177,-71.0
2023-08-15 14:38:03.723867,-57.0
2023-08-15 14:38:03.731556,38.0
2023-08-15 14:38:03.739246,280.0
2023-08-15 14:38:03.746935,630.0
2023-08-15 14:38:03.754625,956.0
2023-08-15 14:38:03.762315,829.0
2023-08-15 14:38:03.770004,-21.0
2023-08-15 14:38:03.777694,-642.0
2023-08-15 14:38:03.785383,-340.0
2023-08-15 14:38:03.793073,-31.0
2023-08-15 14:38:03.800763,-165.0
2023-08-15 14:38:03.808452,-189.0
2023-08-15 14:38:03.816142,-86.0
2023-08-15 14:38:03.823831,-98.0
2023-08-15 14:38:03.831521,-115.0
2023-08-15 14:38:03.839210,-83.0
2023-08-15 14:38:03.846900,-76.0
2023-08-15 14:38:03.854590,-83.0
2023-08-15 14:38:03.862279,-71.0
2023-08-15 14:38:03.869969,-59.0
2023-08-15 14:38:03.877658,-47.0
2023-08-15 14:38:03.885348,-31.0
2023-08-15 14:38:03.893038,-16.0
2023-08-15 14:38:03.900727,-4.0
2023-08-15 14:38:03.908417,7.0
2023-08-15 14:38:03.916106,16.0
2023-08-15 14:38:03.923796,31.0
2023-08-15 14:38:03.931485,50.0
2023-08-15 14:38:03.939175,69.0
2023-08-15 14:38:03.946865,83.0
2023-08-15 14:38:03.954554,93.0
2023-08-15 14:38:03.962244,105.0
2023-08-15 14:38:03.969933,112.0
2023-08-15 14:38:03.977623,110.0
2023-08-15 14:38:03.985313,98.0
2023-08-15 14:38:03.993002,83.0
2023-08-15 14:38:04.000692,76.0
2023-08-15 14:38:04.008381,69.0
2023-08-15 14:38:04.016071,52.0
2023-08-15 14:38:04.023760,28.0
2023-08-15 14:38:04.031450,9.0
2023-08-15 14:38:04.039140,-14.0
2023-08-15 14:38:04.046829,-55.0
2023-08-15 14:38:04.054519,-86.0
2023-08-15 14:38:04.062208,-98.0
2023-08-15 14:38:04.069898,-115.0
2023-08-15 14:38:04.077588,-134.0
2023-08-15 14:38:04.085277,-134.0
2023-08-15 14:38:04.092967,-129.0
2023-08-15 14:38:04.100656,-134.0
2023-08-15 14:38:04.108346,-131.0
2023-08-15 14:38:04.116035,-119.0
2023-08-15 14:38:04.123725,-112.0
2023-08-15 14:38:04.131415,-117.0
2023-08-15 14:38:04.139104,-117.0
2023-08-15 14:38:04.146794,-112.0
2023-08-15 14:38:04.154483,-110.0
2023-08-15 14:38:04.162173,-105.0
2023-08-15 14:38:04.169862,-93.0
2023-08-15 14:38:04.177552,-95.0
2023-08-15 14:38:04.185242,-98.0
2023-08-15 14:38:04.192931,-93.0
2023-08-15 14:38:04.200621,-98.0
2023-08-15 14:38:04.208310,-105.0
2023-08-15 14:38:04.216000,-100.0
2023-08-15 14:38:04.223690,-100.0
2023-08-15 14:38:04.231379,-98.0
2023-08-15 14:38:04.239069,-93.0
2023-08-15 14:38:04.246758,-95.0
2023-08-15 14:38:04.254448,-103.0
2023-08-15 14:38:04.262137,-105.0
2023-08-15 14:38:04.269827,-100.0
2023-08-15 14:38:04.277517,-98.0
2023-08-15 14:38:04.285206,-98.0
2023-08-15 14:38:04.292896,-98.0
2023-08-15 14:38:04.300585,-95.0
2023-08-15 14:38:04.308275,-93.0
2023-08-15 14:38:04.315965,-91.0
2023-08-15 14:38:04.323654,-88.0
2023-08-15 14:38:04.331344,-86.0
2023-08-15 14:38:04.339033,-86.0
2023-08-15 14:38:04.346723,-86.0
2023-08-15 14:38:04.354412,-91.0
2023-08-15 14:38:04.362102,-88.0
2023-08-15 14:38:04.369792,-74.0
2023-08-15 14:38:04.377481,-55.0
2023-08-15 14:38:04.385171,-43.0
2023-08-15 14:38:04.392860,-28.0
2023-08-15 14:38:04.400550,-23.0
2023-08-15 14:38:04.408240,-31.0
2023-08-15 14:38:04.415929,-50.0
2023-08-15 14:38:04.423619,-76.0
2023-08-15 14:38:04.431308,-86.0
2023-08-15 14:38:04.438998,-83.0
2023-08-15 14:38:04.446687,-88.0
2023-08-15 14:38:04.454377,-95.0
2023-08-15 14:38:04.462067,-93.0
2023-08-15 14:38:04.469756,-81.0
2023-08-15 14:38:04.477446,-79.0
2023-08-15 14:38:04.485135,-76.0
2023-08-15 14:38:04.492825,-71.0
2023-08-15 14:38:04.500515,-62.0
2023-08-15 14:38:04.508204,9.0
2023-08-15 14:38:04.515894,251.0
2023-08-15 14:38:04.523583,639.0
2023-08-15 14:38:04.531273,989.0
2023-08-15 14:38:04.538962,929.0
2023-08-15 14:38:04.546652,105.0
2023-08-15 14:38:04.554342,-707.0
2023-08-15 14:38:04.562031,-522.0
2023-08-15 14:38:04.569721,-62.0
2023-08-15 14:38:04.577410,-119.0
2023-08-15 14:38:04.585100,-206.0
2023-08-15 14:38:04.592790,-95.0
2023-08-15 14:38:04.600479,-88.0
2023-08-15 14:38:04.608169,-131.0
2023-08-15 14:38:04.615858,-91.0
2023-08-15 14:38:04.623548,-59.0
2023-08-15 14:38:04.631237,-67.0
2023-08-15 14:38:04.638927,-55.0
2023-08-15 14:38:04.646617,-31.0
2023-08-15 14:38:04.654306,-21.0
2023-08-15 14:38:04.661996,-16.0
2023-08-15 14:38:04.669685,-7.0
2023-08-15 14:38:04.677375,7.0
2023-08-15 14:38:04.685065,23.0
2023-08-15 14:38:04.692754,40.0
2023-08-15 14:38:04.700444,55.0
2023-08-15 14:38:04.708133,74.0
2023-08-15 14:38:04.715823,88.0
2023-08-15 14:38:04.723512,100.0
2023-08-15 14:38:04.731202,117.0
2023-08-15 14:38:04.738892,134.0
2023-08-15 14:38:04.746581,141.0
2023-08-15 14:38:04.754271,136.0
2023-08-15 14:38:04.761960,122.0
2023-08-15 14:38:04.769650,105.0
2023-08-15 14:38:04.777340,95.0
2023-08-15 14:38:04.785029,74.0
2023-08-15 14:38:04.792719,47.0
2023-08-15 14:38:04.800408,31.0
2023-08-15 14:38:04.808098,7.0
2023-08-15 14:38:04.815787,-31.0
2023-08-15 14:38:04.823477,-67.0
2023-08-15 14:38:04.831167,-93.0
2023-08-15 14:38:04.838856,-112.0
2023-08-15 14:38:04.846546,-131.0
2023-08-15 14:38:04.854235,-148.0
2023-08-15 14:38:04.861925,-148.0
2023-08-15 14:38:04.869615,-143.0
2023-08-15 14:38:04.877304,-146.0
2023-08-15 14:38:04.884994,-143.0
2023-08-15 14:38:04.892683,-139.0
2023-08-15 14:38:04.900373,-136.0
2023-08-15 14:38:04.908062,-129.0
2023-08-15 14:38:04.915752,-122.0
2023-08-15 14:38:04.923442,-122.0
2023-08-15 14:38:04.931131,-122.0
2023-08-15 14:38:04.938821,-124.0
2023-08-15 14:38:04.946510,-122.0
2023-08-15 14:38:04.954200,-117.0
2023-08-15 14:38:04.961890,-117.0
2023-08-15 14:38:04.969579,-117.0
2023-08-15 14:38:04.977269,-117.0
2023-08-15 14:38:04.984958,-124.0
2023-08-15 14:38:04.992648,-136.0
2023-08-15 14:38:05.000337,-139.0
2023-08-15 14:38:05.008027,-143.0
2023-08-15 14:38:05.015717,-146.0
2023-08-15 14:38:05.023406,-139.0
2023-08-15 14:38:05.031096,-134.0
2023-08-15 14:38:05.038785,-136.0
2023-08-15 14:38:05.046475,-136.0
2023-08-15 14:38:05.054165,-131.0
2023-08-15 14:38:05.061854,-127.0
2023-08-15 14:38:05.069544,-127.0
2023-08-15 14:38:05.077233,-127.0
2023-08-15 14:38:05.084923,-127.0
2023-08-15 14:38:05.092612,-122.0
2023-08-15 14:38:05.100302,-117.0
2023-08-15 14:38:05.107992,-115.0
2023-08-15 14:38:05.115681,-115.0
2023-08-15 14:38:05.123371,-115.0
2023-08-15 14:38:05.131060,-115.0
2023-08-15 14:38:05.138750,-112.0
2023-08-15 14:38:05.146440,-112.0
2023-08-15 14:38:05.154129,-117.0
2023-08-15 14:38:05.161819,-115.0
2023-08-15 14:38:05.169508,-103.0
2023-08-15 14:38:05.177198,-79.0
2023-08-15 14:38:05.184887,-62.0
2023-08-15 14:38:05.192577,-52.0
2023-08-15 14:38:05.200267,-40.0
2023-08-15 14:38:05.207956,-38.0
2023-08-15 14:38:05.215646,-55.0
2023-08-15 14:38:05.223335,-64.0
2023-08-15 14:38:05.231025,-74.0
2023-08-15 14:38:05.238715,-86.0
2023-08-15 14:38:05.246404,-83.0
2023-08-15 14:38:05.254094,-83.0
2023-08-15 14:38:05.261783,-88.0
2023-08-15 14:38:05.269473,-91.0
2023-08-15 14:38:05.277162,-83.0
2023-08-15 14:38:05.284852,-76.0
2023-08-15 14:38:05.292542,-76.0
2023-08-15 14:38:05.300231,-62.0
2023-08-15 14:38:05.307921,23.0
2023-08-15 14:38:05.315610,242.0
2023-08-15 14:38:05.323300,591.0
2023-08-15 14:38:05.330990,1006.0
2023-08-15 14:38:05.338679,1006.0
2023-08-15 14:38:05.346369,150.0
2023-08-15 14:38:05.354058,-603.0
2023-08-15 14:38:05.361748,-357.0
2023-08-15 14:38:05.369437,-21.0
2023-08-15 14:38:05.377127,-170.0
2023-08-15 14:38:05.384817,-215.0
2023-08-15 14:38:05.392506,-110.0
2023-08-15 14:38:05.400196,-134.0
2023-08-15 14:38:05.407885,-158.0
2023-08-15 14:38:05.415575,-107.0
2023-08-15 14:38:05.423265,-88.0
2023-08-15 14:38:05.430954,-98.0
2023-08-15 14:38:05.438644,-91.0
2023-08-15 14:38:05.446333,-71.0
2023-08-15 14:38:05.454023,-57.0
2023-08-15 14:38:05.461712,-50.0
2023-08-15 14:38:05.469402,-40.0
2023-08-15 14:38:05.477092,-19.0
2023-08-15 14:38:05.484781,0.0
2023-08-15 14:38:05.492471,9.0
2023-08-15 14:38:05.500160,26.0
2023-08-15 14:38:05.507850,45.0
2023-08-15 14:38:05.515539,62.0
2023-08-15 14:38:05.523229,79.0
2023-08-15 14:38:05.530919,86.0
2023-08-15 14:38:05.538608,93.0
2023-08-15 14:38:05.546298,103.0
2023-08-15 14:38:05.553987,98.0
2023-08-15 14:38:05.561677,91.0
2023-08-15 14:38:05.569367,86.0
2023-08-15 14:38:05.577056,76.0
2023-08-15 14:38:05.584746,57.0
2023-08-15 14:38:05.592435,43.0
2023-08-15 14:38:05.600125,26.0
2023-08-15 14:38:05.607814,-4.0
2023-08-15 14:38:05.615504,-43.0
2023-08-15 14:38:05.623194,-71.0
2023-08-15 14:38:05.630883,-95.0
2023-08-15 14:38:05.638573,-122.0
2023-08-15 14:38:05.646262,-141.0
2023-08-15 14:38:05.653952,-148.0
2023-08-15 14:38:05.661642,-155.0
2023-08-15 14:38:05.669331,-155.0
2023-08-15 14:38:05.677021,-150.0
2023-08-15 14:38:05.684710,-148.0
2023-08-15 14:38:05.692400,-141.0
2023-08-15 14:38:05.700089,-131.0
2023-08-15 14:38:05.707779,-129.0
2023-08-15 14:38:05.715469,-129.0
2023-08-15 14:38:05.723158,-124.0
2023-08-15 14:38:05.730848,-119.0
2023-08-15 14:38:05.738537,-119.0
2023-08-15 14:38:05.746227,-115.0
2023-08-15 14:38:05.753917,-115.0
2023-08-15 14:38:05.761606,-115.0
2023-08-15 14:38:05.769296,-112.0
2023-08-15 14:38:05.776985,-112.0
2023-08-15 14:38:05.784675,-115.0
2023-08-15 14:38:05.792364,-117.0
2023-08-15 14:38:05.800054,-119.0
2023-08-15 14:38:05.807744,-119.0
2023-08-15 14:38:05.815433,-119.0
2023-08-15 14:38:05.823123,-119.0
2023-08-15 14:38:05.830812,-119.0
2023-08-15 14:38:05.838502,-119.0
2023-08-15 14:38:05.846192,-124.0
2023-08-15 14:38:05.853881,-119.0
2023-08-15 14:38:05.861571,-115.0
2023-08-15 14:38:05.869260,-117.0
2023-08-15 14:38:05.876950,-117.0
2023-08-15 14:38:05.884639,-112.0
2023-08-15 14:38:05.892329,-112.0
2023-08-15 14:38:05.900019,-107.0
2023-08-15 14:38:05.907708,-103.0
2023-08-15 14:38:05.915398,-107.0
2023-08-15 14:38:05.923087,-112.0
2023-08-15 14:38:05.930777,-105.0
2023-08-15 14:38:05.938467,-107.0
2023-08-15 14:38:05.946156,-119.0
2023-08-15 14:38:05.953846,-112.0
2023-08-15 14:38:05.961535,-91.0
2023-08-15 14:38:05.969225,-71.0
2023-08-15 14:38:05.976914,-57.0
2023-08-15 14:38:05.984604,-43.0
2023-08-15 14:38:05.992294,-47.0
2023-08-15 14:38:05.999983,-69.0
2023-08-15 14:38:06.007673,-81.0
2023-08-15 14:38:06.015362,-83.0
2023-08-15 14:38:06.023052,-93.0
2023-08-15 14:38:06.030742,-98.0
2023-08-15 14:38:06.038431,-91.0
2023-08-15 14:38:06.046121,-86.0
2023-08-15 14:38:06.053810,-86.0
2023-08-15 14:38:06.061500,-91.0
2023-08-15 14:38:06.069189,-100.0
2023-08-15 14:38:06.076879,-95.0
2023-08-15 14:38:06.084569,-76.0
2023-08-15 14:38:06.092258,2.0
2023-08-15 14:38:06.099948,225.0
2023-08-15 14:38:06.107637,582.0
2023-08-15 14:38:06.115327,980.0
2023-08-15 14:38:06.123017,951.0
2023-08-15 14:38:06.130706,98.0
2023-08-15 14:38:06.138396,-615.0
2023-08-15 14:38:06.146085,-349.0
2023-08-15 14:38:06.153775,-28.0
2023-08-15 14:38:06.161464,-179.0
2023-08-15 14:38:06.169154,-218.0
2023-08-15 14:38:06.176844,-112.0
2023-08-15 14:38:06.184533,-136.0
2023-08-15 14:38:06.192223,-162.0
2023-08-15 14:38:06.199912,-117.0
2023-08-15 14:38:06.207602,-103.0
2023-08-15 14:38:06.215292,-105.0
2023-08-15 14:38:06.222981,-81.0
2023-08-15 14:38:06.230671,-64.0
2023-08-15 14:38:06.238360,-62.0
2023-08-15 14:38:06.246050,-55.0
2023-08-15 14:38:06.253739,-38.0
2023-08-15 14:38:06.261429,-19.0
2023-08-15 14:38:06.269119,-4.0
2023-08-15 14:38:06.276808,11.0
2023-08-15 14:38:06.284498,31.0
2023-08-15 14:38:06.292187,50.0
2023-08-15 14:38:06.299877,57.0
2023-08-15 14:38:06.307567,64.0
2023-08-15 14:38:06.315256,86.0
2023-08-15 14:38:06.322946,98.0
2023-08-15 14:38:06.330635,93.0
2023-08-15 14:38:06.338325,110.0
2023-08-15 14:38:06.346014,119.0
2023-08-15 14:38:06.353704,71.0
2023-08-15 14:38:06.361394,50.0
2023-08-15 14:38:06.369083,76.0
2023-08-15 14:38:06.376773,62.0
2023-08-15 14:38:06.384462,16.0
2023-08-15 14:38:06.392152,-11.0
2023-08-15 14:38:06.399842,-38.0
2023-08-15 14:38:06.407531,-67.0
2023-08-15 14:38:06.415221,-93.0
2023-08-15 14:38:06.422910,-117.0
2023-08-15 14:38:06.430600,-131.0
2023-08-15 14:38:06.438289,-141.0
2023-08-15 14:38:06.445979,-148.0
2023-08-15 14:38:06.453669,-148.0
2023-08-15 14:38:06.461358,-153.0
2023-08-15 14:38:06.469048,-174.0
2023-08-15 14:38:06.476737,-174.0
2023-08-15 14:38:06.484427,-141.0
2023-08-15 14:38:06.492117,-131.0
2023-08-15 14:38:06.499806,-155.0
2023-08-15 14:38:06.507496,-158.0
2023-08-15 14:38:06.515185,-139.0
2023-08-15 14:38:06.522875,-131.0
2023-08-15 14:38:06.530564,-134.0
2023-08-15 14:38:06.538254,-124.0
2023-08-15 14:38:06.545944,-105.0
2023-08-15 14:38:06.553633,-110.0
2023-08-15 14:38:06.561323,-127.0
2023-08-15 14:38:06.569012,-105.0
2023-08-15 14:38:06.576702,-95.0
2023-08-15 14:38:06.584392,-134.0
2023-08-15 14:38:06.592081,-131.0
2023-08-15 14:38:06.599771,-98.0
2023-08-15 14:38:06.607460,-115.0
2023-08-15 14:38:06.615150,-139.0
2023-08-15 14:38:06.622839,-115.0
2023-08-15 14:38:06.630529,-107.0
2023-08-15 14:38:06.638219,-131.0
2023-08-15 14:38:06.645908,-134.0
2023-08-15 14:38:06.653598,-127.0
2023-08-15 14:38:06.661287,-136.0
2023-08-15 14:38:06.668977,-131.0
2023-08-15 14:38:06.676667,-131.0
2023-08-15 14:38:06.684356,-146.0
2023-08-15 14:38:06.692046,-129.0
2023-08-15 14:38:06.699735,-115.0
2023-08-15 14:38:06.707425,-134.0
2023-08-15 14:38:06.715114,-143.0
2023-08-15 14:38:06.722804,-117.0
2023-08-15 14:38:06.730494,-88.0
2023-08-15 14:38:06.738183,-83.0
2023-08-15 14:38:06.745873,-83.0
2023-08-15 14:38:06.753562,-67.0
2023-08-15 14:38:06.761252,-55.0
2023-08-15 14:38:06.768942,-74.0
2023-08-15 14:38:06.776631,-91.0
2023-08-15 14:38:06.784321,-105.0
2023-08-15 14:38:06.792010,-115.0
2023-08-15 14:38:06.799700,-112.0
2023-08-15 14:38:06.807389,-110.0
2023-08-15 14:38:06.815079,-100.0
2023-08-15 14:38:06.822769,-83.0
2023-08-15 14:38:06.830458,-83.0
2023-08-15 14:38:06.838148,-107.0
2023-08-15 14:38:06.845837,-107.0
2023-08-15 14:38:06.853527,-71.0
2023-08-15 14:38:06.861216,-2.0
2023-08-15 14:38:06.868906,215.0
2023-08-15 14:38:06.876596,620.0
2023-08-15 14:38:06.884285,977.0
2023-08-15 14:38:06.891975,831.0
2023-08-15 14:38:06.899664,-23.0
2023-08-15 14:38:06.907354,-707.0
2023-08-15 14:38:06.915044,-450.0
2023-08-15 14:38:06.922733,-64.0
2023-08-15 14:38:06.930423,-160.0
2023-08-15 14:38:06.938112,-227.0
2023-08-15 14:38:06.945802,-119.0
2023-08-15 14:38:06.953491,-119.0
2023-08-15 14:38:06.961181,-148.0
2023-08-15 14:38:06.968871,-100.0
2023-08-15 14:38:06.976560,-86.0
2023-08-15 14:38:06.984250,-115.0
2023-08-15 14:38:06.991939,-91.0
2023-08-15 14:38:06.999629,-43.0
2023-08-15 14:38:07.007319,-38.0
2023-08-15 14:38:07.015008,-33.0
2023-08-15 14:38:07.022698,-19.0
2023-08-15 14:38:07.030387,-33.0
2023-08-15 14:38:07.038077,-23.0
2023-08-15 14:38:07.045766,11.0
2023-08-15 14:38:07.053456,23.0
2023-08-15 14:38:07.061146,45.0
2023-08-15 14:38:07.068835,76.0
2023-08-15 14:38:07.076525,79.0
2023-08-15 14:38:07.084214,93.0
2023-08-15 14:38:07.091904,139.0
2023-08-15 14:38:07.099594,146.0
2023-08-15 14:38:07.107283,115.0
2023-08-15 14:38:07.114973,119.0
2023-08-15 14:38:07.122662,143.0
2023-08-15 14:38:07.130352,122.0
2023-08-15 14:38:07.138041,98.0
2023-08-15 14:38:07.145731,105.0
2023-08-15 14:38:07.153421,95.0
2023-08-15 14:38:07.161110,35.0
2023-08-15 14:38:07.168800,-11.0
2023-08-15 14:38:07.176489,-19.0
2023-08-15 14:38:07.184179,-45.0
2023-08-15 14:38:07.191869,-95.0
2023-08-15 14:38:07.199558,-122.0
2023-08-15 14:38:07.207248,-122.0
2023-08-15 14:38:07.214937,-124.0
2023-08-15 14:38:07.222627,-143.0
2023-08-15 14:38:07.230316,-141.0
2023-08-15 14:38:07.238006,-131.0
2023-08-15 14:38:07.245696,-136.0
2023-08-15 14:38:07.253385,-119.0
2023-08-15 14:38:07.261075,-110.0
2023-08-15 14:38:07.268764,-127.0
2023-08-15 14:38:07.276454,-122.0
2023-08-15 14:38:07.284144,-86.0
2023-08-15 14:38:07.291833,-81.0
2023-08-15 14:38:07.299523,-93.0
2023-08-15 14:38:07.307212,-93.0
2023-08-15 14:38:07.314902,-105.0
2023-08-15 14:38:07.322591,-115.0
2023-08-15 14:38:07.330281,-105.0
2023-08-15 14:38:07.337971,-98.0
2023-08-15 14:38:07.345660,-98.0
2023-08-15 14:38:07.353350,-100.0
2023-08-15 14:38:07.361039,-103.0
2023-08-15 14:38:07.368729,-95.0
2023-08-15 14:38:07.376419,-98.0
2023-08-15 14:38:07.384108,-88.0
2023-08-15 14:38:07.391798,-71.0
2023-08-15 14:38:07.399487,-107.0
2023-08-15 14:38:07.407177,-129.0
2023-08-15 14:38:07.414866,-93.0
2023-08-15 14:38:07.422556,-71.0
2023-08-15 14:38:07.430246,-81.0
2023-08-15 14:38:07.437935,-67.0
2023-08-15 14:38:07.445625,-38.0
2023-08-15 14:38:07.453314,-55.0
2023-08-15 14:38:07.461004,-71.0
2023-08-15 14:38:07.468694,-52.0
2023-08-15 14:38:07.476383,-67.0
2023-08-15 14:38:07.484073,-107.0
2023-08-15 14:38:07.491762,-100.0
2023-08-15 14:38:07.499452,-81.0
2023-08-15 14:38:07.507141,-74.0
2023-08-15 14:38:07.514831,-67.0
2023-08-15 14:38:07.522521,-112.0
2023-08-15 14:38:07.530210,-150.0
2023-08-15 14:38:07.537900,-115.0
2023-08-15 14:38:07.545589,-81.0
2023-08-15 14:38:07.553279,-79.0
2023-08-15 14:38:07.560969,-76.0
2023-08-15 14:38:07.568658,-64.0
2023-08-15 14:38:07.576348,69.0
2023-08-15 14:38:07.584037,440.0
2023-08-15 14:38:07.591727,901.0
2023-08-15 14:38:07.599416,1131.0
2023-08-15 14:38:07.607106,666.0
2023-08-15 14:38:07.614796,-390.0
2023-08-15 14:38:07.622485,-788.0
2023-08-15 14:38:07.630175,-275.0
2023-08-15 14:38:07.637864,-55.0
2023-08-15 14:38:07.645554,-242.0
2023-08-15 14:38:07.653244,-196.0
2023-08-15 14:38:07.660933,-76.0
2023-08-15 14:38:07.668623,-131.0
2023-08-15 14:38:07.676312,-141.0
2023-08-15 14:38:07.684002,-71.0
2023-08-15 14:38:07.691691,-76.0
2023-08-15 14:38:07.699381,-105.0
2023-08-15 14:38:07.707071,-79.0
2023-08-15 14:38:07.714760,-52.0
2023-08-15 14:38:07.722450,-45.0
2023-08-15 14:38:07.730139,-28.0
2023-08-15 14:38:07.737829,-16.0
2023-08-15 14:38:07.745519,-2.0
2023-08-15 14:38:07.753208,21.0
2023-08-15 14:38:07.760898,19.0
2023-08-15 14:38:07.768587,28.0
2023-08-15 14:38:07.776277,67.0
2023-08-15 14:38:07.783966,71.0
2023-08-15 14:38:07.791656,64.0
2023-08-15 14:38:07.799346,100.0
2023-08-15 14:38:07.807035,136.0
2023-08-15 14:38:07.814725,105.0
2023-08-15 14:38:07.822414,55.0
2023-08-15 14:38:07.830104,79.0
2023-08-15 14:38:07.837794,136.0
2023-08-15 14:38:07.845483,119.0
2023-08-15 14:38:07.853173,76.0
2023-08-15 14:38:07.860862,79.0
2023-08-15 14:38:07.868552,55.0
2023-08-15 14:38:07.876241,-43.0
2023-08-15 14:38:07.883931,-119.0
2023-08-15 14:38:07.891621,-127.0
2023-08-15 14:38:07.899310,-131.0
2023-08-15 14:38:07.907000,-160.0
2023-08-15 14:38:07.914689,-179.0
2023-08-15 14:38:07.922379,-179.0
2023-08-15 14:38:07.930069,-172.0
2023-08-15 14:38:07.937758,-172.0
2023-08-15 14:38:07.945448,-160.0
2023-08-15 14:38:07.953137,-136.0
2023-08-15 14:38:07.960827,-143.0
2023-08-15 14:38:07.968516,-150.0
2023-08-15 14:38:07.976206,-143.0
2023-08-15 14:38:07.983896,-146.0
2023-08-15 14:38:07.991585,-131.0
2023-08-15 14:38:07.999275,-105.0
2023-08-15 14:38:08.006964,-115.0
2023-08-15 14:38:08.014654,-141.0
2023-08-15 14:38:08.022344,-124.0
2023-08-15 14:38:08.030033,-105.0
2023-08-15 14:38:08.037723,-115.0
2023-08-15 14:38:08.045412,-119.0
2023-08-15 14:38:08.053102,-107.0
2023-08-15 14:38:08.060791,-110.0
2023-08-15 14:38:08.068481,-129.0
2023-08-15 14:38:08.076171,-117.0
2023-08-15 14:38:08.083860,-93.0
2023-08-15 14:38:08.091550,-115.0
2023-08-15 14:38:08.099239,-124.0
2023-08-15 14:38:08.106929,-93.0
2023-08-15 14:38:08.114619,-100.0
2023-08-15 14:38:08.122308,-141.0
2023-08-15 14:38:08.129998,-129.0
2023-08-15 14:38:08.137687,-83.0
2023-08-15 14:38:08.145377,-98.0
2023-08-15 14:38:08.153066,-134.0
2023-08-15 14:38:08.160756,-100.0
2023-08-15 14:38:08.168446,-43.0
2023-08-15 14:38:08.176135,-43.0
2023-08-15 14:38:08.183825,-64.0
2023-08-15 14:38:08.191514,-57.0
2023-08-15 14:38:08.199204,-47.0
2023-08-15 14:38:08.206894,-64.0
2023-08-15 14:38:08.214583,-86.0
2023-08-15 14:38:08.222273,-107.0
2023-08-15 14:38:08.229962,-112.0
2023-08-15 14:38:08.237652,-93.0
2023-08-15 14:38:08.245341,-91.0
2023-08-15 14:38:08.253031,-110.0
2023-08-15 14:38:08.260721,-115.0
2023-08-15 14:38:08.268410,-105.0
2023-08-15 14:38:08.276100,-79.0
2023-08-15 14:38:08.283789,-71.0
2023-08-15 14:38:08.291479,-40.0
2023-08-15 14:38:08.299168,194.0
2023-08-15 14:38:08.306858,623.0
2023-08-15 14:38:08.314548,1030.0
2023-08-15 14:38:08.322237,982.0
2023-08-15 14:38:08.329927,119.0
2023-08-15 14:38:08.337616,-642.0
2023-08-15 14:38:08.345306,-421.0
2023-08-15 14:38:08.352996,-81.0
2023-08-15 14:38:08.360685,-198.0
2023-08-15 14:38:08.368375,-239.0
2023-08-15 14:38:08.376064,-143.0
2023-08-15 14:38:08.383754,-160.0
2023-08-15 14:38:08.391443,-179.0
2023-08-15 14:38:08.399133,-143.0
2023-08-15 14:38:08.406823,-148.0
2023-08-15 14:38:08.414512,-146.0
2023-08-15 14:38:08.422202,-105.0
2023-08-15 14:38:08.429891,-76.0
2023-08-15 14:38:08.437581,-67.0
2023-08-15 14:38:08.445271,-62.0
2023-08-15 14:38:08.452960,-64.0
2023-08-15 14:38:08.460650,-45.0
2023-08-15 14:38:08.468339,-14.0
2023-08-15 14:38:08.476029,-9.0
2023-08-15 14:38:08.483718,-2.0
2023-08-15 14:38:08.491408,14.0
2023-08-15 14:38:08.499098,35.0
2023-08-15 14:38:08.506787,59.0
2023-08-15 14:38:08.514477,69.0
2023-08-15 14:38:08.522166,81.0
2023-08-15 14:38:08.529856,98.0
2023-08-15 14:38:08.537546,103.0
2023-08-15 14:38:08.545235,103.0
2023-08-15 14:38:08.552925,103.0
2023-08-15 14:38:08.560614,83.0
2023-08-15 14:38:08.568304,57.0
2023-08-15 14:38:08.575993,38.0
2023-08-15 14:38:08.583683,11.0
2023-08-15 14:38:08.591373,-19.0
2023-08-15 14:38:08.599062,-47.0
2023-08-15 14:38:08.606752,-88.0
2023-08-15 14:38:08.614441,-124.0
2023-08-15 14:38:08.622131,-131.0
2023-08-15 14:38:08.629821,-139.0
2023-08-15 14:38:08.637510,-153.0
2023-08-15 14:38:08.645200,-155.0
2023-08-15 14:38:08.652889,-160.0
2023-08-15 14:38:08.660579,-165.0
2023-08-15 14:38:08.668268,-143.0
2023-08-15 14:38:08.675958,-129.0
2023-08-15 14:38:08.683648,-131.0
2023-08-15 14:38:08.691337,-127.0
2023-08-15 14:38:08.699027,-129.0
2023-08-15 14:38:08.706716,-131.0
2023-08-15 14:38:08.714406,-107.0
2023-08-15 14:38:08.722096,-103.0
2023-08-15 14:38:08.729785,-110.0
2023-08-15 14:38:08.737475,-98.0
2023-08-15 14:38:08.745164,-98.0
2023-08-15 14:38:08.752854,-110.0
2023-08-15 14:38:08.760543,-103.0
2023-08-15 14:38:08.768233,-98.0
2023-08-15 14:38:08.775923,-103.0
2023-08-15 14:38:08.783612,-100.0
2023-08-15 14:38:08.791302,-98.0
2023-08-15 14:38:08.798991,-103.0
2023-08-15 14:38:08.806681,-88.0
2023-08-15 14:38:08.814371,-83.0
2023-08-15 14:38:08.822060,-103.0
2023-08-15 14:38:08.829750,-91.0
2023-08-15 14:38:08.837439,-86.0
2023-08-15 14:38:08.845129,-107.0
2023-08-15 14:38:08.852818,-105.0
2023-08-15 14:38:08.860508,-103.0
2023-08-15 14:38:08.868198,-107.0
2023-08-15 14:38:08.875887,-81.0
2023-08-15 14:38:08.883577,-62.0
2023-08-15 14:38:08.891266,-57.0
2023-08-15 14:38:08.898956,-40.0
2023-08-15 14:38:08.906646,-35.0
2023-08-15 14:38:08.914335,-62.0
2023-08-15 14:38:08.922025,-74.0
2023-08-15 14:38:08.929714,-71.0
2023-08-15 14:38:08.937404,-91.0
2023-08-15 14:38:08.945093,-107.0
2023-08-15 14:38:08.952783,-107.0
2023-08-15 14:38:08.960473,-93.0
2023-08-15 14:38:08.968162,-100.0
2023-08-15 14:38:08.975852,-117.0
2023-08-15 14:38:08.983541,-100.0
2023-08-15 14:38:08.991231,-79.0
2023-08-15 14:38:08.998921,-93.0
2023-08-15 14:38:09.006610,-93.0
2023-08-15 14:38:09.014300,31.0
2023-08-15 14:38:09.021989,313.0
2023-08-15 14:38:09.029679,730.0
2023-08-15 14:38:09.037368,1107.0
2023-08-15 14:38:09.045058,812.0
2023-08-15 14:38:09.052748,-174.0
2023-08-15 14:38:09.060437,-603.0
2023-08-15 14:38:09.068127,-220.0
2023-08-15 14:38:09.075816,-76.0
2023-08-15 14:38:09.083506,-227.0
2023-08-15 14:38:09.091196,-208.0
2023-08-15 14:38:09.098885,-167.0
2023-08-15 14:38:09.106575,-182.0
2023-08-15 14:38:09.114264,-141.0
2023-08-15 14:38:09.121954,-112.0
2023-08-15 14:38:09.129643,-131.0
2023-08-15 14:38:09.137333,-122.0
2023-08-15 14:38:09.145023,-91.0
2023-08-15 14:38:09.152712,-79.0
2023-08-15 14:38:09.160402,-76.0
2023-08-15 14:38:09.168091,-57.0
2023-08-15 14:38:09.175781,-33.0
2023-08-15 14:38:09.183471,-26.0
2023-08-15 14:38:09.191160,-26.0
2023-08-15 14:38:09.198850,-11.0
2023-08-15 14:38:09.206539,4.0
2023-08-15 14:38:09.214229,19.0
2023-08-15 14:38:09.221918,40.0
2023-08-15 14:38:09.229608,71.0
2023-08-15 14:38:09.237298,86.0
2023-08-15 14:38:09.244987,88.0
2023-08-15 14:38:09.252677,105.0
2023-08-15 14:38:09.260366,115.0
2023-08-15 14:38:09.268056,105.0
2023-08-15 14:38:09.275746,100.0
2023-08-15 14:38:09.283435,88.0
2023-08-15 14:38:09.291125,62.0
2023-08-15 14:38:09.298814,31.0
2023-08-15 14:38:09.306504,-4.0
2023-08-15 14:38:09.314193,-35.0
2023-08-15 14:38:09.321883,-64.0
2023-08-15 14:38:09.329573,-91.0
2023-08-15 14:38:09.337262,-112.0
2023-08-15 14:38:09.344952,-136.0
2023-08-15 14:38:09.352641,-155.0
2023-08-15 14:38:09.360331,-162.0
2023-08-15 14:38:09.368021,-153.0
2023-08-15 14:38:09.375710,-148.0
2023-08-15 14:38:09.383400,-158.0
2023-08-15 14:38:09.391089,-153.0
2023-08-15 14:38:09.398779,-139.0
2023-08-15 14:38:09.406468,-136.0
2023-08-15 14:38:09.414158,-136.0
2023-08-15 14:38:09.421848,-129.0
2023-08-15 14:38:09.429537,-110.0
2023-08-15 14:38:09.437227,-110.0
2023-08-15 14:38:09.444916,-112.0
2023-08-15 14:38:09.452606,-93.0
2023-08-15 14:38:09.460296,-98.0
2023-08-15 14:38:09.467985,-122.0
2023-08-15 14:38:09.475675,-115.0
2023-08-15 14:38:09.483364,-105.0
2023-08-15 14:38:09.491054,-119.0
2023-08-15 14:38:09.498743,-115.0
2023-08-15 14:38:09.506433,-100.0
2023-08-15 14:38:09.514123,-115.0
2023-08-15 14:38:09.521812,-122.0
2023-08-15 14:38:09.529502,-105.0
2023-08-15 14:38:09.537191,-100.0
2023-08-15 14:38:09.544881,-112.0
2023-08-15 14:38:09.552571,-107.0
2023-08-15 14:38:09.560260,-95.0
2023-08-15 14:38:09.567950,-95.0
2023-08-15 14:38:09.575639,-103.0
2023-08-15 14:38:09.583329,-105.0
2023-08-15 14:38:09.591018,-105.0
2023-08-15 14:38:09.598708,-98.0
2023-08-15 14:38:09.606398,-88.0
2023-08-15 14:38:09.614087,-71.0
2023-08-15 14:38:09.621777,-55.0
2023-08-15 14:38:09.629466,-47.0
2023-08-15 14:38:09.637156,-40.0
2023-08-15 14:38:09.644845,-35.0
2023-08-15 14:38:09.652535,-45.0
2023-08-15 14:38:09.660225,-62.0
2023-08-15 14:38:09.667914,-74.0
2023-08-15 14:38:09.675604,-76.0
2023-08-15 14:38:09.683293,-79.0
2023-08-15 14:38:09.690983,-83.0
2023-08-15 14:38:09.698673,-88.0
2023-08-15 14:38:09.706362,-86.0
2023-08-15 14:38:09.714052,-81.0
2023-08-15 14:38:09.721741,-76.0
2023-08-15 14:38:09.729431,-76.0
2023-08-15 14:38:09.737120,-69.0
2023-08-15 14:38:09.744810,9.0
2023-08-15 14:38:09.752500,232.0
2023-08-15 14:38:09.760189,601.0
2023-08-15 14:38:09.767879,1044.0
2023-08-15 14:38:09.775568,1037.0
2023-08-15 14:38:09.783258,148.0
2023-08-15 14:38:09.790948,-591.0
2023-08-15 14:38:09.798637,-335.0
2023-08-15 14:38:09.806327,-45.0
2023-08-15 14:38:09.814016,-208.0
2023-08-15 14:38:09.821706,-227.0
2023-08-15 14:38:09.829395,-122.0
2023-08-15 14:38:09.837085,-153.0
2023-08-15 14:38:09.844775,-174.0
2023-08-15 14:38:09.852464,-129.0
2023-08-15 14:38:09.860154,-122.0
2023-08-15 14:38:09.867843,-124.0
2023-08-15 14:38:09.875533,-103.0
2023-08-15 14:38:09.883223,-93.0
2023-08-15 14:38:09.890912,-88.0
2023-08-15 14:38:09.898602,-69.0
2023-08-15 14:38:09.906291,-50.0
2023-08-15 14:38:09.913981,-38.0
2023-08-15 14:38:09.921670,-31.0
2023-08-15 14:38:09.929360,-19.0
2023-08-15 14:38:09.937050,0.0
2023-08-15 14:38:09.944739,19.0
2023-08-15 14:38:09.952429,38.0
2023-08-15 14:38:09.960118,59.0
2023-08-15 14:38:09.967808,76.0
2023-08-15 14:38:09.975498,81.0
2023-08-15 14:38:09.983187,74.0
2023-08-15 14:38:09.990877,67.0
2023-08-15 14:38:09.998566,69.0
2023-08-15 14:38:10.006256,74.0
2023-08-15 14:38:10.013945,64.0
2023-08-15 14:38:10.021635,45.0
2023-08-15 14:38:10.029325,23.0
2023-08-15 14:38:10.037014,0.0
2023-08-15 14:38:10.044704,-35.0
2023-08-15 14:38:10.052393,-74.0
2023-08-15 14:38:10.060083,-110.0
2023-08-15 14:38:10.067773,-139.0
2023-08-15 14:38:10.075462,-158.0
2023-08-15 14:38:10.083152,-170.0
2023-08-15 14:38:10.090841,-182.0
2023-08-15 14:38:10.098531,-186.0
2023-08-15 14:38:10.106220,-182.0
2023-08-15 14:38:10.113910,-174.0
2023-08-15 14:38:10.121600,-165.0
2023-08-15 14:38:10.129289,-155.0
2023-08-15 14:38:10.136979,-148.0
2023-08-15 14:38:10.144668,-146.0
2023-08-15 14:38:10.152358,-143.0
2023-08-15 14:38:10.160048,-134.0
2023-08-15 14:38:10.167737,-129.0
2023-08-15 14:38:10.175427,-129.0
2023-08-15 14:38:10.183116,-127.0
2023-08-15 14:38:10.190806,-122.0
2023-08-15 14:38:10.198495,-119.0
2023-08-15 14:38:10.206185,-117.0
2023-08-15 14:38:10.213875,-112.0
2023-08-15 14:38:10.221564,-112.0
2023-08-15 14:38:10.229254,-112.0
2023-08-15 14:38:10.236943,-110.0
2023-08-15 14:38:10.244633,-107.0
2023-08-15 14:38:10.252323,-107.0
2023-08-15 14:38:10.260012,-107.0
2023-08-15 14:38:10.267702,-105.0
2023-08-15 14:38:10.275391,-98.0
2023-08-15 14:38:10.283081,-95.0
2023-08-15 14:38:10.290770,-98.0
2023-08-15 14:38:10.298460,-100.0
2023-08-15 14:38:10.306150,-100.0
2023-08-15 14:38:10.313839,-95.0
2023-08-15 14:38:10.321529,-93.0
2023-08-15 14:38:10.329218,-95.0
2023-08-15 14:38:10.336908,-88.0
2023-08-15 14:38:10.344598,-71.0
2023-08-15 14:38:10.352287,-57.0
2023-08-15 14:38:10.359977,-43.0
2023-08-15 14:38:10.367666,-26.0
2023-08-15 14:38:10.375356,-26.0
2023-08-15 14:38:10.383045,-38.0
2023-08-15 14:38:10.390735,-50.0
2023-08-15 14:38:10.398425,-59.0
2023-08-15 14:38:10.406114,-69.0
2023-08-15 14:38:10.413804,-74.0
2023-08-15 14:38:10.421493,-74.0
2023-08-15 14:38:10.429183,-76.0
2023-08-15 14:38:10.436873,-76.0
2023-08-15 14:38:10.444562,-74.0
2023-08-15 14:38:10.452252,-74.0
2023-08-15 14:38:10.459941,-71.0
2023-08-15 14:38:10.467631,-69.0
2023-08-15 14:38:10.475320,-45.0
2023-08-15 14:38:10.483010,119.0
2023-08-15 14:38:10.490700,496.0
2023-08-15 14:38:10.498389,968.0
2023-08-15 14:38:10.506079,1200.0
2023-08-15 14:38:10.513768,608.0
2023-08-15 14:38:10.521458,-479.0
2023-08-15 14:38:10.529148,-699.0
2023-08-15 14:38:10.536837,-170.0
2023-08-15 14:38:10.544527,-81.0
2023-08-15 14:38:10.552216,-246.0
2023-08-15 14:38:10.559906,-160.0
2023-08-15 14:38:10.567595,-95.0
2023-08-15 14:38:10.575285,-148.0
2023-08-15 14:38:10.582975,-127.0
2023-08-15 14:38:10.590664,-81.0
2023-08-15 14:38:10.598354,-86.0
2023-08-15 14:38:10.606043,-83.0
2023-08-15 14:38:10.613733,-76.0
2023-08-15 14:38:10.621423,-74.0
2023-08-15 14:38:10.629112,-59.0
2023-08-15 14:38:10.636802,-43.0
2023-08-15 14:38:10.644491,-31.0
2023-08-15 14:38:10.652181,-14.0
2023-08-15 14:38:10.659870,2.0
2023-08-15 14:38:10.667560,16.0
2023-08-15 14:38:10.675250,31.0
2023-08-15 14:38:10.682939,52.0
2023-08-15 14:38:10.690629,74.0
2023-08-15 14:38:10.698318,95.0
2023-08-15 14:38:10.706008,115.0
2023-08-15 14:38:10.713698,124.0
2023-08-15 14:38:10.721387,131.0
2023-08-15 14:38:10.729077,127.0
2023-08-15 14:38:10.736766,117.0
2023-08-15 14:38:10.744456,105.0
2023-08-15 14:38:10.752145,88.0
2023-08-15 14:38:10.759835,64.0
2023-08-15 14:38:10.767525,38.0
2023-08-15 14:38:10.775214,7.0
2023-08-15 14:38:10.782904,-28.0
2023-08-15 14:38:10.790593,-67.0
2023-08-15 14:38:10.798283,-103.0
2023-08-15 14:38:10.805973,-127.0
2023-08-15 14:38:10.813662,-146.0
2023-08-15 14:38:10.821352,-162.0
2023-08-15 14:38:10.829041,-165.0
2023-08-15 14:38:10.836731,-162.0
2023-08-15 14:38:10.844420,-162.0
2023-08-15 14:38:10.852110,-162.0
2023-08-15 14:38:10.859800,-155.0
2023-08-15 14:38:10.867489,-146.0
2023-08-15 14:38:10.875179,-136.0
2023-08-15 14:38:10.882868,-129.0
2023-08-15 14:38:10.890558,-122.0
2023-08-15 14:38:10.898248,-117.0
2023-08-15 14:38:10.905937,-110.0
2023-08-15 14:38:10.913627,-105.0
2023-08-15 14:38:10.921316,-105.0
2023-08-15 14:38:10.929006,-103.0
2023-08-15 14:38:10.936695,-103.0
2023-08-15 14:38:10.944385,-103.0
2023-08-15 14:38:10.952075,-100.0
2023-08-15 14:38:10.959764,-100.0
2023-08-15 14:38:10.967454,-98.0
2023-08-15 14:38:10.975143,-100.0
2023-08-15 14:38:10.982833,-110.0
2023-08-15 14:38:10.990522,-112.0
2023-08-15 14:38:10.998212,-107.0
2023-08-15 14:38:11.005902,-105.0
2023-08-15 14:38:11.013591,-105.0
2023-08-15 14:38:11.021281,-105.0
2023-08-15 14:38:11.028970,-100.0
2023-08-15 14:38:11.036660,-100.0
2023-08-15 14:38:11.044350,-100.0
2023-08-15 14:38:11.052039,-100.0
2023-08-15 14:38:11.059729,-105.0
2023-08-15 14:38:11.067418,-110.0
2023-08-15 14:38:11.075108,-103.0
2023-08-15 14:38:11.082797,-86.0
2023-08-15 14:38:11.090487,-67.0
2023-08-15 14:38:11.098177,-52.0
2023-08-15 14:38:11.105866,-38.0
2023-08-15 14:38:11.113556,-31.0
2023-08-15 14:38:11.121245,-40.0
2023-08-15 14:38:11.128935,-57.0
2023-08-15 14:38:11.136625,-67.0
2023-08-15 14:38:11.144314,-76.0
2023-08-15 14:38:11.152004,-93.0
2023-08-15 14:38:11.159693,-105.0
2023-08-15 14:38:11.167383,-105.0
2023-08-15 14:38:11.175072,-100.0
2023-08-15 14:38:11.182762,-98.0
2023-08-15 14:38:11.190452,-95.0
2023-08-15 14:38:11.198141,-95.0
2023-08-15 14:38:11.205831,-86.0
2023-08-15 14:38:11.213520,-59.0
2023-08-15 14:38:11.221210,64.0
2023-08-15 14:38:11.228900,366.0
2023-08-15 14:38:11.236589,831.0
2023-08-15 14:38:11.244279,1251.0
2023-08-15 14:38:11.251968,946.0
2023-08-15 14:38:11.259658,-153.0
2023-08-15 14:38:11.267347,-673.0
2023-08-15 14:38:11.275037,-232.0
2023-08-15 14:38:11.282727,-59.0
2023-08-15 14:38:11.290416,-263.0
2023-08-15 14:38:11.298106,-213.0
2023-08-15 14:38:11.305795,-119.0
2023-08-15 14:38:11.313485,-174.0
2023-08-15 14:38:11.321175,-167.0
2023-08-15 14:38:11.328864,-117.0
2023-08-15 14:38:11.336554,-124.0
2023-08-15 14:38:11.344243,-124.0
2023-08-15 14:38:11.351933,-95.0
2023-08-15 14:38:11.359622,-83.0
2023-08-15 14:38:11.367312,-81.0
2023-08-15 14:38:11.375002,-62.0
2023-08-15 14:38:11.382691,-47.0
2023-08-15 14:38:11.390381,-33.0
2023-08-15 14:38:11.398070,-16.0
2023-08-15 14:38:11.405760,0.0
2023-08-15 14:38:11.413450,16.0
2023-08-15 14:38:11.421139,35.0
2023-08-15 14:38:11.428829,55.0
2023-08-15 14:38:11.436518,74.0
2023-08-15 14:38:11.444208,93.0
2023-08-15 14:38:11.451897,105.0
2023-08-15 14:38:11.459587,112.0
2023-08-15 14:38:11.467277,112.0
2023-08-15 14:38:11.474966,103.0
2023-08-15 14:38:11.482656,88.0
2023-08-15 14:38:11.490345,71.0
2023-08-15 14:38:11.498035,55.0
2023-08-15 14:38:11.505725,33.0
2023-08-15 14:38:11.513414,0.0
2023-08-15 14:38:11.521104,-35.0
2023-08-15 14:38:11.528793,-69.0
2023-08-15 14:38:11.536483,-103.0
2023-08-15 14:38:11.544172,-134.0
2023-08-15 14:38:11.551862,-153.0
2023-08-15 14:38:11.559552,-167.0
2023-08-15 14:38:11.567241,-174.0
2023-08-15 14:38:11.574931,-174.0
2023-08-15 14:38:11.582620,-172.0
2023-08-15 14:38:11.590310,-167.0
2023-08-15 14:38:11.598000,-162.0
2023-08-15 14:38:11.605689,-158.0
2023-08-15 14:38:11.613379,-148.0
2023-08-15 14:38:11.621068,-141.0
2023-08-15 14:38:11.628758,-134.0
2023-08-15 14:38:11.636447,-127.0
2023-08-15 14:38:11.644137,-122.0
2023-08-15 14:38:11.651827,-117.0
2023-08-15 14:38:11.659516,-117.0
2023-08-15 14:38:11.667206,-115.0
2023-08-15 14:38:11.674895,-115.0
2023-08-15 14:38:11.682585,-115.0
2023-08-15 14:38:11.690275,-122.0
2023-08-15 14:38:11.697964,-127.0
2023-08-15 14:38:11.705654,-124.0
2023-08-15 14:38:11.713343,-122.0
2023-08-15 14:38:11.721033,-122.0
2023-08-15 14:38:11.728722,-122.0
2023-08-15 14:38:11.736412,-122.0
2023-08-15 14:38:11.744102,-119.0
2023-08-15 14:38:11.751791,-117.0
2023-08-15 14:38:11.759481,-115.0
2023-08-15 14:38:11.767170,-112.0
2023-08-15 14:38:11.774860,-110.0
2023-08-15 14:38:11.782550,-110.0
2023-08-15 14:38:11.790239,-105.0
2023-08-15 14:38:11.797929,-103.0
2023-08-15 14:38:11.805618,-103.0
2023-08-15 14:38:11.813308,-100.0
2023-08-15 14:38:11.820997,-103.0
2023-08-15 14:38:11.828687,-105.0
2023-08-15 14:38:11.836377,-107.0
2023-08-15 14:38:11.844066,-107.0
2023-08-15 14:38:11.851756,-107.0
2023-08-15 14:38:11.859445,-98.0
2023-08-15 14:38:11.867135,-79.0
2023-08-15 14:38:11.874825,-64.0
2023-08-15 14:38:11.882514,-52.0
2023-08-15 14:38:11.890204,-38.0
2023-08-15 14:38:11.897893,-38.0
2023-08-15 14:38:11.905583,-52.0
2023-08-15 14:38:11.913272,-69.0
2023-08-15 14:38:11.920962,-79.0
2023-08-15 14:38:11.928652,-86.0
2023-08-15 14:38:11.936341,-91.0
2023-08-15 14:38:11.944031,-91.0
2023-08-15 14:38:11.951720,-88.0
2023-08-15 14:38:11.959410,-86.0
2023-08-15 14:38:11.967100,-83.0
2023-08-15 14:38:11.974789,-81.0
2023-08-15 14:38:11.982479,-76.0
2023-08-15 14:38:11.990168,-69.0
2023-08-15 14:38:11.997858,-19.0
2023-08-15 14:38:12.005547,167.0
2023-08-15 14:38:12.013237,520.0
2023-08-15 14:38:12.020927,1016.0
2023-08-15 14:38:12.028616,1243.0
2023-08-15 14:38:12.036306,515.0
2023-08-15 14:38:12.043995,-515.0
2023-08-15 14:38:12.051685,-515.0
2023-08-15 14:38:12.059375,-74.0
2023-08-15 14:38:12.067064,-158.0
2023-08-15 14:38:12.074754,-278.0
2023-08-15 14:38:12.082443,-155.0
2023-08-15 14:38:12.090133,-143.0
2023-08-15 14:38:12.097822,-194.0
2023-08-15 14:38:12.105512,-150.0
2023-08-15 14:38:12.113202,-117.0
2023-08-15 14:38:12.120891,-124.0
2023-08-15 14:38:12.128581,-110.0
2023-08-15 14:38:12.136270,-91.0
2023-08-15 14:38:12.143960,-88.0
2023-08-15 14:38:12.151650,-79.0
2023-08-15 14:38:12.159339,-59.0
2023-08-15 14:38:12.167029,-47.0
2023-08-15 14:38:12.174718,-33.0
2023-08-15 14:38:12.182408,-14.0
2023-08-15 14:38:12.190097,2.0
2023-08-15 14:38:12.197787,21.0
2023-08-15 14:38:12.205477,43.0
2023-08-15 14:38:12.213166,62.0
2023-08-15 14:38:12.220856,79.0
2023-08-15 14:38:12.228545,93.0
2023-08-15 14:38:12.236235,100.0
2023-08-15 14:38:12.243925,105.0
2023-08-15 14:38:12.251614,105.0
2023-08-15 14:38:12.259304,98.0
2023-08-15 14:38:12.266993,86.0
2023-08-15 14:38:12.274683,64.0
2023-08-15 14:38:12.282372,38.0
2023-08-15 14:38:12.290062,16.0
2023-08-15 14:38:12.297752,-7.0
2023-08-15 14:38:12.305441,-43.0
2023-08-15 14:38:12.313131,-79.0
2023-08-15 14:38:12.320820,-110.0
2023-08-15 14:38:12.328510,-134.0
2023-08-15 14:38:12.336200,-153.0
2023-08-15 14:38:12.343889,-162.0
2023-08-15 14:38:12.351579,-162.0
2023-08-15 14:38:12.359268,-165.0
2023-08-15 14:38:12.366958,-162.0
2023-08-15 14:38:12.374647,-158.0
2023-08-15 14:38:12.382337,-150.0
2023-08-15 14:38:12.390027,-146.0
2023-08-15 14:38:12.397716,-143.0
2023-08-15 14:38:12.405406,-136.0
2023-08-15 14:38:12.413095,-134.0
2023-08-15 14:38:12.420785,-131.0
2023-08-15 14:38:12.428474,-127.0
2023-08-15 14:38:12.436164,-119.0
2023-08-15 14:38:12.443854,-117.0
2023-08-15 14:38:12.451543,-115.0
2023-08-15 14:38:12.459233,-115.0
2023-08-15 14:38:12.466922,-115.0
2023-08-15 14:38:12.474612,-112.0
2023-08-15 14:38:12.482302,-112.0
2023-08-15 14:38:12.489991,-112.0
2023-08-15 14:38:12.497681,-115.0
2023-08-15 14:38:12.505370,-119.0
2023-08-15 14:38:12.513060,-117.0
2023-08-15 14:38:12.520749,-115.0
2023-08-15 14:38:12.528439,-112.0
2023-08-15 14:38:12.536129,-112.0
2023-08-15 14:38:12.543818,-112.0
2023-08-15 14:38:12.551508,-110.0
2023-08-15 14:38:12.559197,-105.0
2023-08-15 14:38:12.566887,-103.0
2023-08-15 14:38:12.574577,-103.0
2023-08-15 14:38:12.582266,-100.0
2023-08-15 14:38:12.589956,-103.0
2023-08-15 14:38:12.597645,-105.0
2023-08-15 14:38:12.605335,-103.0
2023-08-15 14:38:12.613024,-98.0
2023-08-15 14:38:12.620714,-98.0
2023-08-15 14:38:12.628404,-95.0
2023-08-15 14:38:12.636093,-95.0
2023-08-15 14:38:12.643783,-105.0
2023-08-15 14:38:12.651472,-112.0
2023-08-15 14:38:12.659162,-110.0
2023-08-15 14:38:12.666852,-98.0
2023-08-15 14:38:12.674541,-81.0
2023-08-15 14:38:12.682231,-67.0
2023-08-15 14:38:12.689920,-55.0
2023-08-15 14:38:12.697610,-45.0
2023-08-15 14:38:12.705299,-33.0
2023-08-15 14:38:12.712989,-38.0
2023-08-15 14:38:12.720679,-57.0
2023-08-15 14:38:12.728368,-69.0
2023-08-15 14:38:12.736058,-71.0
2023-08-15 14:38:12.743747,-81.0
2023-08-15 14:38:12.751437,-88.0
2023-08-15 14:38:12.759127,-88.0
2023-08-15 14:38:12.766816,-91.0
2023-08-15 14:38:12.774506,-93.0
2023-08-15 14:38:12.782195,-91.0
2023-08-15 14:38:12.789885,-86.0
2023-08-15 14:38:12.797574,-83.0
2023-08-15 14:38:12.805264,-52.0
2023-08-15 14:38:12.812954,95.0
2023-08-15 14:38:12.820643,409.0
2023-08-15 14:38:12.828333,884.0
2023-08-15 14:38:12.836022,1222.0
2023-08-15 14:38:12.843712,699.0
2023-08-15 14:38:12.851402,-376.0
2023-08-15 14:38:12.859091,-611.0
2023-08-15 14:38:12.866781,-160.0
2023-08-15 14:38:12.874470,-141.0
2023-08-15 14:38:12.882160,-309.0
2023-08-15 14:38:12.889849,-218.0
2023-08-15 14:38:12.897539,-167.0
2023-08-15 14:38:12.905229,-215.0
2023-08-15 14:38:12.912918,-189.0
2023-08-15 14:38:12.920608,-150.0
2023-08-15 14:38:12.928297,-155.0
2023-08-15 14:38:12.935987,-146.0
2023-08-15 14:38:12.943677,-122.0
2023-08-15 14:38:12.951366,-112.0
2023-08-15 14:38:12.959056,-105.0
2023-08-15 14:38:12.966745,-88.0
2023-08-15 14:38:12.974435,-74.0
2023-08-15 14:38:12.982124,-57.0
2023-08-15 14:38:12.989814,-38.0
2023-08-15 14:38:12.997504,-21.0
2023-08-15 14:38:13.005193,-9.0
2023-08-15 14:38:13.012883,4.0
2023-08-15 14:38:13.020572,23.0
2023-08-15 14:38:13.028262,45.0
2023-08-15 14:38:13.035952,59.0
2023-08-15 14:38:13.043641,67.0
2023-08-15 14:38:13.051331,71.0
2023-08-15 14:38:13.059020,71.0
2023-08-15 14:38:13.066710,64.0
2023-08-15 14:38:13.074399,55.0
2023-08-15 14:38:13.082089,45.0
2023-08-15 14:38:13.089779,26.0
2023-08-15 14:38:13.097468,4.0
2023-08-15 14:38:13.105158,-21.0
2023-08-15 14:38:13.112847,-52.0
2023-08-15 14:38:13.120537,-83.0
2023-08-15 14:38:13.128227,-115.0
2023-08-15 14:38:13.135916,-141.0
2023-08-15 14:38:13.143606,-160.0
2023-08-15 14:38:13.151295,-172.0
2023-08-15 14:38:13.158985,-179.0
2023-08-15 14:38:13.166674,-179.0
2023-08-15 14:38:13.174364,-174.0
2023-08-15 14:38:13.182054,-170.0
2023-08-15 14:38:13.189743,-165.0
2023-08-15 14:38:13.197433,-160.0
2023-08-15 14:38:13.205122,-153.0
2023-08-15 14:38:13.212812,-146.0
2023-08-15 14:38:13.220502,-141.0
2023-08-15 14:38:13.228191,-136.0
2023-08-15 14:38:13.235881,-134.0
2023-08-15 14:38:13.243570,-131.0
2023-08-15 14:38:13.251260,-129.0
2023-08-15 14:38:13.258949,-124.0
2023-08-15 14:38:13.266639,-119.0
2023-08-15 14:38:13.274329,-119.0
2023-08-15 14:38:13.282018,-119.0
2023-08-15 14:38:13.289708,-117.0
2023-08-15 14:38:13.297397,-115.0
2023-08-15 14:38:13.305087,-117.0
2023-08-15 14:38:13.312777,-112.0
2023-08-15 14:38:13.320466,-110.0
2023-08-15 14:38:13.328156,-112.0
2023-08-15 14:38:13.335845,-115.0
2023-08-15 14:38:13.343535,-110.0
2023-08-15 14:38:13.351224,-110.0
2023-08-15 14:38:13.358914,-117.0
2023-08-15 14:38:13.366604,-117.0
2023-08-15 14:38:13.374293,-112.0
2023-08-15 14:38:13.381983,-115.0
2023-08-15 14:38:13.389672,-117.0
2023-08-15 14:38:13.397362,-115.0
2023-08-15 14:38:13.405052,-115.0
2023-08-15 14:38:13.412741,-112.0
2023-08-15 14:38:13.420431,-107.0
2023-08-15 14:38:13.428120,-105.0
2023-08-15 14:38:13.435810,-107.0
2023-08-15 14:38:13.443499,-110.0
2023-08-15 14:38:13.451189,-115.0
2023-08-15 14:38:13.458879,-107.0
2023-08-15 14:38:13.466568,-88.0
2023-08-15 14:38:13.474258,-71.0
2023-08-15 14:38:13.481947,-64.0
2023-08-15 14:38:13.489637,-55.0
2023-08-15 14:38:13.497327,-47.0
2023-08-15 14:38:13.505016,-59.0
2023-08-15 14:38:13.512706,-83.0
2023-08-15 14:38:13.520395,-98.0
2023-08-15 14:38:13.528085,-107.0
2023-08-15 14:38:13.535774,-112.0
2023-08-15 14:38:13.543464,-110.0
2023-08-15 14:38:13.551154,-105.0
2023-08-15 14:38:13.558843,-103.0
2023-08-15 14:38:13.566533,-103.0
2023-08-15 14:38:13.574222,-103.0
2023-08-15 14:38:13.581912,-98.0
2023-08-15 14:38:13.589602,-91.0
2023-08-15 14:38:13.597291,-64.0
2023-08-15 14:38:13.604981,76.0
2023-08-15 14:38:13.612670,405.0
2023-08-15 14:38:13.620360,841.0
2023-08-15 14:38:13.628049,1097.0
2023-08-15 14:38:13.635739,615.0
2023-08-15 14:38:13.643429,-395.0
2023-08-15 14:38:13.651118,-666.0
2023-08-15 14:38:13.658808,-189.0
2023-08-15 14:38:13.666497,-74.0
2023-08-15 14:38:13.674187,-239.0
2023-08-15 14:38:13.681877,-174.0
2023-08-15 14:38:13.689566,-107.0
2023-08-15 14:38:13.697256,-155.0
2023-08-15 14:38:13.704945,-139.0
2023-08-15 14:38:13.712635,-93.0
2023-08-15 14:38:13.720324,-98.0
2023-08-15 14:38:13.728014,-95.0
2023-08-15 14:38:13.735704,-71.0
2023-08-15 14:38:13.743393,-57.0
2023-08-15 14:38:13.751083,-50.0
2023-08-15 14:38:13.758772,-35.0
2023-08-15 14:38:13.766462,-21.0
2023-08-15 14:38:13.774151,-7.0
2023-08-15 14:38:13.781841,9.0
2023-08-15 14:38:13.789531,28.0
2023-08-15 14:38:13.797220,45.0
2023-08-15 14:38:13.804910,59.0
2023-08-15 14:38:13.812599,81.0
2023-08-15 14:38:13.820289,103.0
2023-08-15 14:38:13.827979,117.0
2023-08-15 14:38:13.835668,124.0
2023-08-15 14:38:13.843358,124.0
2023-08-15 14:38:13.851047,122.0
2023-08-15 14:38:13.858737,117.0
2023-08-15 14:38:13.866426,103.0
2023-08-15 14:38:13.874116,86.0
2023-08-15 14:38:13.881806,69.0
2023-08-15 14:38:13.889495,47.0
2023-08-15 14:38:13.897185,16.0
2023-08-15 14:38:13.904874,-16.0
2023-08-15 14:38:13.912564,-45.0
2023-08-15 14:38:13.920254,-74.0
2023-08-15 14:38:13.927943,-103.0
2023-08-15 14:38:13.935633,-131.0
2023-08-15 14:38:13.943322,-155.0
2023-08-15 14:38:13.951012,-165.0
2023-08-15 14:38:13.958701,-160.0
2023-08-15 14:38:13.966391,-155.0
2023-08-15 14:38:13.974081,-153.0
2023-08-15 14:38:13.981770,-150.0
2023-08-15 14:38:13.989460,-143.0
2023-08-15 14:38:13.997149,-136.0
2023-08-15 14:38:14.004839,-134.0
2023-08-15 14:38:14.012529,-127.0
2023-08-15 14:38:14.020218,-127.0
2023-08-15 14:38:14.027908,-129.0
2023-08-15 14:38:14.035597,-127.0
2023-08-15 14:38:14.043287,-122.0
2023-08-15 14:38:14.050976,-124.0
2023-08-15 14:38:14.058666,-122.0
2023-08-15 14:38:14.066356,-122.0
2023-08-15 14:38:14.074045,-124.0
2023-08-15 14:38:14.081735,-127.0
2023-08-15 14:38:14.089424,-122.0
2023-08-15 14:38:14.097114,-122.0
2023-08-15 14:38:14.104804,-122.0
2023-08-15 14:38:14.112493,-117.0
2023-08-15 14:38:14.120183,-117.0
2023-08-15 14:38:14.127872,-122.0
2023-08-15 14:38:14.135562,-122.0
2023-08-15 14:38:14.143251,-119.0
2023-08-15 14:38:14.150941,-117.0
2023-08-15 14:38:14.158631,-110.0
2023-08-15 14:38:14.166320,-107.0
2023-08-15 14:38:14.174010,-112.0
2023-08-15 14:38:14.181699,-115.0
2023-08-15 14:38:14.189389,-115.0
2023-08-15 14:38:14.197079,-110.0
2023-08-15 14:38:14.204768,-95.0
2023-08-15 14:38:14.212458,-83.0
2023-08-15 14:38:14.220147,-71.0
2023-08-15 14:38:14.227837,-57.0
2023-08-15 14:38:14.235526,-47.0
2023-08-15 14:38:14.243216,-55.0
2023-08-15 14:38:14.250906,-64.0
2023-08-15 14:38:14.258595,-79.0
2023-08-15 14:38:14.266285,-93.0
2023-08-15 14:38:14.273974,-100.0
2023-08-15 14:38:14.281664,-100.0
2023-08-15 14:38:14.289354,-95.0
2023-08-15 14:38:14.297043,-95.0
2023-08-15 14:38:14.304733,-95.0
2023-08-15 14:38:14.312422,-95.0
2023-08-15 14:38:14.320112,-93.0
2023-08-15 14:38:14.327801,-88.0
2023-08-15 14:38:14.335491,-76.0
2023-08-15 14:38:14.343181,-16.0
2023-08-15 14:38:14.350870,218.0
2023-08-15 14:38:14.358560,649.0
2023-08-15 14:38:14.366249,1076.0
2023-08-15 14:38:14.373939,1088.0
2023-08-15 14:38:14.381629,246.0
2023-08-15 14:38:14.389318,-730.0
2023-08-15 14:38:14.397008,-637.0
2023-08-15 14:38:14.404697,-105.0
2023-08-15 14:38:14.412387,-129.0
2023-08-15 14:38:14.420076,-244.0
2023-08-15 14:38:14.427766,-127.0
2023-08-15 14:38:14.435456,-105.0
2023-08-15 14:38:14.443145,-150.0
2023-08-15 14:38:14.450835,-115.0
2023-08-15 14:38:14.458524,-83.0
2023-08-15 14:38:14.466214,-86.0
2023-08-15 14:38:14.473904,-71.0
2023-08-15 14:38:14.481593,-52.0
2023-08-15 14:38:14.489283,-47.0
2023-08-15 14:38:14.496972,-35.0
2023-08-15 14:38:14.504662,-19.0
2023-08-15 14:38:14.512351,-7.0
2023-08-15 14:38:14.520041,7.0
2023-08-15 14:38:14.527731,23.0
2023-08-15 14:38:14.535420,35.0
2023-08-15 14:38:14.543110,52.0
2023-08-15 14:38:14.550799,74.0
2023-08-15 14:38:14.558489,95.0
2023-08-15 14:38:14.566179,112.0
2023-08-15 14:38:14.573868,117.0
2023-08-15 14:38:14.581558,122.0
2023-08-15 14:38:14.589247,127.0
2023-08-15 14:38:14.596937,119.0
2023-08-15 14:38:14.604626,105.0
2023-08-15 14:38:14.612316,88.0
2023-08-15 14:38:14.620006,64.0
2023-08-15 14:38:14.627695,45.0
2023-08-15 14:38:14.635385,21.0
2023-08-15 14:38:14.643074,-11.0
2023-08-15 14:38:14.650764,-50.0
2023-08-15 14:38:14.658454,-88.0
2023-08-15 14:38:14.666143,-131.0
2023-08-15 14:38:14.673833,-158.0
2023-08-15 14:38:14.681522,-172.0
2023-08-15 14:38:14.689212,-184.0
2023-08-15 14:38:14.696901,-186.0
2023-08-15 14:38:14.704591,-182.0
2023-08-15 14:38:14.712281,-179.0
2023-08-15 14:38:14.719970,-174.0
2023-08-15 14:38:14.727660,-165.0
2023-08-15 14:38:14.735349,-158.0
2023-08-15 14:38:14.743039,-153.0
2023-08-15 14:38:14.750729,-148.0
2023-08-15 14:38:14.758418,-141.0
2023-08-15 14:38:14.766108,-134.0
2023-08-15 14:38:14.773797,-129.0
2023-08-15 14:38:14.781487,-127.0
2023-08-15 14:38:14.789176,-124.0
2023-08-15 14:38:14.796866,-124.0
2023-08-15 14:38:14.804556,-124.0
2023-08-15 14:38:14.812245,-127.0
2023-08-15 14:38:14.819935,-127.0
2023-08-15 14:38:14.827624,-127.0
2023-08-15 14:38:14.835314,-124.0
2023-08-15 14:38:14.843004,-127.0
2023-08-15 14:38:14.850693,-124.0
2023-08-15 14:38:14.858383,-124.0
2023-08-15 14:38:14.866072,-129.0
2023-08-15 14:38:14.873762,-127.0
2023-08-15 14:38:14.881451,-122.0
2023-08-15 14:38:14.889141,-122.0
2023-08-15 14:38:14.896831,-119.0
2023-08-15 14:38:14.904520,-117.0
2023-08-15 14:38:14.912210,-115.0
2023-08-15 14:38:14.919899,-115.0
2023-08-15 14:38:14.927589,-117.0
2023-08-15 14:38:14.935279,-119.0
2023-08-15 14:38:14.942968,-122.0
2023-08-15 14:38:14.950658,-119.0
2023-08-15 14:38:14.958347,-105.0
2023-08-15 14:38:14.966037,-88.0
2023-08-15 14:38:14.973726,-76.0
2023-08-15 14:38:14.981416,-64.0
2023-08-15 14:38:14.989106,-55.0
2023-08-15 14:38:14.996795,-62.0
2023-08-15 14:38:15.004485,-79.0
2023-08-15 14:38:15.012174,-93.0
2023-08-15 14:38:15.019864,-100.0
2023-08-15 14:38:15.027554,-107.0
2023-08-15 14:38:15.035243,-117.0
2023-08-15 14:38:15.042933,-117.0
2023-08-15 14:38:15.050622,-112.0
2023-08-15 14:38:15.058312,-110.0
2023-08-15 14:38:15.066001,-115.0
2023-08-15 14:38:15.073691,-115.0
2023-08-15 14:38:15.081381,-105.0
2023-08-15 14:38:15.089070,-74.0
2023-08-15 14:38:15.096760,62.0
2023-08-15 14:38:15.104449,373.0
2023-08-15 14:38:15.112139,831.0
2023-08-15 14:38:15.119828,1205.0
2023-08-15 14:38:15.127518,841.0
2023-08-15 14:38:15.135208,-244.0
2023-08-15 14:38:15.142897,-687.0
2023-08-15 14:38:15.150587,-230.0
2023-08-15 14:38:15.158276,-83.0
2023-08-15 14:38:15.165966,-282.0
2023-08-15 14:38:15.173656,-222.0
2023-08-15 14:38:15.181345,-139.0
2023-08-15 14:38:15.189035,-191.0
2023-08-15 14:38:15.196724,-182.0
2023-08-15 14:38:15.204414,-131.0
2023-08-15 14:38:15.212103,-131.0
2023-08-15 14:38:15.219793,-127.0
2023-08-15 14:38:15.227483,-100.0
2023-08-15 14:38:15.235172,-88.0
2023-08-15 14:38:15.242862,-81.0
2023-08-15 14:38:15.250551,-69.0
2023-08-15 14:38:15.258241,-50.0
2023-08-15 14:38:15.265931,-33.0
2023-08-15 14:38:15.273620,-16.0
2023-08-15 14:38:15.281310,-2.0
2023-08-15 14:38:15.288999,16.0
2023-08-15 14:38:15.296689,38.0
2023-08-15 14:38:15.304378,59.0
2023-08-15 14:38:15.312068,79.0
2023-08-15 14:38:15.319758,93.0
2023-08-15 14:38:15.327447,103.0
2023-08-15 14:38:15.335137,105.0
2023-08-15 14:38:15.342826,105.0
2023-08-15 14:38:15.350516,98.0
2023-08-15 14:38:15.358206,83.0
2023-08-15 14:38:15.365895,67.0
2023-08-15 14:38:15.373585,47.0
2023-08-15 14:38:15.381274,23.0
2023-08-15 14:38:15.388964,-2.0
2023-08-15 14:38:15.396653,-38.0
2023-08-15 14:38:15.404343,-74.0
2023-08-15 14:38:15.412033,-105.0
2023-08-15 14:38:15.419722,-131.0
2023-08-15 14:38:15.427412,-155.0
2023-08-15 14:38:15.435101,-167.0
2023-08-15 14:38:15.442791,-170.0
2023-08-15 14:38:15.450481,-170.0
2023-08-15 14:38:15.458170,-167.0
2023-08-15 14:38:15.465860,-162.0
2023-08-15 14:38:15.473549,-158.0
2023-08-15 14:38:15.481239,-150.0
2023-08-15 14:38:15.488928,-141.0
2023-08-15 14:38:15.496618,-134.0
2023-08-15 14:38:15.504308,-127.0
2023-08-15 14:38:15.511997,-124.0
2023-08-15 14:38:15.519687,-119.0
2023-08-15 14:38:15.527376,-115.0
2023-08-15 14:38:15.535066,-115.0
2023-08-15 14:38:15.542756,-119.0
2023-08-15 14:38:15.550445,-119.0
2023-08-15 14:38:15.558135,-115.0
2023-08-15 14:38:15.565824,-115.0
2023-08-15 14:38:15.573514,-117.0
2023-08-15 14:38:15.581203,-119.0
2023-08-15 14:38:15.588893,-119.0
2023-08-15 14:38:15.596583,-119.0
2023-08-15 14:38:15.604272,-131.0
2023-08-15 14:38:15.611962,-146.0
2023-08-15 14:38:15.619651,-146.0
2023-08-15 14:38:15.627341,-136.0
2023-08-15 14:38:15.635031,-124.0
2023-08-15 14:38:15.642720,-127.0
2023-08-15 14:38:15.650410,-136.0
2023-08-15 14:38:15.658099,-129.0
2023-08-15 14:38:15.665789,-119.0
2023-08-15 14:38:15.673478,-122.0
2023-08-15 14:38:15.681168,-122.0
2023-08-15 14:38:15.688858,-112.0
2023-08-15 14:38:15.696547,-112.0
2023-08-15 14:38:15.704237,-117.0
2023-08-15 14:38:15.711926,-124.0
2023-08-15 14:38:15.719616,-136.0
2023-08-15 14:38:15.727306,-131.0
2023-08-15 14:38:15.734995,-115.0
2023-08-15 14:38:15.742685,-105.0
2023-08-15 14:38:15.750374,-91.0
2023-08-15 14:38:15.758064,-71.0
2023-08-15 14:38:15.765753,-62.0
2023-08-15 14:38:15.773443,-55.0
2023-08-15 14:38:15.781133,-64.0
2023-08-15 14:38:15.788822,-91.0
2023-08-15 14:38:15.796512,-100.0
2023-08-15 14:38:15.804201,-103.0
2023-08-15 14:38:15.811891,-105.0
2023-08-15 14:38:15.819581,-107.0
2023-08-15 14:38:15.827270,-105.0
2023-08-15 14:38:15.834960,-103.0
2023-08-15 14:38:15.842649,-110.0
2023-08-15 14:38:15.850339,-119.0
2023-08-15 14:38:15.858028,-103.0
2023-08-15 14:38:15.865718,-81.0
2023-08-15 14:38:15.873408,-55.0
2023-08-15 14:38:15.881097,81.0
2023-08-15 14:38:15.888787,393.0
2023-08-15 14:38:15.896476,838.0
2023-08-15 14:38:15.904166,1119.0
2023-08-15 14:38:15.911856,603.0
2023-08-15 14:38:15.919545,-378.0
2023-08-15 14:38:15.927235,-553.0
2023-08-15 14:38:15.934924,-110.0
2023-08-15 14:38:15.942614,-93.0
2023-08-15 14:38:15.950303,-246.0
2023-08-15 14:38:15.957993,-155.0
2023-08-15 14:38:15.965683,-122.0
2023-08-15 14:38:15.973372,-174.0
2023-08-15 14:38:15.981062,-141.0
2023-08-15 14:38:15.988751,-103.0
2023-08-15 14:38:15.996441,-112.0
2023-08-15 14:38:16.004131,-100.0
2023-08-15 14:38:16.011820,-83.0
2023-08-15 14:38:16.019510,-76.0
2023-08-15 14:38:16.027199,-62.0
2023-08-15 14:38:16.034889,-45.0
2023-08-15 14:38:16.042578,-40.0
2023-08-15 14:38:16.050268,-28.0
2023-08-15 14:38:16.057958,-11.0
2023-08-15 14:38:16.065647,2.0
2023-08-15 14:38:16.073337,16.0
2023-08-15 14:38:16.081026,38.0
2023-08-15 14:38:16.088716,55.0
2023-08-15 14:38:16.096406,71.0
2023-08-15 14:38:16.104095,83.0
2023-08-15 14:38:16.111785,88.0
2023-08-15 14:38:16.119474,93.0
2023-08-15 14:38:16.127164,98.0
2023-08-15 14:38:16.134853,95.0
2023-08-15 14:38:16.142543,81.0
2023-08-15 14:38:16.150233,67.0
2023-08-15 14:38:16.157922,55.0
2023-08-15 14:38:16.165612,38.0
2023-08-15 14:38:16.173301,7.0
2023-08-15 14:38:16.180991,-26.0
2023-08-15 14:38:16.188681,-62.0
2023-08-15 14:38:16.196370,-95.0
2023-08-15 14:38:16.204060,-122.0
2023-08-15 14:38:16.211749,-141.0
2023-08-15 14:38:16.219439,-150.0
2023-08-15 14:38:16.227128,-155.0
2023-08-15 14:38:16.234818,-160.0
2023-08-15 14:38:16.242508,-158.0
2023-08-15 14:38:16.250197,-155.0
2023-08-15 14:38:16.257887,-148.0
2023-08-15 14:38:16.265576,-139.0
2023-08-15 14:38:16.273266,-134.0
2023-08-15 14:38:16.280956,-134.0
2023-08-15 14:38:16.288645,-136.0
2023-08-15 14:38:16.296335,-124.0
2023-08-15 14:38:16.304024,-112.0
2023-08-15 14:38:16.311714,-112.0
2023-08-15 14:38:16.319403,-115.0
2023-08-15 14:38:16.327093,-112.0
2023-08-15 14:38:16.334783,-112.0
2023-08-15 14:38:16.342472,-115.0
2023-08-15 14:38:16.350162,-117.0
2023-08-15 14:38:16.357851,-119.0
2023-08-15 14:38:16.365541,-122.0
2023-08-15 14:38:16.373231,-124.0
2023-08-15 14:38:16.380920,-124.0
2023-08-15 14:38:16.388610,-122.0
2023-08-15 14:38:16.396299,-122.0
2023-08-15 14:38:16.403989,-122.0
2023-08-15 14:38:16.411678,-122.0
2023-08-15 14:38:16.419368,-124.0
2023-08-15 14:38:16.427058,-122.0
2023-08-15 14:38:16.434747,-119.0
2023-08-15 14:38:16.442437,-117.0
2023-08-15 14:38:16.450126,-117.0
2023-08-15 14:38:16.457816,-117.0
2023-08-15 14:38:16.465506,-117.0
2023-08-15 14:38:16.473195,-119.0
2023-08-15 14:38:16.480885,-122.0
