time,ECG
2023-08-09 17:56:20.939793,-69.0
2023-08-09 17:56:20.947483,164.0
2023-08-09 17:56:20.955174,654.0
2023-08-09 17:56:20.962864,1153.0
2023-08-09 17:56:20.970555,1292.0
2023-08-09 17:56:20.978245,917.0
2023-08-09 17:56:20.985936,293.0
2023-08-09 17:56:20.993626,-117.0
2023-08-09 17:56:21.001317,-167.0
2023-08-09 17:56:21.009007,-128.0
2023-08-09 17:56:21.016698,-188.0
2023-08-09 17:56:21.024389,-219.0
2023-08-09 17:56:21.032079,-193.0
2023-08-09 17:56:21.039770,-186.0
2023-08-09 17:56:21.047460,-188.0
2023-08-09 17:56:21.055151,-169.0
2023-08-09 17:56:21.062841,-152.0
2023-08-09 17:56:21.070532,-145.0
2023-08-09 17:56:21.078222,-128.0
2023-08-09 17:56:21.085913,-117.0
2023-08-09 17:56:21.093603,-109.0
2023-08-09 17:56:21.101294,-97.0
2023-08-09 17:56:21.108985,-81.0
2023-08-09 17:56:21.116675,-66.0
2023-08-09 17:56:21.124366,-50.0
2023-08-09 17:56:21.132056,-28.0
2023-08-09 17:56:21.139747,-9.0
2023-08-09 17:56:21.147437,11.0
2023-08-09 17:56:21.155128,31.0
2023-08-09 17:56:21.162818,50.0
2023-08-09 17:56:21.170509,74.0
2023-08-09 17:56:21.178199,93.0
2023-08-09 17:56:21.185890,107.0
2023-08-09 17:56:21.193581,117.0
2023-08-09 17:56:21.201271,119.0
2023-08-09 17:56:21.208962,114.0
2023-08-09 17:56:21.216652,100.0
2023-08-09 17:56:21.224343,78.0
2023-08-09 17:56:21.232033,47.0
2023-08-09 17:56:21.239724,4.0
2023-08-09 17:56:21.247414,-45.0
2023-08-09 17:56:21.255105,-93.0
2023-08-09 17:56:21.262795,-136.0
2023-08-09 17:56:21.270486,-169.0
2023-08-09 17:56:21.278176,-193.0
2023-08-09 17:56:21.285867,-205.0
2023-08-09 17:56:21.293558,-212.0
2023-08-09 17:56:21.301248,-214.0
2023-08-09 17:56:21.308939,-210.0
2023-08-09 17:56:21.316629,-205.0
2023-08-09 17:56:21.324320,-200.0
2023-08-09 17:56:21.332010,-193.0
2023-08-09 17:56:21.339701,-191.0
2023-08-09 17:56:21.347391,-188.0
2023-08-09 17:56:21.355082,-179.0
2023-08-09 17:56:21.362772,-174.0
2023-08-09 17:56:21.370463,-171.0
2023-08-09 17:56:21.378154,-167.0
2023-08-09 17:56:21.385844,-162.0
2023-08-09 17:56:21.393535,-160.0
2023-08-09 17:56:21.401225,-155.0
2023-08-09 17:56:21.408916,-152.0
2023-08-09 17:56:21.416606,-150.0
2023-08-09 17:56:21.424297,-148.0
2023-08-09 17:56:21.431987,-145.0
2023-08-09 17:56:21.439678,-143.0
2023-08-09 17:56:21.447368,-140.0
2023-08-09 17:56:21.455059,-138.0
2023-08-09 17:56:21.462750,-138.0
2023-08-09 17:56:21.470440,-140.0
2023-08-09 17:56:21.478131,-145.0
2023-08-09 17:56:21.485821,-140.0
2023-08-09 17:56:21.493512,-136.0
2023-08-09 17:56:21.501202,-133.0
2023-08-09 17:56:21.508893,-131.0
2023-08-09 17:56:21.516583,-128.0
2023-08-09 17:56:21.524274,-128.0
2023-08-09 17:56:21.531964,-124.0
2023-08-09 17:56:21.539655,-121.0
2023-08-09 17:56:21.547345,-119.0
2023-08-09 17:56:21.555036,-117.0
2023-08-09 17:56:21.562727,-114.0
2023-08-09 17:56:21.570417,-112.0
2023-08-09 17:56:21.578108,-109.0
2023-08-09 17:56:21.585798,-112.0
2023-08-09 17:56:21.593489,-117.0
2023-08-09 17:56:21.601179,-117.0
2023-08-09 17:56:21.608870,-114.0
2023-08-09 17:56:21.616560,-112.0
2023-08-09 17:56:21.624251,-109.0
2023-08-09 17:56:21.631941,-105.0
2023-08-09 17:56:21.639632,-102.0
2023-08-09 17:56:21.647323,-102.0
2023-08-09 17:56:21.655013,-100.0
2023-08-09 17:56:21.662704,-97.0
2023-08-09 17:56:21.670394,-93.0
2023-08-09 17:56:21.678085,-90.0
2023-08-09 17:56:21.685775,-90.0
2023-08-09 17:56:21.693466,-88.0
2023-08-09 17:56:21.701156,-85.0
2023-08-09 17:56:21.708847,-85.0
2023-08-09 17:56:21.716537,-83.0
2023-08-09 17:56:21.724228,-81.0
2023-08-09 17:56:21.731919,-78.0
2023-08-09 17:56:21.739609,-78.0
2023-08-09 17:56:21.747300,-81.0
2023-08-09 17:56:21.754990,-76.0
2023-08-09 17:56:21.762681,-74.0
2023-08-09 17:56:21.770371,-71.0
2023-08-09 17:56:21.778062,-71.0
2023-08-09 17:56:21.785752,-71.0
2023-08-09 17:56:21.793443,-64.0
2023-08-09 17:56:21.801133,-50.0
2023-08-09 17:56:21.808824,-33.0
2023-08-09 17:56:21.816514,-23.0
2023-08-09 17:56:21.824205,-23.0
2023-08-09 17:56:21.831896,-38.0
2023-08-09 17:56:21.839586,-57.0
2023-08-09 17:56:21.847277,-69.0
2023-08-09 17:56:21.854967,-71.0
2023-08-09 17:56:21.862658,-71.0
2023-08-09 17:56:21.870348,-76.0
2023-08-09 17:56:21.878039,-76.0
2023-08-09 17:56:21.885729,-76.0
2023-08-09 17:56:21.893420,-71.0
2023-08-09 17:56:21.901110,-71.0
2023-08-09 17:56:21.908801,-81.0
2023-08-09 17:56:21.916492,-16.0
2023-08-09 17:56:21.924182,281.0
2023-08-09 17:56:21.931873,792.0
2023-08-09 17:56:21.939563,1220.0
2023-08-09 17:56:21.947254,1218.0
2023-08-09 17:56:21.954944,740.0
2023-08-09 17:56:21.962635,148.0
2023-08-09 17:56:21.970325,-160.0
2023-08-09 17:56:21.978016,-155.0
2023-08-09 17:56:21.985706,-140.0
2023-08-09 17:56:21.993397,-205.0
2023-08-09 17:56:22.001088,-217.0
2023-08-09 17:56:22.008778,-195.0
2023-08-09 17:56:22.016469,-198.0
2023-08-09 17:56:22.024159,-193.0
2023-08-09 17:56:22.031850,-171.0
2023-08-09 17:56:22.039540,-157.0
2023-08-09 17:56:22.047231,-148.0
2023-08-09 17:56:22.054921,-136.0
2023-08-09 17:56:22.062612,-124.0
2023-08-09 17:56:22.070302,-112.0
2023-08-09 17:56:22.077993,-95.0
2023-08-09 17:56:22.085684,-81.0
2023-08-09 17:56:22.093374,-64.0
2023-08-09 17:56:22.101065,-50.0
2023-08-09 17:56:22.108755,-38.0
2023-08-09 17:56:22.116446,-16.0
2023-08-09 17:56:22.124136,7.0
2023-08-09 17:56:22.131827,26.0
2023-08-09 17:56:22.139517,42.0
2023-08-09 17:56:22.147208,57.0
2023-08-09 17:56:22.154898,69.0
2023-08-09 17:56:22.162589,88.0
2023-08-09 17:56:22.170279,102.0
2023-08-09 17:56:22.177970,107.0
2023-08-09 17:56:22.185661,105.0
2023-08-09 17:56:22.193351,93.0
2023-08-09 17:56:22.201042,74.0
2023-08-09 17:56:22.208732,47.0
2023-08-09 17:56:22.216423,11.0
2023-08-09 17:56:22.224113,-33.0
2023-08-09 17:56:22.231804,-76.0
2023-08-09 17:56:22.239494,-121.0
2023-08-09 17:56:22.247185,-157.0
2023-08-09 17:56:22.254875,-176.0
2023-08-09 17:56:22.262566,-188.0
2023-08-09 17:56:22.270257,-198.0
2023-08-09 17:56:22.277947,-200.0
2023-08-09 17:56:22.285638,-198.0
2023-08-09 17:56:22.293328,-193.0
2023-08-09 17:56:22.301019,-188.0
2023-08-09 17:56:22.308709,-181.0
2023-08-09 17:56:22.316400,-174.0
2023-08-09 17:56:22.324090,-171.0
2023-08-09 17:56:22.331781,-167.0
2023-08-09 17:56:22.339471,-160.0
2023-08-09 17:56:22.347162,-157.0
2023-08-09 17:56:22.354853,-152.0
2023-08-09 17:56:22.362543,-150.0
2023-08-09 17:56:22.370234,-145.0
2023-08-09 17:56:22.377924,-145.0
2023-08-09 17:56:22.385615,-143.0
2023-08-09 17:56:22.393305,-138.0
2023-08-09 17:56:22.400996,-136.0
2023-08-09 17:56:22.408686,-131.0
2023-08-09 17:56:22.416377,-131.0
2023-08-09 17:56:22.424067,-133.0
2023-08-09 17:56:22.431758,-128.0
2023-08-09 17:56:22.439448,-126.0
2023-08-09 17:56:22.447139,-121.0
2023-08-09 17:56:22.454830,-119.0
2023-08-09 17:56:22.462520,-119.0
2023-08-09 17:56:22.470211,-117.0
2023-08-09 17:56:22.477901,-114.0
2023-08-09 17:56:22.485592,-112.0
2023-08-09 17:56:22.493282,-109.0
2023-08-09 17:56:22.500973,-107.0
2023-08-09 17:56:22.508663,-105.0
2023-08-09 17:56:22.516354,-105.0
2023-08-09 17:56:22.524044,-100.0
2023-08-09 17:56:22.531735,-97.0
2023-08-09 17:56:22.539426,-93.0
2023-08-09 17:56:22.547116,-93.0
2023-08-09 17:56:22.554807,-93.0
2023-08-09 17:56:22.562497,-93.0
2023-08-09 17:56:22.570188,-93.0
2023-08-09 17:56:22.577878,-93.0
2023-08-09 17:56:22.585569,-90.0
2023-08-09 17:56:22.593259,-88.0
2023-08-09 17:56:22.600950,-88.0
2023-08-09 17:56:22.608640,-93.0
2023-08-09 17:56:22.616331,-95.0
2023-08-09 17:56:22.624022,-88.0
2023-08-09 17:56:22.631712,-85.0
2023-08-09 17:56:22.639403,-93.0
2023-08-09 17:56:22.647093,-100.0
2023-08-09 17:56:22.654784,-95.0
2023-08-09 17:56:22.662474,-90.0
2023-08-09 17:56:22.670165,-90.0
2023-08-09 17:56:22.677855,-88.0
2023-08-09 17:56:22.685546,-85.0
2023-08-09 17:56:22.693236,-83.0
2023-08-09 17:56:22.700927,-83.0
2023-08-09 17:56:22.708617,-81.0
2023-08-09 17:56:22.716308,-78.0
2023-08-09 17:56:22.723999,-76.0
2023-08-09 17:56:22.731689,-74.0
2023-08-09 17:56:22.739380,-74.0
2023-08-09 17:56:22.747070,-71.0
2023-08-09 17:56:22.754761,-71.0
2023-08-09 17:56:22.762451,-74.0
2023-08-09 17:56:22.770142,-74.0
2023-08-09 17:56:22.777832,-71.0
2023-08-09 17:56:22.785523,-71.0
2023-08-09 17:56:22.793213,-71.0
2023-08-09 17:56:22.800904,-62.0
2023-08-09 17:56:22.808595,-50.0
2023-08-09 17:56:22.816285,-35.0
2023-08-09 17:56:22.823976,-33.0
2023-08-09 17:56:22.831666,-33.0
2023-08-09 17:56:22.839357,-42.0
2023-08-09 17:56:22.847047,-62.0
2023-08-09 17:56:22.854738,-78.0
2023-08-09 17:56:22.862428,-85.0
2023-08-09 17:56:22.870119,-85.0
2023-08-09 17:56:22.877809,-85.0
2023-08-09 17:56:22.885500,-83.0
2023-08-09 17:56:22.893191,-83.0
2023-08-09 17:56:22.900881,-81.0
2023-08-09 17:56:22.908572,-78.0
2023-08-09 17:56:22.916262,-90.0
2023-08-09 17:56:22.923953,-23.0
2023-08-09 17:56:22.931643,279.0
2023-08-09 17:56:22.939334,795.0
2023-08-09 17:56:22.947024,1213.0
2023-08-09 17:56:22.954715,1187.0
2023-08-09 17:56:22.962405,699.0
2023-08-09 17:56:22.970096,124.0
2023-08-09 17:56:22.977786,-157.0
2023-08-09 17:56:22.985477,-145.0
2023-08-09 17:56:22.993168,-136.0
2023-08-09 17:56:23.000858,-203.0
2023-08-09 17:56:23.008549,-212.0
2023-08-09 17:56:23.016239,-188.0
2023-08-09 17:56:23.023930,-191.0
2023-08-09 17:56:23.031620,-183.0
2023-08-09 17:56:23.039311,-164.0
2023-08-09 17:56:23.047001,-152.0
2023-08-09 17:56:23.054692,-143.0
2023-08-09 17:56:23.062382,-128.0
2023-08-09 17:56:23.070073,-117.0
2023-08-09 17:56:23.077764,-102.0
2023-08-09 17:56:23.085454,-85.0
2023-08-09 17:56:23.093145,-71.0
2023-08-09 17:56:23.100835,-57.0
2023-08-09 17:56:23.108526,-40.0
2023-08-09 17:56:23.116216,-26.0
2023-08-09 17:56:23.123907,-9.0
2023-08-09 17:56:23.131597,11.0
2023-08-09 17:56:23.139288,33.0
2023-08-09 17:56:23.146978,54.0
2023-08-09 17:56:23.154669,74.0
2023-08-09 17:56:23.162360,90.0
2023-08-09 17:56:23.170050,105.0
2023-08-09 17:56:23.177741,112.0
2023-08-09 17:56:23.185431,109.0
2023-08-09 17:56:23.193122,105.0
2023-08-09 17:56:23.200812,97.0
2023-08-09 17:56:23.208503,81.0
2023-08-09 17:56:23.216193,52.0
2023-08-09 17:56:23.223884,11.0
2023-08-09 17:56:23.231574,-38.0
2023-08-09 17:56:23.239265,-85.0
2023-08-09 17:56:23.246956,-119.0
2023-08-09 17:56:23.254646,-152.0
2023-08-09 17:56:23.262337,-176.0
2023-08-09 17:56:23.270027,-191.0
2023-08-09 17:56:23.277718,-198.0
2023-08-09 17:56:23.285408,-203.0
2023-08-09 17:56:23.293099,-198.0
2023-08-09 17:56:23.300789,-195.0
2023-08-09 17:56:23.308480,-193.0
2023-08-09 17:56:23.316170,-188.0
2023-08-09 17:56:23.323861,-181.0
2023-08-09 17:56:23.331551,-171.0
2023-08-09 17:56:23.339242,-167.0
2023-08-09 17:56:23.346933,-162.0
2023-08-09 17:56:23.354623,-157.0
2023-08-09 17:56:23.362314,-155.0
2023-08-09 17:56:23.370004,-152.0
2023-08-09 17:56:23.377695,-145.0
2023-08-09 17:56:23.385385,-143.0
2023-08-09 17:56:23.393076,-143.0
2023-08-09 17:56:23.400766,-140.0
2023-08-09 17:56:23.408457,-136.0
2023-08-09 17:56:23.416147,-136.0
2023-08-09 17:56:23.423838,-133.0
2023-08-09 17:56:23.431529,-128.0
2023-08-09 17:56:23.439219,-126.0
2023-08-09 17:56:23.446910,-126.0
2023-08-09 17:56:23.454600,-126.0
2023-08-09 17:56:23.462291,-121.0
2023-08-09 17:56:23.469981,-117.0
2023-08-09 17:56:23.477672,-114.0
2023-08-09 17:56:23.485362,-114.0
2023-08-09 17:56:23.493053,-112.0
2023-08-09 17:56:23.500743,-107.0
2023-08-09 17:56:23.508434,-105.0
2023-08-09 17:56:23.516125,-102.0
2023-08-09 17:56:23.523815,-100.0
2023-08-09 17:56:23.531506,-97.0
2023-08-09 17:56:23.539196,-97.0
2023-08-09 17:56:23.546887,-97.0
2023-08-09 17:56:23.554577,-95.0
2023-08-09 17:56:23.562268,-93.0
2023-08-09 17:56:23.569958,-90.0
2023-08-09 17:56:23.577649,-90.0
2023-08-09 17:56:23.585339,-93.0
2023-08-09 17:56:23.593030,-88.0
2023-08-09 17:56:23.600720,-83.0
2023-08-09 17:56:23.608411,-85.0
2023-08-09 17:56:23.616102,-88.0
2023-08-09 17:56:23.623792,-88.0
2023-08-09 17:56:23.631483,-88.0
2023-08-09 17:56:23.639173,-85.0
2023-08-09 17:56:23.646864,-81.0
2023-08-09 17:56:23.654554,-78.0
2023-08-09 17:56:23.662245,-81.0
2023-08-09 17:56:23.669935,-78.0
2023-08-09 17:56:23.677626,-76.0
2023-08-09 17:56:23.685316,-78.0
2023-08-09 17:56:23.693007,-76.0
2023-08-09 17:56:23.700698,-74.0
2023-08-09 17:56:23.708388,-74.0
2023-08-09 17:56:23.716079,-76.0
2023-08-09 17:56:23.723769,-85.0
2023-08-09 17:56:23.731460,-88.0
2023-08-09 17:56:23.739150,-81.0
2023-08-09 17:56:23.746841,-76.0
2023-08-09 17:56:23.754531,-81.0
2023-08-09 17:56:23.762222,-83.0
2023-08-09 17:56:23.769912,-90.0
2023-08-09 17:56:23.777603,-93.0
2023-08-09 17:56:23.785294,-88.0
2023-08-09 17:56:23.792984,-90.0
2023-08-09 17:56:23.800675,-93.0
2023-08-09 17:56:23.808365,-90.0
2023-08-09 17:56:23.816056,-76.0
2023-08-09 17:56:23.823746,-62.0
2023-08-09 17:56:23.831437,-54.0
2023-08-09 17:56:23.839127,-47.0
2023-08-09 17:56:23.846818,-50.0
2023-08-09 17:56:23.854508,-74.0
2023-08-09 17:56:23.862199,-93.0
2023-08-09 17:56:23.869889,-95.0
2023-08-09 17:56:23.877580,-93.0
2023-08-09 17:56:23.885271,-88.0
2023-08-09 17:56:23.892961,-85.0
2023-08-09 17:56:23.900652,-85.0
2023-08-09 17:56:23.908342,-85.0
2023-08-09 17:56:23.916033,-83.0
2023-08-09 17:56:23.923723,-88.0
2023-08-09 17:56:23.931414,-14.0
2023-08-09 17:56:23.939104,310.0
2023-08-09 17:56:23.946795,852.0
2023-08-09 17:56:23.954485,1265.0
2023-08-09 17:56:23.962176,1177.0
2023-08-09 17:56:23.969867,628.0
2023-08-09 17:56:23.977557,66.0
2023-08-09 17:56:23.985248,-157.0
2023-08-09 17:56:23.992938,-136.0
2023-08-09 17:56:24.000629,-152.0
2023-08-09 17:56:24.008319,-210.0
2023-08-09 17:56:24.016010,-205.0
2023-08-09 17:56:24.023700,-188.0
2023-08-09 17:56:24.031391,-193.0
2023-08-09 17:56:24.039081,-186.0
2023-08-09 17:56:24.046772,-169.0
2023-08-09 17:56:24.054463,-160.0
2023-08-09 17:56:24.062153,-152.0
2023-08-09 17:56:24.069844,-136.0
2023-08-09 17:56:24.077534,-119.0
2023-08-09 17:56:24.085225,-107.0
2023-08-09 17:56:24.092915,-90.0
2023-08-09 17:56:24.100606,-71.0
2023-08-09 17:56:24.108296,-52.0
2023-08-09 17:56:24.115987,-38.0
2023-08-09 17:56:24.123677,-23.0
2023-08-09 17:56:24.131368,-9.0
2023-08-09 17:56:24.139058,9.0
2023-08-09 17:56:24.146749,31.0
2023-08-09 17:56:24.154440,57.0
2023-08-09 17:56:24.162130,78.0
2023-08-09 17:56:24.169821,93.0
2023-08-09 17:56:24.177511,112.0
2023-08-09 17:56:24.185202,126.0
2023-08-09 17:56:24.192892,131.0
2023-08-09 17:56:24.200583,128.0
2023-08-09 17:56:24.208273,117.0
2023-08-09 17:56:24.215964,93.0
2023-08-09 17:56:24.223654,59.0
2023-08-09 17:56:24.231345,21.0
2023-08-09 17:56:24.239036,-23.0
2023-08-09 17:56:24.246726,-74.0
2023-08-09 17:56:24.254417,-117.0
2023-08-09 17:56:24.262107,-150.0
2023-08-09 17:56:24.269798,-176.0
2023-08-09 17:56:24.277488,-195.0
2023-08-09 17:56:24.285179,-203.0
2023-08-09 17:56:24.292869,-207.0
2023-08-09 17:56:24.300560,-210.0
2023-08-09 17:56:24.308250,-214.0
2023-08-09 17:56:24.315941,-212.0
2023-08-09 17:56:24.323632,-205.0
2023-08-09 17:56:24.331322,-195.0
2023-08-09 17:56:24.339013,-188.0
2023-08-09 17:56:24.346703,-186.0
2023-08-09 17:56:24.354394,-191.0
2023-08-09 17:56:24.362084,-186.0
2023-08-09 17:56:24.369775,-176.0
2023-08-09 17:56:24.377465,-171.0
2023-08-09 17:56:24.385156,-167.0
2023-08-09 17:56:24.392846,-164.0
2023-08-09 17:56:24.400537,-164.0
2023-08-09 17:56:24.408228,-162.0
2023-08-09 17:56:24.415918,-160.0
2023-08-09 17:56:24.423609,-152.0
2023-08-09 17:56:24.431299,-150.0
2023-08-09 17:56:24.438990,-150.0
2023-08-09 17:56:24.446680,-152.0
2023-08-09 17:56:24.454371,-148.0
2023-08-09 17:56:24.462061,-143.0
2023-08-09 17:56:24.469752,-140.0
2023-08-09 17:56:24.477442,-140.0
2023-08-09 17:56:24.485133,-138.0
2023-08-09 17:56:24.492823,-133.0
2023-08-09 17:56:24.500514,-133.0
2023-08-09 17:56:24.508205,-128.0
2023-08-09 17:56:24.515895,-124.0
2023-08-09 17:56:24.523586,-121.0
2023-08-09 17:56:24.531276,-119.0
2023-08-09 17:56:24.538967,-121.0
2023-08-09 17:56:24.546657,-121.0
2023-08-09 17:56:24.554348,-119.0
2023-08-09 17:56:24.562038,-114.0
2023-08-09 17:56:24.569729,-114.0
2023-08-09 17:56:24.577419,-112.0
2023-08-09 17:56:24.585110,-112.0
2023-08-09 17:56:24.592801,-112.0
2023-08-09 17:56:24.600491,-112.0
2023-08-09 17:56:24.608182,-107.0
2023-08-09 17:56:24.615872,-102.0
2023-08-09 17:56:24.623563,-105.0
2023-08-09 17:56:24.631253,-109.0
2023-08-09 17:56:24.638944,-107.0
2023-08-09 17:56:24.646634,-102.0
2023-08-09 17:56:24.654325,-100.0
2023-08-09 17:56:24.662015,-100.0
2023-08-09 17:56:24.669706,-97.0
2023-08-09 17:56:24.677397,-100.0
2023-08-09 17:56:24.685087,-97.0
2023-08-09 17:56:24.692778,-97.0
2023-08-09 17:56:24.700468,-97.0
2023-08-09 17:56:24.708159,-95.0
2023-08-09 17:56:24.715849,-95.0
2023-08-09 17:56:24.723540,-85.0
2023-08-09 17:56:24.731230,-69.0
2023-08-09 17:56:24.738921,-57.0
2023-08-09 17:56:24.746611,-47.0
2023-08-09 17:56:24.754302,-42.0
2023-08-09 17:56:24.761992,-57.0
2023-08-09 17:56:24.769683,-78.0
2023-08-09 17:56:24.777374,-88.0
2023-08-09 17:56:24.785064,-90.0
2023-08-09 17:56:24.792755,-93.0
2023-08-09 17:56:24.800445,-90.0
2023-08-09 17:56:24.808136,-88.0
2023-08-09 17:56:24.815826,-83.0
2023-08-09 17:56:24.823517,-78.0
2023-08-09 17:56:24.831207,-83.0
2023-08-09 17:56:24.838898,-85.0
2023-08-09 17:56:24.846588,57.0
2023-08-09 17:56:24.854279,503.0
2023-08-09 17:56:24.861970,1098.0
2023-08-09 17:56:24.869660,1375.0
2023-08-09 17:56:24.877351,1062.0
2023-08-09 17:56:24.885041,425.0
2023-08-09 17:56:24.892732,-64.0
2023-08-09 17:56:24.900422,-186.0
2023-08-09 17:56:24.908113,-136.0
2023-08-09 17:56:24.915803,-174.0
2023-08-09 17:56:24.923494,-224.0
2023-08-09 17:56:24.931184,-205.0
2023-08-09 17:56:24.938875,-200.0
2023-08-09 17:56:24.946566,-207.0
2023-08-09 17:56:24.954256,-186.0
2023-08-09 17:56:24.961947,-162.0
2023-08-09 17:56:24.969637,-155.0
2023-08-09 17:56:24.977328,-138.0
2023-08-09 17:56:24.985018,-119.0
2023-08-09 17:56:24.992709,-105.0
2023-08-09 17:56:25.000399,-88.0
2023-08-09 17:56:25.008090,-69.0
2023-08-09 17:56:25.015780,-50.0
2023-08-09 17:56:25.023471,-31.0
2023-08-09 17:56:25.031161,-9.0
2023-08-09 17:56:25.038852,9.0
2023-08-09 17:56:25.046543,31.0
2023-08-09 17:56:25.054233,54.0
2023-08-09 17:56:25.061924,76.0
2023-08-09 17:56:25.069614,97.0
2023-08-09 17:56:25.077305,119.0
2023-08-09 17:56:25.084995,136.0
2023-08-09 17:56:25.092686,152.0
2023-08-09 17:56:25.100376,157.0
2023-08-09 17:56:25.108067,155.0
2023-08-09 17:56:25.115757,148.0
2023-08-09 17:56:25.123448,128.0
2023-08-09 17:56:25.131139,95.0
2023-08-09 17:56:25.138829,47.0
2023-08-09 17:56:25.146520,0.0
2023-08-09 17:56:25.154210,-50.0
2023-08-09 17:56:25.161901,-97.0
2023-08-09 17:56:25.169591,-136.0
2023-08-09 17:56:25.177282,-164.0
2023-08-09 17:56:25.184972,-181.0
2023-08-09 17:56:25.192663,-193.0
2023-08-09 17:56:25.200353,-200.0
2023-08-09 17:56:25.208044,-200.0
2023-08-09 17:56:25.215735,-193.0
2023-08-09 17:56:25.223425,-186.0
2023-08-09 17:56:25.231116,-179.0
2023-08-09 17:56:25.238806,-171.0
2023-08-09 17:56:25.246497,-164.0
2023-08-09 17:56:25.254187,-157.0
2023-08-09 17:56:25.261878,-148.0
2023-08-09 17:56:25.269568,-143.0
2023-08-09 17:56:25.277259,-140.0
2023-08-09 17:56:25.284949,-138.0
2023-08-09 17:56:25.292640,-133.0
2023-08-09 17:56:25.300331,-131.0
2023-08-09 17:56:25.308021,-128.0
2023-08-09 17:56:25.315712,-124.0
2023-08-09 17:56:25.323402,-121.0
2023-08-09 17:56:25.331093,-119.0
2023-08-09 17:56:25.338783,-121.0
2023-08-09 17:56:25.346474,-121.0
2023-08-09 17:56:25.354164,-119.0
2023-08-09 17:56:25.361855,-117.0
2023-08-09 17:56:25.369545,-117.0
2023-08-09 17:56:25.377236,-114.0
2023-08-09 17:56:25.384926,-114.0
2023-08-09 17:56:25.392617,-112.0
2023-08-09 17:56:25.400308,-107.0
2023-08-09 17:56:25.407998,-105.0
2023-08-09 17:56:25.415689,-105.0
2023-08-09 17:56:25.423379,-102.0
2023-08-09 17:56:25.431070,-107.0
2023-08-09 17:56:25.438760,-112.0
2023-08-09 17:56:25.446451,-107.0
2023-08-09 17:56:25.454141,-102.0
2023-08-09 17:56:25.461832,-100.0
2023-08-09 17:56:25.469522,-97.0
2023-08-09 17:56:25.477213,-97.0
2023-08-09 17:56:25.484904,-95.0
2023-08-09 17:56:25.492594,-90.0
2023-08-09 17:56:25.500285,-88.0
2023-08-09 17:56:25.507975,-85.0
2023-08-09 17:56:25.515666,-85.0
2023-08-09 17:56:25.523356,-88.0
2023-08-09 17:56:25.531047,-88.0
2023-08-09 17:56:25.538737,-83.0
2023-08-09 17:56:25.546428,-76.0
2023-08-09 17:56:25.554118,-74.0
2023-08-09 17:56:25.561809,-78.0
2023-08-09 17:56:25.569500,-88.0
2023-08-09 17:56:25.577190,-85.0
2023-08-09 17:56:25.584881,-78.0
2023-08-09 17:56:25.592571,-76.0
2023-08-09 17:56:25.600262,-76.0
2023-08-09 17:56:25.607952,-76.0
2023-08-09 17:56:25.615643,-81.0
2023-08-09 17:56:25.623333,-71.0
2023-08-09 17:56:25.631024,-52.0
2023-08-09 17:56:25.638714,-45.0
2023-08-09 17:56:25.646405,-45.0
2023-08-09 17:56:25.654095,-45.0
2023-08-09 17:56:25.661786,-52.0
2023-08-09 17:56:25.669477,-76.0
2023-08-09 17:56:25.677167,-93.0
2023-08-09 17:56:25.684858,-93.0
2023-08-09 17:56:25.692548,-93.0
2023-08-09 17:56:25.700239,-95.0
2023-08-09 17:56:25.707929,-93.0
2023-08-09 17:56:25.715620,-90.0
2023-08-09 17:56:25.723310,-85.0
2023-08-09 17:56:25.731001,-85.0
2023-08-09 17:56:25.738691,-95.0
2023-08-09 17:56:25.746382,-19.0
2023-08-09 17:56:25.754073,315.0
2023-08-09 17:56:25.761763,859.0
2023-08-09 17:56:25.769454,1270.0
2023-08-09 17:56:25.777144,1203.0
2023-08-09 17:56:25.784835,680.0
2023-08-09 17:56:25.792525,97.0
2023-08-09 17:56:25.800216,-176.0
2023-08-09 17:56:25.807906,-155.0
2023-08-09 17:56:25.815597,-148.0
2023-08-09 17:56:25.823287,-214.0
2023-08-09 17:56:25.830978,-219.0
2023-08-09 17:56:25.838669,-195.0
2023-08-09 17:56:25.846359,-198.0
2023-08-09 17:56:25.854050,-191.0
2023-08-09 17:56:25.861740,-171.0
2023-08-09 17:56:25.869431,-164.0
2023-08-09 17:56:25.877121,-155.0
2023-08-09 17:56:25.884812,-138.0
2023-08-09 17:56:25.892502,-124.0
2023-08-09 17:56:25.900193,-109.0
2023-08-09 17:56:25.907883,-90.0
2023-08-09 17:56:25.915574,-74.0
2023-08-09 17:56:25.923264,-57.0
2023-08-09 17:56:25.930955,-40.0
2023-08-09 17:56:25.938646,-21.0
2023-08-09 17:56:25.946336,0.0
2023-08-09 17:56:25.954027,23.0
2023-08-09 17:56:25.961717,47.0
2023-08-09 17:56:25.969408,66.0
2023-08-09 17:56:25.977098,85.0
2023-08-09 17:56:25.984789,105.0
2023-08-09 17:56:25.992479,121.0
2023-08-09 17:56:26.000170,133.0
2023-08-09 17:56:26.007860,138.0
2023-08-09 17:56:26.015551,133.0
2023-08-09 17:56:26.023242,114.0
2023-08-09 17:56:26.030932,88.0
2023-08-09 17:56:26.038623,57.0
2023-08-09 17:56:26.046313,11.0
2023-08-09 17:56:26.054004,-38.0
2023-08-09 17:56:26.061694,-90.0
2023-08-09 17:56:26.069385,-138.0
2023-08-09 17:56:26.077075,-167.0
2023-08-09 17:56:26.084766,-183.0
2023-08-09 17:56:26.092456,-198.0
2023-08-09 17:56:26.100147,-207.0
2023-08-09 17:56:26.107838,-214.0
2023-08-09 17:56:26.115528,-214.0
2023-08-09 17:56:26.123219,-205.0
2023-08-09 17:56:26.130909,-198.0
2023-08-09 17:56:26.138600,-191.0
2023-08-09 17:56:26.146290,-183.0
2023-08-09 17:56:26.153981,-176.0
2023-08-09 17:56:26.161671,-171.0
2023-08-09 17:56:26.169362,-164.0
2023-08-09 17:56:26.177052,-157.0
2023-08-09 17:56:26.184743,-152.0
2023-08-09 17:56:26.192433,-148.0
2023-08-09 17:56:26.200124,-145.0
2023-08-09 17:56:26.207815,-143.0
2023-08-09 17:56:26.215505,-138.0
2023-08-09 17:56:26.223196,-136.0
2023-08-09 17:56:26.230886,-133.0
2023-08-09 17:56:26.238577,-133.0
2023-08-09 17:56:26.246267,-131.0
2023-08-09 17:56:26.253958,-128.0
2023-08-09 17:56:26.261648,-128.0
2023-08-09 17:56:26.269339,-128.0
2023-08-09 17:56:26.277029,-126.0
2023-08-09 17:56:26.284720,-124.0
2023-08-09 17:56:26.292411,-121.0
2023-08-09 17:56:26.300101,-119.0
2023-08-09 17:56:26.307792,-117.0
2023-08-09 17:56:26.315482,-114.0
2023-08-09 17:56:26.323173,-109.0
2023-08-09 17:56:26.330863,-109.0
2023-08-09 17:56:26.338554,-109.0
2023-08-09 17:56:26.346244,-105.0
2023-08-09 17:56:26.353935,-102.0
2023-08-09 17:56:26.361625,-102.0
2023-08-09 17:56:26.369316,-105.0
2023-08-09 17:56:26.377007,-107.0
2023-08-09 17:56:26.384697,-105.0
2023-08-09 17:56:26.392388,-100.0
2023-08-09 17:56:26.400078,-97.0
2023-08-09 17:56:26.407769,-97.0
2023-08-09 17:56:26.415459,-93.0
2023-08-09 17:56:26.423150,-93.0
2023-08-09 17:56:26.430840,-90.0
2023-08-09 17:56:26.438531,-88.0
2023-08-09 17:56:26.446221,-85.0
2023-08-09 17:56:26.453912,-81.0
2023-08-09 17:56:26.461603,-81.0
2023-08-09 17:56:26.469293,-81.0
2023-08-09 17:56:26.476984,-78.0
2023-08-09 17:56:26.484674,-76.0
2023-08-09 17:56:26.492365,-76.0
2023-08-09 17:56:26.500055,-74.0
2023-08-09 17:56:26.507746,-74.0
2023-08-09 17:56:26.515436,-76.0
2023-08-09 17:56:26.523127,-74.0
2023-08-09 17:56:26.530817,-69.0
2023-08-09 17:56:26.538508,-69.0
2023-08-09 17:56:26.546198,-66.0
2023-08-09 17:56:26.553889,-64.0
2023-08-09 17:56:26.561580,-59.0
2023-08-09 17:56:26.569270,-47.0
2023-08-09 17:56:26.576961,-38.0
2023-08-09 17:56:26.584651,-38.0
2023-08-09 17:56:26.592342,-47.0
2023-08-09 17:56:26.600032,-66.0
2023-08-09 17:56:26.607723,-81.0
2023-08-09 17:56:26.615413,-83.0
2023-08-09 17:56:26.623104,-83.0
2023-08-09 17:56:26.630794,-83.0
2023-08-09 17:56:26.638485,-81.0
2023-08-09 17:56:26.646176,-81.0
2023-08-09 17:56:26.653866,-81.0
2023-08-09 17:56:26.661557,-85.0
2023-08-09 17:56:26.669247,-88.0
2023-08-09 17:56:26.676938,4.0
2023-08-09 17:56:26.684628,365.0
2023-08-09 17:56:26.692319,914.0
2023-08-09 17:56:26.700009,1280.0
2023-08-09 17:56:26.707700,1139.0
2023-08-09 17:56:26.715390,592.0
2023-08-09 17:56:26.723081,50.0
2023-08-09 17:56:26.730772,-176.0
2023-08-09 17:56:26.738462,-148.0
2023-08-09 17:56:26.746153,-155.0
2023-08-09 17:56:26.753843,-219.0
2023-08-09 17:56:26.761534,-222.0
2023-08-09 17:56:26.769224,-200.0
2023-08-09 17:56:26.776915,-203.0
2023-08-09 17:56:26.784605,-195.0
2023-08-09 17:56:26.792296,-171.0
2023-08-09 17:56:26.799986,-160.0
2023-08-09 17:56:26.807677,-150.0
2023-08-09 17:56:26.815367,-136.0
2023-08-09 17:56:26.823058,-119.0
2023-08-09 17:56:26.830749,-107.0
2023-08-09 17:56:26.838439,-90.0
2023-08-09 17:56:26.846130,-71.0
2023-08-09 17:56:26.853820,-57.0
2023-08-09 17:56:26.861511,-40.0
2023-08-09 17:56:26.869201,-21.0
2023-08-09 17:56:26.876892,-4.0
2023-08-09 17:56:26.884582,16.0
2023-08-09 17:56:26.892273,42.0
2023-08-09 17:56:26.899963,64.0
2023-08-09 17:56:26.907654,85.0
2023-08-09 17:56:26.915345,109.0
2023-08-09 17:56:26.923035,126.0
2023-08-09 17:56:26.930726,133.0
2023-08-09 17:56:26.938416,136.0
2023-08-09 17:56:26.946107,136.0
2023-08-09 17:56:26.953797,119.0
2023-08-09 17:56:26.961488,90.0
2023-08-09 17:56:26.969178,54.0
2023-08-09 17:56:26.976869,11.0
2023-08-09 17:56:26.984559,-38.0
2023-08-09 17:56:26.992250,-88.0
2023-08-09 17:56:26.999941,-131.0
2023-08-09 17:56:27.007631,-164.0
2023-08-09 17:56:27.015322,-183.0
2023-08-09 17:56:27.023012,-193.0
2023-08-09 17:56:27.030703,-198.0
2023-08-09 17:56:27.038393,-198.0
2023-08-09 17:56:27.046084,-198.0
2023-08-09 17:56:27.053774,-198.0
2023-08-09 17:56:27.061465,-193.0
2023-08-09 17:56:27.069155,-183.0
2023-08-09 17:56:27.076846,-171.0
2023-08-09 17:56:27.084536,-167.0
2023-08-09 17:56:27.092227,-167.0
2023-08-09 17:56:27.099918,-169.0
2023-08-09 17:56:27.107608,-167.0
2023-08-09 17:56:27.115299,-160.0
2023-08-09 17:56:27.122989,-155.0
2023-08-09 17:56:27.130680,-152.0
2023-08-09 17:56:27.138370,-150.0
2023-08-09 17:56:27.146061,-145.0
2023-08-09 17:56:27.153751,-143.0
2023-08-09 17:56:27.161442,-138.0
2023-08-09 17:56:27.169132,-136.0
2023-08-09 17:56:27.176823,-136.0
2023-08-09 17:56:27.184514,-136.0
2023-08-09 17:56:27.192204,-133.0
2023-08-09 17:56:27.199895,-128.0
2023-08-09 17:56:27.207585,-126.0
2023-08-09 17:56:27.215276,-124.0
2023-08-09 17:56:27.222966,-121.0
2023-08-09 17:56:27.230657,-124.0
2023-08-09 17:56:27.238347,-124.0
2023-08-09 17:56:27.246038,-124.0
2023-08-09 17:56:27.253728,-121.0
2023-08-09 17:56:27.261419,-121.0
2023-08-09 17:56:27.269110,-119.0
2023-08-09 17:56:27.276800,-117.0
2023-08-09 17:56:27.284491,-112.0
2023-08-09 17:56:27.292181,-109.0
2023-08-09 17:56:27.299872,-109.0
2023-08-09 17:56:27.307562,-107.0
2023-08-09 17:56:27.315253,-102.0
2023-08-09 17:56:27.322943,-102.0
2023-08-09 17:56:27.330634,-105.0
2023-08-09 17:56:27.338324,-102.0
2023-08-09 17:56:27.346015,-100.0
2023-08-09 17:56:27.353705,-97.0
2023-08-09 17:56:27.361396,-95.0
2023-08-09 17:56:27.369087,-95.0
2023-08-09 17:56:27.376777,-97.0
2023-08-09 17:56:27.384468,-100.0
2023-08-09 17:56:27.392158,-95.0
2023-08-09 17:56:27.399849,-90.0
2023-08-09 17:56:27.407539,-93.0
2023-08-09 17:56:27.415230,-95.0
2023-08-09 17:56:27.422920,-90.0
2023-08-09 17:56:27.430611,-83.0
2023-08-09 17:56:27.438301,-81.0
2023-08-09 17:56:27.445992,-81.0
2023-08-09 17:56:27.453683,-78.0
2023-08-09 17:56:27.461373,-78.0
2023-08-09 17:56:27.469064,-74.0
2023-08-09 17:56:27.476754,-57.0
2023-08-09 17:56:27.484445,-42.0
2023-08-09 17:56:27.492135,-35.0
2023-08-09 17:56:27.499826,-35.0
2023-08-09 17:56:27.507516,-45.0
2023-08-09 17:56:27.515207,-62.0
2023-08-09 17:56:27.522897,-76.0
2023-08-09 17:56:27.530588,-78.0
2023-08-09 17:56:27.538279,-78.0
2023-08-09 17:56:27.545969,-81.0
2023-08-09 17:56:27.553660,-81.0
2023-08-09 17:56:27.561350,-78.0
2023-08-09 17:56:27.569041,-76.0
2023-08-09 17:56:27.576731,-76.0
2023-08-09 17:56:27.584422,-81.0
2023-08-09 17:56:27.592112,-16.0
2023-08-09 17:56:27.599803,305.0
2023-08-09 17:56:27.607493,900.0
2023-08-09 17:56:27.615184,1375.0
2023-08-09 17:56:27.622875,1273.0
2023-08-09 17:56:27.630565,673.0
2023-08-09 17:56:27.638256,76.0
2023-08-09 17:56:27.645946,-160.0
2023-08-09 17:56:27.653637,-133.0
2023-08-09 17:56:27.661327,-145.0
2023-08-09 17:56:27.669018,-210.0
2023-08-09 17:56:27.676708,-214.0
2023-08-09 17:56:27.684399,-210.0
2023-08-09 17:56:27.692089,-219.0
2023-08-09 17:56:27.699780,-205.0
2023-08-09 17:56:27.707470,-183.0
2023-08-09 17:56:27.715161,-171.0
2023-08-09 17:56:27.722852,-162.0
2023-08-09 17:56:27.730542,-152.0
2023-08-09 17:56:27.738233,-140.0
2023-08-09 17:56:27.745923,-124.0
2023-08-09 17:56:27.753614,-105.0
2023-08-09 17:56:27.761304,-85.0
2023-08-09 17:56:27.768995,-66.0
2023-08-09 17:56:27.776685,-47.0
2023-08-09 17:56:27.784376,-28.0
2023-08-09 17:56:27.792066,-2.0
2023-08-09 17:56:27.799757,23.0
2023-08-09 17:56:27.807448,47.0
2023-08-09 17:56:27.815138,71.0
2023-08-09 17:56:27.822829,97.0
2023-08-09 17:56:27.830519,117.0
2023-08-09 17:56:27.838210,138.0
2023-08-09 17:56:27.845900,152.0
2023-08-09 17:56:27.853591,157.0
2023-08-09 17:56:27.861281,148.0
2023-08-09 17:56:27.868972,133.0
2023-08-09 17:56:27.876662,102.0
2023-08-09 17:56:27.884353,54.0
2023-08-09 17:56:27.892044,4.0
2023-08-09 17:56:27.899734,-45.0
2023-08-09 17:56:27.907425,-97.0
2023-08-09 17:56:27.915115,-140.0
2023-08-09 17:56:27.922806,-174.0
2023-08-09 17:56:27.930496,-193.0
2023-08-09 17:56:27.938187,-205.0
2023-08-09 17:56:27.945877,-210.0
2023-08-09 17:56:27.953568,-212.0
2023-08-09 17:56:27.961258,-210.0
2023-08-09 17:56:27.968949,-203.0
2023-08-09 17:56:27.976639,-193.0
2023-08-09 17:56:27.984330,-186.0
2023-08-09 17:56:27.992021,-179.0
2023-08-09 17:56:27.999711,-171.0
2023-08-09 17:56:28.007402,-160.0
2023-08-09 17:56:28.015092,-152.0
2023-08-09 17:56:28.022783,-145.0
2023-08-09 17:56:28.030473,-136.0
2023-08-09 17:56:28.038164,-128.0
2023-08-09 17:56:28.045854,-124.0
2023-08-09 17:56:28.053545,-121.0
2023-08-09 17:56:28.061235,-117.0
2023-08-09 17:56:28.068926,-114.0
2023-08-09 17:56:28.076617,-112.0
2023-08-09 17:56:28.084307,-112.0
2023-08-09 17:56:28.091998,-112.0
2023-08-09 17:56:28.099688,-109.0
2023-08-09 17:56:28.107379,-107.0
2023-08-09 17:56:28.115069,-107.0
2023-08-09 17:56:28.122760,-105.0
2023-08-09 17:56:28.130450,-102.0
2023-08-09 17:56:28.138141,-102.0
2023-08-09 17:56:28.145831,-100.0
2023-08-09 17:56:28.153522,-97.0
2023-08-09 17:56:28.161213,-97.0
2023-08-09 17:56:28.168903,-93.0
2023-08-09 17:56:28.176594,-90.0
2023-08-09 17:56:28.184284,-90.0
2023-08-09 17:56:28.191975,-85.0
2023-08-09 17:56:28.199665,-83.0
2023-08-09 17:56:28.207356,-81.0
2023-08-09 17:56:28.215046,-81.0
2023-08-09 17:56:28.222737,-85.0
2023-08-09 17:56:28.230427,-93.0
2023-08-09 17:56:28.238118,-93.0
2023-08-09 17:56:28.245808,-88.0
2023-08-09 17:56:28.253499,-85.0
2023-08-09 17:56:28.261190,-83.0
2023-08-09 17:56:28.268880,-81.0
2023-08-09 17:56:28.276571,-78.0
2023-08-09 17:56:28.284261,-76.0
2023-08-09 17:56:28.291952,-76.0
2023-08-09 17:56:28.299642,-74.0
2023-08-09 17:56:28.307333,-71.0
2023-08-09 17:56:28.315023,-69.0
2023-08-09 17:56:28.322714,-66.0
2023-08-09 17:56:28.330404,-64.0
2023-08-09 17:56:28.338095,-64.0
2023-08-09 17:56:28.345786,-59.0
2023-08-09 17:56:28.353476,-47.0
2023-08-09 17:56:28.361167,-31.0
2023-08-09 17:56:28.368857,-19.0
2023-08-09 17:56:28.376548,-16.0
2023-08-09 17:56:28.384238,-31.0
2023-08-09 17:56:28.391929,-52.0
2023-08-09 17:56:28.399619,-66.0
2023-08-09 17:56:28.407310,-71.0
2023-08-09 17:56:28.415000,-71.0
2023-08-09 17:56:28.422691,-71.0
2023-08-09 17:56:28.430382,-69.0
2023-08-09 17:56:28.438072,-64.0
2023-08-09 17:56:28.445763,-64.0
2023-08-09 17:56:28.453453,-62.0
2023-08-09 17:56:28.461144,-74.0
2023-08-09 17:56:28.468834,-40.0
2023-08-09 17:56:28.476525,217.0
2023-08-09 17:56:28.484215,752.0
2023-08-09 17:56:28.491906,1258.0
2023-08-09 17:56:28.499596,1332.0
2023-08-09 17:56:28.507287,900.0
2023-08-09 17:56:28.514978,277.0
2023-08-09 17:56:28.522668,-119.0
2023-08-09 17:56:28.530359,-162.0
2023-08-09 17:56:28.538049,-126.0
2023-08-09 17:56:28.545740,-186.0
2023-08-09 17:56:28.553430,-214.0
2023-08-09 17:56:28.561121,-186.0
2023-08-09 17:56:28.568811,-186.0
2023-08-09 17:56:28.576502,-188.0
2023-08-09 17:56:28.584192,-169.0
2023-08-09 17:56:28.591883,-155.0
2023-08-09 17:56:28.599573,-148.0
2023-08-09 17:56:28.607264,-133.0
2023-08-09 17:56:28.614955,-119.0
2023-08-09 17:56:28.622645,-107.0
2023-08-09 17:56:28.630336,-90.0
2023-08-09 17:56:28.638026,-74.0
2023-08-09 17:56:28.645717,-54.0
2023-08-09 17:56:28.653407,-33.0
2023-08-09 17:56:28.661098,-11.0
2023-08-09 17:56:28.668788,7.0
2023-08-09 17:56:28.676479,26.0
2023-08-09 17:56:28.684169,50.0
2023-08-09 17:56:28.691860,76.0
2023-08-09 17:56:28.699551,100.0
2023-08-09 17:56:28.707241,119.0
2023-08-09 17:56:28.714932,133.0
2023-08-09 17:56:28.722622,143.0
2023-08-09 17:56:28.730313,145.0
2023-08-09 17:56:28.738003,140.0
2023-08-09 17:56:28.745694,128.0
2023-08-09 17:56:28.753384,100.0
2023-08-09 17:56:28.761075,62.0
2023-08-09 17:56:28.768765,14.0
2023-08-09 17:56:28.776456,-38.0
2023-08-09 17:56:28.784147,-88.0
2023-08-09 17:56:28.791837,-133.0
2023-08-09 17:56:28.799528,-167.0
2023-08-09 17:56:28.807218,-195.0
2023-08-09 17:56:28.814909,-217.0
2023-08-09 17:56:28.822599,-219.0
2023-08-09 17:56:28.830290,-217.0
2023-08-09 17:56:28.837980,-214.0
2023-08-09 17:56:28.845671,-212.0
2023-08-09 17:56:28.853361,-212.0
2023-08-09 17:56:28.861052,-207.0
2023-08-09 17:56:28.868742,-195.0
2023-08-09 17:56:28.876433,-186.0
2023-08-09 17:56:28.884124,-183.0
2023-08-09 17:56:28.891814,-181.0
2023-08-09 17:56:28.899505,-176.0
2023-08-09 17:56:28.907195,-169.0
2023-08-09 17:56:28.914886,-160.0
2023-08-09 17:56:28.922576,-155.0
2023-08-09 17:56:28.930267,-152.0
2023-08-09 17:56:28.937957,-150.0
2023-08-09 17:56:28.945648,-145.0
2023-08-09 17:56:28.953338,-140.0
2023-08-09 17:56:28.961029,-136.0
2023-08-09 17:56:28.968720,-136.0
2023-08-09 17:56:28.976410,-138.0
2023-08-09 17:56:28.984101,-138.0
2023-08-09 17:56:28.991791,-136.0
2023-08-09 17:56:28.999482,-133.0
2023-08-09 17:56:29.007172,-128.0
2023-08-09 17:56:29.014863,-128.0
2023-08-09 17:56:29.022553,-126.0
2023-08-09 17:56:29.030244,-124.0
2023-08-09 17:56:29.037934,-121.0
2023-08-09 17:56:29.045625,-117.0
2023-08-09 17:56:29.053316,-112.0
2023-08-09 17:56:29.061006,-109.0
2023-08-09 17:56:29.068697,-107.0
2023-08-09 17:56:29.076387,-107.0
2023-08-09 17:56:29.084078,-105.0
2023-08-09 17:56:29.091768,-100.0
2023-08-09 17:56:29.099459,-97.0
2023-08-09 17:56:29.107149,-95.0
2023-08-09 17:56:29.114840,-93.0
2023-08-09 17:56:29.122530,-95.0
2023-08-09 17:56:29.130221,-93.0
2023-08-09 17:56:29.137911,-88.0
2023-08-09 17:56:29.145602,-88.0
2023-08-09 17:56:29.153293,-83.0
2023-08-09 17:56:29.160983,-83.0
2023-08-09 17:56:29.168674,-83.0
2023-08-09 17:56:29.176364,-81.0
2023-08-09 17:56:29.184055,-78.0
2023-08-09 17:56:29.191745,-76.0
2023-08-09 17:56:29.199436,-76.0
2023-08-09 17:56:29.207126,-74.0
2023-08-09 17:56:29.214817,-74.0
2023-08-09 17:56:29.222507,-76.0
2023-08-09 17:56:29.230198,-76.0
2023-08-09 17:56:29.237889,-71.0
2023-08-09 17:56:29.245579,-69.0
2023-08-09 17:56:29.253270,-69.0
2023-08-09 17:56:29.260960,-71.0
2023-08-09 17:56:29.268651,-69.0
2023-08-09 17:56:29.276341,-64.0
2023-08-09 17:56:29.284032,-64.0
2023-08-09 17:56:29.291722,-64.0
2023-08-09 17:56:29.299413,-62.0
2023-08-09 17:56:29.307103,-54.0
2023-08-09 17:56:29.314794,-40.0
2023-08-09 17:56:29.322485,-26.0
2023-08-09 17:56:29.330175,-21.0
2023-08-09 17:56:29.337866,-21.0
2023-08-09 17:56:29.345556,-35.0
2023-08-09 17:56:29.353247,-59.0
2023-08-09 17:56:29.360937,-69.0
2023-08-09 17:56:29.368628,-64.0
2023-08-09 17:56:29.376318,-64.0
2023-08-09 17:56:29.384009,-69.0
2023-08-09 17:56:29.391699,-76.0
2023-08-09 17:56:29.399390,-83.0
2023-08-09 17:56:29.407080,-83.0
2023-08-09 17:56:29.414771,-93.0
2023-08-09 17:56:29.422462,-74.0
2023-08-09 17:56:29.430152,136.0
2023-08-09 17:56:29.437843,611.0
2023-08-09 17:56:29.445533,1122.0
2023-08-09 17:56:29.453224,1294.0
2023-08-09 17:56:29.460914,957.0
2023-08-09 17:56:29.468605,343.0
2023-08-09 17:56:29.476295,-107.0
2023-08-09 17:56:29.483986,-203.0
2023-08-09 17:56:29.491676,-162.0
2023-08-09 17:56:29.499367,-207.0
2023-08-09 17:56:29.507058,-250.0
2023-08-09 17:56:29.514748,-229.0
2023-08-09 17:56:29.522439,-219.0
2023-08-09 17:56:29.530129,-222.0
2023-08-09 17:56:29.537820,-205.0
2023-08-09 17:56:29.545510,-186.0
2023-08-09 17:56:29.553201,-176.0
2023-08-09 17:56:29.560891,-162.0
2023-08-09 17:56:29.568582,-145.0
2023-08-09 17:56:29.576272,-133.0
2023-08-09 17:56:29.583963,-117.0
2023-08-09 17:56:29.591654,-97.0
2023-08-09 17:56:29.599344,-81.0
2023-08-09 17:56:29.607035,-62.0
2023-08-09 17:56:29.614725,-42.0
2023-08-09 17:56:29.622416,-21.0
2023-08-09 17:56:29.630106,0.0
2023-08-09 17:56:29.637797,23.0
2023-08-09 17:56:29.645487,47.0
2023-08-09 17:56:29.653178,69.0
2023-08-09 17:56:29.660868,88.0
2023-08-09 17:56:29.668559,105.0
2023-08-09 17:56:29.676250,121.0
2023-08-09 17:56:29.683940,131.0
2023-08-09 17:56:29.691631,131.0
2023-08-09 17:56:29.699321,124.0
2023-08-09 17:56:29.707012,105.0
2023-08-09 17:56:29.714702,71.0
2023-08-09 17:56:29.722393,26.0
2023-08-09 17:56:29.730083,-21.0
2023-08-09 17:56:29.737774,-69.0
2023-08-09 17:56:29.745464,-114.0
2023-08-09 17:56:29.753155,-152.0
2023-08-09 17:56:29.760845,-176.0
2023-08-09 17:56:29.768536,-193.0
2023-08-09 17:56:29.776227,-203.0
2023-08-09 17:56:29.783917,-205.0
2023-08-09 17:56:29.791608,-205.0
2023-08-09 17:56:29.799298,-200.0
2023-08-09 17:56:29.806989,-193.0
2023-08-09 17:56:29.814679,-186.0
2023-08-09 17:56:29.822370,-179.0
2023-08-09 17:56:29.830060,-171.0
2023-08-09 17:56:29.837751,-167.0
2023-08-09 17:56:29.845441,-162.0
2023-08-09 17:56:29.853132,-157.0
2023-08-09 17:56:29.860823,-152.0
2023-08-09 17:56:29.868513,-145.0
2023-08-09 17:56:29.876204,-143.0
2023-08-09 17:56:29.883894,-140.0
2023-08-09 17:56:29.891585,-138.0
2023-08-09 17:56:29.899275,-136.0
2023-08-09 17:56:29.906966,-140.0
2023-08-09 17:56:29.914656,-143.0
2023-08-09 17:56:29.922347,-138.0
2023-08-09 17:56:29.930037,-143.0
2023-08-09 17:56:29.937728,-150.0
2023-08-09 17:56:29.945419,-145.0
2023-08-09 17:56:29.953109,-140.0
2023-08-09 17:56:29.960800,-143.0
2023-08-09 17:56:29.968490,-143.0
2023-08-09 17:56:29.976181,-138.0
2023-08-09 17:56:29.983871,-138.0
2023-08-09 17:56:29.991562,-136.0
2023-08-09 17:56:29.999252,-131.0
2023-08-09 17:56:30.006943,-128.0
2023-08-09 17:56:30.014633,-124.0
2023-08-09 17:56:30.022324,-121.0
2023-08-09 17:56:30.030014,-121.0
2023-08-09 17:56:30.037705,-119.0
2023-08-09 17:56:30.045396,-114.0
2023-08-09 17:56:30.053086,-109.0
2023-08-09 17:56:30.060777,-109.0
2023-08-09 17:56:30.068467,-109.0
2023-08-09 17:56:30.076158,-105.0
2023-08-09 17:56:30.083848,-102.0
2023-08-09 17:56:30.091539,-102.0
2023-08-09 17:56:30.099229,-100.0
2023-08-09 17:56:30.106920,-95.0
2023-08-09 17:56:30.114610,-95.0
2023-08-09 17:56:30.122301,-95.0
2023-08-09 17:56:30.129992,-93.0
2023-08-09 17:56:30.137682,-93.0
2023-08-09 17:56:30.145373,-90.0
2023-08-09 17:56:30.153063,-88.0
2023-08-09 17:56:30.160754,-85.0
2023-08-09 17:56:30.168444,-85.0
2023-08-09 17:56:30.176135,-83.0
2023-08-09 17:56:30.183825,-83.0
2023-08-09 17:56:30.191516,-81.0
2023-08-09 17:56:30.199206,-78.0
2023-08-09 17:56:30.206897,-78.0
2023-08-09 17:56:30.214588,-78.0
2023-08-09 17:56:30.222278,-76.0
2023-08-09 17:56:30.229969,-76.0
2023-08-09 17:56:30.237659,-74.0
2023-08-09 17:56:30.245350,-71.0
2023-08-09 17:56:30.253040,-71.0
2023-08-09 17:56:30.260731,-69.0
2023-08-09 17:56:30.268421,-66.0
2023-08-09 17:56:30.276112,-64.0
2023-08-09 17:56:30.283802,-57.0
2023-08-09 17:56:30.291493,-45.0
2023-08-09 17:56:30.299183,-35.0
2023-08-09 17:56:30.306874,-28.0
2023-08-09 17:56:30.314565,-23.0
2023-08-09 17:56:30.322255,-38.0
2023-08-09 17:56:30.329946,-62.0
2023-08-09 17:56:30.337636,-74.0
2023-08-09 17:56:30.345327,-74.0
2023-08-09 17:56:30.353017,-74.0
2023-08-09 17:56:30.360708,-74.0
2023-08-09 17:56:30.368398,-74.0
2023-08-09 17:56:30.376089,-69.0
2023-08-09 17:56:30.383779,-66.0
2023-08-09 17:56:30.391470,-74.0
2023-08-09 17:56:30.399161,-59.0
2023-08-09 17:56:30.406851,133.0
2023-08-09 17:56:30.414542,587.0
2023-08-09 17:56:30.422232,1086.0
2023-08-09 17:56:30.429923,1265.0
2023-08-09 17:56:30.437613,943.0
2023-08-09 17:56:30.445304,341.0
2023-08-09 17:56:30.452994,-95.0
2023-08-09 17:56:30.460685,-183.0
2023-08-09 17:56:30.468375,-155.0
2023-08-09 17:56:30.476066,-210.0
2023-08-09 17:56:30.483757,-250.0
2023-08-09 17:56:30.491447,-224.0
2023-08-09 17:56:30.499138,-214.0
2023-08-09 17:56:30.506828,-217.0
2023-08-09 17:56:30.514519,-200.0
2023-08-09 17:56:30.522209,-183.0
2023-08-09 17:56:30.529900,-174.0
2023-08-09 17:56:30.537590,-155.0
2023-08-09 17:56:30.545281,-140.0
2023-08-09 17:56:30.552971,-128.0
2023-08-09 17:56:30.560662,-112.0
2023-08-09 17:56:30.568352,-93.0
2023-08-09 17:56:30.576043,-76.0
2023-08-09 17:56:30.583734,-57.0
2023-08-09 17:56:30.591424,-40.0
2023-08-09 17:56:30.599115,-19.0
2023-08-09 17:56:30.606805,2.0
2023-08-09 17:56:30.614496,26.0
2023-08-09 17:56:30.622186,52.0
2023-08-09 17:56:30.629877,76.0
2023-08-09 17:56:30.637567,97.0
2023-08-09 17:56:30.645258,114.0
2023-08-09 17:56:30.652948,126.0
2023-08-09 17:56:30.660639,133.0
2023-08-09 17:56:30.668330,136.0
2023-08-09 17:56:30.676020,126.0
2023-08-09 17:56:30.683711,107.0
2023-08-09 17:56:30.691401,76.0
2023-08-09 17:56:30.699092,33.0
2023-08-09 17:56:30.706782,-19.0
2023-08-09 17:56:30.714473,-74.0
2023-08-09 17:56:30.722163,-117.0
2023-08-09 17:56:30.729854,-152.0
2023-08-09 17:56:30.737544,-181.0
2023-08-09 17:56:30.745235,-200.0
2023-08-09 17:56:30.752926,-205.0
2023-08-09 17:56:30.760616,-205.0
2023-08-09 17:56:30.768307,-207.0
2023-08-09 17:56:30.775997,-207.0
2023-08-09 17:56:30.783688,-205.0
2023-08-09 17:56:30.791378,-198.0
2023-08-09 17:56:30.799069,-191.0
2023-08-09 17:56:30.806759,-181.0
2023-08-09 17:56:30.814450,-174.0
2023-08-09 17:56:30.822140,-169.0
2023-08-09 17:56:30.829831,-167.0
2023-08-09 17:56:30.837522,-160.0
2023-08-09 17:56:30.845212,-157.0
2023-08-09 17:56:30.852903,-152.0
2023-08-09 17:56:30.860593,-145.0
2023-08-09 17:56:30.868284,-143.0
2023-08-09 17:56:30.875974,-143.0
2023-08-09 17:56:30.883665,-143.0
2023-08-09 17:56:30.891355,-140.0
2023-08-09 17:56:30.899046,-136.0
2023-08-09 17:56:30.906736,-136.0
2023-08-09 17:56:30.914427,-136.0
2023-08-09 17:56:30.922117,-138.0
2023-08-09 17:56:30.929808,-140.0
2023-08-09 17:56:30.937499,-138.0
2023-08-09 17:56:30.945189,-136.0
2023-08-09 17:56:30.952880,-136.0
2023-08-09 17:56:30.960570,-136.0
2023-08-09 17:56:30.968261,-136.0
2023-08-09 17:56:30.975951,-128.0
2023-08-09 17:56:30.983642,-124.0
2023-08-09 17:56:30.991332,-128.0
2023-08-09 17:56:30.999023,-124.0
2023-08-09 17:56:31.006713,-121.0
2023-08-09 17:56:31.014404,-133.0
2023-08-09 17:56:31.022095,-136.0
2023-08-09 17:56:31.029785,-126.0
2023-08-09 17:56:31.037476,-121.0
2023-08-09 17:56:31.045166,-121.0
2023-08-09 17:56:31.052857,-121.0
2023-08-09 17:56:31.060547,-126.0
2023-08-09 17:56:31.068238,-131.0
2023-08-09 17:56:31.075928,-126.0
2023-08-09 17:56:31.083619,-121.0
2023-08-09 17:56:31.091309,-119.0
2023-08-09 17:56:31.099000,-119.0
2023-08-09 17:56:31.106691,-117.0
2023-08-09 17:56:31.114381,-114.0
2023-08-09 17:56:31.122072,-112.0
2023-08-09 17:56:31.129762,-109.0
2023-08-09 17:56:31.137453,-107.0
2023-08-09 17:56:31.145143,-107.0
2023-08-09 17:56:31.152834,-107.0
2023-08-09 17:56:31.160524,-105.0
2023-08-09 17:56:31.168215,-102.0
2023-08-09 17:56:31.175905,-102.0
2023-08-09 17:56:31.183596,-97.0
2023-08-09 17:56:31.191286,-97.0
2023-08-09 17:56:31.198977,-100.0
2023-08-09 17:56:31.206668,-95.0
2023-08-09 17:56:31.214358,-90.0
2023-08-09 17:56:31.222049,-90.0
2023-08-09 17:56:31.229739,-81.0
2023-08-09 17:56:31.237430,-71.0
2023-08-09 17:56:31.245120,-64.0
2023-08-09 17:56:31.252811,-54.0
2023-08-09 17:56:31.260501,-57.0
2023-08-09 17:56:31.268192,-81.0
2023-08-09 17:56:31.275882,-100.0
2023-08-09 17:56:31.283573,-97.0
2023-08-09 17:56:31.291264,-95.0
2023-08-09 17:56:31.298954,-95.0
2023-08-09 17:56:31.306645,-90.0
2023-08-09 17:56:31.314335,-85.0
2023-08-09 17:56:31.322026,-88.0
2023-08-09 17:56:31.329716,-100.0
2023-08-09 17:56:31.337407,-78.0
2023-08-09 17:56:31.345097,131.0
2023-08-09 17:56:31.352788,635.0
2023-08-09 17:56:31.360478,1187.0
2023-08-09 17:56:31.368169,1325.0
2023-08-09 17:56:31.375860,888.0
2023-08-09 17:56:31.383550,236.0
2023-08-09 17:56:31.391241,-145.0
2023-08-09 17:56:31.398931,-171.0
2023-08-09 17:56:31.406622,-145.0
2023-08-09 17:56:31.414312,-210.0
2023-08-09 17:56:31.422003,-236.0
2023-08-09 17:56:31.429693,-214.0
2023-08-09 17:56:31.437384,-219.0
2023-08-09 17:56:31.445074,-217.0
2023-08-09 17:56:31.452765,-195.0
2023-08-09 17:56:31.460455,-181.0
2023-08-09 17:56:31.468146,-174.0
2023-08-09 17:56:31.475837,-155.0
2023-08-09 17:56:31.483527,-136.0
2023-08-09 17:56:31.491218,-124.0
2023-08-09 17:56:31.498908,-105.0
2023-08-09 17:56:31.506599,-85.0
2023-08-09 17:56:31.514289,-69.0
2023-08-09 17:56:31.521980,-50.0
2023-08-09 17:56:31.529670,-26.0
2023-08-09 17:56:31.537361,-2.0
2023-08-09 17:56:31.545051,21.0
2023-08-09 17:56:31.552742,45.0
2023-08-09 17:56:31.560433,66.0
2023-08-09 17:56:31.568123,93.0
2023-08-09 17:56:31.575814,117.0
2023-08-09 17:56:31.583504,138.0
2023-08-09 17:56:31.591195,150.0
2023-08-09 17:56:31.598885,148.0
2023-08-09 17:56:31.606576,140.0
2023-08-09 17:56:31.614266,128.0
2023-08-09 17:56:31.621957,107.0
2023-08-09 17:56:31.629647,69.0
2023-08-09 17:56:31.637338,16.0
2023-08-09 17:56:31.645029,-45.0
2023-08-09 17:56:31.652719,-105.0
2023-08-09 17:56:31.660410,-150.0
2023-08-09 17:56:31.668100,-183.0
2023-08-09 17:56:31.675791,-212.0
2023-08-09 17:56:31.683481,-231.0
2023-08-09 17:56:31.691172,-246.0
2023-08-09 17:56:31.698862,-246.0
2023-08-09 17:56:31.706553,-243.0
2023-08-09 17:56:31.714243,-236.0
2023-08-09 17:56:31.721934,-229.0
2023-08-09 17:56:31.729625,-222.0
2023-08-09 17:56:31.737315,-212.0
2023-08-09 17:56:31.745006,-203.0
2023-08-09 17:56:31.752696,-193.0
2023-08-09 17:56:31.760387,-183.0
2023-08-09 17:56:31.768077,-176.0
2023-08-09 17:56:31.775768,-169.0
2023-08-09 17:56:31.783458,-162.0
2023-08-09 17:56:31.791149,-152.0
2023-08-09 17:56:31.798839,-148.0
2023-08-09 17:56:31.806530,-143.0
2023-08-09 17:56:31.814220,-138.0
2023-08-09 17:56:31.821911,-138.0
2023-08-09 17:56:31.829602,-138.0
2023-08-09 17:56:31.837292,-136.0
2023-08-09 17:56:31.844983,-136.0
2023-08-09 17:56:31.852673,-133.0
2023-08-09 17:56:31.860364,-131.0
2023-08-09 17:56:31.868054,-131.0
2023-08-09 17:56:31.875745,-131.0
2023-08-09 17:56:31.883435,-126.0
2023-08-09 17:56:31.891126,-126.0
2023-08-09 17:56:31.898816,-126.0
2023-08-09 17:56:31.906507,-124.0
2023-08-09 17:56:31.914198,-124.0
2023-08-09 17:56:31.921888,-121.0
2023-08-09 17:56:31.929579,-121.0
2023-08-09 17:56:31.937269,-124.0
2023-08-09 17:56:31.944960,-124.0
2023-08-09 17:56:31.952650,-119.0
2023-08-09 17:56:31.960341,-117.0
2023-08-09 17:56:31.968031,-114.0
2023-08-09 17:56:31.975722,-112.0
2023-08-09 17:56:31.983412,-109.0
2023-08-09 17:56:31.991103,-107.0
2023-08-09 17:56:31.998794,-102.0
2023-08-09 17:56:32.006484,-102.0
2023-08-09 17:56:32.014175,-100.0
2023-08-09 17:56:32.021865,-97.0
2023-08-09 17:56:32.029556,-95.0
2023-08-09 17:56:32.037246,-93.0
2023-08-09 17:56:32.044937,-93.0
2023-08-09 17:56:32.052627,-90.0
2023-08-09 17:56:32.060318,-88.0
2023-08-09 17:56:32.068008,-85.0
2023-08-09 17:56:32.075699,-85.0
2023-08-09 17:56:32.083389,-83.0
2023-08-09 17:56:32.091080,-83.0
2023-08-09 17:56:32.098771,-83.0
2023-08-09 17:56:32.106461,-81.0
2023-08-09 17:56:32.114152,-74.0
2023-08-09 17:56:32.121842,-64.0
2023-08-09 17:56:32.129533,-50.0
2023-08-09 17:56:32.137223,-40.0
2023-08-09 17:56:32.144914,-42.0
2023-08-09 17:56:32.152604,-59.0
2023-08-09 17:56:32.160295,-78.0
2023-08-09 17:56:32.167985,-85.0
2023-08-09 17:56:32.175676,-88.0
2023-08-09 17:56:32.183367,-97.0
2023-08-09 17:56:32.191057,-100.0
2023-08-09 17:56:32.198748,-93.0
2023-08-09 17:56:32.206438,-90.0
2023-08-09 17:56:32.214129,-95.0
2023-08-09 17:56:32.221819,-112.0
2023-08-09 17:56:32.229510,-40.0
2023-08-09 17:56:32.237200,291.0
2023-08-09 17:56:32.244891,833.0
2023-08-09 17:56:32.252581,1261.0
2023-08-09 17:56:32.260272,1234.0
2023-08-09 17:56:32.267963,723.0
2023-08-09 17:56:32.275653,102.0
2023-08-09 17:56:32.283344,-203.0
2023-08-09 17:56:32.291034,-176.0
2023-08-09 17:56:32.298725,-162.0
2023-08-09 17:56:32.306415,-236.0
2023-08-09 17:56:32.314106,-241.0
2023-08-09 17:56:32.321796,-210.0
2023-08-09 17:56:32.329487,-212.0
2023-08-09 17:56:32.337177,-205.0
2023-08-09 17:56:32.344868,-183.0
2023-08-09 17:56:32.352558,-169.0
2023-08-09 17:56:32.360249,-157.0
2023-08-09 17:56:32.367940,-140.0
2023-08-09 17:56:32.375630,-124.0
2023-08-09 17:56:32.383321,-107.0
2023-08-09 17:56:32.391011,-90.0
2023-08-09 17:56:32.398702,-74.0
2023-08-09 17:56:32.406392,-54.0
2023-08-09 17:56:32.414083,-35.0
2023-08-09 17:56:32.421773,-19.0
2023-08-09 17:56:32.429464,2.0
2023-08-09 17:56:32.437154,26.0
2023-08-09 17:56:32.444845,45.0
2023-08-09 17:56:32.452536,62.0
2023-08-09 17:56:32.460226,85.0
2023-08-09 17:56:32.467917,109.0
2023-08-09 17:56:32.475607,126.0
2023-08-09 17:56:32.483298,138.0
2023-08-09 17:56:32.490988,140.0
2023-08-09 17:56:32.498679,131.0
2023-08-09 17:56:32.506369,114.0
2023-08-09 17:56:32.514060,88.0
2023-08-09 17:56:32.521750,47.0
2023-08-09 17:56:32.529441,-2.0
2023-08-09 17:56:32.537132,-59.0
2023-08-09 17:56:32.544822,-109.0
2023-08-09 17:56:32.552513,-148.0
2023-08-09 17:56:32.560203,-174.0
2023-08-09 17:56:32.567894,-195.0
2023-08-09 17:56:32.575584,-207.0
2023-08-09 17:56:32.583275,-212.0
2023-08-09 17:56:32.590965,-212.0
2023-08-09 17:56:32.598656,-207.0
2023-08-09 17:56:32.606346,-198.0
2023-08-09 17:56:32.614037,-191.0
2023-08-09 17:56:32.621727,-183.0
2023-08-09 17:56:32.629418,-179.0
2023-08-09 17:56:32.637109,-174.0
2023-08-09 17:56:32.644799,-164.0
2023-08-09 17:56:32.652490,-157.0
2023-08-09 17:56:32.660180,-152.0
2023-08-09 17:56:32.667871,-150.0
2023-08-09 17:56:32.675561,-148.0
2023-08-09 17:56:32.683252,-145.0
2023-08-09 17:56:32.690942,-138.0
2023-08-09 17:56:32.698633,-133.0
2023-08-09 17:56:32.706323,-131.0
2023-08-09 17:56:32.714014,-128.0
2023-08-09 17:56:32.721705,-136.0
2023-08-09 17:56:32.729395,-140.0
2023-08-09 17:56:32.737086,-136.0
2023-08-09 17:56:32.744776,-128.0
2023-08-09 17:56:32.752467,-128.0
2023-08-09 17:56:32.760157,-128.0
2023-08-09 17:56:32.767848,-126.0
2023-08-09 17:56:32.775538,-126.0
2023-08-09 17:56:32.783229,-121.0
2023-08-09 17:56:32.790919,-117.0
2023-08-09 17:56:32.798610,-114.0
2023-08-09 17:56:32.806301,-112.0
2023-08-09 17:56:32.813991,-112.0
2023-08-09 17:56:32.821682,-109.0
2023-08-09 17:56:32.829372,-105.0
2023-08-09 17:56:32.837063,-102.0
2023-08-09 17:56:32.844753,-97.0
2023-08-09 17:56:32.852444,-97.0
2023-08-09 17:56:32.860134,-95.0
2023-08-09 17:56:32.867825,-93.0
2023-08-09 17:56:32.875515,-90.0
2023-08-09 17:56:32.883206,-88.0
2023-08-09 17:56:32.890897,-85.0
2023-08-09 17:56:32.898587,-83.0
2023-08-09 17:56:32.906278,-88.0
2023-08-09 17:56:32.913968,-88.0
2023-08-09 17:56:32.921659,-85.0
2023-08-09 17:56:32.929349,-85.0
2023-08-09 17:56:32.937040,-83.0
2023-08-09 17:56:32.944730,-83.0
2023-08-09 17:56:32.952421,-85.0
2023-08-09 17:56:32.960111,-85.0
2023-08-09 17:56:32.967802,-81.0
2023-08-09 17:56:32.975492,-78.0
2023-08-09 17:56:32.983183,-78.0
2023-08-09 17:56:32.990874,-76.0
2023-08-09 17:56:32.998564,-76.0
2023-08-09 17:56:33.006255,-74.0
2023-08-09 17:56:33.013945,-71.0
2023-08-09 17:56:33.021636,-69.0
2023-08-09 17:56:33.029326,-64.0
2023-08-09 17:56:33.037017,-54.0
2023-08-09 17:56:33.044707,-42.0
2023-08-09 17:56:33.052398,-33.0
2023-08-09 17:56:33.060088,-23.0
2023-08-09 17:56:33.067779,-31.0
2023-08-09 17:56:33.075470,-57.0
2023-08-09 17:56:33.083160,-74.0
2023-08-09 17:56:33.090851,-76.0
2023-08-09 17:56:33.098541,-78.0
2023-08-09 17:56:33.106232,-76.0
2023-08-09 17:56:33.113922,-74.0
2023-08-09 17:56:33.121613,-71.0
2023-08-09 17:56:33.129303,-71.0
2023-08-09 17:56:33.136994,-76.0
2023-08-09 17:56:33.144684,-76.0
2023-08-09 17:56:33.152375,50.0
2023-08-09 17:56:33.160066,434.0
2023-08-09 17:56:33.167756,967.0
2023-08-09 17:56:33.175447,1304.0
2023-08-09 17:56:33.183137,1139.0
2023-08-09 17:56:33.190828,558.0
2023-08-09 17:56:33.198518,7.0
2023-08-09 17:56:33.206209,-188.0
2023-08-09 17:56:33.213899,-145.0
2023-08-09 17:56:33.221590,-164.0
2023-08-09 17:56:33.229280,-226.0
2023-08-09 17:56:33.236971,-214.0
2023-08-09 17:56:33.244661,-193.0
2023-08-09 17:56:33.252352,-200.0
2023-08-09 17:56:33.260043,-188.0
2023-08-09 17:56:33.267733,-169.0
2023-08-09 17:56:33.275424,-157.0
2023-08-09 17:56:33.283114,-143.0
2023-08-09 17:56:33.290805,-126.0
2023-08-09 17:56:33.298495,-112.0
2023-08-09 17:56:33.306186,-102.0
2023-08-09 17:56:33.313876,-93.0
2023-08-09 17:56:33.321567,-76.0
2023-08-09 17:56:33.329257,-54.0
2023-08-09 17:56:33.336948,-33.0
2023-08-09 17:56:33.344639,-14.0
2023-08-09 17:56:33.352329,0.0
2023-08-09 17:56:33.360020,16.0
2023-08-09 17:56:33.367710,42.0
2023-08-09 17:56:33.375401,66.0
2023-08-09 17:56:33.383091,88.0
2023-08-09 17:56:33.390782,109.0
2023-08-09 17:56:33.398472,126.0
2023-08-09 17:56:33.406163,133.0
2023-08-09 17:56:33.413853,133.0
2023-08-09 17:56:33.421544,126.0
2023-08-09 17:56:33.429235,109.0
2023-08-09 17:56:33.436925,81.0
2023-08-09 17:56:33.444616,38.0
2023-08-09 17:56:33.452306,-11.0
2023-08-09 17:56:33.459997,-69.0
2023-08-09 17:56:33.467687,-119.0
2023-08-09 17:56:33.475378,-152.0
2023-08-09 17:56:33.483068,-179.0
2023-08-09 17:56:33.490759,-200.0
2023-08-09 17:56:33.498449,-210.0
2023-08-09 17:56:33.506140,-214.0
2023-08-09 17:56:33.513830,-212.0
2023-08-09 17:56:33.521521,-205.0
2023-08-09 17:56:33.529212,-200.0
2023-08-09 17:56:33.536902,-193.0
2023-08-09 17:56:33.544593,-186.0
2023-08-09 17:56:33.552283,-179.0
2023-08-09 17:56:33.559974,-171.0
2023-08-09 17:56:33.567664,-164.0
2023-08-09 17:56:33.575355,-160.0
2023-08-09 17:56:33.583045,-157.0
2023-08-09 17:56:33.590736,-150.0
2023-08-09 17:56:33.598426,-148.0
2023-08-09 17:56:33.606117,-143.0
2023-08-09 17:56:33.613808,-136.0
2023-08-09 17:56:33.621498,-133.0
2023-08-09 17:56:33.629189,-133.0
2023-08-09 17:56:33.636879,-131.0
2023-08-09 17:56:33.644570,-126.0
2023-08-09 17:56:33.652260,-128.0
2023-08-09 17:56:33.659951,-128.0
2023-08-09 17:56:33.667641,-126.0
2023-08-09 17:56:33.675332,-126.0
2023-08-09 17:56:33.683022,-124.0
2023-08-09 17:56:33.690713,-121.0
2023-08-09 17:56:33.698404,-119.0
2023-08-09 17:56:33.706094,-117.0
2023-08-09 17:56:33.713785,-117.0
2023-08-09 17:56:33.721475,-114.0
2023-08-09 17:56:33.729166,-112.0
2023-08-09 17:56:33.736856,-109.0
2023-08-09 17:56:33.744547,-107.0
2023-08-09 17:56:33.752237,-105.0
2023-08-09 17:56:33.759928,-105.0
2023-08-09 17:56:33.767618,-100.0
2023-08-09 17:56:33.775309,-97.0
2023-08-09 17:56:33.782999,-97.0
2023-08-09 17:56:33.790690,-95.0
2023-08-09 17:56:33.798381,-93.0
2023-08-09 17:56:33.806071,-93.0
2023-08-09 17:56:33.813762,-90.0
2023-08-09 17:56:33.821452,-88.0
2023-08-09 17:56:33.829143,-85.0
2023-08-09 17:56:33.836833,-83.0
2023-08-09 17:56:33.844524,-85.0
2023-08-09 17:56:33.852214,-95.0
2023-08-09 17:56:33.859905,-93.0
2023-08-09 17:56:33.867595,-85.0
2023-08-09 17:56:33.875286,-88.0
2023-08-09 17:56:33.882977,-88.0
2023-08-09 17:56:33.890667,-83.0
2023-08-09 17:56:33.898358,-85.0
2023-08-09 17:56:33.906048,-85.0
2023-08-09 17:56:33.913739,-83.0
2023-08-09 17:56:33.921429,-81.0
2023-08-09 17:56:33.929120,-81.0
2023-08-09 17:56:33.936810,-78.0
2023-08-09 17:56:33.944501,-78.0
2023-08-09 17:56:33.952191,-78.0
2023-08-09 17:56:33.959882,-81.0
2023-08-09 17:56:33.967573,-83.0
2023-08-09 17:56:33.975263,-83.0
2023-08-09 17:56:33.982954,-81.0
2023-08-09 17:56:33.990644,-76.0
2023-08-09 17:56:33.998335,-69.0
2023-08-09 17:56:34.006025,-54.0
2023-08-09 17:56:34.013716,-47.0
2023-08-09 17:56:34.021406,-38.0
2023-08-09 17:56:34.029097,-33.0
2023-08-09 17:56:34.036787,-45.0
2023-08-09 17:56:34.044478,-69.0
2023-08-09 17:56:34.052169,-83.0
2023-08-09 17:56:34.059859,-83.0
2023-08-09 17:56:34.067550,-81.0
2023-08-09 17:56:34.075240,-81.0
2023-08-09 17:56:34.082931,-81.0
2023-08-09 17:56:34.090621,-76.0
2023-08-09 17:56:34.098312,-74.0
2023-08-09 17:56:34.106002,-81.0
2023-08-09 17:56:34.113693,-69.0
2023-08-09 17:56:34.121383,112.0
2023-08-09 17:56:34.129074,558.0
2023-08-09 17:56:34.136764,1077.0
2023-08-09 17:56:34.144455,1285.0
2023-08-09 17:56:34.152146,964.0
2023-08-09 17:56:34.159836,351.0
2023-08-09 17:56:34.167527,-90.0
2023-08-09 17:56:34.175217,-183.0
2023-08-09 17:56:34.182908,-148.0
2023-08-09 17:56:34.190598,-191.0
2023-08-09 17:56:34.198289,-236.0
2023-08-09 17:56:34.205979,-217.0
2023-08-09 17:56:34.213670,-205.0
2023-08-09 17:56:34.221360,-207.0
2023-08-09 17:56:34.229051,-193.0
2023-08-09 17:56:34.236742,-176.0
2023-08-09 17:56:34.244432,-167.0
2023-08-09 17:56:34.252123,-155.0
2023-08-09 17:56:34.259813,-138.0
2023-08-09 17:56:34.267504,-124.0
2023-08-09 17:56:34.275194,-107.0
2023-08-09 17:56:34.282885,-90.0
2023-08-09 17:56:34.290575,-76.0
2023-08-09 17:56:34.298266,-59.0
2023-08-09 17:56:34.305956,-40.0
2023-08-09 17:56:34.313647,-19.0
2023-08-09 17:56:34.321338,2.0
2023-08-09 17:56:34.329028,26.0
2023-08-09 17:56:34.336719,45.0
2023-08-09 17:56:34.344409,69.0
2023-08-09 17:56:34.352100,90.0
2023-08-09 17:56:34.359790,109.0
2023-08-09 17:56:34.367481,124.0
2023-08-09 17:56:34.375171,131.0
2023-08-09 17:56:34.382862,131.0
2023-08-09 17:56:34.390552,121.0
2023-08-09 17:56:34.398243,105.0
2023-08-09 17:56:34.405933,76.0
2023-08-09 17:56:34.413624,38.0
2023-08-09 17:56:34.421315,-9.0
2023-08-09 17:56:34.429005,-64.0
2023-08-09 17:56:34.436696,-117.0
2023-08-09 17:56:34.444386,-155.0
2023-08-09 17:56:34.452077,-176.0
2023-08-09 17:56:34.459767,-193.0
2023-08-09 17:56:34.467458,-210.0
2023-08-09 17:56:34.475148,-222.0
2023-08-09 17:56:34.482839,-217.0
2023-08-09 17:56:34.490529,-210.0
2023-08-09 17:56:34.498220,-205.0
2023-08-09 17:56:34.505911,-200.0
2023-08-09 17:56:34.513601,-191.0
2023-08-09 17:56:34.521292,-186.0
2023-08-09 17:56:34.528982,-179.0
2023-08-09 17:56:34.536673,-171.0
2023-08-09 17:56:34.544363,-164.0
2023-08-09 17:56:34.552054,-160.0
2023-08-09 17:56:34.559744,-157.0
2023-08-09 17:56:34.567435,-155.0
2023-08-09 17:56:34.575125,-155.0
2023-08-09 17:56:34.582816,-150.0
2023-08-09 17:56:34.590507,-145.0
2023-08-09 17:56:34.598197,-143.0
2023-08-09 17:56:34.605888,-143.0
2023-08-09 17:56:34.613578,-143.0
2023-08-09 17:56:34.621269,-140.0
2023-08-09 17:56:34.628959,-138.0
2023-08-09 17:56:34.636650,-133.0
2023-08-09 17:56:34.644340,-131.0
2023-08-09 17:56:34.652031,-131.0
2023-08-09 17:56:34.659721,-131.0
2023-08-09 17:56:34.667412,-128.0
2023-08-09 17:56:34.675102,-126.0
2023-08-09 17:56:34.682793,-124.0
2023-08-09 17:56:34.690484,-124.0
2023-08-09 17:56:34.698174,-124.0
2023-08-09 17:56:34.705865,-119.0
2023-08-09 17:56:34.713555,-117.0
2023-08-09 17:56:34.721246,-117.0
2023-08-09 17:56:34.728936,-112.0
2023-08-09 17:56:34.736627,-107.0
2023-08-09 17:56:34.744317,-109.0
2023-08-09 17:56:34.752008,-109.0
2023-08-09 17:56:34.759698,-107.0
2023-08-09 17:56:34.767389,-102.0
2023-08-09 17:56:34.775080,-102.0
2023-08-09 17:56:34.782770,-100.0
2023-08-09 17:56:34.790461,-100.0
2023-08-09 17:56:34.798151,-102.0
2023-08-09 17:56:34.805842,-100.0
2023-08-09 17:56:34.813532,-97.0
2023-08-09 17:56:34.821223,-95.0
2023-08-09 17:56:34.828913,-93.0
2023-08-09 17:56:34.836604,-93.0
2023-08-09 17:56:34.844294,-95.0
2023-08-09 17:56:34.851985,-93.0
2023-08-09 17:56:34.859676,-88.0
2023-08-09 17:56:34.867366,-88.0
2023-08-09 17:56:34.875057,-88.0
2023-08-09 17:56:34.882747,-85.0
2023-08-09 17:56:34.890438,-85.0
2023-08-09 17:56:34.898128,-83.0
2023-08-09 17:56:34.905819,-81.0
2023-08-09 17:56:34.913509,-78.0
2023-08-09 17:56:34.921200,-76.0
2023-08-09 17:56:34.928890,-81.0
2023-08-09 17:56:34.936581,-81.0
2023-08-09 17:56:34.944272,-78.0
2023-08-09 17:56:34.951962,-76.0
2023-08-09 17:56:34.959653,-78.0
2023-08-09 17:56:34.967343,-85.0
2023-08-09 17:56:34.975034,-88.0
2023-08-09 17:56:34.982724,-83.0
2023-08-09 17:56:34.990415,-66.0
2023-08-09 17:56:34.998105,-57.0
2023-08-09 17:56:35.005796,-52.0
2023-08-09 17:56:35.013486,-45.0
2023-08-09 17:56:35.021177,-47.0
2023-08-09 17:56:35.028867,-69.0
2023-08-09 17:56:35.036558,-90.0
2023-08-09 17:56:35.044249,-95.0
2023-08-09 17:56:35.051939,-95.0
2023-08-09 17:56:35.059630,-100.0
2023-08-09 17:56:35.067320,-112.0
2023-08-09 17:56:35.075011,-112.0
2023-08-09 17:56:35.082701,-105.0
2023-08-09 17:56:35.090392,-105.0
2023-08-09 17:56:35.098082,-117.0
2023-08-09 17:56:35.105773,-74.0
2023-08-09 17:56:35.113463,200.0
2023-08-09 17:56:35.121154,742.0
2023-08-09 17:56:35.128845,1232.0
2023-08-09 17:56:35.136535,1242.0
2023-08-09 17:56:35.144226,730.0
2023-08-09 17:56:35.151916,124.0
2023-08-09 17:56:35.159607,-174.0
2023-08-09 17:56:35.167297,-179.0
2023-08-09 17:56:35.174988,-174.0
2023-08-09 17:56:35.182678,-229.0
2023-08-09 17:56:35.190369,-241.0
2023-08-09 17:56:35.198059,-224.0
2023-08-09 17:56:35.205750,-224.0
2023-08-09 17:56:35.213441,-219.0
2023-08-09 17:56:35.221131,-200.0
2023-08-09 17:56:35.228822,-186.0
2023-08-09 17:56:35.236512,-176.0
2023-08-09 17:56:35.244203,-160.0
2023-08-09 17:56:35.251893,-143.0
2023-08-09 17:56:35.259584,-128.0
2023-08-09 17:56:35.267274,-109.0
2023-08-09 17:56:35.274965,-88.0
2023-08-09 17:56:35.282655,-74.0
2023-08-09 17:56:35.290346,-59.0
2023-08-09 17:56:35.298036,-38.0
2023-08-09 17:56:35.305727,-14.0
2023-08-09 17:56:35.313418,7.0
2023-08-09 17:56:35.321108,31.0
2023-08-09 17:56:35.328799,54.0
2023-08-09 17:56:35.336489,76.0
2023-08-09 17:56:35.344180,102.0
2023-08-09 17:56:35.351870,126.0
2023-08-09 17:56:35.359561,140.0
2023-08-09 17:56:35.367251,145.0
2023-08-09 17:56:35.374942,140.0
2023-08-09 17:56:35.382632,128.0
2023-08-09 17:56:35.390323,109.0
2023-08-09 17:56:35.398014,78.0
2023-08-09 17:56:35.405704,31.0
2023-08-09 17:56:35.413395,-26.0
2023-08-09 17:56:35.421085,-78.0
2023-08-09 17:56:35.428776,-128.0
2023-08-09 17:56:35.436466,-164.0
2023-08-09 17:56:35.444157,-191.0
2023-08-09 17:56:35.451847,-207.0
2023-08-09 17:56:35.459538,-219.0
2023-08-09 17:56:35.467228,-224.0
2023-08-09 17:56:35.474919,-224.0
2023-08-09 17:56:35.482610,-226.0
2023-08-09 17:56:35.490300,-226.0
2023-08-09 17:56:35.497991,-214.0
2023-08-09 17:56:35.505681,-203.0
2023-08-09 17:56:35.513372,-195.0
2023-08-09 17:56:35.521062,-188.0
2023-08-09 17:56:35.528753,-181.0
2023-08-09 17:56:35.536443,-174.0
2023-08-09 17:56:35.544134,-167.0
2023-08-09 17:56:35.551824,-167.0
2023-08-09 17:56:35.559515,-174.0
2023-08-09 17:56:35.567205,-174.0
2023-08-09 17:56:35.574896,-167.0
2023-08-09 17:56:35.582587,-164.0
2023-08-09 17:56:35.590277,-162.0
2023-08-09 17:56:35.597968,-160.0
2023-08-09 17:56:35.605658,-160.0
2023-08-09 17:56:35.613349,-157.0
2023-08-09 17:56:35.621039,-155.0
2023-08-09 17:56:35.628730,-160.0
2023-08-09 17:56:35.636420,-157.0
2023-08-09 17:56:35.644111,-152.0
2023-08-09 17:56:35.651801,-150.0
2023-08-09 17:56:35.659492,-148.0
2023-08-09 17:56:35.667183,-140.0
2023-08-09 17:56:35.674873,-138.0
2023-08-09 17:56:35.682564,-138.0
2023-08-09 17:56:35.690254,-136.0
2023-08-09 17:56:35.697945,-124.0
2023-08-09 17:56:35.705635,-117.0
2023-08-09 17:56:35.713326,-119.0
2023-08-09 17:56:35.721016,-119.0
2023-08-09 17:56:35.728707,-117.0
2023-08-09 17:56:35.736397,-114.0
2023-08-09 17:56:35.744088,-112.0
2023-08-09 17:56:35.751779,-109.0
2023-08-09 17:56:35.759469,-107.0
2023-08-09 17:56:35.767160,-105.0
2023-08-09 17:56:35.774850,-102.0
2023-08-09 17:56:35.782541,-102.0
2023-08-09 17:56:35.790231,-100.0
2023-08-09 17:56:35.797922,-97.0
2023-08-09 17:56:35.805612,-95.0
2023-08-09 17:56:35.813303,-93.0
2023-08-09 17:56:35.820993,-90.0
2023-08-09 17:56:35.828684,-88.0
2023-08-09 17:56:35.836374,-85.0
2023-08-09 17:56:35.844065,-83.0
2023-08-09 17:56:35.851756,-81.0
2023-08-09 17:56:35.859446,-81.0
2023-08-09 17:56:35.867137,-81.0
2023-08-09 17:56:35.874827,-85.0
2023-08-09 17:56:35.882518,-83.0
2023-08-09 17:56:35.890208,-78.0
2023-08-09 17:56:35.897899,-74.0
2023-08-09 17:56:35.905589,-64.0
2023-08-09 17:56:35.913280,-52.0
2023-08-09 17:56:35.920970,-42.0
2023-08-09 17:56:35.928661,-33.0
2023-08-09 17:56:35.936352,-35.0
2023-08-09 17:56:35.944042,-57.0
2023-08-09 17:56:35.951733,-74.0
2023-08-09 17:56:35.959423,-78.0
2023-08-09 17:56:35.967114,-83.0
2023-08-09 17:56:35.974804,-88.0
2023-08-09 17:56:35.982495,-93.0
2023-08-09 17:56:35.990185,-95.0
2023-08-09 17:56:35.997876,-88.0
2023-08-09 17:56:36.005566,-90.0
2023-08-09 17:56:36.013257,-102.0
2023-08-09 17:56:36.020948,-2.0
2023-08-09 17:56:36.028638,386.0
2023-08-09 17:56:36.036329,981.0
2023-08-09 17:56:36.044019,1363.0
2023-08-09 17:56:36.051710,1194.0
2023-08-09 17:56:36.059400,601.0
2023-08-09 17:56:36.067091,38.0
2023-08-09 17:56:36.074781,-181.0
2023-08-09 17:56:36.082472,-145.0
2023-08-09 17:56:36.090162,-160.0
2023-08-09 17:56:36.097853,-231.0
2023-08-09 17:56:36.105544,-229.0
2023-08-09 17:56:36.113234,-210.0
2023-08-09 17:56:36.120925,-214.0
2023-08-09 17:56:36.128615,-203.0
2023-08-09 17:56:36.136306,-183.0
2023-08-09 17:56:36.143996,-171.0
2023-08-09 17:56:36.151687,-160.0
2023-08-09 17:56:36.159377,-140.0
2023-08-09 17:56:36.167068,-124.0
2023-08-09 17:56:36.174758,-109.0
2023-08-09 17:56:36.182449,-90.0
2023-08-09 17:56:36.190139,-71.0
2023-08-09 17:56:36.197830,-52.0
2023-08-09 17:56:36.205521,-33.0
2023-08-09 17:56:36.213211,-9.0
2023-08-09 17:56:36.220902,11.0
2023-08-09 17:56:36.228592,33.0
2023-08-09 17:56:36.236283,54.0
2023-08-09 17:56:36.243973,81.0
2023-08-09 17:56:36.251664,105.0
2023-08-09 17:56:36.259354,126.0
2023-08-09 17:56:36.267045,143.0
2023-08-09 17:56:36.274735,152.0
2023-08-09 17:56:36.282426,152.0
2023-08-09 17:56:36.290117,145.0
2023-08-09 17:56:36.297807,128.0
2023-08-09 17:56:36.305498,100.0
2023-08-09 17:56:36.313188,62.0
2023-08-09 17:56:36.320879,9.0
2023-08-09 17:56:36.328569,-47.0
2023-08-09 17:56:36.336260,-97.0
2023-08-09 17:56:36.343950,-140.0
2023-08-09 17:56:36.351641,-171.0
2023-08-09 17:56:36.359331,-198.0
2023-08-09 17:56:36.367022,-214.0
2023-08-09 17:56:36.374713,-219.0
2023-08-09 17:56:36.382403,-217.0
2023-08-09 17:56:36.390094,-217.0
2023-08-09 17:56:36.397784,-210.0
2023-08-09 17:56:36.405475,-203.0
2023-08-09 17:56:36.413165,-195.0
2023-08-09 17:56:36.420856,-188.0
2023-08-09 17:56:36.428546,-179.0
2023-08-09 17:56:36.436237,-171.0
2023-08-09 17:56:36.443927,-167.0
2023-08-09 17:56:36.451618,-162.0
2023-08-09 17:56:36.459308,-157.0
2023-08-09 17:56:36.466999,-150.0
2023-08-09 17:56:36.474690,-145.0
2023-08-09 17:56:36.482380,-143.0
2023-08-09 17:56:36.490071,-145.0
2023-08-09 17:56:36.497761,-145.0
2023-08-09 17:56:36.505452,-145.0
2023-08-09 17:56:36.513142,-140.0
2023-08-09 17:56:36.520833,-138.0
2023-08-09 17:56:36.528523,-136.0
2023-08-09 17:56:36.536214,-136.0
2023-08-09 17:56:36.543904,-133.0
2023-08-09 17:56:36.551595,-133.0
2023-08-09 17:56:36.559286,-131.0
2023-08-09 17:56:36.566976,-126.0
2023-08-09 17:56:36.574667,-124.0
2023-08-09 17:56:36.582357,-121.0
2023-08-09 17:56:36.590048,-119.0
2023-08-09 17:56:36.597738,-119.0
2023-08-09 17:56:36.605429,-121.0
2023-08-09 17:56:36.613119,-119.0
2023-08-09 17:56:36.620810,-114.0
2023-08-09 17:56:36.628500,-112.0
2023-08-09 17:56:36.636191,-112.0
2023-08-09 17:56:36.643882,-112.0
2023-08-09 17:56:36.651572,-109.0
2023-08-09 17:56:36.659263,-105.0
2023-08-09 17:56:36.666953,-102.0
2023-08-09 17:56:36.674644,-102.0
2023-08-09 17:56:36.682334,-107.0
2023-08-09 17:56:36.690025,-109.0
2023-08-09 17:56:36.697715,-107.0
2023-08-09 17:56:36.705406,-102.0
2023-08-09 17:56:36.713096,-100.0
2023-08-09 17:56:36.720787,-97.0
2023-08-09 17:56:36.728477,-97.0
2023-08-09 17:56:36.736168,-95.0
2023-08-09 17:56:36.743859,-90.0
2023-08-09 17:56:36.751549,-88.0
2023-08-09 17:56:36.759240,-85.0
2023-08-09 17:56:36.766930,-85.0
2023-08-09 17:56:36.774621,-85.0
2023-08-09 17:56:36.782311,-85.0
2023-08-09 17:56:36.790002,-85.0
2023-08-09 17:56:36.797692,-85.0
2023-08-09 17:56:36.805383,-83.0
2023-08-09 17:56:36.813073,-83.0
2023-08-09 17:56:36.820764,-85.0
2023-08-09 17:56:36.828455,-85.0
2023-08-09 17:56:36.836145,-76.0
2023-08-09 17:56:36.843836,-62.0
2023-08-09 17:56:36.851526,-57.0
2023-08-09 17:56:36.859217,-50.0
2023-08-09 17:56:36.866907,-45.0
2023-08-09 17:56:36.874598,-64.0
2023-08-09 17:56:36.882288,-90.0
2023-08-09 17:56:36.889979,-95.0
2023-08-09 17:56:36.897669,-95.0
2023-08-09 17:56:36.905360,-100.0
2023-08-09 17:56:36.913051,-100.0
2023-08-09 17:56:36.920741,-90.0
2023-08-09 17:56:36.928432,-85.0
2023-08-09 17:56:36.936122,-93.0
2023-08-09 17:56:36.943813,-114.0
2023-08-09 17:56:36.951503,-52.0
2023-08-09 17:56:36.959194,253.0
2023-08-09 17:56:36.966884,771.0
2023-08-09 17:56:36.974575,1225.0
2023-08-09 17:56:36.982265,1258.0
2023-08-09 17:56:36.989956,788.0
2023-08-09 17:56:36.997646,162.0
2023-08-09 17:56:37.005337,-183.0
2023-08-09 17:56:37.013028,-191.0
2023-08-09 17:56:37.020718,-164.0
2023-08-09 17:56:37.028409,-224.0
2023-08-09 17:56:37.036099,-243.0
2023-08-09 17:56:37.043790,-224.0
2023-08-09 17:56:37.051480,-222.0
2023-08-09 17:56:37.059171,-207.0
2023-08-09 17:56:37.066861,-186.0
2023-08-09 17:56:37.074552,-176.0
2023-08-09 17:56:37.082242,-164.0
2023-08-09 17:56:37.089933,-148.0
2023-08-09 17:56:37.097624,-136.0
2023-08-09 17:56:37.105314,-124.0
2023-08-09 17:56:37.113005,-100.0
2023-08-09 17:56:37.120695,-74.0
2023-08-09 17:56:37.128386,-57.0
2023-08-09 17:56:37.136076,-47.0
2023-08-09 17:56:37.143767,-31.0
2023-08-09 17:56:37.151457,-7.0
2023-08-09 17:56:37.159148,16.0
2023-08-09 17:56:37.166838,35.0
2023-08-09 17:56:37.174529,57.0
2023-08-09 17:56:37.182220,83.0
2023-08-09 17:56:37.189910,100.0
2023-08-09 17:56:37.197601,119.0
2023-08-09 17:56:37.205291,136.0
2023-08-09 17:56:37.212982,133.0
2023-08-09 17:56:37.220672,121.0
2023-08-09 17:56:37.228363,117.0
2023-08-09 17:56:37.236053,100.0
2023-08-09 17:56:37.243744,64.0
2023-08-09 17:56:37.251434,23.0
2023-08-09 17:56:37.259125,-28.0
2023-08-09 17:56:37.266816,-95.0
2023-08-09 17:56:37.274506,-145.0
2023-08-09 17:56:37.282197,-171.0
2023-08-09 17:56:37.289887,-186.0
2023-08-09 17:56:37.297578,-195.0
2023-08-09 17:56:37.305268,-200.0
2023-08-09 17:56:37.312959,-207.0
2023-08-09 17:56:37.320649,-210.0
2023-08-09 17:56:37.328340,-205.0
2023-08-09 17:56:37.336030,-203.0
2023-08-09 17:56:37.343721,-195.0
2023-08-09 17:56:37.351411,-195.0
2023-08-09 17:56:37.359102,-200.0
2023-08-09 17:56:37.366793,-191.0
2023-08-09 17:56:37.374483,-171.0
2023-08-09 17:56:37.382174,-152.0
2023-08-09 17:56:37.389864,-152.0
2023-08-09 17:56:37.397555,-176.0
2023-08-09 17:56:37.405245,-186.0
2023-08-09 17:56:37.412936,-167.0
2023-08-09 17:56:37.420626,-150.0
2023-08-09 17:56:37.428317,-145.0
2023-08-09 17:56:37.436007,-143.0
2023-08-09 17:56:37.443698,-140.0
2023-08-09 17:56:37.451389,-140.0
2023-08-09 17:56:37.459079,-143.0
2023-08-09 17:56:37.466770,-138.0
2023-08-09 17:56:37.474460,-138.0
2023-08-09 17:56:37.482151,-143.0
2023-08-09 17:56:37.489841,-131.0
2023-08-09 17:56:37.497532,-121.0
2023-08-09 17:56:37.505222,-121.0
2023-08-09 17:56:37.512913,-119.0
2023-08-09 17:56:37.520603,-119.0
2023-08-09 17:56:37.528294,-117.0
2023-08-09 17:56:37.535985,-112.0
2023-08-09 17:56:37.543675,-112.0
2023-08-09 17:56:37.551366,-114.0
2023-08-09 17:56:37.559056,-114.0
2023-08-09 17:56:37.566747,-105.0
2023-08-09 17:56:37.574437,-97.0
2023-08-09 17:56:37.582128,-97.0
2023-08-09 17:56:37.589818,-93.0
2023-08-09 17:56:37.597509,-95.0
2023-08-09 17:56:37.605199,-97.0
2023-08-09 17:56:37.612890,-95.0
2023-08-09 17:56:37.620580,-90.0
2023-08-09 17:56:37.628271,-88.0
2023-08-09 17:56:37.635962,-85.0
2023-08-09 17:56:37.643652,-88.0
2023-08-09 17:56:37.651343,-90.0
2023-08-09 17:56:37.659033,-85.0
2023-08-09 17:56:37.666724,-85.0
2023-08-09 17:56:37.674414,-90.0
2023-08-09 17:56:37.682105,-78.0
2023-08-09 17:56:37.689795,-69.0
2023-08-09 17:56:37.697486,-78.0
2023-08-09 17:56:37.705176,-83.0
2023-08-09 17:56:37.712867,-74.0
2023-08-09 17:56:37.720558,-66.0
2023-08-09 17:56:37.728248,-66.0
2023-08-09 17:56:37.735939,-59.0
2023-08-09 17:56:37.743629,-47.0
2023-08-09 17:56:37.751320,-33.0
2023-08-09 17:56:37.759010,-38.0
2023-08-09 17:56:37.766701,-50.0
2023-08-09 17:56:37.774391,-50.0
2023-08-09 17:56:37.782082,-59.0
2023-08-09 17:56:37.789772,-81.0
2023-08-09 17:56:37.797463,-83.0
2023-08-09 17:56:37.805154,-81.0
2023-08-09 17:56:37.812844,-83.0
2023-08-09 17:56:37.820535,-83.0
2023-08-09 17:56:37.828225,-76.0
2023-08-09 17:56:37.835916,-74.0
2023-08-09 17:56:37.843606,-90.0
2023-08-09 17:56:37.851297,-74.0
2023-08-09 17:56:37.858987,117.0
2023-08-09 17:56:37.866678,542.0
2023-08-09 17:56:37.874368,1010.0
2023-08-09 17:56:37.882059,1167.0
2023-08-09 17:56:37.889749,838.0
2023-08-09 17:56:37.897440,262.0
2023-08-09 17:56:37.905131,-107.0
2023-08-09 17:56:37.912821,-162.0
2023-08-09 17:56:37.920512,-143.0
2023-08-09 17:56:37.928202,-188.0
2023-08-09 17:56:37.935893,-219.0
2023-08-09 17:56:37.943583,-200.0
2023-08-09 17:56:37.951274,-191.0
2023-08-09 17:56:37.958964,-193.0
2023-08-09 17:56:37.966655,-181.0
2023-08-09 17:56:37.974345,-169.0
2023-08-09 17:56:37.982036,-160.0
2023-08-09 17:56:37.989727,-148.0
2023-08-09 17:56:37.997417,-138.0
2023-08-09 17:56:38.005108,-131.0
2023-08-09 17:56:38.012798,-117.0
2023-08-09 17:56:38.020489,-95.0
2023-08-09 17:56:38.028179,-81.0
2023-08-09 17:56:38.035870,-71.0
2023-08-09 17:56:38.043560,-52.0
2023-08-09 17:56:38.051251,-28.0
2023-08-09 17:56:38.058941,-4.0
2023-08-09 17:56:38.066632,11.0
2023-08-09 17:56:38.074323,40.0
2023-08-09 17:56:38.082013,66.0
2023-08-09 17:56:38.089704,78.0
2023-08-09 17:56:38.097394,95.0
2023-08-09 17:56:38.105085,117.0
2023-08-09 17:56:38.112775,121.0
2023-08-09 17:56:38.120466,114.0
2023-08-09 17:56:38.128156,100.0
2023-08-09 17:56:38.135847,81.0
2023-08-09 17:56:38.143537,52.0
2023-08-09 17:56:38.151228,14.0
2023-08-09 17:56:38.158919,-38.0
2023-08-09 17:56:38.166609,-88.0
2023-08-09 17:56:38.174300,-126.0
2023-08-09 17:56:38.181990,-157.0
2023-08-09 17:56:38.189681,-181.0
2023-08-09 17:56:38.197371,-198.0
2023-08-09 17:56:38.205062,-205.0
2023-08-09 17:56:38.212752,-207.0
2023-08-09 17:56:38.220443,-205.0
2023-08-09 17:56:38.228133,-200.0
2023-08-09 17:56:38.235824,-191.0
2023-08-09 17:56:38.243514,-186.0
2023-08-09 17:56:38.251205,-186.0
2023-08-09 17:56:38.258896,-181.0
2023-08-09 17:56:38.266586,-169.0
2023-08-09 17:56:38.274277,-162.0
2023-08-09 17:56:38.281967,-160.0
2023-08-09 17:56:38.289658,-155.0
2023-08-09 17:56:38.297348,-157.0
2023-08-09 17:56:38.305039,-164.0
2023-08-09 17:56:38.312729,-162.0
2023-08-09 17:56:38.320420,-152.0
2023-08-09 17:56:38.328110,-152.0
2023-08-09 17:56:38.335801,-152.0
2023-08-09 17:56:38.343492,-150.0
2023-08-09 17:56:38.351182,-152.0
2023-08-09 17:56:38.358873,-152.0
2023-08-09 17:56:38.366563,-143.0
2023-08-09 17:56:38.374254,-138.0
2023-08-09 17:56:38.381944,-140.0
2023-08-09 17:56:38.389635,-140.0
2023-08-09 17:56:38.397325,-138.0
2023-08-09 17:56:38.405016,-136.0
2023-08-09 17:56:38.412706,-133.0
2023-08-09 17:56:38.420397,-128.0
2023-08-09 17:56:38.428088,-128.0
2023-08-09 17:56:38.435778,-128.0
2023-08-09 17:56:38.443469,-126.0
2023-08-09 17:56:38.451159,-121.0
2023-08-09 17:56:38.458850,-119.0
2023-08-09 17:56:38.466540,-117.0
2023-08-09 17:56:38.474231,-114.0
2023-08-09 17:56:38.481921,-112.0
2023-08-09 17:56:38.489612,-114.0
2023-08-09 17:56:38.497302,-114.0
2023-08-09 17:56:38.504993,-109.0
2023-08-09 17:56:38.512683,-114.0
2023-08-09 17:56:38.520374,-117.0
2023-08-09 17:56:38.528065,-114.0
2023-08-09 17:56:38.535755,-112.0
2023-08-09 17:56:38.543446,-112.0
2023-08-09 17:56:38.551136,-105.0
2023-08-09 17:56:38.558827,-102.0
2023-08-09 17:56:38.566517,-102.0
2023-08-09 17:56:38.574208,-105.0
2023-08-09 17:56:38.581898,-105.0
2023-08-09 17:56:38.589589,-100.0
2023-08-09 17:56:38.597279,-90.0
2023-08-09 17:56:38.604970,-76.0
2023-08-09 17:56:38.612661,-64.0
2023-08-09 17:56:38.620351,-57.0
2023-08-09 17:56:38.628042,-54.0
2023-08-09 17:56:38.635732,-69.0
2023-08-09 17:56:38.643423,-90.0
2023-08-09 17:56:38.651113,-93.0
2023-08-09 17:56:38.658804,-90.0
2023-08-09 17:56:38.666494,-95.0
2023-08-09 17:56:38.674185,-93.0
2023-08-09 17:56:38.681875,-85.0
2023-08-09 17:56:38.689566,-85.0
2023-08-09 17:56:38.697257,-88.0
2023-08-09 17:56:38.704947,-93.0
2023-08-09 17:56:38.712638,-42.0
2023-08-09 17:56:38.720328,234.0
2023-08-09 17:56:38.728019,771.0
2023-08-09 17:56:38.735709,1232.0
2023-08-09 17:56:38.743400,1201.0
2023-08-09 17:56:38.751090,671.0
2023-08-09 17:56:38.758781,85.0
2023-08-09 17:56:38.766471,-167.0
2023-08-09 17:56:38.774162,-150.0
2023-08-09 17:56:38.781852,-152.0
2023-08-09 17:56:38.789543,-207.0
2023-08-09 17:56:38.797234,-212.0
2023-08-09 17:56:38.804924,-198.0
2023-08-09 17:56:38.812615,-198.0
2023-08-09 17:56:38.820305,-188.0
2023-08-09 17:56:38.827996,-176.0
2023-08-09 17:56:38.835686,-171.0
2023-08-09 17:56:38.843377,-160.0
2023-08-09 17:56:38.851067,-145.0
2023-08-09 17:56:38.858758,-133.0
2023-08-09 17:56:38.866448,-121.0
2023-08-09 17:56:38.874139,-105.0
2023-08-09 17:56:38.881830,-88.0
2023-08-09 17:56:38.889520,-74.0
2023-08-09 17:56:38.897211,-54.0
2023-08-09 17:56:38.904901,-35.0
2023-08-09 17:56:38.912592,-14.0
2023-08-09 17:56:38.920282,11.0
2023-08-09 17:56:38.927973,33.0
2023-08-09 17:56:38.935663,47.0
2023-08-09 17:56:38.943354,64.0
2023-08-09 17:56:38.951044,88.0
2023-08-09 17:56:38.958735,107.0
2023-08-09 17:56:38.966426,117.0
2023-08-09 17:56:38.974116,119.0
2023-08-09 17:56:38.981807,102.0
2023-08-09 17:56:38.989497,83.0
2023-08-09 17:56:38.997188,59.0
2023-08-09 17:56:39.004878,21.0
2023-08-09 17:56:39.012569,-28.0
2023-08-09 17:56:39.020259,-83.0
2023-08-09 17:56:39.027950,-136.0
2023-08-09 17:56:39.035640,-171.0
2023-08-09 17:56:39.043331,-198.0
2023-08-09 17:56:39.051021,-217.0
2023-08-09 17:56:39.058712,-226.0
2023-08-09 17:56:39.066403,-234.0
2023-08-09 17:56:39.074093,-236.0
2023-08-09 17:56:39.081784,-229.0
2023-08-09 17:56:39.089474,-222.0
2023-08-09 17:56:39.097165,-212.0
2023-08-09 17:56:39.104855,-207.0
2023-08-09 17:56:39.112546,-207.0
2023-08-09 17:56:39.120236,-203.0
2023-08-09 17:56:39.127927,-191.0
2023-08-09 17:56:39.135617,-181.0
2023-08-09 17:56:39.143308,-176.0
2023-08-09 17:56:39.150999,-169.0
2023-08-09 17:56:39.158689,-162.0
2023-08-09 17:56:39.166380,-160.0
2023-08-09 17:56:39.174070,-155.0
2023-08-09 17:56:39.181761,-148.0
2023-08-09 17:56:39.189451,-145.0
2023-08-09 17:56:39.197142,-145.0
2023-08-09 17:56:39.204832,-145.0
2023-08-09 17:56:39.212523,-140.0
2023-08-09 17:56:39.220213,-138.0
2023-08-09 17:56:39.227904,-136.0
2023-08-09 17:56:39.235595,-136.0
2023-08-09 17:56:39.243285,-131.0
2023-08-09 17:56:39.250976,-128.0
2023-08-09 17:56:39.258666,-126.0
2023-08-09 17:56:39.266357,-124.0
2023-08-09 17:56:39.274047,-121.0
2023-08-09 17:56:39.281738,-117.0
2023-08-09 17:56:39.289428,-117.0
2023-08-09 17:56:39.297119,-114.0
2023-08-09 17:56:39.304809,-109.0
2023-08-09 17:56:39.312500,-107.0
2023-08-09 17:56:39.320191,-107.0
2023-08-09 17:56:39.327881,-107.0
2023-08-09 17:56:39.335572,-105.0
2023-08-09 17:56:39.343262,-102.0
2023-08-09 17:56:39.350953,-100.0
2023-08-09 17:56:39.358643,-95.0
2023-08-09 17:56:39.366334,-90.0
2023-08-09 17:56:39.374024,-90.0
2023-08-09 17:56:39.381715,-90.0
2023-08-09 17:56:39.389405,-88.0
2023-08-09 17:56:39.397096,-85.0
2023-08-09 17:56:39.404786,-83.0
2023-08-09 17:56:39.412477,-81.0
2023-08-09 17:56:39.420168,-81.0
2023-08-09 17:56:39.427858,-78.0
2023-08-09 17:56:39.435549,-66.0
2023-08-09 17:56:39.443239,-52.0
2023-08-09 17:56:39.450930,-40.0
2023-08-09 17:56:39.458620,-33.0
2023-08-09 17:56:39.466311,-38.0
2023-08-09 17:56:39.474001,-64.0
2023-08-09 17:56:39.481692,-85.0
2023-08-09 17:56:39.489382,-88.0
2023-08-09 17:56:39.497073,-83.0
2023-08-09 17:56:39.504764,-83.0
2023-08-09 17:56:39.512454,-81.0
2023-08-09 17:56:39.520145,-78.0
2023-08-09 17:56:39.527835,-81.0
2023-08-09 17:56:39.535526,-85.0
2023-08-09 17:56:39.543216,-85.0
2023-08-09 17:56:39.550907,45.0
2023-08-09 17:56:39.558597,444.0
2023-08-09 17:56:39.566288,979.0
2023-08-09 17:56:39.573978,1287.0
2023-08-09 17:56:39.581669,1093.0
2023-08-09 17:56:39.589360,513.0
2023-08-09 17:56:39.597050,-7.0
2023-08-09 17:56:39.604741,-179.0
2023-08-09 17:56:39.612431,-138.0
2023-08-09 17:56:39.620122,-157.0
2023-08-09 17:56:39.627812,-212.0
2023-08-09 17:56:39.635503,-200.0
2023-08-09 17:56:39.643193,-183.0
2023-08-09 17:56:39.650884,-188.0
2023-08-09 17:56:39.658574,-179.0
2023-08-09 17:56:39.666265,-162.0
2023-08-09 17:56:39.673955,-152.0
2023-08-09 17:56:39.681646,-140.0
2023-08-09 17:56:39.689337,-124.0
2023-08-09 17:56:39.697027,-112.0
2023-08-09 17:56:39.704718,-97.0
2023-08-09 17:56:39.712408,-78.0
2023-08-09 17:56:39.720099,-62.0
2023-08-09 17:56:39.727789,-45.0
2023-08-09 17:56:39.735480,-26.0
2023-08-09 17:56:39.743170,-7.0
2023-08-09 17:56:39.750861,9.0
2023-08-09 17:56:39.758551,33.0
2023-08-09 17:56:39.766242,57.0
2023-08-09 17:56:39.773933,76.0
2023-08-09 17:56:39.781623,93.0
2023-08-09 17:56:39.789314,112.0
2023-08-09 17:56:39.797004,126.0
2023-08-09 17:56:39.804695,133.0
2023-08-09 17:56:39.812385,128.0
2023-08-09 17:56:39.820076,114.0
2023-08-09 17:56:39.827766,90.0
2023-08-09 17:56:39.835457,57.0
2023-08-09 17:56:39.843147,14.0
2023-08-09 17:56:39.850838,-35.0
2023-08-09 17:56:39.858529,-85.0
2023-08-09 17:56:39.866219,-131.0
2023-08-09 17:56:39.873910,-164.0
2023-08-09 17:56:39.881600,-186.0
2023-08-09 17:56:39.889291,-200.0
2023-08-09 17:56:39.896981,-207.0
2023-08-09 17:56:39.904672,-207.0
2023-08-09 17:56:39.912362,-207.0
2023-08-09 17:56:39.920053,-205.0
2023-08-09 17:56:39.927743,-195.0
2023-08-09 17:56:39.935434,-186.0
2023-08-09 17:56:39.943124,-179.0
2023-08-09 17:56:39.950815,-171.0
2023-08-09 17:56:39.958506,-164.0
2023-08-09 17:56:39.966196,-162.0
2023-08-09 17:56:39.973887,-160.0
2023-08-09 17:56:39.981577,-150.0
2023-08-09 17:56:39.989268,-145.0
2023-08-09 17:56:39.996958,-140.0
2023-08-09 17:56:40.004649,-140.0
2023-08-09 17:56:40.012339,-145.0
2023-08-09 17:56:40.020030,-150.0
2023-08-09 17:56:40.027720,-145.0
2023-08-09 17:56:40.035411,-145.0
2023-08-09 17:56:40.043102,-145.0
2023-08-09 17:56:40.050792,-143.0
2023-08-09 17:56:40.058483,-143.0
2023-08-09 17:56:40.066173,-143.0
2023-08-09 17:56:40.073864,-138.0
2023-08-09 17:56:40.081554,-133.0
2023-08-09 17:56:40.089245,-131.0
2023-08-09 17:56:40.096935,-128.0
2023-08-09 17:56:40.104626,-128.0
2023-08-09 17:56:40.112316,-126.0
2023-08-09 17:56:40.120007,-121.0
2023-08-09 17:56:40.127698,-117.0
2023-08-09 17:56:40.135388,-114.0
2023-08-09 17:56:40.143079,-114.0
2023-08-09 17:56:40.150769,-109.0
2023-08-09 17:56:40.158460,-107.0
2023-08-09 17:56:40.166150,-107.0
2023-08-09 17:56:40.173841,-102.0
2023-08-09 17:56:40.181531,-95.0
2023-08-09 17:56:40.189222,-97.0
2023-08-09 17:56:40.196912,-97.0
2023-08-09 17:56:40.204603,-93.0
2023-08-09 17:56:40.212293,-88.0
2023-08-09 17:56:40.219984,-88.0
2023-08-09 17:56:40.227675,-85.0
2023-08-09 17:56:40.235365,-85.0
2023-08-09 17:56:40.243056,-83.0
2023-08-09 17:56:40.250746,-81.0
2023-08-09 17:56:40.258437,-78.0
2023-08-09 17:56:40.266127,-76.0
2023-08-09 17:56:40.273818,-76.0
2023-08-09 17:56:40.281508,-76.0
2023-08-09 17:56:40.289199,-69.0
2023-08-09 17:56:40.296889,-57.0
2023-08-09 17:56:40.304580,-47.0
2023-08-09 17:56:40.312271,-38.0
2023-08-09 17:56:40.319961,-31.0
2023-08-09 17:56:40.327652,-42.0
2023-08-09 17:56:40.335342,-66.0
2023-08-09 17:56:40.343033,-76.0
2023-08-09 17:56:40.350723,-74.0
2023-08-09 17:56:40.358414,-74.0
2023-08-09 17:56:40.366104,-74.0
2023-08-09 17:56:40.373795,-74.0
2023-08-09 17:56:40.381485,-71.0
2023-08-09 17:56:40.389176,-66.0
2023-08-09 17:56:40.396867,-74.0
2023-08-09 17:56:40.404557,-45.0
2023-08-09 17:56:40.412248,176.0
2023-08-09 17:56:40.419938,640.0
2023-08-09 17:56:40.427629,1108.0
2023-08-09 17:56:40.435319,1225.0
2023-08-09 17:56:40.443010,850.0
2023-08-09 17:56:40.450700,257.0
2023-08-09 17:56:40.458391,-107.0
2023-08-09 17:56:40.466081,-148.0
2023-08-09 17:56:40.473772,-124.0
2023-08-09 17:56:40.481463,-171.0
2023-08-09 17:56:40.489153,-198.0
2023-08-09 17:56:40.496844,-179.0
2023-08-09 17:56:40.504534,-174.0
2023-08-09 17:56:40.512225,-176.0
2023-08-09 17:56:40.519915,-162.0
2023-08-09 17:56:40.527606,-145.0
2023-08-09 17:56:40.535296,-136.0
2023-08-09 17:56:40.542987,-131.0
2023-08-09 17:56:40.550677,-124.0
2023-08-09 17:56:40.558368,-107.0
2023-08-09 17:56:40.566058,-93.0
2023-08-09 17:56:40.573749,-76.0
2023-08-09 17:56:40.581440,-57.0
2023-08-09 17:56:40.589130,-40.0
2023-08-09 17:56:40.596821,-31.0
2023-08-09 17:56:40.604511,-19.0
2023-08-09 17:56:40.612202,2.0
2023-08-09 17:56:40.619892,28.0
2023-08-09 17:56:40.627583,50.0
2023-08-09 17:56:40.635273,71.0
2023-08-09 17:56:40.642964,90.0
2023-08-09 17:56:40.650654,107.0
2023-08-09 17:56:40.658345,119.0
2023-08-09 17:56:40.666036,126.0
2023-08-09 17:56:40.673726,119.0
2023-08-09 17:56:40.681417,102.0
2023-08-09 17:56:40.689107,76.0
2023-08-09 17:56:40.696798,40.0
2023-08-09 17:56:40.704488,-9.0
2023-08-09 17:56:40.712179,-59.0
2023-08-09 17:56:40.719869,-107.0
2023-08-09 17:56:40.727560,-148.0
2023-08-09 17:56:40.735250,-176.0
2023-08-09 17:56:40.742941,-195.0
2023-08-09 17:56:40.750632,-207.0
2023-08-09 17:56:40.758322,-212.0
2023-08-09 17:56:40.766013,-212.0
2023-08-09 17:56:40.773703,-210.0
2023-08-09 17:56:40.781394,-203.0
2023-08-09 17:56:40.789084,-198.0
2023-08-09 17:56:40.796775,-195.0
2023-08-09 17:56:40.804465,-191.0
2023-08-09 17:56:40.812156,-181.0
2023-08-09 17:56:40.819846,-174.0
2023-08-09 17:56:40.827537,-171.0
2023-08-09 17:56:40.835227,-169.0
2023-08-09 17:56:40.842918,-162.0
2023-08-09 17:56:40.850609,-157.0
2023-08-09 17:56:40.858299,-155.0
2023-08-09 17:56:40.865990,-150.0
2023-08-09 17:56:40.873680,-145.0
2023-08-09 17:56:40.881371,-143.0
2023-08-09 17:56:40.889061,-140.0
2023-08-09 17:56:40.896752,-138.0
2023-08-09 17:56:40.904442,-136.0
2023-08-09 17:56:40.912133,-133.0
2023-08-09 17:56:40.919823,-131.0
2023-08-09 17:56:40.927514,-131.0
2023-08-09 17:56:40.935205,-131.0
2023-08-09 17:56:40.942895,-124.0
2023-08-09 17:56:40.950586,-121.0
2023-08-09 17:56:40.958276,-124.0
2023-08-09 17:56:40.965967,-121.0
2023-08-09 17:56:40.973657,-117.0
2023-08-09 17:56:40.981348,-114.0
2023-08-09 17:56:40.989038,-112.0
2023-08-09 17:56:40.996729,-109.0
2023-08-09 17:56:41.004419,-107.0
2023-08-09 17:56:41.012110,-105.0
2023-08-09 17:56:41.019801,-102.0
2023-08-09 17:56:41.027491,-100.0
2023-08-09 17:56:41.035182,-100.0
2023-08-09 17:56:41.042872,-102.0
2023-08-09 17:56:41.050563,-105.0
2023-08-09 17:56:41.058253,-97.0
2023-08-09 17:56:41.065944,-95.0
2023-08-09 17:56:41.073634,-93.0
2023-08-09 17:56:41.081325,-93.0
2023-08-09 17:56:41.089015,-90.0
2023-08-09 17:56:41.096706,-90.0
2023-08-09 17:56:41.104396,-90.0
2023-08-09 17:56:41.112087,-85.0
2023-08-09 17:56:41.119778,-85.0
2023-08-09 17:56:41.127468,-85.0
2023-08-09 17:56:41.135159,-88.0
2023-08-09 17:56:41.142849,-93.0
2023-08-09 17:56:41.150540,-93.0
2023-08-09 17:56:41.158230,-85.0
2023-08-09 17:56:41.165921,-85.0
2023-08-09 17:56:41.173611,-85.0
2023-08-09 17:56:41.181302,-83.0
2023-08-09 17:56:41.188992,-81.0
2023-08-09 17:56:41.196683,-78.0
2023-08-09 17:56:41.204374,-76.0
2023-08-09 17:56:41.212064,-76.0
2023-08-09 17:56:41.219755,-76.0
2023-08-09 17:56:41.227445,-76.0
2023-08-09 17:56:41.235136,-69.0
2023-08-09 17:56:41.242826,-54.0
2023-08-09 17:56:41.250517,-42.0
2023-08-09 17:56:41.258207,-38.0
2023-08-09 17:56:41.265898,-33.0
2023-08-09 17:56:41.273588,-35.0
2023-08-09 17:56:41.281279,-57.0
2023-08-09 17:56:41.288970,-78.0
2023-08-09 17:56:41.296660,-81.0
2023-08-09 17:56:41.304351,-76.0
2023-08-09 17:56:41.312041,-76.0
2023-08-09 17:56:41.319732,-76.0
2023-08-09 17:56:41.327422,-74.0
2023-08-09 17:56:41.335113,-71.0
2023-08-09 17:56:41.342803,-76.0
2023-08-09 17:56:41.350494,-71.0
2023-08-09 17:56:41.358184,64.0
2023-08-09 17:56:41.365875,446.0
2023-08-09 17:56:41.373566,945.0
2023-08-09 17:56:41.381256,1213.0
2023-08-09 17:56:41.388947,991.0
2023-08-09 17:56:41.396637,434.0
2023-08-09 17:56:41.404328,-23.0
2023-08-09 17:56:41.412018,-155.0
2023-08-09 17:56:41.419709,-124.0
2023-08-09 17:56:41.427399,-150.0
2023-08-09 17:56:41.435090,-198.0
2023-08-09 17:56:41.442780,-188.0
2023-08-09 17:56:41.450471,-179.0
2023-08-09 17:56:41.458161,-181.0
2023-08-09 17:56:41.465852,-167.0
2023-08-09 17:56:41.473543,-148.0
2023-08-09 17:56:41.481233,-140.0
2023-08-09 17:56:41.488924,-128.0
2023-08-09 17:56:41.496614,-119.0
2023-08-09 17:56:41.504305,-109.0
2023-08-09 17:56:41.511995,-95.0
2023-08-09 17:56:41.519686,-76.0
2023-08-09 17:56:41.527376,-62.0
2023-08-09 17:56:41.535067,-50.0
2023-08-09 17:56:41.542757,-38.0
2023-08-09 17:56:41.550448,-21.0
2023-08-09 17:56:41.558139,-7.0
2023-08-09 17:56:41.565829,14.0
2023-08-09 17:56:41.573520,35.0
2023-08-09 17:56:41.581210,54.0
2023-08-09 17:56:41.588901,74.0
2023-08-09 17:56:41.596591,88.0
2023-08-09 17:56:41.604282,100.0
2023-08-09 17:56:41.611972,107.0
2023-08-09 17:56:41.619663,109.0
2023-08-09 17:56:41.627353,100.0
2023-08-09 17:56:41.635044,81.0
2023-08-09 17:56:41.642735,57.0
2023-08-09 17:56:41.650425,21.0
2023-08-09 17:56:41.658116,-23.0
2023-08-09 17:56:41.665806,-71.0
2023-08-09 17:56:41.673497,-121.0
2023-08-09 17:56:41.681187,-164.0
2023-08-09 17:56:41.688878,-188.0
2023-08-09 17:56:41.696568,-198.0
2023-08-09 17:56:41.704259,-207.0
2023-08-09 17:56:41.711949,-212.0
2023-08-09 17:56:41.719640,-212.0
2023-08-09 17:56:41.727330,-207.0
2023-08-09 17:56:41.735021,-200.0
2023-08-09 17:56:41.742712,-193.0
2023-08-09 17:56:41.750402,-183.0
2023-08-09 17:56:41.758093,-181.0
2023-08-09 17:56:41.765783,-174.0
2023-08-09 17:56:41.773474,-169.0
2023-08-09 17:56:41.781164,-164.0
2023-08-09 17:56:41.788855,-164.0
2023-08-09 17:56:41.796545,-157.0
2023-08-09 17:56:41.804236,-155.0
2023-08-09 17:56:41.811926,-152.0
2023-08-09 17:56:41.819617,-150.0
2023-08-09 17:56:41.827308,-145.0
2023-08-09 17:56:41.834998,-143.0
2023-08-09 17:56:41.842689,-140.0
2023-08-09 17:56:41.850379,-138.0
2023-08-09 17:56:41.858070,-140.0
2023-08-09 17:56:41.865760,-138.0
2023-08-09 17:56:41.873451,-131.0
2023-08-09 17:56:41.881141,-128.0
2023-08-09 17:56:41.888832,-126.0
2023-08-09 17:56:41.896522,-126.0
2023-08-09 17:56:41.904213,-126.0
2023-08-09 17:56:41.911904,-121.0
2023-08-09 17:56:41.919594,-117.0
2023-08-09 17:56:41.927285,-114.0
2023-08-09 17:56:41.934975,-112.0
2023-08-09 17:56:41.942666,-114.0
2023-08-09 17:56:41.950356,-114.0
2023-08-09 17:56:41.958047,-112.0
2023-08-09 17:56:41.965737,-107.0
2023-08-09 17:56:41.973428,-107.0
2023-08-09 17:56:41.981118,-102.0
2023-08-09 17:56:41.988809,-100.0
2023-08-09 17:56:41.996499,-102.0
2023-08-09 17:56:42.004190,-102.0
2023-08-09 17:56:42.011881,-95.0
2023-08-09 17:56:42.019571,-95.0
2023-08-09 17:56:42.027262,-97.0
2023-08-09 17:56:42.034952,-95.0
2023-08-09 17:56:42.042643,-95.0
2023-08-09 17:56:42.050333,-95.0
2023-08-09 17:56:42.058024,-97.0
2023-08-09 17:56:42.065714,-100.0
2023-08-09 17:56:42.073405,-97.0
2023-08-09 17:56:42.081095,-95.0
2023-08-09 17:56:42.088786,-93.0
2023-08-09 17:56:42.096477,-93.0
2023-08-09 17:56:42.104167,-90.0
2023-08-09 17:56:42.111858,-88.0
2023-08-09 17:56:42.119548,-85.0
2023-08-09 17:56:42.127239,-85.0
2023-08-09 17:56:42.134929,-88.0
2023-08-09 17:56:42.142620,-83.0
2023-08-09 17:56:42.150310,-78.0
2023-08-09 17:56:42.158001,-78.0
2023-08-09 17:56:42.165691,-76.0
2023-08-09 17:56:42.173382,-76.0
2023-08-09 17:56:42.181073,-76.0
2023-08-09 17:56:42.188763,-74.0
2023-08-09 17:56:42.196454,-71.0
2023-08-09 17:56:42.204144,-66.0
2023-08-09 17:56:42.211835,-57.0
2023-08-09 17:56:42.219525,-52.0
2023-08-09 17:56:42.227216,-47.0
2023-08-09 17:56:42.234906,-35.0
2023-08-09 17:56:42.242597,-26.0
2023-08-09 17:56:42.250287,-42.0
2023-08-09 17:56:42.257978,-66.0
2023-08-09 17:56:42.265668,-76.0
2023-08-09 17:56:42.273359,-81.0
2023-08-09 17:56:42.281050,-78.0
2023-08-09 17:56:42.288740,-74.0
2023-08-09 17:56:42.296431,-71.0
2023-08-09 17:56:42.304121,-76.0
2023-08-09 17:56:42.311812,-88.0
2023-08-09 17:56:42.319502,-93.0
2023-08-09 17:56:42.327193,-31.0
2023-08-09 17:56:42.334883,241.0
2023-08-09 17:56:42.342574,749.0
2023-08-09 17:56:42.350264,1189.0
2023-08-09 17:56:42.357955,1158.0
2023-08-09 17:56:42.365646,649.0
2023-08-09 17:56:42.373336,88.0
2023-08-09 17:56:42.381027,-150.0
2023-08-09 17:56:42.388717,-143.0
2023-08-09 17:56:42.396408,-152.0
2023-08-09 17:56:42.404098,-203.0
2023-08-09 17:56:42.411789,-205.0
2023-08-09 17:56:42.419479,-191.0
2023-08-09 17:56:42.427170,-195.0
2023-08-09 17:56:42.434860,-188.0
2023-08-09 17:56:42.442551,-176.0
2023-08-09 17:56:42.450242,-164.0
2023-08-09 17:56:42.457932,-155.0
2023-08-09 17:56:42.465623,-140.0
2023-08-09 17:56:42.473313,-128.0
2023-08-09 17:56:42.481004,-117.0
2023-08-09 17:56:42.488694,-100.0
2023-08-09 17:56:42.496385,-83.0
2023-08-09 17:56:42.504075,-69.0
2023-08-09 17:56:42.511766,-54.0
2023-08-09 17:56:42.519456,-40.0
2023-08-09 17:56:42.527147,-21.0
2023-08-09 17:56:42.534838,2.0
2023-08-09 17:56:42.542528,23.0
2023-08-09 17:56:42.550219,45.0
2023-08-09 17:56:42.557909,64.0
2023-08-09 17:56:42.565600,78.0
2023-08-09 17:56:42.573290,93.0
2023-08-09 17:56:42.580981,107.0
2023-08-09 17:56:42.588671,112.0
2023-08-09 17:56:42.596362,109.0
2023-08-09 17:56:42.604052,100.0
2023-08-09 17:56:42.611743,74.0
2023-08-09 17:56:42.619433,40.0
2023-08-09 17:56:42.627124,-4.0
2023-08-09 17:56:42.634815,-54.0
2023-08-09 17:56:42.642505,-97.0
2023-08-09 17:56:42.650196,-136.0
2023-08-09 17:56:42.657886,-167.0
2023-08-09 17:56:42.665577,-188.0
2023-08-09 17:56:42.673267,-203.0
2023-08-09 17:56:42.680958,-207.0
2023-08-09 17:56:42.688648,-210.0
2023-08-09 17:56:42.696339,-207.0
2023-08-09 17:56:42.704029,-198.0
2023-08-09 17:56:42.711720,-195.0
2023-08-09 17:56:42.719411,-186.0
2023-08-09 17:56:42.727101,-176.0
2023-08-09 17:56:42.734792,-169.0
2023-08-09 17:56:42.742482,-167.0
2023-08-09 17:56:42.750173,-160.0
2023-08-09 17:56:42.757863,-152.0
2023-08-09 17:56:42.765554,-150.0
2023-08-09 17:56:42.773244,-150.0
2023-08-09 17:56:42.780935,-145.0
2023-08-09 17:56:42.788625,-143.0
2023-08-09 17:56:42.796316,-138.0
2023-08-09 17:56:42.804007,-138.0
2023-08-09 17:56:42.811697,-136.0
2023-08-09 17:56:42.819388,-136.0
2023-08-09 17:56:42.827078,-136.0
2023-08-09 17:56:42.834769,-133.0
2023-08-09 17:56:42.842459,-131.0
2023-08-09 17:56:42.850150,-140.0
2023-08-09 17:56:42.857840,-140.0
2023-08-09 17:56:42.865531,-136.0
2023-08-09 17:56:42.873221,-131.0
2023-08-09 17:56:42.880912,-131.0
2023-08-09 17:56:42.888602,-128.0
2023-08-09 17:56:42.896293,-128.0
2023-08-09 17:56:42.903984,-126.0
2023-08-09 17:56:42.911674,-119.0
2023-08-09 17:56:42.919365,-117.0
2023-08-09 17:56:42.927055,-114.0
2023-08-09 17:56:42.934746,-114.0
2023-08-09 17:56:42.942436,-114.0
2023-08-09 17:56:42.950127,-109.0
2023-08-09 17:56:42.957817,-107.0
2023-08-09 17:56:42.965508,-105.0
2023-08-09 17:56:42.973198,-102.0
2023-08-09 17:56:42.980889,-100.0
2023-08-09 17:56:42.988580,-97.0
2023-08-09 17:56:42.996270,-97.0
2023-08-09 17:56:43.003961,-95.0
2023-08-09 17:56:43.011651,-93.0
2023-08-09 17:56:43.019342,-93.0
2023-08-09 17:56:43.027032,-93.0
2023-08-09 17:56:43.034723,-90.0
2023-08-09 17:56:43.042413,-88.0
2023-08-09 17:56:43.050104,-83.0
2023-08-09 17:56:43.057794,-83.0
2023-08-09 17:56:43.065485,-90.0
2023-08-09 17:56:43.073176,-93.0
2023-08-09 17:56:43.080866,-88.0
2023-08-09 17:56:43.088557,-81.0
2023-08-09 17:56:43.096247,-78.0
2023-08-09 17:56:43.103938,-81.0
2023-08-09 17:56:43.111628,-78.0
2023-08-09 17:56:43.119319,-78.0
2023-08-09 17:56:43.127009,-76.0
2023-08-09 17:56:43.134700,-71.0
2023-08-09 17:56:43.142390,-64.0
2023-08-09 17:56:43.150081,-52.0
2023-08-09 17:56:43.157771,-42.0
2023-08-09 17:56:43.165462,-35.0
2023-08-09 17:56:43.173153,-23.0
2023-08-09 17:56:43.180843,-23.0
2023-08-09 17:56:43.188534,-45.0
2023-08-09 17:56:43.196224,-66.0
2023-08-09 17:56:43.203915,-69.0
2023-08-09 17:56:43.211605,-69.0
2023-08-09 17:56:43.219296,-74.0
2023-08-09 17:56:43.226986,-69.0
2023-08-09 17:56:43.234677,-64.0
2023-08-09 17:56:43.242367,-62.0
2023-08-09 17:56:43.250058,-64.0
2023-08-09 17:56:43.257749,-74.0
2023-08-09 17:56:43.265439,9.0
2023-08-09 17:56:43.273130,353.0
2023-08-09 17:56:43.280820,888.0
2023-08-09 17:56:43.288511,1261.0
2023-08-09 17:56:43.296201,1148.0
2023-08-09 17:56:43.303892,606.0
2023-08-09 17:56:43.311582,62.0
2023-08-09 17:56:43.319273,-157.0
2023-08-09 17:56:43.326963,-136.0
2023-08-09 17:56:43.334654,-148.0
2023-08-09 17:56:43.342345,-205.0
2023-08-09 17:56:43.350035,-203.0
2023-08-09 17:56:43.357726,-183.0
2023-08-09 17:56:43.365416,-183.0
2023-08-09 17:56:43.373107,-174.0
2023-08-09 17:56:43.380797,-160.0
2023-08-09 17:56:43.388488,-155.0
2023-08-09 17:56:43.396178,-150.0
2023-08-09 17:56:43.403869,-133.0
2023-08-09 17:56:43.411559,-114.0
2023-08-09 17:56:43.419250,-97.0
2023-08-09 17:56:43.426941,-83.0
2023-08-09 17:56:43.434631,-71.0
2023-08-09 17:56:43.442322,-52.0
2023-08-09 17:56:43.450012,-31.0
2023-08-09 17:56:43.457703,-9.0
2023-08-09 17:56:43.465393,11.0
2023-08-09 17:56:43.473084,35.0
2023-08-09 17:56:43.480774,54.0
2023-08-09 17:56:43.488465,78.0
2023-08-09 17:56:43.496155,100.0
2023-08-09 17:56:43.503846,117.0
2023-08-09 17:56:43.511536,128.0
2023-08-09 17:56:43.519227,138.0
2023-08-09 17:56:43.526918,143.0
2023-08-09 17:56:43.534608,138.0
2023-08-09 17:56:43.542299,119.0
2023-08-09 17:56:43.549989,93.0
2023-08-09 17:56:43.557680,54.0
2023-08-09 17:56:43.565370,2.0
2023-08-09 17:56:43.573061,-54.0
2023-08-09 17:56:43.580751,-97.0
2023-08-09 17:56:43.588442,-133.0
2023-08-09 17:56:43.596132,-164.0
2023-08-09 17:56:43.603823,-186.0
2023-08-09 17:56:43.611514,-198.0
2023-08-09 17:56:43.619204,-203.0
2023-08-09 17:56:43.626895,-200.0
2023-08-09 17:56:43.634585,-193.0
2023-08-09 17:56:43.642276,-188.0
2023-08-09 17:56:43.649966,-186.0
2023-08-09 17:56:43.657657,-179.0
2023-08-09 17:56:43.665347,-167.0
2023-08-09 17:56:43.673038,-160.0
2023-08-09 17:56:43.680728,-155.0
2023-08-09 17:56:43.688419,-145.0
2023-08-09 17:56:43.696110,-143.0
2023-08-09 17:56:43.703800,-145.0
2023-08-09 17:56:43.711491,-140.0
2023-08-09 17:56:43.719181,-128.0
2023-08-09 17:56:43.726872,-126.0
2023-08-09 17:56:43.734562,-131.0
2023-08-09 17:56:43.742253,-126.0
2023-08-09 17:56:43.749943,-124.0
2023-08-09 17:56:43.757634,-126.0
2023-08-09 17:56:43.765324,-121.0
2023-08-09 17:56:43.773015,-114.0
2023-08-09 17:56:43.780705,-112.0
2023-08-09 17:56:43.788396,-117.0
2023-08-09 17:56:43.796087,-117.0
2023-08-09 17:56:43.803777,-114.0
2023-08-09 17:56:43.811468,-109.0
2023-08-09 17:56:43.819158,-107.0
2023-08-09 17:56:43.826849,-105.0
2023-08-09 17:56:43.834539,-105.0
2023-08-09 17:56:43.842230,-102.0
2023-08-09 17:56:43.849920,-100.0
2023-08-09 17:56:43.857611,-97.0
2023-08-09 17:56:43.865301,-95.0
2023-08-09 17:56:43.872992,-93.0
2023-08-09 17:56:43.880683,-97.0
2023-08-09 17:56:43.888373,-95.0
2023-08-09 17:56:43.896064,-88.0
2023-08-09 17:56:43.903754,-88.0
2023-08-09 17:56:43.911445,-88.0
2023-08-09 17:56:43.919135,-85.0
2023-08-09 17:56:43.926826,-85.0
2023-08-09 17:56:43.934516,-83.0
2023-08-09 17:56:43.942207,-81.0
2023-08-09 17:56:43.949897,-78.0
2023-08-09 17:56:43.957588,-81.0
2023-08-09 17:56:43.965279,-81.0
2023-08-09 17:56:43.972969,-83.0
2023-08-09 17:56:43.980660,-85.0
2023-08-09 17:56:43.988350,-83.0
2023-08-09 17:56:43.996041,-83.0
2023-08-09 17:56:44.003731,-83.0
2023-08-09 17:56:44.011422,-85.0
2023-08-09 17:56:44.019112,-90.0
2023-08-09 17:56:44.026803,-95.0
2023-08-09 17:56:44.034493,-88.0
2023-08-09 17:56:44.042184,-85.0
2023-08-09 17:56:44.049874,-83.0
2023-08-09 17:56:44.057565,-85.0
2023-08-09 17:56:44.065256,-90.0
2023-08-09 17:56:44.072946,-93.0
2023-08-09 17:56:44.080637,-90.0
2023-08-09 17:56:44.088327,-88.0
2023-08-09 17:56:44.096018,-83.0
2023-08-09 17:56:44.103708,-76.0
2023-08-09 17:56:44.111399,-64.0
2023-08-09 17:56:44.119089,-54.0
2023-08-09 17:56:44.126780,-47.0
2023-08-09 17:56:44.134470,-42.0
2023-08-09 17:56:44.142161,-54.0
2023-08-09 17:56:44.149852,-81.0
2023-08-09 17:56:44.157542,-93.0
2023-08-09 17:56:44.165233,-93.0
2023-08-09 17:56:44.172923,-90.0
2023-08-09 17:56:44.180614,-88.0
2023-08-09 17:56:44.188304,-85.0
2023-08-09 17:56:44.195995,-85.0
2023-08-09 17:56:44.203685,-88.0
2023-08-09 17:56:44.211376,-93.0
2023-08-09 17:56:44.219066,-42.0
2023-08-09 17:56:44.226757,219.0
2023-08-09 17:56:44.234448,706.0
2023-08-09 17:56:44.242138,1146.0
2023-08-09 17:56:44.249829,1179.0
2023-08-09 17:56:44.257519,738.0
2023-08-09 17:56:44.265210,164.0
2023-08-09 17:56:44.272900,-140.0
2023-08-09 17:56:44.280591,-152.0
2023-08-09 17:56:44.288281,-140.0
2023-08-09 17:56:44.295972,-195.0
2023-08-09 17:56:44.303662,-210.0
2023-08-09 17:56:44.311353,-191.0
2023-08-09 17:56:44.319043,-188.0
2023-08-09 17:56:44.326734,-183.0
2023-08-09 17:56:44.334425,-167.0
2023-08-09 17:56:44.342115,-155.0
2023-08-09 17:56:44.349806,-145.0
2023-08-09 17:56:44.357496,-126.0
2023-08-09 17:56:44.365187,-112.0
2023-08-09 17:56:44.372877,-97.0
2023-08-09 17:56:44.380568,-83.0
2023-08-09 17:56:44.388258,-66.0
2023-08-09 17:56:44.395949,-52.0
2023-08-09 17:56:44.403639,-33.0
2023-08-09 17:56:44.411330,-11.0
2023-08-09 17:56:44.419021,9.0
2023-08-09 17:56:44.426711,31.0
2023-08-09 17:56:44.434402,52.0
2023-08-09 17:56:44.442092,71.0
2023-08-09 17:56:44.449783,95.0
2023-08-09 17:56:44.457473,121.0
2023-08-09 17:56:44.465164,138.0
2023-08-09 17:56:44.472854,145.0
2023-08-09 17:56:44.480545,150.0
2023-08-09 17:56:44.488235,145.0
2023-08-09 17:56:44.495926,128.0
2023-08-09 17:56:44.503617,107.0
2023-08-09 17:56:44.511307,69.0
2023-08-09 17:56:44.518998,16.0
2023-08-09 17:56:44.526688,-33.0
2023-08-09 17:56:44.534379,-78.0
2023-08-09 17:56:44.542069,-121.0
2023-08-09 17:56:44.549760,-152.0
2023-08-09 17:56:44.557450,-174.0
2023-08-09 17:56:44.565141,-191.0
2023-08-09 17:56:44.572831,-198.0
2023-08-09 17:56:44.580522,-207.0
2023-08-09 17:56:44.588213,-207.0
2023-08-09 17:56:44.595903,-200.0
2023-08-09 17:56:44.603594,-195.0
2023-08-09 17:56:44.611284,-188.0
2023-08-09 17:56:44.618975,-179.0
2023-08-09 17:56:44.626665,-171.0
2023-08-09 17:56:44.634356,-167.0
2023-08-09 17:56:44.642046,-160.0
2023-08-09 17:56:44.649737,-155.0
2023-08-09 17:56:44.657427,-152.0
2023-08-09 17:56:44.665118,-145.0
2023-08-09 17:56:44.672808,-138.0
2023-08-09 17:56:44.680499,-136.0
2023-08-09 17:56:44.688190,-136.0
2023-08-09 17:56:44.695880,-136.0
2023-08-09 17:56:44.703571,-128.0
2023-08-09 17:56:44.711261,-124.0
2023-08-09 17:56:44.718952,-121.0
2023-08-09 17:56:44.726642,-121.0
2023-08-09 17:56:44.734333,-119.0
2023-08-09 17:56:44.742023,-121.0
2023-08-09 17:56:44.749714,-121.0
2023-08-09 17:56:44.757404,-117.0
2023-08-09 17:56:44.765095,-112.0
2023-08-09 17:56:44.772786,-112.0
2023-08-09 17:56:44.780476,-112.0
2023-08-09 17:56:44.788167,-112.0
2023-08-09 17:56:44.795857,-109.0
2023-08-09 17:56:44.803548,-105.0
2023-08-09 17:56:44.811238,-105.0
2023-08-09 17:56:44.818929,-102.0
2023-08-09 17:56:44.826619,-97.0
2023-08-09 17:56:44.834310,-95.0
2023-08-09 17:56:44.842000,-97.0
2023-08-09 17:56:44.849691,-95.0
2023-08-09 17:56:44.857382,-90.0
2023-08-09 17:56:44.865072,-88.0
2023-08-09 17:56:44.872763,-88.0
2023-08-09 17:56:44.880453,-88.0
2023-08-09 17:56:44.888144,-85.0
2023-08-09 17:56:44.895834,-81.0
2023-08-09 17:56:44.903525,-81.0
2023-08-09 17:56:44.911215,-81.0
2023-08-09 17:56:44.918906,-81.0
2023-08-09 17:56:44.926596,-78.0
2023-08-09 17:56:44.934287,-76.0
2023-08-09 17:56:44.941977,-74.0
2023-08-09 17:56:44.949668,-78.0
2023-08-09 17:56:44.957359,-76.0
2023-08-09 17:56:44.965049,-71.0
2023-08-09 17:56:44.972740,-71.0
2023-08-09 17:56:44.980430,-74.0
2023-08-09 17:56:44.988121,-76.0
2023-08-09 17:56:44.995811,-74.0
2023-08-09 17:56:45.003502,-76.0
2023-08-09 17:56:45.011192,-76.0
2023-08-09 17:56:45.018883,-74.0
2023-08-09 17:56:45.026573,-76.0
2023-08-09 17:56:45.034264,-76.0
2023-08-09 17:56:45.041955,-74.0
2023-08-09 17:56:45.049645,-71.0
2023-08-09 17:56:45.057336,-71.0
2023-08-09 17:56:45.065026,-66.0
2023-08-09 17:56:45.072717,-57.0
2023-08-09 17:56:45.080407,-47.0
2023-08-09 17:56:45.088098,-47.0
2023-08-09 17:56:45.095788,-52.0
2023-08-09 17:56:45.103479,-57.0
2023-08-09 17:56:45.111169,-69.0
2023-08-09 17:56:45.118860,-85.0
2023-08-09 17:56:45.126551,-97.0
2023-08-09 17:56:45.134241,-100.0
2023-08-09 17:56:45.141932,-100.0
2023-08-09 17:56:45.149622,-97.0
2023-08-09 17:56:45.157313,-95.0
2023-08-09 17:56:45.165003,-90.0
2023-08-09 17:56:45.172694,-90.0
2023-08-09 17:56:45.180384,-100.0
2023-08-09 17:56:45.188075,-62.0
2023-08-09 17:56:45.195765,186.0
2023-08-09 17:56:45.203456,664.0
2023-08-09 17:56:45.211146,1110.0
2023-08-09 17:56:45.218837,1167.0
2023-08-09 17:56:45.226528,747.0
2023-08-09 17:56:45.234218,174.0
2023-08-09 17:56:45.241909,-145.0
2023-08-09 17:56:45.249599,-164.0
2023-08-09 17:56:45.257290,-145.0
2023-08-09 17:56:45.264980,-198.0
2023-08-09 17:56:45.272671,-214.0
2023-08-09 17:56:45.280361,-198.0
2023-08-09 17:56:45.288052,-195.0
2023-08-09 17:56:45.295742,-193.0
2023-08-09 17:56:45.303433,-171.0
2023-08-09 17:56:45.311124,-155.0
2023-08-09 17:56:45.318814,-148.0
2023-08-09 17:56:45.326505,-136.0
2023-08-09 17:56:45.334195,-119.0
2023-08-09 17:56:45.341886,-105.0
2023-08-09 17:56:45.349576,-88.0
2023-08-09 17:56:45.357267,-74.0
2023-08-09 17:56:45.364957,-59.0
2023-08-09 17:56:45.372648,-42.0
2023-08-09 17:56:45.380338,-21.0
2023-08-09 17:56:45.388029,2.0
2023-08-09 17:56:45.395720,23.0
2023-08-09 17:56:45.403410,45.0
2023-08-09 17:56:45.411101,66.0
2023-08-09 17:56:45.418791,90.0
2023-08-09 17:56:45.426482,109.0
2023-08-09 17:56:45.434172,126.0
2023-08-09 17:56:45.441863,140.0
2023-08-09 17:56:45.449553,150.0
2023-08-09 17:56:45.457244,145.0
2023-08-09 17:56:45.464934,128.0
2023-08-09 17:56:45.472625,105.0
2023-08-09 17:56:45.480315,71.0
2023-08-09 17:56:45.488006,28.0
2023-08-09 17:56:45.495697,-21.0
2023-08-09 17:56:45.503387,-71.0
2023-08-09 17:56:45.511078,-117.0
2023-08-09 17:56:45.518768,-145.0
2023-08-09 17:56:45.526459,-167.0
2023-08-09 17:56:45.534149,-183.0
2023-08-09 17:56:45.541840,-195.0
2023-08-09 17:56:45.549530,-200.0
2023-08-09 17:56:45.557221,-195.0
2023-08-09 17:56:45.564911,-186.0
2023-08-09 17:56:45.572602,-181.0
2023-08-09 17:56:45.580293,-176.0
2023-08-09 17:56:45.587983,-171.0
2023-08-09 17:56:45.595674,-169.0
2023-08-09 17:56:45.603364,-167.0
2023-08-09 17:56:45.611055,-160.0
2023-08-09 17:56:45.618745,-152.0
2023-08-09 17:56:45.626436,-148.0
2023-08-09 17:56:45.634126,-145.0
2023-08-09 17:56:45.641817,-145.0
2023-08-09 17:56:45.649507,-140.0
2023-08-09 17:56:45.657198,-133.0
2023-08-09 17:56:45.664889,-128.0
2023-08-09 17:56:45.672579,-128.0
2023-08-09 17:56:45.680270,-133.0
2023-08-09 17:56:45.687960,-140.0
2023-08-09 17:56:45.695651,-136.0
2023-08-09 17:56:45.703341,-128.0
2023-08-09 17:56:45.711032,-128.0
2023-08-09 17:56:45.718722,-131.0
2023-08-09 17:56:45.726413,-133.0
2023-08-09 17:56:45.734103,-131.0
2023-08-09 17:56:45.741794,-128.0
2023-08-09 17:56:45.749485,-128.0
2023-08-09 17:56:45.757175,-124.0
2023-08-09 17:56:45.764866,-117.0
2023-08-09 17:56:45.772556,-117.0
2023-08-09 17:56:45.780247,-119.0
2023-08-09 17:56:45.787937,-114.0
2023-08-09 17:56:45.795628,-109.0
2023-08-09 17:56:45.803318,-109.0
2023-08-09 17:56:45.811009,-105.0
2023-08-09 17:56:45.818699,-105.0
2023-08-09 17:56:45.826390,-105.0
2023-08-09 17:56:45.834080,-100.0
2023-08-09 17:56:45.841771,-97.0
2023-08-09 17:56:45.849462,-97.0
2023-08-09 17:56:45.857152,-95.0
2023-08-09 17:56:45.864843,-93.0
2023-08-09 17:56:45.872533,-93.0
2023-08-09 17:56:45.880224,-93.0
2023-08-09 17:56:45.887914,-90.0
2023-08-09 17:56:45.895605,-85.0
2023-08-09 17:56:45.903295,-81.0
2023-08-09 17:56:45.910986,-83.0
2023-08-09 17:56:45.918676,-83.0
2023-08-09 17:56:45.926367,-81.0
2023-08-09 17:56:45.934058,-76.0
2023-08-09 17:56:45.941748,-74.0
2023-08-09 17:56:45.949439,-74.0
2023-08-09 17:56:45.957129,-74.0
2023-08-09 17:56:45.964820,-78.0
2023-08-09 17:56:45.972510,-83.0
2023-08-09 17:56:45.980201,-83.0
2023-08-09 17:56:45.987891,-81.0
2023-08-09 17:56:45.995582,-83.0
2023-08-09 17:56:46.003272,-81.0
2023-08-09 17:56:46.010963,-78.0
2023-08-09 17:56:46.018654,-76.0
2023-08-09 17:56:46.026344,-76.0
2023-08-09 17:56:46.034035,-74.0
2023-08-09 17:56:46.041725,-76.0
2023-08-09 17:56:46.049416,-71.0
2023-08-09 17:56:46.057106,-62.0
2023-08-09 17:56:46.064797,-50.0
2023-08-09 17:56:46.072487,-42.0
2023-08-09 17:56:46.080178,-38.0
2023-08-09 17:56:46.087868,-47.0
2023-08-09 17:56:46.095559,-78.0
2023-08-09 17:56:46.103249,-97.0
2023-08-09 17:56:46.110940,-97.0
2023-08-09 17:56:46.118631,-95.0
2023-08-09 17:56:46.126321,-95.0
2023-08-09 17:56:46.134012,-93.0
2023-08-09 17:56:46.141702,-88.0
2023-08-09 17:56:46.149393,-88.0
2023-08-09 17:56:46.157083,-95.0
2023-08-09 17:56:46.164774,-85.0
2023-08-09 17:56:46.172464,66.0
2023-08-09 17:56:46.180155,487.0
2023-08-09 17:56:46.187845,1010.0
2023-08-09 17:56:46.195536,1251.0
2023-08-09 17:56:46.203227,960.0
2023-08-09 17:56:46.210917,358.0
2023-08-09 17:56:46.218608,-81.0
2023-08-09 17:56:46.226298,-186.0
2023-08-09 17:56:46.233989,-162.0
2023-08-09 17:56:46.241679,-193.0
2023-08-09 17:56:46.249370,-229.0
2023-08-09 17:56:46.257060,-217.0
2023-08-09 17:56:46.264751,-210.0
2023-08-09 17:56:46.272441,-210.0
2023-08-09 17:56:46.280132,-191.0
2023-08-09 17:56:46.287823,-174.0
2023-08-09 17:56:46.295513,-167.0
2023-08-09 17:56:46.303204,-155.0
2023-08-09 17:56:46.310894,-136.0
2023-08-09 17:56:46.318585,-119.0
2023-08-09 17:56:46.326275,-107.0
2023-08-09 17:56:46.333966,-90.0
2023-08-09 17:56:46.341656,-74.0
2023-08-09 17:56:46.349347,-57.0
2023-08-09 17:56:46.357037,-40.0
2023-08-09 17:56:46.364728,-16.0
2023-08-09 17:56:46.372418,7.0
2023-08-09 17:56:46.380109,28.0
2023-08-09 17:56:46.387800,52.0
2023-08-09 17:56:46.395490,76.0
2023-08-09 17:56:46.403181,97.0
2023-08-09 17:56:46.410871,119.0
2023-08-09 17:56:46.418562,138.0
2023-08-09 17:56:46.426252,145.0
2023-08-09 17:56:46.433943,143.0
2023-08-09 17:56:46.441633,140.0
2023-08-09 17:56:46.449324,124.0
2023-08-09 17:56:46.457014,85.0
2023-08-09 17:56:46.464705,35.0
2023-08-09 17:56:46.472396,-11.0
2023-08-09 17:56:46.480086,-57.0
2023-08-09 17:56:46.487777,-105.0
2023-08-09 17:56:46.495467,-145.0
2023-08-09 17:56:46.503158,-171.0
2023-08-09 17:56:46.510848,-191.0
2023-08-09 17:56:46.518539,-205.0
2023-08-09 17:56:46.526229,-207.0
2023-08-09 17:56:46.533920,-203.0
2023-08-09 17:56:46.541610,-203.0
2023-08-09 17:56:46.549301,-198.0
2023-08-09 17:56:46.556992,-191.0
2023-08-09 17:56:46.564682,-186.0
2023-08-09 17:56:46.572373,-176.0
2023-08-09 17:56:46.580063,-167.0
2023-08-09 17:56:46.587754,-162.0
2023-08-09 17:56:46.595444,-160.0
2023-08-09 17:56:46.603135,-160.0
2023-08-09 17:56:46.610825,-160.0
2023-08-09 17:56:46.618516,-155.0
2023-08-09 17:56:46.626206,-150.0
2023-08-09 17:56:46.633897,-148.0
2023-08-09 17:56:46.641588,-143.0
2023-08-09 17:56:46.649278,-138.0
2023-08-09 17:56:46.656969,-140.0
2023-08-09 17:56:46.664659,-136.0
2023-08-09 17:56:46.672350,-136.0
2023-08-09 17:56:46.680040,-136.0
2023-08-09 17:56:46.687731,-131.0
2023-08-09 17:56:46.695421,-128.0
2023-08-09 17:56:46.703112,-131.0
2023-08-09 17:56:46.710802,-131.0
2023-08-09 17:56:46.718493,-126.0
2023-08-09 17:56:46.726183,-126.0
2023-08-09 17:56:46.733874,-121.0
2023-08-09 17:56:46.741565,-119.0
2023-08-09 17:56:46.749255,-117.0
2023-08-09 17:56:46.756946,-119.0
2023-08-09 17:56:46.764636,-126.0
2023-08-09 17:56:46.772327,-126.0
2023-08-09 17:56:46.780017,-119.0
2023-08-09 17:56:46.787708,-114.0
2023-08-09 17:56:46.795398,-114.0
2023-08-09 17:56:46.803089,-114.0
2023-08-09 17:56:46.810779,-109.0
2023-08-09 17:56:46.818470,-107.0
2023-08-09 17:56:46.826161,-105.0
2023-08-09 17:56:46.833851,-102.0
2023-08-09 17:56:46.841542,-100.0
2023-08-09 17:56:46.849232,-97.0
2023-08-09 17:56:46.856923,-97.0
2023-08-09 17:56:46.864613,-93.0
2023-08-09 17:56:46.872304,-88.0
2023-08-09 17:56:46.879994,-90.0
2023-08-09 17:56:46.887685,-88.0
2023-08-09 17:56:46.895375,-83.0
2023-08-09 17:56:46.903066,-83.0
2023-08-09 17:56:46.910757,-83.0
2023-08-09 17:56:46.918447,-81.0
2023-08-09 17:56:46.926138,-81.0
2023-08-09 17:56:46.933828,-81.0
2023-08-09 17:56:46.941519,-78.0
2023-08-09 17:56:46.949209,-78.0
2023-08-09 17:56:46.956900,-76.0
2023-08-09 17:56:46.964590,-76.0
2023-08-09 17:56:46.972281,-76.0
2023-08-09 17:56:46.979971,-76.0
2023-08-09 17:56:46.987662,-76.0
2023-08-09 17:56:46.995352,-74.0
2023-08-09 17:56:47.003043,-74.0
2023-08-09 17:56:47.010734,-74.0
2023-08-09 17:56:47.018424,-69.0
2023-08-09 17:56:47.026115,-59.0
2023-08-09 17:56:47.033805,-47.0
2023-08-09 17:56:47.041496,-38.0
2023-08-09 17:56:47.049186,-35.0
2023-08-09 17:56:47.056877,-54.0
2023-08-09 17:56:47.064567,-74.0
2023-08-09 17:56:47.072258,-78.0
2023-08-09 17:56:47.079948,-76.0
2023-08-09 17:56:47.087639,-78.0
2023-08-09 17:56:47.095330,-76.0
2023-08-09 17:56:47.103020,-74.0
2023-08-09 17:56:47.110711,-76.0
2023-08-09 17:56:47.118401,-81.0
2023-08-09 17:56:47.126092,-90.0
2023-08-09 17:56:47.133782,-42.0
2023-08-09 17:56:47.141473,231.0
2023-08-09 17:56:47.149163,738.0
2023-08-09 17:56:47.156854,1194.0
2023-08-09 17:56:47.164544,1237.0
2023-08-09 17:56:47.172235,788.0
2023-08-09 17:56:47.179926,195.0
2023-08-09 17:56:47.187616,-131.0
2023-08-09 17:56:47.195307,-152.0
2023-08-09 17:56:47.202997,-138.0
2023-08-09 17:56:47.210688,-193.0
2023-08-09 17:56:47.218378,-212.0
2023-08-09 17:56:47.226069,-188.0
2023-08-09 17:56:47.233759,-186.0
2023-08-09 17:56:47.241450,-186.0
2023-08-09 17:56:47.249140,-164.0
2023-08-09 17:56:47.256831,-148.0
2023-08-09 17:56:47.264521,-138.0
2023-08-09 17:56:47.272212,-124.0
2023-08-09 17:56:47.279903,-105.0
2023-08-09 17:56:47.287593,-93.0
2023-08-09 17:56:47.295284,-83.0
2023-08-09 17:56:47.302974,-74.0
2023-08-09 17:56:47.310665,-62.0
2023-08-09 17:56:47.318355,-42.0
2023-08-09 17:56:47.326046,-16.0
2023-08-09 17:56:47.333736,7.0
2023-08-09 17:56:47.341427,28.0
2023-08-09 17:56:47.349117,52.0
2023-08-09 17:56:47.356808,74.0
2023-08-09 17:56:47.364499,95.0
2023-08-09 17:56:47.372189,124.0
2023-08-09 17:56:47.379880,148.0
2023-08-09 17:56:47.387570,145.0
2023-08-09 17:56:47.395261,140.0
2023-08-09 17:56:47.402951,145.0
2023-08-09 17:56:47.410642,140.0
2023-08-09 17:56:47.418332,119.0
2023-08-09 17:56:47.426023,83.0
2023-08-09 17:56:47.433713,42.0
2023-08-09 17:56:47.441404,-9.0
2023-08-09 17:56:47.449095,-69.0
2023-08-09 17:56:47.456785,-112.0
2023-08-09 17:56:47.464476,-136.0
2023-08-09 17:56:47.472166,-160.0
2023-08-09 17:56:47.479857,-181.0
2023-08-09 17:56:47.487547,-186.0
2023-08-09 17:56:47.495238,-188.0
2023-08-09 17:56:47.502928,-183.0
2023-08-09 17:56:47.510619,-176.0
2023-08-09 17:56:47.518309,-181.0
2023-08-09 17:56:47.526000,-179.0
2023-08-09 17:56:47.533690,-167.0
2023-08-09 17:56:47.541381,-162.0
2023-08-09 17:56:47.549072,-152.0
2023-08-09 17:56:47.556762,-140.0
2023-08-09 17:56:47.564453,-136.0
2023-08-09 17:56:47.572143,-131.0
2023-08-09 17:56:47.579834,-131.0
2023-08-09 17:56:47.587524,-133.0
2023-08-09 17:56:47.595215,-126.0
2023-08-09 17:56:47.602905,-117.0
2023-08-09 17:56:47.610596,-119.0
2023-08-09 17:56:47.618286,-128.0
2023-08-09 17:56:47.625977,-128.0
2023-08-09 17:56:47.633668,-121.0
2023-08-09 17:56:47.641358,-112.0
2023-08-09 17:56:47.649049,-109.0
2023-08-09 17:56:47.656739,-112.0
2023-08-09 17:56:47.664430,-117.0
2023-08-09 17:56:47.672120,-119.0
2023-08-09 17:56:47.679811,-117.0
2023-08-09 17:56:47.687501,-114.0
2023-08-09 17:56:47.695192,-112.0
2023-08-09 17:56:47.702882,-102.0
2023-08-09 17:56:47.710573,-102.0
2023-08-09 17:56:47.718264,-119.0
2023-08-09 17:56:47.725954,-117.0
2023-08-09 17:56:47.733645,-97.0
2023-08-09 17:56:47.741335,-95.0
2023-08-09 17:56:47.749026,-112.0
2023-08-09 17:56:47.756716,-112.0
2023-08-09 17:56:47.764407,-97.0
2023-08-09 17:56:47.772097,-95.0
2023-08-09 17:56:47.779788,-95.0
2023-08-09 17:56:47.787478,-88.0
2023-08-09 17:56:47.795169,-81.0
2023-08-09 17:56:47.802860,-81.0
2023-08-09 17:56:47.810550,-85.0
2023-08-09 17:56:47.818241,-93.0
2023-08-09 17:56:47.825931,-90.0
2023-08-09 17:56:47.833622,-83.0
2023-08-09 17:56:47.841312,-81.0
2023-08-09 17:56:47.849003,-85.0
2023-08-09 17:56:47.856693,-88.0
2023-08-09 17:56:47.864384,-83.0
2023-08-09 17:56:47.872074,-83.0
2023-08-09 17:56:47.879765,-85.0
2023-08-09 17:56:47.887455,-83.0
2023-08-09 17:56:47.895146,-85.0
2023-08-09 17:56:47.902837,-83.0
2023-08-09 17:56:47.910527,-78.0
2023-08-09 17:56:47.918218,-78.0
2023-08-09 17:56:47.925908,-83.0
2023-08-09 17:56:47.933599,-83.0
2023-08-09 17:56:47.941289,-83.0
2023-08-09 17:56:47.948980,-90.0
2023-08-09 17:56:47.956670,-95.0
2023-08-09 17:56:47.964361,-90.0
2023-08-09 17:56:47.972051,-90.0
2023-08-09 17:56:47.979742,-102.0
2023-08-09 17:56:47.987433,-100.0
2023-08-09 17:56:47.995123,-83.0
2023-08-09 17:56:48.002814,-71.0
2023-08-09 17:56:48.010504,-62.0
2023-08-09 17:56:48.018195,-54.0
2023-08-09 17:56:48.025885,-69.0
2023-08-09 17:56:48.033576,-93.0
2023-08-09 17:56:48.041266,-100.0
2023-08-09 17:56:48.048957,-100.0
2023-08-09 17:56:48.056647,-102.0
2023-08-09 17:56:48.064338,-105.0
2023-08-09 17:56:48.072029,-102.0
2023-08-09 17:56:48.079719,-102.0
2023-08-09 17:56:48.087410,-102.0
2023-08-09 17:56:48.095100,-97.0
2023-08-09 17:56:48.102791,-97.0
2023-08-09 17:56:48.110481,16.0
2023-08-09 17:56:48.118172,394.0
2023-08-09 17:56:48.125862,931.0
2023-08-09 17:56:48.133553,1280.0
2023-08-09 17:56:48.141243,1127.0
2023-08-09 17:56:48.148934,549.0
2023-08-09 17:56:48.156624,-2.0
2023-08-09 17:56:48.164315,-200.0
2023-08-09 17:56:48.172006,-167.0
2023-08-09 17:56:48.179696,-183.0
2023-08-09 17:56:48.187387,-246.0
2023-08-09 17:56:48.195077,-238.0
2023-08-09 17:56:48.202768,-217.0
2023-08-09 17:56:48.210458,-219.0
2023-08-09 17:56:48.218149,-207.0
2023-08-09 17:56:48.225839,-188.0
2023-08-09 17:56:48.233530,-176.0
2023-08-09 17:56:48.241220,-162.0
2023-08-09 17:56:48.248911,-148.0
2023-08-09 17:56:48.256602,-133.0
2023-08-09 17:56:48.264292,-117.0
2023-08-09 17:56:48.271983,-100.0
2023-08-09 17:56:48.279673,-83.0
2023-08-09 17:56:48.287364,-64.0
2023-08-09 17:56:48.295054,-45.0
2023-08-09 17:56:48.302745,-26.0
2023-08-09 17:56:48.310435,-4.0
2023-08-09 17:56:48.318126,19.0
2023-08-09 17:56:48.325816,42.0
2023-08-09 17:56:48.333507,66.0
2023-08-09 17:56:48.341198,90.0
2023-08-09 17:56:48.348888,112.0
2023-08-09 17:56:48.356579,131.0
2023-08-09 17:56:48.364269,143.0
2023-08-09 17:56:48.371960,148.0
2023-08-09 17:56:48.379650,143.0
2023-08-09 17:56:48.387341,128.0
2023-08-09 17:56:48.395031,102.0
2023-08-09 17:56:48.402722,66.0
2023-08-09 17:56:48.410412,19.0
2023-08-09 17:56:48.418103,-33.0
2023-08-09 17:56:48.425793,-83.0
2023-08-09 17:56:48.433484,-128.0
2023-08-09 17:56:48.441175,-160.0
2023-08-09 17:56:48.448865,-179.0
2023-08-09 17:56:48.456556,-193.0
2023-08-09 17:56:48.464246,-200.0
2023-08-09 17:56:48.471937,-205.0
2023-08-09 17:56:48.479627,-207.0
2023-08-09 17:56:48.487318,-200.0
2023-08-09 17:56:48.495008,-193.0
2023-08-09 17:56:48.502699,-186.0
2023-08-09 17:56:48.510389,-176.0
2023-08-09 17:56:48.518080,-171.0
2023-08-09 17:56:48.525771,-167.0
2023-08-09 17:56:48.533461,-160.0
2023-08-09 17:56:48.541152,-155.0
