time,ECG
2023-08-12 14:57:59.952464,-40.0
2023-08-12 14:57:59.960154,-40.0
2023-08-12 14:57:59.967844,-45.0
2023-08-12 14:57:59.975534,-57.0
2023-08-12 14:57:59.983224,-69.0
2023-08-12 14:57:59.990914,-80.0
2023-08-12 14:57:59.998604,-85.0
2023-08-12 14:58:00.006294,-80.0
2023-08-12 14:58:00.013983,-76.0
2023-08-12 14:58:00.021673,-71.0
2023-08-12 14:58:00.029363,-73.0
2023-08-12 14:58:00.037053,-71.0
2023-08-12 14:58:00.044743,16.0
2023-08-12 14:58:00.052433,254.0
2023-08-12 14:58:00.060123,533.0
2023-08-12 14:58:00.067813,583.0
2023-08-12 14:58:00.075503,268.0
2023-08-12 14:58:00.083193,-116.0
2023-08-12 14:58:00.090883,-218.0
2023-08-12 14:58:00.098573,-169.0
2023-08-12 14:58:00.106263,-173.0
2023-08-12 14:58:00.113953,-152.0
2023-08-12 14:58:00.121643,-104.0
2023-08-12 14:58:00.129333,-111.0
2023-08-12 14:58:00.137023,-116.0
2023-08-12 14:58:00.144713,-95.0
2023-08-12 14:58:00.152403,-85.0
2023-08-12 14:58:00.160093,-90.0
2023-08-12 14:58:00.167783,-83.0
2023-08-12 14:58:00.175473,-78.0
2023-08-12 14:58:00.183163,-71.0
2023-08-12 14:58:00.190853,-57.0
2023-08-12 14:58:00.198543,-47.0
2023-08-12 14:58:00.206233,-42.0
2023-08-12 14:58:00.213923,-35.0
2023-08-12 14:58:00.221613,-23.0
2023-08-12 14:58:00.229303,-9.0
2023-08-12 14:58:00.236992,0.0
2023-08-12 14:58:00.244682,11.0
2023-08-12 14:58:00.252372,26.0
2023-08-12 14:58:00.260062,38.0
2023-08-12 14:58:00.267752,52.0
2023-08-12 14:58:00.275442,66.0
2023-08-12 14:58:00.283132,73.0
2023-08-12 14:58:00.290822,69.0
2023-08-12 14:58:00.298512,49.0
2023-08-12 14:58:00.306202,26.0
2023-08-12 14:58:00.313892,9.0
2023-08-12 14:58:00.321582,-11.0
2023-08-12 14:58:00.329272,-52.0
2023-08-12 14:58:00.336962,-92.0
2023-08-12 14:58:00.344652,-123.0
2023-08-12 14:58:00.352342,-142.0
2023-08-12 14:58:00.360032,-157.0
2023-08-12 14:58:00.367722,-166.0
2023-08-12 14:58:00.375412,-169.0
2023-08-12 14:58:00.383102,-164.0
2023-08-12 14:58:00.390792,-161.0
2023-08-12 14:58:00.398482,-161.0
2023-08-12 14:58:00.406172,-154.0
2023-08-12 14:58:00.413862,-149.0
2023-08-12 14:58:00.421552,-145.0
2023-08-12 14:58:00.429242,-138.0
2023-08-12 14:58:00.436932,-135.0
2023-08-12 14:58:00.444622,-133.0
2023-08-12 14:58:00.452312,-126.0
2023-08-12 14:58:00.460001,-123.0
2023-08-12 14:58:00.467691,-119.0
2023-08-12 14:58:00.475381,-109.0
2023-08-12 14:58:00.483071,-107.0
2023-08-12 14:58:00.490761,-109.0
2023-08-12 14:58:00.498451,-107.0
2023-08-12 14:58:00.506141,-102.0
2023-08-12 14:58:00.513831,-102.0
2023-08-12 14:58:00.521521,-97.0
2023-08-12 14:58:00.529211,-95.0
2023-08-12 14:58:00.536901,-95.0
2023-08-12 14:58:00.544591,-92.0
2023-08-12 14:58:00.552281,-90.0
2023-08-12 14:58:00.559971,-95.0
2023-08-12 14:58:00.567661,-99.0
2023-08-12 14:58:00.575351,-97.0
2023-08-12 14:58:00.583041,-97.0
2023-08-12 14:58:00.590731,-95.0
2023-08-12 14:58:00.598421,-92.0
2023-08-12 14:58:00.606111,-92.0
2023-08-12 14:58:00.613801,-88.0
2023-08-12 14:58:00.621491,-85.0
2023-08-12 14:58:00.629181,-85.0
2023-08-12 14:58:00.636871,-85.0
2023-08-12 14:58:00.644561,-80.0
2023-08-12 14:58:00.652251,-76.0
2023-08-12 14:58:00.659941,-76.0
2023-08-12 14:58:00.667631,-76.0
2023-08-12 14:58:00.675321,-73.0
2023-08-12 14:58:00.683011,-71.0
2023-08-12 14:58:00.690700,-71.0
2023-08-12 14:58:00.698390,-69.0
2023-08-12 14:58:00.706080,-64.0
2023-08-12 14:58:00.713770,-64.0
2023-08-12 14:58:00.721460,-66.0
2023-08-12 14:58:00.729150,-64.0
2023-08-12 14:58:00.736840,-61.0
2023-08-12 14:58:00.744530,-64.0
2023-08-12 14:58:00.752220,-66.0
2023-08-12 14:58:00.759910,-61.0
2023-08-12 14:58:00.767600,-61.0
2023-08-12 14:58:00.775290,-61.0
2023-08-12 14:58:00.782980,-59.0
2023-08-12 14:58:00.790670,-49.0
2023-08-12 14:58:00.798360,-45.0
2023-08-12 14:58:00.806050,-38.0
2023-08-12 14:58:00.813740,-30.0
2023-08-12 14:58:00.821430,-28.0
2023-08-12 14:58:00.829120,-23.0
2023-08-12 14:58:00.836810,-28.0
2023-08-12 14:58:00.844500,-47.0
2023-08-12 14:58:00.852190,-49.0
2023-08-12 14:58:00.859880,-45.0
2023-08-12 14:58:00.867570,-54.0
2023-08-12 14:58:00.875260,-69.0
2023-08-12 14:58:00.882950,-80.0
2023-08-12 14:58:00.890640,-78.0
2023-08-12 14:58:00.898330,-71.0
2023-08-12 14:58:00.906020,-64.0
2023-08-12 14:58:00.913709,-61.0
2023-08-12 14:58:00.921399,-64.0
2023-08-12 14:58:00.929089,-38.0
2023-08-12 14:58:00.936779,102.0
2023-08-12 14:58:00.944469,364.0
2023-08-12 14:58:00.952159,557.0
2023-08-12 14:58:00.959849,454.0
2023-08-12 14:58:00.967539,88.0
2023-08-12 14:58:00.975229,-169.0
2023-08-12 14:58:00.982919,-169.0
2023-08-12 14:58:00.990609,-142.0
2023-08-12 14:58:00.998299,-142.0
2023-08-12 14:58:01.005989,-102.0
2023-08-12 14:58:01.013679,-90.0
2023-08-12 14:58:01.021369,-99.0
2023-08-12 14:58:01.029059,-73.0
2023-08-12 14:58:01.036749,-61.0
2023-08-12 14:58:01.044439,-73.0
2023-08-12 14:58:01.052129,-64.0
2023-08-12 14:58:01.059819,-49.0
2023-08-12 14:58:01.067509,-52.0
2023-08-12 14:58:01.075199,-52.0
2023-08-12 14:58:01.082889,-40.0
2023-08-12 14:58:01.090579,-33.0
2023-08-12 14:58:01.098269,-26.0
2023-08-12 14:58:01.105959,-14.0
2023-08-12 14:58:01.113649,-4.0
2023-08-12 14:58:01.121339,4.0
2023-08-12 14:58:01.129029,16.0
2023-08-12 14:58:01.136718,28.0
2023-08-12 14:58:01.144408,38.0
2023-08-12 14:58:01.152098,47.0
2023-08-12 14:58:01.159788,59.0
2023-08-12 14:58:01.167478,69.0
2023-08-12 14:58:01.175168,73.0
2023-08-12 14:58:01.182858,66.0
2023-08-12 14:58:01.190548,54.0
2023-08-12 14:58:01.198238,45.0
2023-08-12 14:58:01.205928,23.0
2023-08-12 14:58:01.213618,-9.0
2023-08-12 14:58:01.221308,-42.0
2023-08-12 14:58:01.228998,-78.0
2023-08-12 14:58:01.236688,-107.0
2023-08-12 14:58:01.244378,-114.0
2023-08-12 14:58:01.252068,-119.0
2023-08-12 14:58:01.259758,-130.0
2023-08-12 14:58:01.267448,-130.0
2023-08-12 14:58:01.275138,-126.0
2023-08-12 14:58:01.282828,-128.0
2023-08-12 14:58:01.290518,-133.0
2023-08-12 14:58:01.298208,-128.0
2023-08-12 14:58:01.305898,-121.0
2023-08-12 14:58:01.313588,-116.0
2023-08-12 14:58:01.321278,-111.0
2023-08-12 14:58:01.328968,-109.0
2023-08-12 14:58:01.336658,-111.0
2023-08-12 14:58:01.344348,-111.0
2023-08-12 14:58:01.352038,-109.0
2023-08-12 14:58:01.359727,-104.0
2023-08-12 14:58:01.367417,-102.0
2023-08-12 14:58:01.375107,-104.0
2023-08-12 14:58:01.382797,-104.0
2023-08-12 14:58:01.390487,-102.0
2023-08-12 14:58:01.398177,-95.0
2023-08-12 14:58:01.405867,-95.0
2023-08-12 14:58:01.413557,-99.0
2023-08-12 14:58:01.421247,-97.0
2023-08-12 14:58:01.428937,-92.0
2023-08-12 14:58:01.436627,-90.0
2023-08-12 14:58:01.444317,-85.0
2023-08-12 14:58:01.452007,-80.0
2023-08-12 14:58:01.459697,-80.0
2023-08-12 14:58:01.467387,-83.0
2023-08-12 14:58:01.475077,-85.0
2023-08-12 14:58:01.482767,-80.0
2023-08-12 14:58:01.490457,-76.0
2023-08-12 14:58:01.498147,-71.0
2023-08-12 14:58:01.505837,-71.0
2023-08-12 14:58:01.513527,-76.0
2023-08-12 14:58:01.521217,-69.0
2023-08-12 14:58:01.528907,-61.0
2023-08-12 14:58:01.536597,-64.0
2023-08-12 14:58:01.544287,-61.0
2023-08-12 14:58:01.551977,-59.0
2023-08-12 14:58:01.559667,-64.0
2023-08-12 14:58:01.567357,-64.0
2023-08-12 14:58:01.575047,-64.0
2023-08-12 14:58:01.582737,-66.0
2023-08-12 14:58:01.590426,-69.0
2023-08-12 14:58:01.598116,-66.0
2023-08-12 14:58:01.605806,-66.0
2023-08-12 14:58:01.613496,-64.0
2023-08-12 14:58:01.621186,-61.0
2023-08-12 14:58:01.628876,-64.0
2023-08-12 14:58:01.636566,-61.0
2023-08-12 14:58:01.644256,-54.0
2023-08-12 14:58:01.651946,-54.0
2023-08-12 14:58:01.659636,-54.0
2023-08-12 14:58:01.667326,-52.0
2023-08-12 14:58:01.675016,-47.0
2023-08-12 14:58:01.682706,-42.0
2023-08-12 14:58:01.690396,-42.0
2023-08-12 14:58:01.698086,-42.0
2023-08-12 14:58:01.705776,-28.0
2023-08-12 14:58:01.713466,-19.0
2023-08-12 14:58:01.721156,-16.0
2023-08-12 14:58:01.728846,-21.0
2023-08-12 14:58:01.736536,-26.0
2023-08-12 14:58:01.744226,-30.0
2023-08-12 14:58:01.751916,-35.0
2023-08-12 14:58:01.759606,-45.0
2023-08-12 14:58:01.767296,-57.0
2023-08-12 14:58:01.774986,-64.0
2023-08-12 14:58:01.782676,-66.0
2023-08-12 14:58:01.790366,-64.0
2023-08-12 14:58:01.798056,-61.0
2023-08-12 14:58:01.805746,-64.0
2023-08-12 14:58:01.813435,-69.0
2023-08-12 14:58:01.821125,-40.0
2023-08-12 14:58:01.828815,73.0
2023-08-12 14:58:01.836505,299.0
2023-08-12 14:58:01.844195,507.0
2023-08-12 14:58:01.851885,447.0
2023-08-12 14:58:01.859575,109.0
2023-08-12 14:58:01.867265,-149.0
2023-08-12 14:58:01.874955,-157.0
2023-08-12 14:58:01.882645,-135.0
2023-08-12 14:58:01.890335,-147.0
2023-08-12 14:58:01.898025,-104.0
2023-08-12 14:58:01.905715,-76.0
2023-08-12 14:58:01.913405,-92.0
2023-08-12 14:58:01.921095,-88.0
2023-08-12 14:58:01.928785,-73.0
2023-08-12 14:58:01.936475,-71.0
2023-08-12 14:58:01.944165,-64.0
2023-08-12 14:58:01.951855,-52.0
2023-08-12 14:58:01.959545,-47.0
2023-08-12 14:58:01.967235,-47.0
2023-08-12 14:58:01.974925,-45.0
2023-08-12 14:58:01.982615,-35.0
2023-08-12 14:58:01.990305,-19.0
2023-08-12 14:58:01.997995,-11.0
2023-08-12 14:58:02.005685,-7.0
2023-08-12 14:58:02.013375,2.0
2023-08-12 14:58:02.021065,16.0
2023-08-12 14:58:02.028755,30.0
2023-08-12 14:58:02.036444,45.0
2023-08-12 14:58:02.044134,57.0
2023-08-12 14:58:02.051824,59.0
2023-08-12 14:58:02.059514,61.0
2023-08-12 14:58:02.067204,69.0
2023-08-12 14:58:02.074894,64.0
2023-08-12 14:58:02.082584,45.0
2023-08-12 14:58:02.090274,28.0
2023-08-12 14:58:02.097964,7.0
2023-08-12 14:58:02.105654,-35.0
2023-08-12 14:58:02.113344,-69.0
2023-08-12 14:58:02.121034,-88.0
2023-08-12 14:58:02.128724,-111.0
2023-08-12 14:58:02.136414,-133.0
2023-08-12 14:58:02.144104,-152.0
2023-08-12 14:58:02.151794,-169.0
2023-08-12 14:58:02.159484,-171.0
2023-08-12 14:58:02.167174,-161.0
2023-08-12 14:58:02.174864,-142.0
2023-08-12 14:58:02.182554,-119.0
2023-08-12 14:58:02.190244,-119.0
2023-08-12 14:58:02.197934,-135.0
2023-08-12 14:58:02.205624,-149.0
2023-08-12 14:58:02.213314,-145.0
2023-08-12 14:58:02.221004,-109.0
2023-08-12 14:58:02.228694,-95.0
2023-08-12 14:58:02.236384,-114.0
2023-08-12 14:58:02.244074,-109.0
2023-08-12 14:58:02.251764,-90.0
2023-08-12 14:58:02.259453,-95.0
2023-08-12 14:58:02.267143,-95.0
2023-08-12 14:58:02.274833,-90.0
2023-08-12 14:58:02.282523,-97.0
2023-08-12 14:58:02.290213,-97.0
2023-08-12 14:58:02.297903,-92.0
2023-08-12 14:58:02.305593,-92.0
2023-08-12 14:58:02.313283,-88.0
2023-08-12 14:58:02.320973,-88.0
2023-08-12 14:58:02.328663,-92.0
2023-08-12 14:58:02.336353,-90.0
2023-08-12 14:58:02.344043,-92.0
2023-08-12 14:58:02.351733,-95.0
2023-08-12 14:58:02.359423,-83.0
2023-08-12 14:58:02.367113,-59.0
2023-08-12 14:58:02.374803,-69.0
2023-08-12 14:58:02.382493,-85.0
2023-08-12 14:58:02.390183,-80.0
2023-08-12 14:58:02.397873,-73.0
2023-08-12 14:58:02.405563,-76.0
2023-08-12 14:58:02.413253,-76.0
2023-08-12 14:58:02.420943,-73.0
2023-08-12 14:58:02.428633,-69.0
2023-08-12 14:58:02.436323,-66.0
2023-08-12 14:58:02.444013,-64.0
2023-08-12 14:58:02.451703,-64.0
2023-08-12 14:58:02.459393,-66.0
2023-08-12 14:58:02.467083,-66.0
2023-08-12 14:58:02.474773,-66.0
2023-08-12 14:58:02.482463,-66.0
2023-08-12 14:58:02.490152,-64.0
2023-08-12 14:58:02.497842,-61.0
2023-08-12 14:58:02.505532,-64.0
2023-08-12 14:58:02.513222,-61.0
2023-08-12 14:58:02.520912,-54.0
2023-08-12 14:58:02.528602,-47.0
2023-08-12 14:58:02.536292,-42.0
2023-08-12 14:58:02.543982,-47.0
2023-08-12 14:58:02.551672,-54.0
2023-08-12 14:58:02.559362,-42.0
2023-08-12 14:58:02.567052,-30.0
2023-08-12 14:58:02.574742,-38.0
2023-08-12 14:58:02.582432,-49.0
2023-08-12 14:58:02.590122,-49.0
2023-08-12 14:58:02.597812,-47.0
2023-08-12 14:58:02.605502,-64.0
2023-08-12 14:58:02.613192,-78.0
2023-08-12 14:58:02.620882,-73.0
2023-08-12 14:58:02.628572,-71.0
2023-08-12 14:58:02.636262,-80.0
2023-08-12 14:58:02.643952,-78.0
2023-08-12 14:58:02.651642,-64.0
2023-08-12 14:58:02.659332,-66.0
2023-08-12 14:58:02.667022,-73.0
2023-08-12 14:58:02.674712,-23.0
2023-08-12 14:58:02.682402,142.0
2023-08-12 14:58:02.690092,390.0
2023-08-12 14:58:02.697782,507.0
2023-08-12 14:58:02.705472,299.0
2023-08-12 14:58:02.713161,-54.0
2023-08-12 14:58:02.720851,-180.0
2023-08-12 14:58:02.728541,-133.0
2023-08-12 14:58:02.736231,-154.0
2023-08-12 14:58:02.743921,-152.0
2023-08-12 14:58:02.751611,-83.0
2023-08-12 14:58:02.759301,-76.0
2023-08-12 14:58:02.766991,-102.0
2023-08-12 14:58:02.774681,-80.0
2023-08-12 14:58:02.782371,-64.0
2023-08-12 14:58:02.790061,-76.0
2023-08-12 14:58:02.797751,-73.0
2023-08-12 14:58:02.805441,-54.0
2023-08-12 14:58:02.813131,-42.0
2023-08-12 14:58:02.820821,-42.0
2023-08-12 14:58:02.828511,-38.0
2023-08-12 14:58:02.836201,-26.0
2023-08-12 14:58:02.843891,-21.0
2023-08-12 14:58:02.851581,-16.0
2023-08-12 14:58:02.859271,-4.0
2023-08-12 14:58:02.866961,9.0
2023-08-12 14:58:02.874651,19.0
2023-08-12 14:58:02.882341,35.0
2023-08-12 14:58:02.890031,49.0
2023-08-12 14:58:02.897721,57.0
2023-08-12 14:58:02.905411,66.0
2023-08-12 14:58:02.913101,76.0
2023-08-12 14:58:02.920791,83.0
2023-08-12 14:58:02.928481,78.0
2023-08-12 14:58:02.936170,59.0
2023-08-12 14:58:02.943860,35.0
2023-08-12 14:58:02.951550,7.0
2023-08-12 14:58:02.959240,-19.0
2023-08-12 14:58:02.966930,-42.0
2023-08-12 14:58:02.974620,-73.0
2023-08-12 14:58:02.982310,-99.0
2023-08-12 14:58:02.990000,-119.0
2023-08-12 14:58:02.997690,-130.0
2023-08-12 14:58:03.005380,-126.0
2023-08-12 14:58:03.013070,-119.0
2023-08-12 14:58:03.020760,-119.0
2023-08-12 14:58:03.028450,-119.0
2023-08-12 14:58:03.036140,-119.0
2023-08-12 14:58:03.043830,-119.0
2023-08-12 14:58:03.051520,-111.0
2023-08-12 14:58:03.059210,-107.0
2023-08-12 14:58:03.066900,-109.0
2023-08-12 14:58:03.074590,-109.0
2023-08-12 14:58:03.082280,-102.0
2023-08-12 14:58:03.089970,-99.0
2023-08-12 14:58:03.097660,-102.0
2023-08-12 14:58:03.105350,-99.0
2023-08-12 14:58:03.113040,-95.0
2023-08-12 14:58:03.120730,-88.0
2023-08-12 14:58:03.128420,-85.0
2023-08-12 14:58:03.136110,-95.0
2023-08-12 14:58:03.143800,-99.0
2023-08-12 14:58:03.151490,-88.0
2023-08-12 14:58:03.159179,-83.0
2023-08-12 14:58:03.166869,-92.0
2023-08-12 14:58:03.174559,-95.0
2023-08-12 14:58:03.182249,-90.0
2023-08-12 14:58:03.189939,-85.0
2023-08-12 14:58:03.197629,-85.0
2023-08-12 14:58:03.205319,-85.0
2023-08-12 14:58:03.213009,-83.0
2023-08-12 14:58:03.220699,-85.0
2023-08-12 14:58:03.228389,-90.0
2023-08-12 14:58:03.236079,-88.0
2023-08-12 14:58:03.243769,-85.0
2023-08-12 14:58:03.251459,-85.0
2023-08-12 14:58:03.259149,-83.0
2023-08-12 14:58:03.266839,-80.0
2023-08-12 14:58:03.274529,-80.0
2023-08-12 14:58:03.282219,-85.0
2023-08-12 14:58:03.289909,-88.0
2023-08-12 14:58:03.297599,-80.0
2023-08-12 14:58:03.305289,-76.0
2023-08-12 14:58:03.312979,-80.0
2023-08-12 14:58:03.320669,-80.0
2023-08-12 14:58:03.328359,-76.0
2023-08-12 14:58:03.336049,-76.0
2023-08-12 14:58:03.343739,-73.0
2023-08-12 14:58:03.351429,-76.0
2023-08-12 14:58:03.359119,-80.0
2023-08-12 14:58:03.366809,-73.0
2023-08-12 14:58:03.374499,-64.0
2023-08-12 14:58:03.382189,-66.0
2023-08-12 14:58:03.389878,-66.0
2023-08-12 14:58:03.397568,-54.0
2023-08-12 14:58:03.405258,-38.0
2023-08-12 14:58:03.412948,-33.0
2023-08-12 14:58:03.420638,-35.0
2023-08-12 14:58:03.428328,-38.0
2023-08-12 14:58:03.436018,-40.0
2023-08-12 14:58:03.443708,-45.0
2023-08-12 14:58:03.451398,-52.0
2023-08-12 14:58:03.459088,-64.0
2023-08-12 14:58:03.466778,-73.0
2023-08-12 14:58:03.474468,-76.0
2023-08-12 14:58:03.482158,-73.0
2023-08-12 14:58:03.489848,-71.0
2023-08-12 14:58:03.497538,-71.0
2023-08-12 14:58:03.505228,-69.0
2023-08-12 14:58:03.512918,-69.0
2023-08-12 14:58:03.520608,-54.0
2023-08-12 14:58:03.528298,47.0
2023-08-12 14:58:03.535988,278.0
2023-08-12 14:58:03.543678,497.0
2023-08-12 14:58:03.551368,435.0
2023-08-12 14:58:03.559058,90.0
2023-08-12 14:58:03.566748,-159.0
2023-08-12 14:58:03.574438,-157.0
2023-08-12 14:58:03.582128,-142.0
2023-08-12 14:58:03.589818,-171.0
2023-08-12 14:58:03.597508,-128.0
2023-08-12 14:58:03.605198,-85.0
2023-08-12 14:58:03.612887,-95.0
2023-08-12 14:58:03.620577,-92.0
2023-08-12 14:58:03.628267,-76.0
2023-08-12 14:58:03.635957,-73.0
2023-08-12 14:58:03.643647,-69.0
2023-08-12 14:58:03.651337,-59.0
2023-08-12 14:58:03.659027,-49.0
2023-08-12 14:58:03.666717,-45.0
2023-08-12 14:58:03.674407,-45.0
2023-08-12 14:58:03.682097,-45.0
2023-08-12 14:58:03.689787,-35.0
2023-08-12 14:58:03.697477,-21.0
2023-08-12 14:58:03.705167,-11.0
2023-08-12 14:58:03.712857,-4.0
2023-08-12 14:58:03.720547,9.0
2023-08-12 14:58:03.728237,23.0
2023-08-12 14:58:03.735927,38.0
2023-08-12 14:58:03.743617,54.0
2023-08-12 14:58:03.751307,69.0
2023-08-12 14:58:03.758997,73.0
2023-08-12 14:58:03.766687,71.0
2023-08-12 14:58:03.774377,64.0
2023-08-12 14:58:03.782067,52.0
2023-08-12 14:58:03.789757,47.0
2023-08-12 14:58:03.797447,33.0
2023-08-12 14:58:03.805137,-4.0
2023-08-12 14:58:03.812827,-47.0
2023-08-12 14:58:03.820517,-66.0
2023-08-12 14:58:03.828207,-88.0
2023-08-12 14:58:03.835896,-116.0
2023-08-12 14:58:03.843586,-130.0
2023-08-12 14:58:03.851276,-130.0
2023-08-12 14:58:03.858966,-135.0
2023-08-12 14:58:03.866656,-138.0
2023-08-12 14:58:03.874346,-128.0
2023-08-12 14:58:03.882036,-123.0
2023-08-12 14:58:03.889726,-126.0
2023-08-12 14:58:03.897416,-121.0
2023-08-12 14:58:03.905106,-114.0
2023-08-12 14:58:03.912796,-109.0
2023-08-12 14:58:03.920486,-102.0
2023-08-12 14:58:03.928176,-92.0
2023-08-12 14:58:03.935866,-90.0
2023-08-12 14:58:03.943556,-90.0
2023-08-12 14:58:03.951246,-90.0
2023-08-12 14:58:03.958936,-88.0
2023-08-12 14:58:03.966626,-85.0
2023-08-12 14:58:03.974316,-83.0
2023-08-12 14:58:03.982006,-80.0
2023-08-12 14:58:03.989696,-76.0
2023-08-12 14:58:03.997386,-73.0
2023-08-12 14:58:04.005076,-66.0
2023-08-12 14:58:04.012766,-66.0
2023-08-12 14:58:04.020456,-71.0
2023-08-12 14:58:04.028146,-76.0
2023-08-12 14:58:04.035836,-80.0
2023-08-12 14:58:04.043526,-80.0
2023-08-12 14:58:04.051216,-80.0
2023-08-12 14:58:04.058905,-83.0
2023-08-12 14:58:04.066595,-83.0
2023-08-12 14:58:04.074285,-78.0
2023-08-12 14:58:04.081975,-80.0
2023-08-12 14:58:04.089665,-80.0
2023-08-12 14:58:04.097355,-78.0
2023-08-12 14:58:04.105045,-78.0
2023-08-12 14:58:04.112735,-76.0
2023-08-12 14:58:04.120425,-80.0
2023-08-12 14:58:04.128115,-80.0
2023-08-12 14:58:04.135805,-71.0
2023-08-12 14:58:04.143495,-71.0
2023-08-12 14:58:04.151185,-76.0
2023-08-12 14:58:04.158875,-78.0
2023-08-12 14:58:04.166565,-78.0
2023-08-12 14:58:04.174255,-76.0
2023-08-12 14:58:04.181945,-66.0
2023-08-12 14:58:04.189635,-64.0
2023-08-12 14:58:04.197325,-73.0
2023-08-12 14:58:04.205015,-78.0
2023-08-12 14:58:04.212705,-78.0
2023-08-12 14:58:04.220395,-78.0
2023-08-12 14:58:04.228085,-76.0
2023-08-12 14:58:04.235775,-66.0
2023-08-12 14:58:04.243465,-57.0
2023-08-12 14:58:04.251155,-49.0
2023-08-12 14:58:04.258845,-42.0
2023-08-12 14:58:04.266535,-47.0
2023-08-12 14:58:04.274225,-57.0
2023-08-12 14:58:04.281915,-57.0
2023-08-12 14:58:04.289604,-54.0
2023-08-12 14:58:04.297294,-64.0
2023-08-12 14:58:04.304984,-78.0
2023-08-12 14:58:04.312674,-90.0
2023-08-12 14:58:04.320364,-92.0
2023-08-12 14:58:04.328054,-90.0
2023-08-12 14:58:04.335744,-85.0
2023-08-12 14:58:04.343434,-78.0
2023-08-12 14:58:04.351124,-80.0
2023-08-12 14:58:04.358814,-83.0
2023-08-12 14:58:04.366504,-23.0
2023-08-12 14:58:04.374194,171.0
2023-08-12 14:58:04.381884,452.0
2023-08-12 14:58:04.389574,566.0
2023-08-12 14:58:04.397264,297.0
2023-08-12 14:58:04.404954,-90.0
2023-08-12 14:58:04.412644,-192.0
2023-08-12 14:58:04.420334,-142.0
2023-08-12 14:58:04.428024,-180.0
2023-08-12 14:58:04.435714,-173.0
2023-08-12 14:58:04.443404,-85.0
2023-08-12 14:58:04.451094,-76.0
2023-08-12 14:58:04.458784,-111.0
2023-08-12 14:58:04.466474,-90.0
2023-08-12 14:58:04.474164,-66.0
2023-08-12 14:58:04.481854,-71.0
2023-08-12 14:58:04.489544,-66.0
2023-08-12 14:58:04.497234,-49.0
2023-08-12 14:58:04.504924,-47.0
2023-08-12 14:58:04.512613,-45.0
2023-08-12 14:58:04.520303,-38.0
2023-08-12 14:58:04.527993,-30.0
2023-08-12 14:58:04.535683,-19.0
2023-08-12 14:58:04.543373,-7.0
2023-08-12 14:58:04.551063,0.0
2023-08-12 14:58:04.558753,9.0
2023-08-12 14:58:04.566443,30.0
2023-08-12 14:58:04.574133,47.0
2023-08-12 14:58:04.581823,57.0
2023-08-12 14:58:04.589513,71.0
2023-08-12 14:58:04.597203,85.0
2023-08-12 14:58:04.604893,88.0
2023-08-12 14:58:04.612583,83.0
2023-08-12 14:58:04.620273,76.0
2023-08-12 14:58:04.627963,61.0
2023-08-12 14:58:04.635653,42.0
2023-08-12 14:58:04.643343,16.0
2023-08-12 14:58:04.651033,-21.0
2023-08-12 14:58:04.658723,-61.0
2023-08-12 14:58:04.666413,-90.0
2023-08-12 14:58:04.674103,-109.0
2023-08-12 14:58:04.681793,-126.0
2023-08-12 14:58:04.689483,-140.0
2023-08-12 14:58:04.697173,-145.0
2023-08-12 14:58:04.704863,-138.0
2023-08-12 14:58:04.712553,-135.0
2023-08-12 14:58:04.720243,-138.0
2023-08-12 14:58:04.727933,-128.0
2023-08-12 14:58:04.735622,-123.0
2023-08-12 14:58:04.743312,-126.0
2023-08-12 14:58:04.751002,-119.0
2023-08-12 14:58:04.758692,-114.0
2023-08-12 14:58:04.766382,-111.0
2023-08-12 14:58:04.774072,-104.0
2023-08-12 14:58:04.781762,-97.0
2023-08-12 14:58:04.789452,-99.0
2023-08-12 14:58:04.797142,-92.0
2023-08-12 14:58:04.804832,-88.0
2023-08-12 14:58:04.812522,-88.0
2023-08-12 14:58:04.820212,-80.0
2023-08-12 14:58:04.827902,-78.0
2023-08-12 14:58:04.835592,-80.0
2023-08-12 14:58:04.843282,-78.0
2023-08-12 14:58:04.850972,-73.0
2023-08-12 14:58:04.858662,-73.0
2023-08-12 14:58:04.866352,-73.0
2023-08-12 14:58:04.874042,-78.0
2023-08-12 14:58:04.881732,-80.0
2023-08-12 14:58:04.889422,-85.0
2023-08-12 14:58:04.897112,-92.0
2023-08-12 14:58:04.904802,-90.0
2023-08-12 14:58:04.912492,-80.0
2023-08-12 14:58:04.920182,-76.0
2023-08-12 14:58:04.927872,-83.0
2023-08-12 14:58:04.935562,-85.0
2023-08-12 14:58:04.943252,-78.0
2023-08-12 14:58:04.950942,-78.0
2023-08-12 14:58:04.958631,-80.0
2023-08-12 14:58:04.966321,-78.0
2023-08-12 14:58:04.974011,-78.0
2023-08-12 14:58:04.981701,-78.0
2023-08-12 14:58:04.989391,-76.0
2023-08-12 14:58:04.997081,-71.0
2023-08-12 14:58:05.004771,-73.0
2023-08-12 14:58:05.012461,-76.0
2023-08-12 14:58:05.020151,-73.0
2023-08-12 14:58:05.027841,-71.0
2023-08-12 14:58:05.035531,-66.0
2023-08-12 14:58:05.043221,-64.0
2023-08-12 14:58:05.050911,-57.0
2023-08-12 14:58:05.058601,-40.0
2023-08-12 14:58:05.066291,-28.0
2023-08-12 14:58:05.073981,-33.0
2023-08-12 14:58:05.081671,-42.0
2023-08-12 14:58:05.089361,-42.0
2023-08-12 14:58:05.097051,-42.0
2023-08-12 14:58:05.104741,-57.0
2023-08-12 14:58:05.112431,-78.0
2023-08-12 14:58:05.120121,-90.0
2023-08-12 14:58:05.127811,-95.0
2023-08-12 14:58:05.135501,-95.0
2023-08-12 14:58:05.143191,-90.0
2023-08-12 14:58:05.150881,-83.0
2023-08-12 14:58:05.158571,-88.0
2023-08-12 14:58:05.166261,-97.0
2023-08-12 14:58:05.173951,-76.0
2023-08-12 14:58:05.181641,38.0
2023-08-12 14:58:05.189330,283.0
2023-08-12 14:58:05.197020,523.0
2023-08-12 14:58:05.204710,497.0
2023-08-12 14:58:05.212400,152.0
2023-08-12 14:58:05.220090,-159.0
2023-08-12 14:58:05.227780,-190.0
2023-08-12 14:58:05.235470,-154.0
2023-08-12 14:58:05.243160,-178.0
2023-08-12 14:58:05.250850,-142.0
2023-08-12 14:58:05.258540,-97.0
2023-08-12 14:58:05.266230,-111.0
2023-08-12 14:58:05.273920,-116.0
2023-08-12 14:58:05.281610,-90.0
2023-08-12 14:58:05.289300,-83.0
2023-08-12 14:58:05.296990,-83.0
2023-08-12 14:58:05.304680,-76.0
2023-08-12 14:58:05.312370,-66.0
2023-08-12 14:58:05.320060,-57.0
2023-08-12 14:58:05.327750,-49.0
2023-08-12 14:58:05.335440,-49.0
2023-08-12 14:58:05.343130,-49.0
2023-08-12 14:58:05.350820,-35.0
2023-08-12 14:58:05.358510,-26.0
2023-08-12 14:58:05.366200,-16.0
2023-08-12 14:58:05.373890,2.0
2023-08-12 14:58:05.381580,19.0
2023-08-12 14:58:05.389270,26.0
2023-08-12 14:58:05.396960,42.0
2023-08-12 14:58:05.404650,59.0
2023-08-12 14:58:05.412339,64.0
2023-08-12 14:58:05.420029,64.0
2023-08-12 14:58:05.427719,64.0
2023-08-12 14:58:05.435409,54.0
2023-08-12 14:58:05.443099,35.0
2023-08-12 14:58:05.450789,14.0
2023-08-12 14:58:05.458479,-14.0
2023-08-12 14:58:05.466169,-42.0
2023-08-12 14:58:05.473859,-71.0
2023-08-12 14:58:05.481549,-107.0
2023-08-12 14:58:05.489239,-133.0
2023-08-12 14:58:05.496929,-142.0
2023-08-12 14:58:05.504619,-142.0
2023-08-12 14:58:05.512309,-145.0
2023-08-12 14:58:05.519999,-140.0
2023-08-12 14:58:05.527689,-138.0
2023-08-12 14:58:05.535379,-135.0
2023-08-12 14:58:05.543069,-128.0
2023-08-12 14:58:05.550759,-119.0
2023-08-12 14:58:05.558449,-121.0
2023-08-12 14:58:05.566139,-116.0
2023-08-12 14:58:05.573829,-109.0
2023-08-12 14:58:05.581519,-104.0
2023-08-12 14:58:05.589209,-102.0
2023-08-12 14:58:05.596899,-99.0
2023-08-12 14:58:05.604589,-99.0
2023-08-12 14:58:05.612279,-97.0
2023-08-12 14:58:05.619969,-92.0
2023-08-12 14:58:05.627659,-90.0
2023-08-12 14:58:05.635348,-90.0
2023-08-12 14:58:05.643038,-83.0
2023-08-12 14:58:05.650728,-83.0
2023-08-12 14:58:05.658418,-88.0
2023-08-12 14:58:05.666108,-88.0
2023-08-12 14:58:05.673798,-80.0
2023-08-12 14:58:05.681488,-78.0
2023-08-12 14:58:05.689178,-76.0
2023-08-12 14:58:05.696868,-78.0
2023-08-12 14:58:05.704558,-78.0
2023-08-12 14:58:05.712248,-76.0
2023-08-12 14:58:05.719938,-73.0
2023-08-12 14:58:05.727628,-76.0
2023-08-12 14:58:05.735318,-71.0
2023-08-12 14:58:05.743008,-69.0
2023-08-12 14:58:05.750698,-73.0
2023-08-12 14:58:05.758388,-78.0
2023-08-12 14:58:05.766078,-73.0
2023-08-12 14:58:05.773768,-66.0
2023-08-12 14:58:05.781458,-69.0
2023-08-12 14:58:05.789148,-76.0
2023-08-12 14:58:05.796838,-71.0
2023-08-12 14:58:05.804528,-64.0
2023-08-12 14:58:05.812218,-59.0
2023-08-12 14:58:05.819908,-61.0
2023-08-12 14:58:05.827598,-64.0
2023-08-12 14:58:05.835288,-69.0
2023-08-12 14:58:05.842978,-66.0
2023-08-12 14:58:05.850668,-61.0
2023-08-12 14:58:05.858357,-61.0
2023-08-12 14:58:05.866047,-61.0
2023-08-12 14:58:05.873737,-61.0
2023-08-12 14:58:05.881427,-64.0
2023-08-12 14:58:05.889117,-59.0
2023-08-12 14:58:05.896807,-52.0
2023-08-12 14:58:05.904497,-42.0
2023-08-12 14:58:05.912187,-28.0
2023-08-12 14:58:05.919877,-28.0
2023-08-12 14:58:05.927567,-45.0
2023-08-12 14:58:05.935257,-54.0
2023-08-12 14:58:05.942947,-47.0
2023-08-12 14:58:05.950637,-42.0
2023-08-12 14:58:05.958327,-52.0
2023-08-12 14:58:05.966017,-66.0
2023-08-12 14:58:05.973707,-83.0
2023-08-12 14:58:05.981397,-90.0
2023-08-12 14:58:05.989087,-90.0
2023-08-12 14:58:05.996777,-88.0
2023-08-12 14:58:06.004467,-88.0
2023-08-12 14:58:06.012157,-90.0
2023-08-12 14:58:06.019847,-90.0
2023-08-12 14:58:06.027537,-59.0
2023-08-12 14:58:06.035227,85.0
2023-08-12 14:58:06.042917,347.0
2023-08-12 14:58:06.050607,545.0
2023-08-12 14:58:06.058297,430.0
2023-08-12 14:58:06.065987,54.0
2023-08-12 14:58:06.073677,-188.0
2023-08-12 14:58:06.081367,-176.0
2023-08-12 14:58:06.089056,-166.0
2023-08-12 14:58:06.096746,-180.0
2023-08-12 14:58:06.104436,-126.0
2023-08-12 14:58:06.112126,-102.0
2023-08-12 14:58:06.119816,-126.0
2023-08-12 14:58:06.127506,-114.0
2023-08-12 14:58:06.135196,-92.0
2023-08-12 14:58:06.142886,-95.0
2023-08-12 14:58:06.150576,-95.0
2023-08-12 14:58:06.158266,-80.0
2023-08-12 14:58:06.165956,-69.0
2023-08-12 14:58:06.173646,-64.0
2023-08-12 14:58:06.181336,-54.0
2023-08-12 14:58:06.189026,-42.0
2023-08-12 14:58:06.196716,-35.0
2023-08-12 14:58:06.204406,-28.0
2023-08-12 14:58:06.212096,-16.0
2023-08-12 14:58:06.219786,-4.0
2023-08-12 14:58:06.227476,9.0
2023-08-12 14:58:06.235166,21.0
2023-08-12 14:58:06.242856,30.0
2023-08-12 14:58:06.250546,40.0
2023-08-12 14:58:06.258236,54.0
2023-08-12 14:58:06.265926,66.0
2023-08-12 14:58:06.273616,69.0
2023-08-12 14:58:06.281306,61.0
2023-08-12 14:58:06.288996,52.0
2023-08-12 14:58:06.296686,35.0
2023-08-12 14:58:06.304376,11.0
2023-08-12 14:58:06.312065,-19.0
2023-08-12 14:58:06.319755,-47.0
2023-08-12 14:58:06.327445,-78.0
2023-08-12 14:58:06.335135,-104.0
2023-08-12 14:58:06.342825,-121.0
2023-08-12 14:58:06.350515,-126.0
2023-08-12 14:58:06.358205,-130.0
2023-08-12 14:58:06.365895,-133.0
2023-08-12 14:58:06.373585,-130.0
2023-08-12 14:58:06.381275,-126.0
2023-08-12 14:58:06.388965,-119.0
2023-08-12 14:58:06.396655,-114.0
2023-08-12 14:58:06.404345,-111.0
2023-08-12 14:58:06.412035,-107.0
2023-08-12 14:58:06.419725,-102.0
2023-08-12 14:58:06.427415,-99.0
2023-08-12 14:58:06.435105,-92.0
2023-08-12 14:58:06.442795,-90.0
2023-08-12 14:58:06.450485,-92.0
2023-08-12 14:58:06.458175,-92.0
2023-08-12 14:58:06.465865,-92.0
2023-08-12 14:58:06.473555,-92.0
2023-08-12 14:58:06.481245,-90.0
2023-08-12 14:58:06.488935,-92.0
2023-08-12 14:58:06.496625,-90.0
2023-08-12 14:58:06.504315,-80.0
2023-08-12 14:58:06.512005,-78.0
2023-08-12 14:58:06.519695,-83.0
2023-08-12 14:58:06.527385,-83.0
2023-08-12 14:58:06.535074,-80.0
2023-08-12 14:58:06.542764,-80.0
2023-08-12 14:58:06.550454,-80.0
2023-08-12 14:58:06.558144,-78.0
2023-08-12 14:58:06.565834,-76.0
2023-08-12 14:58:06.573524,-71.0
2023-08-12 14:58:06.581214,-76.0
2023-08-12 14:58:06.588904,-78.0
2023-08-12 14:58:06.596594,-71.0
2023-08-12 14:58:06.604284,-66.0
2023-08-12 14:58:06.611974,-73.0
2023-08-12 14:58:06.619664,-80.0
2023-08-12 14:58:06.627354,-73.0
2023-08-12 14:58:06.635044,-61.0
2023-08-12 14:58:06.642734,-69.0
2023-08-12 14:58:06.650424,-78.0
2023-08-12 14:58:06.658114,-71.0
2023-08-12 14:58:06.665804,-64.0
2023-08-12 14:58:06.673494,-64.0
2023-08-12 14:58:06.681184,-66.0
2023-08-12 14:58:06.688874,-69.0
2023-08-12 14:58:06.696564,-61.0
2023-08-12 14:58:06.704254,-54.0
2023-08-12 14:58:06.711944,-59.0
2023-08-12 14:58:06.719634,-69.0
2023-08-12 14:58:06.727324,-69.0
2023-08-12 14:58:06.735014,-66.0
2023-08-12 14:58:06.742704,-64.0
2023-08-12 14:58:06.750394,-54.0
2023-08-12 14:58:06.758083,-42.0
2023-08-12 14:58:06.765773,-30.0
2023-08-12 14:58:06.773463,-35.0
2023-08-12 14:58:06.781153,-45.0
2023-08-12 14:58:06.788843,-49.0
2023-08-12 14:58:06.796533,-52.0
2023-08-12 14:58:06.804223,-57.0
2023-08-12 14:58:06.811913,-64.0
2023-08-12 14:58:06.819603,-66.0
2023-08-12 14:58:06.827293,-73.0
2023-08-12 14:58:06.834983,-85.0
2023-08-12 14:58:06.842673,-80.0
2023-08-12 14:58:06.850363,-71.0
2023-08-12 14:58:06.858053,-76.0
2023-08-12 14:58:06.865743,-78.0
2023-08-12 14:58:06.873433,-57.0
2023-08-12 14:58:06.881123,52.0
2023-08-12 14:58:06.888813,302.0
2023-08-12 14:58:06.896503,554.0
2023-08-12 14:58:06.904193,504.0
2023-08-12 14:58:06.911883,128.0
2023-08-12 14:58:06.919573,-169.0
2023-08-12 14:58:06.927263,-176.0
2023-08-12 14:58:06.934953,-159.0
2023-08-12 14:58:06.942643,-192.0
2023-08-12 14:58:06.950333,-142.0
2023-08-12 14:58:06.958023,-97.0
2023-08-12 14:58:06.965713,-114.0
2023-08-12 14:58:06.973403,-109.0
2023-08-12 14:58:06.981093,-88.0
2023-08-12 14:58:06.988782,-95.0
2023-08-12 14:58:06.996472,-97.0
2023-08-12 14:58:07.004162,-78.0
2023-08-12 14:58:07.011852,-69.0
2023-08-12 14:58:07.019542,-64.0
2023-08-12 14:58:07.027232,-52.0
2023-08-12 14:58:07.034922,-47.0
2023-08-12 14:58:07.042612,-49.0
2023-08-12 14:58:07.050302,-35.0
2023-08-12 14:58:07.057992,-19.0
2023-08-12 14:58:07.065682,-2.0
2023-08-12 14:58:07.073372,14.0
2023-08-12 14:58:07.081062,28.0
2023-08-12 14:58:07.088752,40.0
2023-08-12 14:58:07.096442,45.0
2023-08-12 14:58:07.104132,54.0
2023-08-12 14:58:07.111822,69.0
2023-08-12 14:58:07.119512,69.0
2023-08-12 14:58:07.127202,59.0
2023-08-12 14:58:07.134892,52.0
2023-08-12 14:58:07.142582,30.0
2023-08-12 14:58:07.150272,4.0
2023-08-12 14:58:07.157962,-19.0
2023-08-12 14:58:07.165652,-57.0
2023-08-12 14:58:07.173342,-95.0
2023-08-12 14:58:07.181032,-126.0
2023-08-12 14:58:07.188722,-149.0
2023-08-12 14:58:07.196412,-159.0
2023-08-12 14:58:07.204102,-154.0
2023-08-12 14:58:07.211791,-159.0
2023-08-12 14:58:07.219481,-164.0
2023-08-12 14:58:07.227171,-161.0
2023-08-12 14:58:07.234861,-157.0
2023-08-12 14:58:07.242551,-147.0
2023-08-12 14:58:07.250241,-138.0
2023-08-12 14:58:07.257931,-130.0
2023-08-12 14:58:07.265621,-126.0
2023-08-12 14:58:07.273311,-126.0
2023-08-12 14:58:07.281001,-128.0
2023-08-12 14:58:07.288691,-119.0
2023-08-12 14:58:07.296381,-104.0
2023-08-12 14:58:07.304071,-97.0
2023-08-12 14:58:07.311761,-99.0
2023-08-12 14:58:07.319451,-102.0
2023-08-12 14:58:07.327141,-97.0
2023-08-12 14:58:07.334831,-90.0
2023-08-12 14:58:07.342521,-88.0
2023-08-12 14:58:07.350211,-85.0
2023-08-12 14:58:07.357901,-83.0
2023-08-12 14:58:07.365591,-85.0
2023-08-12 14:58:07.373281,-88.0
2023-08-12 14:58:07.380971,-83.0
2023-08-12 14:58:07.388661,-76.0
2023-08-12 14:58:07.396351,-78.0
2023-08-12 14:58:07.404041,-83.0
2023-08-12 14:58:07.411731,-85.0
2023-08-12 14:58:07.419421,-78.0
2023-08-12 14:58:07.427111,-71.0
2023-08-12 14:58:07.434800,-73.0
2023-08-12 14:58:07.442490,-76.0
2023-08-12 14:58:07.450180,-76.0
2023-08-12 14:58:07.457870,-73.0
2023-08-12 14:58:07.465560,-66.0
2023-08-12 14:58:07.473250,-69.0
2023-08-12 14:58:07.480940,-71.0
2023-08-12 14:58:07.488630,-66.0
2023-08-12 14:58:07.496320,-66.0
2023-08-12 14:58:07.504010,-71.0
2023-08-12 14:58:07.511700,-64.0
2023-08-12 14:58:07.519390,-57.0
2023-08-12 14:58:07.527080,-57.0
2023-08-12 14:58:07.534770,-57.0
2023-08-12 14:58:07.542460,-52.0
2023-08-12 14:58:07.550150,-49.0
2023-08-12 14:58:07.557840,-45.0
2023-08-12 14:58:07.565530,-45.0
2023-08-12 14:58:07.573220,-38.0
2023-08-12 14:58:07.580910,-21.0
2023-08-12 14:58:07.588600,-21.0
2023-08-12 14:58:07.596290,-35.0
2023-08-12 14:58:07.603980,-42.0
2023-08-12 14:58:07.611670,-40.0
2023-08-12 14:58:07.619360,-45.0
2023-08-12 14:58:07.627050,-57.0
2023-08-12 14:58:07.634740,-73.0
2023-08-12 14:58:07.642430,-88.0
2023-08-12 14:58:07.650120,-88.0
2023-08-12 14:58:07.657809,-78.0
2023-08-12 14:58:07.665499,-76.0
2023-08-12 14:58:07.673189,-73.0
2023-08-12 14:58:07.680879,-73.0
2023-08-12 14:58:07.688569,-80.0
2023-08-12 14:58:07.696259,-30.0
2023-08-12 14:58:07.703949,171.0
2023-08-12 14:58:07.711639,473.0
2023-08-12 14:58:07.719329,606.0
2023-08-12 14:58:07.727019,357.0
2023-08-12 14:58:07.734709,-49.0
2023-08-12 14:58:07.742399,-195.0
2023-08-12 14:58:07.750089,-149.0
2023-08-12 14:58:07.757779,-171.0
2023-08-12 14:58:07.765469,-178.0
2023-08-12 14:58:07.773159,-109.0
2023-08-12 14:58:07.780849,-85.0
2023-08-12 14:58:07.788539,-104.0
2023-08-12 14:58:07.796229,-92.0
2023-08-12 14:58:07.803919,-80.0
2023-08-12 14:58:07.811609,-85.0
2023-08-12 14:58:07.819299,-73.0
2023-08-12 14:58:07.826989,-59.0
2023-08-12 14:58:07.834679,-59.0
2023-08-12 14:58:07.842369,-57.0
2023-08-12 14:58:07.850059,-42.0
2023-08-12 14:58:07.857749,-33.0
2023-08-12 14:58:07.865439,-26.0
2023-08-12 14:58:07.873129,-19.0
2023-08-12 14:58:07.880819,-7.0
2023-08-12 14:58:07.888508,9.0
2023-08-12 14:58:07.896198,23.0
2023-08-12 14:58:07.903888,33.0
2023-08-12 14:58:07.911578,49.0
2023-08-12 14:58:07.919268,71.0
2023-08-12 14:58:07.926958,80.0
2023-08-12 14:58:07.934648,80.0
2023-08-12 14:58:07.942338,88.0
2023-08-12 14:58:07.950028,83.0
2023-08-12 14:58:07.957718,61.0
2023-08-12 14:58:07.965408,42.0
2023-08-12 14:58:07.973098,16.0
2023-08-12 14:58:07.980788,-26.0
2023-08-12 14:58:07.988478,-64.0
2023-08-12 14:58:07.996168,-92.0
2023-08-12 14:58:08.003858,-114.0
2023-08-12 14:58:08.011548,-130.0
2023-08-12 14:58:08.019238,-138.0
2023-08-12 14:58:08.026928,-138.0
2023-08-12 14:58:08.034618,-138.0
2023-08-12 14:58:08.042308,-138.0
2023-08-12 14:58:08.049998,-133.0
2023-08-12 14:58:08.057688,-128.0
2023-08-12 14:58:08.065378,-126.0
2023-08-12 14:58:08.073068,-123.0
2023-08-12 14:58:08.080758,-116.0
2023-08-12 14:58:08.088448,-114.0
2023-08-12 14:58:08.096138,-109.0
2023-08-12 14:58:08.103828,-99.0
2023-08-12 14:58:08.111517,-92.0
2023-08-12 14:58:08.119207,-90.0
2023-08-12 14:58:08.126897,-88.0
2023-08-12 14:58:08.134587,-88.0
2023-08-12 14:58:08.142277,-92.0
2023-08-12 14:58:08.149967,-92.0
2023-08-12 14:58:08.157657,-88.0
2023-08-12 14:58:08.165347,-85.0
2023-08-12 14:58:08.173037,-90.0
2023-08-12 14:58:08.180727,-92.0
2023-08-12 14:58:08.188417,-92.0
2023-08-12 14:58:08.196107,-88.0
2023-08-12 14:58:08.203797,-90.0
2023-08-12 14:58:08.211487,-97.0
2023-08-12 14:58:08.219177,-95.0
2023-08-12 14:58:08.226867,-88.0
2023-08-12 14:58:08.234557,-85.0
2023-08-12 14:58:08.242247,-83.0
2023-08-12 14:58:08.249937,-80.0
2023-08-12 14:58:08.257627,-80.0
2023-08-12 14:58:08.265317,-80.0
2023-08-12 14:58:08.273007,-80.0
2023-08-12 14:58:08.280697,-73.0
2023-08-12 14:58:08.288387,-69.0
2023-08-12 14:58:08.296077,-71.0
2023-08-12 14:58:08.303767,-69.0
2023-08-12 14:58:08.311457,-66.0
2023-08-12 14:58:08.319147,-66.0
2023-08-12 14:58:08.326837,-64.0
2023-08-12 14:58:08.334526,-61.0
2023-08-12 14:58:08.342216,-59.0
2023-08-12 14:58:08.349906,-57.0
2023-08-12 14:58:08.357596,-59.0
2023-08-12 14:58:08.365286,-61.0
2023-08-12 14:58:08.372976,-57.0
2023-08-12 14:58:08.380666,-49.0
2023-08-12 14:58:08.388356,-47.0
2023-08-12 14:58:08.396046,-45.0
2023-08-12 14:58:08.403736,-33.0
2023-08-12 14:58:08.411426,-19.0
2023-08-12 14:58:08.419116,-16.0
2023-08-12 14:58:08.426806,-21.0
2023-08-12 14:58:08.434496,-23.0
2023-08-12 14:58:08.442186,-30.0
2023-08-12 14:58:08.449876,-35.0
2023-08-12 14:58:08.457566,-42.0
2023-08-12 14:58:08.465256,-57.0
2023-08-12 14:58:08.472946,-69.0
2023-08-12 14:58:08.480636,-73.0
2023-08-12 14:58:08.488326,-73.0
2023-08-12 14:58:08.496016,-73.0
2023-08-12 14:58:08.503706,-69.0
2023-08-12 14:58:08.511396,-64.0
2023-08-12 14:58:08.519086,-66.0
2023-08-12 14:58:08.526776,-45.0
2023-08-12 14:58:08.534466,80.0
2023-08-12 14:58:08.542156,335.0
2023-08-12 14:58:08.549846,566.0
2023-08-12 14:58:08.557535,511.0
2023-08-12 14:58:08.565225,149.0
2023-08-12 14:58:08.572915,-149.0
2023-08-12 14:58:08.580605,-178.0
2023-08-12 14:58:08.588295,-152.0
2023-08-12 14:58:08.595985,-159.0
2023-08-12 14:58:08.603675,-109.0
2023-08-12 14:58:08.611365,-83.0
2023-08-12 14:58:08.619055,-104.0
2023-08-12 14:58:08.626745,-92.0
2023-08-12 14:58:08.634435,-71.0
2023-08-12 14:58:08.642125,-83.0
2023-08-12 14:58:08.649815,-85.0
2023-08-12 14:58:08.657505,-71.0
2023-08-12 14:58:08.665195,-69.0
2023-08-12 14:58:08.672885,-64.0
2023-08-12 14:58:08.680575,-45.0
2023-08-12 14:58:08.688265,-38.0
2023-08-12 14:58:08.695955,-35.0
2023-08-12 14:58:08.703645,-28.0
2023-08-12 14:58:08.711335,-21.0
2023-08-12 14:58:08.719025,-19.0
2023-08-12 14:58:08.726715,-7.0
2023-08-12 14:58:08.734405,14.0
2023-08-12 14:58:08.742095,30.0
2023-08-12 14:58:08.749785,40.0
2023-08-12 14:58:08.757475,47.0
2023-08-12 14:58:08.765165,57.0
2023-08-12 14:58:08.772855,64.0
2023-08-12 14:58:08.780545,59.0
2023-08-12 14:58:08.788234,52.0
2023-08-12 14:58:08.795924,38.0
2023-08-12 14:58:08.803614,14.0
2023-08-12 14:58:08.811304,-16.0
2023-08-12 14:58:08.818994,-49.0
2023-08-12 14:58:08.826684,-80.0
2023-08-12 14:58:08.834374,-107.0
2023-08-12 14:58:08.842064,-126.0
2023-08-12 14:58:08.849754,-138.0
2023-08-12 14:58:08.857444,-145.0
2023-08-12 14:58:08.865134,-142.0
2023-08-12 14:58:08.872824,-135.0
2023-08-12 14:58:08.880514,-130.0
2023-08-12 14:58:08.888204,-128.0
2023-08-12 14:58:08.895894,-126.0
2023-08-12 14:58:08.903584,-119.0
2023-08-12 14:58:08.911274,-114.0
2023-08-12 14:58:08.918964,-111.0
2023-08-12 14:58:08.926654,-107.0
2023-08-12 14:58:08.934344,-99.0
2023-08-12 14:58:08.942034,-99.0
2023-08-12 14:58:08.949724,-102.0
2023-08-12 14:58:08.957414,-99.0
2023-08-12 14:58:08.965104,-85.0
2023-08-12 14:58:08.972794,-83.0
2023-08-12 14:58:08.980484,-88.0
2023-08-12 14:58:08.988174,-85.0
2023-08-12 14:58:08.995864,-80.0
2023-08-12 14:58:09.003554,-78.0
2023-08-12 14:58:09.011243,-76.0
2023-08-12 14:58:09.018933,-73.0
2023-08-12 14:58:09.026623,-73.0
2023-08-12 14:58:09.034313,-78.0
2023-08-12 14:58:09.042003,-73.0
2023-08-12 14:58:09.049693,-69.0
2023-08-12 14:58:09.057383,-69.0
2023-08-12 14:58:09.065073,-69.0
2023-08-12 14:58:09.072763,-71.0
2023-08-12 14:58:09.080453,-73.0
2023-08-12 14:58:09.088143,-69.0
2023-08-12 14:58:09.095833,-64.0
2023-08-12 14:58:09.103523,-61.0
2023-08-12 14:58:09.111213,-64.0
2023-08-12 14:58:09.118903,-64.0
2023-08-12 14:58:09.126593,-61.0
2023-08-12 14:58:09.134283,-57.0
2023-08-12 14:58:09.141973,-57.0
2023-08-12 14:58:09.149663,-64.0
2023-08-12 14:58:09.157353,-69.0
2023-08-12 14:58:09.165043,-66.0
2023-08-12 14:58:09.172733,-66.0
2023-08-12 14:58:09.180423,-66.0
2023-08-12 14:58:09.188113,-64.0
2023-08-12 14:58:09.195803,-61.0
2023-08-12 14:58:09.203493,-61.0
2023-08-12 14:58:09.211183,-64.0
2023-08-12 14:58:09.218873,-66.0
2023-08-12 14:58:09.226563,-59.0
2023-08-12 14:58:09.234252,-49.0
2023-08-12 14:58:09.241942,-47.0
2023-08-12 14:58:09.249632,-33.0
2023-08-12 14:58:09.257322,-21.0
2023-08-12 14:58:09.265012,-26.0
2023-08-12 14:58:09.272702,-30.0
2023-08-12 14:58:09.280392,-33.0
2023-08-12 14:58:09.288082,-35.0
2023-08-12 14:58:09.295772,-35.0
2023-08-12 14:58:09.303462,-52.0
2023-08-12 14:58:09.311152,-69.0
2023-08-12 14:58:09.318842,-78.0
2023-08-12 14:58:09.326532,-85.0
2023-08-12 14:58:09.334222,-83.0
2023-08-12 14:58:09.341912,-78.0
2023-08-12 14:58:09.349602,-76.0
2023-08-12 14:58:09.357292,-80.0
2023-08-12 14:58:09.364982,-80.0
2023-08-12 14:58:09.372672,-30.0
2023-08-12 14:58:09.380362,140.0
2023-08-12 14:58:09.388052,407.0
2023-08-12 14:58:09.395742,573.0
2023-08-12 14:58:09.403432,411.0
2023-08-12 14:58:09.411122,26.0
2023-08-12 14:58:09.418812,-183.0
2023-08-12 14:58:09.426502,-164.0
2023-08-12 14:58:09.434192,-159.0
2023-08-12 14:58:09.441882,-157.0
2023-08-12 14:58:09.449572,-104.0
2023-08-12 14:58:09.457261,-90.0
2023-08-12 14:58:09.464951,-107.0
2023-08-12 14:58:09.472641,-95.0
2023-08-12 14:58:09.480331,-83.0
2023-08-12 14:58:09.488021,-88.0
2023-08-12 14:58:09.495711,-85.0
2023-08-12 14:58:09.503401,-71.0
2023-08-12 14:58:09.511091,-64.0
2023-08-12 14:58:09.518781,-59.0
2023-08-12 14:58:09.526471,-49.0
2023-08-12 14:58:09.534161,-40.0
2023-08-12 14:58:09.541851,-33.0
2023-08-12 14:58:09.549541,-26.0
2023-08-12 14:58:09.557231,-14.0
2023-08-12 14:58:09.564921,-2.0
2023-08-12 14:58:09.572611,9.0
2023-08-12 14:58:09.580301,21.0
2023-08-12 14:58:09.587991,35.0
2023-08-12 14:58:09.595681,52.0
2023-08-12 14:58:09.603371,66.0
2023-08-12 14:58:09.611061,69.0
2023-08-12 14:58:09.618751,64.0
2023-08-12 14:58:09.626441,57.0
2023-08-12 14:58:09.634131,47.0
2023-08-12 14:58:09.641821,33.0
2023-08-12 14:58:09.649511,7.0
2023-08-12 14:58:09.657201,-23.0
2023-08-12 14:58:09.664891,-64.0
2023-08-12 14:58:09.672581,-97.0
2023-08-12 14:58:09.680271,-119.0
2023-08-12 14:58:09.687960,-138.0
2023-08-12 14:58:09.695650,-149.0
2023-08-12 14:58:09.703340,-149.0
2023-08-12 14:58:09.711030,-145.0
2023-08-12 14:58:09.718720,-145.0
2023-08-12 14:58:09.726410,-140.0
2023-08-12 14:58:09.734100,-135.0
2023-08-12 14:58:09.741790,-130.0
2023-08-12 14:58:09.749480,-126.0
2023-08-12 14:58:09.757170,-123.0
2023-08-12 14:58:09.764860,-116.0
2023-08-12 14:58:09.772550,-109.0
2023-08-12 14:58:09.780240,-109.0
2023-08-12 14:58:09.787930,-107.0
2023-08-12 14:58:09.795620,-97.0
2023-08-12 14:58:09.803310,-95.0
2023-08-12 14:58:09.811000,-97.0
2023-08-12 14:58:09.818690,-92.0
2023-08-12 14:58:09.826380,-88.0
2023-08-12 14:58:09.834070,-92.0
2023-08-12 14:58:09.841760,-99.0
2023-08-12 14:58:09.849450,-95.0
2023-08-12 14:58:09.857140,-85.0
2023-08-12 14:58:09.864830,-88.0
2023-08-12 14:58:09.872520,-85.0
2023-08-12 14:58:09.880210,-83.0
2023-08-12 14:58:09.887900,-85.0
2023-08-12 14:58:09.895590,-88.0
2023-08-12 14:58:09.903280,-80.0
2023-08-12 14:58:09.910969,-80.0
2023-08-12 14:58:09.918659,-83.0
2023-08-12 14:58:09.926349,-80.0
2023-08-12 14:58:09.934039,-80.0
2023-08-12 14:58:09.941729,-78.0
2023-08-12 14:58:09.949419,-76.0
2023-08-12 14:58:09.957109,-78.0
2023-08-12 14:58:09.964799,-76.0
2023-08-12 14:58:09.972489,-71.0
2023-08-12 14:58:09.980179,-69.0
2023-08-12 14:58:09.987869,-73.0
2023-08-12 14:58:09.995559,-73.0
2023-08-12 14:58:10.003249,-66.0
2023-08-12 14:58:10.010939,-64.0
2023-08-12 14:58:10.018629,-64.0
2023-08-12 14:58:10.026319,-64.0
2023-08-12 14:58:10.034009,-64.0
2023-08-12 14:58:10.041699,-61.0
2023-08-12 14:58:10.049389,-54.0
2023-08-12 14:58:10.057079,-54.0
2023-08-12 14:58:10.064769,-57.0
2023-08-12 14:58:10.072459,-57.0
2023-08-12 14:58:10.080149,-49.0
2023-08-12 14:58:10.087839,-45.0
2023-08-12 14:58:10.095529,-35.0
2023-08-12 14:58:10.103219,-26.0
2023-08-12 14:58:10.110909,-19.0
2023-08-12 14:58:10.118599,-19.0
2023-08-12 14:58:10.126289,-23.0
2023-08-12 14:58:10.133978,-33.0
2023-08-12 14:58:10.141668,-38.0
2023-08-12 14:58:10.149358,-45.0
2023-08-12 14:58:10.157048,-59.0
2023-08-12 14:58:10.164738,-76.0
2023-08-12 14:58:10.172428,-85.0
2023-08-12 14:58:10.180118,-85.0
2023-08-12 14:58:10.187808,-78.0
2023-08-12 14:58:10.195498,-76.0
2023-08-12 14:58:10.203188,-80.0
2023-08-12 14:58:10.210878,-80.0
2023-08-12 14:58:10.218568,-30.0
2023-08-12 14:58:10.226258,138.0
2023-08-12 14:58:10.233948,421.0
2023-08-12 14:58:10.241638,606.0
2023-08-12 14:58:10.249328,430.0
2023-08-12 14:58:10.257018,19.0
2023-08-12 14:58:10.264708,-188.0
2023-08-12 14:58:10.272398,-161.0
2023-08-12 14:58:10.280088,-166.0
2023-08-12 14:58:10.287778,-169.0
2023-08-12 14:58:10.295468,-99.0
2023-08-12 14:58:10.303158,-83.0
2023-08-12 14:58:10.310848,-107.0
2023-08-12 14:58:10.318538,-92.0
2023-08-12 14:58:10.326228,-80.0
2023-08-12 14:58:10.333918,-88.0
2023-08-12 14:58:10.341608,-80.0
2023-08-12 14:58:10.349298,-66.0
2023-08-12 14:58:10.356987,-59.0
2023-08-12 14:58:10.364677,-57.0
2023-08-12 14:58:10.372367,-54.0
2023-08-12 14:58:10.380057,-45.0
2023-08-12 14:58:10.387747,-38.0
2023-08-12 14:58:10.395437,-28.0
2023-08-12 14:58:10.403127,-21.0
2023-08-12 14:58:10.410817,-9.0
2023-08-12 14:58:10.418507,9.0
2023-08-12 14:58:10.426197,23.0
2023-08-12 14:58:10.433887,33.0
2023-08-12 14:58:10.441577,57.0
2023-08-12 14:58:10.449267,71.0
2023-08-12 14:58:10.456957,71.0
2023-08-12 14:58:10.464647,69.0
2023-08-12 14:58:10.472337,61.0
2023-08-12 14:58:10.480027,57.0
2023-08-12 14:58:10.487717,42.0
2023-08-12 14:58:10.495407,9.0
2023-08-12 14:58:10.503097,-28.0
2023-08-12 14:58:10.510787,-54.0
2023-08-12 14:58:10.518477,-88.0
2023-08-12 14:58:10.526167,-114.0
2023-08-12 14:58:10.533857,-126.0
2023-08-12 14:58:10.541547,-138.0
2023-08-12 14:58:10.549237,-147.0
2023-08-12 14:58:10.556927,-147.0
2023-08-12 14:58:10.564617,-145.0
2023-08-12 14:58:10.572307,-140.0
2023-08-12 14:58:10.579997,-133.0
2023-08-12 14:58:10.587686,-128.0
2023-08-12 14:58:10.595376,-126.0
2023-08-12 14:58:10.603066,-121.0
2023-08-12 14:58:10.610756,-119.0
2023-08-12 14:58:10.618446,-111.0
2023-08-12 14:58:10.626136,-102.0
2023-08-12 14:58:10.633826,-99.0
2023-08-12 14:58:10.641516,-97.0
2023-08-12 14:58:10.649206,-90.0
2023-08-12 14:58:10.656896,-90.0
2023-08-12 14:58:10.664586,-95.0
2023-08-12 14:58:10.672276,-95.0
2023-08-12 14:58:10.679966,-95.0
2023-08-12 14:58:10.687656,-92.0
2023-08-12 14:58:10.695346,-92.0
2023-08-12 14:58:10.703036,-92.0
2023-08-12 14:58:10.710726,-92.0
2023-08-12 14:58:10.718416,-88.0
2023-08-12 14:58:10.726106,-83.0
2023-08-12 14:58:10.733796,-85.0
2023-08-12 14:58:10.741486,-90.0
2023-08-12 14:58:10.749176,-85.0
2023-08-12 14:58:10.756866,-80.0
2023-08-12 14:58:10.764556,-78.0
2023-08-12 14:58:10.772246,-78.0
2023-08-12 14:58:10.779936,-80.0
2023-08-12 14:58:10.787626,-83.0
2023-08-12 14:58:10.795316,-78.0
2023-08-12 14:58:10.803006,-69.0
2023-08-12 14:58:10.810695,-69.0
2023-08-12 14:58:10.818385,-73.0
2023-08-12 14:58:10.826075,-69.0
2023-08-12 14:58:10.833765,-69.0
2023-08-12 14:58:10.841455,-66.0
2023-08-12 14:58:10.849145,-61.0
2023-08-12 14:58:10.856835,-61.0
2023-08-12 14:58:10.864525,-64.0
2023-08-12 14:58:10.872215,-61.0
2023-08-12 14:58:10.879905,-61.0
2023-08-12 14:58:10.887595,-59.0
2023-08-12 14:58:10.895285,-54.0
2023-08-12 14:58:10.902975,-49.0
2023-08-12 14:58:10.910665,-45.0
2023-08-12 14:58:10.918355,-35.0
2023-08-12 14:58:10.926045,-23.0
2023-08-12 14:58:10.933735,-21.0
2023-08-12 14:58:10.941425,-26.0
2023-08-12 14:58:10.949115,-28.0
2023-08-12 14:58:10.956805,-33.0
2023-08-12 14:58:10.964495,-45.0
2023-08-12 14:58:10.972185,-64.0
2023-08-12 14:58:10.979875,-71.0
2023-08-12 14:58:10.987565,-78.0
2023-08-12 14:58:10.995255,-88.0
2023-08-12 14:58:11.002945,-83.0
2023-08-12 14:58:11.010635,-83.0
2023-08-12 14:58:11.018325,-88.0
2023-08-12 14:58:11.026015,-85.0
2023-08-12 14:58:11.033704,-80.0
2023-08-12 14:58:11.041394,-9.0
2023-08-12 14:58:11.049084,216.0
2023-08-12 14:58:11.056774,507.0
2023-08-12 14:58:11.064464,583.0
2023-08-12 14:58:11.072154,295.0
2023-08-12 14:58:11.079844,-83.0
2023-08-12 14:58:11.087534,-197.0
2023-08-12 14:58:11.095224,-157.0
2023-08-12 14:58:11.102914,-178.0
2023-08-12 14:58:11.110604,-164.0
2023-08-12 14:58:11.118294,-99.0
2023-08-12 14:58:11.125984,-99.0
2023-08-12 14:58:11.133674,-119.0
2023-08-12 14:58:11.141364,-99.0
2023-08-12 14:58:11.149054,-88.0
2023-08-12 14:58:11.156744,-90.0
2023-08-12 14:58:11.164434,-85.0
2023-08-12 14:58:11.172124,-80.0
2023-08-12 14:58:11.179814,-76.0
2023-08-12 14:58:11.187504,-66.0
2023-08-12 14:58:11.195194,-57.0
2023-08-12 14:58:11.202884,-49.0
2023-08-12 14:58:11.210574,-38.0
2023-08-12 14:58:11.218264,-28.0
2023-08-12 14:58:11.225954,-19.0
2023-08-12 14:58:11.233644,-4.0
2023-08-12 14:58:11.241334,9.0
2023-08-12 14:58:11.249024,23.0
2023-08-12 14:58:11.256713,38.0
2023-08-12 14:58:11.264403,54.0
2023-08-12 14:58:11.272093,66.0
2023-08-12 14:58:11.279783,69.0
2023-08-12 14:58:11.287473,66.0
2023-08-12 14:58:11.295163,61.0
2023-08-12 14:58:11.302853,49.0
2023-08-12 14:58:11.310543,28.0
2023-08-12 14:58:11.318233,0.0
2023-08-12 14:58:11.325923,-35.0
2023-08-12 14:58:11.333613,-69.0
2023-08-12 14:58:11.341303,-97.0
2023-08-12 14:58:11.348993,-116.0
2023-08-12 14:58:11.356683,-128.0
2023-08-12 14:58:11.364373,-135.0
2023-08-12 14:58:11.372063,-140.0
2023-08-12 14:58:11.379753,-142.0
2023-08-12 14:58:11.387443,-138.0
2023-08-12 14:58:11.395133,-128.0
2023-08-12 14:58:11.402823,-123.0
2023-08-12 14:58:11.410513,-126.0
2023-08-12 14:58:11.418203,-126.0
2023-08-12 14:58:11.425893,-119.0
2023-08-12 14:58:11.433583,-109.0
2023-08-12 14:58:11.441273,-104.0
2023-08-12 14:58:11.448963,-99.0
2023-08-12 14:58:11.456653,-99.0
2023-08-12 14:58:11.464343,-97.0
2023-08-12 14:58:11.472033,-92.0
2023-08-12 14:58:11.479723,-90.0
2023-08-12 14:58:11.487412,-88.0
2023-08-12 14:58:11.495102,-83.0
2023-08-12 14:58:11.502792,-88.0
2023-08-12 14:58:11.510482,-95.0
2023-08-12 14:58:11.518172,-90.0
2023-08-12 14:58:11.525862,-85.0
2023-08-12 14:58:11.533552,-85.0
2023-08-12 14:58:11.541242,-85.0
2023-08-12 14:58:11.548932,-83.0
2023-08-12 14:58:11.556622,-83.0
2023-08-12 14:58:11.564312,-85.0
2023-08-12 14:58:11.572002,-78.0
2023-08-12 14:58:11.579692,-69.0
2023-08-12 14:58:11.587382,-73.0
2023-08-12 14:58:11.595072,-80.0
2023-08-12 14:58:11.602762,-73.0
2023-08-12 14:58:11.610452,-71.0
2023-08-12 14:58:11.618142,-71.0
2023-08-12 14:58:11.625832,-69.0
2023-08-12 14:58:11.633522,-64.0
2023-08-12 14:58:11.641212,-64.0
2023-08-12 14:58:11.648902,-69.0
2023-08-12 14:58:11.656592,-71.0
2023-08-12 14:58:11.664282,-69.0
2023-08-12 14:58:11.671972,-66.0
2023-08-12 14:58:11.679662,-71.0
2023-08-12 14:58:11.687352,-73.0
2023-08-12 14:58:11.695042,-69.0
2023-08-12 14:58:11.702732,-69.0
2023-08-12 14:58:11.710421,-71.0
2023-08-12 14:58:11.718111,-66.0
2023-08-12 14:58:11.725801,-61.0
2023-08-12 14:58:11.733491,-66.0
2023-08-12 14:58:11.741181,-64.0
2023-08-12 14:58:11.748871,-54.0
2023-08-12 14:58:11.756561,-49.0
2023-08-12 14:58:11.764251,-45.0
2023-08-12 14:58:11.771941,-30.0
2023-08-12 14:58:11.779631,-26.0
2023-08-12 14:58:11.787321,-21.0
2023-08-12 14:58:11.795011,-21.0
2023-08-12 14:58:11.802701,-30.0
2023-08-12 14:58:11.810391,-38.0
2023-08-12 14:58:11.818081,-42.0
2023-08-12 14:58:11.825771,-54.0
2023-08-12 14:58:11.833461,-69.0
2023-08-12 14:58:11.841151,-78.0
2023-08-12 14:58:11.848841,-76.0
2023-08-12 14:58:11.856531,-66.0
2023-08-12 14:58:11.864221,-64.0
2023-08-12 14:58:11.871911,-71.0
2023-08-12 14:58:11.879601,-73.0
2023-08-12 14:58:11.887291,-49.0
2023-08-12 14:58:11.894981,66.0
2023-08-12 14:58:11.902671,311.0
2023-08-12 14:58:11.910361,549.0
2023-08-12 14:58:11.918051,526.0
2023-08-12 14:58:11.925741,183.0
2023-08-12 14:58:11.933430,-135.0
2023-08-12 14:58:11.941120,-183.0
2023-08-12 14:58:11.948810,-149.0
2023-08-12 14:58:11.956500,-161.0
2023-08-12 14:58:11.964190,-128.0
2023-08-12 14:58:11.971880,-95.0
2023-08-12 14:58:11.979570,-107.0
2023-08-12 14:58:11.987260,-107.0
2023-08-12 14:58:11.994950,-88.0
2023-08-12 14:58:12.002640,-88.0
2023-08-12 14:58:12.010330,-88.0
2023-08-12 14:58:12.018020,-73.0
2023-08-12 14:58:12.025710,-64.0
2023-08-12 14:58:12.033400,-59.0
2023-08-12 14:58:12.041090,-52.0
2023-08-12 14:58:12.048780,-47.0
2023-08-12 14:58:12.056470,-42.0
2023-08-12 14:58:12.064160,-30.0
2023-08-12 14:58:12.071850,-21.0
2023-08-12 14:58:12.079540,-9.0
2023-08-12 14:58:12.087230,-2.0
2023-08-12 14:58:12.094920,7.0
2023-08-12 14:58:12.102610,19.0
2023-08-12 14:58:12.110300,33.0
2023-08-12 14:58:12.117990,42.0
2023-08-12 14:58:12.125680,49.0
2023-08-12 14:58:12.133370,52.0
2023-08-12 14:58:12.141060,45.0
2023-08-12 14:58:12.148750,35.0
2023-08-12 14:58:12.156439,21.0
2023-08-12 14:58:12.164129,2.0
2023-08-12 14:58:12.171819,-23.0
2023-08-12 14:58:12.179509,-59.0
2023-08-12 14:58:12.187199,-92.0
2023-08-12 14:58:12.194889,-116.0
2023-08-12 14:58:12.202579,-130.0
2023-08-12 14:58:12.210269,-140.0
2023-08-12 14:58:12.217959,-147.0
2023-08-12 14:58:12.225649,-147.0
2023-08-12 14:58:12.233339,-142.0
2023-08-12 14:58:12.241029,-135.0
2023-08-12 14:58:12.248719,-133.0
2023-08-12 14:58:12.256409,-130.0
2023-08-12 14:58:12.264099,-126.0
2023-08-12 14:58:12.271789,-121.0
2023-08-12 14:58:12.279479,-116.0
2023-08-12 14:58:12.287169,-111.0
2023-08-12 14:58:12.294859,-107.0
2023-08-12 14:58:12.302549,-102.0
2023-08-12 14:58:12.310239,-99.0
2023-08-12 14:58:12.317929,-99.0
2023-08-12 14:58:12.325619,-97.0
2023-08-12 14:58:12.333309,-92.0
2023-08-12 14:58:12.340999,-88.0
2023-08-12 14:58:12.348689,-83.0
2023-08-12 14:58:12.356379,-88.0
2023-08-12 14:58:12.364069,-88.0
2023-08-12 14:58:12.371759,-85.0
2023-08-12 14:58:12.379449,-78.0
2023-08-12 14:58:12.387138,-78.0
2023-08-12 14:58:12.394828,-80.0
2023-08-12 14:58:12.402518,-83.0
2023-08-12 14:58:12.410208,-80.0
2023-08-12 14:58:12.417898,-78.0
2023-08-12 14:58:12.425588,-76.0
2023-08-12 14:58:12.433278,-76.0
2023-08-12 14:58:12.440968,-76.0
2023-08-12 14:58:12.448658,-73.0
2023-08-12 14:58:12.456348,-73.0
2023-08-12 14:58:12.464038,-76.0
2023-08-12 14:58:12.471728,-73.0
2023-08-12 14:58:12.479418,-69.0
2023-08-12 14:58:12.487108,-69.0
2023-08-12 14:58:12.494798,-69.0
2023-08-12 14:58:12.502488,-69.0
2023-08-12 14:58:12.510178,-66.0
2023-08-12 14:58:12.517868,-64.0
2023-08-12 14:58:12.525558,-64.0
2023-08-12 14:58:12.533248,-64.0
2023-08-12 14:58:12.540938,-64.0
2023-08-12 14:58:12.548628,-61.0
2023-08-12 14:58:12.556318,-59.0
2023-08-12 14:58:12.564008,-59.0
2023-08-12 14:58:12.571698,-59.0
2023-08-12 14:58:12.579388,-59.0
2023-08-12 14:58:12.587078,-61.0
2023-08-12 14:58:12.594768,-66.0
2023-08-12 14:58:12.602458,-59.0
2023-08-12 14:58:12.610147,-52.0
2023-08-12 14:58:12.617837,-49.0
2023-08-12 14:58:12.625527,-49.0
2023-08-12 14:58:12.633217,-54.0
2023-08-12 14:58:12.640907,-49.0
2023-08-12 14:58:12.648597,-42.0
2023-08-12 14:58:12.656287,-35.0
2023-08-12 14:58:12.663977,-35.0
2023-08-12 14:58:12.671667,-45.0
2023-08-12 14:58:12.679357,-52.0
2023-08-12 14:58:12.687047,-52.0
2023-08-12 14:58:12.694737,-57.0
2023-08-12 14:58:12.702427,-71.0
2023-08-12 14:58:12.710117,-83.0
2023-08-12 14:58:12.717807,-92.0
2023-08-12 14:58:12.725497,-90.0
2023-08-12 14:58:12.733187,-80.0
2023-08-12 14:58:12.740877,-78.0
2023-08-12 14:58:12.748567,-78.0
2023-08-12 14:58:12.756257,-78.0
2023-08-12 14:58:12.763947,-26.0
2023-08-12 14:58:12.771637,157.0
2023-08-12 14:58:12.779327,423.0
2023-08-12 14:58:12.787017,554.0
2023-08-12 14:58:12.794707,352.0
2023-08-12 14:58:12.802397,-28.0
2023-08-12 14:58:12.810087,-204.0
2023-08-12 14:58:12.817777,-171.0
2023-08-12 14:58:12.825467,-171.0
2023-08-12 14:58:12.833156,-169.0
2023-08-12 14:58:12.840846,-119.0
2023-08-12 14:58:12.848536,-109.0
2023-08-12 14:58:12.856226,-126.0
2023-08-12 14:58:12.863916,-114.0
2023-08-12 14:58:12.871606,-97.0
2023-08-12 14:58:12.879296,-97.0
2023-08-12 14:58:12.886986,-90.0
2023-08-12 14:58:12.894676,-80.0
2023-08-12 14:58:12.902366,-78.0
2023-08-12 14:58:12.910056,-73.0
2023-08-12 14:58:12.917746,-59.0
2023-08-12 14:58:12.925436,-52.0
2023-08-12 14:58:12.933126,-49.0
2023-08-12 14:58:12.940816,-38.0
2023-08-12 14:58:12.948506,-23.0
2023-08-12 14:58:12.956196,-14.0
2023-08-12 14:58:12.963886,0.0
2023-08-12 14:58:12.971576,16.0
2023-08-12 14:58:12.979266,30.0
2023-08-12 14:58:12.986956,42.0
2023-08-12 14:58:12.994646,47.0
2023-08-12 14:58:13.002336,54.0
2023-08-12 14:58:13.010026,61.0
2023-08-12 14:58:13.017716,54.0
2023-08-12 14:58:13.025406,38.0
2023-08-12 14:58:13.033096,21.0
2023-08-12 14:58:13.040786,-4.0
2023-08-12 14:58:13.048476,-38.0
2023-08-12 14:58:13.056165,-69.0
2023-08-12 14:58:13.063855,-95.0
2023-08-12 14:58:13.071545,-116.0
2023-08-12 14:58:13.079235,-133.0
2023-08-12 14:58:13.086925,-145.0
2023-08-12 14:58:13.094615,-145.0
2023-08-12 14:58:13.102305,-140.0
2023-08-12 14:58:13.109995,-142.0
2023-08-12 14:58:13.117685,-138.0
2023-08-12 14:58:13.125375,-130.0
2023-08-12 14:58:13.133065,-123.0
2023-08-12 14:58:13.140755,-121.0
2023-08-12 14:58:13.148445,-116.0
2023-08-12 14:58:13.156135,-116.0
2023-08-12 14:58:13.163825,-116.0
2023-08-12 14:58:13.171515,-114.0
2023-08-12 14:58:13.179205,-104.0
2023-08-12 14:58:13.186895,-104.0
2023-08-12 14:58:13.194585,-109.0
2023-08-12 14:58:13.202275,-104.0
2023-08-12 14:58:13.209965,-104.0
2023-08-12 14:58:13.217655,-109.0
2023-08-12 14:58:13.225345,-109.0
2023-08-12 14:58:13.233035,-104.0
2023-08-12 14:58:13.240725,-104.0
2023-08-12 14:58:13.248415,-99.0
2023-08-12 14:58:13.256105,-99.0
2023-08-12 14:58:13.263795,-102.0
2023-08-12 14:58:13.271485,-99.0
2023-08-12 14:58:13.279175,-92.0
2023-08-12 14:58:13.286864,-90.0
2023-08-12 14:58:13.294554,-92.0
2023-08-12 14:58:13.302244,-90.0
2023-08-12 14:58:13.309934,-88.0
2023-08-12 14:58:13.317624,-88.0
2023-08-12 14:58:13.325314,-85.0
2023-08-12 14:58:13.333004,-80.0
2023-08-12 14:58:13.340694,-80.0
2023-08-12 14:58:13.348384,-83.0
2023-08-12 14:58:13.356074,-80.0
2023-08-12 14:58:13.363764,-73.0
2023-08-12 14:58:13.371454,-73.0
2023-08-12 14:58:13.379144,-80.0
2023-08-12 14:58:13.386834,-83.0
2023-08-12 14:58:13.394524,-76.0
2023-08-12 14:58:13.402214,-73.0
2023-08-12 14:58:13.409904,-76.0
2023-08-12 14:58:13.417594,-76.0
2023-08-12 14:58:13.425284,-69.0
2023-08-12 14:58:13.432974,-64.0
2023-08-12 14:58:13.440664,-71.0
2023-08-12 14:58:13.448354,-73.0
2023-08-12 14:58:13.456044,-64.0
2023-08-12 14:58:13.463734,-57.0
2023-08-12 14:58:13.471424,-57.0
2023-08-12 14:58:13.479114,-57.0
2023-08-12 14:58:13.486804,-42.0
2023-08-12 14:58:13.494494,-30.0
2023-08-12 14:58:13.502184,-30.0
2023-08-12 14:58:13.509873,-35.0
2023-08-12 14:58:13.517563,-42.0
2023-08-12 14:58:13.525253,-49.0
2023-08-12 14:58:13.532943,-49.0
2023-08-12 14:58:13.540633,-52.0
2023-08-12 14:58:13.548323,-66.0
2023-08-12 14:58:13.556013,-80.0
2023-08-12 14:58:13.563703,-83.0
2023-08-12 14:58:13.571393,-78.0
2023-08-12 14:58:13.579083,-73.0
2023-08-12 14:58:13.586773,-69.0
2023-08-12 14:58:13.594463,-73.0
2023-08-12 14:58:13.602153,-73.0
2023-08-12 14:58:13.609843,-7.0
2023-08-12 14:58:13.617533,204.0
2023-08-12 14:58:13.625223,497.0
2023-08-12 14:58:13.632913,599.0
2023-08-12 14:58:13.640603,311.0
2023-08-12 14:58:13.648293,-92.0
2023-08-12 14:58:13.655983,-207.0
2023-08-12 14:58:13.663673,-159.0
2023-08-12 14:58:13.671363,-185.0
2023-08-12 14:58:13.679053,-173.0
2023-08-12 14:58:13.686743,-104.0
2023-08-12 14:58:13.694433,-104.0
2023-08-12 14:58:13.702123,-126.0
2023-08-12 14:58:13.709813,-109.0
2023-08-12 14:58:13.717503,-97.0
2023-08-12 14:58:13.725193,-99.0
2023-08-12 14:58:13.732882,-88.0
2023-08-12 14:58:13.740572,-76.0
2023-08-12 14:58:13.748262,-76.0
2023-08-12 14:58:13.755952,-76.0
2023-08-12 14:58:13.763642,-69.0
2023-08-12 14:58:13.771332,-57.0
2023-08-12 14:58:13.779022,-49.0
2023-08-12 14:58:13.786712,-35.0
2023-08-12 14:58:13.794402,-19.0
2023-08-12 14:58:13.802092,-11.0
2023-08-12 14:58:13.809782,0.0
2023-08-12 14:58:13.817472,23.0
2023-08-12 14:58:13.825162,40.0
2023-08-12 14:58:13.832852,45.0
2023-08-12 14:58:13.840542,54.0
2023-08-12 14:58:13.848232,66.0
2023-08-12 14:58:13.855922,64.0
2023-08-12 14:58:13.863612,52.0
2023-08-12 14:58:13.871302,40.0
2023-08-12 14:58:13.878992,16.0
2023-08-12 14:58:13.886682,-14.0
2023-08-12 14:58:13.894372,-42.0
2023-08-12 14:58:13.902062,-73.0
2023-08-12 14:58:13.909752,-102.0
2023-08-12 14:58:13.917442,-121.0
2023-08-12 14:58:13.925132,-138.0
2023-08-12 14:58:13.932822,-149.0
2023-08-12 14:58:13.940512,-149.0
2023-08-12 14:58:13.948202,-147.0
2023-08-12 14:58:13.955891,-142.0
2023-08-12 14:58:13.963581,-140.0
2023-08-12 14:58:13.971271,-133.0
2023-08-12 14:58:13.978961,-128.0
2023-08-12 14:58:13.986651,-128.0
2023-08-12 14:58:13.994341,-123.0
2023-08-12 14:58:14.002031,-114.0
2023-08-12 14:58:14.009721,-111.0
2023-08-12 14:58:14.017411,-107.0
2023-08-12 14:58:14.025101,-99.0
2023-08-12 14:58:14.032791,-95.0
2023-08-12 14:58:14.040481,-92.0
2023-08-12 14:58:14.048171,-90.0
2023-08-12 14:58:14.055861,-85.0
2023-08-12 14:58:14.063551,-85.0
2023-08-12 14:58:14.071241,-88.0
2023-08-12 14:58:14.078931,-88.0
2023-08-12 14:58:14.086621,-83.0
2023-08-12 14:58:14.094311,-78.0
2023-08-12 14:58:14.102001,-78.0
2023-08-12 14:58:14.109691,-80.0
2023-08-12 14:58:14.117381,-83.0
2023-08-12 14:58:14.125071,-85.0
2023-08-12 14:58:14.132761,-83.0
2023-08-12 14:58:14.140451,-78.0
2023-08-12 14:58:14.148141,-80.0
2023-08-12 14:58:14.155831,-83.0
2023-08-12 14:58:14.163521,-80.0
2023-08-12 14:58:14.171211,-73.0
2023-08-12 14:58:14.178901,-73.0
2023-08-12 14:58:14.186590,-73.0
2023-08-12 14:58:14.194280,-76.0
2023-08-12 14:58:14.201970,-76.0
2023-08-12 14:58:14.209660,-78.0
2023-08-12 14:58:14.217350,-76.0
2023-08-12 14:58:14.225040,-71.0
2023-08-12 14:58:14.232730,-71.0
2023-08-12 14:58:14.240420,-73.0
2023-08-12 14:58:14.248110,-73.0
2023-08-12 14:58:14.255800,-73.0
2023-08-12 14:58:14.263490,-71.0
2023-08-12 14:58:14.271180,-66.0
2023-08-12 14:58:14.278870,-64.0
2023-08-12 14:58:14.286560,-69.0
2023-08-12 14:58:14.294250,-73.0
2023-08-12 14:58:14.301940,-64.0
2023-08-12 14:58:14.309630,-54.0
2023-08-12 14:58:14.317320,-54.0
2023-08-12 14:58:14.325010,-49.0
2023-08-12 14:58:14.332700,-35.0
2023-08-12 14:58:14.340390,-38.0
2023-08-12 14:58:14.348080,-49.0
2023-08-12 14:58:14.355770,-47.0
2023-08-12 14:58:14.363460,-52.0
2023-08-12 14:58:14.371150,-61.0
2023-08-12 14:58:14.378840,-66.0
2023-08-12 14:58:14.386530,-83.0
2023-08-12 14:58:14.394220,-97.0
2023-08-12 14:58:14.401910,-99.0
2023-08-12 14:58:14.409599,-102.0
2023-08-12 14:58:14.417289,-95.0
2023-08-12 14:58:14.424979,-85.0
2023-08-12 14:58:14.432669,-90.0
2023-08-12 14:58:14.440359,-95.0
2023-08-12 14:58:14.448049,-80.0
2023-08-12 14:58:14.455739,14.0
2023-08-12 14:58:14.463429,240.0
2023-08-12 14:58:14.471119,495.0
2023-08-12 14:58:14.478809,516.0
2023-08-12 14:58:14.486499,204.0
2023-08-12 14:58:14.494189,-133.0
2023-08-12 14:58:14.501879,-207.0
2023-08-12 14:58:14.509569,-169.0
2023-08-12 14:58:14.517259,-185.0
2023-08-12 14:58:14.524949,-157.0
2023-08-12 14:58:14.532639,-107.0
2023-08-12 14:58:14.540329,-114.0
2023-08-12 14:58:14.548019,-121.0
2023-08-12 14:58:14.555709,-104.0
2023-08-12 14:58:14.563399,-95.0
2023-08-12 14:58:14.571089,-97.0
2023-08-12 14:58:14.578779,-88.0
2023-08-12 14:58:14.586469,-76.0
2023-08-12 14:58:14.594159,-69.0
2023-08-12 14:58:14.601849,-61.0
2023-08-12 14:58:14.609539,-54.0
2023-08-12 14:58:14.617229,-47.0
2023-08-12 14:58:14.624919,-38.0
2023-08-12 14:58:14.632608,-26.0
2023-08-12 14:58:14.640298,-14.0
2023-08-12 14:58:14.647988,-4.0
2023-08-12 14:58:14.655678,7.0
2023-08-12 14:58:14.663368,21.0
2023-08-12 14:58:14.671058,35.0
2023-08-12 14:58:14.678748,45.0
2023-08-12 14:58:14.686438,57.0
2023-08-12 14:58:14.694128,64.0
2023-08-12 14:58:14.701818,57.0
2023-08-12 14:58:14.709508,47.0
2023-08-12 14:58:14.717198,33.0
2023-08-12 14:58:14.724888,4.0
2023-08-12 14:58:14.732578,-21.0
2023-08-12 14:58:14.740268,-45.0
2023-08-12 14:58:14.747958,-83.0
2023-08-12 14:58:14.755648,-109.0
2023-08-12 14:58:14.763338,-119.0
2023-08-12 14:58:14.771028,-128.0
2023-08-12 14:58:14.778718,-138.0
2023-08-12 14:58:14.786408,-140.0
2023-08-12 14:58:14.794098,-135.0
2023-08-12 14:58:14.801788,-133.0
2023-08-12 14:58:14.809478,-130.0
2023-08-12 14:58:14.817168,-123.0
2023-08-12 14:58:14.824858,-119.0
2023-08-12 14:58:14.832548,-116.0
2023-08-12 14:58:14.840238,-114.0
2023-08-12 14:58:14.847928,-109.0
2023-08-12 14:58:14.855617,-107.0
2023-08-12 14:58:14.863307,-102.0
2023-08-12 14:58:14.870997,-99.0
2023-08-12 14:58:14.878687,-104.0
2023-08-12 14:58:14.886377,-109.0
2023-08-12 14:58:14.894067,-104.0
2023-08-12 14:58:14.901757,-97.0
2023-08-12 14:58:14.909447,-95.0
2023-08-12 14:58:14.917137,-92.0
2023-08-12 14:58:14.924827,-88.0
2023-08-12 14:58:14.932517,-88.0
2023-08-12 14:58:14.940207,-88.0
2023-08-12 14:58:14.947897,-85.0
2023-08-12 14:58:14.955587,-85.0
2023-08-12 14:58:14.963277,-85.0
2023-08-12 14:58:14.970967,-83.0
2023-08-12 14:58:14.978657,-80.0
2023-08-12 14:58:14.986347,-78.0
2023-08-12 14:58:14.994037,-76.0
2023-08-12 14:58:15.001727,-73.0
2023-08-12 14:58:15.009417,-73.0
2023-08-12 14:58:15.017107,-76.0
2023-08-12 14:58:15.024797,-71.0
2023-08-12 14:58:15.032487,-69.0
2023-08-12 14:58:15.040177,-73.0
2023-08-12 14:58:15.047867,-71.0
2023-08-12 14:58:15.055557,-66.0
2023-08-12 14:58:15.063247,-71.0
2023-08-12 14:58:15.070937,-71.0
2023-08-12 14:58:15.078627,-64.0
2023-08-12 14:58:15.086316,-59.0
2023-08-12 14:58:15.094006,-61.0
2023-08-12 14:58:15.101696,-66.0
2023-08-12 14:58:15.109386,-61.0
2023-08-12 14:58:15.117076,-61.0
2023-08-12 14:58:15.124766,-61.0
2023-08-12 14:58:15.132456,-59.0
2023-08-12 14:58:15.140146,-59.0
2023-08-12 14:58:15.147836,-66.0
2023-08-12 14:58:15.155526,-69.0
2023-08-12 14:58:15.163216,-64.0
2023-08-12 14:58:15.170906,-64.0
2023-08-12 14:58:15.178596,-61.0
2023-08-12 14:58:15.186286,-54.0
2023-08-12 14:58:15.193976,-49.0
2023-08-12 14:58:15.201666,-42.0
2023-08-12 14:58:15.209356,-30.0
2023-08-12 14:58:15.217046,-23.0
2023-08-12 14:58:15.224736,-30.0
2023-08-12 14:58:15.232426,-40.0
2023-08-12 14:58:15.240116,-40.0
2023-08-12 14:58:15.247806,-40.0
2023-08-12 14:58:15.255496,-52.0
2023-08-12 14:58:15.263186,-64.0
2023-08-12 14:58:15.270876,-71.0
2023-08-12 14:58:15.278566,-78.0
2023-08-12 14:58:15.286256,-80.0
2023-08-12 14:58:15.293946,-73.0
2023-08-12 14:58:15.301636,-69.0
2023-08-12 14:58:15.309325,-69.0
2023-08-12 14:58:15.317015,-76.0
2023-08-12 14:58:15.324705,-47.0
2023-08-12 14:58:15.332395,90.0
2023-08-12 14:58:15.340085,345.0
2023-08-12 14:58:15.347775,535.0
2023-08-12 14:58:15.355465,423.0
2023-08-12 14:58:15.363155,59.0
2023-08-12 14:58:15.370845,-183.0
2023-08-12 14:58:15.378535,-188.0
2023-08-12 14:58:15.386225,-171.0
2023-08-12 14:58:15.393915,-169.0
2023-08-12 14:58:15.401605,-121.0
2023-08-12 14:58:15.409295,-104.0
2023-08-12 14:58:15.416985,-119.0
2023-08-12 14:58:15.424675,-109.0
2023-08-12 14:58:15.432365,-95.0
2023-08-12 14:58:15.440055,-90.0
2023-08-12 14:58:15.447745,-80.0
2023-08-12 14:58:15.455435,-71.0
2023-08-12 14:58:15.463125,-73.0
2023-08-12 14:58:15.470815,-76.0
2023-08-12 14:58:15.478505,-64.0
2023-08-12 14:58:15.486195,-52.0
2023-08-12 14:58:15.493885,-45.0
2023-08-12 14:58:15.501575,-35.0
2023-08-12 14:58:15.509265,-30.0
2023-08-12 14:58:15.516955,-26.0
2023-08-12 14:58:15.524645,-9.0
2023-08-12 14:58:15.532334,11.0
2023-08-12 14:58:15.540024,21.0
2023-08-12 14:58:15.547714,30.0
2023-08-12 14:58:15.555404,38.0
2023-08-12 14:58:15.563094,38.0
2023-08-12 14:58:15.570784,38.0
2023-08-12 14:58:15.578474,38.0
2023-08-12 14:58:15.586164,28.0
2023-08-12 14:58:15.593854,11.0
2023-08-12 14:58:15.601544,-11.0
2023-08-12 14:58:15.609234,-35.0
2023-08-12 14:58:15.616924,-57.0
2023-08-12 14:58:15.624614,-88.0
2023-08-12 14:58:15.632304,-114.0
2023-08-12 14:58:15.639994,-126.0
2023-08-12 14:58:15.647684,-138.0
2023-08-12 14:58:15.655374,-140.0
2023-08-12 14:58:15.663064,-135.0
2023-08-12 14:58:15.670754,-135.0
2023-08-12 14:58:15.678444,-133.0
2023-08-12 14:58:15.686134,-123.0
2023-08-12 14:58:15.693824,-116.0
2023-08-12 14:58:15.701514,-119.0
2023-08-12 14:58:15.709204,-114.0
2023-08-12 14:58:15.716894,-109.0
2023-08-12 14:58:15.724584,-107.0
2023-08-12 14:58:15.732274,-109.0
2023-08-12 14:58:15.739964,-104.0
2023-08-12 14:58:15.747654,-97.0
2023-08-12 14:58:15.755343,-97.0
2023-08-12 14:58:15.763033,-95.0
2023-08-12 14:58:15.770723,-85.0
2023-08-12 14:58:15.778413,-83.0
2023-08-12 14:58:15.786103,-85.0
2023-08-12 14:58:15.793793,-80.0
2023-08-12 14:58:15.801483,-78.0
2023-08-12 14:58:15.809173,-80.0
2023-08-12 14:58:15.816863,-80.0
2023-08-12 14:58:15.824553,-80.0
2023-08-12 14:58:15.832243,-78.0
2023-08-12 14:58:15.839933,-76.0
2023-08-12 14:58:15.847623,-76.0
2023-08-12 14:58:15.855313,-76.0
2023-08-12 14:58:15.863003,-71.0
2023-08-12 14:58:15.870693,-73.0
2023-08-12 14:58:15.878383,-76.0
2023-08-12 14:58:15.886073,-73.0
2023-08-12 14:58:15.893763,-69.0
2023-08-12 14:58:15.901453,-69.0
2023-08-12 14:58:15.909143,-69.0
2023-08-12 14:58:15.916833,-69.0
2023-08-12 14:58:15.924523,-66.0
2023-08-12 14:58:15.932213,-61.0
2023-08-12 14:58:15.939903,-59.0
2023-08-12 14:58:15.947593,-64.0
2023-08-12 14:58:15.955283,-64.0
2023-08-12 14:58:15.962973,-61.0
2023-08-12 14:58:15.970663,-61.0
2023-08-12 14:58:15.978353,-54.0
2023-08-12 14:58:15.986042,-54.0
2023-08-12 14:58:15.993732,-61.0
2023-08-12 14:58:16.001422,-64.0
2023-08-12 14:58:16.009112,-66.0
2023-08-12 14:58:16.016802,-66.0
2023-08-12 14:58:16.024492,-69.0
2023-08-12 14:58:16.032182,-69.0
2023-08-12 14:58:16.039872,-64.0
2023-08-12 14:58:16.047562,-61.0
2023-08-12 14:58:16.055252,-59.0
2023-08-12 14:58:16.062942,-57.0
2023-08-12 14:58:16.070632,-47.0
2023-08-12 14:58:16.078322,-33.0
2023-08-12 14:58:16.086012,-28.0
2023-08-12 14:58:16.093702,-28.0
2023-08-12 14:58:16.101392,-28.0
2023-08-12 14:58:16.109082,-35.0
2023-08-12 14:58:16.116772,-40.0
2023-08-12 14:58:16.124462,-47.0
2023-08-12 14:58:16.132152,-59.0
2023-08-12 14:58:16.139842,-69.0
2023-08-12 14:58:16.147532,-73.0
2023-08-12 14:58:16.155222,-76.0
2023-08-12 14:58:16.162912,-76.0
2023-08-12 14:58:16.170602,-73.0
2023-08-12 14:58:16.178292,-73.0
2023-08-12 14:58:16.185982,-78.0
2023-08-12 14:58:16.193672,-59.0
2023-08-12 14:58:16.201362,52.0
2023-08-12 14:58:16.209051,302.0
2023-08-12 14:58:16.216741,542.0
2023-08-12 14:58:16.224431,487.0
2023-08-12 14:58:16.232121,111.0
2023-08-12 14:58:16.239811,-178.0
2023-08-12 14:58:16.247501,-183.0
2023-08-12 14:58:16.255191,-159.0
2023-08-12 14:58:16.262881,-176.0
2023-08-12 14:58:16.270571,-128.0
2023-08-12 14:58:16.278261,-97.0
2023-08-12 14:58:16.285951,-111.0
2023-08-12 14:58:16.293641,-102.0
2023-08-12 14:58:16.301331,-83.0
2023-08-12 14:58:16.309021,-85.0
2023-08-12 14:58:16.316711,-80.0
2023-08-12 14:58:16.324401,-69.0
2023-08-12 14:58:16.332091,-66.0
2023-08-12 14:58:16.339781,-57.0
2023-08-12 14:58:16.347471,-45.0
2023-08-12 14:58:16.355161,-42.0
2023-08-12 14:58:16.362851,-38.0
2023-08-12 14:58:16.370541,-28.0
2023-08-12 14:58:16.378231,-16.0
2023-08-12 14:58:16.385921,0.0
2023-08-12 14:58:16.393611,14.0
2023-08-12 14:58:16.401301,26.0
2023-08-12 14:58:16.408991,38.0
2023-08-12 14:58:16.416681,52.0
2023-08-12 14:58:16.424371,66.0
2023-08-12 14:58:16.432060,76.0
2023-08-12 14:58:16.439750,76.0
2023-08-12 14:58:16.447440,69.0
2023-08-12 14:58:16.455130,61.0
2023-08-12 14:58:16.462820,49.0
2023-08-12 14:58:16.470510,28.0
2023-08-12 14:58:16.478200,-2.0
2023-08-12 14:58:16.485890,-35.0
2023-08-12 14:58:16.493580,-71.0
2023-08-12 14:58:16.501270,-99.0
2023-08-12 14:58:16.508960,-119.0
2023-08-12 14:58:16.516650,-130.0
2023-08-12 14:58:16.524340,-138.0
2023-08-12 14:58:16.532030,-138.0
2023-08-12 14:58:16.539720,-138.0
2023-08-12 14:58:16.547410,-133.0
2023-08-12 14:58:16.555100,-123.0
2023-08-12 14:58:16.562790,-121.0
2023-08-12 14:58:16.570480,-121.0
2023-08-12 14:58:16.578170,-119.0
2023-08-12 14:58:16.585860,-119.0
2023-08-12 14:58:16.593550,-123.0
2023-08-12 14:58:16.601240,-116.0
2023-08-12 14:58:16.608930,-104.0
2023-08-12 14:58:16.616620,-102.0
2023-08-12 14:58:16.624310,-99.0
2023-08-12 14:58:16.632000,-97.0
2023-08-12 14:58:16.639690,-92.0
2023-08-12 14:58:16.647380,-92.0
2023-08-12 14:58:16.655069,-92.0
2023-08-12 14:58:16.662759,-88.0
2023-08-12 14:58:16.670449,-83.0
2023-08-12 14:58:16.678139,-85.0
2023-08-12 14:58:16.685829,-88.0
2023-08-12 14:58:16.693519,-85.0
2023-08-12 14:58:16.701209,-83.0
2023-08-12 14:58:16.708899,-80.0
2023-08-12 14:58:16.716589,-78.0
2023-08-12 14:58:16.724279,-80.0
2023-08-12 14:58:16.731969,-85.0
2023-08-12 14:58:16.739659,-88.0
2023-08-12 14:58:16.747349,-85.0
2023-08-12 14:58:16.755039,-85.0
2023-08-12 14:58:16.762729,-83.0
2023-08-12 14:58:16.770419,-80.0
2023-08-12 14:58:16.778109,-80.0
2023-08-12 14:58:16.785799,-80.0
2023-08-12 14:58:16.793489,-78.0
2023-08-12 14:58:16.801179,-73.0
2023-08-12 14:58:16.808869,-73.0
2023-08-12 14:58:16.816559,-73.0
2023-08-12 14:58:16.824249,-73.0
2023-08-12 14:58:16.831939,-76.0
2023-08-12 14:58:16.839629,-78.0
2023-08-12 14:58:16.847319,-78.0
2023-08-12 14:58:16.855009,-73.0
2023-08-12 14:58:16.862699,-73.0
2023-08-12 14:58:16.870389,-73.0
2023-08-12 14:58:16.878079,-69.0
2023-08-12 14:58:16.885768,-59.0
2023-08-12 14:58:16.893458,-57.0
2023-08-12 14:58:16.901148,-47.0
2023-08-12 14:58:16.908838,-30.0
2023-08-12 14:58:16.916528,-28.0
2023-08-12 14:58:16.924218,-30.0
2023-08-12 14:58:16.931908,-35.0
2023-08-12 14:58:16.939598,-40.0
2023-08-12 14:58:16.947288,-42.0
2023-08-12 14:58:16.954978,-49.0
2023-08-12 14:58:16.962668,-61.0
2023-08-12 14:58:16.970358,-76.0
2023-08-12 14:58:16.978048,-83.0
2023-08-12 14:58:16.985738,-76.0
2023-08-12 14:58:16.993428,-76.0
2023-08-12 14:58:17.001118,-80.0
2023-08-12 14:58:17.008808,-83.0
2023-08-12 14:58:17.016498,-80.0
2023-08-12 14:58:17.024188,-49.0
2023-08-12 14:58:17.031878,95.0
2023-08-12 14:58:17.039568,364.0
2023-08-12 14:58:17.047258,566.0
2023-08-12 14:58:17.054948,433.0
2023-08-12 14:58:17.062638,35.0
2023-08-12 14:58:17.070328,-204.0
2023-08-12 14:58:17.078018,-178.0
2023-08-12 14:58:17.085708,-166.0
2023-08-12 14:58:17.093398,-180.0
2023-08-12 14:58:17.101088,-123.0
2023-08-12 14:58:17.108777,-95.0
2023-08-12 14:58:17.116467,-114.0
2023-08-12 14:58:17.124157,-99.0
2023-08-12 14:58:17.131847,-85.0
2023-08-12 14:58:17.139537,-85.0
2023-08-12 14:58:17.147227,-80.0
2023-08-12 14:58:17.154917,-73.0
2023-08-12 14:58:17.162607,-66.0
2023-08-12 14:58:17.170297,-59.0
2023-08-12 14:58:17.177987,-59.0
2023-08-12 14:58:17.185677,-54.0
2023-08-12 14:58:17.193367,-38.0
2023-08-12 14:58:17.201057,-30.0
2023-08-12 14:58:17.208747,-23.0
2023-08-12 14:58:17.216437,-7.0
2023-08-12 14:58:17.224127,7.0
2023-08-12 14:58:17.231817,16.0
2023-08-12 14:58:17.239507,28.0
2023-08-12 14:58:17.247197,40.0
2023-08-12 14:58:17.254887,47.0
2023-08-12 14:58:17.262577,57.0
2023-08-12 14:58:17.270267,59.0
2023-08-12 14:58:17.277957,54.0
2023-08-12 14:58:17.285647,45.0
2023-08-12 14:58:17.293337,28.0
2023-08-12 14:58:17.301027,0.0
2023-08-12 14:58:17.308717,-30.0
2023-08-12 14:58:17.316407,-61.0
2023-08-12 14:58:17.324097,-92.0
2023-08-12 14:58:17.331786,-119.0
2023-08-12 14:58:17.339476,-133.0
2023-08-12 14:58:17.347166,-140.0
2023-08-12 14:58:17.354856,-149.0
2023-08-12 14:58:17.362546,-147.0
2023-08-12 14:58:17.370236,-142.0
2023-08-12 14:58:17.377926,-140.0
2023-08-12 14:58:17.385616,-138.0
2023-08-12 14:58:17.393306,-130.0
2023-08-12 14:58:17.400996,-126.0
2023-08-12 14:58:17.408686,-123.0
2023-08-12 14:58:17.416376,-119.0
2023-08-12 14:58:17.424066,-114.0
2023-08-12 14:58:17.431756,-107.0
2023-08-12 14:58:17.439446,-97.0
2023-08-12 14:58:17.447136,-97.0
2023-08-12 14:58:17.454826,-99.0
2023-08-12 14:58:17.462516,-95.0
2023-08-12 14:58:17.470206,-90.0
2023-08-12 14:58:17.477896,-85.0
2023-08-12 14:58:17.485586,-83.0
2023-08-12 14:58:17.493276,-85.0
2023-08-12 14:58:17.500966,-83.0
2023-08-12 14:58:17.508656,-80.0
2023-08-12 14:58:17.516346,-83.0
2023-08-12 14:58:17.524036,-83.0
2023-08-12 14:58:17.531726,-78.0
2023-08-12 14:58:17.539416,-73.0
2023-08-12 14:58:17.547106,-78.0
2023-08-12 14:58:17.554795,-78.0
2023-08-12 14:58:17.562485,-76.0
2023-08-12 14:58:17.570175,-78.0
2023-08-12 14:58:17.577865,-78.0
2023-08-12 14:58:17.585555,-78.0
2023-08-12 14:58:17.593245,-80.0
2023-08-12 14:58:17.600935,-80.0
2023-08-12 14:58:17.608625,-76.0
2023-08-12 14:58:17.616315,-71.0
2023-08-12 14:58:17.624005,-73.0
2023-08-12 14:58:17.631695,-76.0
2023-08-12 14:58:17.639385,-69.0
2023-08-12 14:58:17.647075,-61.0
2023-08-12 14:58:17.654765,-66.0
2023-08-12 14:58:17.662455,-73.0
2023-08-12 14:58:17.670145,-76.0
2023-08-12 14:58:17.677835,-80.0
2023-08-12 14:58:17.685525,-80.0
2023-08-12 14:58:17.693215,-78.0
2023-08-12 14:58:17.700905,-73.0
2023-08-12 14:58:17.708595,-71.0
2023-08-12 14:58:17.716285,-73.0
2023-08-12 14:58:17.723975,-78.0
2023-08-12 14:58:17.731665,-71.0
2023-08-12 14:58:17.739355,-61.0
2023-08-12 14:58:17.747045,-61.0
2023-08-12 14:58:17.754735,-71.0
2023-08-12 14:58:17.762425,-59.0
2023-08-12 14:58:17.770115,-40.0
2023-08-12 14:58:17.777805,-33.0
2023-08-12 14:58:17.785494,-35.0
2023-08-12 14:58:17.793184,-45.0
2023-08-12 14:58:17.800874,-45.0
2023-08-12 14:58:17.808564,-40.0
2023-08-12 14:58:17.816254,-54.0
2023-08-12 14:58:17.823944,-76.0
2023-08-12 14:58:17.831634,-88.0
2023-08-12 14:58:17.839324,-85.0
2023-08-12 14:58:17.847014,-83.0
2023-08-12 14:58:17.854704,-83.0
2023-08-12 14:58:17.862394,-80.0
2023-08-12 14:58:17.870084,-83.0
2023-08-12 14:58:17.877774,-83.0
2023-08-12 14:58:17.885464,-28.0
2023-08-12 14:58:17.893154,159.0
2023-08-12 14:58:17.900844,428.0
2023-08-12 14:58:17.908534,557.0
2023-08-12 14:58:17.916224,349.0
2023-08-12 14:58:17.923914,-35.0
2023-08-12 14:58:17.931604,-209.0
2023-08-12 14:58:17.939294,-173.0
2023-08-12 14:58:17.946984,-164.0
2023-08-12 14:58:17.954674,-152.0
2023-08-12 14:58:17.962364,-102.0
2023-08-12 14:58:17.970054,-97.0
2023-08-12 14:58:17.977744,-111.0
2023-08-12 14:58:17.985434,-97.0
2023-08-12 14:58:17.993124,-83.0
2023-08-12 14:58:18.000814,-83.0
2023-08-12 14:58:18.008503,-73.0
2023-08-12 14:58:18.016193,-64.0
2023-08-12 14:58:18.023883,-54.0
2023-08-12 14:58:18.031573,-47.0
2023-08-12 14:58:18.039263,-45.0
2023-08-12 14:58:18.046953,-38.0
2023-08-12 14:58:18.054643,-23.0
2023-08-12 14:58:18.062333,-16.0
2023-08-12 14:58:18.070023,-11.0
2023-08-12 14:58:18.077713,0.0
2023-08-12 14:58:18.085403,16.0
2023-08-12 14:58:18.093093,30.0
2023-08-12 14:58:18.100783,45.0
2023-08-12 14:58:18.108473,59.0
2023-08-12 14:58:18.116163,69.0
2023-08-12 14:58:18.123853,69.0
2023-08-12 14:58:18.131543,61.0
2023-08-12 14:58:18.139233,61.0
2023-08-12 14:58:18.146923,61.0
2023-08-12 14:58:18.154613,40.0
2023-08-12 14:58:18.162303,7.0
2023-08-12 14:58:18.169993,-26.0
2023-08-12 14:58:18.177683,-57.0
2023-08-12 14:58:18.185373,-80.0
2023-08-12 14:58:18.193063,-97.0
2023-08-12 14:58:18.200753,-114.0
2023-08-12 14:58:18.208443,-123.0
2023-08-12 14:58:18.216133,-126.0
2023-08-12 14:58:18.223823,-123.0
2023-08-12 14:58:18.231512,-119.0
2023-08-12 14:58:18.239202,-114.0
2023-08-12 14:58:18.246892,-109.0
2023-08-12 14:58:18.254582,-109.0
2023-08-12 14:58:18.262272,-109.0
2023-08-12 14:58:18.269962,-99.0
2023-08-12 14:58:18.277652,-92.0
2023-08-12 14:58:18.285342,-95.0
2023-08-12 14:58:18.293032,-90.0
2023-08-12 14:58:18.300722,-85.0
2023-08-12 14:58:18.308412,-88.0
2023-08-12 14:58:18.316102,-80.0
2023-08-12 14:58:18.323792,-73.0
2023-08-12 14:58:18.331482,-73.0
2023-08-12 14:58:18.339172,-76.0
2023-08-12 14:58:18.346862,-80.0
2023-08-12 14:58:18.354552,-83.0
2023-08-12 14:58:18.362242,-76.0
2023-08-12 14:58:18.369932,-73.0
2023-08-12 14:58:18.377622,-71.0
2023-08-12 14:58:18.385312,-66.0
2023-08-12 14:58:18.393002,-71.0
2023-08-12 14:58:18.400692,-73.0
2023-08-12 14:58:18.408382,-69.0
2023-08-12 14:58:18.416072,-64.0
2023-08-12 14:58:18.423762,-64.0
2023-08-12 14:58:18.431452,-64.0
2023-08-12 14:58:18.439142,-64.0
2023-08-12 14:58:18.446832,-61.0
2023-08-12 14:58:18.454521,-59.0
2023-08-12 14:58:18.462211,-59.0
2023-08-12 14:58:18.469901,-59.0
2023-08-12 14:58:18.477591,-61.0
2023-08-12 14:58:18.485281,-59.0
2023-08-12 14:58:18.492971,-57.0
2023-08-12 14:58:18.500661,-54.0
2023-08-12 14:58:18.508351,-52.0
2023-08-12 14:58:18.516041,-49.0
2023-08-12 14:58:18.523731,-52.0
2023-08-12 14:58:18.531421,-52.0
2023-08-12 14:58:18.539111,-54.0
2023-08-12 14:58:18.546801,-54.0
2023-08-12 14:58:18.554491,-59.0
2023-08-12 14:58:18.562181,-61.0
2023-08-12 14:58:18.569871,-61.0
2023-08-12 14:58:18.577561,-59.0
2023-08-12 14:58:18.585251,-57.0
2023-08-12 14:58:18.592941,-54.0
2023-08-12 14:58:18.600631,-54.0
2023-08-12 14:58:18.608321,-52.0
2023-08-12 14:58:18.616011,-49.0
2023-08-12 14:58:18.623701,-45.0
2023-08-12 14:58:18.631391,-35.0
2023-08-12 14:58:18.639081,-28.0
2023-08-12 14:58:18.646771,-21.0
2023-08-12 14:58:18.654461,-14.0
2023-08-12 14:58:18.662151,-21.0
2023-08-12 14:58:18.669841,-35.0
2023-08-12 14:58:18.677531,-35.0
2023-08-12 14:58:18.685220,-35.0
2023-08-12 14:58:18.692910,-52.0
2023-08-12 14:58:18.700600,-66.0
2023-08-12 14:58:18.708290,-71.0
2023-08-12 14:58:18.715980,-69.0
2023-08-12 14:58:18.723670,-71.0
2023-08-12 14:58:18.731360,-66.0
2023-08-12 14:58:18.739050,-61.0
2023-08-12 14:58:18.746740,-66.0
2023-08-12 14:58:18.754430,-30.0
2023-08-12 14:58:18.762120,128.0
2023-08-12 14:58:18.769810,385.0
2023-08-12 14:58:18.777500,542.0
2023-08-12 14:58:18.785190,371.0
2023-08-12 14:58:18.792880,-9.0
2023-08-12 14:58:18.800570,-197.0
2023-08-12 14:58:18.808260,-166.0
2023-08-12 14:58:18.815950,-164.0
2023-08-12 14:58:18.823640,-161.0
2023-08-12 14:58:18.831330,-104.0
2023-08-12 14:58:18.839020,-99.0
2023-08-12 14:58:18.846710,-126.0
2023-08-12 14:58:18.854400,-109.0
2023-08-12 14:58:18.862090,-88.0
2023-08-12 14:58:18.869780,-85.0
2023-08-12 14:58:18.877470,-78.0
2023-08-12 14:58:18.885160,-69.0
2023-08-12 14:58:18.892850,-66.0
2023-08-12 14:58:18.900540,-57.0
2023-08-12 14:58:18.908229,-47.0
2023-08-12 14:58:18.915919,-40.0
2023-08-12 14:58:18.923609,-30.0
2023-08-12 14:58:18.931299,-21.0
2023-08-12 14:58:18.938989,-9.0
2023-08-12 14:58:18.946679,2.0
2023-08-12 14:58:18.954369,19.0
2023-08-12 14:58:18.962059,35.0
2023-08-12 14:58:18.969749,47.0
2023-08-12 14:58:18.977439,61.0
2023-08-12 14:58:18.985129,73.0
2023-08-12 14:58:18.992819,71.0
2023-08-12 14:58:19.000509,69.0
2023-08-12 14:58:19.008199,71.0
2023-08-12 14:58:19.015889,61.0
2023-08-12 14:58:19.023579,38.0
2023-08-12 14:58:19.031269,16.0
2023-08-12 14:58:19.038959,-11.0
2023-08-12 14:58:19.046649,-52.0
2023-08-12 14:58:19.054339,-88.0
2023-08-12 14:58:19.062029,-104.0
2023-08-12 14:58:19.069719,-116.0
2023-08-12 14:58:19.077409,-128.0
2023-08-12 14:58:19.085099,-133.0
2023-08-12 14:58:19.092789,-135.0
2023-08-12 14:58:19.100479,-133.0
2023-08-12 14:58:19.108169,-123.0
2023-08-12 14:58:19.115859,-119.0
2023-08-12 14:58:19.123549,-119.0
2023-08-12 14:58:19.131238,-114.0
2023-08-12 14:58:19.138928,-109.0
2023-08-12 14:58:19.146618,-104.0
2023-08-12 14:58:19.154308,-97.0
2023-08-12 14:58:19.161998,-92.0
2023-08-12 14:58:19.169688,-90.0
2023-08-12 14:58:19.177378,-85.0
2023-08-12 14:58:19.185068,-83.0
2023-08-12 14:58:19.192758,-83.0
2023-08-12 14:58:19.200448,-80.0
2023-08-12 14:58:19.208138,-73.0
2023-08-12 14:58:19.215828,-69.0
2023-08-12 14:58:19.223518,-71.0
2023-08-12 14:58:19.231208,-73.0
2023-08-12 14:58:19.238898,-66.0
2023-08-12 14:58:19.246588,-64.0
2023-08-12 14:58:19.254278,-69.0
2023-08-12 14:58:19.261968,-71.0
2023-08-12 14:58:19.269658,-73.0
2023-08-12 14:58:19.277348,-78.0
2023-08-12 14:58:19.285038,-78.0
2023-08-12 14:58:19.292728,-73.0
2023-08-12 14:58:19.300418,-71.0
2023-08-12 14:58:19.308108,-73.0
2023-08-12 14:58:19.315798,-76.0
2023-08-12 14:58:19.323488,-69.0
2023-08-12 14:58:19.331178,-64.0
2023-08-12 14:58:19.338868,-64.0
2023-08-12 14:58:19.346558,-64.0
2023-08-12 14:58:19.354247,-66.0
2023-08-12 14:58:19.361937,-61.0
2023-08-12 14:58:19.369627,-64.0
2023-08-12 14:58:19.377317,-64.0
2023-08-12 14:58:19.385007,-59.0
2023-08-12 14:58:19.392697,-59.0
2023-08-12 14:58:19.400387,-64.0
2023-08-12 14:58:19.408077,-64.0
2023-08-12 14:58:19.415767,-59.0
2023-08-12 14:58:19.423457,-66.0
2023-08-12 14:58:19.431147,-71.0
2023-08-12 14:58:19.438837,-64.0
2023-08-12 14:58:19.446527,-64.0
2023-08-12 14:58:19.454217,-69.0
2023-08-12 14:58:19.461907,-64.0
2023-08-12 14:58:19.469597,-57.0
2023-08-12 14:58:19.477287,-54.0
2023-08-12 14:58:19.484977,-47.0
2023-08-12 14:58:19.492667,-33.0
2023-08-12 14:58:19.500357,-26.0
2023-08-12 14:58:19.508047,-23.0
2023-08-12 14:58:19.515737,-28.0
2023-08-12 14:58:19.523427,-40.0
2023-08-12 14:58:19.531117,-49.0
2023-08-12 14:58:19.538807,-49.0
2023-08-12 14:58:19.546497,-57.0
2023-08-12 14:58:19.554187,-71.0
2023-08-12 14:58:19.561877,-80.0
2023-08-12 14:58:19.569567,-80.0
2023-08-12 14:58:19.577257,-76.0
2023-08-12 14:58:19.584946,-73.0
2023-08-12 14:58:19.592636,-73.0
2023-08-12 14:58:19.600326,-80.0
2023-08-12 14:58:19.608016,-47.0
2023-08-12 14:58:19.615706,126.0
2023-08-12 14:58:19.623396,435.0
2023-08-12 14:58:19.631086,621.0
2023-08-12 14:58:19.638776,414.0
2023-08-12 14:58:19.646466,-23.0
2023-08-12 14:58:19.654156,-218.0
2023-08-12 14:58:19.661846,-164.0
2023-08-12 14:58:19.669536,-171.0
2023-08-12 14:58:19.677226,-180.0
2023-08-12 14:58:19.684916,-107.0
2023-08-12 14:58:19.692606,-83.0
2023-08-12 14:58:19.700296,-109.0
2023-08-12 14:58:19.707986,-97.0
2023-08-12 14:58:19.715676,-73.0
2023-08-12 14:58:19.723366,-76.0
2023-08-12 14:58:19.731056,-71.0
2023-08-12 14:58:19.738746,-61.0
2023-08-12 14:58:19.746436,-54.0
2023-08-12 14:58:19.754126,-49.0
2023-08-12 14:58:19.761816,-40.0
2023-08-12 14:58:19.769506,-33.0
2023-08-12 14:58:19.777196,-30.0
2023-08-12 14:58:19.784886,-30.0
2023-08-12 14:58:19.792576,-16.0
2023-08-12 14:58:19.800266,7.0
2023-08-12 14:58:19.807955,21.0
2023-08-12 14:58:19.815645,30.0
2023-08-12 14:58:19.823335,49.0
2023-08-12 14:58:19.831025,69.0
2023-08-12 14:58:19.838715,78.0
2023-08-12 14:58:19.846405,80.0
2023-08-12 14:58:19.854095,83.0
2023-08-12 14:58:19.861785,78.0
2023-08-12 14:58:19.869475,64.0
2023-08-12 14:58:19.877165,45.0
2023-08-12 14:58:19.884855,19.0
2023-08-12 14:58:19.892545,-11.0
2023-08-12 14:58:19.900235,-47.0
2023-08-12 14:58:19.907925,-85.0
2023-08-12 14:58:19.915615,-119.0
2023-08-12 14:58:19.923305,-145.0
2023-08-12 14:58:19.930995,-149.0
2023-08-12 14:58:19.938685,-147.0
2023-08-12 14:58:19.946375,-149.0
2023-08-12 14:58:19.954065,-149.0
2023-08-12 14:58:19.961755,-145.0
2023-08-12 14:58:19.969445,-145.0
2023-08-12 14:58:19.977135,-135.0
2023-08-12 14:58:19.984825,-126.0
2023-08-12 14:58:19.992515,-121.0
2023-08-12 14:58:20.000205,-114.0
2023-08-12 14:58:20.007895,-111.0
2023-08-12 14:58:20.015585,-109.0
2023-08-12 14:58:20.023275,-102.0
2023-08-12 14:58:20.030964,-97.0
2023-08-12 14:58:20.038654,-97.0
2023-08-12 14:58:20.046344,-90.0
2023-08-12 14:58:20.054034,-88.0
2023-08-12 14:58:20.061724,-85.0
2023-08-12 14:58:20.069414,-83.0
2023-08-12 14:58:20.077104,-78.0
2023-08-12 14:58:20.084794,-78.0
2023-08-12 14:58:20.092484,-78.0
2023-08-12 14:58:20.100174,-80.0
2023-08-12 14:58:20.107864,-80.0
2023-08-12 14:58:20.115554,-78.0
2023-08-12 14:58:20.123244,-73.0
2023-08-12 14:58:20.130934,-76.0
2023-08-12 14:58:20.138624,-78.0
2023-08-12 14:58:20.146314,-83.0
2023-08-12 14:58:20.154004,-83.0
2023-08-12 14:58:20.161694,-78.0
2023-08-12 14:58:20.169384,-73.0
2023-08-12 14:58:20.177074,-71.0
2023-08-12 14:58:20.184764,-69.0
2023-08-12 14:58:20.192454,-71.0
2023-08-12 14:58:20.200144,-71.0
2023-08-12 14:58:20.207834,-66.0
2023-08-12 14:58:20.215524,-64.0
2023-08-12 14:58:20.223214,-69.0
2023-08-12 14:58:20.230904,-66.0
2023-08-12 14:58:20.238594,-64.0
2023-08-12 14:58:20.246284,-71.0
2023-08-12 14:58:20.253973,-73.0
2023-08-12 14:58:20.261663,-69.0
2023-08-12 14:58:20.269353,-64.0
2023-08-12 14:58:20.277043,-69.0
2023-08-12 14:58:20.284733,-73.0
2023-08-12 14:58:20.292423,-69.0
2023-08-12 14:58:20.300113,-61.0
2023-08-12 14:58:20.307803,-57.0
2023-08-12 14:58:20.315493,-57.0
2023-08-12 14:58:20.323183,-52.0
2023-08-12 14:58:20.330873,-38.0
2023-08-12 14:58:20.338563,-30.0
2023-08-12 14:58:20.346253,-33.0
2023-08-12 14:58:20.353943,-42.0
2023-08-12 14:58:20.361633,-40.0
2023-08-12 14:58:20.369323,-33.0
2023-08-12 14:58:20.377013,-45.0
2023-08-12 14:58:20.384703,-66.0
2023-08-12 14:58:20.392393,-76.0
2023-08-12 14:58:20.400083,-80.0
2023-08-12 14:58:20.407773,-78.0
2023-08-12 14:58:20.415463,-76.0
2023-08-12 14:58:20.423153,-80.0
2023-08-12 14:58:20.430843,-80.0
2023-08-12 14:58:20.438533,-78.0
2023-08-12 14:58:20.446223,-54.0
2023-08-12 14:58:20.453913,76.0
2023-08-12 14:58:20.461603,342.0
2023-08-12 14:58:20.469293,566.0
2023-08-12 14:58:20.476983,461.0
2023-08-12 14:58:20.484672,69.0
2023-08-12 14:58:20.492362,-188.0
2023-08-12 14:58:20.500052,-188.0
2023-08-12 14:58:20.507742,-183.0
2023-08-12 14:58:20.515432,-197.0
2023-08-12 14:58:20.523122,-138.0
2023-08-12 14:58:20.530812,-102.0
2023-08-12 14:58:20.538502,-123.0
2023-08-12 14:58:20.546192,-116.0
2023-08-12 14:58:20.553882,-90.0
2023-08-12 14:58:20.561572,-90.0
2023-08-12 14:58:20.569262,-95.0
2023-08-12 14:58:20.576952,-78.0
2023-08-12 14:58:20.584642,-64.0
2023-08-12 14:58:20.592332,-66.0
2023-08-12 14:58:20.600022,-61.0
2023-08-12 14:58:20.607712,-45.0
2023-08-12 14:58:20.615402,-35.0
2023-08-12 14:58:20.623092,-28.0
2023-08-12 14:58:20.630782,-14.0
2023-08-12 14:58:20.638472,0.0
2023-08-12 14:58:20.646162,11.0
2023-08-12 14:58:20.653852,26.0
2023-08-12 14:58:20.661542,42.0
2023-08-12 14:58:20.669232,59.0
2023-08-12 14:58:20.676922,69.0
2023-08-12 14:58:20.684612,73.0
2023-08-12 14:58:20.692302,76.0
2023-08-12 14:58:20.699992,71.0
2023-08-12 14:58:20.707681,61.0
2023-08-12 14:58:20.715371,45.0
2023-08-12 14:58:20.723061,19.0
2023-08-12 14:58:20.730751,-11.0
2023-08-12 14:58:20.738441,-45.0
2023-08-12 14:58:20.746131,-78.0
2023-08-12 14:58:20.753821,-107.0
2023-08-12 14:58:20.761511,-126.0
2023-08-12 14:58:20.769201,-138.0
2023-08-12 14:58:20.776891,-145.0
2023-08-12 14:58:20.784581,-147.0
2023-08-12 14:58:20.792271,-152.0
2023-08-12 14:58:20.799961,-149.0
2023-08-12 14:58:20.807651,-138.0
2023-08-12 14:58:20.815341,-130.0
2023-08-12 14:58:20.823031,-128.0
2023-08-12 14:58:20.830721,-123.0
2023-08-12 14:58:20.838411,-119.0
2023-08-12 14:58:20.846101,-116.0
2023-08-12 14:58:20.853791,-107.0
2023-08-12 14:58:20.861481,-97.0
2023-08-12 14:58:20.869171,-95.0
2023-08-12 14:58:20.876861,-95.0
2023-08-12 14:58:20.884551,-92.0
2023-08-12 14:58:20.892241,-85.0
2023-08-12 14:58:20.899931,-83.0
2023-08-12 14:58:20.907621,-83.0
2023-08-12 14:58:20.915311,-78.0
2023-08-12 14:58:20.923001,-73.0
2023-08-12 14:58:20.930690,-76.0
2023-08-12 14:58:20.938380,-73.0
2023-08-12 14:58:20.946070,-66.0
2023-08-12 14:58:20.953760,-71.0
2023-08-12 14:58:20.961450,-78.0
2023-08-12 14:58:20.969140,-71.0
2023-08-12 14:58:20.976830,-64.0
2023-08-12 14:58:20.984520,-71.0
2023-08-12 14:58:20.992210,-73.0
2023-08-12 14:58:20.999900,-69.0
2023-08-12 14:58:21.007590,-69.0
2023-08-12 14:58:21.015280,-66.0
2023-08-12 14:58:21.022970,-69.0
2023-08-12 14:58:21.030660,-69.0
2023-08-12 14:58:21.038350,-66.0
2023-08-12 14:58:21.046040,-76.0
2023-08-12 14:58:21.053730,-80.0
2023-08-12 14:58:21.061420,-69.0
2023-08-12 14:58:21.069110,-69.0
2023-08-12 14:58:21.076800,-76.0
2023-08-12 14:58:21.084490,-69.0
2023-08-12 14:58:21.092180,-61.0
2023-08-12 14:58:21.099870,-64.0
2023-08-12 14:58:21.107560,-66.0
2023-08-12 14:58:21.115250,-64.0
2023-08-12 14:58:21.122940,-64.0
2023-08-12 14:58:21.130630,-66.0
2023-08-12 14:58:21.138320,-69.0
2023-08-12 14:58:21.146010,-69.0
2023-08-12 14:58:21.153699,-59.0
2023-08-12 14:58:21.161389,-52.0
2023-08-12 14:58:21.169079,-54.0
2023-08-12 14:58:21.176769,-49.0
2023-08-12 14:58:21.184459,-30.0
2023-08-12 14:58:21.192149,-23.0
2023-08-12 14:58:21.199839,-30.0
2023-08-12 14:58:21.207529,-33.0
2023-08-12 14:58:21.215219,-35.0
2023-08-12 14:58:21.222909,-38.0
2023-08-12 14:58:21.230599,-47.0
2023-08-12 14:58:21.238289,-59.0
2023-08-12 14:58:21.245979,-66.0
2023-08-12 14:58:21.253669,-71.0
2023-08-12 14:58:21.261359,-73.0
2023-08-12 14:58:21.269049,-71.0
2023-08-12 14:58:21.276739,-71.0
2023-08-12 14:58:21.284429,-78.0
2023-08-12 14:58:21.292119,-88.0
2023-08-12 14:58:21.299809,-57.0
2023-08-12 14:58:21.307499,90.0
2023-08-12 14:58:21.315189,352.0
2023-08-12 14:58:21.322879,547.0
2023-08-12 14:58:21.330569,433.0
2023-08-12 14:58:21.338259,49.0
2023-08-12 14:58:21.345949,-195.0
2023-08-12 14:58:21.353639,-185.0
2023-08-12 14:58:21.361329,-173.0
2023-08-12 14:58:21.369019,-180.0
2023-08-12 14:58:21.376709,-119.0
2023-08-12 14:58:21.384398,-92.0
2023-08-12 14:58:21.392088,-109.0
2023-08-12 14:58:21.399778,-99.0
2023-08-12 14:58:21.407468,-83.0
2023-08-12 14:58:21.415158,-83.0
2023-08-12 14:58:21.422848,-76.0
2023-08-12 14:58:21.430538,-64.0
2023-08-12 14:58:21.438228,-59.0
2023-08-12 14:58:21.445918,-54.0
2023-08-12 14:58:21.453608,-45.0
2023-08-12 14:58:21.461298,-35.0
2023-08-12 14:58:21.468988,-23.0
2023-08-12 14:58:21.476678,-14.0
2023-08-12 14:58:21.484368,-4.0
2023-08-12 14:58:21.492058,4.0
2023-08-12 14:58:21.499748,14.0
2023-08-12 14:58:21.507438,28.0
2023-08-12 14:58:21.515128,42.0
2023-08-12 14:58:21.522818,54.0
2023-08-12 14:58:21.530508,69.0
2023-08-12 14:58:21.538198,78.0
2023-08-12 14:58:21.545888,78.0
2023-08-12 14:58:21.553578,73.0
2023-08-12 14:58:21.561268,66.0
2023-08-12 14:58:21.568958,45.0
2023-08-12 14:58:21.576648,19.0
2023-08-12 14:58:21.584338,-19.0
2023-08-12 14:58:21.592028,-59.0
2023-08-12 14:58:21.599718,-88.0
2023-08-12 14:58:21.607407,-107.0
2023-08-12 14:58:21.615097,-123.0
2023-08-12 14:58:21.622787,-133.0
2023-08-12 14:58:21.630477,-142.0
2023-08-12 14:58:21.638167,-149.0
2023-08-12 14:58:21.645857,-140.0
2023-08-12 14:58:21.653547,-128.0
2023-08-12 14:58:21.661237,-126.0
2023-08-12 14:58:21.668927,-128.0
2023-08-12 14:58:21.676617,-126.0
2023-08-12 14:58:21.684307,-121.0
2023-08-12 14:58:21.691997,-114.0
2023-08-12 14:58:21.699687,-109.0
2023-08-12 14:58:21.707377,-102.0
2023-08-12 14:58:21.715067,-102.0
2023-08-12 14:58:21.722757,-102.0
2023-08-12 14:58:21.730447,-97.0
2023-08-12 14:58:21.738137,-90.0
2023-08-12 14:58:21.745827,-85.0
2023-08-12 14:58:21.753517,-83.0
2023-08-12 14:58:21.761207,-85.0
2023-08-12 14:58:21.768897,-90.0
2023-08-12 14:58:21.776587,-88.0
2023-08-12 14:58:21.784277,-83.0
2023-08-12 14:58:21.791967,-88.0
2023-08-12 14:58:21.799657,-95.0
2023-08-12 14:58:21.807347,-90.0
2023-08-12 14:58:21.815037,-88.0
2023-08-12 14:58:21.822727,-92.0
2023-08-12 14:58:21.830416,-88.0
2023-08-12 14:58:21.838106,-83.0
2023-08-12 14:58:21.845796,-83.0
2023-08-12 14:58:21.853486,-83.0
2023-08-12 14:58:21.861176,-90.0
2023-08-12 14:58:21.868866,-90.0
2023-08-12 14:58:21.876556,-78.0
2023-08-12 14:58:21.884246,-78.0
2023-08-12 14:58:21.891936,-80.0
2023-08-12 14:58:21.899626,-76.0
2023-08-12 14:58:21.907316,-71.0
2023-08-12 14:58:21.915006,-76.0
2023-08-12 14:58:21.922696,-73.0
2023-08-12 14:58:21.930386,-69.0
2023-08-12 14:58:21.938076,-71.0
2023-08-12 14:58:21.945766,-71.0
2023-08-12 14:58:21.953456,-73.0
2023-08-12 14:58:21.961146,-73.0
2023-08-12 14:58:21.968836,-64.0
2023-08-12 14:58:21.976526,-66.0
2023-08-12 14:58:21.984216,-69.0
2023-08-12 14:58:21.991906,-66.0
2023-08-12 14:58:21.999596,-69.0
2023-08-12 14:58:22.007286,-80.0
2023-08-12 14:58:22.014976,-83.0
2023-08-12 14:58:22.022666,-73.0
2023-08-12 14:58:22.030356,-73.0
2023-08-12 14:58:22.038046,-76.0
2023-08-12 14:58:22.045736,-57.0
2023-08-12 14:58:22.053425,-42.0
2023-08-12 14:58:22.061115,-40.0
2023-08-12 14:58:22.068805,-40.0
2023-08-12 14:58:22.076495,-45.0
2023-08-12 14:58:22.084185,-54.0
2023-08-12 14:58:22.091875,-59.0
2023-08-12 14:58:22.099565,-69.0
2023-08-12 14:58:22.107255,-80.0
2023-08-12 14:58:22.114945,-88.0
2023-08-12 14:58:22.122635,-88.0
2023-08-12 14:58:22.130325,-85.0
2023-08-12 14:58:22.138015,-80.0
2023-08-12 14:58:22.145705,-76.0
2023-08-12 14:58:22.153395,-85.0
2023-08-12 14:58:22.161085,-83.0
2023-08-12 14:58:22.168775,9.0
2023-08-12 14:58:22.176465,249.0
2023-08-12 14:58:22.184155,526.0
2023-08-12 14:58:22.191845,552.0
2023-08-12 14:58:22.199535,207.0
2023-08-12 14:58:22.207225,-152.0
2023-08-12 14:58:22.214915,-214.0
2023-08-12 14:58:22.222605,-178.0
2023-08-12 14:58:22.230295,-202.0
2023-08-12 14:58:22.237985,-166.0
2023-08-12 14:58:22.245675,-107.0
2023-08-12 14:58:22.253365,-119.0
2023-08-12 14:58:22.261055,-130.0
2023-08-12 14:58:22.268745,-104.0
2023-08-12 14:58:22.276435,-97.0
2023-08-12 14:58:22.284124,-97.0
2023-08-12 14:58:22.291814,-85.0
2023-08-12 14:58:22.299504,-76.0
2023-08-12 14:58:22.307194,-73.0
2023-08-12 14:58:22.314884,-66.0
2023-08-12 14:58:22.322574,-59.0
2023-08-12 14:58:22.330264,-47.0
2023-08-12 14:58:22.337954,-35.0
2023-08-12 14:58:22.345644,-28.0
2023-08-12 14:58:22.353334,-19.0
2023-08-12 14:58:22.361024,-2.0
2023-08-12 14:58:22.368714,16.0
2023-08-12 14:58:22.376404,33.0
2023-08-12 14:58:22.384094,49.0
2023-08-12 14:58:22.391784,66.0
2023-08-12 14:58:22.399474,76.0
2023-08-12 14:58:22.407164,78.0
2023-08-12 14:58:22.414854,76.0
2023-08-12 14:58:22.422544,71.0
2023-08-12 14:58:22.430234,57.0
2023-08-12 14:58:22.437924,30.0
2023-08-12 14:58:22.445614,2.0
2023-08-12 14:58:22.453304,-33.0
2023-08-12 14:58:22.460994,-73.0
2023-08-12 14:58:22.468684,-104.0
2023-08-12 14:58:22.476374,-123.0
2023-08-12 14:58:22.484064,-140.0
2023-08-12 14:58:22.491754,-149.0
2023-08-12 14:58:22.499444,-149.0
2023-08-12 14:58:22.507133,-149.0
2023-08-12 14:58:22.514823,-152.0
2023-08-12 14:58:22.522513,-157.0
2023-08-12 14:58:22.530203,-154.0
2023-08-12 14:58:22.537893,-147.0
2023-08-12 14:58:22.545583,-142.0
2023-08-12 14:58:22.553273,-135.0
2023-08-12 14:58:22.560963,-128.0
2023-08-12 14:58:22.568653,-126.0
2023-08-12 14:58:22.576343,-121.0
2023-08-12 14:58:22.584033,-111.0
2023-08-12 14:58:22.591723,-107.0
2023-08-12 14:58:22.599413,-104.0
2023-08-12 14:58:22.607103,-97.0
2023-08-12 14:58:22.614793,-95.0
2023-08-12 14:58:22.622483,-95.0
2023-08-12 14:58:22.630173,-90.0
2023-08-12 14:58:22.637863,-88.0
2023-08-12 14:58:22.645553,-88.0
2023-08-12 14:58:22.653243,-88.0
2023-08-12 14:58:22.660933,-90.0
2023-08-12 14:58:22.668623,-88.0
2023-08-12 14:58:22.676313,-83.0
2023-08-12 14:58:22.684003,-85.0
2023-08-12 14:58:22.691693,-88.0
2023-08-12 14:58:22.699383,-83.0
2023-08-12 14:58:22.707073,-78.0
2023-08-12 14:58:22.714763,-83.0
2023-08-12 14:58:22.722453,-83.0
2023-08-12 14:58:22.730142,-83.0
2023-08-12 14:58:22.737832,-85.0
2023-08-12 14:58:22.745522,-88.0
2023-08-12 14:58:22.753212,-88.0
2023-08-12 14:58:22.760902,-95.0
2023-08-12 14:58:22.768592,-92.0
2023-08-12 14:58:22.776282,-83.0
2023-08-12 14:58:22.783972,-83.0
2023-08-12 14:58:22.791662,-85.0
2023-08-12 14:58:22.799352,-80.0
2023-08-12 14:58:22.807042,-78.0
2023-08-12 14:58:22.814732,-78.0
2023-08-12 14:58:22.822422,-80.0
2023-08-12 14:58:22.830112,-78.0
2023-08-12 14:58:22.837802,-73.0
2023-08-12 14:58:22.845492,-76.0
2023-08-12 14:58:22.853182,-78.0
2023-08-12 14:58:22.860872,-69.0
2023-08-12 14:58:22.868562,-64.0
2023-08-12 14:58:22.876252,-66.0
2023-08-12 14:58:22.883942,-52.0
2023-08-12 14:58:22.891632,-38.0
2023-08-12 14:58:22.899322,-38.0
2023-08-12 14:58:22.907012,-38.0
2023-08-12 14:58:22.914702,-42.0
2023-08-12 14:58:22.922392,-45.0
2023-08-12 14:58:22.930082,-45.0
2023-08-12 14:58:22.937772,-54.0
2023-08-12 14:58:22.945462,-69.0
2023-08-12 14:58:22.953151,-78.0
2023-08-12 14:58:22.960841,-83.0
2023-08-12 14:58:22.968531,-83.0
2023-08-12 14:58:22.976221,-76.0
2023-08-12 14:58:22.983911,-76.0
2023-08-12 14:58:22.991601,-85.0
2023-08-12 14:58:22.999291,-85.0
2023-08-12 14:58:23.006981,-21.0
2023-08-12 14:58:23.014671,180.0
2023-08-12 14:58:23.022361,464.0
2023-08-12 14:58:23.030051,578.0
2023-08-12 14:58:23.037741,314.0
2023-08-12 14:58:23.045431,-85.0
2023-08-12 14:58:23.053121,-216.0
2023-08-12 14:58:23.060811,-169.0
2023-08-12 14:58:23.068501,-188.0
2023-08-12 14:58:23.076191,-178.0
2023-08-12 14:58:23.083881,-109.0
2023-08-12 14:58:23.091571,-99.0
2023-08-12 14:58:23.099261,-116.0
2023-08-12 14:58:23.106951,-102.0
2023-08-12 14:58:23.114641,-92.0
2023-08-12 14:58:23.122331,-88.0
2023-08-12 14:58:23.130021,-76.0
2023-08-12 14:58:23.137711,-64.0
2023-08-12 14:58:23.145401,-64.0
2023-08-12 14:58:23.153091,-61.0
2023-08-12 14:58:23.160781,-52.0
2023-08-12 14:58:23.168471,-40.0
2023-08-12 14:58:23.176161,-28.0
2023-08-12 14:58:23.183850,-16.0
2023-08-12 14:58:23.191540,-4.0
2023-08-12 14:58:23.199230,4.0
2023-08-12 14:58:23.206920,14.0
2023-08-12 14:58:23.214610,26.0
2023-08-12 14:58:23.222300,45.0
2023-08-12 14:58:23.229990,59.0
2023-08-12 14:58:23.237680,64.0
2023-08-12 14:58:23.245370,69.0
2023-08-12 14:58:23.253060,69.0
2023-08-12 14:58:23.260750,61.0
2023-08-12 14:58:23.268440,49.0
2023-08-12 14:58:23.276130,33.0
2023-08-12 14:58:23.283820,9.0
2023-08-12 14:58:23.291510,-35.0
2023-08-12 14:58:23.299200,-80.0
2023-08-12 14:58:23.306890,-107.0
2023-08-12 14:58:23.314580,-123.0
2023-08-12 14:58:23.322270,-138.0
2023-08-12 14:58:23.329960,-147.0
2023-08-12 14:58:23.337650,-152.0
2023-08-12 14:58:23.345340,-154.0
2023-08-12 14:58:23.353030,-149.0
2023-08-12 14:58:23.360720,-140.0
2023-08-12 14:58:23.368410,-133.0
2023-08-12 14:58:23.376100,-133.0
2023-08-12 14:58:23.383790,-133.0
2023-08-12 14:58:23.391480,-126.0
2023-08-12 14:58:23.399170,-114.0
2023-08-12 14:58:23.406859,-109.0
2023-08-12 14:58:23.414549,-109.0
2023-08-12 14:58:23.422239,-104.0
2023-08-12 14:58:23.429929,-99.0
2023-08-12 14:58:23.437619,-99.0
2023-08-12 14:58:23.445309,-92.0
2023-08-12 14:58:23.452999,-90.0
2023-08-12 14:58:23.460689,-90.0
2023-08-12 14:58:23.468379,-88.0
2023-08-12 14:58:23.476069,-83.0
2023-08-12 14:58:23.483759,-85.0
2023-08-12 14:58:23.491449,-85.0
2023-08-12 14:58:23.499139,-85.0
2023-08-12 14:58:23.506829,-80.0
2023-08-12 14:58:23.514519,-80.0
2023-08-12 14:58:23.522209,-85.0
2023-08-12 14:58:23.529899,-90.0
2023-08-12 14:58:23.537589,-85.0
2023-08-12 14:58:23.545279,-83.0
2023-08-12 14:58:23.552969,-83.0
2023-08-12 14:58:23.560659,-80.0
2023-08-12 14:58:23.568349,-78.0
2023-08-12 14:58:23.576039,-78.0
2023-08-12 14:58:23.583729,-76.0
2023-08-12 14:58:23.591419,-71.0
2023-08-12 14:58:23.599109,-71.0
2023-08-12 14:58:23.606799,-73.0
2023-08-12 14:58:23.614489,-69.0
2023-08-12 14:58:23.622179,-69.0
2023-08-12 14:58:23.629868,-69.0
2023-08-12 14:58:23.637558,-64.0
2023-08-12 14:58:23.645248,-61.0
2023-08-12 14:58:23.652938,-66.0
2023-08-12 14:58:23.660628,-69.0
2023-08-12 14:58:23.668318,-66.0
2023-08-12 14:58:23.676008,-64.0
2023-08-12 14:58:23.683698,-61.0
2023-08-12 14:58:23.691388,-66.0
2023-08-12 14:58:23.699078,-66.0
2023-08-12 14:58:23.706768,-64.0
2023-08-12 14:58:23.714458,-66.0
2023-08-12 14:58:23.722148,-69.0
2023-08-12 14:58:23.729838,-69.0
2023-08-12 14:58:23.737528,-69.0
2023-08-12 14:58:23.745218,-64.0
2023-08-12 14:58:23.752908,-59.0
2023-08-12 14:58:23.760598,-57.0
2023-08-12 14:58:23.768288,-47.0
2023-08-12 14:58:23.775978,-35.0
2023-08-12 14:58:23.783668,-33.0
2023-08-12 14:58:23.791358,-33.0
2023-08-12 14:58:23.799048,-35.0
2023-08-12 14:58:23.806738,-38.0
2023-08-12 14:58:23.814428,-38.0
2023-08-12 14:58:23.822118,-42.0
2023-08-12 14:58:23.829808,-57.0
2023-08-12 14:58:23.837498,-71.0
2023-08-12 14:58:23.845188,-78.0
2023-08-12 14:58:23.852877,-78.0
2023-08-12 14:58:23.860567,-73.0
2023-08-12 14:58:23.868257,-71.0
2023-08-12 14:58:23.875947,-76.0
2023-08-12 14:58:23.883637,-92.0
2023-08-12 14:58:23.891327,-73.0
2023-08-12 14:58:23.899017,57.0
2023-08-12 14:58:23.906707,314.0
2023-08-12 14:58:23.914397,542.0
2023-08-12 14:58:23.922087,497.0
2023-08-12 14:58:23.929777,138.0
2023-08-12 14:58:23.937467,-171.0
2023-08-12 14:58:23.945157,-192.0
2023-08-12 14:58:23.952847,-159.0
2023-08-12 14:58:23.960537,-173.0
2023-08-12 14:58:23.968227,-135.0
2023-08-12 14:58:23.975917,-102.0
2023-08-12 14:58:23.983607,-119.0
2023-08-12 14:58:23.991297,-114.0
2023-08-12 14:58:23.998987,-97.0
2023-08-12 14:58:24.006677,-92.0
2023-08-12 14:58:24.014367,-88.0
2023-08-12 14:58:24.022057,-80.0
2023-08-12 14:58:24.029747,-78.0
2023-08-12 14:58:24.037437,-76.0
2023-08-12 14:58:24.045127,-64.0
2023-08-12 14:58:24.052817,-49.0
2023-08-12 14:58:24.060507,-45.0
2023-08-12 14:58:24.068197,-38.0
2023-08-12 14:58:24.075887,-21.0
2023-08-12 14:58:24.083576,-9.0
2023-08-12 14:58:24.091266,0.0
2023-08-12 14:58:24.098956,14.0
2023-08-12 14:58:24.106646,26.0
2023-08-12 14:58:24.114336,33.0
2023-08-12 14:58:24.122026,45.0
2023-08-12 14:58:24.129716,57.0
2023-08-12 14:58:24.137406,57.0
2023-08-12 14:58:24.145096,49.0
2023-08-12 14:58:24.152786,42.0
2023-08-12 14:58:24.160476,33.0
2023-08-12 14:58:24.168166,9.0
2023-08-12 14:58:24.175856,-21.0
2023-08-12 14:58:24.183546,-47.0
2023-08-12 14:58:24.191236,-78.0
2023-08-12 14:58:24.198926,-104.0
2023-08-12 14:58:24.206616,-121.0
2023-08-12 14:58:24.214306,-133.0
2023-08-12 14:58:24.221996,-145.0
2023-08-12 14:58:24.229686,-145.0
2023-08-12 14:58:24.237376,-142.0
2023-08-12 14:58:24.245066,-140.0
2023-08-12 14:58:24.252756,-135.0
2023-08-12 14:58:24.260446,-126.0
2023-08-12 14:58:24.268136,-114.0
2023-08-12 14:58:24.275826,-116.0
2023-08-12 14:58:24.283516,-121.0
2023-08-12 14:58:24.291206,-114.0
2023-08-12 14:58:24.298896,-109.0
2023-08-12 14:58:24.306585,-109.0
2023-08-12 14:58:24.314275,-104.0
2023-08-12 14:58:24.321965,-99.0
2023-08-12 14:58:24.329655,-95.0
2023-08-12 14:58:24.337345,-92.0
2023-08-12 14:58:24.345035,-92.0
2023-08-12 14:58:24.352725,-95.0
2023-08-12 14:58:24.360415,-90.0
2023-08-12 14:58:24.368105,-85.0
2023-08-12 14:58:24.375795,-90.0
2023-08-12 14:58:24.383485,-92.0
2023-08-12 14:58:24.391175,-88.0
2023-08-12 14:58:24.398865,-80.0
2023-08-12 14:58:24.406555,-83.0
2023-08-12 14:58:24.414245,-90.0
2023-08-12 14:58:24.421935,-99.0
2023-08-12 14:58:24.429625,-97.0
2023-08-12 14:58:24.437315,-85.0
2023-08-12 14:58:24.445005,-83.0
2023-08-12 14:58:24.452695,-90.0
2023-08-12 14:58:24.460385,-88.0
2023-08-12 14:58:24.468075,-83.0
2023-08-12 14:58:24.475765,-88.0
2023-08-12 14:58:24.483455,-88.0
2023-08-12 14:58:24.491145,-85.0
2023-08-12 14:58:24.498835,-80.0
2023-08-12 14:58:24.506525,-76.0
2023-08-12 14:58:24.514215,-78.0
2023-08-12 14:58:24.521905,-78.0
2023-08-12 14:58:24.529594,-78.0
2023-08-12 14:58:24.537284,-80.0
2023-08-12 14:58:24.544974,-88.0
2023-08-12 14:58:24.552664,-92.0
2023-08-12 14:58:24.560354,-85.0
2023-08-12 14:58:24.568044,-78.0
2023-08-12 14:58:24.575734,-83.0
2023-08-12 14:58:24.583424,-85.0
2023-08-12 14:58:24.591114,-80.0
2023-08-12 14:58:24.598804,-78.0
2023-08-12 14:58:24.606494,-78.0
2023-08-12 14:58:24.614184,-76.0
2023-08-12 14:58:24.621874,-76.0
2023-08-12 14:58:24.629564,-73.0
2023-08-12 14:58:24.637254,-69.0
2023-08-12 14:58:24.644944,-71.0
2023-08-12 14:58:24.652634,-71.0
2023-08-12 14:58:24.660324,-64.0
2023-08-12 14:58:24.668014,-54.0
2023-08-12 14:58:24.675704,-45.0
2023-08-12 14:58:24.683394,-33.0
2023-08-12 14:58:24.691084,-35.0
2023-08-12 14:58:24.698774,-47.0
2023-08-12 14:58:24.706464,-49.0
2023-08-12 14:58:24.714154,-59.0
2023-08-12 14:58:24.721844,-76.0
2023-08-12 14:58:24.729534,-83.0
2023-08-12 14:58:24.737224,-88.0
2023-08-12 14:58:24.744914,-95.0
2023-08-12 14:58:24.752603,-90.0
2023-08-12 14:58:24.760293,-83.0
2023-08-12 14:58:24.767983,-88.0
2023-08-12 14:58:24.775673,-95.0
2023-08-12 14:58:24.783363,-85.0
2023-08-12 14:58:24.791053,-7.0
2023-08-12 14:58:24.798743,204.0
2023-08-12 14:58:24.806433,487.0
2023-08-12 14:58:24.814123,583.0
2023-08-12 14:58:24.821813,297.0
2023-08-12 14:58:24.829503,-92.0
2023-08-12 14:58:24.837193,-199.0
2023-08-12 14:58:24.844883,-157.0
2023-08-12 14:58:24.852573,-185.0
2023-08-12 14:58:24.860263,-173.0
2023-08-12 14:58:24.867953,-109.0
2023-08-12 14:58:24.875643,-109.0
2023-08-12 14:58:24.883333,-116.0
2023-08-12 14:58:24.891023,-88.0
2023-08-12 14:58:24.898713,-80.0
2023-08-12 14:58:24.906403,-88.0
2023-08-12 14:58:24.914093,-78.0
2023-08-12 14:58:24.921783,-61.0
2023-08-12 14:58:24.929473,-54.0
2023-08-12 14:58:24.937163,-52.0
2023-08-12 14:58:24.944853,-45.0
2023-08-12 14:58:24.952543,-42.0
2023-08-12 14:58:24.960233,-42.0
2023-08-12 14:58:24.967923,-35.0
2023-08-12 14:58:24.975613,-16.0
2023-08-12 14:58:24.983302,-2.0
2023-08-12 14:58:24.990992,7.0
2023-08-12 14:58:24.998682,23.0
2023-08-12 14:58:25.006372,33.0
2023-08-12 14:58:25.014062,35.0
2023-08-12 14:58:25.021752,49.0
2023-08-12 14:58:25.029442,66.0
2023-08-12 14:58:25.037132,66.0
2023-08-12 14:58:25.044822,52.0
2023-08-12 14:58:25.052512,33.0
2023-08-12 14:58:25.060202,16.0
2023-08-12 14:58:25.067892,0.0
2023-08-12 14:58:25.075582,-38.0
2023-08-12 14:58:25.083272,-83.0
2023-08-12 14:58:25.090962,-107.0
2023-08-12 14:58:25.098652,-123.0
2023-08-12 14:58:25.106342,-142.0
2023-08-12 14:58:25.114032,-154.0
2023-08-12 14:58:25.121722,-159.0
2023-08-12 14:58:25.129412,-154.0
2023-08-12 14:58:25.137102,-149.0
2023-08-12 14:58:25.144792,-152.0
2023-08-12 14:58:25.152482,-147.0
2023-08-12 14:58:25.160172,-135.0
2023-08-12 14:58:25.167862,-128.0
2023-08-12 14:58:25.175552,-123.0
2023-08-12 14:58:25.183242,-123.0
2023-08-12 14:58:25.190932,-123.0
2023-08-12 14:58:25.198622,-111.0
2023-08-12 14:58:25.206311,-107.0
2023-08-12 14:58:25.214001,-111.0
2023-08-12 14:58:25.221691,-107.0
2023-08-12 14:58:25.229381,-102.0
2023-08-12 14:58:25.237071,-97.0
2023-08-12 14:58:25.244761,-90.0
2023-08-12 14:58:25.252451,-90.0
2023-08-12 14:58:25.260141,-90.0
2023-08-12 14:58:25.267831,-92.0
2023-08-12 14:58:25.275521,-92.0
2023-08-12 14:58:25.283211,-92.0
2023-08-12 14:58:25.290901,-88.0
2023-08-12 14:58:25.298591,-85.0
2023-08-12 14:58:25.306281,-85.0
2023-08-12 14:58:25.313971,-90.0
2023-08-12 14:58:25.321661,-92.0
2023-08-12 14:58:25.329351,-90.0
2023-08-12 14:58:25.337041,-80.0
2023-08-12 14:58:25.344731,-78.0
2023-08-12 14:58:25.352421,-88.0
2023-08-12 14:58:25.360111,-85.0
2023-08-12 14:58:25.367801,-78.0
2023-08-12 14:58:25.375491,-78.0
2023-08-12 14:58:25.383181,-76.0
2023-08-12 14:58:25.390871,-71.0
2023-08-12 14:58:25.398561,-78.0
2023-08-12 14:58:25.406251,-80.0
2023-08-12 14:58:25.413941,-78.0
2023-08-12 14:58:25.421631,-73.0
2023-08-12 14:58:25.429320,-73.0
2023-08-12 14:58:25.437010,-76.0
2023-08-12 14:58:25.444700,-76.0
2023-08-12 14:58:25.452390,-76.0
2023-08-12 14:58:25.460080,-78.0
2023-08-12 14:58:25.467770,-71.0
2023-08-12 14:58:25.475460,-66.0
2023-08-12 14:58:25.483150,-59.0
2023-08-12 14:58:25.490840,-42.0
2023-08-12 14:58:25.498530,-35.0
2023-08-12 14:58:25.506220,-40.0
2023-08-12 14:58:25.513910,-45.0
2023-08-12 14:58:25.521600,-45.0
2023-08-12 14:58:25.529290,-52.0
2023-08-12 14:58:25.536980,-59.0
2023-08-12 14:58:25.544670,-69.0
2023-08-12 14:58:25.552360,-85.0
2023-08-12 14:58:25.560050,-99.0
2023-08-12 14:58:25.567740,-95.0
2023-08-12 14:58:25.575430,-92.0
2023-08-12 14:58:25.583120,-95.0
2023-08-12 14:58:25.590810,-92.0
2023-08-12 14:58:25.598500,-97.0
2023-08-12 14:58:25.606190,-80.0
2023-08-12 14:58:25.613880,40.0
2023-08-12 14:58:25.621570,304.0
2023-08-12 14:58:25.629260,564.0
2023-08-12 14:58:25.636950,516.0
2023-08-12 14:58:25.644640,126.0
2023-08-12 14:58:25.652329,-190.0
2023-08-12 14:58:25.660019,-197.0
2023-08-12 14:58:25.667709,-169.0
2023-08-12 14:58:25.675399,-204.0
2023-08-12 14:58:25.683089,-164.0
2023-08-12 14:58:25.690779,-109.0
2023-08-12 14:58:25.698469,-126.0
2023-08-12 14:58:25.706159,-130.0
2023-08-12 14:58:25.713849,-102.0
2023-08-12 14:58:25.721539,-97.0
2023-08-12 14:58:25.729229,-102.0
2023-08-12 14:58:25.736919,-92.0
2023-08-12 14:58:25.744609,-80.0
2023-08-12 14:58:25.752299,-69.0
2023-08-12 14:58:25.759989,-59.0
2023-08-12 14:58:25.767679,-47.0
2023-08-12 14:58:25.775369,-42.0
2023-08-12 14:58:25.783059,-38.0
2023-08-12 14:58:25.790749,-26.0
2023-08-12 14:58:25.798439,-11.0
2023-08-12 14:58:25.806129,0.0
2023-08-12 14:58:25.813819,16.0
2023-08-12 14:58:25.821509,33.0
2023-08-12 14:58:25.829199,45.0
2023-08-12 14:58:25.836889,54.0
2023-08-12 14:58:25.844579,66.0
2023-08-12 14:58:25.852269,76.0
2023-08-12 14:58:25.859959,71.0
2023-08-12 14:58:25.867649,54.0
2023-08-12 14:58:25.875339,38.0
2023-08-12 14:58:25.883028,19.0
2023-08-12 14:58:25.890718,-11.0
2023-08-12 14:58:25.898408,-47.0
2023-08-12 14:58:25.906098,-83.0
2023-08-12 14:58:25.913788,-114.0
2023-08-12 14:58:25.921478,-128.0
2023-08-12 14:58:25.929168,-133.0
2023-08-12 14:58:25.936858,-145.0
2023-08-12 14:58:25.944548,-152.0
2023-08-12 14:58:25.952238,-152.0
2023-08-12 14:58:25.959928,-147.0
2023-08-12 14:58:25.967618,-142.0
2023-08-12 14:58:25.975308,-135.0
2023-08-12 14:58:25.982998,-130.0
2023-08-12 14:58:25.990688,-126.0
2023-08-12 14:58:25.998378,-119.0
2023-08-12 14:58:26.006068,-119.0
2023-08-12 14:58:26.013758,-116.0
2023-08-12 14:58:26.021448,-107.0
2023-08-12 14:58:26.029138,-99.0
2023-08-12 14:58:26.036828,-97.0
2023-08-12 14:58:26.044518,-97.0
2023-08-12 14:58:26.052208,-97.0
2023-08-12 14:58:26.059898,-99.0
2023-08-12 14:58:26.067588,-99.0
2023-08-12 14:58:26.075278,-90.0
2023-08-12 14:58:26.082968,-90.0
2023-08-12 14:58:26.090658,-92.0
2023-08-12 14:58:26.098348,-90.0
2023-08-12 14:58:26.106037,-88.0
2023-08-12 14:58:26.113727,-88.0
2023-08-12 14:58:26.121417,-88.0
2023-08-12 14:58:26.129107,-95.0
2023-08-12 14:58:26.136797,-99.0
2023-08-12 14:58:26.144487,-95.0
2023-08-12 14:58:26.152177,-90.0
2023-08-12 14:58:26.159867,-92.0
2023-08-12 14:58:26.167557,-92.0
2023-08-12 14:58:26.175247,-90.0
2023-08-12 14:58:26.182937,-88.0
2023-08-12 14:58:26.190627,-88.0
2023-08-12 14:58:26.198317,-88.0
2023-08-12 14:58:26.206007,-85.0
2023-08-12 14:58:26.213697,-83.0
2023-08-12 14:58:26.221387,-85.0
2023-08-12 14:58:26.229077,-83.0
2023-08-12 14:58:26.236767,-80.0
2023-08-12 14:58:26.244457,-80.0
2023-08-12 14:58:26.252147,-80.0
2023-08-12 14:58:26.259837,-76.0
2023-08-12 14:58:26.267527,-73.0
2023-08-12 14:58:26.275217,-73.0
2023-08-12 14:58:26.282907,-76.0
2023-08-12 14:58:26.290597,-76.0
2023-08-12 14:58:26.298287,-71.0
2023-08-12 14:58:26.305977,-64.0
2023-08-12 14:58:26.313667,-59.0
2023-08-12 14:58:26.321357,-52.0
2023-08-12 14:58:26.329046,-38.0
2023-08-12 14:58:26.336736,-30.0
2023-08-12 14:58:26.344426,-33.0
2023-08-12 14:58:26.352116,-35.0
2023-08-12 14:58:26.359806,-42.0
2023-08-12 14:58:26.367496,-45.0
2023-08-12 14:58:26.375186,-42.0
2023-08-12 14:58:26.382876,-57.0
2023-08-12 14:58:26.390566,-76.0
2023-08-12 14:58:26.398256,-83.0
2023-08-12 14:58:26.405946,-83.0
2023-08-12 14:58:26.413636,-80.0
2023-08-12 14:58:26.421326,-80.0
2023-08-12 14:58:26.429016,-83.0
2023-08-12 14:58:26.436706,-88.0
2023-08-12 14:58:26.444396,-78.0
2023-08-12 14:58:26.452086,9.0
2023-08-12 14:58:26.459776,230.0
2023-08-12 14:58:26.467466,495.0
2023-08-12 14:58:26.475156,547.0
2023-08-12 14:58:26.482846,252.0
2023-08-12 14:58:26.490536,-109.0
2023-08-12 14:58:26.498226,-207.0
2023-08-12 14:58:26.505916,-169.0
2023-08-12 14:58:26.513606,-180.0
2023-08-12 14:58:26.521296,-154.0
2023-08-12 14:58:26.528986,-99.0
2023-08-12 14:58:26.536676,-104.0
2023-08-12 14:58:26.544366,-111.0
2023-08-12 14:58:26.552055,-92.0
2023-08-12 14:58:26.559745,-92.0
2023-08-12 14:58:26.567435,-97.0
2023-08-12 14:58:26.575125,-83.0
2023-08-12 14:58:26.582815,-71.0
2023-08-12 14:58:26.590505,-66.0
2023-08-12 14:58:26.598195,-59.0
2023-08-12 14:58:26.605885,-49.0
2023-08-12 14:58:26.613575,-40.0
2023-08-12 14:58:26.621265,-28.0
2023-08-12 14:58:26.628955,-21.0
2023-08-12 14:58:26.636645,-14.0
2023-08-12 14:58:26.644335,-2.0
2023-08-12 14:58:26.652025,14.0
2023-08-12 14:58:26.659715,28.0
2023-08-12 14:58:26.667405,40.0
2023-08-12 14:58:26.675095,52.0
2023-08-12 14:58:26.682785,59.0
2023-08-12 14:58:26.690475,64.0
2023-08-12 14:58:26.698165,64.0
2023-08-12 14:58:26.705855,49.0
2023-08-12 14:58:26.713545,33.0
2023-08-12 14:58:26.721235,7.0
2023-08-12 14:58:26.728925,-21.0
2023-08-12 14:58:26.736615,-49.0
2023-08-12 14:58:26.744305,-80.0
2023-08-12 14:58:26.751995,-111.0
2023-08-12 14:58:26.759685,-133.0
2023-08-12 14:58:26.767375,-152.0
2023-08-12 14:58:26.775065,-154.0
2023-08-12 14:58:26.782754,-149.0
2023-08-12 14:58:26.790444,-149.0
2023-08-12 14:58:26.798134,-149.0
2023-08-12 14:58:26.805824,-145.0
2023-08-12 14:58:26.813514,-135.0
2023-08-12 14:58:26.821204,-126.0
2023-08-12 14:58:26.828894,-123.0
2023-08-12 14:58:26.836584,-126.0
2023-08-12 14:58:26.844274,-121.0
2023-08-12 14:58:26.851964,-114.0
2023-08-12 14:58:26.859654,-109.0
2023-08-12 14:58:26.867344,-107.0
2023-08-12 14:58:26.875034,-99.0
2023-08-12 14:58:26.882724,-92.0
2023-08-12 14:58:26.890414,-95.0
2023-08-12 14:58:26.898104,-97.0
2023-08-12 14:58:26.905794,-95.0
2023-08-12 14:58:26.913484,-92.0
2023-08-12 14:58:26.921174,-90.0
2023-08-12 14:58:26.928864,-92.0
2023-08-12 14:58:26.936554,-90.0
2023-08-12 14:58:26.944244,-85.0
2023-08-12 14:58:26.951934,-85.0
2023-08-12 14:58:26.959624,-85.0
2023-08-12 14:58:26.967314,-83.0
2023-08-12 14:58:26.975004,-80.0
2023-08-12 14:58:26.982694,-83.0
2023-08-12 14:58:26.990384,-83.0
2023-08-12 14:58:26.998074,-78.0
2023-08-12 14:58:27.005763,-78.0
2023-08-12 14:58:27.013453,-78.0
2023-08-12 14:58:27.021143,-76.0
2023-08-12 14:58:27.028833,-76.0
2023-08-12 14:58:27.036523,-71.0
2023-08-12 14:58:27.044213,-64.0
2023-08-12 14:58:27.051903,-64.0
2023-08-12 14:58:27.059593,-69.0
2023-08-12 14:58:27.067283,-76.0
2023-08-12 14:58:27.074973,-78.0
2023-08-12 14:58:27.082663,-76.0
2023-08-12 14:58:27.090353,-76.0
2023-08-12 14:58:27.098043,-76.0
2023-08-12 14:58:27.105733,-69.0
2023-08-12 14:58:27.113423,-69.0
2023-08-12 14:58:27.121113,-76.0
2023-08-12 14:58:27.128803,-76.0
2023-08-12 14:58:27.136493,-69.0
2023-08-12 14:58:27.144183,-69.0
2023-08-12 14:58:27.151873,-66.0
2023-08-12 14:58:27.159563,-59.0
2023-08-12 14:58:27.167253,-59.0
2023-08-12 14:58:27.174943,-64.0
2023-08-12 14:58:27.182633,-52.0
2023-08-12 14:58:27.190323,-30.0
2023-08-12 14:58:27.198013,-26.0
2023-08-12 14:58:27.205703,-35.0
2023-08-12 14:58:27.213393,-57.0
2023-08-12 14:58:27.221083,-66.0
2023-08-12 14:58:27.228772,-59.0
2023-08-12 14:58:27.236462,-66.0
2023-08-12 14:58:27.244152,-85.0
2023-08-12 14:58:27.251842,-92.0
2023-08-12 14:58:27.259532,-92.0
2023-08-12 14:58:27.267222,-92.0
2023-08-12 14:58:27.274912,-95.0
2023-08-12 14:58:27.282602,-90.0
2023-08-12 14:58:27.290292,-85.0
2023-08-12 14:58:27.297982,-85.0
2023-08-12 14:58:27.305672,-28.0
2023-08-12 14:58:27.313362,171.0
2023-08-12 14:58:27.321052,447.0
2023-08-12 14:58:27.328742,561.0
2023-08-12 14:58:27.336432,323.0
2023-08-12 14:58:27.344122,-64.0
2023-08-12 14:58:27.351812,-207.0
2023-08-12 14:58:27.359502,-164.0
2023-08-12 14:58:27.367192,-178.0
2023-08-12 14:58:27.374882,-166.0
2023-08-12 14:58:27.382572,-104.0
2023-08-12 14:58:27.390262,-104.0
2023-08-12 14:58:27.397952,-121.0
2023-08-12 14:58:27.405642,-97.0
2023-08-12 14:58:27.413332,-83.0
2023-08-12 14:58:27.421022,-90.0
2023-08-12 14:58:27.428712,-83.0
2023-08-12 14:58:27.436402,-71.0
2023-08-12 14:58:27.444092,-66.0
2023-08-12 14:58:27.451781,-54.0
2023-08-12 14:58:27.459471,-40.0
2023-08-12 14:58:27.467161,-35.0
2023-08-12 14:58:27.474851,-33.0
2023-08-12 14:58:27.482541,-21.0
2023-08-12 14:58:27.490231,-4.0
2023-08-12 14:58:27.497921,7.0
2023-08-12 14:58:27.505611,19.0
2023-08-12 14:58:27.513301,28.0
2023-08-12 14:58:27.520991,45.0
2023-08-12 14:58:27.528681,61.0
2023-08-12 14:58:27.536371,73.0
2023-08-12 14:58:27.544061,78.0
2023-08-12 14:58:27.551751,78.0
2023-08-12 14:58:27.559441,69.0
2023-08-12 14:58:27.567131,54.0
2023-08-12 14:58:27.574821,35.0
2023-08-12 14:58:27.582511,9.0
2023-08-12 14:58:27.590201,-28.0
2023-08-12 14:58:27.597891,-66.0
2023-08-12 14:58:27.605581,-90.0
2023-08-12 14:58:27.613271,-114.0
2023-08-12 14:58:27.620961,-133.0
2023-08-12 14:58:27.628651,-140.0
2023-08-12 14:58:27.636341,-140.0
2023-08-12 14:58:27.644031,-140.0
2023-08-12 14:58:27.651721,-135.0
2023-08-12 14:58:27.659411,-135.0
2023-08-12 14:58:27.667101,-133.0
2023-08-12 14:58:27.674791,-128.0
2023-08-12 14:58:27.682480,-121.0
2023-08-12 14:58:27.690170,-114.0
2023-08-12 14:58:27.697860,-109.0
2023-08-12 14:58:27.705550,-109.0
2023-08-12 14:58:27.713240,-107.0
2023-08-12 14:58:27.720930,-99.0
2023-08-12 14:58:27.728620,-90.0
2023-08-12 14:58:27.736310,-88.0
2023-08-12 14:58:27.744000,-90.0
2023-08-12 14:58:27.751690,-90.0
2023-08-12 14:58:27.759380,-85.0
2023-08-12 14:58:27.767070,-85.0
2023-08-12 14:58:27.774760,-85.0
2023-08-12 14:58:27.782450,-85.0
2023-08-12 14:58:27.790140,-85.0
2023-08-12 14:58:27.797830,-88.0
2023-08-12 14:58:27.805520,-88.0
2023-08-12 14:58:27.813210,-85.0
2023-08-12 14:58:27.820900,-85.0
2023-08-12 14:58:27.828590,-85.0
2023-08-12 14:58:27.836280,-88.0
2023-08-12 14:58:27.843970,-92.0
