time,ECG
2023-08-10 10:57:36.586593,-81.0
2023-08-10 10:57:36.594283,-95.0
2023-08-10 10:57:36.601973,-74.0
2023-08-10 10:57:36.609663,-57.0
2023-08-10 10:57:36.617353,-50.0
2023-08-10 10:57:36.625043,-35.0
2023-08-10 10:57:36.632733,-38.0
2023-08-10 10:57:36.640423,-52.0
2023-08-10 10:57:36.648113,-47.0
2023-08-10 10:57:36.655802,-45.0
2023-08-10 10:57:36.663492,-47.0
2023-08-10 10:57:36.671182,-31.0
2023-08-10 10:57:36.678872,-23.0
2023-08-10 10:57:36.686562,-93.0
2023-08-10 10:57:36.694252,-275.0
2023-08-10 10:57:36.701942,-507.0
2023-08-10 10:57:36.709632,-696.0
2023-08-10 10:57:36.717322,-717.0
2023-08-10 10:57:36.725012,-425.0
2023-08-10 10:57:36.732702,-2.0
2023-08-10 10:57:36.740392,124.0
2023-08-10 10:57:36.748082,-4.0
2023-08-10 10:57:36.755772,-35.0
2023-08-10 10:57:36.763462,19.0
2023-08-10 10:57:36.771152,-11.0
2023-08-10 10:57:36.778841,-23.0
2023-08-10 10:57:36.786531,28.0
2023-08-10 10:57:36.794221,28.0
2023-08-10 10:57:36.801911,-23.0
2023-08-10 10:57:36.809601,-31.0
2023-08-10 10:57:36.817291,-7.0
2023-08-10 10:57:36.824981,-35.0
2023-08-10 10:57:36.832671,-55.0
2023-08-10 10:57:36.840361,-21.0
2023-08-10 10:57:36.848051,-26.0
2023-08-10 10:57:36.855741,-66.0
2023-08-10 10:57:36.863431,-66.0
2023-08-10 10:57:36.871121,-43.0
2023-08-10 10:57:36.878811,-71.0
2023-08-10 10:57:36.886501,-126.0
2023-08-10 10:57:36.894191,-131.0
2023-08-10 10:57:36.901880,-114.0
2023-08-10 10:57:36.909570,-136.0
2023-08-10 10:57:36.917260,-181.0
2023-08-10 10:57:36.924950,-189.0
2023-08-10 10:57:36.932640,-169.0
2023-08-10 10:57:36.940330,-193.0
2023-08-10 10:57:36.948020,-227.0
2023-08-10 10:57:36.955710,-248.0
2023-08-10 10:57:36.963400,-239.0
2023-08-10 10:57:36.971090,-196.0
2023-08-10 10:57:36.978780,-196.0
2023-08-10 10:57:36.986470,-200.0
2023-08-10 10:57:36.994160,-129.0
2023-08-10 10:57:37.001850,-59.0
2023-08-10 10:57:37.009540,-28.0
2023-08-10 10:57:37.017230,2.0
2023-08-10 10:57:37.024920,28.0
2023-08-10 10:57:37.032609,50.0
2023-08-10 10:57:37.040299,76.0
2023-08-10 10:57:37.047989,69.0
2023-08-10 10:57:37.055679,38.0
2023-08-10 10:57:37.063369,52.0
2023-08-10 10:57:37.071059,66.0
2023-08-10 10:57:37.078749,38.0
2023-08-10 10:57:37.086439,43.0
2023-08-10 10:57:37.094129,55.0
2023-08-10 10:57:37.101819,21.0
2023-08-10 10:57:37.109509,23.0
2023-08-10 10:57:37.117199,55.0
2023-08-10 10:57:37.124889,26.0
2023-08-10 10:57:37.132579,4.0
2023-08-10 10:57:37.140269,38.0
2023-08-10 10:57:37.147959,38.0
2023-08-10 10:57:37.155648,0.0
2023-08-10 10:57:37.163338,-11.0
2023-08-10 10:57:37.171028,4.0
2023-08-10 10:57:37.178718,2.0
2023-08-10 10:57:37.186408,0.0
2023-08-10 10:57:37.194098,7.0
2023-08-10 10:57:37.201788,0.0
2023-08-10 10:57:37.209478,-4.0
2023-08-10 10:57:37.217168,0.0
2023-08-10 10:57:37.224858,-9.0
2023-08-10 10:57:37.232548,-19.0
2023-08-10 10:57:37.240238,-19.0
2023-08-10 10:57:37.247928,-14.0
2023-08-10 10:57:37.255618,-7.0
2023-08-10 10:57:37.263308,-4.0
2023-08-10 10:57:37.270998,-2.0
2023-08-10 10:57:37.278688,4.0
2023-08-10 10:57:37.286377,-9.0
2023-08-10 10:57:37.294067,-26.0
2023-08-10 10:57:37.301757,-14.0
2023-08-10 10:57:37.309447,-11.0
2023-08-10 10:57:37.317137,-28.0
2023-08-10 10:57:37.324827,-23.0
2023-08-10 10:57:37.332517,-14.0
2023-08-10 10:57:37.340207,-19.0
2023-08-10 10:57:37.347897,0.0
2023-08-10 10:57:37.355587,16.0
2023-08-10 10:57:37.363277,-19.0
2023-08-10 10:57:37.370967,-43.0
2023-08-10 10:57:37.378657,-16.0
2023-08-10 10:57:37.386347,-4.0
2023-08-10 10:57:37.394037,-35.0
2023-08-10 10:57:37.401727,-57.0
2023-08-10 10:57:37.409416,-26.0
2023-08-10 10:57:37.417106,-21.0
2023-08-10 10:57:37.424796,-43.0
2023-08-10 10:57:37.432486,-21.0
2023-08-10 10:57:37.440176,-28.0
2023-08-10 10:57:37.447866,-69.0
2023-08-10 10:57:37.455556,-38.0
2023-08-10 10:57:37.463246,-2.0
2023-08-10 10:57:37.470936,-31.0
2023-08-10 10:57:37.478626,-50.0
2023-08-10 10:57:37.486316,-31.0
2023-08-10 10:57:37.494006,-26.0
2023-08-10 10:57:37.501696,-40.0
2023-08-10 10:57:37.509386,-38.0
2023-08-10 10:57:37.517076,-43.0
2023-08-10 10:57:37.524766,-52.0
2023-08-10 10:57:37.532456,-31.0
2023-08-10 10:57:37.540145,-33.0
2023-08-10 10:57:37.547835,-71.0
2023-08-10 10:57:37.555525,-66.0
2023-08-10 10:57:37.563215,-55.0
2023-08-10 10:57:37.570905,-66.0
2023-08-10 10:57:37.578595,-52.0
2023-08-10 10:57:37.586285,-28.0
2023-08-10 10:57:37.593975,-31.0
2023-08-10 10:57:37.601665,-26.0
2023-08-10 10:57:37.609355,-26.0
2023-08-10 10:57:37.617045,-31.0
2023-08-10 10:57:37.624735,-7.0
2023-08-10 10:57:37.632425,-11.0
2023-08-10 10:57:37.640115,-50.0
2023-08-10 10:57:37.647805,-40.0
2023-08-10 10:57:37.655495,-11.0
2023-08-10 10:57:37.663184,-52.0
2023-08-10 10:57:37.670874,-220.0
2023-08-10 10:57:37.678564,-473.0
2023-08-10 10:57:37.686254,-689.0
2023-08-10 10:57:37.693944,-741.0
2023-08-10 10:57:37.701634,-502.0
2023-08-10 10:57:37.709324,-62.0
2023-08-10 10:57:37.717014,150.0
2023-08-10 10:57:37.724704,40.0
2023-08-10 10:57:37.732394,-45.0
2023-08-10 10:57:37.740084,7.0
2023-08-10 10:57:37.747774,31.0
2023-08-10 10:57:37.755464,7.0
2023-08-10 10:57:37.763154,19.0
2023-08-10 10:57:37.770844,26.0
2023-08-10 10:57:37.778534,0.0
2023-08-10 10:57:37.786224,-16.0
2023-08-10 10:57:37.793913,-19.0
2023-08-10 10:57:37.801603,-19.0
2023-08-10 10:57:37.809293,-26.0
2023-08-10 10:57:37.816983,-43.0
2023-08-10 10:57:37.824673,-45.0
2023-08-10 10:57:37.832363,-33.0
2023-08-10 10:57:37.840053,-43.0
2023-08-10 10:57:37.847743,-83.0
2023-08-10 10:57:37.855433,-88.0
2023-08-10 10:57:37.863123,-76.0
2023-08-10 10:57:37.870813,-119.0
2023-08-10 10:57:37.878503,-143.0
2023-08-10 10:57:37.886193,-126.0
2023-08-10 10:57:37.893883,-167.0
2023-08-10 10:57:37.901573,-205.0
2023-08-10 10:57:37.909263,-184.0
2023-08-10 10:57:37.916952,-210.0
2023-08-10 10:57:37.924642,-258.0
2023-08-10 10:57:37.932332,-248.0
2023-08-10 10:57:37.940022,-246.0
2023-08-10 10:57:37.947712,-265.0
2023-08-10 10:57:37.955402,-236.0
2023-08-10 10:57:37.963092,-184.0
2023-08-10 10:57:37.970782,-155.0
2023-08-10 10:57:37.978472,-129.0
2023-08-10 10:57:37.986162,-71.0
2023-08-10 10:57:37.993852,-7.0
2023-08-10 10:57:38.001542,23.0
2023-08-10 10:57:38.009232,31.0
2023-08-10 10:57:38.016922,38.0
2023-08-10 10:57:38.024612,43.0
2023-08-10 10:57:38.032302,55.0
2023-08-10 10:57:38.039992,50.0
2023-08-10 10:57:38.047681,33.0
2023-08-10 10:57:38.055371,26.0
2023-08-10 10:57:38.063061,21.0
2023-08-10 10:57:38.070751,21.0
2023-08-10 10:57:38.078441,35.0
2023-08-10 10:57:38.086131,40.0
2023-08-10 10:57:38.093821,14.0
2023-08-10 10:57:38.101511,4.0
2023-08-10 10:57:38.109201,14.0
2023-08-10 10:57:38.116891,11.0
2023-08-10 10:57:38.124581,16.0
2023-08-10 10:57:38.132271,21.0
2023-08-10 10:57:38.139961,9.0
2023-08-10 10:57:38.147651,0.0
2023-08-10 10:57:38.155341,-2.0
2023-08-10 10:57:38.163031,7.0
2023-08-10 10:57:38.170720,2.0
2023-08-10 10:57:38.178410,-21.0
2023-08-10 10:57:38.186100,-14.0
2023-08-10 10:57:38.193790,4.0
2023-08-10 10:57:38.201480,-7.0
2023-08-10 10:57:38.209170,-11.0
2023-08-10 10:57:38.216860,2.0
2023-08-10 10:57:38.224550,-2.0
2023-08-10 10:57:38.232240,-21.0
2023-08-10 10:57:38.239930,-11.0
2023-08-10 10:57:38.247620,-2.0
2023-08-10 10:57:38.255310,-33.0
2023-08-10 10:57:38.263000,-47.0
2023-08-10 10:57:38.270690,-14.0
2023-08-10 10:57:38.278380,-9.0
2023-08-10 10:57:38.286070,-38.0
2023-08-10 10:57:38.293759,-43.0
2023-08-10 10:57:38.301449,-16.0
2023-08-10 10:57:38.309139,-9.0
2023-08-10 10:57:38.316829,-23.0
2023-08-10 10:57:38.324519,-21.0
2023-08-10 10:57:38.332209,-35.0
2023-08-10 10:57:38.339899,-64.0
2023-08-10 10:57:38.347589,-47.0
2023-08-10 10:57:38.355279,-11.0
2023-08-10 10:57:38.362969,-14.0
2023-08-10 10:57:38.370659,-28.0
2023-08-10 10:57:38.378349,-16.0
2023-08-10 10:57:38.386039,-7.0
2023-08-10 10:57:38.393729,-35.0
2023-08-10 10:57:38.401419,-47.0
2023-08-10 10:57:38.409109,-23.0
2023-08-10 10:57:38.416799,-26.0
2023-08-10 10:57:38.424488,-40.0
2023-08-10 10:57:38.432178,-28.0
2023-08-10 10:57:38.439868,-16.0
2023-08-10 10:57:38.447558,-23.0
2023-08-10 10:57:38.455248,-35.0
2023-08-10 10:57:38.462938,-33.0
2023-08-10 10:57:38.470628,-50.0
2023-08-10 10:57:38.478318,-64.0
2023-08-10 10:57:38.486008,-33.0
2023-08-10 10:57:38.493698,-19.0
2023-08-10 10:57:38.501388,-57.0
2023-08-10 10:57:38.509078,-71.0
2023-08-10 10:57:38.516768,-33.0
2023-08-10 10:57:38.524458,-23.0
2023-08-10 10:57:38.532148,-33.0
2023-08-10 10:57:38.539838,-19.0
2023-08-10 10:57:38.547527,-7.0
2023-08-10 10:57:38.555217,-9.0
2023-08-10 10:57:38.562907,-9.0
2023-08-10 10:57:38.570597,-19.0
2023-08-10 10:57:38.578287,-31.0
2023-08-10 10:57:38.585977,-31.0
2023-08-10 10:57:38.593667,-66.0
2023-08-10 10:57:38.601357,-244.0
2023-08-10 10:57:38.609047,-500.0
2023-08-10 10:57:38.616737,-657.0
2023-08-10 10:57:38.624427,-619.0
2023-08-10 10:57:38.632117,-330.0
2023-08-10 10:57:38.639807,33.0
2023-08-10 10:57:38.647497,122.0
2023-08-10 10:57:38.655187,-4.0
2023-08-10 10:57:38.662877,-23.0
2023-08-10 10:57:38.670567,38.0
2023-08-10 10:57:38.678256,28.0
2023-08-10 10:57:38.685946,4.0
2023-08-10 10:57:38.693636,16.0
2023-08-10 10:57:38.701326,7.0
2023-08-10 10:57:38.709016,-16.0
2023-08-10 10:57:38.716706,-19.0
2023-08-10 10:57:38.724396,-31.0
2023-08-10 10:57:38.732086,-57.0
2023-08-10 10:57:38.739776,-52.0
2023-08-10 10:57:38.747466,-43.0
2023-08-10 10:57:38.755156,-59.0
2023-08-10 10:57:38.762846,-69.0
2023-08-10 10:57:38.770536,-59.0
2023-08-10 10:57:38.778226,-52.0
2023-08-10 10:57:38.785916,-83.0
2023-08-10 10:57:38.793606,-131.0
2023-08-10 10:57:38.801295,-136.0
2023-08-10 10:57:38.808985,-126.0
2023-08-10 10:57:38.816675,-138.0
2023-08-10 10:57:38.824365,-150.0
2023-08-10 10:57:38.832055,-174.0
2023-08-10 10:57:38.839745,-215.0
2023-08-10 10:57:38.847435,-236.0
2023-08-10 10:57:38.855125,-236.0
2023-08-10 10:57:38.862815,-244.0
2023-08-10 10:57:38.870505,-248.0
2023-08-10 10:57:38.878195,-244.0
2023-08-10 10:57:38.885885,-224.0
2023-08-10 10:57:38.893575,-181.0
2023-08-10 10:57:38.901265,-131.0
2023-08-10 10:57:38.908955,-86.0
2023-08-10 10:57:38.916645,-31.0
2023-08-10 10:57:38.924335,14.0
2023-08-10 10:57:38.932024,31.0
2023-08-10 10:57:38.939714,40.0
2023-08-10 10:57:38.947404,52.0
2023-08-10 10:57:38.955094,45.0
2023-08-10 10:57:38.962784,35.0
2023-08-10 10:57:38.970474,47.0
2023-08-10 10:57:38.978164,62.0
2023-08-10 10:57:38.985854,40.0
2023-08-10 10:57:38.993544,14.0
2023-08-10 10:57:39.001234,28.0
2023-08-10 10:57:39.008924,45.0
2023-08-10 10:57:39.016614,35.0
2023-08-10 10:57:39.024304,23.0
2023-08-10 10:57:39.031994,26.0
2023-08-10 10:57:39.039684,19.0
2023-08-10 10:57:39.047374,11.0
2023-08-10 10:57:39.055063,14.0
2023-08-10 10:57:39.062753,14.0
2023-08-10 10:57:39.070443,9.0
2023-08-10 10:57:39.078133,14.0
2023-08-10 10:57:39.085823,14.0
2023-08-10 10:57:39.093513,-2.0
2023-08-10 10:57:39.101203,-7.0
2023-08-10 10:57:39.108893,2.0
2023-08-10 10:57:39.116583,7.0
2023-08-10 10:57:39.124273,2.0
2023-08-10 10:57:39.131963,0.0
2023-08-10 10:57:39.139653,-2.0
2023-08-10 10:57:39.147343,-2.0
2023-08-10 10:57:39.155033,0.0
2023-08-10 10:57:39.162723,0.0
2023-08-10 10:57:39.170413,2.0
2023-08-10 10:57:39.178103,11.0
2023-08-10 10:57:39.185792,7.0
2023-08-10 10:57:39.193482,7.0
2023-08-10 10:57:39.201172,7.0
2023-08-10 10:57:39.208862,-21.0
2023-08-10 10:57:39.216552,-35.0
2023-08-10 10:57:39.224242,-2.0
2023-08-10 10:57:39.231932,11.0
2023-08-10 10:57:39.239622,-11.0
2023-08-10 10:57:39.247312,-4.0
2023-08-10 10:57:39.255002,40.0
2023-08-10 10:57:39.262692,52.0
2023-08-10 10:57:39.270382,4.0
2023-08-10 10:57:39.278072,-23.0
2023-08-10 10:57:39.285762,11.0
2023-08-10 10:57:39.293452,23.0
2023-08-10 10:57:39.301142,0.0
2023-08-10 10:57:39.308831,14.0
2023-08-10 10:57:39.316521,43.0
2023-08-10 10:57:39.324211,43.0
2023-08-10 10:57:39.331901,35.0
2023-08-10 10:57:39.339591,40.0
2023-08-10 10:57:39.347281,55.0
2023-08-10 10:57:39.354971,50.0
2023-08-10 10:57:39.362661,19.0
2023-08-10 10:57:39.370351,23.0
2023-08-10 10:57:39.378041,55.0
2023-08-10 10:57:39.385731,31.0
2023-08-10 10:57:39.393421,4.0
2023-08-10 10:57:39.401111,26.0
2023-08-10 10:57:39.408801,26.0
2023-08-10 10:57:39.416491,2.0
2023-08-10 10:57:39.424181,7.0
2023-08-10 10:57:39.431870,0.0
2023-08-10 10:57:39.439560,-33.0
2023-08-10 10:57:39.447250,-31.0
2023-08-10 10:57:39.454940,-16.0
2023-08-10 10:57:39.462630,-31.0
2023-08-10 10:57:39.470320,-40.0
2023-08-10 10:57:39.478010,-35.0
2023-08-10 10:57:39.485700,-31.0
2023-08-10 10:57:39.493390,-23.0
2023-08-10 10:57:39.501080,-16.0
2023-08-10 10:57:39.508770,-11.0
2023-08-10 10:57:39.516460,-11.0
2023-08-10 10:57:39.524150,-33.0
2023-08-10 10:57:39.531840,-40.0
2023-08-10 10:57:39.539530,-26.0
2023-08-10 10:57:39.547220,-33.0
2023-08-10 10:57:39.554910,-93.0
2023-08-10 10:57:39.562599,-256.0
2023-08-10 10:57:39.570289,-488.0
2023-08-10 10:57:39.577979,-660.0
2023-08-10 10:57:39.585669,-626.0
2023-08-10 10:57:39.593359,-313.0
2023-08-10 10:57:39.601049,45.0
2023-08-10 10:57:39.608739,112.0
2023-08-10 10:57:39.616429,-14.0
2023-08-10 10:57:39.624119,-45.0
2023-08-10 10:57:39.631809,-9.0
2023-08-10 10:57:39.639499,-19.0
2023-08-10 10:57:39.647189,-21.0
2023-08-10 10:57:39.654879,-11.0
2023-08-10 10:57:39.662569,-23.0
2023-08-10 10:57:39.670259,-35.0
2023-08-10 10:57:39.677949,-47.0
2023-08-10 10:57:39.685638,-55.0
2023-08-10 10:57:39.693328,-45.0
2023-08-10 10:57:39.701018,-47.0
2023-08-10 10:57:39.708708,-66.0
2023-08-10 10:57:39.716398,-81.0
2023-08-10 10:57:39.724088,-102.0
2023-08-10 10:57:39.731778,-114.0
2023-08-10 10:57:39.739468,-105.0
2023-08-10 10:57:39.747158,-119.0
2023-08-10 10:57:39.754848,-148.0
2023-08-10 10:57:39.762538,-155.0
2023-08-10 10:57:39.770228,-150.0
2023-08-10 10:57:39.777918,-169.0
2023-08-10 10:57:39.785608,-193.0
2023-08-10 10:57:39.793298,-210.0
2023-08-10 10:57:39.800988,-227.0
2023-08-10 10:57:39.808678,-234.0
2023-08-10 10:57:39.816367,-246.0
2023-08-10 10:57:39.824057,-272.0
2023-08-10 10:57:39.831747,-289.0
2023-08-10 10:57:39.839437,-275.0
2023-08-10 10:57:39.847127,-258.0
2023-08-10 10:57:39.854817,-217.0
2023-08-10 10:57:39.862507,-145.0
2023-08-10 10:57:39.870197,-105.0
2023-08-10 10:57:39.877887,-88.0
2023-08-10 10:57:39.885577,-57.0
2023-08-10 10:57:39.893267,-23.0
2023-08-10 10:57:39.900957,0.0
2023-08-10 10:57:39.908647,11.0
2023-08-10 10:57:39.916337,4.0
2023-08-10 10:57:39.924027,-9.0
2023-08-10 10:57:39.931717,-7.0
2023-08-10 10:57:39.939406,7.0
2023-08-10 10:57:39.947096,2.0
2023-08-10 10:57:39.954786,-19.0
2023-08-10 10:57:39.962476,-31.0
2023-08-10 10:57:39.970166,-28.0
2023-08-10 10:57:39.977856,-23.0
2023-08-10 10:57:39.985546,-21.0
2023-08-10 10:57:39.993236,-33.0
2023-08-10 10:57:40.000926,-45.0
2023-08-10 10:57:40.008616,-38.0
2023-08-10 10:57:40.016306,-31.0
2023-08-10 10:57:40.023996,-28.0
2023-08-10 10:57:40.031686,-28.0
2023-08-10 10:57:40.039376,-31.0
2023-08-10 10:57:40.047066,-43.0
2023-08-10 10:57:40.054756,-50.0
2023-08-10 10:57:40.062446,-35.0
2023-08-10 10:57:40.070135,-21.0
2023-08-10 10:57:40.077825,-26.0
2023-08-10 10:57:40.085515,-31.0
2023-08-10 10:57:40.093205,-26.0
2023-08-10 10:57:40.100895,-33.0
2023-08-10 10:57:40.108585,-35.0
2023-08-10 10:57:40.116275,-23.0
2023-08-10 10:57:40.123965,-28.0
2023-08-10 10:57:40.131655,-33.0
2023-08-10 10:57:40.139345,-19.0
2023-08-10 10:57:40.147035,-26.0
2023-08-10 10:57:40.154725,-55.0
2023-08-10 10:57:40.162415,-52.0
2023-08-10 10:57:40.170105,-38.0
2023-08-10 10:57:40.177795,-38.0
2023-08-10 10:57:40.185485,-35.0
2023-08-10 10:57:40.193174,-31.0
2023-08-10 10:57:40.200864,-40.0
2023-08-10 10:57:40.208554,-43.0
2023-08-10 10:57:40.216244,-40.0
2023-08-10 10:57:40.223934,-38.0
2023-08-10 10:57:40.231624,-23.0
2023-08-10 10:57:40.239314,-23.0
2023-08-10 10:57:40.247004,-45.0
2023-08-10 10:57:40.254694,-47.0
2023-08-10 10:57:40.262384,-38.0
2023-08-10 10:57:40.270074,-33.0
2023-08-10 10:57:40.277764,-33.0
2023-08-10 10:57:40.285454,-38.0
2023-08-10 10:57:40.293144,-40.0
2023-08-10 10:57:40.300834,-35.0
2023-08-10 10:57:40.308524,-38.0
2023-08-10 10:57:40.316214,-59.0
2023-08-10 10:57:40.323903,-76.0
2023-08-10 10:57:40.331593,-55.0
2023-08-10 10:57:40.339283,-40.0
2023-08-10 10:57:40.346973,-45.0
2023-08-10 10:57:40.354663,-28.0
2023-08-10 10:57:40.362353,-28.0
2023-08-10 10:57:40.370043,-40.0
2023-08-10 10:57:40.377733,-21.0
2023-08-10 10:57:40.385423,-4.0
2023-08-10 10:57:40.393113,2.0
2023-08-10 10:57:40.400803,11.0
2023-08-10 10:57:40.408493,-4.0
2023-08-10 10:57:40.416183,-21.0
2023-08-10 10:57:40.423873,-11.0
2023-08-10 10:57:40.431563,-9.0
2023-08-10 10:57:40.439253,-83.0
2023-08-10 10:57:40.446942,-267.0
2023-08-10 10:57:40.454632,-490.0
2023-08-10 10:57:40.462322,-638.0
2023-08-10 10:57:40.470012,-595.0
2023-08-10 10:57:40.477702,-291.0
2023-08-10 10:57:40.485392,52.0
2023-08-10 10:57:40.493082,124.0
2023-08-10 10:57:40.500772,19.0
2023-08-10 10:57:40.508462,-7.0
2023-08-10 10:57:40.516152,35.0
2023-08-10 10:57:40.523842,31.0
2023-08-10 10:57:40.531532,7.0
2023-08-10 10:57:40.539222,9.0
2023-08-10 10:57:40.546912,11.0
2023-08-10 10:57:40.554602,4.0
2023-08-10 10:57:40.562292,-7.0
2023-08-10 10:57:40.569982,-19.0
2023-08-10 10:57:40.577671,-21.0
2023-08-10 10:57:40.585361,-33.0
2023-08-10 10:57:40.593051,-52.0
2023-08-10 10:57:40.600741,-62.0
2023-08-10 10:57:40.608431,-71.0
2023-08-10 10:57:40.616121,-76.0
2023-08-10 10:57:40.623811,-81.0
2023-08-10 10:57:40.631501,-93.0
2023-08-10 10:57:40.639191,-105.0
2023-08-10 10:57:40.646881,-114.0
2023-08-10 10:57:40.654571,-133.0
2023-08-10 10:57:40.662261,-155.0
2023-08-10 10:57:40.669951,-162.0
2023-08-10 10:57:40.677641,-174.0
2023-08-10 10:57:40.685331,-200.0
2023-08-10 10:57:40.693021,-217.0
2023-08-10 10:57:40.700710,-232.0
2023-08-10 10:57:40.708400,-244.0
2023-08-10 10:57:40.716090,-241.0
2023-08-10 10:57:40.723780,-232.0
2023-08-10 10:57:40.731470,-224.0
2023-08-10 10:57:40.739160,-193.0
2023-08-10 10:57:40.746850,-129.0
2023-08-10 10:57:40.754540,-66.0
2023-08-10 10:57:40.762230,-16.0
2023-08-10 10:57:40.769920,21.0
2023-08-10 10:57:40.777610,33.0
2023-08-10 10:57:40.785300,31.0
2023-08-10 10:57:40.792990,45.0
2023-08-10 10:57:40.800680,59.0
2023-08-10 10:57:40.808370,62.0
2023-08-10 10:57:40.816060,57.0
2023-08-10 10:57:40.823749,50.0
2023-08-10 10:57:40.831439,50.0
2023-08-10 10:57:40.839129,59.0
2023-08-10 10:57:40.846819,66.0
2023-08-10 10:57:40.854509,50.0
2023-08-10 10:57:40.862199,23.0
2023-08-10 10:57:40.869889,21.0
2023-08-10 10:57:40.877579,38.0
2023-08-10 10:57:40.885269,43.0
2023-08-10 10:57:40.892959,31.0
2023-08-10 10:57:40.900649,23.0
2023-08-10 10:57:40.908339,19.0
2023-08-10 10:57:40.916029,14.0
2023-08-10 10:57:40.923719,26.0
2023-08-10 10:57:40.931409,19.0
2023-08-10 10:57:40.939099,-14.0
2023-08-10 10:57:40.946789,-16.0
2023-08-10 10:57:40.954478,7.0
2023-08-10 10:57:40.962168,9.0
2023-08-10 10:57:40.969858,0.0
2023-08-10 10:57:40.977548,-2.0
2023-08-10 10:57:40.985238,-4.0
2023-08-10 10:57:40.992928,-4.0
2023-08-10 10:57:41.000618,-9.0
2023-08-10 10:57:41.008308,-19.0
2023-08-10 10:57:41.015998,-14.0
2023-08-10 10:57:41.023688,0.0
2023-08-10 10:57:41.031378,0.0
2023-08-10 10:57:41.039068,-11.0
2023-08-10 10:57:41.046758,-14.0
2023-08-10 10:57:41.054448,-26.0
2023-08-10 10:57:41.062138,-33.0
2023-08-10 10:57:41.069828,-19.0
2023-08-10 10:57:41.077517,-7.0
2023-08-10 10:57:41.085207,-11.0
2023-08-10 10:57:41.092897,-21.0
2023-08-10 10:57:41.100587,-26.0
2023-08-10 10:57:41.108277,-23.0
2023-08-10 10:57:41.115967,-16.0
2023-08-10 10:57:41.123657,-26.0
2023-08-10 10:57:41.131347,-40.0
2023-08-10 10:57:41.139037,-31.0
2023-08-10 10:57:41.146727,-11.0
2023-08-10 10:57:41.154417,-16.0
2023-08-10 10:57:41.162107,-28.0
2023-08-10 10:57:41.169797,-33.0
2023-08-10 10:57:41.177487,-35.0
2023-08-10 10:57:41.185177,-43.0
2023-08-10 10:57:41.192867,-38.0
2023-08-10 10:57:41.200557,-40.0
2023-08-10 10:57:41.208246,-47.0
2023-08-10 10:57:41.215936,-52.0
2023-08-10 10:57:41.223626,-66.0
2023-08-10 10:57:41.231316,-81.0
2023-08-10 10:57:41.239006,-71.0
2023-08-10 10:57:41.246696,-64.0
2023-08-10 10:57:41.254386,-66.0
2023-08-10 10:57:41.262076,-55.0
2023-08-10 10:57:41.269766,-47.0
2023-08-10 10:57:41.277456,-62.0
2023-08-10 10:57:41.285146,-59.0
2023-08-10 10:57:41.292836,-43.0
2023-08-10 10:57:41.300526,-33.0
2023-08-10 10:57:41.308216,-35.0
2023-08-10 10:57:41.315906,-35.0
2023-08-10 10:57:41.323596,-40.0
2023-08-10 10:57:41.331285,-45.0
2023-08-10 10:57:41.338975,-45.0
2023-08-10 10:57:41.346665,-88.0
2023-08-10 10:57:41.354355,-246.0
2023-08-10 10:57:41.362045,-471.0
2023-08-10 10:57:41.369735,-624.0
2023-08-10 10:57:41.377425,-622.0
2023-08-10 10:57:41.385115,-389.0
2023-08-10 10:57:41.392805,-26.0
2023-08-10 10:57:41.400495,124.0
2023-08-10 10:57:41.408185,16.0
2023-08-10 10:57:41.415875,-45.0
2023-08-10 10:57:41.423565,2.0
2023-08-10 10:57:41.431255,11.0
2023-08-10 10:57:41.438945,-7.0
2023-08-10 10:57:41.446635,-16.0
2023-08-10 10:57:41.454325,-23.0
2023-08-10 10:57:41.462014,-31.0
2023-08-10 10:57:41.469704,-31.0
2023-08-10 10:57:41.477394,-31.0
2023-08-10 10:57:41.485084,-33.0
2023-08-10 10:57:41.492774,-38.0
2023-08-10 10:57:41.500464,-52.0
2023-08-10 10:57:41.508154,-62.0
2023-08-10 10:57:41.515844,-64.0
2023-08-10 10:57:41.523534,-81.0
2023-08-10 10:57:41.531224,-102.0
2023-08-10 10:57:41.538914,-98.0
2023-08-10 10:57:41.546604,-98.0
2023-08-10 10:57:41.554294,-131.0
2023-08-10 10:57:41.561984,-155.0
2023-08-10 10:57:41.569674,-160.0
2023-08-10 10:57:41.577364,-172.0
2023-08-10 10:57:41.585053,-186.0
2023-08-10 10:57:41.592743,-191.0
2023-08-10 10:57:41.600433,-220.0
2023-08-10 10:57:41.608123,-256.0
2023-08-10 10:57:41.615813,-265.0
2023-08-10 10:57:41.623503,-263.0
2023-08-10 10:57:41.631193,-272.0
2023-08-10 10:57:41.638883,-275.0
2023-08-10 10:57:41.646573,-236.0
2023-08-10 10:57:41.654263,-179.0
2023-08-10 10:57:41.661953,-131.0
2023-08-10 10:57:41.669643,-100.0
2023-08-10 10:57:41.677333,-62.0
2023-08-10 10:57:41.685023,-26.0
2023-08-10 10:57:41.692713,-9.0
2023-08-10 10:57:41.700403,-4.0
2023-08-10 10:57:41.708093,-2.0
2023-08-10 10:57:41.715782,0.0
2023-08-10 10:57:41.723472,7.0
2023-08-10 10:57:41.731162,4.0
2023-08-10 10:57:41.738852,0.0
2023-08-10 10:57:41.746542,4.0
2023-08-10 10:57:41.754232,0.0
2023-08-10 10:57:41.761922,-9.0
2023-08-10 10:57:41.769612,-4.0
2023-08-10 10:57:41.777302,7.0
2023-08-10 10:57:41.784992,-7.0
2023-08-10 10:57:41.792682,-21.0
2023-08-10 10:57:41.800372,-7.0
2023-08-10 10:57:41.808062,4.0
2023-08-10 10:57:41.815752,-7.0
2023-08-10 10:57:41.823442,-14.0
2023-08-10 10:57:41.831132,-2.0
2023-08-10 10:57:41.838821,-2.0
2023-08-10 10:57:41.846511,-9.0
2023-08-10 10:57:41.854201,-14.0
2023-08-10 10:57:41.861891,-19.0
2023-08-10 10:57:41.869581,-21.0
2023-08-10 10:57:41.877271,-9.0
2023-08-10 10:57:41.884961,0.0
2023-08-10 10:57:41.892651,-16.0
2023-08-10 10:57:41.900341,-33.0
2023-08-10 10:57:41.908031,-11.0
2023-08-10 10:57:41.915721,2.0
2023-08-10 10:57:41.923411,-14.0
2023-08-10 10:57:41.931101,-21.0
2023-08-10 10:57:41.938791,-4.0
2023-08-10 10:57:41.946481,-4.0
2023-08-10 10:57:41.954171,-26.0
2023-08-10 10:57:41.961860,-43.0
2023-08-10 10:57:41.969550,-31.0
2023-08-10 10:57:41.977240,-19.0
2023-08-10 10:57:41.984930,-28.0
2023-08-10 10:57:41.992620,-33.0
2023-08-10 10:57:42.000310,-31.0
2023-08-10 10:57:42.008000,-23.0
2023-08-10 10:57:42.015690,-11.0
2023-08-10 10:57:42.023380,-16.0
2023-08-10 10:57:42.031070,-23.0
2023-08-10 10:57:42.038760,-33.0
2023-08-10 10:57:42.046450,-47.0
2023-08-10 10:57:42.054140,-47.0
2023-08-10 10:57:42.061830,-31.0
2023-08-10 10:57:42.069520,-21.0
2023-08-10 10:57:42.077210,-21.0
2023-08-10 10:57:42.084900,-33.0
2023-08-10 10:57:42.092589,-45.0
2023-08-10 10:57:42.100279,-47.0
2023-08-10 10:57:42.107969,-38.0
2023-08-10 10:57:42.115659,-35.0
2023-08-10 10:57:42.123349,-40.0
2023-08-10 10:57:42.131039,-40.0
2023-08-10 10:57:42.138729,-40.0
2023-08-10 10:57:42.146419,-50.0
2023-08-10 10:57:42.154109,-52.0
2023-08-10 10:57:42.161799,-64.0
2023-08-10 10:57:42.169489,-81.0
2023-08-10 10:57:42.177179,-81.0
2023-08-10 10:57:42.184869,-74.0
2023-08-10 10:57:42.192559,-83.0
2023-08-10 10:57:42.200249,-83.0
2023-08-10 10:57:42.207939,-71.0
2023-08-10 10:57:42.215628,-59.0
2023-08-10 10:57:42.223318,-52.0
2023-08-10 10:57:42.231008,-47.0
2023-08-10 10:57:42.238698,-45.0
2023-08-10 10:57:42.246388,-40.0
2023-08-10 10:57:42.254078,-38.0
2023-08-10 10:57:42.261768,-57.0
2023-08-10 10:57:42.269458,-66.0
2023-08-10 10:57:42.277148,-52.0
2023-08-10 10:57:42.284838,-86.0
2023-08-10 10:57:42.292528,-248.0
2023-08-10 10:57:42.300218,-473.0
2023-08-10 10:57:42.307908,-626.0
2023-08-10 10:57:42.315598,-631.0
2023-08-10 10:57:42.323288,-399.0
2023-08-10 10:57:42.330978,-35.0
2023-08-10 10:57:42.338668,114.0
2023-08-10 10:57:42.346357,23.0
2023-08-10 10:57:42.354047,-33.0
2023-08-10 10:57:42.361737,-4.0
2023-08-10 10:57:42.369427,-7.0
2023-08-10 10:57:42.377117,-21.0
2023-08-10 10:57:42.384807,-11.0
2023-08-10 10:57:42.392497,-9.0
2023-08-10 10:57:42.400187,-28.0
2023-08-10 10:57:42.407877,-50.0
2023-08-10 10:57:42.415567,-43.0
2023-08-10 10:57:42.423257,-26.0
2023-08-10 10:57:42.430947,-47.0
2023-08-10 10:57:42.438637,-74.0
2023-08-10 10:57:42.446327,-69.0
2023-08-10 10:57:42.454017,-64.0
2023-08-10 10:57:42.461707,-88.0
2023-08-10 10:57:42.469396,-110.0
2023-08-10 10:57:42.477086,-98.0
2023-08-10 10:57:42.484776,-102.0
2023-08-10 10:57:42.492466,-141.0
2023-08-10 10:57:42.500156,-169.0
2023-08-10 10:57:42.507846,-167.0
2023-08-10 10:57:42.515536,-169.0
2023-08-10 10:57:42.523226,-200.0
2023-08-10 10:57:42.530916,-217.0
2023-08-10 10:57:42.538606,-220.0
2023-08-10 10:57:42.546296,-232.0
2023-08-10 10:57:42.553986,-239.0
2023-08-10 10:57:42.561676,-246.0
2023-08-10 10:57:42.569366,-253.0
2023-08-10 10:57:42.577056,-244.0
2023-08-10 10:57:42.584746,-208.0
2023-08-10 10:57:42.592436,-155.0
2023-08-10 10:57:42.600125,-95.0
2023-08-10 10:57:42.607815,-45.0
2023-08-10 10:57:42.615505,-9.0
2023-08-10 10:57:42.623195,7.0
2023-08-10 10:57:42.630885,21.0
2023-08-10 10:57:42.638575,47.0
2023-08-10 10:57:42.646265,59.0
2023-08-10 10:57:42.653955,45.0
2023-08-10 10:57:42.661645,35.0
2023-08-10 10:57:42.669335,47.0
2023-08-10 10:57:42.677025,62.0
2023-08-10 10:57:42.684715,55.0
2023-08-10 10:57:42.692405,33.0
2023-08-10 10:57:42.700095,23.0
2023-08-10 10:57:42.707785,23.0
2023-08-10 10:57:42.715475,31.0
2023-08-10 10:57:42.723164,55.0
2023-08-10 10:57:42.730854,59.0
2023-08-10 10:57:42.738544,28.0
2023-08-10 10:57:42.746234,11.0
2023-08-10 10:57:42.753924,31.0
2023-08-10 10:57:42.761614,28.0
2023-08-10 10:57:42.769304,2.0
2023-08-10 10:57:42.776994,11.0
2023-08-10 10:57:42.784684,40.0
2023-08-10 10:57:42.792374,50.0
2023-08-10 10:57:42.800064,35.0
2023-08-10 10:57:42.807754,9.0
2023-08-10 10:57:42.815444,0.0
2023-08-10 10:57:42.823134,16.0
2023-08-10 10:57:42.830824,11.0
2023-08-10 10:57:42.838514,-14.0
2023-08-10 10:57:42.846204,0.0
2023-08-10 10:57:42.853893,31.0
2023-08-10 10:57:42.861583,14.0
2023-08-10 10:57:42.869273,-9.0
2023-08-10 10:57:42.876963,16.0
2023-08-10 10:57:42.884653,43.0
2023-08-10 10:57:42.892343,4.0
2023-08-10 10:57:42.900033,-16.0
2023-08-10 10:57:42.907723,35.0
2023-08-10 10:57:42.915413,47.0
2023-08-10 10:57:42.923103,-2.0
2023-08-10 10:57:42.930793,-7.0
2023-08-10 10:57:42.938483,11.0
2023-08-10 10:57:42.946173,-9.0
2023-08-10 10:57:42.953863,-7.0
2023-08-10 10:57:42.961553,26.0
2023-08-10 10:57:42.969243,9.0
2023-08-10 10:57:42.976932,-11.0
2023-08-10 10:57:42.984622,7.0
2023-08-10 10:57:42.992312,9.0
2023-08-10 10:57:43.000002,-14.0
2023-08-10 10:57:43.007692,-50.0
2023-08-10 10:57:43.015382,-59.0
2023-08-10 10:57:43.023072,-23.0
2023-08-10 10:57:43.030762,2.0
2023-08-10 10:57:43.038452,-7.0
2023-08-10 10:57:43.046142,-28.0
2023-08-10 10:57:43.053832,-23.0
2023-08-10 10:57:43.061522,-11.0
2023-08-10 10:57:43.069212,-28.0
2023-08-10 10:57:43.076902,-14.0
2023-08-10 10:57:43.084592,16.0
2023-08-10 10:57:43.092282,7.0
2023-08-10 10:57:43.099971,-11.0
2023-08-10 10:57:43.107661,-9.0
2023-08-10 10:57:43.115351,-9.0
2023-08-10 10:57:43.123041,-14.0
2023-08-10 10:57:43.130731,-50.0
2023-08-10 10:57:43.138421,-172.0
2023-08-10 10:57:43.146111,-382.0
2023-08-10 10:57:43.153801,-581.0
2023-08-10 10:57:43.161491,-631.0
2023-08-10 10:57:43.169181,-411.0
2023-08-10 10:57:43.176871,-33.0
2023-08-10 10:57:43.184561,124.0
2023-08-10 10:57:43.192251,35.0
2023-08-10 10:57:43.199941,-11.0
2023-08-10 10:57:43.207631,19.0
2023-08-10 10:57:43.215321,19.0
2023-08-10 10:57:43.223011,-2.0
2023-08-10 10:57:43.230700,0.0
2023-08-10 10:57:43.238390,-4.0
2023-08-10 10:57:43.246080,-21.0
2023-08-10 10:57:43.253770,-11.0
2023-08-10 10:57:43.261460,0.0
2023-08-10 10:57:43.269150,-21.0
2023-08-10 10:57:43.276840,-43.0
2023-08-10 10:57:43.284530,-31.0
2023-08-10 10:57:43.292220,-40.0
2023-08-10 10:57:43.299910,-95.0
2023-08-10 10:57:43.307600,-112.0
2023-08-10 10:57:43.315290,-64.0
2023-08-10 10:57:43.322980,-64.0
2023-08-10 10:57:43.330670,-126.0
2023-08-10 10:57:43.338360,-150.0
2023-08-10 10:57:43.346050,-150.0
2023-08-10 10:57:43.353739,-184.0
2023-08-10 10:57:43.361429,-189.0
2023-08-10 10:57:43.369119,-165.0
2023-08-10 10:57:43.376809,-169.0
2023-08-10 10:57:43.384499,-198.0
2023-08-10 10:57:43.392189,-234.0
2023-08-10 10:57:43.399879,-265.0
2023-08-10 10:57:43.407569,-260.0
2023-08-10 10:57:43.415259,-251.0
2023-08-10 10:57:43.422949,-260.0
2023-08-10 10:57:43.430639,-236.0
2023-08-10 10:57:43.438329,-165.0
2023-08-10 10:57:43.446019,-95.0
2023-08-10 10:57:43.453709,-76.0
2023-08-10 10:57:43.461399,-76.0
2023-08-10 10:57:43.469089,-43.0
2023-08-10 10:57:43.476779,-7.0
2023-08-10 10:57:43.484468,-19.0
2023-08-10 10:57:43.492158,-35.0
2023-08-10 10:57:43.499848,-9.0
2023-08-10 10:57:43.507538,11.0
2023-08-10 10:57:43.515228,4.0
2023-08-10 10:57:43.522918,-14.0
2023-08-10 10:57:43.530608,-45.0
2023-08-10 10:57:43.538298,-45.0
2023-08-10 10:57:43.545988,-16.0
2023-08-10 10:57:43.553678,-26.0
2023-08-10 10:57:43.561368,-57.0
2023-08-10 10:57:43.569058,-38.0
2023-08-10 10:57:43.576748,-19.0
2023-08-10 10:57:43.584438,-47.0
2023-08-10 10:57:43.592128,-59.0
2023-08-10 10:57:43.599818,-47.0
2023-08-10 10:57:43.607507,-55.0
2023-08-10 10:57:43.615197,-43.0
2023-08-10 10:57:43.622887,-16.0
2023-08-10 10:57:43.630577,-55.0
2023-08-10 10:57:43.638267,-81.0
2023-08-10 10:57:43.645957,-47.0
2023-08-10 10:57:43.653647,-45.0
2023-08-10 10:57:43.661337,-71.0
2023-08-10 10:57:43.669027,-69.0
2023-08-10 10:57:43.676717,-50.0
2023-08-10 10:57:43.684407,-59.0
2023-08-10 10:57:43.692097,-69.0
2023-08-10 10:57:43.699787,-59.0
2023-08-10 10:57:43.707477,-69.0
2023-08-10 10:57:43.715167,-71.0
2023-08-10 10:57:43.722857,-35.0
2023-08-10 10:57:43.730547,-59.0
2023-08-10 10:57:43.738236,-93.0
2023-08-10 10:57:43.745926,-52.0
2023-08-10 10:57:43.753616,-52.0
2023-08-10 10:57:43.761306,-107.0
2023-08-10 10:57:43.768996,-90.0
2023-08-10 10:57:43.776686,-47.0
2023-08-10 10:57:43.784376,-55.0
2023-08-10 10:57:43.792066,-64.0
2023-08-10 10:57:43.799756,-66.0
2023-08-10 10:57:43.807446,-81.0
2023-08-10 10:57:43.815136,-71.0
2023-08-10 10:57:43.822826,-59.0
2023-08-10 10:57:43.830516,-71.0
2023-08-10 10:57:43.838206,-88.0
2023-08-10 10:57:43.845896,-95.0
2023-08-10 10:57:43.853586,-86.0
2023-08-10 10:57:43.861275,-76.0
2023-08-10 10:57:43.868965,-83.0
2023-08-10 10:57:43.876655,-88.0
2023-08-10 10:57:43.884345,-83.0
2023-08-10 10:57:43.892035,-95.0
2023-08-10 10:57:43.899725,-100.0
2023-08-10 10:57:43.907415,-88.0
2023-08-10 10:57:43.915105,-119.0
2023-08-10 10:57:43.922795,-138.0
2023-08-10 10:57:43.930485,-71.0
2023-08-10 10:57:43.938175,-50.0
2023-08-10 10:57:43.945865,-98.0
2023-08-10 10:57:43.953555,-76.0
2023-08-10 10:57:43.961245,-35.0
2023-08-10 10:57:43.968935,-74.0
2023-08-10 10:57:43.976625,-93.0
2023-08-10 10:57:43.984315,-45.0
2023-08-10 10:57:43.992004,-57.0
2023-08-10 10:57:43.999694,-100.0
2023-08-10 10:57:44.007384,-62.0
2023-08-10 10:57:44.015074,-59.0
2023-08-10 10:57:44.022764,-196.0
2023-08-10 10:57:44.030454,-392.0
2023-08-10 10:57:44.038144,-550.0
2023-08-10 10:57:44.045834,-619.0
2023-08-10 10:57:44.053524,-485.0
2023-08-10 10:57:44.061214,-148.0
2023-08-10 10:57:44.068904,88.0
2023-08-10 10:57:44.076594,55.0
2023-08-10 10:57:44.084284,-50.0
2023-08-10 10:57:44.091974,-45.0
2023-08-10 10:57:44.099664,0.0
2023-08-10 10:57:44.107354,-14.0
2023-08-10 10:57:44.115043,-23.0
2023-08-10 10:57:44.122733,-2.0
2023-08-10 10:57:44.130423,-16.0
2023-08-10 10:57:44.138113,-55.0
2023-08-10 10:57:44.145803,-55.0
2023-08-10 10:57:44.153493,-50.0
2023-08-10 10:57:44.161183,-52.0
2023-08-10 10:57:44.168873,-35.0
2023-08-10 10:57:44.176563,-38.0
2023-08-10 10:57:44.184253,-64.0
2023-08-10 10:57:44.191943,-74.0
2023-08-10 10:57:44.199633,-88.0
2023-08-10 10:57:44.207323,-110.0
2023-08-10 10:57:44.215013,-93.0
2023-08-10 10:57:44.222703,-78.0
2023-08-10 10:57:44.230393,-112.0
2023-08-10 10:57:44.238083,-141.0
2023-08-10 10:57:44.245772,-153.0
2023-08-10 10:57:44.253462,-174.0
2023-08-10 10:57:44.261152,-186.0
2023-08-10 10:57:44.268842,-189.0
2023-08-10 10:57:44.276532,-203.0
2023-08-10 10:57:44.284222,-210.0
2023-08-10 10:57:44.291912,-210.0
2023-08-10 10:57:44.299602,-220.0
2023-08-10 10:57:44.307292,-229.0
2023-08-10 10:57:44.314982,-212.0
2023-08-10 10:57:44.322672,-143.0
2023-08-10 10:57:44.330362,-71.0
2023-08-10 10:57:44.338052,-59.0
2023-08-10 10:57:44.345742,-45.0
2023-08-10 10:57:44.353432,16.0
2023-08-10 10:57:44.361122,45.0
2023-08-10 10:57:44.368811,23.0
2023-08-10 10:57:44.376501,19.0
2023-08-10 10:57:44.384191,33.0
2023-08-10 10:57:44.391881,31.0
2023-08-10 10:57:44.399571,16.0
2023-08-10 10:57:44.407261,14.0
2023-08-10 10:57:44.414951,26.0
2023-08-10 10:57:44.422641,31.0
2023-08-10 10:57:44.430331,9.0
2023-08-10 10:57:44.438021,-11.0
2023-08-10 10:57:44.445711,-14.0
2023-08-10 10:57:44.453401,-9.0
2023-08-10 10:57:44.461091,4.0
2023-08-10 10:57:44.468781,19.0
2023-08-10 10:57:44.476471,9.0
2023-08-10 10:57:44.484161,-19.0
2023-08-10 10:57:44.491850,-26.0
2023-08-10 10:57:44.499540,2.0
2023-08-10 10:57:44.507230,2.0
2023-08-10 10:57:44.514920,-26.0
2023-08-10 10:57:44.522610,-21.0
2023-08-10 10:57:44.530300,0.0
2023-08-10 10:57:44.537990,-9.0
2023-08-10 10:57:44.545680,-23.0
2023-08-10 10:57:44.553370,-23.0
2023-08-10 10:57:44.561060,-4.0
2023-08-10 10:57:44.568750,19.0
2023-08-10 10:57:44.576440,11.0
2023-08-10 10:57:44.584130,-4.0
2023-08-10 10:57:44.591820,-4.0
2023-08-10 10:57:44.599510,-7.0
2023-08-10 10:57:44.607200,-9.0
2023-08-10 10:57:44.614890,14.0
2023-08-10 10:57:44.622579,14.0
2023-08-10 10:57:44.630269,-19.0
2023-08-10 10:57:44.637959,-14.0
2023-08-10 10:57:44.645649,19.0
2023-08-10 10:57:44.653339,11.0
2023-08-10 10:57:44.661029,-9.0
2023-08-10 10:57:44.668719,4.0
2023-08-10 10:57:44.676409,9.0
2023-08-10 10:57:44.684099,-11.0
2023-08-10 10:57:44.691789,-14.0
2023-08-10 10:57:44.699479,4.0
2023-08-10 10:57:44.707169,2.0
2023-08-10 10:57:44.714859,-16.0
2023-08-10 10:57:44.722549,-4.0
2023-08-10 10:57:44.730239,26.0
2023-08-10 10:57:44.737929,19.0
2023-08-10 10:57:44.745618,-2.0
2023-08-10 10:57:44.753308,-7.0
2023-08-10 10:57:44.760998,2.0
2023-08-10 10:57:44.768688,0.0
2023-08-10 10:57:44.776378,-11.0
2023-08-10 10:57:44.784068,-9.0
2023-08-10 10:57:44.791758,-4.0
2023-08-10 10:57:44.799448,-11.0
2023-08-10 10:57:44.807138,-23.0
2023-08-10 10:57:44.814828,-38.0
2023-08-10 10:57:44.822518,-33.0
2023-08-10 10:57:44.830208,-16.0
2023-08-10 10:57:44.837898,-21.0
2023-08-10 10:57:44.845588,-16.0
2023-08-10 10:57:44.853278,9.0
2023-08-10 10:57:44.860968,14.0
2023-08-10 10:57:44.868658,-9.0
2023-08-10 10:57:44.876347,-9.0
2023-08-10 10:57:44.884037,4.0
2023-08-10 10:57:44.891727,-2.0
2023-08-10 10:57:44.899417,-4.0
2023-08-10 10:57:44.907107,2.0
2023-08-10 10:57:44.914797,-64.0
2023-08-10 10:57:44.922487,-229.0
2023-08-10 10:57:44.930177,-404.0
2023-08-10 10:57:44.937867,-528.0
2023-08-10 10:57:44.945557,-550.0
2023-08-10 10:57:44.953247,-337.0
2023-08-10 10:57:44.960937,-2.0
2023-08-10 10:57:44.968627,141.0
2023-08-10 10:57:44.976317,64.0
2023-08-10 10:57:44.984007,-9.0
2023-08-10 10:57:44.991697,-9.0
2023-08-10 10:57:44.999386,7.0
2023-08-10 10:57:45.007076,16.0
2023-08-10 10:57:45.014766,-2.0
2023-08-10 10:57:45.022456,-23.0
2023-08-10 10:57:45.030146,-11.0
2023-08-10 10:57:45.037836,-14.0
2023-08-10 10:57:45.045526,-33.0
2023-08-10 10:57:45.053216,-38.0
2023-08-10 10:57:45.060906,-45.0
2023-08-10 10:57:45.068596,-52.0
2023-08-10 10:57:45.076286,-43.0
2023-08-10 10:57:45.083976,-52.0
2023-08-10 10:57:45.091666,-62.0
2023-08-10 10:57:45.099356,-55.0
2023-08-10 10:57:45.107046,-69.0
2023-08-10 10:57:45.114736,-107.0
2023-08-10 10:57:45.122426,-126.0
2023-08-10 10:57:45.130115,-124.0
2023-08-10 10:57:45.137805,-126.0
2023-08-10 10:57:45.145495,-141.0
2023-08-10 10:57:45.153185,-155.0
2023-08-10 10:57:45.160875,-172.0
2023-08-10 10:57:45.168565,-208.0
2023-08-10 10:57:45.176255,-229.0
2023-08-10 10:57:45.183945,-212.0
2023-08-10 10:57:45.191635,-198.0
2023-08-10 10:57:45.199325,-222.0
2023-08-10 10:57:45.207015,-224.0
2023-08-10 10:57:45.214705,-184.0
2023-08-10 10:57:45.222395,-145.0
2023-08-10 10:57:45.230085,-100.0
2023-08-10 10:57:45.237775,-35.0
2023-08-10 10:57:45.245465,-9.0
2023-08-10 10:57:45.253154,-2.0
2023-08-10 10:57:45.260844,26.0
2023-08-10 10:57:45.268534,35.0
2023-08-10 10:57:45.276224,31.0
2023-08-10 10:57:45.283914,33.0
2023-08-10 10:57:45.291604,28.0
2023-08-10 10:57:45.299294,33.0
2023-08-10 10:57:45.306984,45.0
2023-08-10 10:57:45.314674,31.0
2023-08-10 10:57:45.322364,14.0
2023-08-10 10:57:45.330054,26.0
2023-08-10 10:57:45.337744,35.0
2023-08-10 10:57:45.345434,16.0
2023-08-10 10:57:45.353124,4.0
2023-08-10 10:57:45.360814,16.0
2023-08-10 10:57:45.368504,0.0
2023-08-10 10:57:45.376194,-7.0
2023-08-10 10:57:45.383883,19.0
2023-08-10 10:57:45.391573,14.0
2023-08-10 10:57:45.399263,-2.0
2023-08-10 10:57:45.406953,9.0
2023-08-10 10:57:45.414643,19.0
2023-08-10 10:57:45.422333,-2.0
2023-08-10 10:57:45.430023,-26.0
2023-08-10 10:57:45.437713,-19.0
2023-08-10 10:57:45.445403,2.0
2023-08-10 10:57:45.453093,7.0
2023-08-10 10:57:45.460783,0.0
2023-08-10 10:57:45.468473,11.0
2023-08-10 10:57:45.476163,11.0
2023-08-10 10:57:45.483853,-14.0
2023-08-10 10:57:45.491543,-19.0
2023-08-10 10:57:45.499233,2.0
2023-08-10 10:57:45.506922,-4.0
2023-08-10 10:57:45.514612,-26.0
2023-08-10 10:57:45.522302,-33.0
2023-08-10 10:57:45.529992,-11.0
2023-08-10 10:57:45.537682,14.0
2023-08-10 10:57:45.545372,9.0
2023-08-10 10:57:45.553062,-16.0
2023-08-10 10:57:45.560752,-23.0
2023-08-10 10:57:45.568442,-23.0
2023-08-10 10:57:45.576132,-31.0
2023-08-10 10:57:45.583822,-45.0
2023-08-10 10:57:45.591512,-52.0
2023-08-10 10:57:45.599202,-50.0
2023-08-10 10:57:45.606892,-47.0
2023-08-10 10:57:45.614582,-47.0
2023-08-10 10:57:45.622272,-35.0
2023-08-10 10:57:45.629961,-38.0
2023-08-10 10:57:45.637651,-52.0
2023-08-10 10:57:45.645341,-47.0
2023-08-10 10:57:45.653031,-45.0
2023-08-10 10:57:45.660721,-50.0
2023-08-10 10:57:45.668411,-28.0
2023-08-10 10:57:45.676101,2.0
2023-08-10 10:57:45.683791,-9.0
2023-08-10 10:57:45.691481,-21.0
2023-08-10 10:57:45.699171,-4.0
2023-08-10 10:57:45.706861,-9.0
2023-08-10 10:57:45.714551,-28.0
2023-08-10 10:57:45.722241,-23.0
2023-08-10 10:57:45.729931,-7.0
2023-08-10 10:57:45.737621,-7.0
2023-08-10 10:57:45.745311,-57.0
2023-08-10 10:57:45.753001,-224.0
2023-08-10 10:57:45.760690,-464.0
2023-08-10 10:57:45.768380,-619.0
2023-08-10 10:57:45.776070,-564.0
2023-08-10 10:57:45.783760,-289.0
2023-08-10 10:57:45.791450,31.0
2023-08-10 10:57:45.799140,150.0
2023-08-10 10:57:45.806830,64.0
2023-08-10 10:57:45.814520,-4.0
2023-08-10 10:57:45.822210,21.0
2023-08-10 10:57:45.829900,40.0
2023-08-10 10:57:45.837590,26.0
2023-08-10 10:57:45.845280,11.0
2023-08-10 10:57:45.852970,7.0
2023-08-10 10:57:45.860660,4.0
2023-08-10 10:57:45.868350,-7.0
2023-08-10 10:57:45.876040,-11.0
2023-08-10 10:57:45.883729,-7.0
2023-08-10 10:57:45.891419,-7.0
2023-08-10 10:57:45.899109,-19.0
2023-08-10 10:57:45.906799,-33.0
2023-08-10 10:57:45.914489,-33.0
2023-08-10 10:57:45.922179,-47.0
2023-08-10 10:57:45.929869,-74.0
2023-08-10 10:57:45.937559,-76.0
2023-08-10 10:57:45.945249,-81.0
2023-08-10 10:57:45.952939,-102.0
2023-08-10 10:57:45.960629,-119.0
2023-08-10 10:57:45.968319,-124.0
2023-08-10 10:57:45.976009,-122.0
2023-08-10 10:57:45.983699,-148.0
2023-08-10 10:57:45.991389,-191.0
2023-08-10 10:57:45.999079,-200.0
2023-08-10 10:57:46.006769,-200.0
2023-08-10 10:57:46.014458,-222.0
2023-08-10 10:57:46.022148,-227.0
2023-08-10 10:57:46.029838,-208.0
2023-08-10 10:57:46.037528,-191.0
2023-08-10 10:57:46.045218,-155.0
2023-08-10 10:57:46.052908,-88.0
2023-08-10 10:57:46.060598,-40.0
2023-08-10 10:57:46.068288,-21.0
2023-08-10 10:57:46.075978,16.0
2023-08-10 10:57:46.083668,47.0
2023-08-10 10:57:46.091358,38.0
2023-08-10 10:57:46.099048,28.0
2023-08-10 10:57:46.106738,43.0
2023-08-10 10:57:46.114428,43.0
2023-08-10 10:57:46.122118,33.0
2023-08-10 10:57:46.129808,40.0
2023-08-10 10:57:46.137497,43.0
2023-08-10 10:57:46.145187,26.0
2023-08-10 10:57:46.152877,16.0
2023-08-10 10:57:46.160567,31.0
2023-08-10 10:57:46.168257,40.0
2023-08-10 10:57:46.175947,11.0
2023-08-10 10:57:46.183637,-23.0
2023-08-10 10:57:46.191327,-21.0
2023-08-10 10:57:46.199017,7.0
2023-08-10 10:57:46.206707,21.0
2023-08-10 10:57:46.214397,-7.0
2023-08-10 10:57:46.222087,-28.0
2023-08-10 10:57:46.229777,-4.0
2023-08-10 10:57:46.237467,2.0
2023-08-10 10:57:46.245157,-19.0
2023-08-10 10:57:46.252847,-16.0
2023-08-10 10:57:46.260537,-4.0
2023-08-10 10:57:46.268226,-16.0
2023-08-10 10:57:46.275916,-28.0
2023-08-10 10:57:46.283606,-26.0
2023-08-10 10:57:46.291296,-33.0
2023-08-10 10:57:46.298986,-31.0
2023-08-10 10:57:46.306676,-19.0
2023-08-10 10:57:46.314366,-16.0
2023-08-10 10:57:46.322056,-21.0
2023-08-10 10:57:46.329746,-19.0
2023-08-10 10:57:46.337436,-9.0
2023-08-10 10:57:46.345126,-21.0
2023-08-10 10:57:46.352816,-40.0
2023-08-10 10:57:46.360506,-31.0
2023-08-10 10:57:46.368196,-26.0
2023-08-10 10:57:46.375886,-40.0
2023-08-10 10:57:46.383576,-45.0
2023-08-10 10:57:46.391265,-31.0
2023-08-10 10:57:46.398955,-14.0
2023-08-10 10:57:46.406645,-23.0
2023-08-10 10:57:46.414335,-33.0
2023-08-10 10:57:46.422025,-14.0
2023-08-10 10:57:46.429715,-23.0
2023-08-10 10:57:46.437405,-55.0
2023-08-10 10:57:46.445095,-45.0
2023-08-10 10:57:46.452785,-19.0
2023-08-10 10:57:46.460475,-21.0
2023-08-10 10:57:46.468165,-23.0
2023-08-10 10:57:46.475855,-28.0
2023-08-10 10:57:46.483545,-38.0
2023-08-10 10:57:46.491235,-23.0
2023-08-10 10:57:46.498925,-23.0
2023-08-10 10:57:46.506615,-47.0
2023-08-10 10:57:46.514305,-55.0
2023-08-10 10:57:46.521994,-55.0
2023-08-10 10:57:46.529684,-55.0
2023-08-10 10:57:46.537374,-28.0
2023-08-10 10:57:46.545064,-9.0
2023-08-10 10:57:46.552754,-33.0
2023-08-10 10:57:46.560444,-55.0
2023-08-10 10:57:46.568134,-55.0
2023-08-10 10:57:46.575824,-66.0
2023-08-10 10:57:46.583514,-57.0
2023-08-10 10:57:46.591204,-45.0
2023-08-10 10:57:46.598894,-71.0
2023-08-10 10:57:46.606584,-71.0
2023-08-10 10:57:46.614274,-38.0
2023-08-10 10:57:46.621964,-19.0
2023-08-10 10:57:46.629654,-23.0
2023-08-10 10:57:46.637344,-21.0
2023-08-10 10:57:46.645033,-23.0
2023-08-10 10:57:46.652723,-43.0
2023-08-10 10:57:46.660413,-52.0
2023-08-10 10:57:46.668103,-47.0
2023-08-10 10:57:46.675793,-50.0
2023-08-10 10:57:46.683483,-95.0
2023-08-10 10:57:46.691173,-251.0
2023-08-10 10:57:46.698863,-480.0
2023-08-10 10:57:46.706553,-641.0
2023-08-10 10:57:46.714243,-602.0
2023-08-10 10:57:46.721933,-327.0
2023-08-10 10:57:46.729623,9.0
2023-08-10 10:57:46.737313,122.0
2023-08-10 10:57:46.745003,16.0
2023-08-10 10:57:46.752693,-43.0
2023-08-10 10:57:46.760383,-2.0
2023-08-10 10:57:46.768073,16.0
2023-08-10 10:57:46.775762,-7.0
2023-08-10 10:57:46.783452,-26.0
2023-08-10 10:57:46.791142,-28.0
2023-08-10 10:57:46.798832,-9.0
2023-08-10 10:57:46.806522,4.0
2023-08-10 10:57:46.814212,-11.0
2023-08-10 10:57:46.821902,-31.0
2023-08-10 10:57:46.829592,-26.0
2023-08-10 10:57:46.837282,-33.0
2023-08-10 10:57:46.844972,-69.0
2023-08-10 10:57:46.852662,-81.0
2023-08-10 10:57:46.860352,-66.0
2023-08-10 10:57:46.868042,-71.0
2023-08-10 10:57:46.875732,-100.0
2023-08-10 10:57:46.883422,-112.0
2023-08-10 10:57:46.891112,-93.0
2023-08-10 10:57:46.898801,-95.0
2023-08-10 10:57:46.906491,-129.0
2023-08-10 10:57:46.914181,-153.0
2023-08-10 10:57:46.921871,-169.0
2023-08-10 10:57:46.929561,-186.0
2023-08-10 10:57:46.937251,-189.0
2023-08-10 10:57:46.944941,-196.0
2023-08-10 10:57:46.952631,-222.0
2023-08-10 10:57:46.960321,-239.0
2023-08-10 10:57:46.968011,-232.0
2023-08-10 10:57:46.975701,-205.0
2023-08-10 10:57:46.983391,-162.0
2023-08-10 10:57:46.991081,-131.0
2023-08-10 10:57:46.998771,-100.0
2023-08-10 10:57:47.006461,-45.0
2023-08-10 10:57:47.014151,-2.0
2023-08-10 10:57:47.021840,7.0
2023-08-10 10:57:47.029530,21.0
2023-08-10 10:57:47.037220,35.0
2023-08-10 10:57:47.044910,45.0
2023-08-10 10:57:47.052600,45.0
2023-08-10 10:57:47.060290,26.0
2023-08-10 10:57:47.067980,16.0
2023-08-10 10:57:47.075670,21.0
2023-08-10 10:57:47.083360,19.0
2023-08-10 10:57:47.091050,9.0
2023-08-10 10:57:47.098740,2.0
2023-08-10 10:57:47.106430,14.0
2023-08-10 10:57:47.114120,11.0
2023-08-10 10:57:47.121810,-4.0
2023-08-10 10:57:47.129500,-4.0
2023-08-10 10:57:47.137190,9.0
2023-08-10 10:57:47.144880,2.0
2023-08-10 10:57:47.152569,-11.0
2023-08-10 10:57:47.160259,-14.0
2023-08-10 10:57:47.167949,-7.0
2023-08-10 10:57:47.175639,0.0
2023-08-10 10:57:47.183329,-4.0
2023-08-10 10:57:47.191019,-21.0
2023-08-10 10:57:47.198709,-28.0
2023-08-10 10:57:47.206399,-16.0
2023-08-10 10:57:47.214089,-4.0
2023-08-10 10:57:47.221779,-16.0
2023-08-10 10:57:47.229469,-21.0
2023-08-10 10:57:47.237159,-11.0
2023-08-10 10:57:47.244849,-19.0
2023-08-10 10:57:47.252539,-26.0
2023-08-10 10:57:47.260229,-16.0
2023-08-10 10:57:47.267919,-16.0
2023-08-10 10:57:47.275608,-38.0
2023-08-10 10:57:47.283298,-26.0
2023-08-10 10:57:47.290988,0.0
2023-08-10 10:57:47.298678,-16.0
2023-08-10 10:57:47.306368,-43.0
2023-08-10 10:57:47.314058,-31.0
2023-08-10 10:57:47.321748,-9.0
2023-08-10 10:57:47.329438,-26.0
2023-08-10 10:57:47.337128,-35.0
2023-08-10 10:57:47.344818,-16.0
2023-08-10 10:57:47.352508,-23.0
2023-08-10 10:57:47.360198,-52.0
2023-08-10 10:57:47.367888,-40.0
2023-08-10 10:57:47.375578,-16.0
2023-08-10 10:57:47.383268,-31.0
2023-08-10 10:57:47.390958,-57.0
2023-08-10 10:57:47.398648,-43.0
2023-08-10 10:57:47.406337,-7.0
2023-08-10 10:57:47.414027,-14.0
2023-08-10 10:57:47.421717,-35.0
2023-08-10 10:57:47.429407,-35.0
2023-08-10 10:57:47.437097,-55.0
2023-08-10 10:57:47.444787,-69.0
2023-08-10 10:57:47.452477,-43.0
2023-08-10 10:57:47.460167,-35.0
2023-08-10 10:57:47.467857,-50.0
2023-08-10 10:57:47.475547,-35.0
2023-08-10 10:57:47.483237,-28.0
2023-08-10 10:57:47.490927,-47.0
2023-08-10 10:57:47.498617,-52.0
2023-08-10 10:57:47.506307,-55.0
2023-08-10 10:57:47.513997,-76.0
2023-08-10 10:57:47.521687,-90.0
2023-08-10 10:57:47.529376,-81.0
2023-08-10 10:57:47.537066,-78.0
2023-08-10 10:57:47.544756,-83.0
2023-08-10 10:57:47.552446,-57.0
2023-08-10 10:57:47.560136,-35.0
2023-08-10 10:57:47.567826,-62.0
2023-08-10 10:57:47.575516,-66.0
2023-08-10 10:57:47.583206,-38.0
2023-08-10 10:57:47.590896,-55.0
2023-08-10 10:57:47.598586,-102.0
2023-08-10 10:57:47.606276,-69.0
2023-08-10 10:57:47.613966,-16.0
2023-08-10 10:57:47.621656,-45.0
2023-08-10 10:57:47.629346,-66.0
2023-08-10 10:57:47.637036,-33.0
2023-08-10 10:57:47.644726,-59.0
2023-08-10 10:57:47.652416,-227.0
2023-08-10 10:57:47.660105,-464.0
2023-08-10 10:57:47.667795,-631.0
2023-08-10 10:57:47.675485,-650.0
2023-08-10 10:57:47.683175,-433.0
2023-08-10 10:57:47.690865,-71.0
2023-08-10 10:57:47.698555,95.0
2023-08-10 10:57:47.706245,26.0
2023-08-10 10:57:47.713935,-31.0
2023-08-10 10:57:47.721625,-2.0
2023-08-10 10:57:47.729315,23.0
2023-08-10 10:57:47.737005,-9.0
2023-08-10 10:57:47.744695,-45.0
2023-08-10 10:57:47.752385,-16.0
2023-08-10 10:57:47.760075,4.0
2023-08-10 10:57:47.767765,-33.0
2023-08-10 10:57:47.775455,-55.0
2023-08-10 10:57:47.783144,-52.0
2023-08-10 10:57:47.790834,-69.0
2023-08-10 10:57:47.798524,-66.0
2023-08-10 10:57:47.806214,-71.0
2023-08-10 10:57:47.813904,-95.0
2023-08-10 10:57:47.821594,-62.0
2023-08-10 10:57:47.829284,-43.0
2023-08-10 10:57:47.836974,-95.0
2023-08-10 10:57:47.844664,-112.0
2023-08-10 10:57:47.852354,-100.0
2023-08-10 10:57:47.860044,-136.0
2023-08-10 10:57:47.867734,-165.0
2023-08-10 10:57:47.875424,-177.0
2023-08-10 10:57:47.883114,-196.0
2023-08-10 10:57:47.890804,-186.0
2023-08-10 10:57:47.898494,-198.0
2023-08-10 10:57:47.906184,-241.0
2023-08-10 10:57:47.913873,-246.0
2023-08-10 10:57:47.921563,-232.0
2023-08-10 10:57:47.929253,-258.0
2023-08-10 10:57:47.936943,-270.0
2023-08-10 10:57:47.944633,-217.0
2023-08-10 10:57:47.952323,-167.0
2023-08-10 10:57:47.960013,-126.0
2023-08-10 10:57:47.967703,-59.0
2023-08-10 10:57:47.975393,0.0
2023-08-10 10:57:47.983083,9.0
2023-08-10 10:57:47.990773,4.0
2023-08-10 10:57:47.998463,11.0
2023-08-10 10:57:48.006153,21.0
2023-08-10 10:57:48.013843,38.0
2023-08-10 10:57:48.021533,45.0
2023-08-10 10:57:48.029223,33.0
2023-08-10 10:57:48.036912,31.0
2023-08-10 10:57:48.044602,26.0
2023-08-10 10:57:48.052292,23.0
2023-08-10 10:57:48.059982,40.0
2023-08-10 10:57:48.067672,23.0
2023-08-10 10:57:48.075362,2.0
2023-08-10 10:57:48.083052,21.0
2023-08-10 10:57:48.090742,26.0
2023-08-10 10:57:48.098432,14.0
2023-08-10 10:57:48.106122,28.0
2023-08-10 10:57:48.113812,28.0
2023-08-10 10:57:48.121502,4.0
2023-08-10 10:57:48.129192,16.0
2023-08-10 10:57:48.136882,26.0
2023-08-10 10:57:48.144572,7.0
2023-08-10 10:57:48.152262,2.0
2023-08-10 10:57:48.159951,11.0
2023-08-10 10:57:48.167641,16.0
2023-08-10 10:57:48.175331,9.0
2023-08-10 10:57:48.183021,16.0
2023-08-10 10:57:48.190711,35.0
2023-08-10 10:57:48.198401,11.0
2023-08-10 10:57:48.206091,-9.0
2023-08-10 10:57:48.213781,7.0
2023-08-10 10:57:48.221471,9.0
2023-08-10 10:57:48.229161,11.0
2023-08-10 10:57:48.236851,40.0
2023-08-10 10:57:48.244541,28.0
2023-08-10 10:57:48.252231,-4.0
2023-08-10 10:57:48.259921,0.0
2023-08-10 10:57:48.267611,21.0
2023-08-10 10:57:48.275301,-2.0
2023-08-10 10:57:48.282991,-31.0
2023-08-10 10:57:48.290680,-2.0
2023-08-10 10:57:48.298370,21.0
2023-08-10 10:57:48.306060,14.0
2023-08-10 10:57:48.313750,2.0
2023-08-10 10:57:48.321440,-21.0
2023-08-10 10:57:48.329130,-28.0
2023-08-10 10:57:48.336820,-2.0
2023-08-10 10:57:48.344510,-7.0
2023-08-10 10:57:48.352200,-35.0
2023-08-10 10:57:48.359890,-26.0
2023-08-10 10:57:48.367580,4.0
2023-08-10 10:57:48.375270,-2.0
2023-08-10 10:57:48.382960,-40.0
2023-08-10 10:57:48.390650,-74.0
2023-08-10 10:57:48.398340,-74.0
2023-08-10 10:57:48.406030,-50.0
2023-08-10 10:57:48.413719,-43.0
2023-08-10 10:57:48.421409,-47.0
2023-08-10 10:57:48.429099,-45.0
2023-08-10 10:57:48.436789,-59.0
2023-08-10 10:57:48.444479,-69.0
2023-08-10 10:57:48.452169,-52.0
2023-08-10 10:57:48.459859,-35.0
2023-08-10 10:57:48.467549,-31.0
2023-08-10 10:57:48.475239,-28.0
2023-08-10 10:57:48.482929,-28.0
2023-08-10 10:57:48.490619,-28.0
2023-08-10 10:57:48.498309,-26.0
2023-08-10 10:57:48.505999,-38.0
2023-08-10 10:57:48.513689,-43.0
2023-08-10 10:57:48.521379,-57.0
2023-08-10 10:57:48.529069,-191.0
2023-08-10 10:57:48.536759,-416.0
2023-08-10 10:57:48.544448,-586.0
2023-08-10 10:57:48.552138,-643.0
2023-08-10 10:57:48.559828,-488.0
2023-08-10 10:57:48.567518,-124.0
2023-08-10 10:57:48.575208,114.0
2023-08-10 10:57:48.582898,50.0
2023-08-10 10:57:48.590588,-57.0
2023-08-10 10:57:48.598278,-28.0
2023-08-10 10:57:48.605968,16.0
2023-08-10 10:57:48.613658,-2.0
2023-08-10 10:57:48.621348,-9.0
2023-08-10 10:57:48.629038,2.0
2023-08-10 10:57:48.636728,-23.0
2023-08-10 10:57:48.644418,-57.0
2023-08-10 10:57:48.652108,-40.0
2023-08-10 10:57:48.659798,-14.0
2023-08-10 10:57:48.667487,-28.0
2023-08-10 10:57:48.675177,-55.0
2023-08-10 10:57:48.682867,-71.0
2023-08-10 10:57:48.690557,-66.0
2023-08-10 10:57:48.698247,-38.0
2023-08-10 10:57:48.705937,-50.0
2023-08-10 10:57:48.713627,-100.0
2023-08-10 10:57:48.721317,-122.0
2023-08-10 10:57:48.729007,-107.0
2023-08-10 10:57:48.736697,-119.0
2023-08-10 10:57:48.744387,-155.0
2023-08-10 10:57:48.752077,-162.0
2023-08-10 10:57:48.759767,-157.0
2023-08-10 10:57:48.767457,-174.0
2023-08-10 10:57:48.775147,-196.0
2023-08-10 10:57:48.782837,-224.0
2023-08-10 10:57:48.790527,-263.0
2023-08-10 10:57:48.798216,-258.0
2023-08-10 10:57:48.805906,-239.0
2023-08-10 10:57:48.813596,-248.0
2023-08-10 10:57:48.821286,-220.0
2023-08-10 10:57:48.828976,-145.0
2023-08-10 10:57:48.836666,-81.0
2023-08-10 10:57:48.844356,-55.0
2023-08-10 10:57:48.852046,-35.0
2023-08-10 10:57:48.859736,-7.0
2023-08-10 10:57:48.867426,-7.0
2023-08-10 10:57:48.875116,-2.0
2023-08-10 10:57:48.882806,35.0
2023-08-10 10:57:48.890496,33.0
2023-08-10 10:57:48.898186,21.0
2023-08-10 10:57:48.905876,38.0
2023-08-10 10:57:48.913566,35.0
2023-08-10 10:57:48.921255,7.0
2023-08-10 10:57:48.928945,-2.0
2023-08-10 10:57:48.936635,-2.0
2023-08-10 10:57:48.944325,0.0
2023-08-10 10:57:48.952015,7.0
2023-08-10 10:57:48.959705,0.0
2023-08-10 10:57:48.967395,-14.0
2023-08-10 10:57:48.975085,-14.0
2023-08-10 10:57:48.982775,-16.0
2023-08-10 10:57:48.990465,-7.0
2023-08-10 10:57:48.998155,14.0
2023-08-10 10:57:49.005845,0.0
2023-08-10 10:57:49.013535,-40.0
2023-08-10 10:57:49.021225,-28.0
2023-08-10 10:57:49.028915,4.0
2023-08-10 10:57:49.036605,-11.0
2023-08-10 10:57:49.044295,-31.0
2023-08-10 10:57:49.051984,-19.0
2023-08-10 10:57:49.059674,-4.0
2023-08-10 10:57:49.067364,-11.0
2023-08-10 10:57:49.075054,-38.0
2023-08-10 10:57:49.082744,-50.0
2023-08-10 10:57:49.090434,-28.0
2023-08-10 10:57:49.098124,-4.0
2023-08-10 10:57:49.105814,-2.0
2023-08-10 10:57:49.113504,-7.0
2023-08-10 10:57:49.121194,-16.0
2023-08-10 10:57:49.128884,-26.0
2023-08-10 10:57:49.136574,-19.0
2023-08-10 10:57:49.144264,-11.0
2023-08-10 10:57:49.151954,-16.0
2023-08-10 10:57:49.159644,-19.0
2023-08-10 10:57:49.167334,-7.0
2023-08-10 10:57:49.175023,0.0
2023-08-10 10:57:49.182713,-21.0
2023-08-10 10:57:49.190403,-40.0
2023-08-10 10:57:49.198093,-21.0
2023-08-10 10:57:49.205783,-7.0
2023-08-10 10:57:49.213473,-14.0
2023-08-10 10:57:49.221163,-16.0
2023-08-10 10:57:49.228853,-16.0
2023-08-10 10:57:49.236543,-26.0
2023-08-10 10:57:49.244233,-16.0
2023-08-10 10:57:49.251923,7.0
2023-08-10 10:57:49.259613,-2.0
2023-08-10 10:57:49.267303,-21.0
2023-08-10 10:57:49.274993,-11.0
2023-08-10 10:57:49.282683,-7.0
2023-08-10 10:57:49.290373,-19.0
2023-08-10 10:57:49.298063,-19.0
2023-08-10 10:57:49.305752,-11.0
2023-08-10 10:57:49.313442,-19.0
2023-08-10 10:57:49.321132,-23.0
2023-08-10 10:57:49.328822,-19.0
2023-08-10 10:57:49.336512,-23.0
2023-08-10 10:57:49.344202,-52.0
2023-08-10 10:57:49.351892,-69.0
2023-08-10 10:57:49.359582,-40.0
2023-08-10 10:57:49.367272,-21.0
2023-08-10 10:57:49.374962,-33.0
2023-08-10 10:57:49.382652,-35.0
2023-08-10 10:57:49.390342,-26.0
2023-08-10 10:57:49.398032,-26.0
2023-08-10 10:57:49.405722,-4.0
2023-08-10 10:57:49.413412,7.0
2023-08-10 10:57:49.421102,-19.0
2023-08-10 10:57:49.428791,-21.0
2023-08-10 10:57:49.436481,-2.0
2023-08-10 10:57:49.444171,-9.0
2023-08-10 10:57:49.451861,-11.0
2023-08-10 10:57:49.459551,-14.0
2023-08-10 10:57:49.467241,-66.0
2023-08-10 10:57:49.474931,-208.0
2023-08-10 10:57:49.482621,-416.0
2023-08-10 10:57:49.490311,-605.0
2023-08-10 10:57:49.498001,-626.0
2023-08-10 10:57:49.505691,-363.0
2023-08-10 10:57:49.513381,9.0
2023-08-10 10:57:49.521071,126.0
2023-08-10 10:57:49.528761,11.0
2023-08-10 10:57:49.536451,-26.0
2023-08-10 10:57:49.544141,11.0
2023-08-10 10:57:49.551830,2.0
2023-08-10 10:57:49.559520,-9.0
2023-08-10 10:57:49.567210,0.0
2023-08-10 10:57:49.574900,2.0
2023-08-10 10:57:49.582590,0.0
2023-08-10 10:57:49.590280,-9.0
2023-08-10 10:57:49.597970,-31.0
2023-08-10 10:57:49.605660,-43.0
2023-08-10 10:57:49.613350,-45.0
2023-08-10 10:57:49.621040,-43.0
2023-08-10 10:57:49.628730,-33.0
2023-08-10 10:57:49.636420,-52.0
2023-08-10 10:57:49.644110,-88.0
2023-08-10 10:57:49.651800,-88.0
2023-08-10 10:57:49.659490,-83.0
2023-08-10 10:57:49.667180,-112.0
2023-08-10 10:57:49.674870,-126.0
2023-08-10 10:57:49.682559,-126.0
2023-08-10 10:57:49.690249,-143.0
2023-08-10 10:57:49.697939,-172.0
2023-08-10 10:57:49.705629,-189.0
2023-08-10 10:57:49.713319,-198.0
2023-08-10 10:57:49.721009,-203.0
2023-08-10 10:57:49.728699,-224.0
2023-08-10 10:57:49.736389,-256.0
2023-08-10 10:57:49.744079,-258.0
2023-08-10 10:57:49.751769,-236.0
2023-08-10 10:57:49.759459,-220.0
2023-08-10 10:57:49.767149,-196.0
2023-08-10 10:57:49.774839,-141.0
2023-08-10 10:57:49.782529,-86.0
2023-08-10 10:57:49.790219,-52.0
2023-08-10 10:57:49.797909,-23.0
2023-08-10 10:57:49.805598,0.0
2023-08-10 10:57:49.813288,14.0
2023-08-10 10:57:49.820978,40.0
2023-08-10 10:57:49.828668,52.0
2023-08-10 10:57:49.836358,50.0
2023-08-10 10:57:49.844048,43.0
2023-08-10 10:57:49.851738,40.0
2023-08-10 10:57:49.859428,45.0
2023-08-10 10:57:49.867118,38.0
2023-08-10 10:57:49.874808,16.0
2023-08-10 10:57:49.882498,21.0
2023-08-10 10:57:49.890188,28.0
2023-08-10 10:57:49.897878,16.0
2023-08-10 10:57:49.905568,14.0
2023-08-10 10:57:49.913258,14.0
2023-08-10 10:57:49.920948,16.0
2023-08-10 10:57:49.928638,19.0
2023-08-10 10:57:49.936327,9.0
2023-08-10 10:57:49.944017,2.0
2023-08-10 10:57:49.951707,7.0
2023-08-10 10:57:49.959397,4.0
2023-08-10 10:57:49.967087,4.0
2023-08-10 10:57:49.974777,11.0
2023-08-10 10:57:49.982467,11.0
2023-08-10 10:57:49.990157,-4.0
2023-08-10 10:57:49.997847,-26.0
2023-08-10 10:57:50.005537,-28.0
2023-08-10 10:57:50.013227,-23.0
2023-08-10 10:57:50.020917,-35.0
2023-08-10 10:57:50.028607,-38.0
2023-08-10 10:57:50.036297,-26.0
2023-08-10 10:57:50.043987,-26.0
2023-08-10 10:57:50.051677,-31.0
2023-08-10 10:57:50.059366,-33.0
2023-08-10 10:57:50.067056,-33.0
2023-08-10 10:57:50.074746,-43.0
2023-08-10 10:57:50.082436,-38.0
2023-08-10 10:57:50.090126,-23.0
2023-08-10 10:57:50.097816,-23.0
2023-08-10 10:57:50.105506,-38.0
2023-08-10 10:57:50.113196,-43.0
2023-08-10 10:57:50.120886,-43.0
2023-08-10 10:57:50.128576,-43.0
2023-08-10 10:57:50.136266,-40.0
2023-08-10 10:57:50.143956,-38.0
2023-08-10 10:57:50.151646,-33.0
2023-08-10 10:57:50.159336,-31.0
2023-08-10 10:57:50.167026,-33.0
2023-08-10 10:57:50.174716,-28.0
2023-08-10 10:57:50.182406,-28.0
2023-08-10 10:57:50.190095,-35.0
2023-08-10 10:57:50.197785,-21.0
2023-08-10 10:57:50.205475,-31.0
2023-08-10 10:57:50.213165,-69.0
2023-08-10 10:57:50.220855,-57.0
2023-08-10 10:57:50.228545,-31.0
2023-08-10 10:57:50.236235,-35.0
2023-08-10 10:57:50.243925,-33.0
2023-08-10 10:57:50.251615,-21.0
2023-08-10 10:57:50.259305,-33.0
2023-08-10 10:57:50.266995,-52.0
2023-08-10 10:57:50.274685,-64.0
2023-08-10 10:57:50.282375,-74.0
2023-08-10 10:57:50.290065,-71.0
2023-08-10 10:57:50.297755,-55.0
2023-08-10 10:57:50.305445,-55.0
2023-08-10 10:57:50.313134,-74.0
2023-08-10 10:57:50.320824,-71.0
2023-08-10 10:57:50.328514,-52.0
2023-08-10 10:57:50.336204,-45.0
2023-08-10 10:57:50.343894,-38.0
2023-08-10 10:57:50.351584,-28.0
2023-08-10 10:57:50.359274,-43.0
2023-08-10 10:57:50.366964,-59.0
2023-08-10 10:57:50.374654,-52.0
2023-08-10 10:57:50.382344,-35.0
2023-08-10 10:57:50.390034,-31.0
2023-08-10 10:57:50.397724,-47.0
2023-08-10 10:57:50.405414,-122.0
2023-08-10 10:57:50.413104,-299.0
2023-08-10 10:57:50.420794,-531.0
2023-08-10 10:57:50.428484,-696.0
2023-08-10 10:57:50.436174,-631.0
2023-08-10 10:57:50.443863,-301.0
2023-08-10 10:57:50.451553,26.0
2023-08-10 10:57:50.459243,107.0
2023-08-10 10:57:50.466933,19.0
2023-08-10 10:57:50.474623,-21.0
2023-08-10 10:57:50.482313,14.0
2023-08-10 10:57:50.490003,26.0
2023-08-10 10:57:50.497693,2.0
2023-08-10 10:57:50.505383,-9.0
2023-08-10 10:57:50.513073,-11.0
2023-08-10 10:57:50.520763,-9.0
2023-08-10 10:57:50.528453,-14.0
2023-08-10 10:57:50.536143,-40.0
2023-08-10 10:57:50.543833,-62.0
2023-08-10 10:57:50.551523,-59.0
2023-08-10 10:57:50.559213,-50.0
2023-08-10 10:57:50.566902,-66.0
2023-08-10 10:57:50.574592,-88.0
2023-08-10 10:57:50.582282,-90.0
2023-08-10 10:57:50.589972,-102.0
2023-08-10 10:57:50.597662,-138.0
2023-08-10 10:57:50.605352,-148.0
2023-08-10 10:57:50.613042,-136.0
2023-08-10 10:57:50.620732,-155.0
2023-08-10 10:57:50.628422,-186.0
2023-08-10 10:57:50.636112,-198.0
2023-08-10 10:57:50.643802,-212.0
2023-08-10 10:57:50.651492,-224.0
2023-08-10 10:57:50.659182,-227.0
2023-08-10 10:57:50.666872,-241.0
2023-08-10 10:57:50.674562,-260.0
2023-08-10 10:57:50.682252,-263.0
2023-08-10 10:57:50.689941,-265.0
2023-08-10 10:57:50.697631,-253.0
2023-08-10 10:57:50.705321,-203.0
2023-08-10 10:57:50.713011,-150.0
2023-08-10 10:57:50.720701,-95.0
2023-08-10 10:57:50.728391,-38.0
2023-08-10 10:57:50.736081,-7.0
2023-08-10 10:57:50.743771,19.0
2023-08-10 10:57:50.751461,45.0
2023-08-10 10:57:50.759151,38.0
2023-08-10 10:57:50.766841,23.0
2023-08-10 10:57:50.774531,35.0
2023-08-10 10:57:50.782221,45.0
2023-08-10 10:57:50.789911,35.0
2023-08-10 10:57:50.797601,28.0
2023-08-10 10:57:50.805291,26.0
2023-08-10 10:57:50.812981,21.0
2023-08-10 10:57:50.820670,21.0
2023-08-10 10:57:50.828360,21.0
2023-08-10 10:57:50.836050,28.0
2023-08-10 10:57:50.843740,28.0
2023-08-10 10:57:50.851430,16.0
2023-08-10 10:57:50.859120,16.0
2023-08-10 10:57:50.866810,35.0
2023-08-10 10:57:50.874500,9.0
2023-08-10 10:57:50.882190,-31.0
2023-08-10 10:57:50.889880,-4.0
2023-08-10 10:57:50.897570,21.0
2023-08-10 10:57:50.905260,-4.0
2023-08-10 10:57:50.912950,-14.0
2023-08-10 10:57:50.920640,-4.0
2023-08-10 10:57:50.928330,4.0
2023-08-10 10:57:50.936020,16.0
2023-08-10 10:57:50.943709,28.0
2023-08-10 10:57:50.951399,7.0
2023-08-10 10:57:50.959089,-31.0
2023-08-10 10:57:50.966779,-31.0
2023-08-10 10:57:50.974469,4.0
2023-08-10 10:57:50.982159,19.0
2023-08-10 10:57:50.989849,0.0
2023-08-10 10:57:50.997539,-21.0
2023-08-10 10:57:51.005229,-21.0
2023-08-10 10:57:51.012919,-14.0
2023-08-10 10:57:51.020609,-7.0
2023-08-10 10:57:51.028299,-9.0
2023-08-10 10:57:51.035989,-11.0
2023-08-10 10:57:51.043679,-4.0
2023-08-10 10:57:51.051369,-19.0
2023-08-10 10:57:51.059059,-33.0
2023-08-10 10:57:51.066749,-14.0
2023-08-10 10:57:51.074438,-9.0
2023-08-10 10:57:51.082128,-35.0
2023-08-10 10:57:51.089818,-50.0
2023-08-10 10:57:51.097508,-38.0
2023-08-10 10:57:51.105198,-16.0
2023-08-10 10:57:51.112888,-19.0
2023-08-10 10:57:51.120578,-26.0
2023-08-10 10:57:51.128268,-19.0
2023-08-10 10:57:51.135958,-19.0
2023-08-10 10:57:51.143648,-40.0
2023-08-10 10:57:51.151338,-55.0
2023-08-10 10:57:51.159028,-43.0
2023-08-10 10:57:51.166718,-38.0
2023-08-10 10:57:51.174408,-71.0
2023-08-10 10:57:51.182098,-100.0
2023-08-10 10:57:51.189788,-83.0
2023-08-10 10:57:51.197477,-52.0
2023-08-10 10:57:51.205167,-55.0
2023-08-10 10:57:51.212857,-74.0
2023-08-10 10:57:51.220547,-74.0
2023-08-10 10:57:51.228237,-64.0
2023-08-10 10:57:51.235927,-57.0
2023-08-10 10:57:51.243617,-43.0
2023-08-10 10:57:51.251307,-43.0
2023-08-10 10:57:51.258997,-59.0
2023-08-10 10:57:51.266687,-55.0
2023-08-10 10:57:51.274377,-43.0
2023-08-10 10:57:51.282067,-47.0
2023-08-10 10:57:51.289757,-50.0
2023-08-10 10:57:51.297447,-64.0
2023-08-10 10:57:51.305137,-186.0
2023-08-10 10:57:51.312827,-416.0
2023-08-10 10:57:51.320517,-631.0
2023-08-10 10:57:51.328206,-717.0
2023-08-10 10:57:51.335896,-519.0
2023-08-10 10:57:51.343586,-95.0
2023-08-10 10:57:51.351276,138.0
2023-08-10 10:57:51.358966,38.0
2023-08-10 10:57:51.366656,-62.0
2023-08-10 10:57:51.374346,9.0
2023-08-10 10:57:51.382036,57.0
2023-08-10 10:57:51.389726,11.0
2023-08-10 10:57:51.397416,-9.0
2023-08-10 10:57:51.405106,11.0
2023-08-10 10:57:51.412796,9.0
2023-08-10 10:57:51.420486,-21.0
2023-08-10 10:57:51.428176,-28.0
2023-08-10 10:57:51.435866,-26.0
2023-08-10 10:57:51.443556,-19.0
2023-08-10 10:57:51.451245,-7.0
2023-08-10 10:57:51.458935,-23.0
2023-08-10 10:57:51.466625,-47.0
2023-08-10 10:57:51.474315,-50.0
2023-08-10 10:57:51.482005,-57.0
2023-08-10 10:57:51.489695,-69.0
2023-08-10 10:57:51.497385,-81.0
2023-08-10 10:57:51.505075,-100.0
2023-08-10 10:57:51.512765,-112.0
2023-08-10 10:57:51.520455,-129.0
2023-08-10 10:57:51.528145,-165.0
2023-08-10 10:57:51.535835,-193.0
2023-08-10 10:57:51.543525,-203.0
2023-08-10 10:57:51.551215,-215.0
2023-08-10 10:57:51.558905,-222.0
2023-08-10 10:57:51.566595,-222.0
2023-08-10 10:57:51.574285,-229.0
2023-08-10 10:57:51.581974,-251.0
2023-08-10 10:57:51.589664,-260.0
2023-08-10 10:57:51.597354,-224.0
2023-08-10 10:57:51.605044,-150.0
2023-08-10 10:57:51.612734,-93.0
2023-08-10 10:57:51.620424,-57.0
2023-08-10 10:57:51.628114,-9.0
2023-08-10 10:57:51.635804,33.0
2023-08-10 10:57:51.643494,47.0
2023-08-10 10:57:51.651184,43.0
2023-08-10 10:57:51.658874,33.0
2023-08-10 10:57:51.666564,43.0
2023-08-10 10:57:51.674254,57.0
2023-08-10 10:57:51.681944,59.0
2023-08-10 10:57:51.689634,57.0
2023-08-10 10:57:51.697324,47.0
2023-08-10 10:57:51.705013,28.0
2023-08-10 10:57:51.712703,14.0
2023-08-10 10:57:51.720393,14.0
2023-08-10 10:57:51.728083,21.0
2023-08-10 10:57:51.735773,26.0
2023-08-10 10:57:51.743463,19.0
2023-08-10 10:57:51.751153,9.0
2023-08-10 10:57:51.758843,7.0
2023-08-10 10:57:51.766533,16.0
2023-08-10 10:57:51.774223,0.0
2023-08-10 10:57:51.781913,-21.0
2023-08-10 10:57:51.789603,-4.0
2023-08-10 10:57:51.797293,14.0
2023-08-10 10:57:51.804983,0.0
2023-08-10 10:57:51.812673,-16.0
2023-08-10 10:57:51.820363,-14.0
2023-08-10 10:57:51.828052,-4.0
2023-08-10 10:57:51.835742,4.0
2023-08-10 10:57:51.843432,2.0
2023-08-10 10:57:51.851122,-9.0
2023-08-10 10:57:51.858812,-14.0
2023-08-10 10:57:51.866502,-4.0
2023-08-10 10:57:51.874192,-9.0
2023-08-10 10:57:51.881882,-19.0
2023-08-10 10:57:51.889572,-21.0
2023-08-10 10:57:51.897262,-19.0
2023-08-10 10:57:51.904952,-9.0
2023-08-10 10:57:51.912642,-2.0
2023-08-10 10:57:51.920332,-2.0
2023-08-10 10:57:51.928022,-4.0
2023-08-10 10:57:51.935712,-9.0
2023-08-10 10:57:51.943402,-16.0
2023-08-10 10:57:51.951092,-14.0
2023-08-10 10:57:51.958781,-14.0
2023-08-10 10:57:51.966471,-16.0
2023-08-10 10:57:51.974161,-14.0
2023-08-10 10:57:51.981851,-14.0
2023-08-10 10:57:51.989541,-21.0
2023-08-10 10:57:51.997231,-31.0
2023-08-10 10:57:52.004921,-26.0
2023-08-10 10:57:52.012611,-11.0
2023-08-10 10:57:52.020301,-2.0
2023-08-10 10:57:52.027991,-4.0
2023-08-10 10:57:52.035681,-21.0
2023-08-10 10:57:52.043371,-40.0
2023-08-10 10:57:52.051061,-47.0
2023-08-10 10:57:52.058751,-45.0
2023-08-10 10:57:52.066441,-28.0
2023-08-10 10:57:52.074131,-26.0
2023-08-10 10:57:52.081820,-38.0
2023-08-10 10:57:52.089510,-40.0
2023-08-10 10:57:52.097200,-31.0
2023-08-10 10:57:52.104890,-28.0
2023-08-10 10:57:52.112580,-31.0
2023-08-10 10:57:52.120270,-28.0
2023-08-10 10:57:52.127960,-33.0
2023-08-10 10:57:52.135650,-62.0
2023-08-10 10:57:52.143340,-78.0
2023-08-10 10:57:52.151030,-59.0
2023-08-10 10:57:52.158720,-52.0
2023-08-10 10:57:52.166410,-62.0
2023-08-10 10:57:52.174100,-55.0
2023-08-10 10:57:52.181790,-33.0
2023-08-10 10:57:52.189480,-23.0
2023-08-10 10:57:52.197170,-31.0
2023-08-10 10:57:52.204860,-31.0
2023-08-10 10:57:52.212549,-28.0
2023-08-10 10:57:52.220239,-28.0
2023-08-10 10:57:52.227929,-21.0
2023-08-10 10:57:52.235619,-21.0
2023-08-10 10:57:52.243309,-23.0
2023-08-10 10:57:52.250999,-31.0
2023-08-10 10:57:52.258689,-90.0
2023-08-10 10:57:52.266379,-258.0
2023-08-10 10:57:52.274069,-473.0
2023-08-10 10:57:52.281759,-650.0
2023-08-10 10:57:52.289449,-672.0
2023-08-10 10:57:52.297139,-385.0
2023-08-10 10:57:52.304829,19.0
2023-08-10 10:57:52.312519,129.0
2023-08-10 10:57:52.320209,4.0
2023-08-10 10:57:52.327899,-19.0
2023-08-10 10:57:52.335588,40.0
2023-08-10 10:57:52.343278,21.0
2023-08-10 10:57:52.350968,-19.0
2023-08-10 10:57:52.358658,-4.0
2023-08-10 10:57:52.366348,9.0
2023-08-10 10:57:52.374038,-9.0
2023-08-10 10:57:52.381728,-33.0
2023-08-10 10:57:52.389418,-47.0
2023-08-10 10:57:52.397108,-55.0
2023-08-10 10:57:52.404798,-52.0
2023-08-10 10:57:52.412488,-55.0
2023-08-10 10:57:52.420178,-66.0
2023-08-10 10:57:52.427868,-69.0
2023-08-10 10:57:52.435558,-81.0
2023-08-10 10:57:52.443248,-100.0
2023-08-10 10:57:52.450938,-105.0
2023-08-10 10:57:52.458628,-119.0
2023-08-10 10:57:52.466317,-145.0
2023-08-10 10:57:52.474007,-150.0
2023-08-10 10:57:52.481697,-157.0
2023-08-10 10:57:52.489387,-179.0
2023-08-10 10:57:52.497077,-189.0
2023-08-10 10:57:52.504767,-205.0
2023-08-10 10:57:52.512457,-239.0
2023-08-10 10:57:52.520147,-253.0
2023-08-10 10:57:52.527837,-248.0
2023-08-10 10:57:52.535527,-253.0
2023-08-10 10:57:52.543217,-270.0
2023-08-10 10:57:52.550907,-256.0
2023-08-10 10:57:52.558597,-215.0
2023-08-10 10:57:52.566287,-169.0
2023-08-10 10:57:52.573977,-112.0
2023-08-10 10:57:52.581667,-52.0
2023-08-10 10:57:52.589356,-14.0
2023-08-10 10:57:52.597046,7.0
2023-08-10 10:57:52.604736,19.0
2023-08-10 10:57:52.612426,23.0
2023-08-10 10:57:52.620116,38.0
2023-08-10 10:57:52.627806,45.0
2023-08-10 10:57:52.635496,43.0
2023-08-10 10:57:52.643186,47.0
2023-08-10 10:57:52.650876,43.0
2023-08-10 10:57:52.658566,21.0
2023-08-10 10:57:52.666256,14.0
2023-08-10 10:57:52.673946,33.0
2023-08-10 10:57:52.681636,38.0
2023-08-10 10:57:52.689326,21.0
2023-08-10 10:57:52.697016,14.0
2023-08-10 10:57:52.704706,16.0
2023-08-10 10:57:52.712396,21.0
2023-08-10 10:57:52.720085,19.0
2023-08-10 10:57:52.727775,16.0
2023-08-10 10:57:52.735465,23.0
2023-08-10 10:57:52.743155,19.0
2023-08-10 10:57:52.750845,2.0
2023-08-10 10:57:52.758535,4.0
2023-08-10 10:57:52.766225,7.0
2023-08-10 10:57:52.773915,-11.0
2023-08-10 10:57:52.781605,-14.0
2023-08-10 10:57:52.789295,2.0
2023-08-10 10:57:52.796985,14.0
2023-08-10 10:57:52.804675,11.0
2023-08-10 10:57:52.812365,-2.0
2023-08-10 10:57:52.820055,-2.0
2023-08-10 10:57:52.827745,7.0
2023-08-10 10:57:52.835435,4.0
2023-08-10 10:57:52.843124,-9.0
2023-08-10 10:57:52.850814,-26.0
2023-08-10 10:57:52.858504,-31.0
2023-08-10 10:57:52.866194,-14.0
2023-08-10 10:57:52.873884,-7.0
2023-08-10 10:57:52.881574,-21.0
2023-08-10 10:57:52.889264,-16.0
2023-08-10 10:57:52.896954,2.0
2023-08-10 10:57:52.904644,-11.0
2023-08-10 10:57:52.912334,-28.0
2023-08-10 10:57:52.920024,-19.0
2023-08-10 10:57:52.927714,-9.0
2023-08-10 10:57:52.935404,-23.0
2023-08-10 10:57:52.943094,-26.0
2023-08-10 10:57:52.950784,-9.0
2023-08-10 10:57:52.958474,-9.0
2023-08-10 10:57:52.966164,-19.0
2023-08-10 10:57:52.973853,-21.0
2023-08-10 10:57:52.981543,-26.0
2023-08-10 10:57:52.989233,-40.0
2023-08-10 10:57:52.996923,-26.0
2023-08-10 10:57:53.004613,-4.0
2023-08-10 10:57:53.012303,-14.0
2023-08-10 10:57:53.019993,-38.0
2023-08-10 10:57:53.027683,-43.0
2023-08-10 10:57:53.035373,-28.0
2023-08-10 10:57:53.043063,-26.0
2023-08-10 10:57:53.050753,-31.0
2023-08-10 10:57:53.058443,-33.0
2023-08-10 10:57:53.066133,-40.0
2023-08-10 10:57:53.073823,-40.0
2023-08-10 10:57:53.081513,-31.0
2023-08-10 10:57:53.089203,-38.0
2023-08-10 10:57:53.096892,-45.0
2023-08-10 10:57:53.104582,-33.0
2023-08-10 10:57:53.112272,-43.0
2023-08-10 10:57:53.119962,-59.0
2023-08-10 10:57:53.127652,-52.0
2023-08-10 10:57:53.135342,-64.0
2023-08-10 10:57:53.143032,-76.0
2023-08-10 10:57:53.150722,-64.0
2023-08-10 10:57:53.158412,-52.0
2023-08-10 10:57:53.166102,-52.0
2023-08-10 10:57:53.173792,-52.0
2023-08-10 10:57:53.181482,-35.0
2023-08-10 10:57:53.189172,-11.0
2023-08-10 10:57:53.196862,-14.0
2023-08-10 10:57:53.204552,-33.0
2023-08-10 10:57:53.212242,-28.0
2023-08-10 10:57:53.219931,-14.0
2023-08-10 10:57:53.227621,-21.0
2023-08-10 10:57:53.235311,-28.0
2023-08-10 10:57:53.243001,-23.0
2023-08-10 10:57:53.250691,-74.0
2023-08-10 10:57:53.258381,-258.0
2023-08-10 10:57:53.266071,-497.0
2023-08-10 10:57:53.273761,-653.0
2023-08-10 10:57:53.281451,-636.0
2023-08-10 10:57:53.289141,-356.0
2023-08-10 10:57:53.296831,21.0
2023-08-10 10:57:53.304521,129.0
2023-08-10 10:57:53.312211,2.0
2023-08-10 10:57:53.319901,-26.0
2023-08-10 10:57:53.327591,35.0
2023-08-10 10:57:53.335281,23.0
2023-08-10 10:57:53.342971,-9.0
2023-08-10 10:57:53.350660,0.0
2023-08-10 10:57:53.358350,0.0
2023-08-10 10:57:53.366040,-9.0
2023-08-10 10:57:53.373730,-14.0
2023-08-10 10:57:53.381420,-35.0
2023-08-10 10:57:53.389110,-52.0
2023-08-10 10:57:53.396800,-35.0
2023-08-10 10:57:53.404490,-31.0
2023-08-10 10:57:53.412180,-64.0
2023-08-10 10:57:53.419870,-69.0
2023-08-10 10:57:53.427560,-62.0
2023-08-10 10:57:53.435250,-105.0
2023-08-10 10:57:53.442940,-133.0
2023-08-10 10:57:53.450630,-114.0
2023-08-10 10:57:53.458320,-126.0
2023-08-10 10:57:53.466010,-157.0
2023-08-10 10:57:53.473699,-153.0
2023-08-10 10:57:53.481389,-155.0
2023-08-10 10:57:53.489079,-198.0
2023-08-10 10:57:53.496769,-224.0
2023-08-10 10:57:53.504459,-222.0
2023-08-10 10:57:53.512149,-241.0
2023-08-10 10:57:53.519839,-267.0
2023-08-10 10:57:53.527529,-263.0
2023-08-10 10:57:53.535219,-258.0
2023-08-10 10:57:53.542909,-253.0
2023-08-10 10:57:53.550599,-222.0
2023-08-10 10:57:53.558289,-174.0
2023-08-10 10:57:53.565979,-110.0
2023-08-10 10:57:53.573669,-45.0
2023-08-10 10:57:53.581359,-16.0
2023-08-10 10:57:53.589049,-7.0
2023-08-10 10:57:53.596739,21.0
2023-08-10 10:57:53.604428,50.0
2023-08-10 10:57:53.612118,45.0
2023-08-10 10:57:53.619808,21.0
2023-08-10 10:57:53.627498,31.0
2023-08-10 10:57:53.635188,50.0
2023-08-10 10:57:53.642878,26.0
2023-08-10 10:57:53.650568,11.0
2023-08-10 10:57:53.658258,35.0
2023-08-10 10:57:53.665948,35.0
2023-08-10 10:57:53.673638,21.0
2023-08-10 10:57:53.681328,26.0
2023-08-10 10:57:53.689018,33.0
2023-08-10 10:57:53.696708,23.0
2023-08-10 10:57:53.704398,14.0
2023-08-10 10:57:53.712088,16.0
2023-08-10 10:57:53.719778,21.0
2023-08-10 10:57:53.727467,14.0
2023-08-10 10:57:53.735157,7.0
2023-08-10 10:57:53.742847,4.0
2023-08-10 10:57:53.750537,9.0
2023-08-10 10:57:53.758227,11.0
2023-08-10 10:57:53.765917,-11.0
2023-08-10 10:57:53.773607,-11.0
2023-08-10 10:57:53.781297,14.0
2023-08-10 10:57:53.788987,14.0
2023-08-10 10:57:53.796677,0.0
2023-08-10 10:57:53.804367,4.0
2023-08-10 10:57:53.812057,9.0
2023-08-10 10:57:53.819747,-4.0
2023-08-10 10:57:53.827437,-14.0
2023-08-10 10:57:53.835127,-7.0
2023-08-10 10:57:53.842817,7.0
2023-08-10 10:57:53.850507,4.0
2023-08-10 10:57:53.858196,-7.0
2023-08-10 10:57:53.865886,-14.0
2023-08-10 10:57:53.873576,-11.0
2023-08-10 10:57:53.881266,-11.0
2023-08-10 10:57:53.888956,-7.0
2023-08-10 10:57:53.896646,-4.0
2023-08-10 10:57:53.904336,-9.0
2023-08-10 10:57:53.912026,-23.0
2023-08-10 10:57:53.919716,-16.0
2023-08-10 10:57:53.927406,7.0
2023-08-10 10:57:53.935096,7.0
2023-08-10 10:57:53.942786,-9.0
2023-08-10 10:57:53.950476,-11.0
2023-08-10 10:57:53.958166,-16.0
2023-08-10 10:57:53.965856,-31.0
2023-08-10 10:57:53.973546,-33.0
2023-08-10 10:57:53.981235,-23.0
2023-08-10 10:57:53.988925,-21.0
2023-08-10 10:57:53.996615,-28.0
2023-08-10 10:57:54.004305,-45.0
2023-08-10 10:57:54.011995,-55.0
2023-08-10 10:57:54.019685,-43.0
2023-08-10 10:57:54.027375,-35.0
2023-08-10 10:57:54.035065,-40.0
2023-08-10 10:57:54.042755,-35.0
2023-08-10 10:57:54.050445,-43.0
2023-08-10 10:57:54.058135,-74.0
2023-08-10 10:57:54.065825,-88.0
2023-08-10 10:57:54.073515,-69.0
2023-08-10 10:57:54.081205,-59.0
2023-08-10 10:57:54.088895,-66.0
2023-08-10 10:57:54.096585,-64.0
2023-08-10 10:57:54.104275,-64.0
2023-08-10 10:57:54.111964,-69.0
2023-08-10 10:57:54.119654,-50.0
2023-08-10 10:57:54.127344,-23.0
2023-08-10 10:57:54.135034,-14.0
2023-08-10 10:57:54.142724,-14.0
2023-08-10 10:57:54.150414,-16.0
2023-08-10 10:57:54.158104,-31.0
2023-08-10 10:57:54.165794,-47.0
2023-08-10 10:57:54.173484,-35.0
2023-08-10 10:57:54.181174,-45.0
2023-08-10 10:57:54.188864,-167.0
2023-08-10 10:57:54.196554,-385.0
2023-08-10 10:57:54.204244,-590.0
2023-08-10 10:57:54.211934,-681.0
2023-08-10 10:57:54.219624,-521.0
2023-08-10 10:57:54.227314,-138.0
2023-08-10 10:57:54.235003,119.0
2023-08-10 10:57:54.242693,86.0
2023-08-10 10:57:54.250383,-14.0
2023-08-10 10:57:54.258073,-4.0
2023-08-10 10:57:54.265763,28.0
2023-08-10 10:57:54.273453,16.0
2023-08-10 10:57:54.281143,4.0
2023-08-10 10:57:54.288833,-4.0
2023-08-10 10:57:54.296523,-14.0
2023-08-10 10:57:54.304213,-16.0
2023-08-10 10:57:54.311903,-21.0
2023-08-10 10:57:54.319593,-31.0
2023-08-10 10:57:54.327283,-45.0
2023-08-10 10:57:54.334973,-52.0
2023-08-10 10:57:54.342663,-59.0
2023-08-10 10:57:54.350353,-66.0
2023-08-10 10:57:54.358042,-76.0
2023-08-10 10:57:54.365732,-86.0
2023-08-10 10:57:54.373422,-88.0
2023-08-10 10:57:54.381112,-81.0
2023-08-10 10:57:54.388802,-90.0
2023-08-10 10:57:54.396492,-133.0
2023-08-10 10:57:54.404182,-165.0
2023-08-10 10:57:54.411872,-160.0
2023-08-10 10:57:54.419562,-162.0
2023-08-10 10:57:54.427252,-186.0
2023-08-10 10:57:54.434942,-203.0
2023-08-10 10:57:54.442632,-215.0
2023-08-10 10:57:54.450322,-234.0
2023-08-10 10:57:54.458012,-248.0
2023-08-10 10:57:54.465702,-246.0
2023-08-10 10:57:54.473392,-229.0
2023-08-10 10:57:54.481082,-208.0
2023-08-10 10:57:54.488771,-169.0
2023-08-10 10:57:54.496461,-102.0
2023-08-10 10:57:54.504151,-45.0
2023-08-10 10:57:54.511841,-11.0
2023-08-10 10:57:54.519531,16.0
2023-08-10 10:57:54.527221,38.0
2023-08-10 10:57:54.534911,43.0
2023-08-10 10:57:54.542601,47.0
2023-08-10 10:57:54.550291,52.0
2023-08-10 10:57:54.557981,43.0
2023-08-10 10:57:54.565671,38.0
2023-08-10 10:57:54.573361,35.0
2023-08-10 10:57:54.581051,35.0
2023-08-10 10:57:54.588741,28.0
2023-08-10 10:57:54.596431,21.0
2023-08-10 10:57:54.604121,26.0
2023-08-10 10:57:54.611810,33.0
2023-08-10 10:57:54.619500,31.0
2023-08-10 10:57:54.627190,21.0
2023-08-10 10:57:54.634880,9.0
2023-08-10 10:57:54.642570,9.0
2023-08-10 10:57:54.650260,7.0
2023-08-10 10:57:54.657950,4.0
2023-08-10 10:57:54.665640,26.0
2023-08-10 10:57:54.673330,35.0
2023-08-10 10:57:54.681020,16.0
2023-08-10 10:57:54.688710,-2.0
2023-08-10 10:57:54.696400,-4.0
2023-08-10 10:57:54.704090,0.0
2023-08-10 10:57:54.711780,-4.0
2023-08-10 10:57:54.719470,-9.0
2023-08-10 10:57:54.727160,-2.0
2023-08-10 10:57:54.734850,2.0
2023-08-10 10:57:54.742539,-4.0
2023-08-10 10:57:54.750229,-2.0
2023-08-10 10:57:54.757919,0.0
2023-08-10 10:57:54.765609,-11.0
2023-08-10 10:57:54.773299,-19.0
2023-08-10 10:57:54.780989,-7.0
2023-08-10 10:57:54.788679,-2.0
2023-08-10 10:57:54.796369,-11.0
2023-08-10 10:57:54.804059,-7.0
2023-08-10 10:57:54.811749,7.0
2023-08-10 10:57:54.819439,-7.0
2023-08-10 10:57:54.827129,-35.0
2023-08-10 10:57:54.834819,-26.0
2023-08-10 10:57:54.842509,-11.0
2023-08-10 10:57:54.850199,-19.0
2023-08-10 10:57:54.857889,-9.0
2023-08-10 10:57:54.865578,0.0
2023-08-10 10:57:54.873268,-11.0
2023-08-10 10:57:54.880958,-7.0
2023-08-10 10:57:54.888648,11.0
2023-08-10 10:57:54.896338,14.0
2023-08-10 10:57:54.904028,-9.0
2023-08-10 10:57:54.911718,-23.0
2023-08-10 10:57:54.919408,-4.0
2023-08-10 10:57:54.927098,2.0
2023-08-10 10:57:54.934788,-16.0
2023-08-10 10:57:54.942478,-11.0
2023-08-10 10:57:54.950168,2.0
2023-08-10 10:57:54.957858,0.0
2023-08-10 10:57:54.965548,-4.0
2023-08-10 10:57:54.973238,-21.0
2023-08-10 10:57:54.980928,-38.0
2023-08-10 10:57:54.988618,-43.0
2023-08-10 10:57:54.996307,-43.0
2023-08-10 10:57:55.003997,-45.0
2023-08-10 10:57:55.011687,-43.0
2023-08-10 10:57:55.019377,-31.0
2023-08-10 10:57:55.027067,-14.0
2023-08-10 10:57:55.034757,-21.0
2023-08-10 10:57:55.042447,-45.0
2023-08-10 10:57:55.050137,-31.0
2023-08-10 10:57:55.057827,2.0
2023-08-10 10:57:55.065517,-14.0
2023-08-10 10:57:55.073207,-31.0
2023-08-10 10:57:55.080897,-16.0
2023-08-10 10:57:55.088587,-26.0
2023-08-10 10:57:55.096277,-47.0
2023-08-10 10:57:55.103967,-33.0
2023-08-10 10:57:55.111657,-64.0
2023-08-10 10:57:55.119346,-222.0
2023-08-10 10:57:55.127036,-449.0
2023-08-10 10:57:55.134726,-636.0
2023-08-10 10:57:55.142416,-669.0
2023-08-10 10:57:55.150106,-423.0
2023-08-10 10:57:55.157796,-40.0
2023-08-10 10:57:55.165486,114.0
2023-08-10 10:57:55.173176,21.0
2023-08-10 10:57:55.180866,-35.0
2023-08-10 10:57:55.188556,-7.0
2023-08-10 10:57:55.196246,2.0
2023-08-10 10:57:55.203936,-2.0
2023-08-10 10:57:55.211626,-7.0
2023-08-10 10:57:55.219316,-26.0
2023-08-10 10:57:55.227006,-31.0
2023-08-10 10:57:55.234696,-38.0
2023-08-10 10:57:55.242386,-57.0
2023-08-10 10:57:55.250075,-57.0
2023-08-10 10:57:55.257765,-45.0
2023-08-10 10:57:55.265455,-55.0
2023-08-10 10:57:55.273145,-69.0
2023-08-10 10:57:55.280835,-64.0
2023-08-10 10:57:55.288525,-81.0
2023-08-10 10:57:55.296215,-107.0
2023-08-10 10:57:55.303905,-102.0
2023-08-10 10:57:55.311595,-98.0
2023-08-10 10:57:55.319285,-122.0
2023-08-10 10:57:55.326975,-145.0
2023-08-10 10:57:55.334665,-150.0
2023-08-10 10:57:55.342355,-162.0
2023-08-10 10:57:55.350045,-186.0
2023-08-10 10:57:55.357735,-191.0
2023-08-10 10:57:55.365425,-205.0
2023-08-10 10:57:55.373114,-232.0
2023-08-10 10:57:55.380804,-234.0
2023-08-10 10:57:55.388494,-234.0
2023-08-10 10:57:55.396184,-251.0
2023-08-10 10:57:55.403874,-244.0
2023-08-10 10:57:55.411564,-198.0
2023-08-10 10:57:55.419254,-145.0
2023-08-10 10:57:55.426944,-93.0
2023-08-10 10:57:55.434634,-40.0
2023-08-10 10:57:55.442324,-4.0
2023-08-10 10:57:55.450014,14.0
2023-08-10 10:57:55.457704,23.0
2023-08-10 10:57:55.465394,35.0
2023-08-10 10:57:55.473084,45.0
2023-08-10 10:57:55.480774,45.0
2023-08-10 10:57:55.488464,43.0
2023-08-10 10:57:55.496154,43.0
2023-08-10 10:57:55.503843,33.0
2023-08-10 10:57:55.511533,28.0
2023-08-10 10:57:55.519223,33.0
2023-08-10 10:57:55.526913,28.0
2023-08-10 10:57:55.534603,19.0
2023-08-10 10:57:55.542293,23.0
2023-08-10 10:57:55.549983,16.0
2023-08-10 10:57:55.557673,7.0
2023-08-10 10:57:55.565363,16.0
2023-08-10 10:57:55.573053,4.0
2023-08-10 10:57:55.580743,-11.0
2023-08-10 10:57:55.588433,2.0
2023-08-10 10:57:55.596123,7.0
2023-08-10 10:57:55.603813,-9.0
2023-08-10 10:57:55.611503,-9.0
2023-08-10 10:57:55.619193,-4.0
2023-08-10 10:57:55.626882,-14.0
2023-08-10 10:57:55.634572,-11.0
2023-08-10 10:57:55.642262,-7.0
2023-08-10 10:57:55.649952,-4.0
2023-08-10 10:57:55.657642,2.0
2023-08-10 10:57:55.665332,-11.0
2023-08-10 10:57:55.673022,-43.0
2023-08-10 10:57:55.680712,-45.0
2023-08-10 10:57:55.688402,-19.0
2023-08-10 10:57:55.696092,-16.0
2023-08-10 10:57:55.703782,-33.0
2023-08-10 10:57:55.711472,-38.0
2023-08-10 10:57:55.719162,-38.0
2023-08-10 10:57:55.726852,-33.0
2023-08-10 10:57:55.734542,-26.0
2023-08-10 10:57:55.742232,-31.0
2023-08-10 10:57:55.749921,-21.0
2023-08-10 10:57:55.757611,-21.0
2023-08-10 10:57:55.765301,-52.0
2023-08-10 10:57:55.772991,-59.0
2023-08-10 10:57:55.780681,-35.0
2023-08-10 10:57:55.788371,-26.0
2023-08-10 10:57:55.796061,-28.0
2023-08-10 10:57:55.803751,-35.0
2023-08-10 10:57:55.811441,-38.0
2023-08-10 10:57:55.819131,-23.0
2023-08-10 10:57:55.826821,-26.0
2023-08-10 10:57:55.834511,-47.0
2023-08-10 10:57:55.842201,-31.0
2023-08-10 10:57:55.849891,-16.0
2023-08-10 10:57:55.857581,-43.0
2023-08-10 10:57:55.865271,-52.0
2023-08-10 10:57:55.872961,-31.0
2023-08-10 10:57:55.880650,-23.0
2023-08-10 10:57:55.888340,-38.0
2023-08-10 10:57:55.896030,-55.0
2023-08-10 10:57:55.903720,-47.0
2023-08-10 10:57:55.911410,-35.0
2023-08-10 10:57:55.919100,-35.0
2023-08-10 10:57:55.926790,-55.0
2023-08-10 10:57:55.934480,-78.0
2023-08-10 10:57:55.942170,-71.0
2023-08-10 10:57:55.949860,-57.0
2023-08-10 10:57:55.957550,-69.0
2023-08-10 10:57:55.965240,-69.0
2023-08-10 10:57:55.972930,-50.0
2023-08-10 10:57:55.980620,-55.0
2023-08-10 10:57:55.988310,-57.0
2023-08-10 10:57:55.996000,-35.0
2023-08-10 10:57:56.003689,-26.0
2023-08-10 10:57:56.011379,-26.0
2023-08-10 10:57:56.019069,-31.0
2023-08-10 10:57:56.026759,-45.0
2023-08-10 10:57:56.034449,-43.0
2023-08-10 10:57:56.042139,-35.0
2023-08-10 10:57:56.049829,-66.0
2023-08-10 10:57:56.057519,-200.0
2023-08-10 10:57:56.065209,-449.0
2023-08-10 10:57:56.072899,-660.0
2023-08-10 10:57:56.080589,-679.0
2023-08-10 10:57:56.088279,-452.0
2023-08-10 10:57:56.095969,-93.0
2023-08-10 10:57:56.103659,105.0
2023-08-10 10:57:56.111349,55.0
2023-08-10 10:57:56.119039,-31.0
2023-08-10 10:57:56.126729,-23.0
2023-08-10 10:57:56.134418,-4.0
2023-08-10 10:57:56.142108,-19.0
2023-08-10 10:57:56.149798,-26.0
2023-08-10 10:57:56.157488,-19.0
2023-08-10 10:57:56.165178,-35.0
2023-08-10 10:57:56.172868,-57.0
2023-08-10 10:57:56.180558,-50.0
2023-08-10 10:57:56.188248,-45.0
2023-08-10 10:57:56.195938,-62.0
2023-08-10 10:57:56.203628,-83.0
2023-08-10 10:57:56.211318,-98.0
2023-08-10 10:57:56.219008,-102.0
2023-08-10 10:57:56.226698,-102.0
2023-08-10 10:57:56.234388,-112.0
2023-08-10 10:57:56.242078,-122.0
2023-08-10 10:57:56.249768,-133.0
2023-08-10 10:57:56.257457,-153.0
2023-08-10 10:57:56.265147,-167.0
2023-08-10 10:57:56.272837,-172.0
2023-08-10 10:57:56.280527,-189.0
2023-08-10 10:57:56.288217,-205.0
2023-08-10 10:57:56.295907,-210.0
2023-08-10 10:57:56.303597,-224.0
2023-08-10 10:57:56.311287,-258.0
2023-08-10 10:57:56.318977,-275.0
2023-08-10 10:57:56.326667,-258.0
2023-08-10 10:57:56.334357,-246.0
2023-08-10 10:57:56.342047,-256.0
2023-08-10 10:57:56.349737,-234.0
2023-08-10 10:57:56.357427,-162.0
2023-08-10 10:57:56.365117,-100.0
2023-08-10 10:57:56.372807,-69.0
2023-08-10 10:57:56.380497,-23.0
2023-08-10 10:57:56.388186,21.0
2023-08-10 10:57:56.395876,21.0
2023-08-10 10:57:56.403566,21.0
2023-08-10 10:57:56.411256,43.0
2023-08-10 10:57:56.418946,59.0
2023-08-10 10:57:56.426636,57.0
2023-08-10 10:57:56.434326,55.0
2023-08-10 10:57:56.442016,52.0
2023-08-10 10:57:56.449706,28.0
2023-08-10 10:57:56.457396,14.0
2023-08-10 10:57:56.465086,40.0
2023-08-10 10:57:56.472776,45.0
2023-08-10 10:57:56.480466,14.0
2023-08-10 10:57:56.488156,4.0
2023-08-10 10:57:56.495846,19.0
2023-08-10 10:57:56.503536,28.0
2023-08-10 10:57:56.511225,26.0
2023-08-10 10:57:56.518915,26.0
2023-08-10 10:57:56.526605,21.0
2023-08-10 10:57:56.534295,2.0
2023-08-10 10:57:56.541985,4.0
2023-08-10 10:57:56.549675,26.0
2023-08-10 10:57:56.557365,7.0
2023-08-10 10:57:56.565055,-11.0
2023-08-10 10:57:56.572745,7.0
2023-08-10 10:57:56.580435,4.0
2023-08-10 10:57:56.588125,-16.0
2023-08-10 10:57:56.595815,-4.0
2023-08-10 10:57:56.603505,21.0
2023-08-10 10:57:56.611195,14.0
2023-08-10 10:57:56.618885,-9.0
2023-08-10 10:57:56.626575,-7.0
2023-08-10 10:57:56.634265,11.0
2023-08-10 10:57:56.641954,-2.0
2023-08-10 10:57:56.649644,-26.0
2023-08-10 10:57:56.657334,-21.0
2023-08-10 10:57:56.665024,-7.0
2023-08-10 10:57:56.672714,0.0
2023-08-10 10:57:56.680404,0.0
2023-08-10 10:57:56.688094,-14.0
2023-08-10 10:57:56.695784,-19.0
2023-08-10 10:57:56.703474,-9.0
2023-08-10 10:57:56.711164,-11.0
2023-08-10 10:57:56.718854,-23.0
2023-08-10 10:57:56.726544,-23.0
2023-08-10 10:57:56.734234,-7.0
2023-08-10 10:57:56.741924,-4.0
2023-08-10 10:57:56.749614,-21.0
2023-08-10 10:57:56.757304,-28.0
2023-08-10 10:57:56.764993,-26.0
2023-08-10 10:57:56.772683,-47.0
2023-08-10 10:57:56.780373,-69.0
2023-08-10 10:57:56.788063,-52.0
2023-08-10 10:57:56.795753,-35.0
2023-08-10 10:57:56.803443,-40.0
2023-08-10 10:57:56.811133,-52.0
2023-08-10 10:57:56.818823,-50.0
2023-08-10 10:57:56.826513,-28.0
2023-08-10 10:57:56.834203,-11.0
2023-08-10 10:57:56.841893,-19.0
2023-08-10 10:57:56.849583,-19.0
2023-08-10 10:57:56.857273,-19.0
2023-08-10 10:57:56.864963,-21.0
2023-08-10 10:57:56.872653,-9.0
2023-08-10 10:57:56.880343,-14.0
2023-08-10 10:57:56.888032,-31.0
2023-08-10 10:57:56.895722,-62.0
2023-08-10 10:57:56.903412,-210.0
2023-08-10 10:57:56.911102,-459.0
2023-08-10 10:57:56.918792,-643.0
2023-08-10 10:57:56.926482,-653.0
2023-08-10 10:57:56.934172,-394.0
2023-08-10 10:57:56.941862,-16.0
2023-08-10 10:57:56.949552,126.0
2023-08-10 10:57:56.957242,33.0
2023-08-10 10:57:56.964932,-4.0
2023-08-10 10:57:56.972622,33.0
2023-08-10 10:57:56.980312,14.0
2023-08-10 10:57:56.988002,-7.0
2023-08-10 10:57:56.995692,26.0
2023-08-10 10:57:57.003382,28.0
2023-08-10 10:57:57.011072,2.0
2023-08-10 10:57:57.018761,-7.0
2023-08-10 10:57:57.026451,-19.0
2023-08-10 10:57:57.034141,-31.0
2023-08-10 10:57:57.041831,-23.0
2023-08-10 10:57:57.049521,-31.0
2023-08-10 10:57:57.057211,-47.0
2023-08-10 10:57:57.064901,-47.0
2023-08-10 10:57:57.072591,-50.0
2023-08-10 10:57:57.080281,-71.0
2023-08-10 10:57:57.087971,-81.0
2023-08-10 10:57:57.095661,-102.0
2023-08-10 10:57:57.103351,-122.0
2023-08-10 10:57:57.111041,-119.0
2023-08-10 10:57:57.118731,-136.0
2023-08-10 10:57:57.126421,-181.0
2023-08-10 10:57:57.134111,-198.0
2023-08-10 10:57:57.141800,-196.0
2023-08-10 10:57:57.149490,-210.0
2023-08-10 10:57:57.157180,-239.0
2023-08-10 10:57:57.164870,-251.0
2023-08-10 10:57:57.172560,-251.0
2023-08-10 10:57:57.180250,-258.0
2023-08-10 10:57:57.187940,-244.0
2023-08-10 10:57:57.195630,-196.0
2023-08-10 10:57:57.203320,-143.0
2023-08-10 10:57:57.211010,-90.0
2023-08-10 10:57:57.218700,-43.0
2023-08-10 10:57:57.226390,-19.0
2023-08-10 10:57:57.234080,9.0
2023-08-10 10:57:57.241770,45.0
2023-08-10 10:57:57.249460,43.0
2023-08-10 10:57:57.257150,23.0
2023-08-10 10:57:57.264840,23.0
2023-08-10 10:57:57.272529,26.0
2023-08-10 10:57:57.280219,23.0
2023-08-10 10:57:57.287909,33.0
2023-08-10 10:57:57.295599,19.0
2023-08-10 10:57:57.303289,-4.0
2023-08-10 10:57:57.310979,2.0
2023-08-10 10:57:57.318669,26.0
2023-08-10 10:57:57.326359,19.0
2023-08-10 10:57:57.334049,-7.0
2023-08-10 10:57:57.341739,-14.0
2023-08-10 10:57:57.349429,2.0
2023-08-10 10:57:57.357119,-2.0
2023-08-10 10:57:57.364809,-21.0
2023-08-10 10:57:57.372499,-9.0
2023-08-10 10:57:57.380189,4.0
2023-08-10 10:57:57.387879,-2.0
2023-08-10 10:57:57.395568,-4.0
2023-08-10 10:57:57.403258,-7.0
2023-08-10 10:57:57.410948,-16.0
2023-08-10 10:57:57.418638,-16.0
2023-08-10 10:57:57.426328,-19.0
2023-08-10 10:57:57.434018,-26.0
2023-08-10 10:57:57.441708,-23.0
2023-08-10 10:57:57.449398,-16.0
2023-08-10 10:57:57.457088,-11.0
2023-08-10 10:57:57.464778,-9.0
2023-08-10 10:57:57.472468,-16.0
2023-08-10 10:57:57.480158,-23.0
2023-08-10 10:57:57.487848,-21.0
2023-08-10 10:57:57.495538,-23.0
2023-08-10 10:57:57.503228,-23.0
2023-08-10 10:57:57.510918,-16.0
2023-08-10 10:57:57.518608,-14.0
2023-08-10 10:57:57.526297,-19.0
2023-08-10 10:57:57.533987,-28.0
2023-08-10 10:57:57.541677,-26.0
2023-08-10 10:57:57.549367,-14.0
2023-08-10 10:57:57.557057,-19.0
2023-08-10 10:57:57.564747,-23.0
2023-08-10 10:57:57.572437,-11.0
2023-08-10 10:57:57.580127,-19.0
2023-08-10 10:57:57.587817,-38.0
2023-08-10 10:57:57.595507,-28.0
2023-08-10 10:57:57.603197,-31.0
2023-08-10 10:57:57.610887,-43.0
2023-08-10 10:57:57.618577,-31.0
2023-08-10 10:57:57.626267,-23.0
2023-08-10 10:57:57.633957,-28.0
2023-08-10 10:57:57.641647,-31.0
2023-08-10 10:57:57.649336,-19.0
2023-08-10 10:57:57.657026,-21.0
2023-08-10 10:57:57.664716,-33.0
2023-08-10 10:57:57.672406,-35.0
2023-08-10 10:57:57.680096,-45.0
2023-08-10 10:57:57.687786,-74.0
2023-08-10 10:57:57.695476,-81.0
2023-08-10 10:57:57.703166,-57.0
2023-08-10 10:57:57.710856,-45.0
2023-08-10 10:57:57.718546,-55.0
2023-08-10 10:57:57.726236,-47.0
2023-08-10 10:57:57.733926,-26.0
2023-08-10 10:57:57.741616,-28.0
2023-08-10 10:57:57.749306,-35.0
2023-08-10 10:57:57.756996,-26.0
2023-08-10 10:57:57.764686,-16.0
2023-08-10 10:57:57.772376,-28.0
2023-08-10 10:57:57.780065,-35.0
2023-08-10 10:57:57.787755,-31.0
2023-08-10 10:57:57.795445,-26.0
2023-08-10 10:57:57.803135,-26.0
2023-08-10 10:57:57.810825,-83.0
2023-08-10 10:57:57.818515,-263.0
2023-08-10 10:57:57.826205,-492.0
2023-08-10 10:57:57.833895,-653.0
2023-08-10 10:57:57.841585,-626.0
2023-08-10 10:57:57.849275,-320.0
2023-08-10 10:57:57.856965,38.0
2023-08-10 10:57:57.864655,112.0
2023-08-10 10:57:57.872345,4.0
2023-08-10 10:57:57.880035,-21.0
2023-08-10 10:57:57.887725,19.0
2023-08-10 10:57:57.895415,16.0
2023-08-10 10:57:57.903104,-4.0
2023-08-10 10:57:57.910794,-7.0
2023-08-10 10:57:57.918484,-7.0
2023-08-10 10:57:57.926174,-9.0
2023-08-10 10:57:57.933864,-11.0
2023-08-10 10:57:57.941554,-19.0
2023-08-10 10:57:57.949244,-28.0
2023-08-10 10:57:57.956934,-35.0
2023-08-10 10:57:57.964624,-40.0
2023-08-10 10:57:57.972314,-52.0
2023-08-10 10:57:57.980004,-66.0
2023-08-10 10:57:57.987694,-69.0
2023-08-10 10:57:57.995384,-69.0
2023-08-10 10:57:58.003074,-81.0
2023-08-10 10:57:58.010764,-93.0
2023-08-10 10:57:58.018454,-105.0
2023-08-10 10:57:58.026143,-119.0
2023-08-10 10:57:58.033833,-143.0
2023-08-10 10:57:58.041523,-157.0
2023-08-10 10:57:58.049213,-169.0
2023-08-10 10:57:58.056903,-191.0
2023-08-10 10:57:58.064593,-212.0
2023-08-10 10:57:58.072283,-224.0
2023-08-10 10:57:58.079973,-239.0
2023-08-10 10:57:58.087663,-260.0
2023-08-10 10:57:58.095353,-256.0
2023-08-10 10:57:58.103043,-217.0
2023-08-10 10:57:58.110733,-184.0
2023-08-10 10:57:58.118423,-157.0
2023-08-10 10:57:58.126113,-98.0
2023-08-10 10:57:58.133803,-26.0
2023-08-10 10:57:58.141493,-4.0
2023-08-10 10:57:58.149183,0.0
2023-08-10 10:57:58.156872,28.0
2023-08-10 10:57:58.164562,43.0
2023-08-10 10:57:58.172252,35.0
2023-08-10 10:57:58.179942,26.0
2023-08-10 10:57:58.187632,19.0
2023-08-10 10:57:58.195322,26.0
2023-08-10 10:57:58.203012,31.0
2023-08-10 10:57:58.210702,23.0
2023-08-10 10:57:58.218392,14.0
2023-08-10 10:57:58.226082,14.0
2023-08-10 10:57:58.233772,21.0
2023-08-10 10:57:58.241462,11.0
2023-08-10 10:57:58.249152,9.0
2023-08-10 10:57:58.256842,19.0
2023-08-10 10:57:58.264532,16.0
2023-08-10 10:57:58.272222,4.0
2023-08-10 10:57:58.279911,-2.0
2023-08-10 10:57:58.287601,-2.0
2023-08-10 10:57:58.295291,-7.0
2023-08-10 10:57:58.302981,-7.0
2023-08-10 10:57:58.310671,0.0
2023-08-10 10:57:58.318361,0.0
2023-08-10 10:57:58.326051,-2.0
2023-08-10 10:57:58.333741,-4.0
2023-08-10 10:57:58.341431,-2.0
2023-08-10 10:57:58.349121,0.0
2023-08-10 10:57:58.356811,-2.0
2023-08-10 10:57:58.364501,-4.0
2023-08-10 10:57:58.372191,-11.0
2023-08-10 10:57:58.379881,-19.0
2023-08-10 10:57:58.387571,-16.0
2023-08-10 10:57:58.395261,-14.0
2023-08-10 10:57:58.402951,-11.0
2023-08-10 10:57:58.410640,-9.0
2023-08-10 10:57:58.418330,-9.0
2023-08-10 10:57:58.426020,-7.0
2023-08-10 10:57:58.433710,-16.0
2023-08-10 10:57:58.441400,-28.0
2023-08-10 10:57:58.449090,-23.0
2023-08-10 10:57:58.456780,-21.0
2023-08-10 10:57:58.464470,-33.0
2023-08-10 10:57:58.472160,-35.0
2023-08-10 10:57:58.479850,-14.0
2023-08-10 10:57:58.487540,-7.0
2023-08-10 10:57:58.495230,-33.0
2023-08-10 10:57:58.502920,-50.0
2023-08-10 10:57:58.510610,-38.0
2023-08-10 10:57:58.518300,-28.0
2023-08-10 10:57:58.525990,-26.0
2023-08-10 10:57:58.533679,-31.0
2023-08-10 10:57:58.541369,-28.0
2023-08-10 10:57:58.549059,-16.0
2023-08-10 10:57:58.556749,-26.0
2023-08-10 10:57:58.564439,-47.0
2023-08-10 10:57:58.572129,-33.0
2023-08-10 10:57:58.579819,-19.0
2023-08-10 10:57:58.587509,-38.0
2023-08-10 10:57:58.595199,-50.0
2023-08-10 10:57:58.602889,-35.0
2023-08-10 10:57:58.610579,-38.0
2023-08-10 10:57:58.618269,-55.0
2023-08-10 10:57:58.625959,-52.0
2023-08-10 10:57:58.633649,-47.0
2023-08-10 10:57:58.641339,-59.0
2023-08-10 10:57:58.649029,-74.0
2023-08-10 10:57:58.656719,-74.0
2023-08-10 10:57:58.664408,-62.0
2023-08-10 10:57:58.672098,-59.0
2023-08-10 10:57:58.679788,-59.0
2023-08-10 10:57:58.687478,-59.0
2023-08-10 10:57:58.695168,-52.0
2023-08-10 10:57:58.702858,-38.0
2023-08-10 10:57:58.710548,-31.0
2023-08-10 10:57:58.718238,-33.0
2023-08-10 10:57:58.725928,-33.0
2023-08-10 10:57:58.733618,-28.0
2023-08-10 10:57:58.741308,-35.0
2023-08-10 10:57:58.748998,-45.0
2023-08-10 10:57:58.756688,-38.0
2023-08-10 10:57:58.764378,-38.0
2023-08-10 10:57:58.772068,-143.0
2023-08-10 10:57:58.779758,-373.0
2023-08-10 10:57:58.787447,-571.0
2023-08-10 10:57:58.795137,-669.0
2023-08-10 10:57:58.802827,-550.0
2023-08-10 10:57:58.810517,-177.0
2023-08-10 10:57:58.818207,105.0
2023-08-10 10:57:58.825897,76.0
2023-08-10 10:57:58.833587,-14.0
2023-08-10 10:57:58.841277,7.0
2023-08-10 10:57:58.848967,26.0
2023-08-10 10:57:58.856657,0.0
2023-08-10 10:57:58.864347,-4.0
2023-08-10 10:57:58.872037,4.0
2023-08-10 10:57:58.879727,9.0
2023-08-10 10:57:58.887417,2.0
2023-08-10 10:57:58.895107,-19.0
2023-08-10 10:57:58.902797,-33.0
2023-08-10 10:57:58.910487,-31.0
2023-08-10 10:57:58.918176,-33.0
2023-08-10 10:57:58.925866,-45.0
2023-08-10 10:57:58.933556,-52.0
2023-08-10 10:57:58.941246,-50.0
2023-08-10 10:57:58.948936,-62.0
2023-08-10 10:57:58.956626,-83.0
2023-08-10 10:57:58.964316,-90.0
2023-08-10 10:57:58.972006,-105.0
2023-08-10 10:57:58.979696,-131.0
2023-08-10 10:57:58.987386,-138.0
2023-08-10 10:57:58.995076,-145.0
2023-08-10 10:57:59.002766,-172.0
2023-08-10 10:57:59.010456,-203.0
2023-08-10 10:57:59.018146,-220.0
2023-08-10 10:57:59.025836,-229.0
2023-08-10 10:57:59.033526,-246.0
2023-08-10 10:57:59.041215,-265.0
2023-08-10 10:57:59.048905,-272.0
2023-08-10 10:57:59.056595,-263.0
2023-08-10 10:57:59.064285,-229.0
2023-08-10 10:57:59.071975,-191.0
2023-08-10 10:57:59.079665,-148.0
2023-08-10 10:57:59.087355,-88.0
2023-08-10 10:57:59.095045,-47.0
2023-08-10 10:57:59.102735,-38.0
2023-08-10 10:57:59.110425,-7.0
2023-08-10 10:57:59.118115,26.0
2023-08-10 10:57:59.125805,26.0
2023-08-10 10:57:59.133495,23.0
2023-08-10 10:57:59.141185,21.0
2023-08-10 10:57:59.148875,14.0
2023-08-10 10:57:59.156565,19.0
2023-08-10 10:57:59.164255,16.0
2023-08-10 10:57:59.171944,11.0
2023-08-10 10:57:59.179634,16.0
2023-08-10 10:57:59.187324,19.0
2023-08-10 10:57:59.195014,4.0
2023-08-10 10:57:59.202704,-7.0
2023-08-10 10:57:59.210394,-2.0
2023-08-10 10:57:59.218084,7.0
2023-08-10 10:57:59.225774,11.0
2023-08-10 10:57:59.233464,7.0
2023-08-10 10:57:59.241154,-4.0
2023-08-10 10:57:59.248844,-7.0
2023-08-10 10:57:59.256534,4.0
2023-08-10 10:57:59.264224,0.0
2023-08-10 10:57:59.271914,-14.0
2023-08-10 10:57:59.279604,-4.0
2023-08-10 10:57:59.287294,4.0
2023-08-10 10:57:59.294983,-7.0
2023-08-10 10:57:59.302673,-14.0
2023-08-10 10:57:59.310363,-9.0
2023-08-10 10:57:59.318053,0.0
2023-08-10 10:57:59.325743,4.0
2023-08-10 10:57:59.333433,-2.0
2023-08-10 10:57:59.341123,-19.0
2023-08-10 10:57:59.348813,-16.0
2023-08-10 10:57:59.356503,2.0
2023-08-10 10:57:59.364193,4.0
2023-08-10 10:57:59.371883,-9.0
2023-08-10 10:57:59.379573,-14.0
2023-08-10 10:57:59.387263,-4.0
2023-08-10 10:57:59.394953,0.0
2023-08-10 10:57:59.402643,0.0
2023-08-10 10:57:59.410333,-11.0
2023-08-10 10:57:59.418022,-19.0
2023-08-10 10:57:59.425712,-14.0
2023-08-10 10:57:59.433402,-11.0
2023-08-10 10:57:59.441092,-16.0
2023-08-10 10:57:59.448782,-19.0
2023-08-10 10:57:59.456472,-14.0
2023-08-10 10:57:59.464162,-9.0
2023-08-10 10:57:59.471852,-9.0
2023-08-10 10:57:59.479542,-9.0
2023-08-10 10:57:59.487232,-14.0
2023-08-10 10:57:59.494922,-16.0
2023-08-10 10:57:59.502612,-21.0
2023-08-10 10:57:59.510302,-23.0
2023-08-10 10:57:59.517992,-23.0
2023-08-10 10:57:59.525682,-19.0
2023-08-10 10:57:59.533372,-35.0
2023-08-10 10:57:59.541062,-59.0
2023-08-10 10:57:59.548751,-52.0
2023-08-10 10:57:59.556441,-38.0
2023-08-10 10:57:59.564131,-43.0
2023-08-10 10:57:59.571821,-33.0
2023-08-10 10:57:59.579511,-7.0
2023-08-10 10:57:59.587201,-9.0
2023-08-10 10:57:59.594891,-35.0
2023-08-10 10:57:59.602581,-45.0
2023-08-10 10:57:59.610271,-28.0
2023-08-10 10:57:59.617961,-11.0
2023-08-10 10:57:59.625651,-19.0
2023-08-10 10:57:59.633341,-33.0
2023-08-10 10:57:59.641031,-40.0
2023-08-10 10:57:59.648721,-40.0
2023-08-10 10:57:59.656411,-52.0
2023-08-10 10:57:59.664101,-177.0
2023-08-10 10:57:59.671790,-411.0
2023-08-10 10:57:59.679480,-614.0
2023-08-10 10:57:59.687170,-698.0
2023-08-10 10:57:59.694860,-540.0
2023-08-10 10:57:59.702550,-143.0
2023-08-10 10:57:59.710240,117.0
2023-08-10 10:57:59.717930,55.0
2023-08-10 10:57:59.725620,-43.0
2023-08-10 10:57:59.733310,-4.0
2023-08-10 10:57:59.741000,21.0
2023-08-10 10:57:59.748690,-9.0
2023-08-10 10:57:59.756380,-7.0
2023-08-10 10:57:59.764070,9.0
2023-08-10 10:57:59.771760,-4.0
2023-08-10 10:57:59.779450,-16.0
2023-08-10 10:57:59.787140,-19.0
2023-08-10 10:57:59.794830,-26.0
2023-08-10 10:57:59.802519,-38.0
2023-08-10 10:57:59.810209,-43.0
2023-08-10 10:57:59.817899,-40.0
2023-08-10 10:57:59.825589,-40.0
2023-08-10 10:57:59.833279,-62.0
2023-08-10 10:57:59.840969,-83.0
2023-08-10 10:57:59.848659,-76.0
2023-08-10 10:57:59.856349,-74.0
2023-08-10 10:57:59.864039,-93.0
2023-08-10 10:57:59.871729,-114.0
2023-08-10 10:57:59.879419,-141.0
2023-08-10 10:57:59.887109,-155.0
2023-08-10 10:57:59.894799,-165.0
2023-08-10 10:57:59.902489,-184.0
2023-08-10 10:57:59.910179,-200.0
2023-08-10 10:57:59.917869,-212.0
2023-08-10 10:57:59.925558,-229.0
2023-08-10 10:57:59.933248,-246.0
2023-08-10 10:57:59.940938,-248.0
2023-08-10 10:57:59.948628,-239.0
2023-08-10 10:57:59.956318,-203.0
2023-08-10 10:57:59.964008,-148.0
2023-08-10 10:57:59.971698,-100.0
2023-08-10 10:57:59.979388,-55.0
2023-08-10 10:57:59.987078,-7.0
2023-08-10 10:57:59.994768,21.0
2023-08-10 10:58:00.002458,33.0
2023-08-10 10:58:00.010148,38.0
2023-08-10 10:58:00.017838,45.0
2023-08-10 10:58:00.025528,45.0
2023-08-10 10:58:00.033218,40.0
2023-08-10 10:58:00.040908,31.0
2023-08-10 10:58:00.048598,26.0
2023-08-10 10:58:00.056287,38.0
2023-08-10 10:58:00.063977,40.0
2023-08-10 10:58:00.071667,28.0
2023-08-10 10:58:00.079357,31.0
2023-08-10 10:58:00.087047,31.0
2023-08-10 10:58:00.094737,16.0
2023-08-10 10:58:00.102427,0.0
2023-08-10 10:58:00.110117,-2.0
2023-08-10 10:58:00.117807,11.0
2023-08-10 10:58:00.125497,2.0
2023-08-10 10:58:00.133187,-28.0
2023-08-10 10:58:00.140877,-33.0
2023-08-10 10:58:00.148567,-14.0
2023-08-10 10:58:00.156257,-9.0
2023-08-10 10:58:00.163947,-14.0
2023-08-10 10:58:00.171637,-19.0
2023-08-10 10:58:00.179326,-33.0
2023-08-10 10:58:00.187016,-33.0
2023-08-10 10:58:00.194706,-19.0
2023-08-10 10:58:00.202396,-16.0
2023-08-10 10:58:00.210086,-26.0
2023-08-10 10:58:00.217776,-33.0
2023-08-10 10:58:00.225466,-26.0
2023-08-10 10:58:00.233156,-14.0
2023-08-10 10:58:00.240846,-19.0
2023-08-10 10:58:00.248536,-33.0
2023-08-10 10:58:00.256226,-26.0
2023-08-10 10:58:00.263916,-11.0
2023-08-10 10:58:00.271606,-9.0
2023-08-10 10:58:00.279296,-19.0
2023-08-10 10:58:00.286986,-28.0
2023-08-10 10:58:00.294676,-33.0
2023-08-10 10:58:00.302366,-28.0
2023-08-10 10:58:00.310055,-19.0
2023-08-10 10:58:00.317745,-21.0
2023-08-10 10:58:00.325435,-31.0
2023-08-10 10:58:00.333125,-28.0
2023-08-10 10:58:00.340815,-11.0
2023-08-10 10:58:00.348505,-11.0
2023-08-10 10:58:00.356195,-26.0
2023-08-10 10:58:00.363885,-26.0
2023-08-10 10:58:00.371575,-19.0
2023-08-10 10:58:00.379265,-26.0
2023-08-10 10:58:00.386955,-38.0
2023-08-10 10:58:00.394645,-35.0
2023-08-10 10:58:00.402335,-26.0
2023-08-10 10:58:00.410025,-26.0
2023-08-10 10:58:00.417715,-31.0
2023-08-10 10:58:00.425405,-33.0
2023-08-10 10:58:00.433094,-28.0
2023-08-10 10:58:00.440784,-21.0
2023-08-10 10:58:00.448474,-26.0
2023-08-10 10:58:00.456164,-35.0
2023-08-10 10:58:00.463854,-35.0
2023-08-10 10:58:00.471544,-35.0
2023-08-10 10:58:00.479234,-35.0
2023-08-10 10:58:00.486924,-43.0
2023-08-10 10:58:00.494614,-59.0
2023-08-10 10:58:00.502304,-71.0
2023-08-10 10:58:00.509994,-59.0
2023-08-10 10:58:00.517684,-40.0
2023-08-10 10:58:00.525374,-45.0
2023-08-10 10:58:00.533064,-52.0
2023-08-10 10:58:00.540754,-45.0
2023-08-10 10:58:00.548444,-38.0
2023-08-10 10:58:00.556133,-21.0
2023-08-10 10:58:00.563823,-23.0
2023-08-10 10:58:00.571513,-45.0
2023-08-10 10:58:00.579203,-35.0
2023-08-10 10:58:00.586893,-11.0
2023-08-10 10:58:00.594583,-23.0
2023-08-10 10:58:00.602273,-45.0
2023-08-10 10:58:00.609963,-45.0
2023-08-10 10:58:00.617653,-52.0
2023-08-10 10:58:00.625343,-153.0
2023-08-10 10:58:00.633033,-370.0
2023-08-10 10:58:00.640723,-590.0
2023-08-10 10:58:00.648413,-705.0
2023-08-10 10:58:00.656103,-579.0
2023-08-10 10:58:00.663793,-189.0
2023-08-10 10:58:00.671483,98.0
2023-08-10 10:58:00.679173,57.0
2023-08-10 10:58:00.686862,-47.0
2023-08-10 10:58:00.694552,-11.0
2023-08-10 10:58:00.702242,23.0
2023-08-10 10:58:00.709932,-16.0
2023-08-10 10:58:00.717622,-28.0
2023-08-10 10:58:00.725312,-14.0
2023-08-10 10:58:00.733002,-19.0
2023-08-10 10:58:00.740692,-23.0
2023-08-10 10:58:00.748382,-35.0
2023-08-10 10:58:00.756072,-52.0
2023-08-10 10:58:00.763762,-62.0
2023-08-10 10:58:00.771452,-64.0
2023-08-10 10:58:00.779142,-59.0
2023-08-10 10:58:00.786832,-71.0
2023-08-10 10:58:00.794522,-100.0
2023-08-10 10:58:00.802212,-102.0
2023-08-10 10:58:00.809901,-93.0
2023-08-10 10:58:00.817591,-112.0
2023-08-10 10:58:00.825281,-133.0
2023-08-10 10:58:00.832971,-133.0
2023-08-10 10:58:00.840661,-153.0
2023-08-10 10:58:00.848351,-184.0
2023-08-10 10:58:00.856041,-196.0
2023-08-10 10:58:00.863731,-203.0
2023-08-10 10:58:00.871421,-217.0
2023-08-10 10:58:00.879111,-236.0
2023-08-10 10:58:00.886801,-256.0
2023-08-10 10:58:00.894491,-265.0
2023-08-10 10:58:00.902181,-265.0
2023-08-10 10:58:00.909871,-244.0
2023-08-10 10:58:00.917561,-205.0
2023-08-10 10:58:00.925251,-179.0
2023-08-10 10:58:00.932941,-145.0
2023-08-10 10:58:00.940630,-86.0
2023-08-10 10:58:00.948320,-28.0
2023-08-10 10:58:00.956010,-2.0
2023-08-10 10:58:00.963700,11.0
2023-08-10 10:58:00.971390,31.0
2023-08-10 10:58:00.979080,45.0
2023-08-10 10:58:00.986770,43.0
2023-08-10 10:58:00.994460,43.0
2023-08-10 10:58:01.002150,55.0
2023-08-10 10:58:01.009840,45.0
2023-08-10 10:58:01.017530,26.0
2023-08-10 10:58:01.025220,31.0
2023-08-10 10:58:01.032910,35.0
2023-08-10 10:58:01.040600,23.0
2023-08-10 10:58:01.048290,19.0
2023-08-10 10:58:01.055980,26.0
2023-08-10 10:58:01.063669,21.0
2023-08-10 10:58:01.071359,9.0
2023-08-10 10:58:01.079049,16.0
2023-08-10 10:58:01.086739,28.0
2023-08-10 10:58:01.094429,21.0
2023-08-10 10:58:01.102119,2.0
2023-08-10 10:58:01.109809,0.0
2023-08-10 10:58:01.117499,11.0
2023-08-10 10:58:01.125189,-4.0
2023-08-10 10:58:01.132879,-26.0
2023-08-10 10:58:01.140569,-19.0
2023-08-10 10:58:01.148259,-9.0
2023-08-10 10:58:01.155949,-14.0
2023-08-10 10:58:01.163639,-14.0
2023-08-10 10:58:01.171329,-9.0
2023-08-10 10:58:01.179019,-9.0
2023-08-10 10:58:01.186709,-9.0
2023-08-10 10:58:01.194398,-9.0
2023-08-10 10:58:01.202088,-11.0
2023-08-10 10:58:01.209778,-19.0
2023-08-10 10:58:01.217468,-19.0
2023-08-10 10:58:01.225158,-11.0
2023-08-10 10:58:01.232848,-7.0
2023-08-10 10:58:01.240538,-11.0
2023-08-10 10:58:01.248228,-26.0
2023-08-10 10:58:01.255918,-28.0
2023-08-10 10:58:01.263608,-21.0
2023-08-10 10:58:01.271298,-23.0
2023-08-10 10:58:01.278988,-35.0
2023-08-10 10:58:01.286678,-33.0
2023-08-10 10:58:01.294368,-21.0
2023-08-10 10:58:01.302058,-23.0
2023-08-10 10:58:01.309748,-28.0
2023-08-10 10:58:01.317437,-31.0
2023-08-10 10:58:01.325127,-31.0
2023-08-10 10:58:01.332817,-23.0
2023-08-10 10:58:01.340507,-21.0
2023-08-10 10:58:01.348197,-28.0
2023-08-10 10:58:01.355887,-35.0
2023-08-10 10:58:01.363577,-40.0
2023-08-10 10:58:01.371267,-31.0
2023-08-10 10:58:01.378957,-28.0
2023-08-10 10:58:01.386647,-47.0
2023-08-10 10:58:01.394337,-50.0
2023-08-10 10:58:01.402027,-33.0
2023-08-10 10:58:01.409717,-40.0
2023-08-10 10:58:01.417407,-45.0
2023-08-10 10:58:01.425097,-31.0
2023-08-10 10:58:01.432787,-26.0
2023-08-10 10:58:01.440477,-43.0
2023-08-10 10:58:01.448166,-45.0
2023-08-10 10:58:01.455856,-33.0
2023-08-10 10:58:01.463546,-23.0
2023-08-10 10:58:01.471236,-26.0
2023-08-10 10:58:01.478926,-45.0
2023-08-10 10:58:01.486616,-50.0
2023-08-10 10:58:01.494306,-35.0
2023-08-10 10:58:01.501996,-52.0
2023-08-10 10:58:01.509686,-83.0
2023-08-10 10:58:01.517376,-71.0
2023-08-10 10:58:01.525066,-57.0
2023-08-10 10:58:01.532756,-66.0
2023-08-10 10:58:01.540446,-59.0
2023-08-10 10:58:01.548136,-40.0
2023-08-10 10:58:01.555826,-31.0
2023-08-10 10:58:01.563516,-23.0
2023-08-10 10:58:01.571205,-33.0
2023-08-10 10:58:01.578895,-43.0
2023-08-10 10:58:01.586585,-26.0
2023-08-10 10:58:01.594275,-16.0
2023-08-10 10:58:01.601965,-38.0
2023-08-10 10:58:01.609655,-52.0
2023-08-10 10:58:01.617345,-47.0
2023-08-10 10:58:01.625035,-90.0
2023-08-10 10:58:01.632725,-244.0
2023-08-10 10:58:01.640415,-459.0
2023-08-10 10:58:01.648105,-645.0
2023-08-10 10:58:01.655795,-686.0
2023-08-10 10:58:01.663485,-437.0
2023-08-10 10:58:01.671175,-45.0
2023-08-10 10:58:01.678865,114.0
2023-08-10 10:58:01.686555,11.0
2023-08-10 10:58:01.694245,-47.0
2023-08-10 10:58:01.701934,4.0
2023-08-10 10:58:01.709624,11.0
2023-08-10 10:58:01.717314,-23.0
2023-08-10 10:58:01.725004,-26.0
2023-08-10 10:58:01.732694,-16.0
2023-08-10 10:58:01.740384,-26.0
2023-08-10 10:58:01.748074,-38.0
2023-08-10 10:58:01.755764,-40.0
2023-08-10 10:58:01.763454,-43.0
2023-08-10 10:58:01.771144,-52.0
2023-08-10 10:58:01.778834,-52.0
2023-08-10 10:58:01.786524,-59.0
2023-08-10 10:58:01.794214,-78.0
2023-08-10 10:58:01.801904,-93.0
2023-08-10 10:58:01.809594,-95.0
2023-08-10 10:58:01.817284,-98.0
2023-08-10 10:58:01.824973,-102.0
2023-08-10 10:58:01.832663,-114.0
2023-08-10 10:58:01.840353,-138.0
2023-08-10 10:58:01.848043,-155.0
2023-08-10 10:58:01.855733,-174.0
2023-08-10 10:58:01.863423,-203.0
2023-08-10 10:58:01.871113,-220.0
2023-08-10 10:58:01.878803,-222.0
2023-08-10 10:58:01.886493,-232.0
2023-08-10 10:58:01.894183,-248.0
2023-08-10 10:58:01.901873,-263.0
2023-08-10 10:58:01.909563,-260.0
2023-08-10 10:58:01.917253,-251.0
2023-08-10 10:58:01.924943,-224.0
2023-08-10 10:58:01.932633,-165.0
2023-08-10 10:58:01.940323,-95.0
2023-08-10 10:58:01.948012,-55.0
2023-08-10 10:58:01.955702,-28.0
2023-08-10 10:58:01.963392,7.0
2023-08-10 10:58:01.971082,33.0
2023-08-10 10:58:01.978772,35.0
2023-08-10 10:58:01.986462,43.0
2023-08-10 10:58:01.994152,52.0
2023-08-10 10:58:02.001842,50.0
2023-08-10 10:58:02.009532,43.0
2023-08-10 10:58:02.017222,35.0
2023-08-10 10:58:02.024912,40.0
2023-08-10 10:58:02.032602,50.0
2023-08-10 10:58:02.040292,35.0
2023-08-10 10:58:02.047982,21.0
2023-08-10 10:58:02.055672,31.0
2023-08-10 10:58:02.063362,31.0
2023-08-10 10:58:02.071052,26.0
2023-08-10 10:58:02.078741,31.0
2023-08-10 10:58:02.086431,26.0
2023-08-10 10:58:02.094121,7.0
2023-08-10 10:58:02.101811,0.0
2023-08-10 10:58:02.109501,9.0
2023-08-10 10:58:02.117191,4.0
2023-08-10 10:58:02.124881,-4.0
2023-08-10 10:58:02.132571,14.0
2023-08-10 10:58:02.140261,26.0
2023-08-10 10:58:02.147951,2.0
2023-08-10 10:58:02.155641,-14.0
2023-08-10 10:58:02.163331,-4.0
2023-08-10 10:58:02.171021,2.0
2023-08-10 10:58:02.178711,-11.0
2023-08-10 10:58:02.186401,-11.0
2023-08-10 10:58:02.194091,0.0
2023-08-10 10:58:02.201780,-4.0
2023-08-10 10:58:02.209470,-11.0
2023-08-10 10:58:02.217160,2.0
2023-08-10 10:58:02.224850,14.0
2023-08-10 10:58:02.232540,0.0
2023-08-10 10:58:02.240230,-19.0
2023-08-10 10:58:02.247920,-14.0
2023-08-10 10:58:02.255610,-11.0
2023-08-10 10:58:02.263300,-11.0
2023-08-10 10:58:02.270990,0.0
2023-08-10 10:58:02.278680,-2.0
2023-08-10 10:58:02.286370,-16.0
2023-08-10 10:58:02.294060,-21.0
2023-08-10 10:58:02.301750,-11.0
2023-08-10 10:58:02.309440,-4.0
2023-08-10 10:58:02.317130,-11.0
2023-08-10 10:58:02.324820,-21.0
2023-08-10 10:58:02.332509,-16.0
2023-08-10 10:58:02.340199,-11.0
2023-08-10 10:58:02.347889,-16.0
2023-08-10 10:58:02.355579,-21.0
2023-08-10 10:58:02.363269,-23.0
2023-08-10 10:58:02.370959,-28.0
2023-08-10 10:58:02.378649,-26.0
2023-08-10 10:58:02.386339,-23.0
2023-08-10 10:58:02.394029,-33.0
2023-08-10 10:58:02.401719,-47.0
2023-08-10 10:58:02.409409,-57.0
2023-08-10 10:58:02.417099,-50.0
2023-08-10 10:58:02.424789,-35.0
2023-08-10 10:58:02.432479,-23.0
2023-08-10 10:58:02.440169,-21.0
2023-08-10 10:58:02.447859,-38.0
2023-08-10 10:58:02.455548,-50.0
2023-08-10 10:58:02.463238,-45.0
2023-08-10 10:58:02.470928,-55.0
2023-08-10 10:58:02.478618,-69.0
2023-08-10 10:58:02.486308,-66.0
2023-08-10 10:58:02.493998,-59.0
2023-08-10 10:58:02.501688,-62.0
2023-08-10 10:58:02.509378,-52.0
2023-08-10 10:58:02.517068,-35.0
2023-08-10 10:58:02.524758,-33.0
2023-08-10 10:58:02.532448,-35.0
2023-08-10 10:58:02.540138,-21.0
2023-08-10 10:58:02.547828,-9.0
2023-08-10 10:58:02.555518,-19.0
2023-08-10 10:58:02.563208,-33.0
2023-08-10 10:58:02.570898,-28.0
2023-08-10 10:58:02.578588,-23.0
2023-08-10 10:58:02.586277,-33.0
2023-08-10 10:58:02.593967,-90.0
2023-08-10 10:58:02.601657,-267.0
2023-08-10 10:58:02.609347,-519.0
2023-08-10 10:58:02.617037,-686.0
2023-08-10 10:58:02.624727,-636.0
2023-08-10 10:58:02.632417,-332.0
2023-08-10 10:58:02.640107,14.0
2023-08-10 10:58:02.647797,117.0
2023-08-10 10:58:02.655487,16.0
2023-08-10 10:58:02.663177,-31.0
2023-08-10 10:58:02.670867,0.0
2023-08-10 10:58:02.678557,-7.0
2023-08-10 10:58:02.686247,-21.0
2023-08-10 10:58:02.693937,-11.0
2023-08-10 10:58:02.701627,-21.0
2023-08-10 10:58:02.709316,-38.0
2023-08-10 10:58:02.717006,-28.0
2023-08-10 10:58:02.724696,-23.0
2023-08-10 10:58:02.732386,-40.0
2023-08-10 10:58:02.740076,-55.0
2023-08-10 10:58:02.747766,-64.0
2023-08-10 10:58:02.755456,-66.0
2023-08-10 10:58:02.763146,-64.0
2023-08-10 10:58:02.770836,-71.0
2023-08-10 10:58:02.778526,-88.0
2023-08-10 10:58:02.786216,-102.0
2023-08-10 10:58:02.793906,-107.0
2023-08-10 10:58:02.801596,-117.0
2023-08-10 10:58:02.809286,-136.0
2023-08-10 10:58:02.816976,-157.0
2023-08-10 10:58:02.824666,-162.0
2023-08-10 10:58:02.832356,-174.0
2023-08-10 10:58:02.840045,-198.0
2023-08-10 10:58:02.847735,-215.0
2023-08-10 10:58:02.855425,-227.0
2023-08-10 10:58:02.863115,-246.0
2023-08-10 10:58:02.870805,-256.0
2023-08-10 10:58:02.878495,-258.0
2023-08-10 10:58:02.886185,-248.0
2023-08-10 10:58:02.893875,-208.0
2023-08-10 10:58:02.901565,-145.0
2023-08-10 10:58:02.909255,-86.0
2023-08-10 10:58:02.916945,-33.0
2023-08-10 10:58:02.924635,-7.0
2023-08-10 10:58:02.932325,9.0
2023-08-10 10:58:02.940015,35.0
2023-08-10 10:58:02.947705,45.0
2023-08-10 10:58:02.955395,47.0
2023-08-10 10:58:02.963084,52.0
2023-08-10 10:58:02.970774,40.0
2023-08-10 10:58:02.978464,33.0
2023-08-10 10:58:02.986154,35.0
2023-08-10 10:58:02.993844,31.0
2023-08-10 10:58:03.001534,23.0
2023-08-10 10:58:03.009224,21.0
2023-08-10 10:58:03.016914,21.0
2023-08-10 10:58:03.024604,21.0
2023-08-10 10:58:03.032294,9.0
2023-08-10 10:58:03.039984,7.0
2023-08-10 10:58:03.047674,9.0
2023-08-10 10:58:03.055364,2.0
2023-08-10 10:58:03.063054,4.0
2023-08-10 10:58:03.070744,9.0
2023-08-10 10:58:03.078434,2.0
2023-08-10 10:58:03.086123,-7.0
2023-08-10 10:58:03.093813,0.0
2023-08-10 10:58:03.101503,4.0
2023-08-10 10:58:03.109193,-4.0
2023-08-10 10:58:03.116883,-19.0
2023-08-10 10:58:03.124573,-21.0
2023-08-10 10:58:03.132263,-9.0
2023-08-10 10:58:03.139953,-2.0
2023-08-10 10:58:03.147643,-4.0
2023-08-10 10:58:03.155333,-9.0
2023-08-10 10:58:03.163023,-7.0
2023-08-10 10:58:03.170713,-9.0
2023-08-10 10:58:03.178403,-9.0
2023-08-10 10:58:03.186093,-4.0
2023-08-10 10:58:03.193783,-7.0
2023-08-10 10:58:03.201473,-11.0
2023-08-10 10:58:03.209163,-11.0
2023-08-10 10:58:03.216852,-11.0
2023-08-10 10:58:03.224542,-16.0
2023-08-10 10:58:03.232232,-7.0
2023-08-10 10:58:03.239922,0.0
2023-08-10 10:58:03.247612,-16.0
2023-08-10 10:58:03.255302,-16.0
2023-08-10 10:58:03.262992,-2.0
2023-08-10 10:58:03.270682,-14.0
2023-08-10 10:58:03.278372,-31.0
2023-08-10 10:58:03.286062,-21.0
2023-08-10 10:58:03.293752,-11.0
2023-08-10 10:58:03.301442,-16.0
2023-08-10 10:58:03.309132,-19.0
2023-08-10 10:58:03.316822,-14.0
2023-08-10 10:58:03.324512,-14.0
2023-08-10 10:58:03.332202,-26.0
2023-08-10 10:58:03.339891,-31.0
2023-08-10 10:58:03.347581,-26.0
2023-08-10 10:58:03.355271,-23.0
2023-08-10 10:58:03.362961,-31.0
2023-08-10 10:58:03.370651,-33.0
2023-08-10 10:58:03.378341,-23.0
2023-08-10 10:58:03.386031,-33.0
2023-08-10 10:58:03.393721,-52.0
2023-08-10 10:58:03.401411,-38.0
2023-08-10 10:58:03.409101,-21.0
2023-08-10 10:58:03.416791,-38.0
2023-08-10 10:58:03.424481,-55.0
2023-08-10 10:58:03.432171,-43.0
2023-08-10 10:58:03.439861,-43.0
2023-08-10 10:58:03.447551,-62.0
2023-08-10 10:58:03.455241,-57.0
2023-08-10 10:58:03.462931,-59.0
2023-08-10 10:58:03.470620,-71.0
2023-08-10 10:58:03.478310,-59.0
2023-08-10 10:58:03.486000,-43.0
2023-08-10 10:58:03.493690,-35.0
2023-08-10 10:58:03.501380,-28.0
2023-08-10 10:58:03.509070,-31.0
2023-08-10 10:58:03.516760,-45.0
2023-08-10 10:58:03.524450,-52.0
2023-08-10 10:58:03.532140,-45.0
2023-08-10 10:58:03.539830,-47.0
2023-08-10 10:58:03.547520,-57.0
2023-08-10 10:58:03.555210,-50.0
2023-08-10 10:58:03.562900,-110.0
2023-08-10 10:58:03.570590,-313.0
2023-08-10 10:58:03.578280,-552.0
2023-08-10 10:58:03.585970,-710.0
2023-08-10 10:58:03.593659,-681.0
2023-08-10 10:58:03.601349,-358.0
2023-08-10 10:58:03.609039,16.0
2023-08-10 10:58:03.616729,74.0
2023-08-10 10:58:03.624419,-57.0
2023-08-10 10:58:03.632109,-55.0
2023-08-10 10:58:03.639799,14.0
2023-08-10 10:58:03.647489,-2.0
2023-08-10 10:58:03.655179,-26.0
2023-08-10 10:58:03.662869,-14.0
2023-08-10 10:58:03.670559,-19.0
2023-08-10 10:58:03.678249,-28.0
2023-08-10 10:58:03.685939,-31.0
2023-08-10 10:58:03.693629,-35.0
2023-08-10 10:58:03.701319,-40.0
2023-08-10 10:58:03.709009,-45.0
2023-08-10 10:58:03.716699,-50.0
2023-08-10 10:58:03.724388,-57.0
2023-08-10 10:58:03.732078,-69.0
2023-08-10 10:58:03.739768,-81.0
2023-08-10 10:58:03.747458,-90.0
2023-08-10 10:58:03.755148,-95.0
2023-08-10 10:58:03.762838,-98.0
2023-08-10 10:58:03.770528,-107.0
2023-08-10 10:58:03.778218,-131.0
2023-08-10 10:58:03.785908,-150.0
2023-08-10 10:58:03.793598,-165.0
2023-08-10 10:58:03.801288,-172.0
2023-08-10 10:58:03.808978,-177.0
2023-08-10 10:58:03.816668,-186.0
2023-08-10 10:58:03.824358,-205.0
2023-08-10 10:58:03.832048,-239.0
2023-08-10 10:58:03.839738,-263.0
2023-08-10 10:58:03.847427,-244.0
2023-08-10 10:58:03.855117,-215.0
2023-08-10 10:58:03.862807,-191.0
2023-08-10 10:58:03.870497,-138.0
2023-08-10 10:58:03.878187,-71.0
2023-08-10 10:58:03.885877,-31.0
2023-08-10 10:58:03.893567,-4.0
2023-08-10 10:58:03.901257,23.0
2023-08-10 10:58:03.908947,45.0
2023-08-10 10:58:03.916637,52.0
2023-08-10 10:58:03.924327,57.0
2023-08-10 10:58:03.932017,57.0
2023-08-10 10:58:03.939707,52.0
2023-08-10 10:58:03.947397,52.0
2023-08-10 10:58:03.955087,55.0
2023-08-10 10:58:03.962777,47.0
2023-08-10 10:58:03.970467,38.0
2023-08-10 10:58:03.978156,45.0
2023-08-10 10:58:03.985846,59.0
2023-08-10 10:58:03.993536,55.0
2023-08-10 10:58:04.001226,35.0
2023-08-10 10:58:04.008916,28.0
2023-08-10 10:58:04.016606,35.0
2023-08-10 10:58:04.024296,38.0
2023-08-10 10:58:04.031986,40.0
2023-08-10 10:58:04.039676,35.0
2023-08-10 10:58:04.047366,9.0
2023-08-10 10:58:04.055056,0.0
2023-08-10 10:58:04.062746,16.0
2023-08-10 10:58:04.070436,4.0
2023-08-10 10:58:04.078126,-14.0
2023-08-10 10:58:04.085816,-7.0
2023-08-10 10:58:04.093506,9.0
2023-08-10 10:58:04.101195,11.0
2023-08-10 10:58:04.108885,0.0
2023-08-10 10:58:04.116575,-7.0
2023-08-10 10:58:04.124265,0.0
2023-08-10 10:58:04.131955,4.0
2023-08-10 10:58:04.139645,-2.0
2023-08-10 10:58:04.147335,-2.0
2023-08-10 10:58:04.155025,-2.0
2023-08-10 10:58:04.162715,-9.0
2023-08-10 10:58:04.170405,-9.0
2023-08-10 10:58:04.178095,-2.0
2023-08-10 10:58:04.185785,-2.0
2023-08-10 10:58:04.193475,-11.0
2023-08-10 10:58:04.201165,-14.0
2023-08-10 10:58:04.208855,-7.0
2023-08-10 10:58:04.216545,-4.0
2023-08-10 10:58:04.224234,-9.0
2023-08-10 10:58:04.231924,-9.0
2023-08-10 10:58:04.239614,-7.0
2023-08-10 10:58:04.247304,-9.0
2023-08-10 10:58:04.254994,-9.0
2023-08-10 10:58:04.262684,-4.0
2023-08-10 10:58:04.270374,-7.0
2023-08-10 10:58:04.278064,-19.0
2023-08-10 10:58:04.285754,-19.0
2023-08-10 10:58:04.293444,-9.0
2023-08-10 10:58:04.301134,-11.0
2023-08-10 10:58:04.308824,-19.0
2023-08-10 10:58:04.316514,-16.0
2023-08-10 10:58:04.324204,-14.0
2023-08-10 10:58:04.331894,-19.0
2023-08-10 10:58:04.339584,-23.0
2023-08-10 10:58:04.347274,-16.0
2023-08-10 10:58:04.354963,-7.0
2023-08-10 10:58:04.362653,-31.0
2023-08-10 10:58:04.370343,-52.0
2023-08-10 10:58:04.378033,-33.0
2023-08-10 10:58:04.385723,-21.0
2023-08-10 10:58:04.393413,-38.0
2023-08-10 10:58:04.401103,-40.0
2023-08-10 10:58:04.408793,-33.0
2023-08-10 10:58:04.416483,-52.0
2023-08-10 10:58:04.424173,-71.0
2023-08-10 10:58:04.431863,-59.0
2023-08-10 10:58:04.439553,-52.0
2023-08-10 10:58:04.447243,-66.0
2023-08-10 10:58:04.454933,-64.0
2023-08-10 10:58:04.462623,-50.0
2023-08-10 10:58:04.470313,-50.0
2023-08-10 10:58:04.478002,-52.0
2023-08-10 10:58:04.485692,-38.0
2023-08-10 10:58:04.493382,-26.0
2023-08-10 10:58:04.501072,-31.0
2023-08-10 10:58:04.508762,-43.0
2023-08-10 10:58:04.516452,-47.0
2023-08-10 10:58:04.524142,-47.0
2023-08-10 10:58:04.531832,-55.0
2023-08-10 10:58:04.539522,-69.0
2023-08-10 10:58:04.547212,-174.0
2023-08-10 10:58:04.554902,-401.0
2023-08-10 10:58:04.562592,-614.0
2023-08-10 10:58:04.570282,-705.0
2023-08-10 10:58:04.577972,-588.0
2023-08-10 10:58:04.585662,-232.0
2023-08-10 10:58:04.593352,66.0
2023-08-10 10:58:04.601042,57.0
2023-08-10 10:58:04.608731,-55.0
2023-08-10 10:58:04.616421,-40.0
2023-08-10 10:58:04.624111,-4.0
2023-08-10 10:58:04.631801,-26.0
2023-08-10 10:58:04.639491,-31.0
2023-08-10 10:58:04.647181,-16.0
2023-08-10 10:58:04.654871,-35.0
2023-08-10 10:58:04.662561,-59.0
2023-08-10 10:58:04.670251,-50.0
2023-08-10 10:58:04.677941,-40.0
2023-08-10 10:58:04.685631,-57.0
2023-08-10 10:58:04.693321,-71.0
2023-08-10 10:58:04.701011,-66.0
2023-08-10 10:58:04.708701,-66.0
2023-08-10 10:58:04.716391,-81.0
2023-08-10 10:58:04.724081,-98.0
2023-08-10 10:58:04.731770,-98.0
2023-08-10 10:58:04.739460,-88.0
