time,ECG
2023-08-15 17:46:57.775718,-9.0
2023-08-15 17:46:57.783408,0.0
2023-08-15 17:46:57.791097,14.0
2023-08-15 17:46:57.798787,28.0
2023-08-15 17:46:57.806476,42.0
2023-08-15 17:46:57.814166,59.0
2023-08-15 17:46:57.821856,73.0
2023-08-15 17:46:57.829545,85.0
2023-08-15 17:46:57.837235,107.0
2023-08-15 17:46:57.844924,128.0
2023-08-15 17:46:57.852614,135.0
2023-08-15 17:46:57.860304,133.0
2023-08-15 17:46:57.867993,135.0
2023-08-15 17:46:57.875683,138.0
2023-08-15 17:46:57.883373,123.0
2023-08-15 17:46:57.891062,90.0
2023-08-15 17:46:57.898752,45.0
2023-08-15 17:46:57.906441,-7.0
2023-08-15 17:46:57.914131,-54.0
2023-08-15 17:46:57.921821,-85.0
2023-08-15 17:46:57.929510,-114.0
2023-08-15 17:46:57.937200,-142.0
2023-08-15 17:46:57.944889,-159.0
2023-08-15 17:46:57.952579,-161.0
2023-08-15 17:46:57.960269,-161.0
2023-08-15 17:46:57.967958,-161.0
2023-08-15 17:46:57.975648,-154.0
2023-08-15 17:46:57.983338,-149.0
2023-08-15 17:46:57.991027,-152.0
2023-08-15 17:46:57.998717,-154.0
2023-08-15 17:46:58.006406,-147.0
2023-08-15 17:46:58.014096,-138.0
2023-08-15 17:46:58.021786,-133.0
2023-08-15 17:46:58.029475,-130.0
2023-08-15 17:46:58.037165,-126.0
2023-08-15 17:46:58.044854,-121.0
2023-08-15 17:46:58.052544,-119.0
2023-08-15 17:46:58.060234,-116.0
2023-08-15 17:46:58.067923,-121.0
2023-08-15 17:46:58.075613,-126.0
2023-08-15 17:46:58.083303,-126.0
2023-08-15 17:46:58.090992,-123.0
2023-08-15 17:46:58.098682,-121.0
2023-08-15 17:46:58.106371,-119.0
2023-08-15 17:46:58.114061,-121.0
2023-08-15 17:46:58.121751,-121.0
2023-08-15 17:46:58.129440,-121.0
2023-08-15 17:46:58.137130,-119.0
2023-08-15 17:46:58.144819,-119.0
2023-08-15 17:46:58.152509,-119.0
2023-08-15 17:46:58.160199,-119.0
2023-08-15 17:46:58.167888,-109.0
2023-08-15 17:46:58.175578,-99.0
2023-08-15 17:46:58.183268,-102.0
2023-08-15 17:46:58.190957,-88.0
2023-08-15 17:46:58.198647,-59.0
2023-08-15 17:46:58.206336,-54.0
2023-08-15 17:46:58.214026,-80.0
2023-08-15 17:46:58.221716,-104.0
2023-08-15 17:46:58.229405,-114.0
2023-08-15 17:46:58.237095,-107.0
2023-08-15 17:46:58.244784,-92.0
2023-08-15 17:46:58.252474,-88.0
2023-08-15 17:46:58.260164,-95.0
2023-08-15 17:46:58.267853,-40.0
2023-08-15 17:46:58.275543,164.0
2023-08-15 17:46:58.283233,473.0
2023-08-15 17:46:58.290922,564.0
2023-08-15 17:46:58.298612,164.0
2023-08-15 17:46:58.306301,-418.0
2023-08-15 17:46:58.313991,-576.0
2023-08-15 17:46:58.321681,-285.0
2023-08-15 17:46:58.329370,-83.0
2023-08-15 17:46:58.337060,-99.0
2023-08-15 17:46:58.344749,-97.0
2023-08-15 17:46:58.352439,-71.0
2023-08-15 17:46:58.360129,-76.0
2023-08-15 17:46:58.367818,-71.0
2023-08-15 17:46:58.375508,-54.0
2023-08-15 17:46:58.383198,-49.0
2023-08-15 17:46:58.390887,-42.0
2023-08-15 17:46:58.398577,-28.0
2023-08-15 17:46:58.406266,-16.0
2023-08-15 17:46:58.413956,-4.0
2023-08-15 17:46:58.421646,9.0
2023-08-15 17:46:58.429335,23.0
2023-08-15 17:46:58.437025,33.0
2023-08-15 17:46:58.444714,47.0
2023-08-15 17:46:58.452404,66.0
2023-08-15 17:46:58.460094,85.0
2023-08-15 17:46:58.467783,104.0
2023-08-15 17:46:58.475473,123.0
2023-08-15 17:46:58.483163,133.0
2023-08-15 17:46:58.490852,135.0
2023-08-15 17:46:58.498542,133.0
2023-08-15 17:46:58.506231,128.0
2023-08-15 17:46:58.513921,111.0
2023-08-15 17:46:58.521611,78.0
2023-08-15 17:46:58.529300,33.0
2023-08-15 17:46:58.536990,-16.0
2023-08-15 17:46:58.544679,-66.0
2023-08-15 17:46:58.552369,-107.0
2023-08-15 17:46:58.560059,-133.0
2023-08-15 17:46:58.567748,-157.0
2023-08-15 17:46:58.575438,-178.0
2023-08-15 17:46:58.583128,-195.0
2023-08-15 17:46:58.590817,-199.0
2023-08-15 17:46:58.598507,-197.0
2023-08-15 17:46:58.606196,-192.0
2023-08-15 17:46:58.613886,-185.0
2023-08-15 17:46:58.621576,-180.0
2023-08-15 17:46:58.629265,-178.0
2023-08-15 17:46:58.636955,-171.0
2023-08-15 17:46:58.644644,-164.0
2023-08-15 17:46:58.652334,-154.0
2023-08-15 17:46:58.660024,-147.0
2023-08-15 17:46:58.667713,-147.0
2023-08-15 17:46:58.675403,-147.0
2023-08-15 17:46:58.683093,-138.0
2023-08-15 17:46:58.690782,-130.0
2023-08-15 17:46:58.698472,-130.0
2023-08-15 17:46:58.706161,-130.0
2023-08-15 17:46:58.713851,-130.0
2023-08-15 17:46:58.721541,-133.0
2023-08-15 17:46:58.729230,-130.0
2023-08-15 17:46:58.736920,-126.0
2023-08-15 17:46:58.744609,-123.0
2023-08-15 17:46:58.752299,-123.0
2023-08-15 17:46:58.759989,-126.0
2023-08-15 17:46:58.767678,-126.0
2023-08-15 17:46:58.775368,-123.0
2023-08-15 17:46:58.783058,-119.0
2023-08-15 17:46:58.790747,-111.0
2023-08-15 17:46:58.798437,-111.0
2023-08-15 17:46:58.806126,-111.0
2023-08-15 17:46:58.813816,-102.0
2023-08-15 17:46:58.821506,-90.0
2023-08-15 17:46:58.829195,-90.0
2023-08-15 17:46:58.836885,-104.0
2023-08-15 17:46:58.844574,-128.0
2023-08-15 17:46:58.852264,-138.0
2023-08-15 17:46:58.859954,-128.0
2023-08-15 17:46:58.867643,-121.0
2023-08-15 17:46:58.875333,-121.0
2023-08-15 17:46:58.883023,-99.0
2023-08-15 17:46:58.890712,-2.0
2023-08-15 17:46:58.898402,245.0
2023-08-15 17:46:58.906091,511.0
2023-08-15 17:46:58.913781,418.0
2023-08-15 17:46:58.921471,-119.0
2023-08-15 17:46:58.929160,-583.0
2023-08-15 17:46:58.936850,-514.0
2023-08-15 17:46:58.944539,-183.0
2023-08-15 17:46:58.952229,-71.0
2023-08-15 17:46:58.959919,-116.0
2023-08-15 17:46:58.967608,-95.0
2023-08-15 17:46:58.975298,-69.0
2023-08-15 17:46:58.982988,-83.0
2023-08-15 17:46:58.990677,-78.0
2023-08-15 17:46:58.998367,-61.0
2023-08-15 17:46:59.006056,-54.0
2023-08-15 17:46:59.013746,-47.0
2023-08-15 17:46:59.021436,-33.0
2023-08-15 17:46:59.029125,-21.0
2023-08-15 17:46:59.036815,-9.0
2023-08-15 17:46:59.044504,7.0
2023-08-15 17:46:59.052194,21.0
2023-08-15 17:46:59.059884,30.0
2023-08-15 17:46:59.067573,47.0
2023-08-15 17:46:59.075263,66.0
2023-08-15 17:46:59.082953,85.0
2023-08-15 17:46:59.090642,104.0
2023-08-15 17:46:59.098332,121.0
2023-08-15 17:46:59.106021,130.0
2023-08-15 17:46:59.113711,128.0
2023-08-15 17:46:59.121401,116.0
2023-08-15 17:46:59.129090,102.0
2023-08-15 17:46:59.136780,85.0
2023-08-15 17:46:59.144469,49.0
2023-08-15 17:46:59.152159,0.0
2023-08-15 17:46:59.159849,-49.0
2023-08-15 17:46:59.167538,-95.0
2023-08-15 17:46:59.175228,-133.0
2023-08-15 17:46:59.182918,-159.0
2023-08-15 17:46:59.190607,-171.0
2023-08-15 17:46:59.198297,-178.0
2023-08-15 17:46:59.205986,-183.0
2023-08-15 17:46:59.213676,-183.0
2023-08-15 17:46:59.221366,-180.0
2023-08-15 17:46:59.229055,-173.0
2023-08-15 17:46:59.236745,-169.0
2023-08-15 17:46:59.244434,-161.0
2023-08-15 17:46:59.252124,-159.0
2023-08-15 17:46:59.259814,-152.0
2023-08-15 17:46:59.267503,-147.0
2023-08-15 17:46:59.275193,-140.0
2023-08-15 17:46:59.282883,-135.0
2023-08-15 17:46:59.290572,-128.0
2023-08-15 17:46:59.298262,-126.0
2023-08-15 17:46:59.305951,-128.0
2023-08-15 17:46:59.313641,-128.0
2023-08-15 17:46:59.321331,-130.0
2023-08-15 17:46:59.329020,-133.0
2023-08-15 17:46:59.336710,-130.0
2023-08-15 17:46:59.344399,-128.0
2023-08-15 17:46:59.352089,-128.0
2023-08-15 17:46:59.359779,-128.0
2023-08-15 17:46:59.367468,-126.0
2023-08-15 17:46:59.375158,-126.0
2023-08-15 17:46:59.382848,-126.0
2023-08-15 17:46:59.390537,-126.0
2023-08-15 17:46:59.398227,-123.0
2023-08-15 17:46:59.405916,-121.0
2023-08-15 17:46:59.413606,-114.0
2023-08-15 17:46:59.421296,-107.0
2023-08-15 17:46:59.428985,-107.0
2023-08-15 17:46:59.436675,-97.0
2023-08-15 17:46:59.444364,-73.0
2023-08-15 17:46:59.452054,-66.0
2023-08-15 17:46:59.459744,-80.0
2023-08-15 17:46:59.467433,-104.0
2023-08-15 17:46:59.475123,-121.0
2023-08-15 17:46:59.482813,-116.0
2023-08-15 17:46:59.490502,-107.0
2023-08-15 17:46:59.498192,-107.0
2023-08-15 17:46:59.505881,-107.0
2023-08-15 17:46:59.513571,-71.0
2023-08-15 17:46:59.521261,83.0
2023-08-15 17:46:59.528950,376.0
2023-08-15 17:46:59.536640,542.0
2023-08-15 17:46:59.544329,252.0
2023-08-15 17:46:59.552019,-335.0
2023-08-15 17:46:59.559709,-616.0
2023-08-15 17:46:59.567398,-357.0
2023-08-15 17:46:59.575088,-64.0
2023-08-15 17:46:59.582778,-76.0
2023-08-15 17:46:59.590467,-121.0
2023-08-15 17:46:59.598157,-76.0
2023-08-15 17:46:59.605846,-66.0
2023-08-15 17:46:59.613536,-83.0
2023-08-15 17:46:59.621226,-69.0
2023-08-15 17:46:59.628915,-52.0
2023-08-15 17:46:59.636605,-52.0
2023-08-15 17:46:59.644294,-42.0
2023-08-15 17:46:59.651984,-30.0
2023-08-15 17:46:59.659674,-28.0
2023-08-15 17:46:59.667363,-21.0
2023-08-15 17:46:59.675053,0.0
2023-08-15 17:46:59.682743,16.0
2023-08-15 17:46:59.690432,30.0
2023-08-15 17:46:59.698122,52.0
2023-08-15 17:46:59.705811,69.0
2023-08-15 17:46:59.713501,85.0
2023-08-15 17:46:59.721191,104.0
2023-08-15 17:46:59.728880,119.0
2023-08-15 17:46:59.736570,123.0
2023-08-15 17:46:59.744259,128.0
2023-08-15 17:46:59.751949,123.0
2023-08-15 17:46:59.759639,111.0
2023-08-15 17:46:59.767328,90.0
2023-08-15 17:46:59.775018,52.0
2023-08-15 17:46:59.782708,2.0
2023-08-15 17:46:59.790397,-47.0
2023-08-15 17:46:59.798087,-92.0
2023-08-15 17:46:59.805776,-123.0
2023-08-15 17:46:59.813466,-147.0
2023-08-15 17:46:59.821156,-166.0
2023-08-15 17:46:59.828845,-180.0
2023-08-15 17:46:59.836535,-180.0
2023-08-15 17:46:59.844224,-178.0
2023-08-15 17:46:59.851914,-176.0
2023-08-15 17:46:59.859604,-169.0
2023-08-15 17:46:59.867293,-164.0
2023-08-15 17:46:59.874983,-159.0
2023-08-15 17:46:59.882673,-154.0
2023-08-15 17:46:59.890362,-147.0
2023-08-15 17:46:59.898052,-140.0
2023-08-15 17:46:59.905741,-135.0
2023-08-15 17:46:59.913431,-133.0
2023-08-15 17:46:59.921121,-130.0
2023-08-15 17:46:59.928810,-128.0
2023-08-15 17:46:59.936500,-123.0
2023-08-15 17:46:59.944189,-119.0
2023-08-15 17:46:59.951879,-116.0
2023-08-15 17:46:59.959569,-116.0
2023-08-15 17:46:59.967258,-116.0
2023-08-15 17:46:59.974948,-116.0
2023-08-15 17:46:59.982638,-116.0
2023-08-15 17:46:59.990327,-114.0
2023-08-15 17:46:59.998017,-114.0
2023-08-15 17:47:00.005706,-114.0
2023-08-15 17:47:00.013396,-114.0
2023-08-15 17:47:00.021086,-111.0
2023-08-15 17:47:00.028775,-109.0
2023-08-15 17:47:00.036465,-109.0
2023-08-15 17:47:00.044154,-111.0
2023-08-15 17:47:00.051844,-104.0
2023-08-15 17:47:00.059534,-97.0
2023-08-15 17:47:00.067223,-95.0
2023-08-15 17:47:00.074913,-80.0
2023-08-15 17:47:00.082603,-57.0
2023-08-15 17:47:00.090292,-54.0
2023-08-15 17:47:00.097982,-73.0
2023-08-15 17:47:00.105671,-97.0
2023-08-15 17:47:00.113361,-109.0
2023-08-15 17:47:00.121051,-104.0
2023-08-15 17:47:00.128740,-97.0
2023-08-15 17:47:00.136430,-97.0
2023-08-15 17:47:00.144119,-92.0
2023-08-15 17:47:00.151809,-49.0
2023-08-15 17:47:00.159499,119.0
2023-08-15 17:47:00.167188,414.0
2023-08-15 17:47:00.174878,535.0
2023-08-15 17:47:00.182568,192.0
2023-08-15 17:47:00.190257,-378.0
2023-08-15 17:47:00.197947,-590.0
2023-08-15 17:47:00.205636,-297.0
2023-08-15 17:47:00.213326,-40.0
2023-08-15 17:47:00.221016,-73.0
2023-08-15 17:47:00.228705,-109.0
2023-08-15 17:47:00.236395,-64.0
2023-08-15 17:47:00.244084,-71.0
2023-08-15 17:47:00.251774,-88.0
2023-08-15 17:47:00.259464,-69.0
2023-08-15 17:47:00.267153,-57.0
2023-08-15 17:47:00.274843,-54.0
2023-08-15 17:47:00.282533,-45.0
2023-08-15 17:47:00.290222,-33.0
2023-08-15 17:47:00.297912,-21.0
2023-08-15 17:47:00.305601,-7.0
2023-08-15 17:47:00.313291,11.0
2023-08-15 17:47:00.320981,28.0
2023-08-15 17:47:00.328670,40.0
2023-08-15 17:47:00.336360,52.0
2023-08-15 17:47:00.344049,71.0
2023-08-15 17:47:00.351739,95.0
2023-08-15 17:47:00.359429,111.0
2023-08-15 17:47:00.367118,119.0
2023-08-15 17:47:00.374808,123.0
2023-08-15 17:47:00.382498,126.0
2023-08-15 17:47:00.390187,121.0
2023-08-15 17:47:00.397877,111.0
2023-08-15 17:47:00.405566,88.0
2023-08-15 17:47:00.413256,49.0
2023-08-15 17:47:00.420946,0.0
2023-08-15 17:47:00.428635,-49.0
2023-08-15 17:47:00.436325,-85.0
2023-08-15 17:47:00.444014,-111.0
2023-08-15 17:47:00.451704,-135.0
2023-08-15 17:47:00.459394,-149.0
2023-08-15 17:47:00.467083,-157.0
2023-08-15 17:47:00.474773,-161.0
2023-08-15 17:47:00.482463,-161.0
2023-08-15 17:47:00.490152,-154.0
2023-08-15 17:47:00.497842,-152.0
2023-08-15 17:47:00.505531,-149.0
2023-08-15 17:47:00.513221,-145.0
2023-08-15 17:47:00.520911,-140.0
2023-08-15 17:47:00.528600,-133.0
2023-08-15 17:47:00.536290,-130.0
2023-08-15 17:47:00.543979,-128.0
2023-08-15 17:47:00.551669,-123.0
2023-08-15 17:47:00.559359,-123.0
2023-08-15 17:47:00.567048,-121.0
2023-08-15 17:47:00.574738,-114.0
2023-08-15 17:47:00.582428,-109.0
2023-08-15 17:47:00.590117,-111.0
2023-08-15 17:47:00.597807,-111.0
2023-08-15 17:47:00.605496,-107.0
2023-08-15 17:47:00.613186,-109.0
2023-08-15 17:47:00.620876,-107.0
2023-08-15 17:47:00.628565,-104.0
2023-08-15 17:47:00.636255,-99.0
2023-08-15 17:47:00.643944,-99.0
2023-08-15 17:47:00.651634,-104.0
2023-08-15 17:47:00.659324,-102.0
2023-08-15 17:47:00.667013,-95.0
2023-08-15 17:47:00.674703,-95.0
2023-08-15 17:47:00.682393,-97.0
2023-08-15 17:47:00.690082,-95.0
2023-08-15 17:47:00.697772,-88.0
2023-08-15 17:47:00.705461,-80.0
2023-08-15 17:47:00.713151,-80.0
2023-08-15 17:47:00.720841,-71.0
2023-08-15 17:47:00.728530,-47.0
2023-08-15 17:47:00.736220,-38.0
2023-08-15 17:47:00.743909,-54.0
2023-08-15 17:47:00.751599,-78.0
2023-08-15 17:47:00.759289,-92.0
2023-08-15 17:47:00.766978,-88.0
2023-08-15 17:47:00.774668,-83.0
2023-08-15 17:47:00.782358,-88.0
2023-08-15 17:47:00.790047,-85.0
2023-08-15 17:47:00.797737,-45.0
2023-08-15 17:47:00.805426,104.0
2023-08-15 17:47:00.813116,390.0
2023-08-15 17:47:00.820806,561.0
2023-08-15 17:47:00.828495,271.0
2023-08-15 17:47:00.836185,-311.0
2023-08-15 17:47:00.843874,-576.0
2023-08-15 17:47:00.851564,-333.0
2023-08-15 17:47:00.859254,-71.0
2023-08-15 17:47:00.866943,-69.0
2023-08-15 17:47:00.874633,-107.0
2023-08-15 17:47:00.882323,-76.0
2023-08-15 17:47:00.890012,-64.0
2023-08-15 17:47:00.897702,-71.0
2023-08-15 17:47:00.905391,-59.0
2023-08-15 17:47:00.913081,-54.0
2023-08-15 17:47:00.920771,-49.0
2023-08-15 17:47:00.928460,-30.0
2023-08-15 17:47:00.936150,-19.0
2023-08-15 17:47:00.943839,-9.0
2023-08-15 17:47:00.951529,9.0
2023-08-15 17:47:00.959219,28.0
2023-08-15 17:47:00.966908,49.0
2023-08-15 17:47:00.974598,59.0
2023-08-15 17:47:00.982288,66.0
2023-08-15 17:47:00.989977,90.0
2023-08-15 17:47:00.997667,114.0
2023-08-15 17:47:01.005356,126.0
2023-08-15 17:47:01.013046,133.0
2023-08-15 17:47:01.020736,135.0
2023-08-15 17:47:01.028425,138.0
2023-08-15 17:47:01.036115,135.0
2023-08-15 17:47:01.043804,119.0
2023-08-15 17:47:01.051494,95.0
2023-08-15 17:47:01.059184,66.0
2023-08-15 17:47:01.066873,16.0
2023-08-15 17:47:01.074563,-38.0
2023-08-15 17:47:01.082253,-76.0
2023-08-15 17:47:01.089942,-99.0
2023-08-15 17:47:01.097632,-123.0
2023-08-15 17:47:01.105321,-142.0
2023-08-15 17:47:01.113011,-145.0
2023-08-15 17:47:01.120701,-152.0
2023-08-15 17:47:01.128390,-161.0
2023-08-15 17:47:01.136080,-152.0
2023-08-15 17:47:01.143769,-140.0
2023-08-15 17:47:01.151459,-140.0
2023-08-15 17:47:01.159149,-138.0
2023-08-15 17:47:01.166838,-128.0
2023-08-15 17:47:01.174528,-123.0
2023-08-15 17:47:01.182218,-121.0
2023-08-15 17:47:01.189907,-114.0
2023-08-15 17:47:01.197597,-107.0
2023-08-15 17:47:01.205286,-109.0
2023-08-15 17:47:01.212976,-111.0
2023-08-15 17:47:01.220666,-107.0
2023-08-15 17:47:01.228355,-102.0
2023-08-15 17:47:01.236045,-104.0
2023-08-15 17:47:01.243734,-107.0
2023-08-15 17:47:01.251424,-107.0
2023-08-15 17:47:01.259114,-104.0
2023-08-15 17:47:01.266803,-102.0
2023-08-15 17:47:01.274493,-107.0
2023-08-15 17:47:01.282183,-114.0
2023-08-15 17:47:01.289872,-114.0
2023-08-15 17:47:01.297562,-109.0
2023-08-15 17:47:01.305251,-109.0
2023-08-15 17:47:01.312941,-109.0
2023-08-15 17:47:01.320631,-107.0
2023-08-15 17:47:01.328320,-104.0
2023-08-15 17:47:01.336010,-104.0
2023-08-15 17:47:01.343699,-92.0
2023-08-15 17:47:01.351389,-76.0
2023-08-15 17:47:01.359079,-73.0
2023-08-15 17:47:01.366768,-90.0
2023-08-15 17:47:01.374458,-119.0
2023-08-15 17:47:01.382148,-130.0
2023-08-15 17:47:01.389837,-121.0
2023-08-15 17:47:01.397527,-111.0
2023-08-15 17:47:01.405216,-114.0
2023-08-15 17:47:01.412906,-107.0
2023-08-15 17:47:01.420596,-54.0
2023-08-15 17:47:01.428285,119.0
2023-08-15 17:47:01.435975,418.0
2023-08-15 17:47:01.443664,559.0
2023-08-15 17:47:01.451354,209.0
2023-08-15 17:47:01.459044,-378.0
2023-08-15 17:47:01.466733,-571.0
2023-08-15 17:47:01.474423,-316.0
2023-08-15 17:47:01.482113,-107.0
2023-08-15 17:47:01.489802,-97.0
2023-08-15 17:47:01.497492,-88.0
2023-08-15 17:47:01.505181,-61.0
2023-08-15 17:47:01.512871,-66.0
2023-08-15 17:47:01.520561,-66.0
2023-08-15 17:47:01.528250,-54.0
2023-08-15 17:47:01.535940,-45.0
2023-08-15 17:47:01.543629,-35.0
2023-08-15 17:47:01.551319,-26.0
2023-08-15 17:47:01.559009,-11.0
2023-08-15 17:47:01.566698,2.0
2023-08-15 17:47:01.574388,16.0
2023-08-15 17:47:01.582078,28.0
2023-08-15 17:47:01.589767,45.0
2023-08-15 17:47:01.597457,64.0
2023-08-15 17:47:01.605146,80.0
2023-08-15 17:47:01.612836,102.0
2023-08-15 17:47:01.620526,121.0
2023-08-15 17:47:01.628215,138.0
2023-08-15 17:47:01.635905,147.0
2023-08-15 17:47:01.643594,147.0
2023-08-15 17:47:01.651284,145.0
2023-08-15 17:47:01.658974,138.0
2023-08-15 17:47:01.666663,119.0
2023-08-15 17:47:01.674353,85.0
2023-08-15 17:47:01.682043,45.0
2023-08-15 17:47:01.689732,2.0
2023-08-15 17:47:01.697422,-42.0
2023-08-15 17:47:01.705111,-78.0
2023-08-15 17:47:01.712801,-107.0
2023-08-15 17:47:01.720491,-130.0
2023-08-15 17:47:01.728180,-145.0
2023-08-15 17:47:01.735870,-149.0
2023-08-15 17:47:01.743559,-149.0
2023-08-15 17:47:01.751249,-152.0
2023-08-15 17:47:01.758939,-152.0
2023-08-15 17:47:01.766628,-149.0
2023-08-15 17:47:01.774318,-147.0
2023-08-15 17:47:01.782008,-140.0
2023-08-15 17:47:01.789697,-133.0
2023-08-15 17:47:01.797387,-128.0
2023-08-15 17:47:01.805076,-123.0
2023-08-15 17:47:01.812766,-119.0
2023-08-15 17:47:01.820456,-116.0
2023-08-15 17:47:01.828145,-109.0
2023-08-15 17:47:01.835835,-109.0
2023-08-15 17:47:01.843524,-114.0
2023-08-15 17:47:01.851214,-114.0
2023-08-15 17:47:01.858904,-111.0
2023-08-15 17:47:01.866593,-109.0
2023-08-15 17:47:01.874283,-109.0
2023-08-15 17:47:01.881973,-109.0
2023-08-15 17:47:01.889662,-107.0
2023-08-15 17:47:01.897352,-104.0
2023-08-15 17:47:01.905041,-111.0
2023-08-15 17:47:01.912731,-121.0
2023-08-15 17:47:01.920421,-116.0
2023-08-15 17:47:01.928110,-102.0
2023-08-15 17:47:01.935800,-99.0
2023-08-15 17:47:01.943489,-99.0
2023-08-15 17:47:01.951179,-85.0
2023-08-15 17:47:01.958869,-66.0
2023-08-15 17:47:01.966558,-64.0
2023-08-15 17:47:01.974248,-78.0
2023-08-15 17:47:01.981938,-99.0
2023-08-15 17:47:01.989627,-114.0
2023-08-15 17:47:01.997317,-107.0
2023-08-15 17:47:02.005006,-99.0
2023-08-15 17:47:02.012696,-102.0
2023-08-15 17:47:02.020386,-95.0
2023-08-15 17:47:02.028075,-14.0
2023-08-15 17:47:02.035765,202.0
2023-08-15 17:47:02.043454,485.0
2023-08-15 17:47:02.051144,490.0
2023-08-15 17:47:02.058834,26.0
2023-08-15 17:47:02.066523,-490.0
2023-08-15 17:47:02.074213,-530.0
2023-08-15 17:47:02.081903,-238.0
2023-08-15 17:47:02.089592,-88.0
2023-08-15 17:47:02.097282,-97.0
2023-08-15 17:47:02.104971,-78.0
2023-08-15 17:47:02.112661,-57.0
2023-08-15 17:47:02.120351,-64.0
2023-08-15 17:47:02.128040,-59.0
2023-08-15 17:47:02.135730,-47.0
2023-08-15 17:47:02.143419,-40.0
2023-08-15 17:47:02.151109,-28.0
2023-08-15 17:47:02.158799,-16.0
2023-08-15 17:47:02.166488,-2.0
2023-08-15 17:47:02.174178,7.0
2023-08-15 17:47:02.181868,19.0
2023-08-15 17:47:02.189557,35.0
2023-08-15 17:47:02.197247,54.0
2023-08-15 17:47:02.204936,73.0
2023-08-15 17:47:02.212626,92.0
2023-08-15 17:47:02.220316,111.0
2023-08-15 17:47:02.228005,128.0
2023-08-15 17:47:02.235695,142.0
2023-08-15 17:47:02.243384,154.0
2023-08-15 17:47:02.251074,159.0
2023-08-15 17:47:02.258764,149.0
2023-08-15 17:47:02.266453,133.0
2023-08-15 17:47:02.274143,109.0
2023-08-15 17:47:02.281833,76.0
2023-08-15 17:47:02.289522,33.0
2023-08-15 17:47:02.297212,-14.0
2023-08-15 17:47:02.304901,-54.0
2023-08-15 17:47:02.312591,-90.0
2023-08-15 17:47:02.320281,-116.0
2023-08-15 17:47:02.327970,-130.0
2023-08-15 17:47:02.335660,-138.0
2023-08-15 17:47:02.343349,-142.0
2023-08-15 17:47:02.351039,-152.0
2023-08-15 17:47:02.358729,-157.0
2023-08-15 17:47:02.366418,-157.0
2023-08-15 17:47:02.374108,-149.0
2023-08-15 17:47:02.381798,-142.0
2023-08-15 17:47:02.389487,-135.0
2023-08-15 17:47:02.397177,-130.0
2023-08-15 17:47:02.404866,-128.0
2023-08-15 17:47:02.412556,-126.0
2023-08-15 17:47:02.420246,-119.0
2023-08-15 17:47:02.427935,-114.0
2023-08-15 17:47:02.435625,-111.0
2023-08-15 17:47:02.443314,-109.0
2023-08-15 17:47:02.451004,-107.0
2023-08-15 17:47:02.458694,-104.0
2023-08-15 17:47:02.466383,-102.0
2023-08-15 17:47:02.474073,-99.0
2023-08-15 17:47:02.481763,-99.0
2023-08-15 17:47:02.489452,-107.0
2023-08-15 17:47:02.497142,-116.0
2023-08-15 17:47:02.504831,-119.0
2023-08-15 17:47:02.512521,-116.0
2023-08-15 17:47:02.520211,-116.0
2023-08-15 17:47:02.527900,-114.0
2023-08-15 17:47:02.535590,-111.0
2023-08-15 17:47:02.543279,-104.0
2023-08-15 17:47:02.550969,-104.0
2023-08-15 17:47:02.558659,-99.0
2023-08-15 17:47:02.566348,-80.0
2023-08-15 17:47:02.574038,-66.0
2023-08-15 17:47:02.581728,-71.0
2023-08-15 17:47:02.589417,-90.0
2023-08-15 17:47:02.597107,-109.0
2023-08-15 17:47:02.604796,-116.0
2023-08-15 17:47:02.612486,-107.0
2023-08-15 17:47:02.620176,-102.0
2023-08-15 17:47:02.627865,-107.0
2023-08-15 17:47:02.635555,-90.0
2023-08-15 17:47:02.643244,0.0
2023-08-15 17:47:02.650934,238.0
2023-08-15 17:47:02.658624,516.0
2023-08-15 17:47:02.666313,466.0
2023-08-15 17:47:02.674003,-38.0
2023-08-15 17:47:02.681693,-521.0
2023-08-15 17:47:02.689382,-502.0
2023-08-15 17:47:02.697072,-202.0
2023-08-15 17:47:02.704761,-76.0
2023-08-15 17:47:02.712451,-102.0
2023-08-15 17:47:02.720141,-80.0
2023-08-15 17:47:02.727830,-57.0
2023-08-15 17:47:02.735520,-69.0
2023-08-15 17:47:02.743209,-61.0
2023-08-15 17:47:02.750899,-47.0
2023-08-15 17:47:02.758589,-47.0
2023-08-15 17:47:02.766278,-35.0
2023-08-15 17:47:02.773968,-19.0
2023-08-15 17:47:02.781658,-7.0
2023-08-15 17:47:02.789347,4.0
2023-08-15 17:47:02.797037,21.0
2023-08-15 17:47:02.804726,35.0
2023-08-15 17:47:02.812416,49.0
2023-08-15 17:47:02.820106,69.0
2023-08-15 17:47:02.827795,90.0
2023-08-15 17:47:02.835485,111.0
2023-08-15 17:47:02.843174,130.0
2023-08-15 17:47:02.850864,145.0
2023-08-15 17:47:02.858554,152.0
2023-08-15 17:47:02.866243,152.0
2023-08-15 17:47:02.873933,149.0
2023-08-15 17:47:02.881623,140.0
2023-08-15 17:47:02.889312,116.0
2023-08-15 17:47:02.897002,78.0
2023-08-15 17:47:02.904691,30.0
2023-08-15 17:47:02.912381,-16.0
2023-08-15 17:47:02.920071,-61.0
2023-08-15 17:47:02.927760,-95.0
2023-08-15 17:47:02.935450,-119.0
2023-08-15 17:47:02.943139,-135.0
2023-08-15 17:47:02.950829,-145.0
2023-08-15 17:47:02.958519,-145.0
2023-08-15 17:47:02.966208,-147.0
2023-08-15 17:47:02.973898,-147.0
2023-08-15 17:47:02.981588,-145.0
2023-08-15 17:47:02.989277,-145.0
2023-08-15 17:47:02.996967,-142.0
2023-08-15 17:47:03.004656,-142.0
2023-08-15 17:47:03.012346,-135.0
2023-08-15 17:47:03.020036,-130.0
2023-08-15 17:47:03.027725,-126.0
2023-08-15 17:47:03.035415,-121.0
2023-08-15 17:47:03.043104,-114.0
2023-08-15 17:47:03.050794,-111.0
2023-08-15 17:47:03.058484,-109.0
2023-08-15 17:47:03.066173,-104.0
2023-08-15 17:47:03.073863,-107.0
2023-08-15 17:47:03.081553,-114.0
2023-08-15 17:47:03.089242,-111.0
2023-08-15 17:47:03.096932,-109.0
2023-08-15 17:47:03.104621,-111.0
2023-08-15 17:47:03.112311,-111.0
2023-08-15 17:47:03.120001,-111.0
2023-08-15 17:47:03.127690,-111.0
2023-08-15 17:47:03.135380,-111.0
2023-08-15 17:47:03.143069,-107.0
2023-08-15 17:47:03.150759,-107.0
2023-08-15 17:47:03.158449,-107.0
2023-08-15 17:47:03.166138,-99.0
2023-08-15 17:47:03.173828,-92.0
2023-08-15 17:47:03.181518,-92.0
2023-08-15 17:47:03.189207,-80.0
2023-08-15 17:47:03.196897,-61.0
2023-08-15 17:47:03.204586,-57.0
2023-08-15 17:47:03.212276,-69.0
2023-08-15 17:47:03.219966,-90.0
2023-08-15 17:47:03.227655,-107.0
2023-08-15 17:47:03.235345,-104.0
2023-08-15 17:47:03.243034,-99.0
2023-08-15 17:47:03.250724,-104.0
2023-08-15 17:47:03.258414,-102.0
2023-08-15 17:47:03.266103,-66.0
2023-08-15 17:47:03.273793,64.0
2023-08-15 17:47:03.281483,342.0
2023-08-15 17:47:03.289172,549.0
2023-08-15 17:47:03.296862,328.0
2023-08-15 17:47:03.304551,-242.0
2023-08-15 17:47:03.312241,-578.0
2023-08-15 17:47:03.319931,-402.0
2023-08-15 17:47:03.327620,-123.0
2023-08-15 17:47:03.335310,-76.0
2023-08-15 17:47:03.342999,-97.0
2023-08-15 17:47:03.350689,-69.0
2023-08-15 17:47:03.358379,-59.0
2023-08-15 17:47:03.366068,-73.0
2023-08-15 17:47:03.373758,-66.0
2023-08-15 17:47:03.381448,-52.0
2023-08-15 17:47:03.389137,-42.0
2023-08-15 17:47:03.396827,-33.0
2023-08-15 17:47:03.404516,-21.0
2023-08-15 17:47:03.412206,-7.0
2023-08-15 17:47:03.419896,7.0
2023-08-15 17:47:03.427585,21.0
2023-08-15 17:47:03.435275,38.0
2023-08-15 17:47:03.442964,54.0
2023-08-15 17:47:03.450654,76.0
2023-08-15 17:47:03.458344,95.0
2023-08-15 17:47:03.466033,119.0
2023-08-15 17:47:03.473723,140.0
2023-08-15 17:47:03.481413,152.0
2023-08-15 17:47:03.489102,159.0
2023-08-15 17:47:03.496792,161.0
2023-08-15 17:47:03.504481,161.0
2023-08-15 17:47:03.512171,149.0
2023-08-15 17:47:03.519861,121.0
2023-08-15 17:47:03.527550,78.0
2023-08-15 17:47:03.535240,23.0
2023-08-15 17:47:03.542929,-28.0
2023-08-15 17:47:03.550619,-66.0
2023-08-15 17:47:03.558309,-99.0
2023-08-15 17:47:03.565998,-126.0
2023-08-15 17:47:03.573688,-138.0
2023-08-15 17:47:03.581378,-142.0
2023-08-15 17:47:03.589067,-140.0
2023-08-15 17:47:03.596757,-140.0
2023-08-15 17:47:03.604446,-140.0
2023-08-15 17:47:03.612136,-145.0
2023-08-15 17:47:03.619826,-154.0
2023-08-15 17:47:03.627515,-154.0
2023-08-15 17:47:03.635205,-145.0
2023-08-15 17:47:03.642894,-140.0
2023-08-15 17:47:03.650584,-138.0
2023-08-15 17:47:03.658274,-133.0
2023-08-15 17:47:03.665963,-128.0
2023-08-15 17:47:03.673653,-121.0
2023-08-15 17:47:03.681343,-116.0
2023-08-15 17:47:03.689032,-111.0
2023-08-15 17:47:03.696722,-109.0
2023-08-15 17:47:03.704411,-107.0
2023-08-15 17:47:03.712101,-107.0
2023-08-15 17:47:03.719791,-104.0
2023-08-15 17:47:03.727480,-104.0
2023-08-15 17:47:03.735170,-107.0
2023-08-15 17:47:03.742859,-109.0
2023-08-15 17:47:03.750549,-111.0
2023-08-15 17:47:03.758239,-111.0
2023-08-15 17:47:03.765928,-109.0
2023-08-15 17:47:03.773618,-109.0
2023-08-15 17:47:03.781308,-107.0
2023-08-15 17:47:03.788997,-99.0
2023-08-15 17:47:03.796687,-99.0
2023-08-15 17:47:03.804376,-102.0
2023-08-15 17:47:03.812066,-97.0
2023-08-15 17:47:03.819756,-88.0
2023-08-15 17:47:03.827445,-83.0
2023-08-15 17:47:03.835135,-76.0
2023-08-15 17:47:03.842824,-61.0
2023-08-15 17:47:03.850514,-49.0
2023-08-15 17:47:03.858204,-52.0
2023-08-15 17:47:03.865893,-71.0
2023-08-15 17:47:03.873583,-99.0
2023-08-15 17:47:03.881273,-111.0
2023-08-15 17:47:03.888962,-102.0
2023-08-15 17:47:03.896652,-95.0
2023-08-15 17:47:03.904341,-95.0
2023-08-15 17:47:03.912031,-76.0
2023-08-15 17:47:03.919721,19.0
2023-08-15 17:47:03.927410,261.0
2023-08-15 17:47:03.935100,535.0
2023-08-15 17:47:03.942789,476.0
2023-08-15 17:47:03.950479,-33.0
2023-08-15 17:47:03.958169,-511.0
2023-08-15 17:47:03.965858,-483.0
2023-08-15 17:47:03.973548,-188.0
2023-08-15 17:47:03.981238,-80.0
2023-08-15 17:47:03.988927,-107.0
2023-08-15 17:47:03.996617,-76.0
2023-08-15 17:47:04.004306,-54.0
2023-08-15 17:47:04.011996,-71.0
2023-08-15 17:47:04.019686,-61.0
2023-08-15 17:47:04.027375,-40.0
2023-08-15 17:47:04.035065,-35.0
2023-08-15 17:47:04.042754,-23.0
2023-08-15 17:47:04.050444,-7.0
2023-08-15 17:47:04.058134,2.0
2023-08-15 17:47:04.065823,11.0
2023-08-15 17:47:04.073513,28.0
2023-08-15 17:47:04.081203,42.0
2023-08-15 17:47:04.088892,59.0
2023-08-15 17:47:04.096582,83.0
2023-08-15 17:47:04.104271,104.0
2023-08-15 17:47:04.111961,119.0
2023-08-15 17:47:04.119651,135.0
2023-08-15 17:47:04.127340,154.0
2023-08-15 17:47:04.135030,171.0
2023-08-15 17:47:04.142719,176.0
2023-08-15 17:47:04.150409,176.0
2023-08-15 17:47:04.158099,164.0
2023-08-15 17:47:04.165788,138.0
2023-08-15 17:47:04.173478,102.0
2023-08-15 17:47:04.181168,49.0
2023-08-15 17:47:04.188857,-2.0
2023-08-15 17:47:04.196547,-49.0
2023-08-15 17:47:04.204236,-97.0
2023-08-15 17:47:04.211926,-133.0
2023-08-15 17:47:04.219616,-142.0
2023-08-15 17:47:04.227305,-152.0
2023-08-15 17:47:04.234995,-164.0
2023-08-15 17:47:04.242684,-166.0
2023-08-15 17:47:04.250374,-164.0
2023-08-15 17:47:04.258064,-164.0
2023-08-15 17:47:04.265753,-161.0
2023-08-15 17:47:04.273443,-159.0
2023-08-15 17:47:04.281133,-152.0
2023-08-15 17:47:04.288822,-149.0
2023-08-15 17:47:04.296512,-147.0
2023-08-15 17:47:04.304201,-142.0
2023-08-15 17:47:04.311891,-133.0
2023-08-15 17:47:04.319581,-126.0
2023-08-15 17:47:04.327270,-123.0
2023-08-15 17:47:04.334960,-121.0
2023-08-15 17:47:04.342649,-119.0
2023-08-15 17:47:04.350339,-114.0
2023-08-15 17:47:04.358029,-111.0
2023-08-15 17:47:04.365718,-109.0
2023-08-15 17:47:04.373408,-111.0
2023-08-15 17:47:04.381098,-119.0
2023-08-15 17:47:04.388787,-121.0
2023-08-15 17:47:04.396477,-119.0
2023-08-15 17:47:04.404166,-116.0
2023-08-15 17:47:04.411856,-116.0
2023-08-15 17:47:04.419546,-116.0
2023-08-15 17:47:04.427235,-116.0
2023-08-15 17:47:04.434925,-116.0
2023-08-15 17:47:04.442614,-114.0
2023-08-15 17:47:04.450304,-114.0
2023-08-15 17:47:04.457994,-111.0
2023-08-15 17:47:04.465683,-104.0
2023-08-15 17:47:04.473373,-97.0
2023-08-15 17:47:04.481063,-97.0
2023-08-15 17:47:04.488752,-83.0
2023-08-15 17:47:04.496442,-61.0
2023-08-15 17:47:04.504131,-59.0
2023-08-15 17:47:04.511821,-73.0
2023-08-15 17:47:04.519511,-95.0
2023-08-15 17:47:04.527200,-114.0
2023-08-15 17:47:04.534890,-109.0
2023-08-15 17:47:04.542579,-97.0
2023-08-15 17:47:04.550269,-97.0
2023-08-15 17:47:04.557959,-92.0
2023-08-15 17:47:04.565648,-40.0
2023-08-15 17:47:04.573338,133.0
2023-08-15 17:47:04.581028,428.0
2023-08-15 17:47:04.588717,571.0
2023-08-15 17:47:04.596407,240.0
2023-08-15 17:47:04.604096,-349.0
2023-08-15 17:47:04.611786,-585.0
2023-08-15 17:47:04.619476,-330.0
2023-08-15 17:47:04.627165,-95.0
2023-08-15 17:47:04.634855,-90.0
2023-08-15 17:47:04.642544,-90.0
2023-08-15 17:47:04.650234,-59.0
2023-08-15 17:47:04.657924,-61.0
2023-08-15 17:47:04.665613,-64.0
2023-08-15 17:47:04.673303,-45.0
2023-08-15 17:47:04.680993,-33.0
2023-08-15 17:47:04.688682,-26.0
2023-08-15 17:47:04.696372,-14.0
2023-08-15 17:47:04.704061,-2.0
2023-08-15 17:47:04.711751,9.0
2023-08-15 17:47:04.719441,19.0
2023-08-15 17:47:04.727130,33.0
2023-08-15 17:47:04.734820,49.0
2023-08-15 17:47:04.742509,61.0
2023-08-15 17:47:04.750199,76.0
2023-08-15 17:47:04.757889,99.0
2023-08-15 17:47:04.765578,123.0
2023-08-15 17:47:04.773268,140.0
2023-08-15 17:47:04.780958,159.0
2023-08-15 17:47:04.788647,169.0
2023-08-15 17:47:04.796337,169.0
2023-08-15 17:47:04.804026,161.0
2023-08-15 17:47:04.811716,142.0
2023-08-15 17:47:04.819406,109.0
2023-08-15 17:47:04.827095,66.0
2023-08-15 17:47:04.834785,11.0
2023-08-15 17:47:04.842474,-38.0
2023-08-15 17:47:04.850164,-80.0
2023-08-15 17:47:04.857854,-116.0
2023-08-15 17:47:04.865543,-135.0
2023-08-15 17:47:04.873233,-147.0
2023-08-15 17:47:04.880923,-159.0
2023-08-15 17:47:04.888612,-166.0
2023-08-15 17:47:04.896302,-164.0
2023-08-15 17:47:04.903991,-164.0
2023-08-15 17:47:04.911681,-164.0
2023-08-15 17:47:04.919371,-161.0
2023-08-15 17:47:04.927060,-157.0
2023-08-15 17:47:04.934750,-149.0
2023-08-15 17:47:04.942439,-145.0
2023-08-15 17:47:04.950129,-138.0
2023-08-15 17:47:04.957819,-133.0
2023-08-15 17:47:04.965508,-128.0
2023-08-15 17:47:04.973198,-126.0
2023-08-15 17:47:04.980888,-121.0
2023-08-15 17:47:04.988577,-116.0
2023-08-15 17:47:04.996267,-111.0
2023-08-15 17:47:05.003956,-109.0
2023-08-15 17:47:05.011646,-107.0
2023-08-15 17:47:05.019336,-107.0
2023-08-15 17:47:05.027025,-104.0
2023-08-15 17:47:05.034715,-104.0
2023-08-15 17:47:05.042404,-107.0
2023-08-15 17:47:05.050094,-107.0
2023-08-15 17:47:05.057784,-107.0
2023-08-15 17:47:05.065473,-109.0
2023-08-15 17:47:05.073163,-104.0
2023-08-15 17:47:05.080853,-102.0
2023-08-15 17:47:05.088542,-102.0
2023-08-15 17:47:05.096232,-104.0
2023-08-15 17:47:05.103921,-102.0
2023-08-15 17:47:05.111611,-99.0
2023-08-15 17:47:05.119301,-97.0
2023-08-15 17:47:05.126990,-92.0
2023-08-15 17:47:05.134680,-90.0
2023-08-15 17:47:05.142369,-88.0
2023-08-15 17:47:05.150059,-88.0
2023-08-15 17:47:05.157749,-85.0
2023-08-15 17:47:05.165438,-76.0
2023-08-15 17:47:05.173128,-64.0
2023-08-15 17:47:05.180818,-52.0
2023-08-15 17:47:05.188507,-47.0
2023-08-15 17:47:05.196197,-42.0
2023-08-15 17:47:05.203886,-35.0
2023-08-15 17:47:05.211576,-45.0
2023-08-15 17:47:05.219266,-69.0
2023-08-15 17:47:05.226955,-88.0
2023-08-15 17:47:05.234645,-92.0
2023-08-15 17:47:05.242334,-90.0
2023-08-15 17:47:05.250024,-90.0
2023-08-15 17:47:05.257714,-88.0
2023-08-15 17:47:05.265403,-69.0
2023-08-15 17:47:05.273093,33.0
2023-08-15 17:47:05.280783,295.0
2023-08-15 17:47:05.288472,540.0
2023-08-15 17:47:05.296162,407.0
2023-08-15 17:47:05.303851,-133.0
2023-08-15 17:47:05.311541,-566.0
2023-08-15 17:47:05.319231,-464.0
2023-08-15 17:47:05.326920,-128.0
2023-08-15 17:47:05.334610,-47.0
2023-08-15 17:47:05.342299,-107.0
2023-08-15 17:47:05.349989,-78.0
2023-08-15 17:47:05.357679,-52.0
2023-08-15 17:47:05.365368,-71.0
2023-08-15 17:47:05.373058,-61.0
2023-08-15 17:47:05.380748,-42.0
2023-08-15 17:47:05.388437,-42.0
2023-08-15 17:47:05.396127,-42.0
2023-08-15 17:47:05.403816,-28.0
2023-08-15 17:47:05.411506,-16.0
2023-08-15 17:47:05.419196,-9.0
2023-08-15 17:47:05.426885,9.0
2023-08-15 17:47:05.434575,30.0
2023-08-15 17:47:05.442264,47.0
2023-08-15 17:47:05.449954,66.0
2023-08-15 17:47:05.457644,85.0
2023-08-15 17:47:05.465333,104.0
2023-08-15 17:47:05.473023,128.0
2023-08-15 17:47:05.480712,147.0
2023-08-15 17:47:05.488402,159.0
2023-08-15 17:47:05.496092,161.0
2023-08-15 17:47:05.503781,159.0
2023-08-15 17:47:05.511471,147.0
2023-08-15 17:47:05.519161,128.0
2023-08-15 17:47:05.526850,90.0
2023-08-15 17:47:05.534540,40.0
2023-08-15 17:47:05.542229,-16.0
2023-08-15 17:47:05.549919,-66.0
2023-08-15 17:47:05.557609,-109.0
2023-08-15 17:47:05.565298,-135.0
2023-08-15 17:47:05.572988,-149.0
2023-08-15 17:47:05.580677,-161.0
2023-08-15 17:47:05.588367,-166.0
2023-08-15 17:47:05.596057,-169.0
2023-08-15 17:47:05.603746,-169.0
2023-08-15 17:47:05.611436,-164.0
2023-08-15 17:47:05.619126,-157.0
2023-08-15 17:47:05.626815,-152.0
2023-08-15 17:47:05.634505,-149.0
2023-08-15 17:47:05.642194,-145.0
2023-08-15 17:47:05.649884,-140.0
2023-08-15 17:47:05.657574,-133.0
2023-08-15 17:47:05.665263,-126.0
2023-08-15 17:47:05.672953,-121.0
2023-08-15 17:47:05.680642,-119.0
2023-08-15 17:47:05.688332,-116.0
2023-08-15 17:47:05.696022,-109.0
2023-08-15 17:47:05.703711,-109.0
2023-08-15 17:47:05.711401,-109.0
2023-08-15 17:47:05.719091,-107.0
2023-08-15 17:47:05.726780,-104.0
2023-08-15 17:47:05.734470,-107.0
2023-08-15 17:47:05.742159,-107.0
2023-08-15 17:47:05.749849,-102.0
2023-08-15 17:47:05.757539,-102.0
2023-08-15 17:47:05.765228,-102.0
2023-08-15 17:47:05.772918,-102.0
2023-08-15 17:47:05.780607,-104.0
2023-08-15 17:47:05.788297,-104.0
2023-08-15 17:47:05.795987,-99.0
2023-08-15 17:47:05.803676,-99.0
2023-08-15 17:47:05.811366,-99.0
2023-08-15 17:47:05.819056,-97.0
2023-08-15 17:47:05.826745,-97.0
2023-08-15 17:47:05.834435,-95.0
2023-08-15 17:47:05.842124,-92.0
2023-08-15 17:47:05.849814,-90.0
2023-08-15 17:47:05.857504,-88.0
2023-08-15 17:47:05.865193,-92.0
2023-08-15 17:47:05.872883,-99.0
2023-08-15 17:47:05.880572,-99.0
2023-08-15 17:47:05.888262,-95.0
2023-08-15 17:47:05.895952,-95.0
2023-08-15 17:47:05.903641,-88.0
2023-08-15 17:47:05.911331,-76.0
2023-08-15 17:47:05.919021,-69.0
2023-08-15 17:47:05.926710,-61.0
2023-08-15 17:47:05.934400,-52.0
2023-08-15 17:47:05.942089,-57.0
2023-08-15 17:47:05.949779,-78.0
2023-08-15 17:47:05.957469,-102.0
2023-08-15 17:47:05.965158,-114.0
2023-08-15 17:47:05.972848,-107.0
2023-08-15 17:47:05.980537,-104.0
2023-08-15 17:47:05.988227,-104.0
2023-08-15 17:47:05.995917,-90.0
2023-08-15 17:47:06.003606,-7.0
2023-08-15 17:47:06.011296,226.0
2023-08-15 17:47:06.018986,502.0
2023-08-15 17:47:06.026675,452.0
2023-08-15 17:47:06.034365,-35.0
2023-08-15 17:47:06.042054,-523.0
2023-08-15 17:47:06.049744,-518.0
2023-08-15 17:47:06.057434,-185.0
2023-08-15 17:47:06.065123,-47.0
2023-08-15 17:47:06.072813,-109.0
2023-08-15 17:47:06.080502,-97.0
2023-08-15 17:47:06.088192,-59.0
2023-08-15 17:47:06.095882,-73.0
2023-08-15 17:47:06.103571,-78.0
2023-08-15 17:47:06.111261,-61.0
2023-08-15 17:47:06.118951,-54.0
2023-08-15 17:47:06.126640,-49.0
2023-08-15 17:47:06.134330,-38.0
2023-08-15 17:47:06.142019,-28.0
2023-08-15 17:47:06.149709,-19.0
2023-08-15 17:47:06.157399,-2.0
2023-08-15 17:47:06.165088,16.0
2023-08-15 17:47:06.172778,35.0
2023-08-15 17:47:06.180467,52.0
2023-08-15 17:47:06.188157,69.0
2023-08-15 17:47:06.195847,88.0
2023-08-15 17:47:06.203536,109.0
2023-08-15 17:47:06.211226,126.0
2023-08-15 17:47:06.218916,142.0
2023-08-15 17:47:06.226605,149.0
2023-08-15 17:47:06.234295,149.0
2023-08-15 17:47:06.241984,142.0
2023-08-15 17:47:06.249674,130.0
2023-08-15 17:47:06.257364,102.0
2023-08-15 17:47:06.265053,54.0
2023-08-15 17:47:06.272743,2.0
2023-08-15 17:47:06.280432,-47.0
2023-08-15 17:47:06.288122,-90.0
2023-08-15 17:47:06.295812,-123.0
2023-08-15 17:47:06.303501,-140.0
2023-08-15 17:47:06.311191,-149.0
2023-08-15 17:47:06.318881,-157.0
2023-08-15 17:47:06.326570,-159.0
2023-08-15 17:47:06.334260,-159.0
2023-08-15 17:47:06.341949,-154.0
2023-08-15 17:47:06.349639,-147.0
2023-08-15 17:47:06.357329,-140.0
2023-08-15 17:47:06.365018,-140.0
2023-08-15 17:47:06.372708,-135.0
2023-08-15 17:47:06.380397,-126.0
2023-08-15 17:47:06.388087,-121.0
2023-08-15 17:47:06.395777,-121.0
2023-08-15 17:47:06.403466,-128.0
2023-08-15 17:47:06.411156,-133.0
2023-08-15 17:47:06.418846,-128.0
2023-08-15 17:47:06.426535,-121.0
2023-08-15 17:47:06.434225,-116.0
2023-08-15 17:47:06.441914,-114.0
2023-08-15 17:47:06.449604,-119.0
2023-08-15 17:47:06.457294,-119.0
2023-08-15 17:47:06.464983,-114.0
2023-08-15 17:47:06.472673,-114.0
2023-08-15 17:47:06.480362,-114.0
2023-08-15 17:47:06.488052,-114.0
2023-08-15 17:47:06.495742,-111.0
2023-08-15 17:47:06.503431,-109.0
2023-08-15 17:47:06.511121,-109.0
2023-08-15 17:47:06.518811,-111.0
2023-08-15 17:47:06.526500,-107.0
2023-08-15 17:47:06.534190,-104.0
2023-08-15 17:47:06.541879,-104.0
2023-08-15 17:47:06.549569,-102.0
2023-08-15 17:47:06.557259,-102.0
2023-08-15 17:47:06.564948,-99.0
2023-08-15 17:47:06.572638,-95.0
2023-08-15 17:47:06.580327,-90.0
2023-08-15 17:47:06.588017,-92.0
2023-08-15 17:47:06.595707,-90.0
2023-08-15 17:47:06.603396,-88.0
2023-08-15 17:47:06.611086,-88.0
2023-08-15 17:47:06.618776,-85.0
2023-08-15 17:47:06.626465,-85.0
2023-08-15 17:47:06.634155,-85.0
2023-08-15 17:47:06.641844,-80.0
2023-08-15 17:47:06.649534,-71.0
2023-08-15 17:47:06.657224,-61.0
2023-08-15 17:47:06.664913,-54.0
2023-08-15 17:47:06.672603,-49.0
2023-08-15 17:47:06.680292,-45.0
2023-08-15 17:47:06.687982,-42.0
2023-08-15 17:47:06.695672,-59.0
2023-08-15 17:47:06.703361,-88.0
2023-08-15 17:47:06.711051,-102.0
2023-08-15 17:47:06.718741,-99.0
2023-08-15 17:47:06.726430,-99.0
2023-08-15 17:47:06.734120,-97.0
2023-08-15 17:47:06.741809,-76.0
2023-08-15 17:47:06.749499,11.0
2023-08-15 17:47:06.757189,233.0
2023-08-15 17:47:06.764878,497.0
2023-08-15 17:47:06.772568,464.0
2023-08-15 17:47:06.780257,-7.0
2023-08-15 17:47:06.787947,-495.0
2023-08-15 17:47:06.795637,-514.0
2023-08-15 17:47:06.803326,-216.0
2023-08-15 17:47:06.811016,-80.0
2023-08-15 17:47:06.818706,-111.0
2023-08-15 17:47:06.826395,-97.0
2023-08-15 17:47:06.834085,-73.0
2023-08-15 17:47:06.841774,-80.0
2023-08-15 17:47:06.849464,-73.0
2023-08-15 17:47:06.857154,-54.0
2023-08-15 17:47:06.864843,-49.0
2023-08-15 17:47:06.872533,-42.0
2023-08-15 17:47:06.880222,-26.0
2023-08-15 17:47:06.887912,-16.0
2023-08-15 17:47:06.895602,-9.0
2023-08-15 17:47:06.903291,0.0
2023-08-15 17:47:06.910981,14.0
2023-08-15 17:47:06.918671,30.0
2023-08-15 17:47:06.926360,52.0
2023-08-15 17:47:06.934050,76.0
2023-08-15 17:47:06.941739,88.0
2023-08-15 17:47:06.949429,102.0
2023-08-15 17:47:06.957119,126.0
2023-08-15 17:47:06.964808,142.0
2023-08-15 17:47:06.972498,147.0
2023-08-15 17:47:06.980187,147.0
2023-08-15 17:47:06.987877,145.0
2023-08-15 17:47:06.995567,123.0
2023-08-15 17:47:07.003256,92.0
2023-08-15 17:47:07.010946,49.0
2023-08-15 17:47:07.018636,-2.0
2023-08-15 17:47:07.026325,-49.0
2023-08-15 17:47:07.034015,-92.0
2023-08-15 17:47:07.041704,-123.0
2023-08-15 17:47:07.049394,-147.0
2023-08-15 17:47:07.057084,-157.0
2023-08-15 17:47:07.064773,-164.0
2023-08-15 17:47:07.072463,-166.0
2023-08-15 17:47:07.080152,-164.0
2023-08-15 17:47:07.087842,-157.0
2023-08-15 17:47:07.095532,-152.0
2023-08-15 17:47:07.103221,-149.0
2023-08-15 17:47:07.110911,-145.0
2023-08-15 17:47:07.118601,-138.0
2023-08-15 17:47:07.126290,-130.0
2023-08-15 17:47:07.133980,-121.0
2023-08-15 17:47:07.141669,-116.0
2023-08-15 17:47:07.149359,-116.0
2023-08-15 17:47:07.157049,-111.0
2023-08-15 17:47:07.164738,-102.0
2023-08-15 17:47:07.172428,-99.0
2023-08-15 17:47:07.180117,-102.0
2023-08-15 17:47:07.187807,-102.0
2023-08-15 17:47:07.195497,-97.0
2023-08-15 17:47:07.203186,-97.0
2023-08-15 17:47:07.210876,-97.0
2023-08-15 17:47:07.218566,-97.0
2023-08-15 17:47:07.226255,-95.0
2023-08-15 17:47:07.233945,-95.0
2023-08-15 17:47:07.241634,-92.0
2023-08-15 17:47:07.249324,-95.0
2023-08-15 17:47:07.257014,-97.0
2023-08-15 17:47:07.264703,-95.0
2023-08-15 17:47:07.272393,-92.0
2023-08-15 17:47:07.280082,-90.0
2023-08-15 17:47:07.287772,-92.0
2023-08-15 17:47:07.295462,-92.0
2023-08-15 17:47:07.303151,-95.0
2023-08-15 17:47:07.310841,-95.0
2023-08-15 17:47:07.318531,-90.0
2023-08-15 17:47:07.326220,-88.0
2023-08-15 17:47:07.333910,-85.0
2023-08-15 17:47:07.341599,-85.0
2023-08-15 17:47:07.349289,-88.0
2023-08-15 17:47:07.356979,-85.0
2023-08-15 17:47:07.364668,-78.0
2023-08-15 17:47:07.372358,-66.0
2023-08-15 17:47:07.380047,-59.0
2023-08-15 17:47:07.387737,-52.0
2023-08-15 17:47:07.395427,-47.0
2023-08-15 17:47:07.403116,-52.0
2023-08-15 17:47:07.410806,-73.0
2023-08-15 17:47:07.418496,-102.0
2023-08-15 17:47:07.426185,-116.0
2023-08-15 17:47:07.433875,-114.0
2023-08-15 17:47:07.441564,-114.0
2023-08-15 17:47:07.449254,-116.0
2023-08-15 17:47:07.456944,-102.0
2023-08-15 17:47:07.464633,-19.0
2023-08-15 17:47:07.472323,199.0
2023-08-15 17:47:07.480012,483.0
2023-08-15 17:47:07.487702,487.0
2023-08-15 17:47:07.495392,23.0
2023-08-15 17:47:07.503081,-502.0
2023-08-15 17:47:07.510771,-559.0
2023-08-15 17:47:07.518461,-259.0
2023-08-15 17:47:07.526150,-99.0
2023-08-15 17:47:07.533840,-123.0
2023-08-15 17:47:07.541529,-109.0
2023-08-15 17:47:07.549219,-78.0
2023-08-15 17:47:07.556909,-85.0
2023-08-15 17:47:07.564598,-78.0
2023-08-15 17:47:07.572288,-59.0
2023-08-15 17:47:07.579977,-57.0
2023-08-15 17:47:07.587667,-49.0
2023-08-15 17:47:07.595357,-30.0
2023-08-15 17:47:07.603046,-19.0
2023-08-15 17:47:07.610736,-7.0
2023-08-15 17:47:07.618426,7.0
2023-08-15 17:47:07.626115,21.0
2023-08-15 17:47:07.633805,38.0
2023-08-15 17:47:07.641494,61.0
2023-08-15 17:47:07.649184,80.0
2023-08-15 17:47:07.656874,102.0
2023-08-15 17:47:07.664563,123.0
2023-08-15 17:47:07.672253,138.0
2023-08-15 17:47:07.679942,152.0
2023-08-15 17:47:07.687632,161.0
2023-08-15 17:47:07.695322,166.0
2023-08-15 17:47:07.703011,159.0
2023-08-15 17:47:07.710701,140.0
2023-08-15 17:47:07.718391,107.0
2023-08-15 17:47:07.726080,66.0
2023-08-15 17:47:07.733770,14.0
2023-08-15 17:47:07.741459,-38.0
2023-08-15 17:47:07.749149,-80.0
2023-08-15 17:47:07.756839,-116.0
2023-08-15 17:47:07.764528,-140.0
2023-08-15 17:47:07.772218,-149.0
2023-08-15 17:47:07.779907,-157.0
2023-08-15 17:47:07.787597,-161.0
2023-08-15 17:47:07.795287,-159.0
2023-08-15 17:47:07.802976,-159.0
2023-08-15 17:47:07.810666,-157.0
2023-08-15 17:47:07.818356,-152.0
2023-08-15 17:47:07.826045,-145.0
2023-08-15 17:47:07.833735,-142.0
2023-08-15 17:47:07.841424,-138.0
2023-08-15 17:47:07.849114,-135.0
2023-08-15 17:47:07.856804,-130.0
2023-08-15 17:47:07.864493,-121.0
2023-08-15 17:47:07.872183,-114.0
2023-08-15 17:47:07.879872,-114.0
2023-08-15 17:47:07.887562,-111.0
2023-08-15 17:47:07.895252,-111.0
2023-08-15 17:47:07.902941,-111.0
2023-08-15 17:47:07.910631,-109.0
2023-08-15 17:47:07.918321,-114.0
2023-08-15 17:47:07.926010,-121.0
2023-08-15 17:47:07.933700,-121.0
2023-08-15 17:47:07.941389,-121.0
2023-08-15 17:47:07.949079,-126.0
2023-08-15 17:47:07.956769,-126.0
2023-08-15 17:47:07.964458,-123.0
2023-08-15 17:47:07.972148,-123.0
2023-08-15 17:47:07.979837,-123.0
2023-08-15 17:47:07.987527,-126.0
2023-08-15 17:47:07.995217,-126.0
2023-08-15 17:47:08.002906,-119.0
2023-08-15 17:47:08.010596,-111.0
2023-08-15 17:47:08.018286,-116.0
2023-08-15 17:47:08.025975,-114.0
2023-08-15 17:47:08.033665,-109.0
2023-08-15 17:47:08.041354,-109.0
2023-08-15 17:47:08.049044,-111.0
2023-08-15 17:47:08.056734,-111.0
2023-08-15 17:47:08.064423,-107.0
2023-08-15 17:47:08.072113,-99.0
2023-08-15 17:47:08.079802,-90.0
2023-08-15 17:47:08.087492,-80.0
2023-08-15 17:47:08.095182,-71.0
2023-08-15 17:47:08.102871,-66.0
2023-08-15 17:47:08.110561,-66.0
2023-08-15 17:47:08.118251,-85.0
2023-08-15 17:47:08.125940,-119.0
2023-08-15 17:47:08.133630,-135.0
2023-08-15 17:47:08.141319,-126.0
2023-08-15 17:47:08.149009,-119.0
2023-08-15 17:47:08.156699,-121.0
2023-08-15 17:47:08.164388,-116.0
2023-08-15 17:47:08.172078,-73.0
2023-08-15 17:47:08.179767,88.0
2023-08-15 17:47:08.187457,380.0
2023-08-15 17:47:08.195147,518.0
2023-08-15 17:47:08.202836,197.0
2023-08-15 17:47:08.210526,-373.0
2023-08-15 17:47:08.218216,-606.0
2023-08-15 17:47:08.225905,-347.0
2023-08-15 17:47:08.233595,-88.0
2023-08-15 17:47:08.241284,-88.0
2023-08-15 17:47:08.248974,-109.0
2023-08-15 17:47:08.256664,-71.0
2023-08-15 17:47:08.264353,-64.0
2023-08-15 17:47:08.272043,-73.0
2023-08-15 17:47:08.279732,-57.0
2023-08-15 17:47:08.287422,-45.0
2023-08-15 17:47:08.295112,-38.0
2023-08-15 17:47:08.302801,-23.0
2023-08-15 17:47:08.310491,-11.0
2023-08-15 17:47:08.318181,0.0
2023-08-15 17:47:08.325870,14.0
2023-08-15 17:47:08.333560,28.0
2023-08-15 17:47:08.341249,45.0
2023-08-15 17:47:08.348939,64.0
2023-08-15 17:47:08.356629,85.0
2023-08-15 17:47:08.364318,104.0
2023-08-15 17:47:08.372008,126.0
2023-08-15 17:47:08.379697,147.0
2023-08-15 17:47:08.387387,164.0
2023-08-15 17:47:08.395077,176.0
2023-08-15 17:47:08.402766,180.0
2023-08-15 17:47:08.410456,176.0
2023-08-15 17:47:08.418146,161.0
2023-08-15 17:47:08.425835,130.0
2023-08-15 17:47:08.433525,88.0
2023-08-15 17:47:08.441214,40.0
2023-08-15 17:47:08.448904,-16.0
2023-08-15 17:47:08.456594,-69.0
2023-08-15 17:47:08.464283,-102.0
2023-08-15 17:47:08.471973,-128.0
2023-08-15 17:47:08.479662,-147.0
2023-08-15 17:47:08.487352,-154.0
2023-08-15 17:47:08.495042,-154.0
2023-08-15 17:47:08.502731,-157.0
2023-08-15 17:47:08.510421,-154.0
2023-08-15 17:47:08.518111,-149.0
2023-08-15 17:47:08.525800,-145.0
2023-08-15 17:47:08.533490,-140.0
2023-08-15 17:47:08.541179,-135.0
2023-08-15 17:47:08.548869,-128.0
2023-08-15 17:47:08.556559,-119.0
2023-08-15 17:47:08.564248,-111.0
2023-08-15 17:47:08.571938,-109.0
2023-08-15 17:47:08.579627,-104.0
2023-08-15 17:47:08.587317,-99.0
2023-08-15 17:47:08.595007,-95.0
2023-08-15 17:47:08.602696,-92.0
2023-08-15 17:47:08.610386,-92.0
2023-08-15 17:47:08.618076,-90.0
2023-08-15 17:47:08.625765,-88.0
2023-08-15 17:47:08.633455,-88.0
2023-08-15 17:47:08.641144,-90.0
2023-08-15 17:47:08.648834,-92.0
2023-08-15 17:47:08.656524,-95.0
2023-08-15 17:47:08.664213,-97.0
2023-08-15 17:47:08.671903,-99.0
2023-08-15 17:47:08.679592,-99.0
2023-08-15 17:47:08.687282,-97.0
2023-08-15 17:47:08.694972,-99.0
2023-08-15 17:47:08.702661,-109.0
2023-08-15 17:47:08.710351,-111.0
2023-08-15 17:47:08.718041,-107.0
2023-08-15 17:47:08.725730,-104.0
2023-08-15 17:47:08.733420,-104.0
2023-08-15 17:47:08.741109,-104.0
2023-08-15 17:47:08.748799,-107.0
2023-08-15 17:47:08.756489,-104.0
2023-08-15 17:47:08.764178,-92.0
2023-08-15 17:47:08.771868,-80.0
2023-08-15 17:47:08.779557,-73.0
2023-08-15 17:47:08.787247,-69.0
2023-08-15 17:47:08.794937,-64.0
2023-08-15 17:47:08.802626,-66.0
2023-08-15 17:47:08.810316,-88.0
2023-08-15 17:47:08.818006,-114.0
2023-08-15 17:47:08.825695,-116.0
2023-08-15 17:47:08.833385,-109.0
2023-08-15 17:47:08.841074,-114.0
2023-08-15 17:47:08.848764,-114.0
2023-08-15 17:47:08.856454,-95.0
2023-08-15 17:47:08.864143,-19.0
2023-08-15 17:47:08.871833,192.0
2023-08-15 17:47:08.879522,468.0
2023-08-15 17:47:08.887212,459.0
2023-08-15 17:47:08.894902,0.0
2023-08-15 17:47:08.902591,-504.0
2023-08-15 17:47:08.910281,-547.0
2023-08-15 17:47:08.917971,-242.0
2023-08-15 17:47:08.925660,-85.0
2023-08-15 17:47:08.933350,-121.0
2023-08-15 17:47:08.941039,-109.0
2023-08-15 17:47:08.948729,-73.0
2023-08-15 17:47:08.956419,-76.0
2023-08-15 17:47:08.964108,-78.0
2023-08-15 17:47:08.971798,-64.0
2023-08-15 17:47:08.979487,-57.0
2023-08-15 17:47:08.987177,-45.0
2023-08-15 17:47:08.994867,-28.0
2023-08-15 17:47:09.002556,-16.0
2023-08-15 17:47:09.010246,-2.0
2023-08-15 17:47:09.017936,9.0
2023-08-15 17:47:09.025625,23.0
2023-08-15 17:47:09.033315,45.0
2023-08-15 17:47:09.041004,64.0
2023-08-15 17:47:09.048694,83.0
2023-08-15 17:47:09.056384,104.0
2023-08-15 17:47:09.064073,126.0
2023-08-15 17:47:09.071763,145.0
2023-08-15 17:47:09.079452,161.0
2023-08-15 17:47:09.087142,173.0
2023-08-15 17:47:09.094832,176.0
2023-08-15 17:47:09.102521,169.0
2023-08-15 17:47:09.110211,152.0
2023-08-15 17:47:09.117901,119.0
2023-08-15 17:47:09.125590,80.0
2023-08-15 17:47:09.133280,33.0
2023-08-15 17:47:09.140969,-23.0
2023-08-15 17:47:09.148659,-69.0
2023-08-15 17:47:09.156349,-102.0
2023-08-15 17:47:09.164038,-126.0
2023-08-15 17:47:09.171728,-138.0
2023-08-15 17:47:09.179417,-142.0
2023-08-15 17:47:09.187107,-147.0
2023-08-15 17:47:09.194797,-159.0
2023-08-15 17:47:09.202486,-161.0
2023-08-15 17:47:09.210176,-152.0
2023-08-15 17:47:09.217866,-145.0
2023-08-15 17:47:09.225555,-142.0
2023-08-15 17:47:09.233245,-138.0
2023-08-15 17:47:09.240934,-128.0
2023-08-15 17:47:09.248624,-119.0
2023-08-15 17:47:09.256314,-116.0
2023-08-15 17:47:09.264003,-114.0
2023-08-15 17:47:09.271693,-111.0
2023-08-15 17:47:09.279382,-109.0
2023-08-15 17:47:09.287072,-104.0
2023-08-15 17:47:09.294762,-99.0
2023-08-15 17:47:09.302451,-99.0
2023-08-15 17:47:09.310141,-99.0
2023-08-15 17:47:09.317831,-97.0
2023-08-15 17:47:09.325520,-95.0
2023-08-15 17:47:09.333210,-95.0
2023-08-15 17:47:09.340899,-95.0
2023-08-15 17:47:09.348589,-92.0
2023-08-15 17:47:09.356279,-97.0
2023-08-15 17:47:09.363968,-102.0
2023-08-15 17:47:09.371658,-107.0
2023-08-15 17:47:09.379347,-102.0
2023-08-15 17:47:09.387037,-97.0
2023-08-15 17:47:09.394727,-97.0
2023-08-15 17:47:09.402416,-102.0
2023-08-15 17:47:09.410106,-102.0
2023-08-15 17:47:09.417796,-104.0
2023-08-15 17:47:09.425485,-104.0
2023-08-15 17:47:09.433175,-95.0
2023-08-15 17:47:09.440864,-85.0
2023-08-15 17:47:09.448554,-71.0
2023-08-15 17:47:09.456244,-66.0
2023-08-15 17:47:09.463933,-73.0
2023-08-15 17:47:09.471623,-95.0
2023-08-15 17:47:09.479312,-121.0
2023-08-15 17:47:09.487002,-130.0
2023-08-15 17:47:09.494692,-116.0
2023-08-15 17:47:09.502381,-109.0
2023-08-15 17:47:09.510071,-116.0
2023-08-15 17:47:09.517761,-88.0
2023-08-15 17:47:09.525450,47.0
2023-08-15 17:47:09.533140,318.0
2023-08-15 17:47:09.540829,545.0
2023-08-15 17:47:09.548519,373.0
2023-08-15 17:47:09.556209,-188.0
2023-08-15 17:47:09.563898,-587.0
2023-08-15 17:47:09.571588,-468.0
2023-08-15 17:47:09.579277,-192.0
2023-08-15 17:47:09.586967,-121.0
2023-08-15 17:47:09.594657,-128.0
2023-08-15 17:47:09.602346,-97.0
2023-08-15 17:47:09.610036,-90.0
2023-08-15 17:47:09.617726,-92.0
2023-08-15 17:47:09.625415,-80.0
2023-08-15 17:47:09.633105,-69.0
2023-08-15 17:47:09.640794,-61.0
2023-08-15 17:47:09.648484,-54.0
2023-08-15 17:47:09.656174,-40.0
2023-08-15 17:47:09.663863,-23.0
2023-08-15 17:47:09.671553,-11.0
2023-08-15 17:47:09.679242,-2.0
2023-08-15 17:47:09.686932,16.0
2023-08-15 17:47:09.694622,35.0
2023-08-15 17:47:09.702311,54.0
2023-08-15 17:47:09.710001,71.0
2023-08-15 17:47:09.717691,92.0
2023-08-15 17:47:09.725380,116.0
2023-08-15 17:47:09.733070,130.0
2023-08-15 17:47:09.740759,140.0
2023-08-15 17:47:09.748449,149.0
2023-08-15 17:47:09.756139,152.0
2023-08-15 17:47:09.763828,140.0
2023-08-15 17:47:09.771518,119.0
2023-08-15 17:47:09.779207,78.0
2023-08-15 17:47:09.786897,21.0
2023-08-15 17:47:09.794587,-30.0
2023-08-15 17:47:09.802276,-73.0
2023-08-15 17:47:09.809966,-114.0
2023-08-15 17:47:09.817656,-145.0
2023-08-15 17:47:09.825345,-164.0
2023-08-15 17:47:09.833035,-173.0
2023-08-15 17:47:09.840724,-180.0
2023-08-15 17:47:09.848414,-183.0
2023-08-15 17:47:09.856104,-176.0
2023-08-15 17:47:09.863793,-169.0
2023-08-15 17:47:09.871483,-166.0
2023-08-15 17:47:09.879172,-161.0
2023-08-15 17:47:09.886862,-157.0
2023-08-15 17:47:09.894552,-154.0
2023-08-15 17:47:09.902241,-152.0
2023-08-15 17:47:09.909931,-145.0
2023-08-15 17:47:09.917621,-138.0
2023-08-15 17:47:09.925310,-138.0
2023-08-15 17:47:09.933000,-138.0
2023-08-15 17:47:09.940689,-133.0
2023-08-15 17:47:09.948379,-128.0
2023-08-15 17:47:09.956069,-126.0
2023-08-15 17:47:09.963758,-126.0
2023-08-15 17:47:09.971448,-126.0
2023-08-15 17:47:09.979137,-123.0
2023-08-15 17:47:09.986827,-121.0
2023-08-15 17:47:09.994517,-121.0
2023-08-15 17:47:10.002206,-123.0
2023-08-15 17:47:10.009896,-121.0
2023-08-15 17:47:10.017586,-121.0
2023-08-15 17:47:10.025275,-119.0
2023-08-15 17:47:10.032965,-116.0
2023-08-15 17:47:10.040654,-111.0
2023-08-15 17:47:10.048344,-114.0
2023-08-15 17:47:10.056034,-111.0
2023-08-15 17:47:10.063723,-104.0
2023-08-15 17:47:10.071413,-99.0
2023-08-15 17:47:10.079102,-97.0
2023-08-15 17:47:10.086792,-83.0
2023-08-15 17:47:10.094482,-66.0
2023-08-15 17:47:10.102171,-64.0
2023-08-15 17:47:10.109861,-71.0
2023-08-15 17:47:10.117551,-92.0
2023-08-15 17:47:10.125240,-116.0
2023-08-15 17:47:10.132930,-119.0
2023-08-15 17:47:10.140619,-109.0
2023-08-15 17:47:10.148309,-111.0
2023-08-15 17:47:10.155999,-102.0
2023-08-15 17:47:10.163688,-47.0
2023-08-15 17:47:10.171378,130.0
2023-08-15 17:47:10.179067,426.0
2023-08-15 17:47:10.186757,549.0
2023-08-15 17:47:10.194447,197.0
2023-08-15 17:47:10.202136,-385.0
2023-08-15 17:47:10.209826,-604.0
2023-08-15 17:47:10.217516,-354.0
2023-08-15 17:47:10.225205,-123.0
2023-08-15 17:47:10.232895,-119.0
2023-08-15 17:47:10.240584,-119.0
2023-08-15 17:47:10.248274,-85.0
2023-08-15 17:47:10.255964,-88.0
2023-08-15 17:47:10.263653,-90.0
2023-08-15 17:47:10.271343,-73.0
2023-08-15 17:47:10.279032,-66.0
2023-08-15 17:47:10.286722,-64.0
2023-08-15 17:47:10.294412,-49.0
2023-08-15 17:47:10.302101,-33.0
2023-08-15 17:47:10.309791,-21.0
2023-08-15 17:47:10.317481,-9.0
2023-08-15 17:47:10.325170,7.0
2023-08-15 17:47:10.332860,23.0
2023-08-15 17:47:10.340549,38.0
2023-08-15 17:47:10.348239,59.0
2023-08-15 17:47:10.355929,83.0
2023-08-15 17:47:10.363618,92.0
2023-08-15 17:47:10.371308,102.0
2023-08-15 17:47:10.378997,126.0
2023-08-15 17:47:10.386687,135.0
2023-08-15 17:47:10.394377,128.0
2023-08-15 17:47:10.402066,123.0
2023-08-15 17:47:10.409756,111.0
2023-08-15 17:47:10.417446,80.0
2023-08-15 17:47:10.425135,35.0
2023-08-15 17:47:10.432825,-19.0
2023-08-15 17:47:10.440514,-69.0
2023-08-15 17:47:10.448204,-107.0
2023-08-15 17:47:10.455894,-142.0
2023-08-15 17:47:10.463583,-169.0
2023-08-15 17:47:10.471273,-173.0
2023-08-15 17:47:10.478962,-180.0
2023-08-15 17:47:10.486652,-183.0
2023-08-15 17:47:10.494342,-178.0
2023-08-15 17:47:10.502031,-171.0
2023-08-15 17:47:10.509721,-166.0
2023-08-15 17:47:10.517411,-161.0
2023-08-15 17:47:10.525100,-157.0
2023-08-15 17:47:10.532790,-142.0
2023-08-15 17:47:10.540479,-130.0
2023-08-15 17:47:10.548169,-130.0
2023-08-15 17:47:10.555859,-126.0
2023-08-15 17:47:10.563548,-114.0
2023-08-15 17:47:10.571238,-104.0
2023-08-15 17:47:10.578927,-107.0
2023-08-15 17:47:10.586617,-102.0
2023-08-15 17:47:10.594307,-88.0
2023-08-15 17:47:10.601996,-83.0
2023-08-15 17:47:10.609686,-90.0
2023-08-15 17:47:10.617376,-83.0
2023-08-15 17:47:10.625065,-73.0
2023-08-15 17:47:10.632755,-83.0
2023-08-15 17:47:10.640444,-88.0
2023-08-15 17:47:10.648134,-78.0
2023-08-15 17:47:10.655824,-80.0
2023-08-15 17:47:10.663513,-90.0
2023-08-15 17:47:10.671203,-85.0
2023-08-15 17:47:10.678892,-73.0
2023-08-15 17:47:10.686582,-64.0
2023-08-15 17:47:10.694272,-66.0
2023-08-15 17:47:10.701961,-71.0
2023-08-15 17:47:10.709651,-61.0
2023-08-15 17:47:10.717341,-52.0
2023-08-15 17:47:10.725030,-47.0
2023-08-15 17:47:10.732720,-26.0
2023-08-15 17:47:10.740409,-11.0
2023-08-15 17:47:10.748099,-19.0
2023-08-15 17:47:10.755789,-33.0
2023-08-15 17:47:10.763478,-49.0
2023-08-15 17:47:10.771168,-66.0
2023-08-15 17:47:10.778857,-66.0
2023-08-15 17:47:10.786547,-59.0
2023-08-15 17:47:10.794237,-54.0
2023-08-15 17:47:10.801926,-45.0
2023-08-15 17:47:10.809616,-4.0
2023-08-15 17:47:10.817306,152.0
2023-08-15 17:47:10.824995,437.0
2023-08-15 17:47:10.832685,571.0
2023-08-15 17:47:10.840374,249.0
2023-08-15 17:47:10.848064,-321.0
2023-08-15 17:47:10.855754,-557.0
2023-08-15 17:47:10.863443,-311.0
2023-08-15 17:47:10.871133,-59.0
2023-08-15 17:47:10.878822,-40.0
2023-08-15 17:47:10.886512,-52.0
2023-08-15 17:47:10.894202,-28.0
2023-08-15 17:47:10.901891,-35.0
2023-08-15 17:47:10.909581,-42.0
2023-08-15 17:47:10.917271,-16.0
2023-08-15 17:47:10.924960,2.0
2023-08-15 17:47:10.932650,4.0
2023-08-15 17:47:10.940339,7.0
2023-08-15 17:47:10.948029,2.0
2023-08-15 17:47:10.955719,9.0
2023-08-15 17:47:10.963408,19.0
2023-08-15 17:47:10.971098,19.0
2023-08-15 17:47:10.978787,33.0
2023-08-15 17:47:10.986477,73.0
2023-08-15 17:47:10.994167,102.0
2023-08-15 17:47:11.001856,123.0
2023-08-15 17:47:11.009546,147.0
2023-08-15 17:47:11.017236,159.0
2023-08-15 17:47:11.024925,173.0
2023-08-15 17:47:11.032615,183.0
2023-08-15 17:47:11.040304,176.0
2023-08-15 17:47:11.047994,180.0
2023-08-15 17:47:11.055684,169.0
2023-08-15 17:47:11.063373,135.0
2023-08-15 17:47:11.071063,97.0
2023-08-15 17:47:11.078752,47.0
2023-08-15 17:47:11.086442,-2.0
2023-08-15 17:47:11.094132,-45.0
2023-08-15 17:47:11.101821,-78.0
2023-08-15 17:47:11.109511,-99.0
2023-08-15 17:47:11.117201,-116.0
2023-08-15 17:47:11.124890,-133.0
2023-08-15 17:47:11.132580,-149.0
2023-08-15 17:47:11.140269,-152.0
2023-08-15 17:47:11.147959,-138.0
2023-08-15 17:47:11.155649,-123.0
2023-08-15 17:47:11.163338,-119.0
2023-08-15 17:47:11.171028,-128.0
2023-08-15 17:47:11.178717,-130.0
2023-08-15 17:47:11.186407,-126.0
2023-08-15 17:47:11.194097,-119.0
2023-08-15 17:47:11.201786,-116.0
2023-08-15 17:47:11.209476,-107.0
2023-08-15 17:47:11.217166,-102.0
2023-08-15 17:47:11.224855,-97.0
2023-08-15 17:47:11.232545,-90.0
2023-08-15 17:47:11.240234,-90.0
2023-08-15 17:47:11.247924,-97.0
2023-08-15 17:47:11.255614,-95.0
2023-08-15 17:47:11.263303,-95.0
2023-08-15 17:47:11.270993,-97.0
2023-08-15 17:47:11.278682,-97.0
2023-08-15 17:47:11.286372,-99.0
2023-08-15 17:47:11.294062,-95.0
2023-08-15 17:47:11.301751,-90.0
2023-08-15 17:47:11.309441,-104.0
2023-08-15 17:47:11.317131,-109.0
2023-08-15 17:47:11.324820,-95.0
2023-08-15 17:47:11.332510,-88.0
2023-08-15 17:47:11.340199,-88.0
2023-08-15 17:47:11.347889,-83.0
2023-08-15 17:47:11.355579,-85.0
2023-08-15 17:47:11.363268,-80.0
2023-08-15 17:47:11.370958,-59.0
2023-08-15 17:47:11.378647,-57.0
2023-08-15 17:47:11.386337,-80.0
2023-08-15 17:47:11.394027,-97.0
2023-08-15 17:47:11.401716,-111.0
2023-08-15 17:47:11.409406,-116.0
2023-08-15 17:47:11.417096,-109.0
2023-08-15 17:47:11.424785,-104.0
2023-08-15 17:47:11.432475,-95.0
2023-08-15 17:47:11.440164,-59.0
2023-08-15 17:47:11.447854,85.0
2023-08-15 17:47:11.455544,376.0
2023-08-15 17:47:11.463233,530.0
2023-08-15 17:47:11.470923,216.0
2023-08-15 17:47:11.478612,-347.0
2023-08-15 17:47:11.486302,-587.0
2023-08-15 17:47:11.493992,-378.0
2023-08-15 17:47:11.501681,-140.0
2023-08-15 17:47:11.509371,-109.0
2023-08-15 17:47:11.517061,-116.0
2023-08-15 17:47:11.524750,-90.0
2023-08-15 17:47:11.532440,-85.0
2023-08-15 17:47:11.540129,-88.0
2023-08-15 17:47:11.547819,-76.0
2023-08-15 17:47:11.555509,-71.0
2023-08-15 17:47:11.563198,-61.0
2023-08-15 17:47:11.570888,-45.0
2023-08-15 17:47:11.578577,-35.0
2023-08-15 17:47:11.586267,-30.0
2023-08-15 17:47:11.593957,-14.0
2023-08-15 17:47:11.601646,2.0
2023-08-15 17:47:11.609336,11.0
2023-08-15 17:47:11.617026,33.0
2023-08-15 17:47:11.624715,52.0
2023-08-15 17:47:11.632405,64.0
2023-08-15 17:47:11.640094,90.0
2023-08-15 17:47:11.647784,116.0
2023-08-15 17:47:11.655474,123.0
2023-08-15 17:47:11.663163,130.0
2023-08-15 17:47:11.670853,140.0
2023-08-15 17:47:11.678542,138.0
2023-08-15 17:47:11.686232,121.0
2023-08-15 17:47:11.693922,95.0
2023-08-15 17:47:11.701611,54.0
2023-08-15 17:47:11.709301,9.0
2023-08-15 17:47:11.716991,-38.0
2023-08-15 17:47:11.724680,-88.0
2023-08-15 17:47:11.732370,-126.0
2023-08-15 17:47:11.740059,-149.0
2023-08-15 17:47:11.747749,-161.0
2023-08-15 17:47:11.755439,-169.0
2023-08-15 17:47:11.763128,-164.0
2023-08-15 17:47:11.770818,-164.0
2023-08-15 17:47:11.778507,-173.0
2023-08-15 17:47:11.786197,-171.0
2023-08-15 17:47:11.793887,-159.0
2023-08-15 17:47:11.801576,-149.0
2023-08-15 17:47:11.809266,-142.0
2023-08-15 17:47:11.816956,-138.0
2023-08-15 17:47:11.824645,-133.0
2023-08-15 17:47:11.832335,-128.0
2023-08-15 17:47:11.840024,-121.0
2023-08-15 17:47:11.847714,-121.0
2023-08-15 17:47:11.855404,-123.0
2023-08-15 17:47:11.863093,-114.0
2023-08-15 17:47:11.870783,-109.0
2023-08-15 17:47:11.878472,-109.0
2023-08-15 17:47:11.886162,-109.0
2023-08-15 17:47:11.893852,-109.0
2023-08-15 17:47:11.901541,-109.0
2023-08-15 17:47:11.909231,-104.0
2023-08-15 17:47:11.916921,-104.0
2023-08-15 17:47:11.924610,-107.0
2023-08-15 17:47:11.932300,-107.0
2023-08-15 17:47:11.939989,-102.0
2023-08-15 17:47:11.947679,-99.0
2023-08-15 17:47:11.955369,-109.0
2023-08-15 17:47:11.963058,-107.0
2023-08-15 17:47:11.970748,-92.0
2023-08-15 17:47:11.978437,-95.0
2023-08-15 17:47:11.986127,-90.0
2023-08-15 17:47:11.993817,-66.0
2023-08-15 17:47:12.001506,-57.0
2023-08-15 17:47:12.009196,-73.0
2023-08-15 17:47:12.016886,-92.0
2023-08-15 17:47:12.024575,-107.0
2023-08-15 17:47:12.032265,-116.0
2023-08-15 17:47:12.039954,-119.0
2023-08-15 17:47:12.047644,-111.0
2023-08-15 17:47:12.055334,-107.0
2023-08-15 17:47:12.063023,-80.0
2023-08-15 17:47:12.070713,47.0
2023-08-15 17:47:12.078402,318.0
2023-08-15 17:47:12.086092,533.0
2023-08-15 17:47:12.093782,342.0
2023-08-15 17:47:12.101471,-207.0
2023-08-15 17:47:12.109161,-583.0
2023-08-15 17:47:12.116851,-459.0
2023-08-15 17:47:12.124540,-178.0
2023-08-15 17:47:12.132230,-104.0
2023-08-15 17:47:12.139919,-126.0
2023-08-15 17:47:12.147609,-97.0
2023-08-15 17:47:12.155299,-80.0
2023-08-15 17:47:12.162988,-90.0
2023-08-15 17:47:12.170678,-80.0
2023-08-15 17:47:12.178367,-61.0
2023-08-15 17:47:12.186057,-54.0
2023-08-15 17:47:12.193747,-47.0
2023-08-15 17:47:12.201436,-33.0
2023-08-15 17:47:12.209126,-21.0
2023-08-15 17:47:12.216816,-9.0
2023-08-15 17:47:12.224505,4.0
2023-08-15 17:47:12.232195,19.0
2023-08-15 17:47:12.239884,35.0
2023-08-15 17:47:12.247574,52.0
2023-08-15 17:47:12.255264,64.0
2023-08-15 17:47:12.262953,85.0
2023-08-15 17:47:12.270643,109.0
2023-08-15 17:47:12.278332,126.0
2023-08-15 17:47:12.286022,133.0
2023-08-15 17:47:12.293712,138.0
2023-08-15 17:47:12.301401,138.0
2023-08-15 17:47:12.309091,121.0
2023-08-15 17:47:12.316781,97.0
2023-08-15 17:47:12.324470,59.0
2023-08-15 17:47:12.332160,4.0
2023-08-15 17:47:12.339849,-54.0
2023-08-15 17:47:12.347539,-104.0
2023-08-15 17:47:12.355229,-145.0
2023-08-15 17:47:12.362918,-180.0
2023-08-15 17:47:12.370608,-202.0
2023-08-15 17:47:12.378297,-204.0
2023-08-15 17:47:12.385987,-204.0
2023-08-15 17:47:12.393677,-209.0
2023-08-15 17:47:12.401366,-211.0
2023-08-15 17:47:12.409056,-204.0
2023-08-15 17:47:12.416746,-199.0
2023-08-15 17:47:12.424435,-197.0
2023-08-15 17:47:12.432125,-190.0
2023-08-15 17:47:12.439814,-188.0
2023-08-15 17:47:12.447504,-183.0
2023-08-15 17:47:12.455194,-171.0
2023-08-15 17:47:12.462883,-173.0
2023-08-15 17:47:12.470573,-180.0
2023-08-15 17:47:12.478262,-173.0
2023-08-15 17:47:12.485952,-164.0
2023-08-15 17:47:12.493642,-164.0
2023-08-15 17:47:12.501331,-157.0
2023-08-15 17:47:12.509021,-152.0
2023-08-15 17:47:12.516711,-157.0
2023-08-15 17:47:12.524400,-159.0
2023-08-15 17:47:12.532090,-154.0
2023-08-15 17:47:12.539779,-152.0
2023-08-15 17:47:12.547469,-152.0
2023-08-15 17:47:12.555159,-149.0
2023-08-15 17:47:12.562848,-149.0
2023-08-15 17:47:12.570538,-154.0
2023-08-15 17:47:12.578227,-159.0
2023-08-15 17:47:12.585917,-154.0
2023-08-15 17:47:12.593607,-149.0
2023-08-15 17:47:12.601296,-149.0
2023-08-15 17:47:12.608986,-135.0
2023-08-15 17:47:12.616676,-126.0
2023-08-15 17:47:12.624365,-133.0
2023-08-15 17:47:12.632055,-149.0
2023-08-15 17:47:12.639744,-169.0
2023-08-15 17:47:12.647434,-176.0
2023-08-15 17:47:12.655124,-166.0
2023-08-15 17:47:12.662813,-161.0
2023-08-15 17:47:12.670503,-159.0
2023-08-15 17:47:12.678192,-135.0
2023-08-15 17:47:12.685882,-33.0
2023-08-15 17:47:12.693572,216.0
2023-08-15 17:47:12.701261,483.0
2023-08-15 17:47:12.708951,409.0
2023-08-15 17:47:12.716641,-107.0
2023-08-15 17:47:12.724330,-587.0
2023-08-15 17:47:12.732020,-568.0
2023-08-15 17:47:12.739709,-264.0
2023-08-15 17:47:12.747399,-138.0
2023-08-15 17:47:12.755089,-154.0
2023-08-15 17:47:12.762778,-128.0
2023-08-15 17:47:12.770468,-109.0
2023-08-15 17:47:12.778157,-119.0
2023-08-15 17:47:12.785847,-109.0
2023-08-15 17:47:12.793537,-90.0
2023-08-15 17:47:12.801226,-83.0
2023-08-15 17:47:12.808916,-76.0
2023-08-15 17:47:12.816606,-64.0
2023-08-15 17:47:12.824295,-52.0
2023-08-15 17:47:12.831985,-38.0
2023-08-15 17:47:12.839674,-21.0
2023-08-15 17:47:12.847364,-4.0
2023-08-15 17:47:12.855054,9.0
2023-08-15 17:47:12.862743,28.0
2023-08-15 17:47:12.870433,52.0
2023-08-15 17:47:12.878122,73.0
2023-08-15 17:47:12.885812,88.0
2023-08-15 17:47:12.893502,104.0
2023-08-15 17:47:12.901191,114.0
2023-08-15 17:47:12.908881,116.0
2023-08-15 17:47:12.916571,119.0
2023-08-15 17:47:12.924260,107.0
2023-08-15 17:47:12.931950,80.0
2023-08-15 17:47:12.939639,40.0
2023-08-15 17:47:12.947329,-4.0
2023-08-15 17:47:12.955019,-59.0
2023-08-15 17:47:12.962708,-109.0
2023-08-15 17:47:12.970398,-154.0
2023-08-15 17:47:12.978087,-188.0
2023-08-15 17:47:12.985777,-207.0
2023-08-15 17:47:12.993467,-216.0
2023-08-15 17:47:13.001156,-221.0
2023-08-15 17:47:13.008846,-223.0
2023-08-15 17:47:13.016536,-223.0
2023-08-15 17:47:13.024225,-221.0
2023-08-15 17:47:13.031915,-214.0
2023-08-15 17:47:13.039604,-207.0
2023-08-15 17:47:13.047294,-202.0
2023-08-15 17:47:13.054984,-197.0
2023-08-15 17:47:13.062673,-190.0
2023-08-15 17:47:13.070363,-183.0
2023-08-15 17:47:13.078052,-178.0
2023-08-15 17:47:13.085742,-173.0
2023-08-15 17:47:13.093432,-166.0
2023-08-15 17:47:13.101121,-166.0
2023-08-15 17:47:13.108811,-169.0
2023-08-15 17:47:13.116501,-164.0
2023-08-15 17:47:13.124190,-159.0
2023-08-15 17:47:13.131880,-159.0
2023-08-15 17:47:13.139569,-157.0
2023-08-15 17:47:13.147259,-157.0
2023-08-15 17:47:13.154949,-164.0
2023-08-15 17:47:13.162638,-176.0
2023-08-15 17:47:13.170328,-176.0
2023-08-15 17:47:13.178017,-169.0
2023-08-15 17:47:13.185707,-164.0
2023-08-15 17:47:13.193397,-161.0
2023-08-15 17:47:13.201086,-164.0
2023-08-15 17:47:13.208776,-157.0
2023-08-15 17:47:13.216465,-149.0
2023-08-15 17:47:13.224155,-147.0
2023-08-15 17:47:13.231845,-130.0
2023-08-15 17:47:13.239534,-109.0
2023-08-15 17:47:13.247224,-111.0
2023-08-15 17:47:13.254914,-128.0
2023-08-15 17:47:13.262603,-147.0
2023-08-15 17:47:13.270293,-154.0
2023-08-15 17:47:13.277982,-147.0
2023-08-15 17:47:13.285672,-140.0
2023-08-15 17:47:13.293362,-145.0
2023-08-15 17:47:13.301051,-140.0
2023-08-15 17:47:13.308741,-73.0
2023-08-15 17:47:13.316430,130.0
2023-08-15 17:47:13.324120,430.0
2023-08-15 17:47:13.331810,495.0
2023-08-15 17:47:13.339499,78.0
2023-08-15 17:47:13.347189,-497.0
2023-08-15 17:47:13.354879,-633.0
2023-08-15 17:47:13.362568,-309.0
2023-08-15 17:47:13.370258,-92.0
2023-08-15 17:47:13.377947,-135.0
2023-08-15 17:47:13.385637,-140.0
2023-08-15 17:47:13.393327,-97.0
2023-08-15 17:47:13.401016,-104.0
2023-08-15 17:47:13.408706,-109.0
2023-08-15 17:47:13.416395,-85.0
2023-08-15 17:47:13.424085,-76.0
2023-08-15 17:47:13.431775,-78.0
2023-08-15 17:47:13.439464,-64.0
2023-08-15 17:47:13.447154,-47.0
2023-08-15 17:47:13.454844,-38.0
2023-08-15 17:47:13.462533,-26.0
2023-08-15 17:47:13.470223,-11.0
2023-08-15 17:47:13.477912,4.0
2023-08-15 17:47:13.485602,21.0
2023-08-15 17:47:13.493292,45.0
2023-08-15 17:47:13.500981,69.0
2023-08-15 17:47:13.508671,85.0
2023-08-15 17:47:13.516360,99.0
2023-08-15 17:47:13.524050,116.0
2023-08-15 17:47:13.531740,130.0
2023-08-15 17:47:13.539429,128.0
2023-08-15 17:47:13.547119,121.0
2023-08-15 17:47:13.554809,104.0
2023-08-15 17:47:13.562498,76.0
2023-08-15 17:47:13.570188,28.0
2023-08-15 17:47:13.577877,-26.0
2023-08-15 17:47:13.585567,-83.0
2023-08-15 17:47:13.593257,-128.0
2023-08-15 17:47:13.600946,-154.0
2023-08-15 17:47:13.608636,-173.0
2023-08-15 17:47:13.616325,-192.0
2023-08-15 17:47:13.624015,-199.0
2023-08-15 17:47:13.631705,-202.0
2023-08-15 17:47:13.639394,-202.0
2023-08-15 17:47:13.647084,-199.0
2023-08-15 17:47:13.654774,-195.0
2023-08-15 17:47:13.662463,-190.0
2023-08-15 17:47:13.670153,-185.0
2023-08-15 17:47:13.677842,-178.0
2023-08-15 17:47:13.685532,-171.0
2023-08-15 17:47:13.693222,-164.0
2023-08-15 17:47:13.700911,-161.0
2023-08-15 17:47:13.708601,-157.0
2023-08-15 17:47:13.716290,-152.0
2023-08-15 17:47:13.723980,-149.0
2023-08-15 17:47:13.731670,-142.0
2023-08-15 17:47:13.739359,-142.0
2023-08-15 17:47:13.747049,-149.0
2023-08-15 17:47:13.754739,-147.0
2023-08-15 17:47:13.762428,-142.0
2023-08-15 17:47:13.770118,-142.0
2023-08-15 17:47:13.777807,-145.0
2023-08-15 17:47:13.785497,-142.0
2023-08-15 17:47:13.793187,-140.0
2023-08-15 17:47:13.800876,-138.0
2023-08-15 17:47:13.808566,-138.0
2023-08-15 17:47:13.816255,-138.0
2023-08-15 17:47:13.823945,-130.0
2023-08-15 17:47:13.831635,-130.0
2023-08-15 17:47:13.839324,-133.0
2023-08-15 17:47:13.847014,-123.0
2023-08-15 17:47:13.854704,-114.0
2023-08-15 17:47:13.862393,-111.0
2023-08-15 17:47:13.870083,-99.0
2023-08-15 17:47:13.877772,-78.0
2023-08-15 17:47:13.885462,-71.0
2023-08-15 17:47:13.893152,-83.0
2023-08-15 17:47:13.900841,-102.0
2023-08-15 17:47:13.908531,-116.0
2023-08-15 17:47:13.916220,-114.0
2023-08-15 17:47:13.923910,-109.0
2023-08-15 17:47:13.931600,-109.0
2023-08-15 17:47:13.939289,-107.0
2023-08-15 17:47:13.946979,-83.0
2023-08-15 17:47:13.954669,33.0
2023-08-15 17:47:13.962358,304.0
2023-08-15 17:47:13.970048,528.0
2023-08-15 17:47:13.977737,354.0
2023-08-15 17:47:13.985427,-190.0
2023-08-15 17:47:13.993117,-580.0
2023-08-15 17:47:14.000806,-447.0
2023-08-15 17:47:14.008496,-130.0
2023-08-15 17:47:14.016185,-69.0
2023-08-15 17:47:14.023875,-116.0
2023-08-15 17:47:14.031565,-83.0
2023-08-15 17:47:14.039254,-66.0
2023-08-15 17:47:14.046944,-80.0
2023-08-15 17:47:14.054634,-69.0
2023-08-15 17:47:14.062323,-52.0
2023-08-15 17:47:14.070013,-45.0
2023-08-15 17:47:14.077702,-38.0
2023-08-15 17:47:14.085392,-26.0
2023-08-15 17:47:14.093082,-16.0
2023-08-15 17:47:14.100771,-7.0
2023-08-15 17:47:14.108461,11.0
2023-08-15 17:47:14.116150,35.0
2023-08-15 17:47:14.123840,49.0
2023-08-15 17:47:14.131530,64.0
2023-08-15 17:47:14.139219,90.0
2023-08-15 17:47:14.146909,111.0
2023-08-15 17:47:14.154599,123.0
2023-08-15 17:47:14.162288,138.0
2023-08-15 17:47:14.169978,154.0
2023-08-15 17:47:14.177667,159.0
2023-08-15 17:47:14.185357,157.0
2023-08-15 17:47:14.193047,145.0
2023-08-15 17:47:14.200736,121.0
2023-08-15 17:47:14.208426,88.0
2023-08-15 17:47:14.216115,42.0
2023-08-15 17:47:14.223805,-9.0
2023-08-15 17:47:14.231495,-57.0
2023-08-15 17:47:14.239184,-95.0
2023-08-15 17:47:14.246874,-119.0
2023-08-15 17:47:14.254564,-130.0
2023-08-15 17:47:14.262253,-140.0
2023-08-15 17:47:14.269943,-147.0
2023-08-15 17:47:14.277632,-154.0
2023-08-15 17:47:14.285322,-161.0
2023-08-15 17:47:14.293012,-164.0
2023-08-15 17:47:14.300701,-159.0
2023-08-15 17:47:14.308391,-152.0
2023-08-15 17:47:14.316080,-147.0
2023-08-15 17:47:14.323770,-145.0
2023-08-15 17:47:14.331460,-140.0
2023-08-15 17:47:14.339149,-133.0
2023-08-15 17:47:14.346839,-126.0
2023-08-15 17:47:14.354529,-126.0
2023-08-15 17:47:14.362218,-121.0
2023-08-15 17:47:14.369908,-114.0
2023-08-15 17:47:14.377597,-114.0
2023-08-15 17:47:14.385287,-111.0
2023-08-15 17:47:14.392977,-107.0
2023-08-15 17:47:14.400666,-104.0
2023-08-15 17:47:14.408356,-104.0
2023-08-15 17:47:14.416045,-104.0
2023-08-15 17:47:14.423735,-104.0
2023-08-15 17:47:14.431425,-102.0
2023-08-15 17:47:14.439114,-95.0
2023-08-15 17:47:14.446804,-95.0
2023-08-15 17:47:14.454494,-95.0
2023-08-15 17:47:14.462183,-92.0
2023-08-15 17:47:14.469873,-90.0
2023-08-15 17:47:14.477562,-92.0
2023-08-15 17:47:14.485252,-92.0
2023-08-15 17:47:14.492942,-80.0
2023-08-15 17:47:14.500631,-76.0
2023-08-15 17:47:14.508321,-71.0
2023-08-15 17:47:14.516010,-49.0
2023-08-15 17:47:14.523700,-35.0
2023-08-15 17:47:14.531390,-45.0
2023-08-15 17:47:14.539079,-66.0
2023-08-15 17:47:14.546769,-85.0
2023-08-15 17:47:14.554459,-92.0
2023-08-15 17:47:14.562148,-83.0
2023-08-15 17:47:14.569838,-78.0
2023-08-15 17:47:14.577527,-83.0
2023-08-15 17:47:14.585217,-69.0
2023-08-15 17:47:14.592907,11.0
2023-08-15 17:47:14.600596,228.0
2023-08-15 17:47:14.608286,499.0
2023-08-15 17:47:14.615975,492.0
2023-08-15 17:47:14.623665,42.0
2023-08-15 17:47:14.631355,-464.0
2023-08-15 17:47:14.639044,-502.0
2023-08-15 17:47:14.646734,-180.0
2023-08-15 17:47:14.654424,-23.0
2023-08-15 17:47:14.662113,-76.0
2023-08-15 17:47:14.669803,-64.0
2023-08-15 17:47:14.677492,-26.0
2023-08-15 17:47:14.685182,-40.0
2023-08-15 17:47:14.692872,-38.0
2023-08-15 17:47:14.700561,-14.0
2023-08-15 17:47:14.708251,-7.0
2023-08-15 17:47:14.715940,-2.0
2023-08-15 17:47:14.723630,11.0
2023-08-15 17:47:14.731320,23.0
2023-08-15 17:47:14.739009,38.0
2023-08-15 17:47:14.746699,52.0
2023-08-15 17:47:14.754389,66.0
2023-08-15 17:47:14.762078,83.0
2023-08-15 17:47:14.769768,102.0
2023-08-15 17:47:14.777457,121.0
2023-08-15 17:47:14.785147,138.0
2023-08-15 17:47:14.792837,159.0
2023-08-15 17:47:14.800526,176.0
2023-08-15 17:47:14.808216,188.0
2023-08-15 17:47:14.815905,192.0
2023-08-15 17:47:14.823595,183.0
2023-08-15 17:47:14.831285,166.0
2023-08-15 17:47:14.838974,152.0
2023-08-15 17:47:14.846664,121.0
2023-08-15 17:47:14.854354,73.0
2023-08-15 17:47:14.862043,21.0
2023-08-15 17:47:14.869733,-30.0
2023-08-15 17:47:14.877422,-73.0
2023-08-15 17:47:14.885112,-102.0
2023-08-15 17:47:14.892802,-121.0
2023-08-15 17:47:14.900491,-133.0
2023-08-15 17:47:14.908181,-142.0
2023-08-15 17:47:14.915870,-147.0
2023-08-15 17:47:14.923560,-149.0
2023-08-15 17:47:14.931250,-145.0
2023-08-15 17:47:14.938939,-140.0
2023-08-15 17:47:14.946629,-135.0
2023-08-15 17:47:14.954319,-135.0
2023-08-15 17:47:14.962008,-130.0
2023-08-15 17:47:14.969698,-121.0
2023-08-15 17:47:14.977387,-119.0
2023-08-15 17:47:14.985077,-119.0
2023-08-15 17:47:14.992767,-116.0
2023-08-15 17:47:15.000456,-114.0
2023-08-15 17:47:15.008146,-109.0
2023-08-15 17:47:15.015835,-102.0
2023-08-15 17:47:15.023525,-99.0
2023-08-15 17:47:15.031215,-102.0
2023-08-15 17:47:15.038904,-99.0
2023-08-15 17:47:15.046594,-97.0
2023-08-15 17:47:15.054284,-97.0
2023-08-15 17:47:15.061973,-102.0
2023-08-15 17:47:15.069663,-104.0
2023-08-15 17:47:15.077352,-104.0
2023-08-15 17:47:15.085042,-99.0
2023-08-15 17:47:15.092732,-92.0
2023-08-15 17:47:15.100421,-95.0
2023-08-15 17:47:15.108111,-97.0
2023-08-15 17:47:15.115800,-95.0
2023-08-15 17:47:15.123490,-90.0
2023-08-15 17:47:15.131180,-83.0
2023-08-15 17:47:15.138869,-78.0
2023-08-15 17:47:15.146559,-61.0
2023-08-15 17:47:15.154249,-45.0
2023-08-15 17:47:15.161938,-45.0
2023-08-15 17:47:15.169628,-57.0
2023-08-15 17:47:15.177317,-80.0
2023-08-15 17:47:15.185007,-99.0
2023-08-15 17:47:15.192697,-92.0
2023-08-15 17:47:15.200386,-78.0
2023-08-15 17:47:15.208076,-78.0
2023-08-15 17:47:15.215765,-69.0
2023-08-15 17:47:15.223455,9.0
2023-08-15 17:47:15.231145,230.0
2023-08-15 17:47:15.238834,516.0
2023-08-15 17:47:15.246524,528.0
2023-08-15 17:47:15.254214,80.0
2023-08-15 17:47:15.261903,-447.0
2023-08-15 17:47:15.269593,-530.0
2023-08-15 17:47:15.277282,-247.0
2023-08-15 17:47:15.284972,-76.0
2023-08-15 17:47:15.292662,-85.0
2023-08-15 17:47:15.300351,-73.0
2023-08-15 17:47:15.308041,-47.0
2023-08-15 17:47:15.315730,-54.0
2023-08-15 17:47:15.323420,-54.0
2023-08-15 17:47:15.331110,-33.0
2023-08-15 17:47:15.338799,-23.0
2023-08-15 17:47:15.346489,-19.0
2023-08-15 17:47:15.354179,-2.0
2023-08-15 17:47:15.361868,9.0
2023-08-15 17:47:15.369558,19.0
2023-08-15 17:47:15.377247,35.0
2023-08-15 17:47:15.384937,54.0
2023-08-15 17:47:15.392627,66.0
2023-08-15 17:47:15.400316,80.0
2023-08-15 17:47:15.408006,97.0
2023-08-15 17:47:15.415695,109.0
2023-08-15 17:47:15.423385,128.0
2023-08-15 17:47:15.431075,147.0
2023-08-15 17:47:15.438764,159.0
2023-08-15 17:47:15.446454,161.0
2023-08-15 17:47:15.454144,159.0
2023-08-15 17:47:15.461833,149.0
2023-08-15 17:47:15.469523,133.0
2023-08-15 17:47:15.477212,104.0
2023-08-15 17:47:15.484902,57.0
2023-08-15 17:47:15.492592,-2.0
2023-08-15 17:47:15.500281,-54.0
2023-08-15 17:47:15.507971,-90.0
2023-08-15 17:47:15.515660,-121.0
2023-08-15 17:47:15.523350,-149.0
2023-08-15 17:47:15.531040,-161.0
2023-08-15 17:47:15.538729,-159.0
2023-08-15 17:47:15.546419,-164.0
2023-08-15 17:47:15.554109,-173.0
2023-08-15 17:47:15.561798,-173.0
2023-08-15 17:47:15.569488,-164.0
2023-08-15 17:47:15.577177,-157.0
2023-08-15 17:47:15.584867,-154.0
2023-08-15 17:47:15.592557,-149.0
2023-08-15 17:47:15.600246,-140.0
2023-08-15 17:47:15.607936,-133.0
2023-08-15 17:47:15.615625,-130.0
2023-08-15 17:47:15.623315,-123.0
2023-08-15 17:47:15.631005,-119.0
2023-08-15 17:47:15.638694,-116.0
2023-08-15 17:47:15.646384,-114.0
2023-08-15 17:47:15.654074,-111.0
2023-08-15 17:47:15.661763,-109.0
2023-08-15 17:47:15.669453,-107.0
2023-08-15 17:47:15.677142,-107.0
2023-08-15 17:47:15.684832,-109.0
2023-08-15 17:47:15.692522,-104.0
2023-08-15 17:47:15.700211,-102.0
2023-08-15 17:47:15.707901,-102.0
2023-08-15 17:47:15.715590,-102.0
2023-08-15 17:47:15.723280,-99.0
2023-08-15 17:47:15.730970,-99.0
2023-08-15 17:47:15.738659,-99.0
2023-08-15 17:47:15.746349,-90.0
2023-08-15 17:47:15.754039,-88.0
2023-08-15 17:47:15.761728,-85.0
2023-08-15 17:47:15.769418,-66.0
2023-08-15 17:47:15.777107,-47.0
2023-08-15 17:47:15.784797,-47.0
2023-08-15 17:47:15.792487,-64.0
2023-08-15 17:47:15.800176,-85.0
2023-08-15 17:47:15.807866,-99.0
2023-08-15 17:47:15.815555,-92.0
2023-08-15 17:47:15.823245,-85.0
2023-08-15 17:47:15.830935,-85.0
2023-08-15 17:47:15.838624,-71.0
2023-08-15 17:47:15.846314,16.0
2023-08-15 17:47:15.854004,240.0
2023-08-15 17:47:15.861693,514.0
2023-08-15 17:47:15.869383,504.0
2023-08-15 17:47:15.877072,38.0
2023-08-15 17:47:15.884762,-483.0
2023-08-15 17:47:15.892452,-533.0
2023-08-15 17:47:15.900141,-223.0
2023-08-15 17:47:15.907831,-61.0
2023-08-15 17:47:15.915520,-85.0
2023-08-15 17:47:15.923210,-73.0
2023-08-15 17:47:15.930900,-49.0
2023-08-15 17:47:15.938589,-54.0
2023-08-15 17:47:15.946279,-49.0
2023-08-15 17:47:15.953969,-38.0
2023-08-15 17:47:15.961658,-33.0
2023-08-15 17:47:15.969348,-28.0
2023-08-15 17:47:15.977037,-14.0
2023-08-15 17:47:15.984727,-2.0
2023-08-15 17:47:15.992417,4.0
2023-08-15 17:47:16.000106,19.0
2023-08-15 17:47:16.007796,35.0
2023-08-15 17:47:16.015485,49.0
2023-08-15 17:47:16.023175,69.0
2023-08-15 17:47:16.030865,90.0
2023-08-15 17:47:16.038554,111.0
2023-08-15 17:47:16.046244,128.0
2023-08-15 17:47:16.053934,140.0
2023-08-15 17:47:16.061623,152.0
2023-08-15 17:47:16.069313,154.0
2023-08-15 17:47:16.077002,152.0
2023-08-15 17:47:16.084692,142.0
2023-08-15 17:47:16.092382,126.0
2023-08-15 17:47:16.100071,92.0
2023-08-15 17:47:16.107761,45.0
2023-08-15 17:47:16.115450,-9.0
2023-08-15 17:47:16.123140,-61.0
2023-08-15 17:47:16.130830,-102.0
2023-08-15 17:47:16.138519,-133.0
2023-08-15 17:47:16.146209,-152.0
2023-08-15 17:47:16.153899,-159.0
2023-08-15 17:47:16.161588,-169.0
2023-08-15 17:47:16.169278,-176.0
2023-08-15 17:47:16.176967,-178.0
2023-08-15 17:47:16.184657,-176.0
2023-08-15 17:47:16.192347,-166.0
2023-08-15 17:47:16.200036,-159.0
2023-08-15 17:47:16.207726,-157.0
2023-08-15 17:47:16.215415,-152.0
2023-08-15 17:47:16.223105,-142.0
2023-08-15 17:47:16.230795,-135.0
2023-08-15 17:47:16.238484,-130.0
2023-08-15 17:47:16.246174,-126.0
2023-08-15 17:47:16.253864,-116.0
2023-08-15 17:47:16.261553,-114.0
2023-08-15 17:47:16.269243,-114.0
2023-08-15 17:47:16.276932,-104.0
2023-08-15 17:47:16.284622,-102.0
2023-08-15 17:47:16.292312,-104.0
2023-08-15 17:47:16.300001,-104.0
2023-08-15 17:47:16.307691,-104.0
2023-08-15 17:47:16.315380,-104.0
2023-08-15 17:47:16.323070,-99.0
2023-08-15 17:47:16.330760,-97.0
2023-08-15 17:47:16.338449,-99.0
2023-08-15 17:47:16.346139,-99.0
2023-08-15 17:47:16.353829,-97.0
2023-08-15 17:47:16.361518,-95.0
2023-08-15 17:47:16.369208,-92.0
2023-08-15 17:47:16.376897,-90.0
2023-08-15 17:47:16.384587,-85.0
2023-08-15 17:47:16.392277,-83.0
2023-08-15 17:47:16.399966,-76.0
2023-08-15 17:47:16.407656,-59.0
2023-08-15 17:47:16.415345,-47.0
2023-08-15 17:47:16.423035,-59.0
2023-08-15 17:47:16.430725,-78.0
2023-08-15 17:47:16.438414,-97.0
2023-08-15 17:47:16.446104,-99.0
2023-08-15 17:47:16.453794,-90.0
2023-08-15 17:47:16.461483,-88.0
2023-08-15 17:47:16.469173,-88.0
2023-08-15 17:47:16.476862,-61.0
2023-08-15 17:47:16.484552,52.0
2023-08-15 17:47:16.492242,318.0
2023-08-15 17:47:16.499931,549.0
2023-08-15 17:47:16.507621,378.0
2023-08-15 17:47:16.515310,-178.0
2023-08-15 17:47:16.523000,-585.0
2023-08-15 17:47:16.530690,-457.0
2023-08-15 17:47:16.538379,-135.0
2023-08-15 17:47:16.546069,-69.0
2023-08-15 17:47:16.553759,-116.0
2023-08-15 17:47:16.561448,-85.0
2023-08-15 17:47:16.569138,-64.0
2023-08-15 17:47:16.576827,-80.0
2023-08-15 17:47:16.584517,-69.0
2023-08-15 17:47:16.592207,-47.0
2023-08-15 17:47:16.599896,-42.0
2023-08-15 17:47:16.607586,-35.0
2023-08-15 17:47:16.615275,-19.0
2023-08-15 17:47:16.622965,-9.0
2023-08-15 17:47:16.630655,2.0
2023-08-15 17:47:16.638344,21.0
2023-08-15 17:47:16.646034,40.0
2023-08-15 17:47:16.653724,59.0
2023-08-15 17:47:16.661413,78.0
2023-08-15 17:47:16.669103,97.0
2023-08-15 17:47:16.676792,116.0
2023-08-15 17:47:16.684482,138.0
2023-08-15 17:47:16.692172,154.0
2023-08-15 17:47:16.699861,164.0
2023-08-15 17:47:16.707551,166.0
2023-08-15 17:47:16.715240,164.0
2023-08-15 17:47:16.722930,152.0
2023-08-15 17:47:16.730620,128.0
2023-08-15 17:47:16.738309,88.0
2023-08-15 17:47:16.745999,38.0
2023-08-15 17:47:16.753689,-16.0
2023-08-15 17:47:16.761378,-69.0
2023-08-15 17:47:16.769068,-107.0
2023-08-15 17:47:16.776757,-130.0
2023-08-15 17:47:16.784447,-149.0
2023-08-15 17:47:16.792137,-166.0
2023-08-15 17:47:16.799826,-173.0
2023-08-15 17:47:16.807516,-171.0
2023-08-15 17:47:16.815205,-171.0
2023-08-15 17:47:16.822895,-169.0
2023-08-15 17:47:16.830585,-164.0
2023-08-15 17:47:16.838274,-154.0
2023-08-15 17:47:16.845964,-149.0
2023-08-15 17:47:16.853654,-147.0
2023-08-15 17:47:16.861343,-142.0
2023-08-15 17:47:16.869033,-135.0
2023-08-15 17:47:16.876722,-130.0
2023-08-15 17:47:16.884412,-123.0
2023-08-15 17:47:16.892102,-121.0
2023-08-15 17:47:16.899791,-121.0
2023-08-15 17:47:16.907481,-116.0
2023-08-15 17:47:16.915170,-111.0
2023-08-15 17:47:16.922860,-107.0
2023-08-15 17:47:16.930550,-109.0
2023-08-15 17:47:16.938239,-109.0
2023-08-15 17:47:16.945929,-107.0
2023-08-15 17:47:16.953619,-107.0
2023-08-15 17:47:16.961308,-107.0
2023-08-15 17:47:16.968998,-104.0
2023-08-15 17:47:16.976687,-104.0
2023-08-15 17:47:16.984377,-107.0
2023-08-15 17:47:16.992067,-107.0
2023-08-15 17:47:16.999756,-102.0
2023-08-15 17:47:17.007446,-102.0
2023-08-15 17:47:17.015135,-109.0
2023-08-15 17:47:17.022825,-104.0
2023-08-15 17:47:17.030515,-97.0
2023-08-15 17:47:17.038204,-97.0
2023-08-15 17:47:17.045894,-90.0
2023-08-15 17:47:17.053584,-64.0
2023-08-15 17:47:17.061273,-57.0
2023-08-15 17:47:17.068963,-71.0
2023-08-15 17:47:17.076652,-92.0
2023-08-15 17:47:17.084342,-109.0
2023-08-15 17:47:17.092032,-107.0
2023-08-15 17:47:17.099721,-95.0
2023-08-15 17:47:17.107411,-97.0
2023-08-15 17:47:17.115100,-104.0
2023-08-15 17:47:17.122790,-88.0
2023-08-15 17:47:17.130480,30.0
2023-08-15 17:47:17.138169,299.0
2023-08-15 17:47:17.145859,516.0
2023-08-15 17:47:17.153549,333.0
2023-08-15 17:47:17.161238,-218.0
2023-08-15 17:47:17.168928,-604.0
2023-08-15 17:47:17.176617,-447.0
2023-08-15 17:47:17.184307,-111.0
2023-08-15 17:47:17.191997,-54.0
2023-08-15 17:47:17.199686,-111.0
2023-08-15 17:47:17.207376,-78.0
2023-08-15 17:47:17.215065,-57.0
2023-08-15 17:47:17.222755,-73.0
2023-08-15 17:47:17.230445,-61.0
2023-08-15 17:47:17.238134,-42.0
2023-08-15 17:47:17.245824,-42.0
2023-08-15 17:47:17.253514,-33.0
2023-08-15 17:47:17.261203,-14.0
2023-08-15 17:47:17.268893,-4.0
2023-08-15 17:47:17.276582,4.0
2023-08-15 17:47:17.284272,21.0
2023-08-15 17:47:17.291962,35.0
2023-08-15 17:47:17.299651,49.0
2023-08-15 17:47:17.307341,71.0
2023-08-15 17:47:17.315030,92.0
2023-08-15 17:47:17.322720,111.0
2023-08-15 17:47:17.330410,128.0
2023-08-15 17:47:17.338099,145.0
2023-08-15 17:47:17.345789,152.0
2023-08-15 17:47:17.353479,157.0
2023-08-15 17:47:17.361168,157.0
2023-08-15 17:47:17.368858,145.0
2023-08-15 17:47:17.376547,121.0
2023-08-15 17:47:17.384237,85.0
2023-08-15 17:47:17.391927,35.0
2023-08-15 17:47:17.399616,-21.0
2023-08-15 17:47:17.407306,-69.0
2023-08-15 17:47:17.414995,-107.0
2023-08-15 17:47:17.422685,-135.0
2023-08-15 17:47:17.430375,-154.0
2023-08-15 17:47:17.438064,-166.0
2023-08-15 17:47:17.445754,-169.0
2023-08-15 17:47:17.453444,-169.0
2023-08-15 17:47:17.461133,-166.0
2023-08-15 17:47:17.468823,-164.0
2023-08-15 17:47:17.476512,-159.0
2023-08-15 17:47:17.484202,-154.0
2023-08-15 17:47:17.491892,-149.0
2023-08-15 17:47:17.499581,-142.0
2023-08-15 17:47:17.507271,-140.0
2023-08-15 17:47:17.514960,-142.0
2023-08-15 17:47:17.522650,-142.0
2023-08-15 17:47:17.530340,-138.0
2023-08-15 17:47:17.538029,-135.0
2023-08-15 17:47:17.545719,-133.0
2023-08-15 17:47:17.553409,-128.0
2023-08-15 17:47:17.561098,-126.0
2023-08-15 17:47:17.568788,-123.0
2023-08-15 17:47:17.576477,-119.0
2023-08-15 17:47:17.584167,-114.0
2023-08-15 17:47:17.591857,-116.0
2023-08-15 17:47:17.599546,-116.0
2023-08-15 17:47:17.607236,-114.0
2023-08-15 17:47:17.614925,-114.0
2023-08-15 17:47:17.622615,-114.0
2023-08-15 17:47:17.630305,-114.0
2023-08-15 17:47:17.637994,-114.0
2023-08-15 17:47:17.645684,-111.0
2023-08-15 17:47:17.653374,-114.0
2023-08-15 17:47:17.661063,-121.0
2023-08-15 17:47:17.668753,-119.0
2023-08-15 17:47:17.676442,-114.0
2023-08-15 17:47:17.684132,-114.0
2023-08-15 17:47:17.691822,-102.0
2023-08-15 17:47:17.699511,-92.0
2023-08-15 17:47:17.707201,-92.0
2023-08-15 17:47:17.714890,-76.0
2023-08-15 17:47:17.722580,-59.0
2023-08-15 17:47:17.730270,-64.0
2023-08-15 17:47:17.737959,-78.0
2023-08-15 17:47:17.745649,-95.0
2023-08-15 17:47:17.753339,-107.0
2023-08-15 17:47:17.761028,-99.0
2023-08-15 17:47:17.768718,-92.0
2023-08-15 17:47:17.776407,-102.0
2023-08-15 17:47:17.784097,-99.0
2023-08-15 17:47:17.791787,-42.0
2023-08-15 17:47:17.799476,140.0
2023-08-15 17:47:17.807166,426.0
2023-08-15 17:47:17.814855,504.0
2023-08-15 17:47:17.822545,128.0
2023-08-15 17:47:17.830235,-416.0
2023-08-15 17:47:17.837924,-573.0
2023-08-15 17:47:17.845614,-288.0
2023-08-15 17:47:17.853304,-64.0
2023-08-15 17:47:17.860993,-83.0
2023-08-15 17:47:17.868683,-95.0
2023-08-15 17:47:17.876372,-49.0
2023-08-15 17:47:17.884062,-52.0
2023-08-15 17:47:17.891752,-61.0
2023-08-15 17:47:17.899441,-42.0
2023-08-15 17:47:17.907131,-30.0
2023-08-15 17:47:17.914820,-23.0
2023-08-15 17:47:17.922510,-9.0
2023-08-15 17:47:17.930200,4.0
2023-08-15 17:47:17.937889,11.0
2023-08-15 17:47:17.945579,26.0
2023-08-15 17:47:17.953269,42.0
2023-08-15 17:47:17.960958,57.0
2023-08-15 17:47:17.968648,73.0
2023-08-15 17:47:17.976337,88.0
2023-08-15 17:47:17.984027,107.0
2023-08-15 17:47:17.991717,128.0
2023-08-15 17:47:17.999406,142.0
2023-08-15 17:47:18.007096,152.0
2023-08-15 17:47:18.014785,159.0
2023-08-15 17:47:18.022475,159.0
2023-08-15 17:47:18.030165,154.0
2023-08-15 17:47:18.037854,142.0
2023-08-15 17:47:18.045544,114.0
2023-08-15 17:47:18.053234,71.0
2023-08-15 17:47:18.060923,14.0
2023-08-15 17:47:18.068613,-42.0
2023-08-15 17:47:18.076302,-83.0
2023-08-15 17:47:18.083992,-114.0
2023-08-15 17:47:18.091682,-140.0
2023-08-15 17:47:18.099371,-157.0
2023-08-15 17:47:18.107061,-164.0
2023-08-15 17:47:18.114750,-164.0
2023-08-15 17:47:18.122440,-161.0
2023-08-15 17:47:18.130130,-161.0
2023-08-15 17:47:18.137819,-154.0
2023-08-15 17:47:18.145509,-149.0
2023-08-15 17:47:18.153199,-145.0
2023-08-15 17:47:18.160888,-140.0
2023-08-15 17:47:18.168578,-130.0
2023-08-15 17:47:18.176267,-128.0
2023-08-15 17:47:18.183957,-126.0
2023-08-15 17:47:18.191647,-126.0
2023-08-15 17:47:18.199336,-133.0
2023-08-15 17:47:18.207026,-135.0
2023-08-15 17:47:18.214715,-126.0
2023-08-15 17:47:18.222405,-116.0
2023-08-15 17:47:18.230095,-121.0
2023-08-15 17:47:18.237784,-126.0
2023-08-15 17:47:18.245474,-121.0
2023-08-15 17:47:18.253164,-116.0
2023-08-15 17:47:18.260853,-116.0
2023-08-15 17:47:18.268543,-121.0
2023-08-15 17:47:18.276232,-121.0
2023-08-15 17:47:18.283922,-126.0
2023-08-15 17:47:18.291612,-126.0
2023-08-15 17:47:18.299301,-119.0
2023-08-15 17:47:18.306991,-111.0
2023-08-15 17:47:18.314680,-111.0
2023-08-15 17:47:18.322370,-111.0
2023-08-15 17:47:18.330060,-107.0
2023-08-15 17:47:18.337749,-104.0
2023-08-15 17:47:18.345439,-97.0
2023-08-15 17:47:18.353129,-88.0
2023-08-15 17:47:18.360818,-73.0
2023-08-15 17:47:18.368508,-59.0
2023-08-15 17:47:18.376197,-57.0
2023-08-15 17:47:18.383887,-71.0
2023-08-15 17:47:18.391577,-92.0
2023-08-15 17:47:18.399266,-107.0
2023-08-15 17:47:18.406956,-104.0
2023-08-15 17:47:18.414645,-97.0
2023-08-15 17:47:18.422335,-99.0
2023-08-15 17:47:18.430025,-90.0
2023-08-15 17:47:18.437714,-21.0
2023-08-15 17:47:18.445404,173.0
2023-08-15 17:47:18.453094,459.0
2023-08-15 17:47:18.460783,537.0
2023-08-15 17:47:18.468473,154.0
2023-08-15 17:47:18.476162,-404.0
2023-08-15 17:47:18.483852,-573.0
2023-08-15 17:47:18.491542,-311.0
2023-08-15 17:47:18.499231,-104.0
2023-08-15 17:47:18.506921,-102.0
2023-08-15 17:47:18.514610,-95.0
2023-08-15 17:47:18.522300,-66.0
2023-08-15 17:47:18.529990,-78.0
2023-08-15 17:47:18.537679,-78.0
2023-08-15 17:47:18.545369,-59.0
2023-08-15 17:47:18.553059,-52.0
2023-08-15 17:47:18.560748,-49.0
2023-08-15 17:47:18.568438,-33.0
2023-08-15 17:47:18.576127,-11.0
2023-08-15 17:47:18.583817,-2.0
2023-08-15 17:47:18.591507,7.0
2023-08-15 17:47:18.599196,19.0
2023-08-15 17:47:18.606886,33.0
2023-08-15 17:47:18.614575,52.0
2023-08-15 17:47:18.622265,73.0
2023-08-15 17:47:18.629955,95.0
2023-08-15 17:47:18.637644,111.0
2023-08-15 17:47:18.645334,123.0
2023-08-15 17:47:18.653024,138.0
2023-08-15 17:47:18.660713,147.0
2023-08-15 17:47:18.668403,147.0
2023-08-15 17:47:18.676092,140.0
2023-08-15 17:47:18.683782,119.0
2023-08-15 17:47:18.691472,88.0
2023-08-15 17:47:18.699161,45.0
2023-08-15 17:47:18.706851,-4.0
2023-08-15 17:47:18.714540,-57.0
2023-08-15 17:47:18.722230,-97.0
2023-08-15 17:47:18.729920,-126.0
2023-08-15 17:47:18.737609,-149.0
2023-08-15 17:47:18.745299,-166.0
2023-08-15 17:47:18.752989,-171.0
2023-08-15 17:47:18.760678,-173.0
2023-08-15 17:47:18.768368,-173.0
2023-08-15 17:47:18.776057,-173.0
2023-08-15 17:47:18.783747,-176.0
2023-08-15 17:47:18.791437,-178.0
2023-08-15 17:47:18.799126,-169.0
2023-08-15 17:47:18.806816,-157.0
2023-08-15 17:47:18.814505,-149.0
2023-08-15 17:47:18.822195,-145.0
2023-08-15 17:47:18.829885,-142.0
2023-08-15 17:47:18.837574,-138.0
2023-08-15 17:47:18.845264,-133.0
2023-08-15 17:47:18.852954,-126.0
2023-08-15 17:47:18.860643,-121.0
2023-08-15 17:47:18.868333,-119.0
2023-08-15 17:47:18.876022,-116.0
2023-08-15 17:47:18.883712,-114.0
2023-08-15 17:47:18.891402,-114.0
2023-08-15 17:47:18.899091,-111.0
2023-08-15 17:47:18.906781,-111.0
2023-08-15 17:47:18.914470,-111.0
2023-08-15 17:47:18.922160,-111.0
2023-08-15 17:47:18.929850,-111.0
2023-08-15 17:47:18.937539,-107.0
2023-08-15 17:47:18.945229,-104.0
2023-08-15 17:47:18.952919,-102.0
2023-08-15 17:47:18.960608,-102.0
2023-08-15 17:47:18.968298,-102.0
2023-08-15 17:47:18.975987,-99.0
2023-08-15 17:47:18.983677,-90.0
2023-08-15 17:47:18.991367,-85.0
2023-08-15 17:47:18.999056,-76.0
2023-08-15 17:47:19.006746,-59.0
2023-08-15 17:47:19.014435,-52.0
2023-08-15 17:47:19.022125,-61.0
2023-08-15 17:47:19.029815,-83.0
2023-08-15 17:47:19.037504,-104.0
2023-08-15 17:47:19.045194,-111.0
2023-08-15 17:47:19.052884,-104.0
2023-08-15 17:47:19.060573,-102.0
2023-08-15 17:47:19.068263,-102.0
2023-08-15 17:47:19.075952,-78.0
2023-08-15 17:47:19.083642,23.0
2023-08-15 17:47:19.091332,266.0
2023-08-15 17:47:19.099021,521.0
2023-08-15 17:47:19.106711,428.0
2023-08-15 17:47:19.114400,-92.0
2023-08-15 17:47:19.122090,-554.0
2023-08-15 17:47:19.129780,-499.0
2023-08-15 17:47:19.137469,-180.0
2023-08-15 17:47:19.145159,-66.0
2023-08-15 17:47:19.152849,-99.0
2023-08-15 17:47:19.160538,-73.0
2023-08-15 17:47:19.168228,-49.0
2023-08-15 17:47:19.175917,-64.0
2023-08-15 17:47:19.183607,-57.0
2023-08-15 17:47:19.191297,-35.0
2023-08-15 17:47:19.198986,-30.0
2023-08-15 17:47:19.206676,-23.0
2023-08-15 17:47:19.214365,-7.0
2023-08-15 17:47:19.222055,2.0
2023-08-15 17:47:19.229745,9.0
2023-08-15 17:47:19.237434,23.0
2023-08-15 17:47:19.245124,38.0
2023-08-15 17:47:19.252814,52.0
2023-08-15 17:47:19.260503,69.0
2023-08-15 17:47:19.268193,90.0
2023-08-15 17:47:19.275882,109.0
2023-08-15 17:47:19.283572,128.0
2023-08-15 17:47:19.291262,145.0
2023-08-15 17:47:19.298951,157.0
2023-08-15 17:47:19.306641,157.0
2023-08-15 17:47:19.314330,154.0
2023-08-15 17:47:19.322020,145.0
2023-08-15 17:47:19.329710,121.0
2023-08-15 17:47:19.337399,83.0
2023-08-15 17:47:19.345089,35.0
2023-08-15 17:47:19.352779,-16.0
2023-08-15 17:47:19.360468,-69.0
2023-08-15 17:47:19.368158,-116.0
2023-08-15 17:47:19.375847,-147.0
2023-08-15 17:47:19.383537,-161.0
2023-08-15 17:47:19.391227,-171.0
2023-08-15 17:47:19.398916,-176.0
2023-08-15 17:47:19.406606,-176.0
2023-08-15 17:47:19.414295,-176.0
2023-08-15 17:47:19.421985,-176.0
2023-08-15 17:47:19.429675,-166.0
2023-08-15 17:47:19.437364,-157.0
2023-08-15 17:47:19.445054,-152.0
2023-08-15 17:47:19.452744,-149.0
2023-08-15 17:47:19.460433,-145.0
2023-08-15 17:47:19.468123,-138.0
2023-08-15 17:47:19.475812,-130.0
2023-08-15 17:47:19.483502,-126.0
2023-08-15 17:47:19.491192,-123.0
2023-08-15 17:47:19.498881,-123.0
2023-08-15 17:47:19.506571,-126.0
2023-08-15 17:47:19.514260,-119.0
2023-08-15 17:47:19.521950,-116.0
2023-08-15 17:47:19.529640,-119.0
2023-08-15 17:47:19.537329,-126.0
2023-08-15 17:47:19.545019,-128.0
2023-08-15 17:47:19.552709,-128.0
2023-08-15 17:47:19.560398,-126.0
2023-08-15 17:47:19.568088,-123.0
2023-08-15 17:47:19.575777,-126.0
2023-08-15 17:47:19.583467,-126.0
2023-08-15 17:47:19.591157,-126.0
2023-08-15 17:47:19.598846,-121.0
2023-08-15 17:47:19.606536,-116.0
2023-08-15 17:47:19.614225,-116.0
2023-08-15 17:47:19.621915,-121.0
2023-08-15 17:47:19.629605,-114.0
2023-08-15 17:47:19.637294,-107.0
2023-08-15 17:47:19.644984,-107.0
2023-08-15 17:47:19.652674,-102.0
2023-08-15 17:47:19.660363,-88.0
2023-08-15 17:47:19.668053,-66.0
2023-08-15 17:47:19.675742,-57.0
2023-08-15 17:47:19.683432,-76.0
2023-08-15 17:47:19.691122,-102.0
2023-08-15 17:47:19.698811,-111.0
2023-08-15 17:47:19.706501,-107.0
2023-08-15 17:47:19.714190,-102.0
2023-08-15 17:47:19.721880,-107.0
2023-08-15 17:47:19.729570,-102.0
2023-08-15 17:47:19.737259,-47.0
2023-08-15 17:47:19.744949,123.0
2023-08-15 17:47:19.752639,404.0
2023-08-15 17:47:19.760328,509.0
2023-08-15 17:47:19.768018,161.0
2023-08-15 17:47:19.775707,-402.0
2023-08-15 17:47:19.783397,-604.0
2023-08-15 17:47:19.791087,-316.0
2023-08-15 17:47:19.798776,-64.0
2023-08-15 17:47:19.806466,-88.0
2023-08-15 17:47:19.814155,-109.0
2023-08-15 17:47:19.821845,-61.0
2023-08-15 17:47:19.829535,-64.0
2023-08-15 17:47:19.837224,-73.0
2023-08-15 17:47:19.844914,-54.0
2023-08-15 17:47:19.852604,-45.0
2023-08-15 17:47:19.860293,-47.0
2023-08-15 17:47:19.867983,-35.0
2023-08-15 17:47:19.875672,-21.0
2023-08-15 17:47:19.883362,-14.0
2023-08-15 17:47:19.891052,0.0
2023-08-15 17:47:19.898741,14.0
2023-08-15 17:47:19.906431,21.0
2023-08-15 17:47:19.914120,33.0
2023-08-15 17:47:19.921810,59.0
2023-08-15 17:47:19.929500,80.0
2023-08-15 17:47:19.937189,95.0
2023-08-15 17:47:19.944879,109.0
2023-08-15 17:47:19.952569,114.0
2023-08-15 17:47:19.960258,114.0
2023-08-15 17:47:19.967948,121.0
2023-08-15 17:47:19.975637,116.0
2023-08-15 17:47:19.983327,97.0
2023-08-15 17:47:19.991017,69.0
2023-08-15 17:47:19.998706,28.0
2023-08-15 17:47:20.006396,-21.0
2023-08-15 17:47:20.014085,-73.0
2023-08-15 17:47:20.021775,-111.0
2023-08-15 17:47:20.029465,-142.0
2023-08-15 17:47:20.037154,-169.0
2023-08-15 17:47:20.044844,-185.0
2023-08-15 17:47:20.052534,-192.0
2023-08-15 17:47:20.060223,-195.0
2023-08-15 17:47:20.067913,-188.0
2023-08-15 17:47:20.075602,-183.0
2023-08-15 17:47:20.083292,-185.0
2023-08-15 17:47:20.090982,-178.0
2023-08-15 17:47:20.098671,-166.0
2023-08-15 17:47:20.106361,-161.0
2023-08-15 17:47:20.114050,-154.0
2023-08-15 17:47:20.121740,-145.0
2023-08-15 17:47:20.129430,-140.0
2023-08-15 17:47:20.137119,-140.0
2023-08-15 17:47:20.144809,-138.0
2023-08-15 17:47:20.152499,-128.0
2023-08-15 17:47:20.160188,-121.0
2023-08-15 17:47:20.167878,-123.0
2023-08-15 17:47:20.175567,-126.0
2023-08-15 17:47:20.183257,-119.0
2023-08-15 17:47:20.190947,-114.0
2023-08-15 17:47:20.198636,-116.0
2023-08-15 17:47:20.206326,-111.0
2023-08-15 17:47:20.214015,-111.0
2023-08-15 17:47:20.221705,-116.0
2023-08-15 17:47:20.229395,-116.0
2023-08-15 17:47:20.237084,-116.0
2023-08-15 17:47:20.244774,-116.0
2023-08-15 17:47:20.252464,-111.0
2023-08-15 17:47:20.260153,-107.0
2023-08-15 17:47:20.267843,-109.0
2023-08-15 17:47:20.275532,-104.0
2023-08-15 17:47:20.283222,-97.0
2023-08-15 17:47:20.290912,-90.0
2023-08-15 17:47:20.298601,-83.0
2023-08-15 17:47:20.306291,-76.0
2023-08-15 17:47:20.313980,-64.0
2023-08-15 17:47:20.321670,-49.0
2023-08-15 17:47:20.329360,-49.0
2023-08-15 17:47:20.337049,-66.0
2023-08-15 17:47:20.344739,-90.0
2023-08-15 17:47:20.352429,-102.0
2023-08-15 17:47:20.360118,-97.0
2023-08-15 17:47:20.367808,-95.0
2023-08-15 17:47:20.375497,-95.0
2023-08-15 17:47:20.383187,-80.0
2023-08-15 17:47:20.390877,-28.0
2023-08-15 17:47:20.398566,145.0
2023-08-15 17:47:20.406256,426.0
2023-08-15 17:47:20.413945,509.0
2023-08-15 17:47:20.421635,140.0
2023-08-15 17:47:20.429325,-402.0
2023-08-15 17:47:20.437014,-559.0
2023-08-15 17:47:20.444704,-278.0
2023-08-15 17:47:20.452394,-61.0
2023-08-15 17:47:20.460083,-83.0
2023-08-15 17:47:20.467773,-90.0
2023-08-15 17:47:20.475462,-49.0
2023-08-15 17:47:20.483152,-57.0
2023-08-15 17:47:20.490842,-66.0
2023-08-15 17:47:20.498531,-49.0
2023-08-15 17:47:20.506221,-42.0
2023-08-15 17:47:20.513910,-38.0
2023-08-15 17:47:20.521600,-23.0
2023-08-15 17:47:20.529290,-14.0
2023-08-15 17:47:20.536979,-14.0
2023-08-15 17:47:20.544669,-9.0
2023-08-15 17:47:20.552359,4.0
2023-08-15 17:47:20.560048,23.0
2023-08-15 17:47:20.567738,38.0
2023-08-15 17:47:20.575427,57.0
2023-08-15 17:47:20.583117,73.0
2023-08-15 17:47:20.590807,88.0
2023-08-15 17:47:20.598496,107.0
2023-08-15 17:47:20.606186,123.0
2023-08-15 17:47:20.613875,128.0
2023-08-15 17:47:20.621565,128.0
2023-08-15 17:47:20.629255,123.0
2023-08-15 17:47:20.636944,107.0
2023-08-15 17:47:20.644634,83.0
2023-08-15 17:47:20.652324,47.0
2023-08-15 17:47:20.660013,-2.0
2023-08-15 17:47:20.667703,-52.0
2023-08-15 17:47:20.675392,-95.0
2023-08-15 17:47:20.683082,-126.0
2023-08-15 17:47:20.690772,-145.0
2023-08-15 17:47:20.698461,-154.0
2023-08-15 17:47:20.706151,-159.0
2023-08-15 17:47:20.713840,-161.0
2023-08-15 17:47:20.721530,-161.0
2023-08-15 17:47:20.729220,-161.0
2023-08-15 17:47:20.736909,-161.0
2023-08-15 17:47:20.744599,-154.0
2023-08-15 17:47:20.752289,-145.0
2023-08-15 17:47:20.759978,-138.0
2023-08-15 17:47:20.767668,-130.0
2023-08-15 17:47:20.775357,-126.0
2023-08-15 17:47:20.783047,-123.0
2023-08-15 17:47:20.790737,-119.0
2023-08-15 17:47:20.798426,-111.0
2023-08-15 17:47:20.806116,-109.0
2023-08-15 17:47:20.813805,-107.0
2023-08-15 17:47:20.821495,-102.0
2023-08-15 17:47:20.829185,-99.0
2023-08-15 17:47:20.836874,-97.0
2023-08-15 17:47:20.844564,-97.0
2023-08-15 17:47:20.852254,-97.0
2023-08-15 17:47:20.859943,-99.0
2023-08-15 17:47:20.867633,-99.0
2023-08-15 17:47:20.875322,-97.0
2023-08-15 17:47:20.883012,-95.0
2023-08-15 17:47:20.890702,-97.0
2023-08-15 17:47:20.898391,-97.0
2023-08-15 17:47:20.906081,-95.0
2023-08-15 17:47:20.913770,-97.0
2023-08-15 17:47:20.921460,-95.0
2023-08-15 17:47:20.929150,-90.0
2023-08-15 17:47:20.936839,-88.0
2023-08-15 17:47:20.944529,-80.0
2023-08-15 17:47:20.952218,-71.0
2023-08-15 17:47:20.959908,-69.0
2023-08-15 17:47:20.967598,-61.0
2023-08-15 17:47:20.975287,-45.0
2023-08-15 17:47:20.982977,-45.0
2023-08-15 17:47:20.990667,-61.0
2023-08-15 17:47:20.998356,-85.0
2023-08-15 17:47:21.006046,-104.0
2023-08-15 17:47:21.013735,-97.0
2023-08-15 17:47:21.021425,-88.0
2023-08-15 17:47:21.029115,-92.0
2023-08-15 17:47:21.036804,-99.0
2023-08-15 17:47:21.044494,-52.0
2023-08-15 17:47:21.052183,111.0
2023-08-15 17:47:21.059873,383.0
2023-08-15 17:47:21.067563,516.0
2023-08-15 17:47:21.075252,218.0
2023-08-15 17:47:21.082942,-335.0
2023-08-15 17:47:21.090632,-578.0
2023-08-15 17:47:21.098321,-354.0
2023-08-15 17:47:21.106011,-114.0
2023-08-15 17:47:21.113700,-99.0
2023-08-15 17:47:21.121390,-111.0
2023-08-15 17:47:21.129080,-76.0
2023-08-15 17:47:21.136769,-73.0
2023-08-15 17:47:21.144459,-83.0
2023-08-15 17:47:21.152148,-61.0
2023-08-15 17:47:21.159838,-45.0
2023-08-15 17:47:21.167528,-47.0
2023-08-15 17:47:21.175217,-38.0
2023-08-15 17:47:21.182907,-21.0
2023-08-15 17:47:21.190597,-9.0
2023-08-15 17:47:21.198286,4.0
2023-08-15 17:47:21.205976,16.0
2023-08-15 17:47:21.213665,30.0
2023-08-15 17:47:21.221355,47.0
2023-08-15 17:47:21.229045,64.0
2023-08-15 17:47:21.236734,85.0
2023-08-15 17:47:21.244424,107.0
2023-08-15 17:47:21.252113,121.0
2023-08-15 17:47:21.259803,133.0
2023-08-15 17:47:21.267493,138.0
2023-08-15 17:47:21.275182,138.0
2023-08-15 17:47:21.282872,133.0
2023-08-15 17:47:21.290562,121.0
2023-08-15 17:47:21.298251,97.0
2023-08-15 17:47:21.305941,52.0
2023-08-15 17:47:21.313630,0.0
2023-08-15 17:47:21.321320,-45.0
2023-08-15 17:47:21.329010,-85.0
2023-08-15 17:47:21.336699,-121.0
2023-08-15 17:47:21.344389,-147.0
2023-08-15 17:47:21.352078,-161.0
2023-08-15 17:47:21.359768,-169.0
2023-08-15 17:47:21.367458,-166.0
2023-08-15 17:47:21.375147,-169.0
2023-08-15 17:47:21.382837,-171.0
2023-08-15 17:47:21.390527,-166.0
2023-08-15 17:47:21.398216,-157.0
2023-08-15 17:47:21.405906,-149.0
2023-08-15 17:47:21.413595,-142.0
2023-08-15 17:47:21.421285,-135.0
2023-08-15 17:47:21.428975,-130.0
2023-08-15 17:47:21.436664,-126.0
2023-08-15 17:47:21.444354,-121.0
2023-08-15 17:47:21.452043,-119.0
2023-08-15 17:47:21.459733,-119.0
2023-08-15 17:47:21.467423,-114.0
2023-08-15 17:47:21.475112,-111.0
2023-08-15 17:47:21.482802,-116.0
2023-08-15 17:47:21.490492,-116.0
2023-08-15 17:47:21.498181,-109.0
2023-08-15 17:47:21.505871,-107.0
2023-08-15 17:47:21.513560,-109.0
2023-08-15 17:47:21.521250,-114.0
2023-08-15 17:47:21.528940,-114.0
2023-08-15 17:47:21.536629,-107.0
2023-08-15 17:47:21.544319,-104.0
2023-08-15 17:47:21.552008,-109.0
2023-08-15 17:47:21.559698,-111.0
2023-08-15 17:47:21.567388,-119.0
2023-08-15 17:47:21.575077,-133.0
2023-08-15 17:47:21.582767,-135.0
2023-08-15 17:47:21.590457,-119.0
2023-08-15 17:47:21.598146,-107.0
2023-08-15 17:47:21.605836,-104.0
2023-08-15 17:47:21.613525,-95.0
2023-08-15 17:47:21.621215,-78.0
2023-08-15 17:47:21.628905,-73.0
2023-08-15 17:47:21.636594,-90.0
2023-08-15 17:47:21.644284,-114.0
2023-08-15 17:47:21.651973,-126.0
2023-08-15 17:47:21.659663,-116.0
2023-08-15 17:47:21.667353,-111.0
2023-08-15 17:47:21.675042,-114.0
2023-08-15 17:47:21.682732,-92.0
2023-08-15 17:47:21.690422,7.0
2023-08-15 17:47:21.698111,242.0
2023-08-15 17:47:21.705801,514.0
2023-08-15 17:47:21.713490,466.0
2023-08-15 17:47:21.721180,-26.0
2023-08-15 17:47:21.728870,-516.0
2023-08-15 17:47:21.736559,-533.0
2023-08-15 17:47:21.744249,-245.0
2023-08-15 17:47:21.751938,-104.0
2023-08-15 17:47:21.759628,-116.0
2023-08-15 17:47:21.767318,-95.0
2023-08-15 17:47:21.775007,-76.0
2023-08-15 17:47:21.782697,-80.0
2023-08-15 17:47:21.790387,-71.0
2023-08-15 17:47:21.798076,-57.0
2023-08-15 17:47:21.805766,-49.0
2023-08-15 17:47:21.813455,-40.0
2023-08-15 17:47:21.821145,-26.0
2023-08-15 17:47:21.828835,-16.0
2023-08-15 17:47:21.836524,-4.0
2023-08-15 17:47:21.844214,9.0
2023-08-15 17:47:21.851903,23.0
2023-08-15 17:47:21.859593,42.0
2023-08-15 17:47:21.867283,61.0
2023-08-15 17:47:21.874972,80.0
2023-08-15 17:47:21.882662,99.0
2023-08-15 17:47:21.890352,119.0
2023-08-15 17:47:21.898041,133.0
2023-08-15 17:47:21.905731,142.0
2023-08-15 17:47:21.913420,147.0
2023-08-15 17:47:21.921110,142.0
2023-08-15 17:47:21.928800,128.0
2023-08-15 17:47:21.936489,107.0
2023-08-15 17:47:21.944179,76.0
2023-08-15 17:47:21.951868,28.0
2023-08-15 17:47:21.959558,-28.0
2023-08-15 17:47:21.967248,-78.0
2023-08-15 17:47:21.974937,-119.0
2023-08-15 17:47:21.982627,-149.0
2023-08-15 17:47:21.990317,-166.0
2023-08-15 17:47:21.998006,-173.0
2023-08-15 17:47:22.005696,-176.0
2023-08-15 17:47:22.013385,-178.0
2023-08-15 17:47:22.021075,-176.0
2023-08-15 17:47:22.028765,-173.0
2023-08-15 17:47:22.036454,-166.0
2023-08-15 17:47:22.044144,-161.0
2023-08-15 17:47:22.051833,-154.0
2023-08-15 17:47:22.059523,-147.0
2023-08-15 17:47:22.067213,-147.0
2023-08-15 17:47:22.074902,-147.0
2023-08-15 17:47:22.082592,-142.0
2023-08-15 17:47:22.090282,-135.0
2023-08-15 17:47:22.097971,-130.0
2023-08-15 17:47:22.105661,-126.0
2023-08-15 17:47:22.113350,-133.0
2023-08-15 17:47:22.121040,-135.0
2023-08-15 17:47:22.128730,-128.0
2023-08-15 17:47:22.136419,-123.0
2023-08-15 17:47:22.144109,-126.0
2023-08-15 17:47:22.151798,-128.0
2023-08-15 17:47:22.159488,-128.0
2023-08-15 17:47:22.167178,-126.0
2023-08-15 17:47:22.174867,-126.0
2023-08-15 17:47:22.182557,-123.0
2023-08-15 17:47:22.190247,-119.0
2023-08-15 17:47:22.197936,-116.0
2023-08-15 17:47:22.205626,-121.0
2023-08-15 17:47:22.213315,-121.0
2023-08-15 17:47:22.221005,-109.0
2023-08-15 17:47:22.228695,-104.0
2023-08-15 17:47:22.236384,-102.0
2023-08-15 17:47:22.244074,-83.0
2023-08-15 17:47:22.251763,-69.0
2023-08-15 17:47:22.259453,-71.0
2023-08-15 17:47:22.267143,-83.0
2023-08-15 17:47:22.274832,-102.0
2023-08-15 17:47:22.282522,-114.0
2023-08-15 17:47:22.290212,-107.0
2023-08-15 17:47:22.297901,-102.0
2023-08-15 17:47:22.305591,-99.0
2023-08-15 17:47:22.313280,-85.0
2023-08-15 17:47:22.320970,-4.0
2023-08-15 17:47:22.328660,223.0
2023-08-15 17:47:22.336349,502.0
2023-08-15 17:47:22.344039,478.0
2023-08-15 17:47:22.351728,0.0
2023-08-15 17:47:22.359418,-511.0
2023-08-15 17:47:22.367108,-540.0
2023-08-15 17:47:22.374797,-216.0
2023-08-15 17:47:22.382487,-57.0
2023-08-15 17:47:22.390177,-95.0
2023-08-15 17:47:22.397866,-83.0
2023-08-15 17:47:22.405556,-45.0
2023-08-15 17:47:22.413245,-54.0
2023-08-15 17:47:22.420935,-57.0
2023-08-15 17:47:22.428625,-42.0
2023-08-15 17:47:22.436314,-33.0
2023-08-15 17:47:22.444004,-26.0
2023-08-15 17:47:22.451693,-16.0
2023-08-15 17:47:22.459383,-7.0
2023-08-15 17:47:22.467073,2.0
2023-08-15 17:47:22.474762,14.0
2023-08-15 17:47:22.482452,28.0
2023-08-15 17:47:22.490142,47.0
2023-08-15 17:47:22.497831,66.0
2023-08-15 17:47:22.505521,88.0
2023-08-15 17:47:22.513210,111.0
2023-08-15 17:47:22.520900,128.0
2023-08-15 17:47:22.528590,145.0
2023-08-15 17:47:22.536279,159.0
2023-08-15 17:47:22.543969,166.0
2023-08-15 17:47:22.551658,164.0
2023-08-15 17:47:22.559348,152.0
2023-08-15 17:47:22.567038,128.0
2023-08-15 17:47:22.574727,90.0
2023-08-15 17:47:22.582417,30.0
2023-08-15 17:47:22.590107,-30.0
2023-08-15 17:47:22.597796,-76.0
2023-08-15 17:47:22.605486,-111.0
2023-08-15 17:47:22.613175,-145.0
2023-08-15 17:47:22.620865,-166.0
2023-08-15 17:47:22.628555,-173.0
2023-08-15 17:47:22.636244,-176.0
2023-08-15 17:47:22.643934,-176.0
2023-08-15 17:47:22.651623,-171.0
2023-08-15 17:47:22.659313,-169.0
2023-08-15 17:47:22.667003,-164.0
2023-08-15 17:47:22.674692,-159.0
2023-08-15 17:47:22.682382,-152.0
2023-08-15 17:47:22.690072,-142.0
2023-08-15 17:47:22.697761,-135.0
2023-08-15 17:47:22.705451,-133.0
2023-08-15 17:47:22.713140,-128.0
2023-08-15 17:47:22.720830,-121.0
2023-08-15 17:47:22.728520,-119.0
2023-08-15 17:47:22.736209,-119.0
2023-08-15 17:47:22.743899,-121.0
2023-08-15 17:47:22.751588,-121.0
2023-08-15 17:47:22.759278,-119.0
2023-08-15 17:47:22.766968,-119.0
2023-08-15 17:47:22.774657,-114.0
2023-08-15 17:47:22.782347,-109.0
2023-08-15 17:47:22.790037,-111.0
2023-08-15 17:47:22.797726,-114.0
2023-08-15 17:47:22.805416,-111.0
2023-08-15 17:47:22.813105,-111.0
2023-08-15 17:47:22.820795,-114.0
2023-08-15 17:47:22.828485,-107.0
2023-08-15 17:47:22.836174,-102.0
2023-08-15 17:47:22.843864,-104.0
2023-08-15 17:47:22.851553,-109.0
2023-08-15 17:47:22.859243,-97.0
2023-08-15 17:47:22.866933,-88.0
2023-08-15 17:47:22.874622,-88.0
2023-08-15 17:47:22.882312,-78.0
2023-08-15 17:47:22.890002,-59.0
2023-08-15 17:47:22.897691,-57.0
2023-08-15 17:47:22.905381,-61.0
2023-08-15 17:47:22.913070,-80.0
2023-08-15 17:47:22.920760,-109.0
2023-08-15 17:47:22.928450,-109.0
2023-08-15 17:47:22.936139,-95.0
2023-08-15 17:47:22.943829,-97.0
2023-08-15 17:47:22.951518,-102.0
2023-08-15 17:47:22.959208,-76.0
2023-08-15 17:47:22.966898,33.0
2023-08-15 17:47:22.974587,288.0
2023-08-15 17:47:22.982277,526.0
2023-08-15 17:47:22.989967,383.0
2023-08-15 17:47:22.997656,-152.0
2023-08-15 17:47:23.005346,-564.0
2023-08-15 17:47:23.013035,-457.0
2023-08-15 17:47:23.020725,-126.0
2023-08-15 17:47:23.028415,-40.0
2023-08-15 17:47:23.036104,-97.0
2023-08-15 17:47:23.043794,-73.0
2023-08-15 17:47:23.051483,-49.0
2023-08-15 17:47:23.059173,-71.0
2023-08-15 17:47:23.066863,-61.0
2023-08-15 17:47:23.074552,-38.0
2023-08-15 17:47:23.082242,-38.0
2023-08-15 17:47:23.089932,-38.0
2023-08-15 17:47:23.097621,-23.0
2023-08-15 17:47:23.105311,-14.0
2023-08-15 17:47:23.113000,-11.0
2023-08-15 17:47:23.120690,4.0
2023-08-15 17:47:23.128380,23.0
2023-08-15 17:47:23.136069,33.0
2023-08-15 17:47:23.143759,45.0
2023-08-15 17:47:23.151448,71.0
2023-08-15 17:47:23.159138,102.0
2023-08-15 17:47:23.166828,119.0
2023-08-15 17:47:23.174517,133.0
2023-08-15 17:47:23.182207,147.0
2023-08-15 17:47:23.189897,152.0
2023-08-15 17:47:23.197586,145.0
2023-08-15 17:47:23.205276,133.0
2023-08-15 17:47:23.212965,107.0
2023-08-15 17:47:23.220655,64.0
2023-08-15 17:47:23.228345,11.0
2023-08-15 17:47:23.236034,-49.0
2023-08-15 17:47:23.243724,-109.0
2023-08-15 17:47:23.251413,-145.0
2023-08-15 17:47:23.259103,-166.0
2023-08-15 17:47:23.266793,-188.0
2023-08-15 17:47:23.274482,-195.0
2023-08-15 17:47:23.282172,-197.0
2023-08-15 17:47:23.289862,-197.0
2023-08-15 17:47:23.297551,-190.0
2023-08-15 17:47:23.305241,-188.0
2023-08-15 17:47:23.312930,-190.0
2023-08-15 17:47:23.320620,-183.0
2023-08-15 17:47:23.328310,-173.0
2023-08-15 17:47:23.335999,-171.0
2023-08-15 17:47:23.343689,-166.0
2023-08-15 17:47:23.351378,-154.0
2023-08-15 17:47:23.359068,-152.0
2023-08-15 17:47:23.366758,-149.0
2023-08-15 17:47:23.374447,-142.0
2023-08-15 17:47:23.382137,-135.0
2023-08-15 17:47:23.389827,-130.0
2023-08-15 17:47:23.397516,-130.0
2023-08-15 17:47:23.405206,-126.0
2023-08-15 17:47:23.412895,-121.0
2023-08-15 17:47:23.420585,-121.0
2023-08-15 17:47:23.428275,-119.0
2023-08-15 17:47:23.435964,-114.0
2023-08-15 17:47:23.443654,-116.0
2023-08-15 17:47:23.451343,-119.0
2023-08-15 17:47:23.459033,-116.0
2023-08-15 17:47:23.466723,-114.0
2023-08-15 17:47:23.474412,-111.0
2023-08-15 17:47:23.482102,-104.0
2023-08-15 17:47:23.489792,-97.0
2023-08-15 17:47:23.497481,-95.0
2023-08-15 17:47:23.505171,-88.0
2023-08-15 17:47:23.512860,-83.0
2023-08-15 17:47:23.520550,-78.0
2023-08-15 17:47:23.528240,-61.0
2023-08-15 17:47:23.535929,-45.0
2023-08-15 17:47:23.543619,-42.0
2023-08-15 17:47:23.551308,-54.0
2023-08-15 17:47:23.558998,-80.0
2023-08-15 17:47:23.566688,-97.0
2023-08-15 17:47:23.574377,-90.0
2023-08-15 17:47:23.582067,-85.0
2023-08-15 17:47:23.589757,-92.0
2023-08-15 17:47:23.597446,-88.0
2023-08-15 17:47:23.605136,-45.0
2023-08-15 17:47:23.612825,102.0
2023-08-15 17:47:23.620515,376.0
2023-08-15 17:47:23.628205,516.0
2023-08-15 17:47:23.635894,226.0
2023-08-15 17:47:23.643584,-318.0
2023-08-15 17:47:23.651273,-568.0
2023-08-15 17:47:23.658963,-352.0
2023-08-15 17:47:23.666653,-92.0
2023-08-15 17:47:23.674342,-71.0
2023-08-15 17:47:23.682032,-99.0
2023-08-15 17:47:23.689722,-66.0
2023-08-15 17:47:23.697411,-57.0
2023-08-15 17:47:23.705101,-66.0
2023-08-15 17:47:23.712790,-54.0
2023-08-15 17:47:23.720480,-40.0
2023-08-15 17:47:23.728170,-30.0
2023-08-15 17:47:23.735859,-19.0
2023-08-15 17:47:23.743549,-11.0
2023-08-15 17:47:23.751238,2.0
2023-08-15 17:47:23.758928,23.0
2023-08-15 17:47:23.766618,35.0
2023-08-15 17:47:23.774307,38.0
2023-08-15 17:47:23.781997,52.0
2023-08-15 17:47:23.789687,76.0
2023-08-15 17:47:23.797376,102.0
2023-08-15 17:47:23.805066,123.0
2023-08-15 17:47:23.812755,140.0
2023-08-15 17:47:23.820445,149.0
2023-08-15 17:47:23.828135,152.0
2023-08-15 17:47:23.835824,147.0
2023-08-15 17:47:23.843514,149.0
2023-08-15 17:47:23.851203,140.0
2023-08-15 17:47:23.858893,107.0
2023-08-15 17:47:23.866583,57.0
2023-08-15 17:47:23.874272,4.0
2023-08-15 17:47:23.881962,-42.0
2023-08-15 17:47:23.889652,-83.0
2023-08-15 17:47:23.897341,-116.0
2023-08-15 17:47:23.905031,-138.0
2023-08-15 17:47:23.912720,-154.0
2023-08-15 17:47:23.920410,-166.0
2023-08-15 17:47:23.928100,-173.0
2023-08-15 17:47:23.935789,-173.0
2023-08-15 17:47:23.943479,-171.0
2023-08-15 17:47:23.951168,-169.0
2023-08-15 17:47:23.958858,-169.0
2023-08-15 17:47:23.966548,-161.0
2023-08-15 17:47:23.974237,-152.0
2023-08-15 17:47:23.981927,-147.0
2023-08-15 17:47:23.989617,-145.0
2023-08-15 17:47:23.997306,-145.0
2023-08-15 17:47:24.004996,-135.0
2023-08-15 17:47:24.012685,-126.0
2023-08-15 17:47:24.020375,-123.0
2023-08-15 17:47:24.028065,-123.0
2023-08-15 17:47:24.035754,-119.0
2023-08-15 17:47:24.043444,-114.0
2023-08-15 17:47:24.051133,-114.0
2023-08-15 17:47:24.058823,-114.0
2023-08-15 17:47:24.066513,-109.0
2023-08-15 17:47:24.074202,-111.0
2023-08-15 17:47:24.081892,-114.0
2023-08-15 17:47:24.089582,-114.0
2023-08-15 17:47:24.097271,-123.0
2023-08-15 17:47:24.104961,-126.0
2023-08-15 17:47:24.112650,-119.0
2023-08-15 17:47:24.120340,-116.0
2023-08-15 17:47:24.128030,-116.0
2023-08-15 17:47:24.135719,-116.0
2023-08-15 17:47:24.143409,-119.0
2023-08-15 17:47:24.151098,-109.0
2023-08-15 17:47:24.158788,-99.0
2023-08-15 17:47:24.166478,-97.0
2023-08-15 17:47:24.174167,-90.0
2023-08-15 17:47:24.181857,-83.0
2023-08-15 17:47:24.189547,-85.0
2023-08-15 17:47:24.197236,-97.0
2023-08-15 17:47:24.204926,-116.0
2023-08-15 17:47:24.212615,-128.0
2023-08-15 17:47:24.220305,-123.0
2023-08-15 17:47:24.227995,-119.0
2023-08-15 17:47:24.235684,-123.0
2023-08-15 17:47:24.243374,-111.0
2023-08-15 17:47:24.251063,-30.0
2023-08-15 17:47:24.258753,180.0
2023-08-15 17:47:24.266443,454.0
2023-08-15 17:47:24.274132,459.0
2023-08-15 17:47:24.281822,14.0
2023-08-15 17:47:24.289512,-495.0
2023-08-15 17:47:24.297201,-566.0
2023-08-15 17:47:24.304891,-292.0
2023-08-15 17:47:24.312580,-130.0
2023-08-15 17:47:24.320270,-140.0
2023-08-15 17:47:24.327960,-128.0
2023-08-15 17:47:24.335649,-104.0
2023-08-15 17:47:24.343339,-109.0
2023-08-15 17:47:24.351028,-102.0
2023-08-15 17:47:24.358718,-85.0
2023-08-15 17:47:24.366408,-83.0
2023-08-15 17:47:24.374097,-78.0
2023-08-15 17:47:24.381787,-61.0
2023-08-15 17:47:24.389477,-45.0
2023-08-15 17:47:24.397166,-38.0
2023-08-15 17:47:24.404856,-40.0
2023-08-15 17:47:24.412545,-33.0
2023-08-15 17:47:24.420235,-14.0
2023-08-15 17:47:24.427925,2.0
2023-08-15 17:47:24.435614,21.0
2023-08-15 17:47:24.443304,45.0
2023-08-15 17:47:24.450993,57.0
2023-08-15 17:47:24.458683,61.0
2023-08-15 17:47:24.466373,73.0
2023-08-15 17:47:24.474062,88.0
2023-08-15 17:47:24.481752,92.0
2023-08-15 17:47:24.489442,83.0
2023-08-15 17:47:24.497131,64.0
2023-08-15 17:47:24.504821,28.0
2023-08-15 17:47:24.512510,-21.0
2023-08-15 17:47:24.520200,-80.0
2023-08-15 17:47:24.527890,-133.0
2023-08-15 17:47:24.535579,-169.0
2023-08-15 17:47:24.543269,-197.0
2023-08-15 17:47:24.550958,-221.0
2023-08-15 17:47:24.558648,-235.0
2023-08-15 17:47:24.566338,-238.0
2023-08-15 17:47:24.574027,-233.0
2023-08-15 17:47:24.581717,-235.0
2023-08-15 17:47:24.589407,-238.0
2023-08-15 17:47:24.597096,-233.0
2023-08-15 17:47:24.604786,-228.0
2023-08-15 17:47:24.612475,-228.0
2023-08-15 17:47:24.620165,-216.0
2023-08-15 17:47:24.627855,-207.0
2023-08-15 17:47:24.635544,-204.0
2023-08-15 17:47:24.643234,-199.0
2023-08-15 17:47:24.650923,-192.0
2023-08-15 17:47:24.658613,-190.0
2023-08-15 17:47:24.666303,-188.0
2023-08-15 17:47:24.673992,-188.0
2023-08-15 17:47:24.681682,-188.0
2023-08-15 17:47:24.689372,-185.0
2023-08-15 17:47:24.697061,-180.0
2023-08-15 17:47:24.704751,-178.0
2023-08-15 17:47:24.712440,-178.0
2023-08-15 17:47:24.720130,-176.0
2023-08-15 17:47:24.727820,-176.0
2023-08-15 17:47:24.735509,-180.0
2023-08-15 17:47:24.743199,-176.0
2023-08-15 17:47:24.750888,-169.0
2023-08-15 17:47:24.758578,-169.0
2023-08-15 17:47:24.766268,-173.0
2023-08-15 17:47:24.773957,-169.0
2023-08-15 17:47:24.781647,-161.0
2023-08-15 17:47:24.789337,-164.0
2023-08-15 17:47:24.797026,-164.0
2023-08-15 17:47:24.804716,-142.0
2023-08-15 17:47:24.812405,-123.0
2023-08-15 17:47:24.820095,-126.0
2023-08-15 17:47:24.827785,-135.0
2023-08-15 17:47:24.835474,-157.0
2023-08-15 17:47:24.843164,-169.0
2023-08-15 17:47:24.850853,-161.0
2023-08-15 17:47:24.858543,-154.0
2023-08-15 17:47:24.866233,-157.0
2023-08-15 17:47:24.873922,-138.0
2023-08-15 17:47:24.881612,-52.0
2023-08-15 17:47:24.889302,164.0
2023-08-15 17:47:24.896991,447.0
2023-08-15 17:47:24.904681,449.0
2023-08-15 17:47:24.912370,-11.0
2023-08-15 17:47:24.920060,-542.0
2023-08-15 17:47:24.927750,-611.0
2023-08-15 17:47:24.935439,-314.0
2023-08-15 17:47:24.943129,-145.0
2023-08-15 17:47:24.950818,-164.0
2023-08-15 17:47:24.958508,-149.0
2023-08-15 17:47:24.966198,-119.0
2023-08-15 17:47:24.973887,-128.0
2023-08-15 17:47:24.981577,-121.0
2023-08-15 17:47:24.989267,-95.0
2023-08-15 17:47:24.996956,-88.0
2023-08-15 17:47:25.004646,-85.0
2023-08-15 17:47:25.012335,-76.0
2023-08-15 17:47:25.020025,-59.0
2023-08-15 17:47:25.027715,-40.0
2023-08-15 17:47:25.035404,-26.0
2023-08-15 17:47:25.043094,-14.0
2023-08-15 17:47:25.050783,7.0
2023-08-15 17:47:25.058473,30.0
2023-08-15 17:47:25.066163,45.0
2023-08-15 17:47:25.073852,61.0
2023-08-15 17:47:25.081542,88.0
2023-08-15 17:47:25.089232,111.0
2023-08-15 17:47:25.096921,121.0
2023-08-15 17:47:25.104611,121.0
2023-08-15 17:47:25.112300,116.0
2023-08-15 17:47:25.119990,109.0
2023-08-15 17:47:25.127680,92.0
2023-08-15 17:47:25.135369,59.0
2023-08-15 17:47:25.143059,4.0
2023-08-15 17:47:25.150748,-52.0
2023-08-15 17:47:25.158438,-104.0
2023-08-15 17:47:25.166128,-152.0
2023-08-15 17:47:25.173817,-185.0
2023-08-15 17:47:25.181507,-202.0
2023-08-15 17:47:25.189197,-211.0
2023-08-15 17:47:25.196886,-216.0
2023-08-15 17:47:25.204576,-214.0
2023-08-15 17:47:25.212265,-211.0
2023-08-15 17:47:25.219955,-209.0
2023-08-15 17:47:25.227645,-202.0
2023-08-15 17:47:25.235334,-195.0
2023-08-15 17:47:25.243024,-190.0
2023-08-15 17:47:25.250713,-183.0
2023-08-15 17:47:25.258403,-173.0
2023-08-15 17:47:25.266093,-171.0
2023-08-15 17:47:25.273782,-169.0
2023-08-15 17:47:25.281472,-154.0
2023-08-15 17:47:25.289162,-145.0
2023-08-15 17:47:25.296851,-145.0
2023-08-15 17:47:25.304541,-142.0
2023-08-15 17:47:25.312230,-138.0
2023-08-15 17:47:25.319920,-133.0
2023-08-15 17:47:25.327610,-130.0
2023-08-15 17:47:25.335299,-128.0
2023-08-15 17:47:25.342989,-126.0
2023-08-15 17:47:25.350678,-126.0
2023-08-15 17:47:25.358368,-130.0
2023-08-15 17:47:25.366058,-128.0
2023-08-15 17:47:25.373747,-123.0
2023-08-15 17:47:25.381437,-123.0
2023-08-15 17:47:25.389127,-126.0
2023-08-15 17:47:25.396816,-123.0
2023-08-15 17:47:25.404506,-123.0
2023-08-15 17:47:25.412195,-123.0
2023-08-15 17:47:25.419885,-116.0
2023-08-15 17:47:25.427575,-111.0
2023-08-15 17:47:25.435264,-111.0
2023-08-15 17:47:25.442954,-99.0
2023-08-15 17:47:25.450643,-78.0
