time,ECG
2023-08-12 18:44:40.192103,-14.0
2023-08-12 18:44:40.199793,-30.0
2023-08-12 18:44:40.207482,-54.0
2023-08-12 18:44:40.215172,-64.0
2023-08-12 18:44:40.222861,-69.0
2023-08-12 18:44:40.230551,-83.0
2023-08-12 18:44:40.238240,-88.0
2023-08-12 18:44:40.245930,-83.0
2023-08-12 18:44:40.253619,-85.0
2023-08-12 18:44:40.261309,-78.0
2023-08-12 18:44:40.268998,-66.0
2023-08-12 18:44:40.276688,-38.0
2023-08-12 18:44:40.284377,111.0
2023-08-12 18:44:40.292067,473.0
2023-08-12 18:44:40.299756,849.0
2023-08-12 18:44:40.307446,702.0
2023-08-12 18:44:40.315136,-123.0
2023-08-12 18:44:40.322825,-702.0
2023-08-12 18:44:40.330515,-478.0
2023-08-12 18:44:40.338204,-207.0
2023-08-12 18:44:40.345894,-188.0
2023-08-12 18:44:40.353583,-97.0
2023-08-12 18:44:40.361273,-42.0
2023-08-12 18:44:40.368962,-83.0
2023-08-12 18:44:40.376652,-73.0
2023-08-12 18:44:40.384341,-45.0
2023-08-12 18:44:40.392031,-52.0
2023-08-12 18:44:40.399720,-54.0
2023-08-12 18:44:40.407410,-40.0
2023-08-12 18:44:40.415099,-40.0
2023-08-12 18:44:40.422789,-42.0
2023-08-12 18:44:40.430479,-35.0
2023-08-12 18:44:40.438168,-28.0
2023-08-12 18:44:40.445858,-23.0
2023-08-12 18:44:40.453547,-14.0
2023-08-12 18:44:40.461237,-11.0
2023-08-12 18:44:40.468926,-7.0
2023-08-12 18:44:40.476616,0.0
2023-08-12 18:44:40.484305,9.0
2023-08-12 18:44:40.491995,14.0
2023-08-12 18:44:40.499684,21.0
2023-08-12 18:44:40.507374,30.0
2023-08-12 18:44:40.515063,40.0
2023-08-12 18:44:40.522753,49.0
2023-08-12 18:44:40.530442,59.0
2023-08-12 18:44:40.538132,69.0
2023-08-12 18:44:40.545822,76.0
2023-08-12 18:44:40.553511,78.0
2023-08-12 18:44:40.561201,73.0
2023-08-12 18:44:40.568890,64.0
2023-08-12 18:44:40.576580,54.0
2023-08-12 18:44:40.584269,42.0
2023-08-12 18:44:40.591959,21.0
2023-08-12 18:44:40.599648,-4.0
2023-08-12 18:44:40.607338,-35.0
2023-08-12 18:44:40.615027,-64.0
2023-08-12 18:44:40.622717,-80.0
2023-08-12 18:44:40.630406,-95.0
2023-08-12 18:44:40.638096,-111.0
2023-08-12 18:44:40.645785,-121.0
2023-08-12 18:44:40.653475,-130.0
2023-08-12 18:44:40.661165,-142.0
2023-08-12 18:44:40.668854,-145.0
2023-08-12 18:44:40.676544,-140.0
2023-08-12 18:44:40.684233,-138.0
2023-08-12 18:44:40.691923,-138.0
2023-08-12 18:44:40.699612,-133.0
2023-08-12 18:44:40.707302,-128.0
2023-08-12 18:44:40.714991,-128.0
2023-08-12 18:44:40.722681,-126.0
2023-08-12 18:44:40.730370,-121.0
2023-08-12 18:44:40.738060,-116.0
2023-08-12 18:44:40.745749,-114.0
2023-08-12 18:44:40.753439,-109.0
2023-08-12 18:44:40.761128,-107.0
2023-08-12 18:44:40.768818,-104.0
2023-08-12 18:44:40.776507,-104.0
2023-08-12 18:44:40.784197,-102.0
2023-08-12 18:44:40.791887,-97.0
2023-08-12 18:44:40.799576,-97.0
2023-08-12 18:44:40.807266,-99.0
2023-08-12 18:44:40.814955,-97.0
2023-08-12 18:44:40.822645,-95.0
2023-08-12 18:44:40.830334,-95.0
2023-08-12 18:44:40.838024,-95.0
2023-08-12 18:44:40.845713,-95.0
2023-08-12 18:44:40.853403,-95.0
2023-08-12 18:44:40.861092,-92.0
2023-08-12 18:44:40.868782,-90.0
2023-08-12 18:44:40.876471,-88.0
2023-08-12 18:44:40.884161,-88.0
2023-08-12 18:44:40.891850,-85.0
2023-08-12 18:44:40.899540,-88.0
2023-08-12 18:44:40.907230,-90.0
2023-08-12 18:44:40.914919,-95.0
2023-08-12 18:44:40.922609,-95.0
2023-08-12 18:44:40.930298,-92.0
2023-08-12 18:44:40.937988,-92.0
2023-08-12 18:44:40.945677,-95.0
2023-08-12 18:44:40.953367,-90.0
2023-08-12 18:44:40.961056,-88.0
2023-08-12 18:44:40.968746,-85.0
2023-08-12 18:44:40.976435,-73.0
2023-08-12 18:44:40.984125,-49.0
2023-08-12 18:44:40.991814,-30.0
2023-08-12 18:44:40.999504,-23.0
2023-08-12 18:44:41.007193,-40.0
2023-08-12 18:44:41.014883,-61.0
2023-08-12 18:44:41.022573,-71.0
2023-08-12 18:44:41.030262,-78.0
2023-08-12 18:44:41.037952,-90.0
2023-08-12 18:44:41.045641,-90.0
2023-08-12 18:44:41.053331,-83.0
2023-08-12 18:44:41.061020,-80.0
2023-08-12 18:44:41.068710,-76.0
2023-08-12 18:44:41.076399,-64.0
2023-08-12 18:44:41.084089,-4.0
2023-08-12 18:44:41.091778,228.0
2023-08-12 18:44:41.099468,652.0
2023-08-12 18:44:41.107157,935.0
2023-08-12 18:44:41.114847,518.0
2023-08-12 18:44:41.122536,-392.0
2023-08-12 18:44:41.130226,-716.0
2023-08-12 18:44:41.137916,-373.0
2023-08-12 18:44:41.145605,-197.0
2023-08-12 18:44:41.153295,-178.0
2023-08-12 18:44:41.160984,-69.0
2023-08-12 18:44:41.168674,-52.0
2023-08-12 18:44:41.176363,-88.0
2023-08-12 18:44:41.184053,-61.0
2023-08-12 18:44:41.191742,-49.0
2023-08-12 18:44:41.199432,-64.0
2023-08-12 18:44:41.207121,-54.0
2023-08-12 18:44:41.214811,-40.0
2023-08-12 18:44:41.222500,-38.0
2023-08-12 18:44:41.230190,-33.0
2023-08-12 18:44:41.237879,-26.0
2023-08-12 18:44:41.245569,-23.0
2023-08-12 18:44:41.253259,-16.0
2023-08-12 18:44:41.260948,-7.0
2023-08-12 18:44:41.268638,-2.0
2023-08-12 18:44:41.276327,0.0
2023-08-12 18:44:41.284017,7.0
2023-08-12 18:44:41.291706,16.0
2023-08-12 18:44:41.299396,21.0
2023-08-12 18:44:41.307085,28.0
2023-08-12 18:44:41.314775,42.0
2023-08-12 18:44:41.322464,52.0
2023-08-12 18:44:41.330154,61.0
2023-08-12 18:44:41.337843,71.0
2023-08-12 18:44:41.345533,83.0
2023-08-12 18:44:41.353222,88.0
2023-08-12 18:44:41.360912,88.0
2023-08-12 18:44:41.368602,83.0
2023-08-12 18:44:41.376291,76.0
2023-08-12 18:44:41.383981,66.0
2023-08-12 18:44:41.391670,45.0
2023-08-12 18:44:41.399360,19.0
2023-08-12 18:44:41.407049,-11.0
2023-08-12 18:44:41.414739,-40.0
2023-08-12 18:44:41.422428,-66.0
2023-08-12 18:44:41.430118,-88.0
2023-08-12 18:44:41.437807,-99.0
2023-08-12 18:44:41.445497,-114.0
2023-08-12 18:44:41.453186,-123.0
2023-08-12 18:44:41.460876,-130.0
2023-08-12 18:44:41.468565,-138.0
2023-08-12 18:44:41.476255,-138.0
2023-08-12 18:44:41.483945,-138.0
2023-08-12 18:44:41.491634,-135.0
2023-08-12 18:44:41.499324,-133.0
2023-08-12 18:44:41.507013,-130.0
2023-08-12 18:44:41.514703,-128.0
2023-08-12 18:44:41.522392,-123.0
2023-08-12 18:44:41.530082,-119.0
2023-08-12 18:44:41.537771,-114.0
2023-08-12 18:44:41.545461,-111.0
2023-08-12 18:44:41.553150,-109.0
2023-08-12 18:44:41.560840,-107.0
2023-08-12 18:44:41.568529,-99.0
2023-08-12 18:44:41.576219,-95.0
2023-08-12 18:44:41.583908,-95.0
2023-08-12 18:44:41.591598,-97.0
2023-08-12 18:44:41.599287,-95.0
2023-08-12 18:44:41.606977,-90.0
2023-08-12 18:44:41.614667,-92.0
2023-08-12 18:44:41.622356,-90.0
2023-08-12 18:44:41.630046,-90.0
2023-08-12 18:44:41.637735,-92.0
2023-08-12 18:44:41.645425,-95.0
2023-08-12 18:44:41.653114,-92.0
2023-08-12 18:44:41.660804,-90.0
2023-08-12 18:44:41.668493,-90.0
2023-08-12 18:44:41.676183,-92.0
2023-08-12 18:44:41.683872,-95.0
2023-08-12 18:44:41.691562,-99.0
2023-08-12 18:44:41.699251,-97.0
2023-08-12 18:44:41.706941,-95.0
2023-08-12 18:44:41.714630,-90.0
2023-08-12 18:44:41.722320,-90.0
2023-08-12 18:44:41.730010,-90.0
2023-08-12 18:44:41.737699,-88.0
2023-08-12 18:44:41.745389,-85.0
2023-08-12 18:44:41.753078,-88.0
2023-08-12 18:44:41.760768,-88.0
2023-08-12 18:44:41.768457,-85.0
2023-08-12 18:44:41.776147,-85.0
2023-08-12 18:44:41.783836,-80.0
2023-08-12 18:44:41.791526,-66.0
2023-08-12 18:44:41.799215,-45.0
2023-08-12 18:44:41.806905,-23.0
2023-08-12 18:44:41.814594,-16.0
2023-08-12 18:44:41.822284,-40.0
2023-08-12 18:44:41.829973,-61.0
2023-08-12 18:44:41.837663,-64.0
2023-08-12 18:44:41.845353,-71.0
2023-08-12 18:44:41.853042,-88.0
2023-08-12 18:44:41.860732,-85.0
2023-08-12 18:44:41.868421,-78.0
2023-08-12 18:44:41.876111,-78.0
2023-08-12 18:44:41.883800,-78.0
2023-08-12 18:44:41.891490,-71.0
2023-08-12 18:44:41.899179,-23.0
2023-08-12 18:44:41.906869,204.0
2023-08-12 18:44:41.914558,661.0
2023-08-12 18:44:41.922248,1009.0
2023-08-12 18:44:41.929937,645.0
2023-08-12 18:44:41.937627,-304.0
2023-08-12 18:44:41.945316,-721.0
2023-08-12 18:44:41.953006,-395.0
2023-08-12 18:44:41.960696,-190.0
2023-08-12 18:44:41.968385,-183.0
2023-08-12 18:44:41.976075,-97.0
2023-08-12 18:44:41.983764,-73.0
2023-08-12 18:44:41.991454,-107.0
2023-08-12 18:44:41.999143,-85.0
2023-08-12 18:44:42.006833,-64.0
2023-08-12 18:44:42.014522,-69.0
2023-08-12 18:44:42.022212,-61.0
2023-08-12 18:44:42.029901,-49.0
2023-08-12 18:44:42.037591,-45.0
2023-08-12 18:44:42.045280,-42.0
2023-08-12 18:44:42.052970,-35.0
2023-08-12 18:44:42.060659,-30.0
2023-08-12 18:44:42.068349,-26.0
2023-08-12 18:44:42.076039,-19.0
2023-08-12 18:44:42.083728,-11.0
2023-08-12 18:44:42.091418,-7.0
2023-08-12 18:44:42.099107,-2.0
2023-08-12 18:44:42.106797,4.0
2023-08-12 18:44:42.114486,14.0
2023-08-12 18:44:42.122176,21.0
2023-08-12 18:44:42.129865,28.0
2023-08-12 18:44:42.137555,35.0
2023-08-12 18:44:42.145244,40.0
2023-08-12 18:44:42.152934,52.0
2023-08-12 18:44:42.160623,59.0
2023-08-12 18:44:42.168313,64.0
2023-08-12 18:44:42.176002,64.0
2023-08-12 18:44:42.183692,57.0
2023-08-12 18:44:42.191382,47.0
2023-08-12 18:44:42.199071,35.0
2023-08-12 18:44:42.206761,21.0
2023-08-12 18:44:42.214450,0.0
2023-08-12 18:44:42.222140,-23.0
2023-08-12 18:44:42.229829,-47.0
2023-08-12 18:44:42.237519,-66.0
2023-08-12 18:44:42.245208,-78.0
2023-08-12 18:44:42.252898,-88.0
2023-08-12 18:44:42.260587,-97.0
2023-08-12 18:44:42.268277,-109.0
2023-08-12 18:44:42.275966,-121.0
2023-08-12 18:44:42.283656,-126.0
2023-08-12 18:44:42.291345,-123.0
2023-08-12 18:44:42.299035,-123.0
2023-08-12 18:44:42.306725,-123.0
2023-08-12 18:44:42.314414,-121.0
2023-08-12 18:44:42.322104,-119.0
2023-08-12 18:44:42.329793,-116.0
2023-08-12 18:44:42.337483,-114.0
2023-08-12 18:44:42.345172,-114.0
2023-08-12 18:44:42.352862,-111.0
2023-08-12 18:44:42.360551,-109.0
2023-08-12 18:44:42.368241,-107.0
2023-08-12 18:44:42.375930,-107.0
2023-08-12 18:44:42.383620,-104.0
2023-08-12 18:44:42.391309,-104.0
2023-08-12 18:44:42.398999,-99.0
2023-08-12 18:44:42.406688,-97.0
2023-08-12 18:44:42.414378,-97.0
2023-08-12 18:44:42.422067,-97.0
2023-08-12 18:44:42.429757,-95.0
2023-08-12 18:44:42.437447,-99.0
2023-08-12 18:44:42.445136,-102.0
2023-08-12 18:44:42.452826,-102.0
2023-08-12 18:44:42.460515,-102.0
2023-08-12 18:44:42.468205,-104.0
2023-08-12 18:44:42.475894,-102.0
2023-08-12 18:44:42.483584,-99.0
2023-08-12 18:44:42.491273,-99.0
2023-08-12 18:44:42.498963,-97.0
2023-08-12 18:44:42.506652,-97.0
2023-08-12 18:44:42.514342,-95.0
2023-08-12 18:44:42.522031,-92.0
2023-08-12 18:44:42.529721,-90.0
2023-08-12 18:44:42.537410,-88.0
2023-08-12 18:44:42.545100,-88.0
2023-08-12 18:44:42.552790,-85.0
2023-08-12 18:44:42.560479,-85.0
2023-08-12 18:44:42.568169,-83.0
2023-08-12 18:44:42.575858,-80.0
2023-08-12 18:44:42.583548,-80.0
2023-08-12 18:44:42.591237,-80.0
2023-08-12 18:44:42.598927,-83.0
2023-08-12 18:44:42.606616,-83.0
2023-08-12 18:44:42.614306,-80.0
2023-08-12 18:44:42.621995,-76.0
2023-08-12 18:44:42.629685,-73.0
2023-08-12 18:44:42.637374,-64.0
2023-08-12 18:44:42.645064,-40.0
2023-08-12 18:44:42.652753,-19.0
2023-08-12 18:44:42.660443,-14.0
2023-08-12 18:44:42.668133,-33.0
2023-08-12 18:44:42.675822,-52.0
2023-08-12 18:44:42.683512,-59.0
2023-08-12 18:44:42.691201,-73.0
2023-08-12 18:44:42.698891,-88.0
2023-08-12 18:44:42.706580,-83.0
2023-08-12 18:44:42.714270,-78.0
2023-08-12 18:44:42.721959,-78.0
2023-08-12 18:44:42.729649,-76.0
2023-08-12 18:44:42.737338,-69.0
2023-08-12 18:44:42.745028,-16.0
2023-08-12 18:44:42.752717,228.0
2023-08-12 18:44:42.760407,711.0
2023-08-12 18:44:42.768096,1068.0
2023-08-12 18:44:42.775786,678.0
2023-08-12 18:44:42.783476,-285.0
2023-08-12 18:44:42.791165,-678.0
2023-08-12 18:44:42.798855,-342.0
2023-08-12 18:44:42.806544,-161.0
2023-08-12 18:44:42.814234,-180.0
2023-08-12 18:44:42.821923,-109.0
2023-08-12 18:44:42.829613,-85.0
2023-08-12 18:44:42.837302,-116.0
2023-08-12 18:44:42.844992,-95.0
2023-08-12 18:44:42.852681,-78.0
2023-08-12 18:44:42.860371,-88.0
2023-08-12 18:44:42.868060,-83.0
2023-08-12 18:44:42.875750,-69.0
2023-08-12 18:44:42.883439,-69.0
2023-08-12 18:44:42.891129,-66.0
2023-08-12 18:44:42.898819,-59.0
2023-08-12 18:44:42.906508,-59.0
2023-08-12 18:44:42.914198,-54.0
2023-08-12 18:44:42.921887,-45.0
2023-08-12 18:44:42.929577,-40.0
2023-08-12 18:44:42.937266,-38.0
2023-08-12 18:44:42.944956,-33.0
2023-08-12 18:44:42.952645,-26.0
2023-08-12 18:44:42.960335,-16.0
2023-08-12 18:44:42.968024,-9.0
2023-08-12 18:44:42.975714,0.0
2023-08-12 18:44:42.983403,7.0
2023-08-12 18:44:42.991093,16.0
2023-08-12 18:44:42.998782,26.0
2023-08-12 18:44:43.006472,33.0
2023-08-12 18:44:43.014162,38.0
2023-08-12 18:44:43.021851,38.0
2023-08-12 18:44:43.029541,35.0
2023-08-12 18:44:43.037230,28.0
2023-08-12 18:44:43.044920,16.0
2023-08-12 18:44:43.052609,2.0
2023-08-12 18:44:43.060299,-14.0
2023-08-12 18:44:43.067988,-38.0
2023-08-12 18:44:43.075678,-57.0
2023-08-12 18:44:43.083367,-76.0
2023-08-12 18:44:43.091057,-88.0
2023-08-12 18:44:43.098746,-95.0
2023-08-12 18:44:43.106436,-102.0
2023-08-12 18:44:43.114125,-109.0
2023-08-12 18:44:43.121815,-114.0
2023-08-12 18:44:43.129505,-121.0
2023-08-12 18:44:43.137194,-119.0
2023-08-12 18:44:43.144884,-114.0
2023-08-12 18:44:43.152573,-114.0
2023-08-12 18:44:43.160263,-114.0
2023-08-12 18:44:43.167952,-109.0
2023-08-12 18:44:43.175642,-107.0
2023-08-12 18:44:43.183331,-107.0
2023-08-12 18:44:43.191021,-104.0
2023-08-12 18:44:43.198710,-102.0
2023-08-12 18:44:43.206400,-99.0
2023-08-12 18:44:43.214089,-97.0
2023-08-12 18:44:43.221779,-97.0
2023-08-12 18:44:43.229468,-95.0
2023-08-12 18:44:43.237158,-92.0
2023-08-12 18:44:43.244847,-92.0
2023-08-12 18:44:43.252537,-92.0
2023-08-12 18:44:43.260227,-92.0
2023-08-12 18:44:43.267916,-92.0
2023-08-12 18:44:43.275606,-90.0
2023-08-12 18:44:43.283295,-90.0
2023-08-12 18:44:43.290985,-90.0
2023-08-12 18:44:43.298674,-90.0
2023-08-12 18:44:43.306364,-90.0
2023-08-12 18:44:43.314053,-92.0
2023-08-12 18:44:43.321743,-90.0
2023-08-12 18:44:43.329432,-88.0
2023-08-12 18:44:43.337122,-88.0
2023-08-12 18:44:43.344811,-90.0
2023-08-12 18:44:43.352501,-90.0
2023-08-12 18:44:43.360190,-88.0
2023-08-12 18:44:43.367880,-88.0
2023-08-12 18:44:43.375570,-88.0
2023-08-12 18:44:43.383259,-88.0
2023-08-12 18:44:43.390949,-88.0
2023-08-12 18:44:43.398638,-95.0
2023-08-12 18:44:43.406328,-95.0
2023-08-12 18:44:43.414017,-88.0
2023-08-12 18:44:43.421707,-88.0
2023-08-12 18:44:43.429396,-88.0
2023-08-12 18:44:43.437086,-88.0
2023-08-12 18:44:43.444775,-90.0
2023-08-12 18:44:43.452465,-90.0
2023-08-12 18:44:43.460154,-88.0
2023-08-12 18:44:43.467844,-88.0
2023-08-12 18:44:43.475533,-85.0
2023-08-12 18:44:43.483223,-85.0
2023-08-12 18:44:43.490913,-88.0
2023-08-12 18:44:43.498602,-76.0
2023-08-12 18:44:43.506292,-49.0
2023-08-12 18:44:43.513981,-26.0
2023-08-12 18:44:43.521671,-23.0
2023-08-12 18:44:43.529360,-47.0
2023-08-12 18:44:43.537050,-66.0
2023-08-12 18:44:43.544739,-71.0
2023-08-12 18:44:43.552429,-83.0
2023-08-12 18:44:43.560118,-95.0
2023-08-12 18:44:43.567808,-92.0
2023-08-12 18:44:43.575497,-88.0
2023-08-12 18:44:43.583187,-88.0
2023-08-12 18:44:43.590876,-85.0
2023-08-12 18:44:43.598566,-76.0
2023-08-12 18:44:43.606256,-19.0
2023-08-12 18:44:43.613945,226.0
2023-08-12 18:44:43.621635,687.0
2023-08-12 18:44:43.629324,1002.0
2023-08-12 18:44:43.637014,573.0
2023-08-12 18:44:43.644703,-361.0
2023-08-12 18:44:43.652393,-678.0
2023-08-12 18:44:43.660082,-330.0
2023-08-12 18:44:43.667772,-169.0
2023-08-12 18:44:43.675461,-173.0
2023-08-12 18:44:43.683151,-92.0
2023-08-12 18:44:43.690840,-78.0
2023-08-12 18:44:43.698530,-107.0
2023-08-12 18:44:43.706219,-83.0
2023-08-12 18:44:43.713909,-66.0
2023-08-12 18:44:43.721599,-73.0
2023-08-12 18:44:43.729288,-64.0
2023-08-12 18:44:43.736978,-49.0
2023-08-12 18:44:43.744667,-47.0
2023-08-12 18:44:43.752357,-45.0
2023-08-12 18:44:43.760046,-40.0
2023-08-12 18:44:43.767736,-35.0
2023-08-12 18:44:43.775425,-28.0
2023-08-12 18:44:43.783115,-16.0
2023-08-12 18:44:43.790804,-11.0
2023-08-12 18:44:43.798494,-9.0
2023-08-12 18:44:43.806183,-7.0
2023-08-12 18:44:43.813873,0.0
2023-08-12 18:44:43.821562,9.0
2023-08-12 18:44:43.829252,16.0
2023-08-12 18:44:43.836942,26.0
2023-08-12 18:44:43.844631,33.0
2023-08-12 18:44:43.852321,40.0
2023-08-12 18:44:43.860010,47.0
2023-08-12 18:44:43.867700,54.0
2023-08-12 18:44:43.875389,57.0
2023-08-12 18:44:43.883079,59.0
2023-08-12 18:44:43.890768,57.0
2023-08-12 18:44:43.898458,47.0
2023-08-12 18:44:43.906147,35.0
2023-08-12 18:44:43.913837,21.0
2023-08-12 18:44:43.921526,2.0
2023-08-12 18:44:43.929216,-19.0
2023-08-12 18:44:43.936905,-45.0
2023-08-12 18:44:43.944595,-66.0
2023-08-12 18:44:43.952285,-83.0
2023-08-12 18:44:43.959974,-92.0
2023-08-12 18:44:43.967664,-102.0
2023-08-12 18:44:43.975353,-114.0
2023-08-12 18:44:43.983043,-128.0
2023-08-12 18:44:43.990732,-135.0
2023-08-12 18:44:43.998422,-130.0
2023-08-12 18:44:44.006111,-128.0
2023-08-12 18:44:44.013801,-126.0
2023-08-12 18:44:44.021490,-123.0
2023-08-12 18:44:44.029180,-128.0
2023-08-12 18:44:44.036869,-130.0
2023-08-12 18:44:44.044559,-123.0
2023-08-12 18:44:44.052248,-119.0
2023-08-12 18:44:44.059938,-119.0
2023-08-12 18:44:44.067628,-119.0
2023-08-12 18:44:44.075317,-116.0
2023-08-12 18:44:44.083007,-109.0
2023-08-12 18:44:44.090696,-104.0
2023-08-12 18:44:44.098386,-102.0
2023-08-12 18:44:44.106075,-104.0
2023-08-12 18:44:44.113765,-109.0
2023-08-12 18:44:44.121454,-107.0
2023-08-12 18:44:44.129144,-104.0
2023-08-12 18:44:44.136833,-104.0
2023-08-12 18:44:44.144523,-104.0
2023-08-12 18:44:44.152212,-102.0
2023-08-12 18:44:44.159902,-102.0
2023-08-12 18:44:44.167591,-104.0
2023-08-12 18:44:44.175281,-107.0
2023-08-12 18:44:44.182970,-102.0
2023-08-12 18:44:44.190660,-99.0
2023-08-12 18:44:44.198350,-99.0
2023-08-12 18:44:44.206039,-99.0
2023-08-12 18:44:44.213729,-99.0
2023-08-12 18:44:44.221418,-97.0
2023-08-12 18:44:44.229108,-92.0
2023-08-12 18:44:44.236797,-92.0
2023-08-12 18:44:44.244487,-95.0
2023-08-12 18:44:44.252176,-92.0
2023-08-12 18:44:44.259866,-90.0
2023-08-12 18:44:44.267555,-85.0
2023-08-12 18:44:44.275245,-85.0
2023-08-12 18:44:44.282934,-88.0
2023-08-12 18:44:44.290624,-88.0
2023-08-12 18:44:44.298313,-90.0
2023-08-12 18:44:44.306003,-88.0
2023-08-12 18:44:44.313693,-83.0
2023-08-12 18:44:44.321382,-80.0
2023-08-12 18:44:44.329072,-73.0
2023-08-12 18:44:44.336761,-49.0
2023-08-12 18:44:44.344451,-26.0
2023-08-12 18:44:44.352140,-19.0
2023-08-12 18:44:44.359830,-38.0
2023-08-12 18:44:44.367519,-64.0
2023-08-12 18:44:44.375209,-71.0
2023-08-12 18:44:44.382898,-78.0
2023-08-12 18:44:44.390588,-92.0
2023-08-12 18:44:44.398277,-95.0
2023-08-12 18:44:44.405967,-88.0
2023-08-12 18:44:44.413656,-80.0
2023-08-12 18:44:44.421346,-80.0
2023-08-12 18:44:44.429036,-80.0
2023-08-12 18:44:44.436725,-54.0
2023-08-12 18:44:44.444415,80.0
2023-08-12 18:44:44.452104,421.0
2023-08-12 18:44:44.459794,804.0
2023-08-12 18:44:44.467483,711.0
2023-08-12 18:44:44.475173,-83.0
2023-08-12 18:44:44.482862,-714.0
2023-08-12 18:44:44.490552,-528.0
2023-08-12 18:44:44.498241,-235.0
2023-08-12 18:44:44.505931,-209.0
2023-08-12 18:44:44.513620,-116.0
2023-08-12 18:44:44.521310,-49.0
2023-08-12 18:44:44.528999,-97.0
2023-08-12 18:44:44.536689,-92.0
2023-08-12 18:44:44.544379,-54.0
2023-08-12 18:44:44.552068,-59.0
2023-08-12 18:44:44.559758,-64.0
2023-08-12 18:44:44.567447,-49.0
2023-08-12 18:44:44.575137,-42.0
2023-08-12 18:44:44.582826,-35.0
2023-08-12 18:44:44.590516,-30.0
2023-08-12 18:44:44.598205,-30.0
2023-08-12 18:44:44.605895,-26.0
2023-08-12 18:44:44.613584,-19.0
2023-08-12 18:44:44.621274,-14.0
2023-08-12 18:44:44.628963,-7.0
2023-08-12 18:44:44.636653,2.0
2023-08-12 18:44:44.644342,11.0
2023-08-12 18:44:44.652032,19.0
2023-08-12 18:44:44.659722,23.0
2023-08-12 18:44:44.667411,30.0
2023-08-12 18:44:44.675101,42.0
2023-08-12 18:44:44.682790,54.0
2023-08-12 18:44:44.690480,64.0
2023-08-12 18:44:44.698169,76.0
2023-08-12 18:44:44.705859,83.0
2023-08-12 18:44:44.713548,83.0
2023-08-12 18:44:44.721238,76.0
2023-08-12 18:44:44.728927,66.0
2023-08-12 18:44:44.736617,57.0
2023-08-12 18:44:44.744306,45.0
2023-08-12 18:44:44.751996,19.0
2023-08-12 18:44:44.759685,-9.0
2023-08-12 18:44:44.767375,-33.0
2023-08-12 18:44:44.775065,-57.0
2023-08-12 18:44:44.782754,-73.0
2023-08-12 18:44:44.790444,-90.0
2023-08-12 18:44:44.798133,-102.0
2023-08-12 18:44:44.805823,-109.0
2023-08-12 18:44:44.813512,-116.0
2023-08-12 18:44:44.821202,-128.0
2023-08-12 18:44:44.828891,-133.0
2023-08-12 18:44:44.836581,-128.0
2023-08-12 18:44:44.844270,-126.0
2023-08-12 18:44:44.851960,-123.0
2023-08-12 18:44:44.859649,-119.0
2023-08-12 18:44:44.867339,-116.0
2023-08-12 18:44:44.875028,-119.0
2023-08-12 18:44:44.882718,-119.0
2023-08-12 18:44:44.890408,-114.0
2023-08-12 18:44:44.898097,-104.0
2023-08-12 18:44:44.905787,-104.0
2023-08-12 18:44:44.913476,-109.0
2023-08-12 18:44:44.921166,-109.0
2023-08-12 18:44:44.928855,-107.0
2023-08-12 18:44:44.936545,-104.0
2023-08-12 18:44:44.944234,-97.0
2023-08-12 18:44:44.951924,-99.0
2023-08-12 18:44:44.959613,-111.0
2023-08-12 18:44:44.967303,-114.0
2023-08-12 18:44:44.974992,-111.0
2023-08-12 18:44:44.982682,-109.0
2023-08-12 18:44:44.990371,-114.0
2023-08-12 18:44:44.998061,-114.0
2023-08-12 18:44:45.005750,-111.0
2023-08-12 18:44:45.013440,-111.0
2023-08-12 18:44:45.021130,-107.0
2023-08-12 18:44:45.028819,-104.0
2023-08-12 18:44:45.036509,-104.0
2023-08-12 18:44:45.044198,-104.0
2023-08-12 18:44:45.051888,-104.0
2023-08-12 18:44:45.059577,-104.0
2023-08-12 18:44:45.067267,-109.0
2023-08-12 18:44:45.074956,-107.0
2023-08-12 18:44:45.082646,-107.0
2023-08-12 18:44:45.090335,-111.0
2023-08-12 18:44:45.098025,-114.0
2023-08-12 18:44:45.105714,-107.0
2023-08-12 18:44:45.113404,-102.0
2023-08-12 18:44:45.121093,-99.0
2023-08-12 18:44:45.128783,-97.0
2023-08-12 18:44:45.136473,-97.0
2023-08-12 18:44:45.144162,-97.0
2023-08-12 18:44:45.151852,-95.0
2023-08-12 18:44:45.159541,-83.0
2023-08-12 18:44:45.167231,-64.0
2023-08-12 18:44:45.174920,-33.0
2023-08-12 18:44:45.182610,-19.0
2023-08-12 18:44:45.190299,-42.0
2023-08-12 18:44:45.197989,-69.0
2023-08-12 18:44:45.205678,-78.0
2023-08-12 18:44:45.213368,-95.0
2023-08-12 18:44:45.221057,-99.0
2023-08-12 18:44:45.228747,-85.0
2023-08-12 18:44:45.236436,-80.0
2023-08-12 18:44:45.244126,-88.0
2023-08-12 18:44:45.251816,-88.0
2023-08-12 18:44:45.259505,-71.0
2023-08-12 18:44:45.267195,38.0
2023-08-12 18:44:45.274884,364.0
2023-08-12 18:44:45.282574,806.0
2023-08-12 18:44:45.290263,904.0
2023-08-12 18:44:45.297953,240.0
2023-08-12 18:44:45.305642,-590.0
2023-08-12 18:44:45.313332,-628.0
2023-08-12 18:44:45.321021,-271.0
2023-08-12 18:44:45.328711,-180.0
2023-08-12 18:44:45.336400,-135.0
2023-08-12 18:44:45.344090,-66.0
2023-08-12 18:44:45.351779,-88.0
2023-08-12 18:44:45.359469,-92.0
2023-08-12 18:44:45.367159,-61.0
2023-08-12 18:44:45.374848,-64.0
2023-08-12 18:44:45.382538,-66.0
2023-08-12 18:44:45.390227,-47.0
2023-08-12 18:44:45.397917,-42.0
2023-08-12 18:44:45.405606,-47.0
2023-08-12 18:44:45.413296,-40.0
2023-08-12 18:44:45.420985,-30.0
2023-08-12 18:44:45.428675,-23.0
2023-08-12 18:44:45.436364,-14.0
2023-08-12 18:44:45.444054,-7.0
2023-08-12 18:44:45.451743,-4.0
2023-08-12 18:44:45.459433,-9.0
2023-08-12 18:44:45.467122,-7.0
2023-08-12 18:44:45.474812,7.0
2023-08-12 18:44:45.482502,16.0
2023-08-12 18:44:45.490191,19.0
2023-08-12 18:44:45.497881,26.0
2023-08-12 18:44:45.505570,40.0
2023-08-12 18:44:45.513260,52.0
2023-08-12 18:44:45.520949,59.0
2023-08-12 18:44:45.528639,64.0
2023-08-12 18:44:45.536328,69.0
2023-08-12 18:44:45.544018,71.0
2023-08-12 18:44:45.551707,64.0
2023-08-12 18:44:45.559397,49.0
2023-08-12 18:44:45.567086,35.0
2023-08-12 18:44:45.574776,16.0
2023-08-12 18:44:45.582465,-2.0
2023-08-12 18:44:45.590155,-28.0
2023-08-12 18:44:45.597845,-57.0
2023-08-12 18:44:45.605534,-90.0
2023-08-12 18:44:45.613224,-111.0
2023-08-12 18:44:45.620913,-114.0
2023-08-12 18:44:45.628603,-121.0
2023-08-12 18:44:45.636292,-140.0
2023-08-12 18:44:45.643982,-140.0
2023-08-12 18:44:45.651671,-130.0
2023-08-12 18:44:45.659361,-138.0
2023-08-12 18:44:45.667050,-147.0
2023-08-12 18:44:45.674740,-142.0
2023-08-12 18:44:45.682429,-128.0
2023-08-12 18:44:45.690119,-123.0
2023-08-12 18:44:45.697808,-133.0
2023-08-12 18:44:45.705498,-130.0
2023-08-12 18:44:45.713188,-119.0
2023-08-12 18:44:45.720877,-119.0
2023-08-12 18:44:45.728567,-111.0
2023-08-12 18:44:45.736256,-102.0
2023-08-12 18:44:45.743946,-109.0
2023-08-12 18:44:45.751635,-119.0
2023-08-12 18:44:45.759325,-109.0
2023-08-12 18:44:45.767014,-95.0
2023-08-12 18:44:45.774704,-92.0
2023-08-12 18:44:45.782393,-109.0
2023-08-12 18:44:45.790083,-119.0
2023-08-12 18:44:45.797772,-102.0
2023-08-12 18:44:45.805462,-97.0
2023-08-12 18:44:45.813151,-116.0
2023-08-12 18:44:45.820841,-111.0
2023-08-12 18:44:45.828530,-97.0
2023-08-12 18:44:45.836220,-104.0
2023-08-12 18:44:45.843910,-107.0
2023-08-12 18:44:45.851599,-97.0
2023-08-12 18:44:45.859289,-95.0
2023-08-12 18:44:45.866978,-107.0
2023-08-12 18:44:45.874668,-109.0
2023-08-12 18:44:45.882357,-92.0
2023-08-12 18:44:45.890047,-85.0
2023-08-12 18:44:45.897736,-99.0
2023-08-12 18:44:45.905426,-97.0
2023-08-12 18:44:45.913115,-85.0
2023-08-12 18:44:45.920805,-95.0
2023-08-12 18:44:45.928494,-104.0
2023-08-12 18:44:45.936184,-90.0
2023-08-12 18:44:45.943873,-80.0
2023-08-12 18:44:45.951563,-88.0
2023-08-12 18:44:45.959253,-97.0
2023-08-12 18:44:45.966942,-92.0
2023-08-12 18:44:45.974632,-83.0
2023-08-12 18:44:45.982321,-78.0
2023-08-12 18:44:45.990011,-78.0
2023-08-12 18:44:45.997700,-66.0
2023-08-12 18:44:46.005390,-35.0
2023-08-12 18:44:46.013079,-21.0
2023-08-12 18:44:46.020769,-47.0
2023-08-12 18:44:46.028458,-69.0
2023-08-12 18:44:46.036148,-66.0
2023-08-12 18:44:46.043837,-73.0
2023-08-12 18:44:46.051527,-92.0
2023-08-12 18:44:46.059216,-92.0
2023-08-12 18:44:46.066906,-85.0
2023-08-12 18:44:46.074596,-90.0
2023-08-12 18:44:46.082285,-90.0
2023-08-12 18:44:46.089975,-80.0
2023-08-12 18:44:46.097664,-52.0
2023-08-12 18:44:46.105354,109.0
2023-08-12 18:44:46.113043,504.0
2023-08-12 18:44:46.120733,914.0
2023-08-12 18:44:46.128422,780.0
2023-08-12 18:44:46.136112,-52.0
2023-08-12 18:44:46.143801,-656.0
2023-08-12 18:44:46.151491,-459.0
2023-08-12 18:44:46.159180,-202.0
2023-08-12 18:44:46.166870,-192.0
2023-08-12 18:44:46.174559,-114.0
2023-08-12 18:44:46.182249,-69.0
2023-08-12 18:44:46.189939,-114.0
2023-08-12 18:44:46.197628,-107.0
2023-08-12 18:44:46.205318,-69.0
2023-08-12 18:44:46.213007,-71.0
2023-08-12 18:44:46.220697,-76.0
2023-08-12 18:44:46.228386,-59.0
2023-08-12 18:44:46.236076,-47.0
2023-08-12 18:44:46.243765,-47.0
2023-08-12 18:44:46.251455,-42.0
2023-08-12 18:44:46.259144,-35.0
2023-08-12 18:44:46.266834,-30.0
2023-08-12 18:44:46.274523,-23.0
2023-08-12 18:44:46.282213,-16.0
2023-08-12 18:44:46.289902,-9.0
2023-08-12 18:44:46.297592,-4.0
2023-08-12 18:44:46.305282,4.0
2023-08-12 18:44:46.312971,11.0
2023-08-12 18:44:46.320661,14.0
2023-08-12 18:44:46.328350,21.0
2023-08-12 18:44:46.336040,30.0
2023-08-12 18:44:46.343729,42.0
2023-08-12 18:44:46.351419,54.0
2023-08-12 18:44:46.359108,64.0
2023-08-12 18:44:46.366798,71.0
2023-08-12 18:44:46.374487,78.0
2023-08-12 18:44:46.382177,78.0
2023-08-12 18:44:46.389866,71.0
2023-08-12 18:44:46.397556,64.0
2023-08-12 18:44:46.405245,52.0
2023-08-12 18:44:46.412935,28.0
2023-08-12 18:44:46.420625,2.0
2023-08-12 18:44:46.428314,-21.0
2023-08-12 18:44:46.436004,-47.0
2023-08-12 18:44:46.443693,-66.0
2023-08-12 18:44:46.451383,-80.0
2023-08-12 18:44:46.459072,-95.0
2023-08-12 18:44:46.466762,-109.0
2023-08-12 18:44:46.474451,-119.0
2023-08-12 18:44:46.482141,-119.0
2023-08-12 18:44:46.489830,-121.0
2023-08-12 18:44:46.497520,-126.0
2023-08-12 18:44:46.505209,-123.0
2023-08-12 18:44:46.512899,-121.0
2023-08-12 18:44:46.520588,-116.0
2023-08-12 18:44:46.528278,-116.0
2023-08-12 18:44:46.535968,-114.0
2023-08-12 18:44:46.543657,-111.0
2023-08-12 18:44:46.551347,-107.0
2023-08-12 18:44:46.559036,-99.0
2023-08-12 18:44:46.566726,-99.0
2023-08-12 18:44:46.574415,-107.0
2023-08-12 18:44:46.582105,-102.0
2023-08-12 18:44:46.589794,-95.0
2023-08-12 18:44:46.597484,-99.0
2023-08-12 18:44:46.605173,-104.0
2023-08-12 18:44:46.612863,-97.0
2023-08-12 18:44:46.620552,-95.0
2023-08-12 18:44:46.628242,-97.0
2023-08-12 18:44:46.635931,-99.0
2023-08-12 18:44:46.643621,-95.0
2023-08-12 18:44:46.651310,-92.0
2023-08-12 18:44:46.659000,-95.0
2023-08-12 18:44:46.666690,-99.0
2023-08-12 18:44:46.674379,-99.0
2023-08-12 18:44:46.682069,-97.0
2023-08-12 18:44:46.689758,-97.0
2023-08-12 18:44:46.697448,-97.0
2023-08-12 18:44:46.705137,-92.0
2023-08-12 18:44:46.712827,-95.0
2023-08-12 18:44:46.720516,-92.0
2023-08-12 18:44:46.728206,-90.0
2023-08-12 18:44:46.735895,-92.0
2023-08-12 18:44:46.743585,-88.0
2023-08-12 18:44:46.751274,-80.0
2023-08-12 18:44:46.758964,-80.0
2023-08-12 18:44:46.766653,-88.0
2023-08-12 18:44:46.774343,-95.0
2023-08-12 18:44:46.782033,-92.0
2023-08-12 18:44:46.789722,-88.0
2023-08-12 18:44:46.797412,-85.0
2023-08-12 18:44:46.805101,-88.0
2023-08-12 18:44:46.812791,-88.0
2023-08-12 18:44:46.820480,-88.0
2023-08-12 18:44:46.828170,-88.0
2023-08-12 18:44:46.835859,-80.0
2023-08-12 18:44:46.843549,-78.0
2023-08-12 18:44:46.851238,-76.0
2023-08-12 18:44:46.858928,-64.0
2023-08-12 18:44:46.866617,-42.0
2023-08-12 18:44:46.874307,-23.0
2023-08-12 18:44:46.881996,-21.0
2023-08-12 18:44:46.889686,-38.0
2023-08-12 18:44:46.897376,-54.0
2023-08-12 18:44:46.905065,-64.0
2023-08-12 18:44:46.912755,-73.0
2023-08-12 18:44:46.920444,-85.0
2023-08-12 18:44:46.928134,-83.0
2023-08-12 18:44:46.935823,-78.0
2023-08-12 18:44:46.943513,-80.0
2023-08-12 18:44:46.951202,-78.0
2023-08-12 18:44:46.958892,-71.0
2023-08-12 18:44:46.966581,-28.0
2023-08-12 18:44:46.974271,157.0
2023-08-12 18:44:46.981960,545.0
2023-08-12 18:44:46.989650,885.0
2023-08-12 18:44:46.997339,628.0
2023-08-12 18:44:47.005029,-226.0
2023-08-12 18:44:47.012719,-685.0
2023-08-12 18:44:47.020408,-414.0
2023-08-12 18:44:47.028098,-202.0
2023-08-12 18:44:47.035787,-183.0
2023-08-12 18:44:47.043477,-83.0
2023-08-12 18:44:47.051166,-52.0
2023-08-12 18:44:47.058856,-99.0
2023-08-12 18:44:47.066545,-78.0
2023-08-12 18:44:47.074235,-42.0
2023-08-12 18:44:47.081924,-49.0
2023-08-12 18:44:47.089614,-52.0
2023-08-12 18:44:47.097303,-40.0
2023-08-12 18:44:47.104993,-33.0
2023-08-12 18:44:47.112682,-30.0
2023-08-12 18:44:47.120372,-28.0
2023-08-12 18:44:47.128062,-23.0
2023-08-12 18:44:47.135751,-19.0
2023-08-12 18:44:47.143441,-11.0
2023-08-12 18:44:47.151130,-9.0
2023-08-12 18:44:47.158820,-7.0
2023-08-12 18:44:47.166509,2.0
2023-08-12 18:44:47.174199,9.0
2023-08-12 18:44:47.181888,14.0
2023-08-12 18:44:47.189578,21.0
2023-08-12 18:44:47.197267,30.0
2023-08-12 18:44:47.204957,38.0
2023-08-12 18:44:47.212646,47.0
2023-08-12 18:44:47.220336,59.0
2023-08-12 18:44:47.228025,69.0
2023-08-12 18:44:47.235715,73.0
2023-08-12 18:44:47.243405,76.0
2023-08-12 18:44:47.251094,71.0
2023-08-12 18:44:47.258784,69.0
2023-08-12 18:44:47.266473,57.0
2023-08-12 18:44:47.274163,33.0
2023-08-12 18:44:47.281852,11.0
2023-08-12 18:44:47.289542,-9.0
2023-08-12 18:44:47.297231,-33.0
2023-08-12 18:44:47.304921,-57.0
2023-08-12 18:44:47.312610,-76.0
2023-08-12 18:44:47.320300,-88.0
2023-08-12 18:44:47.327989,-97.0
2023-08-12 18:44:47.335679,-104.0
2023-08-12 18:44:47.343368,-111.0
2023-08-12 18:44:47.351058,-116.0
2023-08-12 18:44:47.358748,-123.0
2023-08-12 18:44:47.366437,-126.0
2023-08-12 18:44:47.374127,-121.0
2023-08-12 18:44:47.381816,-116.0
2023-08-12 18:44:47.389506,-116.0
2023-08-12 18:44:47.397195,-114.0
2023-08-12 18:44:47.404885,-111.0
2023-08-12 18:44:47.412574,-107.0
2023-08-12 18:44:47.420264,-102.0
2023-08-12 18:44:47.427953,-99.0
2023-08-12 18:44:47.435643,-97.0
2023-08-12 18:44:47.443332,-95.0
2023-08-12 18:44:47.451022,-92.0
2023-08-12 18:44:47.458711,-95.0
2023-08-12 18:44:47.466401,-95.0
2023-08-12 18:44:47.474091,-95.0
2023-08-12 18:44:47.481780,-95.0
2023-08-12 18:44:47.489470,-97.0
2023-08-12 18:44:47.497159,-97.0
2023-08-12 18:44:47.504849,-95.0
2023-08-12 18:44:47.512538,-97.0
2023-08-12 18:44:47.520228,-97.0
2023-08-12 18:44:47.527917,-92.0
2023-08-12 18:44:47.535607,-88.0
2023-08-12 18:44:47.543296,-92.0
2023-08-12 18:44:47.550986,-95.0
2023-08-12 18:44:47.558675,-92.0
2023-08-12 18:44:47.566365,-90.0
2023-08-12 18:44:47.574054,-90.0
2023-08-12 18:44:47.581744,-92.0
2023-08-12 18:44:47.589433,-92.0
2023-08-12 18:44:47.597123,-90.0
2023-08-12 18:44:47.604813,-85.0
2023-08-12 18:44:47.612502,-80.0
2023-08-12 18:44:47.620192,-80.0
2023-08-12 18:44:47.627881,-78.0
2023-08-12 18:44:47.635571,-76.0
2023-08-12 18:44:47.643260,-76.0
2023-08-12 18:44:47.650950,-78.0
2023-08-12 18:44:47.658639,-76.0
2023-08-12 18:44:47.666329,-73.0
2023-08-12 18:44:47.674018,-78.0
2023-08-12 18:44:47.681708,-78.0
2023-08-12 18:44:47.689397,-73.0
2023-08-12 18:44:47.697087,-64.0
2023-08-12 18:44:47.704776,-54.0
2023-08-12 18:44:47.712466,-38.0
2023-08-12 18:44:47.720156,-19.0
2023-08-12 18:44:47.727845,-7.0
2023-08-12 18:44:47.735535,-21.0
2023-08-12 18:44:47.743224,-47.0
2023-08-12 18:44:47.750914,-54.0
2023-08-12 18:44:47.758603,-59.0
2023-08-12 18:44:47.766293,-73.0
2023-08-12 18:44:47.773982,-83.0
2023-08-12 18:44:47.781672,-78.0
2023-08-12 18:44:47.789361,-71.0
2023-08-12 18:44:47.797051,-69.0
2023-08-12 18:44:47.804740,-66.0
2023-08-12 18:44:47.812430,-49.0
2023-08-12 18:44:47.820119,85.0
2023-08-12 18:44:47.827809,447.0
2023-08-12 18:44:47.835499,880.0
2023-08-12 18:44:47.843188,868.0
2023-08-12 18:44:47.850878,111.0
2023-08-12 18:44:47.858567,-609.0
2023-08-12 18:44:47.866257,-507.0
2023-08-12 18:44:47.873946,-199.0
2023-08-12 18:44:47.881636,-171.0
2023-08-12 18:44:47.889325,-121.0
2023-08-12 18:44:47.897015,-64.0
2023-08-12 18:44:47.904704,-99.0
2023-08-12 18:44:47.912394,-99.0
2023-08-12 18:44:47.920083,-69.0
2023-08-12 18:44:47.927773,-66.0
2023-08-12 18:44:47.935462,-64.0
2023-08-12 18:44:47.943152,-52.0
2023-08-12 18:44:47.950842,-49.0
2023-08-12 18:44:47.958531,-45.0
2023-08-12 18:44:47.966221,-38.0
2023-08-12 18:44:47.973910,-35.0
2023-08-12 18:44:47.981600,-35.0
2023-08-12 18:44:47.989289,-30.0
2023-08-12 18:44:47.996979,-23.0
2023-08-12 18:44:48.004668,-21.0
2023-08-12 18:44:48.012358,-14.0
2023-08-12 18:44:48.020047,-2.0
2023-08-12 18:44:48.027737,4.0
2023-08-12 18:44:48.035426,11.0
2023-08-12 18:44:48.043116,16.0
2023-08-12 18:44:48.050805,23.0
2023-08-12 18:44:48.058495,35.0
2023-08-12 18:44:48.066185,47.0
2023-08-12 18:44:48.073874,54.0
2023-08-12 18:44:48.081564,61.0
2023-08-12 18:44:48.089253,69.0
2023-08-12 18:44:48.096943,69.0
2023-08-12 18:44:48.104632,61.0
2023-08-12 18:44:48.112322,52.0
2023-08-12 18:44:48.120011,40.0
2023-08-12 18:44:48.127701,21.0
2023-08-12 18:44:48.135390,-4.0
2023-08-12 18:44:48.143080,-28.0
2023-08-12 18:44:48.150769,-49.0
2023-08-12 18:44:48.158459,-69.0
2023-08-12 18:44:48.166148,-83.0
2023-08-12 18:44:48.173838,-95.0
2023-08-12 18:44:48.181528,-102.0
2023-08-12 18:44:48.189217,-111.0
2023-08-12 18:44:48.196907,-111.0
2023-08-12 18:44:48.204596,-116.0
2023-08-12 18:44:48.212286,-119.0
2023-08-12 18:44:48.219975,-119.0
2023-08-12 18:44:48.227665,-116.0
2023-08-12 18:44:48.235354,-116.0
2023-08-12 18:44:48.243044,-111.0
2023-08-12 18:44:48.250733,-107.0
2023-08-12 18:44:48.258423,-102.0
2023-08-12 18:44:48.266112,-102.0
2023-08-12 18:44:48.273802,-102.0
2023-08-12 18:44:48.281491,-99.0
2023-08-12 18:44:48.289181,-99.0
2023-08-12 18:44:48.296871,-102.0
2023-08-12 18:44:48.304560,-99.0
2023-08-12 18:44:48.312250,-97.0
2023-08-12 18:44:48.319939,-95.0
2023-08-12 18:44:48.327629,-95.0
2023-08-12 18:44:48.335318,-95.0
2023-08-12 18:44:48.343008,-92.0
2023-08-12 18:44:48.350697,-95.0
2023-08-12 18:44:48.358387,-92.0
2023-08-12 18:44:48.366076,-92.0
2023-08-12 18:44:48.373766,-95.0
2023-08-12 18:44:48.381455,-95.0
2023-08-12 18:44:48.389145,-90.0
2023-08-12 18:44:48.396834,-88.0
2023-08-12 18:44:48.404524,-88.0
2023-08-12 18:44:48.412213,-88.0
2023-08-12 18:44:48.419903,-88.0
2023-08-12 18:44:48.427593,-90.0
2023-08-12 18:44:48.435282,-92.0
2023-08-12 18:44:48.442972,-95.0
2023-08-12 18:44:48.450661,-95.0
2023-08-12 18:44:48.458351,-90.0
2023-08-12 18:44:48.466040,-90.0
2023-08-12 18:44:48.473730,-88.0
2023-08-12 18:44:48.481419,-88.0
2023-08-12 18:44:48.489109,-90.0
2023-08-12 18:44:48.496798,-90.0
2023-08-12 18:44:48.504488,-90.0
2023-08-12 18:44:48.512177,-90.0
2023-08-12 18:44:48.519867,-88.0
2023-08-12 18:44:48.527556,-83.0
2023-08-12 18:44:48.535246,-80.0
2023-08-12 18:44:48.542936,-71.0
2023-08-12 18:44:48.550625,-47.0
2023-08-12 18:44:48.558315,-23.0
2023-08-12 18:44:48.566004,-28.0
2023-08-12 18:44:48.573694,-52.0
2023-08-12 18:44:48.581383,-64.0
2023-08-12 18:44:48.589073,-66.0
2023-08-12 18:44:48.596762,-80.0
2023-08-12 18:44:48.604452,-95.0
2023-08-12 18:44:48.612141,-90.0
2023-08-12 18:44:48.619831,-83.0
2023-08-12 18:44:48.627520,-83.0
2023-08-12 18:44:48.635210,-80.0
2023-08-12 18:44:48.642899,-71.0
2023-08-12 18:44:48.650589,-28.0
2023-08-12 18:44:48.658279,169.0
2023-08-12 18:44:48.665968,568.0
2023-08-12 18:44:48.673658,892.0
2023-08-12 18:44:48.681347,592.0
2023-08-12 18:44:48.689037,-266.0
2023-08-12 18:44:48.696726,-671.0
2023-08-12 18:44:48.704416,-385.0
2023-08-12 18:44:48.712105,-197.0
2023-08-12 18:44:48.719795,-180.0
2023-08-12 18:44:48.727484,-80.0
2023-08-12 18:44:48.735174,-54.0
2023-08-12 18:44:48.742863,-95.0
2023-08-12 18:44:48.750553,-73.0
2023-08-12 18:44:48.758242,-47.0
2023-08-12 18:44:48.765932,-54.0
2023-08-12 18:44:48.773622,-49.0
2023-08-12 18:44:48.781311,-40.0
2023-08-12 18:44:48.789001,-40.0
2023-08-12 18:44:48.796690,-38.0
2023-08-12 18:44:48.804380,-28.0
2023-08-12 18:44:48.812069,-21.0
2023-08-12 18:44:48.819759,-16.0
2023-08-12 18:44:48.827448,-14.0
2023-08-12 18:44:48.835138,-9.0
2023-08-12 18:44:48.842827,-4.0
2023-08-12 18:44:48.850517,4.0
2023-08-12 18:44:48.858206,11.0
2023-08-12 18:44:48.865896,16.0
2023-08-12 18:44:48.873585,28.0
2023-08-12 18:44:48.881275,40.0
2023-08-12 18:44:48.888965,45.0
2023-08-12 18:44:48.896654,52.0
2023-08-12 18:44:48.904344,66.0
2023-08-12 18:44:48.912033,76.0
2023-08-12 18:44:48.919723,83.0
2023-08-12 18:44:48.927412,88.0
2023-08-12 18:44:48.935102,80.0
2023-08-12 18:44:48.942791,73.0
2023-08-12 18:44:48.950481,64.0
2023-08-12 18:44:48.958170,49.0
2023-08-12 18:44:48.965860,26.0
2023-08-12 18:44:48.973549,4.0
2023-08-12 18:44:48.981239,-26.0
2023-08-12 18:44:48.988928,-57.0
2023-08-12 18:44:48.996618,-76.0
2023-08-12 18:44:49.004308,-88.0
2023-08-12 18:44:49.011997,-104.0
2023-08-12 18:44:49.019687,-119.0
2023-08-12 18:44:49.027376,-123.0
2023-08-12 18:44:49.035066,-128.0
2023-08-12 18:44:49.042755,-133.0
2023-08-12 18:44:49.050445,-130.0
2023-08-12 18:44:49.058134,-128.0
2023-08-12 18:44:49.065824,-133.0
2023-08-12 18:44:49.073513,-135.0
2023-08-12 18:44:49.081203,-128.0
2023-08-12 18:44:49.088892,-123.0
2023-08-12 18:44:49.096582,-126.0
2023-08-12 18:44:49.104271,-123.0
2023-08-12 18:44:49.111961,-123.0
2023-08-12 18:44:49.119651,-128.0
2023-08-12 18:44:49.127340,-126.0
2023-08-12 18:44:49.135030,-121.0
2023-08-12 18:44:49.142719,-119.0
2023-08-12 18:44:49.150409,-114.0
2023-08-12 18:44:49.158098,-111.0
2023-08-12 18:44:49.165788,-114.0
2023-08-12 18:44:49.173477,-111.0
2023-08-12 18:44:49.181167,-107.0
2023-08-12 18:44:49.188856,-107.0
2023-08-12 18:44:49.196546,-109.0
2023-08-12 18:44:49.204235,-104.0
2023-08-12 18:44:49.211925,-102.0
2023-08-12 18:44:49.219614,-102.0
2023-08-12 18:44:49.227304,-102.0
2023-08-12 18:44:49.234993,-99.0
2023-08-12 18:44:49.242683,-102.0
2023-08-12 18:44:49.250373,-104.0
2023-08-12 18:44:49.258062,-102.0
2023-08-12 18:44:49.265752,-99.0
2023-08-12 18:44:49.273441,-99.0
2023-08-12 18:44:49.281131,-102.0
2023-08-12 18:44:49.288820,-107.0
2023-08-12 18:44:49.296510,-109.0
2023-08-12 18:44:49.304199,-107.0
2023-08-12 18:44:49.311889,-107.0
2023-08-12 18:44:49.319578,-97.0
2023-08-12 18:44:49.327268,-90.0
2023-08-12 18:44:49.334957,-95.0
2023-08-12 18:44:49.342647,-99.0
2023-08-12 18:44:49.350336,-80.0
2023-08-12 18:44:49.358026,-49.0
2023-08-12 18:44:49.365716,-26.0
2023-08-12 18:44:49.373405,-21.0
2023-08-12 18:44:49.381095,-45.0
2023-08-12 18:44:49.388784,-66.0
2023-08-12 18:44:49.396474,-69.0
2023-08-12 18:44:49.404163,-78.0
2023-08-12 18:44:49.411853,-95.0
2023-08-12 18:44:49.419542,-95.0
2023-08-12 18:44:49.427232,-85.0
2023-08-12 18:44:49.434921,-85.0
2023-08-12 18:44:49.442611,-78.0
2023-08-12 18:44:49.450300,-71.0
2023-08-12 18:44:49.457990,-47.0
2023-08-12 18:44:49.465679,97.0
2023-08-12 18:44:49.473369,471.0
2023-08-12 18:44:49.481059,892.0
2023-08-12 18:44:49.488748,828.0
2023-08-12 18:44:49.496438,23.0
2023-08-12 18:44:49.504127,-668.0
2023-08-12 18:44:49.511817,-518.0
2023-08-12 18:44:49.519506,-216.0
2023-08-12 18:44:49.527196,-197.0
2023-08-12 18:44:49.534885,-128.0
2023-08-12 18:44:49.542575,-59.0
2023-08-12 18:44:49.550264,-90.0
2023-08-12 18:44:49.557954,-92.0
2023-08-12 18:44:49.565643,-69.0
2023-08-12 18:44:49.573333,-71.0
2023-08-12 18:44:49.581022,-69.0
2023-08-12 18:44:49.588712,-52.0
2023-08-12 18:44:49.596402,-45.0
2023-08-12 18:44:49.604091,-45.0
2023-08-12 18:44:49.611781,-45.0
2023-08-12 18:44:49.619470,-40.0
2023-08-12 18:44:49.627160,-28.0
2023-08-12 18:44:49.634849,-23.0
2023-08-12 18:44:49.642539,-19.0
2023-08-12 18:44:49.650228,-11.0
2023-08-12 18:44:49.657918,-4.0
2023-08-12 18:44:49.665607,0.0
2023-08-12 18:44:49.673297,9.0
2023-08-12 18:44:49.680986,19.0
2023-08-12 18:44:49.688676,28.0
2023-08-12 18:44:49.696365,38.0
2023-08-12 18:44:49.704055,47.0
2023-08-12 18:44:49.711745,57.0
2023-08-12 18:44:49.719434,66.0
2023-08-12 18:44:49.727124,73.0
2023-08-12 18:44:49.734813,76.0
2023-08-12 18:44:49.742503,69.0
2023-08-12 18:44:49.750192,61.0
2023-08-12 18:44:49.757882,52.0
2023-08-12 18:44:49.765571,35.0
2023-08-12 18:44:49.773261,11.0
2023-08-12 18:44:49.780950,-14.0
2023-08-12 18:44:49.788640,-42.0
2023-08-12 18:44:49.796329,-64.0
2023-08-12 18:44:49.804019,-80.0
2023-08-12 18:44:49.811708,-92.0
2023-08-12 18:44:49.819398,-99.0
2023-08-12 18:44:49.827088,-107.0
2023-08-12 18:44:49.834777,-111.0
2023-08-12 18:44:49.842467,-116.0
2023-08-12 18:44:49.850156,-116.0
2023-08-12 18:44:49.857846,-116.0
2023-08-12 18:44:49.865535,-114.0
2023-08-12 18:44:49.873225,-109.0
2023-08-12 18:44:49.880914,-107.0
2023-08-12 18:44:49.888604,-107.0
2023-08-12 18:44:49.896293,-104.0
2023-08-12 18:44:49.903983,-102.0
2023-08-12 18:44:49.911672,-97.0
2023-08-12 18:44:49.919362,-97.0
2023-08-12 18:44:49.927051,-95.0
2023-08-12 18:44:49.934741,-95.0
2023-08-12 18:44:49.942431,-92.0
2023-08-12 18:44:49.950120,-92.0
2023-08-12 18:44:49.957810,-95.0
2023-08-12 18:44:49.965499,-95.0
2023-08-12 18:44:49.973189,-90.0
2023-08-12 18:44:49.980878,-90.0
2023-08-12 18:44:49.988568,-92.0
2023-08-12 18:44:49.996257,-99.0
2023-08-12 18:44:50.003947,-104.0
2023-08-12 18:44:50.011636,-104.0
2023-08-12 18:44:50.019326,-102.0
2023-08-12 18:44:50.027015,-102.0
2023-08-12 18:44:50.034705,-99.0
2023-08-12 18:44:50.042394,-99.0
2023-08-12 18:44:50.050084,-97.0
2023-08-12 18:44:50.057774,-99.0
2023-08-12 18:44:50.065463,-99.0
2023-08-12 18:44:50.073153,-97.0
2023-08-12 18:44:50.080842,-95.0
2023-08-12 18:44:50.088532,-92.0
2023-08-12 18:44:50.096221,-90.0
2023-08-12 18:44:50.103911,-90.0
2023-08-12 18:44:50.111600,-92.0
2023-08-12 18:44:50.119290,-92.0
2023-08-12 18:44:50.126979,-92.0
2023-08-12 18:44:50.134669,-90.0
2023-08-12 18:44:50.142358,-92.0
2023-08-12 18:44:50.150048,-97.0
2023-08-12 18:44:50.157737,-97.0
2023-08-12 18:44:50.165427,-88.0
2023-08-12 18:44:50.173116,-73.0
2023-08-12 18:44:50.180806,-49.0
2023-08-12 18:44:50.188496,-28.0
2023-08-12 18:44:50.196185,-33.0
2023-08-12 18:44:50.203875,-52.0
2023-08-12 18:44:50.211564,-64.0
2023-08-12 18:44:50.219254,-69.0
2023-08-12 18:44:50.226943,-83.0
2023-08-12 18:44:50.234633,-95.0
2023-08-12 18:44:50.242322,-92.0
2023-08-12 18:44:50.250012,-88.0
2023-08-12 18:44:50.257701,-88.0
2023-08-12 18:44:50.265391,-90.0
2023-08-12 18:44:50.273080,-83.0
2023-08-12 18:44:50.280770,-28.0
2023-08-12 18:44:50.288459,216.0
2023-08-12 18:44:50.296149,687.0
2023-08-12 18:44:50.303839,1025.0
2023-08-12 18:44:50.311528,640.0
2023-08-12 18:44:50.319218,-290.0
2023-08-12 18:44:50.326907,-671.0
2023-08-12 18:44:50.334597,-361.0
2023-08-12 18:44:50.342286,-190.0
2023-08-12 18:44:50.349976,-185.0
2023-08-12 18:44:50.357665,-97.0
2023-08-12 18:44:50.365355,-83.0
2023-08-12 18:44:50.373044,-116.0
2023-08-12 18:44:50.380734,-90.0
2023-08-12 18:44:50.388423,-69.0
2023-08-12 18:44:50.396113,-78.0
2023-08-12 18:44:50.403802,-69.0
2023-08-12 18:44:50.411492,-54.0
2023-08-12 18:44:50.419182,-57.0
2023-08-12 18:44:50.426871,-52.0
2023-08-12 18:44:50.434561,-40.0
2023-08-12 18:44:50.442250,-35.0
2023-08-12 18:44:50.449940,-30.0
2023-08-12 18:44:50.457629,-23.0
2023-08-12 18:44:50.465319,-19.0
2023-08-12 18:44:50.473008,-11.0
2023-08-12 18:44:50.480698,-4.0
2023-08-12 18:44:50.488387,0.0
2023-08-12 18:44:50.496077,9.0
2023-08-12 18:44:50.503766,11.0
2023-08-12 18:44:50.511456,11.0
2023-08-12 18:44:50.519145,21.0
2023-08-12 18:44:50.526835,35.0
2023-08-12 18:44:50.534525,45.0
2023-08-12 18:44:50.542214,52.0
2023-08-12 18:44:50.549904,57.0
2023-08-12 18:44:50.557593,57.0
2023-08-12 18:44:50.565283,54.0
2023-08-12 18:44:50.572972,49.0
2023-08-12 18:44:50.580662,35.0
2023-08-12 18:44:50.588351,19.0
2023-08-12 18:44:50.596041,0.0
2023-08-12 18:44:50.603730,-23.0
2023-08-12 18:44:50.611420,-52.0
2023-08-12 18:44:50.619109,-73.0
2023-08-12 18:44:50.626799,-83.0
2023-08-12 18:44:50.634488,-97.0
2023-08-12 18:44:50.642178,-111.0
2023-08-12 18:44:50.649868,-116.0
2023-08-12 18:44:50.657557,-121.0
2023-08-12 18:44:50.665247,-126.0
2023-08-12 18:44:50.672936,-128.0
2023-08-12 18:44:50.680626,-128.0
2023-08-12 18:44:50.688315,-133.0
2023-08-12 18:44:50.696005,-128.0
2023-08-12 18:44:50.703694,-121.0
2023-08-12 18:44:50.711384,-121.0
2023-08-12 18:44:50.719073,-119.0
2023-08-12 18:44:50.726763,-116.0
2023-08-12 18:44:50.734452,-114.0
2023-08-12 18:44:50.742142,-109.0
2023-08-12 18:44:50.749831,-107.0
2023-08-12 18:44:50.757521,-104.0
2023-08-12 18:44:50.765211,-104.0
2023-08-12 18:44:50.772900,-102.0
2023-08-12 18:44:50.780590,-102.0
2023-08-12 18:44:50.788279,-102.0
2023-08-12 18:44:50.795969,-97.0
2023-08-12 18:44:50.803658,-97.0
2023-08-12 18:44:50.811348,-102.0
2023-08-12 18:44:50.819037,-104.0
2023-08-12 18:44:50.826727,-109.0
2023-08-12 18:44:50.834416,-104.0
2023-08-12 18:44:50.842106,-102.0
2023-08-12 18:44:50.849795,-104.0
2023-08-12 18:44:50.857485,-104.0
2023-08-12 18:44:50.865174,-104.0
2023-08-12 18:44:50.872864,-109.0
2023-08-12 18:44:50.880554,-107.0
2023-08-12 18:44:50.888243,-104.0
2023-08-12 18:44:50.895933,-107.0
2023-08-12 18:44:50.903622,-102.0
2023-08-12 18:44:50.911312,-97.0
2023-08-12 18:44:50.919001,-99.0
2023-08-12 18:44:50.926691,-97.0
2023-08-12 18:44:50.934380,-90.0
2023-08-12 18:44:50.942070,-90.0
2023-08-12 18:44:50.949759,-95.0
2023-08-12 18:44:50.957449,-99.0
2023-08-12 18:44:50.965138,-102.0
2023-08-12 18:44:50.972828,-92.0
2023-08-12 18:44:50.980517,-88.0
2023-08-12 18:44:50.988207,-85.0
2023-08-12 18:44:50.995896,-73.0
2023-08-12 18:44:51.003586,-57.0
2023-08-12 18:44:51.011276,-40.0
2023-08-12 18:44:51.018965,-33.0
2023-08-12 18:44:51.026655,-49.0
2023-08-12 18:44:51.034344,-71.0
2023-08-12 18:44:51.042034,-76.0
2023-08-12 18:44:51.049723,-90.0
2023-08-12 18:44:51.057413,-104.0
2023-08-12 18:44:51.065102,-102.0
2023-08-12 18:44:51.072792,-97.0
2023-08-12 18:44:51.080481,-97.0
2023-08-12 18:44:51.088171,-95.0
2023-08-12 18:44:51.095860,-90.0
2023-08-12 18:44:51.103550,-61.0
2023-08-12 18:44:51.111239,104.0
2023-08-12 18:44:51.118929,507.0
2023-08-12 18:44:51.126619,930.0
2023-08-12 18:44:51.134308,814.0
2023-08-12 18:44:51.141998,-23.0
2023-08-12 18:44:51.149687,-656.0
2023-08-12 18:44:51.157377,-471.0
2023-08-12 18:44:51.165066,-204.0
2023-08-12 18:44:51.172756,-197.0
2023-08-12 18:44:51.180445,-126.0
2023-08-12 18:44:51.188135,-73.0
2023-08-12 18:44:51.195824,-107.0
2023-08-12 18:44:51.203514,-99.0
2023-08-12 18:44:51.211203,-71.0
2023-08-12 18:44:51.218893,-73.0
2023-08-12 18:44:51.226582,-73.0
2023-08-12 18:44:51.234272,-61.0
2023-08-12 18:44:51.241962,-57.0
2023-08-12 18:44:51.249651,-52.0
2023-08-12 18:44:51.257341,-47.0
2023-08-12 18:44:51.265030,-42.0
2023-08-12 18:44:51.272720,-45.0
2023-08-12 18:44:51.280409,-47.0
2023-08-12 18:44:51.288099,-38.0
2023-08-12 18:44:51.295788,-26.0
2023-08-12 18:44:51.303478,-21.0
2023-08-12 18:44:51.311167,-14.0
2023-08-12 18:44:51.318857,-7.0
2023-08-12 18:44:51.326546,-2.0
2023-08-12 18:44:51.334236,4.0
2023-08-12 18:44:51.341925,19.0
2023-08-12 18:44:51.349615,30.0
2023-08-12 18:44:51.357305,38.0
2023-08-12 18:44:51.364994,40.0
2023-08-12 18:44:51.372684,42.0
2023-08-12 18:44:51.380373,47.0
2023-08-12 18:44:51.388063,47.0
2023-08-12 18:44:51.395752,42.0
2023-08-12 18:44:51.403442,28.0
2023-08-12 18:44:51.411131,7.0
2023-08-12 18:44:51.418821,-11.0
2023-08-12 18:44:51.426510,-28.0
2023-08-12 18:44:51.434200,-54.0
2023-08-12 18:44:51.441889,-76.0
2023-08-12 18:44:51.449579,-92.0
2023-08-12 18:44:51.457268,-107.0
2023-08-12 18:44:51.464958,-121.0
2023-08-12 18:44:51.472648,-130.0
2023-08-12 18:44:51.480337,-135.0
2023-08-12 18:44:51.488027,-138.0
2023-08-12 18:44:51.495716,-140.0
2023-08-12 18:44:51.503406,-142.0
2023-08-12 18:44:51.511095,-140.0
2023-08-12 18:44:51.518785,-138.0
2023-08-12 18:44:51.526474,-138.0
2023-08-12 18:44:51.534164,-133.0
2023-08-12 18:44:51.541853,-130.0
2023-08-12 18:44:51.549543,-128.0
2023-08-12 18:44:51.557232,-123.0
2023-08-12 18:44:51.564922,-116.0
2023-08-12 18:44:51.572611,-116.0
2023-08-12 18:44:51.580301,-114.0
2023-08-12 18:44:51.587991,-109.0
2023-08-12 18:44:51.595680,-102.0
2023-08-12 18:44:51.603370,-102.0
2023-08-12 18:44:51.611059,-104.0
2023-08-12 18:44:51.618749,-102.0
2023-08-12 18:44:51.626438,-102.0
2023-08-12 18:44:51.634128,-104.0
2023-08-12 18:44:51.641817,-104.0
2023-08-12 18:44:51.649507,-104.0
2023-08-12 18:44:51.657196,-107.0
2023-08-12 18:44:51.664886,-107.0
2023-08-12 18:44:51.672575,-102.0
2023-08-12 18:44:51.680265,-104.0
2023-08-12 18:44:51.687954,-107.0
2023-08-12 18:44:51.695644,-104.0
2023-08-12 18:44:51.703334,-102.0
2023-08-12 18:44:51.711023,-102.0
2023-08-12 18:44:51.718713,-104.0
2023-08-12 18:44:51.726402,-104.0
2023-08-12 18:44:51.734092,-102.0
2023-08-12 18:44:51.741781,-102.0
2023-08-12 18:44:51.749471,-104.0
2023-08-12 18:44:51.757160,-99.0
2023-08-12 18:44:51.764850,-95.0
2023-08-12 18:44:51.772539,-99.0
2023-08-12 18:44:51.780229,-104.0
2023-08-12 18:44:51.787918,-102.0
2023-08-12 18:44:51.795608,-97.0
2023-08-12 18:44:51.803297,-95.0
2023-08-12 18:44:51.810987,-83.0
2023-08-12 18:44:51.818676,-66.0
2023-08-12 18:44:51.826366,-45.0
2023-08-12 18:44:51.834056,-33.0
2023-08-12 18:44:51.841745,-38.0
2023-08-12 18:44:51.849435,-57.0
2023-08-12 18:44:51.857124,-76.0
2023-08-12 18:44:51.864814,-90.0
2023-08-12 18:44:51.872503,-104.0
2023-08-12 18:44:51.880193,-109.0
2023-08-12 18:44:51.887882,-104.0
2023-08-12 18:44:51.895572,-97.0
2023-08-12 18:44:51.903261,-95.0
2023-08-12 18:44:51.910951,-92.0
2023-08-12 18:44:51.918640,-78.0
2023-08-12 18:44:51.926330,4.0
2023-08-12 18:44:51.934019,273.0
2023-08-12 18:44:51.941709,695.0
2023-08-12 18:44:51.949399,871.0
2023-08-12 18:44:51.957088,316.0
2023-08-12 18:44:51.964778,-526.0
2023-08-12 18:44:51.972467,-654.0
2023-08-12 18:44:51.980157,-318.0
2023-08-12 18:44:51.987846,-218.0
2023-08-12 18:44:51.995536,-166.0
2023-08-12 18:44:52.003225,-61.0
2023-08-12 18:44:52.010915,-73.0
2023-08-12 18:44:52.018604,-99.0
2023-08-12 18:44:52.026294,-71.0
2023-08-12 18:44:52.033983,-61.0
2023-08-12 18:44:52.041673,-69.0
2023-08-12 18:44:52.049362,-57.0
2023-08-12 18:44:52.057052,-47.0
2023-08-12 18:44:52.064742,-45.0
2023-08-12 18:44:52.072431,-38.0
2023-08-12 18:44:52.080121,-30.0
2023-08-12 18:44:52.087810,-28.0
2023-08-12 18:44:52.095500,-23.0
2023-08-12 18:44:52.103189,-14.0
2023-08-12 18:44:52.110879,-7.0
2023-08-12 18:44:52.118568,-4.0
2023-08-12 18:44:52.126258,2.0
2023-08-12 18:44:52.133947,9.0
2023-08-12 18:44:52.141637,21.0
2023-08-12 18:44:52.149326,30.0
2023-08-12 18:44:52.157016,40.0
2023-08-12 18:44:52.164705,52.0
2023-08-12 18:44:52.172395,57.0
2023-08-12 18:44:52.180085,69.0
2023-08-12 18:44:52.187774,80.0
2023-08-12 18:44:52.195464,83.0
2023-08-12 18:44:52.203153,80.0
2023-08-12 18:44:52.210843,76.0
2023-08-12 18:44:52.218532,66.0
2023-08-12 18:44:52.226222,52.0
2023-08-12 18:44:52.233911,33.0
2023-08-12 18:44:52.241601,9.0
2023-08-12 18:44:52.249290,-19.0
2023-08-12 18:44:52.256980,-40.0
2023-08-12 18:44:52.264669,-61.0
2023-08-12 18:44:52.272359,-78.0
2023-08-12 18:44:52.280048,-95.0
2023-08-12 18:44:52.287738,-109.0
2023-08-12 18:44:52.295428,-119.0
2023-08-12 18:44:52.303117,-121.0
2023-08-12 18:44:52.310807,-123.0
2023-08-12 18:44:52.318496,-123.0
2023-08-12 18:44:52.326186,-119.0
2023-08-12 18:44:52.333875,-114.0
2023-08-12 18:44:52.341565,-116.0
2023-08-12 18:44:52.349254,-121.0
2023-08-12 18:44:52.356944,-121.0
2023-08-12 18:44:52.364633,-116.0
2023-08-12 18:44:52.372323,-109.0
2023-08-12 18:44:52.380012,-107.0
2023-08-12 18:44:52.387702,-107.0
2023-08-12 18:44:52.395391,-104.0
2023-08-12 18:44:52.403081,-99.0
2023-08-12 18:44:52.410771,-92.0
2023-08-12 18:44:52.418460,-92.0
2023-08-12 18:44:52.426150,-95.0
2023-08-12 18:44:52.433839,-92.0
2023-08-12 18:44:52.441529,-92.0
2023-08-12 18:44:52.449218,-95.0
2023-08-12 18:44:52.456908,-92.0
2023-08-12 18:44:52.464597,-95.0
2023-08-12 18:44:52.472287,-97.0
2023-08-12 18:44:52.479976,-99.0
2023-08-12 18:44:52.487666,-99.0
2023-08-12 18:44:52.495355,-99.0
2023-08-12 18:44:52.503045,-99.0
2023-08-12 18:44:52.510734,-104.0
2023-08-12 18:44:52.518424,-104.0
2023-08-12 18:44:52.526114,-109.0
2023-08-12 18:44:52.533803,-111.0
2023-08-12 18:44:52.541493,-109.0
2023-08-12 18:44:52.549182,-107.0
2023-08-12 18:44:52.556872,-107.0
2023-08-12 18:44:52.564561,-109.0
2023-08-12 18:44:52.572251,-109.0
2023-08-12 18:44:52.579940,-107.0
2023-08-12 18:44:52.587630,-102.0
2023-08-12 18:44:52.595319,-90.0
2023-08-12 18:44:52.603009,-69.0
2023-08-12 18:44:52.610698,-45.0
2023-08-12 18:44:52.618388,-38.0
2023-08-12 18:44:52.626077,-57.0
2023-08-12 18:44:52.633767,-78.0
2023-08-12 18:44:52.641456,-80.0
2023-08-12 18:44:52.649146,-90.0
2023-08-12 18:44:52.656836,-107.0
2023-08-12 18:44:52.664525,-109.0
2023-08-12 18:44:52.672215,-99.0
2023-08-12 18:44:52.679904,-97.0
2023-08-12 18:44:52.687594,-92.0
2023-08-12 18:44:52.695283,-88.0
2023-08-12 18:44:52.702973,-64.0
2023-08-12 18:44:52.710662,92.0
2023-08-12 18:44:52.718352,495.0
2023-08-12 18:44:52.726041,933.0
2023-08-12 18:44:52.733731,837.0
2023-08-12 18:44:52.741420,2.0
2023-08-12 18:44:52.749110,-676.0
2023-08-12 18:44:52.756799,-521.0
2023-08-12 18:44:52.764489,-233.0
2023-08-12 18:44:52.772179,-211.0
2023-08-12 18:44:52.779868,-133.0
2023-08-12 18:44:52.787558,-69.0
2023-08-12 18:44:52.795247,-107.0
2023-08-12 18:44:52.802937,-104.0
2023-08-12 18:44:52.810626,-69.0
2023-08-12 18:44:52.818316,-66.0
2023-08-12 18:44:52.826005,-69.0
2023-08-12 18:44:52.833695,-54.0
2023-08-12 18:44:52.841384,-49.0
2023-08-12 18:44:52.849074,-47.0
2023-08-12 18:44:52.856763,-40.0
2023-08-12 18:44:52.864453,-33.0
2023-08-12 18:44:52.872142,-30.0
2023-08-12 18:44:52.879832,-23.0
2023-08-12 18:44:52.887522,-19.0
2023-08-12 18:44:52.895211,-19.0
2023-08-12 18:44:52.902901,-11.0
2023-08-12 18:44:52.910590,0.0
2023-08-12 18:44:52.918280,7.0
2023-08-12 18:44:52.925969,11.0
2023-08-12 18:44:52.933659,23.0
2023-08-12 18:44:52.941348,35.0
2023-08-12 18:44:52.949038,45.0
2023-08-12 18:44:52.956727,54.0
2023-08-12 18:44:52.964417,64.0
2023-08-12 18:44:52.972106,69.0
2023-08-12 18:44:52.979796,69.0
2023-08-12 18:44:52.987485,61.0
2023-08-12 18:44:52.995175,54.0
2023-08-12 18:44:53.002865,47.0
2023-08-12 18:44:53.010554,35.0
2023-08-12 18:44:53.018244,7.0
2023-08-12 18:44:53.025933,-19.0
2023-08-12 18:44:53.033623,-38.0
2023-08-12 18:44:53.041312,-64.0
2023-08-12 18:44:53.049002,-88.0
2023-08-12 18:44:53.056691,-95.0
2023-08-12 18:44:53.064381,-97.0
2023-08-12 18:44:53.072070,-119.0
2023-08-12 18:44:53.079760,-128.0
2023-08-12 18:44:53.087449,-121.0
2023-08-12 18:44:53.095139,-121.0
2023-08-12 18:44:53.102828,-128.0
2023-08-12 18:44:53.110518,-126.0
2023-08-12 18:44:53.118208,-123.0
2023-08-12 18:44:53.125897,-123.0
2023-08-12 18:44:53.133587,-114.0
2023-08-12 18:44:53.141276,-109.0
2023-08-12 18:44:53.148966,-107.0
2023-08-12 18:44:53.156655,-107.0
2023-08-12 18:44:53.164345,-102.0
2023-08-12 18:44:53.172034,-95.0
2023-08-12 18:44:53.179724,-92.0
2023-08-12 18:44:53.187413,-88.0
2023-08-12 18:44:53.195103,-80.0
2023-08-12 18:44:53.202792,-76.0
2023-08-12 18:44:53.210482,-80.0
2023-08-12 18:44:53.218171,-85.0
2023-08-12 18:44:53.225861,-85.0
2023-08-12 18:44:53.233551,-80.0
2023-08-12 18:44:53.241240,-83.0
2023-08-12 18:44:53.248930,-88.0
2023-08-12 18:44:53.256619,-92.0
2023-08-12 18:44:53.264309,-99.0
2023-08-12 18:44:53.271998,-99.0
2023-08-12 18:44:53.279688,-95.0
2023-08-12 18:44:53.287377,-95.0
2023-08-12 18:44:53.295067,-99.0
2023-08-12 18:44:53.302756,-102.0
2023-08-12 18:44:53.310446,-99.0
2023-08-12 18:44:53.318135,-99.0
2023-08-12 18:44:53.325825,-99.0
2023-08-12 18:44:53.333514,-95.0
2023-08-12 18:44:53.341204,-97.0
2023-08-12 18:44:53.348894,-99.0
2023-08-12 18:44:53.356583,-95.0
2023-08-12 18:44:53.364273,-92.0
2023-08-12 18:44:53.371962,-97.0
2023-08-12 18:44:53.379652,-95.0
2023-08-12 18:44:53.387341,-92.0
2023-08-12 18:44:53.395031,-95.0
2023-08-12 18:44:53.402720,-88.0
2023-08-12 18:44:53.410410,-69.0
2023-08-12 18:44:53.418099,-47.0
2023-08-12 18:44:53.425789,-33.0
2023-08-12 18:44:53.433478,-30.0
2023-08-12 18:44:53.441168,-49.0
2023-08-12 18:44:53.448857,-66.0
2023-08-12 18:44:53.456547,-69.0
2023-08-12 18:44:53.464237,-85.0
2023-08-12 18:44:53.471926,-107.0
2023-08-12 18:44:53.479616,-97.0
2023-08-12 18:44:53.487305,-88.0
2023-08-12 18:44:53.494995,-95.0
2023-08-12 18:44:53.502684,-90.0
2023-08-12 18:44:53.510374,-80.0
2023-08-12 18:44:53.518063,-33.0
2023-08-12 18:44:53.525753,209.0
2023-08-12 18:44:53.533442,692.0
2023-08-12 18:44:53.541132,1037.0
2023-08-12 18:44:53.548821,642.0
2023-08-12 18:44:53.556511,-299.0
2023-08-12 18:44:53.564200,-673.0
2023-08-12 18:44:53.571890,-357.0
2023-08-12 18:44:53.579579,-192.0
2023-08-12 18:44:53.587269,-192.0
2023-08-12 18:44:53.594959,-104.0
2023-08-12 18:44:53.602648,-88.0
2023-08-12 18:44:53.610338,-123.0
2023-08-12 18:44:53.618027,-97.0
2023-08-12 18:44:53.625717,-73.0
2023-08-12 18:44:53.633406,-83.0
2023-08-12 18:44:53.641096,-76.0
2023-08-12 18:44:53.648785,-57.0
2023-08-12 18:44:53.656475,-54.0
2023-08-12 18:44:53.664164,-54.0
2023-08-12 18:44:53.671854,-47.0
2023-08-12 18:44:53.679543,-40.0
2023-08-12 18:44:53.687233,-33.0
2023-08-12 18:44:53.694922,-23.0
2023-08-12 18:44:53.702612,-21.0
2023-08-12 18:44:53.710302,-21.0
2023-08-12 18:44:53.717991,-11.0
2023-08-12 18:44:53.725681,-4.0
2023-08-12 18:44:53.733370,2.0
2023-08-12 18:44:53.741060,14.0
2023-08-12 18:44:53.748749,23.0
2023-08-12 18:44:53.756439,26.0
2023-08-12 18:44:53.764128,33.0
2023-08-12 18:44:53.771818,45.0
2023-08-12 18:44:53.779507,49.0
2023-08-12 18:44:53.787197,49.0
2023-08-12 18:44:53.794886,54.0
2023-08-12 18:44:53.802576,54.0
2023-08-12 18:44:53.810265,47.0
2023-08-12 18:44:53.817955,33.0
2023-08-12 18:44:53.825645,21.0
2023-08-12 18:44:53.833334,-2.0
2023-08-12 18:44:53.841024,-30.0
2023-08-12 18:44:53.848713,-49.0
2023-08-12 18:44:53.856403,-66.0
2023-08-12 18:44:53.864092,-80.0
2023-08-12 18:44:53.871782,-90.0
2023-08-12 18:44:53.879471,-99.0
2023-08-12 18:44:53.887161,-107.0
2023-08-12 18:44:53.894850,-109.0
2023-08-12 18:44:53.902540,-111.0
2023-08-12 18:44:53.910229,-114.0
2023-08-12 18:44:53.917919,-114.0
2023-08-12 18:44:53.925608,-111.0
2023-08-12 18:44:53.933298,-109.0
2023-08-12 18:44:53.940988,-104.0
2023-08-12 18:44:53.948677,-102.0
2023-08-12 18:44:53.956367,-102.0
2023-08-12 18:44:53.964056,-102.0
2023-08-12 18:44:53.971746,-97.0
2023-08-12 18:44:53.979435,-92.0
2023-08-12 18:44:53.987125,-88.0
2023-08-12 18:44:53.994814,-83.0
2023-08-12 18:44:54.002504,-83.0
2023-08-12 18:44:54.010193,-83.0
2023-08-12 18:44:54.017883,-80.0
2023-08-12 18:44:54.025572,-80.0
2023-08-12 18:44:54.033262,-80.0
2023-08-12 18:44:54.040951,-78.0
2023-08-12 18:44:54.048641,-78.0
2023-08-12 18:44:54.056331,-78.0
2023-08-12 18:44:54.064020,-78.0
2023-08-12 18:44:54.071710,-78.0
2023-08-12 18:44:54.079399,-78.0
2023-08-12 18:44:54.087089,-80.0
2023-08-12 18:44:54.094778,-80.0
2023-08-12 18:44:54.102468,-83.0
2023-08-12 18:44:54.110157,-95.0
2023-08-12 18:44:54.117847,-102.0
2023-08-12 18:44:54.125536,-95.0
2023-08-12 18:44:54.133226,-90.0
2023-08-12 18:44:54.140915,-95.0
2023-08-12 18:44:54.148605,-95.0
2023-08-12 18:44:54.156294,-90.0
2023-08-12 18:44:54.163984,-88.0
2023-08-12 18:44:54.171674,-85.0
2023-08-12 18:44:54.179363,-85.0
2023-08-12 18:44:54.187053,-90.0
2023-08-12 18:44:54.194742,-88.0
2023-08-12 18:44:54.202432,-88.0
2023-08-12 18:44:54.210121,-88.0
2023-08-12 18:44:54.217811,-80.0
2023-08-12 18:44:54.225500,-69.0
2023-08-12 18:44:54.233190,-49.0
2023-08-12 18:44:54.240879,-33.0
2023-08-12 18:44:54.248569,-23.0
2023-08-12 18:44:54.256258,-35.0
2023-08-12 18:44:54.263948,-57.0
2023-08-12 18:44:54.271637,-71.0
2023-08-12 18:44:54.279327,-88.0
2023-08-12 18:44:54.287017,-99.0
2023-08-12 18:44:54.294706,-97.0
2023-08-12 18:44:54.302396,-88.0
2023-08-12 18:44:54.310085,-88.0
2023-08-12 18:44:54.317775,-88.0
2023-08-12 18:44:54.325464,-88.0
2023-08-12 18:44:54.333154,-66.0
2023-08-12 18:44:54.340843,73.0
2023-08-12 18:44:54.348533,445.0
2023-08-12 18:44:54.356222,892.0
2023-08-12 18:44:54.363912,878.0
2023-08-12 18:44:54.371601,104.0
2023-08-12 18:44:54.379291,-623.0
2023-08-12 18:44:54.386980,-526.0
2023-08-12 18:44:54.394670,-226.0
2023-08-12 18:44:54.402359,-197.0
2023-08-12 18:44:54.410049,-130.0
2023-08-12 18:44:54.417739,-61.0
2023-08-12 18:44:54.425428,-99.0
2023-08-12 18:44:54.433118,-99.0
2023-08-12 18:44:54.440807,-64.0
2023-08-12 18:44:54.448497,-61.0
2023-08-12 18:44:54.456186,-66.0
2023-08-12 18:44:54.463876,-57.0
2023-08-12 18:44:54.471565,-54.0
2023-08-12 18:44:54.479255,-49.0
2023-08-12 18:44:54.486944,-38.0
2023-08-12 18:44:54.494634,-33.0
2023-08-12 18:44:54.502323,-28.0
2023-08-12 18:44:54.510013,-26.0
2023-08-12 18:44:54.517702,-19.0
2023-08-12 18:44:54.525392,-11.0
2023-08-12 18:44:54.533082,-4.0
2023-08-12 18:44:54.540771,2.0
2023-08-12 18:44:54.548461,11.0
2023-08-12 18:44:54.556150,16.0
2023-08-12 18:44:54.563840,23.0
2023-08-12 18:44:54.571529,33.0
2023-08-12 18:44:54.579219,47.0
2023-08-12 18:44:54.586908,57.0
2023-08-12 18:44:54.594598,59.0
2023-08-12 18:44:54.602287,61.0
2023-08-12 18:44:54.609977,64.0
2023-08-12 18:44:54.617666,69.0
2023-08-12 18:44:54.625356,61.0
2023-08-12 18:44:54.633045,49.0
2023-08-12 18:44:54.640735,35.0
2023-08-12 18:44:54.648425,19.0
2023-08-12 18:44:54.656114,-4.0
2023-08-12 18:44:54.663804,-28.0
2023-08-12 18:44:54.671493,-47.0
2023-08-12 18:44:54.679183,-64.0
2023-08-12 18:44:54.686872,-83.0
2023-08-12 18:44:54.694562,-102.0
2023-08-12 18:44:54.702251,-114.0
2023-08-12 18:44:54.709941,-119.0
2023-08-12 18:44:54.717630,-123.0
2023-08-12 18:44:54.725320,-126.0
2023-08-12 18:44:54.733009,-126.0
2023-08-12 18:44:54.740699,-128.0
2023-08-12 18:44:54.748388,-128.0
2023-08-12 18:44:54.756078,-123.0
2023-08-12 18:44:54.763768,-121.0
2023-08-12 18:44:54.771457,-121.0
2023-08-12 18:44:54.779147,-119.0
2023-08-12 18:44:54.786836,-119.0
2023-08-12 18:44:54.794526,-114.0
2023-08-12 18:44:54.802215,-109.0
2023-08-12 18:44:54.809905,-107.0
2023-08-12 18:44:54.817594,-102.0
2023-08-12 18:44:54.825284,-95.0
2023-08-12 18:44:54.832973,-95.0
2023-08-12 18:44:54.840663,-95.0
2023-08-12 18:44:54.848352,-95.0
2023-08-12 18:44:54.856042,-95.0
2023-08-12 18:44:54.863731,-92.0
2023-08-12 18:44:54.871421,-92.0
2023-08-12 18:44:54.879111,-90.0
2023-08-12 18:44:54.886800,-90.0
2023-08-12 18:44:54.894490,-92.0
2023-08-12 18:44:54.902179,-92.0
2023-08-12 18:44:54.909869,-88.0
2023-08-12 18:44:54.917558,-92.0
2023-08-12 18:44:54.925248,-99.0
2023-08-12 18:44:54.932937,-97.0
2023-08-12 18:44:54.940627,-95.0
2023-08-12 18:44:54.948316,-99.0
2023-08-12 18:44:54.956006,-99.0
2023-08-12 18:44:54.963695,-97.0
2023-08-12 18:44:54.971385,-102.0
2023-08-12 18:44:54.979074,-102.0
2023-08-12 18:44:54.986764,-97.0
2023-08-12 18:44:54.994454,-95.0
2023-08-12 18:44:55.002143,-99.0
2023-08-12 18:44:55.009833,-102.0
2023-08-12 18:44:55.017522,-102.0
2023-08-12 18:44:55.025212,-97.0
2023-08-12 18:44:55.032901,-90.0
2023-08-12 18:44:55.040591,-80.0
2023-08-12 18:44:55.048280,-57.0
2023-08-12 18:44:55.055970,-35.0
2023-08-12 18:44:55.063659,-35.0
2023-08-12 18:44:55.071349,-52.0
2023-08-12 18:44:55.079038,-69.0
2023-08-12 18:44:55.086728,-73.0
2023-08-12 18:44:55.094417,-85.0
2023-08-12 18:44:55.102107,-102.0
2023-08-12 18:44:55.109797,-99.0
2023-08-12 18:44:55.117486,-90.0
2023-08-12 18:44:55.125176,-92.0
2023-08-12 18:44:55.132865,-92.0
2023-08-12 18:44:55.140555,-83.0
2023-08-12 18:44:55.148244,-59.0
2023-08-12 18:44:55.155934,64.0
2023-08-12 18:44:55.163623,402.0
2023-08-12 18:44:55.171313,816.0
2023-08-12 18:44:55.179002,804.0
2023-08-12 18:44:55.186692,54.0
2023-08-12 18:44:55.194381,-666.0
2023-08-12 18:44:55.202071,-571.0
2023-08-12 18:44:55.209760,-254.0
2023-08-12 18:44:55.217450,-209.0
2023-08-12 18:44:55.225139,-128.0
2023-08-12 18:44:55.232829,-57.0
2023-08-12 18:44:55.240519,-104.0
2023-08-12 18:44:55.248208,-102.0
2023-08-12 18:44:55.255898,-54.0
2023-08-12 18:44:55.263587,-57.0
2023-08-12 18:44:55.271277,-66.0
2023-08-12 18:44:55.278966,-52.0
2023-08-12 18:44:55.286656,-45.0
2023-08-12 18:44:55.294345,-42.0
2023-08-12 18:44:55.302035,-38.0
2023-08-12 18:44:55.309724,-28.0
2023-08-12 18:44:55.317414,-26.0
2023-08-12 18:44:55.325103,-28.0
2023-08-12 18:44:55.332793,-26.0
2023-08-12 18:44:55.340482,-19.0
2023-08-12 18:44:55.348172,-11.0
2023-08-12 18:44:55.355862,-2.0
2023-08-12 18:44:55.363551,7.0
2023-08-12 18:44:55.371241,16.0
2023-08-12 18:44:55.378930,26.0
2023-08-12 18:44:55.386620,38.0
2023-08-12 18:44:55.394309,52.0
2023-08-12 18:44:55.401999,61.0
2023-08-12 18:44:55.409688,69.0
2023-08-12 18:44:55.417378,76.0
2023-08-12 18:44:55.425067,80.0
2023-08-12 18:44:55.432757,78.0
2023-08-12 18:44:55.440446,73.0
2023-08-12 18:44:55.448136,64.0
2023-08-12 18:44:55.455825,47.0
2023-08-12 18:44:55.463515,26.0
2023-08-12 18:44:55.471205,2.0
2023-08-12 18:44:55.478894,-23.0
2023-08-12 18:44:55.486584,-47.0
2023-08-12 18:44:55.494273,-69.0
2023-08-12 18:44:55.501963,-88.0
2023-08-12 18:44:55.509652,-104.0
2023-08-12 18:44:55.517342,-119.0
2023-08-12 18:44:55.525031,-126.0
2023-08-12 18:44:55.532721,-130.0
2023-08-12 18:44:55.540410,-133.0
2023-08-12 18:44:55.548100,-130.0
2023-08-12 18:44:55.555789,-128.0
2023-08-12 18:44:55.563479,-126.0
2023-08-12 18:44:55.571168,-119.0
2023-08-12 18:44:55.578858,-114.0
2023-08-12 18:44:55.586548,-111.0
2023-08-12 18:44:55.594237,-109.0
2023-08-12 18:44:55.601927,-104.0
2023-08-12 18:44:55.609616,-99.0
2023-08-12 18:44:55.617306,-99.0
2023-08-12 18:44:55.624995,-97.0
2023-08-12 18:44:55.632685,-90.0
2023-08-12 18:44:55.640374,-88.0
2023-08-12 18:44:55.648064,-83.0
2023-08-12 18:44:55.655753,-83.0
2023-08-12 18:44:55.663443,-85.0
2023-08-12 18:44:55.671132,-85.0
2023-08-12 18:44:55.678822,-85.0
2023-08-12 18:44:55.686511,-88.0
2023-08-12 18:44:55.694201,-85.0
2023-08-12 18:44:55.701891,-85.0
2023-08-12 18:44:55.709580,-90.0
2023-08-12 18:44:55.717270,-92.0
2023-08-12 18:44:55.724959,-90.0
2023-08-12 18:44:55.732649,-97.0
2023-08-12 18:44:55.740338,-99.0
2023-08-12 18:44:55.748028,-95.0
2023-08-12 18:44:55.755717,-95.0
2023-08-12 18:44:55.763407,-97.0
2023-08-12 18:44:55.771096,-99.0
2023-08-12 18:44:55.778786,-109.0
2023-08-12 18:44:55.786475,-114.0
2023-08-12 18:44:55.794165,-116.0
2023-08-12 18:44:55.801854,-116.0
2023-08-12 18:44:55.809544,-109.0
2023-08-12 18:44:55.817234,-104.0
2023-08-12 18:44:55.824923,-102.0
2023-08-12 18:44:55.832613,-85.0
2023-08-12 18:44:55.840302,-61.0
2023-08-12 18:44:55.847992,-42.0
2023-08-12 18:44:55.855681,-47.0
2023-08-12 18:44:55.863371,-71.0
2023-08-12 18:44:55.871060,-83.0
2023-08-12 18:44:55.878750,-85.0
2023-08-12 18:44:55.886439,-99.0
2023-08-12 18:44:55.894129,-107.0
2023-08-12 18:44:55.901818,-99.0
2023-08-12 18:44:55.909508,-102.0
2023-08-12 18:44:55.917197,-102.0
2023-08-12 18:44:55.924887,-90.0
2023-08-12 18:44:55.932577,-83.0
2023-08-12 18:44:55.940266,-21.0
2023-08-12 18:44:55.947956,238.0
2023-08-12 18:44:55.955645,692.0
2023-08-12 18:44:55.963335,975.0
2023-08-12 18:44:55.971024,523.0
2023-08-12 18:44:55.978714,-411.0
2023-08-12 18:44:55.986403,-716.0
2023-08-12 18:44:55.994093,-366.0
2023-08-12 18:44:56.001782,-207.0
2023-08-12 18:44:56.009472,-188.0
2023-08-12 18:44:56.017161,-83.0
2023-08-12 18:44:56.024851,-71.0
2023-08-12 18:44:56.032540,-107.0
2023-08-12 18:44:56.040230,-73.0
2023-08-12 18:44:56.047919,-52.0
2023-08-12 18:44:56.055609,-59.0
2023-08-12 18:44:56.063299,-52.0
2023-08-12 18:44:56.070988,-42.0
2023-08-12 18:44:56.078678,-42.0
2023-08-12 18:44:56.086367,-35.0
2023-08-12 18:44:56.094057,-26.0
2023-08-12 18:44:56.101746,-19.0
2023-08-12 18:44:56.109436,-11.0
2023-08-12 18:44:56.117125,-11.0
2023-08-12 18:44:56.124815,-11.0
2023-08-12 18:44:56.132504,0.0
2023-08-12 18:44:56.140194,9.0
2023-08-12 18:44:56.147883,14.0
2023-08-12 18:44:56.155573,26.0
2023-08-12 18:44:56.163262,40.0
2023-08-12 18:44:56.170952,47.0
2023-08-12 18:44:56.178642,52.0
2023-08-12 18:44:56.186331,64.0
2023-08-12 18:44:56.194021,76.0
2023-08-12 18:44:56.201710,83.0
2023-08-12 18:44:56.209400,90.0
2023-08-12 18:44:56.217089,90.0
2023-08-12 18:44:56.224779,88.0
2023-08-12 18:44:56.232468,80.0
2023-08-12 18:44:56.240158,66.0
2023-08-12 18:44:56.247847,47.0
2023-08-12 18:44:56.255537,23.0
2023-08-12 18:44:56.263226,-9.0
2023-08-12 18:44:56.270916,-45.0
2023-08-12 18:44:56.278605,-66.0
2023-08-12 18:44:56.286295,-85.0
2023-08-12 18:44:56.293985,-111.0
2023-08-12 18:44:56.301674,-126.0
2023-08-12 18:44:56.309364,-133.0
2023-08-12 18:44:56.317053,-140.0
2023-08-12 18:44:56.324743,-140.0
2023-08-12 18:44:56.332432,-138.0
2023-08-12 18:44:56.340122,-135.0
2023-08-12 18:44:56.347811,-130.0
2023-08-12 18:44:56.355501,-130.0
2023-08-12 18:44:56.363190,-128.0
2023-08-12 18:44:56.370880,-121.0
2023-08-12 18:44:56.378569,-111.0
2023-08-12 18:44:56.386259,-107.0
2023-08-12 18:44:56.393948,-109.0
2023-08-12 18:44:56.401638,-104.0
2023-08-12 18:44:56.409328,-99.0
2023-08-12 18:44:56.417017,-95.0
2023-08-12 18:44:56.424707,-92.0
2023-08-12 18:44:56.432396,-90.0
2023-08-12 18:44:56.440086,-92.0
2023-08-12 18:44:56.447775,-92.0
2023-08-12 18:44:56.455465,-90.0
2023-08-12 18:44:56.463154,-88.0
2023-08-12 18:44:56.470844,-85.0
2023-08-12 18:44:56.478533,-85.0
2023-08-12 18:44:56.486223,-88.0
2023-08-12 18:44:56.493912,-90.0
2023-08-12 18:44:56.501602,-92.0
2023-08-12 18:44:56.509291,-90.0
2023-08-12 18:44:56.516981,-90.0
2023-08-12 18:44:56.524671,-90.0
2023-08-12 18:44:56.532360,-90.0
2023-08-12 18:44:56.540050,-92.0
2023-08-12 18:44:56.547739,-92.0
2023-08-12 18:44:56.555429,-90.0
2023-08-12 18:44:56.563118,-95.0
2023-08-12 18:44:56.570808,-95.0
2023-08-12 18:44:56.578497,-92.0
2023-08-12 18:44:56.586187,-90.0
2023-08-12 18:44:56.593876,-90.0
2023-08-12 18:44:56.601566,-92.0
2023-08-12 18:44:56.609255,-97.0
2023-08-12 18:44:56.616945,-92.0
2023-08-12 18:44:56.624634,-88.0
2023-08-12 18:44:56.632324,-88.0
2023-08-12 18:44:56.640014,-76.0
2023-08-12 18:44:56.647703,-57.0
2023-08-12 18:44:56.655393,-35.0
2023-08-12 18:44:56.663082,-26.0
2023-08-12 18:44:56.670772,-42.0
2023-08-12 18:44:56.678461,-69.0
2023-08-12 18:44:56.686151,-71.0
2023-08-12 18:44:56.693840,-78.0
2023-08-12 18:44:56.701530,-95.0
2023-08-12 18:44:56.709219,-99.0
2023-08-12 18:44:56.716909,-95.0
2023-08-12 18:44:56.724598,-92.0
2023-08-12 18:44:56.732288,-88.0
2023-08-12 18:44:56.739977,-83.0
2023-08-12 18:44:56.747667,-64.0
2023-08-12 18:44:56.755357,61.0
2023-08-12 18:44:56.763046,418.0
2023-08-12 18:44:56.770736,873.0
2023-08-12 18:44:56.778425,914.0
2023-08-12 18:44:56.786115,169.0
2023-08-12 18:44:56.793804,-635.0
2023-08-12 18:44:56.801494,-602.0
2023-08-12 18:44:56.809183,-266.0
2023-08-12 18:44:56.816873,-204.0
2023-08-12 18:44:56.824562,-145.0
2023-08-12 18:44:56.832252,-69.0
2023-08-12 18:44:56.839941,-97.0
2023-08-12 18:44:56.847631,-104.0
2023-08-12 18:44:56.855320,-71.0
2023-08-12 18:44:56.863010,-69.0
2023-08-12 18:44:56.870700,-71.0
2023-08-12 18:44:56.878389,-52.0
2023-08-12 18:44:56.886079,-45.0
2023-08-12 18:44:56.893768,-52.0
2023-08-12 18:44:56.901458,-52.0
2023-08-12 18:44:56.909147,-47.0
2023-08-12 18:44:56.916837,-40.0
2023-08-12 18:44:56.924526,-35.0
2023-08-12 18:44:56.932216,-28.0
2023-08-12 18:44:56.939905,-23.0
2023-08-12 18:44:56.947595,-19.0
2023-08-12 18:44:56.955284,-9.0
2023-08-12 18:44:56.962974,0.0
2023-08-12 18:44:56.970663,9.0
2023-08-12 18:44:56.978353,16.0
2023-08-12 18:44:56.986042,26.0
2023-08-12 18:44:56.993732,33.0
2023-08-12 18:44:57.001422,45.0
2023-08-12 18:44:57.009111,57.0
2023-08-12 18:44:57.016801,66.0
2023-08-12 18:44:57.024490,71.0
2023-08-12 18:44:57.032180,69.0
2023-08-12 18:44:57.039869,59.0
2023-08-12 18:44:57.047559,49.0
2023-08-12 18:44:57.055248,35.0
2023-08-12 18:44:57.062938,19.0
2023-08-12 18:44:57.070627,-4.0
2023-08-12 18:44:57.078317,-33.0
2023-08-12 18:44:57.086006,-59.0
2023-08-12 18:44:57.093696,-76.0
2023-08-12 18:44:57.101385,-90.0
2023-08-12 18:44:57.109075,-102.0
2023-08-12 18:44:57.116765,-109.0
2023-08-12 18:44:57.124454,-116.0
2023-08-12 18:44:57.132144,-123.0
2023-08-12 18:44:57.139833,-126.0
2023-08-12 18:44:57.147523,-121.0
2023-08-12 18:44:57.155212,-119.0
2023-08-12 18:44:57.162902,-119.0
2023-08-12 18:44:57.170591,-119.0
2023-08-12 18:44:57.178281,-116.0
2023-08-12 18:44:57.185970,-111.0
2023-08-12 18:44:57.193660,-109.0
2023-08-12 18:44:57.201349,-102.0
2023-08-12 18:44:57.209039,-99.0
2023-08-12 18:44:57.216728,-97.0
2023-08-12 18:44:57.224418,-95.0
2023-08-12 18:44:57.232108,-90.0
2023-08-12 18:44:57.239797,-88.0
2023-08-12 18:44:57.247487,-85.0
2023-08-12 18:44:57.255176,-80.0
2023-08-12 18:44:57.262866,-80.0
2023-08-12 18:44:57.270555,-80.0
2023-08-12 18:44:57.278245,-83.0
2023-08-12 18:44:57.285934,-83.0
2023-08-12 18:44:57.293624,-83.0
2023-08-12 18:44:57.301313,-88.0
2023-08-12 18:44:57.309003,-92.0
2023-08-12 18:44:57.316692,-90.0
2023-08-12 18:44:57.324382,-90.0
2023-08-12 18:44:57.332071,-95.0
2023-08-12 18:44:57.339761,-92.0
2023-08-12 18:44:57.347451,-90.0
2023-08-12 18:44:57.355140,-95.0
2023-08-12 18:44:57.362830,-95.0
2023-08-12 18:44:57.370519,-92.0
2023-08-12 18:44:57.378209,-90.0
2023-08-12 18:44:57.385898,-90.0
2023-08-12 18:44:57.393588,-92.0
2023-08-12 18:44:57.401277,-95.0
2023-08-12 18:44:57.408967,-97.0
2023-08-12 18:44:57.416656,-95.0
2023-08-12 18:44:57.424346,-92.0
2023-08-12 18:44:57.432035,-92.0
2023-08-12 18:44:57.439725,-99.0
2023-08-12 18:44:57.447414,-104.0
2023-08-12 18:44:57.455104,-97.0
2023-08-12 18:44:57.462794,-95.0
2023-08-12 18:44:57.470483,-95.0
2023-08-12 18:44:57.478173,-90.0
2023-08-12 18:44:57.485862,-76.0
2023-08-12 18:44:57.493552,-59.0
2023-08-12 18:44:57.501241,-35.0
2023-08-12 18:44:57.508931,-28.0
2023-08-12 18:44:57.516620,-47.0
2023-08-12 18:44:57.524310,-69.0
2023-08-12 18:44:57.531999,-73.0
2023-08-12 18:44:57.539689,-83.0
2023-08-12 18:44:57.547378,-102.0
2023-08-12 18:44:57.555068,-97.0
2023-08-12 18:44:57.562757,-85.0
2023-08-12 18:44:57.570447,-88.0
2023-08-12 18:44:57.578137,-88.0
2023-08-12 18:44:57.585826,-80.0
2023-08-12 18:44:57.593516,-28.0
2023-08-12 18:44:57.601205,216.0
2023-08-12 18:44:57.608895,709.0
2023-08-12 18:44:57.616584,1075.0
2023-08-12 18:44:57.624274,697.0
2023-08-12 18:44:57.631963,-266.0
2023-08-12 18:44:57.639653,-690.0
2023-08-12 18:44:57.647342,-378.0
2023-08-12 18:44:57.655032,-190.0
2023-08-12 18:44:57.662721,-192.0
2023-08-12 18:44:57.670411,-111.0
2023-08-12 18:44:57.678100,-85.0
2023-08-12 18:44:57.685790,-119.0
2023-08-12 18:44:57.693480,-97.0
2023-08-12 18:44:57.701169,-76.0
2023-08-12 18:44:57.708859,-80.0
2023-08-12 18:44:57.716548,-73.0
2023-08-12 18:44:57.724238,-59.0
2023-08-12 18:44:57.731927,-54.0
2023-08-12 18:44:57.739617,-52.0
2023-08-12 18:44:57.747306,-45.0
2023-08-12 18:44:57.754996,-40.0
2023-08-12 18:44:57.762685,-33.0
2023-08-12 18:44:57.770375,-26.0
2023-08-12 18:44:57.778064,-23.0
2023-08-12 18:44:57.785754,-16.0
2023-08-12 18:44:57.793443,-9.0
2023-08-12 18:44:57.801133,-4.0
2023-08-12 18:44:57.808822,-4.0
2023-08-12 18:44:57.816512,2.0
2023-08-12 18:44:57.824202,11.0
2023-08-12 18:44:57.831891,21.0
2023-08-12 18:44:57.839581,28.0
2023-08-12 18:44:57.847270,40.0
2023-08-12 18:44:57.854960,49.0
2023-08-12 18:44:57.862649,52.0
2023-08-12 18:44:57.870339,54.0
2023-08-12 18:44:57.878028,54.0
2023-08-12 18:44:57.885718,45.0
2023-08-12 18:44:57.893407,28.0
2023-08-12 18:44:57.901097,9.0
2023-08-12 18:44:57.908786,-7.0
2023-08-12 18:44:57.916476,-30.0
2023-08-12 18:44:57.924165,-54.0
2023-08-12 18:44:57.931855,-76.0
2023-08-12 18:44:57.939545,-85.0
2023-08-12 18:44:57.947234,-95.0
2023-08-12 18:44:57.954924,-107.0
2023-08-12 18:44:57.962613,-116.0
2023-08-12 18:44:57.970303,-121.0
2023-08-12 18:44:57.977992,-128.0
2023-08-12 18:44:57.985682,-133.0
2023-08-12 18:44:57.993371,-130.0
2023-08-12 18:44:58.001061,-126.0
2023-08-12 18:44:58.008750,-121.0
2023-08-12 18:44:58.016440,-119.0
2023-08-12 18:44:58.024129,-116.0
2023-08-12 18:44:58.031819,-114.0
2023-08-12 18:44:58.039508,-109.0
2023-08-12 18:44:58.047198,-107.0
2023-08-12 18:44:58.054888,-104.0
2023-08-12 18:44:58.062577,-99.0
2023-08-12 18:44:58.070267,-97.0
2023-08-12 18:44:58.077956,-95.0
2023-08-12 18:44:58.085646,-92.0
2023-08-12 18:44:58.093335,-88.0
2023-08-12 18:44:58.101025,-83.0
2023-08-12 18:44:58.108714,-85.0
2023-08-12 18:44:58.116404,-88.0
2023-08-12 18:44:58.124093,-88.0
2023-08-12 18:44:58.131783,-88.0
2023-08-12 18:44:58.139472,-90.0
2023-08-12 18:44:58.147162,-92.0
2023-08-12 18:44:58.154851,-95.0
2023-08-12 18:44:58.162541,-95.0
2023-08-12 18:44:58.170231,-95.0
2023-08-12 18:44:58.177920,-95.0
2023-08-12 18:44:58.185610,-95.0
2023-08-12 18:44:58.193299,-99.0
2023-08-12 18:44:58.200989,-102.0
2023-08-12 18:44:58.208678,-97.0
2023-08-12 18:44:58.216368,-95.0
2023-08-12 18:44:58.224057,-95.0
2023-08-12 18:44:58.231747,-92.0
2023-08-12 18:44:58.239436,-92.0
2023-08-12 18:44:58.247126,-95.0
2023-08-12 18:44:58.254815,-92.0
2023-08-12 18:44:58.262505,-88.0
2023-08-12 18:44:58.270194,-85.0
2023-08-12 18:44:58.277884,-88.0
2023-08-12 18:44:58.285574,-85.0
2023-08-12 18:44:58.293263,-85.0
2023-08-12 18:44:58.300953,-85.0
2023-08-12 18:44:58.308642,-88.0
2023-08-12 18:44:58.316332,-90.0
2023-08-12 18:44:58.324021,-85.0
2023-08-12 18:44:58.331711,-85.0
2023-08-12 18:44:58.339400,-85.0
2023-08-12 18:44:58.347090,-83.0
2023-08-12 18:44:58.354779,-83.0
2023-08-12 18:44:58.362469,-85.0
2023-08-12 18:44:58.370158,-83.0
2023-08-12 18:44:58.377848,-73.0
2023-08-12 18:44:58.385537,-64.0
2023-08-12 18:44:58.393227,-45.0
2023-08-12 18:44:58.400917,-23.0
2023-08-12 18:44:58.408606,-23.0
2023-08-12 18:44:58.416296,-45.0
2023-08-12 18:44:58.423985,-59.0
2023-08-12 18:44:58.431675,-69.0
2023-08-12 18:44:58.439364,-83.0
2023-08-12 18:44:58.447054,-90.0
2023-08-12 18:44:58.454743,-85.0
2023-08-12 18:44:58.462433,-83.0
2023-08-12 18:44:58.470122,-83.0
2023-08-12 18:44:58.477812,-78.0
2023-08-12 18:44:58.485501,-69.0
2023-08-12 18:44:58.493191,-4.0
2023-08-12 18:44:58.500880,261.0
2023-08-12 18:44:58.508570,723.0
2023-08-12 18:44:58.516260,978.0
2023-08-12 18:44:58.523949,495.0
2023-08-12 18:44:58.531639,-402.0
2023-08-12 18:44:58.539328,-649.0
2023-08-12 18:44:58.547018,-311.0
2023-08-12 18:44:58.554707,-176.0
2023-08-12 18:44:58.562397,-169.0
2023-08-12 18:44:58.570086,-90.0
2023-08-12 18:44:58.577776,-85.0
2023-08-12 18:44:58.585465,-109.0
2023-08-12 18:44:58.593155,-85.0
2023-08-12 18:44:58.600844,-71.0
2023-08-12 18:44:58.608534,-83.0
2023-08-12 18:44:58.616223,-80.0
2023-08-12 18:44:58.623913,-64.0
2023-08-12 18:44:58.631602,-57.0
2023-08-12 18:44:58.639292,-54.0
2023-08-12 18:44:58.646982,-49.0
2023-08-12 18:44:58.654671,-47.0
2023-08-12 18:44:58.662361,-42.0
2023-08-12 18:44:58.670050,-35.0
2023-08-12 18:44:58.677740,-26.0
2023-08-12 18:44:58.685429,-19.0
2023-08-12 18:44:58.693119,-14.0
2023-08-12 18:44:58.700808,-7.0
2023-08-12 18:44:58.708498,-2.0
2023-08-12 18:44:58.716187,9.0
2023-08-12 18:44:58.723877,23.0
2023-08-12 18:44:58.731566,28.0
2023-08-12 18:44:58.739256,35.0
2023-08-12 18:44:58.746945,45.0
2023-08-12 18:44:58.754635,52.0
2023-08-12 18:44:58.762325,57.0
2023-08-12 18:44:58.770014,59.0
2023-08-12 18:44:58.777704,57.0
2023-08-12 18:44:58.785393,45.0
2023-08-12 18:44:58.793083,30.0
2023-08-12 18:44:58.800772,19.0
2023-08-12 18:44:58.808462,4.0
2023-08-12 18:44:58.816151,-21.0
2023-08-12 18:44:58.823841,-52.0
2023-08-12 18:44:58.831530,-71.0
2023-08-12 18:44:58.839220,-80.0
2023-08-12 18:44:58.846909,-90.0
2023-08-12 18:44:58.854599,-99.0
2023-08-12 18:44:58.862288,-109.0
2023-08-12 18:44:58.869978,-116.0
2023-08-12 18:44:58.877668,-123.0
2023-08-12 18:44:58.885357,-123.0
2023-08-12 18:44:58.893047,-119.0
2023-08-12 18:44:58.900736,-116.0
2023-08-12 18:44:58.908426,-114.0
2023-08-12 18:44:58.916115,-109.0
2023-08-12 18:44:58.923805,-109.0
2023-08-12 18:44:58.931494,-109.0
2023-08-12 18:44:58.939184,-104.0
2023-08-12 18:44:58.946873,-102.0
2023-08-12 18:44:58.954563,-102.0
2023-08-12 18:44:58.962252,-97.0
2023-08-12 18:44:58.969942,-95.0
2023-08-12 18:44:58.977631,-97.0
2023-08-12 18:44:58.985321,-95.0
2023-08-12 18:44:58.993011,-90.0
2023-08-12 18:44:59.000700,-90.0
2023-08-12 18:44:59.008390,-92.0
2023-08-12 18:44:59.016079,-95.0
2023-08-12 18:44:59.023769,-97.0
2023-08-12 18:44:59.031458,-95.0
2023-08-12 18:44:59.039148,-92.0
2023-08-12 18:44:59.046837,-95.0
2023-08-12 18:44:59.054527,-92.0
2023-08-12 18:44:59.062216,-90.0
2023-08-12 18:44:59.069906,-90.0
2023-08-12 18:44:59.077595,-92.0
2023-08-12 18:44:59.085285,-92.0
2023-08-12 18:44:59.092974,-90.0
2023-08-12 18:44:59.100664,-95.0
2023-08-12 18:44:59.108354,-99.0
2023-08-12 18:44:59.116043,-95.0
2023-08-12 18:44:59.123733,-95.0
2023-08-12 18:44:59.131422,-97.0
2023-08-12 18:44:59.139112,-97.0
2023-08-12 18:44:59.146801,-95.0
2023-08-12 18:44:59.154491,-92.0
2023-08-12 18:44:59.162180,-88.0
2023-08-12 18:44:59.169870,-88.0
2023-08-12 18:44:59.177559,-92.0
2023-08-12 18:44:59.185249,-92.0
2023-08-12 18:44:59.192938,-90.0
2023-08-12 18:44:59.200628,-83.0
2023-08-12 18:44:59.208317,-80.0
2023-08-12 18:44:59.216007,-83.0
2023-08-12 18:44:59.223697,-73.0
2023-08-12 18:44:59.231386,-49.0
2023-08-12 18:44:59.239076,-28.0
2023-08-12 18:44:59.246765,-16.0
2023-08-12 18:44:59.254455,-23.0
2023-08-12 18:44:59.262144,-47.0
2023-08-12 18:44:59.269834,-61.0
2023-08-12 18:44:59.277523,-69.0
2023-08-12 18:44:59.285213,-80.0
2023-08-12 18:44:59.292902,-88.0
2023-08-12 18:44:59.300592,-85.0
2023-08-12 18:44:59.308281,-80.0
2023-08-12 18:44:59.315971,-71.0
2023-08-12 18:44:59.323660,-69.0
2023-08-12 18:44:59.331350,-57.0
2023-08-12 18:44:59.339040,54.0
2023-08-12 18:44:59.346729,383.0
2023-08-12 18:44:59.354419,806.0
2023-08-12 18:44:59.362108,854.0
2023-08-12 18:44:59.369798,154.0
2023-08-12 18:44:59.377487,-623.0
2023-08-12 18:44:59.385177,-592.0
2023-08-12 18:44:59.392866,-257.0
2023-08-12 18:44:59.400556,-197.0
2023-08-12 18:44:59.408245,-133.0
2023-08-12 18:44:59.415935,-45.0
2023-08-12 18:44:59.423624,-71.0
2023-08-12 18:44:59.431314,-83.0
2023-08-12 18:44:59.439003,-49.0
2023-08-12 18:44:59.446693,-49.0
2023-08-12 18:44:59.454383,-54.0
2023-08-12 18:44:59.462072,-38.0
2023-08-12 18:44:59.469762,-30.0
2023-08-12 18:44:59.477451,-30.0
2023-08-12 18:44:59.485141,-23.0
2023-08-12 18:44:59.492830,-16.0
2023-08-12 18:44:59.500520,-11.0
2023-08-12 18:44:59.508209,-7.0
2023-08-12 18:44:59.515899,0.0
2023-08-12 18:44:59.523588,2.0
2023-08-12 18:44:59.531278,9.0
2023-08-12 18:44:59.538967,21.0
2023-08-12 18:44:59.546657,26.0
2023-08-12 18:44:59.554346,28.0
2023-08-12 18:44:59.562036,38.0
2023-08-12 18:44:59.569725,52.0
2023-08-12 18:44:59.577415,61.0
2023-08-12 18:44:59.585105,71.0
2023-08-12 18:44:59.592794,78.0
2023-08-12 18:44:59.600484,83.0
2023-08-12 18:44:59.608173,85.0
2023-08-12 18:44:59.615863,90.0
2023-08-12 18:44:59.623552,80.0
2023-08-12 18:44:59.631242,64.0
2023-08-12 18:44:59.638931,47.0
2023-08-12 18:44:59.646621,26.0
2023-08-12 18:44:59.654310,0.0
2023-08-12 18:44:59.662000,-23.0
2023-08-12 18:44:59.669689,-45.0
2023-08-12 18:44:59.677379,-71.0
2023-08-12 18:44:59.685068,-88.0
2023-08-12 18:44:59.692758,-95.0
2023-08-12 18:44:59.700448,-107.0
2023-08-12 18:44:59.708137,-119.0
2023-08-12 18:44:59.715827,-123.0
2023-08-12 18:44:59.723516,-123.0
2023-08-12 18:44:59.731206,-123.0
2023-08-12 18:44:59.738895,-123.0
2023-08-12 18:44:59.746585,-121.0
2023-08-12 18:44:59.754274,-116.0
2023-08-12 18:44:59.761964,-114.0
2023-08-12 18:44:59.769653,-111.0
2023-08-12 18:44:59.777343,-114.0
2023-08-12 18:44:59.785032,-111.0
2023-08-12 18:44:59.792722,-104.0
2023-08-12 18:44:59.800411,-102.0
2023-08-12 18:44:59.808101,-102.0
2023-08-12 18:44:59.815791,-99.0
2023-08-12 18:44:59.823480,-97.0
2023-08-12 18:44:59.831170,-102.0
2023-08-12 18:44:59.838859,-102.0
2023-08-12 18:44:59.846549,-95.0
2023-08-12 18:44:59.854238,-95.0
2023-08-12 18:44:59.861928,-99.0
2023-08-12 18:44:59.869617,-99.0
2023-08-12 18:44:59.877307,-99.0
2023-08-12 18:44:59.884996,-99.0
2023-08-12 18:44:59.892686,-99.0
2023-08-12 18:44:59.900375,-99.0
2023-08-12 18:44:59.908065,-102.0
2023-08-12 18:44:59.915754,-99.0
2023-08-12 18:44:59.923444,-95.0
2023-08-12 18:44:59.931134,-92.0
2023-08-12 18:44:59.938823,-90.0
2023-08-12 18:44:59.946513,-90.0
2023-08-12 18:44:59.954202,-92.0
2023-08-12 18:44:59.961892,-92.0
2023-08-12 18:44:59.969581,-90.0
2023-08-12 18:44:59.977271,-90.0
2023-08-12 18:44:59.984960,-88.0
2023-08-12 18:44:59.992650,-83.0
2023-08-12 18:45:00.000339,-80.0
2023-08-12 18:45:00.008029,-80.0
2023-08-12 18:45:00.015718,-78.0
2023-08-12 18:45:00.023408,-80.0
2023-08-12 18:45:00.031097,-80.0
2023-08-12 18:45:00.038787,-80.0
2023-08-12 18:45:00.046477,-80.0
2023-08-12 18:45:00.054166,-80.0
2023-08-12 18:45:00.061856,-78.0
2023-08-12 18:45:00.069545,-73.0
2023-08-12 18:45:00.077235,-59.0
2023-08-12 18:45:00.084924,-40.0
2023-08-12 18:45:00.092614,-23.0
2023-08-12 18:45:00.100303,-14.0
2023-08-12 18:45:00.107993,-30.0
2023-08-12 18:45:00.115682,-54.0
2023-08-12 18:45:00.123372,-64.0
2023-08-12 18:45:00.131061,-66.0
2023-08-12 18:45:00.138751,-83.0
2023-08-12 18:45:00.146440,-90.0
2023-08-12 18:45:00.154130,-83.0
2023-08-12 18:45:00.161820,-80.0
2023-08-12 18:45:00.169509,-83.0
2023-08-12 18:45:00.177199,-80.0
2023-08-12 18:45:00.184888,-42.0
2023-08-12 18:45:00.192578,159.0
2023-08-12 18:45:00.200267,606.0
2023-08-12 18:45:00.207957,1021.0
2023-08-12 18:45:00.215646,795.0
2023-08-12 18:45:00.223336,-123.0
2023-08-12 18:45:00.231025,-687.0
2023-08-12 18:45:00.238715,-435.0
2023-08-12 18:45:00.246404,-197.0
2023-08-12 18:45:00.254094,-197.0
2023-08-12 18:45:00.261783,-116.0
2023-08-12 18:45:00.269473,-73.0
2023-08-12 18:45:00.277163,-114.0
2023-08-12 18:45:00.284852,-102.0
2023-08-12 18:45:00.292542,-76.0
2023-08-12 18:45:00.300231,-76.0
2023-08-12 18:45:00.307921,-69.0
2023-08-12 18:45:00.315610,-59.0
2023-08-12 18:45:00.323300,-57.0
2023-08-12 18:45:00.330989,-54.0
2023-08-12 18:45:00.338679,-49.0
2023-08-12 18:45:00.346368,-47.0
2023-08-12 18:45:00.354058,-42.0
2023-08-12 18:45:00.361747,-38.0
2023-08-12 18:45:00.369437,-33.0
2023-08-12 18:45:00.377126,-23.0
2023-08-12 18:45:00.384816,-11.0
2023-08-12 18:45:00.392505,-4.0
2023-08-12 18:45:00.400195,2.0
2023-08-12 18:45:00.407885,11.0
2023-08-12 18:45:00.415574,14.0
2023-08-12 18:45:00.423264,23.0
2023-08-12 18:45:00.430953,35.0
2023-08-12 18:45:00.438643,45.0
2023-08-12 18:45:00.446332,54.0
2023-08-12 18:45:00.454022,59.0
2023-08-12 18:45:00.461711,59.0
2023-08-12 18:45:00.469401,57.0
2023-08-12 18:45:00.477090,52.0
2023-08-12 18:45:00.484780,42.0
2023-08-12 18:45:00.492469,26.0
2023-08-12 18:45:00.500159,7.0
2023-08-12 18:45:00.507848,-16.0
2023-08-12 18:45:00.515538,-42.0
2023-08-12 18:45:00.523228,-66.0
2023-08-12 18:45:00.530917,-83.0
2023-08-12 18:45:00.538607,-97.0
2023-08-12 18:45:00.546296,-109.0
2023-08-12 18:45:00.553986,-119.0
2023-08-12 18:45:00.561675,-123.0
2023-08-12 18:45:00.569365,-128.0
2023-08-12 18:45:00.577054,-130.0
2023-08-12 18:45:00.584744,-130.0
2023-08-12 18:45:00.592433,-130.0
2023-08-12 18:45:00.600123,-128.0
2023-08-12 18:45:00.607812,-128.0
2023-08-12 18:45:00.615502,-130.0
2023-08-12 18:45:00.623191,-128.0
2023-08-12 18:45:00.630881,-126.0
2023-08-12 18:45:00.638571,-121.0
2023-08-12 18:45:00.646260,-116.0
2023-08-12 18:45:00.653950,-114.0
2023-08-12 18:45:00.661639,-114.0
2023-08-12 18:45:00.669329,-109.0
2023-08-12 18:45:00.677018,-107.0
2023-08-12 18:45:00.684708,-104.0
2023-08-12 18:45:00.692397,-102.0
2023-08-12 18:45:00.700087,-99.0
2023-08-12 18:45:00.707776,-97.0
2023-08-12 18:45:00.715466,-97.0
2023-08-12 18:45:00.723155,-97.0
2023-08-12 18:45:00.730845,-99.0
2023-08-12 18:45:00.738534,-104.0
2023-08-12 18:45:00.746224,-102.0
2023-08-12 18:45:00.753914,-95.0
2023-08-12 18:45:00.761603,-97.0
2023-08-12 18:45:00.769293,-99.0
2023-08-12 18:45:00.776982,-97.0
2023-08-12 18:45:00.784672,-97.0
2023-08-12 18:45:00.792361,-97.0
2023-08-12 18:45:00.800051,-95.0
2023-08-12 18:45:00.807740,-95.0
2023-08-12 18:45:00.815430,-102.0
2023-08-12 18:45:00.823119,-102.0
2023-08-12 18:45:00.830809,-97.0
2023-08-12 18:45:00.838498,-97.0
2023-08-12 18:45:00.846188,-109.0
2023-08-12 18:45:00.853877,-109.0
2023-08-12 18:45:00.861567,-102.0
2023-08-12 18:45:00.869257,-99.0
2023-08-12 18:45:00.876946,-97.0
2023-08-12 18:45:00.884636,-95.0
2023-08-12 18:45:00.892325,-95.0
2023-08-12 18:45:00.900015,-95.0
2023-08-12 18:45:00.907704,-90.0
2023-08-12 18:45:00.915394,-88.0
2023-08-12 18:45:00.923083,-83.0
2023-08-12 18:45:00.930773,-71.0
2023-08-12 18:45:00.938462,-47.0
2023-08-12 18:45:00.946152,-26.0
2023-08-12 18:45:00.953841,-23.0
2023-08-12 18:45:00.961531,-45.0
2023-08-12 18:45:00.969220,-61.0
2023-08-12 18:45:00.976910,-69.0
2023-08-12 18:45:00.984600,-78.0
2023-08-12 18:45:00.992289,-92.0
2023-08-12 18:45:00.999979,-90.0
2023-08-12 18:45:01.007668,-85.0
2023-08-12 18:45:01.015358,-83.0
2023-08-12 18:45:01.023047,-83.0
2023-08-12 18:45:01.030737,-78.0
2023-08-12 18:45:01.038426,-28.0
2023-08-12 18:45:01.046116,199.0
2023-08-12 18:45:01.053805,647.0
2023-08-12 18:45:01.061495,990.0
2023-08-12 18:45:01.069184,656.0
2023-08-12 18:45:01.076874,-252.0
2023-08-12 18:45:01.084563,-666.0
2023-08-12 18:45:01.092253,-371.0
2023-08-12 18:45:01.099943,-188.0
2023-08-12 18:45:01.107632,-183.0
2023-08-12 18:45:01.115322,-92.0
2023-08-12 18:45:01.123011,-73.0
2023-08-12 18:45:01.130701,-109.0
2023-08-12 18:45:01.138390,-88.0
2023-08-12 18:45:01.146080,-64.0
2023-08-12 18:45:01.153769,-71.0
2023-08-12 18:45:01.161459,-64.0
2023-08-12 18:45:01.169148,-52.0
2023-08-12 18:45:01.176838,-49.0
2023-08-12 18:45:01.184527,-49.0
2023-08-12 18:45:01.192217,-40.0
2023-08-12 18:45:01.199906,-33.0
2023-08-12 18:45:01.207596,-30.0
2023-08-12 18:45:01.215285,-23.0
2023-08-12 18:45:01.222975,-16.0
2023-08-12 18:45:01.230665,-11.0
2023-08-12 18:45:01.238354,-7.0
2023-08-12 18:45:01.246044,2.0
2023-08-12 18:45:01.253733,11.0
2023-08-12 18:45:01.261423,16.0
2023-08-12 18:45:01.269112,23.0
2023-08-12 18:45:01.276802,35.0
2023-08-12 18:45:01.284491,45.0
2023-08-12 18:45:01.292181,52.0
2023-08-12 18:45:01.299870,59.0
2023-08-12 18:45:01.307560,64.0
2023-08-12 18:45:01.315249,64.0
2023-08-12 18:45:01.322939,61.0
2023-08-12 18:45:01.330628,57.0
2023-08-12 18:45:01.338318,45.0
2023-08-12 18:45:01.346008,30.0
2023-08-12 18:45:01.353697,9.0
2023-08-12 18:45:01.361387,-19.0
2023-08-12 18:45:01.369076,-42.0
2023-08-12 18:45:01.376766,-66.0
2023-08-12 18:45:01.384455,-88.0
2023-08-12 18:45:01.392145,-104.0
2023-08-12 18:45:01.399834,-123.0
2023-08-12 18:45:01.407524,-135.0
2023-08-12 18:45:01.415213,-135.0
2023-08-12 18:45:01.422903,-138.0
2023-08-12 18:45:01.430592,-142.0
2023-08-12 18:45:01.438282,-145.0
2023-08-12 18:45:01.445971,-145.0
2023-08-12 18:45:01.453661,-142.0
2023-08-12 18:45:01.461351,-138.0
2023-08-12 18:45:01.469040,-135.0
2023-08-12 18:45:01.476730,-135.0
2023-08-12 18:45:01.484419,-128.0
2023-08-12 18:45:01.492109,-123.0
2023-08-12 18:45:01.499798,-121.0
2023-08-12 18:45:01.507488,-116.0
2023-08-12 18:45:01.515177,-111.0
2023-08-12 18:45:01.522867,-111.0
2023-08-12 18:45:01.530556,-111.0
2023-08-12 18:45:01.538246,-109.0
2023-08-12 18:45:01.545935,-107.0
2023-08-12 18:45:01.553625,-104.0
2023-08-12 18:45:01.561314,-104.0
2023-08-12 18:45:01.569004,-107.0
2023-08-12 18:45:01.576694,-104.0
2023-08-12 18:45:01.584383,-102.0
2023-08-12 18:45:01.592073,-102.0
2023-08-12 18:45:01.599762,-102.0
2023-08-12 18:45:01.607452,-102.0
2023-08-12 18:45:01.615141,-102.0
2023-08-12 18:45:01.622831,-104.0
2023-08-12 18:45:01.630520,-99.0
2023-08-12 18:45:01.638210,-97.0
2023-08-12 18:45:01.645899,-99.0
2023-08-12 18:45:01.653589,-99.0
2023-08-12 18:45:01.661278,-97.0
2023-08-12 18:45:01.668968,-95.0
2023-08-12 18:45:01.676657,-95.0
2023-08-12 18:45:01.684347,-95.0
2023-08-12 18:45:01.692037,-88.0
2023-08-12 18:45:01.699726,-90.0
2023-08-12 18:45:01.707416,-97.0
2023-08-12 18:45:01.715105,-92.0
2023-08-12 18:45:01.722795,-80.0
2023-08-12 18:45:01.730484,-78.0
2023-08-12 18:45:01.738174,-83.0
2023-08-12 18:45:01.745863,-80.0
2023-08-12 18:45:01.753553,-76.0
2023-08-12 18:45:01.761242,-76.0
2023-08-12 18:45:01.768932,-69.0
2023-08-12 18:45:01.776621,-49.0
2023-08-12 18:45:01.784311,-33.0
2023-08-12 18:45:01.792000,-23.0
2023-08-12 18:45:01.799690,-33.0
2023-08-12 18:45:01.807380,-49.0
2023-08-12 18:45:01.815069,-59.0
2023-08-12 18:45:01.822759,-69.0
2023-08-12 18:45:01.830448,-78.0
2023-08-12 18:45:01.838138,-85.0
2023-08-12 18:45:01.845827,-88.0
2023-08-12 18:45:01.853517,-90.0
2023-08-12 18:45:01.861206,-88.0
2023-08-12 18:45:01.868896,-83.0
2023-08-12 18:45:01.876585,-66.0
2023-08-12 18:45:01.884275,26.0
2023-08-12 18:45:01.891964,316.0
2023-08-12 18:45:01.899654,723.0
2023-08-12 18:45:01.907343,816.0
2023-08-12 18:45:01.915033,185.0
2023-08-12 18:45:01.922723,-597.0
2023-08-12 18:45:01.930412,-614.0
2023-08-12 18:45:01.938102,-292.0
2023-08-12 18:45:01.945791,-228.0
2023-08-12 18:45:01.953481,-157.0
2023-08-12 18:45:01.961170,-61.0
2023-08-12 18:45:01.968860,-90.0
2023-08-12 18:45:01.976549,-99.0
2023-08-12 18:45:01.984239,-57.0
2023-08-12 18:45:01.991928,-57.0
2023-08-12 18:45:01.999618,-64.0
2023-08-12 18:45:02.007307,-47.0
2023-08-12 18:45:02.014997,-40.0
2023-08-12 18:45:02.022686,-40.0
2023-08-12 18:45:02.030376,-33.0
2023-08-12 18:45:02.038065,-28.0
2023-08-12 18:45:02.045755,-28.0
2023-08-12 18:45:02.053445,-23.0
2023-08-12 18:45:02.061134,-9.0
2023-08-12 18:45:02.068824,0.0
2023-08-12 18:45:02.076513,-2.0
2023-08-12 18:45:02.084203,7.0
2023-08-12 18:45:02.091892,16.0
2023-08-12 18:45:02.099582,21.0
2023-08-12 18:45:02.107271,30.0
2023-08-12 18:45:02.114961,40.0
2023-08-12 18:45:02.122650,45.0
2023-08-12 18:45:02.130340,59.0
2023-08-12 18:45:02.138029,73.0
2023-08-12 18:45:02.145719,78.0
2023-08-12 18:45:02.153408,80.0
2023-08-12 18:45:02.161098,80.0
2023-08-12 18:45:02.168788,78.0
2023-08-12 18:45:02.176477,69.0
2023-08-12 18:45:02.184167,52.0
2023-08-12 18:45:02.191856,35.0
2023-08-12 18:45:02.199546,14.0
2023-08-12 18:45:02.207235,-16.0
2023-08-12 18:45:02.214925,-42.0
2023-08-12 18:45:02.222614,-64.0
2023-08-12 18:45:02.230304,-76.0
2023-08-12 18:45:02.237993,-90.0
2023-08-12 18:45:02.245683,-104.0
2023-08-12 18:45:02.253372,-114.0
2023-08-12 18:45:02.261062,-116.0
2023-08-12 18:45:02.268751,-114.0
2023-08-12 18:45:02.276441,-116.0
2023-08-12 18:45:02.284131,-116.0
2023-08-12 18:45:02.291820,-111.0
2023-08-12 18:45:02.299510,-111.0
2023-08-12 18:45:02.307199,-109.0
2023-08-12 18:45:02.314889,-104.0
2023-08-12 18:45:02.322578,-99.0
2023-08-12 18:45:02.330268,-104.0
2023-08-12 18:45:02.337957,-102.0
2023-08-12 18:45:02.345647,-99.0
2023-08-12 18:45:02.353336,-104.0
2023-08-12 18:45:02.361026,-107.0
2023-08-12 18:45:02.368715,-102.0
2023-08-12 18:45:02.376405,-102.0
2023-08-12 18:45:02.384094,-99.0
2023-08-12 18:45:02.391784,-99.0
2023-08-12 18:45:02.399474,-99.0
2023-08-12 18:45:02.407163,-97.0
2023-08-12 18:45:02.414853,-97.0
2023-08-12 18:45:02.422542,-99.0
2023-08-12 18:45:02.430232,-102.0
2023-08-12 18:45:02.437921,-99.0
2023-08-12 18:45:02.445611,-97.0
2023-08-12 18:45:02.453300,-95.0
2023-08-12 18:45:02.460990,-95.0
2023-08-12 18:45:02.468679,-97.0
2023-08-12 18:45:02.476369,-102.0
2023-08-12 18:45:02.484058,-104.0
2023-08-12 18:45:02.491748,-102.0
2023-08-12 18:45:02.499437,-95.0
2023-08-12 18:45:02.507127,-97.0
2023-08-12 18:45:02.514817,-97.0
2023-08-12 18:45:02.522506,-95.0
2023-08-12 18:45:02.530196,-92.0
2023-08-12 18:45:02.537885,-92.0
2023-08-12 18:45:02.545575,-90.0
2023-08-12 18:45:02.553264,-88.0
2023-08-12 18:45:02.560954,-88.0
2023-08-12 18:45:02.568643,-90.0
2023-08-12 18:45:02.576333,-92.0
2023-08-12 18:45:02.584022,-90.0
2023-08-12 18:45:02.591712,-85.0
2023-08-12 18:45:02.599401,-73.0
2023-08-12 18:45:02.607091,-59.0
2023-08-12 18:45:02.614780,-38.0
2023-08-12 18:45:02.622470,-21.0
2023-08-12 18:45:02.630160,-33.0
2023-08-12 18:45:02.637849,-57.0
2023-08-12 18:45:02.645539,-61.0
2023-08-12 18:45:02.653228,-71.0
2023-08-12 18:45:02.660918,-90.0
2023-08-12 18:45:02.668607,-92.0
2023-08-12 18:45:02.676297,-85.0
2023-08-12 18:45:02.683986,-85.0
2023-08-12 18:45:02.691676,-85.0
2023-08-12 18:45:02.699365,-80.0
2023-08-12 18:45:02.707055,-66.0
2023-08-12 18:45:02.714744,54.0
2023-08-12 18:45:02.722434,421.0
2023-08-12 18:45:02.730123,906.0
2023-08-12 18:45:02.737813,975.0
2023-08-12 18:45:02.745503,238.0
2023-08-12 18:45:02.753192,-576.0
2023-08-12 18:45:02.760882,-559.0
2023-08-12 18:45:02.768571,-235.0
2023-08-12 18:45:02.776261,-190.0
2023-08-12 18:45:02.783950,-142.0
2023-08-12 18:45:02.791640,-66.0
2023-08-12 18:45:02.799329,-95.0
2023-08-12 18:45:02.807019,-102.0
2023-08-12 18:45:02.814708,-69.0
2023-08-12 18:45:02.822398,-69.0
2023-08-12 18:45:02.830087,-73.0
2023-08-12 18:45:02.837777,-57.0
2023-08-12 18:45:02.845466,-49.0
2023-08-12 18:45:02.853156,-52.0
2023-08-12 18:45:02.860846,-52.0
2023-08-12 18:45:02.868535,-45.0
2023-08-12 18:45:02.876225,-38.0
2023-08-12 18:45:02.883914,-33.0
2023-08-12 18:45:02.891604,-28.0
2023-08-12 18:45:02.899293,-21.0
2023-08-12 18:45:02.906983,-14.0
2023-08-12 18:45:02.914672,-7.0
2023-08-12 18:45:02.922362,0.0
2023-08-12 18:45:02.930051,7.0
2023-08-12 18:45:02.937741,19.0
2023-08-12 18:45:02.945430,30.0
2023-08-12 18:45:02.953120,38.0
2023-08-12 18:45:02.960809,42.0
2023-08-12 18:45:02.968499,54.0
2023-08-12 18:45:02.976188,64.0
2023-08-12 18:45:02.983878,66.0
2023-08-12 18:45:02.991568,64.0
2023-08-12 18:45:02.999257,59.0
2023-08-12 18:45:03.006947,52.0
2023-08-12 18:45:03.014636,35.0
2023-08-12 18:45:03.022326,7.0
2023-08-12 18:45:03.030015,-19.0
2023-08-12 18:45:03.037705,-40.0
2023-08-12 18:45:03.045394,-64.0
2023-08-12 18:45:03.053084,-80.0
2023-08-12 18:45:03.060773,-95.0
2023-08-12 18:45:03.068463,-109.0
2023-08-12 18:45:03.076152,-119.0
2023-08-12 18:45:03.083842,-126.0
2023-08-12 18:45:03.091531,-133.0
2023-08-12 18:45:03.099221,-135.0
2023-08-12 18:45:03.106911,-133.0
2023-08-12 18:45:03.114600,-128.0
2023-08-12 18:45:03.122290,-128.0
2023-08-12 18:45:03.129979,-128.0
2023-08-12 18:45:03.137669,-123.0
2023-08-12 18:45:03.145358,-119.0
2023-08-12 18:45:03.153048,-114.0
2023-08-12 18:45:03.160737,-114.0
2023-08-12 18:45:03.168427,-114.0
2023-08-12 18:45:03.176116,-111.0
2023-08-12 18:45:03.183806,-107.0
2023-08-12 18:45:03.191495,-104.0
2023-08-12 18:45:03.199185,-107.0
2023-08-12 18:45:03.206874,-104.0
2023-08-12 18:45:03.214564,-99.0
2023-08-12 18:45:03.222254,-99.0
2023-08-12 18:45:03.229943,-99.0
2023-08-12 18:45:03.237633,-97.0
2023-08-12 18:45:03.245322,-97.0
2023-08-12 18:45:03.253012,-97.0
2023-08-12 18:45:03.260701,-97.0
2023-08-12 18:45:03.268391,-97.0
2023-08-12 18:45:03.276080,-97.0
2023-08-12 18:45:03.283770,-97.0
2023-08-12 18:45:03.291459,-99.0
2023-08-12 18:45:03.299149,-99.0
2023-08-12 18:45:03.306838,-97.0
2023-08-12 18:45:03.314528,-97.0
2023-08-12 18:45:03.322217,-97.0
2023-08-12 18:45:03.329907,-99.0
2023-08-12 18:45:03.337597,-97.0
2023-08-12 18:45:03.345286,-92.0
2023-08-12 18:45:03.352976,-92.0
2023-08-12 18:45:03.360665,-92.0
2023-08-12 18:45:03.368355,-95.0
2023-08-12 18:45:03.376044,-99.0
2023-08-12 18:45:03.383734,-99.0
2023-08-12 18:45:03.391423,-95.0
2023-08-12 18:45:03.399113,-92.0
2023-08-12 18:45:03.406802,-90.0
2023-08-12 18:45:03.414492,-88.0
2023-08-12 18:45:03.422181,-90.0
2023-08-12 18:45:03.429871,-90.0
2023-08-12 18:45:03.437560,-88.0
2023-08-12 18:45:03.445250,-83.0
2023-08-12 18:45:03.452940,-80.0
2023-08-12 18:45:03.460629,-78.0
2023-08-12 18:45:03.468319,-69.0
2023-08-12 18:45:03.476008,-52.0
2023-08-12 18:45:03.483698,-30.0
2023-08-12 18:45:03.491387,-19.0
2023-08-12 18:45:03.499077,-30.0
2023-08-12 18:45:03.506766,-54.0
2023-08-12 18:45:03.514456,-61.0
2023-08-12 18:45:03.522145,-71.0
2023-08-12 18:45:03.529835,-88.0
2023-08-12 18:45:03.537524,-90.0
2023-08-12 18:45:03.545214,-83.0
2023-08-12 18:45:03.552903,-83.0
2023-08-12 18:45:03.560593,-83.0
2023-08-12 18:45:03.568283,-80.0
2023-08-12 18:45:03.575972,-64.0
2023-08-12 18:45:03.583662,57.0
2023-08-12 18:45:03.591351,409.0
2023-08-12 18:45:03.599041,866.0
2023-08-12 18:45:03.606730,928.0
2023-08-12 18:45:03.614420,211.0
2023-08-12 18:45:03.622109,-580.0
2023-08-12 18:45:03.629799,-557.0
2023-08-12 18:45:03.637488,-235.0
2023-08-12 18:45:03.645178,-195.0
2023-08-12 18:45:03.652867,-152.0
2023-08-12 18:45:03.660557,-76.0
2023-08-12 18:45:03.668246,-102.0
2023-08-12 18:45:03.675936,-111.0
2023-08-12 18:45:03.683626,-73.0
2023-08-12 18:45:03.691315,-71.0
2023-08-12 18:45:03.699005,-76.0
2023-08-12 18:45:03.706694,-61.0
2023-08-12 18:45:03.714384,-54.0
2023-08-12 18:45:03.722073,-49.0
2023-08-12 18:45:03.729763,-42.0
2023-08-12 18:45:03.737452,-40.0
2023-08-12 18:45:03.745142,-38.0
2023-08-12 18:45:03.752831,-28.0
2023-08-12 18:45:03.760521,-19.0
2023-08-12 18:45:03.768210,-11.0
2023-08-12 18:45:03.775900,-9.0
2023-08-12 18:45:03.783589,-4.0
2023-08-12 18:45:03.791279,2.0
2023-08-12 18:45:03.798968,11.0
2023-08-12 18:45:03.806658,21.0
2023-08-12 18:45:03.814348,26.0
2023-08-12 18:45:03.822037,33.0
2023-08-12 18:45:03.829727,45.0
2023-08-12 18:45:03.837416,54.0
2023-08-12 18:45:03.845106,61.0
2023-08-12 18:45:03.852795,69.0
2023-08-12 18:45:03.860485,69.0
2023-08-12 18:45:03.868174,57.0
2023-08-12 18:45:03.875864,42.0
2023-08-12 18:45:03.883553,30.0
2023-08-12 18:45:03.891243,16.0
2023-08-12 18:45:03.898932,-4.0
2023-08-12 18:45:03.906622,-30.0
2023-08-12 18:45:03.914311,-57.0
2023-08-12 18:45:03.922001,-76.0
2023-08-12 18:45:03.929691,-88.0
2023-08-12 18:45:03.937380,-97.0
2023-08-12 18:45:03.945070,-109.0
2023-08-12 18:45:03.952759,-116.0
2023-08-12 18:45:03.960449,-119.0
2023-08-12 18:45:03.968138,-126.0
2023-08-12 18:45:03.975828,-130.0
2023-08-12 18:45:03.983517,-126.0
2023-08-12 18:45:03.991207,-119.0
2023-08-12 18:45:03.998896,-119.0
2023-08-12 18:45:04.006586,-121.0
2023-08-12 18:45:04.014275,-119.0
2023-08-12 18:45:04.021965,-114.0
2023-08-12 18:45:04.029654,-111.0
2023-08-12 18:45:04.037344,-111.0
2023-08-12 18:45:04.045034,-111.0
2023-08-12 18:45:04.052723,-109.0
2023-08-12 18:45:04.060413,-107.0
2023-08-12 18:45:04.068102,-104.0
2023-08-12 18:45:04.075792,-99.0
2023-08-12 18:45:04.083481,-97.0
2023-08-12 18:45:04.091171,-97.0
2023-08-12 18:45:04.098860,-97.0
2023-08-12 18:45:04.106550,-92.0
2023-08-12 18:45:04.114239,-95.0
2023-08-12 18:45:04.121929,-97.0
2023-08-12 18:45:04.129618,-95.0
2023-08-12 18:45:04.137308,-95.0
2023-08-12 18:45:04.144997,-95.0
2023-08-12 18:45:04.152687,-97.0
2023-08-12 18:45:04.160377,-97.0
2023-08-12 18:45:04.168066,-95.0
2023-08-12 18:45:04.175756,-95.0
2023-08-12 18:45:04.183445,-97.0
2023-08-12 18:45:04.191135,-104.0
2023-08-12 18:45:04.198824,-107.0
2023-08-12 18:45:04.206514,-99.0
2023-08-12 18:45:04.214203,-95.0
2023-08-12 18:45:04.221893,-97.0
2023-08-12 18:45:04.229582,-97.0
2023-08-12 18:45:04.237272,-95.0
2023-08-12 18:45:04.244961,-95.0
2023-08-12 18:45:04.252651,-92.0
2023-08-12 18:45:04.260340,-88.0
2023-08-12 18:45:04.268030,-83.0
2023-08-12 18:45:04.275720,-83.0
2023-08-12 18:45:04.283409,-88.0
2023-08-12 18:45:04.291099,-83.0
2023-08-12 18:45:04.298788,-80.0
2023-08-12 18:45:04.306478,-83.0
2023-08-12 18:45:04.314167,-85.0
2023-08-12 18:45:04.321857,-85.0
2023-08-12 18:45:04.329546,-85.0
2023-08-12 18:45:04.337236,-83.0
2023-08-12 18:45:04.344925,-78.0
2023-08-12 18:45:04.352615,-73.0
2023-08-12 18:45:04.360304,-64.0
2023-08-12 18:45:04.367994,-47.0
2023-08-12 18:45:04.375683,-33.0
2023-08-12 18:45:04.383373,-21.0
2023-08-12 18:45:04.391063,-28.0
2023-08-12 18:45:04.398752,-54.0
2023-08-12 18:45:04.406442,-66.0
2023-08-12 18:45:04.414131,-71.0
2023-08-12 18:45:04.421821,-88.0
2023-08-12 18:45:04.429510,-92.0
2023-08-12 18:45:04.437200,-80.0
2023-08-12 18:45:04.444889,-78.0
2023-08-12 18:45:04.452579,-78.0
2023-08-12 18:45:04.460268,-73.0
2023-08-12 18:45:04.467958,-59.0
2023-08-12 18:45:04.475647,52.0
2023-08-12 18:45:04.483337,397.0
2023-08-12 18:45:04.491026,854.0
2023-08-12 18:45:04.498716,923.0
2023-08-12 18:45:04.506406,221.0
2023-08-12 18:45:04.514095,-568.0
2023-08-12 18:45:04.521785,-554.0
2023-08-12 18:45:04.529474,-233.0
2023-08-12 18:45:04.537164,-183.0
2023-08-12 18:45:04.544853,-138.0
2023-08-12 18:45:04.552543,-66.0
2023-08-12 18:45:04.560232,-90.0
2023-08-12 18:45:04.567922,-97.0
2023-08-12 18:45:04.575611,-64.0
2023-08-12 18:45:04.583301,-64.0
2023-08-12 18:45:04.590990,-69.0
2023-08-12 18:45:04.598680,-57.0
2023-08-12 18:45:04.606369,-47.0
2023-08-12 18:45:04.614059,-42.0
2023-08-12 18:45:04.621748,-38.0
2023-08-12 18:45:04.629438,-33.0
2023-08-12 18:45:04.637128,-26.0
2023-08-12 18:45:04.644817,-19.0
2023-08-12 18:45:04.652507,-11.0
2023-08-12 18:45:04.660196,-7.0
2023-08-12 18:45:04.667886,-7.0
2023-08-12 18:45:04.675575,-2.0
2023-08-12 18:45:04.683265,7.0
2023-08-12 18:45:04.690954,14.0
2023-08-12 18:45:04.698644,21.0
2023-08-12 18:45:04.706333,33.0
2023-08-12 18:45:04.714023,42.0
2023-08-12 18:45:04.721712,47.0
2023-08-12 18:45:04.729402,49.0
2023-08-12 18:45:04.737091,52.0
2023-08-12 18:45:04.744781,57.0
2023-08-12 18:45:04.752471,59.0
2023-08-12 18:45:04.760160,52.0
2023-08-12 18:45:04.767850,45.0
2023-08-12 18:45:04.775539,33.0
2023-08-12 18:45:04.783229,16.0
2023-08-12 18:45:04.790918,-7.0
2023-08-12 18:45:04.798608,-35.0
2023-08-12 18:45:04.806297,-57.0
2023-08-12 18:45:04.813987,-73.0
2023-08-12 18:45:04.821676,-88.0
2023-08-12 18:45:04.829366,-102.0
2023-08-12 18:45:04.837055,-111.0
2023-08-12 18:45:04.844745,-119.0
2023-08-12 18:45:04.852434,-123.0
2023-08-12 18:45:04.860124,-128.0
2023-08-12 18:45:04.867814,-133.0
2023-08-12 18:45:04.875503,-135.0
2023-08-12 18:45:04.883193,-135.0
2023-08-12 18:45:04.890882,-133.0
2023-08-12 18:45:04.898572,-133.0
2023-08-12 18:45:04.906261,-128.0
2023-08-12 18:45:04.913951,-123.0
2023-08-12 18:45:04.921640,-126.0
2023-08-12 18:45:04.929330,-121.0
2023-08-12 18:45:04.937019,-114.0
2023-08-12 18:45:04.944709,-114.0
2023-08-12 18:45:04.952398,-111.0
2023-08-12 18:45:04.960088,-107.0
2023-08-12 18:45:04.967777,-102.0
2023-08-12 18:45:04.975467,-99.0
2023-08-12 18:45:04.983157,-99.0
2023-08-12 18:45:04.990846,-97.0
2023-08-12 18:45:04.998536,-97.0
2023-08-12 18:45:05.006225,-97.0
2023-08-12 18:45:05.013915,-97.0
2023-08-12 18:45:05.021604,-99.0
2023-08-12 18:45:05.029294,-99.0
2023-08-12 18:45:05.036983,-97.0
2023-08-12 18:45:05.044673,-97.0
2023-08-12 18:45:05.052362,-97.0
2023-08-12 18:45:05.060052,-97.0
2023-08-12 18:45:05.067741,-99.0
2023-08-12 18:45:05.075431,-99.0
2023-08-12 18:45:05.083120,-95.0
2023-08-12 18:45:05.090810,-90.0
2023-08-12 18:45:05.098500,-92.0
2023-08-12 18:45:05.106189,-92.0
2023-08-12 18:45:05.113879,-90.0
2023-08-12 18:45:05.121568,-88.0
2023-08-12 18:45:05.129258,-85.0
2023-08-12 18:45:05.136947,-85.0
2023-08-12 18:45:05.144637,-85.0
2023-08-12 18:45:05.152326,-80.0
2023-08-12 18:45:05.160016,-78.0
2023-08-12 18:45:05.167705,-78.0
2023-08-12 18:45:05.175395,-78.0
2023-08-12 18:45:05.183084,-76.0
2023-08-12 18:45:05.190774,-76.0
2023-08-12 18:45:05.198463,-80.0
2023-08-12 18:45:05.206153,-85.0
2023-08-12 18:45:05.213843,-83.0
2023-08-12 18:45:05.221532,-80.0
2023-08-12 18:45:05.229222,-83.0
2023-08-12 18:45:05.236911,-80.0
2023-08-12 18:45:05.244601,-66.0
2023-08-12 18:45:05.252290,-52.0
2023-08-12 18:45:05.259980,-38.0
2023-08-12 18:45:05.267669,-26.0
2023-08-12 18:45:05.275359,-23.0
2023-08-12 18:45:05.283048,-42.0
2023-08-12 18:45:05.290738,-66.0
2023-08-12 18:45:05.298427,-69.0
2023-08-12 18:45:05.306117,-78.0
2023-08-12 18:45:05.313806,-97.0
2023-08-12 18:45:05.321496,-95.0
2023-08-12 18:45:05.329186,-85.0
2023-08-12 18:45:05.336875,-88.0
2023-08-12 18:45:05.344565,-85.0
2023-08-12 18:45:05.352254,-78.0
2023-08-12 18:45:05.359944,-59.0
2023-08-12 18:45:05.367633,76.0
2023-08-12 18:45:05.375323,423.0
2023-08-12 18:45:05.383012,809.0
2023-08-12 18:45:05.390702,742.0
2023-08-12 18:45:05.398391,-11.0
2023-08-12 18:45:05.406081,-664.0
2023-08-12 18:45:05.413770,-518.0
2023-08-12 18:45:05.421460,-228.0
2023-08-12 18:45:05.429149,-199.0
2023-08-12 18:45:05.436839,-121.0
2023-08-12 18:45:05.444528,-54.0
2023-08-12 18:45:05.452218,-90.0
2023-08-12 18:45:05.459908,-85.0
2023-08-12 18:45:05.467597,-49.0
2023-08-12 18:45:05.475287,-52.0
2023-08-12 18:45:05.482976,-54.0
2023-08-12 18:45:05.490666,-40.0
2023-08-12 18:45:05.498355,-35.0
2023-08-12 18:45:05.506045,-33.0
2023-08-12 18:45:05.513734,-23.0
2023-08-12 18:45:05.521424,-19.0
2023-08-12 18:45:05.529113,-16.0
2023-08-12 18:45:05.536803,-11.0
2023-08-12 18:45:05.544492,-4.0
2023-08-12 18:45:05.552182,0.0
2023-08-12 18:45:05.559871,4.0
2023-08-12 18:45:05.567561,9.0
2023-08-12 18:45:05.575251,19.0
2023-08-12 18:45:05.582940,26.0
2023-08-12 18:45:05.590630,35.0
2023-08-12 18:45:05.598319,47.0
2023-08-12 18:45:05.606009,59.0
2023-08-12 18:45:05.613698,73.0
2023-08-12 18:45:05.621388,80.0
2023-08-12 18:45:05.629077,80.0
2023-08-12 18:45:05.636767,85.0
2023-08-12 18:45:05.644456,90.0
2023-08-12 18:45:05.652146,83.0
2023-08-12 18:45:05.659835,71.0
2023-08-12 18:45:05.667525,57.0
2023-08-12 18:45:05.675214,35.0
2023-08-12 18:45:05.682904,11.0
2023-08-12 18:45:05.690594,-14.0
2023-08-12 18:45:05.698283,-40.0
2023-08-12 18:45:05.705973,-64.0
2023-08-12 18:45:05.713662,-80.0
2023-08-12 18:45:05.721352,-97.0
2023-08-12 18:45:05.729041,-109.0
2023-08-12 18:45:05.736731,-121.0
2023-08-12 18:45:05.744420,-128.0
2023-08-12 18:45:05.752110,-130.0
2023-08-12 18:45:05.759799,-130.0
2023-08-12 18:45:05.767489,-128.0
2023-08-12 18:45:05.775178,-126.0
2023-08-12 18:45:05.782868,-126.0
2023-08-12 18:45:05.790557,-121.0
2023-08-12 18:45:05.798247,-116.0
2023-08-12 18:45:05.805937,-114.0
2023-08-12 18:45:05.813626,-114.0
2023-08-12 18:45:05.821316,-109.0
2023-08-12 18:45:05.829005,-104.0
2023-08-12 18:45:05.836695,-102.0
2023-08-12 18:45:05.844384,-99.0
2023-08-12 18:45:05.852074,-104.0
2023-08-12 18:45:05.859763,-111.0
2023-08-12 18:45:05.867453,-107.0
2023-08-12 18:45:05.875142,-102.0
2023-08-12 18:45:05.882832,-104.0
2023-08-12 18:45:05.890521,-107.0
2023-08-12 18:45:05.898211,-104.0
2023-08-12 18:45:05.905900,-107.0
2023-08-12 18:45:05.913590,-107.0
2023-08-12 18:45:05.921280,-104.0
2023-08-12 18:45:05.928969,-99.0
2023-08-12 18:45:05.936659,-99.0
2023-08-12 18:45:05.944348,-102.0
2023-08-12 18:45:05.952038,-99.0
2023-08-12 18:45:05.959727,-97.0
2023-08-12 18:45:05.967417,-95.0
2023-08-12 18:45:05.975106,-92.0
2023-08-12 18:45:05.982796,-90.0
2023-08-12 18:45:05.990485,-92.0
2023-08-12 18:45:05.998175,-90.0
2023-08-12 18:45:06.005864,-85.0
2023-08-12 18:45:06.013554,-85.0
2023-08-12 18:45:06.021243,-85.0
2023-08-12 18:45:06.028933,-85.0
2023-08-12 18:45:06.036623,-88.0
2023-08-12 18:45:06.044312,-88.0
2023-08-12 18:45:06.052002,-85.0
2023-08-12 18:45:06.059691,-88.0
2023-08-12 18:45:06.067381,-85.0
2023-08-12 18:45:06.075070,-80.0
2023-08-12 18:45:06.082760,-78.0
2023-08-12 18:45:06.090449,-69.0
2023-08-12 18:45:06.098139,-45.0
2023-08-12 18:45:06.105828,-23.0
2023-08-12 18:45:06.113518,-14.0
2023-08-12 18:45:06.121207,-28.0
2023-08-12 18:45:06.128897,-49.0
2023-08-12 18:45:06.136586,-59.0
2023-08-12 18:45:06.144276,-66.0
2023-08-12 18:45:06.151966,-80.0
2023-08-12 18:45:06.159655,-83.0
2023-08-12 18:45:06.167345,-78.0
2023-08-12 18:45:06.175034,-76.0
2023-08-12 18:45:06.182724,-76.0
2023-08-12 18:45:06.190413,-69.0
2023-08-12 18:45:06.198103,-45.0
2023-08-12 18:45:06.205792,107.0
2023-08-12 18:45:06.213482,499.0
2023-08-12 18:45:06.221171,945.0
2023-08-12 18:45:06.228861,885.0
2023-08-12 18:45:06.236550,76.0
2023-08-12 18:45:06.244240,-640.0
2023-08-12 18:45:06.251929,-518.0
2023-08-12 18:45:06.259619,-221.0
2023-08-12 18:45:06.267309,-195.0
2023-08-12 18:45:06.274998,-126.0
2023-08-12 18:45:06.282688,-57.0
2023-08-12 18:45:06.290377,-90.0
2023-08-12 18:45:06.298067,-90.0
2023-08-12 18:45:06.305756,-59.0
2023-08-12 18:45:06.313446,-59.0
2023-08-12 18:45:06.321135,-61.0
2023-08-12 18:45:06.328825,-47.0
2023-08-12 18:45:06.336514,-40.0
2023-08-12 18:45:06.344204,-38.0
2023-08-12 18:45:06.351893,-33.0
2023-08-12 18:45:06.359583,-26.0
2023-08-12 18:45:06.367272,-21.0
2023-08-12 18:45:06.374962,-14.0
2023-08-12 18:45:06.382651,-11.0
2023-08-12 18:45:06.390341,-16.0
2023-08-12 18:45:06.398031,-14.0
2023-08-12 18:45:06.405720,-7.0
2023-08-12 18:45:06.413410,2.0
2023-08-12 18:45:06.421099,11.0
2023-08-12 18:45:06.428789,21.0
2023-08-12 18:45:06.436478,28.0
2023-08-12 18:45:06.444168,38.0
2023-08-12 18:45:06.451857,47.0
2023-08-12 18:45:06.459547,57.0
2023-08-12 18:45:06.467236,66.0
2023-08-12 18:45:06.474926,73.0
2023-08-12 18:45:06.482615,71.0
2023-08-12 18:45:06.490305,66.0
2023-08-12 18:45:06.497994,54.0
2023-08-12 18:45:06.505684,38.0
2023-08-12 18:45:06.513374,19.0
2023-08-12 18:45:06.521063,-7.0
2023-08-12 18:45:06.528753,-35.0
2023-08-12 18:45:06.536442,-61.0
2023-08-12 18:45:06.544132,-83.0
2023-08-12 18:45:06.551821,-102.0
2023-08-12 18:45:06.559511,-114.0
2023-08-12 18:45:06.567200,-128.0
2023-08-12 18:45:06.574890,-140.0
2023-08-12 18:45:06.582579,-142.0
2023-08-12 18:45:06.590269,-142.0
2023-08-12 18:45:06.597958,-147.0
2023-08-12 18:45:06.605648,-142.0
2023-08-12 18:45:06.613337,-140.0
2023-08-12 18:45:06.621027,-138.0
2023-08-12 18:45:06.628717,-133.0
2023-08-12 18:45:06.636406,-128.0
2023-08-12 18:45:06.644096,-126.0
2023-08-12 18:45:06.651785,-121.0
2023-08-12 18:45:06.659475,-116.0
2023-08-12 18:45:06.667164,-114.0
2023-08-12 18:45:06.674854,-109.0
2023-08-12 18:45:06.682543,-104.0
2023-08-12 18:45:06.690233,-102.0
2023-08-12 18:45:06.697922,-97.0
2023-08-12 18:45:06.705612,-95.0
2023-08-12 18:45:06.713301,-95.0
2023-08-12 18:45:06.720991,-92.0
2023-08-12 18:45:06.728680,-90.0
2023-08-12 18:45:06.736370,-92.0
2023-08-12 18:45:06.744060,-92.0
2023-08-12 18:45:06.751749,-90.0
2023-08-12 18:45:06.759439,-90.0
2023-08-12 18:45:06.767128,-95.0
2023-08-12 18:45:06.774818,-95.0
2023-08-12 18:45:06.782507,-95.0
2023-08-12 18:45:06.790197,-95.0
2023-08-12 18:45:06.797886,-95.0
2023-08-12 18:45:06.805576,-92.0
2023-08-12 18:45:06.813265,-90.0
2023-08-12 18:45:06.820955,-90.0
2023-08-12 18:45:06.828644,-88.0
2023-08-12 18:45:06.836334,-83.0
2023-08-12 18:45:06.844023,-83.0
2023-08-12 18:45:06.851713,-83.0
2023-08-12 18:45:06.859403,-78.0
2023-08-12 18:45:06.867092,-80.0
2023-08-12 18:45:06.874782,-80.0
2023-08-12 18:45:06.882471,-80.0
2023-08-12 18:45:06.890161,-80.0
2023-08-12 18:45:06.897850,-83.0
2023-08-12 18:45:06.905540,-80.0
2023-08-12 18:45:06.913229,-78.0
2023-08-12 18:45:06.920919,-80.0
2023-08-12 18:45:06.928608,-80.0
2023-08-12 18:45:06.936298,-78.0
2023-08-12 18:45:06.943987,-73.0
2023-08-12 18:45:06.951677,-61.0
2023-08-12 18:45:06.959366,-45.0
2023-08-12 18:45:06.967056,-28.0
2023-08-12 18:45:06.974746,-16.0
2023-08-12 18:45:06.982435,-28.0
2023-08-12 18:45:06.990125,-54.0
2023-08-12 18:45:06.997814,-61.0
2023-08-12 18:45:07.005504,-69.0
2023-08-12 18:45:07.013193,-90.0
2023-08-12 18:45:07.020883,-99.0
2023-08-12 18:45:07.028572,-90.0
2023-08-12 18:45:07.036262,-83.0
2023-08-12 18:45:07.043951,-83.0
2023-08-12 18:45:07.051641,-83.0
2023-08-12 18:45:07.059330,-73.0
2023-08-12 18:45:07.067020,28.0
2023-08-12 18:45:07.074709,366.0
2023-08-12 18:45:07.082399,856.0
2023-08-12 18:45:07.090089,1002.0
2023-08-12 18:45:07.097778,338.0
2023-08-12 18:45:07.105468,-528.0
2023-08-12 18:45:07.113157,-595.0
2023-08-12 18:45:07.120847,-247.0
2023-08-12 18:45:07.128536,-176.0
2023-08-12 18:45:07.136226,-154.0
2023-08-12 18:45:07.143915,-80.0
2023-08-12 18:45:07.151605,-95.0
2023-08-12 18:45:07.159294,-109.0
2023-08-12 18:45:07.166984,-76.0
2023-08-12 18:45:07.174673,-64.0
2023-08-12 18:45:07.182363,-71.0
2023-08-12 18:45:07.190052,-66.0
2023-08-12 18:45:07.197742,-61.0
2023-08-12 18:45:07.205431,-57.0
2023-08-12 18:45:07.213121,-45.0
2023-08-12 18:45:07.220811,-35.0
2023-08-12 18:45:07.228500,-33.0
2023-08-12 18:45:07.236190,-30.0
2023-08-12 18:45:07.243879,-23.0
2023-08-12 18:45:07.251569,-19.0
2023-08-12 18:45:07.259258,-16.0
2023-08-12 18:45:07.266948,-7.0
2023-08-12 18:45:07.274637,0.0
2023-08-12 18:45:07.282327,2.0
2023-08-12 18:45:07.290016,9.0
2023-08-12 18:45:07.297706,16.0
2023-08-12 18:45:07.305395,26.0
2023-08-12 18:45:07.313085,38.0
2023-08-12 18:45:07.320774,47.0
2023-08-12 18:45:07.328464,52.0
2023-08-12 18:45:07.336154,49.0
2023-08-12 18:45:07.343843,52.0
2023-08-12 18:45:07.351533,54.0
2023-08-12 18:45:07.359222,47.0
2023-08-12 18:45:07.366912,30.0
2023-08-12 18:45:07.374601,11.0
2023-08-12 18:45:07.382291,-14.0
2023-08-12 18:45:07.389980,-40.0
2023-08-12 18:45:07.397670,-66.0
2023-08-12 18:45:07.405359,-90.0
2023-08-12 18:45:07.413049,-104.0
2023-08-12 18:45:07.420738,-116.0
2023-08-12 18:45:07.428428,-126.0
2023-08-12 18:45:07.436117,-133.0
2023-08-12 18:45:07.443807,-138.0
2023-08-12 18:45:07.451497,-140.0
2023-08-12 18:45:07.459186,-140.0
2023-08-12 18:45:07.466876,-138.0
2023-08-12 18:45:07.474565,-138.0
2023-08-12 18:45:07.482255,-135.0
2023-08-12 18:45:07.489944,-130.0
2023-08-12 18:45:07.497634,-126.0
2023-08-12 18:45:07.505323,-126.0
2023-08-12 18:45:07.513013,-130.0
2023-08-12 18:45:07.520702,-133.0
2023-08-12 18:45:07.528392,-130.0
2023-08-12 18:45:07.536081,-121.0
2023-08-12 18:45:07.543771,-119.0
2023-08-12 18:45:07.551460,-116.0
2023-08-12 18:45:07.559150,-114.0
2023-08-12 18:45:07.566840,-114.0
2023-08-12 18:45:07.574529,-114.0
2023-08-12 18:45:07.582219,-107.0
2023-08-12 18:45:07.589908,-102.0
2023-08-12 18:45:07.597598,-102.0
2023-08-12 18:45:07.605287,-102.0
2023-08-12 18:45:07.612977,-102.0
2023-08-12 18:45:07.620666,-102.0
2023-08-12 18:45:07.628356,-99.0
2023-08-12 18:45:07.636045,-99.0
2023-08-12 18:45:07.643735,-99.0
2023-08-12 18:45:07.651424,-99.0
2023-08-12 18:45:07.659114,-97.0
2023-08-12 18:45:07.666803,-97.0
2023-08-12 18:45:07.674493,-95.0
2023-08-12 18:45:07.682183,-92.0
2023-08-12 18:45:07.689872,-92.0
2023-08-12 18:45:07.697562,-92.0
2023-08-12 18:45:07.705251,-90.0
2023-08-12 18:45:07.712941,-88.0
2023-08-12 18:45:07.720630,-88.0
2023-08-12 18:45:07.728320,-85.0
2023-08-12 18:45:07.736009,-85.0
2023-08-12 18:45:07.743699,-83.0
2023-08-12 18:45:07.751388,-85.0
2023-08-12 18:45:07.759078,-85.0
2023-08-12 18:45:07.766767,-80.0
2023-08-12 18:45:07.774457,-80.0
2023-08-12 18:45:07.782146,-78.0
2023-08-12 18:45:07.789836,-76.0
2023-08-12 18:45:07.797526,-69.0
2023-08-12 18:45:07.805215,-52.0
2023-08-12 18:45:07.812905,-26.0
2023-08-12 18:45:07.820594,-11.0
2023-08-12 18:45:07.828284,-23.0
2023-08-12 18:45:07.835973,-47.0
2023-08-12 18:45:07.843663,-57.0
2023-08-12 18:45:07.851352,-64.0
2023-08-12 18:45:07.859042,-83.0
2023-08-12 18:45:07.866731,-88.0
2023-08-12 18:45:07.874421,-78.0
2023-08-12 18:45:07.882110,-76.0
2023-08-12 18:45:07.889800,-78.0
2023-08-12 18:45:07.897489,-78.0
2023-08-12 18:45:07.905179,-69.0
2023-08-12 18:45:07.912869,23.0
2023-08-12 18:45:07.920558,340.0
2023-08-12 18:45:07.928248,802.0
2023-08-12 18:45:07.935937,945.0
2023-08-12 18:45:07.943627,316.0
2023-08-12 18:45:07.951316,-523.0
2023-08-12 18:45:07.959006,-592.0
2023-08-12 18:45:07.966695,-259.0
2023-08-12 18:45:07.974385,-192.0
2023-08-12 18:45:07.982074,-154.0
2023-08-12 18:45:07.989764,-71.0
2023-08-12 18:45:07.997453,-95.0
2023-08-12 18:45:08.005143,-114.0
2023-08-12 18:45:08.012832,-76.0
2023-08-12 18:45:08.020522,-69.0
2023-08-12 18:45:08.028211,-76.0
2023-08-12 18:45:08.035901,-64.0
2023-08-12 18:45:08.043591,-52.0
2023-08-12 18:45:08.051280,-52.0
2023-08-12 18:45:08.058970,-49.0
2023-08-12 18:45:08.066659,-40.0
2023-08-12 18:45:08.074349,-35.0
