time,ECG
2023-08-16 11:32:41.330196,-255.0
2023-08-16 11:32:41.337886,-267.0
2023-08-16 11:32:41.345575,-272.0
2023-08-16 11:32:41.353264,-272.0
2023-08-16 11:32:41.360954,-267.0
2023-08-16 11:32:41.368643,-263.0
2023-08-16 11:32:41.376332,-255.0
2023-08-16 11:32:41.384021,-241.0
2023-08-16 11:32:41.391711,-229.0
2023-08-16 11:32:41.399400,-221.0
2023-08-16 11:32:41.407089,-209.0
2023-08-16 11:32:41.414779,-200.0
2023-08-16 11:32:41.422468,-193.0
2023-08-16 11:32:41.430157,-185.0
2023-08-16 11:32:41.437846,-178.0
2023-08-16 11:32:41.445536,-173.0
2023-08-16 11:32:41.453225,-168.0
2023-08-16 11:32:41.460914,-164.0
2023-08-16 11:32:41.468604,-161.0
2023-08-16 11:32:41.476293,-156.0
2023-08-16 11:32:41.483982,-152.0
2023-08-16 11:32:41.491671,-152.0
2023-08-16 11:32:41.499361,-152.0
2023-08-16 11:32:41.507050,-149.0
2023-08-16 11:32:41.514739,-144.0
2023-08-16 11:32:41.522429,-142.0
2023-08-16 11:32:41.530118,-139.0
2023-08-16 11:32:41.537807,-139.0
2023-08-16 11:32:41.545497,-147.0
2023-08-16 11:32:41.553186,-156.0
2023-08-16 11:32:41.560875,-154.0
2023-08-16 11:32:41.568564,-147.0
2023-08-16 11:32:41.576254,-144.0
2023-08-16 11:32:41.583943,-144.0
2023-08-16 11:32:41.591632,-142.0
2023-08-16 11:32:41.599322,-142.0
2023-08-16 11:32:41.607011,-142.0
2023-08-16 11:32:41.614700,-139.0
2023-08-16 11:32:41.622389,-137.0
2023-08-16 11:32:41.630079,-139.0
2023-08-16 11:32:41.637768,-142.0
2023-08-16 11:32:41.645457,-137.0
2023-08-16 11:32:41.653147,-132.0
2023-08-16 11:32:41.660836,-127.0
2023-08-16 11:32:41.668525,-125.0
2023-08-16 11:32:41.676215,-125.0
2023-08-16 11:32:41.683904,-127.0
2023-08-16 11:32:41.691593,-127.0
2023-08-16 11:32:41.699282,-125.0
2023-08-16 11:32:41.706972,-123.0
2023-08-16 11:32:41.714661,-120.0
2023-08-16 11:32:41.722350,-118.0
2023-08-16 11:32:41.730040,-120.0
2023-08-16 11:32:41.737729,-118.0
2023-08-16 11:32:41.745418,-113.0
2023-08-16 11:32:41.753107,-110.0
2023-08-16 11:32:41.760797,-108.0
2023-08-16 11:32:41.768486,-108.0
2023-08-16 11:32:41.776175,-108.0
2023-08-16 11:32:41.783865,-108.0
2023-08-16 11:32:41.791554,-103.0
2023-08-16 11:32:41.799243,-98.0
2023-08-16 11:32:41.806932,-98.0
2023-08-16 11:32:41.814622,-98.0
2023-08-16 11:32:41.822311,-96.0
2023-08-16 11:32:41.830000,-94.0
2023-08-16 11:32:41.837690,-91.0
2023-08-16 11:32:41.845379,-89.0
2023-08-16 11:32:41.853068,-89.0
2023-08-16 11:32:41.860758,-91.0
2023-08-16 11:32:41.868447,-91.0
2023-08-16 11:32:41.876136,-94.0
2023-08-16 11:32:41.883825,-101.0
2023-08-16 11:32:41.891515,-103.0
2023-08-16 11:32:41.899204,-96.0
2023-08-16 11:32:41.906893,-77.0
2023-08-16 11:32:41.914583,-41.0
2023-08-16 11:32:41.922272,-9.0
2023-08-16 11:32:41.929961,-7.0
2023-08-16 11:32:41.937650,-16.0
2023-08-16 11:32:41.945340,-26.0
2023-08-16 11:32:41.953029,-53.0
2023-08-16 11:32:41.960718,-82.0
2023-08-16 11:32:41.968408,-77.0
2023-08-16 11:32:41.976097,-67.0
2023-08-16 11:32:41.983786,-67.0
2023-08-16 11:32:41.991475,-65.0
2023-08-16 11:32:41.999165,-57.0
2023-08-16 11:32:42.006854,-50.0
2023-08-16 11:32:42.014543,-9.0
2023-08-16 11:32:42.022233,183.0
2023-08-16 11:32:42.029922,750.0
2023-08-16 11:32:42.037611,1416.0
2023-08-16 11:32:42.045301,1346.0
2023-08-16 11:32:42.052990,463.0
2023-08-16 11:32:42.060679,-301.0
2023-08-16 11:32:42.068368,-337.0
2023-08-16 11:32:42.076058,-67.0
2023-08-16 11:32:42.083747,-96.0
2023-08-16 11:32:42.091436,-209.0
2023-08-16 11:32:42.099126,-154.0
2023-08-16 11:32:42.106815,-125.0
2023-08-16 11:32:42.114504,-149.0
2023-08-16 11:32:42.122193,-125.0
2023-08-16 11:32:42.129883,-103.0
2023-08-16 11:32:42.137572,-106.0
2023-08-16 11:32:42.145261,-89.0
2023-08-16 11:32:42.152951,-62.0
2023-08-16 11:32:42.160640,-48.0
2023-08-16 11:32:42.168329,-31.0
2023-08-16 11:32:42.176018,-12.0
2023-08-16 11:32:42.183708,0.0
2023-08-16 11:32:42.191397,16.0
2023-08-16 11:32:42.199086,53.0
2023-08-16 11:32:42.206776,89.0
2023-08-16 11:32:42.214465,115.0
2023-08-16 11:32:42.222154,147.0
2023-08-16 11:32:42.229844,185.0
2023-08-16 11:32:42.237533,224.0
2023-08-16 11:32:42.245222,260.0
2023-08-16 11:32:42.252911,291.0
2023-08-16 11:32:42.260601,316.0
2023-08-16 11:32:42.268290,323.0
2023-08-16 11:32:42.275979,311.0
2023-08-16 11:32:42.283669,284.0
2023-08-16 11:32:42.291358,246.0
2023-08-16 11:32:42.299047,188.0
2023-08-16 11:32:42.306736,110.0
2023-08-16 11:32:42.314426,19.0
2023-08-16 11:32:42.322115,-74.0
2023-08-16 11:32:42.329804,-149.0
2023-08-16 11:32:42.337494,-197.0
2023-08-16 11:32:42.345183,-231.0
2023-08-16 11:32:42.352872,-260.0
2023-08-16 11:32:42.360561,-277.0
2023-08-16 11:32:42.368251,-279.0
2023-08-16 11:32:42.375940,-275.0
2023-08-16 11:32:42.383629,-265.0
2023-08-16 11:32:42.391319,-255.0
2023-08-16 11:32:42.399008,-246.0
2023-08-16 11:32:42.406697,-238.0
2023-08-16 11:32:42.414387,-229.0
2023-08-16 11:32:42.422076,-214.0
2023-08-16 11:32:42.429765,-205.0
2023-08-16 11:32:42.437454,-195.0
2023-08-16 11:32:42.445144,-190.0
2023-08-16 11:32:42.452833,-185.0
2023-08-16 11:32:42.460522,-180.0
2023-08-16 11:32:42.468212,-176.0
2023-08-16 11:32:42.475901,-166.0
2023-08-16 11:32:42.483590,-156.0
2023-08-16 11:32:42.491279,-159.0
2023-08-16 11:32:42.498969,-161.0
2023-08-16 11:32:42.506658,-156.0
2023-08-16 11:32:42.514347,-154.0
2023-08-16 11:32:42.522037,-152.0
2023-08-16 11:32:42.529726,-149.0
2023-08-16 11:32:42.537415,-147.0
2023-08-16 11:32:42.545104,-147.0
2023-08-16 11:32:42.552794,-149.0
2023-08-16 11:32:42.560483,-152.0
2023-08-16 11:32:42.568172,-147.0
2023-08-16 11:32:42.575862,-137.0
2023-08-16 11:32:42.583551,-130.0
2023-08-16 11:32:42.591240,-132.0
2023-08-16 11:32:42.598930,-139.0
2023-08-16 11:32:42.606619,-137.0
2023-08-16 11:32:42.614308,-132.0
2023-08-16 11:32:42.621997,-125.0
2023-08-16 11:32:42.629687,-120.0
2023-08-16 11:32:42.637376,-125.0
2023-08-16 11:32:42.645065,-135.0
2023-08-16 11:32:42.652755,-130.0
2023-08-16 11:32:42.660444,-118.0
2023-08-16 11:32:42.668133,-120.0
2023-08-16 11:32:42.675822,-135.0
2023-08-16 11:32:42.683512,-139.0
2023-08-16 11:32:42.691201,-135.0
2023-08-16 11:32:42.698890,-130.0
2023-08-16 11:32:42.706580,-125.0
2023-08-16 11:32:42.714269,-127.0
2023-08-16 11:32:42.721958,-125.0
2023-08-16 11:32:42.729647,-118.0
2023-08-16 11:32:42.737337,-118.0
2023-08-16 11:32:42.745026,-118.0
2023-08-16 11:32:42.752715,-110.0
2023-08-16 11:32:42.760405,-110.0
2023-08-16 11:32:42.768094,-113.0
2023-08-16 11:32:42.775783,-108.0
2023-08-16 11:32:42.783473,-106.0
2023-08-16 11:32:42.791162,-106.0
2023-08-16 11:32:42.798851,-103.0
2023-08-16 11:32:42.806540,-98.0
2023-08-16 11:32:42.814230,-101.0
2023-08-16 11:32:42.821919,-103.0
2023-08-16 11:32:42.829608,-94.0
2023-08-16 11:32:42.837298,-89.0
2023-08-16 11:32:42.844987,-98.0
2023-08-16 11:32:42.852676,-96.0
2023-08-16 11:32:42.860365,-89.0
2023-08-16 11:32:42.868055,-89.0
2023-08-16 11:32:42.875744,-91.0
2023-08-16 11:32:42.883433,-89.0
2023-08-16 11:32:42.891123,-91.0
2023-08-16 11:32:42.898812,-98.0
2023-08-16 11:32:42.906501,-98.0
2023-08-16 11:32:42.914190,-82.0
2023-08-16 11:32:42.921880,-45.0
2023-08-16 11:32:42.929569,-12.0
2023-08-16 11:32:42.937258,-2.0
2023-08-16 11:32:42.944948,-14.0
2023-08-16 11:32:42.952637,-28.0
2023-08-16 11:32:42.960326,-55.0
2023-08-16 11:32:42.968016,-74.0
2023-08-16 11:32:42.975705,-67.0
2023-08-16 11:32:42.983394,-65.0
2023-08-16 11:32:42.991083,-74.0
2023-08-16 11:32:42.998773,-67.0
2023-08-16 11:32:43.006462,-55.0
2023-08-16 11:32:43.014151,-50.0
2023-08-16 11:32:43.021841,-9.0
2023-08-16 11:32:43.029530,183.0
2023-08-16 11:32:43.037219,728.0
2023-08-16 11:32:43.044908,1394.0
2023-08-16 11:32:43.052598,1346.0
2023-08-16 11:32:43.060287,458.0
2023-08-16 11:32:43.067976,-325.0
2023-08-16 11:32:43.075666,-376.0
2023-08-16 11:32:43.083355,-96.0
2023-08-16 11:32:43.091044,-94.0
2023-08-16 11:32:43.098734,-193.0
2023-08-16 11:32:43.106423,-135.0
2023-08-16 11:32:43.114112,-106.0
2023-08-16 11:32:43.121801,-132.0
2023-08-16 11:32:43.129491,-113.0
2023-08-16 11:32:43.137180,-89.0
2023-08-16 11:32:43.144869,-86.0
2023-08-16 11:32:43.152559,-72.0
2023-08-16 11:32:43.160248,-53.0
2023-08-16 11:32:43.167937,-38.0
2023-08-16 11:32:43.175626,-14.0
2023-08-16 11:32:43.183316,7.0
2023-08-16 11:32:43.191005,21.0
2023-08-16 11:32:43.198694,45.0
2023-08-16 11:32:43.206384,74.0
2023-08-16 11:32:43.214073,98.0
2023-08-16 11:32:43.221762,132.0
2023-08-16 11:32:43.229451,178.0
2023-08-16 11:32:43.237141,214.0
2023-08-16 11:32:43.244830,250.0
2023-08-16 11:32:43.252519,294.0
2023-08-16 11:32:43.260209,325.0
2023-08-16 11:32:43.267898,330.0
2023-08-16 11:32:43.275587,335.0
2023-08-16 11:32:43.283277,340.0
2023-08-16 11:32:43.290966,320.0
2023-08-16 11:32:43.298655,267.0
2023-08-16 11:32:43.306344,195.0
2023-08-16 11:32:43.314034,113.0
2023-08-16 11:32:43.321723,14.0
2023-08-16 11:32:43.329412,-82.0
2023-08-16 11:32:43.337102,-161.0
2023-08-16 11:32:43.344791,-224.0
2023-08-16 11:32:43.352480,-263.0
2023-08-16 11:32:43.360169,-277.0
2023-08-16 11:32:43.367859,-294.0
2023-08-16 11:32:43.375548,-304.0
2023-08-16 11:32:43.383237,-299.0
2023-08-16 11:32:43.390927,-289.0
2023-08-16 11:32:43.398616,-275.0
2023-08-16 11:32:43.406305,-258.0
2023-08-16 11:32:43.413994,-253.0
2023-08-16 11:32:43.421684,-250.0
2023-08-16 11:32:43.429373,-234.0
2023-08-16 11:32:43.437062,-217.0
2023-08-16 11:32:43.444752,-212.0
2023-08-16 11:32:43.452441,-205.0
2023-08-16 11:32:43.460130,-195.0
2023-08-16 11:32:43.467820,-195.0
2023-08-16 11:32:43.475509,-190.0
2023-08-16 11:32:43.483198,-178.0
2023-08-16 11:32:43.490887,-188.0
2023-08-16 11:32:43.498577,-185.0
2023-08-16 11:32:43.506266,-173.0
2023-08-16 11:32:43.513955,-168.0
2023-08-16 11:32:43.521645,-166.0
2023-08-16 11:32:43.529334,-168.0
2023-08-16 11:32:43.537023,-178.0
2023-08-16 11:32:43.544712,-168.0
2023-08-16 11:32:43.552402,-154.0
2023-08-16 11:32:43.560091,-159.0
2023-08-16 11:32:43.567780,-164.0
2023-08-16 11:32:43.575470,-159.0
2023-08-16 11:32:43.583159,-159.0
2023-08-16 11:32:43.590848,-154.0
2023-08-16 11:32:43.598537,-144.0
2023-08-16 11:32:43.606227,-149.0
2023-08-16 11:32:43.613916,-156.0
2023-08-16 11:32:43.621605,-156.0
2023-08-16 11:32:43.629295,-147.0
2023-08-16 11:32:43.636984,-144.0
2023-08-16 11:32:43.644673,-154.0
2023-08-16 11:32:43.652363,-156.0
2023-08-16 11:32:43.660052,-149.0
2023-08-16 11:32:43.667741,-152.0
2023-08-16 11:32:43.675430,-149.0
2023-08-16 11:32:43.683120,-139.0
2023-08-16 11:32:43.690809,-137.0
2023-08-16 11:32:43.698498,-135.0
2023-08-16 11:32:43.706188,-132.0
2023-08-16 11:32:43.713877,-132.0
2023-08-16 11:32:43.721566,-130.0
2023-08-16 11:32:43.729255,-125.0
2023-08-16 11:32:43.736945,-120.0
2023-08-16 11:32:43.744634,-118.0
2023-08-16 11:32:43.752323,-120.0
2023-08-16 11:32:43.760013,-125.0
2023-08-16 11:32:43.767702,-115.0
2023-08-16 11:32:43.775391,-108.0
2023-08-16 11:32:43.783080,-113.0
2023-08-16 11:32:43.790770,-120.0
2023-08-16 11:32:43.798459,-127.0
2023-08-16 11:32:43.806148,-127.0
2023-08-16 11:32:43.813838,-106.0
2023-08-16 11:32:43.821527,-74.0
2023-08-16 11:32:43.829216,-50.0
2023-08-16 11:32:43.836906,-43.0
2023-08-16 11:32:43.844595,-55.0
2023-08-16 11:32:43.852284,-77.0
2023-08-16 11:32:43.859973,-98.0
2023-08-16 11:32:43.867663,-110.0
2023-08-16 11:32:43.875352,-113.0
2023-08-16 11:32:43.883041,-110.0
2023-08-16 11:32:43.890731,-106.0
2023-08-16 11:32:43.898420,-96.0
2023-08-16 11:32:43.906109,-89.0
2023-08-16 11:32:43.913798,-82.0
2023-08-16 11:32:43.921488,-33.0
2023-08-16 11:32:43.929177,183.0
2023-08-16 11:32:43.936866,726.0
2023-08-16 11:32:43.944556,1307.0
2023-08-16 11:32:43.952245,1163.0
2023-08-16 11:32:43.959934,260.0
2023-08-16 11:32:43.967623,-448.0
2023-08-16 11:32:43.975313,-400.0
2023-08-16 11:32:43.983002,-94.0
2023-08-16 11:32:43.990691,-110.0
2023-08-16 11:32:43.998381,-197.0
2023-08-16 11:32:44.006070,-130.0
2023-08-16 11:32:44.013759,-108.0
2023-08-16 11:32:44.021449,-132.0
2023-08-16 11:32:44.029138,-106.0
2023-08-16 11:32:44.036827,-77.0
2023-08-16 11:32:44.044516,-74.0
2023-08-16 11:32:44.052206,-62.0
2023-08-16 11:32:44.059895,-43.0
2023-08-16 11:32:44.067584,-28.0
2023-08-16 11:32:44.075274,-12.0
2023-08-16 11:32:44.082963,9.0
2023-08-16 11:32:44.090652,28.0
2023-08-16 11:32:44.098341,55.0
2023-08-16 11:32:44.106031,84.0
2023-08-16 11:32:44.113720,108.0
2023-08-16 11:32:44.121409,142.0
2023-08-16 11:32:44.129099,185.0
2023-08-16 11:32:44.136788,229.0
2023-08-16 11:32:44.144477,267.0
2023-08-16 11:32:44.152166,299.0
2023-08-16 11:32:44.159856,325.0
2023-08-16 11:32:44.167545,347.0
2023-08-16 11:32:44.175234,357.0
2023-08-16 11:32:44.182924,345.0
2023-08-16 11:32:44.190613,311.0
2023-08-16 11:32:44.198302,253.0
2023-08-16 11:32:44.205992,171.0
2023-08-16 11:32:44.213681,72.0
2023-08-16 11:32:44.221370,-33.0
2023-08-16 11:32:44.229059,-125.0
2023-08-16 11:32:44.236749,-190.0
2023-08-16 11:32:44.244438,-238.0
2023-08-16 11:32:44.252127,-272.0
2023-08-16 11:32:44.259817,-294.0
2023-08-16 11:32:44.267506,-301.0
2023-08-16 11:32:44.275195,-301.0
2023-08-16 11:32:44.282884,-291.0
2023-08-16 11:32:44.290574,-279.0
2023-08-16 11:32:44.298263,-272.0
2023-08-16 11:32:44.305952,-265.0
2023-08-16 11:32:44.313642,-258.0
2023-08-16 11:32:44.321331,-248.0
2023-08-16 11:32:44.329020,-234.0
2023-08-16 11:32:44.336710,-224.0
2023-08-16 11:32:44.344399,-214.0
2023-08-16 11:32:44.352088,-205.0
2023-08-16 11:32:44.359777,-200.0
2023-08-16 11:32:44.367467,-197.0
2023-08-16 11:32:44.375156,-190.0
2023-08-16 11:32:44.382845,-190.0
2023-08-16 11:32:44.390535,-195.0
2023-08-16 11:32:44.398224,-190.0
2023-08-16 11:32:44.405913,-183.0
2023-08-16 11:32:44.413602,-185.0
2023-08-16 11:32:44.421292,-185.0
2023-08-16 11:32:44.428981,-188.0
2023-08-16 11:32:44.436670,-190.0
2023-08-16 11:32:44.444360,-188.0
2023-08-16 11:32:44.452049,-183.0
2023-08-16 11:32:44.459738,-183.0
2023-08-16 11:32:44.467427,-183.0
2023-08-16 11:32:44.475117,-185.0
2023-08-16 11:32:44.482806,-188.0
2023-08-16 11:32:44.490495,-185.0
2023-08-16 11:32:44.498185,-180.0
2023-08-16 11:32:44.505874,-178.0
2023-08-16 11:32:44.513563,-173.0
2023-08-16 11:32:44.521253,-173.0
2023-08-16 11:32:44.528942,-173.0
2023-08-16 11:32:44.536631,-171.0
2023-08-16 11:32:44.544320,-164.0
2023-08-16 11:32:44.552010,-161.0
2023-08-16 11:32:44.559699,-159.0
2023-08-16 11:32:44.567388,-159.0
2023-08-16 11:32:44.575078,-159.0
2023-08-16 11:32:44.582767,-154.0
2023-08-16 11:32:44.590456,-149.0
2023-08-16 11:32:44.598145,-147.0
2023-08-16 11:32:44.605835,-144.0
2023-08-16 11:32:44.613524,-142.0
2023-08-16 11:32:44.621213,-137.0
2023-08-16 11:32:44.628903,-132.0
2023-08-16 11:32:44.636592,-130.0
2023-08-16 11:32:44.644281,-130.0
2023-08-16 11:32:44.651970,-132.0
2023-08-16 11:32:44.659660,-132.0
2023-08-16 11:32:44.667349,-127.0
2023-08-16 11:32:44.675038,-123.0
2023-08-16 11:32:44.682728,-123.0
2023-08-16 11:32:44.690417,-120.0
2023-08-16 11:32:44.698106,-118.0
2023-08-16 11:32:44.705796,-118.0
2023-08-16 11:32:44.713485,-123.0
2023-08-16 11:32:44.721174,-127.0
2023-08-16 11:32:44.728863,-127.0
2023-08-16 11:32:44.736553,-113.0
2023-08-16 11:32:44.744242,-82.0
2023-08-16 11:32:44.751931,-45.0
2023-08-16 11:32:44.759621,-31.0
2023-08-16 11:32:44.767310,-38.0
2023-08-16 11:32:44.774999,-48.0
2023-08-16 11:32:44.782688,-65.0
2023-08-16 11:32:44.790378,-94.0
2023-08-16 11:32:44.798067,-101.0
2023-08-16 11:32:44.805756,-91.0
2023-08-16 11:32:44.813446,-91.0
2023-08-16 11:32:44.821135,-89.0
2023-08-16 11:32:44.828824,-82.0
2023-08-16 11:32:44.836513,-79.0
2023-08-16 11:32:44.844203,-57.0
2023-08-16 11:32:44.851892,53.0
2023-08-16 11:32:44.859581,465.0
2023-08-16 11:32:44.867271,1184.0
2023-08-16 11:32:44.874960,1445.0
2023-08-16 11:32:44.882649,774.0
2023-08-16 11:32:44.890339,-135.0
2023-08-16 11:32:44.898028,-439.0
2023-08-16 11:32:44.905717,-176.0
2023-08-16 11:32:44.913406,-62.0
2023-08-16 11:32:44.921096,-202.0
2023-08-16 11:32:44.928785,-197.0
2023-08-16 11:32:44.936474,-137.0
2023-08-16 11:32:44.944164,-152.0
2023-08-16 11:32:44.951853,-149.0
2023-08-16 11:32:44.959542,-113.0
2023-08-16 11:32:44.967231,-103.0
2023-08-16 11:32:44.974921,-96.0
2023-08-16 11:32:44.982610,-74.0
2023-08-16 11:32:44.990299,-57.0
2023-08-16 11:32:44.997989,-41.0
2023-08-16 11:32:45.005678,-21.0
2023-08-16 11:32:45.013367,0.0
2023-08-16 11:32:45.021056,21.0
2023-08-16 11:32:45.028746,48.0
2023-08-16 11:32:45.036435,79.0
2023-08-16 11:32:45.044124,108.0
2023-08-16 11:32:45.051814,142.0
2023-08-16 11:32:45.059503,176.0
2023-08-16 11:32:45.067192,212.0
2023-08-16 11:32:45.074882,253.0
2023-08-16 11:32:45.082571,291.0
2023-08-16 11:32:45.090260,318.0
2023-08-16 11:32:45.097949,328.0
2023-08-16 11:32:45.105639,323.0
2023-08-16 11:32:45.113328,301.0
2023-08-16 11:32:45.121017,263.0
2023-08-16 11:32:45.128707,207.0
2023-08-16 11:32:45.136396,127.0
2023-08-16 11:32:45.144085,28.0
2023-08-16 11:32:45.151774,-67.0
2023-08-16 11:32:45.159464,-147.0
2023-08-16 11:32:45.167153,-207.0
2023-08-16 11:32:45.174842,-246.0
2023-08-16 11:32:45.182532,-267.0
2023-08-16 11:32:45.190221,-282.0
2023-08-16 11:32:45.197910,-287.0
2023-08-16 11:32:45.205599,-279.0
2023-08-16 11:32:45.213289,-270.0
2023-08-16 11:32:45.220978,-260.0
2023-08-16 11:32:45.228667,-253.0
2023-08-16 11:32:45.236357,-246.0
2023-08-16 11:32:45.244046,-236.0
2023-08-16 11:32:45.251735,-221.0
2023-08-16 11:32:45.259425,-212.0
2023-08-16 11:32:45.267114,-205.0
2023-08-16 11:32:45.274803,-195.0
2023-08-16 11:32:45.282492,-188.0
2023-08-16 11:32:45.290182,-183.0
2023-08-16 11:32:45.297871,-180.0
2023-08-16 11:32:45.305560,-178.0
2023-08-16 11:32:45.313250,-171.0
2023-08-16 11:32:45.320939,-166.0
2023-08-16 11:32:45.328628,-166.0
2023-08-16 11:32:45.336317,-166.0
2023-08-16 11:32:45.344007,-164.0
2023-08-16 11:32:45.351696,-161.0
2023-08-16 11:32:45.359385,-161.0
2023-08-16 11:32:45.367075,-161.0
2023-08-16 11:32:45.374764,-161.0
2023-08-16 11:32:45.382453,-161.0
2023-08-16 11:32:45.390142,-156.0
2023-08-16 11:32:45.397832,-152.0
2023-08-16 11:32:45.405521,-152.0
2023-08-16 11:32:45.413210,-154.0
2023-08-16 11:32:45.420900,-152.0
2023-08-16 11:32:45.428589,-149.0
2023-08-16 11:32:45.436278,-144.0
2023-08-16 11:32:45.443968,-142.0
2023-08-16 11:32:45.451657,-137.0
2023-08-16 11:32:45.459346,-137.0
2023-08-16 11:32:45.467035,-149.0
2023-08-16 11:32:45.474725,-152.0
2023-08-16 11:32:45.482414,-144.0
2023-08-16 11:32:45.490103,-142.0
2023-08-16 11:32:45.497793,-144.0
2023-08-16 11:32:45.505482,-142.0
2023-08-16 11:32:45.513171,-139.0
2023-08-16 11:32:45.520860,-137.0
2023-08-16 11:32:45.528550,-135.0
2023-08-16 11:32:45.536239,-130.0
2023-08-16 11:32:45.543928,-130.0
2023-08-16 11:32:45.551618,-135.0
2023-08-16 11:32:45.559307,-135.0
2023-08-16 11:32:45.566996,-130.0
2023-08-16 11:32:45.574685,-125.0
2023-08-16 11:32:45.582375,-123.0
2023-08-16 11:32:45.590064,-120.0
2023-08-16 11:32:45.597753,-118.0
2023-08-16 11:32:45.605443,-118.0
2023-08-16 11:32:45.613132,-115.0
2023-08-16 11:32:45.620821,-110.0
2023-08-16 11:32:45.628511,-108.0
2023-08-16 11:32:45.636200,-106.0
2023-08-16 11:32:45.643889,-106.0
2023-08-16 11:32:45.651578,-106.0
2023-08-16 11:32:45.659268,-103.0
2023-08-16 11:32:45.666957,-103.0
2023-08-16 11:32:45.674646,-108.0
2023-08-16 11:32:45.682336,-110.0
2023-08-16 11:32:45.690025,-115.0
2023-08-16 11:32:45.697714,-125.0
2023-08-16 11:32:45.705403,-120.0
2023-08-16 11:32:45.713093,-101.0
2023-08-16 11:32:45.720782,-65.0
2023-08-16 11:32:45.728471,-31.0
2023-08-16 11:32:45.736161,-24.0
2023-08-16 11:32:45.743850,-33.0
2023-08-16 11:32:45.751539,-41.0
2023-08-16 11:32:45.759229,-65.0
2023-08-16 11:32:45.766918,-91.0
2023-08-16 11:32:45.774607,-86.0
2023-08-16 11:32:45.782296,-82.0
2023-08-16 11:32:45.789986,-84.0
2023-08-16 11:32:45.797675,-84.0
2023-08-16 11:32:45.805364,-77.0
2023-08-16 11:32:45.813054,-67.0
2023-08-16 11:32:45.820743,-43.0
2023-08-16 11:32:45.828432,84.0
2023-08-16 11:32:45.836121,557.0
2023-08-16 11:32:45.843811,1283.0
2023-08-16 11:32:45.851500,1447.0
2023-08-16 11:32:45.859189,704.0
2023-08-16 11:32:45.866879,-178.0
2023-08-16 11:32:45.874568,-415.0
2023-08-16 11:32:45.882257,-137.0
2023-08-16 11:32:45.889946,-69.0
2023-08-16 11:32:45.897636,-212.0
2023-08-16 11:32:45.905325,-183.0
2023-08-16 11:32:45.913014,-123.0
2023-08-16 11:32:45.920704,-149.0
2023-08-16 11:32:45.928393,-142.0
2023-08-16 11:32:45.936082,-103.0
2023-08-16 11:32:45.943772,-96.0
2023-08-16 11:32:45.951461,-86.0
2023-08-16 11:32:45.959150,-65.0
2023-08-16 11:32:45.966839,-48.0
2023-08-16 11:32:45.974529,-36.0
2023-08-16 11:32:45.982218,-14.0
2023-08-16 11:32:45.989907,9.0
2023-08-16 11:32:45.997597,33.0
2023-08-16 11:32:46.005286,57.0
2023-08-16 11:32:46.012975,84.0
2023-08-16 11:32:46.020664,115.0
2023-08-16 11:32:46.028354,152.0
2023-08-16 11:32:46.036043,188.0
2023-08-16 11:32:46.043732,221.0
2023-08-16 11:32:46.051422,250.0
2023-08-16 11:32:46.059111,277.0
2023-08-16 11:32:46.066800,304.0
2023-08-16 11:32:46.074489,318.0
2023-08-16 11:32:46.082179,313.0
2023-08-16 11:32:46.089868,289.0
2023-08-16 11:32:46.097557,250.0
2023-08-16 11:32:46.105247,193.0
2023-08-16 11:32:46.112936,115.0
2023-08-16 11:32:46.120625,21.0
2023-08-16 11:32:46.128315,-69.0
2023-08-16 11:32:46.136004,-144.0
2023-08-16 11:32:46.143693,-200.0
2023-08-16 11:32:46.151382,-241.0
2023-08-16 11:32:46.159072,-265.0
2023-08-16 11:32:46.166761,-277.0
2023-08-16 11:32:46.174450,-282.0
2023-08-16 11:32:46.182140,-287.0
2023-08-16 11:32:46.189829,-282.0
2023-08-16 11:32:46.197518,-270.0
2023-08-16 11:32:46.205207,-258.0
2023-08-16 11:32:46.212897,-248.0
2023-08-16 11:32:46.220586,-236.0
2023-08-16 11:32:46.228275,-226.0
2023-08-16 11:32:46.235965,-219.0
2023-08-16 11:32:46.243654,-209.0
2023-08-16 11:32:46.251343,-200.0
2023-08-16 11:32:46.259032,-193.0
2023-08-16 11:32:46.266722,-188.0
2023-08-16 11:32:46.274411,-185.0
2023-08-16 11:32:46.282100,-180.0
2023-08-16 11:32:46.289790,-176.0
2023-08-16 11:32:46.297479,-173.0
2023-08-16 11:32:46.305168,-171.0
2023-08-16 11:32:46.312858,-166.0
2023-08-16 11:32:46.320547,-161.0
2023-08-16 11:32:46.328236,-159.0
2023-08-16 11:32:46.335925,-156.0
2023-08-16 11:32:46.343615,-159.0
2023-08-16 11:32:46.351304,-156.0
2023-08-16 11:32:46.358993,-154.0
2023-08-16 11:32:46.366683,-154.0
2023-08-16 11:32:46.374372,-152.0
2023-08-16 11:32:46.382061,-149.0
2023-08-16 11:32:46.389750,-147.0
2023-08-16 11:32:46.397440,-144.0
2023-08-16 11:32:46.405129,-139.0
2023-08-16 11:32:46.412818,-139.0
2023-08-16 11:32:46.420508,-139.0
2023-08-16 11:32:46.428197,-137.0
2023-08-16 11:32:46.435886,-135.0
2023-08-16 11:32:46.443575,-135.0
2023-08-16 11:32:46.451265,-132.0
2023-08-16 11:32:46.458954,-125.0
2023-08-16 11:32:46.466643,-120.0
2023-08-16 11:32:46.474333,-120.0
2023-08-16 11:32:46.482022,-120.0
2023-08-16 11:32:46.489711,-120.0
2023-08-16 11:32:46.497401,-118.0
2023-08-16 11:32:46.505090,-118.0
2023-08-16 11:32:46.512779,-115.0
2023-08-16 11:32:46.520468,-115.0
2023-08-16 11:32:46.528158,-115.0
2023-08-16 11:32:46.535847,-118.0
2023-08-16 11:32:46.543536,-120.0
2023-08-16 11:32:46.551226,-120.0
2023-08-16 11:32:46.558915,-118.0
2023-08-16 11:32:46.566604,-115.0
2023-08-16 11:32:46.574293,-113.0
2023-08-16 11:32:46.581983,-108.0
2023-08-16 11:32:46.589672,-103.0
2023-08-16 11:32:46.597361,-106.0
2023-08-16 11:32:46.605051,-108.0
2023-08-16 11:32:46.612740,-101.0
2023-08-16 11:32:46.620429,-101.0
2023-08-16 11:32:46.628118,-108.0
2023-08-16 11:32:46.635808,-110.0
2023-08-16 11:32:46.643497,-110.0
2023-08-16 11:32:46.651186,-103.0
2023-08-16 11:32:46.658876,-101.0
2023-08-16 11:32:46.666565,-103.0
2023-08-16 11:32:46.674254,-103.0
2023-08-16 11:32:46.681944,-106.0
2023-08-16 11:32:46.689633,-110.0
2023-08-16 11:32:46.697322,-103.0
2023-08-16 11:32:46.705011,-98.0
2023-08-16 11:32:46.712701,-103.0
2023-08-16 11:32:46.720390,-103.0
2023-08-16 11:32:46.728079,-108.0
2023-08-16 11:32:46.735769,-115.0
2023-08-16 11:32:46.743458,-113.0
2023-08-16 11:32:46.751147,-84.0
2023-08-16 11:32:46.758836,-45.0
2023-08-16 11:32:46.766526,-16.0
2023-08-16 11:32:46.774215,-16.0
2023-08-16 11:32:46.781904,-31.0
2023-08-16 11:32:46.789594,-45.0
2023-08-16 11:32:46.797283,-72.0
2023-08-16 11:32:46.804972,-91.0
2023-08-16 11:32:46.812661,-84.0
2023-08-16 11:32:46.820351,-77.0
2023-08-16 11:32:46.828040,-77.0
2023-08-16 11:32:46.835729,-72.0
2023-08-16 11:32:46.843419,-69.0
2023-08-16 11:32:46.851108,-57.0
2023-08-16 11:32:46.858797,2.0
2023-08-16 11:32:46.866487,248.0
2023-08-16 11:32:46.874176,873.0
2023-08-16 11:32:46.881865,1486.0
2023-08-16 11:32:46.889554,1252.0
2023-08-16 11:32:46.897244,287.0
2023-08-16 11:32:46.904933,-400.0
2023-08-16 11:32:46.912622,-320.0
2023-08-16 11:32:46.920312,-60.0
2023-08-16 11:32:46.928001,-130.0
2023-08-16 11:32:46.935690,-209.0
2023-08-16 11:32:46.943379,-135.0
2023-08-16 11:32:46.951069,-125.0
2023-08-16 11:32:46.958758,-149.0
2023-08-16 11:32:46.966447,-115.0
2023-08-16 11:32:46.974137,-86.0
2023-08-16 11:32:46.981826,-89.0
2023-08-16 11:32:46.989515,-72.0
2023-08-16 11:32:46.997204,-50.0
2023-08-16 11:32:47.004894,-36.0
2023-08-16 11:32:47.012583,-21.0
2023-08-16 11:32:47.020272,2.0
2023-08-16 11:32:47.027962,26.0
2023-08-16 11:32:47.035651,45.0
2023-08-16 11:32:47.043340,69.0
2023-08-16 11:32:47.051030,106.0
2023-08-16 11:32:47.058719,144.0
2023-08-16 11:32:47.066408,178.0
2023-08-16 11:32:47.074097,207.0
2023-08-16 11:32:47.081787,248.0
2023-08-16 11:32:47.089476,291.0
2023-08-16 11:32:47.097165,323.0
2023-08-16 11:32:47.104855,345.0
2023-08-16 11:32:47.112544,357.0
2023-08-16 11:32:47.120233,337.0
2023-08-16 11:32:47.127922,296.0
2023-08-16 11:32:47.135612,255.0
2023-08-16 11:32:47.143301,197.0
2023-08-16 11:32:47.150990,106.0
2023-08-16 11:32:47.158680,2.0
2023-08-16 11:32:47.166369,-86.0
2023-08-16 11:32:47.174058,-166.0
2023-08-16 11:32:47.181748,-224.0
2023-08-16 11:32:47.189437,-263.0
2023-08-16 11:32:47.197126,-284.0
2023-08-16 11:32:47.204815,-291.0
2023-08-16 11:32:47.212505,-294.0
2023-08-16 11:32:47.220194,-299.0
2023-08-16 11:32:47.227883,-299.0
2023-08-16 11:32:47.235573,-282.0
2023-08-16 11:32:47.243262,-265.0
2023-08-16 11:32:47.250951,-258.0
2023-08-16 11:32:47.258640,-248.0
2023-08-16 11:32:47.266330,-241.0
2023-08-16 11:32:47.274019,-236.0
2023-08-16 11:32:47.281708,-224.0
2023-08-16 11:32:47.289398,-205.0
2023-08-16 11:32:47.297087,-200.0
2023-08-16 11:32:47.304776,-205.0
2023-08-16 11:32:47.312465,-200.0
2023-08-16 11:32:47.320155,-180.0
2023-08-16 11:32:47.327844,-176.0
2023-08-16 11:32:47.335533,-183.0
2023-08-16 11:32:47.343223,-178.0
2023-08-16 11:32:47.350912,-178.0
2023-08-16 11:32:47.358601,-178.0
2023-08-16 11:32:47.366291,-168.0
2023-08-16 11:32:47.373980,-166.0
2023-08-16 11:32:47.381669,-168.0
2023-08-16 11:32:47.389358,-166.0
2023-08-16 11:32:47.397048,-168.0
2023-08-16 11:32:47.404737,-168.0
2023-08-16 11:32:47.412426,-161.0
2023-08-16 11:32:47.420116,-154.0
2023-08-16 11:32:47.427805,-156.0
2023-08-16 11:32:47.435494,-156.0
2023-08-16 11:32:47.443183,-152.0
2023-08-16 11:32:47.450873,-149.0
2023-08-16 11:32:47.458562,-147.0
2023-08-16 11:32:47.466251,-137.0
2023-08-16 11:32:47.473941,-135.0
2023-08-16 11:32:47.481630,-137.0
2023-08-16 11:32:47.489319,-132.0
2023-08-16 11:32:47.497008,-125.0
2023-08-16 11:32:47.504698,-130.0
2023-08-16 11:32:47.512387,-130.0
2023-08-16 11:32:47.520076,-130.0
2023-08-16 11:32:47.527766,-135.0
2023-08-16 11:32:47.535455,-137.0
2023-08-16 11:32:47.543144,-132.0
2023-08-16 11:32:47.550834,-127.0
2023-08-16 11:32:47.558523,-127.0
2023-08-16 11:32:47.566212,-125.0
2023-08-16 11:32:47.573901,-123.0
2023-08-16 11:32:47.581591,-123.0
2023-08-16 11:32:47.589280,-120.0
2023-08-16 11:32:47.596969,-115.0
2023-08-16 11:32:47.604659,-115.0
2023-08-16 11:32:47.612348,-113.0
2023-08-16 11:32:47.620037,-110.0
2023-08-16 11:32:47.627726,-110.0
2023-08-16 11:32:47.635416,-108.0
2023-08-16 11:32:47.643105,-108.0
2023-08-16 11:32:47.650794,-108.0
2023-08-16 11:32:47.658484,-106.0
2023-08-16 11:32:47.666173,-108.0
2023-08-16 11:32:47.673862,-115.0
2023-08-16 11:32:47.681551,-113.0
2023-08-16 11:32:47.689241,-94.0
2023-08-16 11:32:47.696930,-60.0
2023-08-16 11:32:47.704619,-38.0
2023-08-16 11:32:47.712309,-41.0
2023-08-16 11:32:47.719998,-48.0
2023-08-16 11:32:47.727687,-62.0
2023-08-16 11:32:47.735377,-91.0
2023-08-16 11:32:47.743066,-98.0
2023-08-16 11:32:47.750755,-86.0
2023-08-16 11:32:47.758444,-84.0
2023-08-16 11:32:47.766134,-84.0
2023-08-16 11:32:47.773823,-79.0
2023-08-16 11:32:47.781512,-79.0
2023-08-16 11:32:47.789202,-62.0
2023-08-16 11:32:47.796891,21.0
2023-08-16 11:32:47.804580,328.0
2023-08-16 11:32:47.812269,955.0
2023-08-16 11:32:47.819959,1397.0
2023-08-16 11:32:47.827648,957.0
2023-08-16 11:32:47.835337,-28.0
2023-08-16 11:32:47.843027,-528.0
2023-08-16 11:32:47.850716,-282.0
2023-08-16 11:32:47.858405,-53.0
2023-08-16 11:32:47.866094,-156.0
2023-08-16 11:32:47.873784,-183.0
2023-08-16 11:32:47.881473,-110.0
2023-08-16 11:32:47.889162,-115.0
2023-08-16 11:32:47.896852,-120.0
2023-08-16 11:32:47.904541,-84.0
2023-08-16 11:32:47.912230,-72.0
2023-08-16 11:32:47.919920,-67.0
2023-08-16 11:32:47.927609,-48.0
2023-08-16 11:32:47.935298,-28.0
2023-08-16 11:32:47.942987,-14.0
2023-08-16 11:32:47.950677,4.0
2023-08-16 11:32:47.958366,28.0
2023-08-16 11:32:47.966055,53.0
2023-08-16 11:32:47.973745,74.0
2023-08-16 11:32:47.981434,98.0
2023-08-16 11:32:47.989123,132.0
2023-08-16 11:32:47.996812,171.0
2023-08-16 11:32:48.004502,209.0
2023-08-16 11:32:48.012191,248.0
2023-08-16 11:32:48.019880,287.0
2023-08-16 11:32:48.027570,328.0
2023-08-16 11:32:48.035259,359.0
2023-08-16 11:32:48.042948,374.0
2023-08-16 11:32:48.050637,371.0
2023-08-16 11:32:48.058327,354.0
2023-08-16 11:32:48.066016,318.0
2023-08-16 11:32:48.073705,253.0
2023-08-16 11:32:48.081395,166.0
2023-08-16 11:32:48.089084,62.0
2023-08-16 11:32:48.096773,-41.0
2023-08-16 11:32:48.104463,-132.0
2023-08-16 11:32:48.112152,-197.0
2023-08-16 11:32:48.119841,-238.0
2023-08-16 11:32:48.127530,-265.0
2023-08-16 11:32:48.135220,-282.0
2023-08-16 11:32:48.142909,-289.0
2023-08-16 11:32:48.150598,-287.0
2023-08-16 11:32:48.158288,-277.0
2023-08-16 11:32:48.165977,-270.0
2023-08-16 11:32:48.173666,-263.0
2023-08-16 11:32:48.181355,-250.0
2023-08-16 11:32:48.189045,-238.0
2023-08-16 11:32:48.196734,-234.0
2023-08-16 11:32:48.204423,-226.0
2023-08-16 11:32:48.212113,-212.0
2023-08-16 11:32:48.219802,-202.0
2023-08-16 11:32:48.227491,-197.0
2023-08-16 11:32:48.235180,-188.0
2023-08-16 11:32:48.242870,-173.0
2023-08-16 11:32:48.250559,-171.0
2023-08-16 11:32:48.258248,-173.0
2023-08-16 11:32:48.265938,-168.0
2023-08-16 11:32:48.273627,-166.0
2023-08-16 11:32:48.281316,-164.0
2023-08-16 11:32:48.289006,-161.0
2023-08-16 11:32:48.296695,-164.0
2023-08-16 11:32:48.304384,-173.0
2023-08-16 11:32:48.312073,-173.0
2023-08-16 11:32:48.319763,-166.0
2023-08-16 11:32:48.327452,-166.0
2023-08-16 11:32:48.335141,-166.0
2023-08-16 11:32:48.342831,-164.0
2023-08-16 11:32:48.350520,-161.0
2023-08-16 11:32:48.358209,-159.0
2023-08-16 11:32:48.365898,-154.0
2023-08-16 11:32:48.373588,-152.0
2023-08-16 11:32:48.381277,-149.0
2023-08-16 11:32:48.388966,-147.0
2023-08-16 11:32:48.396656,-147.0
2023-08-16 11:32:48.404345,-147.0
2023-08-16 11:32:48.412034,-142.0
2023-08-16 11:32:48.419723,-142.0
2023-08-16 11:32:48.427413,-142.0
2023-08-16 11:32:48.435102,-139.0
2023-08-16 11:32:48.442791,-137.0
2023-08-16 11:32:48.450481,-135.0
2023-08-16 11:32:48.458170,-132.0
2023-08-16 11:32:48.465859,-130.0
2023-08-16 11:32:48.473549,-125.0
2023-08-16 11:32:48.481238,-123.0
2023-08-16 11:32:48.488927,-120.0
2023-08-16 11:32:48.496616,-118.0
2023-08-16 11:32:48.504306,-118.0
2023-08-16 11:32:48.511995,-120.0
2023-08-16 11:32:48.519684,-118.0
2023-08-16 11:32:48.527374,-115.0
2023-08-16 11:32:48.535063,-110.0
2023-08-16 11:32:48.542752,-108.0
2023-08-16 11:32:48.550441,-106.0
2023-08-16 11:32:48.558131,-106.0
2023-08-16 11:32:48.565820,-103.0
2023-08-16 11:32:48.573509,-101.0
2023-08-16 11:32:48.581199,-98.0
2023-08-16 11:32:48.588888,-96.0
2023-08-16 11:32:48.596577,-94.0
2023-08-16 11:32:48.604267,-94.0
2023-08-16 11:32:48.611956,-89.0
2023-08-16 11:32:48.619645,-89.0
2023-08-16 11:32:48.627334,-86.0
2023-08-16 11:32:48.635024,-82.0
2023-08-16 11:32:48.642713,-82.0
2023-08-16 11:32:48.650402,-89.0
2023-08-16 11:32:48.658092,-96.0
2023-08-16 11:32:48.665781,-98.0
2023-08-16 11:32:48.673470,-91.0
2023-08-16 11:32:48.681159,-62.0
2023-08-16 11:32:48.688849,-24.0
2023-08-16 11:32:48.696538,-9.0
2023-08-16 11:32:48.704227,-21.0
2023-08-16 11:32:48.711917,-31.0
2023-08-16 11:32:48.719606,-48.0
2023-08-16 11:32:48.727295,-77.0
2023-08-16 11:32:48.734984,-84.0
2023-08-16 11:32:48.742674,-74.0
2023-08-16 11:32:48.750363,-74.0
2023-08-16 11:32:48.758052,-74.0
2023-08-16 11:32:48.765742,-69.0
2023-08-16 11:32:48.773431,-62.0
2023-08-16 11:32:48.781120,-45.0
2023-08-16 11:32:48.788810,26.0
2023-08-16 11:32:48.796499,349.0
2023-08-16 11:32:48.804188,1047.0
2023-08-16 11:32:48.811877,1491.0
2023-08-16 11:32:48.819567,1006.0
2023-08-16 11:32:48.827256,43.0
2023-08-16 11:32:48.834945,-434.0
2023-08-16 11:32:48.842635,-234.0
2023-08-16 11:32:48.850324,-57.0
2023-08-16 11:32:48.858013,-176.0
2023-08-16 11:32:48.865702,-200.0
2023-08-16 11:32:48.873392,-130.0
2023-08-16 11:32:48.881081,-144.0
2023-08-16 11:32:48.888770,-161.0
2023-08-16 11:32:48.896460,-125.0
2023-08-16 11:32:48.904149,-103.0
2023-08-16 11:32:48.911838,-96.0
2023-08-16 11:32:48.919527,-74.0
2023-08-16 11:32:48.927217,-65.0
2023-08-16 11:32:48.934906,-62.0
2023-08-16 11:32:48.942595,-41.0
2023-08-16 11:32:48.950285,-12.0
2023-08-16 11:32:48.957974,12.0
2023-08-16 11:32:48.965663,36.0
2023-08-16 11:32:48.973353,60.0
2023-08-16 11:32:48.981042,79.0
2023-08-16 11:32:48.988731,113.0
2023-08-16 11:32:48.996420,152.0
2023-08-16 11:32:49.004110,190.0
2023-08-16 11:32:49.011799,234.0
2023-08-16 11:32:49.019488,267.0
2023-08-16 11:32:49.027178,291.0
2023-08-16 11:32:49.034867,313.0
2023-08-16 11:32:49.042556,323.0
2023-08-16 11:32:49.050245,311.0
2023-08-16 11:32:49.057935,277.0
2023-08-16 11:32:49.065624,224.0
2023-08-16 11:32:49.073313,147.0
2023-08-16 11:32:49.081003,55.0
2023-08-16 11:32:49.088692,-43.0
2023-08-16 11:32:49.096381,-127.0
2023-08-16 11:32:49.104070,-176.0
2023-08-16 11:32:49.111760,-217.0
2023-08-16 11:32:49.119449,-263.0
2023-08-16 11:32:49.127138,-289.0
2023-08-16 11:32:49.134828,-282.0
2023-08-16 11:32:49.142517,-265.0
2023-08-16 11:32:49.150206,-275.0
2023-08-16 11:32:49.157896,-287.0
2023-08-16 11:32:49.165585,-255.0
2023-08-16 11:32:49.173274,-224.0
2023-08-16 11:32:49.180963,-226.0
2023-08-16 11:32:49.188653,-224.0
2023-08-16 11:32:49.196342,-212.0
2023-08-16 11:32:49.204031,-209.0
2023-08-16 11:32:49.211721,-202.0
2023-08-16 11:32:49.219410,-188.0
2023-08-16 11:32:49.227099,-180.0
2023-08-16 11:32:49.234788,-176.0
2023-08-16 11:32:49.242478,-176.0
2023-08-16 11:32:49.250167,-176.0
2023-08-16 11:32:49.257856,-168.0
2023-08-16 11:32:49.265546,-156.0
2023-08-16 11:32:49.273235,-152.0
2023-08-16 11:32:49.280924,-152.0
2023-08-16 11:32:49.288613,-149.0
2023-08-16 11:32:49.296303,-149.0
2023-08-16 11:32:49.303992,-147.0
2023-08-16 11:32:49.311681,-142.0
2023-08-16 11:32:49.319371,-147.0
2023-08-16 11:32:49.327060,-147.0
2023-08-16 11:32:49.334749,-144.0
2023-08-16 11:32:49.342439,-147.0
2023-08-16 11:32:49.350128,-152.0
2023-08-16 11:32:49.357817,-142.0
2023-08-16 11:32:49.365506,-137.0
2023-08-16 11:32:49.373196,-139.0
2023-08-16 11:32:49.380885,-139.0
2023-08-16 11:32:49.388574,-137.0
2023-08-16 11:32:49.396264,-127.0
2023-08-16 11:32:49.403953,-127.0
2023-08-16 11:32:49.411642,-135.0
2023-08-16 11:32:49.419331,-135.0
2023-08-16 11:32:49.427021,-132.0
2023-08-16 11:32:49.434710,-135.0
2023-08-16 11:32:49.442399,-135.0
2023-08-16 11:32:49.450089,-127.0
2023-08-16 11:32:49.457778,-125.0
2023-08-16 11:32:49.465467,-125.0
2023-08-16 11:32:49.473156,-123.0
2023-08-16 11:32:49.480846,-120.0
2023-08-16 11:32:49.488535,-120.0
2023-08-16 11:32:49.496224,-115.0
2023-08-16 11:32:49.503914,-110.0
2023-08-16 11:32:49.511603,-108.0
2023-08-16 11:32:49.519292,-108.0
2023-08-16 11:32:49.526982,-106.0
2023-08-16 11:32:49.534671,-101.0
2023-08-16 11:32:49.542360,-98.0
2023-08-16 11:32:49.550049,-96.0
2023-08-16 11:32:49.557739,-96.0
2023-08-16 11:32:49.565428,-94.0
2023-08-16 11:32:49.573117,-91.0
2023-08-16 11:32:49.580807,-89.0
2023-08-16 11:32:49.588496,-84.0
2023-08-16 11:32:49.596185,-84.0
2023-08-16 11:32:49.603874,-84.0
2023-08-16 11:32:49.611564,-82.0
2023-08-16 11:32:49.619253,-79.0
2023-08-16 11:32:49.626942,-77.0
2023-08-16 11:32:49.634632,-74.0
2023-08-16 11:32:49.642321,-77.0
2023-08-16 11:32:49.650010,-82.0
2023-08-16 11:32:49.657699,-89.0
2023-08-16 11:32:49.665389,-89.0
2023-08-16 11:32:49.673078,-74.0
2023-08-16 11:32:49.680767,-43.0
2023-08-16 11:32:49.688457,-7.0
2023-08-16 11:32:49.696146,4.0
2023-08-16 11:32:49.703835,-9.0
2023-08-16 11:32:49.711525,-21.0
2023-08-16 11:32:49.719214,-38.0
2023-08-16 11:32:49.726903,-69.0
2023-08-16 11:32:49.734592,-79.0
2023-08-16 11:32:49.742282,-72.0
2023-08-16 11:32:49.749971,-72.0
2023-08-16 11:32:49.757660,-67.0
2023-08-16 11:32:49.765350,-60.0
2023-08-16 11:32:49.773039,-57.0
2023-08-16 11:32:49.780728,-43.0
2023-08-16 11:32:49.788417,38.0
2023-08-16 11:32:49.796107,381.0
2023-08-16 11:32:49.803796,1085.0
2023-08-16 11:32:49.811485,1512.0
2023-08-16 11:32:49.819175,989.0
2023-08-16 11:32:49.826864,0.0
2023-08-16 11:32:49.834553,-446.0
2023-08-16 11:32:49.842243,-202.0
2023-08-16 11:32:49.849932,-33.0
2023-08-16 11:32:49.857621,-164.0
2023-08-16 11:32:49.865310,-180.0
2023-08-16 11:32:49.873000,-110.0
2023-08-16 11:32:49.880689,-125.0
2023-08-16 11:32:49.888378,-130.0
2023-08-16 11:32:49.896068,-94.0
2023-08-16 11:32:49.903757,-82.0
2023-08-16 11:32:49.911446,-74.0
2023-08-16 11:32:49.919135,-53.0
2023-08-16 11:32:49.926825,-38.0
2023-08-16 11:32:49.934514,-21.0
2023-08-16 11:32:49.942203,-2.0
2023-08-16 11:32:49.949893,16.0
2023-08-16 11:32:49.957582,43.0
2023-08-16 11:32:49.965271,72.0
2023-08-16 11:32:49.972960,98.0
2023-08-16 11:32:49.980650,123.0
2023-08-16 11:32:49.988339,152.0
2023-08-16 11:32:49.996028,188.0
2023-08-16 11:32:50.003718,229.0
2023-08-16 11:32:50.011407,267.0
2023-08-16 11:32:50.019096,304.0
2023-08-16 11:32:50.026786,332.0
2023-08-16 11:32:50.034475,349.0
2023-08-16 11:32:50.042164,349.0
2023-08-16 11:32:50.049853,330.0
2023-08-16 11:32:50.057543,289.0
2023-08-16 11:32:50.065232,229.0
2023-08-16 11:32:50.072921,159.0
2023-08-16 11:32:50.080611,69.0
2023-08-16 11:32:50.088300,-31.0
2023-08-16 11:32:50.095989,-118.0
2023-08-16 11:32:50.103678,-188.0
2023-08-16 11:32:50.111368,-236.0
2023-08-16 11:32:50.119057,-267.0
2023-08-16 11:32:50.126746,-284.0
2023-08-16 11:32:50.134436,-287.0
2023-08-16 11:32:50.142125,-284.0
2023-08-16 11:32:50.149814,-279.0
2023-08-16 11:32:50.157503,-270.0
2023-08-16 11:32:50.165193,-265.0
2023-08-16 11:32:50.172882,-265.0
2023-08-16 11:32:50.180571,-255.0
2023-08-16 11:32:50.188261,-241.0
2023-08-16 11:32:50.195950,-229.0
2023-08-16 11:32:50.203639,-229.0
2023-08-16 11:32:50.211329,-224.0
2023-08-16 11:32:50.219018,-212.0
2023-08-16 11:32:50.226707,-205.0
2023-08-16 11:32:50.234396,-202.0
2023-08-16 11:32:50.242086,-197.0
2023-08-16 11:32:50.249775,-195.0
2023-08-16 11:32:50.257464,-190.0
2023-08-16 11:32:50.265154,-180.0
2023-08-16 11:32:50.272843,-178.0
2023-08-16 11:32:50.280532,-183.0
2023-08-16 11:32:50.288221,-178.0
2023-08-16 11:32:50.295911,-171.0
2023-08-16 11:32:50.303600,-173.0
2023-08-16 11:32:50.311289,-176.0
2023-08-16 11:32:50.318979,-173.0
2023-08-16 11:32:50.326668,-173.0
2023-08-16 11:32:50.334357,-178.0
2023-08-16 11:32:50.342046,-178.0
2023-08-16 11:32:50.349736,-168.0
2023-08-16 11:32:50.357425,-164.0
2023-08-16 11:32:50.365114,-168.0
2023-08-16 11:32:50.372804,-171.0
2023-08-16 11:32:50.380493,-164.0
2023-08-16 11:32:50.388182,-154.0
2023-08-16 11:32:50.395872,-154.0
2023-08-16 11:32:50.403561,-152.0
2023-08-16 11:32:50.411250,-152.0
2023-08-16 11:32:50.418939,-149.0
2023-08-16 11:32:50.426629,-144.0
2023-08-16 11:32:50.434318,-144.0
2023-08-16 11:32:50.442007,-144.0
2023-08-16 11:32:50.449697,-137.0
2023-08-16 11:32:50.457386,-137.0
2023-08-16 11:32:50.465075,-137.0
2023-08-16 11:32:50.472764,-137.0
2023-08-16 11:32:50.480454,-135.0
2023-08-16 11:32:50.488143,-130.0
2023-08-16 11:32:50.495832,-127.0
2023-08-16 11:32:50.503522,-130.0
2023-08-16 11:32:50.511211,-127.0
2023-08-16 11:32:50.518900,-120.0
2023-08-16 11:32:50.526589,-123.0
2023-08-16 11:32:50.534279,-130.0
2023-08-16 11:32:50.541968,-123.0
2023-08-16 11:32:50.549657,-120.0
2023-08-16 11:32:50.557347,-132.0
2023-08-16 11:32:50.565036,-132.0
2023-08-16 11:32:50.572725,-125.0
2023-08-16 11:32:50.580415,-127.0
2023-08-16 11:32:50.588104,-123.0
2023-08-16 11:32:50.595793,-115.0
2023-08-16 11:32:50.603482,-125.0
2023-08-16 11:32:50.611172,-130.0
2023-08-16 11:32:50.618861,-125.0
2023-08-16 11:32:50.626550,-118.0
2023-08-16 11:32:50.634240,-96.0
2023-08-16 11:32:50.641929,-62.0
2023-08-16 11:32:50.649618,-45.0
2023-08-16 11:32:50.657307,-43.0
2023-08-16 11:32:50.664997,-38.0
2023-08-16 11:32:50.672686,-57.0
2023-08-16 11:32:50.680375,-103.0
2023-08-16 11:32:50.688065,-115.0
2023-08-16 11:32:50.695754,-96.0
2023-08-16 11:32:50.703443,-91.0
2023-08-16 11:32:50.711132,-94.0
2023-08-16 11:32:50.718822,-91.0
2023-08-16 11:32:50.726511,-94.0
2023-08-16 11:32:50.734200,-82.0
2023-08-16 11:32:50.741890,16.0
2023-08-16 11:32:50.749579,383.0
2023-08-16 11:32:50.757268,1076.0
2023-08-16 11:32:50.764958,1454.0
2023-08-16 11:32:50.772647,892.0
2023-08-16 11:32:50.780336,-96.0
2023-08-16 11:32:50.788025,-509.0
2023-08-16 11:32:50.795715,-241.0
2023-08-16 11:32:50.803404,-65.0
2023-08-16 11:32:50.811093,-180.0
2023-08-16 11:32:50.818783,-195.0
2023-08-16 11:32:50.826472,-132.0
2023-08-16 11:32:50.834161,-142.0
2023-08-16 11:32:50.841850,-139.0
2023-08-16 11:32:50.849540,-103.0
2023-08-16 11:32:50.857229,-96.0
2023-08-16 11:32:50.864918,-91.0
2023-08-16 11:32:50.872608,-67.0
2023-08-16 11:32:50.880297,-48.0
2023-08-16 11:32:50.887986,-28.0
2023-08-16 11:32:50.895675,-4.0
2023-08-16 11:32:50.903365,9.0
2023-08-16 11:32:50.911054,24.0
2023-08-16 11:32:50.918743,53.0
2023-08-16 11:32:50.926433,89.0
2023-08-16 11:32:50.934122,120.0
2023-08-16 11:32:50.941811,156.0
2023-08-16 11:32:50.949501,202.0
2023-08-16 11:32:50.957190,236.0
2023-08-16 11:32:50.964879,267.0
2023-08-16 11:32:50.972568,311.0
2023-08-16 11:32:50.980258,347.0
2023-08-16 11:32:50.987947,364.0
2023-08-16 11:32:50.995636,361.0
2023-08-16 11:32:51.003326,345.0
2023-08-16 11:32:51.011015,311.0
2023-08-16 11:32:51.018704,250.0
2023-08-16 11:32:51.026393,159.0
2023-08-16 11:32:51.034083,50.0
2023-08-16 11:32:51.041772,-55.0
2023-08-16 11:32:51.049461,-147.0
2023-08-16 11:32:51.057151,-217.0
2023-08-16 11:32:51.064840,-258.0
2023-08-16 11:32:51.072529,-282.0
2023-08-16 11:32:51.080218,-301.0
2023-08-16 11:32:51.087908,-306.0
2023-08-16 11:32:51.095597,-311.0
2023-08-16 11:32:51.103286,-313.0
2023-08-16 11:32:51.110976,-299.0
2023-08-16 11:32:51.118665,-277.0
2023-08-16 11:32:51.126354,-267.0
2023-08-16 11:32:51.134044,-265.0
2023-08-16 11:32:51.141733,-263.0
2023-08-16 11:32:51.149422,-255.0
2023-08-16 11:32:51.157111,-238.0
2023-08-16 11:32:51.164801,-224.0
2023-08-16 11:32:51.172490,-217.0
2023-08-16 11:32:51.180179,-214.0
2023-08-16 11:32:51.187869,-207.0
2023-08-16 11:32:51.195558,-195.0
2023-08-16 11:32:51.203247,-188.0
2023-08-16 11:32:51.210936,-197.0
2023-08-16 11:32:51.218626,-205.0
2023-08-16 11:32:51.226315,-197.0
2023-08-16 11:32:51.234004,-190.0
2023-08-16 11:32:51.241694,-190.0
2023-08-16 11:32:51.249383,-190.0
2023-08-16 11:32:51.257072,-188.0
2023-08-16 11:32:51.264762,-185.0
2023-08-16 11:32:51.272451,-183.0
2023-08-16 11:32:51.280140,-178.0
2023-08-16 11:32:51.287829,-178.0
2023-08-16 11:32:51.295519,-178.0
2023-08-16 11:32:51.303208,-173.0
2023-08-16 11:32:51.310897,-168.0
2023-08-16 11:32:51.318587,-171.0
2023-08-16 11:32:51.326276,-164.0
2023-08-16 11:32:51.333965,-164.0
2023-08-16 11:32:51.341654,-171.0
2023-08-16 11:32:51.349344,-168.0
2023-08-16 11:32:51.357033,-164.0
2023-08-16 11:32:51.364722,-166.0
2023-08-16 11:32:51.372412,-168.0
2023-08-16 11:32:51.380101,-164.0
2023-08-16 11:32:51.387790,-166.0
2023-08-16 11:32:51.395479,-166.0
2023-08-16 11:32:51.403169,-152.0
2023-08-16 11:32:51.410858,-149.0
2023-08-16 11:32:51.418547,-152.0
2023-08-16 11:32:51.426237,-147.0
2023-08-16 11:32:51.433926,-144.0
2023-08-16 11:32:51.441615,-139.0
2023-08-16 11:32:51.449305,-149.0
2023-08-16 11:32:51.456994,-156.0
2023-08-16 11:32:51.464683,-142.0
2023-08-16 11:32:51.472372,-144.0
2023-08-16 11:32:51.480062,-147.0
2023-08-16 11:32:51.487751,-106.0
2023-08-16 11:32:51.495440,-69.0
2023-08-16 11:32:51.503130,-60.0
2023-08-16 11:32:51.510819,-62.0
2023-08-16 11:32:51.518508,-72.0
2023-08-16 11:32:51.526197,-101.0
2023-08-16 11:32:51.533887,-123.0
2023-08-16 11:32:51.541576,-113.0
2023-08-16 11:32:51.549265,-110.0
2023-08-16 11:32:51.556955,-115.0
2023-08-16 11:32:51.564644,-106.0
2023-08-16 11:32:51.572333,-98.0
2023-08-16 11:32:51.580022,-101.0
2023-08-16 11:32:51.587712,-79.0
2023-08-16 11:32:51.595401,14.0
2023-08-16 11:32:51.603090,359.0
2023-08-16 11:32:51.610780,1020.0
2023-08-16 11:32:51.618469,1385.0
2023-08-16 11:32:51.626158,837.0
2023-08-16 11:32:51.633848,-135.0
2023-08-16 11:32:51.641537,-535.0
2023-08-16 11:32:51.649226,-253.0
2023-08-16 11:32:51.656915,-62.0
2023-08-16 11:32:51.664605,-178.0
2023-08-16 11:32:51.672294,-195.0
2023-08-16 11:32:51.679983,-135.0
2023-08-16 11:32:51.687673,-144.0
2023-08-16 11:32:51.695362,-144.0
2023-08-16 11:32:51.703051,-118.0
2023-08-16 11:32:51.710740,-110.0
2023-08-16 11:32:51.718430,-108.0
2023-08-16 11:32:51.726119,-91.0
2023-08-16 11:32:51.733808,-60.0
2023-08-16 11:32:51.741498,-41.0
2023-08-16 11:32:51.749187,-31.0
2023-08-16 11:32:51.756876,-9.0
2023-08-16 11:32:51.764565,19.0
2023-08-16 11:32:51.772255,45.0
2023-08-16 11:32:51.779944,72.0
2023-08-16 11:32:51.787633,106.0
2023-08-16 11:32:51.795323,152.0
2023-08-16 11:32:51.803012,190.0
2023-08-16 11:32:51.810701,226.0
2023-08-16 11:32:51.818391,275.0
2023-08-16 11:32:51.826080,325.0
2023-08-16 11:32:51.833769,357.0
2023-08-16 11:32:51.841458,366.0
2023-08-16 11:32:51.849148,364.0
2023-08-16 11:32:51.856837,342.0
2023-08-16 11:32:51.864526,299.0
2023-08-16 11:32:51.872216,229.0
2023-08-16 11:32:51.879905,135.0
2023-08-16 11:32:51.887594,24.0
2023-08-16 11:32:51.895283,-84.0
2023-08-16 11:32:51.902973,-166.0
2023-08-16 11:32:51.910662,-226.0
2023-08-16 11:32:51.918351,-270.0
2023-08-16 11:32:51.926041,-291.0
2023-08-16 11:32:51.933730,-301.0
2023-08-16 11:32:51.941419,-306.0
2023-08-16 11:32:51.949108,-306.0
2023-08-16 11:32:51.956798,-301.0
2023-08-16 11:32:51.964487,-291.0
2023-08-16 11:32:51.972176,-279.0
2023-08-16 11:32:51.979866,-270.0
2023-08-16 11:32:51.987555,-260.0
2023-08-16 11:32:51.995244,-246.0
2023-08-16 11:32:52.002934,-231.0
2023-08-16 11:32:52.010623,-221.0
2023-08-16 11:32:52.018312,-209.0
2023-08-16 11:32:52.026001,-197.0
2023-08-16 11:32:52.033691,-190.0
2023-08-16 11:32:52.041380,-185.0
2023-08-16 11:32:52.049069,-176.0
2023-08-16 11:32:52.056759,-168.0
2023-08-16 11:32:52.064448,-166.0
2023-08-16 11:32:52.072137,-164.0
2023-08-16 11:32:52.079826,-159.0
2023-08-16 11:32:52.087516,-159.0
2023-08-16 11:32:52.095205,-156.0
2023-08-16 11:32:52.102894,-156.0
2023-08-16 11:32:52.110584,-156.0
2023-08-16 11:32:52.118273,-154.0
2023-08-16 11:32:52.125962,-152.0
2023-08-16 11:32:52.133651,-152.0
2023-08-16 11:32:52.141341,-149.0
2023-08-16 11:32:52.149030,-152.0
2023-08-16 11:32:52.156719,-152.0
2023-08-16 11:32:52.164409,-149.0
2023-08-16 11:32:52.172098,-147.0
2023-08-16 11:32:52.179787,-147.0
2023-08-16 11:32:52.187477,-142.0
2023-08-16 11:32:52.195166,-139.0
2023-08-16 11:32:52.202855,-142.0
2023-08-16 11:32:52.210544,-144.0
2023-08-16 11:32:52.218234,-144.0
2023-08-16 11:32:52.225923,-147.0
2023-08-16 11:32:52.233612,-142.0
2023-08-16 11:32:52.241302,-135.0
2023-08-16 11:32:52.248991,-132.0
2023-08-16 11:32:52.256680,-137.0
2023-08-16 11:32:52.264369,-144.0
2023-08-16 11:32:52.272059,-149.0
2023-08-16 11:32:52.279748,-142.0
2023-08-16 11:32:52.287437,-139.0
2023-08-16 11:32:52.295127,-142.0
2023-08-16 11:32:52.302816,-142.0
2023-08-16 11:32:52.310505,-137.0
2023-08-16 11:32:52.318194,-137.0
2023-08-16 11:32:52.325884,-135.0
2023-08-16 11:32:52.333573,-132.0
2023-08-16 11:32:52.341262,-135.0
2023-08-16 11:32:52.348952,-139.0
2023-08-16 11:32:52.356641,-142.0
2023-08-16 11:32:52.364330,-137.0
2023-08-16 11:32:52.372020,-118.0
2023-08-16 11:32:52.379709,-84.0
2023-08-16 11:32:52.387398,-53.0
2023-08-16 11:32:52.395087,-50.0
2023-08-16 11:32:52.402777,-57.0
2023-08-16 11:32:52.410466,-65.0
2023-08-16 11:32:52.418155,-86.0
2023-08-16 11:32:52.425845,-113.0
2023-08-16 11:32:52.433534,-113.0
2023-08-16 11:32:52.441223,-108.0
2023-08-16 11:32:52.448912,-108.0
2023-08-16 11:32:52.456602,-106.0
2023-08-16 11:32:52.464291,-98.0
2023-08-16 11:32:52.471980,-94.0
2023-08-16 11:32:52.479670,-69.0
2023-08-16 11:32:52.487359,38.0
2023-08-16 11:32:52.495048,460.0
2023-08-16 11:32:52.502737,1189.0
2023-08-16 11:32:52.510427,1442.0
2023-08-16 11:32:52.518116,740.0
2023-08-16 11:32:52.525805,-188.0
2023-08-16 11:32:52.533495,-468.0
2023-08-16 11:32:52.541184,-180.0
2023-08-16 11:32:52.548873,-77.0
2023-08-16 11:32:52.556563,-212.0
2023-08-16 11:32:52.564252,-193.0
2023-08-16 11:32:52.571941,-127.0
2023-08-16 11:32:52.579630,-152.0
2023-08-16 11:32:52.587320,-144.0
2023-08-16 11:32:52.595009,-103.0
2023-08-16 11:32:52.602698,-94.0
2023-08-16 11:32:52.610388,-86.0
2023-08-16 11:32:52.618077,-65.0
2023-08-16 11:32:52.625766,-50.0
2023-08-16 11:32:52.633455,-36.0
2023-08-16 11:32:52.641145,-14.0
2023-08-16 11:32:52.648834,7.0
2023-08-16 11:32:52.656523,31.0
2023-08-16 11:32:52.664213,55.0
2023-08-16 11:32:52.671902,84.0
2023-08-16 11:32:52.679591,120.0
2023-08-16 11:32:52.687281,154.0
2023-08-16 11:32:52.694970,188.0
2023-08-16 11:32:52.702659,229.0
2023-08-16 11:32:52.710348,270.0
2023-08-16 11:32:52.718038,306.0
2023-08-16 11:32:52.725727,332.0
2023-08-16 11:32:52.733416,340.0
2023-08-16 11:32:52.741106,332.0
2023-08-16 11:32:52.748795,313.0
2023-08-16 11:32:52.756484,267.0
2023-08-16 11:32:52.764173,195.0
2023-08-16 11:32:52.771863,113.0
2023-08-16 11:32:52.779552,16.0
2023-08-16 11:32:52.787241,-82.0
2023-08-16 11:32:52.794931,-161.0
2023-08-16 11:32:52.802620,-219.0
2023-08-16 11:32:52.810309,-260.0
2023-08-16 11:32:52.817998,-284.0
2023-08-16 11:32:52.825688,-294.0
2023-08-16 11:32:52.833377,-294.0
2023-08-16 11:32:52.841066,-291.0
2023-08-16 11:32:52.848756,-284.0
2023-08-16 11:32:52.856445,-272.0
2023-08-16 11:32:52.864134,-263.0
2023-08-16 11:32:52.871824,-253.0
2023-08-16 11:32:52.879513,-238.0
2023-08-16 11:32:52.887202,-231.0
2023-08-16 11:32:52.894891,-224.0
2023-08-16 11:32:52.902581,-209.0
2023-08-16 11:32:52.910270,-197.0
2023-08-16 11:32:52.917959,-190.0
2023-08-16 11:32:52.925649,-183.0
2023-08-16 11:32:52.933338,-180.0
2023-08-16 11:32:52.941027,-180.0
2023-08-16 11:32:52.948716,-176.0
2023-08-16 11:32:52.956406,-168.0
2023-08-16 11:32:52.964095,-166.0
2023-08-16 11:32:52.971784,-161.0
2023-08-16 11:32:52.979474,-161.0
2023-08-16 11:32:52.987163,-159.0
2023-08-16 11:32:52.994852,-156.0
2023-08-16 11:32:53.002541,-154.0
2023-08-16 11:32:53.010231,-154.0
2023-08-16 11:32:53.017920,-152.0
2023-08-16 11:32:53.025609,-152.0
2023-08-16 11:32:53.033299,-149.0
2023-08-16 11:32:53.040988,-147.0
2023-08-16 11:32:53.048677,-142.0
2023-08-16 11:32:53.056367,-137.0
2023-08-16 11:32:53.064056,-137.0
2023-08-16 11:32:53.071745,-137.0
2023-08-16 11:32:53.079434,-135.0
2023-08-16 11:32:53.087124,-132.0
2023-08-16 11:32:53.094813,-130.0
2023-08-16 11:32:53.102502,-123.0
2023-08-16 11:32:53.110192,-120.0
2023-08-16 11:32:53.117881,-120.0
2023-08-16 11:32:53.125570,-120.0
2023-08-16 11:32:53.133259,-118.0
2023-08-16 11:32:53.140949,-120.0
2023-08-16 11:32:53.148638,-115.0
2023-08-16 11:32:53.156327,-113.0
2023-08-16 11:32:53.164017,-113.0
2023-08-16 11:32:53.171706,-113.0
2023-08-16 11:32:53.179395,-110.0
2023-08-16 11:32:53.187084,-113.0
2023-08-16 11:32:53.194774,-113.0
2023-08-16 11:32:53.202463,-108.0
2023-08-16 11:32:53.210152,-108.0
2023-08-16 11:32:53.217842,-108.0
2023-08-16 11:32:53.225531,-106.0
2023-08-16 11:32:53.233220,-108.0
2023-08-16 11:32:53.240910,-110.0
2023-08-16 11:32:53.248599,-108.0
2023-08-16 11:32:53.256288,-108.0
2023-08-16 11:32:53.263977,-108.0
2023-08-16 11:32:53.271667,-106.0
2023-08-16 11:32:53.279356,-103.0
2023-08-16 11:32:53.287045,-108.0
2023-08-16 11:32:53.294735,-115.0
2023-08-16 11:32:53.302424,-118.0
2023-08-16 11:32:53.310113,-115.0
2023-08-16 11:32:53.317802,-98.0
2023-08-16 11:32:53.325492,-60.0
2023-08-16 11:32:53.333181,-28.0
2023-08-16 11:32:53.340870,-31.0
2023-08-16 11:32:53.348560,-43.0
2023-08-16 11:32:53.356249,-48.0
2023-08-16 11:32:53.363938,-74.0
2023-08-16 11:32:53.371627,-101.0
2023-08-16 11:32:53.379317,-101.0
2023-08-16 11:32:53.387006,-103.0
2023-08-16 11:32:53.394695,-106.0
2023-08-16 11:32:53.402385,-96.0
2023-08-16 11:32:53.410074,-91.0
2023-08-16 11:32:53.417763,-91.0
2023-08-16 11:32:53.425453,-67.0
2023-08-16 11:32:53.433142,62.0
2023-08-16 11:32:53.440831,526.0
2023-08-16 11:32:53.448520,1261.0
2023-08-16 11:32:53.456210,1452.0
2023-08-16 11:32:53.463899,692.0
2023-08-16 11:32:53.471588,-219.0
2023-08-16 11:32:53.479278,-446.0
2023-08-16 11:32:53.486967,-159.0
2023-08-16 11:32:53.494656,-86.0
2023-08-16 11:32:53.502345,-219.0
2023-08-16 11:32:53.510035,-193.0
2023-08-16 11:32:53.517724,-135.0
2023-08-16 11:32:53.525413,-154.0
2023-08-16 11:32:53.533103,-147.0
2023-08-16 11:32:53.540792,-115.0
2023-08-16 11:32:53.548481,-103.0
2023-08-16 11:32:53.556170,-89.0
2023-08-16 11:32:53.563860,-69.0
2023-08-16 11:32:53.571549,-53.0
2023-08-16 11:32:53.579238,-36.0
2023-08-16 11:32:53.586928,-14.0
2023-08-16 11:32:53.594617,7.0
2023-08-16 11:32:53.602306,28.0
2023-08-16 11:32:53.609996,60.0
2023-08-16 11:32:53.617685,89.0
2023-08-16 11:32:53.625374,118.0
2023-08-16 11:32:53.633063,149.0
2023-08-16 11:32:53.640753,195.0
2023-08-16 11:32:53.648442,238.0
2023-08-16 11:32:53.656131,275.0
2023-08-16 11:32:53.663821,311.0
2023-08-16 11:32:53.671510,337.0
2023-08-16 11:32:53.679199,347.0
2023-08-16 11:32:53.686888,345.0
2023-08-16 11:32:53.694578,328.0
2023-08-16 11:32:53.702267,287.0
2023-08-16 11:32:53.709956,219.0
2023-08-16 11:32:53.717646,137.0
2023-08-16 11:32:53.725335,38.0
2023-08-16 11:32:53.733024,-67.0
2023-08-16 11:32:53.740713,-154.0
2023-08-16 11:32:53.748403,-207.0
2023-08-16 11:32:53.756092,-241.0
2023-08-16 11:32:53.763781,-270.0
2023-08-16 11:32:53.771471,-294.0
2023-08-16 11:32:53.779160,-299.0
2023-08-16 11:32:53.786849,-294.0
2023-08-16 11:32:53.794539,-284.0
2023-08-16 11:32:53.802228,-275.0
2023-08-16 11:32:53.809917,-265.0
2023-08-16 11:32:53.817606,-258.0
2023-08-16 11:32:53.825296,-250.0
2023-08-16 11:32:53.832985,-234.0
2023-08-16 11:32:53.840674,-221.0
2023-08-16 11:32:53.848364,-214.0
2023-08-16 11:32:53.856053,-207.0
2023-08-16 11:32:53.863742,-202.0
2023-08-16 11:32:53.871431,-195.0
2023-08-16 11:32:53.879121,-185.0
2023-08-16 11:32:53.886810,-180.0
2023-08-16 11:32:53.894499,-178.0
2023-08-16 11:32:53.902189,-173.0
2023-08-16 11:32:53.909878,-168.0
2023-08-16 11:32:53.917567,-173.0
2023-08-16 11:32:53.925256,-185.0
2023-08-16 11:32:53.932946,-190.0
2023-08-16 11:32:53.940635,-183.0
2023-08-16 11:32:53.948324,-176.0
2023-08-16 11:32:53.956014,-173.0
2023-08-16 11:32:53.963703,-168.0
2023-08-16 11:32:53.971392,-168.0
2023-08-16 11:32:53.979082,-168.0
2023-08-16 11:32:53.986771,-164.0
2023-08-16 11:32:53.994460,-159.0
2023-08-16 11:32:54.002149,-156.0
2023-08-16 11:32:54.009839,-156.0
2023-08-16 11:32:54.017528,-164.0
2023-08-16 11:32:54.025217,-161.0
2023-08-16 11:32:54.032907,-154.0
2023-08-16 11:32:54.040596,-154.0
2023-08-16 11:32:54.048285,-154.0
2023-08-16 11:32:54.055974,-144.0
2023-08-16 11:32:54.063664,-139.0
2023-08-16 11:32:54.071353,-139.0
2023-08-16 11:32:54.079042,-139.0
2023-08-16 11:32:54.086732,-135.0
2023-08-16 11:32:54.094421,-132.0
2023-08-16 11:32:54.102110,-127.0
2023-08-16 11:32:54.109800,-123.0
2023-08-16 11:32:54.117489,-123.0
2023-08-16 11:32:54.125178,-118.0
2023-08-16 11:32:54.132867,-115.0
2023-08-16 11:32:54.140557,-120.0
2023-08-16 11:32:54.148246,-120.0
2023-08-16 11:32:54.155935,-115.0
2023-08-16 11:32:54.163625,-115.0
2023-08-16 11:32:54.171314,-120.0
2023-08-16 11:32:54.179003,-123.0
2023-08-16 11:32:54.186692,-115.0
2023-08-16 11:32:54.194382,-115.0
2023-08-16 11:32:54.202071,-120.0
2023-08-16 11:32:54.209760,-110.0
2023-08-16 11:32:54.217450,-101.0
2023-08-16 11:32:54.225139,-106.0
2023-08-16 11:32:54.232828,-118.0
2023-08-16 11:32:54.240517,-123.0
2023-08-16 11:32:54.248207,-118.0
2023-08-16 11:32:54.255896,-110.0
2023-08-16 11:32:54.263585,-91.0
2023-08-16 11:32:54.271275,-60.0
2023-08-16 11:32:54.278964,-38.0
2023-08-16 11:32:54.286653,-43.0
2023-08-16 11:32:54.294343,-57.0
2023-08-16 11:32:54.302032,-86.0
2023-08-16 11:32:54.309721,-118.0
2023-08-16 11:32:54.317410,-120.0
2023-08-16 11:32:54.325100,-106.0
2023-08-16 11:32:54.332789,-98.0
2023-08-16 11:32:54.340478,-94.0
2023-08-16 11:32:54.348168,-98.0
2023-08-16 11:32:54.355857,-98.0
2023-08-16 11:32:54.363546,-77.0
2023-08-16 11:32:54.371235,9.0
2023-08-16 11:32:54.378925,354.0
2023-08-16 11:32:54.386614,1054.0
2023-08-16 11:32:54.394303,1474.0
2023-08-16 11:32:54.401993,933.0
2023-08-16 11:32:54.409682,-72.0
2023-08-16 11:32:54.417371,-526.0
2023-08-16 11:32:54.425060,-270.0
2023-08-16 11:32:54.432750,-74.0
2023-08-16 11:32:54.440439,-193.0
2023-08-16 11:32:54.448128,-214.0
2023-08-16 11:32:54.455818,-139.0
2023-08-16 11:32:54.463507,-149.0
2023-08-16 11:32:54.471196,-168.0
2023-08-16 11:32:54.478886,-137.0
2023-08-16 11:32:54.486575,-115.0
2023-08-16 11:32:54.494264,-108.0
2023-08-16 11:32:54.501953,-84.0
2023-08-16 11:32:54.509643,-62.0
2023-08-16 11:32:54.517332,-57.0
2023-08-16 11:32:54.525021,-41.0
2023-08-16 11:32:54.532711,-7.0
2023-08-16 11:32:54.540400,14.0
2023-08-16 11:32:54.548089,36.0
2023-08-16 11:32:54.555778,69.0
2023-08-16 11:32:54.563468,106.0
2023-08-16 11:32:54.571157,139.0
2023-08-16 11:32:54.578846,180.0
2023-08-16 11:32:54.586536,226.0
2023-08-16 11:32:54.594225,267.0
2023-08-16 11:32:54.601914,304.0
2023-08-16 11:32:54.609603,335.0
2023-08-16 11:32:54.617293,357.0
2023-08-16 11:32:54.624982,361.0
2023-08-16 11:32:54.632671,345.0
2023-08-16 11:32:54.640361,311.0
2023-08-16 11:32:54.648050,248.0
2023-08-16 11:32:54.655739,156.0
2023-08-16 11:32:54.663429,55.0
2023-08-16 11:32:54.671118,-50.0
2023-08-16 11:32:54.678807,-152.0
2023-08-16 11:32:54.686496,-214.0
2023-08-16 11:32:54.694186,-258.0
2023-08-16 11:32:54.701875,-294.0
2023-08-16 11:32:54.709564,-306.0
2023-08-16 11:32:54.717254,-304.0
2023-08-16 11:32:54.724943,-304.0
2023-08-16 11:32:54.732632,-308.0
2023-08-16 11:32:54.740321,-301.0
2023-08-16 11:32:54.748011,-284.0
2023-08-16 11:32:54.755700,-267.0
2023-08-16 11:32:54.763389,-255.0
2023-08-16 11:32:54.771079,-246.0
2023-08-16 11:32:54.778768,-238.0
2023-08-16 11:32:54.786457,-229.0
2023-08-16 11:32:54.794146,-217.0
2023-08-16 11:32:54.801836,-209.0
2023-08-16 11:32:54.809525,-205.0
2023-08-16 11:32:54.817214,-190.0
2023-08-16 11:32:54.824904,-176.0
2023-08-16 11:32:54.832593,-176.0
2023-08-16 11:32:54.840282,-173.0
2023-08-16 11:32:54.847972,-168.0
2023-08-16 11:32:54.855661,-171.0
2023-08-16 11:32:54.863350,-166.0
2023-08-16 11:32:54.871039,-154.0
2023-08-16 11:32:54.878729,-154.0
2023-08-16 11:32:54.886418,-166.0
2023-08-16 11:32:54.894107,-159.0
2023-08-16 11:32:54.901797,-139.0
2023-08-16 11:32:54.909486,-144.0
2023-08-16 11:32:54.917175,-154.0
2023-08-16 11:32:54.924864,-147.0
2023-08-16 11:32:54.932554,-144.0
2023-08-16 11:32:54.940243,-137.0
2023-08-16 11:32:54.947932,-127.0
2023-08-16 11:32:54.955622,-135.0
2023-08-16 11:32:54.963311,-130.0
2023-08-16 11:32:54.971000,-118.0
2023-08-16 11:32:54.978689,-120.0
2023-08-16 11:32:54.986379,-125.0
2023-08-16 11:32:54.994068,-118.0
2023-08-16 11:32:55.001757,-115.0
2023-08-16 11:32:55.009447,-118.0
2023-08-16 11:32:55.017136,-115.0
2023-08-16 11:32:55.024825,-110.0
2023-08-16 11:32:55.032515,-101.0
2023-08-16 11:32:55.040204,-94.0
2023-08-16 11:32:55.047893,-106.0
2023-08-16 11:32:55.055582,-123.0
2023-08-16 11:32:55.063272,-110.0
2023-08-16 11:32:55.070961,-101.0
2023-08-16 11:32:55.078650,-106.0
2023-08-16 11:32:55.086340,-106.0
2023-08-16 11:32:55.094029,-110.0
2023-08-16 11:32:55.101718,-123.0
2023-08-16 11:32:55.109407,-123.0
2023-08-16 11:32:55.117097,-125.0
2023-08-16 11:32:55.124786,-127.0
2023-08-16 11:32:55.132475,-103.0
2023-08-16 11:32:55.140165,-67.0
2023-08-16 11:32:55.147854,-43.0
2023-08-16 11:32:55.155543,-43.0
2023-08-16 11:32:55.163232,-50.0
2023-08-16 11:32:55.170922,-67.0
2023-08-16 11:32:55.178611,-94.0
2023-08-16 11:32:55.186300,-106.0
2023-08-16 11:32:55.193990,-96.0
2023-08-16 11:32:55.201679,-94.0
2023-08-16 11:32:55.209368,-98.0
2023-08-16 11:32:55.217058,-89.0
2023-08-16 11:32:55.224747,-79.0
2023-08-16 11:32:55.232436,-69.0
2023-08-16 11:32:55.240125,-14.0
2023-08-16 11:32:55.247815,236.0
2023-08-16 11:32:55.255504,803.0
2023-08-16 11:32:55.263193,1298.0
2023-08-16 11:32:55.270883,1018.0
2023-08-16 11:32:55.278572,79.0
2023-08-16 11:32:55.286261,-528.0
2023-08-16 11:32:55.293950,-364.0
2023-08-16 11:32:55.301640,-82.0
2023-08-16 11:32:55.309329,-142.0
2023-08-16 11:32:55.317018,-193.0
2023-08-16 11:32:55.324708,-118.0
2023-08-16 11:32:55.332397,-115.0
2023-08-16 11:32:55.340086,-125.0
2023-08-16 11:32:55.347776,-91.0
2023-08-16 11:32:55.355465,-65.0
2023-08-16 11:32:55.363154,-53.0
2023-08-16 11:32:55.370843,-45.0
2023-08-16 11:32:55.378533,-31.0
2023-08-16 11:32:55.386222,-4.0
2023-08-16 11:32:55.393911,24.0
2023-08-16 11:32:55.401601,36.0
2023-08-16 11:32:55.409290,48.0
2023-08-16 11:32:55.416979,82.0
2023-08-16 11:32:55.424668,113.0
2023-08-16 11:32:55.432358,144.0
2023-08-16 11:32:55.440047,188.0
2023-08-16 11:32:55.447736,236.0
2023-08-16 11:32:55.455426,277.0
2023-08-16 11:32:55.463115,325.0
2023-08-16 11:32:55.470804,383.0
2023-08-16 11:32:55.478493,427.0
2023-08-16 11:32:55.486183,443.0
2023-08-16 11:32:55.493872,448.0
2023-08-16 11:32:55.501561,436.0
2023-08-16 11:32:55.509251,390.0
2023-08-16 11:32:55.516940,318.0
2023-08-16 11:32:55.524629,226.0
2023-08-16 11:32:55.532319,106.0
2023-08-16 11:32:55.540008,-28.0
2023-08-16 11:32:55.547697,-142.0
2023-08-16 11:32:55.555386,-207.0
2023-08-16 11:32:55.563076,-260.0
2023-08-16 11:32:55.570765,-296.0
2023-08-16 11:32:55.578454,-301.0
2023-08-16 11:32:55.586144,-311.0
2023-08-16 11:32:55.593833,-325.0
2023-08-16 11:32:55.601522,-318.0
2023-08-16 11:32:55.609211,-304.0
2023-08-16 11:32:55.616901,-299.0
2023-08-16 11:32:55.624590,-287.0
2023-08-16 11:32:55.632279,-275.0
2023-08-16 11:32:55.639969,-267.0
2023-08-16 11:32:55.647658,-253.0
2023-08-16 11:32:55.655347,-234.0
2023-08-16 11:32:55.663036,-224.0
2023-08-16 11:32:55.670726,-214.0
2023-08-16 11:32:55.678415,-202.0
2023-08-16 11:32:55.686104,-195.0
2023-08-16 11:32:55.693794,-190.0
2023-08-16 11:32:55.701483,-180.0
2023-08-16 11:32:55.709172,-178.0
2023-08-16 11:32:55.716862,-178.0
2023-08-16 11:32:55.724551,-173.0
2023-08-16 11:32:55.732240,-171.0
2023-08-16 11:32:55.739929,-168.0
2023-08-16 11:32:55.747619,-171.0
2023-08-16 11:32:55.755308,-176.0
2023-08-16 11:32:55.762997,-176.0
2023-08-16 11:32:55.770687,-171.0
2023-08-16 11:32:55.778376,-168.0
2023-08-16 11:32:55.786065,-161.0
2023-08-16 11:32:55.793754,-159.0
2023-08-16 11:32:55.801444,-159.0
2023-08-16 11:32:55.809133,-152.0
2023-08-16 11:32:55.816822,-149.0
2023-08-16 11:32:55.824512,-147.0
2023-08-16 11:32:55.832201,-137.0
2023-08-16 11:32:55.839890,-132.0
2023-08-16 11:32:55.847579,-132.0
2023-08-16 11:32:55.855269,-130.0
2023-08-16 11:32:55.862958,-127.0
2023-08-16 11:32:55.870647,-125.0
2023-08-16 11:32:55.878337,-118.0
2023-08-16 11:32:55.886026,-120.0
2023-08-16 11:32:55.893715,-130.0
2023-08-16 11:32:55.901405,-132.0
2023-08-16 11:32:55.909094,-127.0
2023-08-16 11:32:55.916783,-113.0
2023-08-16 11:32:55.924472,-86.0
2023-08-16 11:32:55.932162,-60.0
2023-08-16 11:32:55.939851,-50.0
2023-08-16 11:32:55.947540,-55.0
2023-08-16 11:32:55.955230,-60.0
2023-08-16 11:32:55.962919,-79.0
2023-08-16 11:32:55.970608,-113.0
2023-08-16 11:32:55.978297,-113.0
2023-08-16 11:32:55.985987,-103.0
2023-08-16 11:32:55.993676,-110.0
2023-08-16 11:32:56.001365,-110.0
2023-08-16 11:32:56.009055,-98.0
2023-08-16 11:32:56.016744,-94.0
2023-08-16 11:32:56.024433,-84.0
2023-08-16 11:32:56.032122,-19.0
2023-08-16 11:32:56.039812,260.0
2023-08-16 11:32:56.047501,875.0
2023-08-16 11:32:56.055190,1339.0
2023-08-16 11:32:56.062880,969.0
2023-08-16 11:32:56.070569,19.0
2023-08-16 11:32:56.078258,-530.0
2023-08-16 11:32:56.085948,-332.0
2023-08-16 11:32:56.093637,-89.0
2023-08-16 11:32:56.101326,-180.0
2023-08-16 11:32:56.109015,-217.0
2023-08-16 11:32:56.116705,-142.0
2023-08-16 11:32:56.124394,-149.0
2023-08-16 11:32:56.132083,-161.0
2023-08-16 11:32:56.139773,-127.0
2023-08-16 11:32:56.147462,-110.0
2023-08-16 11:32:56.155151,-108.0
2023-08-16 11:32:56.162840,-91.0
2023-08-16 11:32:56.170530,-82.0
2023-08-16 11:32:56.178219,-77.0
2023-08-16 11:32:56.185908,-57.0
2023-08-16 11:32:56.193598,-28.0
2023-08-16 11:32:56.201287,-7.0
2023-08-16 11:32:56.208976,16.0
2023-08-16 11:32:56.216665,48.0
2023-08-16 11:32:56.224355,79.0
2023-08-16 11:32:56.232044,115.0
2023-08-16 11:32:56.239733,161.0
2023-08-16 11:32:56.247423,207.0
2023-08-16 11:32:56.255112,243.0
2023-08-16 11:32:56.262801,277.0
2023-08-16 11:32:56.270491,311.0
2023-08-16 11:32:56.278180,335.0
2023-08-16 11:32:56.285869,335.0
2023-08-16 11:32:56.293558,311.0
2023-08-16 11:32:56.301248,265.0
2023-08-16 11:32:56.308937,195.0
2023-08-16 11:32:56.316626,101.0
2023-08-16 11:32:56.324316,-4.0
2023-08-16 11:32:56.332005,-108.0
2023-08-16 11:32:56.339694,-195.0
2023-08-16 11:32:56.347383,-258.0
2023-08-16 11:32:56.355073,-299.0
2023-08-16 11:32:56.362762,-318.0
2023-08-16 11:32:56.370451,-323.0
2023-08-16 11:32:56.378141,-328.0
2023-08-16 11:32:56.385830,-330.0
2023-08-16 11:32:56.393519,-328.0
2023-08-16 11:32:56.401208,-318.0
2023-08-16 11:32:56.408898,-304.0
2023-08-16 11:32:56.416587,-291.0
2023-08-16 11:32:56.424276,-282.0
2023-08-16 11:32:56.431966,-267.0
2023-08-16 11:32:56.439655,-253.0
2023-08-16 11:32:56.447344,-241.0
2023-08-16 11:32:56.455034,-231.0
2023-08-16 11:32:56.462723,-217.0
2023-08-16 11:32:56.470412,-207.0
2023-08-16 11:32:56.478101,-202.0
2023-08-16 11:32:56.485791,-197.0
2023-08-16 11:32:56.493480,-190.0
2023-08-16 11:32:56.501169,-185.0
2023-08-16 11:32:56.508859,-183.0
2023-08-16 11:32:56.516548,-178.0
2023-08-16 11:32:56.524237,-173.0
2023-08-16 11:32:56.531926,-173.0
2023-08-16 11:32:56.539616,-176.0
2023-08-16 11:32:56.547305,-173.0
2023-08-16 11:32:56.554994,-171.0
2023-08-16 11:32:56.562684,-166.0
2023-08-16 11:32:56.570373,-161.0
2023-08-16 11:32:56.578062,-161.0
2023-08-16 11:32:56.585751,-164.0
2023-08-16 11:32:56.593441,-161.0
2023-08-16 11:32:56.601130,-152.0
2023-08-16 11:32:56.608819,-147.0
2023-08-16 11:32:56.616509,-144.0
2023-08-16 11:32:56.624198,-144.0
2023-08-16 11:32:56.631887,-142.0
2023-08-16 11:32:56.639577,-142.0
2023-08-16 11:32:56.647266,-137.0
2023-08-16 11:32:56.654955,-132.0
2023-08-16 11:32:56.662644,-130.0
2023-08-16 11:32:56.670334,-130.0
2023-08-16 11:32:56.678023,-130.0
2023-08-16 11:32:56.685712,-125.0
2023-08-16 11:32:56.693402,-118.0
2023-08-16 11:32:56.701091,-115.0
2023-08-16 11:32:56.708780,-113.0
2023-08-16 11:32:56.716469,-113.0
2023-08-16 11:32:56.724159,-115.0
2023-08-16 11:32:56.731848,-110.0
2023-08-16 11:32:56.739537,-106.0
2023-08-16 11:32:56.747227,-103.0
2023-08-16 11:32:56.754916,-108.0
2023-08-16 11:32:56.762605,-115.0
2023-08-16 11:32:56.770295,-125.0
2023-08-16 11:32:56.777984,-125.0
2023-08-16 11:32:56.785673,-118.0
2023-08-16 11:32:56.793362,-91.0
2023-08-16 11:32:56.801052,-55.0
2023-08-16 11:32:56.808741,-41.0
2023-08-16 11:32:56.816430,-50.0
2023-08-16 11:32:56.824120,-57.0
2023-08-16 11:32:56.831809,-67.0
2023-08-16 11:32:56.839498,-101.0
2023-08-16 11:32:56.847187,-118.0
2023-08-16 11:32:56.854877,-110.0
2023-08-16 11:32:56.862566,-108.0
2023-08-16 11:32:56.870255,-106.0
2023-08-16 11:32:56.877945,-103.0
2023-08-16 11:32:56.885634,-101.0
2023-08-16 11:32:56.893323,-91.0
2023-08-16 11:32:56.901012,-50.0
2023-08-16 11:32:56.908702,176.0
2023-08-16 11:32:56.916391,808.0
2023-08-16 11:32:56.924080,1438.0
2023-08-16 11:32:56.931770,1242.0
2023-08-16 11:32:56.939459,311.0
2023-08-16 11:32:56.947148,-400.0
2023-08-16 11:32:56.954838,-371.0
2023-08-16 11:32:56.962527,-108.0
2023-08-16 11:32:56.970216,-154.0
2023-08-16 11:32:56.977905,-246.0
2023-08-16 11:32:56.985595,-180.0
2023-08-16 11:32:56.993284,-161.0
2023-08-16 11:32:57.000973,-183.0
2023-08-16 11:32:57.008663,-154.0
2023-08-16 11:32:57.016352,-125.0
2023-08-16 11:32:57.024041,-120.0
2023-08-16 11:32:57.031730,-108.0
2023-08-16 11:32:57.039420,-86.0
2023-08-16 11:32:57.047109,-74.0
2023-08-16 11:32:57.054798,-55.0
2023-08-16 11:32:57.062488,-31.0
2023-08-16 11:32:57.070177,-7.0
2023-08-16 11:32:57.077866,16.0
2023-08-16 11:32:57.085555,43.0
2023-08-16 11:32:57.093245,74.0
2023-08-16 11:32:57.100934,110.0
2023-08-16 11:32:57.108623,149.0
2023-08-16 11:32:57.116313,190.0
2023-08-16 11:32:57.124002,229.0
2023-08-16 11:32:57.131691,263.0
2023-08-16 11:32:57.139381,296.0
2023-08-16 11:32:57.147070,320.0
2023-08-16 11:32:57.154759,328.0
2023-08-16 11:32:57.162448,313.0
2023-08-16 11:32:57.170138,279.0
2023-08-16 11:32:57.177827,231.0
2023-08-16 11:32:57.185516,166.0
2023-08-16 11:32:57.193206,74.0
2023-08-16 11:32:57.200895,-24.0
2023-08-16 11:32:57.208584,-113.0
2023-08-16 11:32:57.216273,-180.0
2023-08-16 11:32:57.223963,-229.0
2023-08-16 11:32:57.231652,-263.0
2023-08-16 11:32:57.239341,-277.0
2023-08-16 11:32:57.247031,-284.0
2023-08-16 11:32:57.254720,-284.0
2023-08-16 11:32:57.262409,-282.0
2023-08-16 11:32:57.270098,-277.0
2023-08-16 11:32:57.277788,-270.0
2023-08-16 11:32:57.285477,-258.0
2023-08-16 11:32:57.293166,-248.0
2023-08-16 11:32:57.300856,-243.0
2023-08-16 11:32:57.308545,-238.0
2023-08-16 11:32:57.316234,-224.0
2023-08-16 11:32:57.323924,-212.0
2023-08-16 11:32:57.331613,-205.0
2023-08-16 11:32:57.339302,-195.0
2023-08-16 11:32:57.346991,-188.0
2023-08-16 11:32:57.354681,-185.0
2023-08-16 11:32:57.362370,-183.0
2023-08-16 11:32:57.370059,-183.0
2023-08-16 11:32:57.377749,-178.0
2023-08-16 11:32:57.385438,-173.0
2023-08-16 11:32:57.393127,-173.0
2023-08-16 11:32:57.400816,-171.0
2023-08-16 11:32:57.408506,-166.0
2023-08-16 11:32:57.416195,-164.0
2023-08-16 11:32:57.423884,-159.0
2023-08-16 11:32:57.431574,-156.0
2023-08-16 11:32:57.439263,-156.0
2023-08-16 11:32:57.446952,-152.0
2023-08-16 11:32:57.454641,-147.0
2023-08-16 11:32:57.462331,-147.0
2023-08-16 11:32:57.470020,-147.0
2023-08-16 11:32:57.477709,-142.0
2023-08-16 11:32:57.485399,-139.0
2023-08-16 11:32:57.493088,-137.0
2023-08-16 11:32:57.500777,-135.0
2023-08-16 11:32:57.508467,-130.0
2023-08-16 11:32:57.516156,-125.0
2023-08-16 11:32:57.523845,-123.0
2023-08-16 11:32:57.531534,-123.0
2023-08-16 11:32:57.539224,-118.0
2023-08-16 11:32:57.546913,-113.0
2023-08-16 11:32:57.554602,-110.0
2023-08-16 11:32:57.562292,-108.0
2023-08-16 11:32:57.569981,-106.0
2023-08-16 11:32:57.577670,-103.0
2023-08-16 11:32:57.585359,-98.0
2023-08-16 11:32:57.593049,-96.0
2023-08-16 11:32:57.600738,-98.0
2023-08-16 11:32:57.608427,-96.0
2023-08-16 11:32:57.616117,-94.0
2023-08-16 11:32:57.623806,-94.0
2023-08-16 11:32:57.631495,-91.0
2023-08-16 11:32:57.639184,-91.0
2023-08-16 11:32:57.646874,-91.0
2023-08-16 11:32:57.654563,-86.0
2023-08-16 11:32:57.662252,-84.0
2023-08-16 11:32:57.669942,-84.0
2023-08-16 11:32:57.677631,-82.0
2023-08-16 11:32:57.685320,-79.0
2023-08-16 11:32:57.693010,-79.0
2023-08-16 11:32:57.700699,-84.0
2023-08-16 11:32:57.708388,-91.0
2023-08-16 11:32:57.716077,-91.0
2023-08-16 11:32:57.723767,-84.0
2023-08-16 11:32:57.731456,-62.0
2023-08-16 11:32:57.739145,-26.0
2023-08-16 11:32:57.746835,-2.0
2023-08-16 11:32:57.754524,-4.0
2023-08-16 11:32:57.762213,-16.0
2023-08-16 11:32:57.769902,-33.0
2023-08-16 11:32:57.777592,-69.0
2023-08-16 11:32:57.785281,-89.0
2023-08-16 11:32:57.792970,-79.0
2023-08-16 11:32:57.800660,-77.0
2023-08-16 11:32:57.808349,-79.0
2023-08-16 11:32:57.816038,-72.0
2023-08-16 11:32:57.823727,-69.0
2023-08-16 11:32:57.831417,-65.0
2023-08-16 11:32:57.839106,-38.0
2023-08-16 11:32:57.846795,127.0
2023-08-16 11:32:57.854485,685.0
2023-08-16 11:32:57.862174,1392.0
2023-08-16 11:32:57.869863,1382.0
2023-08-16 11:32:57.877553,523.0
2023-08-16 11:32:57.885242,-296.0
2023-08-16 11:32:57.892931,-402.0
2023-08-16 11:32:57.900620,-118.0
2023-08-16 11:32:57.908310,-110.0
2023-08-16 11:32:57.915999,-241.0
2023-08-16 11:32:57.923688,-188.0
2023-08-16 11:32:57.931378,-147.0
2023-08-16 11:32:57.939067,-176.0
2023-08-16 11:32:57.946756,-154.0
2023-08-16 11:32:57.954445,-118.0
2023-08-16 11:32:57.962135,-115.0
2023-08-16 11:32:57.969824,-106.0
2023-08-16 11:32:57.977513,-84.0
2023-08-16 11:32:57.985203,-69.0
2023-08-16 11:32:57.992892,-53.0
2023-08-16 11:32:58.000581,-26.0
2023-08-16 11:32:58.008270,-2.0
2023-08-16 11:32:58.015960,16.0
2023-08-16 11:32:58.023649,43.0
2023-08-16 11:32:58.031338,77.0
2023-08-16 11:32:58.039028,110.0
2023-08-16 11:32:58.046717,144.0
2023-08-16 11:32:58.054406,183.0
2023-08-16 11:32:58.062096,221.0
2023-08-16 11:32:58.069785,258.0
2023-08-16 11:32:58.077474,294.0
2023-08-16 11:32:58.085163,320.0
2023-08-16 11:32:58.092853,330.0
2023-08-16 11:32:58.100542,323.0
2023-08-16 11:32:58.108231,294.0
2023-08-16 11:32:58.115921,253.0
2023-08-16 11:32:58.123610,193.0
2023-08-16 11:32:58.131299,113.0
2023-08-16 11:32:58.138988,19.0
2023-08-16 11:32:58.146678,-72.0
2023-08-16 11:32:58.154367,-149.0
2023-08-16 11:32:58.162056,-202.0
2023-08-16 11:32:58.169746,-238.0
2023-08-16 11:32:58.177435,-260.0
2023-08-16 11:32:58.185124,-270.0
2023-08-16 11:32:58.192814,-270.0
2023-08-16 11:32:58.200503,-267.0
2023-08-16 11:32:58.208192,-260.0
2023-08-16 11:32:58.215881,-248.0
2023-08-16 11:32:58.223571,-236.0
2023-08-16 11:32:58.231260,-226.0
2023-08-16 11:32:58.238949,-217.0
2023-08-16 11:32:58.246639,-209.0
2023-08-16 11:32:58.254328,-200.0
2023-08-16 11:32:58.262017,-190.0
2023-08-16 11:32:58.269706,-180.0
2023-08-16 11:32:58.277396,-178.0
2023-08-16 11:32:58.285085,-180.0
2023-08-16 11:32:58.292774,-178.0
2023-08-16 11:32:58.300464,-173.0
2023-08-16 11:32:58.308153,-166.0
2023-08-16 11:32:58.315842,-161.0
2023-08-16 11:32:58.323531,-156.0
2023-08-16 11:32:58.331221,-156.0
2023-08-16 11:32:58.338910,-154.0
2023-08-16 11:32:58.346599,-152.0
2023-08-16 11:32:58.354289,-152.0
2023-08-16 11:32:58.361978,-152.0
2023-08-16 11:32:58.369667,-147.0
2023-08-16 11:32:58.377357,-144.0
2023-08-16 11:32:58.385046,-144.0
2023-08-16 11:32:58.392735,-142.0
2023-08-16 11:32:58.400424,-135.0
2023-08-16 11:32:58.408114,-132.0
2023-08-16 11:32:58.415803,-130.0
2023-08-16 11:32:58.423492,-135.0
2023-08-16 11:32:58.431182,-142.0
2023-08-16 11:32:58.438871,-139.0
2023-08-16 11:32:58.446560,-132.0
2023-08-16 11:32:58.454249,-127.0
2023-08-16 11:32:58.461939,-125.0
2023-08-16 11:32:58.469628,-123.0
2023-08-16 11:32:58.477317,-123.0
2023-08-16 11:32:58.485007,-118.0
2023-08-16 11:32:58.492696,-110.0
2023-08-16 11:32:58.500385,-106.0
2023-08-16 11:32:58.508074,-108.0
2023-08-16 11:32:58.515764,-110.0
2023-08-16 11:32:58.523453,-108.0
2023-08-16 11:32:58.531142,-101.0
2023-08-16 11:32:58.538832,-94.0
2023-08-16 11:32:58.546521,-94.0
2023-08-16 11:32:58.554210,-94.0
2023-08-16 11:32:58.561900,-91.0
2023-08-16 11:32:58.569589,-91.0
2023-08-16 11:32:58.577278,-91.0
2023-08-16 11:32:58.584967,-86.0
2023-08-16 11:32:58.592657,-84.0
2023-08-16 11:32:58.600346,-86.0
2023-08-16 11:32:58.608035,-89.0
2023-08-16 11:32:58.615725,-91.0
2023-08-16 11:32:58.623414,-86.0
2023-08-16 11:32:58.631103,-79.0
2023-08-16 11:32:58.638792,-74.0
2023-08-16 11:32:58.646482,-79.0
2023-08-16 11:32:58.654171,-82.0
2023-08-16 11:32:58.661860,-77.0
2023-08-16 11:32:58.669550,-69.0
2023-08-16 11:32:58.677239,-67.0
2023-08-16 11:32:58.684928,-72.0
2023-08-16 11:32:58.692617,-74.0
2023-08-16 11:32:58.700307,-72.0
2023-08-16 11:32:58.707996,-69.0
2023-08-16 11:32:58.715685,-67.0
2023-08-16 11:32:58.723375,-67.0
2023-08-16 11:32:58.731064,-65.0
2023-08-16 11:32:58.738753,-67.0
2023-08-16 11:32:58.746443,-72.0
2023-08-16 11:32:58.754132,-74.0
2023-08-16 11:32:58.761821,-79.0
2023-08-16 11:32:58.769510,-82.0
2023-08-16 11:32:58.777200,-69.0
2023-08-16 11:32:58.784889,-43.0
2023-08-16 11:32:58.792578,-16.0
2023-08-16 11:32:58.800268,-4.0
2023-08-16 11:32:58.807957,-12.0
2023-08-16 11:32:58.815646,-21.0
2023-08-16 11:32:58.823335,-43.0
2023-08-16 11:32:58.831025,-69.0
2023-08-16 11:32:58.838714,-74.0
2023-08-16 11:32:58.846403,-72.0
2023-08-16 11:32:58.854093,-74.0
2023-08-16 11:32:58.861782,-72.0
2023-08-16 11:32:58.869471,-72.0
2023-08-16 11:32:58.877160,-72.0
2023-08-16 11:32:58.884850,-45.0
2023-08-16 11:32:58.892539,69.0
2023-08-16 11:32:58.900228,509.0
2023-08-16 11:32:58.907918,1245.0
2023-08-16 11:32:58.915607,1491.0
2023-08-16 11:32:58.923296,801.0
2023-08-16 11:32:58.930986,-125.0
2023-08-16 11:32:58.938675,-436.0
2023-08-16 11:32:58.946364,-168.0
2023-08-16 11:32:58.954053,-62.0
2023-08-16 11:32:58.961743,-212.0
2023-08-16 11:32:58.969432,-200.0
2023-08-16 11:32:58.977121,-125.0
2023-08-16 11:32:58.984811,-144.0
2023-08-16 11:32:58.992500,-144.0
2023-08-16 11:32:59.000189,-108.0
2023-08-16 11:32:59.007878,-106.0
2023-08-16 11:32:59.015568,-101.0
2023-08-16 11:32:59.023257,-77.0
2023-08-16 11:32:59.030946,-60.0
2023-08-16 11:32:59.038636,-43.0
2023-08-16 11:32:59.046325,-14.0
2023-08-16 11:32:59.054014,9.0
2023-08-16 11:32:59.061703,31.0
2023-08-16 11:32:59.069393,60.0
2023-08-16 11:32:59.077082,84.0
2023-08-16 11:32:59.084771,110.0
2023-08-16 11:32:59.092461,149.0
2023-08-16 11:32:59.100150,185.0
2023-08-16 11:32:59.107839,219.0
2023-08-16 11:32:59.115529,267.0
2023-08-16 11:32:59.123218,304.0
2023-08-16 11:32:59.130907,325.0
2023-08-16 11:32:59.138596,342.0
2023-08-16 11:32:59.146286,345.0
2023-08-16 11:32:59.153975,325.0
2023-08-16 11:32:59.161664,289.0
2023-08-16 11:32:59.169354,241.0
2023-08-16 11:32:59.177043,173.0
2023-08-16 11:32:59.184732,82.0
2023-08-16 11:32:59.192421,-19.0
2023-08-16 11:32:59.200111,-101.0
2023-08-16 11:32:59.207800,-164.0
2023-08-16 11:32:59.215489,-217.0
2023-08-16 11:32:59.223179,-248.0
2023-08-16 11:32:59.230868,-263.0
2023-08-16 11:32:59.238557,-267.0
2023-08-16 11:32:59.246246,-263.0
2023-08-16 11:32:59.253936,-255.0
2023-08-16 11:32:59.261625,-250.0
2023-08-16 11:32:59.269314,-246.0
2023-08-16 11:32:59.277004,-234.0
2023-08-16 11:32:59.284693,-219.0
2023-08-16 11:32:59.292382,-212.0
2023-08-16 11:32:59.300072,-214.0
2023-08-16 11:32:59.307761,-212.0
2023-08-16 11:32:59.315450,-197.0
2023-08-16 11:32:59.323139,-185.0
2023-08-16 11:32:59.330829,-185.0
2023-08-16 11:32:59.338518,-178.0
2023-08-16 11:32:59.346207,-171.0
2023-08-16 11:32:59.353897,-173.0
2023-08-16 11:32:59.361586,-168.0
2023-08-16 11:32:59.369275,-164.0
2023-08-16 11:32:59.376964,-166.0
2023-08-16 11:32:59.384654,-164.0
2023-08-16 11:32:59.392343,-156.0
2023-08-16 11:32:59.400032,-152.0
2023-08-16 11:32:59.407722,-149.0
2023-08-16 11:32:59.415411,-149.0
2023-08-16 11:32:59.423100,-149.0
2023-08-16 11:32:59.430789,-142.0
2023-08-16 11:32:59.438479,-135.0
2023-08-16 11:32:59.446168,-135.0
2023-08-16 11:32:59.453857,-137.0
2023-08-16 11:32:59.461547,-139.0
2023-08-16 11:32:59.469236,-130.0
2023-08-16 11:32:59.476925,-120.0
2023-08-16 11:32:59.484615,-115.0
2023-08-16 11:32:59.492304,-115.0
2023-08-16 11:32:59.499993,-120.0
2023-08-16 11:32:59.507682,-123.0
2023-08-16 11:32:59.515372,-125.0
2023-08-16 11:32:59.523061,-123.0
2023-08-16 11:32:59.530750,-113.0
2023-08-16 11:32:59.538440,-101.0
2023-08-16 11:32:59.546129,-98.0
2023-08-16 11:32:59.553818,-106.0
2023-08-16 11:32:59.561507,-103.0
2023-08-16 11:32:59.569197,-94.0
2023-08-16 11:32:59.576886,-91.0
2023-08-16 11:32:59.584575,-98.0
2023-08-16 11:32:59.592265,-108.0
2023-08-16 11:32:59.599954,-106.0
2023-08-16 11:32:59.607643,-96.0
2023-08-16 11:32:59.615333,-98.0
2023-08-16 11:32:59.623022,-101.0
2023-08-16 11:32:59.630711,-96.0
2023-08-16 11:32:59.638400,-91.0
2023-08-16 11:32:59.646090,-94.0
2023-08-16 11:32:59.653779,-91.0
2023-08-16 11:32:59.661468,-91.0
2023-08-16 11:32:59.669158,-96.0
2023-08-16 11:32:59.676847,-96.0
2023-08-16 11:32:59.684536,-82.0
2023-08-16 11:32:59.692225,-60.0
2023-08-16 11:32:59.699915,-31.0
2023-08-16 11:32:59.707604,-14.0
2023-08-16 11:32:59.715293,-21.0
2023-08-16 11:32:59.722983,-38.0
2023-08-16 11:32:59.730672,-57.0
2023-08-16 11:32:59.738361,-82.0
2023-08-16 11:32:59.746050,-86.0
2023-08-16 11:32:59.753740,-79.0
2023-08-16 11:32:59.761429,-79.0
2023-08-16 11:32:59.769118,-82.0
2023-08-16 11:32:59.776808,-74.0
2023-08-16 11:32:59.784497,-74.0
2023-08-16 11:32:59.792186,-60.0
2023-08-16 11:32:59.799876,53.0
2023-08-16 11:32:59.807565,448.0
2023-08-16 11:32:59.815254,1105.0
2023-08-16 11:32:59.822943,1339.0
2023-08-16 11:32:59.830633,692.0
2023-08-16 11:32:59.838322,-205.0
2023-08-16 11:32:59.846011,-501.0
2023-08-16 11:32:59.853701,-202.0
2023-08-16 11:32:59.861390,-65.0
2023-08-16 11:32:59.869079,-195.0
2023-08-16 11:32:59.876768,-180.0
2023-08-16 11:32:59.884458,-113.0
2023-08-16 11:32:59.892147,-132.0
2023-08-16 11:32:59.899836,-130.0
2023-08-16 11:32:59.907526,-94.0
2023-08-16 11:32:59.915215,-86.0
2023-08-16 11:32:59.922904,-79.0
2023-08-16 11:32:59.930593,-60.0
2023-08-16 11:32:59.938283,-41.0
2023-08-16 11:32:59.945972,-24.0
2023-08-16 11:32:59.953661,-7.0
2023-08-16 11:32:59.961351,14.0
2023-08-16 11:32:59.969040,38.0
2023-08-16 11:32:59.976729,67.0
2023-08-16 11:32:59.984419,96.0
2023-08-16 11:32:59.992108,125.0
2023-08-16 11:32:59.999797,164.0
2023-08-16 11:33:00.007486,207.0
2023-08-16 11:33:00.015176,250.0
2023-08-16 11:33:00.022865,291.0
2023-08-16 11:33:00.030554,332.0
2023-08-16 11:33:00.038244,361.0
2023-08-16 11:33:00.045933,378.0
2023-08-16 11:33:00.053622,371.0
2023-08-16 11:33:00.061311,340.0
2023-08-16 11:33:00.069001,294.0
2023-08-16 11:33:00.076690,231.0
2023-08-16 11:33:00.084379,135.0
2023-08-16 11:33:00.092069,14.0
2023-08-16 11:33:00.099758,-91.0
2023-08-16 11:33:00.107447,-171.0
2023-08-16 11:33:00.115136,-231.0
2023-08-16 11:33:00.122826,-272.0
2023-08-16 11:33:00.130515,-294.0
2023-08-16 11:33:00.138204,-308.0
2023-08-16 11:33:00.145894,-311.0
2023-08-16 11:33:00.153583,-304.0
2023-08-16 11:33:00.161272,-296.0
2023-08-16 11:33:00.168962,-287.0
2023-08-16 11:33:00.176651,-279.0
2023-08-16 11:33:00.184340,-270.0
2023-08-16 11:33:00.192029,-255.0
2023-08-16 11:33:00.199719,-236.0
2023-08-16 11:33:00.207408,-224.0
2023-08-16 11:33:00.215097,-217.0
2023-08-16 11:33:00.222787,-209.0
2023-08-16 11:33:00.230476,-202.0
2023-08-16 11:33:00.238165,-195.0
2023-08-16 11:33:00.245854,-185.0
2023-08-16 11:33:00.253544,-178.0
2023-08-16 11:33:00.261233,-173.0
2023-08-16 11:33:00.268922,-171.0
2023-08-16 11:33:00.276612,-171.0
2023-08-16 11:33:00.284301,-168.0
2023-08-16 11:33:00.291990,-171.0
2023-08-16 11:33:00.299679,-173.0
2023-08-16 11:33:00.307369,-166.0
2023-08-16 11:33:00.315058,-166.0
2023-08-16 11:33:00.322747,-173.0
2023-08-16 11:33:00.330437,-173.0
2023-08-16 11:33:00.338126,-164.0
2023-08-16 11:33:00.345815,-159.0
2023-08-16 11:33:00.353505,-156.0
2023-08-16 11:33:00.361194,-156.0
2023-08-16 11:33:00.368883,-159.0
2023-08-16 11:33:00.376572,-161.0
2023-08-16 11:33:00.384262,-164.0
2023-08-16 11:33:00.391951,-166.0
2023-08-16 11:33:00.399640,-164.0
2023-08-16 11:33:00.407330,-164.0
2023-08-16 11:33:00.415019,-161.0
2023-08-16 11:33:00.422708,-154.0
2023-08-16 11:33:00.430397,-152.0
2023-08-16 11:33:00.438087,-149.0
2023-08-16 11:33:00.445776,-144.0
2023-08-16 11:33:00.453465,-137.0
2023-08-16 11:33:00.461155,-137.0
2023-08-16 11:33:00.468844,-137.0
2023-08-16 11:33:00.476533,-127.0
2023-08-16 11:33:00.484222,-118.0
2023-08-16 11:33:00.491912,-123.0
2023-08-16 11:33:00.499601,-127.0
2023-08-16 11:33:00.507290,-123.0
2023-08-16 11:33:00.514980,-115.0
2023-08-16 11:33:00.522669,-115.0
2023-08-16 11:33:00.530358,-120.0
2023-08-16 11:33:00.538048,-120.0
2023-08-16 11:33:00.545737,-120.0
2023-08-16 11:33:00.553426,-120.0
2023-08-16 11:33:00.561115,-123.0
2023-08-16 11:33:00.568805,-130.0
2023-08-16 11:33:00.576494,-135.0
2023-08-16 11:33:00.584183,-130.0
2023-08-16 11:33:00.591873,-113.0
2023-08-16 11:33:00.599562,-77.0
2023-08-16 11:33:00.607251,-43.0
2023-08-16 11:33:00.614940,-41.0
2023-08-16 11:33:00.622630,-55.0
2023-08-16 11:33:00.630319,-65.0
2023-08-16 11:33:00.638008,-91.0
2023-08-16 11:33:00.645698,-110.0
2023-08-16 11:33:00.653387,-101.0
2023-08-16 11:33:00.661076,-94.0
2023-08-16 11:33:00.668765,-96.0
2023-08-16 11:33:00.676455,-101.0
2023-08-16 11:33:00.684144,-103.0
2023-08-16 11:33:00.691833,-89.0
2023-08-16 11:33:00.699523,-45.0
2023-08-16 11:33:00.707212,156.0
2023-08-16 11:33:00.714901,733.0
2023-08-16 11:33:00.722591,1358.0
2023-08-16 11:33:00.730280,1216.0
2023-08-16 11:33:00.737969,328.0
2023-08-16 11:33:00.745658,-378.0
2023-08-16 11:33:00.753348,-366.0
2023-08-16 11:33:00.761037,-94.0
2023-08-16 11:33:00.768726,-120.0
2023-08-16 11:33:00.776416,-217.0
2023-08-16 11:33:00.784105,-154.0
2023-08-16 11:33:00.791794,-123.0
2023-08-16 11:33:00.799483,-149.0
2023-08-16 11:33:00.807173,-130.0
2023-08-16 11:33:00.814862,-103.0
2023-08-16 11:33:00.822551,-101.0
2023-08-16 11:33:00.830241,-91.0
2023-08-16 11:33:00.837930,-69.0
2023-08-16 11:33:00.845619,-50.0
2023-08-16 11:33:00.853309,-31.0
2023-08-16 11:33:00.860998,-14.0
2023-08-16 11:33:00.868687,9.0
2023-08-16 11:33:00.876376,36.0
2023-08-16 11:33:00.884066,62.0
2023-08-16 11:33:00.891755,96.0
2023-08-16 11:33:00.899444,130.0
2023-08-16 11:33:00.907134,164.0
2023-08-16 11:33:00.914823,207.0
2023-08-16 11:33:00.922512,250.0
2023-08-16 11:33:00.930201,291.0
2023-08-16 11:33:00.937891,323.0
2023-08-16 11:33:00.945580,340.0
2023-08-16 11:33:00.953269,345.0
2023-08-16 11:33:00.960959,337.0
2023-08-16 11:33:00.968648,313.0
2023-08-16 11:33:00.976337,263.0
2023-08-16 11:33:00.984026,190.0
2023-08-16 11:33:00.991716,103.0
2023-08-16 11:33:00.999405,2.0
2023-08-16 11:33:01.007094,-91.0
2023-08-16 11:33:01.014784,-161.0
2023-08-16 11:33:01.022473,-209.0
2023-08-16 11:33:01.030162,-243.0
2023-08-16 11:33:01.037852,-263.0
2023-08-16 11:33:01.045541,-270.0
2023-08-16 11:33:01.053230,-272.0
2023-08-16 11:33:01.060919,-272.0
2023-08-16 11:33:01.068609,-270.0
2023-08-16 11:33:01.076298,-260.0
2023-08-16 11:33:01.083987,-246.0
2023-08-16 11:33:01.091677,-234.0
2023-08-16 11:33:01.099366,-224.0
2023-08-16 11:33:01.107055,-212.0
2023-08-16 11:33:01.114744,-200.0
2023-08-16 11:33:01.122434,-190.0
2023-08-16 11:33:01.130123,-183.0
2023-08-16 11:33:01.137812,-178.0
2023-08-16 11:33:01.145502,-176.0
2023-08-16 11:33:01.153191,-171.0
2023-08-16 11:33:01.160880,-164.0
2023-08-16 11:33:01.168569,-159.0
2023-08-16 11:33:01.176259,-159.0
2023-08-16 11:33:01.183948,-159.0
2023-08-16 11:33:01.191637,-154.0
2023-08-16 11:33:01.199327,-149.0
2023-08-16 11:33:01.207016,-147.0
2023-08-16 11:33:01.214705,-144.0
2023-08-16 11:33:01.222395,-144.0
2023-08-16 11:33:01.230084,-142.0
2023-08-16 11:33:01.237773,-142.0
2023-08-16 11:33:01.245462,-144.0
2023-08-16 11:33:01.253152,-144.0
2023-08-16 11:33:01.260841,-139.0
2023-08-16 11:33:01.268530,-137.0
2023-08-16 11:33:01.276220,-135.0
2023-08-16 11:33:01.283909,-132.0
2023-08-16 11:33:01.291598,-132.0
2023-08-16 11:33:01.299287,-132.0
2023-08-16 11:33:01.306977,-135.0
2023-08-16 11:33:01.314666,-137.0
2023-08-16 11:33:01.322355,-130.0
2023-08-16 11:33:01.330045,-127.0
2023-08-16 11:33:01.337734,-127.0
2023-08-16 11:33:01.345423,-123.0
2023-08-16 11:33:01.353112,-115.0
2023-08-16 11:33:01.360802,-113.0
2023-08-16 11:33:01.368491,-113.0
2023-08-16 11:33:01.376180,-115.0
2023-08-16 11:33:01.383870,-118.0
2023-08-16 11:33:01.391559,-113.0
2023-08-16 11:33:01.399248,-113.0
2023-08-16 11:33:01.406938,-113.0
2023-08-16 11:33:01.414627,-110.0
2023-08-16 11:33:01.422316,-108.0
2023-08-16 11:33:01.430005,-106.0
2023-08-16 11:33:01.437695,-106.0
2023-08-16 11:33:01.445384,-108.0
2023-08-16 11:33:01.453073,-106.0
2023-08-16 11:33:01.460763,-101.0
2023-08-16 11:33:01.468452,-101.0
2023-08-16 11:33:01.476141,-98.0
2023-08-16 11:33:01.483830,-96.0
2023-08-16 11:33:01.491520,-96.0
2023-08-16 11:33:01.499209,-94.0
2023-08-16 11:33:01.506898,-91.0
2023-08-16 11:33:01.514588,-91.0
2023-08-16 11:33:01.522277,-91.0
2023-08-16 11:33:01.529966,-89.0
2023-08-16 11:33:01.537655,-89.0
2023-08-16 11:33:01.545345,-94.0
2023-08-16 11:33:01.553034,-103.0
2023-08-16 11:33:01.560723,-108.0
2023-08-16 11:33:01.568413,-96.0
2023-08-16 11:33:01.576102,-62.0
2023-08-16 11:33:01.583791,-26.0
2023-08-16 11:33:01.591481,-16.0
2023-08-16 11:33:01.599170,-24.0
2023-08-16 11:33:01.606859,-31.0
2023-08-16 11:33:01.614548,-53.0
2023-08-16 11:33:01.622238,-82.0
2023-08-16 11:33:01.629927,-82.0
2023-08-16 11:33:01.637616,-72.0
2023-08-16 11:33:01.645306,-72.0
2023-08-16 11:33:01.652995,-72.0
2023-08-16 11:33:01.660684,-67.0
2023-08-16 11:33:01.668373,-62.0
2023-08-16 11:33:01.676063,-43.0
2023-08-16 11:33:01.683752,62.0
2023-08-16 11:33:01.691441,489.0
2023-08-16 11:33:01.699131,1211.0
2023-08-16 11:33:01.706820,1452.0
2023-08-16 11:33:01.714509,784.0
2023-08-16 11:33:01.722198,-110.0
2023-08-16 11:33:01.729888,-422.0
2023-08-16 11:33:01.737577,-166.0
2023-08-16 11:33:01.745266,-50.0
2023-08-16 11:33:01.752956,-195.0
2023-08-16 11:33:01.760645,-197.0
2023-08-16 11:33:01.768334,-127.0
2023-08-16 11:33:01.776024,-144.0
2023-08-16 11:33:01.783713,-144.0
2023-08-16 11:33:01.791402,-106.0
2023-08-16 11:33:01.799091,-98.0
2023-08-16 11:33:01.806781,-101.0
2023-08-16 11:33:01.814470,-84.0
2023-08-16 11:33:01.822159,-65.0
2023-08-16 11:33:01.829849,-48.0
2023-08-16 11:33:01.837538,-26.0
2023-08-16 11:33:01.845227,-4.0
2023-08-16 11:33:01.852916,14.0
2023-08-16 11:33:01.860606,41.0
2023-08-16 11:33:01.868295,72.0
2023-08-16 11:33:01.875984,106.0
2023-08-16 11:33:01.883674,139.0
2023-08-16 11:33:01.891363,173.0
2023-08-16 11:33:01.899052,212.0
2023-08-16 11:33:01.906741,253.0
2023-08-16 11:33:01.914431,289.0
2023-08-16 11:33:01.922120,316.0
2023-08-16 11:33:01.929809,330.0
2023-08-16 11:33:01.937499,328.0
2023-08-16 11:33:01.945188,306.0
2023-08-16 11:33:01.952877,270.0
2023-08-16 11:33:01.960567,219.0
2023-08-16 11:33:01.968256,144.0
2023-08-16 11:33:01.975945,53.0
2023-08-16 11:33:01.983634,-45.0
2023-08-16 11:33:01.991324,-127.0
2023-08-16 11:33:01.999013,-185.0
2023-08-16 11:33:02.006702,-226.0
2023-08-16 11:33:02.014392,-253.0
2023-08-16 11:33:02.022081,-267.0
2023-08-16 11:33:02.029770,-275.0
2023-08-16 11:33:02.037459,-275.0
2023-08-16 11:33:02.045149,-267.0
2023-08-16 11:33:02.052838,-260.0
2023-08-16 11:33:02.060527,-253.0
2023-08-16 11:33:02.068217,-243.0
2023-08-16 11:33:02.075906,-236.0
2023-08-16 11:33:02.083595,-224.0
2023-08-16 11:33:02.091284,-212.0
2023-08-16 11:33:02.098974,-205.0
2023-08-16 11:33:02.106663,-197.0
2023-08-16 11:33:02.114352,-190.0
2023-08-16 11:33:02.122042,-188.0
2023-08-16 11:33:02.129731,-183.0
2023-08-16 11:33:02.137420,-176.0
2023-08-16 11:33:02.145110,-171.0
2023-08-16 11:33:02.152799,-168.0
2023-08-16 11:33:02.160488,-168.0
2023-08-16 11:33:02.168177,-168.0
2023-08-16 11:33:02.175867,-164.0
2023-08-16 11:33:02.183556,-159.0
2023-08-16 11:33:02.191245,-161.0
2023-08-16 11:33:02.198935,-159.0
2023-08-16 11:33:02.206624,-159.0
2023-08-16 11:33:02.214313,-159.0
2023-08-16 11:33:02.222002,-156.0
2023-08-16 11:33:02.229692,-154.0
2023-08-16 11:33:02.237381,-152.0
2023-08-16 11:33:02.245070,-149.0
2023-08-16 11:33:02.252760,-149.0
2023-08-16 11:33:02.260449,-149.0
2023-08-16 11:33:02.268138,-144.0
2023-08-16 11:33:02.275828,-142.0
2023-08-16 11:33:02.283517,-137.0
2023-08-16 11:33:02.291206,-137.0
2023-08-16 11:33:02.298895,-139.0
2023-08-16 11:33:02.306585,-137.0
2023-08-16 11:33:02.314274,-135.0
2023-08-16 11:33:02.321963,-142.0
2023-08-16 11:33:02.329653,-142.0
2023-08-16 11:33:02.337342,-142.0
2023-08-16 11:33:02.345031,-152.0
2023-08-16 11:33:02.352720,-154.0
2023-08-16 11:33:02.360410,-144.0
2023-08-16 11:33:02.368099,-142.0
2023-08-16 11:33:02.375788,-142.0
2023-08-16 11:33:02.383478,-137.0
2023-08-16 11:33:02.391167,-137.0
2023-08-16 11:33:02.398856,-135.0
2023-08-16 11:33:02.406545,-130.0
2023-08-16 11:33:02.414235,-123.0
2023-08-16 11:33:02.421924,-120.0
2023-08-16 11:33:02.429613,-120.0
2023-08-16 11:33:02.437303,-120.0
2023-08-16 11:33:02.444992,-118.0
2023-08-16 11:33:02.452681,-115.0
2023-08-16 11:33:02.460371,-110.0
2023-08-16 11:33:02.468060,-108.0
2023-08-16 11:33:02.475749,-108.0
2023-08-16 11:33:02.483438,-108.0
2023-08-16 11:33:02.491128,-106.0
2023-08-16 11:33:02.498817,-101.0
2023-08-16 11:33:02.506506,-98.0
2023-08-16 11:33:02.514196,-96.0
2023-08-16 11:33:02.521885,-96.0
2023-08-16 11:33:02.529574,-96.0
2023-08-16 11:33:02.537263,-94.0
2023-08-16 11:33:02.544953,-94.0
2023-08-16 11:33:02.552642,-96.0
2023-08-16 11:33:02.560331,-94.0
2023-08-16 11:33:02.568021,-96.0
2023-08-16 11:33:02.575710,-103.0
2023-08-16 11:33:02.583399,-108.0
2023-08-16 11:33:02.591088,-98.0
2023-08-16 11:33:02.598778,-72.0
2023-08-16 11:33:02.606467,-36.0
2023-08-16 11:33:02.614156,-12.0
2023-08-16 11:33:02.621846,-14.0
2023-08-16 11:33:02.629535,-26.0
2023-08-16 11:33:02.637224,-41.0
2023-08-16 11:33:02.644914,-69.0
2023-08-16 11:33:02.652603,-82.0
2023-08-16 11:33:02.660292,-77.0
2023-08-16 11:33:02.667981,-72.0
2023-08-16 11:33:02.675671,-67.0
2023-08-16 11:33:02.683360,-62.0
2023-08-16 11:33:02.691049,-62.0
2023-08-16 11:33:02.698739,-55.0
2023-08-16 11:33:02.706428,4.0
2023-08-16 11:33:02.714117,287.0
2023-08-16 11:33:02.721806,953.0
2023-08-16 11:33:02.729496,1479.0
2023-08-16 11:33:02.737185,1126.0
2023-08-16 11:33:02.744874,180.0
2023-08-16 11:33:02.752564,-398.0
2023-08-16 11:33:02.760253,-263.0
2023-08-16 11:33:02.767942,-48.0
2023-08-16 11:33:02.775631,-147.0
2023-08-16 11:33:02.783321,-205.0
2023-08-16 11:33:02.791010,-137.0
2023-08-16 11:33:02.798699,-132.0
2023-08-16 11:33:02.806389,-147.0
2023-08-16 11:33:02.814078,-113.0
2023-08-16 11:33:02.821767,-101.0
2023-08-16 11:33:02.829457,-103.0
2023-08-16 11:33:02.837146,-84.0
2023-08-16 11:33:02.844835,-60.0
2023-08-16 11:33:02.852524,-48.0
2023-08-16 11:33:02.860214,-28.0
2023-08-16 11:33:02.867903,-4.0
2023-08-16 11:33:02.875592,14.0
2023-08-16 11:33:02.883282,38.0
2023-08-16 11:33:02.890971,67.0
2023-08-16 11:33:02.898660,98.0
2023-08-16 11:33:02.906349,130.0
2023-08-16 11:33:02.914039,168.0
2023-08-16 11:33:02.921728,205.0
2023-08-16 11:33:02.929417,234.0
2023-08-16 11:33:02.937107,263.0
2023-08-16 11:33:02.944796,299.0
2023-08-16 11:33:02.952485,320.0
2023-08-16 11:33:02.960174,320.0
2023-08-16 11:33:02.967864,306.0
2023-08-16 11:33:02.975553,279.0
2023-08-16 11:33:02.983242,234.0
2023-08-16 11:33:02.990932,166.0
2023-08-16 11:33:02.998621,79.0
2023-08-16 11:33:03.006310,-14.0
2023-08-16 11:33:03.014000,-96.0
2023-08-16 11:33:03.021689,-164.0
2023-08-16 11:33:03.029378,-212.0
2023-08-16 11:33:03.037067,-248.0
2023-08-16 11:33:03.044757,-272.0
2023-08-16 11:33:03.052446,-284.0
2023-08-16 11:33:03.060135,-284.0
2023-08-16 11:33:03.067825,-277.0
2023-08-16 11:33:03.075514,-265.0
2023-08-16 11:33:03.083203,-253.0
2023-08-16 11:33:03.090892,-246.0
2023-08-16 11:33:03.098582,-238.0
2023-08-16 11:33:03.106271,-229.0
2023-08-16 11:33:03.113960,-217.0
2023-08-16 11:33:03.121650,-207.0
2023-08-16 11:33:03.129339,-200.0
2023-08-16 11:33:03.137028,-190.0
2023-08-16 11:33:03.144717,-180.0
2023-08-16 11:33:03.152407,-176.0
2023-08-16 11:33:03.160096,-176.0
2023-08-16 11:33:03.167785,-173.0
2023-08-16 11:33:03.175475,-171.0
2023-08-16 11:33:03.183164,-166.0
2023-08-16 11:33:03.190853,-164.0
2023-08-16 11:33:03.198543,-161.0
2023-08-16 11:33:03.206232,-156.0
2023-08-16 11:33:03.213921,-154.0
2023-08-16 11:33:03.221610,-152.0
2023-08-16 11:33:03.229300,-149.0
2023-08-16 11:33:03.236989,-154.0
2023-08-16 11:33:03.244678,-159.0
2023-08-16 11:33:03.252368,-156.0
2023-08-16 11:33:03.260057,-149.0
2023-08-16 11:33:03.267746,-144.0
2023-08-16 11:33:03.275435,-147.0
2023-08-16 11:33:03.283125,-147.0
2023-08-16 11:33:03.290814,-144.0
2023-08-16 11:33:03.298503,-139.0
2023-08-16 11:33:03.306193,-142.0
2023-08-16 11:33:03.313882,-144.0
2023-08-16 11:33:03.321571,-137.0
2023-08-16 11:33:03.329260,-130.0
2023-08-16 11:33:03.336950,-135.0
2023-08-16 11:33:03.344639,-135.0
2023-08-16 11:33:03.352328,-125.0
2023-08-16 11:33:03.360018,-127.0
2023-08-16 11:33:03.367707,-135.0
2023-08-16 11:33:03.375396,-132.0
2023-08-16 11:33:03.383086,-130.0
2023-08-16 11:33:03.390775,-125.0
2023-08-16 11:33:03.398464,-120.0
2023-08-16 11:33:03.406153,-125.0
2023-08-16 11:33:03.413843,-127.0
2023-08-16 11:33:03.421532,-120.0
2023-08-16 11:33:03.429221,-120.0
2023-08-16 11:33:03.436911,-120.0
2023-08-16 11:33:03.444600,-115.0
2023-08-16 11:33:03.452289,-115.0
2023-08-16 11:33:03.459978,-118.0
2023-08-16 11:33:03.467668,-123.0
2023-08-16 11:33:03.475357,-127.0
2023-08-16 11:33:03.483046,-125.0
2023-08-16 11:33:03.490736,-115.0
2023-08-16 11:33:03.498425,-108.0
2023-08-16 11:33:03.506114,-113.0
2023-08-16 11:33:03.513803,-115.0
2023-08-16 11:33:03.521493,-115.0
2023-08-16 11:33:03.529182,-115.0
2023-08-16 11:33:03.536871,-113.0
2023-08-16 11:33:03.544561,-106.0
2023-08-16 11:33:03.552250,-110.0
2023-08-16 11:33:03.559939,-120.0
2023-08-16 11:33:03.567629,-120.0
2023-08-16 11:33:03.575318,-110.0
2023-08-16 11:33:03.583007,-98.0
2023-08-16 11:33:03.590696,-77.0
2023-08-16 11:33:03.598386,-48.0
2023-08-16 11:33:03.606075,-31.0
2023-08-16 11:33:03.613764,-38.0
2023-08-16 11:33:03.621454,-45.0
2023-08-16 11:33:03.629143,-55.0
2023-08-16 11:33:03.636832,-82.0
2023-08-16 11:33:03.644521,-96.0
2023-08-16 11:33:03.652211,-86.0
2023-08-16 11:33:03.659900,-79.0
2023-08-16 11:33:03.667589,-77.0
2023-08-16 11:33:03.675279,-77.0
2023-08-16 11:33:03.682968,-72.0
2023-08-16 11:33:03.690657,-48.0
2023-08-16 11:33:03.698347,53.0
2023-08-16 11:33:03.706036,441.0
2023-08-16 11:33:03.713725,1141.0
2023-08-16 11:33:03.721414,1445.0
2023-08-16 11:33:03.729104,820.0
2023-08-16 11:33:03.736793,-120.0
2023-08-16 11:33:03.744482,-468.0
2023-08-16 11:33:03.752172,-190.0
2023-08-16 11:33:03.759861,-50.0
2023-08-16 11:33:03.767550,-185.0
2023-08-16 11:33:03.775239,-185.0
2023-08-16 11:33:03.782929,-115.0
2023-08-16 11:33:03.790618,-132.0
2023-08-16 11:33:03.798307,-135.0
2023-08-16 11:33:03.805997,-98.0
2023-08-16 11:33:03.813686,-84.0
2023-08-16 11:33:03.821375,-79.0
2023-08-16 11:33:03.829064,-65.0
2023-08-16 11:33:03.836754,-50.0
2023-08-16 11:33:03.844443,-33.0
2023-08-16 11:33:03.852132,-12.0
2023-08-16 11:33:03.859822,4.0
2023-08-16 11:33:03.867511,28.0
2023-08-16 11:33:03.875200,60.0
2023-08-16 11:33:03.882890,89.0
2023-08-16 11:33:03.890579,115.0
2023-08-16 11:33:03.898268,149.0
2023-08-16 11:33:03.905957,193.0
2023-08-16 11:33:03.913647,234.0
2023-08-16 11:33:03.921336,270.0
2023-08-16 11:33:03.929025,308.0
2023-08-16 11:33:03.936715,342.0
2023-08-16 11:33:03.944404,357.0
2023-08-16 11:33:03.952093,357.0
2023-08-16 11:33:03.959782,337.0
2023-08-16 11:33:03.967472,296.0
2023-08-16 11:33:03.975161,234.0
2023-08-16 11:33:03.982850,156.0
2023-08-16 11:33:03.990540,60.0
2023-08-16 11:33:03.998229,-43.0
2023-08-16 11:33:04.005918,-130.0
2023-08-16 11:33:04.013607,-195.0
2023-08-16 11:33:04.021297,-248.0
2023-08-16 11:33:04.028986,-279.0
2023-08-16 11:33:04.036675,-289.0
2023-08-16 11:33:04.044365,-291.0
2023-08-16 11:33:04.052054,-304.0
2023-08-16 11:33:04.059743,-304.0
2023-08-16 11:33:04.067433,-289.0
2023-08-16 11:33:04.075122,-275.0
2023-08-16 11:33:04.082811,-265.0
2023-08-16 11:33:04.090500,-253.0
2023-08-16 11:33:04.098190,-246.0
2023-08-16 11:33:04.105879,-236.0
2023-08-16 11:33:04.113568,-221.0
2023-08-16 11:33:04.121258,-212.0
2023-08-16 11:33:04.128947,-202.0
2023-08-16 11:33:04.136636,-195.0
2023-08-16 11:33:04.144325,-193.0
2023-08-16 11:33:04.152015,-193.0
2023-08-16 11:33:04.159704,-190.0
2023-08-16 11:33:04.167393,-183.0
2023-08-16 11:33:04.175083,-176.0
2023-08-16 11:33:04.182772,-176.0
2023-08-16 11:33:04.190461,-178.0
2023-08-16 11:33:04.198150,-178.0
2023-08-16 11:33:04.205840,-176.0
2023-08-16 11:33:04.213529,-171.0
2023-08-16 11:33:04.221218,-164.0
2023-08-16 11:33:04.228908,-161.0
2023-08-16 11:33:04.236597,-164.0
2023-08-16 11:33:04.244286,-164.0
2023-08-16 11:33:04.251976,-159.0
2023-08-16 11:33:04.259665,-154.0
2023-08-16 11:33:04.267354,-156.0
2023-08-16 11:33:04.275043,-159.0
2023-08-16 11:33:04.282733,-159.0
2023-08-16 11:33:04.290422,-156.0
2023-08-16 11:33:04.298111,-156.0
2023-08-16 11:33:04.305801,-152.0
2023-08-16 11:33:04.313490,-147.0
2023-08-16 11:33:04.321179,-147.0
2023-08-16 11:33:04.328868,-144.0
2023-08-16 11:33:04.336558,-147.0
2023-08-16 11:33:04.344247,-152.0
2023-08-16 11:33:04.351936,-147.0
2023-08-16 11:33:04.359626,-142.0
2023-08-16 11:33:04.367315,-142.0
2023-08-16 11:33:04.375004,-139.0
2023-08-16 11:33:04.382693,-132.0
2023-08-16 11:33:04.390383,-127.0
2023-08-16 11:33:04.398072,-125.0
2023-08-16 11:33:04.405761,-127.0
2023-08-16 11:33:04.413451,-127.0
2023-08-16 11:33:04.421140,-120.0
2023-08-16 11:33:04.428829,-115.0
2023-08-16 11:33:04.436519,-115.0
2023-08-16 11:33:04.444208,-118.0
2023-08-16 11:33:04.451897,-115.0
2023-08-16 11:33:04.459586,-110.0
2023-08-16 11:33:04.467276,-108.0
2023-08-16 11:33:04.474965,-103.0
2023-08-16 11:33:04.482654,-101.0
2023-08-16 11:33:04.490344,-98.0
2023-08-16 11:33:04.498033,-98.0
2023-08-16 11:33:04.505722,-98.0
2023-08-16 11:33:04.513411,-108.0
2023-08-16 11:33:04.521101,-115.0
2023-08-16 11:33:04.528790,-113.0
2023-08-16 11:33:04.536479,-106.0
2023-08-16 11:33:04.544169,-89.0
2023-08-16 11:33:04.551858,-55.0
2023-08-16 11:33:04.559547,-24.0
2023-08-16 11:33:04.567236,-21.0
2023-08-16 11:33:04.574926,-31.0
2023-08-16 11:33:04.582615,-45.0
2023-08-16 11:33:04.590304,-82.0
2023-08-16 11:33:04.597994,-108.0
2023-08-16 11:33:04.605683,-96.0
2023-08-16 11:33:04.613372,-86.0
2023-08-16 11:33:04.621062,-86.0
2023-08-16 11:33:04.628751,-82.0
2023-08-16 11:33:04.636440,-77.0
2023-08-16 11:33:04.644129,-69.0
2023-08-16 11:33:04.651819,-26.0
2023-08-16 11:33:04.659508,190.0
2023-08-16 11:33:04.667197,774.0
2023-08-16 11:33:04.674887,1385.0
2023-08-16 11:33:04.682576,1213.0
2023-08-16 11:33:04.690265,294.0
2023-08-16 11:33:04.697954,-393.0
2023-08-16 11:33:04.705644,-342.0
2023-08-16 11:33:04.713333,-69.0
2023-08-16 11:33:04.721022,-110.0
2023-08-16 11:33:04.728712,-202.0
2023-08-16 11:33:04.736401,-135.0
2023-08-16 11:33:04.744090,-113.0
2023-08-16 11:33:04.751779,-139.0
2023-08-16 11:33:04.759469,-113.0
2023-08-16 11:33:04.767158,-89.0
2023-08-16 11:33:04.774847,-86.0
2023-08-16 11:33:04.782537,-72.0
2023-08-16 11:33:04.790226,-50.0
2023-08-16 11:33:04.797915,-38.0
2023-08-16 11:33:04.805605,-21.0
2023-08-16 11:33:04.813294,2.0
2023-08-16 11:33:04.820983,21.0
2023-08-16 11:33:04.828672,45.0
2023-08-16 11:33:04.836362,74.0
2023-08-16 11:33:04.844051,98.0
2023-08-16 11:33:04.851740,127.0
2023-08-16 11:33:04.859430,164.0
2023-08-16 11:33:04.867119,202.0
2023-08-16 11:33:04.874808,243.0
2023-08-16 11:33:04.882497,279.0
2023-08-16 11:33:04.890187,308.0
2023-08-16 11:33:04.897876,330.0
2023-08-16 11:33:04.905565,337.0
2023-08-16 11:33:04.913255,325.0
2023-08-16 11:33:04.920944,296.0
2023-08-16 11:33:04.928633,250.0
2023-08-16 11:33:04.936322,185.0
2023-08-16 11:33:04.944012,96.0
2023-08-16 11:33:04.951701,0.0
2023-08-16 11:33:04.959390,-91.0
2023-08-16 11:33:04.967080,-164.0
2023-08-16 11:33:04.974769,-214.0
2023-08-16 11:33:04.982458,-250.0
2023-08-16 11:33:04.990148,-267.0
2023-08-16 11:33:04.997837,-275.0
2023-08-16 11:33:05.005526,-279.0
2023-08-16 11:33:05.013215,-277.0
2023-08-16 11:33:05.020905,-265.0
2023-08-16 11:33:05.028594,-253.0
2023-08-16 11:33:05.036283,-246.0
2023-08-16 11:33:05.043973,-238.0
2023-08-16 11:33:05.051662,-231.0
2023-08-16 11:33:05.059351,-224.0
2023-08-16 11:33:05.067040,-212.0
2023-08-16 11:33:05.074730,-202.0
2023-08-16 11:33:05.082419,-195.0
2023-08-16 11:33:05.090108,-188.0
2023-08-16 11:33:05.097798,-183.0
2023-08-16 11:33:05.105487,-178.0
2023-08-16 11:33:05.113176,-173.0
2023-08-16 11:33:05.120866,-168.0
2023-08-16 11:33:05.128555,-173.0
2023-08-16 11:33:05.136244,-178.0
2023-08-16 11:33:05.143933,-176.0
2023-08-16 11:33:05.151623,-168.0
2023-08-16 11:33:05.159312,-166.0
2023-08-16 11:33:05.167001,-168.0
2023-08-16 11:33:05.174691,-173.0
2023-08-16 11:33:05.182380,-180.0
2023-08-16 11:33:05.190069,-178.0
2023-08-16 11:33:05.197758,-173.0
2023-08-16 11:33:05.205448,-176.0
2023-08-16 11:33:05.213137,-176.0
2023-08-16 11:33:05.220826,-180.0
2023-08-16 11:33:05.228516,-185.0
2023-08-16 11:33:05.236205,-180.0
2023-08-16 11:33:05.243894,-173.0
2023-08-16 11:33:05.251583,-173.0
2023-08-16 11:33:05.259273,-173.0
2023-08-16 11:33:05.266962,-166.0
2023-08-16 11:33:05.274651,-161.0
2023-08-16 11:33:05.282341,-161.0
2023-08-16 11:33:05.290030,-156.0
2023-08-16 11:33:05.297719,-152.0
2023-08-16 11:33:05.305409,-149.0
2023-08-16 11:33:05.313098,-147.0
2023-08-16 11:33:05.320787,-142.0
2023-08-16 11:33:05.328476,-137.0
2023-08-16 11:33:05.336166,-135.0
2023-08-16 11:33:05.343855,-132.0
2023-08-16 11:33:05.351544,-135.0
2023-08-16 11:33:05.359234,-137.0
2023-08-16 11:33:05.366923,-132.0
2023-08-16 11:33:05.374612,-127.0
2023-08-16 11:33:05.382301,-125.0
2023-08-16 11:33:05.389991,-120.0
2023-08-16 11:33:05.397680,-120.0
2023-08-16 11:33:05.405369,-120.0
2023-08-16 11:33:05.413059,-115.0
2023-08-16 11:33:05.420748,-110.0
2023-08-16 11:33:05.428437,-106.0
2023-08-16 11:33:05.436126,-106.0
2023-08-16 11:33:05.443816,-106.0
2023-08-16 11:33:05.451505,-103.0
2023-08-16 11:33:05.459194,-101.0
2023-08-16 11:33:05.466884,-98.0
2023-08-16 11:33:05.474573,-94.0
2023-08-16 11:33:05.482262,-91.0
2023-08-16 11:33:05.489952,-94.0
2023-08-16 11:33:05.497641,-96.0
2023-08-16 11:33:05.505330,-94.0
2023-08-16 11:33:05.513019,-86.0
2023-08-16 11:33:05.520709,-86.0
2023-08-16 11:33:05.528398,-94.0
2023-08-16 11:33:05.536087,-103.0
2023-08-16 11:33:05.543777,-103.0
2023-08-16 11:33:05.551466,-89.0
2023-08-16 11:33:05.559155,-57.0
2023-08-16 11:33:05.566844,-19.0
2023-08-16 11:33:05.574534,-7.0
2023-08-16 11:33:05.582223,-16.0
2023-08-16 11:33:05.589912,-26.0
2023-08-16 11:33:05.597602,-48.0
2023-08-16 11:33:05.605291,-74.0
2023-08-16 11:33:05.612980,-77.0
2023-08-16 11:33:05.620669,-67.0
2023-08-16 11:33:05.628359,-69.0
2023-08-16 11:33:05.636048,-67.0
2023-08-16 11:33:05.643737,-60.0
2023-08-16 11:33:05.651427,-53.0
2023-08-16 11:33:05.659116,-33.0
2023-08-16 11:33:05.666805,65.0
2023-08-16 11:33:05.674495,470.0
2023-08-16 11:33:05.682184,1187.0
2023-08-16 11:33:05.689873,1454.0
2023-08-16 11:33:05.697562,789.0
2023-08-16 11:33:05.705252,-120.0
2023-08-16 11:33:05.712941,-424.0
2023-08-16 11:33:05.720630,-161.0
2023-08-16 11:33:05.728320,-57.0
2023-08-16 11:33:05.736009,-197.0
2023-08-16 11:33:05.743698,-185.0
2023-08-16 11:33:05.751387,-123.0
2023-08-16 11:33:05.759077,-144.0
2023-08-16 11:33:05.766766,-142.0
2023-08-16 11:33:05.774455,-103.0
2023-08-16 11:33:05.782145,-91.0
2023-08-16 11:33:05.789834,-86.0
2023-08-16 11:33:05.797523,-65.0
2023-08-16 11:33:05.805212,-48.0
2023-08-16 11:33:05.812902,-36.0
2023-08-16 11:33:05.820591,-14.0
2023-08-16 11:33:05.828280,9.0
2023-08-16 11:33:05.835970,31.0
2023-08-16 11:33:05.843659,55.0
2023-08-16 11:33:05.851348,84.0
2023-08-16 11:33:05.859038,106.0
2023-08-16 11:33:05.866727,137.0
2023-08-16 11:33:05.874416,178.0
2023-08-16 11:33:05.882105,219.0
2023-08-16 11:33:05.889795,253.0
2023-08-16 11:33:05.897484,284.0
2023-08-16 11:33:05.905173,311.0
2023-08-16 11:33:05.912863,325.0
2023-08-16 11:33:05.920552,325.0
2023-08-16 11:33:05.928241,306.0
2023-08-16 11:33:05.935930,270.0
2023-08-16 11:33:05.943620,217.0
2023-08-16 11:33:05.951309,144.0
2023-08-16 11:33:05.958998,57.0
2023-08-16 11:33:05.966688,-33.0
2023-08-16 11:33:05.974377,-115.0
2023-08-16 11:33:05.982066,-176.0
2023-08-16 11:33:05.989755,-221.0
2023-08-16 11:33:05.997445,-253.0
2023-08-16 11:33:06.005134,-267.0
2023-08-16 11:33:06.012823,-270.0
2023-08-16 11:33:06.020513,-270.0
2023-08-16 11:33:06.028202,-265.0
2023-08-16 11:33:06.035891,-260.0
2023-08-16 11:33:06.043581,-248.0
2023-08-16 11:33:06.051270,-238.0
2023-08-16 11:33:06.058959,-229.0
2023-08-16 11:33:06.066648,-219.0
2023-08-16 11:33:06.074338,-212.0
2023-08-16 11:33:06.082027,-205.0
2023-08-16 11:33:06.089716,-197.0
2023-08-16 11:33:06.097406,-188.0
2023-08-16 11:33:06.105095,-180.0
2023-08-16 11:33:06.112784,-178.0
2023-08-16 11:33:06.120473,-176.0
2023-08-16 11:33:06.128163,-171.0
2023-08-16 11:33:06.135852,-166.0
2023-08-16 11:33:06.143541,-161.0
2023-08-16 11:33:06.151231,-161.0
2023-08-16 11:33:06.158920,-164.0
2023-08-16 11:33:06.166609,-164.0
2023-08-16 11:33:06.174298,-164.0
2023-08-16 11:33:06.181988,-164.0
2023-08-16 11:33:06.189677,-161.0
2023-08-16 11:33:06.197366,-159.0
2023-08-16 11:33:06.205056,-159.0
2023-08-16 11:33:06.212745,-159.0
2023-08-16 11:33:06.220434,-159.0
2023-08-16 11:33:06.228124,-156.0
2023-08-16 11:33:06.235813,-159.0
2023-08-16 11:33:06.243502,-159.0
2023-08-16 11:33:06.251191,-159.0
2023-08-16 11:33:06.258881,-164.0
2023-08-16 11:33:06.266570,-164.0
2023-08-16 11:33:06.274259,-159.0
2023-08-16 11:33:06.281949,-152.0
2023-08-16 11:33:06.289638,-149.0
2023-08-16 11:33:06.297327,-144.0
2023-08-16 11:33:06.305016,-142.0
2023-08-16 11:33:06.312706,-142.0
2023-08-16 11:33:06.320395,-139.0
2023-08-16 11:33:06.328084,-135.0
2023-08-16 11:33:06.335774,-130.0
2023-08-16 11:33:06.343463,-127.0
2023-08-16 11:33:06.351152,-125.0
2023-08-16 11:33:06.358842,-120.0
2023-08-16 11:33:06.366531,-118.0
2023-08-16 11:33:06.374220,-115.0
2023-08-16 11:33:06.381909,-110.0
2023-08-16 11:33:06.389599,-110.0
2023-08-16 11:33:06.397288,-110.0
2023-08-16 11:33:06.404977,-108.0
2023-08-16 11:33:06.412667,-103.0
2023-08-16 11:33:06.420356,-103.0
2023-08-16 11:33:06.428045,-101.0
2023-08-16 11:33:06.435734,-98.0
2023-08-16 11:33:06.443424,-91.0
2023-08-16 11:33:06.451113,-89.0
2023-08-16 11:33:06.458802,-91.0
2023-08-16 11:33:06.466492,-96.0
2023-08-16 11:33:06.474181,-94.0
2023-08-16 11:33:06.481870,-91.0
2023-08-16 11:33:06.489559,-91.0
2023-08-16 11:33:06.497249,-89.0
2023-08-16 11:33:06.504938,-84.0
2023-08-16 11:33:06.512627,-86.0
2023-08-16 11:33:06.520317,-84.0
2023-08-16 11:33:06.528006,-79.0
2023-08-16 11:33:06.535695,-77.0
2023-08-16 11:33:06.543385,-82.0
2023-08-16 11:33:06.551074,-86.0
2023-08-16 11:33:06.558763,-94.0
2023-08-16 11:33:06.566452,-96.0
2023-08-16 11:33:06.574142,-94.0
2023-08-16 11:33:06.581831,-84.0
2023-08-16 11:33:06.589520,-53.0
2023-08-16 11:33:06.597210,-19.0
2023-08-16 11:33:06.604899,-9.0
2023-08-16 11:33:06.612588,-16.0
2023-08-16 11:33:06.620277,-31.0
2023-08-16 11:33:06.627967,-60.0
2023-08-16 11:33:06.635656,-84.0
2023-08-16 11:33:06.643345,-79.0
2023-08-16 11:33:06.651035,-72.0
2023-08-16 11:33:06.658724,-74.0
2023-08-16 11:33:06.666413,-69.0
2023-08-16 11:33:06.674102,-65.0
2023-08-16 11:33:06.681792,-57.0
2023-08-16 11:33:06.689481,-24.0
2023-08-16 11:33:06.697170,137.0
2023-08-16 11:33:06.704860,653.0
2023-08-16 11:33:06.712549,1343.0
2023-08-16 11:33:06.720238,1368.0
2023-08-16 11:33:06.727928,523.0
2023-08-16 11:33:06.735617,-291.0
2023-08-16 11:33:06.743306,-383.0
2023-08-16 11:33:06.750995,-94.0
2023-08-16 11:33:06.758685,-86.0
2023-08-16 11:33:06.766374,-212.0
2023-08-16 11:33:06.774063,-161.0
2023-08-16 11:33:06.781753,-120.0
2023-08-16 11:33:06.789442,-144.0
2023-08-16 11:33:06.797131,-127.0
2023-08-16 11:33:06.804820,-94.0
2023-08-16 11:33:06.812510,-89.0
2023-08-16 11:33:06.820199,-79.0
2023-08-16 11:33:06.827888,-57.0
2023-08-16 11:33:06.835578,-43.0
2023-08-16 11:33:06.843267,-36.0
2023-08-16 11:33:06.850956,-19.0
2023-08-16 11:33:06.858645,4.0
2023-08-16 11:33:06.866335,28.0
2023-08-16 11:33:06.874024,55.0
2023-08-16 11:33:06.881713,84.0
2023-08-16 11:33:06.889403,115.0
2023-08-16 11:33:06.897092,152.0
2023-08-16 11:33:06.904781,190.0
2023-08-16 11:33:06.912471,229.0
2023-08-16 11:33:06.920160,260.0
2023-08-16 11:33:06.927849,291.0
2023-08-16 11:33:06.935538,316.0
2023-08-16 11:33:06.943228,328.0
2023-08-16 11:33:06.950917,323.0
2023-08-16 11:33:06.958606,299.0
2023-08-16 11:33:06.966296,258.0
2023-08-16 11:33:06.973985,195.0
2023-08-16 11:33:06.981674,118.0
2023-08-16 11:33:06.989363,26.0
2023-08-16 11:33:06.997053,-65.0
2023-08-16 11:33:07.004742,-144.0
2023-08-16 11:33:07.012431,-202.0
2023-08-16 11:33:07.020121,-238.0
2023-08-16 11:33:07.027810,-265.0
2023-08-16 11:33:07.035499,-279.0
2023-08-16 11:33:07.043188,-279.0
2023-08-16 11:33:07.050878,-275.0
2023-08-16 11:33:07.058567,-275.0
2023-08-16 11:33:07.066256,-270.0
2023-08-16 11:33:07.073946,-255.0
2023-08-16 11:33:07.081635,-248.0
2023-08-16 11:33:07.089324,-246.0
2023-08-16 11:33:07.097014,-238.0
2023-08-16 11:33:07.104703,-226.0
2023-08-16 11:33:07.112392,-219.0
2023-08-16 11:33:07.120081,-209.0
2023-08-16 11:33:07.127771,-200.0
2023-08-16 11:33:07.135460,-197.0
2023-08-16 11:33:07.143149,-188.0
2023-08-16 11:33:07.150839,-183.0
2023-08-16 11:33:07.158528,-183.0
2023-08-16 11:33:07.166217,-183.0
2023-08-16 11:33:07.173906,-178.0
2023-08-16 11:33:07.181596,-176.0
2023-08-16 11:33:07.189285,-178.0
2023-08-16 11:33:07.196974,-183.0
2023-08-16 11:33:07.204664,-183.0
2023-08-16 11:33:07.212353,-178.0
2023-08-16 11:33:07.220042,-176.0
2023-08-16 11:33:07.227731,-176.0
2023-08-16 11:33:07.235421,-171.0
2023-08-16 11:33:07.243110,-178.0
2023-08-16 11:33:07.250799,-183.0
2023-08-16 11:33:07.258489,-173.0
2023-08-16 11:33:07.266178,-166.0
2023-08-16 11:33:07.273867,-164.0
2023-08-16 11:33:07.281557,-159.0
2023-08-16 11:33:07.289246,-159.0
2023-08-16 11:33:07.296935,-161.0
2023-08-16 11:33:07.304624,-156.0
2023-08-16 11:33:07.312314,-144.0
2023-08-16 11:33:07.320003,-144.0
2023-08-16 11:33:07.327692,-149.0
2023-08-16 11:33:07.335382,-142.0
2023-08-16 11:33:07.343071,-137.0
2023-08-16 11:33:07.350760,-137.0
2023-08-16 11:33:07.358449,-130.0
2023-08-16 11:33:07.366139,-123.0
2023-08-16 11:33:07.373828,-127.0
2023-08-16 11:33:07.381517,-137.0
2023-08-16 11:33:07.389207,-137.0
2023-08-16 11:33:07.396896,-127.0
2023-08-16 11:33:07.404585,-130.0
2023-08-16 11:33:07.412274,-130.0
2023-08-16 11:33:07.419964,-125.0
2023-08-16 11:33:07.427653,-120.0
2023-08-16 11:33:07.435342,-115.0
2023-08-16 11:33:07.443032,-115.0
2023-08-16 11:33:07.450721,-115.0
2023-08-16 11:33:07.458410,-113.0
2023-08-16 11:33:07.466100,-113.0
2023-08-16 11:33:07.473789,-118.0
2023-08-16 11:33:07.481478,-113.0
2023-08-16 11:33:07.489167,-101.0
2023-08-16 11:33:07.496857,-103.0
2023-08-16 11:33:07.504546,-113.0
2023-08-16 11:33:07.512235,-106.0
2023-08-16 11:33:07.519925,-98.0
2023-08-16 11:33:07.527614,-98.0
2023-08-16 11:33:07.535303,-103.0
2023-08-16 11:33:07.542992,-108.0
2023-08-16 11:33:07.550682,-106.0
2023-08-16 11:33:07.558371,-94.0
2023-08-16 11:33:07.566060,-65.0
2023-08-16 11:33:07.573750,-28.0
2023-08-16 11:33:07.581439,-21.0
2023-08-16 11:33:07.589128,-38.0
2023-08-16 11:33:07.596817,-50.0
2023-08-16 11:33:07.604507,-74.0
2023-08-16 11:33:07.612196,-98.0
2023-08-16 11:33:07.619885,-94.0
2023-08-16 11:33:07.627575,-86.0
2023-08-16 11:33:07.635264,-91.0
2023-08-16 11:33:07.642953,-84.0
2023-08-16 11:33:07.650643,-74.0
2023-08-16 11:33:07.658332,-67.0
2023-08-16 11:33:07.666021,-9.0
2023-08-16 11:33:07.673710,241.0
2023-08-16 11:33:07.681400,839.0
2023-08-16 11:33:07.689089,1401.0
2023-08-16 11:33:07.696778,1141.0
2023-08-16 11:33:07.704468,173.0
2023-08-16 11:33:07.712157,-468.0
2023-08-16 11:33:07.719846,-342.0
2023-08-16 11:33:07.727535,-72.0
2023-08-16 11:33:07.735225,-132.0
2023-08-16 11:33:07.742914,-205.0
2023-08-16 11:33:07.750603,-132.0
2023-08-16 11:33:07.758293,-118.0
2023-08-16 11:33:07.765982,-135.0
2023-08-16 11:33:07.773671,-106.0
2023-08-16 11:33:07.781361,-89.0
2023-08-16 11:33:07.789050,-82.0
2023-08-16 11:33:07.796739,-60.0
2023-08-16 11:33:07.804428,-45.0
2023-08-16 11:33:07.812118,-36.0
2023-08-16 11:33:07.819807,-12.0
2023-08-16 11:33:07.827496,9.0
2023-08-16 11:33:07.835186,26.0
2023-08-16 11:33:07.842875,53.0
2023-08-16 11:33:07.850564,79.0
2023-08-16 11:33:07.858253,108.0
2023-08-16 11:33:07.865943,142.0
2023-08-16 11:33:07.873632,178.0
2023-08-16 11:33:07.881321,219.0
2023-08-16 11:33:07.889011,258.0
2023-08-16 11:33:07.896700,294.0
2023-08-16 11:33:07.904389,325.0
2023-08-16 11:33:07.912078,345.0
2023-08-16 11:33:07.919768,347.0
2023-08-16 11:33:07.927457,337.0
2023-08-16 11:33:07.935146,308.0
2023-08-16 11:33:07.942836,255.0
2023-08-16 11:33:07.950525,185.0
2023-08-16 11:33:07.958214,91.0
2023-08-16 11:33:07.965904,-24.0
2023-08-16 11:33:07.973593,-127.0
2023-08-16 11:33:07.981282,-193.0
2023-08-16 11:33:07.988971,-238.0
2023-08-16 11:33:07.996661,-272.0
2023-08-16 11:33:08.004350,-296.0
2023-08-16 11:33:08.012039,-316.0
2023-08-16 11:33:08.019729,-320.0
2023-08-16 11:33:08.027418,-308.0
2023-08-16 11:33:08.035107,-294.0
2023-08-16 11:33:08.042796,-291.0
2023-08-16 11:33:08.050486,-284.0
2023-08-16 11:33:08.058175,-272.0
2023-08-16 11:33:08.065864,-260.0
2023-08-16 11:33:08.073554,-250.0
2023-08-16 11:33:08.081243,-238.0
2023-08-16 11:33:08.088932,-236.0
2023-08-16 11:33:08.096621,-236.0
2023-08-16 11:33:08.104311,-229.0
2023-08-16 11:33:08.112000,-217.0
2023-08-16 11:33:08.119689,-209.0
2023-08-16 11:33:08.127379,-205.0
2023-08-16 11:33:08.135068,-200.0
2023-08-16 11:33:08.142757,-197.0
2023-08-16 11:33:08.150447,-195.0
2023-08-16 11:33:08.158136,-190.0
2023-08-16 11:33:08.165825,-190.0
2023-08-16 11:33:08.173514,-188.0
2023-08-16 11:33:08.181204,-188.0
2023-08-16 11:33:08.188893,-188.0
2023-08-16 11:33:08.196582,-193.0
2023-08-16 11:33:08.204272,-195.0
2023-08-16 11:33:08.211961,-193.0
2023-08-16 11:33:08.219650,-185.0
2023-08-16 11:33:08.227339,-180.0
2023-08-16 11:33:08.235029,-178.0
2023-08-16 11:33:08.242718,-180.0
2023-08-16 11:33:08.250407,-176.0
2023-08-16 11:33:08.258097,-171.0
2023-08-16 11:33:08.265786,-166.0
2023-08-16 11:33:08.273475,-161.0
2023-08-16 11:33:08.281164,-159.0
2023-08-16 11:33:08.288854,-159.0
2023-08-16 11:33:08.296543,-156.0
2023-08-16 11:33:08.304232,-149.0
2023-08-16 11:33:08.311922,-144.0
2023-08-16 11:33:08.319611,-139.0
2023-08-16 11:33:08.327300,-139.0
2023-08-16 11:33:08.334990,-135.0
2023-08-16 11:33:08.342679,-132.0
2023-08-16 11:33:08.350368,-127.0
2023-08-16 11:33:08.358057,-123.0
2023-08-16 11:33:08.365747,-120.0
2023-08-16 11:33:08.373436,-120.0
2023-08-16 11:33:08.381125,-120.0
2023-08-16 11:33:08.388815,-115.0
2023-08-16 11:33:08.396504,-110.0
2023-08-16 11:33:08.404193,-110.0
2023-08-16 11:33:08.411882,-106.0
2023-08-16 11:33:08.419572,-103.0
2023-08-16 11:33:08.427261,-103.0
2023-08-16 11:33:08.434950,-101.0
2023-08-16 11:33:08.442640,-101.0
2023-08-16 11:33:08.450329,-101.0
2023-08-16 11:33:08.458018,-101.0
2023-08-16 11:33:08.465707,-98.0
2023-08-16 11:33:08.473397,-98.0
2023-08-16 11:33:08.481086,-106.0
2023-08-16 11:33:08.488775,-113.0
2023-08-16 11:33:08.496465,-110.0
2023-08-16 11:33:08.504154,-96.0
2023-08-16 11:33:08.511843,-65.0
2023-08-16 11:33:08.519533,-31.0
2023-08-16 11:33:08.527222,-24.0
2023-08-16 11:33:08.534911,-33.0
2023-08-16 11:33:08.542600,-45.0
2023-08-16 11:33:08.550290,-74.0
2023-08-16 11:33:08.557979,-96.0
2023-08-16 11:33:08.565668,-94.0
2023-08-16 11:33:08.573358,-86.0
2023-08-16 11:33:08.581047,-84.0
2023-08-16 11:33:08.588736,-79.0
2023-08-16 11:33:08.596425,-79.0
2023-08-16 11:33:08.604115,-72.0
2023-08-16 11:33:08.611804,-24.0
2023-08-16 11:33:08.619493,193.0
2023-08-16 11:33:08.627183,781.0
2023-08-16 11:33:08.634872,1385.0
2023-08-16 11:33:08.642561,1187.0
2023-08-16 11:33:08.650250,250.0
2023-08-16 11:33:08.657940,-410.0
2023-08-16 11:33:08.665629,-323.0
2023-08-16 11:33:08.673318,-65.0
2023-08-16 11:33:08.681008,-120.0
2023-08-16 11:33:08.688697,-202.0
2023-08-16 11:33:08.696386,-137.0
2023-08-16 11:33:08.704076,-123.0
2023-08-16 11:33:08.711765,-142.0
2023-08-16 11:33:08.719454,-113.0
2023-08-16 11:33:08.727143,-89.0
2023-08-16 11:33:08.734833,-84.0
2023-08-16 11:33:08.742522,-69.0
2023-08-16 11:33:08.750211,-48.0
2023-08-16 11:33:08.757901,-33.0
2023-08-16 11:33:08.765590,-16.0
2023-08-16 11:33:08.773279,2.0
2023-08-16 11:33:08.780968,24.0
2023-08-16 11:33:08.788658,50.0
2023-08-16 11:33:08.796347,79.0
2023-08-16 11:33:08.804036,110.0
2023-08-16 11:33:08.811726,142.0
