time,ECG
2023-08-15 17:46:20.519532,-80.0
2023-08-15 17:46:20.527221,-92.0
2023-08-15 17:46:20.534911,-88.0
2023-08-15 17:46:20.542601,-71.0
2023-08-15 17:46:20.550290,-66.0
2023-08-15 17:46:20.557980,-59.0
2023-08-15 17:46:20.565669,-40.0
2023-08-15 17:46:20.573359,-28.0
2023-08-15 17:46:20.581049,-16.0
2023-08-15 17:46:20.588738,2.0
2023-08-15 17:46:20.596428,19.0
2023-08-15 17:46:20.604118,28.0
2023-08-15 17:46:20.611807,47.0
2023-08-15 17:46:20.619497,73.0
2023-08-15 17:46:20.627186,90.0
2023-08-15 17:46:20.634876,107.0
2023-08-15 17:46:20.642566,123.0
2023-08-15 17:46:20.650255,135.0
2023-08-15 17:46:20.657945,138.0
2023-08-15 17:46:20.665634,138.0
2023-08-15 17:46:20.673324,130.0
2023-08-15 17:46:20.681014,109.0
2023-08-15 17:46:20.688703,73.0
2023-08-15 17:46:20.696393,28.0
2023-08-15 17:46:20.704083,-19.0
2023-08-15 17:46:20.711772,-61.0
2023-08-15 17:46:20.719462,-92.0
2023-08-15 17:46:20.727151,-116.0
2023-08-15 17:46:20.734841,-133.0
2023-08-15 17:46:20.742531,-142.0
2023-08-15 17:46:20.750220,-149.0
2023-08-15 17:46:20.757910,-149.0
2023-08-15 17:46:20.765599,-145.0
2023-08-15 17:46:20.773289,-145.0
2023-08-15 17:46:20.780979,-145.0
2023-08-15 17:46:20.788668,-135.0
2023-08-15 17:46:20.796358,-130.0
2023-08-15 17:46:20.804048,-123.0
2023-08-15 17:46:20.811737,-116.0
2023-08-15 17:46:20.819427,-114.0
2023-08-15 17:46:20.827116,-111.0
2023-08-15 17:46:20.834806,-109.0
2023-08-15 17:46:20.842496,-107.0
2023-08-15 17:46:20.850185,-107.0
2023-08-15 17:46:20.857875,-107.0
2023-08-15 17:46:20.865564,-107.0
2023-08-15 17:46:20.873254,-104.0
2023-08-15 17:46:20.880944,-107.0
2023-08-15 17:46:20.888633,-114.0
2023-08-15 17:46:20.896323,-111.0
2023-08-15 17:46:20.904013,-109.0
2023-08-15 17:46:20.911702,-114.0
2023-08-15 17:46:20.919392,-116.0
2023-08-15 17:46:20.927081,-114.0
2023-08-15 17:46:20.934771,-109.0
2023-08-15 17:46:20.942461,-102.0
2023-08-15 17:46:20.950150,-102.0
2023-08-15 17:46:20.957840,-97.0
2023-08-15 17:46:20.965529,-78.0
2023-08-15 17:46:20.973219,-61.0
2023-08-15 17:46:20.980909,-71.0
2023-08-15 17:46:20.988598,-90.0
2023-08-15 17:46:20.996288,-114.0
2023-08-15 17:46:21.003978,-128.0
2023-08-15 17:46:21.011667,-123.0
2023-08-15 17:46:21.019357,-116.0
2023-08-15 17:46:21.027046,-126.0
2023-08-15 17:46:21.034736,-116.0
2023-08-15 17:46:21.042426,-19.0
2023-08-15 17:46:21.050115,230.0
2023-08-15 17:46:21.057805,495.0
2023-08-15 17:46:21.065494,411.0
2023-08-15 17:46:21.073184,-111.0
2023-08-15 17:46:21.080874,-573.0
2023-08-15 17:46:21.088563,-507.0
2023-08-15 17:46:21.096253,-171.0
2023-08-15 17:46:21.103943,-61.0
2023-08-15 17:46:21.111632,-116.0
2023-08-15 17:46:21.119322,-99.0
2023-08-15 17:46:21.127011,-69.0
2023-08-15 17:46:21.134701,-85.0
2023-08-15 17:46:21.142391,-83.0
2023-08-15 17:46:21.150080,-64.0
2023-08-15 17:46:21.157770,-59.0
2023-08-15 17:46:21.165459,-52.0
2023-08-15 17:46:21.173149,-35.0
2023-08-15 17:46:21.180839,-21.0
2023-08-15 17:46:21.188528,-9.0
2023-08-15 17:46:21.196218,7.0
2023-08-15 17:46:21.203908,26.0
2023-08-15 17:46:21.211597,40.0
2023-08-15 17:46:21.219287,61.0
2023-08-15 17:46:21.226976,83.0
2023-08-15 17:46:21.234666,104.0
2023-08-15 17:46:21.242356,123.0
2023-08-15 17:46:21.250045,140.0
2023-08-15 17:46:21.257735,149.0
2023-08-15 17:46:21.265424,152.0
2023-08-15 17:46:21.273114,152.0
2023-08-15 17:46:21.280804,138.0
2023-08-15 17:46:21.288493,114.0
2023-08-15 17:46:21.296183,78.0
2023-08-15 17:46:21.303873,30.0
2023-08-15 17:46:21.311562,-19.0
2023-08-15 17:46:21.319252,-64.0
2023-08-15 17:46:21.326941,-97.0
2023-08-15 17:46:21.334631,-116.0
2023-08-15 17:46:21.342321,-130.0
2023-08-15 17:46:21.350010,-138.0
2023-08-15 17:46:21.357700,-142.0
2023-08-15 17:46:21.365389,-142.0
2023-08-15 17:46:21.373079,-142.0
2023-08-15 17:46:21.380769,-140.0
2023-08-15 17:46:21.388458,-138.0
2023-08-15 17:46:21.396148,-135.0
2023-08-15 17:46:21.403838,-128.0
2023-08-15 17:46:21.411527,-126.0
2023-08-15 17:46:21.419217,-119.0
2023-08-15 17:46:21.426906,-111.0
2023-08-15 17:46:21.434596,-109.0
2023-08-15 17:46:21.442286,-107.0
2023-08-15 17:46:21.449975,-104.0
2023-08-15 17:46:21.457665,-99.0
2023-08-15 17:46:21.465354,-97.0
2023-08-15 17:46:21.473044,-95.0
2023-08-15 17:46:21.480734,-99.0
2023-08-15 17:46:21.488423,-104.0
2023-08-15 17:46:21.496113,-111.0
2023-08-15 17:46:21.503803,-121.0
2023-08-15 17:46:21.511492,-121.0
2023-08-15 17:46:21.519182,-116.0
2023-08-15 17:46:21.526871,-119.0
2023-08-15 17:46:21.534561,-123.0
2023-08-15 17:46:21.542251,-126.0
2023-08-15 17:46:21.549940,-126.0
2023-08-15 17:46:21.557630,-123.0
2023-08-15 17:46:21.565319,-121.0
2023-08-15 17:46:21.573009,-121.0
2023-08-15 17:46:21.580699,-116.0
2023-08-15 17:46:21.588388,-107.0
2023-08-15 17:46:21.596078,-102.0
2023-08-15 17:46:21.603768,-97.0
2023-08-15 17:46:21.611457,-78.0
2023-08-15 17:46:21.619147,-64.0
2023-08-15 17:46:21.626836,-73.0
2023-08-15 17:46:21.634526,-99.0
2023-08-15 17:46:21.642216,-119.0
2023-08-15 17:46:21.649905,-119.0
2023-08-15 17:46:21.657595,-109.0
2023-08-15 17:46:21.665284,-107.0
2023-08-15 17:46:21.672974,-109.0
2023-08-15 17:46:21.680664,-92.0
2023-08-15 17:46:21.688353,7.0
2023-08-15 17:46:21.696043,259.0
2023-08-15 17:46:21.703733,518.0
2023-08-15 17:46:21.711422,416.0
2023-08-15 17:46:21.719112,-114.0
2023-08-15 17:46:21.726801,-580.0
2023-08-15 17:46:21.734491,-499.0
2023-08-15 17:46:21.742181,-138.0
2023-08-15 17:46:21.749870,-33.0
2023-08-15 17:46:21.757560,-109.0
2023-08-15 17:46:21.765249,-90.0
2023-08-15 17:46:21.772939,-52.0
2023-08-15 17:46:21.780629,-69.0
2023-08-15 17:46:21.788318,-64.0
2023-08-15 17:46:21.796008,-45.0
2023-08-15 17:46:21.803698,-42.0
2023-08-15 17:46:21.811387,-38.0
2023-08-15 17:46:21.819077,-23.0
2023-08-15 17:46:21.826766,-9.0
2023-08-15 17:46:21.834456,2.0
2023-08-15 17:46:21.842146,19.0
2023-08-15 17:46:21.849835,35.0
2023-08-15 17:46:21.857525,49.0
2023-08-15 17:46:21.865214,64.0
2023-08-15 17:46:21.872904,83.0
2023-08-15 17:46:21.880594,104.0
2023-08-15 17:46:21.888283,126.0
2023-08-15 17:46:21.895973,140.0
2023-08-15 17:46:21.903663,147.0
2023-08-15 17:46:21.911352,157.0
2023-08-15 17:46:21.919042,159.0
2023-08-15 17:46:21.926731,152.0
2023-08-15 17:46:21.934421,133.0
2023-08-15 17:46:21.942111,97.0
2023-08-15 17:46:21.949800,47.0
2023-08-15 17:46:21.957490,-4.0
2023-08-15 17:46:21.965179,-47.0
2023-08-15 17:46:21.972869,-80.0
2023-08-15 17:46:21.980559,-109.0
2023-08-15 17:46:21.988248,-126.0
2023-08-15 17:46:21.995938,-135.0
2023-08-15 17:46:22.003628,-140.0
2023-08-15 17:46:22.011317,-140.0
2023-08-15 17:46:22.019007,-138.0
2023-08-15 17:46:22.026696,-133.0
2023-08-15 17:46:22.034386,-135.0
2023-08-15 17:46:22.042076,-138.0
2023-08-15 17:46:22.049765,-133.0
2023-08-15 17:46:22.057455,-123.0
2023-08-15 17:46:22.065144,-119.0
2023-08-15 17:46:22.072834,-116.0
2023-08-15 17:46:22.080524,-119.0
2023-08-15 17:46:22.088213,-126.0
2023-08-15 17:46:22.095903,-123.0
2023-08-15 17:46:22.103593,-119.0
2023-08-15 17:46:22.111282,-119.0
2023-08-15 17:46:22.118972,-123.0
2023-08-15 17:46:22.126661,-123.0
2023-08-15 17:46:22.134351,-123.0
2023-08-15 17:46:22.142041,-121.0
2023-08-15 17:46:22.149730,-119.0
2023-08-15 17:46:22.157420,-119.0
2023-08-15 17:46:22.165109,-121.0
2023-08-15 17:46:22.172799,-121.0
2023-08-15 17:46:22.180489,-121.0
2023-08-15 17:46:22.188178,-119.0
2023-08-15 17:46:22.195868,-116.0
2023-08-15 17:46:22.203558,-114.0
2023-08-15 17:46:22.211247,-114.0
2023-08-15 17:46:22.218937,-114.0
2023-08-15 17:46:22.226626,-114.0
2023-08-15 17:46:22.234316,-109.0
2023-08-15 17:46:22.242006,-102.0
2023-08-15 17:46:22.249695,-90.0
2023-08-15 17:46:22.257385,-85.0
2023-08-15 17:46:22.265074,-80.0
2023-08-15 17:46:22.272764,-64.0
2023-08-15 17:46:22.280454,-49.0
2023-08-15 17:46:22.288143,-59.0
2023-08-15 17:46:22.295833,-83.0
2023-08-15 17:46:22.303523,-102.0
2023-08-15 17:46:22.311212,-104.0
2023-08-15 17:46:22.318902,-99.0
2023-08-15 17:46:22.326591,-97.0
2023-08-15 17:46:22.334281,-92.0
2023-08-15 17:46:22.341971,-73.0
2023-08-15 17:46:22.349660,28.0
2023-08-15 17:46:22.357350,280.0
2023-08-15 17:46:22.365039,518.0
2023-08-15 17:46:22.372729,380.0
2023-08-15 17:46:22.380419,-154.0
2023-08-15 17:46:22.388108,-578.0
2023-08-15 17:46:22.395798,-473.0
2023-08-15 17:46:22.403488,-126.0
2023-08-15 17:46:22.411177,-38.0
2023-08-15 17:46:22.418867,-109.0
2023-08-15 17:46:22.426556,-83.0
2023-08-15 17:46:22.434246,-49.0
2023-08-15 17:46:22.441936,-69.0
2023-08-15 17:46:22.449625,-69.0
2023-08-15 17:46:22.457315,-49.0
2023-08-15 17:46:22.465004,-45.0
2023-08-15 17:46:22.472694,-38.0
2023-08-15 17:46:22.480384,-23.0
2023-08-15 17:46:22.488073,-9.0
2023-08-15 17:46:22.495763,2.0
2023-08-15 17:46:22.503453,16.0
2023-08-15 17:46:22.511142,33.0
2023-08-15 17:46:22.518832,49.0
2023-08-15 17:46:22.526521,69.0
2023-08-15 17:46:22.534211,85.0
2023-08-15 17:46:22.541901,99.0
2023-08-15 17:46:22.549590,114.0
2023-08-15 17:46:22.557280,133.0
2023-08-15 17:46:22.564969,145.0
2023-08-15 17:46:22.572659,149.0
2023-08-15 17:46:22.580349,147.0
2023-08-15 17:46:22.588038,140.0
2023-08-15 17:46:22.595728,121.0
2023-08-15 17:46:22.603418,83.0
2023-08-15 17:46:22.611107,33.0
2023-08-15 17:46:22.618797,-19.0
2023-08-15 17:46:22.626486,-61.0
2023-08-15 17:46:22.634176,-97.0
2023-08-15 17:46:22.641866,-126.0
2023-08-15 17:46:22.649555,-140.0
2023-08-15 17:46:22.657245,-147.0
2023-08-15 17:46:22.664934,-157.0
2023-08-15 17:46:22.672624,-166.0
2023-08-15 17:46:22.680314,-164.0
2023-08-15 17:46:22.688003,-159.0
2023-08-15 17:46:22.695693,-159.0
2023-08-15 17:46:22.703383,-154.0
2023-08-15 17:46:22.711072,-149.0
2023-08-15 17:46:22.718762,-147.0
2023-08-15 17:46:22.726451,-142.0
2023-08-15 17:46:22.734141,-138.0
2023-08-15 17:46:22.741831,-133.0
2023-08-15 17:46:22.749520,-128.0
2023-08-15 17:46:22.757210,-126.0
2023-08-15 17:46:22.764899,-123.0
2023-08-15 17:46:22.772589,-119.0
2023-08-15 17:46:22.780279,-116.0
2023-08-15 17:46:22.787968,-116.0
2023-08-15 17:46:22.795658,-114.0
2023-08-15 17:46:22.803348,-114.0
2023-08-15 17:46:22.811037,-114.0
2023-08-15 17:46:22.818727,-111.0
2023-08-15 17:46:22.826416,-111.0
2023-08-15 17:46:22.834106,-111.0
2023-08-15 17:46:22.841796,-107.0
2023-08-15 17:46:22.849485,-107.0
2023-08-15 17:46:22.857175,-111.0
2023-08-15 17:46:22.864864,-111.0
2023-08-15 17:46:22.872554,-107.0
2023-08-15 17:46:22.880244,-104.0
2023-08-15 17:46:22.887933,-104.0
2023-08-15 17:46:22.895623,-102.0
2023-08-15 17:46:22.903313,-102.0
2023-08-15 17:46:22.911002,-97.0
2023-08-15 17:46:22.918692,-95.0
2023-08-15 17:46:22.926381,-90.0
2023-08-15 17:46:22.934071,-85.0
2023-08-15 17:46:22.941761,-73.0
2023-08-15 17:46:22.949450,-59.0
2023-08-15 17:46:22.957140,-47.0
2023-08-15 17:46:22.964829,-42.0
2023-08-15 17:46:22.972519,-38.0
2023-08-15 17:46:22.980209,-42.0
2023-08-15 17:46:22.987898,-64.0
2023-08-15 17:46:22.995588,-90.0
2023-08-15 17:46:23.003278,-97.0
2023-08-15 17:46:23.010967,-90.0
2023-08-15 17:46:23.018657,-90.0
2023-08-15 17:46:23.026346,-92.0
2023-08-15 17:46:23.034036,-80.0
2023-08-15 17:46:23.041726,-4.0
2023-08-15 17:46:23.049415,207.0
2023-08-15 17:46:23.057105,466.0
2023-08-15 17:46:23.064794,430.0
2023-08-15 17:46:23.072484,-45.0
2023-08-15 17:46:23.080174,-535.0
2023-08-15 17:46:23.087863,-533.0
2023-08-15 17:46:23.095553,-185.0
2023-08-15 17:46:23.103243,-42.0
2023-08-15 17:46:23.110932,-107.0
2023-08-15 17:46:23.118622,-95.0
2023-08-15 17:46:23.126311,-54.0
2023-08-15 17:46:23.134001,-69.0
2023-08-15 17:46:23.141691,-69.0
2023-08-15 17:46:23.149380,-47.0
2023-08-15 17:46:23.157070,-40.0
2023-08-15 17:46:23.164759,-38.0
2023-08-15 17:46:23.172449,-23.0
2023-08-15 17:46:23.180139,-9.0
2023-08-15 17:46:23.187828,2.0
2023-08-15 17:46:23.195518,14.0
2023-08-15 17:46:23.203208,23.0
2023-08-15 17:46:23.210897,28.0
2023-08-15 17:46:23.218587,45.0
2023-08-15 17:46:23.226276,69.0
2023-08-15 17:46:23.233966,90.0
2023-08-15 17:46:23.241656,109.0
2023-08-15 17:46:23.249345,126.0
2023-08-15 17:46:23.257035,138.0
2023-08-15 17:46:23.264724,145.0
2023-08-15 17:46:23.272414,147.0
2023-08-15 17:46:23.280104,140.0
2023-08-15 17:46:23.287793,121.0
2023-08-15 17:46:23.295483,92.0
2023-08-15 17:46:23.303173,47.0
2023-08-15 17:46:23.310862,-2.0
2023-08-15 17:46:23.318552,-47.0
2023-08-15 17:46:23.326241,-88.0
2023-08-15 17:46:23.333931,-119.0
2023-08-15 17:46:23.341621,-140.0
2023-08-15 17:46:23.349310,-152.0
2023-08-15 17:46:23.357000,-159.0
2023-08-15 17:46:23.364689,-159.0
2023-08-15 17:46:23.372379,-154.0
2023-08-15 17:46:23.380069,-152.0
2023-08-15 17:46:23.387758,-152.0
2023-08-15 17:46:23.395448,-145.0
2023-08-15 17:46:23.403138,-138.0
2023-08-15 17:46:23.410827,-130.0
2023-08-15 17:46:23.418517,-128.0
2023-08-15 17:46:23.426206,-123.0
2023-08-15 17:46:23.433896,-116.0
2023-08-15 17:46:23.441586,-109.0
2023-08-15 17:46:23.449275,-104.0
2023-08-15 17:46:23.456965,-102.0
2023-08-15 17:46:23.464654,-104.0
2023-08-15 17:46:23.472344,-104.0
2023-08-15 17:46:23.480034,-99.0
2023-08-15 17:46:23.487723,-95.0
2023-08-15 17:46:23.495413,-95.0
2023-08-15 17:46:23.503103,-99.0
2023-08-15 17:46:23.510792,-99.0
2023-08-15 17:46:23.518482,-95.0
2023-08-15 17:46:23.526171,-97.0
2023-08-15 17:46:23.533861,-97.0
2023-08-15 17:46:23.541551,-95.0
2023-08-15 17:46:23.549240,-102.0
2023-08-15 17:46:23.556930,-107.0
2023-08-15 17:46:23.564619,-104.0
2023-08-15 17:46:23.572309,-102.0
2023-08-15 17:46:23.579999,-99.0
2023-08-15 17:46:23.587688,-95.0
2023-08-15 17:46:23.595378,-95.0
2023-08-15 17:46:23.603068,-97.0
2023-08-15 17:46:23.610757,-95.0
2023-08-15 17:46:23.618447,-88.0
2023-08-15 17:46:23.626136,-73.0
2023-08-15 17:46:23.633826,-54.0
2023-08-15 17:46:23.641516,-45.0
2023-08-15 17:46:23.649205,-40.0
2023-08-15 17:46:23.656895,-38.0
2023-08-15 17:46:23.664584,-52.0
2023-08-15 17:46:23.672274,-80.0
2023-08-15 17:46:23.679964,-102.0
2023-08-15 17:46:23.687653,-95.0
2023-08-15 17:46:23.695343,-88.0
2023-08-15 17:46:23.703033,-90.0
2023-08-15 17:46:23.710722,-83.0
2023-08-15 17:46:23.718412,-33.0
2023-08-15 17:46:23.726101,135.0
2023-08-15 17:46:23.733791,426.0
2023-08-15 17:46:23.741481,559.0
2023-08-15 17:46:23.749170,218.0
2023-08-15 17:46:23.756860,-373.0
2023-08-15 17:46:23.764549,-595.0
2023-08-15 17:46:23.772239,-328.0
2023-08-15 17:46:23.779929,-88.0
2023-08-15 17:46:23.787618,-92.0
2023-08-15 17:46:23.795308,-107.0
2023-08-15 17:46:23.802998,-71.0
2023-08-15 17:46:23.810687,-71.0
2023-08-15 17:46:23.818377,-78.0
2023-08-15 17:46:23.826066,-61.0
2023-08-15 17:46:23.833756,-54.0
2023-08-15 17:46:23.841446,-52.0
2023-08-15 17:46:23.849135,-38.0
2023-08-15 17:46:23.856825,-23.0
2023-08-15 17:46:23.864514,-14.0
2023-08-15 17:46:23.872204,2.0
2023-08-15 17:46:23.879894,19.0
2023-08-15 17:46:23.887583,30.0
2023-08-15 17:46:23.895273,45.0
2023-08-15 17:46:23.902963,64.0
2023-08-15 17:46:23.910652,83.0
2023-08-15 17:46:23.918342,99.0
2023-08-15 17:46:23.926031,114.0
2023-08-15 17:46:23.933721,123.0
2023-08-15 17:46:23.941411,130.0
2023-08-15 17:46:23.949100,138.0
2023-08-15 17:46:23.956790,135.0
2023-08-15 17:46:23.964479,119.0
2023-08-15 17:46:23.972169,90.0
2023-08-15 17:46:23.979859,57.0
2023-08-15 17:46:23.987548,9.0
2023-08-15 17:46:23.995238,-42.0
2023-08-15 17:46:24.002928,-80.0
2023-08-15 17:46:24.010617,-109.0
2023-08-15 17:46:24.018307,-133.0
2023-08-15 17:46:24.025996,-145.0
2023-08-15 17:46:24.033686,-149.0
2023-08-15 17:46:24.041376,-154.0
2023-08-15 17:46:24.049065,-161.0
2023-08-15 17:46:24.056755,-161.0
2023-08-15 17:46:24.064444,-157.0
2023-08-15 17:46:24.072134,-149.0
2023-08-15 17:46:24.079824,-147.0
2023-08-15 17:46:24.087513,-145.0
2023-08-15 17:46:24.095203,-138.0
2023-08-15 17:46:24.102893,-126.0
2023-08-15 17:46:24.110582,-119.0
2023-08-15 17:46:24.118272,-119.0
2023-08-15 17:46:24.125961,-116.0
2023-08-15 17:46:24.133651,-107.0
2023-08-15 17:46:24.141341,-102.0
2023-08-15 17:46:24.149030,-102.0
2023-08-15 17:46:24.156720,-104.0
2023-08-15 17:46:24.164409,-102.0
2023-08-15 17:46:24.172099,-99.0
2023-08-15 17:46:24.179789,-95.0
2023-08-15 17:46:24.187478,-97.0
2023-08-15 17:46:24.195168,-99.0
2023-08-15 17:46:24.202858,-99.0
2023-08-15 17:46:24.210547,-97.0
2023-08-15 17:46:24.218237,-97.0
2023-08-15 17:46:24.225926,-95.0
2023-08-15 17:46:24.233616,-92.0
2023-08-15 17:46:24.241306,-92.0
2023-08-15 17:46:24.248995,-92.0
2023-08-15 17:46:24.256685,-90.0
2023-08-15 17:46:24.264374,-88.0
2023-08-15 17:46:24.272064,-90.0
2023-08-15 17:46:24.279754,-88.0
2023-08-15 17:46:24.287443,-78.0
2023-08-15 17:46:24.295133,-69.0
2023-08-15 17:46:24.302823,-64.0
2023-08-15 17:46:24.310512,-54.0
2023-08-15 17:46:24.318202,-38.0
2023-08-15 17:46:24.325891,-30.0
2023-08-15 17:46:24.333581,-45.0
2023-08-15 17:46:24.341271,-73.0
2023-08-15 17:46:24.348960,-90.0
2023-08-15 17:46:24.356650,-85.0
2023-08-15 17:46:24.364339,-78.0
2023-08-15 17:46:24.372029,-85.0
2023-08-15 17:46:24.379719,-88.0
2023-08-15 17:46:24.387408,-28.0
2023-08-15 17:46:24.395098,171.0
2023-08-15 17:46:24.402788,468.0
2023-08-15 17:46:24.410477,547.0
2023-08-15 17:46:24.418167,142.0
2023-08-15 17:46:24.425856,-440.0
2023-08-15 17:46:24.433546,-592.0
2023-08-15 17:46:24.441236,-295.0
2023-08-15 17:46:24.448925,-78.0
2023-08-15 17:46:24.456615,-95.0
2023-08-15 17:46:24.464304,-97.0
2023-08-15 17:46:24.471994,-64.0
2023-08-15 17:46:24.479684,-66.0
2023-08-15 17:46:24.487373,-71.0
2023-08-15 17:46:24.495063,-59.0
2023-08-15 17:46:24.502753,-54.0
2023-08-15 17:46:24.510442,-47.0
2023-08-15 17:46:24.518132,-35.0
2023-08-15 17:46:24.525821,-26.0
2023-08-15 17:46:24.533511,-16.0
2023-08-15 17:46:24.541201,-2.0
2023-08-15 17:46:24.548890,11.0
2023-08-15 17:46:24.556580,23.0
2023-08-15 17:46:24.564269,38.0
2023-08-15 17:46:24.571959,59.0
2023-08-15 17:46:24.579649,76.0
2023-08-15 17:46:24.587338,95.0
2023-08-15 17:46:24.595028,114.0
2023-08-15 17:46:24.602718,130.0
2023-08-15 17:46:24.610407,138.0
2023-08-15 17:46:24.618097,138.0
2023-08-15 17:46:24.625786,130.0
2023-08-15 17:46:24.633476,119.0
2023-08-15 17:46:24.641166,90.0
2023-08-15 17:46:24.648855,47.0
2023-08-15 17:46:24.656545,-2.0
2023-08-15 17:46:24.664234,-49.0
2023-08-15 17:46:24.671924,-90.0
2023-08-15 17:46:24.679614,-119.0
2023-08-15 17:46:24.687303,-140.0
2023-08-15 17:46:24.694993,-152.0
2023-08-15 17:46:24.702683,-154.0
2023-08-15 17:46:24.710372,-154.0
2023-08-15 17:46:24.718062,-157.0
2023-08-15 17:46:24.725751,-154.0
2023-08-15 17:46:24.733441,-149.0
2023-08-15 17:46:24.741131,-142.0
2023-08-15 17:46:24.748820,-135.0
2023-08-15 17:46:24.756510,-130.0
2023-08-15 17:46:24.764199,-126.0
2023-08-15 17:46:24.771889,-119.0
2023-08-15 17:46:24.779579,-114.0
2023-08-15 17:46:24.787268,-109.0
2023-08-15 17:46:24.794958,-104.0
2023-08-15 17:46:24.802648,-97.0
2023-08-15 17:46:24.810337,-97.0
2023-08-15 17:46:24.818027,-97.0
2023-08-15 17:46:24.825716,-95.0
2023-08-15 17:46:24.833406,-92.0
2023-08-15 17:46:24.841096,-92.0
2023-08-15 17:46:24.848785,-92.0
2023-08-15 17:46:24.856475,-95.0
2023-08-15 17:46:24.864164,-97.0
2023-08-15 17:46:24.871854,-102.0
2023-08-15 17:46:24.879544,-107.0
2023-08-15 17:46:24.887233,-104.0
2023-08-15 17:46:24.894923,-104.0
2023-08-15 17:46:24.902613,-104.0
2023-08-15 17:46:24.910302,-102.0
2023-08-15 17:46:24.917992,-102.0
2023-08-15 17:46:24.925681,-102.0
2023-08-15 17:46:24.933371,-97.0
2023-08-15 17:46:24.941061,-92.0
2023-08-15 17:46:24.948750,-92.0
2023-08-15 17:46:24.956440,-90.0
2023-08-15 17:46:24.964129,-85.0
2023-08-15 17:46:24.971819,-73.0
2023-08-15 17:46:24.979509,-64.0
2023-08-15 17:46:24.987198,-54.0
2023-08-15 17:46:24.994888,-42.0
2023-08-15 17:46:25.002578,-35.0
2023-08-15 17:46:25.010267,-49.0
2023-08-15 17:46:25.017957,-76.0
2023-08-15 17:46:25.025646,-92.0
2023-08-15 17:46:25.033336,-90.0
2023-08-15 17:46:25.041026,-85.0
2023-08-15 17:46:25.048715,-90.0
2023-08-15 17:46:25.056405,-92.0
2023-08-15 17:46:25.064094,-49.0
2023-08-15 17:46:25.071784,119.0
2023-08-15 17:46:25.079474,407.0
2023-08-15 17:46:25.087163,521.0
2023-08-15 17:46:25.094853,164.0
2023-08-15 17:46:25.102543,-418.0
2023-08-15 17:46:25.110232,-621.0
2023-08-15 17:46:25.117922,-338.0
2023-08-15 17:46:25.125611,-83.0
2023-08-15 17:46:25.133301,-88.0
2023-08-15 17:46:25.140991,-114.0
2023-08-15 17:46:25.148680,-80.0
2023-08-15 17:46:25.156370,-73.0
2023-08-15 17:46:25.164059,-85.0
2023-08-15 17:46:25.171749,-73.0
2023-08-15 17:46:25.179439,-66.0
2023-08-15 17:46:25.187128,-64.0
2023-08-15 17:46:25.194818,-49.0
2023-08-15 17:46:25.202508,-30.0
2023-08-15 17:46:25.210197,-21.0
2023-08-15 17:46:25.217887,-11.0
2023-08-15 17:46:25.225576,4.0
2023-08-15 17:46:25.233266,21.0
2023-08-15 17:46:25.240956,38.0
2023-08-15 17:46:25.248645,61.0
2023-08-15 17:46:25.256335,85.0
2023-08-15 17:46:25.264024,102.0
2023-08-15 17:46:25.271714,119.0
2023-08-15 17:46:25.279404,135.0
2023-08-15 17:46:25.287093,145.0
2023-08-15 17:46:25.294783,147.0
2023-08-15 17:46:25.302473,147.0
2023-08-15 17:46:25.310162,133.0
2023-08-15 17:46:25.317852,99.0
2023-08-15 17:46:25.325541,54.0
2023-08-15 17:46:25.333231,7.0
2023-08-15 17:46:25.340921,-42.0
2023-08-15 17:46:25.348610,-83.0
2023-08-15 17:46:25.356300,-116.0
2023-08-15 17:46:25.363989,-142.0
2023-08-15 17:46:25.371679,-154.0
2023-08-15 17:46:25.379369,-157.0
2023-08-15 17:46:25.387058,-159.0
2023-08-15 17:46:25.394748,-157.0
2023-08-15 17:46:25.402438,-157.0
2023-08-15 17:46:25.410127,-161.0
2023-08-15 17:46:25.417817,-164.0
2023-08-15 17:46:25.425506,-157.0
2023-08-15 17:46:25.433196,-149.0
2023-08-15 17:46:25.440886,-142.0
2023-08-15 17:46:25.448575,-138.0
2023-08-15 17:46:25.456265,-133.0
2023-08-15 17:46:25.463954,-126.0
2023-08-15 17:46:25.471644,-119.0
2023-08-15 17:46:25.479334,-116.0
2023-08-15 17:46:25.487023,-109.0
2023-08-15 17:46:25.494713,-104.0
2023-08-15 17:46:25.502403,-107.0
2023-08-15 17:46:25.510092,-104.0
2023-08-15 17:46:25.517782,-102.0
2023-08-15 17:46:25.525471,-99.0
2023-08-15 17:46:25.533161,-99.0
2023-08-15 17:46:25.540851,-99.0
2023-08-15 17:46:25.548540,-102.0
2023-08-15 17:46:25.556230,-104.0
2023-08-15 17:46:25.563919,-104.0
2023-08-15 17:46:25.571609,-107.0
2023-08-15 17:46:25.579299,-109.0
2023-08-15 17:46:25.586988,-107.0
2023-08-15 17:46:25.594678,-107.0
2023-08-15 17:46:25.602368,-104.0
2023-08-15 17:46:25.610057,-102.0
2023-08-15 17:46:25.617747,-99.0
2023-08-15 17:46:25.625436,-95.0
2023-08-15 17:46:25.633126,-92.0
2023-08-15 17:46:25.640816,-92.0
2023-08-15 17:46:25.648505,-88.0
2023-08-15 17:46:25.656195,-76.0
2023-08-15 17:46:25.663884,-64.0
2023-08-15 17:46:25.671574,-54.0
2023-08-15 17:46:25.679264,-47.0
2023-08-15 17:46:25.686953,-40.0
2023-08-15 17:46:25.694643,-35.0
2023-08-15 17:46:25.702333,-52.0
2023-08-15 17:46:25.710022,-80.0
2023-08-15 17:46:25.717712,-95.0
2023-08-15 17:46:25.725401,-92.0
2023-08-15 17:46:25.733091,-92.0
2023-08-15 17:46:25.740781,-92.0
2023-08-15 17:46:25.748470,-83.0
2023-08-15 17:46:25.756160,-23.0
2023-08-15 17:46:25.763849,166.0
2023-08-15 17:46:25.771539,449.0
2023-08-15 17:46:25.779229,499.0
2023-08-15 17:46:25.786918,83.0
2023-08-15 17:46:25.794608,-459.0
2023-08-15 17:46:25.802298,-578.0
2023-08-15 17:46:25.809987,-278.0
2023-08-15 17:46:25.817677,-71.0
2023-08-15 17:46:25.825366,-97.0
2023-08-15 17:46:25.833056,-109.0
2023-08-15 17:46:25.840746,-69.0
2023-08-15 17:46:25.848435,-69.0
2023-08-15 17:46:25.856125,-78.0
2023-08-15 17:46:25.863814,-64.0
2023-08-15 17:46:25.871504,-54.0
2023-08-15 17:46:25.879194,-49.0
2023-08-15 17:46:25.886883,-33.0
2023-08-15 17:46:25.894573,-21.0
2023-08-15 17:46:25.902263,-11.0
2023-08-15 17:46:25.909952,0.0
2023-08-15 17:46:25.917642,16.0
2023-08-15 17:46:25.925331,33.0
2023-08-15 17:46:25.933021,52.0
2023-08-15 17:46:25.940711,71.0
2023-08-15 17:46:25.948400,92.0
2023-08-15 17:46:25.956090,111.0
2023-08-15 17:46:25.963779,130.0
2023-08-15 17:46:25.971469,142.0
2023-08-15 17:46:25.979159,152.0
2023-08-15 17:46:25.986848,159.0
2023-08-15 17:46:25.994538,149.0
2023-08-15 17:46:26.002228,126.0
2023-08-15 17:46:26.009917,97.0
2023-08-15 17:46:26.017607,59.0
2023-08-15 17:46:26.025296,11.0
2023-08-15 17:46:26.032986,-38.0
2023-08-15 17:46:26.040676,-83.0
2023-08-15 17:46:26.048365,-111.0
2023-08-15 17:46:26.056055,-135.0
2023-08-15 17:46:26.063744,-149.0
2023-08-15 17:46:26.071434,-157.0
2023-08-15 17:46:26.079124,-161.0
2023-08-15 17:46:26.086813,-166.0
2023-08-15 17:46:26.094503,-161.0
2023-08-15 17:46:26.102193,-154.0
2023-08-15 17:46:26.109882,-154.0
2023-08-15 17:46:26.117572,-145.0
2023-08-15 17:46:26.125261,-135.0
2023-08-15 17:46:26.132951,-133.0
2023-08-15 17:46:26.140641,-128.0
2023-08-15 17:46:26.148330,-121.0
2023-08-15 17:46:26.156020,-116.0
2023-08-15 17:46:26.163709,-109.0
2023-08-15 17:46:26.171399,-104.0
2023-08-15 17:46:26.179089,-102.0
2023-08-15 17:46:26.186778,-95.0
2023-08-15 17:46:26.194468,-92.0
2023-08-15 17:46:26.202158,-92.0
2023-08-15 17:46:26.209847,-90.0
2023-08-15 17:46:26.217537,-90.0
2023-08-15 17:46:26.225226,-90.0
2023-08-15 17:46:26.232916,-90.0
2023-08-15 17:46:26.240606,-90.0
2023-08-15 17:46:26.248295,-90.0
2023-08-15 17:46:26.255985,-90.0
2023-08-15 17:46:26.263674,-88.0
2023-08-15 17:46:26.271364,-88.0
2023-08-15 17:46:26.279054,-92.0
2023-08-15 17:46:26.286743,-88.0
2023-08-15 17:46:26.294433,-83.0
2023-08-15 17:46:26.302123,-85.0
2023-08-15 17:46:26.309812,-85.0
2023-08-15 17:46:26.317502,-83.0
2023-08-15 17:46:26.325191,-83.0
2023-08-15 17:46:26.332881,-78.0
2023-08-15 17:46:26.340571,-71.0
2023-08-15 17:46:26.348260,-59.0
2023-08-15 17:46:26.355950,-49.0
2023-08-15 17:46:26.363639,-40.0
2023-08-15 17:46:26.371329,-30.0
2023-08-15 17:46:26.379019,-28.0
2023-08-15 17:46:26.386708,-42.0
2023-08-15 17:46:26.394398,-69.0
2023-08-15 17:46:26.402088,-88.0
2023-08-15 17:46:26.409777,-83.0
2023-08-15 17:46:26.417467,-78.0
2023-08-15 17:46:26.425156,-85.0
2023-08-15 17:46:26.432846,-78.0
2023-08-15 17:46:26.440536,-26.0
2023-08-15 17:46:26.448225,138.0
2023-08-15 17:46:26.455915,423.0
2023-08-15 17:46:26.463604,566.0
2023-08-15 17:46:26.471294,238.0
2023-08-15 17:46:26.478984,-347.0
2023-08-15 17:46:26.486673,-583.0
2023-08-15 17:46:26.494363,-335.0
2023-08-15 17:46:26.502053,-97.0
2023-08-15 17:46:26.509742,-88.0
2023-08-15 17:46:26.517432,-99.0
2023-08-15 17:46:26.525121,-66.0
2023-08-15 17:46:26.532811,-66.0
2023-08-15 17:46:26.540501,-69.0
2023-08-15 17:46:26.548190,-54.0
2023-08-15 17:46:26.555880,-49.0
2023-08-15 17:46:26.563569,-49.0
2023-08-15 17:46:26.571259,-33.0
2023-08-15 17:46:26.578949,-21.0
2023-08-15 17:46:26.586638,-19.0
2023-08-15 17:46:26.594328,-4.0
2023-08-15 17:46:26.602018,16.0
2023-08-15 17:46:26.609707,30.0
2023-08-15 17:46:26.617397,45.0
2023-08-15 17:46:26.625086,61.0
2023-08-15 17:46:26.632776,73.0
2023-08-15 17:46:26.640466,95.0
2023-08-15 17:46:26.648155,119.0
2023-08-15 17:46:26.655845,130.0
2023-08-15 17:46:26.663534,135.0
2023-08-15 17:46:26.671224,147.0
2023-08-15 17:46:26.678914,149.0
2023-08-15 17:46:26.686603,135.0
2023-08-15 17:46:26.694293,104.0
2023-08-15 17:46:26.701983,61.0
2023-08-15 17:46:26.709672,14.0
2023-08-15 17:46:26.717362,-30.0
2023-08-15 17:46:26.725051,-69.0
2023-08-15 17:46:26.732741,-99.0
2023-08-15 17:46:26.740431,-126.0
2023-08-15 17:46:26.748120,-142.0
2023-08-15 17:46:26.755810,-149.0
2023-08-15 17:46:26.763499,-152.0
2023-08-15 17:46:26.771189,-152.0
2023-08-15 17:46:26.778879,-145.0
2023-08-15 17:46:26.786568,-138.0
2023-08-15 17:46:26.794258,-138.0
2023-08-15 17:46:26.801947,-140.0
2023-08-15 17:46:26.809637,-133.0
2023-08-15 17:46:26.817327,-116.0
2023-08-15 17:46:26.825016,-114.0
2023-08-15 17:46:26.832706,-116.0
2023-08-15 17:46:26.840396,-109.0
2023-08-15 17:46:26.848085,-104.0
2023-08-15 17:46:26.855775,-104.0
2023-08-15 17:46:26.863464,-97.0
2023-08-15 17:46:26.871154,-90.0
2023-08-15 17:46:26.878844,-88.0
2023-08-15 17:46:26.886533,-88.0
2023-08-15 17:46:26.894223,-90.0
2023-08-15 17:46:26.901912,-85.0
2023-08-15 17:46:26.909602,-88.0
2023-08-15 17:46:26.917292,-90.0
2023-08-15 17:46:26.924981,-83.0
2023-08-15 17:46:26.932671,-83.0
2023-08-15 17:46:26.940361,-92.0
2023-08-15 17:46:26.948050,-90.0
2023-08-15 17:46:26.955740,-83.0
2023-08-15 17:46:26.963429,-83.0
2023-08-15 17:46:26.971119,-85.0
2023-08-15 17:46:26.978809,-85.0
2023-08-15 17:46:26.986498,-85.0
2023-08-15 17:46:26.994188,-78.0
2023-08-15 17:46:27.001877,-71.0
2023-08-15 17:46:27.009567,-71.0
2023-08-15 17:46:27.017257,-69.0
2023-08-15 17:46:27.024946,-57.0
2023-08-15 17:46:27.032636,-42.0
2023-08-15 17:46:27.040326,-38.0
2023-08-15 17:46:27.048015,-49.0
2023-08-15 17:46:27.055705,-69.0
2023-08-15 17:46:27.063394,-88.0
2023-08-15 17:46:27.071084,-90.0
2023-08-15 17:46:27.078774,-85.0
2023-08-15 17:46:27.086463,-90.0
2023-08-15 17:46:27.094153,-85.0
2023-08-15 17:46:27.101842,-21.0
2023-08-15 17:46:27.109532,176.0
2023-08-15 17:46:27.117222,471.0
2023-08-15 17:46:27.124911,557.0
2023-08-15 17:46:27.132601,161.0
2023-08-15 17:46:27.140291,-418.0
2023-08-15 17:46:27.147980,-587.0
2023-08-15 17:46:27.155670,-314.0
2023-08-15 17:46:27.163359,-104.0
2023-08-15 17:46:27.171049,-107.0
2023-08-15 17:46:27.178739,-104.0
2023-08-15 17:46:27.186428,-71.0
2023-08-15 17:46:27.194118,-76.0
2023-08-15 17:46:27.201807,-83.0
2023-08-15 17:46:27.209497,-71.0
2023-08-15 17:46:27.217187,-64.0
2023-08-15 17:46:27.224876,-52.0
2023-08-15 17:46:27.232566,-35.0
2023-08-15 17:46:27.240256,-23.0
2023-08-15 17:46:27.247945,-14.0
2023-08-15 17:46:27.255635,2.0
2023-08-15 17:46:27.263324,16.0
2023-08-15 17:46:27.271014,33.0
2023-08-15 17:46:27.278704,49.0
2023-08-15 17:46:27.286393,71.0
2023-08-15 17:46:27.294083,92.0
2023-08-15 17:46:27.301772,114.0
2023-08-15 17:46:27.309462,133.0
2023-08-15 17:46:27.317152,147.0
2023-08-15 17:46:27.324841,157.0
2023-08-15 17:46:27.332531,161.0
2023-08-15 17:46:27.340221,157.0
2023-08-15 17:46:27.347910,135.0
2023-08-15 17:46:27.355600,107.0
2023-08-15 17:46:27.363289,66.0
2023-08-15 17:46:27.370979,14.0
2023-08-15 17:46:27.378669,-38.0
2023-08-15 17:46:27.386358,-80.0
2023-08-15 17:46:27.394048,-116.0
2023-08-15 17:46:27.401737,-138.0
2023-08-15 17:46:27.409427,-145.0
2023-08-15 17:46:27.417117,-147.0
2023-08-15 17:46:27.424806,-149.0
2023-08-15 17:46:27.432496,-149.0
2023-08-15 17:46:27.440186,-152.0
2023-08-15 17:46:27.447875,-147.0
2023-08-15 17:46:27.455565,-140.0
2023-08-15 17:46:27.463254,-135.0
2023-08-15 17:46:27.470944,-130.0
2023-08-15 17:46:27.478634,-126.0
2023-08-15 17:46:27.486323,-121.0
2023-08-15 17:46:27.494013,-114.0
2023-08-15 17:46:27.501702,-107.0
2023-08-15 17:46:27.509392,-102.0
2023-08-15 17:46:27.517082,-97.0
2023-08-15 17:46:27.524771,-95.0
2023-08-15 17:46:27.532461,-95.0
2023-08-15 17:46:27.540151,-95.0
2023-08-15 17:46:27.547840,-92.0
2023-08-15 17:46:27.555530,-90.0
2023-08-15 17:46:27.563219,-88.0
2023-08-15 17:46:27.570909,-90.0
2023-08-15 17:46:27.578599,-92.0
2023-08-15 17:46:27.586288,-95.0
2023-08-15 17:46:27.593978,-99.0
2023-08-15 17:46:27.601667,-102.0
2023-08-15 17:46:27.609357,-99.0
2023-08-15 17:46:27.617047,-99.0
2023-08-15 17:46:27.624736,-102.0
2023-08-15 17:46:27.632426,-99.0
2023-08-15 17:46:27.640116,-95.0
2023-08-15 17:46:27.647805,-92.0
2023-08-15 17:46:27.655495,-90.0
2023-08-15 17:46:27.663184,-92.0
2023-08-15 17:46:27.670874,-90.0
2023-08-15 17:46:27.678564,-80.0
2023-08-15 17:46:27.686253,-73.0
2023-08-15 17:46:27.693943,-69.0
2023-08-15 17:46:27.701632,-57.0
2023-08-15 17:46:27.709322,-52.0
2023-08-15 17:46:27.717012,-59.0
2023-08-15 17:46:27.724701,-71.0
2023-08-15 17:46:27.732391,-92.0
2023-08-15 17:46:27.740081,-104.0
2023-08-15 17:46:27.747770,-97.0
2023-08-15 17:46:27.755460,-95.0
2023-08-15 17:46:27.763149,-99.0
2023-08-15 17:46:27.770839,-88.0
2023-08-15 17:46:27.778529,0.0
2023-08-15 17:46:27.786218,238.0
2023-08-15 17:46:27.793908,511.0
2023-08-15 17:46:27.801597,445.0
2023-08-15 17:46:27.809287,-71.0
2023-08-15 17:46:27.816977,-564.0
2023-08-15 17:46:27.824666,-533.0
2023-08-15 17:46:27.832356,-178.0
2023-08-15 17:46:27.840046,-47.0
2023-08-15 17:46:27.847735,-114.0
2023-08-15 17:46:27.855425,-99.0
2023-08-15 17:46:27.863114,-64.0
2023-08-15 17:46:27.870804,-80.0
2023-08-15 17:46:27.878494,-80.0
2023-08-15 17:46:27.886183,-61.0
2023-08-15 17:46:27.893873,-59.0
2023-08-15 17:46:27.901562,-52.0
2023-08-15 17:46:27.909252,-35.0
2023-08-15 17:46:27.916942,-23.0
2023-08-15 17:46:27.924631,-11.0
2023-08-15 17:46:27.932321,2.0
2023-08-15 17:46:27.940011,16.0
2023-08-15 17:46:27.947700,33.0
2023-08-15 17:46:27.955390,54.0
2023-08-15 17:46:27.963079,78.0
2023-08-15 17:46:27.970769,102.0
2023-08-15 17:46:27.978459,121.0
2023-08-15 17:46:27.986148,138.0
2023-08-15 17:46:27.993838,154.0
2023-08-15 17:46:28.001527,164.0
2023-08-15 17:46:28.009217,164.0
2023-08-15 17:46:28.016907,157.0
2023-08-15 17:46:28.024596,138.0
2023-08-15 17:46:28.032286,97.0
2023-08-15 17:46:28.039976,45.0
2023-08-15 17:46:28.047665,-7.0
2023-08-15 17:46:28.055355,-57.0
2023-08-15 17:46:28.063044,-99.0
2023-08-15 17:46:28.070734,-130.0
2023-08-15 17:46:28.078424,-149.0
2023-08-15 17:46:28.086113,-161.0
2023-08-15 17:46:28.093803,-169.0
2023-08-15 17:46:28.101492,-173.0
2023-08-15 17:46:28.109182,-171.0
2023-08-15 17:46:28.116872,-166.0
2023-08-15 17:46:28.124561,-161.0
2023-08-15 17:46:28.132251,-157.0
2023-08-15 17:46:28.139941,-149.0
2023-08-15 17:46:28.147630,-142.0
2023-08-15 17:46:28.155320,-140.0
2023-08-15 17:46:28.163009,-133.0
2023-08-15 17:46:28.170699,-126.0
2023-08-15 17:46:28.178389,-121.0
2023-08-15 17:46:28.186078,-116.0
2023-08-15 17:46:28.193768,-111.0
2023-08-15 17:46:28.201457,-109.0
2023-08-15 17:46:28.209147,-107.0
2023-08-15 17:46:28.216837,-104.0
2023-08-15 17:46:28.224526,-102.0
2023-08-15 17:46:28.232216,-99.0
2023-08-15 17:46:28.239906,-99.0
2023-08-15 17:46:28.247595,-109.0
2023-08-15 17:46:28.255285,-114.0
2023-08-15 17:46:28.262974,-111.0
2023-08-15 17:46:28.270664,-114.0
2023-08-15 17:46:28.278354,-116.0
2023-08-15 17:46:28.286043,-116.0
2023-08-15 17:46:28.293733,-114.0
2023-08-15 17:46:28.301422,-114.0
2023-08-15 17:46:28.309112,-111.0
2023-08-15 17:46:28.316802,-109.0
2023-08-15 17:46:28.324491,-107.0
2023-08-15 17:46:28.332181,-104.0
2023-08-15 17:46:28.339871,-104.0
2023-08-15 17:46:28.347560,-102.0
2023-08-15 17:46:28.355250,-97.0
2023-08-15 17:46:28.362939,-92.0
2023-08-15 17:46:28.370629,-85.0
2023-08-15 17:46:28.378319,-73.0
2023-08-15 17:46:28.386008,-61.0
2023-08-15 17:46:28.393698,-54.0
2023-08-15 17:46:28.401387,-45.0
2023-08-15 17:46:28.409077,-38.0
2023-08-15 17:46:28.416767,-45.0
2023-08-15 17:46:28.424456,-69.0
2023-08-15 17:46:28.432146,-95.0
2023-08-15 17:46:28.439836,-102.0
2023-08-15 17:46:28.447525,-97.0
2023-08-15 17:46:28.455215,-95.0
2023-08-15 17:46:28.462904,-95.0
2023-08-15 17:46:28.470594,-76.0
2023-08-15 17:46:28.478284,35.0
2023-08-15 17:46:28.485973,302.0
2023-08-15 17:46:28.493663,535.0
2023-08-15 17:46:28.501352,373.0
2023-08-15 17:46:28.509042,-176.0
2023-08-15 17:46:28.516732,-587.0
2023-08-15 17:46:28.524421,-461.0
2023-08-15 17:46:28.532111,-119.0
2023-08-15 17:46:28.539801,-47.0
2023-08-15 17:46:28.547490,-119.0
2023-08-15 17:46:28.555180,-88.0
2023-08-15 17:46:28.562869,-59.0
2023-08-15 17:46:28.570559,-78.0
2023-08-15 17:46:28.578249,-69.0
2023-08-15 17:46:28.585938,-49.0
2023-08-15 17:46:28.593628,-54.0
2023-08-15 17:46:28.601317,-52.0
2023-08-15 17:46:28.609007,-35.0
2023-08-15 17:46:28.616697,-21.0
2023-08-15 17:46:28.624386,-9.0
2023-08-15 17:46:28.632076,9.0
2023-08-15 17:46:28.639766,26.0
2023-08-15 17:46:28.647455,40.0
2023-08-15 17:46:28.655145,61.0
2023-08-15 17:46:28.662834,83.0
2023-08-15 17:46:28.670524,107.0
2023-08-15 17:46:28.678214,128.0
2023-08-15 17:46:28.685903,145.0
2023-08-15 17:46:28.693593,159.0
2023-08-15 17:46:28.701282,166.0
2023-08-15 17:46:28.708972,166.0
2023-08-15 17:46:28.716662,161.0
2023-08-15 17:46:28.724351,140.0
2023-08-15 17:46:28.732041,102.0
2023-08-15 17:46:28.739731,52.0
2023-08-15 17:46:28.747420,-2.0
2023-08-15 17:46:28.755110,-52.0
2023-08-15 17:46:28.762799,-92.0
2023-08-15 17:46:28.770489,-121.0
2023-08-15 17:46:28.778179,-138.0
2023-08-15 17:46:28.785868,-149.0
2023-08-15 17:46:28.793558,-152.0
2023-08-15 17:46:28.801247,-147.0
2023-08-15 17:46:28.808937,-147.0
2023-08-15 17:46:28.816627,-152.0
2023-08-15 17:46:28.824316,-154.0
2023-08-15 17:46:28.832006,-154.0
2023-08-15 17:46:28.839696,-154.0
2023-08-15 17:46:28.847385,-145.0
2023-08-15 17:46:28.855075,-138.0
2023-08-15 17:46:28.862764,-133.0
2023-08-15 17:46:28.870454,-128.0
2023-08-15 17:46:28.878144,-123.0
2023-08-15 17:46:28.885833,-119.0
2023-08-15 17:46:28.893523,-111.0
2023-08-15 17:46:28.901212,-107.0
2023-08-15 17:46:28.908902,-102.0
2023-08-15 17:46:28.916592,-99.0
2023-08-15 17:46:28.924281,-97.0
2023-08-15 17:46:28.931971,-97.0
2023-08-15 17:46:28.939661,-92.0
2023-08-15 17:46:28.947350,-90.0
2023-08-15 17:46:28.955040,-90.0
2023-08-15 17:46:28.962729,-92.0
2023-08-15 17:46:28.970419,-95.0
2023-08-15 17:46:28.978109,-92.0
2023-08-15 17:46:28.985798,-88.0
2023-08-15 17:46:28.993488,-88.0
2023-08-15 17:46:29.001177,-88.0
2023-08-15 17:46:29.008867,-92.0
2023-08-15 17:46:29.016557,-95.0
2023-08-15 17:46:29.024246,-95.0
2023-08-15 17:46:29.031936,-88.0
2023-08-15 17:46:29.039626,-85.0
2023-08-15 17:46:29.047315,-88.0
2023-08-15 17:46:29.055005,-88.0
2023-08-15 17:46:29.062694,-85.0
2023-08-15 17:46:29.070384,-85.0
2023-08-15 17:46:29.078074,-76.0
2023-08-15 17:46:29.085763,-66.0
2023-08-15 17:46:29.093453,-61.0
2023-08-15 17:46:29.101142,-54.0
2023-08-15 17:46:29.108832,-40.0
2023-08-15 17:46:29.116522,-33.0
2023-08-15 17:46:29.124211,-35.0
2023-08-15 17:46:29.131901,-49.0
2023-08-15 17:46:29.139591,-76.0
2023-08-15 17:46:29.147280,-97.0
2023-08-15 17:46:29.154970,-95.0
2023-08-15 17:46:29.162659,-85.0
2023-08-15 17:46:29.170349,-85.0
2023-08-15 17:46:29.178039,-80.0
2023-08-15 17:46:29.185728,-30.0
2023-08-15 17:46:29.193418,142.0
2023-08-15 17:46:29.201107,426.0
2023-08-15 17:46:29.208797,523.0
2023-08-15 17:46:29.216487,164.0
2023-08-15 17:46:29.224176,-392.0
2023-08-15 17:46:29.231866,-576.0
2023-08-15 17:46:29.239556,-295.0
2023-08-15 17:46:29.247245,-54.0
2023-08-15 17:46:29.254935,-80.0
2023-08-15 17:46:29.262624,-109.0
2023-08-15 17:46:29.270314,-66.0
2023-08-15 17:46:29.278004,-69.0
2023-08-15 17:46:29.285693,-80.0
2023-08-15 17:46:29.293383,-64.0
2023-08-15 17:46:29.301072,-52.0
2023-08-15 17:46:29.308762,-49.0
2023-08-15 17:46:29.316452,-38.0
2023-08-15 17:46:29.324141,-30.0
2023-08-15 17:46:29.331831,-19.0
2023-08-15 17:46:29.339521,0.0
2023-08-15 17:46:29.347210,11.0
2023-08-15 17:46:29.354900,23.0
2023-08-15 17:46:29.362589,45.0
2023-08-15 17:46:29.370279,64.0
2023-08-15 17:46:29.377969,71.0
2023-08-15 17:46:29.385658,92.0
2023-08-15 17:46:29.393348,119.0
2023-08-15 17:46:29.401037,135.0
2023-08-15 17:46:29.408727,147.0
2023-08-15 17:46:29.416417,147.0
2023-08-15 17:46:29.424106,145.0
2023-08-15 17:46:29.431796,138.0
2023-08-15 17:46:29.439486,114.0
2023-08-15 17:46:29.447175,69.0
2023-08-15 17:46:29.454865,19.0
2023-08-15 17:46:29.462554,-28.0
2023-08-15 17:46:29.470244,-71.0
2023-08-15 17:46:29.477934,-109.0
2023-08-15 17:46:29.485623,-133.0
2023-08-15 17:46:29.493313,-145.0
2023-08-15 17:46:29.501002,-147.0
2023-08-15 17:46:29.508692,-147.0
2023-08-15 17:46:29.516382,-149.0
2023-08-15 17:46:29.524071,-152.0
2023-08-15 17:46:29.531761,-147.0
2023-08-15 17:46:29.539451,-138.0
2023-08-15 17:46:29.547140,-133.0
2023-08-15 17:46:29.554830,-130.0
2023-08-15 17:46:29.562519,-128.0
2023-08-15 17:46:29.570209,-119.0
2023-08-15 17:46:29.577899,-111.0
2023-08-15 17:46:29.585588,-109.0
2023-08-15 17:46:29.593278,-107.0
2023-08-15 17:46:29.600967,-102.0
2023-08-15 17:46:29.608657,-95.0
2023-08-15 17:46:29.616347,-88.0
2023-08-15 17:46:29.624036,-90.0
2023-08-15 17:46:29.631726,-92.0
2023-08-15 17:46:29.639416,-92.0
2023-08-15 17:46:29.647105,-90.0
2023-08-15 17:46:29.654795,-85.0
2023-08-15 17:46:29.662484,-85.0
2023-08-15 17:46:29.670174,-88.0
2023-08-15 17:46:29.677864,-90.0
2023-08-15 17:46:29.685553,-90.0
2023-08-15 17:46:29.693243,-88.0
2023-08-15 17:46:29.700932,-90.0
2023-08-15 17:46:29.708622,-97.0
2023-08-15 17:46:29.716312,-95.0
2023-08-15 17:46:29.724001,-90.0
2023-08-15 17:46:29.731691,-92.0
2023-08-15 17:46:29.739381,-88.0
2023-08-15 17:46:29.747070,-83.0
2023-08-15 17:46:29.754760,-85.0
2023-08-15 17:46:29.762449,-90.0
2023-08-15 17:46:29.770139,-92.0
2023-08-15 17:46:29.777829,-88.0
2023-08-15 17:46:29.785518,-80.0
2023-08-15 17:46:29.793208,-69.0
2023-08-15 17:46:29.800897,-54.0
2023-08-15 17:46:29.808587,-47.0
2023-08-15 17:46:29.816277,-42.0
2023-08-15 17:46:29.823966,-45.0
2023-08-15 17:46:29.831656,-66.0
2023-08-15 17:46:29.839346,-95.0
2023-08-15 17:46:29.847035,-109.0
2023-08-15 17:46:29.854725,-99.0
2023-08-15 17:46:29.862414,-95.0
2023-08-15 17:46:29.870104,-102.0
2023-08-15 17:46:29.877794,-92.0
2023-08-15 17:46:29.885483,-14.0
2023-08-15 17:46:29.893173,202.0
2023-08-15 17:46:29.900862,490.0
2023-08-15 17:46:29.908552,518.0
2023-08-15 17:46:29.916242,73.0
2023-08-15 17:46:29.923931,-473.0
2023-08-15 17:46:29.931621,-568.0
2023-08-15 17:46:29.939311,-273.0
2023-08-15 17:46:29.947000,-97.0
2023-08-15 17:46:29.954690,-121.0
2023-08-15 17:46:29.962379,-119.0
2023-08-15 17:46:29.970069,-92.0
2023-08-15 17:46:29.977759,-99.0
2023-08-15 17:46:29.985448,-92.0
2023-08-15 17:46:29.993138,-76.0
2023-08-15 17:46:30.000827,-76.0
2023-08-15 17:46:30.008517,-71.0
2023-08-15 17:46:30.016207,-54.0
2023-08-15 17:46:30.023896,-40.0
2023-08-15 17:46:30.031586,-30.0
2023-08-15 17:46:30.039276,-11.0
2023-08-15 17:46:30.046965,4.0
2023-08-15 17:46:30.054655,21.0
2023-08-15 17:46:30.062344,38.0
2023-08-15 17:46:30.070034,57.0
2023-08-15 17:46:30.077724,83.0
2023-08-15 17:46:30.085413,107.0
2023-08-15 17:46:30.093103,121.0
2023-08-15 17:46:30.100792,133.0
2023-08-15 17:46:30.108482,145.0
2023-08-15 17:46:30.116172,149.0
2023-08-15 17:46:30.123861,147.0
2023-08-15 17:46:30.131551,130.0
2023-08-15 17:46:30.139241,97.0
2023-08-15 17:46:30.146930,54.0
2023-08-15 17:46:30.154620,4.0
2023-08-15 17:46:30.162309,-47.0
2023-08-15 17:46:30.169999,-88.0
2023-08-15 17:46:30.177689,-119.0
2023-08-15 17:46:30.185378,-145.0
2023-08-15 17:46:30.193068,-157.0
2023-08-15 17:46:30.200757,-159.0
2023-08-15 17:46:30.208447,-164.0
2023-08-15 17:46:30.216137,-164.0
2023-08-15 17:46:30.223826,-157.0
2023-08-15 17:46:30.231516,-152.0
2023-08-15 17:46:30.239206,-152.0
2023-08-15 17:46:30.246895,-149.0
2023-08-15 17:46:30.254585,-142.0
2023-08-15 17:46:30.262274,-138.0
2023-08-15 17:46:30.269964,-133.0
2023-08-15 17:46:30.277654,-126.0
2023-08-15 17:46:30.285343,-116.0
2023-08-15 17:46:30.293033,-114.0
2023-08-15 17:46:30.300722,-114.0
2023-08-15 17:46:30.308412,-107.0
2023-08-15 17:46:30.316102,-104.0
2023-08-15 17:46:30.323791,-109.0
2023-08-15 17:46:30.331481,-114.0
2023-08-15 17:46:30.339171,-109.0
2023-08-15 17:46:30.346860,-107.0
2023-08-15 17:46:30.354550,-111.0
2023-08-15 17:46:30.362239,-111.0
2023-08-15 17:46:30.369929,-111.0
2023-08-15 17:46:30.377619,-109.0
2023-08-15 17:46:30.385308,-109.0
2023-08-15 17:46:30.392998,-109.0
2023-08-15 17:46:30.400687,-107.0
2023-08-15 17:46:30.408377,-107.0
2023-08-15 17:46:30.416067,-107.0
2023-08-15 17:46:30.423756,-104.0
2023-08-15 17:46:30.431446,-99.0
2023-08-15 17:46:30.439136,-95.0
2023-08-15 17:46:30.446825,-95.0
2023-08-15 17:46:30.454515,-95.0
2023-08-15 17:46:30.462204,-88.0
2023-08-15 17:46:30.469894,-73.0
2023-08-15 17:46:30.477584,-64.0
2023-08-15 17:46:30.485273,-61.0
2023-08-15 17:46:30.492963,-64.0
2023-08-15 17:46:30.500652,-64.0
2023-08-15 17:46:30.508342,-69.0
2023-08-15 17:46:30.516032,-88.0
2023-08-15 17:46:30.523721,-114.0
2023-08-15 17:46:30.531411,-119.0
2023-08-15 17:46:30.539101,-109.0
2023-08-15 17:46:30.546790,-109.0
2023-08-15 17:46:30.554480,-109.0
2023-08-15 17:46:30.562169,-80.0
2023-08-15 17:46:30.569859,35.0
2023-08-15 17:46:30.577549,292.0
2023-08-15 17:46:30.585238,530.0
2023-08-15 17:46:30.592928,383.0
2023-08-15 17:46:30.600617,-173.0
2023-08-15 17:46:30.608307,-599.0
2023-08-15 17:46:30.615997,-502.0
2023-08-15 17:46:30.623686,-197.0
2023-08-15 17:46:30.631376,-102.0
2023-08-15 17:46:30.639066,-119.0
2023-08-15 17:46:30.646755,-92.0
2023-08-15 17:46:30.654445,-73.0
2023-08-15 17:46:30.662134,-83.0
2023-08-15 17:46:30.669824,-71.0
2023-08-15 17:46:30.677514,-57.0
2023-08-15 17:46:30.685203,-52.0
2023-08-15 17:46:30.692893,-42.0
2023-08-15 17:46:30.700582,-28.0
2023-08-15 17:46:30.708272,-19.0
2023-08-15 17:46:30.715962,-7.0
2023-08-15 17:46:30.723651,9.0
2023-08-15 17:46:30.731341,23.0
2023-08-15 17:46:30.739031,40.0
2023-08-15 17:46:30.746720,59.0
2023-08-15 17:46:30.754410,80.0
2023-08-15 17:46:30.762099,99.0
2023-08-15 17:46:30.769789,123.0
2023-08-15 17:46:30.777479,142.0
2023-08-15 17:46:30.785168,154.0
2023-08-15 17:46:30.792858,161.0
2023-08-15 17:46:30.800547,164.0
2023-08-15 17:46:30.808237,154.0
2023-08-15 17:46:30.815927,128.0
2023-08-15 17:46:30.823616,90.0
2023-08-15 17:46:30.831306,35.0
2023-08-15 17:46:30.838996,-19.0
2023-08-15 17:46:30.846685,-64.0
2023-08-15 17:46:30.854375,-104.0
2023-08-15 17:46:30.862064,-133.0
2023-08-15 17:46:30.869754,-147.0
2023-08-15 17:46:30.877444,-154.0
2023-08-15 17:46:30.885133,-159.0
2023-08-15 17:46:30.892823,-159.0
2023-08-15 17:46:30.900512,-157.0
2023-08-15 17:46:30.908202,-157.0
2023-08-15 17:46:30.915892,-149.0
2023-08-15 17:46:30.923581,-145.0
2023-08-15 17:46:30.931271,-138.0
2023-08-15 17:46:30.938961,-133.0
2023-08-15 17:46:30.946650,-128.0
2023-08-15 17:46:30.954340,-121.0
2023-08-15 17:46:30.962029,-114.0
2023-08-15 17:46:30.969719,-109.0
2023-08-15 17:46:30.977409,-107.0
2023-08-15 17:46:30.985098,-104.0
2023-08-15 17:46:30.992788,-107.0
2023-08-15 17:46:31.000477,-102.0
2023-08-15 17:46:31.008167,-97.0
2023-08-15 17:46:31.015857,-92.0
2023-08-15 17:46:31.023546,-92.0
2023-08-15 17:46:31.031236,-95.0
2023-08-15 17:46:31.038926,-107.0
2023-08-15 17:46:31.046615,-111.0
2023-08-15 17:46:31.054305,-104.0
2023-08-15 17:46:31.061994,-104.0
2023-08-15 17:46:31.069684,-104.0
2023-08-15 17:46:31.077374,-104.0
2023-08-15 17:46:31.085063,-107.0
2023-08-15 17:46:31.092753,-107.0
2023-08-15 17:46:31.100442,-102.0
2023-08-15 17:46:31.108132,-99.0
2023-08-15 17:46:31.115822,-97.0
2023-08-15 17:46:31.123511,-95.0
2023-08-15 17:46:31.131201,-97.0
2023-08-15 17:46:31.138891,-95.0
2023-08-15 17:46:31.146580,-90.0
2023-08-15 17:46:31.154270,-90.0
2023-08-15 17:46:31.161959,-88.0
2023-08-15 17:46:31.169649,-83.0
2023-08-15 17:46:31.177339,-78.0
2023-08-15 17:46:31.185028,-61.0
2023-08-15 17:46:31.192718,-52.0
2023-08-15 17:46:31.200407,-47.0
2023-08-15 17:46:31.208097,-38.0
2023-08-15 17:46:31.215787,-42.0
2023-08-15 17:46:31.223476,-69.0
2023-08-15 17:46:31.231166,-97.0
2023-08-15 17:46:31.238856,-109.0
2023-08-15 17:46:31.246545,-104.0
2023-08-15 17:46:31.254235,-102.0
2023-08-15 17:46:31.261924,-109.0
2023-08-15 17:46:31.269614,-95.0
2023-08-15 17:46:31.277304,0.0
2023-08-15 17:46:31.284993,240.0
2023-08-15 17:46:31.292683,502.0
2023-08-15 17:46:31.300372,426.0
2023-08-15 17:46:31.308062,-85.0
2023-08-15 17:46:31.315752,-561.0
2023-08-15 17:46:31.323441,-526.0
2023-08-15 17:46:31.331131,-192.0
2023-08-15 17:46:31.338821,-66.0
2023-08-15 17:46:31.346510,-119.0
2023-08-15 17:46:31.354200,-104.0
2023-08-15 17:46:31.361889,-73.0
2023-08-15 17:46:31.369579,-83.0
2023-08-15 17:46:31.377269,-76.0
2023-08-15 17:46:31.384958,-57.0
2023-08-15 17:46:31.392648,-52.0
2023-08-15 17:46:31.400337,-45.0
2023-08-15 17:46:31.408027,-30.0
2023-08-15 17:46:31.415717,-19.0
2023-08-15 17:46:31.423406,-4.0
2023-08-15 17:46:31.431096,9.0
2023-08-15 17:46:31.438786,26.0
2023-08-15 17:46:31.446475,42.0
2023-08-15 17:46:31.454165,61.0
2023-08-15 17:46:31.461854,80.0
2023-08-15 17:46:31.469544,99.0
2023-08-15 17:46:31.477234,119.0
2023-08-15 17:46:31.484923,138.0
2023-08-15 17:46:31.492613,149.0
2023-08-15 17:46:31.500302,159.0
2023-08-15 17:46:31.507992,161.0
2023-08-15 17:46:31.515682,157.0
2023-08-15 17:46:31.523371,138.0
2023-08-15 17:46:31.531061,104.0
2023-08-15 17:46:31.538751,57.0
2023-08-15 17:46:31.546440,2.0
2023-08-15 17:46:31.554130,-45.0
2023-08-15 17:46:31.561819,-85.0
2023-08-15 17:46:31.569509,-116.0
2023-08-15 17:46:31.577199,-138.0
2023-08-15 17:46:31.584888,-147.0
2023-08-15 17:46:31.592578,-152.0
2023-08-15 17:46:31.600267,-152.0
2023-08-15 17:46:31.607957,-149.0
2023-08-15 17:46:31.615647,-149.0
2023-08-15 17:46:31.623336,-154.0
2023-08-15 17:46:31.631026,-154.0
2023-08-15 17:46:31.638716,-145.0
2023-08-15 17:46:31.646405,-140.0
2023-08-15 17:46:31.654095,-135.0
2023-08-15 17:46:31.661784,-128.0
2023-08-15 17:46:31.669474,-121.0
2023-08-15 17:46:31.677164,-119.0
2023-08-15 17:46:31.684853,-114.0
2023-08-15 17:46:31.692543,-107.0
2023-08-15 17:46:31.700232,-102.0
2023-08-15 17:46:31.707922,-97.0
2023-08-15 17:46:31.715612,-97.0
2023-08-15 17:46:31.723301,-97.0
2023-08-15 17:46:31.730991,-97.0
2023-08-15 17:46:31.738681,-95.0
2023-08-15 17:46:31.746370,-95.0
2023-08-15 17:46:31.754060,-95.0
2023-08-15 17:46:31.761749,-95.0
2023-08-15 17:46:31.769439,-95.0
2023-08-15 17:46:31.777129,-95.0
2023-08-15 17:46:31.784818,-95.0
2023-08-15 17:46:31.792508,-95.0
2023-08-15 17:46:31.800197,-95.0
2023-08-15 17:46:31.807887,-95.0
2023-08-15 17:46:31.815577,-95.0
2023-08-15 17:46:31.823266,-92.0
2023-08-15 17:46:31.830956,-92.0
2023-08-15 17:46:31.838646,-95.0
2023-08-15 17:46:31.846335,-102.0
2023-08-15 17:46:31.854025,-99.0
2023-08-15 17:46:31.861714,-95.0
2023-08-15 17:46:31.869404,-95.0
2023-08-15 17:46:31.877094,-92.0
2023-08-15 17:46:31.884783,-90.0
2023-08-15 17:46:31.892473,-88.0
2023-08-15 17:46:31.900162,-78.0
2023-08-15 17:46:31.907852,-66.0
2023-08-15 17:46:31.915542,-59.0
2023-08-15 17:46:31.923231,-52.0
2023-08-15 17:46:31.930921,-47.0
2023-08-15 17:46:31.938611,-52.0
2023-08-15 17:46:31.946300,-69.0
2023-08-15 17:46:31.953990,-97.0
2023-08-15 17:46:31.961679,-116.0
2023-08-15 17:46:31.969369,-114.0
2023-08-15 17:46:31.977059,-111.0
2023-08-15 17:46:31.984748,-114.0
2023-08-15 17:46:31.992438,-107.0
2023-08-15 17:46:32.000127,-45.0
2023-08-15 17:46:32.007817,147.0
2023-08-15 17:46:32.015507,428.0
2023-08-15 17:46:32.023196,480.0
2023-08-15 17:46:32.030886,76.0
2023-08-15 17:46:32.038576,-464.0
2023-08-15 17:46:32.046265,-587.0
2023-08-15 17:46:32.053955,-285.0
2023-08-15 17:46:32.061644,-73.0
2023-08-15 17:46:32.069334,-102.0
2023-08-15 17:46:32.077024,-114.0
2023-08-15 17:46:32.084713,-73.0
2023-08-15 17:46:32.092403,-76.0
2023-08-15 17:46:32.100092,-83.0
2023-08-15 17:46:32.107782,-66.0
2023-08-15 17:46:32.115472,-59.0
2023-08-15 17:46:32.123161,-54.0
2023-08-15 17:46:32.130851,-38.0
2023-08-15 17:46:32.138541,-26.0
2023-08-15 17:46:32.146230,-19.0
2023-08-15 17:46:32.153920,-4.0
2023-08-15 17:46:32.161609,4.0
2023-08-15 17:46:32.169299,11.0
2023-08-15 17:46:32.176989,35.0
2023-08-15 17:46:32.184678,59.0
2023-08-15 17:46:32.192368,76.0
2023-08-15 17:46:32.200057,97.0
2023-08-15 17:46:32.207747,119.0
2023-08-15 17:46:32.215437,133.0
2023-08-15 17:46:32.223126,142.0
2023-08-15 17:46:32.230816,147.0
2023-08-15 17:46:32.238506,142.0
2023-08-15 17:46:32.246195,130.0
2023-08-15 17:46:32.253885,109.0
2023-08-15 17:46:32.261574,66.0
2023-08-15 17:46:32.269264,16.0
2023-08-15 17:46:32.276954,-35.0
2023-08-15 17:46:32.284643,-83.0
2023-08-15 17:46:32.292333,-116.0
2023-08-15 17:46:32.300022,-135.0
2023-08-15 17:46:32.307712,-142.0
2023-08-15 17:46:32.315402,-149.0
2023-08-15 17:46:32.323091,-157.0
2023-08-15 17:46:32.330781,-159.0
2023-08-15 17:46:32.338471,-159.0
2023-08-15 17:46:32.346160,-161.0
2023-08-15 17:46:32.353850,-157.0
2023-08-15 17:46:32.361539,-145.0
2023-08-15 17:46:32.369229,-135.0
2023-08-15 17:46:32.376919,-135.0
2023-08-15 17:46:32.384608,-133.0
2023-08-15 17:46:32.392298,-126.0
2023-08-15 17:46:32.399987,-123.0
2023-08-15 17:46:32.407677,-119.0
2023-08-15 17:46:32.415367,-111.0
2023-08-15 17:46:32.423056,-109.0
2023-08-15 17:46:32.430746,-107.0
2023-08-15 17:46:32.438436,-104.0
2023-08-15 17:46:32.446125,-99.0
2023-08-15 17:46:32.453815,-97.0
2023-08-15 17:46:32.461504,-99.0
2023-08-15 17:46:32.469194,-102.0
2023-08-15 17:46:32.476884,-102.0
2023-08-15 17:46:32.484573,-102.0
2023-08-15 17:46:32.492263,-99.0
2023-08-15 17:46:32.499952,-99.0
2023-08-15 17:46:32.507642,-97.0
2023-08-15 17:46:32.515332,-95.0
2023-08-15 17:46:32.523021,-99.0
2023-08-15 17:46:32.530711,-102.0
2023-08-15 17:46:32.538401,-92.0
2023-08-15 17:46:32.546090,-90.0
2023-08-15 17:46:32.553780,-95.0
2023-08-15 17:46:32.561469,-99.0
2023-08-15 17:46:32.569159,-99.0
2023-08-15 17:46:32.576849,-95.0
2023-08-15 17:46:32.584538,-90.0
2023-08-15 17:46:32.592228,-88.0
2023-08-15 17:46:32.599917,-88.0
2023-08-15 17:46:32.607607,-85.0
2023-08-15 17:46:32.615297,-80.0
2023-08-15 17:46:32.622986,-78.0
2023-08-15 17:46:32.630676,-69.0
2023-08-15 17:46:32.638366,-54.0
2023-08-15 17:46:32.646055,-47.0
2023-08-15 17:46:32.653745,-47.0
2023-08-15 17:46:32.661434,-47.0
2023-08-15 17:46:32.669124,-52.0
2023-08-15 17:46:32.676814,-73.0
2023-08-15 17:46:32.684503,-97.0
2023-08-15 17:46:32.692193,-102.0
2023-08-15 17:46:32.699882,-95.0
2023-08-15 17:46:32.707572,-99.0
2023-08-15 17:46:32.715262,-104.0
2023-08-15 17:46:32.722951,-73.0
2023-08-15 17:46:32.730641,45.0
2023-08-15 17:46:32.738331,302.0
2023-08-15 17:46:32.746020,528.0
2023-08-15 17:46:32.753710,364.0
2023-08-15 17:46:32.761399,-188.0
2023-08-15 17:46:32.769089,-578.0
2023-08-15 17:46:32.776779,-461.0
2023-08-15 17:46:32.784468,-173.0
2023-08-15 17:46:32.792158,-97.0
2023-08-15 17:46:32.799847,-121.0
2023-08-15 17:46:32.807537,-95.0
2023-08-15 17:46:32.815227,-80.0
2023-08-15 17:46:32.822916,-88.0
2023-08-15 17:46:32.830606,-78.0
2023-08-15 17:46:32.838296,-69.0
2023-08-15 17:46:32.845985,-66.0
2023-08-15 17:46:32.853675,-57.0
2023-08-15 17:46:32.861364,-40.0
2023-08-15 17:46:32.869054,-28.0
2023-08-15 17:46:32.876744,-16.0
2023-08-15 17:46:32.884433,2.0
2023-08-15 17:46:32.892123,16.0
2023-08-15 17:46:32.899812,33.0
2023-08-15 17:46:32.907502,54.0
2023-08-15 17:46:32.915192,71.0
2023-08-15 17:46:32.922881,88.0
2023-08-15 17:46:32.930571,114.0
2023-08-15 17:46:32.938261,133.0
2023-08-15 17:46:32.945950,142.0
2023-08-15 17:46:32.953640,149.0
2023-08-15 17:46:32.961329,152.0
2023-08-15 17:46:32.969019,140.0
2023-08-15 17:46:32.976709,119.0
2023-08-15 17:46:32.984398,90.0
2023-08-15 17:46:32.992088,45.0
2023-08-15 17:46:32.999777,-7.0
2023-08-15 17:46:33.007467,-52.0
2023-08-15 17:46:33.015157,-90.0
2023-08-15 17:46:33.022846,-126.0
2023-08-15 17:46:33.030536,-147.0
2023-08-15 17:46:33.038226,-152.0
2023-08-15 17:46:33.045915,-152.0
2023-08-15 17:46:33.053605,-154.0
2023-08-15 17:46:33.061294,-159.0
2023-08-15 17:46:33.068984,-161.0
2023-08-15 17:46:33.076674,-154.0
2023-08-15 17:46:33.084363,-147.0
2023-08-15 17:46:33.092053,-140.0
2023-08-15 17:46:33.099742,-135.0
2023-08-15 17:46:33.107432,-133.0
2023-08-15 17:46:33.115122,-126.0
2023-08-15 17:46:33.122811,-119.0
2023-08-15 17:46:33.130501,-111.0
2023-08-15 17:46:33.138191,-109.0
2023-08-15 17:46:33.145880,-107.0
2023-08-15 17:46:33.153570,-107.0
2023-08-15 17:46:33.161259,-104.0
2023-08-15 17:46:33.168949,-97.0
2023-08-15 17:46:33.176639,-95.0
2023-08-15 17:46:33.184328,-99.0
2023-08-15 17:46:33.192018,-99.0
2023-08-15 17:46:33.199707,-102.0
2023-08-15 17:46:33.207397,-104.0
2023-08-15 17:46:33.215087,-104.0
2023-08-15 17:46:33.222776,-102.0
2023-08-15 17:46:33.230466,-104.0
2023-08-15 17:46:33.238156,-104.0
2023-08-15 17:46:33.245845,-104.0
2023-08-15 17:46:33.253535,-107.0
2023-08-15 17:46:33.261224,-109.0
2023-08-15 17:46:33.268914,-109.0
2023-08-15 17:46:33.276604,-109.0
2023-08-15 17:46:33.284293,-109.0
2023-08-15 17:46:33.291983,-107.0
2023-08-15 17:46:33.299672,-102.0
2023-08-15 17:46:33.307362,-104.0
2023-08-15 17:46:33.315052,-104.0
2023-08-15 17:46:33.322741,-99.0
2023-08-15 17:46:33.330431,-85.0
2023-08-15 17:46:33.338121,-76.0
2023-08-15 17:46:33.345810,-78.0
2023-08-15 17:46:33.353500,-73.0
2023-08-15 17:46:33.361189,-69.0
2023-08-15 17:46:33.368879,-78.0
2023-08-15 17:46:33.376569,-114.0
2023-08-15 17:46:33.384258,-145.0
2023-08-15 17:46:33.391948,-140.0
2023-08-15 17:46:33.399637,-128.0
2023-08-15 17:46:33.407327,-130.0
2023-08-15 17:46:33.415017,-130.0
2023-08-15 17:46:33.422706,-90.0
2023-08-15 17:46:33.430396,66.0
2023-08-15 17:46:33.438086,359.0
2023-08-15 17:46:33.445775,526.0
2023-08-15 17:46:33.453465,230.0
2023-08-15 17:46:33.461154,-357.0
2023-08-15 17:46:33.468844,-635.0
2023-08-15 17:46:33.476534,-416.0
2023-08-15 17:46:33.484223,-161.0
2023-08-15 17:46:33.491913,-128.0
2023-08-15 17:46:33.499602,-130.0
2023-08-15 17:46:33.507292,-99.0
2023-08-15 17:46:33.514982,-97.0
2023-08-15 17:46:33.522671,-102.0
2023-08-15 17:46:33.530361,-83.0
2023-08-15 17:46:33.538051,-71.0
2023-08-15 17:46:33.545740,-64.0
2023-08-15 17:46:33.553430,-47.0
2023-08-15 17:46:33.561119,-35.0
2023-08-15 17:46:33.568809,-23.0
2023-08-15 17:46:33.576499,-11.0
2023-08-15 17:46:33.584188,7.0
2023-08-15 17:46:33.591878,23.0
2023-08-15 17:46:33.599567,42.0
2023-08-15 17:46:33.607257,64.0
2023-08-15 17:46:33.614947,85.0
2023-08-15 17:46:33.622636,107.0
2023-08-15 17:46:33.630326,128.0
2023-08-15 17:46:33.638016,149.0
2023-08-15 17:46:33.645705,161.0
2023-08-15 17:46:33.653395,166.0
2023-08-15 17:46:33.661084,166.0
2023-08-15 17:46:33.668774,152.0
2023-08-15 17:46:33.676464,126.0
2023-08-15 17:46:33.684153,85.0
2023-08-15 17:46:33.691843,33.0
2023-08-15 17:46:33.699532,-21.0
2023-08-15 17:46:33.707222,-69.0
2023-08-15 17:46:33.714912,-104.0
2023-08-15 17:46:33.722601,-130.0
2023-08-15 17:46:33.730291,-147.0
2023-08-15 17:46:33.737981,-157.0
2023-08-15 17:46:33.745670,-159.0
2023-08-15 17:46:33.753360,-157.0
2023-08-15 17:46:33.761049,-157.0
2023-08-15 17:46:33.768739,-152.0
2023-08-15 17:46:33.776429,-147.0
2023-08-15 17:46:33.784118,-142.0
2023-08-15 17:46:33.791808,-138.0
2023-08-15 17:46:33.799497,-133.0
2023-08-15 17:46:33.807187,-128.0
2023-08-15 17:46:33.814877,-121.0
2023-08-15 17:46:33.822566,-114.0
2023-08-15 17:46:33.830256,-111.0
2023-08-15 17:46:33.837946,-107.0
2023-08-15 17:46:33.845635,-104.0
2023-08-15 17:46:33.853325,-107.0
2023-08-15 17:46:33.861014,-111.0
2023-08-15 17:46:33.868704,-111.0
2023-08-15 17:46:33.876394,-114.0
2023-08-15 17:46:33.884083,-116.0
2023-08-15 17:46:33.891773,-111.0
2023-08-15 17:46:33.899462,-111.0
2023-08-15 17:46:33.907152,-114.0
2023-08-15 17:46:33.914842,-121.0
2023-08-15 17:46:33.922531,-128.0
2023-08-15 17:46:33.930221,-130.0
2023-08-15 17:46:33.937911,-128.0
2023-08-15 17:46:33.945600,-130.0
2023-08-15 17:46:33.953290,-130.0
2023-08-15 17:46:33.960979,-130.0
2023-08-15 17:46:33.968669,-130.0
2023-08-15 17:46:33.976359,-128.0
2023-08-15 17:46:33.984048,-123.0
2023-08-15 17:46:33.991738,-121.0
2023-08-15 17:46:33.999427,-121.0
2023-08-15 17:46:34.007117,-119.0
2023-08-15 17:46:34.014807,-111.0
2023-08-15 17:46:34.022496,-104.0
2023-08-15 17:46:34.030186,-95.0
2023-08-15 17:46:34.037876,-88.0
2023-08-15 17:46:34.045565,-83.0
2023-08-15 17:46:34.053255,-78.0
2023-08-15 17:46:34.060944,-80.0
2023-08-15 17:46:34.068634,-99.0
2023-08-15 17:46:34.076324,-121.0
2023-08-15 17:46:34.084013,-130.0
2023-08-15 17:46:34.091703,-126.0
2023-08-15 17:46:34.099392,-123.0
2023-08-15 17:46:34.107082,-126.0
2023-08-15 17:46:34.114772,-114.0
2023-08-15 17:46:34.122461,-35.0
2023-08-15 17:46:34.130151,190.0
2023-08-15 17:46:34.137841,473.0
2023-08-15 17:46:34.145530,452.0
2023-08-15 17:46:34.153220,-26.0
2023-08-15 17:46:34.160909,-537.0
2023-08-15 17:46:34.168599,-564.0
2023-08-15 17:46:34.176289,-226.0
2023-08-15 17:46:34.183978,-69.0
2023-08-15 17:46:34.191668,-123.0
2023-08-15 17:46:34.199357,-114.0
2023-08-15 17:46:34.207047,-73.0
2023-08-15 17:46:34.214737,-85.0
2023-08-15 17:46:34.222426,-88.0
2023-08-15 17:46:34.230116,-69.0
2023-08-15 17:46:34.237806,-61.0
2023-08-15 17:46:34.245495,-54.0
2023-08-15 17:46:34.253185,-38.0
2023-08-15 17:46:34.260874,-23.0
2023-08-15 17:46:34.268564,-11.0
2023-08-15 17:46:34.276254,2.0
2023-08-15 17:46:34.283943,19.0
2023-08-15 17:46:34.291633,38.0
2023-08-15 17:46:34.299322,57.0
2023-08-15 17:46:34.307012,78.0
2023-08-15 17:46:34.314702,99.0
2023-08-15 17:46:34.322391,121.0
2023-08-15 17:46:34.330081,142.0
2023-08-15 17:46:34.337771,159.0
2023-08-15 17:46:34.345460,171.0
2023-08-15 17:46:34.353150,171.0
2023-08-15 17:46:34.360839,159.0
2023-08-15 17:46:34.368529,142.0
2023-08-15 17:46:34.376219,114.0
2023-08-15 17:46:34.383908,69.0
2023-08-15 17:46:34.391598,14.0
2023-08-15 17:46:34.399287,-38.0
2023-08-15 17:46:34.406977,-88.0
2023-08-15 17:46:34.414667,-128.0
2023-08-15 17:46:34.422356,-152.0
2023-08-15 17:46:34.430046,-164.0
2023-08-15 17:46:34.437736,-169.0
2023-08-15 17:46:34.445425,-171.0
2023-08-15 17:46:34.453115,-169.0
2023-08-15 17:46:34.460804,-166.0
2023-08-15 17:46:34.468494,-161.0
2023-08-15 17:46:34.476184,-157.0
2023-08-15 17:46:34.483873,-149.0
2023-08-15 17:46:34.491563,-142.0
2023-08-15 17:46:34.499252,-138.0
2023-08-15 17:46:34.506942,-133.0
2023-08-15 17:46:34.514632,-126.0
2023-08-15 17:46:34.522321,-119.0
2023-08-15 17:46:34.530011,-114.0
2023-08-15 17:46:34.537700,-111.0
2023-08-15 17:46:34.545390,-107.0
2023-08-15 17:46:34.553080,-104.0
2023-08-15 17:46:34.560769,-97.0
2023-08-15 17:46:34.568459,-92.0
2023-08-15 17:46:34.576149,-92.0
2023-08-15 17:46:34.583838,-92.0
2023-08-15 17:46:34.591528,-92.0
2023-08-15 17:46:34.599217,-92.0
2023-08-15 17:46:34.606907,-92.0
2023-08-15 17:46:34.614597,-90.0
2023-08-15 17:46:34.622286,-90.0
2023-08-15 17:46:34.629976,-90.0
2023-08-15 17:46:34.637665,-92.0
2023-08-15 17:46:34.645355,-95.0
2023-08-15 17:46:34.653045,-95.0
2023-08-15 17:46:34.660734,-92.0
2023-08-15 17:46:34.668424,-90.0
2023-08-15 17:46:34.676114,-92.0
2023-08-15 17:46:34.683803,-97.0
2023-08-15 17:46:34.691493,-92.0
2023-08-15 17:46:34.699182,-88.0
2023-08-15 17:46:34.706872,-85.0
2023-08-15 17:46:34.714562,-76.0
2023-08-15 17:46:34.722251,-66.0
2023-08-15 17:46:34.729941,-57.0
2023-08-15 17:46:34.737630,-52.0
2023-08-15 17:46:34.745320,-45.0
2023-08-15 17:46:34.753010,-40.0
2023-08-15 17:46:34.760699,-54.0
2023-08-15 17:46:34.768389,-83.0
2023-08-15 17:46:34.776079,-102.0
2023-08-15 17:46:34.783768,-99.0
2023-08-15 17:46:34.791458,-92.0
2023-08-15 17:46:34.799147,-95.0
2023-08-15 17:46:34.806837,-95.0
2023-08-15 17:46:34.814527,-64.0
2023-08-15 17:46:34.822216,69.0
2023-08-15 17:46:34.829906,345.0
2023-08-15 17:46:34.837595,537.0
2023-08-15 17:46:34.845285,299.0
2023-08-15 17:46:34.852975,-264.0
2023-08-15 17:46:34.860664,-597.0
2023-08-15 17:46:34.868354,-409.0
2023-08-15 17:46:34.876044,-102.0
2023-08-15 17:46:34.883733,-61.0
2023-08-15 17:46:34.891423,-109.0
2023-08-15 17:46:34.899112,-73.0
2023-08-15 17:46:34.906802,-57.0
2023-08-15 17:46:34.914492,-71.0
2023-08-15 17:46:34.922181,-61.0
2023-08-15 17:46:34.929871,-47.0
2023-08-15 17:46:34.937560,-42.0
2023-08-15 17:46:34.945250,-33.0
2023-08-15 17:46:34.952940,-19.0
2023-08-15 17:46:34.960629,-9.0
2023-08-15 17:46:34.968319,4.0
2023-08-15 17:46:34.976009,23.0
2023-08-15 17:46:34.983698,40.0
2023-08-15 17:46:34.991388,52.0
2023-08-15 17:46:34.999077,61.0
2023-08-15 17:46:35.006767,78.0
2023-08-15 17:46:35.014457,104.0
2023-08-15 17:46:35.022146,128.0
2023-08-15 17:46:35.029836,147.0
2023-08-15 17:46:35.037525,161.0
2023-08-15 17:46:35.045215,166.0
2023-08-15 17:46:35.052905,169.0
2023-08-15 17:46:35.060594,159.0
2023-08-15 17:46:35.068284,140.0
2023-08-15 17:46:35.075974,107.0
2023-08-15 17:46:35.083663,57.0
2023-08-15 17:46:35.091353,0.0
2023-08-15 17:46:35.099042,-49.0
2023-08-15 17:46:35.106732,-85.0
2023-08-15 17:46:35.114422,-109.0
2023-08-15 17:46:35.122111,-128.0
2023-08-15 17:46:35.129801,-138.0
2023-08-15 17:46:35.137490,-140.0
2023-08-15 17:46:35.145180,-140.0
2023-08-15 17:46:35.152870,-135.0
2023-08-15 17:46:35.160559,-133.0
2023-08-15 17:46:35.168249,-135.0
2023-08-15 17:46:35.175939,-133.0
2023-08-15 17:46:35.183628,-123.0
2023-08-15 17:46:35.191318,-119.0
2023-08-15 17:46:35.199007,-114.0
2023-08-15 17:46:35.206697,-107.0
2023-08-15 17:46:35.214387,-99.0
2023-08-15 17:46:35.222076,-97.0
2023-08-15 17:46:35.229766,-95.0
2023-08-15 17:46:35.237455,-92.0
2023-08-15 17:46:35.245145,-90.0
2023-08-15 17:46:35.252835,-83.0
2023-08-15 17:46:35.260524,-78.0
2023-08-15 17:46:35.268214,-78.0
2023-08-15 17:46:35.275904,-76.0
2023-08-15 17:46:35.283593,-73.0
2023-08-15 17:46:35.291283,-73.0
2023-08-15 17:46:35.298972,-73.0
2023-08-15 17:46:35.306662,-73.0
2023-08-15 17:46:35.314352,-76.0
2023-08-15 17:46:35.322041,-78.0
2023-08-15 17:46:35.329731,-78.0
2023-08-15 17:46:35.337420,-78.0
2023-08-15 17:46:35.345110,-71.0
2023-08-15 17:46:35.352800,-69.0
2023-08-15 17:46:35.360489,-71.0
2023-08-15 17:46:35.368179,-78.0
2023-08-15 17:46:35.375869,-85.0
2023-08-15 17:46:35.383558,-83.0
2023-08-15 17:46:35.391248,-76.0
2023-08-15 17:46:35.398937,-76.0
2023-08-15 17:46:35.406627,-78.0
2023-08-15 17:46:35.414317,-76.0
2023-08-15 17:46:35.422006,-66.0
2023-08-15 17:46:35.429696,-52.0
2023-08-15 17:46:35.437385,-42.0
2023-08-15 17:46:35.445075,-40.0
2023-08-15 17:46:35.452765,-33.0
2023-08-15 17:46:35.460454,-35.0
2023-08-15 17:46:35.468144,-61.0
2023-08-15 17:46:35.475834,-90.0
2023-08-15 17:46:35.483523,-99.0
2023-08-15 17:46:35.491213,-95.0
2023-08-15 17:46:35.498902,-90.0
2023-08-15 17:46:35.506592,-90.0
2023-08-15 17:46:35.514282,-83.0
2023-08-15 17:46:35.521971,-4.0
2023-08-15 17:46:35.529661,216.0
2023-08-15 17:46:35.537350,483.0
2023-08-15 17:46:35.545040,454.0
2023-08-15 17:46:35.552730,-9.0
2023-08-15 17:46:35.560419,-507.0
2023-08-15 17:46:35.568109,-533.0
2023-08-15 17:46:35.575799,-211.0
2023-08-15 17:46:35.583488,-61.0
2023-08-15 17:46:35.591178,-111.0
2023-08-15 17:46:35.598867,-97.0
2023-08-15 17:46:35.606557,-57.0
2023-08-15 17:46:35.614247,-69.0
2023-08-15 17:46:35.621936,-71.0
2023-08-15 17:46:35.629626,-52.0
2023-08-15 17:46:35.637315,-45.0
2023-08-15 17:46:35.645005,-40.0
2023-08-15 17:46:35.652695,-23.0
2023-08-15 17:46:35.660384,-9.0
2023-08-15 17:46:35.668074,-2.0
2023-08-15 17:46:35.675764,7.0
2023-08-15 17:46:35.683453,26.0
2023-08-15 17:46:35.691143,45.0
2023-08-15 17:46:35.698832,66.0
2023-08-15 17:46:35.706522,88.0
2023-08-15 17:46:35.714212,107.0
2023-08-15 17:46:35.721901,126.0
2023-08-15 17:46:35.729591,147.0
2023-08-15 17:46:35.737280,161.0
2023-08-15 17:46:35.744970,171.0
2023-08-15 17:46:35.752660,178.0
2023-08-15 17:46:35.760349,173.0
2023-08-15 17:46:35.768039,152.0
2023-08-15 17:46:35.775729,126.0
2023-08-15 17:46:35.783418,90.0
2023-08-15 17:46:35.791108,38.0
2023-08-15 17:46:35.798797,-19.0
2023-08-15 17:46:35.806487,-64.0
2023-08-15 17:46:35.814177,-95.0
2023-08-15 17:46:35.821866,-116.0
2023-08-15 17:46:35.829556,-128.0
2023-08-15 17:46:35.837245,-133.0
2023-08-15 17:46:35.844935,-135.0
2023-08-15 17:46:35.852625,-133.0
2023-08-15 17:46:35.860314,-133.0
2023-08-15 17:46:35.868004,-138.0
2023-08-15 17:46:35.875694,-140.0
2023-08-15 17:46:35.883383,-128.0
2023-08-15 17:46:35.891073,-119.0
2023-08-15 17:46:35.898762,-119.0
2023-08-15 17:46:35.906452,-116.0
2023-08-15 17:46:35.914142,-109.0
2023-08-15 17:46:35.921831,-107.0
2023-08-15 17:46:35.929521,-104.0
2023-08-15 17:46:35.937210,-99.0
2023-08-15 17:46:35.944900,-95.0
2023-08-15 17:46:35.952590,-92.0
2023-08-15 17:46:35.960279,-90.0
2023-08-15 17:46:35.967969,-88.0
2023-08-15 17:46:35.975659,-85.0
2023-08-15 17:46:35.983348,-80.0
2023-08-15 17:46:35.991038,-83.0
2023-08-15 17:46:35.998727,-85.0
2023-08-15 17:46:36.006417,-83.0
2023-08-15 17:46:36.014107,-83.0
2023-08-15 17:46:36.021796,-85.0
2023-08-15 17:46:36.029486,-85.0
2023-08-15 17:46:36.037175,-83.0
2023-08-15 17:46:36.044865,-83.0
2023-08-15 17:46:36.052555,-83.0
2023-08-15 17:46:36.060244,-80.0
2023-08-15 17:46:36.067934,-78.0
2023-08-15 17:46:36.075624,-83.0
2023-08-15 17:46:36.083313,-90.0
2023-08-15 17:46:36.091003,-90.0
2023-08-15 17:46:36.098692,-88.0
2023-08-15 17:46:36.106382,-85.0
2023-08-15 17:46:36.114072,-83.0
2023-08-15 17:46:36.121761,-73.0
2023-08-15 17:46:36.129451,-57.0
2023-08-15 17:46:36.137140,-47.0
2023-08-15 17:46:36.144830,-42.0
2023-08-15 17:46:36.152520,-38.0
2023-08-15 17:46:36.160209,-45.0
2023-08-15 17:46:36.167899,-71.0
2023-08-15 17:46:36.175589,-95.0
2023-08-15 17:46:36.183278,-97.0
2023-08-15 17:46:36.190968,-95.0
2023-08-15 17:46:36.198657,-97.0
2023-08-15 17:46:36.206347,-95.0
2023-08-15 17:46:36.214037,-64.0
2023-08-15 17:46:36.221726,66.0
2023-08-15 17:46:36.229416,345.0
2023-08-15 17:46:36.237105,566.0
2023-08-15 17:46:36.244795,364.0
2023-08-15 17:46:36.252485,-214.0
2023-08-15 17:46:36.260174,-585.0
2023-08-15 17:46:36.267864,-433.0
2023-08-15 17:46:36.275554,-147.0
2023-08-15 17:46:36.283243,-85.0
2023-08-15 17:46:36.290933,-104.0
2023-08-15 17:46:36.298622,-78.0
2023-08-15 17:46:36.306312,-71.0
2023-08-15 17:46:36.314002,-76.0
2023-08-15 17:46:36.321691,-61.0
2023-08-15 17:46:36.329381,-45.0
2023-08-15 17:46:36.337070,-40.0
2023-08-15 17:46:36.344760,-30.0
2023-08-15 17:46:36.352450,-19.0
2023-08-15 17:46:36.360139,-9.0
2023-08-15 17:46:36.367829,0.0
2023-08-15 17:46:36.375519,11.0
2023-08-15 17:46:36.383208,28.0
2023-08-15 17:46:36.390898,47.0
2023-08-15 17:46:36.398587,61.0
2023-08-15 17:46:36.406277,80.0
2023-08-15 17:46:36.413967,104.0
2023-08-15 17:46:36.421656,128.0
2023-08-15 17:46:36.429346,145.0
2023-08-15 17:46:36.437035,154.0
2023-08-15 17:46:36.444725,159.0
2023-08-15 17:46:36.452415,164.0
2023-08-15 17:46:36.460104,159.0
2023-08-15 17:46:36.467794,140.0
2023-08-15 17:46:36.475484,104.0
2023-08-15 17:46:36.483173,52.0
2023-08-15 17:46:36.490863,-2.0
2023-08-15 17:46:36.498552,-49.0
2023-08-15 17:46:36.506242,-85.0
2023-08-15 17:46:36.513932,-114.0
2023-08-15 17:46:36.521621,-133.0
2023-08-15 17:46:36.529311,-145.0
2023-08-15 17:46:36.537000,-149.0
2023-08-15 17:46:36.544690,-147.0
2023-08-15 17:46:36.552380,-145.0
2023-08-15 17:46:36.560069,-142.0
2023-08-15 17:46:36.567759,-138.0
2023-08-15 17:46:36.575449,-135.0
2023-08-15 17:46:36.583138,-128.0
2023-08-15 17:46:36.590828,-116.0
2023-08-15 17:46:36.598517,-109.0
2023-08-15 17:46:36.606207,-107.0
2023-08-15 17:46:36.613897,-104.0
2023-08-15 17:46:36.621586,-99.0
2023-08-15 17:46:36.629276,-95.0
2023-08-15 17:46:36.636965,-90.0
2023-08-15 17:46:36.644655,-88.0
2023-08-15 17:46:36.652345,-90.0
2023-08-15 17:46:36.660034,-88.0
2023-08-15 17:46:36.667724,-85.0
2023-08-15 17:46:36.675414,-83.0
2023-08-15 17:46:36.683103,-80.0
2023-08-15 17:46:36.690793,-83.0
2023-08-15 17:46:36.698482,-83.0
2023-08-15 17:46:36.706172,-90.0
2023-08-15 17:46:36.713862,-99.0
2023-08-15 17:46:36.721551,-95.0
2023-08-15 17:46:36.729241,-92.0
2023-08-15 17:46:36.736930,-92.0
2023-08-15 17:46:36.744620,-92.0
2023-08-15 17:46:36.752310,-90.0
2023-08-15 17:46:36.759999,-92.0
2023-08-15 17:46:36.767689,-90.0
2023-08-15 17:46:36.775379,-83.0
2023-08-15 17:46:36.783068,-80.0
2023-08-15 17:46:36.790758,-83.0
2023-08-15 17:46:36.798447,-83.0
2023-08-15 17:46:36.806137,-78.0
2023-08-15 17:46:36.813827,-64.0
2023-08-15 17:46:36.821516,-49.0
2023-08-15 17:46:36.829206,-45.0
2023-08-15 17:46:36.836895,-35.0
2023-08-15 17:46:36.844585,-33.0
2023-08-15 17:46:36.852275,-47.0
2023-08-15 17:46:36.859964,-73.0
2023-08-15 17:46:36.867654,-95.0
2023-08-15 17:46:36.875344,-99.0
2023-08-15 17:46:36.883033,-97.0
2023-08-15 17:46:36.890723,-99.0
2023-08-15 17:46:36.898412,-102.0
2023-08-15 17:46:36.906102,-64.0
2023-08-15 17:46:36.913792,92.0
2023-08-15 17:46:36.921481,383.0
2023-08-15 17:46:36.929171,547.0
2023-08-15 17:46:36.936860,249.0
2023-08-15 17:46:36.944550,-340.0
2023-08-15 17:46:36.952240,-616.0
2023-08-15 17:46:36.959929,-378.0
2023-08-15 17:46:36.967619,-107.0
2023-08-15 17:46:36.975309,-90.0
2023-08-15 17:46:36.982998,-109.0
2023-08-15 17:46:36.990688,-73.0
2023-08-15 17:46:36.998377,-69.0
2023-08-15 17:46:37.006067,-76.0
2023-08-15 17:46:37.013757,-59.0
2023-08-15 17:46:37.021446,-47.0
2023-08-15 17:46:37.029136,-45.0
2023-08-15 17:46:37.036825,-35.0
2023-08-15 17:46:37.044515,-19.0
2023-08-15 17:46:37.052205,-4.0
2023-08-15 17:46:37.059894,7.0
2023-08-15 17:46:37.067584,21.0
2023-08-15 17:46:37.075274,35.0
2023-08-15 17:46:37.082963,54.0
2023-08-15 17:46:37.090653,78.0
2023-08-15 17:46:37.098342,102.0
2023-08-15 17:46:37.106032,121.0
2023-08-15 17:46:37.113722,142.0
2023-08-15 17:46:37.121411,159.0
2023-08-15 17:46:37.129101,169.0
2023-08-15 17:46:37.136790,173.0
2023-08-15 17:46:37.144480,171.0
2023-08-15 17:46:37.152170,161.0
2023-08-15 17:46:37.159859,133.0
2023-08-15 17:46:37.167549,92.0
2023-08-15 17:46:37.175239,40.0
2023-08-15 17:46:37.182928,-11.0
2023-08-15 17:46:37.190618,-59.0
2023-08-15 17:46:37.198307,-97.0
2023-08-15 17:46:37.205997,-126.0
2023-08-15 17:46:37.213687,-140.0
2023-08-15 17:46:37.221376,-147.0
2023-08-15 17:46:37.229066,-149.0
2023-08-15 17:46:37.236755,-149.0
2023-08-15 17:46:37.244445,-154.0
2023-08-15 17:46:37.252135,-161.0
2023-08-15 17:46:37.259824,-154.0
2023-08-15 17:46:37.267514,-147.0
2023-08-15 17:46:37.275204,-142.0
2023-08-15 17:46:37.282893,-135.0
2023-08-15 17:46:37.290583,-128.0
2023-08-15 17:46:37.298272,-123.0
2023-08-15 17:46:37.305962,-119.0
2023-08-15 17:46:37.313652,-114.0
2023-08-15 17:46:37.321341,-107.0
2023-08-15 17:46:37.329031,-102.0
2023-08-15 17:46:37.336720,-99.0
2023-08-15 17:46:37.344410,-95.0
2023-08-15 17:46:37.352100,-92.0
2023-08-15 17:46:37.359789,-92.0
2023-08-15 17:46:37.367479,-92.0
2023-08-15 17:46:37.375169,-97.0
2023-08-15 17:46:37.382858,-104.0
2023-08-15 17:46:37.390548,-104.0
2023-08-15 17:46:37.398237,-102.0
2023-08-15 17:46:37.405927,-104.0
2023-08-15 17:46:37.413617,-102.0
2023-08-15 17:46:37.421306,-102.0
2023-08-15 17:46:37.428996,-104.0
2023-08-15 17:46:37.436685,-102.0
2023-08-15 17:46:37.444375,-99.0
2023-08-15 17:46:37.452065,-97.0
2023-08-15 17:46:37.459754,-97.0
2023-08-15 17:46:37.467444,-92.0
2023-08-15 17:46:37.475134,-92.0
2023-08-15 17:46:37.482823,-90.0
2023-08-15 17:46:37.490513,-90.0
2023-08-15 17:46:37.498202,-90.0
2023-08-15 17:46:37.505892,-85.0
2023-08-15 17:46:37.513582,-73.0
2023-08-15 17:46:37.521271,-64.0
2023-08-15 17:46:37.528961,-54.0
2023-08-15 17:46:37.536650,-47.0
2023-08-15 17:46:37.544340,-42.0
2023-08-15 17:46:37.552030,-49.0
2023-08-15 17:46:37.559719,-73.0
2023-08-15 17:46:37.567409,-97.0
2023-08-15 17:46:37.575099,-102.0
2023-08-15 17:46:37.582788,-97.0
2023-08-15 17:46:37.590478,-99.0
2023-08-15 17:46:37.598167,-104.0
2023-08-15 17:46:37.605857,-90.0
2023-08-15 17:46:37.613547,7.0
2023-08-15 17:46:37.621236,257.0
2023-08-15 17:46:37.628926,509.0
2023-08-15 17:46:37.636615,399.0
2023-08-15 17:46:37.644305,-126.0
2023-08-15 17:46:37.651995,-576.0
2023-08-15 17:46:37.659684,-511.0
2023-08-15 17:46:37.667374,-176.0
2023-08-15 17:46:37.675064,-64.0
2023-08-15 17:46:37.682753,-119.0
2023-08-15 17:46:37.690443,-99.0
2023-08-15 17:46:37.698132,-69.0
2023-08-15 17:46:37.705822,-80.0
2023-08-15 17:46:37.713512,-76.0
2023-08-15 17:46:37.721201,-59.0
2023-08-15 17:46:37.728891,-54.0
2023-08-15 17:46:37.736580,-47.0
2023-08-15 17:46:37.744270,-33.0
2023-08-15 17:46:37.751960,-21.0
2023-08-15 17:46:37.759649,-7.0
2023-08-15 17:46:37.767339,7.0
2023-08-15 17:46:37.775029,23.0
2023-08-15 17:46:37.782718,35.0
2023-08-15 17:46:37.790408,47.0
2023-08-15 17:46:37.798097,64.0
2023-08-15 17:46:37.805787,90.0
2023-08-15 17:46:37.813477,114.0
2023-08-15 17:46:37.821166,128.0
2023-08-15 17:46:37.828856,142.0
2023-08-15 17:46:37.836545,152.0
2023-08-15 17:46:37.844235,157.0
2023-08-15 17:46:37.851925,149.0
2023-08-15 17:46:37.859614,130.0
2023-08-15 17:46:37.867304,99.0
2023-08-15 17:46:37.874994,49.0
2023-08-15 17:46:37.882683,-11.0
2023-08-15 17:46:37.890373,-66.0
2023-08-15 17:46:37.898062,-104.0
2023-08-15 17:46:37.905752,-135.0
2023-08-15 17:46:37.913442,-159.0
2023-08-15 17:46:37.921131,-169.0
2023-08-15 17:46:37.928821,-171.0
2023-08-15 17:46:37.936510,-171.0
2023-08-15 17:46:37.944200,-169.0
2023-08-15 17:46:37.951890,-166.0
2023-08-15 17:46:37.959579,-161.0
2023-08-15 17:46:37.967269,-157.0
2023-08-15 17:46:37.974959,-152.0
2023-08-15 17:46:37.982648,-145.0
2023-08-15 17:46:37.990338,-138.0
2023-08-15 17:46:37.998027,-133.0
2023-08-15 17:46:38.005717,-128.0
2023-08-15 17:46:38.013407,-123.0
2023-08-15 17:46:38.021096,-119.0
2023-08-15 17:46:38.028786,-114.0
2023-08-15 17:46:38.036475,-107.0
2023-08-15 17:46:38.044165,-104.0
2023-08-15 17:46:38.051855,-104.0
2023-08-15 17:46:38.059544,-102.0
2023-08-15 17:46:38.067234,-99.0
2023-08-15 17:46:38.074924,-97.0
2023-08-15 17:46:38.082613,-95.0
2023-08-15 17:46:38.090303,-97.0
2023-08-15 17:46:38.097992,-97.0
2023-08-15 17:46:38.105682,-97.0
2023-08-15 17:46:38.113372,-97.0
2023-08-15 17:46:38.121061,-97.0
2023-08-15 17:46:38.128751,-99.0
2023-08-15 17:46:38.136440,-102.0
2023-08-15 17:46:38.144130,-102.0
2023-08-15 17:46:38.151820,-102.0
2023-08-15 17:46:38.159509,-99.0
2023-08-15 17:46:38.167199,-95.0
2023-08-15 17:46:38.174889,-95.0
2023-08-15 17:46:38.182578,-97.0
2023-08-15 17:46:38.190268,-97.0
2023-08-15 17:46:38.197957,-97.0
2023-08-15 17:46:38.205647,-92.0
2023-08-15 17:46:38.213337,-88.0
2023-08-15 17:46:38.221026,-78.0
2023-08-15 17:46:38.228716,-66.0
2023-08-15 17:46:38.236405,-57.0
2023-08-15 17:46:38.244095,-52.0
2023-08-15 17:46:38.251785,-45.0
2023-08-15 17:46:38.259474,-45.0
2023-08-15 17:46:38.267164,-64.0
2023-08-15 17:46:38.274854,-95.0
2023-08-15 17:46:38.282543,-111.0
2023-08-15 17:46:38.290233,-109.0
2023-08-15 17:46:38.297922,-107.0
2023-08-15 17:46:38.305612,-109.0
2023-08-15 17:46:38.313302,-102.0
2023-08-15 17:46:38.320991,-49.0
2023-08-15 17:46:38.328681,123.0
2023-08-15 17:46:38.336370,407.0
2023-08-15 17:46:38.344060,480.0
2023-08-15 17:46:38.351750,90.0
2023-08-15 17:46:38.359439,-461.0
2023-08-15 17:46:38.367129,-606.0
2023-08-15 17:46:38.374819,-302.0
2023-08-15 17:46:38.382508,-83.0
2023-08-15 17:46:38.390198,-116.0
2023-08-15 17:46:38.397887,-135.0
2023-08-15 17:46:38.405577,-99.0
2023-08-15 17:46:38.413267,-102.0
2023-08-15 17:46:38.420956,-107.0
2023-08-15 17:46:38.428646,-85.0
2023-08-15 17:46:38.436335,-73.0
2023-08-15 17:46:38.444025,-69.0
2023-08-15 17:46:38.451715,-52.0
2023-08-15 17:46:38.459404,-38.0
2023-08-15 17:46:38.467094,-28.0
2023-08-15 17:46:38.474784,-14.0
2023-08-15 17:46:38.482473,4.0
2023-08-15 17:46:38.490163,21.0
2023-08-15 17:46:38.497852,40.0
2023-08-15 17:46:38.505542,61.0
2023-08-15 17:46:38.513232,80.0
2023-08-15 17:46:38.520921,99.0
2023-08-15 17:46:38.528611,123.0
2023-08-15 17:46:38.536300,145.0
2023-08-15 17:46:38.543990,157.0
2023-08-15 17:46:38.551680,159.0
2023-08-15 17:46:38.559369,154.0
2023-08-15 17:46:38.567059,145.0
2023-08-15 17:46:38.574749,123.0
2023-08-15 17:46:38.582438,80.0
2023-08-15 17:46:38.590128,28.0
2023-08-15 17:46:38.597817,-23.0
2023-08-15 17:46:38.605507,-71.0
2023-08-15 17:46:38.613197,-109.0
2023-08-15 17:46:38.620886,-138.0
2023-08-15 17:46:38.628576,-149.0
2023-08-15 17:46:38.636265,-152.0
2023-08-15 17:46:38.643955,-159.0
2023-08-15 17:46:38.651645,-161.0
2023-08-15 17:46:38.659334,-154.0
2023-08-15 17:46:38.667024,-147.0
2023-08-15 17:46:38.674714,-145.0
2023-08-15 17:46:38.682403,-140.0
2023-08-15 17:46:38.690093,-135.0
2023-08-15 17:46:38.697782,-128.0
2023-08-15 17:46:38.705472,-121.0
2023-08-15 17:46:38.713162,-116.0
2023-08-15 17:46:38.720851,-109.0
2023-08-15 17:46:38.728541,-104.0
2023-08-15 17:46:38.736230,-104.0
2023-08-15 17:46:38.743920,-109.0
2023-08-15 17:46:38.751610,-102.0
2023-08-15 17:46:38.759299,-92.0
2023-08-15 17:46:38.766989,-90.0
2023-08-15 17:46:38.774679,-90.0
2023-08-15 17:46:38.782368,-90.0
2023-08-15 17:46:38.790058,-90.0
2023-08-15 17:46:38.797747,-90.0
2023-08-15 17:46:38.805437,-90.0
2023-08-15 17:46:38.813127,-85.0
2023-08-15 17:46:38.820816,-83.0
2023-08-15 17:46:38.828506,-90.0
2023-08-15 17:46:38.836195,-90.0
2023-08-15 17:46:38.843885,-85.0
2023-08-15 17:46:38.851575,-85.0
2023-08-15 17:46:38.859264,-90.0
2023-08-15 17:46:38.866954,-92.0
2023-08-15 17:46:38.874644,-95.0
2023-08-15 17:46:38.882333,-90.0
2023-08-15 17:46:38.890023,-88.0
2023-08-15 17:46:38.897712,-92.0
2023-08-15 17:46:38.905402,-102.0
2023-08-15 17:46:38.913092,-107.0
2023-08-15 17:46:38.920781,-107.0
2023-08-15 17:46:38.928471,-95.0
2023-08-15 17:46:38.936160,-78.0
2023-08-15 17:46:38.943850,-73.0
2023-08-15 17:46:38.951540,-66.0
2023-08-15 17:46:38.959229,-59.0
2023-08-15 17:46:38.966919,-57.0
2023-08-15 17:46:38.974609,-78.0
2023-08-15 17:46:38.982298,-114.0
2023-08-15 17:46:38.989988,-121.0
2023-08-15 17:46:38.997677,-111.0
2023-08-15 17:46:39.005367,-116.0
2023-08-15 17:46:39.013057,-119.0
2023-08-15 17:46:39.020746,-95.0
2023-08-15 17:46:39.028436,-7.0
2023-08-15 17:46:39.036125,223.0
2023-08-15 17:46:39.043815,499.0
2023-08-15 17:46:39.051505,468.0
2023-08-15 17:46:39.059194,-19.0
2023-08-15 17:46:39.066884,-521.0
2023-08-15 17:46:39.074574,-535.0
2023-08-15 17:46:39.082263,-233.0
2023-08-15 17:46:39.089953,-97.0
2023-08-15 17:46:39.097642,-126.0
2023-08-15 17:46:39.105332,-107.0
2023-08-15 17:46:39.113022,-83.0
2023-08-15 17:46:39.120711,-92.0
2023-08-15 17:46:39.128401,-83.0
2023-08-15 17:46:39.136090,-66.0
2023-08-15 17:46:39.143780,-61.0
2023-08-15 17:46:39.151470,-49.0
2023-08-15 17:46:39.159159,-30.0
2023-08-15 17:46:39.166849,-16.0
2023-08-15 17:46:39.174539,-9.0
2023-08-15 17:46:39.182228,0.0
2023-08-15 17:46:39.189918,16.0
2023-08-15 17:46:39.197607,42.0
2023-08-15 17:46:39.205297,61.0
2023-08-15 17:46:39.212987,78.0
2023-08-15 17:46:39.220676,102.0
2023-08-15 17:46:39.228366,121.0
2023-08-15 17:46:39.236055,142.0
2023-08-15 17:46:39.243745,161.0
2023-08-15 17:46:39.251435,169.0
2023-08-15 17:46:39.259124,171.0
2023-08-15 17:46:39.266814,171.0
2023-08-15 17:46:39.274504,154.0
2023-08-15 17:46:39.282193,119.0
2023-08-15 17:46:39.289883,73.0
2023-08-15 17:46:39.297572,19.0
2023-08-15 17:46:39.305262,-33.0
2023-08-15 17:46:39.312952,-73.0
2023-08-15 17:46:39.320641,-107.0
2023-08-15 17:46:39.328331,-133.0
2023-08-15 17:46:39.336020,-145.0
2023-08-15 17:46:39.343710,-152.0
2023-08-15 17:46:39.351400,-152.0
2023-08-15 17:46:39.359089,-154.0
2023-08-15 17:46:39.366779,-157.0
2023-08-15 17:46:39.374469,-152.0
2023-08-15 17:46:39.382158,-145.0
2023-08-15 17:46:39.389848,-142.0
2023-08-15 17:46:39.397537,-138.0
2023-08-15 17:46:39.405227,-133.0
2023-08-15 17:46:39.412917,-130.0
2023-08-15 17:46:39.420606,-128.0
2023-08-15 17:46:39.428296,-119.0
2023-08-15 17:46:39.435985,-114.0
2023-08-15 17:46:39.443675,-116.0
2023-08-15 17:46:39.451365,-119.0
2023-08-15 17:46:39.459054,-119.0
2023-08-15 17:46:39.466744,-114.0
2023-08-15 17:46:39.474434,-111.0
2023-08-15 17:46:39.482123,-111.0
2023-08-15 17:46:39.489813,-109.0
2023-08-15 17:46:39.497502,-109.0
2023-08-15 17:46:39.505192,-109.0
2023-08-15 17:46:39.512882,-109.0
2023-08-15 17:46:39.520571,-109.0
2023-08-15 17:46:39.528261,-111.0
2023-08-15 17:46:39.535950,-109.0
2023-08-15 17:46:39.543640,-109.0
2023-08-15 17:46:39.551330,-107.0
2023-08-15 17:46:39.559019,-104.0
2023-08-15 17:46:39.566709,-102.0
2023-08-15 17:46:39.574399,-99.0
2023-08-15 17:46:39.582088,-95.0
2023-08-15 17:46:39.589778,-97.0
2023-08-15 17:46:39.597467,-104.0
2023-08-15 17:46:39.605157,-99.0
2023-08-15 17:46:39.612847,-90.0
2023-08-15 17:46:39.620536,-78.0
2023-08-15 17:46:39.628226,-69.0
2023-08-15 17:46:39.635915,-61.0
2023-08-15 17:46:39.643605,-52.0
2023-08-15 17:46:39.651295,-49.0
2023-08-15 17:46:39.658984,-69.0
2023-08-15 17:46:39.666674,-99.0
2023-08-15 17:46:39.674364,-109.0
2023-08-15 17:46:39.682053,-104.0
2023-08-15 17:46:39.689743,-102.0
2023-08-15 17:46:39.697432,-107.0
2023-08-15 17:46:39.705122,-92.0
2023-08-15 17:46:39.712812,-2.0
2023-08-15 17:46:39.720501,230.0
2023-08-15 17:46:39.728191,514.0
2023-08-15 17:46:39.735880,487.0
2023-08-15 17:46:39.743570,-14.0
2023-08-15 17:46:39.751260,-537.0
2023-08-15 17:46:39.758949,-554.0
2023-08-15 17:46:39.766639,-240.0
2023-08-15 17:46:39.774329,-92.0
2023-08-15 17:46:39.782018,-111.0
2023-08-15 17:46:39.789708,-90.0
2023-08-15 17:46:39.797397,-66.0
2023-08-15 17:46:39.805087,-76.0
2023-08-15 17:46:39.812777,-71.0
2023-08-15 17:46:39.820466,-52.0
2023-08-15 17:46:39.828156,-45.0
2023-08-15 17:46:39.835845,-38.0
2023-08-15 17:46:39.843535,-23.0
2023-08-15 17:46:39.851225,-16.0
2023-08-15 17:46:39.858914,-9.0
2023-08-15 17:46:39.866604,7.0
2023-08-15 17:46:39.874294,23.0
2023-08-15 17:46:39.881983,42.0
2023-08-15 17:46:39.889673,61.0
2023-08-15 17:46:39.897362,85.0
2023-08-15 17:46:39.905052,104.0
2023-08-15 17:46:39.912742,121.0
2023-08-15 17:46:39.920431,140.0
2023-08-15 17:46:39.928121,164.0
2023-08-15 17:46:39.935810,173.0
2023-08-15 17:46:39.943500,171.0
2023-08-15 17:46:39.951190,161.0
2023-08-15 17:46:39.958879,147.0
2023-08-15 17:46:39.966569,116.0
2023-08-15 17:46:39.974259,69.0
2023-08-15 17:46:39.981948,11.0
2023-08-15 17:46:39.989638,-42.0
2023-08-15 17:46:39.997327,-88.0
2023-08-15 17:46:40.005017,-116.0
2023-08-15 17:46:40.012707,-135.0
2023-08-15 17:46:40.020396,-147.0
2023-08-15 17:46:40.028086,-154.0
2023-08-15 17:46:40.035775,-164.0
2023-08-15 17:46:40.043465,-171.0
2023-08-15 17:46:40.051155,-166.0
2023-08-15 17:46:40.058844,-159.0
2023-08-15 17:46:40.066534,-154.0
2023-08-15 17:46:40.074224,-149.0
2023-08-15 17:46:40.081913,-145.0
2023-08-15 17:46:40.089603,-142.0
2023-08-15 17:46:40.097292,-140.0
2023-08-15 17:46:40.104982,-133.0
2023-08-15 17:46:40.112672,-121.0
2023-08-15 17:46:40.120361,-119.0
2023-08-15 17:46:40.128051,-121.0
2023-08-15 17:46:40.135740,-114.0
2023-08-15 17:46:40.143430,-104.0
2023-08-15 17:46:40.151120,-102.0
2023-08-15 17:46:40.158809,-99.0
2023-08-15 17:46:40.166499,-97.0
2023-08-15 17:46:40.174189,-102.0
2023-08-15 17:46:40.181878,-99.0
2023-08-15 17:46:40.189568,-97.0
2023-08-15 17:46:40.197257,-97.0
2023-08-15 17:46:40.204947,-99.0
2023-08-15 17:46:40.212637,-99.0
2023-08-15 17:46:40.220326,-99.0
2023-08-15 17:46:40.228016,-99.0
2023-08-15 17:46:40.235705,-97.0
2023-08-15 17:46:40.243395,-97.0
2023-08-15 17:46:40.251085,-95.0
2023-08-15 17:46:40.258774,-92.0
2023-08-15 17:46:40.266464,-92.0
2023-08-15 17:46:40.274154,-92.0
2023-08-15 17:46:40.281843,-90.0
2023-08-15 17:46:40.289533,-85.0
2023-08-15 17:46:40.297222,-80.0
2023-08-15 17:46:40.304912,-73.0
2023-08-15 17:46:40.312602,-64.0
2023-08-15 17:46:40.320291,-57.0
2023-08-15 17:46:40.327981,-47.0
2023-08-15 17:46:40.335670,-40.0
2023-08-15 17:46:40.343360,-45.0
2023-08-15 17:46:40.351050,-69.0
2023-08-15 17:46:40.358739,-97.0
2023-08-15 17:46:40.366429,-107.0
2023-08-15 17:46:40.374119,-102.0
2023-08-15 17:46:40.381808,-102.0
2023-08-15 17:46:40.389498,-102.0
2023-08-15 17:46:40.397187,-97.0
2023-08-15 17:46:40.404877,-38.0
2023-08-15 17:46:40.412567,169.0
2023-08-15 17:46:40.420256,459.0
2023-08-15 17:46:40.427946,490.0
2023-08-15 17:46:40.435635,52.0
2023-08-15 17:46:40.443325,-492.0
2023-08-15 17:46:40.451015,-587.0
2023-08-15 17:46:40.458704,-266.0
2023-08-15 17:46:40.466394,-69.0
2023-08-15 17:46:40.474084,-107.0
2023-08-15 17:46:40.481773,-109.0
2023-08-15 17:46:40.489463,-71.0
2023-08-15 17:46:40.497152,-76.0
2023-08-15 17:46:40.504842,-78.0
2023-08-15 17:46:40.512532,-61.0
2023-08-15 17:46:40.520221,-54.0
2023-08-15 17:46:40.527911,-45.0
2023-08-15 17:46:40.535600,-33.0
2023-08-15 17:46:40.543290,-23.0
2023-08-15 17:46:40.550980,-11.0
2023-08-15 17:46:40.558669,7.0
2023-08-15 17:46:40.566359,21.0
2023-08-15 17:46:40.574049,35.0
2023-08-15 17:46:40.581738,49.0
2023-08-15 17:46:40.589428,71.0
2023-08-15 17:46:40.597117,92.0
2023-08-15 17:46:40.604807,116.0
2023-08-15 17:46:40.612497,133.0
2023-08-15 17:46:40.620186,142.0
2023-08-15 17:46:40.627876,147.0
2023-08-15 17:46:40.635565,154.0
2023-08-15 17:46:40.643255,154.0
2023-08-15 17:46:40.650945,140.0
2023-08-15 17:46:40.658634,114.0
2023-08-15 17:46:40.666324,73.0
2023-08-15 17:46:40.674014,19.0
2023-08-15 17:46:40.681703,-35.0
2023-08-15 17:46:40.689393,-76.0
2023-08-15 17:46:40.697082,-102.0
2023-08-15 17:46:40.704772,-123.0
2023-08-15 17:46:40.712462,-140.0
2023-08-15 17:46:40.720151,-147.0
2023-08-15 17:46:40.727841,-147.0
2023-08-15 17:46:40.735530,-147.0
2023-08-15 17:46:40.743220,-142.0
2023-08-15 17:46:40.750910,-138.0
2023-08-15 17:46:40.758599,-135.0
2023-08-15 17:46:40.766289,-133.0
2023-08-15 17:46:40.773979,-126.0
2023-08-15 17:46:40.781668,-119.0
2023-08-15 17:46:40.789358,-111.0
2023-08-15 17:46:40.797047,-107.0
2023-08-15 17:46:40.804737,-102.0
2023-08-15 17:46:40.812427,-99.0
2023-08-15 17:46:40.820116,-97.0
2023-08-15 17:46:40.827806,-92.0
2023-08-15 17:46:40.835495,-90.0
2023-08-15 17:46:40.843185,-90.0
2023-08-15 17:46:40.850875,-88.0
2023-08-15 17:46:40.858564,-85.0
2023-08-15 17:46:40.866254,-80.0
2023-08-15 17:46:40.873944,-80.0
2023-08-15 17:46:40.881633,-78.0
2023-08-15 17:46:40.889323,-80.0
2023-08-15 17:46:40.897012,-80.0
2023-08-15 17:46:40.904702,-83.0
2023-08-15 17:46:40.912392,-85.0
2023-08-15 17:46:40.920081,-90.0
2023-08-15 17:46:40.927771,-90.0
2023-08-15 17:46:40.935460,-90.0
2023-08-15 17:46:40.943150,-90.0
2023-08-15 17:46:40.950840,-88.0
2023-08-15 17:46:40.958529,-85.0
2023-08-15 17:46:40.966219,-80.0
2023-08-15 17:46:40.973909,-76.0
2023-08-15 17:46:40.981598,-69.0
2023-08-15 17:46:40.989288,-57.0
2023-08-15 17:46:40.996977,-49.0
2023-08-15 17:46:41.004667,-47.0
2023-08-15 17:46:41.012357,-45.0
2023-08-15 17:46:41.020046,-54.0
2023-08-15 17:46:41.027736,-80.0
2023-08-15 17:46:41.035425,-107.0
2023-08-15 17:46:41.043115,-109.0
2023-08-15 17:46:41.050805,-102.0
2023-08-15 17:46:41.058494,-104.0
2023-08-15 17:46:41.066184,-109.0
2023-08-15 17:46:41.073874,-95.0
2023-08-15 17:46:41.081563,-14.0
2023-08-15 17:46:41.089253,199.0
2023-08-15 17:46:41.096942,459.0
2023-08-15 17:46:41.104632,421.0
2023-08-15 17:46:41.112322,-47.0
2023-08-15 17:46:41.120011,-526.0
2023-08-15 17:46:41.127701,-540.0
2023-08-15 17:46:41.135390,-245.0
2023-08-15 17:46:41.143080,-104.0
2023-08-15 17:46:41.150770,-133.0
2023-08-15 17:46:41.158459,-121.0
2023-08-15 17:46:41.166149,-102.0
2023-08-15 17:46:41.173839,-111.0
2023-08-15 17:46:41.181528,-107.0
2023-08-15 17:46:41.189218,-90.0
2023-08-15 17:46:41.196907,-80.0
2023-08-15 17:46:41.204597,-71.0
2023-08-15 17:46:41.212287,-59.0
2023-08-15 17:46:41.219976,-47.0
2023-08-15 17:46:41.227666,-35.0
2023-08-15 17:46:41.235355,-19.0
2023-08-15 17:46:41.243045,-2.0
2023-08-15 17:46:41.250735,16.0
2023-08-15 17:46:41.258424,33.0
2023-08-15 17:46:41.266114,54.0
2023-08-15 17:46:41.273804,73.0
2023-08-15 17:46:41.281493,97.0
2023-08-15 17:46:41.289183,119.0
2023-08-15 17:46:41.296872,135.0
2023-08-15 17:46:41.304562,142.0
2023-08-15 17:46:41.312252,147.0
2023-08-15 17:46:41.319941,140.0
2023-08-15 17:46:41.327631,121.0
2023-08-15 17:46:41.335320,90.0
2023-08-15 17:46:41.343010,49.0
2023-08-15 17:46:41.350700,0.0
2023-08-15 17:46:41.358389,-49.0
2023-08-15 17:46:41.366079,-92.0
2023-08-15 17:46:41.373769,-123.0
2023-08-15 17:46:41.381458,-145.0
2023-08-15 17:46:41.389148,-157.0
2023-08-15 17:46:41.396837,-164.0
2023-08-15 17:46:41.404527,-161.0
2023-08-15 17:46:41.412217,-161.0
2023-08-15 17:46:41.419906,-161.0
2023-08-15 17:46:41.427596,-159.0
2023-08-15 17:46:41.435285,-154.0
2023-08-15 17:46:41.442975,-149.0
2023-08-15 17:46:41.450665,-142.0
2023-08-15 17:46:41.458354,-138.0
2023-08-15 17:46:41.466044,-135.0
2023-08-15 17:46:41.473734,-128.0
2023-08-15 17:46:41.481423,-116.0
2023-08-15 17:46:41.489113,-107.0
2023-08-15 17:46:41.496802,-104.0
2023-08-15 17:46:41.504492,-102.0
2023-08-15 17:46:41.512182,-97.0
2023-08-15 17:46:41.519871,-95.0
2023-08-15 17:46:41.527561,-95.0
2023-08-15 17:46:41.535250,-90.0
2023-08-15 17:46:41.542940,-90.0
2023-08-15 17:46:41.550630,-92.0
2023-08-15 17:46:41.558319,-90.0
2023-08-15 17:46:41.566009,-90.0
2023-08-15 17:46:41.573699,-95.0
2023-08-15 17:46:41.581388,-97.0
2023-08-15 17:46:41.589078,-92.0
2023-08-15 17:46:41.596767,-90.0
2023-08-15 17:46:41.604457,-90.0
2023-08-15 17:46:41.612147,-95.0
2023-08-15 17:46:41.619836,-92.0
2023-08-15 17:46:41.627526,-83.0
2023-08-15 17:46:41.635215,-78.0
2023-08-15 17:46:41.642905,-83.0
2023-08-15 17:46:41.650595,-80.0
2023-08-15 17:46:41.658284,-66.0
2023-08-15 17:46:41.665974,-52.0
2023-08-15 17:46:41.673664,-42.0
2023-08-15 17:46:41.681353,-35.0
2023-08-15 17:46:41.689043,-30.0
2023-08-15 17:46:41.696732,-40.0
2023-08-15 17:46:41.704422,-73.0
2023-08-15 17:46:41.712112,-102.0
2023-08-15 17:46:41.719801,-104.0
2023-08-15 17:46:41.727491,-95.0
2023-08-15 17:46:41.735180,-97.0
2023-08-15 17:46:41.742870,-102.0
2023-08-15 17:46:41.750560,-88.0
2023-08-15 17:46:41.758249,2.0
2023-08-15 17:46:41.765939,223.0
2023-08-15 17:46:41.773629,492.0
2023-08-15 17:46:41.781318,476.0
2023-08-15 17:46:41.789008,7.0
2023-08-15 17:46:41.796697,-490.0
2023-08-15 17:46:41.804387,-521.0
2023-08-15 17:46:41.812077,-226.0
2023-08-15 17:46:41.819766,-95.0
2023-08-15 17:46:41.827456,-130.0
2023-08-15 17:46:41.835145,-114.0
2023-08-15 17:46:41.842835,-88.0
2023-08-15 17:46:41.850525,-97.0
2023-08-15 17:46:41.858214,-92.0
2023-08-15 17:46:41.865904,-73.0
2023-08-15 17:46:41.873594,-64.0
2023-08-15 17:46:41.881283,-57.0
2023-08-15 17:46:41.888973,-45.0
2023-08-15 17:46:41.896662,-30.0
2023-08-15 17:46:41.904352,-16.0
2023-08-15 17:46:41.912042,0.0
2023-08-15 17:46:41.919731,14.0
2023-08-15 17:46:41.927421,26.0
2023-08-15 17:46:41.935110,38.0
2023-08-15 17:46:41.942800,57.0
2023-08-15 17:46:41.950490,80.0
2023-08-15 17:46:41.958179,107.0
2023-08-15 17:46:41.965869,123.0
2023-08-15 17:46:41.973559,138.0
2023-08-15 17:46:41.981248,154.0
2023-08-15 17:46:41.988938,157.0
2023-08-15 17:46:41.996627,149.0
2023-08-15 17:46:42.004317,138.0
2023-08-15 17:46:42.012007,102.0
2023-08-15 17:46:42.019696,54.0
2023-08-15 17:46:42.027386,4.0
2023-08-15 17:46:42.035075,-47.0
2023-08-15 17:46:42.042765,-90.0
2023-08-15 17:46:42.050455,-121.0
2023-08-15 17:46:42.058144,-147.0
2023-08-15 17:46:42.065834,-164.0
2023-08-15 17:46:42.073524,-166.0
2023-08-15 17:46:42.081213,-164.0
2023-08-15 17:46:42.088903,-161.0
2023-08-15 17:46:42.096592,-157.0
2023-08-15 17:46:42.104282,-154.0
2023-08-15 17:46:42.111972,-157.0
2023-08-15 17:46:42.119661,-152.0
2023-08-15 17:46:42.127351,-142.0
2023-08-15 17:46:42.135040,-140.0
2023-08-15 17:46:42.142730,-133.0
2023-08-15 17:46:42.150420,-123.0
2023-08-15 17:46:42.158109,-119.0
2023-08-15 17:46:42.165799,-116.0
2023-08-15 17:46:42.173489,-109.0
2023-08-15 17:46:42.181178,-102.0
2023-08-15 17:46:42.188868,-102.0
2023-08-15 17:46:42.196557,-102.0
2023-08-15 17:46:42.204247,-104.0
2023-08-15 17:46:42.211937,-104.0
2023-08-15 17:46:42.219626,-97.0
2023-08-15 17:46:42.227316,-95.0
2023-08-15 17:46:42.235005,-99.0
2023-08-15 17:46:42.242695,-104.0
2023-08-15 17:46:42.250385,-102.0
2023-08-15 17:46:42.258074,-102.0
2023-08-15 17:46:42.265764,-102.0
2023-08-15 17:46:42.273453,-95.0
2023-08-15 17:46:42.281143,-99.0
2023-08-15 17:46:42.288833,-114.0
2023-08-15 17:46:42.296522,-114.0
2023-08-15 17:46:42.304212,-97.0
2023-08-15 17:46:42.311902,-97.0
2023-08-15 17:46:42.319591,-99.0
2023-08-15 17:46:42.327281,-85.0
2023-08-15 17:46:42.334970,-80.0
2023-08-15 17:46:42.342660,-90.0
2023-08-15 17:46:42.350350,-99.0
2023-08-15 17:46:42.358039,-114.0
2023-08-15 17:46:42.365729,-128.0
2023-08-15 17:46:42.373418,-121.0
2023-08-15 17:46:42.381108,-111.0
2023-08-15 17:46:42.388798,-116.0
2023-08-15 17:46:42.396487,-107.0
2023-08-15 17:46:42.404177,-23.0
2023-08-15 17:46:42.411867,204.0
2023-08-15 17:46:42.419556,502.0
2023-08-15 17:46:42.427246,516.0
2023-08-15 17:46:42.434935,47.0
2023-08-15 17:46:42.442625,-499.0
2023-08-15 17:46:42.450315,-576.0
2023-08-15 17:46:42.458004,-280.0
2023-08-15 17:46:42.465694,-121.0
2023-08-15 17:46:42.473383,-142.0
2023-08-15 17:46:42.481073,-123.0
2023-08-15 17:46:42.488763,-95.0
2023-08-15 17:46:42.496452,-109.0
2023-08-15 17:46:42.504142,-107.0
2023-08-15 17:46:42.511832,-90.0
2023-08-15 17:46:42.519521,-85.0
2023-08-15 17:46:42.527211,-76.0
2023-08-15 17:46:42.534900,-59.0
2023-08-15 17:46:42.542590,-49.0
2023-08-15 17:46:42.550280,-38.0
2023-08-15 17:46:42.557969,-21.0
2023-08-15 17:46:42.565659,-4.0
2023-08-15 17:46:42.573348,14.0
2023-08-15 17:46:42.581038,35.0
2023-08-15 17:46:42.588728,59.0
2023-08-15 17:46:42.596417,83.0
2023-08-15 17:46:42.604107,102.0
2023-08-15 17:46:42.611797,123.0
2023-08-15 17:46:42.619486,142.0
2023-08-15 17:46:42.627176,154.0
2023-08-15 17:46:42.634865,159.0
2023-08-15 17:46:42.642555,152.0
2023-08-15 17:46:42.650245,133.0
2023-08-15 17:46:42.657934,97.0
2023-08-15 17:46:42.665624,49.0
2023-08-15 17:46:42.673313,-7.0
2023-08-15 17:46:42.681003,-59.0
2023-08-15 17:46:42.688693,-104.0
2023-08-15 17:46:42.696382,-135.0
2023-08-15 17:46:42.704072,-157.0
2023-08-15 17:46:42.711762,-169.0
2023-08-15 17:46:42.719451,-176.0
2023-08-15 17:46:42.727141,-176.0
2023-08-15 17:46:42.734830,-173.0
2023-08-15 17:46:42.742520,-169.0
2023-08-15 17:46:42.750210,-164.0
2023-08-15 17:46:42.757899,-159.0
2023-08-15 17:46:42.765589,-154.0
2023-08-15 17:46:42.773278,-147.0
2023-08-15 17:46:42.780968,-145.0
2023-08-15 17:46:42.788658,-140.0
2023-08-15 17:46:42.796347,-130.0
2023-08-15 17:46:42.804037,-126.0
2023-08-15 17:46:42.811727,-123.0
2023-08-15 17:46:42.819416,-121.0
2023-08-15 17:46:42.827106,-123.0
2023-08-15 17:46:42.834795,-126.0
2023-08-15 17:46:42.842485,-116.0
2023-08-15 17:46:42.850175,-114.0
2023-08-15 17:46:42.857864,-114.0
2023-08-15 17:46:42.865554,-111.0
2023-08-15 17:46:42.873243,-109.0
2023-08-15 17:46:42.880933,-109.0
2023-08-15 17:46:42.888623,-111.0
2023-08-15 17:46:42.896312,-111.0
2023-08-15 17:46:42.904002,-107.0
2023-08-15 17:46:42.911692,-104.0
2023-08-15 17:46:42.919381,-107.0
2023-08-15 17:46:42.927071,-107.0
2023-08-15 17:46:42.934760,-102.0
2023-08-15 17:46:42.942450,-97.0
2023-08-15 17:46:42.950140,-97.0
2023-08-15 17:46:42.957829,-97.0
2023-08-15 17:46:42.965519,-85.0
2023-08-15 17:46:42.973208,-66.0
2023-08-15 17:46:42.980898,-66.0
2023-08-15 17:46:42.988588,-80.0
2023-08-15 17:46:42.996277,-99.0
2023-08-15 17:46:43.003967,-116.0
2023-08-15 17:46:43.011657,-111.0
2023-08-15 17:46:43.019346,-104.0
2023-08-15 17:46:43.027036,-104.0
2023-08-15 17:46:43.034725,-97.0
2023-08-15 17:46:43.042415,-47.0
2023-08-15 17:46:43.050105,133.0
2023-08-15 17:46:43.057794,440.0
2023-08-15 17:46:43.065484,566.0
2023-08-15 17:46:43.073173,209.0
2023-08-15 17:46:43.080863,-388.0
2023-08-15 17:46:43.088553,-611.0
2023-08-15 17:46:43.096242,-326.0
2023-08-15 17:46:43.103932,-78.0
2023-08-15 17:46:43.111622,-95.0
2023-08-15 17:46:43.119311,-111.0
2023-08-15 17:46:43.127001,-71.0
2023-08-15 17:46:43.134690,-71.0
2023-08-15 17:46:43.142380,-80.0
2023-08-15 17:46:43.150070,-61.0
2023-08-15 17:46:43.157759,-49.0
2023-08-15 17:46:43.165449,-47.0
2023-08-15 17:46:43.173138,-38.0
2023-08-15 17:46:43.180828,-23.0
2023-08-15 17:46:43.188518,-14.0
2023-08-15 17:46:43.196207,-4.0
2023-08-15 17:46:43.203897,11.0
2023-08-15 17:46:43.211587,28.0
2023-08-15 17:46:43.219276,47.0
2023-08-15 17:46:43.226966,71.0
2023-08-15 17:46:43.234655,92.0
2023-08-15 17:46:43.242345,114.0
2023-08-15 17:46:43.250035,138.0
2023-08-15 17:46:43.257724,157.0
2023-08-15 17:46:43.265414,169.0
2023-08-15 17:46:43.273103,173.0
2023-08-15 17:46:43.280793,169.0
2023-08-15 17:46:43.288483,149.0
2023-08-15 17:46:43.296172,116.0
2023-08-15 17:46:43.303862,66.0
2023-08-15 17:46:43.311552,9.0
2023-08-15 17:46:43.319241,-49.0
2023-08-15 17:46:43.326931,-97.0
2023-08-15 17:46:43.334620,-133.0
2023-08-15 17:46:43.342310,-154.0
2023-08-15 17:46:43.350000,-166.0
2023-08-15 17:46:43.357689,-176.0
2023-08-15 17:46:43.365379,-176.0
2023-08-15 17:46:43.373068,-173.0
2023-08-15 17:46:43.380758,-171.0
2023-08-15 17:46:43.388448,-166.0
2023-08-15 17:46:43.396137,-161.0
2023-08-15 17:46:43.403827,-157.0
2023-08-15 17:46:43.411517,-149.0
2023-08-15 17:46:43.419206,-145.0
2023-08-15 17:46:43.426896,-138.0
2023-08-15 17:46:43.434585,-130.0
2023-08-15 17:46:43.442275,-126.0
2023-08-15 17:46:43.449965,-121.0
2023-08-15 17:46:43.457654,-119.0
2023-08-15 17:46:43.465344,-121.0
2023-08-15 17:46:43.473033,-119.0
2023-08-15 17:46:43.480723,-111.0
2023-08-15 17:46:43.488413,-107.0
2023-08-15 17:46:43.496102,-109.0
2023-08-15 17:46:43.503792,-114.0
2023-08-15 17:46:43.511482,-114.0
2023-08-15 17:46:43.519171,-111.0
2023-08-15 17:46:43.526861,-109.0
2023-08-15 17:46:43.534550,-109.0
2023-08-15 17:46:43.542240,-116.0
2023-08-15 17:46:43.549930,-128.0
2023-08-15 17:46:43.557619,-130.0
2023-08-15 17:46:43.565309,-121.0
2023-08-15 17:46:43.572998,-119.0
2023-08-15 17:46:43.580688,-119.0
2023-08-15 17:46:43.588378,-116.0
2023-08-15 17:46:43.596067,-116.0
2023-08-15 17:46:43.603757,-109.0
2023-08-15 17:46:43.611447,-97.0
2023-08-15 17:46:43.619136,-88.0
2023-08-15 17:46:43.626826,-78.0
2023-08-15 17:46:43.634515,-66.0
2023-08-15 17:46:43.642205,-59.0
2023-08-15 17:46:43.649895,-69.0
2023-08-15 17:46:43.657584,-88.0
2023-08-15 17:46:43.665274,-107.0
2023-08-15 17:46:43.672963,-111.0
2023-08-15 17:46:43.680653,-104.0
2023-08-15 17:46:43.688343,-104.0
2023-08-15 17:46:43.696032,-104.0
2023-08-15 17:46:43.703722,-85.0
2023-08-15 17:46:43.711412,11.0
2023-08-15 17:46:43.719101,271.0
2023-08-15 17:46:43.726791,540.0
2023-08-15 17:46:43.734480,440.0
2023-08-15 17:46:43.742170,-85.0
2023-08-15 17:46:43.749860,-554.0
2023-08-15 17:46:43.757549,-490.0
2023-08-15 17:46:43.765239,-140.0
2023-08-15 17:46:43.772928,-40.0
2023-08-15 17:46:43.780618,-114.0
2023-08-15 17:46:43.788308,-95.0
2023-08-15 17:46:43.795997,-61.0
2023-08-15 17:46:43.803687,-78.0
2023-08-15 17:46:43.811377,-76.0
2023-08-15 17:46:43.819066,-57.0
2023-08-15 17:46:43.826756,-54.0
2023-08-15 17:46:43.834445,-45.0
2023-08-15 17:46:43.842135,-28.0
2023-08-15 17:46:43.849825,-14.0
2023-08-15 17:46:43.857514,-4.0
2023-08-15 17:46:43.865204,9.0
2023-08-15 17:46:43.872893,23.0
2023-08-15 17:46:43.880583,40.0
2023-08-15 17:46:43.888273,57.0
2023-08-15 17:46:43.895962,76.0
2023-08-15 17:46:43.903652,97.0
2023-08-15 17:46:43.911342,119.0
2023-08-15 17:46:43.919031,138.0
2023-08-15 17:46:43.926721,157.0
2023-08-15 17:46:43.934410,169.0
2023-08-15 17:46:43.942100,169.0
2023-08-15 17:46:43.949790,161.0
2023-08-15 17:46:43.957479,138.0
2023-08-15 17:46:43.965169,95.0
2023-08-15 17:46:43.972858,42.0
2023-08-15 17:46:43.980548,-11.0
2023-08-15 17:46:43.988238,-66.0
2023-08-15 17:46:43.995927,-109.0
2023-08-15 17:46:44.003617,-140.0
2023-08-15 17:46:44.011307,-159.0
2023-08-15 17:46:44.018996,-169.0
2023-08-15 17:46:44.026686,-173.0
2023-08-15 17:46:44.034375,-178.0
2023-08-15 17:46:44.042065,-185.0
2023-08-15 17:46:44.049755,-188.0
2023-08-15 17:46:44.057444,-178.0
2023-08-15 17:46:44.065134,-171.0
2023-08-15 17:46:44.072823,-166.0
2023-08-15 17:46:44.080513,-154.0
2023-08-15 17:46:44.088203,-149.0
2023-08-15 17:46:44.095892,-147.0
2023-08-15 17:46:44.103582,-140.0
2023-08-15 17:46:44.111272,-130.0
2023-08-15 17:46:44.118961,-128.0
2023-08-15 17:46:44.126651,-123.0
2023-08-15 17:46:44.134340,-119.0
2023-08-15 17:46:44.142030,-116.0
2023-08-15 17:46:44.149720,-111.0
2023-08-15 17:46:44.157409,-107.0
2023-08-15 17:46:44.165099,-104.0
2023-08-15 17:46:44.172788,-102.0
2023-08-15 17:46:44.180478,-104.0
2023-08-15 17:46:44.188168,-104.0
2023-08-15 17:46:44.195857,-102.0
2023-08-15 17:46:44.203547,-97.0
2023-08-15 17:46:44.211237,-97.0
2023-08-15 17:46:44.218926,-102.0
2023-08-15 17:46:44.226616,-102.0
2023-08-15 17:46:44.234305,-102.0
2023-08-15 17:46:44.241995,-99.0
2023-08-15 17:46:44.249685,-95.0
2023-08-15 17:46:44.257374,-90.0
2023-08-15 17:46:44.265064,-90.0
2023-08-15 17:46:44.272753,-90.0
2023-08-15 17:46:44.280443,-90.0
2023-08-15 17:46:44.288133,-83.0
2023-08-15 17:46:44.295822,-71.0
2023-08-15 17:46:44.303512,-59.0
2023-08-15 17:46:44.311202,-49.0
2023-08-15 17:46:44.318891,-45.0
2023-08-15 17:46:44.326581,-42.0
2023-08-15 17:46:44.334270,-49.0
2023-08-15 17:46:44.341960,-71.0
2023-08-15 17:46:44.349650,-92.0
2023-08-15 17:46:44.357339,-95.0
2023-08-15 17:46:44.365029,-90.0
2023-08-15 17:46:44.372718,-90.0
2023-08-15 17:46:44.380408,-90.0
2023-08-15 17:46:44.388098,-71.0
2023-08-15 17:46:44.395787,33.0
2023-08-15 17:46:44.403477,290.0
2023-08-15 17:46:44.411167,537.0
2023-08-15 17:46:44.418856,411.0
2023-08-15 17:46:44.426546,-116.0
2023-08-15 17:46:44.434235,-552.0
2023-08-15 17:46:44.441925,-461.0
2023-08-15 17:46:44.449615,-123.0
2023-08-15 17:46:44.457304,-38.0
2023-08-15 17:46:44.464994,-109.0
2023-08-15 17:46:44.472683,-90.0
2023-08-15 17:46:44.480373,-59.0
2023-08-15 17:46:44.488063,-73.0
2023-08-15 17:46:44.495752,-71.0
2023-08-15 17:46:44.503442,-52.0
2023-08-15 17:46:44.511132,-47.0
2023-08-15 17:46:44.518821,-40.0
2023-08-15 17:46:44.526511,-28.0
2023-08-15 17:46:44.534200,-23.0
2023-08-15 17:46:44.541890,-21.0
2023-08-15 17:46:44.549580,-9.0
2023-08-15 17:46:44.557269,7.0
2023-08-15 17:46:44.564959,21.0
2023-08-15 17:46:44.572648,40.0
2023-08-15 17:46:44.580338,61.0
2023-08-15 17:46:44.588028,80.0
2023-08-15 17:46:44.595717,102.0
2023-08-15 17:46:44.603407,123.0
2023-08-15 17:46:44.611097,138.0
2023-08-15 17:46:44.618786,147.0
2023-08-15 17:46:44.626476,149.0
2023-08-15 17:46:44.634165,142.0
2023-08-15 17:46:44.641855,126.0
2023-08-15 17:46:44.649545,92.0
2023-08-15 17:46:44.657234,45.0
2023-08-15 17:46:44.664924,-11.0
2023-08-15 17:46:44.672613,-64.0
2023-08-15 17:46:44.680303,-104.0
2023-08-15 17:46:44.687993,-130.0
2023-08-15 17:46:44.695682,-149.0
2023-08-15 17:46:44.703372,-161.0
2023-08-15 17:46:44.711062,-166.0
2023-08-15 17:46:44.718751,-164.0
2023-08-15 17:46:44.726441,-161.0
2023-08-15 17:46:44.734130,-157.0
2023-08-15 17:46:44.741820,-154.0
2023-08-15 17:46:44.749510,-149.0
2023-08-15 17:46:44.757199,-145.0
2023-08-15 17:46:44.764889,-140.0
2023-08-15 17:46:44.772578,-135.0
2023-08-15 17:46:44.780268,-130.0
2023-08-15 17:46:44.787958,-126.0
2023-08-15 17:46:44.795647,-119.0
2023-08-15 17:46:44.803337,-114.0
2023-08-15 17:46:44.811027,-111.0
2023-08-15 17:46:44.818716,-107.0
2023-08-15 17:46:44.826406,-102.0
2023-08-15 17:46:44.834095,-99.0
2023-08-15 17:46:44.841785,-97.0
2023-08-15 17:46:44.849475,-97.0
2023-08-15 17:46:44.857164,-99.0
2023-08-15 17:46:44.864854,-99.0
2023-08-15 17:46:44.872543,-95.0
2023-08-15 17:46:44.880233,-97.0
2023-08-15 17:46:44.887923,-97.0
2023-08-15 17:46:44.895612,-90.0
2023-08-15 17:46:44.903302,-90.0
2023-08-15 17:46:44.910992,-92.0
2023-08-15 17:46:44.918681,-90.0
2023-08-15 17:46:44.926371,-88.0
2023-08-15 17:46:44.934060,-88.0
2023-08-15 17:46:44.941750,-88.0
2023-08-15 17:46:44.949440,-83.0
2023-08-15 17:46:44.957129,-78.0
2023-08-15 17:46:44.964819,-78.0
2023-08-15 17:46:44.972508,-78.0
2023-08-15 17:46:44.980198,-76.0
2023-08-15 17:46:44.987888,-64.0
2023-08-15 17:46:44.995577,-52.0
2023-08-15 17:46:45.003267,-47.0
2023-08-15 17:46:45.010957,-42.0
2023-08-15 17:46:45.018646,-38.0
2023-08-15 17:46:45.026336,-54.0
2023-08-15 17:46:45.034025,-88.0
2023-08-15 17:46:45.041715,-99.0
2023-08-15 17:46:45.049405,-92.0
2023-08-15 17:46:45.057094,-90.0
2023-08-15 17:46:45.064784,-95.0
2023-08-15 17:46:45.072473,-90.0
2023-08-15 17:46:45.080163,-45.0
2023-08-15 17:46:45.087853,128.0
2023-08-15 17:46:45.095542,428.0
2023-08-15 17:46:45.103232,533.0
2023-08-15 17:46:45.110922,161.0
2023-08-15 17:46:45.118611,-402.0
2023-08-15 17:46:45.126301,-578.0
2023-08-15 17:46:45.133990,-292.0
2023-08-15 17:46:45.141680,-73.0
2023-08-15 17:46:45.149370,-102.0
2023-08-15 17:46:45.157059,-111.0
2023-08-15 17:46:45.164749,-71.0
2023-08-15 17:46:45.172438,-76.0
2023-08-15 17:46:45.180128,-78.0
2023-08-15 17:46:45.187818,-54.0
2023-08-15 17:46:45.195507,-49.0
2023-08-15 17:46:45.203197,-49.0
2023-08-15 17:46:45.210887,-38.0
2023-08-15 17:46:45.218576,-26.0
2023-08-15 17:46:45.226266,-16.0
2023-08-15 17:46:45.233955,-4.0
2023-08-15 17:46:45.241645,7.0
2023-08-15 17:46:45.249335,26.0
2023-08-15 17:46:45.257024,45.0
2023-08-15 17:46:45.264714,59.0
2023-08-15 17:46:45.272403,76.0
2023-08-15 17:46:45.280093,104.0
2023-08-15 17:46:45.287783,130.0
2023-08-15 17:46:45.295472,142.0
2023-08-15 17:46:45.303162,149.0
2023-08-15 17:46:45.310852,157.0
2023-08-15 17:46:45.318541,157.0
2023-08-15 17:46:45.326231,140.0
2023-08-15 17:46:45.333920,114.0
2023-08-15 17:46:45.341610,76.0
2023-08-15 17:46:45.349300,21.0
2023-08-15 17:46:45.356989,-30.0
2023-08-15 17:46:45.364679,-76.0
2023-08-15 17:46:45.372368,-109.0
2023-08-15 17:46:45.380058,-133.0
2023-08-15 17:46:45.387748,-152.0
2023-08-15 17:46:45.395437,-161.0
2023-08-15 17:46:45.403127,-161.0
2023-08-15 17:46:45.410817,-161.0
2023-08-15 17:46:45.418506,-159.0
2023-08-15 17:46:45.426196,-149.0
2023-08-15 17:46:45.433885,-147.0
2023-08-15 17:46:45.441575,-147.0
2023-08-15 17:46:45.449265,-140.0
2023-08-15 17:46:45.456954,-130.0
2023-08-15 17:46:45.464644,-126.0
2023-08-15 17:46:45.472333,-123.0
2023-08-15 17:46:45.480023,-123.0
2023-08-15 17:46:45.487713,-126.0
2023-08-15 17:46:45.495402,-119.0
2023-08-15 17:46:45.503092,-111.0
2023-08-15 17:46:45.510782,-114.0
2023-08-15 17:46:45.518471,-114.0
2023-08-15 17:46:45.526161,-114.0
2023-08-15 17:46:45.533850,-116.0
2023-08-15 17:46:45.541540,-114.0
2023-08-15 17:46:45.549230,-109.0
2023-08-15 17:46:45.556919,-107.0
2023-08-15 17:46:45.564609,-109.0
2023-08-15 17:46:45.572298,-111.0
2023-08-15 17:46:45.579988,-107.0
2023-08-15 17:46:45.587678,-104.0
2023-08-15 17:46:45.595367,-107.0
2023-08-15 17:46:45.603057,-107.0
2023-08-15 17:46:45.610747,-104.0
2023-08-15 17:46:45.618436,-99.0
2023-08-15 17:46:45.626126,-97.0
2023-08-15 17:46:45.633815,-95.0
2023-08-15 17:46:45.641505,-90.0
2023-08-15 17:46:45.649195,-78.0
2023-08-15 17:46:45.656884,-76.0
2023-08-15 17:46:45.664574,-80.0
2023-08-15 17:46:45.672263,-78.0
2023-08-15 17:46:45.679953,-61.0
2023-08-15 17:46:45.687643,-52.0
2023-08-15 17:46:45.695332,-59.0
2023-08-15 17:46:45.703022,-83.0
2023-08-15 17:46:45.710712,-107.0
2023-08-15 17:46:45.718401,-109.0
2023-08-15 17:46:45.726091,-97.0
2023-08-15 17:46:45.733780,-95.0
2023-08-15 17:46:45.741470,-92.0
2023-08-15 17:46:45.749160,-69.0
2023-08-15 17:46:45.756849,40.0
2023-08-15 17:46:45.764539,295.0
2023-08-15 17:46:45.772228,545.0
2023-08-15 17:46:45.779918,418.0
2023-08-15 17:46:45.787608,-133.0
2023-08-15 17:46:45.795297,-583.0
2023-08-15 17:46:45.802987,-507.0
2023-08-15 17:46:45.810677,-192.0
2023-08-15 17:46:45.818366,-90.0
2023-08-15 17:46:45.826056,-116.0
2023-08-15 17:46:45.833745,-85.0
2023-08-15 17:46:45.841435,-66.0
2023-08-15 17:46:45.849125,-80.0
2023-08-15 17:46:45.856814,-69.0
2023-08-15 17:46:45.864504,-54.0
2023-08-15 17:46:45.872193,-52.0
2023-08-15 17:46:45.879883,-45.0
2023-08-15 17:46:45.887573,-33.0
2023-08-15 17:46:45.895262,-23.0
2023-08-15 17:46:45.902952,-7.0
2023-08-15 17:46:45.910642,7.0
2023-08-15 17:46:45.918331,21.0
2023-08-15 17:46:45.926021,42.0
2023-08-15 17:46:45.933710,61.0
2023-08-15 17:46:45.941400,78.0
2023-08-15 17:46:45.949090,104.0
2023-08-15 17:46:45.956779,128.0
2023-08-15 17:46:45.964469,147.0
2023-08-15 17:46:45.972158,161.0
2023-08-15 17:46:45.979848,166.0
2023-08-15 17:46:45.987538,161.0
2023-08-15 17:46:45.995227,149.0
2023-08-15 17:46:46.002917,130.0
2023-08-15 17:46:46.010607,92.0
2023-08-15 17:46:46.018296,42.0
2023-08-15 17:46:46.025986,-9.0
2023-08-15 17:46:46.033675,-64.0
2023-08-15 17:46:46.041365,-102.0
2023-08-15 17:46:46.049055,-126.0
2023-08-15 17:46:46.056744,-142.0
2023-08-15 17:46:46.064434,-159.0
2023-08-15 17:46:46.072123,-164.0
2023-08-15 17:46:46.079813,-161.0
2023-08-15 17:46:46.087503,-159.0
2023-08-15 17:46:46.095192,-154.0
2023-08-15 17:46:46.102882,-145.0
2023-08-15 17:46:46.110572,-140.0
2023-08-15 17:46:46.118261,-138.0
2023-08-15 17:46:46.125951,-128.0
2023-08-15 17:46:46.133640,-119.0
2023-08-15 17:46:46.141330,-116.0
2023-08-15 17:46:46.149020,-111.0
2023-08-15 17:46:46.156709,-104.0
2023-08-15 17:46:46.164399,-102.0
2023-08-15 17:46:46.172088,-102.0
2023-08-15 17:46:46.179778,-95.0
2023-08-15 17:46:46.187468,-85.0
2023-08-15 17:46:46.195157,-88.0
2023-08-15 17:46:46.202847,-97.0
2023-08-15 17:46:46.210537,-99.0
2023-08-15 17:46:46.218226,-95.0
2023-08-15 17:46:46.225916,-92.0
2023-08-15 17:46:46.233605,-92.0
2023-08-15 17:46:46.241295,-92.0
2023-08-15 17:46:46.248985,-95.0
2023-08-15 17:46:46.256674,-99.0
2023-08-15 17:46:46.264364,-99.0
2023-08-15 17:46:46.272053,-95.0
2023-08-15 17:46:46.279743,-90.0
2023-08-15 17:46:46.287433,-88.0
2023-08-15 17:46:46.295122,-88.0
2023-08-15 17:46:46.302812,-85.0
2023-08-15 17:46:46.310502,-83.0
2023-08-15 17:46:46.318191,-76.0
2023-08-15 17:46:46.325881,-64.0
2023-08-15 17:46:46.333570,-54.0
2023-08-15 17:46:46.341260,-47.0
2023-08-15 17:46:46.348950,-42.0
2023-08-15 17:46:46.356639,-38.0
2023-08-15 17:46:46.364329,-45.0
2023-08-15 17:46:46.372018,-73.0
2023-08-15 17:46:46.379708,-95.0
2023-08-15 17:46:46.387398,-90.0
2023-08-15 17:46:46.395087,-80.0
2023-08-15 17:46:46.402777,-85.0
2023-08-15 17:46:46.410467,-83.0
2023-08-15 17:46:46.418156,-42.0
2023-08-15 17:46:46.425846,102.0
2023-08-15 17:46:46.433535,383.0
2023-08-15 17:46:46.441225,557.0
2023-08-15 17:46:46.448915,278.0
2023-08-15 17:46:46.456604,-307.0
2023-08-15 17:46:46.464294,-602.0
2023-08-15 17:46:46.471983,-385.0
2023-08-15 17:46:46.479673,-107.0
2023-08-15 17:46:46.487363,-73.0
2023-08-15 17:46:46.495052,-102.0
2023-08-15 17:46:46.502742,-73.0
2023-08-15 17:46:46.510432,-64.0
2023-08-15 17:46:46.518121,-76.0
2023-08-15 17:46:46.525811,-69.0
2023-08-15 17:46:46.533500,-57.0
2023-08-15 17:46:46.541190,-49.0
2023-08-15 17:46:46.548880,-38.0
2023-08-15 17:46:46.556569,-23.0
2023-08-15 17:46:46.564259,-14.0
2023-08-15 17:46:46.571948,-2.0
2023-08-15 17:46:46.579638,14.0
2023-08-15 17:46:46.587328,28.0
2023-08-15 17:46:46.595017,47.0
2023-08-15 17:46:46.602707,69.0
2023-08-15 17:46:46.610397,88.0
2023-08-15 17:46:46.618086,107.0
2023-08-15 17:46:46.625776,128.0
2023-08-15 17:46:46.633465,147.0
2023-08-15 17:46:46.641155,159.0
2023-08-15 17:46:46.648845,164.0
2023-08-15 17:46:46.656534,159.0
2023-08-15 17:46:46.664224,147.0
2023-08-15 17:46:46.671913,126.0
2023-08-15 17:46:46.679603,85.0
2023-08-15 17:46:46.687293,33.0
2023-08-15 17:46:46.694982,-21.0
2023-08-15 17:46:46.702672,-69.0
2023-08-15 17:46:46.710362,-104.0
2023-08-15 17:46:46.718051,-128.0
2023-08-15 17:46:46.725741,-145.0
2023-08-15 17:46:46.733430,-152.0
2023-08-15 17:46:46.741120,-154.0
2023-08-15 17:46:46.748810,-154.0
2023-08-15 17:46:46.756499,-154.0
2023-08-15 17:46:46.764189,-149.0
2023-08-15 17:46:46.771878,-145.0
2023-08-15 17:46:46.779568,-142.0
2023-08-15 17:46:46.787258,-147.0
2023-08-15 17:46:46.794947,-145.0
2023-08-15 17:46:46.802637,-135.0
2023-08-15 17:46:46.810327,-130.0
2023-08-15 17:46:46.818016,-126.0
2023-08-15 17:46:46.825706,-119.0
2023-08-15 17:46:46.833395,-114.0
2023-08-15 17:46:46.841085,-111.0
2023-08-15 17:46:46.848775,-107.0
2023-08-15 17:46:46.856464,-104.0
2023-08-15 17:46:46.864154,-99.0
2023-08-15 17:46:46.871843,-97.0
2023-08-15 17:46:46.879533,-99.0
2023-08-15 17:46:46.887223,-97.0
2023-08-15 17:46:46.894912,-95.0
2023-08-15 17:46:46.902602,-95.0
2023-08-15 17:46:46.910292,-95.0
2023-08-15 17:46:46.917981,-95.0
2023-08-15 17:46:46.925671,-95.0
2023-08-15 17:46:46.933360,-92.0
2023-08-15 17:46:46.941050,-92.0
2023-08-15 17:46:46.948740,-90.0
2023-08-15 17:46:46.956429,-90.0
2023-08-15 17:46:46.964119,-90.0
2023-08-15 17:46:46.971808,-88.0
2023-08-15 17:46:46.979498,-85.0
2023-08-15 17:46:46.987188,-85.0
2023-08-15 17:46:46.994877,-92.0
2023-08-15 17:46:47.002567,-95.0
2023-08-15 17:46:47.010257,-88.0
2023-08-15 17:46:47.017946,-73.0
2023-08-15 17:46:47.025636,-61.0
2023-08-15 17:46:47.033325,-57.0
2023-08-15 17:46:47.041015,-47.0
2023-08-15 17:46:47.048705,-45.0
2023-08-15 17:46:47.056394,-61.0
2023-08-15 17:46:47.064084,-90.0
2023-08-15 17:46:47.071773,-99.0
2023-08-15 17:46:47.079463,-95.0
2023-08-15 17:46:47.087153,-95.0
2023-08-15 17:46:47.094842,-99.0
2023-08-15 17:46:47.102532,-95.0
2023-08-15 17:46:47.110222,-49.0
2023-08-15 17:46:47.117911,114.0
2023-08-15 17:46:47.125601,402.0
2023-08-15 17:46:47.133290,526.0
2023-08-15 17:46:47.140980,192.0
2023-08-15 17:46:47.148670,-373.0
2023-08-15 17:46:47.156359,-597.0
2023-08-15 17:46:47.164049,-340.0
2023-08-15 17:46:47.171738,-88.0
2023-08-15 17:46:47.179428,-88.0
2023-08-15 17:46:47.187118,-111.0
2023-08-15 17:46:47.194807,-76.0
2023-08-15 17:46:47.202497,-71.0
2023-08-15 17:46:47.210187,-80.0
2023-08-15 17:46:47.217876,-66.0
2023-08-15 17:46:47.225566,-54.0
2023-08-15 17:46:47.233255,-54.0
2023-08-15 17:46:47.240945,-45.0
2023-08-15 17:46:47.248635,-30.0
2023-08-15 17:46:47.256324,-16.0
2023-08-15 17:46:47.264014,-4.0
2023-08-15 17:46:47.271703,11.0
2023-08-15 17:46:47.279393,26.0
2023-08-15 17:46:47.287083,40.0
2023-08-15 17:46:47.294772,61.0
2023-08-15 17:46:47.302462,83.0
2023-08-15 17:46:47.310152,104.0
2023-08-15 17:46:47.317841,123.0
2023-08-15 17:46:47.325531,133.0
2023-08-15 17:46:47.333220,135.0
2023-08-15 17:46:47.340910,142.0
2023-08-15 17:46:47.348600,145.0
2023-08-15 17:46:47.356289,130.0
2023-08-15 17:46:47.363979,107.0
2023-08-15 17:46:47.371668,71.0
2023-08-15 17:46:47.379358,19.0
2023-08-15 17:46:47.387048,-33.0
2023-08-15 17:46:47.394737,-73.0
2023-08-15 17:46:47.402427,-109.0
2023-08-15 17:46:47.410117,-135.0
2023-08-15 17:46:47.417806,-149.0
2023-08-15 17:46:47.425496,-157.0
2023-08-15 17:46:47.433185,-159.0
2023-08-15 17:46:47.440875,-157.0
2023-08-15 17:46:47.448565,-152.0
2023-08-15 17:46:47.456254,-149.0
2023-08-15 17:46:47.463944,-149.0
2023-08-15 17:46:47.471633,-142.0
2023-08-15 17:46:47.479323,-138.0
2023-08-15 17:46:47.487013,-135.0
2023-08-15 17:46:47.494702,-128.0
2023-08-15 17:46:47.502392,-126.0
2023-08-15 17:46:47.510082,-130.0
2023-08-15 17:46:47.517771,-126.0
2023-08-15 17:46:47.525461,-114.0
2023-08-15 17:46:47.533150,-109.0
2023-08-15 17:46:47.540840,-109.0
2023-08-15 17:46:47.548530,-107.0
2023-08-15 17:46:47.556219,-104.0
2023-08-15 17:46:47.563909,-102.0
2023-08-15 17:46:47.571598,-99.0
2023-08-15 17:46:47.579288,-102.0
2023-08-15 17:46:47.586978,-99.0
2023-08-15 17:46:47.594667,-99.0
2023-08-15 17:46:47.602357,-102.0
2023-08-15 17:46:47.610047,-102.0
2023-08-15 17:46:47.617736,-99.0
2023-08-15 17:46:47.625426,-99.0
2023-08-15 17:46:47.633115,-99.0
2023-08-15 17:46:47.640805,-99.0
2023-08-15 17:46:47.648495,-97.0
2023-08-15 17:46:47.656184,-97.0
2023-08-15 17:46:47.663874,-95.0
2023-08-15 17:46:47.671563,-90.0
2023-08-15 17:46:47.679253,-88.0
2023-08-15 17:46:47.686943,-88.0
2023-08-15 17:46:47.694632,-85.0
2023-08-15 17:46:47.702322,-73.0
2023-08-15 17:46:47.710012,-59.0
2023-08-15 17:46:47.717701,-49.0
2023-08-15 17:46:47.725391,-45.0
2023-08-15 17:46:47.733080,-42.0
2023-08-15 17:46:47.740770,-45.0
2023-08-15 17:46:47.748460,-61.0
2023-08-15 17:46:47.756149,-85.0
2023-08-15 17:46:47.763839,-102.0
2023-08-15 17:46:47.771528,-97.0
2023-08-15 17:46:47.779218,-97.0
2023-08-15 17:46:47.786908,-102.0
2023-08-15 17:46:47.794597,-95.0
2023-08-15 17:46:47.802287,-40.0
2023-08-15 17:46:47.809977,133.0
2023-08-15 17:46:47.817666,416.0
2023-08-15 17:46:47.825356,509.0
2023-08-15 17:46:47.833045,147.0
2023-08-15 17:46:47.840735,-409.0
2023-08-15 17:46:47.848425,-592.0
2023-08-15 17:46:47.856114,-314.0
2023-08-15 17:46:47.863804,-78.0
2023-08-15 17:46:47.871493,-97.0
2023-08-15 17:46:47.879183,-116.0
2023-08-15 17:46:47.886873,-76.0
2023-08-15 17:46:47.894562,-73.0
2023-08-15 17:46:47.902252,-83.0
2023-08-15 17:46:47.909942,-66.0
2023-08-15 17:46:47.917631,-59.0
2023-08-15 17:46:47.925321,-52.0
2023-08-15 17:46:47.933010,-38.0
2023-08-15 17:46:47.940700,-26.0
2023-08-15 17:46:47.948390,-16.0
2023-08-15 17:46:47.956079,-9.0
2023-08-15 17:46:47.963769,-4.0
2023-08-15 17:46:47.971458,9.0
2023-08-15 17:46:47.979148,28.0
2023-08-15 17:46:47.986838,47.0
2023-08-15 17:46:47.994527,69.0
2023-08-15 17:46:48.002217,90.0
2023-08-15 17:46:48.009907,104.0
2023-08-15 17:46:48.017596,114.0
2023-08-15 17:46:48.025286,126.0
2023-08-15 17:46:48.032975,135.0
2023-08-15 17:46:48.040665,133.0
2023-08-15 17:46:48.048355,119.0
2023-08-15 17:46:48.056044,97.0
2023-08-15 17:46:48.063734,59.0
2023-08-15 17:46:48.071423,9.0
2023-08-15 17:46:48.079113,-40.0
2023-08-15 17:46:48.086803,-83.0
2023-08-15 17:46:48.094492,-119.0
2023-08-15 17:46:48.102182,-142.0
2023-08-15 17:46:48.109872,-157.0
2023-08-15 17:46:48.117561,-164.0
2023-08-15 17:46:48.125251,-164.0
2023-08-15 17:46:48.132940,-161.0
2023-08-15 17:46:48.140630,-159.0
2023-08-15 17:46:48.148320,-157.0
2023-08-15 17:46:48.156009,-149.0
2023-08-15 17:46:48.163699,-140.0
2023-08-15 17:46:48.171388,-133.0
2023-08-15 17:46:48.179078,-130.0
2023-08-15 17:46:48.186768,-126.0
2023-08-15 17:46:48.194457,-119.0
2023-08-15 17:46:48.202147,-114.0
2023-08-15 17:46:48.209837,-114.0
2023-08-15 17:46:48.217526,-111.0
2023-08-15 17:46:48.225216,-107.0
2023-08-15 17:46:48.232905,-104.0
2023-08-15 17:46:48.240595,-102.0
2023-08-15 17:46:48.248285,-99.0
2023-08-15 17:46:48.255974,-97.0
2023-08-15 17:46:48.263664,-97.0
