time,ECG
2023-08-16 12:06:38.262067,-94.0
2023-08-16 12:06:38.269756,-91.0
2023-08-16 12:06:38.277446,-89.0
2023-08-16 12:06:38.285135,-86.0
2023-08-16 12:06:38.292824,-84.0
2023-08-16 12:06:38.300514,-86.0
2023-08-16 12:06:38.308203,-84.0
2023-08-16 12:06:38.315892,-86.0
2023-08-16 12:06:38.323581,-89.0
2023-08-16 12:06:38.331271,-82.0
2023-08-16 12:06:38.338960,-82.0
2023-08-16 12:06:38.346649,-89.0
2023-08-16 12:06:38.354339,-94.0
2023-08-16 12:06:38.362028,-96.0
2023-08-16 12:06:38.369717,-94.0
2023-08-16 12:06:38.377406,-74.0
2023-08-16 12:06:38.385096,-38.0
2023-08-16 12:06:38.392785,-12.0
2023-08-16 12:06:38.400474,-2.0
2023-08-16 12:06:38.408164,-4.0
2023-08-16 12:06:38.415853,-24.0
2023-08-16 12:06:38.423542,-57.0
2023-08-16 12:06:38.431231,-74.0
2023-08-16 12:06:38.438921,-69.0
2023-08-16 12:06:38.446610,-65.0
2023-08-16 12:06:38.454299,-57.0
2023-08-16 12:06:38.461989,-50.0
2023-08-16 12:06:38.469678,-53.0
2023-08-16 12:06:38.477367,-45.0
2023-08-16 12:06:38.485057,-7.0
2023-08-16 12:06:38.492746,190.0
2023-08-16 12:06:38.500435,789.0
2023-08-16 12:06:38.508124,1481.0
2023-08-16 12:06:38.515814,1382.0
2023-08-16 12:06:38.523503,456.0
2023-08-16 12:06:38.531192,-301.0
2023-08-16 12:06:38.538882,-291.0
2023-08-16 12:06:38.546571,-26.0
2023-08-16 12:06:38.554260,-84.0
2023-08-16 12:06:38.561949,-197.0
2023-08-16 12:06:38.569639,-135.0
2023-08-16 12:06:38.577328,-108.0
2023-08-16 12:06:38.585017,-135.0
2023-08-16 12:06:38.592707,-110.0
2023-08-16 12:06:38.600396,-72.0
2023-08-16 12:06:38.608085,-69.0
2023-08-16 12:06:38.615774,-72.0
2023-08-16 12:06:38.623464,-62.0
2023-08-16 12:06:38.631153,-48.0
2023-08-16 12:06:38.638842,-28.0
2023-08-16 12:06:38.646532,-4.0
2023-08-16 12:06:38.654221,9.0
2023-08-16 12:06:38.661910,33.0
2023-08-16 12:06:38.669600,67.0
2023-08-16 12:06:38.677289,98.0
2023-08-16 12:06:38.684978,132.0
2023-08-16 12:06:38.692667,176.0
2023-08-16 12:06:38.700357,217.0
2023-08-16 12:06:38.708046,253.0
2023-08-16 12:06:38.715735,301.0
2023-08-16 12:06:38.723425,347.0
2023-08-16 12:06:38.731114,381.0
2023-08-16 12:06:38.738803,410.0
2023-08-16 12:06:38.746492,417.0
2023-08-16 12:06:38.754182,398.0
2023-08-16 12:06:38.761871,357.0
2023-08-16 12:06:38.769560,284.0
2023-08-16 12:06:38.777250,178.0
2023-08-16 12:06:38.784939,57.0
2023-08-16 12:06:38.792628,-62.0
2023-08-16 12:06:38.800317,-166.0
2023-08-16 12:06:38.808007,-241.0
2023-08-16 12:06:38.815696,-287.0
2023-08-16 12:06:38.823385,-308.0
2023-08-16 12:06:38.831075,-325.0
2023-08-16 12:06:38.838764,-335.0
2023-08-16 12:06:38.846453,-325.0
2023-08-16 12:06:38.854143,-313.0
2023-08-16 12:06:38.861832,-308.0
2023-08-16 12:06:38.869521,-296.0
2023-08-16 12:06:38.877210,-279.0
2023-08-16 12:06:38.884900,-270.0
2023-08-16 12:06:38.892589,-260.0
2023-08-16 12:06:38.900278,-255.0
2023-08-16 12:06:38.907968,-250.0
2023-08-16 12:06:38.915657,-229.0
2023-08-16 12:06:38.923346,-212.0
2023-08-16 12:06:38.931035,-219.0
2023-08-16 12:06:38.938725,-221.0
2023-08-16 12:06:38.946414,-205.0
2023-08-16 12:06:38.954103,-190.0
2023-08-16 12:06:38.961793,-185.0
2023-08-16 12:06:38.969482,-183.0
2023-08-16 12:06:38.977171,-188.0
2023-08-16 12:06:38.984860,-190.0
2023-08-16 12:06:38.992550,-178.0
2023-08-16 12:06:39.000239,-168.0
2023-08-16 12:06:39.007928,-168.0
2023-08-16 12:06:39.015618,-164.0
2023-08-16 12:06:39.023307,-159.0
2023-08-16 12:06:39.030996,-161.0
2023-08-16 12:06:39.038686,-159.0
2023-08-16 12:06:39.046375,-152.0
2023-08-16 12:06:39.054064,-149.0
2023-08-16 12:06:39.061753,-152.0
2023-08-16 12:06:39.069443,-154.0
2023-08-16 12:06:39.077132,-152.0
2023-08-16 12:06:39.084821,-147.0
2023-08-16 12:06:39.092511,-147.0
2023-08-16 12:06:39.100200,-144.0
2023-08-16 12:06:39.107889,-139.0
2023-08-16 12:06:39.115578,-137.0
2023-08-16 12:06:39.123268,-139.0
2023-08-16 12:06:39.130957,-144.0
2023-08-16 12:06:39.138646,-149.0
2023-08-16 12:06:39.146336,-149.0
2023-08-16 12:06:39.154025,-142.0
2023-08-16 12:06:39.161714,-137.0
2023-08-16 12:06:39.169403,-137.0
2023-08-16 12:06:39.177093,-139.0
2023-08-16 12:06:39.184782,-135.0
2023-08-16 12:06:39.192471,-132.0
2023-08-16 12:06:39.200161,-132.0
2023-08-16 12:06:39.207850,-130.0
2023-08-16 12:06:39.215539,-120.0
2023-08-16 12:06:39.223229,-110.0
2023-08-16 12:06:39.230918,-110.0
2023-08-16 12:06:39.238607,-110.0
2023-08-16 12:06:39.246296,-115.0
2023-08-16 12:06:39.253986,-115.0
2023-08-16 12:06:39.261675,-106.0
2023-08-16 12:06:39.269364,-96.0
2023-08-16 12:06:39.277054,-96.0
2023-08-16 12:06:39.284743,-103.0
2023-08-16 12:06:39.292432,-103.0
2023-08-16 12:06:39.300121,-98.0
2023-08-16 12:06:39.307811,-96.0
2023-08-16 12:06:39.315500,-94.0
2023-08-16 12:06:39.323189,-103.0
2023-08-16 12:06:39.330879,-110.0
2023-08-16 12:06:39.338568,-106.0
2023-08-16 12:06:39.346257,-91.0
2023-08-16 12:06:39.353946,-67.0
2023-08-16 12:06:39.361636,-33.0
2023-08-16 12:06:39.369325,-14.0
2023-08-16 12:06:39.377014,-19.0
2023-08-16 12:06:39.384704,-41.0
2023-08-16 12:06:39.392393,-65.0
2023-08-16 12:06:39.400082,-74.0
2023-08-16 12:06:39.407772,-72.0
2023-08-16 12:06:39.415461,-72.0
2023-08-16 12:06:39.423150,-67.0
2023-08-16 12:06:39.430839,-62.0
2023-08-16 12:06:39.438529,-62.0
2023-08-16 12:06:39.446218,-60.0
2023-08-16 12:06:39.453907,-19.0
2023-08-16 12:06:39.461597,142.0
2023-08-16 12:06:39.469286,627.0
2023-08-16 12:06:39.476975,1295.0
2023-08-16 12:06:39.484664,1336.0
2023-08-16 12:06:39.492354,480.0
2023-08-16 12:06:39.500043,-342.0
2023-08-16 12:06:39.507732,-388.0
2023-08-16 12:06:39.515422,-67.0
2023-08-16 12:06:39.523111,-53.0
2023-08-16 12:06:39.530800,-156.0
2023-08-16 12:06:39.538489,-96.0
2023-08-16 12:06:39.546179,-77.0
2023-08-16 12:06:39.553868,-108.0
2023-08-16 12:06:39.561557,-82.0
2023-08-16 12:06:39.569247,-50.0
2023-08-16 12:06:39.576936,-53.0
2023-08-16 12:06:39.584625,-41.0
2023-08-16 12:06:39.592315,-19.0
2023-08-16 12:06:39.600004,-4.0
2023-08-16 12:06:39.607693,12.0
2023-08-16 12:06:39.615382,36.0
2023-08-16 12:06:39.623072,62.0
2023-08-16 12:06:39.630761,84.0
2023-08-16 12:06:39.638450,103.0
2023-08-16 12:06:39.646140,130.0
2023-08-16 12:06:39.653829,168.0
2023-08-16 12:06:39.661518,209.0
2023-08-16 12:06:39.669207,250.0
2023-08-16 12:06:39.676897,299.0
2023-08-16 12:06:39.684586,354.0
2023-08-16 12:06:39.692275,400.0
2023-08-16 12:06:39.699965,434.0
2023-08-16 12:06:39.707654,458.0
2023-08-16 12:06:39.715343,463.0
2023-08-16 12:06:39.723033,448.0
2023-08-16 12:06:39.730722,402.0
2023-08-16 12:06:39.738411,313.0
2023-08-16 12:06:39.746100,180.0
2023-08-16 12:06:39.753790,33.0
2023-08-16 12:06:39.761479,-96.0
2023-08-16 12:06:39.769168,-202.0
2023-08-16 12:06:39.776858,-275.0
2023-08-16 12:06:39.784547,-318.0
2023-08-16 12:06:39.792236,-342.0
2023-08-16 12:06:39.799925,-359.0
2023-08-16 12:06:39.807615,-361.0
2023-08-16 12:06:39.815304,-357.0
2023-08-16 12:06:39.822993,-352.0
2023-08-16 12:06:39.830683,-342.0
2023-08-16 12:06:39.838372,-332.0
2023-08-16 12:06:39.846061,-320.0
2023-08-16 12:06:39.853750,-301.0
2023-08-16 12:06:39.861440,-291.0
2023-08-16 12:06:39.869129,-284.0
2023-08-16 12:06:39.876818,-267.0
2023-08-16 12:06:39.884508,-255.0
2023-08-16 12:06:39.892197,-246.0
2023-08-16 12:06:39.899886,-231.0
2023-08-16 12:06:39.907576,-219.0
2023-08-16 12:06:39.915265,-217.0
2023-08-16 12:06:39.922954,-214.0
2023-08-16 12:06:39.930643,-207.0
2023-08-16 12:06:39.938333,-202.0
2023-08-16 12:06:39.946022,-200.0
2023-08-16 12:06:39.953711,-200.0
2023-08-16 12:06:39.961401,-193.0
2023-08-16 12:06:39.969090,-193.0
2023-08-16 12:06:39.976779,-195.0
2023-08-16 12:06:39.984468,-188.0
2023-08-16 12:06:39.992158,-178.0
2023-08-16 12:06:39.999847,-180.0
2023-08-16 12:06:40.007536,-183.0
2023-08-16 12:06:40.015226,-178.0
2023-08-16 12:06:40.022915,-173.0
2023-08-16 12:06:40.030604,-166.0
2023-08-16 12:06:40.038293,-161.0
2023-08-16 12:06:40.045983,-164.0
2023-08-16 12:06:40.053672,-168.0
2023-08-16 12:06:40.061361,-164.0
2023-08-16 12:06:40.069051,-156.0
2023-08-16 12:06:40.076740,-152.0
2023-08-16 12:06:40.084429,-142.0
2023-08-16 12:06:40.092119,-137.0
2023-08-16 12:06:40.099808,-144.0
2023-08-16 12:06:40.107497,-147.0
2023-08-16 12:06:40.115186,-137.0
2023-08-16 12:06:40.122876,-132.0
2023-08-16 12:06:40.130565,-130.0
2023-08-16 12:06:40.138254,-123.0
2023-08-16 12:06:40.145944,-125.0
2023-08-16 12:06:40.153633,-127.0
2023-08-16 12:06:40.161322,-123.0
2023-08-16 12:06:40.169011,-118.0
2023-08-16 12:06:40.176701,-120.0
2023-08-16 12:06:40.184390,-118.0
2023-08-16 12:06:40.192079,-110.0
2023-08-16 12:06:40.199769,-108.0
2023-08-16 12:06:40.207458,-106.0
2023-08-16 12:06:40.215147,-103.0
2023-08-16 12:06:40.222836,-106.0
2023-08-16 12:06:40.230526,-106.0
2023-08-16 12:06:40.238215,-106.0
2023-08-16 12:06:40.245904,-110.0
2023-08-16 12:06:40.253594,-115.0
2023-08-16 12:06:40.261283,-113.0
2023-08-16 12:06:40.268972,-103.0
2023-08-16 12:06:40.276662,-86.0
2023-08-16 12:06:40.284351,-60.0
2023-08-16 12:06:40.292040,-38.0
2023-08-16 12:06:40.299729,-33.0
2023-08-16 12:06:40.307419,-41.0
2023-08-16 12:06:40.315108,-67.0
2023-08-16 12:06:40.322797,-98.0
2023-08-16 12:06:40.330487,-98.0
2023-08-16 12:06:40.338176,-89.0
2023-08-16 12:06:40.345865,-89.0
2023-08-16 12:06:40.353554,-86.0
2023-08-16 12:06:40.361244,-82.0
2023-08-16 12:06:40.368933,-77.0
2023-08-16 12:06:40.376622,-62.0
2023-08-16 12:06:40.384312,14.0
2023-08-16 12:06:40.392001,361.0
2023-08-16 12:06:40.399690,1071.0
2023-08-16 12:06:40.407379,1462.0
2023-08-16 12:06:40.415069,887.0
2023-08-16 12:06:40.422758,-62.0
2023-08-16 12:06:40.430447,-424.0
2023-08-16 12:06:40.438137,-164.0
2023-08-16 12:06:40.445826,-36.0
2023-08-16 12:06:40.453515,-171.0
2023-08-16 12:06:40.461205,-168.0
2023-08-16 12:06:40.468894,-103.0
2023-08-16 12:06:40.476583,-123.0
2023-08-16 12:06:40.484272,-125.0
2023-08-16 12:06:40.491962,-91.0
2023-08-16 12:06:40.499651,-82.0
2023-08-16 12:06:40.507340,-77.0
2023-08-16 12:06:40.515030,-53.0
2023-08-16 12:06:40.522719,-36.0
2023-08-16 12:06:40.530408,-26.0
2023-08-16 12:06:40.538097,-14.0
2023-08-16 12:06:40.545787,4.0
2023-08-16 12:06:40.553476,28.0
2023-08-16 12:06:40.561165,55.0
2023-08-16 12:06:40.568855,84.0
2023-08-16 12:06:40.576544,118.0
2023-08-16 12:06:40.584233,154.0
2023-08-16 12:06:40.591922,193.0
2023-08-16 12:06:40.599612,236.0
2023-08-16 12:06:40.607301,284.0
2023-08-16 12:06:40.614990,332.0
2023-08-16 12:06:40.622680,376.0
2023-08-16 12:06:40.630369,405.0
2023-08-16 12:06:40.638058,412.0
2023-08-16 12:06:40.645748,398.0
2023-08-16 12:06:40.653437,357.0
2023-08-16 12:06:40.661126,291.0
2023-08-16 12:06:40.668815,193.0
2023-08-16 12:06:40.676505,69.0
2023-08-16 12:06:40.684194,-57.0
2023-08-16 12:06:40.691883,-164.0
2023-08-16 12:06:40.699573,-236.0
2023-08-16 12:06:40.707262,-284.0
2023-08-16 12:06:40.714951,-316.0
2023-08-16 12:06:40.722640,-332.0
2023-08-16 12:06:40.730330,-335.0
2023-08-16 12:06:40.738019,-332.0
2023-08-16 12:06:40.745708,-325.0
2023-08-16 12:06:40.753398,-318.0
2023-08-16 12:06:40.761087,-308.0
2023-08-16 12:06:40.768776,-296.0
2023-08-16 12:06:40.776465,-287.0
2023-08-16 12:06:40.784155,-277.0
2023-08-16 12:06:40.791844,-267.0
2023-08-16 12:06:40.799533,-255.0
2023-08-16 12:06:40.807223,-243.0
2023-08-16 12:06:40.814912,-231.0
2023-08-16 12:06:40.822601,-224.0
2023-08-16 12:06:40.830291,-214.0
2023-08-16 12:06:40.837980,-209.0
2023-08-16 12:06:40.845669,-207.0
2023-08-16 12:06:40.853358,-200.0
2023-08-16 12:06:40.861048,-202.0
2023-08-16 12:06:40.868737,-207.0
2023-08-16 12:06:40.876426,-202.0
2023-08-16 12:06:40.884116,-195.0
2023-08-16 12:06:40.891805,-195.0
2023-08-16 12:06:40.899494,-193.0
2023-08-16 12:06:40.907183,-188.0
2023-08-16 12:06:40.914873,-185.0
2023-08-16 12:06:40.922562,-183.0
2023-08-16 12:06:40.930251,-178.0
2023-08-16 12:06:40.937941,-173.0
2023-08-16 12:06:40.945630,-171.0
2023-08-16 12:06:40.953319,-168.0
2023-08-16 12:06:40.961009,-164.0
2023-08-16 12:06:40.968698,-161.0
2023-08-16 12:06:40.976387,-156.0
2023-08-16 12:06:40.984076,-154.0
2023-08-16 12:06:40.991766,-149.0
2023-08-16 12:06:40.999455,-147.0
2023-08-16 12:06:41.007144,-144.0
2023-08-16 12:06:41.014834,-139.0
2023-08-16 12:06:41.022523,-139.0
2023-08-16 12:06:41.030212,-139.0
2023-08-16 12:06:41.037901,-137.0
2023-08-16 12:06:41.045591,-135.0
2023-08-16 12:06:41.053280,-130.0
2023-08-16 12:06:41.060969,-125.0
2023-08-16 12:06:41.068659,-125.0
2023-08-16 12:06:41.076348,-123.0
2023-08-16 12:06:41.084037,-118.0
2023-08-16 12:06:41.091726,-118.0
2023-08-16 12:06:41.099416,-115.0
2023-08-16 12:06:41.107105,-110.0
2023-08-16 12:06:41.114794,-108.0
2023-08-16 12:06:41.122484,-106.0
2023-08-16 12:06:41.130173,-103.0
2023-08-16 12:06:41.137862,-101.0
2023-08-16 12:06:41.145552,-103.0
2023-08-16 12:06:41.153241,-106.0
2023-08-16 12:06:41.160930,-108.0
2023-08-16 12:06:41.168619,-103.0
2023-08-16 12:06:41.176309,-103.0
2023-08-16 12:06:41.183998,-101.0
2023-08-16 12:06:41.191687,-98.0
2023-08-16 12:06:41.199377,-96.0
2023-08-16 12:06:41.207066,-94.0
2023-08-16 12:06:41.214755,-91.0
2023-08-16 12:06:41.222444,-89.0
2023-08-16 12:06:41.230134,-89.0
2023-08-16 12:06:41.237823,-84.0
2023-08-16 12:06:41.245512,-82.0
2023-08-16 12:06:41.253202,-82.0
2023-08-16 12:06:41.260891,-79.0
2023-08-16 12:06:41.268580,-79.0
2023-08-16 12:06:41.276269,-84.0
2023-08-16 12:06:41.283959,-91.0
2023-08-16 12:06:41.291648,-98.0
2023-08-16 12:06:41.299337,-103.0
2023-08-16 12:06:41.307027,-96.0
2023-08-16 12:06:41.314716,-67.0
2023-08-16 12:06:41.322405,-26.0
2023-08-16 12:06:41.330095,0.0
2023-08-16 12:06:41.337784,-2.0
2023-08-16 12:06:41.345473,-9.0
2023-08-16 12:06:41.353162,-28.0
2023-08-16 12:06:41.360852,-62.0
2023-08-16 12:06:41.368541,-74.0
2023-08-16 12:06:41.376230,-62.0
2023-08-16 12:06:41.383920,-62.0
2023-08-16 12:06:41.391609,-62.0
2023-08-16 12:06:41.399298,-60.0
2023-08-16 12:06:41.406987,-65.0
2023-08-16 12:06:41.414677,-57.0
2023-08-16 12:06:41.422366,-7.0
2023-08-16 12:06:41.430055,241.0
2023-08-16 12:06:41.437745,895.0
2023-08-16 12:06:41.445434,1467.0
2023-08-16 12:06:41.453123,1172.0
2023-08-16 12:06:41.460812,243.0
2023-08-16 12:06:41.468502,-359.0
2023-08-16 12:06:41.476191,-243.0
2023-08-16 12:06:41.483880,-26.0
2023-08-16 12:06:41.491570,-130.0
2023-08-16 12:06:41.499259,-195.0
2023-08-16 12:06:41.506948,-120.0
2023-08-16 12:06:41.514638,-118.0
2023-08-16 12:06:41.522327,-142.0
2023-08-16 12:06:41.530016,-110.0
2023-08-16 12:06:41.537705,-89.0
2023-08-16 12:06:41.545395,-86.0
2023-08-16 12:06:41.553084,-67.0
2023-08-16 12:06:41.560773,-45.0
2023-08-16 12:06:41.568463,-36.0
2023-08-16 12:06:41.576152,-19.0
2023-08-16 12:06:41.583841,2.0
2023-08-16 12:06:41.591530,21.0
2023-08-16 12:06:41.599220,43.0
2023-08-16 12:06:41.606909,72.0
2023-08-16 12:06:41.614598,103.0
2023-08-16 12:06:41.622288,135.0
2023-08-16 12:06:41.629977,171.0
2023-08-16 12:06:41.637666,214.0
2023-08-16 12:06:41.645355,260.0
2023-08-16 12:06:41.653045,301.0
2023-08-16 12:06:41.660734,337.0
2023-08-16 12:06:41.668423,369.0
2023-08-16 12:06:41.676113,388.0
2023-08-16 12:06:41.683802,388.0
2023-08-16 12:06:41.691491,366.0
2023-08-16 12:06:41.699181,323.0
2023-08-16 12:06:41.706870,248.0
2023-08-16 12:06:41.714559,137.0
2023-08-16 12:06:41.722248,9.0
2023-08-16 12:06:41.729938,-106.0
2023-08-16 12:06:41.737627,-193.0
2023-08-16 12:06:41.745316,-255.0
2023-08-16 12:06:41.753006,-299.0
2023-08-16 12:06:41.760695,-323.0
2023-08-16 12:06:41.768384,-330.0
2023-08-16 12:06:41.776073,-325.0
2023-08-16 12:06:41.783763,-318.0
2023-08-16 12:06:41.791452,-313.0
2023-08-16 12:06:41.799141,-308.0
2023-08-16 12:06:41.806831,-299.0
2023-08-16 12:06:41.814520,-287.0
2023-08-16 12:06:41.822209,-275.0
2023-08-16 12:06:41.829898,-263.0
2023-08-16 12:06:41.837588,-250.0
2023-08-16 12:06:41.845277,-246.0
2023-08-16 12:06:41.852966,-241.0
2023-08-16 12:06:41.860656,-234.0
2023-08-16 12:06:41.868345,-226.0
2023-08-16 12:06:41.876034,-221.0
2023-08-16 12:06:41.883724,-217.0
2023-08-16 12:06:41.891413,-214.0
2023-08-16 12:06:41.899102,-207.0
2023-08-16 12:06:41.906791,-200.0
2023-08-16 12:06:41.914481,-197.0
2023-08-16 12:06:41.922170,-195.0
2023-08-16 12:06:41.929859,-188.0
2023-08-16 12:06:41.937549,-185.0
2023-08-16 12:06:41.945238,-195.0
2023-08-16 12:06:41.952927,-200.0
2023-08-16 12:06:41.960616,-190.0
2023-08-16 12:06:41.968306,-185.0
2023-08-16 12:06:41.975995,-180.0
2023-08-16 12:06:41.983684,-178.0
2023-08-16 12:06:41.991374,-176.0
2023-08-16 12:06:41.999063,-171.0
2023-08-16 12:06:42.006752,-166.0
2023-08-16 12:06:42.014441,-166.0
2023-08-16 12:06:42.022131,-159.0
2023-08-16 12:06:42.029820,-159.0
2023-08-16 12:06:42.037509,-164.0
2023-08-16 12:06:42.045199,-154.0
2023-08-16 12:06:42.052888,-144.0
2023-08-16 12:06:42.060577,-147.0
2023-08-16 12:06:42.068267,-147.0
2023-08-16 12:06:42.075956,-139.0
2023-08-16 12:06:42.083645,-139.0
2023-08-16 12:06:42.091334,-135.0
2023-08-16 12:06:42.099024,-123.0
2023-08-16 12:06:42.106713,-118.0
2023-08-16 12:06:42.114402,-123.0
2023-08-16 12:06:42.122092,-120.0
2023-08-16 12:06:42.129781,-115.0
2023-08-16 12:06:42.137470,-113.0
2023-08-16 12:06:42.145159,-108.0
2023-08-16 12:06:42.152849,-110.0
2023-08-16 12:06:42.160538,-118.0
2023-08-16 12:06:42.168227,-113.0
2023-08-16 12:06:42.175917,-101.0
2023-08-16 12:06:42.183606,-101.0
2023-08-16 12:06:42.191295,-108.0
2023-08-16 12:06:42.198984,-101.0
2023-08-16 12:06:42.206674,-94.0
2023-08-16 12:06:42.214363,-101.0
2023-08-16 12:06:42.222052,-103.0
2023-08-16 12:06:42.229742,-91.0
2023-08-16 12:06:42.237431,-82.0
2023-08-16 12:06:42.245120,-86.0
2023-08-16 12:06:42.252810,-94.0
2023-08-16 12:06:42.260499,-91.0
2023-08-16 12:06:42.268188,-82.0
2023-08-16 12:06:42.275877,-79.0
2023-08-16 12:06:42.283567,-77.0
2023-08-16 12:06:42.291256,-74.0
2023-08-16 12:06:42.298945,-72.0
2023-08-16 12:06:42.306635,-72.0
2023-08-16 12:06:42.314324,-77.0
2023-08-16 12:06:42.322013,-82.0
2023-08-16 12:06:42.329702,-74.0
2023-08-16 12:06:42.337392,-67.0
2023-08-16 12:06:42.345081,-67.0
2023-08-16 12:06:42.352770,-67.0
2023-08-16 12:06:42.360460,-62.0
2023-08-16 12:06:42.368149,-60.0
2023-08-16 12:06:42.375838,-60.0
2023-08-16 12:06:42.383528,-60.0
2023-08-16 12:06:42.391217,-62.0
2023-08-16 12:06:42.398906,-67.0
2023-08-16 12:06:42.406595,-62.0
2023-08-16 12:06:42.414285,-60.0
2023-08-16 12:06:42.421974,-69.0
2023-08-16 12:06:42.429663,-72.0
2023-08-16 12:06:42.437353,-77.0
2023-08-16 12:06:42.445042,-82.0
2023-08-16 12:06:42.452731,-67.0
2023-08-16 12:06:42.460420,-31.0
2023-08-16 12:06:42.468110,0.0
2023-08-16 12:06:42.475799,7.0
2023-08-16 12:06:42.483488,2.0
2023-08-16 12:06:42.491178,-9.0
2023-08-16 12:06:42.498867,-45.0
2023-08-16 12:06:42.506556,-72.0
2023-08-16 12:06:42.514245,-62.0
2023-08-16 12:06:42.521935,-57.0
2023-08-16 12:06:42.529624,-65.0
2023-08-16 12:06:42.537313,-67.0
2023-08-16 12:06:42.545003,-60.0
2023-08-16 12:06:42.552692,-45.0
2023-08-16 12:06:42.560381,-4.0
2023-08-16 12:06:42.568071,200.0
2023-08-16 12:06:42.575760,784.0
2023-08-16 12:06:42.583449,1430.0
2023-08-16 12:06:42.591138,1288.0
2023-08-16 12:06:42.598828,359.0
2023-08-16 12:06:42.606517,-335.0
2023-08-16 12:06:42.614206,-282.0
2023-08-16 12:06:42.621896,-31.0
2023-08-16 12:06:42.629585,-94.0
2023-08-16 12:06:42.637274,-188.0
2023-08-16 12:06:42.644963,-120.0
2023-08-16 12:06:42.652653,-91.0
2023-08-16 12:06:42.660342,-106.0
2023-08-16 12:06:42.668031,-89.0
2023-08-16 12:06:42.675721,-79.0
2023-08-16 12:06:42.683410,-72.0
2023-08-16 12:06:42.691099,-48.0
2023-08-16 12:06:42.698788,-36.0
2023-08-16 12:06:42.706478,-31.0
2023-08-16 12:06:42.714167,-4.0
2023-08-16 12:06:42.721856,26.0
2023-08-16 12:06:42.729546,45.0
2023-08-16 12:06:42.737235,65.0
2023-08-16 12:06:42.744924,89.0
2023-08-16 12:06:42.752614,118.0
2023-08-16 12:06:42.760303,149.0
2023-08-16 12:06:42.767992,185.0
2023-08-16 12:06:42.775681,231.0
2023-08-16 12:06:42.783371,272.0
2023-08-16 12:06:42.791060,318.0
2023-08-16 12:06:42.798749,366.0
2023-08-16 12:06:42.806439,400.0
2023-08-16 12:06:42.814128,422.0
2023-08-16 12:06:42.821817,431.0
2023-08-16 12:06:42.829506,415.0
2023-08-16 12:06:42.837196,371.0
2023-08-16 12:06:42.844885,308.0
2023-08-16 12:06:42.852574,212.0
2023-08-16 12:06:42.860264,84.0
2023-08-16 12:06:42.867953,-50.0
2023-08-16 12:06:42.875642,-164.0
2023-08-16 12:06:42.883331,-234.0
2023-08-16 12:06:42.891021,-272.0
2023-08-16 12:06:42.898710,-296.0
2023-08-16 12:06:42.906399,-320.0
2023-08-16 12:06:42.914089,-328.0
2023-08-16 12:06:42.921778,-313.0
2023-08-16 12:06:42.929467,-301.0
2023-08-16 12:06:42.937157,-311.0
2023-08-16 12:06:42.944846,-311.0
2023-08-16 12:06:42.952535,-291.0
2023-08-16 12:06:42.960224,-279.0
2023-08-16 12:06:42.967914,-270.0
2023-08-16 12:06:42.975603,-258.0
2023-08-16 12:06:42.983292,-241.0
2023-08-16 12:06:42.990982,-224.0
2023-08-16 12:06:42.998671,-219.0
2023-08-16 12:06:43.006360,-226.0
2023-08-16 12:06:43.014049,-219.0
2023-08-16 12:06:43.021739,-207.0
2023-08-16 12:06:43.029428,-197.0
2023-08-16 12:06:43.037117,-190.0
2023-08-16 12:06:43.044807,-185.0
2023-08-16 12:06:43.052496,-183.0
2023-08-16 12:06:43.060185,-180.0
2023-08-16 12:06:43.067874,-180.0
2023-08-16 12:06:43.075564,-183.0
2023-08-16 12:06:43.083253,-178.0
2023-08-16 12:06:43.090942,-173.0
2023-08-16 12:06:43.098632,-173.0
2023-08-16 12:06:43.106321,-171.0
2023-08-16 12:06:43.114010,-164.0
2023-08-16 12:06:43.121700,-159.0
2023-08-16 12:06:43.129389,-154.0
2023-08-16 12:06:43.137078,-149.0
2023-08-16 12:06:43.144767,-147.0
2023-08-16 12:06:43.152457,-144.0
2023-08-16 12:06:43.160146,-142.0
2023-08-16 12:06:43.167835,-142.0
2023-08-16 12:06:43.175525,-139.0
2023-08-16 12:06:43.183214,-135.0
2023-08-16 12:06:43.190903,-137.0
2023-08-16 12:06:43.198592,-135.0
2023-08-16 12:06:43.206282,-130.0
2023-08-16 12:06:43.213971,-130.0
2023-08-16 12:06:43.221660,-123.0
2023-08-16 12:06:43.229350,-118.0
2023-08-16 12:06:43.237039,-120.0
2023-08-16 12:06:43.244728,-120.0
2023-08-16 12:06:43.252417,-123.0
2023-08-16 12:06:43.260107,-120.0
2023-08-16 12:06:43.267796,-110.0
2023-08-16 12:06:43.275485,-106.0
2023-08-16 12:06:43.283175,-108.0
2023-08-16 12:06:43.290864,-110.0
2023-08-16 12:06:43.298553,-108.0
2023-08-16 12:06:43.306243,-101.0
2023-08-16 12:06:43.313932,-101.0
2023-08-16 12:06:43.321621,-98.0
2023-08-16 12:06:43.329310,-91.0
2023-08-16 12:06:43.337000,-94.0
2023-08-16 12:06:43.344689,-96.0
2023-08-16 12:06:43.352378,-94.0
2023-08-16 12:06:43.360068,-89.0
2023-08-16 12:06:43.367757,-89.0
2023-08-16 12:06:43.375446,-91.0
2023-08-16 12:06:43.383135,-98.0
2023-08-16 12:06:43.390825,-101.0
2023-08-16 12:06:43.398514,-98.0
2023-08-16 12:06:43.406203,-69.0
2023-08-16 12:06:43.413893,-33.0
2023-08-16 12:06:43.421582,-16.0
2023-08-16 12:06:43.429271,-16.0
2023-08-16 12:06:43.436960,-21.0
2023-08-16 12:06:43.444650,-43.0
2023-08-16 12:06:43.452339,-74.0
2023-08-16 12:06:43.460028,-79.0
2023-08-16 12:06:43.467718,-69.0
2023-08-16 12:06:43.475407,-72.0
2023-08-16 12:06:43.483096,-72.0
2023-08-16 12:06:43.490786,-69.0
2023-08-16 12:06:43.498475,-65.0
2023-08-16 12:06:43.506164,-53.0
2023-08-16 12:06:43.513853,0.0
2023-08-16 12:06:43.521543,246.0
2023-08-16 12:06:43.529232,859.0
2023-08-16 12:06:43.536921,1404.0
2023-08-16 12:06:43.544611,1105.0
2023-08-16 12:06:43.552300,144.0
2023-08-16 12:06:43.559989,-431.0
2023-08-16 12:06:43.567678,-255.0
2023-08-16 12:06:43.575368,-19.0
2023-08-16 12:06:43.583057,-113.0
2023-08-16 12:06:43.590746,-161.0
2023-08-16 12:06:43.598436,-89.0
2023-08-16 12:06:43.606125,-101.0
2023-08-16 12:06:43.613814,-125.0
2023-08-16 12:06:43.621503,-89.0
2023-08-16 12:06:43.629193,-67.0
2023-08-16 12:06:43.636882,-67.0
2023-08-16 12:06:43.644571,-48.0
2023-08-16 12:06:43.652261,-28.0
2023-08-16 12:06:43.659950,-21.0
2023-08-16 12:06:43.667639,-7.0
2023-08-16 12:06:43.675329,14.0
2023-08-16 12:06:43.683018,36.0
2023-08-16 12:06:43.690707,57.0
2023-08-16 12:06:43.698396,86.0
2023-08-16 12:06:43.706086,115.0
2023-08-16 12:06:43.713775,152.0
2023-08-16 12:06:43.721464,195.0
2023-08-16 12:06:43.729154,238.0
2023-08-16 12:06:43.736843,284.0
2023-08-16 12:06:43.744532,330.0
2023-08-16 12:06:43.752221,374.0
2023-08-16 12:06:43.759911,405.0
2023-08-16 12:06:43.767600,424.0
2023-08-16 12:06:43.775289,419.0
2023-08-16 12:06:43.782979,390.0
2023-08-16 12:06:43.790668,328.0
2023-08-16 12:06:43.798357,231.0
2023-08-16 12:06:43.806047,110.0
2023-08-16 12:06:43.813736,-19.0
2023-08-16 12:06:43.821425,-135.0
2023-08-16 12:06:43.829114,-219.0
2023-08-16 12:06:43.836804,-277.0
2023-08-16 12:06:43.844493,-313.0
2023-08-16 12:06:43.852182,-332.0
2023-08-16 12:06:43.859872,-337.0
2023-08-16 12:06:43.867561,-332.0
2023-08-16 12:06:43.875250,-330.0
2023-08-16 12:06:43.882939,-330.0
2023-08-16 12:06:43.890629,-320.0
2023-08-16 12:06:43.898318,-308.0
2023-08-16 12:06:43.906007,-301.0
2023-08-16 12:06:43.913697,-296.0
2023-08-16 12:06:43.921386,-282.0
2023-08-16 12:06:43.929075,-265.0
2023-08-16 12:06:43.936764,-255.0
2023-08-16 12:06:43.944454,-248.0
2023-08-16 12:06:43.952143,-234.0
2023-08-16 12:06:43.959832,-224.0
2023-08-16 12:06:43.967522,-219.0
2023-08-16 12:06:43.975211,-212.0
2023-08-16 12:06:43.982900,-207.0
2023-08-16 12:06:43.990590,-205.0
2023-08-16 12:06:43.998279,-197.0
2023-08-16 12:06:44.005968,-190.0
2023-08-16 12:06:44.013657,-188.0
2023-08-16 12:06:44.021347,-185.0
2023-08-16 12:06:44.029036,-180.0
2023-08-16 12:06:44.036725,-176.0
2023-08-16 12:06:44.044415,-173.0
2023-08-16 12:06:44.052104,-168.0
2023-08-16 12:06:44.059793,-166.0
2023-08-16 12:06:44.067482,-164.0
2023-08-16 12:06:44.075172,-159.0
2023-08-16 12:06:44.082861,-154.0
2023-08-16 12:06:44.090550,-149.0
2023-08-16 12:06:44.098240,-147.0
2023-08-16 12:06:44.105929,-144.0
2023-08-16 12:06:44.113618,-142.0
2023-08-16 12:06:44.121307,-139.0
2023-08-16 12:06:44.128997,-137.0
2023-08-16 12:06:44.136686,-132.0
2023-08-16 12:06:44.144375,-125.0
2023-08-16 12:06:44.152065,-123.0
2023-08-16 12:06:44.159754,-123.0
2023-08-16 12:06:44.167443,-120.0
2023-08-16 12:06:44.175133,-120.0
2023-08-16 12:06:44.182822,-123.0
2023-08-16 12:06:44.190511,-120.0
2023-08-16 12:06:44.198200,-118.0
2023-08-16 12:06:44.205890,-118.0
2023-08-16 12:06:44.213579,-115.0
2023-08-16 12:06:44.221268,-108.0
2023-08-16 12:06:44.228958,-110.0
2023-08-16 12:06:44.236647,-118.0
2023-08-16 12:06:44.244336,-123.0
2023-08-16 12:06:44.252025,-118.0
2023-08-16 12:06:44.259715,-113.0
2023-08-16 12:06:44.267404,-110.0
2023-08-16 12:06:44.275093,-106.0
2023-08-16 12:06:44.282783,-103.0
2023-08-16 12:06:44.290472,-106.0
2023-08-16 12:06:44.298161,-103.0
2023-08-16 12:06:44.305850,-98.0
2023-08-16 12:06:44.313540,-96.0
2023-08-16 12:06:44.321229,-96.0
2023-08-16 12:06:44.328918,-94.0
2023-08-16 12:06:44.336608,-91.0
2023-08-16 12:06:44.344297,-89.0
2023-08-16 12:06:44.351986,-86.0
2023-08-16 12:06:44.359676,-82.0
2023-08-16 12:06:44.367365,-79.0
2023-08-16 12:06:44.375054,-79.0
2023-08-16 12:06:44.382743,-79.0
2023-08-16 12:06:44.390433,-77.0
2023-08-16 12:06:44.398122,-74.0
2023-08-16 12:06:44.405811,-74.0
2023-08-16 12:06:44.413501,-77.0
2023-08-16 12:06:44.421190,-82.0
2023-08-16 12:06:44.428879,-89.0
2023-08-16 12:06:44.436568,-94.0
2023-08-16 12:06:44.444258,-86.0
2023-08-16 12:06:44.451947,-60.0
2023-08-16 12:06:44.459636,-21.0
2023-08-16 12:06:44.467326,2.0
2023-08-16 12:06:44.475015,0.0
2023-08-16 12:06:44.482704,-12.0
2023-08-16 12:06:44.490393,-31.0
2023-08-16 12:06:44.498083,-62.0
2023-08-16 12:06:44.505772,-67.0
2023-08-16 12:06:44.513461,-60.0
2023-08-16 12:06:44.521151,-60.0
2023-08-16 12:06:44.528840,-60.0
2023-08-16 12:06:44.536529,-53.0
2023-08-16 12:06:44.544219,-48.0
2023-08-16 12:06:44.551908,-36.0
2023-08-16 12:06:44.559597,19.0
2023-08-16 12:06:44.567286,318.0
2023-08-16 12:06:44.574976,1015.0
2023-08-16 12:06:44.582665,1503.0
2023-08-16 12:06:44.590354,1078.0
2023-08-16 12:06:44.598044,130.0
2023-08-16 12:06:44.605733,-376.0
2023-08-16 12:06:44.613422,-193.0
2023-08-16 12:06:44.621111,-9.0
2023-08-16 12:06:44.628801,-135.0
2023-08-16 12:06:44.636490,-171.0
2023-08-16 12:06:44.644179,-98.0
2023-08-16 12:06:44.651869,-108.0
2023-08-16 12:06:44.659558,-120.0
2023-08-16 12:06:44.667247,-86.0
2023-08-16 12:06:44.674936,-72.0
2023-08-16 12:06:44.682626,-77.0
2023-08-16 12:06:44.690315,-65.0
2023-08-16 12:06:44.698004,-45.0
2023-08-16 12:06:44.705694,-31.0
2023-08-16 12:06:44.713383,-16.0
2023-08-16 12:06:44.721072,-2.0
2023-08-16 12:06:44.728762,16.0
2023-08-16 12:06:44.736451,41.0
2023-08-16 12:06:44.744140,69.0
2023-08-16 12:06:44.751829,98.0
2023-08-16 12:06:44.759519,130.0
2023-08-16 12:06:44.767208,168.0
2023-08-16 12:06:44.774897,207.0
2023-08-16 12:06:44.782587,246.0
2023-08-16 12:06:44.790276,291.0
2023-08-16 12:06:44.797965,335.0
2023-08-16 12:06:44.805654,364.0
2023-08-16 12:06:44.813344,378.0
2023-08-16 12:06:44.821033,376.0
2023-08-16 12:06:44.828722,349.0
2023-08-16 12:06:44.836412,301.0
2023-08-16 12:06:44.844101,224.0
2023-08-16 12:06:44.851790,118.0
2023-08-16 12:06:44.859479,-4.0
2023-08-16 12:06:44.867169,-115.0
2023-08-16 12:06:44.874858,-205.0
2023-08-16 12:06:44.882547,-263.0
2023-08-16 12:06:44.890237,-299.0
2023-08-16 12:06:44.897926,-320.0
2023-08-16 12:06:44.905615,-330.0
2023-08-16 12:06:44.913305,-328.0
2023-08-16 12:06:44.920994,-323.0
2023-08-16 12:06:44.928683,-313.0
2023-08-16 12:06:44.936372,-304.0
2023-08-16 12:06:44.944062,-294.0
2023-08-16 12:06:44.951751,-279.0
2023-08-16 12:06:44.959440,-267.0
2023-08-16 12:06:44.967130,-263.0
2023-08-16 12:06:44.974819,-253.0
2023-08-16 12:06:44.982508,-241.0
2023-08-16 12:06:44.990197,-231.0
2023-08-16 12:06:44.997887,-224.0
2023-08-16 12:06:45.005576,-214.0
2023-08-16 12:06:45.013265,-205.0
2023-08-16 12:06:45.020955,-197.0
2023-08-16 12:06:45.028644,-193.0
2023-08-16 12:06:45.036333,-188.0
2023-08-16 12:06:45.044022,-180.0
2023-08-16 12:06:45.051712,-176.0
2023-08-16 12:06:45.059401,-171.0
2023-08-16 12:06:45.067090,-166.0
2023-08-16 12:06:45.074780,-164.0
2023-08-16 12:06:45.082469,-159.0
2023-08-16 12:06:45.090158,-156.0
2023-08-16 12:06:45.097848,-154.0
2023-08-16 12:06:45.105537,-152.0
2023-08-16 12:06:45.113226,-147.0
2023-08-16 12:06:45.120915,-142.0
2023-08-16 12:06:45.128605,-139.0
2023-08-16 12:06:45.136294,-137.0
2023-08-16 12:06:45.143983,-132.0
2023-08-16 12:06:45.151673,-130.0
2023-08-16 12:06:45.159362,-127.0
2023-08-16 12:06:45.167051,-123.0
2023-08-16 12:06:45.174740,-120.0
2023-08-16 12:06:45.182430,-118.0
2023-08-16 12:06:45.190119,-123.0
2023-08-16 12:06:45.197808,-123.0
2023-08-16 12:06:45.205498,-118.0
2023-08-16 12:06:45.213187,-115.0
2023-08-16 12:06:45.220876,-118.0
2023-08-16 12:06:45.228566,-115.0
2023-08-16 12:06:45.236255,-110.0
2023-08-16 12:06:45.243944,-108.0
2023-08-16 12:06:45.251633,-106.0
2023-08-16 12:06:45.259323,-103.0
2023-08-16 12:06:45.267012,-101.0
2023-08-16 12:06:45.274701,-98.0
2023-08-16 12:06:45.282391,-96.0
2023-08-16 12:06:45.290080,-94.0
2023-08-16 12:06:45.297769,-91.0
2023-08-16 12:06:45.305458,-91.0
2023-08-16 12:06:45.313148,-94.0
2023-08-16 12:06:45.320837,-101.0
2023-08-16 12:06:45.328526,-98.0
2023-08-16 12:06:45.336216,-94.0
2023-08-16 12:06:45.343905,-91.0
2023-08-16 12:06:45.351594,-91.0
2023-08-16 12:06:45.359283,-89.0
2023-08-16 12:06:45.366973,-89.0
2023-08-16 12:06:45.374662,-86.0
2023-08-16 12:06:45.382351,-82.0
2023-08-16 12:06:45.390041,-79.0
2023-08-16 12:06:45.397730,-79.0
2023-08-16 12:06:45.405419,-77.0
2023-08-16 12:06:45.413109,-77.0
2023-08-16 12:06:45.420798,-74.0
2023-08-16 12:06:45.428487,-72.0
2023-08-16 12:06:45.436176,-72.0
2023-08-16 12:06:45.443866,-72.0
2023-08-16 12:06:45.451555,-82.0
2023-08-16 12:06:45.459244,-94.0
2023-08-16 12:06:45.466934,-98.0
2023-08-16 12:06:45.474623,-91.0
2023-08-16 12:06:45.482312,-62.0
2023-08-16 12:06:45.490001,-24.0
2023-08-16 12:06:45.497691,2.0
2023-08-16 12:06:45.505380,2.0
2023-08-16 12:06:45.513069,-4.0
2023-08-16 12:06:45.520759,-24.0
2023-08-16 12:06:45.528448,-60.0
2023-08-16 12:06:45.536137,-69.0
2023-08-16 12:06:45.543826,-62.0
2023-08-16 12:06:45.551516,-60.0
2023-08-16 12:06:45.559205,-57.0
2023-08-16 12:06:45.566894,-50.0
2023-08-16 12:06:45.574584,-48.0
2023-08-16 12:06:45.582273,-38.0
2023-08-16 12:06:45.589962,7.0
2023-08-16 12:06:45.597652,265.0
2023-08-16 12:06:45.605341,926.0
2023-08-16 12:06:45.613030,1500.0
2023-08-16 12:06:45.620719,1201.0
2023-08-16 12:06:45.628409,248.0
2023-08-16 12:06:45.636098,-364.0
2023-08-16 12:06:45.643787,-229.0
2023-08-16 12:06:45.651477,-4.0
2023-08-16 12:06:45.659166,-115.0
2023-08-16 12:06:45.666855,-178.0
2023-08-16 12:06:45.674544,-103.0
2023-08-16 12:06:45.682234,-106.0
2023-08-16 12:06:45.689923,-127.0
2023-08-16 12:06:45.697612,-96.0
2023-08-16 12:06:45.705302,-82.0
2023-08-16 12:06:45.712991,-82.0
2023-08-16 12:06:45.720680,-65.0
2023-08-16 12:06:45.728369,-45.0
2023-08-16 12:06:45.736059,-33.0
2023-08-16 12:06:45.743748,-14.0
2023-08-16 12:06:45.751437,2.0
2023-08-16 12:06:45.759127,19.0
2023-08-16 12:06:45.766816,43.0
2023-08-16 12:06:45.774505,72.0
2023-08-16 12:06:45.782195,101.0
2023-08-16 12:06:45.789884,142.0
2023-08-16 12:06:45.797573,183.0
2023-08-16 12:06:45.805262,221.0
2023-08-16 12:06:45.812952,263.0
2023-08-16 12:06:45.820641,311.0
2023-08-16 12:06:45.828330,354.0
2023-08-16 12:06:45.836020,390.0
2023-08-16 12:06:45.843709,410.0
2023-08-16 12:06:45.851398,407.0
2023-08-16 12:06:45.859087,378.0
2023-08-16 12:06:45.866777,325.0
2023-08-16 12:06:45.874466,246.0
2023-08-16 12:06:45.882155,139.0
2023-08-16 12:06:45.889845,16.0
2023-08-16 12:06:45.897534,-108.0
2023-08-16 12:06:45.905223,-207.0
2023-08-16 12:06:45.912912,-270.0
2023-08-16 12:06:45.920602,-304.0
2023-08-16 12:06:45.928291,-328.0
2023-08-16 12:06:45.935980,-335.0
2023-08-16 12:06:45.943670,-332.0
2023-08-16 12:06:45.951359,-328.0
2023-08-16 12:06:45.959048,-328.0
2023-08-16 12:06:45.966738,-318.0
2023-08-16 12:06:45.974427,-301.0
2023-08-16 12:06:45.982116,-287.0
2023-08-16 12:06:45.989805,-282.0
2023-08-16 12:06:45.997495,-277.0
2023-08-16 12:06:46.005184,-258.0
2023-08-16 12:06:46.012873,-241.0
2023-08-16 12:06:46.020563,-231.0
2023-08-16 12:06:46.028252,-226.0
2023-08-16 12:06:46.035941,-219.0
2023-08-16 12:06:46.043630,-209.0
2023-08-16 12:06:46.051320,-200.0
2023-08-16 12:06:46.059009,-193.0
2023-08-16 12:06:46.066698,-190.0
2023-08-16 12:06:46.074388,-185.0
2023-08-16 12:06:46.082077,-176.0
2023-08-16 12:06:46.089766,-168.0
2023-08-16 12:06:46.097455,-166.0
2023-08-16 12:06:46.105145,-161.0
2023-08-16 12:06:46.112834,-161.0
2023-08-16 12:06:46.120523,-159.0
2023-08-16 12:06:46.128213,-154.0
2023-08-16 12:06:46.135902,-154.0
2023-08-16 12:06:46.143591,-149.0
2023-08-16 12:06:46.151281,-137.0
2023-08-16 12:06:46.158970,-135.0
2023-08-16 12:06:46.166659,-139.0
2023-08-16 12:06:46.174348,-132.0
2023-08-16 12:06:46.182038,-125.0
2023-08-16 12:06:46.189727,-127.0
2023-08-16 12:06:46.197416,-130.0
2023-08-16 12:06:46.205106,-135.0
2023-08-16 12:06:46.212795,-135.0
2023-08-16 12:06:46.220484,-123.0
2023-08-16 12:06:46.228173,-123.0
2023-08-16 12:06:46.235863,-125.0
2023-08-16 12:06:46.243552,-125.0
2023-08-16 12:06:46.251241,-118.0
2023-08-16 12:06:46.258931,-110.0
2023-08-16 12:06:46.266620,-110.0
2023-08-16 12:06:46.274309,-110.0
2023-08-16 12:06:46.281998,-106.0
2023-08-16 12:06:46.289688,-98.0
2023-08-16 12:06:46.297377,-89.0
2023-08-16 12:06:46.305066,-94.0
2023-08-16 12:06:46.312756,-103.0
2023-08-16 12:06:46.320445,-101.0
2023-08-16 12:06:46.328134,-86.0
2023-08-16 12:06:46.335824,-79.0
2023-08-16 12:06:46.343513,-82.0
2023-08-16 12:06:46.351202,-89.0
2023-08-16 12:06:46.358891,-89.0
2023-08-16 12:06:46.366581,-79.0
2023-08-16 12:06:46.374270,-72.0
2023-08-16 12:06:46.381959,-77.0
2023-08-16 12:06:46.389649,-77.0
2023-08-16 12:06:46.397338,-74.0
2023-08-16 12:06:46.405027,-77.0
2023-08-16 12:06:46.412716,-77.0
2023-08-16 12:06:46.420406,-65.0
2023-08-16 12:06:46.428095,-57.0
2023-08-16 12:06:46.435784,-69.0
2023-08-16 12:06:46.443474,-82.0
2023-08-16 12:06:46.451163,-86.0
2023-08-16 12:06:46.458852,-89.0
2023-08-16 12:06:46.466542,-84.0
2023-08-16 12:06:46.474231,-57.0
2023-08-16 12:06:46.481920,-24.0
2023-08-16 12:06:46.489609,-4.0
2023-08-16 12:06:46.497299,-4.0
2023-08-16 12:06:46.504988,-16.0
2023-08-16 12:06:46.512677,-43.0
2023-08-16 12:06:46.520367,-72.0
2023-08-16 12:06:46.528056,-74.0
2023-08-16 12:06:46.535745,-62.0
2023-08-16 12:06:46.543434,-62.0
2023-08-16 12:06:46.551124,-62.0
2023-08-16 12:06:46.558813,-55.0
2023-08-16 12:06:46.566502,-45.0
2023-08-16 12:06:46.574192,-33.0
2023-08-16 12:06:46.581881,50.0
2023-08-16 12:06:46.589570,415.0
2023-08-16 12:06:46.597259,1107.0
2023-08-16 12:06:46.604949,1474.0
2023-08-16 12:06:46.612638,904.0
2023-08-16 12:06:46.620327,-69.0
2023-08-16 12:06:46.628017,-441.0
2023-08-16 12:06:46.635706,-154.0
2023-08-16 12:06:46.643395,-9.0
2023-08-16 12:06:46.651085,-144.0
2023-08-16 12:06:46.658774,-137.0
2023-08-16 12:06:46.666463,-74.0
2023-08-16 12:06:46.674152,-103.0
2023-08-16 12:06:46.681842,-101.0
2023-08-16 12:06:46.689531,-62.0
2023-08-16 12:06:46.697220,-55.0
2023-08-16 12:06:46.704910,-50.0
2023-08-16 12:06:46.712599,-31.0
2023-08-16 12:06:46.720288,-21.0
2023-08-16 12:06:46.727977,-9.0
2023-08-16 12:06:46.735667,12.0
2023-08-16 12:06:46.743356,36.0
2023-08-16 12:06:46.751045,62.0
2023-08-16 12:06:46.758735,89.0
2023-08-16 12:06:46.766424,113.0
2023-08-16 12:06:46.774113,152.0
2023-08-16 12:06:46.781802,193.0
2023-08-16 12:06:46.789492,229.0
2023-08-16 12:06:46.797181,270.0
2023-08-16 12:06:46.804870,332.0
2023-08-16 12:06:46.812560,388.0
2023-08-16 12:06:46.820249,424.0
2023-08-16 12:06:46.827938,458.0
2023-08-16 12:06:46.835628,484.0
2023-08-16 12:06:46.843317,470.0
2023-08-16 12:06:46.851006,429.0
2023-08-16 12:06:46.858695,359.0
2023-08-16 12:06:46.866385,250.0
2023-08-16 12:06:46.874074,110.0
2023-08-16 12:06:46.881763,-31.0
2023-08-16 12:06:46.889453,-147.0
2023-08-16 12:06:46.897142,-229.0
2023-08-16 12:06:46.904831,-282.0
2023-08-16 12:06:46.912520,-318.0
2023-08-16 12:06:46.920210,-337.0
2023-08-16 12:06:46.927899,-342.0
2023-08-16 12:06:46.935588,-342.0
2023-08-16 12:06:46.943278,-340.0
2023-08-16 12:06:46.950967,-325.0
2023-08-16 12:06:46.958656,-311.0
2023-08-16 12:06:46.966345,-313.0
2023-08-16 12:06:46.974035,-311.0
2023-08-16 12:06:46.981724,-299.0
2023-08-16 12:06:46.989413,-287.0
2023-08-16 12:06:46.997103,-272.0
2023-08-16 12:06:47.004792,-265.0
2023-08-16 12:06:47.012481,-267.0
2023-08-16 12:06:47.020171,-255.0
2023-08-16 12:06:47.027860,-238.0
2023-08-16 12:06:47.035549,-234.0
2023-08-16 12:06:47.043238,-234.0
2023-08-16 12:06:47.050928,-229.0
2023-08-16 12:06:47.058617,-219.0
2023-08-16 12:06:47.066306,-214.0
2023-08-16 12:06:47.073996,-209.0
2023-08-16 12:06:47.081685,-205.0
2023-08-16 12:06:47.089374,-202.0
2023-08-16 12:06:47.097063,-197.0
2023-08-16 12:06:47.104753,-193.0
2023-08-16 12:06:47.112442,-190.0
2023-08-16 12:06:47.120131,-193.0
2023-08-16 12:06:47.127821,-190.0
2023-08-16 12:06:47.135510,-180.0
2023-08-16 12:06:47.143199,-178.0
2023-08-16 12:06:47.150888,-178.0
2023-08-16 12:06:47.158578,-173.0
2023-08-16 12:06:47.166267,-171.0
2023-08-16 12:06:47.173956,-168.0
2023-08-16 12:06:47.181646,-161.0
2023-08-16 12:06:47.189335,-156.0
2023-08-16 12:06:47.197024,-159.0
2023-08-16 12:06:47.204714,-159.0
2023-08-16 12:06:47.212403,-159.0
2023-08-16 12:06:47.220092,-156.0
2023-08-16 12:06:47.227781,-154.0
2023-08-16 12:06:47.235471,-152.0
2023-08-16 12:06:47.243160,-149.0
2023-08-16 12:06:47.250849,-149.0
2023-08-16 12:06:47.258539,-144.0
2023-08-16 12:06:47.266228,-137.0
2023-08-16 12:06:47.273917,-132.0
2023-08-16 12:06:47.281606,-130.0
2023-08-16 12:06:47.289296,-132.0
2023-08-16 12:06:47.296985,-130.0
2023-08-16 12:06:47.304674,-125.0
2023-08-16 12:06:47.312364,-125.0
2023-08-16 12:06:47.320053,-120.0
2023-08-16 12:06:47.327742,-115.0
2023-08-16 12:06:47.335431,-120.0
2023-08-16 12:06:47.343121,-127.0
2023-08-16 12:06:47.350810,-132.0
2023-08-16 12:06:47.358499,-127.0
2023-08-16 12:06:47.366189,-101.0
2023-08-16 12:06:47.373878,-62.0
2023-08-16 12:06:47.381567,-36.0
2023-08-16 12:06:47.389257,-33.0
2023-08-16 12:06:47.396946,-43.0
2023-08-16 12:06:47.404635,-65.0
2023-08-16 12:06:47.412324,-91.0
2023-08-16 12:06:47.420014,-101.0
2023-08-16 12:06:47.427703,-96.0
2023-08-16 12:06:47.435392,-96.0
2023-08-16 12:06:47.443082,-94.0
2023-08-16 12:06:47.450771,-86.0
2023-08-16 12:06:47.458460,-82.0
2023-08-16 12:06:47.466149,-69.0
2023-08-16 12:06:47.473839,-14.0
2023-08-16 12:06:47.481528,234.0
2023-08-16 12:06:47.489217,846.0
2023-08-16 12:06:47.496907,1401.0
2023-08-16 12:06:47.504596,1105.0
2023-08-16 12:06:47.512285,132.0
2023-08-16 12:06:47.519974,-456.0
2023-08-16 12:06:47.527664,-272.0
2023-08-16 12:06:47.535353,-31.0
2023-08-16 12:06:47.543042,-127.0
2023-08-16 12:06:47.550732,-178.0
2023-08-16 12:06:47.558421,-101.0
2023-08-16 12:06:47.566110,-108.0
2023-08-16 12:06:47.573800,-132.0
2023-08-16 12:06:47.581489,-96.0
2023-08-16 12:06:47.589178,-72.0
2023-08-16 12:06:47.596867,-69.0
2023-08-16 12:06:47.604557,-53.0
2023-08-16 12:06:47.612246,-43.0
2023-08-16 12:06:47.619935,-41.0
2023-08-16 12:06:47.627625,-19.0
2023-08-16 12:06:47.635314,7.0
2023-08-16 12:06:47.643003,26.0
2023-08-16 12:06:47.650692,50.0
2023-08-16 12:06:47.658382,79.0
2023-08-16 12:06:47.666071,108.0
2023-08-16 12:06:47.673760,139.0
2023-08-16 12:06:47.681450,183.0
2023-08-16 12:06:47.689139,234.0
2023-08-16 12:06:47.696828,282.0
2023-08-16 12:06:47.704517,330.0
2023-08-16 12:06:47.712207,374.0
2023-08-16 12:06:47.719896,407.0
2023-08-16 12:06:47.727585,419.0
2023-08-16 12:06:47.735275,407.0
2023-08-16 12:06:47.742964,376.0
2023-08-16 12:06:47.750653,311.0
2023-08-16 12:06:47.758343,207.0
2023-08-16 12:06:47.766032,79.0
2023-08-16 12:06:47.773721,-45.0
2023-08-16 12:06:47.781410,-156.0
2023-08-16 12:06:47.789100,-238.0
2023-08-16 12:06:47.796789,-294.0
2023-08-16 12:06:47.804478,-323.0
2023-08-16 12:06:47.812168,-340.0
2023-08-16 12:06:47.819857,-349.0
2023-08-16 12:06:47.827546,-347.0
2023-08-16 12:06:47.835235,-337.0
2023-08-16 12:06:47.842925,-332.0
2023-08-16 12:06:47.850614,-325.0
2023-08-16 12:06:47.858303,-313.0
2023-08-16 12:06:47.865993,-301.0
2023-08-16 12:06:47.873682,-289.0
2023-08-16 12:06:47.881371,-279.0
2023-08-16 12:06:47.889061,-270.0
2023-08-16 12:06:47.896750,-258.0
2023-08-16 12:06:47.904439,-243.0
2023-08-16 12:06:47.912128,-231.0
2023-08-16 12:06:47.919818,-224.0
2023-08-16 12:06:47.927507,-219.0
2023-08-16 12:06:47.935196,-214.0
2023-08-16 12:06:47.942886,-209.0
2023-08-16 12:06:47.950575,-205.0
2023-08-16 12:06:47.958264,-200.0
2023-08-16 12:06:47.965953,-200.0
2023-08-16 12:06:47.973643,-200.0
2023-08-16 12:06:47.981332,-195.0
2023-08-16 12:06:47.989021,-195.0
2023-08-16 12:06:47.996711,-193.0
2023-08-16 12:06:48.004400,-185.0
2023-08-16 12:06:48.012089,-183.0
2023-08-16 12:06:48.019778,-183.0
2023-08-16 12:06:48.027468,-180.0
2023-08-16 12:06:48.035157,-178.0
2023-08-16 12:06:48.042846,-173.0
2023-08-16 12:06:48.050536,-166.0
2023-08-16 12:06:48.058225,-159.0
2023-08-16 12:06:48.065914,-156.0
2023-08-16 12:06:48.073604,-159.0
2023-08-16 12:06:48.081293,-159.0
2023-08-16 12:06:48.088982,-154.0
2023-08-16 12:06:48.096671,-149.0
2023-08-16 12:06:48.104361,-147.0
2023-08-16 12:06:48.112050,-144.0
2023-08-16 12:06:48.119739,-139.0
2023-08-16 12:06:48.127429,-137.0
2023-08-16 12:06:48.135118,-135.0
2023-08-16 12:06:48.142807,-130.0
2023-08-16 12:06:48.150496,-130.0
2023-08-16 12:06:48.158186,-137.0
2023-08-16 12:06:48.165875,-139.0
2023-08-16 12:06:48.173564,-137.0
2023-08-16 12:06:48.181254,-130.0
2023-08-16 12:06:48.188943,-125.0
2023-08-16 12:06:48.196632,-125.0
2023-08-16 12:06:48.204321,-125.0
2023-08-16 12:06:48.212011,-123.0
2023-08-16 12:06:48.219700,-118.0
2023-08-16 12:06:48.227389,-115.0
2023-08-16 12:06:48.235079,-115.0
2023-08-16 12:06:48.242768,-120.0
2023-08-16 12:06:48.250457,-118.0
2023-08-16 12:06:48.258147,-110.0
2023-08-16 12:06:48.265836,-108.0
2023-08-16 12:06:48.273525,-106.0
2023-08-16 12:06:48.281214,-103.0
2023-08-16 12:06:48.288904,-101.0
2023-08-16 12:06:48.296593,-98.0
2023-08-16 12:06:48.304282,-96.0
2023-08-16 12:06:48.311972,-96.0
2023-08-16 12:06:48.319661,-96.0
2023-08-16 12:06:48.327350,-101.0
2023-08-16 12:06:48.335039,-110.0
2023-08-16 12:06:48.342729,-115.0
2023-08-16 12:06:48.350418,-108.0
2023-08-16 12:06:48.358107,-77.0
2023-08-16 12:06:48.365797,-31.0
2023-08-16 12:06:48.373486,-7.0
2023-08-16 12:06:48.381175,-14.0
2023-08-16 12:06:48.388864,-24.0
2023-08-16 12:06:48.396554,-45.0
2023-08-16 12:06:48.404243,-77.0
2023-08-16 12:06:48.411932,-82.0
2023-08-16 12:06:48.419622,-74.0
2023-08-16 12:06:48.427311,-74.0
2023-08-16 12:06:48.435000,-69.0
2023-08-16 12:06:48.442690,-65.0
2023-08-16 12:06:48.450379,-62.0
2023-08-16 12:06:48.458068,-48.0
2023-08-16 12:06:48.465757,28.0
2023-08-16 12:06:48.473447,381.0
2023-08-16 12:06:48.481136,1114.0
2023-08-16 12:06:48.488825,1522.0
2023-08-16 12:06:48.496515,974.0
2023-08-16 12:06:48.504204,16.0
2023-08-16 12:06:48.511893,-400.0
2023-08-16 12:06:48.519582,-164.0
2023-08-16 12:06:48.527272,-21.0
2023-08-16 12:06:48.534961,-166.0
2023-08-16 12:06:48.542650,-176.0
2023-08-16 12:06:48.550340,-103.0
2023-08-16 12:06:48.558029,-125.0
2023-08-16 12:06:48.565718,-130.0
2023-08-16 12:06:48.573407,-89.0
2023-08-16 12:06:48.581097,-77.0
2023-08-16 12:06:48.588786,-77.0
2023-08-16 12:06:48.596475,-55.0
2023-08-16 12:06:48.604165,-36.0
2023-08-16 12:06:48.611854,-26.0
2023-08-16 12:06:48.619543,-7.0
2023-08-16 12:06:48.627233,12.0
2023-08-16 12:06:48.634922,31.0
2023-08-16 12:06:48.642611,55.0
2023-08-16 12:06:48.650300,82.0
2023-08-16 12:06:48.657990,110.0
2023-08-16 12:06:48.665679,144.0
2023-08-16 12:06:48.673368,185.0
2023-08-16 12:06:48.681058,226.0
2023-08-16 12:06:48.688747,272.0
2023-08-16 12:06:48.696436,318.0
2023-08-16 12:06:48.704125,357.0
2023-08-16 12:06:48.711815,386.0
2023-08-16 12:06:48.719504,400.0
2023-08-16 12:06:48.727193,390.0
2023-08-16 12:06:48.734883,359.0
2023-08-16 12:06:48.742572,299.0
2023-08-16 12:06:48.750261,212.0
2023-08-16 12:06:48.757950,101.0
2023-08-16 12:06:48.765640,-19.0
2023-08-16 12:06:48.773329,-127.0
2023-08-16 12:06:48.781018,-212.0
2023-08-16 12:06:48.788708,-270.0
2023-08-16 12:06:48.796397,-304.0
2023-08-16 12:06:48.804086,-316.0
2023-08-16 12:06:48.811776,-320.0
2023-08-16 12:06:48.819465,-320.0
2023-08-16 12:06:48.827154,-313.0
2023-08-16 12:06:48.834843,-304.0
2023-08-16 12:06:48.842533,-291.0
2023-08-16 12:06:48.850222,-282.0
2023-08-16 12:06:48.857911,-275.0
2023-08-16 12:06:48.865601,-265.0
2023-08-16 12:06:48.873290,-255.0
2023-08-16 12:06:48.880979,-243.0
2023-08-16 12:06:48.888668,-234.0
2023-08-16 12:06:48.896358,-224.0
2023-08-16 12:06:48.904047,-219.0
2023-08-16 12:06:48.911736,-214.0
2023-08-16 12:06:48.919426,-207.0
2023-08-16 12:06:48.927115,-197.0
2023-08-16 12:06:48.934804,-190.0
2023-08-16 12:06:48.942493,-185.0
2023-08-16 12:06:48.950183,-180.0
2023-08-16 12:06:48.957872,-176.0
2023-08-16 12:06:48.965561,-176.0
2023-08-16 12:06:48.973251,-171.0
2023-08-16 12:06:48.980940,-166.0
2023-08-16 12:06:48.988629,-166.0
2023-08-16 12:06:48.996319,-166.0
2023-08-16 12:06:49.004008,-166.0
2023-08-16 12:06:49.011697,-166.0
2023-08-16 12:06:49.019386,-164.0
2023-08-16 12:06:49.027076,-159.0
2023-08-16 12:06:49.034765,-156.0
2023-08-16 12:06:49.042454,-154.0
2023-08-16 12:06:49.050144,-154.0
2023-08-16 12:06:49.057833,-152.0
2023-08-16 12:06:49.065522,-147.0
2023-08-16 12:06:49.073211,-142.0
2023-08-16 12:06:49.080901,-139.0
2023-08-16 12:06:49.088590,-137.0
2023-08-16 12:06:49.096279,-137.0
2023-08-16 12:06:49.103969,-137.0
2023-08-16 12:06:49.111658,-132.0
2023-08-16 12:06:49.119347,-127.0
2023-08-16 12:06:49.127036,-125.0
2023-08-16 12:06:49.134726,-123.0
2023-08-16 12:06:49.142415,-120.0
2023-08-16 12:06:49.150104,-120.0
2023-08-16 12:06:49.157794,-120.0
2023-08-16 12:06:49.165483,-118.0
2023-08-16 12:06:49.173172,-113.0
2023-08-16 12:06:49.180862,-110.0
2023-08-16 12:06:49.188551,-110.0
2023-08-16 12:06:49.196240,-108.0
2023-08-16 12:06:49.203929,-103.0
2023-08-16 12:06:49.211619,-98.0
2023-08-16 12:06:49.219308,-94.0
2023-08-16 12:06:49.226997,-98.0
2023-08-16 12:06:49.234687,-106.0
2023-08-16 12:06:49.242376,-108.0
2023-08-16 12:06:49.250065,-108.0
2023-08-16 12:06:49.257754,-106.0
2023-08-16 12:06:49.265444,-101.0
2023-08-16 12:06:49.273133,-103.0
2023-08-16 12:06:49.280822,-113.0
2023-08-16 12:06:49.288512,-113.0
2023-08-16 12:06:49.296201,-101.0
2023-08-16 12:06:49.303890,-98.0
2023-08-16 12:06:49.311580,-96.0
2023-08-16 12:06:49.319269,-98.0
2023-08-16 12:06:49.326958,-106.0
2023-08-16 12:06:49.334647,-110.0
2023-08-16 12:06:49.342337,-113.0
2023-08-16 12:06:49.350026,-115.0
2023-08-16 12:06:49.357715,-103.0
2023-08-16 12:06:49.365405,-69.0
2023-08-16 12:06:49.373094,-28.0
2023-08-16 12:06:49.380783,-12.0
2023-08-16 12:06:49.388472,-16.0
2023-08-16 12:06:49.396162,-31.0
2023-08-16 12:06:49.403851,-60.0
2023-08-16 12:06:49.411540,-91.0
2023-08-16 12:06:49.419230,-89.0
2023-08-16 12:06:49.426919,-77.0
2023-08-16 12:06:49.434608,-74.0
2023-08-16 12:06:49.442297,-69.0
2023-08-16 12:06:49.449987,-67.0
2023-08-16 12:06:49.457676,-65.0
2023-08-16 12:06:49.465365,-43.0
2023-08-16 12:06:49.473055,55.0
2023-08-16 12:06:49.480744,448.0
2023-08-16 12:06:49.488433,1194.0
2023-08-16 12:06:49.496123,1539.0
2023-08-16 12:06:49.503812,926.0
2023-08-16 12:06:49.511501,-31.0
2023-08-16 12:06:49.519190,-400.0
2023-08-16 12:06:49.526880,-137.0
2023-08-16 12:06:49.534569,-21.0
2023-08-16 12:06:49.542258,-180.0
2023-08-16 12:06:49.549948,-171.0
2023-08-16 12:06:49.557637,-101.0
2023-08-16 12:06:49.565326,-130.0
2023-08-16 12:06:49.573015,-125.0
2023-08-16 12:06:49.580705,-79.0
2023-08-16 12:06:49.588394,-72.0
2023-08-16 12:06:49.596083,-74.0
2023-08-16 12:06:49.603773,-53.0
2023-08-16 12:06:49.611462,-31.0
2023-08-16 12:06:49.619151,-21.0
2023-08-16 12:06:49.626840,2.0
2023-08-16 12:06:49.634530,33.0
2023-08-16 12:06:49.642219,50.0
2023-08-16 12:06:49.649908,67.0
2023-08-16 12:06:49.657598,96.0
2023-08-16 12:06:49.665287,127.0
2023-08-16 12:06:49.672976,166.0
2023-08-16 12:06:49.680666,212.0
2023-08-16 12:06:49.688355,258.0
2023-08-16 12:06:49.696044,296.0
2023-08-16 12:06:49.703733,335.0
2023-08-16 12:06:49.711423,376.0
2023-08-16 12:06:49.719112,405.0
2023-08-16 12:06:49.726801,415.0
2023-08-16 12:06:49.734491,407.0
2023-08-16 12:06:49.742180,378.0
2023-08-16 12:06:49.749869,316.0
2023-08-16 12:06:49.757558,221.0
2023-08-16 12:06:49.765248,108.0
2023-08-16 12:06:49.772937,-16.0
2023-08-16 12:06:49.780626,-127.0
2023-08-16 12:06:49.788316,-202.0
2023-08-16 12:06:49.796005,-246.0
2023-08-16 12:06:49.803694,-279.0
2023-08-16 12:06:49.811383,-304.0
2023-08-16 12:06:49.819073,-318.0
2023-08-16 12:06:49.826762,-316.0
2023-08-16 12:06:49.834451,-301.0
2023-08-16 12:06:49.842141,-294.0
2023-08-16 12:06:49.849830,-287.0
2023-08-16 12:06:49.857519,-275.0
2023-08-16 12:06:49.865209,-263.0
2023-08-16 12:06:49.872898,-250.0
2023-08-16 12:06:49.880587,-238.0
2023-08-16 12:06:49.888276,-229.0
2023-08-16 12:06:49.895966,-226.0
2023-08-16 12:06:49.903655,-221.0
2023-08-16 12:06:49.911344,-209.0
2023-08-16 12:06:49.919034,-207.0
2023-08-16 12:06:49.926723,-200.0
2023-08-16 12:06:49.934412,-190.0
2023-08-16 12:06:49.942101,-180.0
2023-08-16 12:06:49.949791,-176.0
2023-08-16 12:06:49.957480,-171.0
2023-08-16 12:06:49.965169,-168.0
2023-08-16 12:06:49.972859,-168.0
2023-08-16 12:06:49.980548,-164.0
2023-08-16 12:06:49.988237,-159.0
2023-08-16 12:06:49.995926,-154.0
2023-08-16 12:06:50.003616,-147.0
2023-08-16 12:06:50.011305,-144.0
2023-08-16 12:06:50.018994,-144.0
2023-08-16 12:06:50.026684,-139.0
2023-08-16 12:06:50.034373,-137.0
2023-08-16 12:06:50.042062,-142.0
2023-08-16 12:06:50.049752,-144.0
2023-08-16 12:06:50.057441,-142.0
2023-08-16 12:06:50.065130,-132.0
2023-08-16 12:06:50.072819,-120.0
2023-08-16 12:06:50.080509,-125.0
2023-08-16 12:06:50.088198,-130.0
2023-08-16 12:06:50.095887,-123.0
2023-08-16 12:06:50.103577,-120.0
2023-08-16 12:06:50.111266,-123.0
2023-08-16 12:06:50.118955,-120.0
2023-08-16 12:06:50.126644,-120.0
2023-08-16 12:06:50.134334,-115.0
2023-08-16 12:06:50.142023,-108.0
2023-08-16 12:06:50.149712,-103.0
2023-08-16 12:06:50.157402,-108.0
2023-08-16 12:06:50.165091,-106.0
2023-08-16 12:06:50.172780,-106.0
2023-08-16 12:06:50.180469,-103.0
2023-08-16 12:06:50.188159,-96.0
2023-08-16 12:06:50.195848,-91.0
2023-08-16 12:06:50.203537,-98.0
2023-08-16 12:06:50.211227,-98.0
2023-08-16 12:06:50.218916,-91.0
2023-08-16 12:06:50.226605,-86.0
2023-08-16 12:06:50.234295,-84.0
2023-08-16 12:06:50.241984,-82.0
2023-08-16 12:06:50.249673,-79.0
2023-08-16 12:06:50.257362,-82.0
2023-08-16 12:06:50.265052,-89.0
2023-08-16 12:06:50.272741,-89.0
2023-08-16 12:06:50.280430,-82.0
2023-08-16 12:06:50.288120,-79.0
2023-08-16 12:06:50.295809,-82.0
2023-08-16 12:06:50.303498,-74.0
2023-08-16 12:06:50.311187,-74.0
2023-08-16 12:06:50.318877,-77.0
2023-08-16 12:06:50.326566,-74.0
2023-08-16 12:06:50.334255,-74.0
2023-08-16 12:06:50.341945,-82.0
2023-08-16 12:06:50.349634,-89.0
2023-08-16 12:06:50.357323,-96.0
2023-08-16 12:06:50.365012,-84.0
2023-08-16 12:06:50.372702,-53.0
2023-08-16 12:06:50.380391,-26.0
2023-08-16 12:06:50.388080,-16.0
2023-08-16 12:06:50.395770,-14.0
2023-08-16 12:06:50.403459,-28.0
2023-08-16 12:06:50.411148,-62.0
2023-08-16 12:06:50.418838,-82.0
2023-08-16 12:06:50.426527,-74.0
2023-08-16 12:06:50.434216,-69.0
2023-08-16 12:06:50.441905,-62.0
2023-08-16 12:06:50.449595,-55.0
2023-08-16 12:06:50.457284,-55.0
2023-08-16 12:06:50.464973,-48.0
2023-08-16 12:06:50.472663,-4.0
2023-08-16 12:06:50.480352,190.0
2023-08-16 12:06:50.488041,752.0
2023-08-16 12:06:50.495730,1406.0
2023-08-16 12:06:50.503420,1288.0
2023-08-16 12:06:50.511109,337.0
2023-08-16 12:06:50.518798,-383.0
2023-08-16 12:06:50.526488,-313.0
2023-08-16 12:06:50.534177,-31.0
2023-08-16 12:06:50.541866,-77.0
2023-08-16 12:06:50.549555,-159.0
2023-08-16 12:06:50.557245,-91.0
2023-08-16 12:06:50.564934,-84.0
2023-08-16 12:06:50.572623,-108.0
2023-08-16 12:06:50.580313,-77.0
2023-08-16 12:06:50.588002,-50.0
2023-08-16 12:06:50.595691,-48.0
2023-08-16 12:06:50.603381,-31.0
2023-08-16 12:06:50.611070,-12.0
2023-08-16 12:06:50.618759,0.0
2023-08-16 12:06:50.626448,14.0
2023-08-16 12:06:50.634138,31.0
2023-08-16 12:06:50.641827,48.0
2023-08-16 12:06:50.649516,82.0
2023-08-16 12:06:50.657206,113.0
2023-08-16 12:06:50.664895,135.0
2023-08-16 12:06:50.672584,166.0
2023-08-16 12:06:50.680273,214.0
2023-08-16 12:06:50.687963,258.0
2023-08-16 12:06:50.695652,296.0
2023-08-16 12:06:50.703341,342.0
2023-08-16 12:06:50.711031,393.0
2023-08-16 12:06:50.718720,429.0
2023-08-16 12:06:50.726409,446.0
2023-08-16 12:06:50.734099,448.0
2023-08-16 12:06:50.741788,436.0
2023-08-16 12:06:50.749477,386.0
2023-08-16 12:06:50.757166,294.0
2023-08-16 12:06:50.764856,173.0
2023-08-16 12:06:50.772545,38.0
2023-08-16 12:06:50.780234,-89.0
2023-08-16 12:06:50.787924,-185.0
2023-08-16 12:06:50.795613,-253.0
2023-08-16 12:06:50.803302,-296.0
2023-08-16 12:06:50.810991,-323.0
2023-08-16 12:06:50.818681,-330.0
2023-08-16 12:06:50.826370,-330.0
2023-08-16 12:06:50.834059,-328.0
2023-08-16 12:06:50.841749,-323.0
2023-08-16 12:06:50.849438,-316.0
2023-08-16 12:06:50.857127,-306.0
2023-08-16 12:06:50.864816,-294.0
2023-08-16 12:06:50.872506,-284.0
2023-08-16 12:06:50.880195,-282.0
2023-08-16 12:06:50.887884,-270.0
2023-08-16 12:06:50.895574,-255.0
2023-08-16 12:06:50.903263,-243.0
2023-08-16 12:06:50.910952,-234.0
2023-08-16 12:06:50.918642,-226.0
2023-08-16 12:06:50.926331,-217.0
2023-08-16 12:06:50.934020,-207.0
2023-08-16 12:06:50.941709,-214.0
2023-08-16 12:06:50.949399,-221.0
2023-08-16 12:06:50.957088,-209.0
2023-08-16 12:06:50.964777,-197.0
2023-08-16 12:06:50.972467,-195.0
2023-08-16 12:06:50.980156,-195.0
2023-08-16 12:06:50.987845,-193.0
2023-08-16 12:06:50.995534,-190.0
2023-08-16 12:06:51.003224,-185.0
2023-08-16 12:06:51.010913,-188.0
2023-08-16 12:06:51.018602,-183.0
2023-08-16 12:06:51.026292,-180.0
2023-08-16 12:06:51.033981,-183.0
2023-08-16 12:06:51.041670,-180.0
2023-08-16 12:06:51.049359,-176.0
2023-08-16 12:06:51.057049,-173.0
2023-08-16 12:06:51.064738,-168.0
2023-08-16 12:06:51.072427,-168.0
2023-08-16 12:06:51.080117,-168.0
2023-08-16 12:06:51.087806,-161.0
2023-08-16 12:06:51.095495,-152.0
2023-08-16 12:06:51.103185,-149.0
2023-08-16 12:06:51.110874,-147.0
2023-08-16 12:06:51.118563,-149.0
2023-08-16 12:06:51.126252,-149.0
2023-08-16 12:06:51.133942,-144.0
2023-08-16 12:06:51.141631,-139.0
2023-08-16 12:06:51.149320,-137.0
2023-08-16 12:06:51.157010,-135.0
2023-08-16 12:06:51.164699,-132.0
2023-08-16 12:06:51.172388,-127.0
2023-08-16 12:06:51.180077,-120.0
2023-08-16 12:06:51.187767,-115.0
2023-08-16 12:06:51.195456,-118.0
2023-08-16 12:06:51.203145,-118.0
2023-08-16 12:06:51.210835,-113.0
2023-08-16 12:06:51.218524,-113.0
2023-08-16 12:06:51.226213,-113.0
2023-08-16 12:06:51.233902,-106.0
2023-08-16 12:06:51.241592,-103.0
2023-08-16 12:06:51.249281,-108.0
2023-08-16 12:06:51.256970,-108.0
2023-08-16 12:06:51.264660,-106.0
2023-08-16 12:06:51.272349,-108.0
2023-08-16 12:06:51.280038,-113.0
2023-08-16 12:06:51.287728,-110.0
2023-08-16 12:06:51.295417,-113.0
2023-08-16 12:06:51.303106,-123.0
2023-08-16 12:06:51.310795,-125.0
2023-08-16 12:06:51.318485,-108.0
2023-08-16 12:06:51.326174,-74.0
2023-08-16 12:06:51.333863,-36.0
2023-08-16 12:06:51.341553,-19.0
2023-08-16 12:06:51.349242,-28.0
2023-08-16 12:06:51.356931,-45.0
2023-08-16 12:06:51.364620,-77.0
2023-08-16 12:06:51.372310,-98.0
2023-08-16 12:06:51.379999,-94.0
2023-08-16 12:06:51.387688,-86.0
2023-08-16 12:06:51.395378,-89.0
2023-08-16 12:06:51.403067,-84.0
2023-08-16 12:06:51.410756,-77.0
2023-08-16 12:06:51.418445,-69.0
2023-08-16 12:06:51.426135,-43.0
2023-08-16 12:06:51.433824,108.0
2023-08-16 12:06:51.441513,612.0
2023-08-16 12:06:51.449203,1324.0
2023-08-16 12:06:51.456892,1389.0
2023-08-16 12:06:51.464581,550.0
2023-08-16 12:06:51.472271,-284.0
2023-08-16 12:06:51.479960,-374.0
2023-08-16 12:06:51.487649,-79.0
2023-08-16 12:06:51.495338,-72.0
2023-08-16 12:06:51.503028,-195.0
2023-08-16 12:06:51.510717,-142.0
2023-08-16 12:06:51.518406,-106.0
2023-08-16 12:06:51.526096,-142.0
2023-08-16 12:06:51.533785,-132.0
2023-08-16 12:06:51.541474,-101.0
2023-08-16 12:06:51.549163,-94.0
2023-08-16 12:06:51.556853,-82.0
2023-08-16 12:06:51.564542,-60.0
2023-08-16 12:06:51.572231,-45.0
2023-08-16 12:06:51.579921,-33.0
2023-08-16 12:06:51.587610,-12.0
2023-08-16 12:06:51.595299,9.0
2023-08-16 12:06:51.602988,31.0
2023-08-16 12:06:51.610678,55.0
2023-08-16 12:06:51.618367,84.0
2023-08-16 12:06:51.626056,115.0
2023-08-16 12:06:51.633746,154.0
2023-08-16 12:06:51.641435,195.0
2023-08-16 12:06:51.649124,238.0
2023-08-16 12:06:51.656814,284.0
2023-08-16 12:06:51.664503,325.0
2023-08-16 12:06:51.672192,361.0
2023-08-16 12:06:51.679881,386.0
2023-08-16 12:06:51.687571,390.0
2023-08-16 12:06:51.695260,376.0
2023-08-16 12:06:51.702949,335.0
2023-08-16 12:06:51.710639,265.0
2023-08-16 12:06:51.718328,164.0
2023-08-16 12:06:51.726017,41.0
2023-08-16 12:06:51.733706,-74.0
2023-08-16 12:06:51.741396,-168.0
2023-08-16 12:06:51.749085,-236.0
2023-08-16 12:06:51.756774,-277.0
2023-08-16 12:06:51.764464,-301.0
2023-08-16 12:06:51.772153,-316.0
2023-08-16 12:06:51.779842,-325.0
2023-08-16 12:06:51.787531,-325.0
2023-08-16 12:06:51.795221,-316.0
2023-08-16 12:06:51.802910,-308.0
2023-08-16 12:06:51.810599,-299.0
2023-08-16 12:06:51.818289,-289.0
2023-08-16 12:06:51.825978,-275.0
2023-08-16 12:06:51.833667,-263.0
2023-08-16 12:06:51.841357,-253.0
2023-08-16 12:06:51.849046,-243.0
2023-08-16 12:06:51.856735,-234.0
2023-08-16 12:06:51.864424,-226.0
2023-08-16 12:06:51.872114,-217.0
2023-08-16 12:06:51.879803,-207.0
2023-08-16 12:06:51.887492,-202.0
2023-08-16 12:06:51.895182,-200.0
2023-08-16 12:06:51.902871,-195.0
2023-08-16 12:06:51.910560,-193.0
2023-08-16 12:06:51.918249,-190.0
2023-08-16 12:06:51.925939,-188.0
2023-08-16 12:06:51.933628,-185.0
2023-08-16 12:06:51.941317,-180.0
2023-08-16 12:06:51.949007,-178.0
2023-08-16 12:06:51.956696,-178.0
2023-08-16 12:06:51.964385,-173.0
2023-08-16 12:06:51.972075,-171.0
2023-08-16 12:06:51.979764,-168.0
2023-08-16 12:06:51.987453,-164.0
2023-08-16 12:06:51.995142,-161.0
2023-08-16 12:06:52.002832,-159.0
2023-08-16 12:06:52.010521,-154.0
2023-08-16 12:06:52.018210,-152.0
2023-08-16 12:06:52.025900,-149.0
2023-08-16 12:06:52.033589,-147.0
2023-08-16 12:06:52.041278,-142.0
2023-08-16 12:06:52.048967,-139.0
2023-08-16 12:06:52.056657,-137.0
2023-08-16 12:06:52.064346,-139.0
2023-08-16 12:06:52.072035,-144.0
2023-08-16 12:06:52.079725,-142.0
2023-08-16 12:06:52.087414,-135.0
2023-08-16 12:06:52.095103,-135.0
2023-08-16 12:06:52.102792,-132.0
2023-08-16 12:06:52.110482,-130.0
2023-08-16 12:06:52.118171,-130.0
2023-08-16 12:06:52.125860,-127.0
2023-08-16 12:06:52.133550,-123.0
2023-08-16 12:06:52.141239,-118.0
2023-08-16 12:06:52.148928,-115.0
2023-08-16 12:06:52.156618,-113.0
2023-08-16 12:06:52.164307,-110.0
2023-08-16 12:06:52.171996,-106.0
2023-08-16 12:06:52.179685,-103.0
2023-08-16 12:06:52.187375,-103.0
2023-08-16 12:06:52.195064,-101.0
2023-08-16 12:06:52.202753,-98.0
2023-08-16 12:06:52.210443,-96.0
2023-08-16 12:06:52.218132,-91.0
2023-08-16 12:06:52.225821,-89.0
2023-08-16 12:06:52.233510,-89.0
2023-08-16 12:06:52.241200,-86.0
2023-08-16 12:06:52.248889,-84.0
2023-08-16 12:06:52.256578,-84.0
2023-08-16 12:06:52.264268,-82.0
2023-08-16 12:06:52.271957,-84.0
2023-08-16 12:06:52.279646,-94.0
2023-08-16 12:06:52.287335,-108.0
2023-08-16 12:06:52.295025,-113.0
2023-08-16 12:06:52.302714,-96.0
2023-08-16 12:06:52.310403,-57.0
2023-08-16 12:06:52.318093,-16.0
2023-08-16 12:06:52.325782,-4.0
2023-08-16 12:06:52.333471,-12.0
2023-08-16 12:06:52.341161,-24.0
2023-08-16 12:06:52.348850,-53.0
2023-08-16 12:06:52.356539,-82.0
2023-08-16 12:06:52.364228,-79.0
2023-08-16 12:06:52.371918,-72.0
2023-08-16 12:06:52.379607,-74.0
2023-08-16 12:06:52.387296,-69.0
2023-08-16 12:06:52.394986,-62.0
2023-08-16 12:06:52.402675,-57.0
2023-08-16 12:06:52.410364,-31.0
2023-08-16 12:06:52.418053,108.0
2023-08-16 12:06:52.425743,605.0
2023-08-16 12:06:52.433432,1343.0
2023-08-16 12:06:52.441121,1462.0
2023-08-16 12:06:52.448811,651.0
2023-08-16 12:06:52.456500,-219.0
2023-08-16 12:06:52.464189,-364.0
2023-08-16 12:06:52.471878,-74.0
2023-08-16 12:06:52.479568,-55.0
2023-08-16 12:06:52.487257,-195.0
2023-08-16 12:06:52.494946,-147.0
2023-08-16 12:06:52.502636,-103.0
2023-08-16 12:06:52.510325,-135.0
2023-08-16 12:06:52.518014,-120.0
2023-08-16 12:06:52.525704,-84.0
2023-08-16 12:06:52.533393,-79.0
2023-08-16 12:06:52.541082,-69.0
2023-08-16 12:06:52.548771,-48.0
2023-08-16 12:06:52.556461,-36.0
2023-08-16 12:06:52.564150,-24.0
2023-08-16 12:06:52.571839,-2.0
2023-08-16 12:06:52.579529,21.0
2023-08-16 12:06:52.587218,41.0
2023-08-16 12:06:52.594907,65.0
2023-08-16 12:06:52.602596,86.0
2023-08-16 12:06:52.610286,110.0
2023-08-16 12:06:52.617975,144.0
2023-08-16 12:06:52.625664,188.0
2023-08-16 12:06:52.633354,231.0
2023-08-16 12:06:52.641043,277.0
2023-08-16 12:06:52.648732,320.0
2023-08-16 12:06:52.656421,354.0
2023-08-16 12:06:52.664111,376.0
2023-08-16 12:06:52.671800,386.0
2023-08-16 12:06:52.679489,371.0
2023-08-16 12:06:52.687179,335.0
2023-08-16 12:06:52.694868,270.0
2023-08-16 12:06:52.702557,176.0
2023-08-16 12:06:52.710247,62.0
2023-08-16 12:06:52.717936,-53.0
2023-08-16 12:06:52.725625,-149.0
2023-08-16 12:06:52.733314,-219.0
2023-08-16 12:06:52.741004,-267.0
2023-08-16 12:06:52.748693,-294.0
2023-08-16 12:06:52.756382,-306.0
2023-08-16 12:06:52.764072,-311.0
2023-08-16 12:06:52.771761,-311.0
2023-08-16 12:06:52.779450,-304.0
2023-08-16 12:06:52.787139,-299.0
2023-08-16 12:06:52.794829,-294.0
2023-08-16 12:06:52.802518,-279.0
2023-08-16 12:06:52.810207,-265.0
2023-08-16 12:06:52.817897,-255.0
2023-08-16 12:06:52.825586,-246.0
2023-08-16 12:06:52.833275,-238.0
2023-08-16 12:06:52.840964,-231.0
2023-08-16 12:06:52.848654,-224.0
2023-08-16 12:06:52.856343,-214.0
2023-08-16 12:06:52.864032,-207.0
2023-08-16 12:06:52.871722,-200.0
2023-08-16 12:06:52.879411,-197.0
2023-08-16 12:06:52.887100,-195.0
2023-08-16 12:06:52.894790,-188.0
2023-08-16 12:06:52.902479,-183.0
2023-08-16 12:06:52.910168,-180.0
2023-08-16 12:06:52.917857,-183.0
2023-08-16 12:06:52.925547,-183.0
2023-08-16 12:06:52.933236,-180.0
2023-08-16 12:06:52.940925,-173.0
2023-08-16 12:06:52.948615,-171.0
2023-08-16 12:06:52.956304,-168.0
2023-08-16 12:06:52.963993,-168.0
2023-08-16 12:06:52.971682,-164.0
2023-08-16 12:06:52.979372,-159.0
2023-08-16 12:06:52.987061,-152.0
2023-08-16 12:06:52.994750,-149.0
2023-08-16 12:06:53.002440,-147.0
2023-08-16 12:06:53.010129,-147.0
2023-08-16 12:06:53.017818,-147.0
2023-08-16 12:06:53.025507,-139.0
2023-08-16 12:06:53.033197,-130.0
2023-08-16 12:06:53.040886,-127.0
2023-08-16 12:06:53.048575,-132.0
2023-08-16 12:06:53.056265,-130.0
2023-08-16 12:06:53.063954,-125.0
2023-08-16 12:06:53.071643,-120.0
2023-08-16 12:06:53.079333,-120.0
2023-08-16 12:06:53.087022,-120.0
2023-08-16 12:06:53.094711,-118.0
2023-08-16 12:06:53.102400,-115.0
2023-08-16 12:06:53.110090,-113.0
2023-08-16 12:06:53.117779,-110.0
2023-08-16 12:06:53.125468,-106.0
2023-08-16 12:06:53.133158,-101.0
2023-08-16 12:06:53.140847,-98.0
2023-08-16 12:06:53.148536,-103.0
2023-08-16 12:06:53.156225,-106.0
2023-08-16 12:06:53.163915,-98.0
2023-08-16 12:06:53.171604,-91.0
2023-08-16 12:06:53.179293,-91.0
2023-08-16 12:06:53.186983,-94.0
2023-08-16 12:06:53.194672,-96.0
2023-08-16 12:06:53.202361,-96.0
2023-08-16 12:06:53.210050,-89.0
2023-08-16 12:06:53.217740,-86.0
2023-08-16 12:06:53.225429,-84.0
2023-08-16 12:06:53.233118,-86.0
2023-08-16 12:06:53.240808,-91.0
2023-08-16 12:06:53.248497,-91.0
2023-08-16 12:06:53.256186,-89.0
2023-08-16 12:06:53.263876,-96.0
2023-08-16 12:06:53.271565,-101.0
2023-08-16 12:06:53.279254,-98.0
2023-08-16 12:06:53.286943,-82.0
2023-08-16 12:06:53.294633,-48.0
2023-08-16 12:06:53.302322,-16.0
2023-08-16 12:06:53.310011,-12.0
2023-08-16 12:06:53.317701,-14.0
2023-08-16 12:06:53.325390,-26.0
2023-08-16 12:06:53.333079,-65.0
2023-08-16 12:06:53.340768,-91.0
2023-08-16 12:06:53.348458,-79.0
2023-08-16 12:06:53.356147,-72.0
2023-08-16 12:06:53.363836,-72.0
2023-08-16 12:06:53.371526,-67.0
2023-08-16 12:06:53.379215,-67.0
2023-08-16 12:06:53.386904,-60.0
2023-08-16 12:06:53.394594,-9.0
2023-08-16 12:06:53.402283,205.0
2023-08-16 12:06:53.409972,803.0
2023-08-16 12:06:53.417661,1481.0
2023-08-16 12:06:53.425351,1358.0
2023-08-16 12:06:53.433040,395.0
2023-08-16 12:06:53.440729,-357.0
2023-08-16 12:06:53.448419,-304.0
2023-08-16 12:06:53.456108,-28.0
2023-08-16 12:06:53.463797,-96.0
2023-08-16 12:06:53.471486,-195.0
2023-08-16 12:06:53.479176,-125.0
2023-08-16 12:06:53.486865,-108.0
2023-08-16 12:06:53.494554,-125.0
2023-08-16 12:06:53.502244,-94.0
2023-08-16 12:06:53.509933,-82.0
2023-08-16 12:06:53.517622,-89.0
2023-08-16 12:06:53.525311,-62.0
2023-08-16 12:06:53.533001,-33.0
2023-08-16 12:06:53.540690,-24.0
2023-08-16 12:06:53.548379,-4.0
2023-08-16 12:06:53.556069,21.0
2023-08-16 12:06:53.563758,36.0
2023-08-16 12:06:53.571447,50.0
2023-08-16 12:06:53.579137,79.0
2023-08-16 12:06:53.586826,113.0
2023-08-16 12:06:53.594515,144.0
2023-08-16 12:06:53.602204,180.0
2023-08-16 12:06:53.609894,224.0
2023-08-16 12:06:53.617583,270.0
2023-08-16 12:06:53.625272,311.0
2023-08-16 12:06:53.632962,349.0
2023-08-16 12:06:53.640651,383.0
2023-08-16 12:06:53.648340,410.0
2023-08-16 12:06:53.656029,415.0
2023-08-16 12:06:53.663719,390.0
2023-08-16 12:06:53.671408,340.0
2023-08-16 12:06:53.679097,263.0
2023-08-16 12:06:53.686787,154.0
2023-08-16 12:06:53.694476,28.0
2023-08-16 12:06:53.702165,-91.0
2023-08-16 12:06:53.709854,-185.0
2023-08-16 12:06:53.717544,-243.0
2023-08-16 12:06:53.725233,-282.0
2023-08-16 12:06:53.732922,-311.0
2023-08-16 12:06:53.740612,-332.0
2023-08-16 12:06:53.748301,-337.0
2023-08-16 12:06:53.755990,-337.0
2023-08-16 12:06:53.763680,-328.0
2023-08-16 12:06:53.771369,-313.0
2023-08-16 12:06:53.779058,-304.0
2023-08-16 12:06:53.786747,-289.0
2023-08-16 12:06:53.794437,-277.0
2023-08-16 12:06:53.802126,-277.0
2023-08-16 12:06:53.809815,-275.0
2023-08-16 12:06:53.817505,-263.0
2023-08-16 12:06:53.825194,-250.0
2023-08-16 12:06:53.832883,-246.0
2023-08-16 12:06:53.840572,-241.0
2023-08-16 12:06:53.848262,-234.0
2023-08-16 12:06:53.855951,-224.0
2023-08-16 12:06:53.863640,-212.0
2023-08-16 12:06:53.871330,-212.0
2023-08-16 12:06:53.879019,-212.0
2023-08-16 12:06:53.886708,-205.0
2023-08-16 12:06:53.894397,-197.0
2023-08-16 12:06:53.902087,-193.0
2023-08-16 12:06:53.909776,-193.0
2023-08-16 12:06:53.917465,-193.0
2023-08-16 12:06:53.925155,-197.0
2023-08-16 12:06:53.932844,-195.0
2023-08-16 12:06:53.940533,-185.0
2023-08-16 12:06:53.948223,-178.0
2023-08-16 12:06:53.955912,-176.0
2023-08-16 12:06:53.963601,-173.0
2023-08-16 12:06:53.971290,-171.0
2023-08-16 12:06:53.978980,-171.0
2023-08-16 12:06:53.986669,-168.0
2023-08-16 12:06:53.994358,-156.0
2023-08-16 12:06:54.002048,-152.0
2023-08-16 12:06:54.009737,-156.0
2023-08-16 12:06:54.017426,-154.0
2023-08-16 12:06:54.025115,-144.0
2023-08-16 12:06:54.032805,-137.0
2023-08-16 12:06:54.040494,-135.0
2023-08-16 12:06:54.048183,-142.0
2023-08-16 12:06:54.055873,-137.0
2023-08-16 12:06:54.063562,-127.0
2023-08-16 12:06:54.071251,-130.0
2023-08-16 12:06:54.078940,-135.0
2023-08-16 12:06:54.086630,-130.0
2023-08-16 12:06:54.094319,-123.0
2023-08-16 12:06:54.102008,-118.0
2023-08-16 12:06:54.109698,-115.0
2023-08-16 12:06:54.117387,-113.0
2023-08-16 12:06:54.125076,-118.0
2023-08-16 12:06:54.132766,-118.0
2023-08-16 12:06:54.140455,-108.0
2023-08-16 12:06:54.148144,-98.0
2023-08-16 12:06:54.155833,-101.0
2023-08-16 12:06:54.163523,-103.0
2023-08-16 12:06:54.171212,-98.0
2023-08-16 12:06:54.178901,-96.0
2023-08-16 12:06:54.186591,-98.0
2023-08-16 12:06:54.194280,-103.0
2023-08-16 12:06:54.201969,-103.0
2023-08-16 12:06:54.209658,-103.0
2023-08-16 12:06:54.217348,-106.0
2023-08-16 12:06:54.225037,-98.0
2023-08-16 12:06:54.232726,-65.0
2023-08-16 12:06:54.240416,-28.0
2023-08-16 12:06:54.248105,-16.0
2023-08-16 12:06:54.255794,-14.0
2023-08-16 12:06:54.263483,-26.0
2023-08-16 12:06:54.271173,-65.0
2023-08-16 12:06:54.278862,-89.0
2023-08-16 12:06:54.286551,-72.0
2023-08-16 12:06:54.294241,-62.0
2023-08-16 12:06:54.301930,-74.0
2023-08-16 12:06:54.309619,-77.0
2023-08-16 12:06:54.317309,-69.0
2023-08-16 12:06:54.324998,-69.0
2023-08-16 12:06:54.332687,-31.0
2023-08-16 12:06:54.340376,173.0
2023-08-16 12:06:54.348066,702.0
2023-08-16 12:06:54.355755,1324.0
2023-08-16 12:06:54.363444,1237.0
2023-08-16 12:06:54.371134,316.0
2023-08-16 12:06:54.378823,-431.0
2023-08-16 12:06:54.386512,-374.0
2023-08-16 12:06:54.394201,-60.0
2023-08-16 12:06:54.401891,-89.0
2023-08-16 12:06:54.409580,-185.0
2023-08-16 12:06:54.417269,-113.0
2023-08-16 12:06:54.424959,-89.0
2023-08-16 12:06:54.432648,-120.0
2023-08-16 12:06:54.440337,-96.0
2023-08-16 12:06:54.448026,-72.0
2023-08-16 12:06:54.455716,-74.0
2023-08-16 12:06:54.463405,-55.0
2023-08-16 12:06:54.471094,-26.0
2023-08-16 12:06:54.478784,-14.0
2023-08-16 12:06:54.486473,-2.0
2023-08-16 12:06:54.494162,19.0
2023-08-16 12:06:54.501852,43.0
2023-08-16 12:06:54.509541,67.0
2023-08-16 12:06:54.517230,98.0
2023-08-16 12:06:54.524919,130.0
2023-08-16 12:06:54.532609,154.0
2023-08-16 12:06:54.540298,188.0
2023-08-16 12:06:54.547987,236.0
2023-08-16 12:06:54.555677,284.0
2023-08-16 12:06:54.563366,330.0
2023-08-16 12:06:54.571055,371.0
2023-08-16 12:06:54.578744,402.0
2023-08-16 12:06:54.586434,419.0
2023-08-16 12:06:54.594123,419.0
2023-08-16 12:06:54.601812,398.0
2023-08-16 12:06:54.609502,349.0
2023-08-16 12:06:54.617191,263.0
2023-08-16 12:06:54.624880,142.0
2023-08-16 12:06:54.632569,7.0
2023-08-16 12:06:54.640259,-110.0
2023-08-16 12:06:54.647948,-200.0
2023-08-16 12:06:54.655637,-258.0
2023-08-16 12:06:54.663327,-296.0
2023-08-16 12:06:54.671016,-318.0
2023-08-16 12:06:54.678705,-330.0
2023-08-16 12:06:54.686395,-330.0
2023-08-16 12:06:54.694084,-325.0
2023-08-16 12:06:54.701773,-318.0
2023-08-16 12:06:54.709462,-308.0
2023-08-16 12:06:54.717152,-296.0
2023-08-16 12:06:54.724841,-287.0
2023-08-16 12:06:54.732530,-272.0
2023-08-16 12:06:54.740220,-260.0
2023-08-16 12:06:54.747909,-248.0
2023-08-16 12:06:54.755598,-236.0
2023-08-16 12:06:54.763287,-226.0
2023-08-16 12:06:54.770977,-224.0
2023-08-16 12:06:54.778666,-219.0
2023-08-16 12:06:54.786355,-209.0
2023-08-16 12:06:54.794045,-202.0
2023-08-16 12:06:54.801734,-197.0
2023-08-16 12:06:54.809423,-190.0
2023-08-16 12:06:54.817113,-190.0
2023-08-16 12:06:54.824802,-193.0
2023-08-16 12:06:54.832491,-190.0
2023-08-16 12:06:54.840180,-180.0
2023-08-16 12:06:54.847870,-176.0
2023-08-16 12:06:54.855559,-176.0
2023-08-16 12:06:54.863248,-176.0
2023-08-16 12:06:54.870938,-178.0
2023-08-16 12:06:54.878627,-171.0
2023-08-16 12:06:54.886316,-166.0
2023-08-16 12:06:54.894005,-166.0
2023-08-16 12:06:54.901695,-173.0
2023-08-16 12:06:54.909384,-176.0
2023-08-16 12:06:54.917073,-171.0
2023-08-16 12:06:54.924763,-168.0
2023-08-16 12:06:54.932452,-168.0
2023-08-16 12:06:54.940141,-166.0
2023-08-16 12:06:54.947830,-161.0
2023-08-16 12:06:54.955520,-161.0
2023-08-16 12:06:54.963209,-156.0
2023-08-16 12:06:54.970898,-152.0
2023-08-16 12:06:54.978588,-147.0
2023-08-16 12:06:54.986277,-144.0
2023-08-16 12:06:54.993966,-144.0
2023-08-16 12:06:55.001656,-142.0
2023-08-16 12:06:55.009345,-139.0
2023-08-16 12:06:55.017034,-132.0
2023-08-16 12:06:55.024723,-127.0
2023-08-16 12:06:55.032413,-125.0
2023-08-16 12:06:55.040102,-125.0
2023-08-16 12:06:55.047791,-123.0
2023-08-16 12:06:55.055481,-120.0
2023-08-16 12:06:55.063170,-120.0
2023-08-16 12:06:55.070859,-123.0
2023-08-16 12:06:55.078548,-118.0
2023-08-16 12:06:55.086238,-113.0
2023-08-16 12:06:55.093927,-113.0
2023-08-16 12:06:55.101616,-108.0
2023-08-16 12:06:55.109306,-103.0
2023-08-16 12:06:55.116995,-101.0
2023-08-16 12:06:55.124684,-101.0
2023-08-16 12:06:55.132373,-103.0
2023-08-16 12:06:55.140063,-101.0
2023-08-16 12:06:55.147752,-101.0
2023-08-16 12:06:55.155441,-108.0
2023-08-16 12:06:55.163131,-115.0
2023-08-16 12:06:55.170820,-113.0
2023-08-16 12:06:55.178509,-98.0
2023-08-16 12:06:55.186199,-60.0
2023-08-16 12:06:55.193888,-21.0
2023-08-16 12:06:55.201577,-12.0
2023-08-16 12:06:55.209266,-19.0
2023-08-16 12:06:55.216956,-33.0
2023-08-16 12:06:55.224645,-65.0
2023-08-16 12:06:55.232334,-86.0
2023-08-16 12:06:55.240024,-79.0
2023-08-16 12:06:55.247713,-72.0
2023-08-16 12:06:55.255402,-72.0
2023-08-16 12:06:55.263091,-67.0
2023-08-16 12:06:55.270781,-65.0
2023-08-16 12:06:55.278470,-60.0
2023-08-16 12:06:55.286159,-28.0
2023-08-16 12:06:55.293849,147.0
2023-08-16 12:06:55.301538,709.0
2023-08-16 12:06:55.309227,1409.0
2023-08-16 12:06:55.316916,1351.0
2023-08-16 12:06:55.324606,441.0
2023-08-16 12:06:55.332295,-323.0
2023-08-16 12:06:55.339984,-330.0
2023-08-16 12:06:55.347674,-57.0
2023-08-16 12:06:55.355363,-91.0
2023-08-16 12:06:55.363052,-200.0
2023-08-16 12:06:55.370742,-139.0
2023-08-16 12:06:55.378431,-115.0
2023-08-16 12:06:55.386120,-139.0
2023-08-16 12:06:55.393809,-115.0
2023-08-16 12:06:55.401499,-89.0
2023-08-16 12:06:55.409188,-86.0
2023-08-16 12:06:55.416877,-72.0
2023-08-16 12:06:55.424567,-53.0
2023-08-16 12:06:55.432256,-38.0
2023-08-16 12:06:55.439945,-26.0
2023-08-16 12:06:55.447634,-14.0
2023-08-16 12:06:55.455324,4.0
2023-08-16 12:06:55.463013,28.0
2023-08-16 12:06:55.470702,55.0
2023-08-16 12:06:55.478392,86.0
2023-08-16 12:06:55.486081,118.0
2023-08-16 12:06:55.493770,154.0
2023-08-16 12:06:55.501459,195.0
2023-08-16 12:06:55.509149,238.0
2023-08-16 12:06:55.516838,282.0
2023-08-16 12:06:55.524527,325.0
2023-08-16 12:06:55.532217,359.0
2023-08-16 12:06:55.539906,376.0
2023-08-16 12:06:55.547595,378.0
2023-08-16 12:06:55.555285,357.0
2023-08-16 12:06:55.562974,313.0
2023-08-16 12:06:55.570663,243.0
2023-08-16 12:06:55.578352,142.0
2023-08-16 12:06:55.586042,24.0
2023-08-16 12:06:55.593731,-89.0
2023-08-16 12:06:55.601420,-178.0
2023-08-16 12:06:55.609110,-241.0
2023-08-16 12:06:55.616799,-277.0
2023-08-16 12:06:55.624488,-299.0
2023-08-16 12:06:55.632177,-308.0
2023-08-16 12:06:55.639867,-308.0
2023-08-16 12:06:55.647556,-306.0
2023-08-16 12:06:55.655245,-299.0
2023-08-16 12:06:55.662935,-287.0
2023-08-16 12:06:55.670624,-277.0
2023-08-16 12:06:55.678313,-267.0
2023-08-16 12:06:55.686002,-255.0
2023-08-16 12:06:55.693692,-246.0
2023-08-16 12:06:55.701381,-234.0
2023-08-16 12:06:55.709070,-224.0
2023-08-16 12:06:55.716760,-217.0
2023-08-16 12:06:55.724449,-209.0
2023-08-16 12:06:55.732138,-205.0
2023-08-16 12:06:55.739828,-197.0
2023-08-16 12:06:55.747517,-190.0
2023-08-16 12:06:55.755206,-188.0
2023-08-16 12:06:55.762895,-183.0
2023-08-16 12:06:55.770585,-178.0
2023-08-16 12:06:55.778274,-173.0
2023-08-16 12:06:55.785963,-171.0
2023-08-16 12:06:55.793653,-166.0
2023-08-16 12:06:55.801342,-166.0
2023-08-16 12:06:55.809031,-166.0
2023-08-16 12:06:55.816720,-164.0
2023-08-16 12:06:55.824410,-159.0
2023-08-16 12:06:55.832099,-159.0
2023-08-16 12:06:55.839788,-161.0
2023-08-16 12:06:55.847478,-161.0
2023-08-16 12:06:55.855167,-161.0
2023-08-16 12:06:55.862856,-159.0
2023-08-16 12:06:55.870545,-156.0
2023-08-16 12:06:55.878235,-156.0
2023-08-16 12:06:55.885924,-154.0
2023-08-16 12:06:55.893613,-154.0
2023-08-16 12:06:55.901303,-152.0
2023-08-16 12:06:55.908992,-149.0
2023-08-16 12:06:55.916681,-147.0
2023-08-16 12:06:55.924371,-144.0
2023-08-16 12:06:55.932060,-142.0
2023-08-16 12:06:55.939749,-139.0
2023-08-16 12:06:55.947438,-139.0
2023-08-16 12:06:55.955128,-135.0
2023-08-16 12:06:55.962817,-132.0
2023-08-16 12:06:55.970506,-130.0
2023-08-16 12:06:55.978196,-132.0
2023-08-16 12:06:55.985885,-137.0
2023-08-16 12:06:55.993574,-137.0
2023-08-16 12:06:56.001263,-130.0
2023-08-16 12:06:56.008953,-127.0
2023-08-16 12:06:56.016642,-125.0
2023-08-16 12:06:56.024331,-123.0
2023-08-16 12:06:56.032021,-120.0
2023-08-16 12:06:56.039710,-120.0
2023-08-16 12:06:56.047399,-120.0
2023-08-16 12:06:56.055088,-118.0
2023-08-16 12:06:56.062778,-115.0
2023-08-16 12:06:56.070467,-115.0
2023-08-16 12:06:56.078156,-113.0
2023-08-16 12:06:56.085846,-110.0
2023-08-16 12:06:56.093535,-106.0
2023-08-16 12:06:56.101224,-103.0
2023-08-16 12:06:56.108914,-103.0
2023-08-16 12:06:56.116603,-101.0
2023-08-16 12:06:56.124292,-98.0
2023-08-16 12:06:56.131981,-96.0
2023-08-16 12:06:56.139671,-94.0
2023-08-16 12:06:56.147360,-91.0
2023-08-16 12:06:56.155049,-94.0
2023-08-16 12:06:56.162739,-96.0
2023-08-16 12:06:56.170428,-103.0
2023-08-16 12:06:56.178117,-108.0
2023-08-16 12:06:56.185806,-110.0
2023-08-16 12:06:56.193496,-101.0
2023-08-16 12:06:56.201185,-67.0
2023-08-16 12:06:56.208874,-26.0
2023-08-16 12:06:56.216564,-7.0
2023-08-16 12:06:56.224253,-12.0
2023-08-16 12:06:56.231942,-21.0
2023-08-16 12:06:56.239632,-48.0
2023-08-16 12:06:56.247321,-82.0
2023-08-16 12:06:56.255010,-82.0
2023-08-16 12:06:56.262699,-69.0
2023-08-16 12:06:56.270389,-72.0
2023-08-16 12:06:56.278078,-67.0
2023-08-16 12:06:56.285767,-62.0
2023-08-16 12:06:56.293457,-60.0
2023-08-16 12:06:56.301146,-43.0
2023-08-16 12:06:56.308835,69.0
2023-08-16 12:06:56.316524,511.0
2023-08-16 12:06:56.324214,1254.0
2023-08-16 12:06:56.331903,1500.0
2023-08-16 12:06:56.339592,789.0
2023-08-16 12:06:56.347282,-139.0
2023-08-16 12:06:56.354971,-405.0
2023-08-16 12:06:56.362660,-113.0
2023-08-16 12:06:56.370349,-38.0
2023-08-16 12:06:56.378039,-197.0
2023-08-16 12:06:56.385728,-173.0
2023-08-16 12:06:56.393417,-108.0
2023-08-16 12:06:56.401107,-137.0
2023-08-16 12:06:56.408796,-137.0
2023-08-16 12:06:56.416485,-101.0
2023-08-16 12:06:56.424175,-89.0
2023-08-16 12:06:56.431864,-77.0
2023-08-16 12:06:56.439553,-53.0
2023-08-16 12:06:56.447242,-38.0
2023-08-16 12:06:56.454932,-24.0
2023-08-16 12:06:56.462621,-4.0
2023-08-16 12:06:56.470310,14.0
2023-08-16 12:06:56.478000,31.0
2023-08-16 12:06:56.485689,60.0
2023-08-16 12:06:56.493378,91.0
2023-08-16 12:06:56.501067,120.0
2023-08-16 12:06:56.508757,154.0
2023-08-16 12:06:56.516446,193.0
2023-08-16 12:06:56.524135,231.0
2023-08-16 12:06:56.531825,270.0
2023-08-16 12:06:56.539514,311.0
2023-08-16 12:06:56.547203,347.0
2023-08-16 12:06:56.554892,371.0
2023-08-16 12:06:56.562582,378.0
2023-08-16 12:06:56.570271,352.0
2023-08-16 12:06:56.577960,316.0
2023-08-16 12:06:56.585650,267.0
2023-08-16 12:06:56.593339,183.0
2023-08-16 12:06:56.601028,62.0
2023-08-16 12:06:56.608718,-53.0
2023-08-16 12:06:56.616407,-149.0
2023-08-16 12:06:56.624096,-226.0
2023-08-16 12:06:56.631785,-279.0
2023-08-16 12:06:56.639475,-304.0
2023-08-16 12:06:56.647164,-313.0
2023-08-16 12:06:56.654853,-320.0
2023-08-16 12:06:56.662543,-323.0
2023-08-16 12:06:56.670232,-311.0
2023-08-16 12:06:56.677921,-296.0
2023-08-16 12:06:56.685610,-287.0
2023-08-16 12:06:56.693300,-279.0
2023-08-16 12:06:56.700989,-272.0
2023-08-16 12:06:56.708678,-263.0
2023-08-16 12:06:56.716368,-253.0
2023-08-16 12:06:56.724057,-241.0
2023-08-16 12:06:56.731746,-231.0
2023-08-16 12:06:56.739435,-221.0
2023-08-16 12:06:56.747125,-219.0
2023-08-16 12:06:56.754814,-217.0
2023-08-16 12:06:56.762503,-205.0
2023-08-16 12:06:56.770193,-195.0
2023-08-16 12:06:56.777882,-188.0
2023-08-16 12:06:56.785571,-183.0
2023-08-16 12:06:56.793261,-188.0
2023-08-16 12:06:56.800950,-188.0
2023-08-16 12:06:56.808639,-183.0
2023-08-16 12:06:56.816328,-180.0
2023-08-16 12:06:56.824018,-176.0
2023-08-16 12:06:56.831707,-168.0
2023-08-16 12:06:56.839396,-168.0
2023-08-16 12:06:56.847086,-171.0
2023-08-16 12:06:56.854775,-171.0
2023-08-16 12:06:56.862464,-171.0
2023-08-16 12:06:56.870153,-171.0
2023-08-16 12:06:56.877843,-161.0
2023-08-16 12:06:56.885532,-159.0
2023-08-16 12:06:56.893221,-164.0
2023-08-16 12:06:56.900911,-161.0
2023-08-16 12:06:56.908600,-152.0
2023-08-16 12:06:56.916289,-147.0
2023-08-16 12:06:56.923978,-149.0
2023-08-16 12:06:56.931668,-149.0
2023-08-16 12:06:56.939357,-144.0
2023-08-16 12:06:56.947046,-132.0
2023-08-16 12:06:56.954736,-127.0
2023-08-16 12:06:56.962425,-137.0
2023-08-16 12:06:56.970114,-137.0
2023-08-16 12:06:56.977804,-123.0
2023-08-16 12:06:56.985493,-115.0
2023-08-16 12:06:56.993182,-125.0
2023-08-16 12:06:57.000871,-125.0
2023-08-16 12:06:57.008561,-113.0
2023-08-16 12:06:57.016250,-113.0
2023-08-16 12:06:57.023939,-113.0
2023-08-16 12:06:57.031629,-113.0
2023-08-16 12:06:57.039318,-113.0
2023-08-16 12:06:57.047007,-108.0
2023-08-16 12:06:57.054696,-101.0
2023-08-16 12:06:57.062386,-101.0
2023-08-16 12:06:57.070075,-110.0
2023-08-16 12:06:57.077764,-106.0
2023-08-16 12:06:57.085454,-94.0
2023-08-16 12:06:57.093143,-91.0
2023-08-16 12:06:57.100832,-96.0
2023-08-16 12:06:57.108521,-98.0
2023-08-16 12:06:57.116211,-98.0
2023-08-16 12:06:57.123900,-94.0
2023-08-16 12:06:57.131589,-101.0
2023-08-16 12:06:57.139279,-106.0
2023-08-16 12:06:57.146968,-101.0
2023-08-16 12:06:57.154657,-103.0
2023-08-16 12:06:57.162347,-106.0
2023-08-16 12:06:57.170036,-91.0
2023-08-16 12:06:57.177725,-60.0
2023-08-16 12:06:57.185414,-28.0
2023-08-16 12:06:57.193104,-14.0
2023-08-16 12:06:57.200793,-16.0
2023-08-16 12:06:57.208482,-31.0
2023-08-16 12:06:57.216172,-57.0
2023-08-16 12:06:57.223861,-72.0
2023-08-16 12:06:57.231550,-72.0
2023-08-16 12:06:57.239239,-74.0
2023-08-16 12:06:57.246929,-69.0
2023-08-16 12:06:57.254618,-60.0
2023-08-16 12:06:57.262307,-57.0
2023-08-16 12:06:57.269997,-55.0
2023-08-16 12:06:57.277686,-16.0
2023-08-16 12:06:57.285375,156.0
2023-08-16 12:06:57.293064,680.0
2023-08-16 12:06:57.300754,1363.0
2023-08-16 12:06:57.308443,1353.0
2023-08-16 12:06:57.316132,451.0
2023-08-16 12:06:57.323822,-352.0
2023-08-16 12:06:57.331511,-364.0
2023-08-16 12:06:57.339200,-53.0
2023-08-16 12:06:57.346890,-67.0
2023-08-16 12:06:57.354579,-185.0
2023-08-16 12:06:57.362268,-120.0
2023-08-16 12:06:57.369957,-86.0
2023-08-16 12:06:57.377647,-120.0
2023-08-16 12:06:57.385336,-103.0
2023-08-16 12:06:57.393025,-72.0
2023-08-16 12:06:57.400715,-65.0
2023-08-16 12:06:57.408404,-50.0
2023-08-16 12:06:57.416093,-26.0
2023-08-16 12:06:57.423782,-9.0
2023-08-16 12:06:57.431472,2.0
2023-08-16 12:06:57.439161,21.0
2023-08-16 12:06:57.446850,53.0
2023-08-16 12:06:57.454540,77.0
2023-08-16 12:06:57.462229,96.0
2023-08-16 12:06:57.469918,123.0
2023-08-16 12:06:57.477608,164.0
2023-08-16 12:06:57.485297,202.0
2023-08-16 12:06:57.492986,241.0
2023-08-16 12:06:57.500675,294.0
2023-08-16 12:06:57.508365,349.0
2023-08-16 12:06:57.516054,386.0
2023-08-16 12:06:57.523743,419.0
2023-08-16 12:06:57.531433,443.0
2023-08-16 12:06:57.539122,439.0
2023-08-16 12:06:57.546811,412.0
2023-08-16 12:06:57.554500,371.0
2023-08-16 12:06:57.562190,289.0
2023-08-16 12:06:57.569879,164.0
2023-08-16 12:06:57.577568,31.0
2023-08-16 12:06:57.585258,-89.0
2023-08-16 12:06:57.592947,-193.0
2023-08-16 12:06:57.600636,-263.0
2023-08-16 12:06:57.608325,-301.0
2023-08-16 12:06:57.616015,-328.0
2023-08-16 12:06:57.623704,-340.0
2023-08-16 12:06:57.631393,-340.0
2023-08-16 12:06:57.639083,-332.0
2023-08-16 12:06:57.646772,-325.0
2023-08-16 12:06:57.654461,-320.0
2023-08-16 12:06:57.662151,-306.0
2023-08-16 12:06:57.669840,-291.0
2023-08-16 12:06:57.677529,-284.0
2023-08-16 12:06:57.685218,-275.0
2023-08-16 12:06:57.692908,-263.0
2023-08-16 12:06:57.700597,-253.0
2023-08-16 12:06:57.708286,-243.0
2023-08-16 12:06:57.715976,-234.0
2023-08-16 12:06:57.723665,-226.0
2023-08-16 12:06:57.731354,-224.0
2023-08-16 12:06:57.739043,-226.0
2023-08-16 12:06:57.746733,-221.0
2023-08-16 12:06:57.754422,-207.0
2023-08-16 12:06:57.762111,-202.0
2023-08-16 12:06:57.769801,-205.0
2023-08-16 12:06:57.777490,-205.0
2023-08-16 12:06:57.785179,-207.0
2023-08-16 12:06:57.792868,-200.0
2023-08-16 12:06:57.800558,-193.0
2023-08-16 12:06:57.808247,-190.0
2023-08-16 12:06:57.815936,-188.0
2023-08-16 12:06:57.823626,-188.0
2023-08-16 12:06:57.831315,-190.0
2023-08-16 12:06:57.839004,-185.0
2023-08-16 12:06:57.846694,-183.0
2023-08-16 12:06:57.854383,-185.0
2023-08-16 12:06:57.862072,-190.0
2023-08-16 12:06:57.869761,-185.0
2023-08-16 12:06:57.877451,-178.0
2023-08-16 12:06:57.885140,-176.0
2023-08-16 12:06:57.892829,-171.0
2023-08-16 12:06:57.900519,-168.0
2023-08-16 12:06:57.908208,-168.0
2023-08-16 12:06:57.915897,-166.0
2023-08-16 12:06:57.923586,-159.0
2023-08-16 12:06:57.931276,-154.0
2023-08-16 12:06:57.938965,-152.0
2023-08-16 12:06:57.946654,-147.0
2023-08-16 12:06:57.954344,-144.0
2023-08-16 12:06:57.962033,-139.0
2023-08-16 12:06:57.969722,-135.0
2023-08-16 12:06:57.977411,-130.0
2023-08-16 12:06:57.985101,-127.0
2023-08-16 12:06:57.992790,-125.0
2023-08-16 12:06:58.000479,-123.0
2023-08-16 12:06:58.008169,-123.0
2023-08-16 12:06:58.015858,-120.0
2023-08-16 12:06:58.023547,-118.0
2023-08-16 12:06:58.031237,-118.0
2023-08-16 12:06:58.038926,-115.0
2023-08-16 12:06:58.046615,-115.0
2023-08-16 12:06:58.054304,-120.0
2023-08-16 12:06:58.061994,-123.0
2023-08-16 12:06:58.069683,-120.0
2023-08-16 12:06:58.077372,-110.0
2023-08-16 12:06:58.085062,-79.0
2023-08-16 12:06:58.092751,-41.0
2023-08-16 12:06:58.100440,-26.0
2023-08-16 12:06:58.108129,-28.0
2023-08-16 12:06:58.115819,-41.0
2023-08-16 12:06:58.123508,-69.0
2023-08-16 12:06:58.131197,-91.0
2023-08-16 12:06:58.138887,-89.0
2023-08-16 12:06:58.146576,-84.0
2023-08-16 12:06:58.154265,-84.0
2023-08-16 12:06:58.161954,-79.0
2023-08-16 12:06:58.169644,-72.0
2023-08-16 12:06:58.177333,-67.0
2023-08-16 12:06:58.185022,-45.0
2023-08-16 12:06:58.192712,77.0
2023-08-16 12:06:58.200401,518.0
2023-08-16 12:06:58.208090,1230.0
2023-08-16 12:06:58.215780,1421.0
2023-08-16 12:06:58.223469,663.0
2023-08-16 12:06:58.231158,-241.0
2023-08-16 12:06:58.238847,-434.0
2023-08-16 12:06:58.246537,-113.0
2023-08-16 12:06:58.254226,-48.0
2023-08-16 12:06:58.261915,-190.0
2023-08-16 12:06:58.269605,-156.0
2023-08-16 12:06:58.277294,-106.0
2023-08-16 12:06:58.284983,-137.0
2023-08-16 12:06:58.292672,-123.0
2023-08-16 12:06:58.300362,-89.0
2023-08-16 12:06:58.308051,-86.0
2023-08-16 12:06:58.315740,-77.0
2023-08-16 12:06:58.323430,-55.0
2023-08-16 12:06:58.331119,-38.0
2023-08-16 12:06:58.338808,-21.0
2023-08-16 12:06:58.346497,0.0
2023-08-16 12:06:58.354187,19.0
2023-08-16 12:06:58.361876,36.0
2023-08-16 12:06:58.369565,55.0
2023-08-16 12:06:58.377255,84.0
2023-08-16 12:06:58.384944,118.0
2023-08-16 12:06:58.392633,154.0
2023-08-16 12:06:58.400323,195.0
2023-08-16 12:06:58.408012,241.0
2023-08-16 12:06:58.415701,284.0
2023-08-16 12:06:58.423390,328.0
2023-08-16 12:06:58.431080,364.0
2023-08-16 12:06:58.438769,388.0
2023-08-16 12:06:58.446458,393.0
2023-08-16 12:06:58.454148,376.0
2023-08-16 12:06:58.461837,332.0
2023-08-16 12:06:58.469526,258.0
2023-08-16 12:06:58.477215,152.0
2023-08-16 12:06:58.484905,28.0
2023-08-16 12:06:58.492594,-89.0
2023-08-16 12:06:58.500283,-183.0
2023-08-16 12:06:58.507973,-250.0
2023-08-16 12:06:58.515662,-294.0
2023-08-16 12:06:58.523351,-316.0
2023-08-16 12:06:58.531040,-323.0
2023-08-16 12:06:58.538730,-325.0
2023-08-16 12:06:58.546419,-323.0
2023-08-16 12:06:58.554108,-320.0
2023-08-16 12:06:58.561798,-311.0
2023-08-16 12:06:58.569487,-296.0
2023-08-16 12:06:58.577176,-282.0
2023-08-16 12:06:58.584866,-275.0
2023-08-16 12:06:58.592555,-267.0
2023-08-16 12:06:58.600244,-255.0
2023-08-16 12:06:58.607933,-241.0
2023-08-16 12:06:58.615623,-229.0
2023-08-16 12:06:58.623312,-219.0
2023-08-16 12:06:58.631001,-212.0
2023-08-16 12:06:58.638691,-209.0
2023-08-16 12:06:58.646380,-205.0
2023-08-16 12:06:58.654069,-195.0
2023-08-16 12:06:58.661758,-188.0
2023-08-16 12:06:58.669448,-183.0
2023-08-16 12:06:58.677137,-180.0
2023-08-16 12:06:58.684826,-178.0
2023-08-16 12:06:58.692516,-176.0
2023-08-16 12:06:58.700205,-173.0
2023-08-16 12:06:58.707894,-171.0
2023-08-16 12:06:58.715583,-168.0
2023-08-16 12:06:58.723273,-164.0
2023-08-16 12:06:58.730962,-164.0
2023-08-16 12:06:58.738651,-164.0
2023-08-16 12:06:58.746341,-156.0
2023-08-16 12:06:58.754030,-154.0
2023-08-16 12:06:58.761719,-159.0
2023-08-16 12:06:58.769409,-159.0
2023-08-16 12:06:58.777098,-156.0
2023-08-16 12:06:58.784787,-156.0
2023-08-16 12:06:58.792476,-156.0
2023-08-16 12:06:58.800166,-152.0
2023-08-16 12:06:58.807855,-149.0
2023-08-16 12:06:58.815544,-152.0
2023-08-16 12:06:58.823234,-159.0
2023-08-16 12:06:58.830923,-156.0
2023-08-16 12:06:58.838612,-149.0
2023-08-16 12:06:58.846301,-147.0
2023-08-16 12:06:58.853991,-144.0
2023-08-16 12:06:58.861680,-139.0
2023-08-16 12:06:58.869369,-142.0
2023-08-16 12:06:58.877059,-142.0
2023-08-16 12:06:58.884748,-137.0
2023-08-16 12:06:58.892437,-130.0
2023-08-16 12:06:58.900127,-132.0
2023-08-16 12:06:58.907816,-137.0
2023-08-16 12:06:58.915505,-142.0
2023-08-16 12:06:58.923194,-135.0
2023-08-16 12:06:58.930884,-127.0
2023-08-16 12:06:58.938573,-127.0
2023-08-16 12:06:58.946262,-123.0
2023-08-16 12:06:58.953952,-120.0
2023-08-16 12:06:58.961641,-118.0
2023-08-16 12:06:58.969330,-115.0
2023-08-16 12:06:58.977019,-110.0
2023-08-16 12:06:58.984709,-108.0
2023-08-16 12:06:58.992398,-103.0
2023-08-16 12:06:59.000087,-103.0
2023-08-16 12:06:59.007777,-106.0
2023-08-16 12:06:59.015466,-106.0
2023-08-16 12:06:59.023155,-106.0
2023-08-16 12:06:59.030844,-110.0
2023-08-16 12:06:59.038534,-118.0
2023-08-16 12:06:59.046223,-120.0
2023-08-16 12:06:59.053912,-106.0
2023-08-16 12:06:59.061602,-65.0
2023-08-16 12:06:59.069291,-21.0
2023-08-16 12:06:59.076980,-14.0
2023-08-16 12:06:59.084670,-24.0
2023-08-16 12:06:59.092359,-33.0
2023-08-16 12:06:59.100048,-62.0
2023-08-16 12:06:59.107737,-89.0
2023-08-16 12:06:59.115427,-82.0
2023-08-16 12:06:59.123116,-72.0
2023-08-16 12:06:59.130805,-74.0
2023-08-16 12:06:59.138495,-72.0
2023-08-16 12:06:59.146184,-67.0
2023-08-16 12:06:59.153873,-60.0
2023-08-16 12:06:59.161562,-31.0
2023-08-16 12:06:59.169252,125.0
2023-08-16 12:06:59.176941,651.0
2023-08-16 12:06:59.184630,1375.0
2023-08-16 12:06:59.192320,1428.0
2023-08-16 12:06:59.200009,579.0
2023-08-16 12:06:59.207698,-258.0
2023-08-16 12:06:59.215387,-352.0
2023-08-16 12:06:59.223077,-62.0
2023-08-16 12:06:59.230766,-67.0
2023-08-16 12:06:59.238455,-200.0
2023-08-16 12:06:59.246145,-147.0
2023-08-16 12:06:59.253834,-110.0
2023-08-16 12:06:59.261523,-142.0
2023-08-16 12:06:59.269213,-125.0
2023-08-16 12:06:59.276902,-91.0
2023-08-16 12:06:59.284591,-86.0
2023-08-16 12:06:59.292280,-74.0
2023-08-16 12:06:59.299970,-53.0
2023-08-16 12:06:59.307659,-41.0
2023-08-16 12:06:59.315348,-26.0
2023-08-16 12:06:59.323038,-7.0
2023-08-16 12:06:59.330727,14.0
2023-08-16 12:06:59.338416,36.0
2023-08-16 12:06:59.346105,62.0
2023-08-16 12:06:59.353795,89.0
2023-08-16 12:06:59.361484,113.0
2023-08-16 12:06:59.369173,142.0
2023-08-16 12:06:59.376863,180.0
2023-08-16 12:06:59.384552,224.0
2023-08-16 12:06:59.392241,270.0
2023-08-16 12:06:59.399930,308.0
2023-08-16 12:06:59.407620,335.0
2023-08-16 12:06:59.415309,354.0
2023-08-16 12:06:59.422998,361.0
2023-08-16 12:06:59.430688,345.0
2023-08-16 12:06:59.438377,304.0
2023-08-16 12:06:59.446066,231.0
2023-08-16 12:06:59.453756,125.0
2023-08-16 12:06:59.461445,7.0
2023-08-16 12:06:59.469134,-106.0
2023-08-16 12:06:59.476823,-197.0
2023-08-16 12:06:59.484513,-260.0
2023-08-16 12:06:59.492202,-301.0
2023-08-16 12:06:59.499891,-328.0
2023-08-16 12:06:59.507581,-340.0
2023-08-16 12:06:59.515270,-337.0
2023-08-16 12:06:59.522959,-332.0
2023-08-16 12:06:59.530648,-328.0
2023-08-16 12:06:59.538338,-323.0
2023-08-16 12:06:59.546027,-316.0
2023-08-16 12:06:59.553716,-301.0
2023-08-16 12:06:59.561406,-287.0
2023-08-16 12:06:59.569095,-277.0
2023-08-16 12:06:59.576784,-270.0
2023-08-16 12:06:59.584473,-267.0
2023-08-16 12:06:59.592163,-263.0
2023-08-16 12:06:59.599852,-248.0
2023-08-16 12:06:59.607541,-236.0
2023-08-16 12:06:59.615231,-231.0
2023-08-16 12:06:59.622920,-224.0
2023-08-16 12:06:59.630609,-217.0
2023-08-16 12:06:59.638299,-212.0
2023-08-16 12:06:59.645988,-205.0
2023-08-16 12:06:59.653677,-200.0
2023-08-16 12:06:59.661366,-197.0
2023-08-16 12:06:59.669056,-193.0
2023-08-16 12:06:59.676745,-188.0
2023-08-16 12:06:59.684434,-185.0
2023-08-16 12:06:59.692124,-180.0
2023-08-16 12:06:59.699813,-176.0
2023-08-16 12:06:59.707502,-173.0
2023-08-16 12:06:59.715191,-171.0
2023-08-16 12:06:59.722881,-168.0
2023-08-16 12:06:59.730570,-168.0
2023-08-16 12:06:59.738259,-168.0
2023-08-16 12:06:59.745949,-171.0
2023-08-16 12:06:59.753638,-168.0
2023-08-16 12:06:59.761327,-164.0
2023-08-16 12:06:59.769016,-161.0
2023-08-16 12:06:59.776706,-156.0
2023-08-16 12:06:59.784395,-154.0
2023-08-16 12:06:59.792084,-152.0
2023-08-16 12:06:59.799774,-149.0
2023-08-16 12:06:59.807463,-144.0
2023-08-16 12:06:59.815152,-142.0
2023-08-16 12:06:59.822842,-139.0
2023-08-16 12:06:59.830531,-135.0
2023-08-16 12:06:59.838220,-132.0
2023-08-16 12:06:59.845909,-130.0
2023-08-16 12:06:59.853599,-127.0
2023-08-16 12:06:59.861288,-125.0
2023-08-16 12:06:59.868977,-123.0
2023-08-16 12:06:59.876667,-123.0
2023-08-16 12:06:59.884356,-123.0
2023-08-16 12:06:59.892045,-125.0
2023-08-16 12:06:59.899734,-127.0
2023-08-16 12:06:59.907424,-130.0
2023-08-16 12:06:59.915113,-123.0
2023-08-16 12:06:59.922802,-113.0
2023-08-16 12:06:59.930492,-108.0
2023-08-16 12:06:59.938181,-110.0
2023-08-16 12:06:59.945870,-110.0
2023-08-16 12:06:59.953559,-108.0
2023-08-16 12:06:59.961249,-106.0
2023-08-16 12:06:59.968938,-101.0
2023-08-16 12:06:59.976627,-96.0
2023-08-16 12:06:59.984317,-96.0
2023-08-16 12:06:59.992006,-101.0
2023-08-16 12:06:59.999695,-96.0
2023-08-16 12:07:00.007385,-89.0
2023-08-16 12:07:00.015074,-86.0
2023-08-16 12:07:00.022763,-91.0
2023-08-16 12:07:00.030452,-108.0
2023-08-16 12:07:00.038142,-120.0
2023-08-16 12:07:00.045831,-108.0
2023-08-16 12:07:00.053520,-77.0
2023-08-16 12:07:00.061210,-33.0
2023-08-16 12:07:00.068899,-7.0
2023-08-16 12:07:00.076588,-7.0
2023-08-16 12:07:00.084277,-16.0
2023-08-16 12:07:00.091967,-33.0
2023-08-16 12:07:00.099656,-67.0
2023-08-16 12:07:00.107345,-74.0
2023-08-16 12:07:00.115035,-60.0
2023-08-16 12:07:00.122724,-62.0
2023-08-16 12:07:00.130413,-69.0
2023-08-16 12:07:00.138102,-62.0
2023-08-16 12:07:00.145792,-57.0
2023-08-16 12:07:00.153481,-43.0
2023-08-16 12:07:00.161170,19.0
2023-08-16 12:07:00.168860,299.0
2023-08-16 12:07:00.176549,977.0
2023-08-16 12:07:00.184238,1549.0
2023-08-16 12:07:00.191928,1208.0
2023-08-16 12:07:00.199617,202.0
2023-08-16 12:07:00.207306,-400.0
2023-08-16 12:07:00.214995,-226.0
2023-08-16 12:07:00.222685,-12.0
2023-08-16 12:07:00.230374,-137.0
2023-08-16 12:07:00.238063,-190.0
2023-08-16 12:07:00.245753,-113.0
2023-08-16 12:07:00.253442,-118.0
2023-08-16 12:07:00.261131,-130.0
2023-08-16 12:07:00.268820,-94.0
2023-08-16 12:07:00.276510,-77.0
2023-08-16 12:07:00.284199,-67.0
2023-08-16 12:07:00.291888,-45.0
2023-08-16 12:07:00.299578,-36.0
2023-08-16 12:07:00.307267,-28.0
2023-08-16 12:07:00.314956,-2.0
2023-08-16 12:07:00.322646,26.0
2023-08-16 12:07:00.330335,41.0
2023-08-16 12:07:00.338024,65.0
2023-08-16 12:07:00.345713,94.0
2023-08-16 12:07:00.353403,123.0
2023-08-16 12:07:00.361092,161.0
2023-08-16 12:07:00.368781,205.0
2023-08-16 12:07:00.376471,248.0
2023-08-16 12:07:00.384160,284.0
2023-08-16 12:07:00.391849,316.0
2023-08-16 12:07:00.399538,352.0
2023-08-16 12:07:00.407228,393.0
2023-08-16 12:07:00.414917,415.0
2023-08-16 12:07:00.422606,410.0
2023-08-16 12:07:00.430296,376.0
2023-08-16 12:07:00.437985,316.0
2023-08-16 12:07:00.445674,231.0
2023-08-16 12:07:00.453363,127.0
2023-08-16 12:07:00.461053,4.0
2023-08-16 12:07:00.468742,-110.0
2023-08-16 12:07:00.476431,-200.0
2023-08-16 12:07:00.484121,-263.0
2023-08-16 12:07:00.491810,-299.0
2023-08-16 12:07:00.499499,-316.0
2023-08-16 12:07:00.507189,-320.0
2023-08-16 12:07:00.514878,-320.0
2023-08-16 12:07:00.522567,-320.0
2023-08-16 12:07:00.530256,-318.0
2023-08-16 12:07:00.537946,-306.0
2023-08-16 12:07:00.545635,-296.0
2023-08-16 12:07:00.553324,-289.0
2023-08-16 12:07:00.561014,-272.0
2023-08-16 12:07:00.568703,-258.0
2023-08-16 12:07:00.576392,-253.0
2023-08-16 12:07:00.584081,-243.0
2023-08-16 12:07:00.591771,-231.0
2023-08-16 12:07:00.599460,-221.0
2023-08-16 12:07:00.607149,-214.0
2023-08-16 12:07:00.614839,-207.0
2023-08-16 12:07:00.622528,-207.0
2023-08-16 12:07:00.630217,-200.0
2023-08-16 12:07:00.637906,-190.0
2023-08-16 12:07:00.645596,-185.0
2023-08-16 12:07:00.653285,-185.0
2023-08-16 12:07:00.660974,-185.0
2023-08-16 12:07:00.668664,-183.0
2023-08-16 12:07:00.676353,-178.0
2023-08-16 12:07:00.684042,-168.0
2023-08-16 12:07:00.691732,-164.0
2023-08-16 12:07:00.699421,-164.0
2023-08-16 12:07:00.707110,-159.0
2023-08-16 12:07:00.714799,-159.0
2023-08-16 12:07:00.722489,-159.0
2023-08-16 12:07:00.730178,-161.0
2023-08-16 12:07:00.737867,-161.0
2023-08-16 12:07:00.745557,-156.0
2023-08-16 12:07:00.753246,-154.0
2023-08-16 12:07:00.760935,-152.0
2023-08-16 12:07:00.768624,-152.0
2023-08-16 12:07:00.776314,-154.0
2023-08-16 12:07:00.784003,-149.0
2023-08-16 12:07:00.791692,-137.0
2023-08-16 12:07:00.799382,-137.0
2023-08-16 12:07:00.807071,-142.0
2023-08-16 12:07:00.814760,-137.0
2023-08-16 12:07:00.822449,-130.0
2023-08-16 12:07:00.830139,-130.0
2023-08-16 12:07:00.837828,-132.0
2023-08-16 12:07:00.845517,-127.0
2023-08-16 12:07:00.853207,-120.0
2023-08-16 12:07:00.860896,-120.0
2023-08-16 12:07:00.868585,-123.0
2023-08-16 12:07:00.876275,-115.0
2023-08-16 12:07:00.883964,-110.0
2023-08-16 12:07:00.891653,-120.0
2023-08-16 12:07:00.899342,-120.0
2023-08-16 12:07:00.907032,-110.0
2023-08-16 12:07:00.914721,-106.0
2023-08-16 12:07:00.922410,-108.0
2023-08-16 12:07:00.930100,-106.0
2023-08-16 12:07:00.937789,-108.0
2023-08-16 12:07:00.945478,-123.0
2023-08-16 12:07:00.953167,-127.0
2023-08-16 12:07:00.960857,-113.0
2023-08-16 12:07:00.968546,-91.0
2023-08-16 12:07:00.976235,-69.0
2023-08-16 12:07:00.983925,-48.0
2023-08-16 12:07:00.991614,-33.0
2023-08-16 12:07:00.999303,-31.0
2023-08-16 12:07:01.006992,-50.0
2023-08-16 12:07:01.014682,-84.0
2023-08-16 12:07:01.022371,-94.0
2023-08-16 12:07:01.030060,-79.0
2023-08-16 12:07:01.037750,-82.0
2023-08-16 12:07:01.045439,-89.0
2023-08-16 12:07:01.053128,-79.0
2023-08-16 12:07:01.060818,-74.0
2023-08-16 12:07:01.068507,-79.0
2023-08-16 12:07:01.076196,-36.0
2023-08-16 12:07:01.083885,178.0
2023-08-16 12:07:01.091575,726.0
2023-08-16 12:07:01.099264,1339.0
2023-08-16 12:07:01.106953,1216.0
2023-08-16 12:07:01.114643,282.0
2023-08-16 12:07:01.122332,-439.0
2023-08-16 12:07:01.130021,-359.0
2023-08-16 12:07:01.137710,-55.0
2023-08-16 12:07:01.145400,-96.0
2023-08-16 12:07:01.153089,-183.0
2023-08-16 12:07:01.160778,-110.0
2023-08-16 12:07:01.168468,-96.0
2023-08-16 12:07:01.176157,-123.0
2023-08-16 12:07:01.183846,-94.0
2023-08-16 12:07:01.191535,-65.0
2023-08-16 12:07:01.199225,-65.0
2023-08-16 12:07:01.206914,-50.0
2023-08-16 12:07:01.214603,-28.0
2023-08-16 12:07:01.222293,-16.0
2023-08-16 12:07:01.229982,0.0
2023-08-16 12:07:01.237671,24.0
2023-08-16 12:07:01.245361,43.0
2023-08-16 12:07:01.253050,57.0
2023-08-16 12:07:01.260739,91.0
2023-08-16 12:07:01.268428,130.0
2023-08-16 12:07:01.276118,164.0
2023-08-16 12:07:01.283807,202.0
2023-08-16 12:07:01.291496,253.0
2023-08-16 12:07:01.299186,301.0
2023-08-16 12:07:01.306875,349.0
2023-08-16 12:07:01.314564,393.0
2023-08-16 12:07:01.322253,427.0
2023-08-16 12:07:01.329943,443.0
2023-08-16 12:07:01.337632,443.0
2023-08-16 12:07:01.345321,417.0
2023-08-16 12:07:01.353011,354.0
2023-08-16 12:07:01.360700,253.0
2023-08-16 12:07:01.368389,125.0
2023-08-16 12:07:01.376078,-14.0
2023-08-16 12:07:01.383768,-139.0
2023-08-16 12:07:01.391457,-226.0
2023-08-16 12:07:01.399146,-287.0
2023-08-16 12:07:01.406836,-328.0
2023-08-16 12:07:01.414525,-345.0
2023-08-16 12:07:01.422214,-347.0
2023-08-16 12:07:01.429904,-345.0
2023-08-16 12:07:01.437593,-345.0
2023-08-16 12:07:01.445282,-342.0
2023-08-16 12:07:01.452971,-328.0
2023-08-16 12:07:01.460661,-313.0
2023-08-16 12:07:01.468350,-304.0
2023-08-16 12:07:01.476039,-296.0
2023-08-16 12:07:01.483729,-279.0
2023-08-16 12:07:01.491418,-267.0
2023-08-16 12:07:01.499107,-258.0
2023-08-16 12:07:01.506796,-248.0
2023-08-16 12:07:01.514486,-236.0
2023-08-16 12:07:01.522175,-226.0
2023-08-16 12:07:01.529864,-217.0
2023-08-16 12:07:01.537554,-209.0
2023-08-16 12:07:01.545243,-205.0
2023-08-16 12:07:01.552932,-197.0
2023-08-16 12:07:01.560621,-190.0
2023-08-16 12:07:01.568311,-185.0
2023-08-16 12:07:01.576000,-183.0
2023-08-16 12:07:01.583689,-180.0
2023-08-16 12:07:01.591379,-183.0
2023-08-16 12:07:01.599068,-185.0
2023-08-16 12:07:01.606757,-190.0
2023-08-16 12:07:01.614447,-193.0
2023-08-16 12:07:01.622136,-183.0
2023-08-16 12:07:01.629825,-176.0
2023-08-16 12:07:01.637514,-176.0
2023-08-16 12:07:01.645204,-176.0
2023-08-16 12:07:01.652893,-173.0
2023-08-16 12:07:01.660582,-164.0
2023-08-16 12:07:01.668272,-159.0
2023-08-16 12:07:01.675961,-159.0
2023-08-16 12:07:01.683650,-156.0
2023-08-16 12:07:01.691339,-149.0
2023-08-16 12:07:01.699029,-144.0
2023-08-16 12:07:01.706718,-147.0
2023-08-16 12:07:01.714407,-152.0
2023-08-16 12:07:01.722097,-149.0
2023-08-16 12:07:01.729786,-147.0
2023-08-16 12:07:01.737475,-152.0
2023-08-16 12:07:01.745165,-149.0
2023-08-16 12:07:01.752854,-142.0
2023-08-16 12:07:01.760543,-142.0
2023-08-16 12:07:01.768232,-142.0
2023-08-16 12:07:01.775922,-135.0
2023-08-16 12:07:01.783611,-132.0
2023-08-16 12:07:01.791300,-132.0
2023-08-16 12:07:01.798990,-130.0
2023-08-16 12:07:01.806679,-125.0
2023-08-16 12:07:01.814368,-125.0
2023-08-16 12:07:01.822057,-120.0
2023-08-16 12:07:01.829747,-118.0
2023-08-16 12:07:01.837436,-118.0
2023-08-16 12:07:01.845125,-118.0
2023-08-16 12:07:01.852815,-113.0
2023-08-16 12:07:01.860504,-110.0
2023-08-16 12:07:01.868193,-110.0
2023-08-16 12:07:01.875882,-110.0
2023-08-16 12:07:01.883572,-106.0
2023-08-16 12:07:01.891261,-101.0
2023-08-16 12:07:01.898950,-103.0
2023-08-16 12:07:01.906640,-113.0
2023-08-16 12:07:01.914329,-123.0
2023-08-16 12:07:01.922018,-127.0
2023-08-16 12:07:01.929708,-132.0
2023-08-16 12:07:01.937397,-123.0
2023-08-16 12:07:01.945086,-89.0
2023-08-16 12:07:01.952775,-48.0
2023-08-16 12:07:01.960465,-28.0
2023-08-16 12:07:01.968154,-38.0
2023-08-16 12:07:01.975843,-50.0
2023-08-16 12:07:01.983533,-69.0
2023-08-16 12:07:01.991222,-96.0
2023-08-16 12:07:01.998911,-96.0
2023-08-16 12:07:02.006600,-89.0
2023-08-16 12:07:02.014290,-91.0
2023-08-16 12:07:02.021979,-89.0
2023-08-16 12:07:02.029668,-82.0
2023-08-16 12:07:02.037358,-77.0
2023-08-16 12:07:02.045047,-60.0
2023-08-16 12:07:02.052736,26.0
2023-08-16 12:07:02.060425,398.0
2023-08-16 12:07:02.068115,1122.0
2023-08-16 12:07:02.075804,1474.0
2023-08-16 12:07:02.083493,871.0
2023-08-16 12:07:02.091183,-72.0
2023-08-16 12:07:02.098872,-422.0
2023-08-16 12:07:02.106561,-159.0
2023-08-16 12:07:02.114251,-36.0
2023-08-16 12:07:02.121940,-176.0
2023-08-16 12:07:02.129629,-168.0
2023-08-16 12:07:02.137318,-103.0
2023-08-16 12:07:02.145008,-130.0
2023-08-16 12:07:02.152697,-132.0
2023-08-16 12:07:02.160386,-94.0
2023-08-16 12:07:02.168076,-84.0
2023-08-16 12:07:02.175765,-77.0
2023-08-16 12:07:02.183454,-55.0
2023-08-16 12:07:02.191143,-45.0
2023-08-16 12:07:02.198833,-45.0
2023-08-16 12:07:02.206522,-28.0
2023-08-16 12:07:02.214211,-2.0
2023-08-16 12:07:02.221901,19.0
2023-08-16 12:07:02.229590,43.0
2023-08-16 12:07:02.237279,69.0
2023-08-16 12:07:02.244968,101.0
2023-08-16 12:07:02.252658,137.0
2023-08-16 12:07:02.260347,178.0
2023-08-16 12:07:02.268036,224.0
2023-08-16 12:07:02.275726,270.0
2023-08-16 12:07:02.283415,311.0
2023-08-16 12:07:02.291104,347.0
2023-08-16 12:07:02.298794,374.0
2023-08-16 12:07:02.306483,386.0
2023-08-16 12:07:02.314172,374.0
2023-08-16 12:07:02.321861,342.0
2023-08-16 12:07:02.329551,282.0
2023-08-16 12:07:02.337240,188.0
2023-08-16 12:07:02.344929,69.0
2023-08-16 12:07:02.352619,-48.0
2023-08-16 12:07:02.360308,-147.0
2023-08-16 12:07:02.367997,-219.0
2023-08-16 12:07:02.375686,-270.0
2023-08-16 12:07:02.383376,-301.0
2023-08-16 12:07:02.391065,-313.0
2023-08-16 12:07:02.398754,-313.0
2023-08-16 12:07:02.406444,-316.0
2023-08-16 12:07:02.414133,-318.0
2023-08-16 12:07:02.421822,-313.0
2023-08-16 12:07:02.429511,-299.0
2023-08-16 12:07:02.437201,-284.0
2023-08-16 12:07:02.444890,-277.0
2023-08-16 12:07:02.452579,-267.0
2023-08-16 12:07:02.460269,-258.0
2023-08-16 12:07:02.467958,-248.0
2023-08-16 12:07:02.475647,-236.0
2023-08-16 12:07:02.483337,-226.0
2023-08-16 12:07:02.491026,-219.0
2023-08-16 12:07:02.498715,-212.0
2023-08-16 12:07:02.506404,-205.0
2023-08-16 12:07:02.514094,-200.0
2023-08-16 12:07:02.521783,-195.0
2023-08-16 12:07:02.529472,-188.0
2023-08-16 12:07:02.537162,-180.0
2023-08-16 12:07:02.544851,-180.0
2023-08-16 12:07:02.552540,-178.0
2023-08-16 12:07:02.560229,-173.0
2023-08-16 12:07:02.567919,-171.0
2023-08-16 12:07:02.575608,-168.0
2023-08-16 12:07:02.583297,-164.0
2023-08-16 12:07:02.590987,-161.0
2023-08-16 12:07:02.598676,-159.0
2023-08-16 12:07:02.606365,-159.0
2023-08-16 12:07:02.614054,-156.0
2023-08-16 12:07:02.621744,-154.0
2023-08-16 12:07:02.629433,-152.0
2023-08-16 12:07:02.637122,-152.0
2023-08-16 12:07:02.644812,-149.0
2023-08-16 12:07:02.652501,-147.0
2023-08-16 12:07:02.660190,-144.0
2023-08-16 12:07:02.667880,-142.0
2023-08-16 12:07:02.675569,-139.0
2023-08-16 12:07:02.683258,-137.0
2023-08-16 12:07:02.690947,-137.0
2023-08-16 12:07:02.698637,-137.0
2023-08-16 12:07:02.706326,-135.0
2023-08-16 12:07:02.714015,-132.0
2023-08-16 12:07:02.721705,-127.0
2023-08-16 12:07:02.729394,-130.0
2023-08-16 12:07:02.737083,-137.0
2023-08-16 12:07:02.744772,-139.0
2023-08-16 12:07:02.752462,-130.0
2023-08-16 12:07:02.760151,-125.0
2023-08-16 12:07:02.767840,-123.0
2023-08-16 12:07:02.775530,-120.0
2023-08-16 12:07:02.783219,-118.0
2023-08-16 12:07:02.790908,-115.0
2023-08-16 12:07:02.798597,-113.0
2023-08-16 12:07:02.806287,-108.0
2023-08-16 12:07:02.813976,-106.0
2023-08-16 12:07:02.821665,-106.0
2023-08-16 12:07:02.829355,-103.0
2023-08-16 12:07:02.837044,-101.0
2023-08-16 12:07:02.844733,-98.0
2023-08-16 12:07:02.852423,-94.0
2023-08-16 12:07:02.860112,-91.0
2023-08-16 12:07:02.867801,-91.0
2023-08-16 12:07:02.875490,-91.0
2023-08-16 12:07:02.883180,-89.0
2023-08-16 12:07:02.890869,-86.0
2023-08-16 12:07:02.898558,-82.0
2023-08-16 12:07:02.906248,-77.0
2023-08-16 12:07:02.913937,-79.0
2023-08-16 12:07:02.921626,-84.0
2023-08-16 12:07:02.929315,-84.0
2023-08-16 12:07:02.937005,-82.0
2023-08-16 12:07:02.944694,-84.0
2023-08-16 12:07:02.952383,-84.0
2023-08-16 12:07:02.960073,-82.0
2023-08-16 12:07:02.967762,-79.0
2023-08-16 12:07:02.975451,-77.0
2023-08-16 12:07:02.983141,-77.0
2023-08-16 12:07:02.990830,-74.0
2023-08-16 12:07:02.998519,-77.0
2023-08-16 12:07:03.006208,-86.0
2023-08-16 12:07:03.013898,-94.0
2023-08-16 12:07:03.021587,-94.0
2023-08-16 12:07:03.029276,-79.0
2023-08-16 12:07:03.036966,-43.0
2023-08-16 12:07:03.044655,-4.0
2023-08-16 12:07:03.052344,7.0
2023-08-16 12:07:03.060033,2.0
2023-08-16 12:07:03.067723,-7.0
2023-08-16 12:07:03.075412,-38.0
2023-08-16 12:07:03.083101,-65.0
2023-08-16 12:07:03.090791,-60.0
2023-08-16 12:07:03.098480,-55.0
2023-08-16 12:07:03.106169,-55.0
2023-08-16 12:07:03.113858,-50.0
2023-08-16 12:07:03.121548,-48.0
2023-08-16 12:07:03.129237,-43.0
2023-08-16 12:07:03.136926,-16.0
2023-08-16 12:07:03.144616,103.0
2023-08-16 12:07:03.152305,569.0
2023-08-16 12:07:03.159994,1305.0
2023-08-16 12:07:03.167684,1476.0
2023-08-16 12:07:03.175373,726.0
2023-08-16 12:07:03.183062,-152.0
2023-08-16 12:07:03.190751,-364.0
2023-08-16 12:07:03.198441,-84.0
2023-08-16 12:07:03.206130,-36.0
2023-08-16 12:07:03.213819,-180.0
2023-08-16 12:07:03.221509,-149.0
2023-08-16 12:07:03.229198,-94.0
2023-08-16 12:07:03.236887,-125.0
2023-08-16 12:07:03.244576,-113.0
2023-08-16 12:07:03.252266,-77.0
2023-08-16 12:07:03.259955,-74.0
2023-08-16 12:07:03.267644,-69.0
2023-08-16 12:07:03.275334,-55.0
2023-08-16 12:07:03.283023,-43.0
2023-08-16 12:07:03.290712,-28.0
2023-08-16 12:07:03.298401,-4.0
2023-08-16 12:07:03.306091,14.0
2023-08-16 12:07:03.313780,36.0
2023-08-16 12:07:03.321469,60.0
2023-08-16 12:07:03.329159,91.0
2023-08-16 12:07:03.336848,123.0
2023-08-16 12:07:03.344537,156.0
2023-08-16 12:07:03.352227,197.0
2023-08-16 12:07:03.359916,238.0
2023-08-16 12:07:03.367605,282.0
2023-08-16 12:07:03.375294,323.0
2023-08-16 12:07:03.382984,361.0
2023-08-16 12:07:03.390673,386.0
2023-08-16 12:07:03.398362,393.0
2023-08-16 12:07:03.406052,381.0
2023-08-16 12:07:03.413741,347.0
2023-08-16 12:07:03.421430,284.0
2023-08-16 12:07:03.429119,190.0
2023-08-16 12:07:03.436809,74.0
2023-08-16 12:07:03.444498,-45.0
2023-08-16 12:07:03.452187,-149.0
2023-08-16 12:07:03.459877,-226.0
2023-08-16 12:07:03.467566,-275.0
2023-08-16 12:07:03.475255,-301.0
2023-08-16 12:07:03.482944,-316.0
2023-08-16 12:07:03.490634,-325.0
2023-08-16 12:07:03.498323,-325.0
2023-08-16 12:07:03.506012,-316.0
2023-08-16 12:07:03.513702,-304.0
2023-08-16 12:07:03.521391,-294.0
2023-08-16 12:07:03.529080,-282.0
2023-08-16 12:07:03.536770,-270.0
2023-08-16 12:07:03.544459,-263.0
2023-08-16 12:07:03.552148,-255.0
2023-08-16 12:07:03.559837,-243.0
2023-08-16 12:07:03.567527,-229.0
2023-08-16 12:07:03.575216,-219.0
2023-08-16 12:07:03.582905,-214.0
2023-08-16 12:07:03.590595,-209.0
2023-08-16 12:07:03.598284,-205.0
2023-08-16 12:07:03.605973,-197.0
2023-08-16 12:07:03.613662,-195.0
2023-08-16 12:07:03.621352,-193.0
2023-08-16 12:07:03.629041,-190.0
2023-08-16 12:07:03.636730,-188.0
2023-08-16 12:07:03.644420,-183.0
2023-08-16 12:07:03.652109,-180.0
2023-08-16 12:07:03.659798,-178.0
2023-08-16 12:07:03.667487,-176.0
2023-08-16 12:07:03.675177,-173.0
2023-08-16 12:07:03.682866,-171.0
2023-08-16 12:07:03.690555,-168.0
2023-08-16 12:07:03.698245,-161.0
2023-08-16 12:07:03.705934,-156.0
2023-08-16 12:07:03.713623,-154.0
2023-08-16 12:07:03.721313,-159.0
2023-08-16 12:07:03.729002,-159.0
2023-08-16 12:07:03.736691,-149.0
2023-08-16 12:07:03.744380,-139.0
2023-08-16 12:07:03.752070,-137.0
2023-08-16 12:07:03.759759,-139.0
2023-08-16 12:07:03.767448,-137.0
2023-08-16 12:07:03.775138,-127.0
2023-08-16 12:07:03.782827,-123.0
2023-08-16 12:07:03.790516,-125.0
2023-08-16 12:07:03.798205,-125.0
2023-08-16 12:07:03.805895,-125.0
2023-08-16 12:07:03.813584,-127.0
2023-08-16 12:07:03.821273,-127.0
2023-08-16 12:07:03.828963,-123.0
2023-08-16 12:07:03.836652,-115.0
2023-08-16 12:07:03.844341,-113.0
2023-08-16 12:07:03.852030,-120.0
2023-08-16 12:07:03.859720,-123.0
2023-08-16 12:07:03.867409,-115.0
2023-08-16 12:07:03.875098,-113.0
2023-08-16 12:07:03.882788,-118.0
2023-08-16 12:07:03.890477,-110.0
2023-08-16 12:07:03.898166,-106.0
2023-08-16 12:07:03.905856,-106.0
2023-08-16 12:07:03.913545,-101.0
2023-08-16 12:07:03.921234,-96.0
2023-08-16 12:07:03.928923,-106.0
2023-08-16 12:07:03.936613,-108.0
2023-08-16 12:07:03.944302,-98.0
2023-08-16 12:07:03.951991,-96.0
2023-08-16 12:07:03.959681,-103.0
2023-08-16 12:07:03.967370,-96.0
2023-08-16 12:07:03.975059,-84.0
2023-08-16 12:07:03.982748,-82.0
2023-08-16 12:07:03.990438,-86.0
2023-08-16 12:07:03.998127,-91.0
2023-08-16 12:07:04.005816,-89.0
2023-08-16 12:07:04.013506,-82.0
2023-08-16 12:07:04.021195,-74.0
2023-08-16 12:07:04.028884,-77.0
2023-08-16 12:07:04.036573,-84.0
2023-08-16 12:07:04.044263,-91.0
2023-08-16 12:07:04.051952,-94.0
2023-08-16 12:07:04.059641,-89.0
2023-08-16 12:07:04.067331,-72.0
2023-08-16 12:07:04.075020,-38.0
2023-08-16 12:07:04.082709,-2.0
2023-08-16 12:07:04.090399,7.0
2023-08-16 12:07:04.098088,-2.0
2023-08-16 12:07:04.105777,-21.0
2023-08-16 12:07:04.113466,-57.0
2023-08-16 12:07:04.121156,-74.0
2023-08-16 12:07:04.128845,-62.0
2023-08-16 12:07:04.136534,-53.0
2023-08-16 12:07:04.144224,-53.0
2023-08-16 12:07:04.151913,-53.0
2023-08-16 12:07:04.159602,-48.0
2023-08-16 12:07:04.167291,-33.0
2023-08-16 12:07:04.174981,14.0
2023-08-16 12:07:04.182670,272.0
2023-08-16 12:07:04.190359,928.0
2023-08-16 12:07:04.198049,1520.0
2023-08-16 12:07:04.205738,1220.0
2023-08-16 12:07:04.213427,224.0
2023-08-16 12:07:04.221116,-402.0
2023-08-16 12:07:04.228806,-250.0
2023-08-16 12:07:04.236495,-16.0
2023-08-16 12:07:04.244184,-115.0
2023-08-16 12:07:04.251874,-171.0
2023-08-16 12:07:04.259563,-94.0
2023-08-16 12:07:04.267252,-96.0
2023-08-16 12:07:04.274942,-115.0
2023-08-16 12:07:04.282631,-84.0
2023-08-16 12:07:04.290320,-69.0
2023-08-16 12:07:04.298009,-62.0
2023-08-16 12:07:04.305699,-38.0
2023-08-16 12:07:04.313388,-21.0
2023-08-16 12:07:04.321077,-9.0
2023-08-16 12:07:04.328767,9.0
2023-08-16 12:07:04.336456,28.0
2023-08-16 12:07:04.344145,53.0
2023-08-16 12:07:04.351834,82.0
2023-08-16 12:07:04.359524,98.0
2023-08-16 12:07:04.367213,120.0
2023-08-16 12:07:04.374902,164.0
2023-08-16 12:07:04.382592,219.0
2023-08-16 12:07:04.390281,258.0
2023-08-16 12:07:04.397970,291.0
2023-08-16 12:07:04.405660,337.0
2023-08-16 12:07:04.413349,383.0
2023-08-16 12:07:04.421038,415.0
2023-08-16 12:07:04.428727,431.0
2023-08-16 12:07:04.436417,424.0
2023-08-16 12:07:04.444106,383.0
2023-08-16 12:07:04.451795,320.0
2023-08-16 12:07:04.459485,241.0
2023-08-16 12:07:04.467174,123.0
2023-08-16 12:07:04.474863,-12.0
2023-08-16 12:07:04.482552,-127.0
2023-08-16 12:07:04.490242,-219.0
2023-08-16 12:07:04.497931,-287.0
2023-08-16 12:07:04.505620,-323.0
2023-08-16 12:07:04.513310,-335.0
2023-08-16 12:07:04.520999,-332.0
2023-08-16 12:07:04.528688,-337.0
2023-08-16 12:07:04.536377,-342.0
2023-08-16 12:07:04.544067,-335.0
2023-08-16 12:07:04.551756,-323.0
2023-08-16 12:07:04.559445,-308.0
2023-08-16 12:07:04.567135,-299.0
2023-08-16 12:07:04.574824,-291.0
2023-08-16 12:07:04.582513,-272.0
2023-08-16 12:07:04.590203,-255.0
2023-08-16 12:07:04.597892,-253.0
2023-08-16 12:07:04.605581,-243.0
2023-08-16 12:07:04.613270,-238.0
2023-08-16 12:07:04.620960,-238.0
2023-08-16 12:07:04.628649,-224.0
2023-08-16 12:07:04.636338,-214.0
2023-08-16 12:07:04.644028,-214.0
2023-08-16 12:07:04.651717,-207.0
2023-08-16 12:07:04.659406,-197.0
2023-08-16 12:07:04.667095,-197.0
2023-08-16 12:07:04.674785,-193.0
2023-08-16 12:07:04.682474,-188.0
2023-08-16 12:07:04.690163,-193.0
2023-08-16 12:07:04.697853,-193.0
2023-08-16 12:07:04.705542,-178.0
2023-08-16 12:07:04.713231,-168.0
2023-08-16 12:07:04.720920,-173.0
2023-08-16 12:07:04.728610,-176.0
2023-08-16 12:07:04.736299,-168.0
2023-08-16 12:07:04.743988,-156.0
2023-08-16 12:07:04.751678,-154.0
2023-08-16 12:07:04.759367,-156.0
2023-08-16 12:07:04.767056,-147.0
2023-08-16 12:07:04.774746,-139.0
2023-08-16 12:07:04.782435,-144.0
2023-08-16 12:07:04.790124,-142.0
2023-08-16 12:07:04.797813,-135.0
2023-08-16 12:07:04.805503,-132.0
2023-08-16 12:07:04.813192,-127.0
2023-08-16 12:07:04.820881,-125.0
2023-08-16 12:07:04.828571,-127.0
2023-08-16 12:07:04.836260,-118.0
2023-08-16 12:07:04.843949,-115.0
2023-08-16 12:07:04.851638,-123.0
2023-08-16 12:07:04.859328,-118.0
2023-08-16 12:07:04.867017,-106.0
2023-08-16 12:07:04.874706,-103.0
2023-08-16 12:07:04.882396,-103.0
2023-08-16 12:07:04.890085,-106.0
2023-08-16 12:07:04.897774,-106.0
2023-08-16 12:07:04.905463,-103.0
2023-08-16 12:07:04.913153,-106.0
2023-08-16 12:07:04.920842,-108.0
2023-08-16 12:07:04.928531,-101.0
2023-08-16 12:07:04.936221,-98.0
2023-08-16 12:07:04.943910,-108.0
2023-08-16 12:07:04.951599,-118.0
2023-08-16 12:07:04.959289,-118.0
2023-08-16 12:07:04.966978,-115.0
2023-08-16 12:07:04.974667,-101.0
2023-08-16 12:07:04.982356,-74.0
2023-08-16 12:07:04.990046,-53.0
2023-08-16 12:07:04.997735,-43.0
2023-08-16 12:07:05.005424,-38.0
2023-08-16 12:07:05.013114,-57.0
2023-08-16 12:07:05.020803,-96.0
2023-08-16 12:07:05.028492,-118.0
2023-08-16 12:07:05.036181,-110.0
2023-08-16 12:07:05.043871,-101.0
2023-08-16 12:07:05.051560,-101.0
2023-08-16 12:07:05.059249,-101.0
2023-08-16 12:07:05.066939,-94.0
2023-08-16 12:07:05.074628,-82.0
2023-08-16 12:07:05.082317,-19.0
2023-08-16 12:07:05.090006,238.0
2023-08-16 12:07:05.097696,834.0
2023-08-16 12:07:05.105385,1375.0
2023-08-16 12:07:05.113074,1080.0
2023-08-16 12:07:05.120764,96.0
2023-08-16 12:07:05.128453,-489.0
2023-08-16 12:07:05.136142,-282.0
2023-08-16 12:07:05.143832,-28.0
2023-08-16 12:07:05.151521,-125.0
2023-08-16 12:07:05.159210,-178.0
2023-08-16 12:07:05.166899,-108.0
2023-08-16 12:07:05.174589,-110.0
2023-08-16 12:07:05.182278,-123.0
2023-08-16 12:07:05.189967,-89.0
2023-08-16 12:07:05.197657,-74.0
2023-08-16 12:07:05.205346,-69.0
2023-08-16 12:07:05.213035,-50.0
2023-08-16 12:07:05.220724,-33.0
2023-08-16 12:07:05.228414,-19.0
2023-08-16 12:07:05.236103,2.0
2023-08-16 12:07:05.243792,21.0
2023-08-16 12:07:05.251482,41.0
2023-08-16 12:07:05.259171,69.0
2023-08-16 12:07:05.266860,98.0
2023-08-16 12:07:05.274549,127.0
2023-08-16 12:07:05.282239,166.0
2023-08-16 12:07:05.289928,207.0
2023-08-16 12:07:05.297617,250.0
2023-08-16 12:07:05.305307,301.0
2023-08-16 12:07:05.312996,349.0
2023-08-16 12:07:05.320685,390.0
2023-08-16 12:07:05.328375,424.0
2023-08-16 12:07:05.336064,441.0
2023-08-16 12:07:05.343753,431.0
2023-08-16 12:07:05.351442,398.0
2023-08-16 12:07:05.359132,330.0
2023-08-16 12:07:05.366821,229.0
2023-08-16 12:07:05.374510,98.0
2023-08-16 12:07:05.382200,-38.0
2023-08-16 12:07:05.389889,-152.0
2023-08-16 12:07:05.397578,-231.0
2023-08-16 12:07:05.405267,-287.0
2023-08-16 12:07:05.412957,-323.0
2023-08-16 12:07:05.420646,-340.0
2023-08-16 12:07:05.428335,-345.0
2023-08-16 12:07:05.436025,-345.0
2023-08-16 12:07:05.443714,-342.0
2023-08-16 12:07:05.451403,-340.0
2023-08-16 12:07:05.459092,-328.0
2023-08-16 12:07:05.466782,-313.0
2023-08-16 12:07:05.474471,-304.0
2023-08-16 12:07:05.482160,-296.0
2023-08-16 12:07:05.489850,-282.0
2023-08-16 12:07:05.497539,-270.0
2023-08-16 12:07:05.505228,-255.0
2023-08-16 12:07:05.512918,-248.0
2023-08-16 12:07:05.520607,-246.0
2023-08-16 12:07:05.528296,-248.0
2023-08-16 12:07:05.535985,-236.0
2023-08-16 12:07:05.543675,-224.0
2023-08-16 12:07:05.551364,-219.0
2023-08-16 12:07:05.559053,-214.0
2023-08-16 12:07:05.566743,-209.0
2023-08-16 12:07:05.574432,-205.0
2023-08-16 12:07:05.582121,-200.0
2023-08-16 12:07:05.589810,-195.0
2023-08-16 12:07:05.597500,-193.0
2023-08-16 12:07:05.605189,-193.0
2023-08-16 12:07:05.612878,-190.0
2023-08-16 12:07:05.620568,-188.0
2023-08-16 12:07:05.628257,-183.0
2023-08-16 12:07:05.635946,-176.0
2023-08-16 12:07:05.643635,-171.0
2023-08-16 12:07:05.651325,-171.0
2023-08-16 12:07:05.659014,-173.0
2023-08-16 12:07:05.666703,-168.0
2023-08-16 12:07:05.674393,-161.0
2023-08-16 12:07:05.682082,-156.0
2023-08-16 12:07:05.689771,-152.0
2023-08-16 12:07:05.697461,-149.0
2023-08-16 12:07:05.705150,-149.0
2023-08-16 12:07:05.712839,-142.0
2023-08-16 12:07:05.720528,-137.0
2023-08-16 12:07:05.728218,-135.0
2023-08-16 12:07:05.735907,-132.0
2023-08-16 12:07:05.743596,-127.0
2023-08-16 12:07:05.751286,-125.0
2023-08-16 12:07:05.758975,-125.0
2023-08-16 12:07:05.766664,-120.0
2023-08-16 12:07:05.774353,-115.0
2023-08-16 12:07:05.782043,-113.0
2023-08-16 12:07:05.789732,-110.0
