time,ECG
2023-08-16 12:12:19.497463,-267.0
2023-08-16 12:12:19.505152,-306.0
2023-08-16 12:12:19.512842,-323.0
2023-08-16 12:12:19.520531,-332.0
2023-08-16 12:12:19.528220,-345.0
2023-08-16 12:12:19.535909,-342.0
2023-08-16 12:12:19.543599,-323.0
2023-08-16 12:12:19.551288,-308.0
2023-08-16 12:12:19.558977,-306.0
2023-08-16 12:12:19.566667,-296.0
2023-08-16 12:12:19.574356,-282.0
2023-08-16 12:12:19.582045,-275.0
2023-08-16 12:12:19.589734,-265.0
2023-08-16 12:12:19.597424,-248.0
2023-08-16 12:12:19.605113,-234.0
2023-08-16 12:12:19.612802,-226.0
2023-08-16 12:12:19.620492,-219.0
2023-08-16 12:12:19.628181,-209.0
2023-08-16 12:12:19.635870,-202.0
2023-08-16 12:12:19.643560,-202.0
2023-08-16 12:12:19.651249,-197.0
2023-08-16 12:12:19.658938,-195.0
2023-08-16 12:12:19.666627,-195.0
2023-08-16 12:12:19.674317,-185.0
2023-08-16 12:12:19.682006,-173.0
2023-08-16 12:12:19.689695,-180.0
2023-08-16 12:12:19.697385,-183.0
2023-08-16 12:12:19.705074,-168.0
2023-08-16 12:12:19.712763,-159.0
2023-08-16 12:12:19.720452,-168.0
2023-08-16 12:12:19.728142,-173.0
2023-08-16 12:12:19.735831,-164.0
2023-08-16 12:12:19.743520,-161.0
2023-08-16 12:12:19.751210,-171.0
2023-08-16 12:12:19.758899,-166.0
2023-08-16 12:12:19.766588,-154.0
2023-08-16 12:12:19.774277,-149.0
2023-08-16 12:12:19.781967,-142.0
2023-08-16 12:12:19.789656,-130.0
2023-08-16 12:12:19.797345,-132.0
2023-08-16 12:12:19.805035,-142.0
2023-08-16 12:12:19.812724,-139.0
2023-08-16 12:12:19.820413,-127.0
2023-08-16 12:12:19.828103,-127.0
2023-08-16 12:12:19.835792,-127.0
2023-08-16 12:12:19.843481,-125.0
2023-08-16 12:12:19.851170,-123.0
2023-08-16 12:12:19.858860,-125.0
2023-08-16 12:12:19.866549,-123.0
2023-08-16 12:12:19.874238,-123.0
2023-08-16 12:12:19.881928,-120.0
2023-08-16 12:12:19.889617,-115.0
2023-08-16 12:12:19.897306,-118.0
2023-08-16 12:12:19.904995,-113.0
2023-08-16 12:12:19.912685,-103.0
2023-08-16 12:12:19.920374,-103.0
2023-08-16 12:12:19.928063,-106.0
2023-08-16 12:12:19.935753,-101.0
2023-08-16 12:12:19.943442,-101.0
2023-08-16 12:12:19.951131,-108.0
2023-08-16 12:12:19.958820,-101.0
2023-08-16 12:12:19.966510,-86.0
2023-08-16 12:12:19.974199,-86.0
2023-08-16 12:12:19.981888,-91.0
2023-08-16 12:12:19.989578,-86.0
2023-08-16 12:12:19.997267,-84.0
2023-08-16 12:12:20.004956,-84.0
2023-08-16 12:12:20.012646,-82.0
2023-08-16 12:12:20.020335,-91.0
2023-08-16 12:12:20.028024,-98.0
2023-08-16 12:12:20.035713,-96.0
2023-08-16 12:12:20.043403,-82.0
2023-08-16 12:12:20.051092,-60.0
2023-08-16 12:12:20.058781,-28.0
2023-08-16 12:12:20.066471,-9.0
2023-08-16 12:12:20.074160,-9.0
2023-08-16 12:12:20.081849,-16.0
2023-08-16 12:12:20.089538,-43.0
2023-08-16 12:12:20.097228,-72.0
2023-08-16 12:12:20.104917,-69.0
2023-08-16 12:12:20.112606,-65.0
2023-08-16 12:12:20.120296,-69.0
2023-08-16 12:12:20.127985,-62.0
2023-08-16 12:12:20.135674,-50.0
2023-08-16 12:12:20.143363,-53.0
2023-08-16 12:12:20.151053,-26.0
2023-08-16 12:12:20.158742,132.0
2023-08-16 12:12:20.166431,576.0
2023-08-16 12:12:20.174121,1206.0
2023-08-16 12:12:20.181810,1315.0
2023-08-16 12:12:20.189499,552.0
2023-08-16 12:12:20.197189,-301.0
2023-08-16 12:12:20.204878,-434.0
2023-08-16 12:12:20.212567,-101.0
2023-08-16 12:12:20.220256,-38.0
2023-08-16 12:12:20.227946,-164.0
2023-08-16 12:12:20.235635,-120.0
2023-08-16 12:12:20.243324,-74.0
2023-08-16 12:12:20.251014,-110.0
2023-08-16 12:12:20.258703,-106.0
2023-08-16 12:12:20.266392,-65.0
2023-08-16 12:12:20.274081,-48.0
2023-08-16 12:12:20.281771,-43.0
2023-08-16 12:12:20.289460,-28.0
2023-08-16 12:12:20.297149,-14.0
2023-08-16 12:12:20.304839,2.0
2023-08-16 12:12:20.312528,26.0
2023-08-16 12:12:20.320217,45.0
2023-08-16 12:12:20.327906,65.0
2023-08-16 12:12:20.335596,94.0
2023-08-16 12:12:20.343285,123.0
2023-08-16 12:12:20.350974,147.0
2023-08-16 12:12:20.358664,180.0
2023-08-16 12:12:20.366353,229.0
2023-08-16 12:12:20.374042,282.0
2023-08-16 12:12:20.381732,328.0
2023-08-16 12:12:20.389421,371.0
2023-08-16 12:12:20.397110,417.0
2023-08-16 12:12:20.404799,453.0
2023-08-16 12:12:20.412489,468.0
2023-08-16 12:12:20.420178,460.0
2023-08-16 12:12:20.427867,424.0
2023-08-16 12:12:20.435557,357.0
2023-08-16 12:12:20.443246,250.0
2023-08-16 12:12:20.450935,115.0
2023-08-16 12:12:20.458624,-26.0
2023-08-16 12:12:20.466314,-147.0
2023-08-16 12:12:20.474003,-229.0
2023-08-16 12:12:20.481692,-299.0
2023-08-16 12:12:20.489382,-347.0
2023-08-16 12:12:20.497071,-352.0
2023-08-16 12:12:20.504760,-349.0
2023-08-16 12:12:20.512449,-359.0
2023-08-16 12:12:20.520139,-359.0
2023-08-16 12:12:20.527828,-345.0
2023-08-16 12:12:20.535517,-332.0
2023-08-16 12:12:20.543207,-320.0
2023-08-16 12:12:20.550896,-304.0
2023-08-16 12:12:20.558585,-289.0
2023-08-16 12:12:20.566275,-277.0
2023-08-16 12:12:20.573964,-272.0
2023-08-16 12:12:20.581653,-260.0
2023-08-16 12:12:20.589342,-241.0
2023-08-16 12:12:20.597032,-231.0
2023-08-16 12:12:20.604721,-221.0
2023-08-16 12:12:20.612410,-212.0
2023-08-16 12:12:20.620100,-207.0
2023-08-16 12:12:20.627789,-207.0
2023-08-16 12:12:20.635478,-200.0
2023-08-16 12:12:20.643167,-188.0
2023-08-16 12:12:20.650857,-183.0
2023-08-16 12:12:20.658546,-183.0
2023-08-16 12:12:20.666235,-188.0
2023-08-16 12:12:20.673925,-190.0
2023-08-16 12:12:20.681614,-185.0
2023-08-16 12:12:20.689303,-171.0
2023-08-16 12:12:20.696993,-166.0
2023-08-16 12:12:20.704682,-171.0
2023-08-16 12:12:20.712371,-166.0
2023-08-16 12:12:20.720060,-161.0
2023-08-16 12:12:20.727750,-161.0
2023-08-16 12:12:20.735439,-159.0
2023-08-16 12:12:20.743128,-161.0
2023-08-16 12:12:20.750818,-161.0
2023-08-16 12:12:20.758507,-152.0
2023-08-16 12:12:20.766196,-149.0
2023-08-16 12:12:20.773885,-152.0
2023-08-16 12:12:20.781575,-147.0
2023-08-16 12:12:20.789264,-135.0
2023-08-16 12:12:20.796953,-130.0
2023-08-16 12:12:20.804643,-130.0
2023-08-16 12:12:20.812332,-132.0
2023-08-16 12:12:20.820021,-130.0
2023-08-16 12:12:20.827710,-118.0
2023-08-16 12:12:20.835400,-115.0
2023-08-16 12:12:20.843089,-123.0
2023-08-16 12:12:20.850778,-127.0
2023-08-16 12:12:20.858468,-115.0
2023-08-16 12:12:20.866157,-103.0
2023-08-16 12:12:20.873846,-106.0
2023-08-16 12:12:20.881536,-115.0
2023-08-16 12:12:20.889225,-120.0
2023-08-16 12:12:20.896914,-120.0
2023-08-16 12:12:20.904603,-113.0
2023-08-16 12:12:20.912293,-91.0
2023-08-16 12:12:20.919982,-55.0
2023-08-16 12:12:20.927671,-38.0
2023-08-16 12:12:20.935361,-41.0
2023-08-16 12:12:20.943050,-45.0
2023-08-16 12:12:20.950739,-65.0
2023-08-16 12:12:20.958428,-91.0
2023-08-16 12:12:20.966118,-94.0
2023-08-16 12:12:20.973807,-84.0
2023-08-16 12:12:20.981496,-91.0
2023-08-16 12:12:20.989186,-89.0
2023-08-16 12:12:20.996875,-82.0
2023-08-16 12:12:21.004564,-79.0
2023-08-16 12:12:21.012253,-60.0
2023-08-16 12:12:21.019943,31.0
2023-08-16 12:12:21.027632,337.0
2023-08-16 12:12:21.035321,928.0
2023-08-16 12:12:21.043011,1300.0
2023-08-16 12:12:21.050700,832.0
2023-08-16 12:12:21.058389,-108.0
2023-08-16 12:12:21.066079,-528.0
2023-08-16 12:12:21.073768,-236.0
2023-08-16 12:12:21.081457,-28.0
2023-08-16 12:12:21.089146,-147.0
2023-08-16 12:12:21.096836,-152.0
2023-08-16 12:12:21.104525,-82.0
2023-08-16 12:12:21.112214,-103.0
2023-08-16 12:12:21.119904,-106.0
2023-08-16 12:12:21.127593,-69.0
2023-08-16 12:12:21.135282,-67.0
2023-08-16 12:12:21.142971,-67.0
2023-08-16 12:12:21.150661,-41.0
2023-08-16 12:12:21.158350,-24.0
2023-08-16 12:12:21.166039,-14.0
2023-08-16 12:12:21.173729,7.0
2023-08-16 12:12:21.181418,26.0
2023-08-16 12:12:21.189107,53.0
2023-08-16 12:12:21.196796,79.0
2023-08-16 12:12:21.204486,101.0
2023-08-16 12:12:21.212175,130.0
2023-08-16 12:12:21.219864,173.0
2023-08-16 12:12:21.227554,219.0
2023-08-16 12:12:21.235243,267.0
2023-08-16 12:12:21.242932,316.0
2023-08-16 12:12:21.250622,361.0
2023-08-16 12:12:21.258311,402.0
2023-08-16 12:12:21.266000,439.0
2023-08-16 12:12:21.273689,460.0
2023-08-16 12:12:21.281379,456.0
2023-08-16 12:12:21.289068,424.0
2023-08-16 12:12:21.296757,359.0
2023-08-16 12:12:21.304447,253.0
2023-08-16 12:12:21.312136,115.0
2023-08-16 12:12:21.319825,-21.0
2023-08-16 12:12:21.327514,-137.0
2023-08-16 12:12:21.335204,-226.0
2023-08-16 12:12:21.342893,-289.0
2023-08-16 12:12:21.350582,-325.0
2023-08-16 12:12:21.358272,-340.0
2023-08-16 12:12:21.365961,-345.0
2023-08-16 12:12:21.373650,-352.0
2023-08-16 12:12:21.381339,-352.0
2023-08-16 12:12:21.389029,-342.0
2023-08-16 12:12:21.396718,-330.0
2023-08-16 12:12:21.404407,-323.0
2023-08-16 12:12:21.412097,-311.0
2023-08-16 12:12:21.419786,-299.0
2023-08-16 12:12:21.427475,-289.0
2023-08-16 12:12:21.435165,-272.0
2023-08-16 12:12:21.442854,-258.0
2023-08-16 12:12:21.450543,-250.0
2023-08-16 12:12:21.458232,-243.0
2023-08-16 12:12:21.465922,-229.0
2023-08-16 12:12:21.473611,-221.0
2023-08-16 12:12:21.481300,-219.0
2023-08-16 12:12:21.488990,-209.0
2023-08-16 12:12:21.496679,-202.0
2023-08-16 12:12:21.504368,-202.0
2023-08-16 12:12:21.512057,-197.0
2023-08-16 12:12:21.519747,-193.0
2023-08-16 12:12:21.527436,-190.0
2023-08-16 12:12:21.535125,-185.0
2023-08-16 12:12:21.542815,-183.0
2023-08-16 12:12:21.550504,-180.0
2023-08-16 12:12:21.558193,-180.0
2023-08-16 12:12:21.565882,-185.0
2023-08-16 12:12:21.573572,-183.0
2023-08-16 12:12:21.581261,-173.0
2023-08-16 12:12:21.588950,-173.0
2023-08-16 12:12:21.596640,-173.0
2023-08-16 12:12:21.604329,-166.0
2023-08-16 12:12:21.612018,-164.0
2023-08-16 12:12:21.619708,-164.0
2023-08-16 12:12:21.627397,-159.0
2023-08-16 12:12:21.635086,-152.0
2023-08-16 12:12:21.642775,-152.0
2023-08-16 12:12:21.650465,-149.0
2023-08-16 12:12:21.658154,-149.0
2023-08-16 12:12:21.665843,-147.0
2023-08-16 12:12:21.673533,-142.0
2023-08-16 12:12:21.681222,-137.0
2023-08-16 12:12:21.688911,-137.0
2023-08-16 12:12:21.696600,-135.0
2023-08-16 12:12:21.704290,-127.0
2023-08-16 12:12:21.711979,-127.0
2023-08-16 12:12:21.719668,-125.0
2023-08-16 12:12:21.727358,-123.0
2023-08-16 12:12:21.735047,-123.0
2023-08-16 12:12:21.742736,-123.0
2023-08-16 12:12:21.750425,-120.0
2023-08-16 12:12:21.758115,-123.0
2023-08-16 12:12:21.765804,-123.0
2023-08-16 12:12:21.773493,-118.0
2023-08-16 12:12:21.781183,-115.0
2023-08-16 12:12:21.788872,-115.0
2023-08-16 12:12:21.796561,-110.0
2023-08-16 12:12:21.804251,-103.0
2023-08-16 12:12:21.811940,-101.0
2023-08-16 12:12:21.819629,-101.0
2023-08-16 12:12:21.827318,-103.0
2023-08-16 12:12:21.835008,-98.0
2023-08-16 12:12:21.842697,-96.0
2023-08-16 12:12:21.850386,-98.0
2023-08-16 12:12:21.858076,-106.0
2023-08-16 12:12:21.865765,-110.0
2023-08-16 12:12:21.873454,-118.0
2023-08-16 12:12:21.881143,-113.0
2023-08-16 12:12:21.888833,-86.0
2023-08-16 12:12:21.896522,-48.0
2023-08-16 12:12:21.904211,-24.0
2023-08-16 12:12:21.911901,-24.0
2023-08-16 12:12:21.919590,-31.0
2023-08-16 12:12:21.927279,-53.0
2023-08-16 12:12:21.934968,-82.0
2023-08-16 12:12:21.942658,-89.0
2023-08-16 12:12:21.950347,-74.0
2023-08-16 12:12:21.958036,-74.0
2023-08-16 12:12:21.965726,-79.0
2023-08-16 12:12:21.973415,-72.0
2023-08-16 12:12:21.981104,-62.0
2023-08-16 12:12:21.988794,-53.0
2023-08-16 12:12:21.996483,2.0
2023-08-16 12:12:22.004172,299.0
2023-08-16 12:12:22.011861,989.0
2023-08-16 12:12:22.019551,1491.0
2023-08-16 12:12:22.027240,1083.0
2023-08-16 12:12:22.034929,127.0
2023-08-16 12:12:22.042619,-402.0
2023-08-16 12:12:22.050308,-234.0
2023-08-16 12:12:22.057997,-36.0
2023-08-16 12:12:22.065686,-142.0
2023-08-16 12:12:22.073376,-178.0
2023-08-16 12:12:22.081065,-108.0
2023-08-16 12:12:22.088754,-115.0
2023-08-16 12:12:22.096444,-130.0
2023-08-16 12:12:22.104133,-103.0
2023-08-16 12:12:22.111822,-96.0
2023-08-16 12:12:22.119512,-96.0
2023-08-16 12:12:22.127201,-74.0
2023-08-16 12:12:22.134890,-55.0
2023-08-16 12:12:22.142579,-50.0
2023-08-16 12:12:22.150269,-36.0
2023-08-16 12:12:22.157958,-14.0
2023-08-16 12:12:22.165647,7.0
2023-08-16 12:12:22.173337,28.0
2023-08-16 12:12:22.181026,57.0
2023-08-16 12:12:22.188715,86.0
2023-08-16 12:12:22.196404,118.0
2023-08-16 12:12:22.204094,156.0
2023-08-16 12:12:22.211783,200.0
2023-08-16 12:12:22.219472,243.0
2023-08-16 12:12:22.227162,287.0
2023-08-16 12:12:22.234851,332.0
2023-08-16 12:12:22.242540,366.0
2023-08-16 12:12:22.250229,386.0
2023-08-16 12:12:22.257919,386.0
2023-08-16 12:12:22.265608,364.0
2023-08-16 12:12:22.273297,325.0
2023-08-16 12:12:22.280987,258.0
2023-08-16 12:12:22.288676,154.0
2023-08-16 12:12:22.296365,36.0
2023-08-16 12:12:22.304055,-74.0
2023-08-16 12:12:22.311744,-168.0
2023-08-16 12:12:22.319433,-234.0
2023-08-16 12:12:22.327122,-275.0
2023-08-16 12:12:22.334812,-304.0
2023-08-16 12:12:22.342501,-318.0
2023-08-16 12:12:22.350190,-318.0
2023-08-16 12:12:22.357880,-316.0
2023-08-16 12:12:22.365569,-318.0
2023-08-16 12:12:22.373258,-313.0
2023-08-16 12:12:22.380947,-301.0
2023-08-16 12:12:22.388637,-291.0
2023-08-16 12:12:22.396326,-284.0
2023-08-16 12:12:22.404015,-272.0
2023-08-16 12:12:22.411705,-258.0
2023-08-16 12:12:22.419394,-248.0
2023-08-16 12:12:22.427083,-241.0
2023-08-16 12:12:22.434772,-229.0
2023-08-16 12:12:22.442462,-219.0
2023-08-16 12:12:22.450151,-209.0
2023-08-16 12:12:22.457840,-202.0
2023-08-16 12:12:22.465530,-197.0
2023-08-16 12:12:22.473219,-193.0
2023-08-16 12:12:22.480908,-188.0
2023-08-16 12:12:22.488598,-178.0
2023-08-16 12:12:22.496287,-176.0
2023-08-16 12:12:22.503976,-176.0
2023-08-16 12:12:22.511665,-176.0
2023-08-16 12:12:22.519355,-176.0
2023-08-16 12:12:22.527044,-173.0
2023-08-16 12:12:22.534733,-173.0
2023-08-16 12:12:22.542423,-171.0
2023-08-16 12:12:22.550112,-168.0
2023-08-16 12:12:22.557801,-168.0
2023-08-16 12:12:22.565490,-166.0
2023-08-16 12:12:22.573180,-161.0
2023-08-16 12:12:22.580869,-159.0
2023-08-16 12:12:22.588558,-156.0
2023-08-16 12:12:22.596248,-154.0
2023-08-16 12:12:22.603937,-154.0
2023-08-16 12:12:22.611626,-156.0
2023-08-16 12:12:22.619315,-154.0
2023-08-16 12:12:22.627005,-147.0
2023-08-16 12:12:22.634694,-144.0
2023-08-16 12:12:22.642383,-142.0
2023-08-16 12:12:22.650073,-139.0
2023-08-16 12:12:22.657762,-135.0
2023-08-16 12:12:22.665451,-130.0
2023-08-16 12:12:22.673141,-125.0
2023-08-16 12:12:22.680830,-125.0
2023-08-16 12:12:22.688519,-132.0
2023-08-16 12:12:22.696208,-135.0
2023-08-16 12:12:22.703898,-127.0
2023-08-16 12:12:22.711587,-123.0
2023-08-16 12:12:22.719276,-120.0
2023-08-16 12:12:22.726966,-118.0
2023-08-16 12:12:22.734655,-115.0
2023-08-16 12:12:22.742344,-115.0
2023-08-16 12:12:22.750033,-113.0
2023-08-16 12:12:22.757723,-113.0
2023-08-16 12:12:22.765412,-118.0
2023-08-16 12:12:22.773101,-115.0
2023-08-16 12:12:22.780791,-110.0
2023-08-16 12:12:22.788480,-108.0
2023-08-16 12:12:22.796169,-106.0
2023-08-16 12:12:22.803858,-101.0
2023-08-16 12:12:22.811548,-96.0
2023-08-16 12:12:22.819237,-94.0
2023-08-16 12:12:22.826926,-94.0
2023-08-16 12:12:22.834616,-89.0
2023-08-16 12:12:22.842305,-86.0
2023-08-16 12:12:22.849994,-89.0
2023-08-16 12:12:22.857684,-89.0
2023-08-16 12:12:22.865373,-89.0
2023-08-16 12:12:22.873062,-84.0
2023-08-16 12:12:22.880751,-86.0
2023-08-16 12:12:22.888441,-94.0
2023-08-16 12:12:22.896130,-98.0
2023-08-16 12:12:22.903819,-98.0
2023-08-16 12:12:22.911509,-86.0
2023-08-16 12:12:22.919198,-53.0
2023-08-16 12:12:22.926887,-12.0
2023-08-16 12:12:22.934576,0.0
2023-08-16 12:12:22.942266,-14.0
2023-08-16 12:12:22.949955,-24.0
2023-08-16 12:12:22.957644,-45.0
2023-08-16 12:12:22.965334,-74.0
2023-08-16 12:12:22.973023,-74.0
2023-08-16 12:12:22.980712,-65.0
2023-08-16 12:12:22.988401,-67.0
2023-08-16 12:12:22.996091,-65.0
2023-08-16 12:12:23.003780,-60.0
2023-08-16 12:12:23.011469,-55.0
2023-08-16 12:12:23.019159,-41.0
2023-08-16 12:12:23.026848,38.0
2023-08-16 12:12:23.034537,419.0
2023-08-16 12:12:23.042227,1158.0
2023-08-16 12:12:23.049916,1520.0
2023-08-16 12:12:23.057605,941.0
2023-08-16 12:12:23.065294,-2.0
2023-08-16 12:12:23.072984,-407.0
2023-08-16 12:12:23.080673,-166.0
2023-08-16 12:12:23.088362,-16.0
2023-08-16 12:12:23.096052,-159.0
2023-08-16 12:12:23.103741,-171.0
2023-08-16 12:12:23.111430,-101.0
2023-08-16 12:12:23.119119,-120.0
2023-08-16 12:12:23.126809,-127.0
2023-08-16 12:12:23.134498,-86.0
2023-08-16 12:12:23.142187,-74.0
2023-08-16 12:12:23.149877,-69.0
2023-08-16 12:12:23.157566,-50.0
2023-08-16 12:12:23.165255,-33.0
2023-08-16 12:12:23.172944,-21.0
2023-08-16 12:12:23.180634,0.0
2023-08-16 12:12:23.188323,21.0
2023-08-16 12:12:23.196012,41.0
2023-08-16 12:12:23.203702,62.0
2023-08-16 12:12:23.211391,89.0
2023-08-16 12:12:23.219080,120.0
2023-08-16 12:12:23.226770,147.0
2023-08-16 12:12:23.234459,178.0
2023-08-16 12:12:23.242148,224.0
2023-08-16 12:12:23.249837,272.0
2023-08-16 12:12:23.257527,313.0
2023-08-16 12:12:23.265216,354.0
2023-08-16 12:12:23.272905,383.0
2023-08-16 12:12:23.280595,402.0
2023-08-16 12:12:23.288284,405.0
2023-08-16 12:12:23.295973,386.0
2023-08-16 12:12:23.303662,342.0
2023-08-16 12:12:23.311352,270.0
2023-08-16 12:12:23.319041,164.0
2023-08-16 12:12:23.326730,41.0
2023-08-16 12:12:23.334420,-72.0
2023-08-16 12:12:23.342109,-166.0
2023-08-16 12:12:23.349798,-236.0
2023-08-16 12:12:23.357487,-279.0
2023-08-16 12:12:23.365177,-304.0
2023-08-16 12:12:23.372866,-313.0
2023-08-16 12:12:23.380555,-316.0
2023-08-16 12:12:23.388245,-311.0
2023-08-16 12:12:23.395934,-306.0
2023-08-16 12:12:23.403623,-296.0
2023-08-16 12:12:23.411313,-287.0
2023-08-16 12:12:23.419002,-277.0
2023-08-16 12:12:23.426691,-265.0
2023-08-16 12:12:23.434380,-255.0
2023-08-16 12:12:23.442070,-246.0
2023-08-16 12:12:23.449759,-238.0
2023-08-16 12:12:23.457448,-229.0
2023-08-16 12:12:23.465138,-214.0
2023-08-16 12:12:23.472827,-200.0
2023-08-16 12:12:23.480516,-193.0
2023-08-16 12:12:23.488205,-188.0
2023-08-16 12:12:23.495895,-188.0
2023-08-16 12:12:23.503584,-188.0
2023-08-16 12:12:23.511273,-183.0
2023-08-16 12:12:23.518963,-178.0
2023-08-16 12:12:23.526652,-173.0
2023-08-16 12:12:23.534341,-164.0
2023-08-16 12:12:23.542031,-154.0
2023-08-16 12:12:23.549720,-154.0
2023-08-16 12:12:23.557409,-149.0
2023-08-16 12:12:23.565098,-149.0
2023-08-16 12:12:23.572788,-152.0
2023-08-16 12:12:23.580477,-152.0
2023-08-16 12:12:23.588166,-147.0
2023-08-16 12:12:23.595856,-152.0
2023-08-16 12:12:23.603545,-152.0
2023-08-16 12:12:23.611234,-144.0
2023-08-16 12:12:23.618923,-139.0
2023-08-16 12:12:23.626613,-142.0
2023-08-16 12:12:23.634302,-139.0
2023-08-16 12:12:23.641991,-137.0
2023-08-16 12:12:23.649681,-135.0
2023-08-16 12:12:23.657370,-132.0
2023-08-16 12:12:23.665059,-127.0
2023-08-16 12:12:23.672748,-125.0
2023-08-16 12:12:23.680438,-125.0
2023-08-16 12:12:23.688127,-120.0
2023-08-16 12:12:23.695816,-115.0
2023-08-16 12:12:23.703506,-115.0
2023-08-16 12:12:23.711195,-113.0
2023-08-16 12:12:23.718884,-113.0
2023-08-16 12:12:23.726574,-113.0
2023-08-16 12:12:23.734263,-108.0
2023-08-16 12:12:23.741952,-103.0
2023-08-16 12:12:23.749641,-101.0
2023-08-16 12:12:23.757331,-103.0
2023-08-16 12:12:23.765020,-103.0
2023-08-16 12:12:23.772709,-106.0
2023-08-16 12:12:23.780399,-106.0
2023-08-16 12:12:23.788088,-103.0
2023-08-16 12:12:23.795777,-101.0
2023-08-16 12:12:23.803466,-101.0
2023-08-16 12:12:23.811156,-106.0
2023-08-16 12:12:23.818845,-108.0
2023-08-16 12:12:23.826534,-101.0
2023-08-16 12:12:23.834224,-98.0
2023-08-16 12:12:23.841913,-106.0
2023-08-16 12:12:23.849602,-106.0
2023-08-16 12:12:23.857291,-101.0
2023-08-16 12:12:23.864981,-101.0
2023-08-16 12:12:23.872670,-98.0
2023-08-16 12:12:23.880359,-91.0
2023-08-16 12:12:23.888049,-89.0
2023-08-16 12:12:23.895738,-91.0
2023-08-16 12:12:23.903427,-86.0
2023-08-16 12:12:23.911117,-84.0
2023-08-16 12:12:23.918806,-84.0
2023-08-16 12:12:23.926495,-84.0
2023-08-16 12:12:23.934184,-84.0
2023-08-16 12:12:23.941874,-94.0
2023-08-16 12:12:23.949563,-98.0
2023-08-16 12:12:23.957252,-86.0
2023-08-16 12:12:23.964942,-55.0
2023-08-16 12:12:23.972631,-21.0
2023-08-16 12:12:23.980320,0.0
2023-08-16 12:12:23.988009,2.0
2023-08-16 12:12:23.995699,-9.0
2023-08-16 12:12:24.003388,-36.0
2023-08-16 12:12:24.011077,-65.0
2023-08-16 12:12:24.018767,-65.0
2023-08-16 12:12:24.026456,-57.0
2023-08-16 12:12:24.034145,-62.0
2023-08-16 12:12:24.041834,-62.0
2023-08-16 12:12:24.049524,-55.0
2023-08-16 12:12:24.057213,-48.0
2023-08-16 12:12:24.064902,-33.0
2023-08-16 12:12:24.072592,41.0
2023-08-16 12:12:24.080281,364.0
2023-08-16 12:12:24.087970,1049.0
2023-08-16 12:12:24.095660,1491.0
2023-08-16 12:12:24.103349,1023.0
2023-08-16 12:12:24.111038,62.0
2023-08-16 12:12:24.118727,-412.0
2023-08-16 12:12:24.126417,-193.0
2023-08-16 12:12:24.134106,-14.0
2023-08-16 12:12:24.141795,-147.0
2023-08-16 12:12:24.149485,-166.0
2023-08-16 12:12:24.157174,-84.0
2023-08-16 12:12:24.164863,-98.0
2023-08-16 12:12:24.172552,-113.0
2023-08-16 12:12:24.180242,-79.0
2023-08-16 12:12:24.187931,-67.0
2023-08-16 12:12:24.195620,-57.0
2023-08-16 12:12:24.203310,-31.0
2023-08-16 12:12:24.210999,-14.0
2023-08-16 12:12:24.218688,-4.0
2023-08-16 12:12:24.226377,9.0
2023-08-16 12:12:24.234067,28.0
2023-08-16 12:12:24.241756,48.0
2023-08-16 12:12:24.249445,74.0
2023-08-16 12:12:24.257135,103.0
2023-08-16 12:12:24.264824,132.0
2023-08-16 12:12:24.272513,159.0
2023-08-16 12:12:24.280203,190.0
2023-08-16 12:12:24.287892,236.0
2023-08-16 12:12:24.295581,289.0
2023-08-16 12:12:24.303270,340.0
2023-08-16 12:12:24.310960,386.0
2023-08-16 12:12:24.318649,412.0
2023-08-16 12:12:24.326338,431.0
2023-08-16 12:12:24.334028,439.0
2023-08-16 12:12:24.341717,419.0
2023-08-16 12:12:24.349406,371.0
2023-08-16 12:12:24.357095,301.0
2023-08-16 12:12:24.364785,195.0
2023-08-16 12:12:24.372474,62.0
2023-08-16 12:12:24.380163,-57.0
2023-08-16 12:12:24.387853,-152.0
2023-08-16 12:12:24.395542,-231.0
2023-08-16 12:12:24.403231,-294.0
2023-08-16 12:12:24.410920,-320.0
2023-08-16 12:12:24.418610,-332.0
2023-08-16 12:12:24.426299,-345.0
2023-08-16 12:12:24.433988,-347.0
2023-08-16 12:12:24.441678,-325.0
2023-08-16 12:12:24.449367,-313.0
2023-08-16 12:12:24.457056,-316.0
2023-08-16 12:12:24.464746,-306.0
2023-08-16 12:12:24.472435,-287.0
2023-08-16 12:12:24.480124,-282.0
2023-08-16 12:12:24.487813,-275.0
2023-08-16 12:12:24.495503,-255.0
2023-08-16 12:12:24.503192,-243.0
2023-08-16 12:12:24.510881,-241.0
2023-08-16 12:12:24.518571,-231.0
2023-08-16 12:12:24.526260,-217.0
2023-08-16 12:12:24.533949,-207.0
2023-08-16 12:12:24.541638,-200.0
2023-08-16 12:12:24.549328,-197.0
2023-08-16 12:12:24.557017,-197.0
2023-08-16 12:12:24.564706,-193.0
2023-08-16 12:12:24.572396,-188.0
2023-08-16 12:12:24.580085,-185.0
2023-08-16 12:12:24.587774,-185.0
2023-08-16 12:12:24.595463,-180.0
2023-08-16 12:12:24.603153,-183.0
2023-08-16 12:12:24.610842,-185.0
2023-08-16 12:12:24.618531,-176.0
2023-08-16 12:12:24.626221,-164.0
2023-08-16 12:12:24.633910,-164.0
2023-08-16 12:12:24.641599,-168.0
2023-08-16 12:12:24.649289,-164.0
2023-08-16 12:12:24.656978,-152.0
2023-08-16 12:12:24.664667,-152.0
2023-08-16 12:12:24.672356,-156.0
2023-08-16 12:12:24.680046,-159.0
2023-08-16 12:12:24.687735,-147.0
2023-08-16 12:12:24.695424,-137.0
2023-08-16 12:12:24.703114,-139.0
2023-08-16 12:12:24.710803,-139.0
2023-08-16 12:12:24.718492,-137.0
2023-08-16 12:12:24.726181,-130.0
2023-08-16 12:12:24.733871,-123.0
2023-08-16 12:12:24.741560,-125.0
2023-08-16 12:12:24.749249,-123.0
2023-08-16 12:12:24.756939,-118.0
2023-08-16 12:12:24.764628,-120.0
2023-08-16 12:12:24.772317,-123.0
2023-08-16 12:12:24.780007,-125.0
2023-08-16 12:12:24.787696,-127.0
2023-08-16 12:12:24.795385,-118.0
2023-08-16 12:12:24.803074,-106.0
2023-08-16 12:12:24.810764,-108.0
2023-08-16 12:12:24.818453,-110.0
2023-08-16 12:12:24.826142,-108.0
2023-08-16 12:12:24.833832,-110.0
2023-08-16 12:12:24.841521,-113.0
2023-08-16 12:12:24.849210,-108.0
2023-08-16 12:12:24.856899,-101.0
2023-08-16 12:12:24.864589,-96.0
2023-08-16 12:12:24.872278,-98.0
2023-08-16 12:12:24.879967,-101.0
2023-08-16 12:12:24.887657,-106.0
2023-08-16 12:12:24.895346,-108.0
2023-08-16 12:12:24.903035,-101.0
2023-08-16 12:12:24.910724,-79.0
2023-08-16 12:12:24.918414,-50.0
2023-08-16 12:12:24.926103,-33.0
2023-08-16 12:12:24.933792,-28.0
2023-08-16 12:12:24.941482,-33.0
2023-08-16 12:12:24.949171,-67.0
2023-08-16 12:12:24.956860,-103.0
2023-08-16 12:12:24.964550,-96.0
2023-08-16 12:12:24.972239,-74.0
2023-08-16 12:12:24.979928,-84.0
2023-08-16 12:12:24.987617,-91.0
2023-08-16 12:12:24.995307,-74.0
2023-08-16 12:12:25.002996,-67.0
2023-08-16 12:12:25.010685,-65.0
2023-08-16 12:12:25.018375,9.0
2023-08-16 12:12:25.026064,294.0
2023-08-16 12:12:25.033753,895.0
2023-08-16 12:12:25.041442,1368.0
2023-08-16 12:12:25.049132,1003.0
2023-08-16 12:12:25.056821,43.0
2023-08-16 12:12:25.064510,-477.0
2023-08-16 12:12:25.072200,-253.0
2023-08-16 12:12:25.079889,-28.0
2023-08-16 12:12:25.087578,-127.0
2023-08-16 12:12:25.095267,-159.0
2023-08-16 12:12:25.102957,-86.0
2023-08-16 12:12:25.110646,-91.0
2023-08-16 12:12:25.118335,-98.0
2023-08-16 12:12:25.126025,-67.0
2023-08-16 12:12:25.133714,-55.0
2023-08-16 12:12:25.141403,-57.0
2023-08-16 12:12:25.149093,-38.0
2023-08-16 12:12:25.156782,-16.0
2023-08-16 12:12:25.164471,-7.0
2023-08-16 12:12:25.172160,14.0
2023-08-16 12:12:25.179850,41.0
2023-08-16 12:12:25.187539,53.0
2023-08-16 12:12:25.195228,74.0
2023-08-16 12:12:25.202918,113.0
2023-08-16 12:12:25.210607,142.0
2023-08-16 12:12:25.218296,171.0
2023-08-16 12:12:25.225985,214.0
2023-08-16 12:12:25.233675,265.0
2023-08-16 12:12:25.241364,313.0
2023-08-16 12:12:25.249053,369.0
2023-08-16 12:12:25.256743,424.0
2023-08-16 12:12:25.264432,465.0
2023-08-16 12:12:25.272121,487.0
2023-08-16 12:12:25.279810,497.0
2023-08-16 12:12:25.287500,468.0
2023-08-16 12:12:25.295189,395.0
2023-08-16 12:12:25.302878,301.0
2023-08-16 12:12:25.310568,183.0
2023-08-16 12:12:25.318257,38.0
2023-08-16 12:12:25.325946,-103.0
2023-08-16 12:12:25.333636,-209.0
2023-08-16 12:12:25.341325,-272.0
2023-08-16 12:12:25.349014,-313.0
2023-08-16 12:12:25.356703,-347.0
2023-08-16 12:12:25.364393,-352.0
2023-08-16 12:12:25.372082,-347.0
2023-08-16 12:12:25.379771,-354.0
2023-08-16 12:12:25.387461,-354.0
2023-08-16 12:12:25.395150,-342.0
2023-08-16 12:12:25.402839,-328.0
2023-08-16 12:12:25.410528,-313.0
2023-08-16 12:12:25.418218,-304.0
2023-08-16 12:12:25.425907,-294.0
2023-08-16 12:12:25.433596,-284.0
2023-08-16 12:12:25.441286,-272.0
2023-08-16 12:12:25.448975,-263.0
2023-08-16 12:12:25.456664,-250.0
2023-08-16 12:12:25.464353,-241.0
2023-08-16 12:12:25.472043,-238.0
2023-08-16 12:12:25.479732,-236.0
2023-08-16 12:12:25.487421,-231.0
2023-08-16 12:12:25.495111,-221.0
2023-08-16 12:12:25.502800,-217.0
2023-08-16 12:12:25.510489,-214.0
2023-08-16 12:12:25.518179,-212.0
2023-08-16 12:12:25.525868,-202.0
2023-08-16 12:12:25.533557,-195.0
2023-08-16 12:12:25.541246,-195.0
2023-08-16 12:12:25.548936,-193.0
2023-08-16 12:12:25.556625,-193.0
2023-08-16 12:12:25.564314,-190.0
2023-08-16 12:12:25.572004,-183.0
2023-08-16 12:12:25.579693,-183.0
2023-08-16 12:12:25.587382,-183.0
2023-08-16 12:12:25.595071,-168.0
2023-08-16 12:12:25.602761,-164.0
2023-08-16 12:12:25.610450,-168.0
2023-08-16 12:12:25.618139,-161.0
2023-08-16 12:12:25.625829,-154.0
2023-08-16 12:12:25.633518,-156.0
2023-08-16 12:12:25.641207,-149.0
2023-08-16 12:12:25.648896,-137.0
2023-08-16 12:12:25.656586,-139.0
2023-08-16 12:12:25.664275,-139.0
2023-08-16 12:12:25.671964,-130.0
2023-08-16 12:12:25.679654,-125.0
2023-08-16 12:12:25.687343,-127.0
2023-08-16 12:12:25.695032,-127.0
2023-08-16 12:12:25.702722,-123.0
2023-08-16 12:12:25.710411,-115.0
2023-08-16 12:12:25.718100,-113.0
2023-08-16 12:12:25.725789,-110.0
2023-08-16 12:12:25.733479,-110.0
2023-08-16 12:12:25.741168,-110.0
2023-08-16 12:12:25.748857,-110.0
2023-08-16 12:12:25.756547,-106.0
2023-08-16 12:12:25.764236,-101.0
2023-08-16 12:12:25.771925,-98.0
2023-08-16 12:12:25.779614,-101.0
2023-08-16 12:12:25.787304,-110.0
2023-08-16 12:12:25.794993,-120.0
2023-08-16 12:12:25.802682,-118.0
2023-08-16 12:12:25.810372,-115.0
2023-08-16 12:12:25.818061,-103.0
2023-08-16 12:12:25.825750,-72.0
2023-08-16 12:12:25.833439,-43.0
2023-08-16 12:12:25.841129,-38.0
2023-08-16 12:12:25.848818,-43.0
2023-08-16 12:12:25.856507,-55.0
2023-08-16 12:12:25.864197,-82.0
2023-08-16 12:12:25.871886,-91.0
2023-08-16 12:12:25.879575,-84.0
2023-08-16 12:12:25.887265,-86.0
2023-08-16 12:12:25.894954,-86.0
2023-08-16 12:12:25.902643,-77.0
2023-08-16 12:12:25.910332,-77.0
2023-08-16 12:12:25.918022,-72.0
2023-08-16 12:12:25.925711,-33.0
2023-08-16 12:12:25.933400,139.0
2023-08-16 12:12:25.941090,649.0
2023-08-16 12:12:25.948779,1293.0
2023-08-16 12:12:25.956468,1264.0
2023-08-16 12:12:25.964157,424.0
2023-08-16 12:12:25.971847,-335.0
2023-08-16 12:12:25.979536,-374.0
2023-08-16 12:12:25.987225,-79.0
2023-08-16 12:12:25.994915,-77.0
2023-08-16 12:12:26.002604,-185.0
2023-08-16 12:12:26.010293,-127.0
2023-08-16 12:12:26.017982,-96.0
2023-08-16 12:12:26.025672,-130.0
2023-08-16 12:12:26.033361,-106.0
2023-08-16 12:12:26.041050,-72.0
2023-08-16 12:12:26.048740,-69.0
2023-08-16 12:12:26.056429,-67.0
2023-08-16 12:12:26.064118,-55.0
2023-08-16 12:12:26.071808,-43.0
2023-08-16 12:12:26.079497,-24.0
2023-08-16 12:12:26.087186,-2.0
2023-08-16 12:12:26.094875,19.0
2023-08-16 12:12:26.102565,41.0
2023-08-16 12:12:26.110254,69.0
2023-08-16 12:12:26.117943,98.0
2023-08-16 12:12:26.125633,132.0
2023-08-16 12:12:26.133322,176.0
2023-08-16 12:12:26.141011,219.0
2023-08-16 12:12:26.148700,265.0
2023-08-16 12:12:26.156390,313.0
2023-08-16 12:12:26.164079,364.0
2023-08-16 12:12:26.171768,405.0
2023-08-16 12:12:26.179458,431.0
2023-08-16 12:12:26.187147,441.0
2023-08-16 12:12:26.194836,427.0
2023-08-16 12:12:26.202526,388.0
2023-08-16 12:12:26.210215,316.0
2023-08-16 12:12:26.217904,207.0
2023-08-16 12:12:26.225593,79.0
2023-08-16 12:12:26.233283,-43.0
2023-08-16 12:12:26.240972,-154.0
2023-08-16 12:12:26.248661,-236.0
2023-08-16 12:12:26.256351,-284.0
2023-08-16 12:12:26.264040,-313.0
2023-08-16 12:12:26.271729,-330.0
2023-08-16 12:12:26.279418,-335.0
2023-08-16 12:12:26.287108,-337.0
2023-08-16 12:12:26.294797,-340.0
2023-08-16 12:12:26.302486,-340.0
2023-08-16 12:12:26.310176,-328.0
2023-08-16 12:12:26.317865,-316.0
2023-08-16 12:12:26.325554,-306.0
2023-08-16 12:12:26.333243,-294.0
2023-08-16 12:12:26.340933,-279.0
2023-08-16 12:12:26.348622,-267.0
2023-08-16 12:12:26.356311,-253.0
2023-08-16 12:12:26.364001,-241.0
2023-08-16 12:12:26.371690,-234.0
2023-08-16 12:12:26.379379,-221.0
2023-08-16 12:12:26.387069,-212.0
2023-08-16 12:12:26.394758,-207.0
2023-08-16 12:12:26.402447,-202.0
2023-08-16 12:12:26.410136,-197.0
2023-08-16 12:12:26.417826,-197.0
2023-08-16 12:12:26.425515,-195.0
2023-08-16 12:12:26.433204,-190.0
2023-08-16 12:12:26.440894,-188.0
2023-08-16 12:12:26.448583,-185.0
2023-08-16 12:12:26.456272,-180.0
2023-08-16 12:12:26.463961,-178.0
2023-08-16 12:12:26.471651,-178.0
2023-08-16 12:12:26.479340,-176.0
2023-08-16 12:12:26.487029,-171.0
2023-08-16 12:12:26.494719,-168.0
2023-08-16 12:12:26.502408,-166.0
2023-08-16 12:12:26.510097,-161.0
2023-08-16 12:12:26.517786,-159.0
2023-08-16 12:12:26.525476,-154.0
2023-08-16 12:12:26.533165,-152.0
2023-08-16 12:12:26.540854,-147.0
2023-08-16 12:12:26.548544,-144.0
2023-08-16 12:12:26.556233,-144.0
2023-08-16 12:12:26.563922,-144.0
2023-08-16 12:12:26.571612,-139.0
2023-08-16 12:12:26.579301,-137.0
2023-08-16 12:12:26.586990,-132.0
2023-08-16 12:12:26.594679,-130.0
2023-08-16 12:12:26.602369,-135.0
2023-08-16 12:12:26.610058,-137.0
2023-08-16 12:12:26.617747,-135.0
2023-08-16 12:12:26.625437,-127.0
2023-08-16 12:12:26.633126,-125.0
2023-08-16 12:12:26.640815,-123.0
2023-08-16 12:12:26.648504,-120.0
2023-08-16 12:12:26.656194,-115.0
2023-08-16 12:12:26.663883,-115.0
2023-08-16 12:12:26.671572,-113.0
2023-08-16 12:12:26.679262,-110.0
2023-08-16 12:12:26.686951,-106.0
2023-08-16 12:12:26.694640,-106.0
2023-08-16 12:12:26.702329,-103.0
2023-08-16 12:12:26.710019,-98.0
2023-08-16 12:12:26.717708,-96.0
2023-08-16 12:12:26.725397,-96.0
2023-08-16 12:12:26.733087,-94.0
2023-08-16 12:12:26.740776,-91.0
2023-08-16 12:12:26.748465,-94.0
2023-08-16 12:12:26.756155,-96.0
2023-08-16 12:12:26.763844,-103.0
2023-08-16 12:12:26.771533,-106.0
2023-08-16 12:12:26.779222,-101.0
2023-08-16 12:12:26.786912,-84.0
2023-08-16 12:12:26.794601,-48.0
2023-08-16 12:12:26.802290,-26.0
2023-08-16 12:12:26.809980,-28.0
2023-08-16 12:12:26.817669,-33.0
2023-08-16 12:12:26.825358,-45.0
2023-08-16 12:12:26.833047,-79.0
2023-08-16 12:12:26.840737,-96.0
2023-08-16 12:12:26.848426,-84.0
2023-08-16 12:12:26.856115,-82.0
2023-08-16 12:12:26.863805,-82.0
2023-08-16 12:12:26.871494,-74.0
2023-08-16 12:12:26.879183,-69.0
2023-08-16 12:12:26.886872,-62.0
2023-08-16 12:12:26.894562,-28.0
2023-08-16 12:12:26.902251,149.0
2023-08-16 12:12:26.909940,719.0
2023-08-16 12:12:26.917630,1399.0
2023-08-16 12:12:26.925319,1343.0
2023-08-16 12:12:26.933008,484.0
2023-08-16 12:12:26.940698,-287.0
2023-08-16 12:12:26.948387,-357.0
2023-08-16 12:12:26.956076,-79.0
2023-08-16 12:12:26.963765,-82.0
2023-08-16 12:12:26.971455,-202.0
2023-08-16 12:12:26.979144,-147.0
2023-08-16 12:12:26.986833,-108.0
2023-08-16 12:12:26.994523,-137.0
2023-08-16 12:12:27.002212,-118.0
2023-08-16 12:12:27.009901,-86.0
2023-08-16 12:12:27.017590,-84.0
2023-08-16 12:12:27.025280,-72.0
2023-08-16 12:12:27.032969,-53.0
2023-08-16 12:12:27.040658,-41.0
2023-08-16 12:12:27.048348,-28.0
2023-08-16 12:12:27.056037,-7.0
2023-08-16 12:12:27.063726,14.0
2023-08-16 12:12:27.071415,38.0
2023-08-16 12:12:27.079105,65.0
2023-08-16 12:12:27.086794,94.0
2023-08-16 12:12:27.094483,127.0
2023-08-16 12:12:27.102173,164.0
2023-08-16 12:12:27.109862,207.0
2023-08-16 12:12:27.117551,253.0
2023-08-16 12:12:27.125241,299.0
2023-08-16 12:12:27.132930,342.0
2023-08-16 12:12:27.140619,376.0
2023-08-16 12:12:27.148308,398.0
2023-08-16 12:12:27.155998,407.0
2023-08-16 12:12:27.163687,400.0
2023-08-16 12:12:27.171376,366.0
2023-08-16 12:12:27.179066,306.0
2023-08-16 12:12:27.186755,214.0
2023-08-16 12:12:27.194444,98.0
2023-08-16 12:12:27.202133,-26.0
2023-08-16 12:12:27.209823,-132.0
2023-08-16 12:12:27.217512,-214.0
2023-08-16 12:12:27.225201,-270.0
2023-08-16 12:12:27.232891,-304.0
2023-08-16 12:12:27.240580,-323.0
2023-08-16 12:12:27.248269,-328.0
2023-08-16 12:12:27.255958,-325.0
2023-08-16 12:12:27.263648,-318.0
2023-08-16 12:12:27.271337,-311.0
2023-08-16 12:12:27.279026,-301.0
2023-08-16 12:12:27.286716,-294.0
2023-08-16 12:12:27.294405,-287.0
2023-08-16 12:12:27.302094,-277.0
2023-08-16 12:12:27.309784,-272.0
2023-08-16 12:12:27.317473,-267.0
2023-08-16 12:12:27.325162,-258.0
2023-08-16 12:12:27.332851,-248.0
2023-08-16 12:12:27.340541,-241.0
2023-08-16 12:12:27.348230,-231.0
2023-08-16 12:12:27.355919,-224.0
2023-08-16 12:12:27.363609,-221.0
2023-08-16 12:12:27.371298,-214.0
2023-08-16 12:12:27.378987,-207.0
2023-08-16 12:12:27.386676,-202.0
2023-08-16 12:12:27.394366,-197.0
2023-08-16 12:12:27.402055,-193.0
2023-08-16 12:12:27.409744,-190.0
2023-08-16 12:12:27.417434,-188.0
2023-08-16 12:12:27.425123,-183.0
2023-08-16 12:12:27.432812,-178.0
2023-08-16 12:12:27.440501,-173.0
2023-08-16 12:12:27.448191,-173.0
2023-08-16 12:12:27.455880,-176.0
2023-08-16 12:12:27.463569,-171.0
2023-08-16 12:12:27.471259,-164.0
2023-08-16 12:12:27.478948,-161.0
2023-08-16 12:12:27.486637,-156.0
2023-08-16 12:12:27.494327,-152.0
2023-08-16 12:12:27.502016,-152.0
2023-08-16 12:12:27.509705,-149.0
2023-08-16 12:12:27.517394,-144.0
2023-08-16 12:12:27.525084,-139.0
2023-08-16 12:12:27.532773,-137.0
2023-08-16 12:12:27.540462,-139.0
2023-08-16 12:12:27.548152,-144.0
2023-08-16 12:12:27.555841,-142.0
2023-08-16 12:12:27.563530,-137.0
2023-08-16 12:12:27.571219,-132.0
2023-08-16 12:12:27.578909,-130.0
2023-08-16 12:12:27.586598,-125.0
2023-08-16 12:12:27.594287,-123.0
2023-08-16 12:12:27.601977,-120.0
2023-08-16 12:12:27.609666,-115.0
2023-08-16 12:12:27.617355,-110.0
2023-08-16 12:12:27.625045,-106.0
2023-08-16 12:12:27.632734,-106.0
2023-08-16 12:12:27.640423,-108.0
2023-08-16 12:12:27.648112,-103.0
2023-08-16 12:12:27.655802,-101.0
2023-08-16 12:12:27.663491,-98.0
2023-08-16 12:12:27.671180,-96.0
2023-08-16 12:12:27.678870,-96.0
2023-08-16 12:12:27.686559,-96.0
2023-08-16 12:12:27.694248,-91.0
2023-08-16 12:12:27.701937,-89.0
2023-08-16 12:12:27.709627,-86.0
2023-08-16 12:12:27.717316,-84.0
2023-08-16 12:12:27.725005,-84.0
2023-08-16 12:12:27.732695,-86.0
2023-08-16 12:12:27.740384,-82.0
2023-08-16 12:12:27.748073,-77.0
2023-08-16 12:12:27.755762,-74.0
2023-08-16 12:12:27.763452,-74.0
2023-08-16 12:12:27.771141,-72.0
2023-08-16 12:12:27.778830,-72.0
2023-08-16 12:12:27.786520,-77.0
2023-08-16 12:12:27.794209,-72.0
2023-08-16 12:12:27.801898,-69.0
2023-08-16 12:12:27.809588,-74.0
2023-08-16 12:12:27.817277,-79.0
2023-08-16 12:12:27.824966,-79.0
2023-08-16 12:12:27.832655,-72.0
2023-08-16 12:12:27.840345,-69.0
2023-08-16 12:12:27.848034,-67.0
2023-08-16 12:12:27.855723,-67.0
2023-08-16 12:12:27.863413,-77.0
2023-08-16 12:12:27.871102,-82.0
2023-08-16 12:12:27.878791,-77.0
2023-08-16 12:12:27.886480,-74.0
2023-08-16 12:12:27.894170,-74.0
2023-08-16 12:12:27.901859,-77.0
2023-08-16 12:12:27.909548,-84.0
2023-08-16 12:12:27.917238,-89.0
2023-08-16 12:12:27.924927,-84.0
2023-08-16 12:12:27.932616,-77.0
2023-08-16 12:12:27.940305,-50.0
2023-08-16 12:12:27.947995,-16.0
2023-08-16 12:12:27.955684,0.0
2023-08-16 12:12:27.963373,-4.0
2023-08-16 12:12:27.971063,-12.0
2023-08-16 12:12:27.978752,-28.0
2023-08-16 12:12:27.986441,-57.0
2023-08-16 12:12:27.994131,-69.0
2023-08-16 12:12:28.001820,-62.0
2023-08-16 12:12:28.009509,-60.0
2023-08-16 12:12:28.017198,-62.0
2023-08-16 12:12:28.024888,-57.0
2023-08-16 12:12:28.032577,-57.0
2023-08-16 12:12:28.040266,-50.0
2023-08-16 12:12:28.047956,-4.0
2023-08-16 12:12:28.055645,234.0
2023-08-16 12:12:28.063334,866.0
2023-08-16 12:12:28.071023,1479.0
2023-08-16 12:12:28.078713,1269.0
2023-08-16 12:12:28.086402,347.0
2023-08-16 12:12:28.094091,-352.0
2023-08-16 12:12:28.101781,-299.0
2023-08-16 12:12:28.109470,-33.0
2023-08-16 12:12:28.117159,-101.0
2023-08-16 12:12:28.124848,-197.0
2023-08-16 12:12:28.132538,-127.0
2023-08-16 12:12:28.140227,-110.0
2023-08-16 12:12:28.147916,-135.0
2023-08-16 12:12:28.155606,-103.0
2023-08-16 12:12:28.163295,-77.0
2023-08-16 12:12:28.170984,-77.0
2023-08-16 12:12:28.178674,-65.0
2023-08-16 12:12:28.186363,-43.0
2023-08-16 12:12:28.194052,-31.0
2023-08-16 12:12:28.201741,-12.0
2023-08-16 12:12:28.209431,9.0
2023-08-16 12:12:28.217120,28.0
2023-08-16 12:12:28.224809,50.0
2023-08-16 12:12:28.232499,77.0
2023-08-16 12:12:28.240188,108.0
2023-08-16 12:12:28.247877,137.0
2023-08-16 12:12:28.255566,173.0
2023-08-16 12:12:28.263256,214.0
2023-08-16 12:12:28.270945,255.0
2023-08-16 12:12:28.278634,296.0
2023-08-16 12:12:28.286324,337.0
2023-08-16 12:12:28.294013,378.0
2023-08-16 12:12:28.301702,407.0
2023-08-16 12:12:28.309391,415.0
2023-08-16 12:12:28.317081,402.0
2023-08-16 12:12:28.324770,366.0
2023-08-16 12:12:28.332459,311.0
2023-08-16 12:12:28.340149,231.0
2023-08-16 12:12:28.347838,123.0
2023-08-16 12:12:28.355527,-9.0
2023-08-16 12:12:28.363217,-125.0
2023-08-16 12:12:28.370906,-205.0
2023-08-16 12:12:28.378595,-263.0
2023-08-16 12:12:28.386284,-306.0
2023-08-16 12:12:28.393974,-328.0
2023-08-16 12:12:28.401663,-335.0
2023-08-16 12:12:28.409352,-335.0
2023-08-16 12:12:28.417042,-332.0
2023-08-16 12:12:28.424731,-325.0
2023-08-16 12:12:28.432420,-313.0
2023-08-16 12:12:28.440109,-299.0
2023-08-16 12:12:28.447799,-287.0
2023-08-16 12:12:28.455488,-275.0
2023-08-16 12:12:28.463177,-263.0
2023-08-16 12:12:28.470867,-253.0
2023-08-16 12:12:28.478556,-246.0
2023-08-16 12:12:28.486245,-238.0
2023-08-16 12:12:28.493934,-234.0
2023-08-16 12:12:28.501624,-231.0
2023-08-16 12:12:28.509313,-224.0
2023-08-16 12:12:28.517002,-217.0
2023-08-16 12:12:28.524692,-214.0
2023-08-16 12:12:28.532381,-207.0
2023-08-16 12:12:28.540070,-205.0
2023-08-16 12:12:28.547760,-205.0
2023-08-16 12:12:28.555449,-200.0
2023-08-16 12:12:28.563138,-195.0
2023-08-16 12:12:28.570827,-190.0
2023-08-16 12:12:28.578517,-188.0
2023-08-16 12:12:28.586206,-185.0
2023-08-16 12:12:28.593895,-180.0
2023-08-16 12:12:28.601585,-178.0
2023-08-16 12:12:28.609274,-176.0
2023-08-16 12:12:28.616963,-168.0
2023-08-16 12:12:28.624652,-164.0
2023-08-16 12:12:28.632342,-164.0
2023-08-16 12:12:28.640031,-159.0
2023-08-16 12:12:28.647720,-152.0
2023-08-16 12:12:28.655410,-149.0
2023-08-16 12:12:28.663099,-147.0
2023-08-16 12:12:28.670788,-139.0
2023-08-16 12:12:28.678477,-132.0
2023-08-16 12:12:28.686167,-135.0
2023-08-16 12:12:28.693856,-139.0
2023-08-16 12:12:28.701545,-137.0
2023-08-16 12:12:28.709235,-127.0
2023-08-16 12:12:28.716924,-120.0
2023-08-16 12:12:28.724613,-118.0
2023-08-16 12:12:28.732303,-115.0
2023-08-16 12:12:28.739992,-110.0
2023-08-16 12:12:28.747681,-110.0
2023-08-16 12:12:28.755370,-108.0
2023-08-16 12:12:28.763060,-110.0
2023-08-16 12:12:28.770749,-110.0
2023-08-16 12:12:28.778438,-106.0
2023-08-16 12:12:28.786128,-103.0
2023-08-16 12:12:28.793817,-106.0
2023-08-16 12:12:28.801506,-103.0
2023-08-16 12:12:28.809195,-96.0
2023-08-16 12:12:28.816885,-91.0
2023-08-16 12:12:28.824574,-91.0
2023-08-16 12:12:28.832263,-96.0
2023-08-16 12:12:28.839953,-101.0
2023-08-16 12:12:28.847642,-101.0
2023-08-16 12:12:28.855331,-101.0
2023-08-16 12:12:28.863020,-101.0
2023-08-16 12:12:28.870710,-103.0
2023-08-16 12:12:28.878399,-106.0
2023-08-16 12:12:28.886088,-96.0
2023-08-16 12:12:28.893778,-91.0
2023-08-16 12:12:28.901467,-91.0
2023-08-16 12:12:28.909156,-89.0
2023-08-16 12:12:28.916846,-82.0
2023-08-16 12:12:28.924535,-79.0
2023-08-16 12:12:28.932224,-89.0
2023-08-16 12:12:28.939913,-89.0
2023-08-16 12:12:28.947603,-77.0
2023-08-16 12:12:28.955292,-74.0
2023-08-16 12:12:28.962981,-74.0
2023-08-16 12:12:28.970671,-72.0
2023-08-16 12:12:28.978360,-69.0
2023-08-16 12:12:28.986049,-72.0
2023-08-16 12:12:28.993738,-69.0
2023-08-16 12:12:29.001428,-74.0
2023-08-16 12:12:29.009117,-86.0
2023-08-16 12:12:29.016806,-94.0
2023-08-16 12:12:29.024496,-84.0
2023-08-16 12:12:29.032185,-50.0
2023-08-16 12:12:29.039874,-9.0
2023-08-16 12:12:29.047564,2.0
2023-08-16 12:12:29.055253,-7.0
2023-08-16 12:12:29.062942,-7.0
2023-08-16 12:12:29.070631,-19.0
2023-08-16 12:12:29.078321,-57.0
2023-08-16 12:12:29.086010,-72.0
2023-08-16 12:12:29.093699,-55.0
2023-08-16 12:12:29.101389,-53.0
2023-08-16 12:12:29.109078,-53.0
2023-08-16 12:12:29.116767,-43.0
2023-08-16 12:12:29.124456,-45.0
2023-08-16 12:12:29.132146,-38.0
2023-08-16 12:12:29.139835,31.0
2023-08-16 12:12:29.147524,299.0
2023-08-16 12:12:29.155214,919.0
2023-08-16 12:12:29.162903,1469.0
2023-08-16 12:12:29.170592,1179.0
2023-08-16 12:12:29.178281,221.0
2023-08-16 12:12:29.185971,-398.0
2023-08-16 12:12:29.193660,-265.0
2023-08-16 12:12:29.201349,-19.0
2023-08-16 12:12:29.209039,-98.0
2023-08-16 12:12:29.216728,-166.0
2023-08-16 12:12:29.224417,-98.0
2023-08-16 12:12:29.232107,-91.0
2023-08-16 12:12:29.239796,-108.0
2023-08-16 12:12:29.247485,-74.0
2023-08-16 12:12:29.255174,-53.0
2023-08-16 12:12:29.262864,-55.0
2023-08-16 12:12:29.270553,-45.0
2023-08-16 12:12:29.278242,-26.0
2023-08-16 12:12:29.285932,-16.0
2023-08-16 12:12:29.293621,-2.0
2023-08-16 12:12:29.301310,24.0
2023-08-16 12:12:29.308999,48.0
2023-08-16 12:12:29.316689,67.0
2023-08-16 12:12:29.324378,91.0
2023-08-16 12:12:29.332067,118.0
2023-08-16 12:12:29.339757,147.0
2023-08-16 12:12:29.347446,180.0
2023-08-16 12:12:29.355135,224.0
2023-08-16 12:12:29.362824,275.0
2023-08-16 12:12:29.370514,318.0
2023-08-16 12:12:29.378203,359.0
2023-08-16 12:12:29.385892,400.0
2023-08-16 12:12:29.393582,424.0
2023-08-16 12:12:29.401271,429.0
2023-08-16 12:12:29.408960,419.0
2023-08-16 12:12:29.416650,390.0
2023-08-16 12:12:29.424339,328.0
2023-08-16 12:12:29.432028,226.0
2023-08-16 12:12:29.439717,94.0
2023-08-16 12:12:29.447407,-38.0
2023-08-16 12:12:29.455096,-149.0
2023-08-16 12:12:29.462785,-234.0
2023-08-16 12:12:29.470475,-291.0
2023-08-16 12:12:29.478164,-328.0
2023-08-16 12:12:29.485853,-349.0
2023-08-16 12:12:29.493542,-352.0
2023-08-16 12:12:29.501232,-349.0
2023-08-16 12:12:29.508921,-352.0
2023-08-16 12:12:29.516610,-347.0
2023-08-16 12:12:29.524300,-335.0
2023-08-16 12:12:29.531989,-316.0
2023-08-16 12:12:29.539678,-299.0
2023-08-16 12:12:29.547367,-289.0
2023-08-16 12:12:29.555057,-279.0
2023-08-16 12:12:29.562746,-267.0
2023-08-16 12:12:29.570435,-255.0
2023-08-16 12:12:29.578125,-248.0
2023-08-16 12:12:29.585814,-238.0
2023-08-16 12:12:29.593503,-226.0
2023-08-16 12:12:29.601193,-217.0
2023-08-16 12:12:29.608882,-205.0
2023-08-16 12:12:29.616571,-202.0
2023-08-16 12:12:29.624260,-205.0
2023-08-16 12:12:29.631950,-195.0
2023-08-16 12:12:29.639639,-183.0
2023-08-16 12:12:29.647328,-178.0
2023-08-16 12:12:29.655018,-178.0
2023-08-16 12:12:29.662707,-180.0
2023-08-16 12:12:29.670396,-171.0
2023-08-16 12:12:29.678085,-166.0
2023-08-16 12:12:29.685775,-168.0
2023-08-16 12:12:29.693464,-161.0
2023-08-16 12:12:29.701153,-152.0
2023-08-16 12:12:29.708843,-156.0
2023-08-16 12:12:29.716532,-154.0
2023-08-16 12:12:29.724221,-139.0
2023-08-16 12:12:29.731910,-142.0
2023-08-16 12:12:29.739600,-147.0
2023-08-16 12:12:29.747289,-139.0
2023-08-16 12:12:29.754978,-127.0
2023-08-16 12:12:29.762668,-132.0
2023-08-16 12:12:29.770357,-135.0
2023-08-16 12:12:29.778046,-130.0
2023-08-16 12:12:29.785736,-120.0
2023-08-16 12:12:29.793425,-123.0
2023-08-16 12:12:29.801114,-125.0
2023-08-16 12:12:29.808803,-120.0
2023-08-16 12:12:29.816493,-113.0
2023-08-16 12:12:29.824182,-108.0
2023-08-16 12:12:29.831871,-106.0
2023-08-16 12:12:29.839561,-110.0
2023-08-16 12:12:29.847250,-113.0
2023-08-16 12:12:29.854939,-113.0
2023-08-16 12:12:29.862628,-106.0
2023-08-16 12:12:29.870318,-101.0
2023-08-16 12:12:29.878007,-101.0
2023-08-16 12:12:29.885696,-108.0
2023-08-16 12:12:29.893386,-110.0
2023-08-16 12:12:29.901075,-110.0
2023-08-16 12:12:29.908764,-108.0
2023-08-16 12:12:29.916453,-101.0
2023-08-16 12:12:29.924143,-74.0
2023-08-16 12:12:29.931832,-41.0
2023-08-16 12:12:29.939521,-26.0
2023-08-16 12:12:29.947211,-28.0
2023-08-16 12:12:29.954900,-36.0
2023-08-16 12:12:29.962589,-57.0
2023-08-16 12:12:29.970279,-91.0
2023-08-16 12:12:29.977968,-98.0
2023-08-16 12:12:29.985657,-94.0
2023-08-16 12:12:29.993346,-94.0
2023-08-16 12:12:30.001036,-91.0
2023-08-16 12:12:30.008725,-84.0
2023-08-16 12:12:30.016414,-84.0
2023-08-16 12:12:30.024104,-72.0
2023-08-16 12:12:30.031793,16.0
2023-08-16 12:12:30.039482,345.0
2023-08-16 12:12:30.047171,960.0
2023-08-16 12:12:30.054861,1329.0
2023-08-16 12:12:30.062550,849.0
2023-08-16 12:12:30.070239,-103.0
2023-08-16 12:12:30.077929,-528.0
2023-08-16 12:12:30.085618,-226.0
2023-08-16 12:12:30.093307,-24.0
2023-08-16 12:12:30.100996,-154.0
2023-08-16 12:12:30.108686,-159.0
2023-08-16 12:12:30.116375,-79.0
2023-08-16 12:12:30.124064,-103.0
2023-08-16 12:12:30.131754,-110.0
2023-08-16 12:12:30.139443,-69.0
2023-08-16 12:12:30.147132,-60.0
2023-08-16 12:12:30.154822,-55.0
2023-08-16 12:12:30.162511,-33.0
2023-08-16 12:12:30.170200,-16.0
2023-08-16 12:12:30.177889,-4.0
2023-08-16 12:12:30.185579,19.0
2023-08-16 12:12:30.193268,38.0
2023-08-16 12:12:30.200957,53.0
2023-08-16 12:12:30.208647,74.0
2023-08-16 12:12:30.216336,110.0
2023-08-16 12:12:30.224025,142.0
2023-08-16 12:12:30.231714,176.0
2023-08-16 12:12:30.239404,219.0
2023-08-16 12:12:30.247093,260.0
2023-08-16 12:12:30.254782,306.0
2023-08-16 12:12:30.262472,359.0
2023-08-16 12:12:30.270161,407.0
2023-08-16 12:12:30.277850,441.0
2023-08-16 12:12:30.285540,463.0
2023-08-16 12:12:30.293229,468.0
2023-08-16 12:12:30.300918,439.0
2023-08-16 12:12:30.308607,381.0
2023-08-16 12:12:30.316297,289.0
2023-08-16 12:12:30.323986,161.0
2023-08-16 12:12:30.331675,19.0
2023-08-16 12:12:30.339365,-108.0
2023-08-16 12:12:30.347054,-214.0
2023-08-16 12:12:30.354743,-287.0
2023-08-16 12:12:30.362432,-328.0
2023-08-16 12:12:30.370122,-352.0
2023-08-16 12:12:30.377811,-364.0
2023-08-16 12:12:30.385500,-361.0
2023-08-16 12:12:30.393190,-354.0
2023-08-16 12:12:30.400879,-347.0
2023-08-16 12:12:30.408568,-342.0
2023-08-16 12:12:30.416257,-335.0
2023-08-16 12:12:30.423947,-318.0
2023-08-16 12:12:30.431636,-304.0
2023-08-16 12:12:30.439325,-289.0
2023-08-16 12:12:30.447015,-272.0
2023-08-16 12:12:30.454704,-258.0
2023-08-16 12:12:30.462393,-258.0
2023-08-16 12:12:30.470083,-248.0
2023-08-16 12:12:30.477772,-229.0
2023-08-16 12:12:30.485461,-221.0
2023-08-16 12:12:30.493150,-219.0
2023-08-16 12:12:30.500840,-205.0
2023-08-16 12:12:30.508529,-195.0
2023-08-16 12:12:30.516218,-197.0
2023-08-16 12:12:30.523908,-193.0
2023-08-16 12:12:30.531597,-178.0
2023-08-16 12:12:30.539286,-176.0
2023-08-16 12:12:30.546975,-183.0
2023-08-16 12:12:30.554665,-178.0
2023-08-16 12:12:30.562354,-178.0
2023-08-16 12:12:30.570043,-185.0
2023-08-16 12:12:30.577733,-183.0
2023-08-16 12:12:30.585422,-176.0
2023-08-16 12:12:30.593111,-173.0
2023-08-16 12:12:30.600800,-168.0
2023-08-16 12:12:30.608490,-164.0
2023-08-16 12:12:30.616179,-156.0
2023-08-16 12:12:30.623868,-152.0
2023-08-16 12:12:30.631558,-147.0
2023-08-16 12:12:30.639247,-147.0
2023-08-16 12:12:30.646936,-147.0
2023-08-16 12:12:30.654626,-139.0
2023-08-16 12:12:30.662315,-135.0
2023-08-16 12:12:30.670004,-130.0
2023-08-16 12:12:30.677693,-127.0
2023-08-16 12:12:30.685383,-127.0
2023-08-16 12:12:30.693072,-125.0
2023-08-16 12:12:30.700761,-118.0
2023-08-16 12:12:30.708451,-110.0
2023-08-16 12:12:30.716140,-113.0
2023-08-16 12:12:30.723829,-110.0
2023-08-16 12:12:30.731518,-106.0
2023-08-16 12:12:30.739208,-108.0
2023-08-16 12:12:30.746897,-108.0
2023-08-16 12:12:30.754586,-98.0
2023-08-16 12:12:30.762276,-94.0
2023-08-16 12:12:30.769965,-96.0
2023-08-16 12:12:30.777654,-96.0
2023-08-16 12:12:30.785343,-96.0
2023-08-16 12:12:30.793033,-103.0
2023-08-16 12:12:30.800722,-106.0
2023-08-16 12:12:30.808411,-96.0
2023-08-16 12:12:30.816101,-74.0
2023-08-16 12:12:30.823790,-38.0
2023-08-16 12:12:30.831479,-12.0
2023-08-16 12:12:30.839169,-14.0
2023-08-16 12:12:30.846858,-24.0
2023-08-16 12:12:30.854547,-45.0
2023-08-16 12:12:30.862236,-77.0
2023-08-16 12:12:30.869926,-86.0
2023-08-16 12:12:30.877615,-79.0
2023-08-16 12:12:30.885304,-77.0
2023-08-16 12:12:30.892994,-72.0
2023-08-16 12:12:30.900683,-67.0
2023-08-16 12:12:30.908372,-67.0
2023-08-16 12:12:30.916061,-53.0
2023-08-16 12:12:30.923751,14.0
2023-08-16 12:12:30.931440,301.0
2023-08-16 12:12:30.939129,938.0
2023-08-16 12:12:30.946819,1418.0
2023-08-16 12:12:30.954508,1035.0
2023-08-16 12:12:30.962197,86.0
2023-08-16 12:12:30.969886,-441.0
2023-08-16 12:12:30.977576,-246.0
2023-08-16 12:12:30.985265,-19.0
2023-08-16 12:12:30.992954,-123.0
2023-08-16 12:12:31.000644,-168.0
2023-08-16 12:12:31.008333,-98.0
2023-08-16 12:12:31.016022,-103.0
2023-08-16 12:12:31.023712,-115.0
2023-08-16 12:12:31.031401,-79.0
2023-08-16 12:12:31.039090,-65.0
2023-08-16 12:12:31.046779,-62.0
2023-08-16 12:12:31.054469,-45.0
2023-08-16 12:12:31.062158,-28.0
2023-08-16 12:12:31.069847,-16.0
2023-08-16 12:12:31.077537,4.0
2023-08-16 12:12:31.085226,26.0
2023-08-16 12:12:31.092915,45.0
2023-08-16 12:12:31.100604,60.0
2023-08-16 12:12:31.108294,77.0
2023-08-16 12:12:31.115983,110.0
2023-08-16 12:12:31.123672,154.0
2023-08-16 12:12:31.131362,190.0
2023-08-16 12:12:31.139051,231.0
2023-08-16 12:12:31.146740,277.0
2023-08-16 12:12:31.154429,325.0
2023-08-16 12:12:31.162119,374.0
2023-08-16 12:12:31.169808,410.0
2023-08-16 12:12:31.177497,429.0
2023-08-16 12:12:31.185187,431.0
2023-08-16 12:12:31.192876,410.0
2023-08-16 12:12:31.200565,359.0
2023-08-16 12:12:31.208255,282.0
2023-08-16 12:12:31.215944,173.0
2023-08-16 12:12:31.223633,43.0
2023-08-16 12:12:31.231322,-86.0
2023-08-16 12:12:31.239012,-188.0
2023-08-16 12:12:31.246701,-255.0
2023-08-16 12:12:31.254390,-296.0
2023-08-16 12:12:31.262080,-323.0
2023-08-16 12:12:31.269769,-332.0
2023-08-16 12:12:31.277458,-335.0
2023-08-16 12:12:31.285147,-335.0
2023-08-16 12:12:31.292837,-328.0
2023-08-16 12:12:31.300526,-318.0
2023-08-16 12:12:31.308215,-311.0
2023-08-16 12:12:31.315905,-304.0
2023-08-16 12:12:31.323594,-296.0
2023-08-16 12:12:31.331283,-287.0
2023-08-16 12:12:31.338972,-275.0
2023-08-16 12:12:31.346662,-263.0
2023-08-16 12:12:31.354351,-255.0
2023-08-16 12:12:31.362040,-250.0
2023-08-16 12:12:31.369730,-246.0
2023-08-16 12:12:31.377419,-238.0
2023-08-16 12:12:31.385108,-229.0
2023-08-16 12:12:31.392798,-221.0
2023-08-16 12:12:31.400487,-214.0
2023-08-16 12:12:31.408176,-209.0
2023-08-16 12:12:31.415865,-209.0
2023-08-16 12:12:31.423555,-207.0
2023-08-16 12:12:31.431244,-195.0
2023-08-16 12:12:31.438933,-190.0
2023-08-16 12:12:31.446623,-190.0
2023-08-16 12:12:31.454312,-188.0
2023-08-16 12:12:31.462001,-183.0
2023-08-16 12:12:31.469690,-183.0
2023-08-16 12:12:31.477380,-183.0
2023-08-16 12:12:31.485069,-178.0
2023-08-16 12:12:31.492758,-171.0
2023-08-16 12:12:31.500448,-168.0
2023-08-16 12:12:31.508137,-168.0
2023-08-16 12:12:31.515826,-166.0
2023-08-16 12:12:31.523515,-159.0
2023-08-16 12:12:31.531205,-154.0
2023-08-16 12:12:31.538894,-149.0
2023-08-16 12:12:31.546583,-147.0
2023-08-16 12:12:31.554273,-142.0
2023-08-16 12:12:31.561962,-142.0
2023-08-16 12:12:31.569651,-137.0
2023-08-16 12:12:31.577341,-132.0
2023-08-16 12:12:31.585030,-130.0
2023-08-16 12:12:31.592719,-125.0
2023-08-16 12:12:31.600408,-123.0
2023-08-16 12:12:31.608098,-120.0
2023-08-16 12:12:31.615787,-118.0
2023-08-16 12:12:31.623476,-115.0
2023-08-16 12:12:31.631166,-110.0
2023-08-16 12:12:31.638855,-108.0
2023-08-16 12:12:31.646544,-108.0
2023-08-16 12:12:31.654233,-108.0
2023-08-16 12:12:31.661923,-101.0
2023-08-16 12:12:31.669612,-98.0
2023-08-16 12:12:31.677301,-98.0
2023-08-16 12:12:31.684991,-101.0
2023-08-16 12:12:31.692680,-110.0
2023-08-16 12:12:31.700369,-118.0
2023-08-16 12:12:31.708059,-118.0
2023-08-16 12:12:31.715748,-115.0
2023-08-16 12:12:31.723437,-103.0
2023-08-16 12:12:31.731126,-72.0
2023-08-16 12:12:31.738816,-38.0
2023-08-16 12:12:31.746505,-31.0
2023-08-16 12:12:31.754194,-38.0
2023-08-16 12:12:31.761884,-45.0
2023-08-16 12:12:31.769573,-72.0
2023-08-16 12:12:31.777262,-98.0
2023-08-16 12:12:31.784951,-91.0
2023-08-16 12:12:31.792641,-84.0
2023-08-16 12:12:31.800330,-86.0
2023-08-16 12:12:31.808019,-79.0
2023-08-16 12:12:31.815709,-72.0
2023-08-16 12:12:31.823398,-67.0
2023-08-16 12:12:31.831087,-41.0
2023-08-16 12:12:31.838776,96.0
2023-08-16 12:12:31.846466,569.0
2023-08-16 12:12:31.854155,1264.0
2023-08-16 12:12:31.861844,1370.0
2023-08-16 12:12:31.869534,591.0
2023-08-16 12:12:31.877223,-255.0
2023-08-16 12:12:31.884912,-415.0
2023-08-16 12:12:31.892602,-113.0
2023-08-16 12:12:31.900291,-53.0
2023-08-16 12:12:31.907980,-190.0
2023-08-16 12:12:31.915669,-156.0
2023-08-16 12:12:31.923359,-101.0
2023-08-16 12:12:31.931048,-130.0
2023-08-16 12:12:31.938737,-118.0
2023-08-16 12:12:31.946427,-79.0
2023-08-16 12:12:31.954116,-72.0
2023-08-16 12:12:31.961805,-67.0
2023-08-16 12:12:31.969494,-48.0
2023-08-16 12:12:31.977184,-33.0
2023-08-16 12:12:31.984873,-19.0
2023-08-16 12:12:31.992562,2.0
2023-08-16 12:12:32.000252,24.0
2023-08-16 12:12:32.007941,45.0
2023-08-16 12:12:32.015630,72.0
2023-08-16 12:12:32.023319,103.0
2023-08-16 12:12:32.031009,139.0
2023-08-16 12:12:32.038698,178.0
2023-08-16 12:12:32.046387,219.0
2023-08-16 12:12:32.054077,265.0
2023-08-16 12:12:32.061766,313.0
2023-08-16 12:12:32.069455,359.0
2023-08-16 12:12:32.077145,402.0
2023-08-16 12:12:32.084834,431.0
2023-08-16 12:12:32.092523,443.0
2023-08-16 12:12:32.100212,434.0
2023-08-16 12:12:32.107902,402.0
2023-08-16 12:12:32.115591,342.0
2023-08-16 12:12:32.123280,243.0
2023-08-16 12:12:32.130970,118.0
2023-08-16 12:12:32.138659,-4.0
2023-08-16 12:12:32.146348,-118.0
2023-08-16 12:12:32.154037,-202.0
2023-08-16 12:12:32.161727,-260.0
2023-08-16 12:12:32.169416,-294.0
2023-08-16 12:12:32.177105,-311.0
2023-08-16 12:12:32.184795,-318.0
2023-08-16 12:12:32.192484,-318.0
2023-08-16 12:12:32.200173,-311.0
2023-08-16 12:12:32.207862,-304.0
2023-08-16 12:12:32.215552,-296.0
2023-08-16 12:12:32.223241,-291.0
2023-08-16 12:12:32.230930,-289.0
2023-08-16 12:12:32.238620,-277.0
2023-08-16 12:12:32.246309,-263.0
2023-08-16 12:12:32.253998,-253.0
2023-08-16 12:12:32.261688,-243.0
2023-08-16 12:12:32.269377,-231.0
2023-08-16 12:12:32.277066,-224.0
2023-08-16 12:12:32.284755,-217.0
2023-08-16 12:12:32.292445,-209.0
2023-08-16 12:12:32.300134,-200.0
2023-08-16 12:12:32.307823,-195.0
2023-08-16 12:12:32.315513,-190.0
2023-08-16 12:12:32.323202,-190.0
2023-08-16 12:12:32.330891,-188.0
2023-08-16 12:12:32.338580,-183.0
2023-08-16 12:12:32.346270,-178.0
2023-08-16 12:12:32.353959,-173.0
2023-08-16 12:12:32.361648,-171.0
2023-08-16 12:12:32.369338,-173.0
2023-08-16 12:12:32.377027,-178.0
2023-08-16 12:12:32.384716,-173.0
2023-08-16 12:12:32.392405,-168.0
2023-08-16 12:12:32.400095,-168.0
2023-08-16 12:12:32.407784,-166.0
2023-08-16 12:12:32.415473,-156.0
2023-08-16 12:12:32.423163,-152.0
2023-08-16 12:12:32.430852,-152.0
2023-08-16 12:12:32.438541,-152.0
2023-08-16 12:12:32.446231,-144.0
2023-08-16 12:12:32.453920,-142.0
2023-08-16 12:12:32.461609,-144.0
2023-08-16 12:12:32.469298,-147.0
2023-08-16 12:12:32.476988,-147.0
2023-08-16 12:12:32.484677,-142.0
2023-08-16 12:12:32.492366,-139.0
2023-08-16 12:12:32.500056,-135.0
2023-08-16 12:12:32.507745,-135.0
2023-08-16 12:12:32.515434,-130.0
2023-08-16 12:12:32.523123,-123.0
2023-08-16 12:12:32.530813,-120.0
2023-08-16 12:12:32.538502,-120.0
2023-08-16 12:12:32.546191,-120.0
2023-08-16 12:12:32.553881,-118.0
2023-08-16 12:12:32.561570,-115.0
2023-08-16 12:12:32.569259,-115.0
2023-08-16 12:12:32.576948,-113.0
2023-08-16 12:12:32.584638,-108.0
2023-08-16 12:12:32.592327,-106.0
2023-08-16 12:12:32.600016,-103.0
2023-08-16 12:12:32.607706,-98.0
2023-08-16 12:12:32.615395,-96.0
2023-08-16 12:12:32.623084,-96.0
2023-08-16 12:12:32.630774,-98.0
2023-08-16 12:12:32.638463,-96.0
2023-08-16 12:12:32.646152,-96.0
2023-08-16 12:12:32.653841,-94.0
2023-08-16 12:12:32.661531,-86.0
2023-08-16 12:12:32.669220,-82.0
2023-08-16 12:12:32.676909,-84.0
2023-08-16 12:12:32.684599,-79.0
2023-08-16 12:12:32.692288,-77.0
2023-08-16 12:12:32.699977,-77.0
2023-08-16 12:12:32.707666,-79.0
2023-08-16 12:12:32.715356,-84.0
2023-08-16 12:12:32.723045,-84.0
2023-08-16 12:12:32.730734,-77.0
2023-08-16 12:12:32.738424,-77.0
2023-08-16 12:12:32.746113,-89.0
2023-08-16 12:12:32.753802,-94.0
2023-08-16 12:12:32.761491,-86.0
2023-08-16 12:12:32.769181,-74.0
2023-08-16 12:12:32.776870,-48.0
2023-08-16 12:12:32.784559,-19.0
2023-08-16 12:12:32.792249,-14.0
2023-08-16 12:12:32.799938,-21.0
2023-08-16 12:12:32.807627,-28.0
2023-08-16 12:12:32.815317,-60.0
2023-08-16 12:12:32.823006,-84.0
2023-08-16 12:12:32.830695,-72.0
2023-08-16 12:12:32.838384,-65.0
2023-08-16 12:12:32.846074,-72.0
2023-08-16 12:12:32.853763,-67.0
2023-08-16 12:12:32.861452,-60.0
2023-08-16 12:12:32.869142,-50.0
2023-08-16 12:12:32.876831,-14.0
2023-08-16 12:12:32.884520,176.0
2023-08-16 12:12:32.892209,745.0
2023-08-16 12:12:32.899899,1401.0
2023-08-16 12:12:32.907588,1315.0
2023-08-16 12:12:32.915277,424.0
2023-08-16 12:12:32.922967,-332.0
2023-08-16 12:12:32.930656,-349.0
2023-08-16 12:12:32.938345,-57.0
2023-08-16 12:12:32.946034,-74.0
2023-08-16 12:12:32.953724,-195.0
2023-08-16 12:12:32.961413,-139.0
2023-08-16 12:12:32.969102,-101.0
2023-08-16 12:12:32.976792,-120.0
2023-08-16 12:12:32.984481,-101.0
2023-08-16 12:12:32.992170,-77.0
2023-08-16 12:12:32.999860,-74.0
2023-08-16 12:12:33.007549,-57.0
2023-08-16 12:12:33.015238,-28.0
2023-08-16 12:12:33.022927,-12.0
2023-08-16 12:12:33.030617,-2.0
2023-08-16 12:12:33.038306,9.0
2023-08-16 12:12:33.045995,21.0
2023-08-16 12:12:33.053685,53.0
2023-08-16 12:12:33.061374,86.0
2023-08-16 12:12:33.069063,115.0
2023-08-16 12:12:33.076752,144.0
2023-08-16 12:12:33.084442,180.0
2023-08-16 12:12:33.092131,224.0
2023-08-16 12:12:33.099820,272.0
2023-08-16 12:12:33.107510,316.0
2023-08-16 12:12:33.115199,357.0
2023-08-16 12:12:33.122888,395.0
2023-08-16 12:12:33.130578,424.0
2023-08-16 12:12:33.138267,439.0
2023-08-16 12:12:33.145956,436.0
2023-08-16 12:12:33.153645,402.0
2023-08-16 12:12:33.161335,342.0
2023-08-16 12:12:33.169024,248.0
2023-08-16 12:12:33.176713,125.0
2023-08-16 12:12:33.184403,0.0
2023-08-16 12:12:33.192092,-103.0
2023-08-16 12:12:33.199781,-197.0
2023-08-16 12:12:33.207470,-263.0
2023-08-16 12:12:33.215160,-296.0
2023-08-16 12:12:33.222849,-313.0
2023-08-16 12:12:33.230538,-318.0
2023-08-16 12:12:33.238228,-313.0
2023-08-16 12:12:33.245917,-306.0
2023-08-16 12:12:33.253606,-299.0
2023-08-16 12:12:33.261295,-299.0
2023-08-16 12:12:33.268985,-291.0
2023-08-16 12:12:33.276674,-272.0
2023-08-16 12:12:33.284363,-260.0
2023-08-16 12:12:33.292053,-250.0
2023-08-16 12:12:33.299742,-231.0
2023-08-16 12:12:33.307431,-219.0
2023-08-16 12:12:33.315121,-221.0
2023-08-16 12:12:33.322810,-217.0
2023-08-16 12:12:33.330499,-202.0
2023-08-16 12:12:33.338188,-193.0
2023-08-16 12:12:33.345878,-195.0
2023-08-16 12:12:33.353567,-197.0
2023-08-16 12:12:33.361256,-193.0
2023-08-16 12:12:33.368946,-185.0
2023-08-16 12:12:33.376635,-183.0
2023-08-16 12:12:33.384324,-188.0
2023-08-16 12:12:33.392013,-185.0
2023-08-16 12:12:33.399703,-185.0
2023-08-16 12:12:33.407392,-185.0
2023-08-16 12:12:33.415081,-183.0
2023-08-16 12:12:33.422771,-176.0
2023-08-16 12:12:33.430460,-171.0
2023-08-16 12:12:33.438149,-168.0
2023-08-16 12:12:33.445838,-168.0
2023-08-16 12:12:33.453528,-173.0
2023-08-16 12:12:33.461217,-171.0
2023-08-16 12:12:33.468906,-164.0
2023-08-16 12:12:33.476596,-159.0
2023-08-16 12:12:33.484285,-156.0
2023-08-16 12:12:33.491974,-149.0
2023-08-16 12:12:33.499664,-147.0
2023-08-16 12:12:33.507353,-144.0
2023-08-16 12:12:33.515042,-142.0
2023-08-16 12:12:33.522731,-142.0
2023-08-16 12:12:33.530421,-144.0
2023-08-16 12:12:33.538110,-137.0
2023-08-16 12:12:33.545799,-130.0
2023-08-16 12:12:33.553489,-130.0
2023-08-16 12:12:33.561178,-135.0
2023-08-16 12:12:33.568867,-139.0
2023-08-16 12:12:33.576556,-132.0
2023-08-16 12:12:33.584246,-123.0
2023-08-16 12:12:33.591935,-125.0
2023-08-16 12:12:33.599624,-125.0
2023-08-16 12:12:33.607314,-118.0
2023-08-16 12:12:33.615003,-113.0
2023-08-16 12:12:33.622692,-115.0
2023-08-16 12:12:33.630381,-120.0
2023-08-16 12:12:33.638071,-115.0
2023-08-16 12:12:33.645760,-110.0
2023-08-16 12:12:33.653449,-113.0
2023-08-16 12:12:33.661139,-113.0
2023-08-16 12:12:33.668828,-110.0
2023-08-16 12:12:33.676517,-108.0
2023-08-16 12:12:33.684207,-110.0
2023-08-16 12:12:33.691896,-108.0
2023-08-16 12:12:33.699585,-108.0
2023-08-16 12:12:33.707274,-113.0
2023-08-16 12:12:33.714964,-120.0
2023-08-16 12:12:33.722653,-123.0
2023-08-16 12:12:33.730342,-103.0
2023-08-16 12:12:33.738032,-72.0
2023-08-16 12:12:33.745721,-50.0
2023-08-16 12:12:33.753410,-38.0
2023-08-16 12:12:33.761099,-38.0
2023-08-16 12:12:33.768789,-53.0
2023-08-16 12:12:33.776478,-79.0
2023-08-16 12:12:33.784167,-89.0
2023-08-16 12:12:33.791857,-82.0
2023-08-16 12:12:33.799546,-84.0
2023-08-16 12:12:33.807235,-86.0
2023-08-16 12:12:33.814924,-77.0
2023-08-16 12:12:33.822614,-69.0
2023-08-16 12:12:33.830303,-65.0
2023-08-16 12:12:33.837992,-36.0
2023-08-16 12:12:33.845682,94.0
2023-08-16 12:12:33.853371,535.0
2023-08-16 12:12:33.861060,1204.0
2023-08-16 12:12:33.868750,1336.0
2023-08-16 12:12:33.876439,583.0
2023-08-16 12:12:33.884128,-275.0
2023-08-16 12:12:33.891817,-453.0
2023-08-16 12:12:33.899507,-137.0
2023-08-16 12:12:33.907196,-53.0
2023-08-16 12:12:33.914885,-180.0
2023-08-16 12:12:33.922575,-147.0
2023-08-16 12:12:33.930264,-94.0
2023-08-16 12:12:33.937953,-120.0
2023-08-16 12:12:33.945642,-110.0
2023-08-16 12:12:33.953332,-77.0
2023-08-16 12:12:33.961021,-74.0
2023-08-16 12:12:33.968710,-67.0
2023-08-16 12:12:33.976400,-43.0
2023-08-16 12:12:33.984089,-28.0
2023-08-16 12:12:33.991778,-14.0
2023-08-16 12:12:33.999467,9.0
2023-08-16 12:12:34.007157,31.0
2023-08-16 12:12:34.014846,53.0
2023-08-16 12:12:34.022535,82.0
2023-08-16 12:12:34.030225,113.0
2023-08-16 12:12:34.037914,147.0
2023-08-16 12:12:34.045603,185.0
2023-08-16 12:12:34.053293,224.0
2023-08-16 12:12:34.060982,270.0
2023-08-16 12:12:34.068671,325.0
2023-08-16 12:12:34.076360,376.0
2023-08-16 12:12:34.084050,417.0
2023-08-16 12:12:34.091739,451.0
2023-08-16 12:12:34.099428,468.0
2023-08-16 12:12:34.107118,458.0
2023-08-16 12:12:34.114807,427.0
2023-08-16 12:12:34.122496,361.0
2023-08-16 12:12:34.130185,253.0
2023-08-16 12:12:34.137875,118.0
2023-08-16 12:12:34.145564,-14.0
2023-08-16 12:12:34.153253,-127.0
2023-08-16 12:12:34.160943,-214.0
2023-08-16 12:12:34.168632,-272.0
2023-08-16 12:12:34.176321,-306.0
2023-08-16 12:12:34.184010,-320.0
2023-08-16 12:12:34.191700,-337.0
2023-08-16 12:12:34.199389,-342.0
2023-08-16 12:12:34.207078,-335.0
2023-08-16 12:12:34.214768,-323.0
2023-08-16 12:12:34.222457,-316.0
2023-08-16 12:12:34.230146,-304.0
2023-08-16 12:12:34.237836,-291.0
2023-08-16 12:12:34.245525,-282.0
2023-08-16 12:12:34.253214,-265.0
2023-08-16 12:12:34.260903,-250.0
2023-08-16 12:12:34.268593,-243.0
2023-08-16 12:12:34.276282,-234.0
2023-08-16 12:12:34.283971,-219.0
2023-08-16 12:12:34.291661,-209.0
2023-08-16 12:12:34.299350,-209.0
2023-08-16 12:12:34.307039,-205.0
2023-08-16 12:12:34.314728,-193.0
2023-08-16 12:12:34.322418,-188.0
2023-08-16 12:12:34.330107,-193.0
2023-08-16 12:12:34.337796,-188.0
2023-08-16 12:12:34.345486,-173.0
2023-08-16 12:12:34.353175,-164.0
2023-08-16 12:12:34.360864,-156.0
2023-08-16 12:12:34.368553,-171.0
2023-08-16 12:12:34.376243,-197.0
2023-08-16 12:12:34.383932,-190.0
2023-08-16 12:12:34.391621,-171.0
2023-08-16 12:12:34.399311,-173.0
2023-08-16 12:12:34.407000,-168.0
2023-08-16 12:12:34.414689,-154.0
2023-08-16 12:12:34.422379,-159.0
2023-08-16 12:12:34.430068,-171.0
2023-08-16 12:12:34.437757,-166.0
2023-08-16 12:12:34.445446,-159.0
2023-08-16 12:12:34.453136,-159.0
2023-08-16 12:12:34.460825,-159.0
2023-08-16 12:12:34.468514,-164.0
2023-08-16 12:12:34.476204,-164.0
2023-08-16 12:12:34.483893,-149.0
2023-08-16 12:12:34.491582,-147.0
2023-08-16 12:12:34.499271,-156.0
2023-08-16 12:12:34.506961,-149.0
2023-08-16 12:12:34.514650,-139.0
2023-08-16 12:12:34.522339,-144.0
2023-08-16 12:12:34.530029,-147.0
2023-08-16 12:12:34.537718,-142.0
2023-08-16 12:12:34.545407,-132.0
2023-08-16 12:12:34.553097,-127.0
2023-08-16 12:12:34.560786,-125.0
2023-08-16 12:12:34.568475,-123.0
2023-08-16 12:12:34.576164,-115.0
2023-08-16 12:12:34.583854,-110.0
2023-08-16 12:12:34.591543,-113.0
2023-08-16 12:12:34.599232,-110.0
2023-08-16 12:12:34.606922,-106.0
2023-08-16 12:12:34.614611,-113.0
2023-08-16 12:12:34.622300,-110.0
2023-08-16 12:12:34.629989,-96.0
2023-08-16 12:12:34.637679,-94.0
2023-08-16 12:12:34.645368,-101.0
2023-08-16 12:12:34.653057,-103.0
2023-08-16 12:12:34.660747,-106.0
2023-08-16 12:12:34.668436,-106.0
2023-08-16 12:12:34.676125,-98.0
2023-08-16 12:12:34.683814,-94.0
2023-08-16 12:12:34.691504,-98.0
2023-08-16 12:12:34.699193,-101.0
2023-08-16 12:12:34.706882,-94.0
2023-08-16 12:12:34.714572,-86.0
2023-08-16 12:12:34.722261,-98.0
2023-08-16 12:12:34.729950,-108.0
2023-08-16 12:12:34.737640,-98.0
2023-08-16 12:12:34.745329,-86.0
2023-08-16 12:12:34.753018,-65.0
2023-08-16 12:12:34.760707,-31.0
2023-08-16 12:12:34.768397,-19.0
2023-08-16 12:12:34.776086,-24.0
2023-08-16 12:12:34.783775,-33.0
2023-08-16 12:12:34.791465,-62.0
2023-08-16 12:12:34.799154,-89.0
2023-08-16 12:12:34.806843,-79.0
2023-08-16 12:12:34.814532,-72.0
2023-08-16 12:12:34.822222,-77.0
2023-08-16 12:12:34.829911,-74.0
2023-08-16 12:12:34.837600,-69.0
2023-08-16 12:12:34.845290,-67.0
2023-08-16 12:12:34.852979,-43.0
2023-08-16 12:12:34.860668,55.0
2023-08-16 12:12:34.868357,412.0
2023-08-16 12:12:34.876047,1083.0
2023-08-16 12:12:34.883736,1435.0
2023-08-16 12:12:34.891425,880.0
2023-08-16 12:12:34.899115,-79.0
2023-08-16 12:12:34.906804,-475.0
2023-08-16 12:12:34.914493,-190.0
2023-08-16 12:12:34.922183,-19.0
2023-08-16 12:12:34.929872,-156.0
2023-08-16 12:12:34.937561,-161.0
2023-08-16 12:12:34.945250,-84.0
2023-08-16 12:12:34.952940,-106.0
2023-08-16 12:12:34.960629,-110.0
2023-08-16 12:12:34.968318,-67.0
2023-08-16 12:12:34.976008,-60.0
2023-08-16 12:12:34.983697,-62.0
2023-08-16 12:12:34.991386,-38.0
2023-08-16 12:12:34.999075,-19.0
2023-08-16 12:12:35.006765,-4.0
2023-08-16 12:12:35.014454,14.0
2023-08-16 12:12:35.022143,36.0
2023-08-16 12:12:35.029833,57.0
2023-08-16 12:12:35.037522,86.0
2023-08-16 12:12:35.045211,118.0
2023-08-16 12:12:35.052900,147.0
2023-08-16 12:12:35.060590,176.0
2023-08-16 12:12:35.068279,212.0
2023-08-16 12:12:35.075968,260.0
2023-08-16 12:12:35.083658,313.0
2023-08-16 12:12:35.091347,364.0
2023-08-16 12:12:35.099036,405.0
2023-08-16 12:12:35.106726,436.0
2023-08-16 12:12:35.114415,458.0
2023-08-16 12:12:35.122104,460.0
2023-08-16 12:12:35.129793,434.0
2023-08-16 12:12:35.137483,383.0
2023-08-16 12:12:35.145172,304.0
2023-08-16 12:12:35.152861,185.0
2023-08-16 12:12:35.160551,45.0
2023-08-16 12:12:35.168240,-82.0
2023-08-16 12:12:35.175929,-180.0
2023-08-16 12:12:35.183618,-250.0
2023-08-16 12:12:35.191308,-299.0
2023-08-16 12:12:35.198997,-332.0
2023-08-16 12:12:35.206686,-347.0
2023-08-16 12:12:35.214376,-347.0
2023-08-16 12:12:35.222065,-345.0
2023-08-16 12:12:35.229754,-340.0
2023-08-16 12:12:35.237443,-335.0
2023-08-16 12:12:35.245133,-330.0
2023-08-16 12:12:35.252822,-318.0
2023-08-16 12:12:35.260511,-304.0
2023-08-16 12:12:35.268201,-289.0
2023-08-16 12:12:35.275890,-277.0
2023-08-16 12:12:35.283579,-263.0
2023-08-16 12:12:35.291269,-250.0
2023-08-16 12:12:35.298958,-238.0
2023-08-16 12:12:35.306647,-226.0
2023-08-16 12:12:35.314336,-214.0
2023-08-16 12:12:35.322026,-207.0
2023-08-16 12:12:35.329715,-205.0
2023-08-16 12:12:35.337404,-200.0
2023-08-16 12:12:35.345094,-195.0
2023-08-16 12:12:35.352783,-197.0
2023-08-16 12:12:35.360472,-195.0
2023-08-16 12:12:35.368161,-188.0
2023-08-16 12:12:35.375851,-185.0
2023-08-16 12:12:35.383540,-190.0
2023-08-16 12:12:35.391229,-193.0
2023-08-16 12:12:35.398919,-193.0
2023-08-16 12:12:35.406608,-188.0
2023-08-16 12:12:35.414297,-188.0
2023-08-16 12:12:35.421986,-190.0
2023-08-16 12:12:35.429676,-188.0
2023-08-16 12:12:35.437365,-183.0
2023-08-16 12:12:35.445054,-176.0
2023-08-16 12:12:35.452744,-171.0
2023-08-16 12:12:35.460433,-171.0
2023-08-16 12:12:35.468122,-166.0
2023-08-16 12:12:35.475812,-161.0
2023-08-16 12:12:35.483501,-156.0
2023-08-16 12:12:35.491190,-154.0
2023-08-16 12:12:35.498879,-149.0
2023-08-16 12:12:35.506569,-144.0
2023-08-16 12:12:35.514258,-144.0
2023-08-16 12:12:35.521947,-142.0
2023-08-16 12:12:35.529637,-137.0
2023-08-16 12:12:35.537326,-132.0
2023-08-16 12:12:35.545015,-127.0
2023-08-16 12:12:35.552704,-125.0
2023-08-16 12:12:35.560394,-125.0
2023-08-16 12:12:35.568083,-125.0
2023-08-16 12:12:35.575772,-120.0
2023-08-16 12:12:35.583462,-115.0
2023-08-16 12:12:35.591151,-113.0
2023-08-16 12:12:35.598840,-118.0
2023-08-16 12:12:35.606529,-123.0
2023-08-16 12:12:35.614219,-120.0
2023-08-16 12:12:35.621908,-113.0
2023-08-16 12:12:35.629597,-113.0
2023-08-16 12:12:35.637287,-110.0
2023-08-16 12:12:35.644976,-108.0
2023-08-16 12:12:35.652665,-108.0
2023-08-16 12:12:35.660355,-108.0
2023-08-16 12:12:35.668044,-106.0
2023-08-16 12:12:35.675733,-106.0
2023-08-16 12:12:35.683422,-103.0
2023-08-16 12:12:35.691112,-98.0
2023-08-16 12:12:35.698801,-96.0
2023-08-16 12:12:35.706490,-94.0
2023-08-16 12:12:35.714180,-98.0
2023-08-16 12:12:35.721869,-103.0
2023-08-16 12:12:35.729558,-101.0
2023-08-16 12:12:35.737247,-94.0
2023-08-16 12:12:35.744937,-67.0
2023-08-16 12:12:35.752626,-31.0
2023-08-16 12:12:35.760315,-9.0
2023-08-16 12:12:35.768005,-14.0
2023-08-16 12:12:35.775694,-19.0
2023-08-16 12:12:35.783383,-33.0
2023-08-16 12:12:35.791073,-65.0
2023-08-16 12:12:35.798762,-77.0
2023-08-16 12:12:35.806451,-65.0
2023-08-16 12:12:35.814140,-62.0
2023-08-16 12:12:35.821830,-62.0
2023-08-16 12:12:35.829519,-60.0
2023-08-16 12:12:35.837208,-57.0
2023-08-16 12:12:35.844898,-48.0
2023-08-16 12:12:35.852587,-16.0
2023-08-16 12:12:35.860276,144.0
2023-08-16 12:12:35.867965,680.0
2023-08-16 12:12:35.875655,1397.0
2023-08-16 12:12:35.883344,1447.0
2023-08-16 12:12:35.891033,593.0
2023-08-16 12:12:35.898723,-279.0
2023-08-16 12:12:35.906412,-395.0
2023-08-16 12:12:35.914101,-79.0
2023-08-16 12:12:35.921790,-62.0
2023-08-16 12:12:35.929480,-205.0
2023-08-16 12:12:35.937169,-154.0
2023-08-16 12:12:35.944858,-106.0
2023-08-16 12:12:35.952548,-135.0
2023-08-16 12:12:35.960237,-118.0
2023-08-16 12:12:35.967926,-82.0
2023-08-16 12:12:35.975616,-74.0
2023-08-16 12:12:35.983305,-60.0
2023-08-16 12:12:35.990994,-38.0
2023-08-16 12:12:35.998683,-28.0
2023-08-16 12:12:36.006373,-14.0
2023-08-16 12:12:36.014062,7.0
2023-08-16 12:12:36.021751,28.0
2023-08-16 12:12:36.029441,55.0
2023-08-16 12:12:36.037130,89.0
2023-08-16 12:12:36.044819,113.0
2023-08-16 12:12:36.052508,144.0
2023-08-16 12:12:36.060198,185.0
2023-08-16 12:12:36.067887,231.0
2023-08-16 12:12:36.075576,272.0
2023-08-16 12:12:36.083266,318.0
2023-08-16 12:12:36.090955,371.0
2023-08-16 12:12:36.098644,417.0
2023-08-16 12:12:36.106333,448.0
2023-08-16 12:12:36.114023,465.0
2023-08-16 12:12:36.121712,458.0
2023-08-16 12:12:36.129401,424.0
2023-08-16 12:12:36.137091,357.0
2023-08-16 12:12:36.144780,253.0
2023-08-16 12:12:36.152469,118.0
2023-08-16 12:12:36.160159,-14.0
2023-08-16 12:12:36.167848,-125.0
2023-08-16 12:12:36.175537,-207.0
2023-08-16 12:12:36.183226,-267.0
2023-08-16 12:12:36.190916,-311.0
2023-08-16 12:12:36.198605,-332.0
2023-08-16 12:12:36.206294,-335.0
2023-08-16 12:12:36.213984,-332.0
2023-08-16 12:12:36.221673,-330.0
2023-08-16 12:12:36.229362,-320.0
2023-08-16 12:12:36.237051,-311.0
2023-08-16 12:12:36.244741,-306.0
2023-08-16 12:12:36.252430,-296.0
2023-08-16 12:12:36.260119,-284.0
2023-08-16 12:12:36.267809,-277.0
2023-08-16 12:12:36.275498,-270.0
2023-08-16 12:12:36.283187,-258.0
2023-08-16 12:12:36.290876,-241.0
2023-08-16 12:12:36.298566,-231.0
2023-08-16 12:12:36.306255,-221.0
2023-08-16 12:12:36.313944,-209.0
2023-08-16 12:12:36.321634,-207.0
2023-08-16 12:12:36.329323,-207.0
2023-08-16 12:12:36.337012,-197.0
2023-08-16 12:12:36.344702,-185.0
2023-08-16 12:12:36.352391,-183.0
2023-08-16 12:12:36.360080,-185.0
2023-08-16 12:12:36.367769,-178.0
2023-08-16 12:12:36.375459,-171.0
2023-08-16 12:12:36.383148,-168.0
2023-08-16 12:12:36.390837,-166.0
2023-08-16 12:12:36.398527,-166.0
2023-08-16 12:12:36.406216,-164.0
2023-08-16 12:12:36.413905,-159.0
2023-08-16 12:12:36.421594,-159.0
2023-08-16 12:12:36.429284,-156.0
2023-08-16 12:12:36.436973,-149.0
2023-08-16 12:12:36.444662,-144.0
2023-08-16 12:12:36.452352,-142.0
2023-08-16 12:12:36.460041,-135.0
2023-08-16 12:12:36.467730,-127.0
2023-08-16 12:12:36.475419,-125.0
2023-08-16 12:12:36.483109,-127.0
2023-08-16 12:12:36.490798,-125.0
2023-08-16 12:12:36.498487,-120.0
2023-08-16 12:12:36.506177,-115.0
2023-08-16 12:12:36.513866,-113.0
2023-08-16 12:12:36.521555,-110.0
2023-08-16 12:12:36.529245,-106.0
2023-08-16 12:12:36.536934,-103.0
2023-08-16 12:12:36.544623,-101.0
2023-08-16 12:12:36.552312,-101.0
2023-08-16 12:12:36.560002,-98.0
2023-08-16 12:12:36.567691,-94.0
2023-08-16 12:12:36.575380,-89.0
2023-08-16 12:12:36.583070,-91.0
2023-08-16 12:12:36.590759,-91.0
2023-08-16 12:12:36.598448,-91.0
2023-08-16 12:12:36.606137,-96.0
2023-08-16 12:12:36.613827,-91.0
2023-08-16 12:12:36.621516,-89.0
2023-08-16 12:12:36.629205,-96.0
2023-08-16 12:12:36.636895,-98.0
2023-08-16 12:12:36.644584,-94.0
2023-08-16 12:12:36.652273,-96.0
2023-08-16 12:12:36.659962,-86.0
2023-08-16 12:12:36.667652,-53.0
2023-08-16 12:12:36.675341,-28.0
2023-08-16 12:12:36.683030,-31.0
2023-08-16 12:12:36.690720,-36.0
2023-08-16 12:12:36.698409,-45.0
2023-08-16 12:12:36.706098,-74.0
2023-08-16 12:12:36.713788,-91.0
2023-08-16 12:12:36.721477,-89.0
2023-08-16 12:12:36.729166,-96.0
2023-08-16 12:12:36.736855,-96.0
2023-08-16 12:12:36.744545,-86.0
2023-08-16 12:12:36.752234,-86.0
2023-08-16 12:12:36.759923,-74.0
2023-08-16 12:12:36.767613,-31.0
2023-08-16 12:12:36.775302,120.0
2023-08-16 12:12:36.782991,612.0
2023-08-16 12:12:36.790680,1290.0
2023-08-16 12:12:36.798370,1334.0
2023-08-16 12:12:36.806059,511.0
2023-08-16 12:12:36.813748,-313.0
2023-08-16 12:12:36.821438,-424.0
2023-08-16 12:12:36.829127,-103.0
2023-08-16 12:12:36.836816,-55.0
2023-08-16 12:12:36.844505,-183.0
2023-08-16 12:12:36.852195,-135.0
2023-08-16 12:12:36.859884,-89.0
2023-08-16 12:12:36.867573,-125.0
2023-08-16 12:12:36.875263,-106.0
2023-08-16 12:12:36.882952,-62.0
2023-08-16 12:12:36.890641,-62.0
2023-08-16 12:12:36.898331,-60.0
2023-08-16 12:12:36.906020,-36.0
2023-08-16 12:12:36.913709,-21.0
2023-08-16 12:12:36.921398,-12.0
2023-08-16 12:12:36.929088,12.0
2023-08-16 12:12:36.936777,43.0
2023-08-16 12:12:36.944466,65.0
2023-08-16 12:12:36.952156,89.0
2023-08-16 12:12:36.959845,123.0
2023-08-16 12:12:36.967534,159.0
2023-08-16 12:12:36.975223,202.0
2023-08-16 12:12:36.982913,253.0
2023-08-16 12:12:36.990602,304.0
2023-08-16 12:12:36.998291,349.0
2023-08-16 12:12:37.005981,400.0
2023-08-16 12:12:37.013670,451.0
2023-08-16 12:12:37.021359,489.0
2023-08-16 12:12:37.029048,504.0
2023-08-16 12:12:37.036738,494.0
2023-08-16 12:12:37.044427,453.0
2023-08-16 12:12:37.052116,371.0
2023-08-16 12:12:37.059806,258.0
2023-08-16 12:12:37.067495,118.0
2023-08-16 12:12:37.075184,-21.0
2023-08-16 12:12:37.082874,-142.0
2023-08-16 12:12:37.090563,-234.0
2023-08-16 12:12:37.098252,-294.0
2023-08-16 12:12:37.105941,-323.0
2023-08-16 12:12:37.113631,-345.0
2023-08-16 12:12:37.121320,-354.0
2023-08-16 12:12:37.129009,-349.0
2023-08-16 12:12:37.136699,-347.0
2023-08-16 12:12:37.144388,-345.0
2023-08-16 12:12:37.152077,-330.0
2023-08-16 12:12:37.159766,-323.0
2023-08-16 12:12:37.167456,-318.0
2023-08-16 12:12:37.175145,-301.0
2023-08-16 12:12:37.182834,-287.0
2023-08-16 12:12:37.190524,-277.0
2023-08-16 12:12:37.198213,-263.0
2023-08-16 12:12:37.205902,-248.0
2023-08-16 12:12:37.213592,-241.0
2023-08-16 12:12:37.221281,-234.0
2023-08-16 12:12:37.228970,-224.0
2023-08-16 12:12:37.236659,-214.0
2023-08-16 12:12:37.244349,-209.0
2023-08-16 12:12:37.252038,-205.0
2023-08-16 12:12:37.259727,-200.0
2023-08-16 12:12:37.267417,-202.0
2023-08-16 12:12:37.275106,-205.0
2023-08-16 12:12:37.282795,-202.0
2023-08-16 12:12:37.290484,-200.0
2023-08-16 12:12:37.298174,-200.0
2023-08-16 12:12:37.305863,-200.0
2023-08-16 12:12:37.313552,-200.0
2023-08-16 12:12:37.321242,-195.0
2023-08-16 12:12:37.328931,-190.0
2023-08-16 12:12:37.336620,-185.0
2023-08-16 12:12:37.344309,-180.0
2023-08-16 12:12:37.351999,-176.0
2023-08-16 12:12:37.359688,-178.0
2023-08-16 12:12:37.367377,-178.0
2023-08-16 12:12:37.375067,-173.0
2023-08-16 12:12:37.382756,-168.0
2023-08-16 12:12:37.390445,-166.0
2023-08-16 12:12:37.398135,-166.0
2023-08-16 12:12:37.405824,-161.0
2023-08-16 12:12:37.413513,-159.0
2023-08-16 12:12:37.421202,-154.0
2023-08-16 12:12:37.428892,-149.0
2023-08-16 12:12:37.436581,-144.0
2023-08-16 12:12:37.444270,-144.0
2023-08-16 12:12:37.451960,-139.0
2023-08-16 12:12:37.459649,-132.0
2023-08-16 12:12:37.467338,-132.0
2023-08-16 12:12:37.475027,-132.0
2023-08-16 12:12:37.482717,-127.0
2023-08-16 12:12:37.490406,-123.0
2023-08-16 12:12:37.498095,-120.0
2023-08-16 12:12:37.505785,-120.0
2023-08-16 12:12:37.513474,-125.0
2023-08-16 12:12:37.521163,-127.0
2023-08-16 12:12:37.528852,-127.0
2023-08-16 12:12:37.536542,-115.0
2023-08-16 12:12:37.544231,-89.0
2023-08-16 12:12:37.551920,-57.0
2023-08-16 12:12:37.559610,-38.0
2023-08-16 12:12:37.567299,-38.0
2023-08-16 12:12:37.574988,-48.0
2023-08-16 12:12:37.582678,-69.0
2023-08-16 12:12:37.590367,-98.0
2023-08-16 12:12:37.598056,-98.0
2023-08-16 12:12:37.605745,-91.0
2023-08-16 12:12:37.613435,-101.0
2023-08-16 12:12:37.621124,-101.0
2023-08-16 12:12:37.628813,-91.0
2023-08-16 12:12:37.636503,-94.0
2023-08-16 12:12:37.644192,-89.0
2023-08-16 12:12:37.651881,-43.0
2023-08-16 12:12:37.659570,171.0
2023-08-16 12:12:37.667260,750.0
2023-08-16 12:12:37.674949,1370.0
2023-08-16 12:12:37.682638,1228.0
2023-08-16 12:12:37.690328,323.0
2023-08-16 12:12:37.698017,-390.0
2023-08-16 12:12:37.705706,-357.0
2023-08-16 12:12:37.713395,-69.0
2023-08-16 12:12:37.721085,-106.0
2023-08-16 12:12:37.728774,-202.0
2023-08-16 12:12:37.736463,-135.0
2023-08-16 12:12:37.744153,-108.0
2023-08-16 12:12:37.751842,-132.0
2023-08-16 12:12:37.759531,-108.0
2023-08-16 12:12:37.767221,-84.0
2023-08-16 12:12:37.774910,-82.0
2023-08-16 12:12:37.782599,-65.0
2023-08-16 12:12:37.790288,-43.0
2023-08-16 12:12:37.797978,-31.0
2023-08-16 12:12:37.805667,-14.0
2023-08-16 12:12:37.813356,7.0
2023-08-16 12:12:37.821046,28.0
2023-08-16 12:12:37.828735,53.0
2023-08-16 12:12:37.836424,82.0
2023-08-16 12:12:37.844113,110.0
2023-08-16 12:12:37.851803,137.0
2023-08-16 12:12:37.859492,171.0
2023-08-16 12:12:37.867181,219.0
2023-08-16 12:12:37.874871,270.0
2023-08-16 12:12:37.882560,316.0
2023-08-16 12:12:37.890249,361.0
2023-08-16 12:12:37.897938,402.0
2023-08-16 12:12:37.905628,427.0
2023-08-16 12:12:37.913317,439.0
2023-08-16 12:12:37.921006,424.0
2023-08-16 12:12:37.928696,374.0
2023-08-16 12:12:37.936385,294.0
2023-08-16 12:12:37.944074,185.0
2023-08-16 12:12:37.951764,50.0
2023-08-16 12:12:37.959453,-72.0
2023-08-16 12:12:37.967142,-168.0
2023-08-16 12:12:37.974831,-241.0
2023-08-16 12:12:37.982521,-291.0
2023-08-16 12:12:37.990210,-320.0
2023-08-16 12:12:37.997899,-330.0
2023-08-16 12:12:38.005589,-330.0
2023-08-16 12:12:38.013278,-328.0
2023-08-16 12:12:38.020967,-323.0
2023-08-16 12:12:38.028656,-316.0
2023-08-16 12:12:38.036346,-304.0
2023-08-16 12:12:38.044035,-291.0
2023-08-16 12:12:38.051724,-279.0
2023-08-16 12:12:38.059414,-270.0
2023-08-16 12:12:38.067103,-258.0
2023-08-16 12:12:38.074792,-243.0
2023-08-16 12:12:38.082481,-231.0
2023-08-16 12:12:38.090171,-221.0
2023-08-16 12:12:38.097860,-212.0
2023-08-16 12:12:38.105549,-200.0
2023-08-16 12:12:38.113239,-195.0
2023-08-16 12:12:38.120928,-200.0
2023-08-16 12:12:38.128617,-200.0
2023-08-16 12:12:38.136307,-193.0
2023-08-16 12:12:38.143996,-185.0
2023-08-16 12:12:38.151685,-183.0
2023-08-16 12:12:38.159374,-178.0
2023-08-16 12:12:38.167064,-178.0
2023-08-16 12:12:38.174753,-176.0
2023-08-16 12:12:38.182442,-171.0
2023-08-16 12:12:38.190132,-166.0
2023-08-16 12:12:38.197821,-164.0
2023-08-16 12:12:38.205510,-164.0
2023-08-16 12:12:38.213199,-161.0
2023-08-16 12:12:38.220889,-159.0
2023-08-16 12:12:38.228578,-154.0
2023-08-16 12:12:38.236267,-147.0
2023-08-16 12:12:38.243957,-147.0
2023-08-16 12:12:38.251646,-147.0
2023-08-16 12:12:38.259335,-147.0
2023-08-16 12:12:38.267024,-147.0
2023-08-16 12:12:38.274714,-147.0
2023-08-16 12:12:38.282403,-139.0
2023-08-16 12:12:38.290092,-135.0
2023-08-16 12:12:38.297782,-135.0
2023-08-16 12:12:38.305471,-135.0
2023-08-16 12:12:38.313160,-132.0
2023-08-16 12:12:38.320850,-127.0
2023-08-16 12:12:38.328539,-123.0
2023-08-16 12:12:38.336228,-120.0
2023-08-16 12:12:38.343917,-120.0
2023-08-16 12:12:38.351607,-120.0
2023-08-16 12:12:38.359296,-118.0
2023-08-16 12:12:38.366985,-118.0
2023-08-16 12:12:38.374675,-115.0
2023-08-16 12:12:38.382364,-113.0
2023-08-16 12:12:38.390053,-118.0
2023-08-16 12:12:38.397742,-125.0
2023-08-16 12:12:38.405432,-120.0
2023-08-16 12:12:38.413121,-113.0
2023-08-16 12:12:38.420810,-110.0
2023-08-16 12:12:38.428500,-110.0
2023-08-16 12:12:38.436189,-108.0
2023-08-16 12:12:38.443878,-106.0
2023-08-16 12:12:38.451567,-101.0
2023-08-16 12:12:38.459257,-98.0
2023-08-16 12:12:38.466946,-96.0
2023-08-16 12:12:38.474635,-96.0
2023-08-16 12:12:38.482325,-94.0
2023-08-16 12:12:38.490014,-91.0
2023-08-16 12:12:38.497703,-91.0
2023-08-16 12:12:38.505393,-89.0
2023-08-16 12:12:38.513082,-84.0
2023-08-16 12:12:38.520771,-82.0
2023-08-16 12:12:38.528460,-82.0
2023-08-16 12:12:38.536150,-82.0
2023-08-16 12:12:38.543839,-77.0
2023-08-16 12:12:38.551528,-77.0
2023-08-16 12:12:38.559218,-74.0
2023-08-16 12:12:38.566907,-74.0
2023-08-16 12:12:38.574596,-74.0
2023-08-16 12:12:38.582285,-72.0
2023-08-16 12:12:38.589975,-67.0
2023-08-16 12:12:38.597664,-65.0
2023-08-16 12:12:38.605353,-67.0
2023-08-16 12:12:38.613043,-77.0
2023-08-16 12:12:38.620732,-89.0
2023-08-16 12:12:38.628421,-96.0
2023-08-16 12:12:38.636111,-84.0
2023-08-16 12:12:38.643800,-55.0
2023-08-16 12:12:38.651489,-19.0
2023-08-16 12:12:38.659178,-4.0
2023-08-16 12:12:38.666868,-12.0
2023-08-16 12:12:38.674557,-16.0
2023-08-16 12:12:38.682246,-36.0
2023-08-16 12:12:38.689936,-65.0
2023-08-16 12:12:38.697625,-67.0
2023-08-16 12:12:38.705314,-60.0
2023-08-16 12:12:38.713003,-65.0
2023-08-16 12:12:38.720693,-60.0
2023-08-16 12:12:38.728382,-53.0
2023-08-16 12:12:38.736071,-50.0
2023-08-16 12:12:38.743761,-38.0
2023-08-16 12:12:38.751450,21.0
2023-08-16 12:12:38.759139,340.0
2023-08-16 12:12:38.766828,1056.0
2023-08-16 12:12:38.774518,1541.0
2023-08-16 12:12:38.782207,1114.0
2023-08-16 12:12:38.789896,156.0
2023-08-16 12:12:38.797586,-400.0
2023-08-16 12:12:38.805275,-226.0
2023-08-16 12:12:38.812964,-14.0
2023-08-16 12:12:38.820654,-137.0
2023-08-16 12:12:38.828343,-185.0
2023-08-16 12:12:38.836032,-106.0
2023-08-16 12:12:38.843721,-110.0
2023-08-16 12:12:38.851411,-130.0
2023-08-16 12:12:38.859100,-94.0
2023-08-16 12:12:38.866789,-79.0
2023-08-16 12:12:38.874479,-77.0
2023-08-16 12:12:38.882168,-55.0
2023-08-16 12:12:38.889857,-38.0
2023-08-16 12:12:38.897546,-28.0
2023-08-16 12:12:38.905236,-9.0
2023-08-16 12:12:38.912925,12.0
2023-08-16 12:12:38.920614,33.0
2023-08-16 12:12:38.928304,55.0
2023-08-16 12:12:38.935993,82.0
2023-08-16 12:12:38.943682,108.0
2023-08-16 12:12:38.951371,144.0
2023-08-16 12:12:38.959061,185.0
2023-08-16 12:12:38.966750,224.0
2023-08-16 12:12:38.974439,265.0
2023-08-16 12:12:38.982129,301.0
2023-08-16 12:12:38.989818,342.0
2023-08-16 12:12:38.997507,383.0
2023-08-16 12:12:39.005197,407.0
2023-08-16 12:12:39.012886,412.0
2023-08-16 12:12:39.020575,400.0
2023-08-16 12:12:39.028264,364.0
2023-08-16 12:12:39.035954,301.0
2023-08-16 12:12:39.043643,212.0
2023-08-16 12:12:39.051332,98.0
2023-08-16 12:12:39.059022,-24.0
2023-08-16 12:12:39.066711,-130.0
2023-08-16 12:12:39.074400,-207.0
2023-08-16 12:12:39.082089,-260.0
2023-08-16 12:12:39.089779,-289.0
2023-08-16 12:12:39.097468,-304.0
2023-08-16 12:12:39.105157,-311.0
2023-08-16 12:12:39.112847,-311.0
2023-08-16 12:12:39.120536,-306.0
2023-08-16 12:12:39.128225,-299.0
2023-08-16 12:12:39.135914,-296.0
2023-08-16 12:12:39.143604,-287.0
2023-08-16 12:12:39.151293,-272.0
2023-08-16 12:12:39.158982,-265.0
2023-08-16 12:12:39.166672,-255.0
2023-08-16 12:12:39.174361,-243.0
2023-08-16 12:12:39.182050,-234.0
2023-08-16 12:12:39.189740,-224.0
2023-08-16 12:12:39.197429,-217.0
2023-08-16 12:12:39.205118,-212.0
2023-08-16 12:12:39.212807,-205.0
2023-08-16 12:12:39.220497,-197.0
2023-08-16 12:12:39.228186,-193.0
2023-08-16 12:12:39.235875,-188.0
2023-08-16 12:12:39.243565,-185.0
2023-08-16 12:12:39.251254,-183.0
2023-08-16 12:12:39.258943,-180.0
2023-08-16 12:12:39.266632,-178.0
2023-08-16 12:12:39.274322,-178.0
2023-08-16 12:12:39.282011,-176.0
2023-08-16 12:12:39.289700,-176.0
2023-08-16 12:12:39.297390,-173.0
2023-08-16 12:12:39.305079,-171.0
2023-08-16 12:12:39.312768,-166.0
2023-08-16 12:12:39.320457,-164.0
2023-08-16 12:12:39.328147,-161.0
2023-08-16 12:12:39.335836,-156.0
2023-08-16 12:12:39.343525,-154.0
2023-08-16 12:12:39.351215,-154.0
2023-08-16 12:12:39.358904,-154.0
2023-08-16 12:12:39.366593,-152.0
2023-08-16 12:12:39.374283,-147.0
2023-08-16 12:12:39.381972,-144.0
2023-08-16 12:12:39.389661,-142.0
2023-08-16 12:12:39.397350,-137.0
2023-08-16 12:12:39.405040,-137.0
2023-08-16 12:12:39.412729,-132.0
2023-08-16 12:12:39.420418,-127.0
2023-08-16 12:12:39.428108,-125.0
2023-08-16 12:12:39.435797,-123.0
2023-08-16 12:12:39.443486,-120.0
2023-08-16 12:12:39.451175,-118.0
2023-08-16 12:12:39.458865,-115.0
2023-08-16 12:12:39.466554,-113.0
2023-08-16 12:12:39.474243,-110.0
2023-08-16 12:12:39.481933,-108.0
2023-08-16 12:12:39.489622,-106.0
2023-08-16 12:12:39.497311,-103.0
2023-08-16 12:12:39.505000,-101.0
2023-08-16 12:12:39.512690,-103.0
2023-08-16 12:12:39.520379,-110.0
2023-08-16 12:12:39.528068,-110.0
2023-08-16 12:12:39.535758,-103.0
2023-08-16 12:12:39.543447,-101.0
2023-08-16 12:12:39.551136,-98.0
2023-08-16 12:12:39.558826,-98.0
2023-08-16 12:12:39.566515,-98.0
2023-08-16 12:12:39.574204,-96.0
2023-08-16 12:12:39.581893,-91.0
2023-08-16 12:12:39.589583,-89.0
2023-08-16 12:12:39.597272,-89.0
2023-08-16 12:12:39.604961,-94.0
2023-08-16 12:12:39.612651,-94.0
2023-08-16 12:12:39.620340,-89.0
2023-08-16 12:12:39.628029,-89.0
2023-08-16 12:12:39.635718,-94.0
2023-08-16 12:12:39.643408,-96.0
2023-08-16 12:12:39.651097,-91.0
2023-08-16 12:12:39.658786,-89.0
2023-08-16 12:12:39.666476,-86.0
2023-08-16 12:12:39.674165,-84.0
2023-08-16 12:12:39.681854,-84.0
2023-08-16 12:12:39.689543,-84.0
2023-08-16 12:12:39.697233,-82.0
2023-08-16 12:12:39.704922,-79.0
2023-08-16 12:12:39.712611,-77.0
2023-08-16 12:12:39.720301,-74.0
2023-08-16 12:12:39.727990,-74.0
2023-08-16 12:12:39.735679,-72.0
2023-08-16 12:12:39.743369,-69.0
2023-08-16 12:12:39.751058,-69.0
2023-08-16 12:12:39.758747,-67.0
2023-08-16 12:12:39.766436,-67.0
2023-08-16 12:12:39.774126,-65.0
2023-08-16 12:12:39.781815,-62.0
2023-08-16 12:12:39.789504,-62.0
2023-08-16 12:12:39.797194,-62.0
2023-08-16 12:12:39.804883,-57.0
2023-08-16 12:12:39.812572,-57.0
2023-08-16 12:12:39.820261,-60.0
2023-08-16 12:12:39.827951,-60.0
2023-08-16 12:12:39.835640,-57.0
2023-08-16 12:12:39.843329,-57.0
2023-08-16 12:12:39.851019,-62.0
2023-08-16 12:12:39.858708,-69.0
2023-08-16 12:12:39.866397,-72.0
2023-08-16 12:12:39.874086,-72.0
2023-08-16 12:12:39.881776,-67.0
2023-08-16 12:12:39.889465,-41.0
2023-08-16 12:12:39.897154,-7.0
2023-08-16 12:12:39.904844,7.0
2023-08-16 12:12:39.912533,0.0
2023-08-16 12:12:39.920222,-2.0
2023-08-16 12:12:39.927912,-14.0
2023-08-16 12:12:39.935601,-45.0
2023-08-16 12:12:39.943290,-62.0
2023-08-16 12:12:39.950979,-55.0
2023-08-16 12:12:39.958669,-53.0
2023-08-16 12:12:39.966358,-57.0
2023-08-16 12:12:39.974047,-50.0
2023-08-16 12:12:39.981737,-43.0
2023-08-16 12:12:39.989426,-36.0
2023-08-16 12:12:39.997115,-7.0
2023-08-16 12:12:40.004804,188.0
2023-08-16 12:12:40.012494,784.0
2023-08-16 12:12:40.020183,1454.0
2023-08-16 12:12:40.027872,1375.0
2023-08-16 12:12:40.035562,501.0
2023-08-16 12:12:40.043251,-277.0
2023-08-16 12:12:40.050940,-328.0
2023-08-16 12:12:40.058630,-50.0
2023-08-16 12:12:40.066319,-86.0
2023-08-16 12:12:40.074008,-209.0
2023-08-16 12:12:40.081697,-144.0
2023-08-16 12:12:40.089387,-113.0
2023-08-16 12:12:40.097076,-142.0
2023-08-16 12:12:40.104765,-120.0
2023-08-16 12:12:40.112455,-89.0
2023-08-16 12:12:40.120144,-91.0
2023-08-16 12:12:40.127833,-82.0
2023-08-16 12:12:40.135522,-57.0
2023-08-16 12:12:40.143212,-50.0
2023-08-16 12:12:40.150901,-41.0
2023-08-16 12:12:40.158590,-14.0
2023-08-16 12:12:40.166280,7.0
2023-08-16 12:12:40.173969,24.0
2023-08-16 12:12:40.181658,50.0
2023-08-16 12:12:40.189347,82.0
2023-08-16 12:12:40.197037,110.0
2023-08-16 12:12:40.204726,144.0
2023-08-16 12:12:40.212415,183.0
2023-08-16 12:12:40.220105,226.0
2023-08-16 12:12:40.227794,275.0
2023-08-16 12:12:40.235483,320.0
2023-08-16 12:12:40.243173,357.0
2023-08-16 12:12:40.250862,383.0
2023-08-16 12:12:40.258551,398.0
2023-08-16 12:12:40.266240,395.0
2023-08-16 12:12:40.273930,374.0
2023-08-16 12:12:40.281619,318.0
2023-08-16 12:12:40.289308,238.0
2023-08-16 12:12:40.296998,149.0
2023-08-16 12:12:40.304687,36.0
2023-08-16 12:12:40.312376,-82.0
2023-08-16 12:12:40.320065,-176.0
2023-08-16 12:12:40.327755,-243.0
2023-08-16 12:12:40.335444,-294.0
2023-08-16 12:12:40.343133,-320.0
2023-08-16 12:12:40.350823,-330.0
2023-08-16 12:12:40.358512,-335.0
2023-08-16 12:12:40.366201,-335.0
2023-08-16 12:12:40.373890,-328.0
2023-08-16 12:12:40.381580,-318.0
2023-08-16 12:12:40.389269,-306.0
2023-08-16 12:12:40.396958,-291.0
2023-08-16 12:12:40.404648,-275.0
2023-08-16 12:12:40.412337,-265.0
2023-08-16 12:12:40.420026,-260.0
2023-08-16 12:12:40.427716,-248.0
2023-08-16 12:12:40.435405,-238.0
2023-08-16 12:12:40.443094,-234.0
2023-08-16 12:12:40.450783,-224.0
2023-08-16 12:12:40.458473,-207.0
2023-08-16 12:12:40.466162,-202.0
2023-08-16 12:12:40.473851,-202.0
2023-08-16 12:12:40.481541,-193.0
2023-08-16 12:12:40.489230,-188.0
2023-08-16 12:12:40.496919,-193.0
2023-08-16 12:12:40.504608,-190.0
2023-08-16 12:12:40.512298,-185.0
2023-08-16 12:12:40.519987,-180.0
2023-08-16 12:12:40.527676,-171.0
2023-08-16 12:12:40.535366,-164.0
2023-08-16 12:12:40.543055,-161.0
2023-08-16 12:12:40.550744,-159.0
2023-08-16 12:12:40.558433,-161.0
2023-08-16 12:12:40.566123,-159.0
2023-08-16 12:12:40.573812,-152.0
2023-08-16 12:12:40.581501,-152.0
2023-08-16 12:12:40.589191,-154.0
2023-08-16 12:12:40.596880,-152.0
2023-08-16 12:12:40.604569,-147.0
2023-08-16 12:12:40.612259,-142.0
2023-08-16 12:12:40.619948,-137.0
2023-08-16 12:12:40.627637,-130.0
2023-08-16 12:12:40.635326,-130.0
2023-08-16 12:12:40.643016,-137.0
2023-08-16 12:12:40.650705,-144.0
2023-08-16 12:12:40.658394,-147.0
2023-08-16 12:12:40.666084,-142.0
2023-08-16 12:12:40.673773,-132.0
2023-08-16 12:12:40.681462,-127.0
2023-08-16 12:12:40.689151,-130.0
2023-08-16 12:12:40.696841,-123.0
2023-08-16 12:12:40.704530,-115.0
2023-08-16 12:12:40.712219,-118.0
2023-08-16 12:12:40.719909,-113.0
2023-08-16 12:12:40.727598,-106.0
2023-08-16 12:12:40.735287,-113.0
2023-08-16 12:12:40.742976,-118.0
2023-08-16 12:12:40.750666,-108.0
2023-08-16 12:12:40.758355,-96.0
2023-08-16 12:12:40.766044,-94.0
2023-08-16 12:12:40.773734,-96.0
2023-08-16 12:12:40.781423,-96.0
2023-08-16 12:12:40.789112,-96.0
2023-08-16 12:12:40.796802,-94.0
2023-08-16 12:12:40.804491,-94.0
2023-08-16 12:12:40.812180,-94.0
2023-08-16 12:12:40.819869,-86.0
2023-08-16 12:12:40.827559,-79.0
2023-08-16 12:12:40.835248,-82.0
2023-08-16 12:12:40.842937,-84.0
2023-08-16 12:12:40.850627,-79.0
2023-08-16 12:12:40.858316,-79.0
2023-08-16 12:12:40.866005,-84.0
2023-08-16 12:12:40.873694,-84.0
2023-08-16 12:12:40.881384,-79.0
2023-08-16 12:12:40.889073,-74.0
2023-08-16 12:12:40.896762,-72.0
2023-08-16 12:12:40.904452,-65.0
2023-08-16 12:12:40.912141,-67.0
2023-08-16 12:12:40.919830,-77.0
2023-08-16 12:12:40.927519,-72.0
2023-08-16 12:12:40.935209,-65.0
2023-08-16 12:12:40.942898,-67.0
2023-08-16 12:12:40.950587,-72.0
2023-08-16 12:12:40.958277,-72.0
2023-08-16 12:12:40.965966,-69.0
2023-08-16 12:12:40.973655,-65.0
2023-08-16 12:12:40.981345,-67.0
2023-08-16 12:12:40.989034,-72.0
2023-08-16 12:12:40.996723,-74.0
2023-08-16 12:12:41.004412,-74.0
2023-08-16 12:12:41.012102,-62.0
2023-08-16 12:12:41.019791,-33.0
2023-08-16 12:12:41.027480,-9.0
2023-08-16 12:12:41.035170,0.0
2023-08-16 12:12:41.042859,-2.0
2023-08-16 12:12:41.050548,-16.0
2023-08-16 12:12:41.058237,-48.0
2023-08-16 12:12:41.065927,-72.0
2023-08-16 12:12:41.073616,-67.0
2023-08-16 12:12:41.081305,-65.0
2023-08-16 12:12:41.088995,-69.0
2023-08-16 12:12:41.096684,-65.0
2023-08-16 12:12:41.104373,-60.0
2023-08-16 12:12:41.112062,-57.0
2023-08-16 12:12:41.119752,-28.0
2023-08-16 12:12:41.127441,110.0
2023-08-16 12:12:41.135130,564.0
2023-08-16 12:12:41.142820,1254.0
2023-08-16 12:12:41.150509,1418.0
2023-08-16 12:12:41.158198,680.0
2023-08-16 12:12:41.165888,-212.0
2023-08-16 12:12:41.173577,-436.0
2023-08-16 12:12:41.181266,-130.0
2023-08-16 12:12:41.188955,-50.0
2023-08-16 12:12:41.196645,-193.0
2023-08-16 12:12:41.204334,-164.0
2023-08-16 12:12:41.212023,-108.0
2023-08-16 12:12:41.219713,-135.0
2023-08-16 12:12:41.227402,-127.0
2023-08-16 12:12:41.235091,-89.0
2023-08-16 12:12:41.242780,-84.0
2023-08-16 12:12:41.250470,-82.0
2023-08-16 12:12:41.258159,-60.0
2023-08-16 12:12:41.265848,-43.0
2023-08-16 12:12:41.273538,-36.0
2023-08-16 12:12:41.281227,-19.0
2023-08-16 12:12:41.288916,2.0
2023-08-16 12:12:41.296606,26.0
2023-08-16 12:12:41.304295,53.0
2023-08-16 12:12:41.311984,84.0
2023-08-16 12:12:41.319673,113.0
2023-08-16 12:12:41.327363,144.0
2023-08-16 12:12:41.335052,183.0
2023-08-16 12:12:41.342741,226.0
2023-08-16 12:12:41.350431,275.0
2023-08-16 12:12:41.358120,323.0
2023-08-16 12:12:41.365809,366.0
2023-08-16 12:12:41.373498,400.0
2023-08-16 12:12:41.381188,417.0
2023-08-16 12:12:41.388877,417.0
2023-08-16 12:12:41.396566,398.0
2023-08-16 12:12:41.404256,357.0
2023-08-16 12:12:41.411945,279.0
2023-08-16 12:12:41.419634,168.0
2023-08-16 12:12:41.427323,45.0
2023-08-16 12:12:41.435013,-74.0
2023-08-16 12:12:41.442702,-171.0
2023-08-16 12:12:41.450391,-241.0
2023-08-16 12:12:41.458081,-289.0
2023-08-16 12:12:41.465770,-316.0
2023-08-16 12:12:41.473459,-330.0
2023-08-16 12:12:41.481149,-335.0
2023-08-16 12:12:41.488838,-330.0
2023-08-16 12:12:41.496527,-320.0
2023-08-16 12:12:41.504216,-313.0
2023-08-16 12:12:41.511906,-301.0
2023-08-16 12:12:41.519595,-289.0
2023-08-16 12:12:41.527284,-277.0
2023-08-16 12:12:41.534974,-265.0
2023-08-16 12:12:41.542663,-255.0
2023-08-16 12:12:41.550352,-246.0
2023-08-16 12:12:41.558041,-234.0
2023-08-16 12:12:41.565731,-224.0
2023-08-16 12:12:41.573420,-219.0
2023-08-16 12:12:41.581109,-212.0
2023-08-16 12:12:41.588799,-205.0
2023-08-16 12:12:41.596488,-197.0
2023-08-16 12:12:41.604177,-190.0
2023-08-16 12:12:41.611866,-185.0
2023-08-16 12:12:41.619556,-183.0
2023-08-16 12:12:41.627245,-178.0
2023-08-16 12:12:41.634934,-176.0
2023-08-16 12:12:41.642624,-171.0
2023-08-16 12:12:41.650313,-168.0
2023-08-16 12:12:41.658002,-166.0
2023-08-16 12:12:41.665692,-168.0
2023-08-16 12:12:41.673381,-171.0
2023-08-16 12:12:41.681070,-166.0
2023-08-16 12:12:41.688759,-161.0
2023-08-16 12:12:41.696449,-159.0
2023-08-16 12:12:41.704138,-154.0
2023-08-16 12:12:41.711827,-152.0
2023-08-16 12:12:41.719517,-149.0
2023-08-16 12:12:41.727206,-144.0
2023-08-16 12:12:41.734895,-137.0
2023-08-16 12:12:41.742584,-135.0
2023-08-16 12:12:41.750274,-135.0
2023-08-16 12:12:41.757963,-132.0
2023-08-16 12:12:41.765652,-135.0
2023-08-16 12:12:41.773342,-142.0
2023-08-16 12:12:41.781031,-139.0
2023-08-16 12:12:41.788720,-132.0
2023-08-16 12:12:41.796409,-130.0
2023-08-16 12:12:41.804099,-127.0
2023-08-16 12:12:41.811788,-123.0
2023-08-16 12:12:41.819477,-123.0
2023-08-16 12:12:41.827167,-123.0
2023-08-16 12:12:41.834856,-118.0
2023-08-16 12:12:41.842545,-113.0
2023-08-16 12:12:41.850235,-113.0
2023-08-16 12:12:41.857924,-115.0
2023-08-16 12:12:41.865613,-120.0
2023-08-16 12:12:41.873302,-115.0
2023-08-16 12:12:41.880992,-108.0
2023-08-16 12:12:41.888681,-106.0
2023-08-16 12:12:41.896370,-106.0
2023-08-16 12:12:41.904060,-106.0
2023-08-16 12:12:41.911749,-101.0
2023-08-16 12:12:41.919438,-98.0
2023-08-16 12:12:41.927127,-98.0
2023-08-16 12:12:41.934817,-98.0
2023-08-16 12:12:41.942506,-98.0
2023-08-16 12:12:41.950195,-96.0
2023-08-16 12:12:41.957885,-94.0
2023-08-16 12:12:41.965574,-91.0
2023-08-16 12:12:41.973263,-89.0
2023-08-16 12:12:41.980952,-89.0
2023-08-16 12:12:41.988642,-89.0
2023-08-16 12:12:41.996331,-89.0
2023-08-16 12:12:42.004020,-86.0
2023-08-16 12:12:42.011710,-89.0
2023-08-16 12:12:42.019399,-96.0
2023-08-16 12:12:42.027088,-101.0
2023-08-16 12:12:42.034778,-98.0
2023-08-16 12:12:42.042467,-82.0
2023-08-16 12:12:42.050156,-48.0
2023-08-16 12:12:42.057845,-19.0
2023-08-16 12:12:42.065535,-19.0
2023-08-16 12:12:42.073224,-28.0
2023-08-16 12:12:42.080913,-41.0
2023-08-16 12:12:42.088603,-72.0
2023-08-16 12:12:42.096292,-96.0
2023-08-16 12:12:42.103981,-89.0
2023-08-16 12:12:42.111670,-82.0
2023-08-16 12:12:42.119360,-84.0
2023-08-16 12:12:42.127049,-82.0
2023-08-16 12:12:42.134738,-77.0
2023-08-16 12:12:42.142428,-67.0
2023-08-16 12:12:42.150117,-36.0
2023-08-16 12:12:42.157806,132.0
2023-08-16 12:12:42.165495,673.0
2023-08-16 12:12:42.173185,1365.0
2023-08-16 12:12:42.180874,1368.0
2023-08-16 12:12:42.188563,518.0
2023-08-16 12:12:42.196253,-291.0
2023-08-16 12:12:42.203942,-383.0
2023-08-16 12:12:42.211631,-89.0
2023-08-16 12:12:42.219321,-79.0
2023-08-16 12:12:42.227010,-209.0
2023-08-16 12:12:42.234699,-156.0
2023-08-16 12:12:42.242388,-110.0
2023-08-16 12:12:42.250078,-139.0
2023-08-16 12:12:42.257767,-125.0
2023-08-16 12:12:42.265456,-91.0
2023-08-16 12:12:42.273146,-86.0
2023-08-16 12:12:42.280835,-72.0
2023-08-16 12:12:42.288524,-50.0
2023-08-16 12:12:42.296213,-36.0
2023-08-16 12:12:42.303903,-24.0
2023-08-16 12:12:42.311592,-4.0
2023-08-16 12:12:42.319281,14.0
2023-08-16 12:12:42.326971,36.0
2023-08-16 12:12:42.334660,65.0
2023-08-16 12:12:42.342349,96.0
2023-08-16 12:12:42.350038,123.0
2023-08-16 12:12:42.357728,152.0
2023-08-16 12:12:42.365417,193.0
2023-08-16 12:12:42.373106,241.0
2023-08-16 12:12:42.380796,289.0
2023-08-16 12:12:42.388485,337.0
2023-08-16 12:12:42.396174,381.0
2023-08-16 12:12:42.403864,412.0
2023-08-16 12:12:42.411553,429.0
2023-08-16 12:12:42.419242,427.0
2023-08-16 12:12:42.426931,398.0
2023-08-16 12:12:42.434621,345.0
2023-08-16 12:12:42.442310,260.0
2023-08-16 12:12:42.449999,144.0
2023-08-16 12:12:42.457689,16.0
2023-08-16 12:12:42.465378,-96.0
2023-08-16 12:12:42.473067,-185.0
2023-08-16 12:12:42.480756,-250.0
2023-08-16 12:12:42.488446,-296.0
2023-08-16 12:12:42.496135,-318.0
2023-08-16 12:12:42.503824,-325.0
2023-08-16 12:12:42.511514,-325.0
2023-08-16 12:12:42.519203,-320.0
2023-08-16 12:12:42.526892,-313.0
2023-08-16 12:12:42.534581,-304.0
2023-08-16 12:12:42.542271,-294.0
2023-08-16 12:12:42.549960,-284.0
2023-08-16 12:12:42.557649,-275.0
2023-08-16 12:12:42.565339,-265.0
2023-08-16 12:12:42.573028,-250.0
2023-08-16 12:12:42.580717,-243.0
2023-08-16 12:12:42.588407,-234.0
2023-08-16 12:12:42.596096,-221.0
2023-08-16 12:12:42.603785,-212.0
2023-08-16 12:12:42.611474,-205.0
2023-08-16 12:12:42.619164,-200.0
2023-08-16 12:12:42.626853,-195.0
2023-08-16 12:12:42.634542,-190.0
2023-08-16 12:12:42.642232,-180.0
2023-08-16 12:12:42.649921,-176.0
2023-08-16 12:12:42.657610,-173.0
2023-08-16 12:12:42.665299,-168.0
2023-08-16 12:12:42.672989,-168.0
2023-08-16 12:12:42.680678,-173.0
2023-08-16 12:12:42.688367,-171.0
2023-08-16 12:12:42.696057,-161.0
2023-08-16 12:12:42.703746,-159.0
2023-08-16 12:12:42.711435,-159.0
2023-08-16 12:12:42.719125,-156.0
2023-08-16 12:12:42.726814,-154.0
2023-08-16 12:12:42.734503,-149.0
2023-08-16 12:12:42.742192,-144.0
2023-08-16 12:12:42.749882,-139.0
2023-08-16 12:12:42.757571,-137.0
2023-08-16 12:12:42.765260,-137.0
2023-08-16 12:12:42.772950,-135.0
2023-08-16 12:12:42.780639,-135.0
2023-08-16 12:12:42.788328,-130.0
2023-08-16 12:12:42.796017,-125.0
2023-08-16 12:12:42.803707,-125.0
2023-08-16 12:12:42.811396,-130.0
2023-08-16 12:12:42.819085,-123.0
2023-08-16 12:12:42.826775,-113.0
2023-08-16 12:12:42.834464,-113.0
2023-08-16 12:12:42.842153,-118.0
2023-08-16 12:12:42.849842,-115.0
2023-08-16 12:12:42.857532,-113.0
2023-08-16 12:12:42.865221,-108.0
2023-08-16 12:12:42.872910,-103.0
2023-08-16 12:12:42.880600,-101.0
2023-08-16 12:12:42.888289,-106.0
2023-08-16 12:12:42.895978,-113.0
2023-08-16 12:12:42.903668,-108.0
2023-08-16 12:12:42.911357,-101.0
2023-08-16 12:12:42.919046,-101.0
2023-08-16 12:12:42.926735,-103.0
2023-08-16 12:12:42.934425,-103.0
2023-08-16 12:12:42.942114,-101.0
2023-08-16 12:12:42.949803,-96.0
2023-08-16 12:12:42.957493,-89.0
2023-08-16 12:12:42.965182,-86.0
2023-08-16 12:12:42.972871,-91.0
2023-08-16 12:12:42.980560,-89.0
2023-08-16 12:12:42.988250,-84.0
2023-08-16 12:12:42.995939,-84.0
2023-08-16 12:12:43.003628,-86.0
2023-08-16 12:12:43.011318,-82.0
2023-08-16 12:12:43.019007,-79.0
2023-08-16 12:12:43.026696,-84.0
2023-08-16 12:12:43.034385,-84.0
2023-08-16 12:12:43.042075,-84.0
2023-08-16 12:12:43.049764,-86.0
2023-08-16 12:12:43.057453,-84.0
2023-08-16 12:12:43.065143,-89.0
2023-08-16 12:12:43.072832,-101.0
2023-08-16 12:12:43.080521,-108.0
2023-08-16 12:12:43.088211,-96.0
2023-08-16 12:12:43.095900,-69.0
2023-08-16 12:12:43.103589,-36.0
2023-08-16 12:12:43.111278,-16.0
2023-08-16 12:12:43.118968,-21.0
2023-08-16 12:12:43.126657,-26.0
2023-08-16 12:12:43.134346,-38.0
2023-08-16 12:12:43.142036,-69.0
2023-08-16 12:12:43.149725,-86.0
2023-08-16 12:12:43.157414,-79.0
2023-08-16 12:12:43.165103,-74.0
2023-08-16 12:12:43.172793,-79.0
2023-08-16 12:12:43.180482,-86.0
2023-08-16 12:12:43.188171,-82.0
2023-08-16 12:12:43.195861,-62.0
2023-08-16 12:12:43.203550,21.0
2023-08-16 12:12:43.211239,386.0
2023-08-16 12:12:43.218928,1105.0
2023-08-16 12:12:43.226618,1508.0
2023-08-16 12:12:43.234307,972.0
2023-08-16 12:12:43.241996,0.0
2023-08-16 12:12:43.249686,-460.0
2023-08-16 12:12:43.257375,-226.0
2023-08-16 12:12:43.265064,-38.0
2023-08-16 12:12:43.272754,-173.0
2023-08-16 12:12:43.280443,-200.0
2023-08-16 12:12:43.288132,-125.0
2023-08-16 12:12:43.295821,-137.0
2023-08-16 12:12:43.303511,-149.0
2023-08-16 12:12:43.311200,-113.0
2023-08-16 12:12:43.318889,-98.0
2023-08-16 12:12:43.326579,-91.0
2023-08-16 12:12:43.334268,-69.0
2023-08-16 12:12:43.341957,-53.0
2023-08-16 12:12:43.349646,-43.0
2023-08-16 12:12:43.357336,-19.0
2023-08-16 12:12:43.365025,7.0
2023-08-16 12:12:43.372714,24.0
2023-08-16 12:12:43.380404,43.0
2023-08-16 12:12:43.388093,69.0
2023-08-16 12:12:43.395782,103.0
2023-08-16 12:12:43.403471,147.0
2023-08-16 12:12:43.411161,193.0
2023-08-16 12:12:43.418850,229.0
2023-08-16 12:12:43.426539,272.0
2023-08-16 12:12:43.434229,320.0
2023-08-16 12:12:43.441918,361.0
2023-08-16 12:12:43.449607,395.0
2023-08-16 12:12:43.457297,427.0
2023-08-16 12:12:43.464986,434.0
2023-08-16 12:12:43.472675,410.0
2023-08-16 12:12:43.480364,369.0
2023-08-16 12:12:43.488054,304.0
2023-08-16 12:12:43.495743,205.0
2023-08-16 12:12:43.503432,69.0
2023-08-16 12:12:43.511122,-65.0
2023-08-16 12:12:43.518811,-166.0
2023-08-16 12:12:43.526500,-243.0
2023-08-16 12:12:43.534189,-299.0
2023-08-16 12:12:43.541879,-332.0
2023-08-16 12:12:43.549568,-349.0
2023-08-16 12:12:43.557257,-349.0
2023-08-16 12:12:43.564947,-340.0
2023-08-16 12:12:43.572636,-335.0
2023-08-16 12:12:43.580325,-330.0
2023-08-16 12:12:43.588014,-323.0
2023-08-16 12:12:43.595704,-313.0
2023-08-16 12:12:43.603393,-294.0
2023-08-16 12:12:43.611082,-275.0
2023-08-16 12:12:43.618772,-267.0
2023-08-16 12:12:43.626461,-265.0
2023-08-16 12:12:43.634150,-250.0
2023-08-16 12:12:43.641840,-229.0
2023-08-16 12:12:43.649529,-224.0
2023-08-16 12:12:43.657218,-224.0
2023-08-16 12:12:43.664907,-214.0
2023-08-16 12:12:43.672597,-202.0
2023-08-16 12:12:43.680286,-200.0
2023-08-16 12:12:43.687975,-202.0
2023-08-16 12:12:43.695665,-197.0
2023-08-16 12:12:43.703354,-185.0
2023-08-16 12:12:43.711043,-185.0
2023-08-16 12:12:43.718732,-190.0
2023-08-16 12:12:43.726422,-180.0
2023-08-16 12:12:43.734111,-176.0
2023-08-16 12:12:43.741800,-173.0
2023-08-16 12:12:43.749490,-168.0
2023-08-16 12:12:43.757179,-168.0
2023-08-16 12:12:43.764868,-176.0
2023-08-16 12:12:43.772557,-168.0
2023-08-16 12:12:43.780247,-154.0
2023-08-16 12:12:43.787936,-154.0
2023-08-16 12:12:43.795625,-156.0
2023-08-16 12:12:43.803315,-154.0
2023-08-16 12:12:43.811004,-152.0
2023-08-16 12:12:43.818693,-144.0
2023-08-16 12:12:43.826383,-142.0
2023-08-16 12:12:43.834072,-144.0
2023-08-16 12:12:43.841761,-144.0
2023-08-16 12:12:43.849450,-137.0
2023-08-16 12:12:43.857140,-132.0
2023-08-16 12:12:43.864829,-127.0
2023-08-16 12:12:43.872518,-123.0
2023-08-16 12:12:43.880208,-123.0
2023-08-16 12:12:43.887897,-125.0
2023-08-16 12:12:43.895586,-120.0
2023-08-16 12:12:43.903275,-115.0
2023-08-16 12:12:43.910965,-110.0
2023-08-16 12:12:43.918654,-110.0
2023-08-16 12:12:43.926343,-115.0
2023-08-16 12:12:43.934033,-113.0
2023-08-16 12:12:43.941722,-101.0
2023-08-16 12:12:43.949411,-101.0
2023-08-16 12:12:43.957100,-103.0
2023-08-16 12:12:43.964790,-106.0
2023-08-16 12:12:43.972479,-120.0
2023-08-16 12:12:43.980168,-127.0
2023-08-16 12:12:43.987858,-113.0
2023-08-16 12:12:43.995547,-94.0
2023-08-16 12:12:44.003236,-69.0
2023-08-16 12:12:44.010926,-45.0
2023-08-16 12:12:44.018615,-41.0
2023-08-16 12:12:44.026304,-48.0
2023-08-16 12:12:44.033993,-65.0
2023-08-16 12:12:44.041683,-98.0
2023-08-16 12:12:44.049372,-106.0
2023-08-16 12:12:44.057061,-94.0
2023-08-16 12:12:44.064751,-96.0
2023-08-16 12:12:44.072440,-94.0
2023-08-16 12:12:44.080129,-82.0
2023-08-16 12:12:44.087818,-79.0
2023-08-16 12:12:44.095508,-67.0
2023-08-16 12:12:44.103197,-4.0
2023-08-16 12:12:44.110886,243.0
2023-08-16 12:12:44.118576,810.0
2023-08-16 12:12:44.126265,1324.0
2023-08-16 12:12:44.133954,1066.0
2023-08-16 12:12:44.141644,127.0
2023-08-16 12:12:44.149333,-492.0
2023-08-16 12:12:44.157022,-323.0
2023-08-16 12:12:44.164711,-38.0
2023-08-16 12:12:44.172401,-110.0
2023-08-16 12:12:44.180090,-173.0
2023-08-16 12:12:44.187779,-98.0
2023-08-16 12:12:44.195469,-91.0
2023-08-16 12:12:44.203158,-108.0
2023-08-16 12:12:44.210847,-86.0
2023-08-16 12:12:44.218536,-72.0
2023-08-16 12:12:44.226226,-62.0
2023-08-16 12:12:44.233915,-45.0
2023-08-16 12:12:44.241604,-33.0
2023-08-16 12:12:44.249294,-19.0
2023-08-16 12:12:44.256983,-2.0
2023-08-16 12:12:44.264672,19.0
2023-08-16 12:12:44.272361,43.0
2023-08-16 12:12:44.280051,65.0
2023-08-16 12:12:44.287740,91.0
2023-08-16 12:12:44.295429,118.0
2023-08-16 12:12:44.303119,152.0
2023-08-16 12:12:44.310808,197.0
2023-08-16 12:12:44.318497,250.0
2023-08-16 12:12:44.326187,304.0
2023-08-16 12:12:44.333876,352.0
2023-08-16 12:12:44.341565,400.0
2023-08-16 12:12:44.349254,448.0
2023-08-16 12:12:44.356944,482.0
2023-08-16 12:12:44.364633,487.0
2023-08-16 12:12:44.372322,463.0
2023-08-16 12:12:44.380012,412.0
2023-08-16 12:12:44.387701,325.0
2023-08-16 12:12:44.395390,193.0
2023-08-16 12:12:44.403079,41.0
2023-08-16 12:12:44.410769,-98.0
2023-08-16 12:12:44.418458,-209.0
2023-08-16 12:12:44.426147,-284.0
2023-08-16 12:12:44.433837,-328.0
2023-08-16 12:12:44.441526,-354.0
2023-08-16 12:12:44.449215,-366.0
2023-08-16 12:12:44.456904,-361.0
2023-08-16 12:12:44.464594,-361.0
2023-08-16 12:12:44.472283,-366.0
2023-08-16 12:12:44.479972,-357.0
2023-08-16 12:12:44.487662,-337.0
2023-08-16 12:12:44.495351,-323.0
2023-08-16 12:12:44.503040,-311.0
2023-08-16 12:12:44.510730,-299.0
2023-08-16 12:12:44.518419,-294.0
2023-08-16 12:12:44.526108,-287.0
2023-08-16 12:12:44.533797,-270.0
2023-08-16 12:12:44.541487,-253.0
2023-08-16 12:12:44.549176,-243.0
2023-08-16 12:12:44.556865,-236.0
2023-08-16 12:12:44.564555,-229.0
2023-08-16 12:12:44.572244,-221.0
2023-08-16 12:12:44.579933,-214.0
2023-08-16 12:12:44.587622,-207.0
2023-08-16 12:12:44.595312,-212.0
2023-08-16 12:12:44.603001,-214.0
2023-08-16 12:12:44.610690,-207.0
2023-08-16 12:12:44.618380,-200.0
2023-08-16 12:12:44.626069,-202.0
2023-08-16 12:12:44.633758,-200.0
2023-08-16 12:12:44.641447,-195.0
2023-08-16 12:12:44.649137,-200.0
2023-08-16 12:12:44.656826,-200.0
2023-08-16 12:12:44.664515,-193.0
2023-08-16 12:12:44.672205,-188.0
2023-08-16 12:12:44.679894,-183.0
2023-08-16 12:12:44.687583,-178.0
2023-08-16 12:12:44.695273,-176.0
2023-08-16 12:12:44.702962,-176.0
2023-08-16 12:12:44.710651,-173.0
2023-08-16 12:12:44.718340,-171.0
2023-08-16 12:12:44.726030,-168.0
2023-08-16 12:12:44.733719,-161.0
2023-08-16 12:12:44.741408,-154.0
2023-08-16 12:12:44.749098,-152.0
2023-08-16 12:12:44.756787,-149.0
2023-08-16 12:12:44.764476,-147.0
2023-08-16 12:12:44.772165,-147.0
2023-08-16 12:12:44.779855,-144.0
2023-08-16 12:12:44.787544,-139.0
2023-08-16 12:12:44.795233,-132.0
2023-08-16 12:12:44.802923,-127.0
2023-08-16 12:12:44.810612,-127.0
2023-08-16 12:12:44.818301,-127.0
2023-08-16 12:12:44.825990,-120.0
2023-08-16 12:12:44.833680,-118.0
2023-08-16 12:12:44.841369,-118.0
2023-08-16 12:12:44.849058,-115.0
2023-08-16 12:12:44.856748,-110.0
2023-08-16 12:12:44.864437,-110.0
2023-08-16 12:12:44.872126,-106.0
2023-08-16 12:12:44.879816,-103.0
2023-08-16 12:12:44.887505,-101.0
2023-08-16 12:12:44.895194,-98.0
2023-08-16 12:12:44.902883,-96.0
2023-08-16 12:12:44.910573,-103.0
2023-08-16 12:12:44.918262,-108.0
2023-08-16 12:12:44.925951,-110.0
2023-08-16 12:12:44.933641,-106.0
2023-08-16 12:12:44.941330,-79.0
2023-08-16 12:12:44.949019,-41.0
2023-08-16 12:12:44.956708,-21.0
2023-08-16 12:12:44.964398,-28.0
2023-08-16 12:12:44.972087,-33.0
2023-08-16 12:12:44.979776,-53.0
2023-08-16 12:12:44.987466,-82.0
2023-08-16 12:12:44.995155,-84.0
2023-08-16 12:12:45.002844,-77.0
2023-08-16 12:12:45.010533,-74.0
2023-08-16 12:12:45.018223,-72.0
2023-08-16 12:12:45.025912,-72.0
2023-08-16 12:12:45.033601,-67.0
2023-08-16 12:12:45.041291,-50.0
2023-08-16 12:12:45.048980,26.0
2023-08-16 12:12:45.056669,378.0
2023-08-16 12:12:45.064359,1085.0
2023-08-16 12:12:45.072048,1464.0
2023-08-16 12:12:45.079737,931.0
2023-08-16 12:12:45.087426,0.0
2023-08-16 12:12:45.095116,-431.0
2023-08-16 12:12:45.102805,-205.0
2023-08-16 12:12:45.110494,-26.0
2023-08-16 12:12:45.118184,-154.0
2023-08-16 12:12:45.125873,-176.0
2023-08-16 12:12:45.133562,-106.0
2023-08-16 12:12:45.141251,-127.0
2023-08-16 12:12:45.148941,-144.0
2023-08-16 12:12:45.156630,-106.0
2023-08-16 12:12:45.164319,-86.0
2023-08-16 12:12:45.172009,-82.0
2023-08-16 12:12:45.179698,-62.0
2023-08-16 12:12:45.187387,-48.0
2023-08-16 12:12:45.195076,-41.0
2023-08-16 12:12:45.202766,-24.0
2023-08-16 12:12:45.210455,-2.0
2023-08-16 12:12:45.218144,16.0
2023-08-16 12:12:45.225834,41.0
2023-08-16 12:12:45.233523,67.0
2023-08-16 12:12:45.241212,98.0
2023-08-16 12:12:45.248902,137.0
2023-08-16 12:12:45.256591,176.0
2023-08-16 12:12:45.264280,217.0
2023-08-16 12:12:45.271969,263.0
2023-08-16 12:12:45.279659,313.0
2023-08-16 12:12:45.287348,361.0
2023-08-16 12:12:45.295037,398.0
2023-08-16 12:12:45.302727,417.0
2023-08-16 12:12:45.310416,417.0
2023-08-16 12:12:45.318105,395.0
2023-08-16 12:12:45.325794,352.0
2023-08-16 12:12:45.333484,270.0
2023-08-16 12:12:45.341173,156.0
2023-08-16 12:12:45.348862,28.0
2023-08-16 12:12:45.356552,-91.0
2023-08-16 12:12:45.364241,-188.0
2023-08-16 12:12:45.371930,-253.0
2023-08-16 12:12:45.379619,-291.0
2023-08-16 12:12:45.387309,-313.0
2023-08-16 12:12:45.394998,-328.0
2023-08-16 12:12:45.402687,-332.0
2023-08-16 12:12:45.410377,-325.0
2023-08-16 12:12:45.418066,-318.0
2023-08-16 12:12:45.425755,-308.0
2023-08-16 12:12:45.433445,-299.0
2023-08-16 12:12:45.441134,-287.0
2023-08-16 12:12:45.448823,-277.0
2023-08-16 12:12:45.456512,-267.0
2023-08-16 12:12:45.464202,-255.0
2023-08-16 12:12:45.471891,-243.0
2023-08-16 12:12:45.479580,-231.0
2023-08-16 12:12:45.487270,-226.0
2023-08-16 12:12:45.494959,-217.0
2023-08-16 12:12:45.502648,-207.0
2023-08-16 12:12:45.510337,-205.0
2023-08-16 12:12:45.518027,-202.0
2023-08-16 12:12:45.525716,-195.0
2023-08-16 12:12:45.533405,-193.0
2023-08-16 12:12:45.541095,-195.0
2023-08-16 12:12:45.548784,-195.0
2023-08-16 12:12:45.556473,-190.0
2023-08-16 12:12:45.564163,-183.0
2023-08-16 12:12:45.571852,-176.0
2023-08-16 12:12:45.579541,-180.0
2023-08-16 12:12:45.587230,-185.0
2023-08-16 12:12:45.594920,-180.0
2023-08-16 12:12:45.602609,-171.0
2023-08-16 12:12:45.610298,-168.0
2023-08-16 12:12:45.617988,-168.0
2023-08-16 12:12:45.625677,-164.0
2023-08-16 12:12:45.633366,-161.0
2023-08-16 12:12:45.641055,-159.0
2023-08-16 12:12:45.648745,-154.0
2023-08-16 12:12:45.656434,-149.0
2023-08-16 12:12:45.664123,-147.0
2023-08-16 12:12:45.671813,-142.0
2023-08-16 12:12:45.679502,-144.0
2023-08-16 12:12:45.687191,-154.0
2023-08-16 12:12:45.694880,-152.0
2023-08-16 12:12:45.702570,-144.0
2023-08-16 12:12:45.710259,-142.0
2023-08-16 12:12:45.717948,-144.0
2023-08-16 12:12:45.725638,-154.0
2023-08-16 12:12:45.733327,-159.0
2023-08-16 12:12:45.741016,-152.0
2023-08-16 12:12:45.748706,-142.0
2023-08-16 12:12:45.756395,-142.0
2023-08-16 12:12:45.764084,-144.0
2023-08-16 12:12:45.771773,-142.0
2023-08-16 12:12:45.779463,-137.0
2023-08-16 12:12:45.787152,-135.0
2023-08-16 12:12:45.794841,-127.0
2023-08-16 12:12:45.802531,-123.0
2023-08-16 12:12:45.810220,-120.0
2023-08-16 12:12:45.817909,-120.0
2023-08-16 12:12:45.825598,-118.0
2023-08-16 12:12:45.833288,-113.0
2023-08-16 12:12:45.840977,-110.0
2023-08-16 12:12:45.848666,-108.0
2023-08-16 12:12:45.856356,-106.0
2023-08-16 12:12:45.864045,-106.0
2023-08-16 12:12:45.871734,-103.0
2023-08-16 12:12:45.879423,-96.0
2023-08-16 12:12:45.887113,-94.0
2023-08-16 12:12:45.894802,-91.0
2023-08-16 12:12:45.902491,-91.0
2023-08-16 12:12:45.910181,-89.0
2023-08-16 12:12:45.917870,-86.0
2023-08-16 12:12:45.925559,-84.0
2023-08-16 12:12:45.933249,-82.0
2023-08-16 12:12:45.940938,-79.0
2023-08-16 12:12:45.948627,-79.0
2023-08-16 12:12:45.956316,-79.0
2023-08-16 12:12:45.964006,-77.0
2023-08-16 12:12:45.971695,-69.0
2023-08-16 12:12:45.979384,-67.0
2023-08-16 12:12:45.987074,-67.0
2023-08-16 12:12:45.994763,-69.0
2023-08-16 12:12:46.002452,-72.0
2023-08-16 12:12:46.010141,-72.0
2023-08-16 12:12:46.017831,-67.0
2023-08-16 12:12:46.025520,-62.0
2023-08-16 12:12:46.033209,-65.0
2023-08-16 12:12:46.040899,-65.0
2023-08-16 12:12:46.048588,-67.0
2023-08-16 12:12:46.056277,-65.0
2023-08-16 12:12:46.063966,-62.0
2023-08-16 12:12:46.071656,-60.0
2023-08-16 12:12:46.079345,-57.0
2023-08-16 12:12:46.087034,-60.0
2023-08-16 12:12:46.094724,-60.0
2023-08-16 12:12:46.102413,-57.0
2023-08-16 12:12:46.110102,-53.0
2023-08-16 12:12:46.117792,-53.0
2023-08-16 12:12:46.125481,-55.0
2023-08-16 12:12:46.133170,-57.0
2023-08-16 12:12:46.140859,-67.0
2023-08-16 12:12:46.148549,-74.0
2023-08-16 12:12:46.156238,-72.0
2023-08-16 12:12:46.163927,-65.0
2023-08-16 12:12:46.171617,-36.0
2023-08-16 12:12:46.179306,0.0
2023-08-16 12:12:46.186995,14.0
2023-08-16 12:12:46.194684,9.0
2023-08-16 12:12:46.202374,2.0
2023-08-16 12:12:46.210063,-12.0
2023-08-16 12:12:46.217752,-48.0
2023-08-16 12:12:46.225442,-67.0
2023-08-16 12:12:46.233131,-55.0
2023-08-16 12:12:46.240820,-53.0
2023-08-16 12:12:46.248509,-57.0
2023-08-16 12:12:46.256199,-55.0
2023-08-16 12:12:46.263888,-55.0
2023-08-16 12:12:46.271577,-55.0
2023-08-16 12:12:46.279267,-2.0
2023-08-16 12:12:46.286956,313.0
2023-08-16 12:12:46.294645,1018.0
2023-08-16 12:12:46.302335,1512.0
2023-08-16 12:12:46.310024,1141.0
2023-08-16 12:12:46.317713,219.0
2023-08-16 12:12:46.325402,-386.0
2023-08-16 12:12:46.333092,-270.0
2023-08-16 12:12:46.340781,-41.0
2023-08-16 12:12:46.348470,-154.0
2023-08-16 12:12:46.356160,-229.0
2023-08-16 12:12:46.363849,-156.0
2023-08-16 12:12:46.371538,-152.0
2023-08-16 12:12:46.379227,-168.0
2023-08-16 12:12:46.386917,-132.0
2023-08-16 12:12:46.394606,-110.0
2023-08-16 12:12:46.402295,-110.0
2023-08-16 12:12:46.409985,-94.0
2023-08-16 12:12:46.417674,-74.0
2023-08-16 12:12:46.425363,-62.0
2023-08-16 12:12:46.433052,-45.0
2023-08-16 12:12:46.440742,-26.0
2023-08-16 12:12:46.448431,-7.0
2023-08-16 12:12:46.456120,14.0
2023-08-16 12:12:46.463810,43.0
2023-08-16 12:12:46.471499,72.0
2023-08-16 12:12:46.479188,103.0
2023-08-16 12:12:46.486878,142.0
2023-08-16 12:12:46.494567,180.0
2023-08-16 12:12:46.502256,219.0
2023-08-16 12:12:46.509945,263.0
2023-08-16 12:12:46.517635,308.0
2023-08-16 12:12:46.525324,347.0
2023-08-16 12:12:46.533013,374.0
2023-08-16 12:12:46.540703,383.0
2023-08-16 12:12:46.548392,371.0
2023-08-16 12:12:46.556081,345.0
2023-08-16 12:12:46.563770,294.0
2023-08-16 12:12:46.571460,214.0
2023-08-16 12:12:46.579149,103.0
2023-08-16 12:12:46.586838,-16.0
2023-08-16 12:12:46.594528,-123.0
2023-08-16 12:12:46.602217,-205.0
2023-08-16 12:12:46.609906,-263.0
2023-08-16 12:12:46.617595,-299.0
2023-08-16 12:12:46.625285,-320.0
2023-08-16 12:12:46.632974,-330.0
2023-08-16 12:12:46.640663,-330.0
2023-08-16 12:12:46.648353,-323.0
2023-08-16 12:12:46.656042,-313.0
2023-08-16 12:12:46.663731,-304.0
2023-08-16 12:12:46.671421,-294.0
2023-08-16 12:12:46.679110,-282.0
2023-08-16 12:12:46.686799,-272.0
2023-08-16 12:12:46.694488,-263.0
2023-08-16 12:12:46.702178,-250.0
2023-08-16 12:12:46.709867,-241.0
2023-08-16 12:12:46.717556,-236.0
2023-08-16 12:12:46.725246,-234.0
2023-08-16 12:12:46.732935,-226.0
2023-08-16 12:12:46.740624,-219.0
2023-08-16 12:12:46.748313,-217.0
2023-08-16 12:12:46.756003,-212.0
2023-08-16 12:12:46.763692,-205.0
2023-08-16 12:12:46.771381,-202.0
2023-08-16 12:12:46.779071,-197.0
2023-08-16 12:12:46.786760,-195.0
2023-08-16 12:12:46.794449,-190.0
2023-08-16 12:12:46.802139,-185.0
2023-08-16 12:12:46.809828,-183.0
2023-08-16 12:12:46.817517,-178.0
2023-08-16 12:12:46.825206,-173.0
2023-08-16 12:12:46.832896,-168.0
2023-08-16 12:12:46.840585,-166.0
2023-08-16 12:12:46.848274,-166.0
2023-08-16 12:12:46.855964,-168.0
2023-08-16 12:12:46.863653,-166.0
2023-08-16 12:12:46.871342,-159.0
2023-08-16 12:12:46.879031,-156.0
2023-08-16 12:12:46.886721,-152.0
2023-08-16 12:12:46.894410,-147.0
2023-08-16 12:12:46.902099,-144.0
2023-08-16 12:12:46.909789,-139.0
2023-08-16 12:12:46.917478,-137.0
2023-08-16 12:12:46.925167,-135.0
2023-08-16 12:12:46.932856,-130.0
2023-08-16 12:12:46.940546,-127.0
2023-08-16 12:12:46.948235,-125.0
2023-08-16 12:12:46.955924,-123.0
2023-08-16 12:12:46.963614,-118.0
2023-08-16 12:12:46.971303,-115.0
2023-08-16 12:12:46.978992,-113.0
2023-08-16 12:12:46.986682,-110.0
2023-08-16 12:12:46.994371,-110.0
2023-08-16 12:12:47.002060,-108.0
2023-08-16 12:12:47.009749,-103.0
2023-08-16 12:12:47.017439,-103.0
2023-08-16 12:12:47.025128,-103.0
2023-08-16 12:12:47.032817,-101.0
