time,ECG
2023-08-17 17:19:44.690647,-66.0
2023-08-17 17:19:44.698336,-62.0
2023-08-17 17:19:44.706025,-59.0
2023-08-17 17:19:44.713714,-59.0
2023-08-17 17:19:44.721403,-62.0
2023-08-17 17:19:44.729092,-64.0
2023-08-17 17:19:44.736781,-64.0
2023-08-17 17:19:44.744470,-64.0
2023-08-17 17:19:44.752158,-62.0
2023-08-17 17:19:44.759847,-57.0
2023-08-17 17:19:44.767536,-57.0
2023-08-17 17:19:44.775225,-62.0
2023-08-17 17:19:44.782914,-69.0
2023-08-17 17:19:44.790603,-69.0
2023-08-17 17:19:44.798292,-57.0
2023-08-17 17:19:44.805981,-38.0
2023-08-17 17:19:44.813670,-31.0
2023-08-17 17:19:44.821359,-35.0
2023-08-17 17:19:44.829048,-42.0
2023-08-17 17:19:44.836737,-50.0
2023-08-17 17:19:44.844426,-69.0
2023-08-17 17:19:44.852115,-78.0
2023-08-17 17:19:44.859803,-69.0
2023-08-17 17:19:44.867492,-69.0
2023-08-17 17:19:44.875181,-74.0
2023-08-17 17:19:44.882870,-78.0
2023-08-17 17:19:44.890559,-81.0
2023-08-17 17:19:44.898248,-76.0
2023-08-17 17:19:44.905937,-71.0
2023-08-17 17:19:44.913626,-71.0
2023-08-17 17:19:44.921315,-59.0
2023-08-17 17:19:44.929004,31.0
2023-08-17 17:19:44.936693,289.0
2023-08-17 17:19:44.944382,566.0
2023-08-17 17:19:44.952071,508.0
2023-08-17 17:19:44.959760,88.0
2023-08-17 17:19:44.967448,-207.0
2023-08-17 17:19:44.975137,-150.0
2023-08-17 17:19:44.982826,-64.0
2023-08-17 17:19:44.990515,-102.0
2023-08-17 17:19:44.998204,-109.0
2023-08-17 17:19:45.005893,-83.0
2023-08-17 17:19:45.013582,-83.0
2023-08-17 17:19:45.021271,-85.0
2023-08-17 17:19:45.028960,-74.0
2023-08-17 17:19:45.036649,-62.0
2023-08-17 17:19:45.044338,-54.0
2023-08-17 17:19:45.052027,-47.0
2023-08-17 17:19:45.059716,-42.0
2023-08-17 17:19:45.067404,-35.0
2023-08-17 17:19:45.075093,-23.0
2023-08-17 17:19:45.082782,-11.0
2023-08-17 17:19:45.090471,0.0
2023-08-17 17:19:45.098160,16.0
2023-08-17 17:19:45.105849,35.0
2023-08-17 17:19:45.113538,57.0
2023-08-17 17:19:45.121227,81.0
2023-08-17 17:19:45.128916,105.0
2023-08-17 17:19:45.136605,128.0
2023-08-17 17:19:45.144294,148.0
2023-08-17 17:19:45.151983,162.0
2023-08-17 17:19:45.159672,169.0
2023-08-17 17:19:45.167361,171.0
2023-08-17 17:19:45.175049,157.0
2023-08-17 17:19:45.182738,124.0
2023-08-17 17:19:45.190427,76.0
2023-08-17 17:19:45.198116,26.0
2023-08-17 17:19:45.205805,-21.0
2023-08-17 17:19:45.213494,-54.0
2023-08-17 17:19:45.221183,-81.0
2023-08-17 17:19:45.228872,-100.0
2023-08-17 17:19:45.236561,-112.0
2023-08-17 17:19:45.244250,-117.0
2023-08-17 17:19:45.251939,-117.0
2023-08-17 17:19:45.259628,-114.0
2023-08-17 17:19:45.267317,-112.0
2023-08-17 17:19:45.275006,-109.0
2023-08-17 17:19:45.282694,-105.0
2023-08-17 17:19:45.290383,-105.0
2023-08-17 17:19:45.298072,-107.0
2023-08-17 17:19:45.305761,-105.0
2023-08-17 17:19:45.313450,-97.0
2023-08-17 17:19:45.321139,-95.0
2023-08-17 17:19:45.328828,-97.0
2023-08-17 17:19:45.336517,-93.0
2023-08-17 17:19:45.344206,-85.0
2023-08-17 17:19:45.351895,-85.0
2023-08-17 17:19:45.359584,-85.0
2023-08-17 17:19:45.367273,-83.0
2023-08-17 17:19:45.374962,-83.0
2023-08-17 17:19:45.382650,-90.0
2023-08-17 17:19:45.390339,-90.0
2023-08-17 17:19:45.398028,-81.0
2023-08-17 17:19:45.405717,-81.0
2023-08-17 17:19:45.413406,-85.0
2023-08-17 17:19:45.421095,-90.0
2023-08-17 17:19:45.428784,-88.0
2023-08-17 17:19:45.436473,-83.0
2023-08-17 17:19:45.444162,-81.0
2023-08-17 17:19:45.451851,-83.0
2023-08-17 17:19:45.459540,-83.0
2023-08-17 17:19:45.467229,-90.0
2023-08-17 17:19:45.474918,-100.0
2023-08-17 17:19:45.482607,-93.0
2023-08-17 17:19:45.490295,-83.0
2023-08-17 17:19:45.497984,-83.0
2023-08-17 17:19:45.505673,-83.0
2023-08-17 17:19:45.513362,-81.0
2023-08-17 17:19:45.521051,-81.0
2023-08-17 17:19:45.528740,-76.0
2023-08-17 17:19:45.536429,-71.0
2023-08-17 17:19:45.544118,-71.0
2023-08-17 17:19:45.551807,-71.0
2023-08-17 17:19:45.559496,-74.0
2023-08-17 17:19:45.567185,-71.0
2023-08-17 17:19:45.574874,-64.0
2023-08-17 17:19:45.582563,-62.0
2023-08-17 17:19:45.590252,-59.0
2023-08-17 17:19:45.597940,-62.0
2023-08-17 17:19:45.605629,-59.0
2023-08-17 17:19:45.613318,-54.0
2023-08-17 17:19:45.621007,-52.0
2023-08-17 17:19:45.628696,-47.0
2023-08-17 17:19:45.636385,-47.0
2023-08-17 17:19:45.644074,-52.0
2023-08-17 17:19:45.651763,-52.0
2023-08-17 17:19:45.659452,-50.0
2023-08-17 17:19:45.667141,-50.0
2023-08-17 17:19:45.674830,-47.0
2023-08-17 17:19:45.682519,-42.0
2023-08-17 17:19:45.690208,-45.0
2023-08-17 17:19:45.697897,-50.0
2023-08-17 17:19:45.705585,-45.0
2023-08-17 17:19:45.713274,-42.0
2023-08-17 17:19:45.720963,-47.0
2023-08-17 17:19:45.728652,-52.0
2023-08-17 17:19:45.736341,-47.0
2023-08-17 17:19:45.744030,-33.0
2023-08-17 17:19:45.751719,-16.0
2023-08-17 17:19:45.759408,-14.0
2023-08-17 17:19:45.767097,-21.0
2023-08-17 17:19:45.774786,-26.0
2023-08-17 17:19:45.782475,-33.0
2023-08-17 17:19:45.790164,-50.0
2023-08-17 17:19:45.797853,-57.0
2023-08-17 17:19:45.805541,-54.0
2023-08-17 17:19:45.813230,-54.0
2023-08-17 17:19:45.820919,-57.0
2023-08-17 17:19:45.828608,-54.0
2023-08-17 17:19:45.836297,-52.0
2023-08-17 17:19:45.843986,-52.0
2023-08-17 17:19:45.851675,-50.0
2023-08-17 17:19:45.859364,-45.0
2023-08-17 17:19:45.867053,-33.0
2023-08-17 17:19:45.874742,59.0
2023-08-17 17:19:45.882431,317.0
2023-08-17 17:19:45.890120,587.0
2023-08-17 17:19:45.897809,515.0
2023-08-17 17:19:45.905498,102.0
2023-08-17 17:19:45.913186,-174.0
2023-08-17 17:19:45.920875,-114.0
2023-08-17 17:19:45.928564,-47.0
2023-08-17 17:19:45.936253,-95.0
2023-08-17 17:19:45.943942,-97.0
2023-08-17 17:19:45.951631,-66.0
2023-08-17 17:19:45.959320,-76.0
2023-08-17 17:19:45.967009,-85.0
2023-08-17 17:19:45.974698,-71.0
2023-08-17 17:19:45.982387,-62.0
2023-08-17 17:19:45.990076,-57.0
2023-08-17 17:19:45.997765,-47.0
2023-08-17 17:19:46.005454,-40.0
2023-08-17 17:19:46.013143,-35.0
2023-08-17 17:19:46.020831,-28.0
2023-08-17 17:19:46.028520,-16.0
2023-08-17 17:19:46.036209,0.0
2023-08-17 17:19:46.043898,14.0
2023-08-17 17:19:46.051587,26.0
2023-08-17 17:19:46.059276,47.0
2023-08-17 17:19:46.066965,71.0
2023-08-17 17:19:46.074654,95.0
2023-08-17 17:19:46.082343,121.0
2023-08-17 17:19:46.090032,145.0
2023-08-17 17:19:46.097721,152.0
2023-08-17 17:19:46.105410,148.0
2023-08-17 17:19:46.113099,148.0
2023-08-17 17:19:46.120787,140.0
2023-08-17 17:19:46.128476,107.0
2023-08-17 17:19:46.136165,54.0
2023-08-17 17:19:46.143854,0.0
2023-08-17 17:19:46.151543,-52.0
2023-08-17 17:19:46.159232,-85.0
2023-08-17 17:19:46.166921,-109.0
2023-08-17 17:19:46.174610,-133.0
2023-08-17 17:19:46.182299,-145.0
2023-08-17 17:19:46.189988,-150.0
2023-08-17 17:19:46.197677,-152.0
2023-08-17 17:19:46.205366,-157.0
2023-08-17 17:19:46.213055,-155.0
2023-08-17 17:19:46.220744,-148.0
2023-08-17 17:19:46.228432,-143.0
2023-08-17 17:19:46.236121,-143.0
2023-08-17 17:19:46.243810,-140.0
2023-08-17 17:19:46.251499,-133.0
2023-08-17 17:19:46.259188,-133.0
2023-08-17 17:19:46.266877,-131.0
2023-08-17 17:19:46.274566,-128.0
2023-08-17 17:19:46.282255,-124.0
2023-08-17 17:19:46.289944,-121.0
2023-08-17 17:19:46.297633,-124.0
2023-08-17 17:19:46.305322,-126.0
2023-08-17 17:19:46.313011,-121.0
2023-08-17 17:19:46.320700,-114.0
2023-08-17 17:19:46.328389,-114.0
2023-08-17 17:19:46.336077,-114.0
2023-08-17 17:19:46.343766,-109.0
2023-08-17 17:19:46.351455,-105.0
2023-08-17 17:19:46.359144,-102.0
2023-08-17 17:19:46.366833,-100.0
2023-08-17 17:19:46.374522,-97.0
2023-08-17 17:19:46.382211,-97.0
2023-08-17 17:19:46.389900,-100.0
2023-08-17 17:19:46.397589,-95.0
2023-08-17 17:19:46.405278,-90.0
2023-08-17 17:19:46.412967,-90.0
2023-08-17 17:19:46.420656,-88.0
2023-08-17 17:19:46.428345,-85.0
2023-08-17 17:19:46.436034,-85.0
2023-08-17 17:19:46.443722,-83.0
2023-08-17 17:19:46.451411,-81.0
2023-08-17 17:19:46.459100,-83.0
2023-08-17 17:19:46.466789,-83.0
2023-08-17 17:19:46.474478,-76.0
2023-08-17 17:19:46.482167,-76.0
2023-08-17 17:19:46.489856,-78.0
2023-08-17 17:19:46.497545,-76.0
2023-08-17 17:19:46.505234,-74.0
2023-08-17 17:19:46.512923,-74.0
2023-08-17 17:19:46.520612,-74.0
2023-08-17 17:19:46.528301,-71.0
2023-08-17 17:19:46.535990,-66.0
2023-08-17 17:19:46.543678,-69.0
2023-08-17 17:19:46.551367,-74.0
2023-08-17 17:19:46.559056,-76.0
2023-08-17 17:19:46.566745,-71.0
2023-08-17 17:19:46.574434,-69.0
2023-08-17 17:19:46.582123,-71.0
2023-08-17 17:19:46.589812,-69.0
2023-08-17 17:19:46.597501,-64.0
2023-08-17 17:19:46.605190,-64.0
2023-08-17 17:19:46.612879,-64.0
2023-08-17 17:19:46.620568,-62.0
2023-08-17 17:19:46.628257,-64.0
2023-08-17 17:19:46.635946,-64.0
2023-08-17 17:19:46.643635,-59.0
2023-08-17 17:19:46.651323,-57.0
2023-08-17 17:19:46.659012,-54.0
2023-08-17 17:19:46.666701,-54.0
2023-08-17 17:19:46.674390,-54.0
2023-08-17 17:19:46.682079,-54.0
2023-08-17 17:19:46.689768,-54.0
2023-08-17 17:19:46.697457,-54.0
2023-08-17 17:19:46.705146,-57.0
2023-08-17 17:19:46.712835,-64.0
2023-08-17 17:19:46.720524,-59.0
2023-08-17 17:19:46.728213,-42.0
2023-08-17 17:19:46.735902,-26.0
2023-08-17 17:19:46.743591,-16.0
2023-08-17 17:19:46.751280,-19.0
2023-08-17 17:19:46.758968,-31.0
2023-08-17 17:19:46.766657,-35.0
2023-08-17 17:19:46.774346,-45.0
2023-08-17 17:19:46.782035,-54.0
2023-08-17 17:19:46.789724,-54.0
2023-08-17 17:19:46.797413,-57.0
2023-08-17 17:19:46.805102,-62.0
2023-08-17 17:19:46.812791,-59.0
2023-08-17 17:19:46.820480,-57.0
2023-08-17 17:19:46.828169,-57.0
2023-08-17 17:19:46.835858,-52.0
2023-08-17 17:19:46.843547,-50.0
2023-08-17 17:19:46.851236,-38.0
2023-08-17 17:19:46.858924,50.0
2023-08-17 17:19:46.866613,300.0
2023-08-17 17:19:46.874302,573.0
2023-08-17 17:19:46.881991,515.0
2023-08-17 17:19:46.889680,109.0
2023-08-17 17:19:46.897369,-171.0
2023-08-17 17:19:46.905058,-121.0
2023-08-17 17:19:46.912747,-52.0
2023-08-17 17:19:46.920436,-95.0
2023-08-17 17:19:46.928125,-105.0
2023-08-17 17:19:46.935814,-81.0
2023-08-17 17:19:46.943503,-85.0
2023-08-17 17:19:46.951192,-88.0
2023-08-17 17:19:46.958881,-78.0
2023-08-17 17:19:46.966569,-71.0
2023-08-17 17:19:46.974258,-66.0
2023-08-17 17:19:46.981947,-59.0
2023-08-17 17:19:46.989636,-57.0
2023-08-17 17:19:46.997325,-50.0
2023-08-17 17:19:47.005014,-45.0
2023-08-17 17:19:47.012703,-35.0
2023-08-17 17:19:47.020392,-23.0
2023-08-17 17:19:47.028081,-9.0
2023-08-17 17:19:47.035770,7.0
2023-08-17 17:19:47.043459,28.0
2023-08-17 17:19:47.051148,50.0
2023-08-17 17:19:47.058837,69.0
2023-08-17 17:19:47.066526,95.0
2023-08-17 17:19:47.074214,119.0
2023-08-17 17:19:47.081903,131.0
2023-08-17 17:19:47.089592,133.0
2023-08-17 17:19:47.097281,133.0
2023-08-17 17:19:47.104970,126.0
2023-08-17 17:19:47.112659,100.0
2023-08-17 17:19:47.120348,52.0
2023-08-17 17:19:47.128037,2.0
2023-08-17 17:19:47.135726,-42.0
2023-08-17 17:19:47.143415,-81.0
2023-08-17 17:19:47.151104,-112.0
2023-08-17 17:19:47.158793,-133.0
2023-08-17 17:19:47.166482,-145.0
2023-08-17 17:19:47.174171,-148.0
2023-08-17 17:19:47.181859,-150.0
2023-08-17 17:19:47.189548,-155.0
2023-08-17 17:19:47.197237,-155.0
2023-08-17 17:19:47.204926,-152.0
2023-08-17 17:19:47.212615,-150.0
2023-08-17 17:19:47.220304,-145.0
2023-08-17 17:19:47.227993,-140.0
2023-08-17 17:19:47.235682,-136.0
2023-08-17 17:19:47.243371,-133.0
2023-08-17 17:19:47.251060,-131.0
2023-08-17 17:19:47.258749,-128.0
2023-08-17 17:19:47.266438,-126.0
2023-08-17 17:19:47.274127,-124.0
2023-08-17 17:19:47.281815,-121.0
2023-08-17 17:19:47.289504,-119.0
2023-08-17 17:19:47.297193,-119.0
2023-08-17 17:19:47.304882,-124.0
2023-08-17 17:19:47.312571,-126.0
2023-08-17 17:19:47.320260,-124.0
2023-08-17 17:19:47.327949,-121.0
2023-08-17 17:19:47.335638,-119.0
2023-08-17 17:19:47.343327,-121.0
2023-08-17 17:19:47.351016,-121.0
2023-08-17 17:19:47.358705,-121.0
2023-08-17 17:19:47.366394,-119.0
2023-08-17 17:19:47.374083,-119.0
2023-08-17 17:19:47.381772,-119.0
2023-08-17 17:19:47.389460,-119.0
2023-08-17 17:19:47.397149,-119.0
2023-08-17 17:19:47.404838,-114.0
2023-08-17 17:19:47.412527,-112.0
2023-08-17 17:19:47.420216,-109.0
2023-08-17 17:19:47.427905,-107.0
2023-08-17 17:19:47.435594,-109.0
2023-08-17 17:19:47.443283,-114.0
2023-08-17 17:19:47.450972,-114.0
2023-08-17 17:19:47.458661,-114.0
2023-08-17 17:19:47.466350,-112.0
2023-08-17 17:19:47.474039,-107.0
2023-08-17 17:19:47.481728,-109.0
2023-08-17 17:19:47.489417,-117.0
2023-08-17 17:19:47.497105,-112.0
2023-08-17 17:19:47.504794,-107.0
2023-08-17 17:19:47.512483,-105.0
2023-08-17 17:19:47.520172,-102.0
2023-08-17 17:19:47.527861,-100.0
2023-08-17 17:19:47.535550,-102.0
2023-08-17 17:19:47.543239,-100.0
2023-08-17 17:19:47.550928,-97.0
2023-08-17 17:19:47.558617,-97.0
2023-08-17 17:19:47.566306,-95.0
2023-08-17 17:19:47.573995,-97.0
2023-08-17 17:19:47.581684,-100.0
2023-08-17 17:19:47.589373,-95.0
2023-08-17 17:19:47.597061,-88.0
2023-08-17 17:19:47.604750,-88.0
2023-08-17 17:19:47.612439,-88.0
2023-08-17 17:19:47.620128,-83.0
2023-08-17 17:19:47.627817,-83.0
2023-08-17 17:19:47.635506,-83.0
2023-08-17 17:19:47.643195,-85.0
2023-08-17 17:19:47.650884,-85.0
2023-08-17 17:19:47.658573,-78.0
2023-08-17 17:19:47.666262,-64.0
2023-08-17 17:19:47.673951,-54.0
2023-08-17 17:19:47.681640,-57.0
2023-08-17 17:19:47.689329,-62.0
2023-08-17 17:19:47.697018,-64.0
2023-08-17 17:19:47.704706,-71.0
2023-08-17 17:19:47.712395,-83.0
2023-08-17 17:19:47.720084,-93.0
2023-08-17 17:19:47.727773,-95.0
2023-08-17 17:19:47.735462,-93.0
2023-08-17 17:19:47.743151,-93.0
2023-08-17 17:19:47.750840,-95.0
2023-08-17 17:19:47.758529,-90.0
2023-08-17 17:19:47.766218,-88.0
2023-08-17 17:19:47.773907,-90.0
2023-08-17 17:19:47.781596,-85.0
2023-08-17 17:19:47.789285,-35.0
2023-08-17 17:19:47.796974,162.0
2023-08-17 17:19:47.804663,456.0
2023-08-17 17:19:47.812351,527.0
2023-08-17 17:19:47.820040,198.0
2023-08-17 17:19:47.827729,-181.0
2023-08-17 17:19:47.835418,-210.0
2023-08-17 17:19:47.843107,-100.0
2023-08-17 17:19:47.850796,-119.0
2023-08-17 17:19:47.858485,-143.0
2023-08-17 17:19:47.866174,-117.0
2023-08-17 17:19:47.873863,-112.0
2023-08-17 17:19:47.881552,-119.0
2023-08-17 17:19:47.889241,-112.0
2023-08-17 17:19:47.896930,-105.0
2023-08-17 17:19:47.904619,-97.0
2023-08-17 17:19:47.912308,-90.0
2023-08-17 17:19:47.919996,-83.0
2023-08-17 17:19:47.927685,-78.0
2023-08-17 17:19:47.935374,-69.0
2023-08-17 17:19:47.943063,-54.0
2023-08-17 17:19:47.950752,-45.0
2023-08-17 17:19:47.958441,-33.0
2023-08-17 17:19:47.966130,-14.0
2023-08-17 17:19:47.973819,9.0
2023-08-17 17:19:47.981508,28.0
2023-08-17 17:19:47.989197,47.0
2023-08-17 17:19:47.996886,76.0
2023-08-17 17:19:48.004575,105.0
2023-08-17 17:19:48.012264,126.0
2023-08-17 17:19:48.019952,140.0
2023-08-17 17:19:48.027641,148.0
2023-08-17 17:19:48.035330,140.0
2023-08-17 17:19:48.043019,119.0
2023-08-17 17:19:48.050708,78.0
2023-08-17 17:19:48.058397,28.0
2023-08-17 17:19:48.066086,-19.0
2023-08-17 17:19:48.073775,-64.0
2023-08-17 17:19:48.081464,-97.0
2023-08-17 17:19:48.089153,-117.0
2023-08-17 17:19:48.096842,-131.0
2023-08-17 17:19:48.104531,-143.0
2023-08-17 17:19:48.112220,-148.0
2023-08-17 17:19:48.119909,-143.0
2023-08-17 17:19:48.127597,-140.0
2023-08-17 17:19:48.135286,-136.0
2023-08-17 17:19:48.142975,-131.0
2023-08-17 17:19:48.150664,-124.0
2023-08-17 17:19:48.158353,-119.0
2023-08-17 17:19:48.166042,-117.0
2023-08-17 17:19:48.173731,-112.0
2023-08-17 17:19:48.181420,-109.0
2023-08-17 17:19:48.189109,-107.0
2023-08-17 17:19:48.196798,-100.0
2023-08-17 17:19:48.204487,-95.0
2023-08-17 17:19:48.212176,-97.0
2023-08-17 17:19:48.219865,-102.0
2023-08-17 17:19:48.227554,-102.0
2023-08-17 17:19:48.235242,-97.0
2023-08-17 17:19:48.242931,-93.0
2023-08-17 17:19:48.250620,-90.0
2023-08-17 17:19:48.258309,-97.0
2023-08-17 17:19:48.265998,-100.0
2023-08-17 17:19:48.273687,-95.0
2023-08-17 17:19:48.281376,-95.0
2023-08-17 17:19:48.289065,-95.0
2023-08-17 17:19:48.296754,-93.0
2023-08-17 17:19:48.304443,-90.0
2023-08-17 17:19:48.312132,-90.0
2023-08-17 17:19:48.319821,-88.0
2023-08-17 17:19:48.327510,-85.0
2023-08-17 17:19:48.335198,-85.0
2023-08-17 17:19:48.342887,-83.0
2023-08-17 17:19:48.350576,-78.0
2023-08-17 17:19:48.358265,-78.0
2023-08-17 17:19:48.365954,-76.0
2023-08-17 17:19:48.373643,-74.0
2023-08-17 17:19:48.381332,-71.0
2023-08-17 17:19:48.389021,-69.0
2023-08-17 17:19:48.396710,-66.0
2023-08-17 17:19:48.404399,-64.0
2023-08-17 17:19:48.412088,-62.0
2023-08-17 17:19:48.419777,-66.0
2023-08-17 17:19:48.427466,-66.0
2023-08-17 17:19:48.435155,-59.0
2023-08-17 17:19:48.442843,-57.0
2023-08-17 17:19:48.450532,-54.0
2023-08-17 17:19:48.458221,-54.0
2023-08-17 17:19:48.465910,-54.0
2023-08-17 17:19:48.473599,-54.0
2023-08-17 17:19:48.481288,-52.0
2023-08-17 17:19:48.488977,-54.0
2023-08-17 17:19:48.496666,-50.0
2023-08-17 17:19:48.504355,-50.0
2023-08-17 17:19:48.512044,-54.0
2023-08-17 17:19:48.519733,-52.0
2023-08-17 17:19:48.527422,-50.0
2023-08-17 17:19:48.535111,-54.0
2023-08-17 17:19:48.542800,-52.0
2023-08-17 17:19:48.550488,-47.0
2023-08-17 17:19:48.558177,-52.0
2023-08-17 17:19:48.565866,-57.0
2023-08-17 17:19:48.573555,-54.0
2023-08-17 17:19:48.581244,-50.0
2023-08-17 17:19:48.588933,-35.0
2023-08-17 17:19:48.596622,-16.0
2023-08-17 17:19:48.604311,-9.0
2023-08-17 17:19:48.612000,-19.0
2023-08-17 17:19:48.619689,-26.0
2023-08-17 17:19:48.627378,-33.0
2023-08-17 17:19:48.635067,-42.0
2023-08-17 17:19:48.642756,-50.0
2023-08-17 17:19:48.650444,-45.0
2023-08-17 17:19:48.658133,-42.0
2023-08-17 17:19:48.665822,-47.0
2023-08-17 17:19:48.673511,-45.0
2023-08-17 17:19:48.681200,-42.0
2023-08-17 17:19:48.688889,-40.0
2023-08-17 17:19:48.696578,-38.0
2023-08-17 17:19:48.704267,-38.0
2023-08-17 17:19:48.711956,-7.0
2023-08-17 17:19:48.719645,162.0
2023-08-17 17:19:48.727334,460.0
2023-08-17 17:19:48.735023,585.0
2023-08-17 17:19:48.742712,296.0
2023-08-17 17:19:48.750401,-117.0
2023-08-17 17:19:48.758089,-210.0
2023-08-17 17:19:48.765778,-102.0
2023-08-17 17:19:48.773467,-95.0
2023-08-17 17:19:48.781156,-131.0
2023-08-17 17:19:48.788845,-114.0
2023-08-17 17:19:48.796534,-100.0
2023-08-17 17:19:48.804223,-112.0
2023-08-17 17:19:48.811912,-112.0
2023-08-17 17:19:48.819601,-97.0
2023-08-17 17:19:48.827290,-93.0
2023-08-17 17:19:48.834979,-85.0
2023-08-17 17:19:48.842668,-76.0
2023-08-17 17:19:48.850357,-66.0
2023-08-17 17:19:48.858046,-62.0
2023-08-17 17:19:48.865734,-52.0
2023-08-17 17:19:48.873423,-38.0
2023-08-17 17:19:48.881112,-28.0
2023-08-17 17:19:48.888801,-14.0
2023-08-17 17:19:48.896490,7.0
2023-08-17 17:19:48.904179,26.0
2023-08-17 17:19:48.911868,47.0
2023-08-17 17:19:48.919557,74.0
2023-08-17 17:19:48.927246,97.0
2023-08-17 17:19:48.934935,114.0
2023-08-17 17:19:48.942624,126.0
2023-08-17 17:19:48.950313,131.0
2023-08-17 17:19:48.958002,126.0
2023-08-17 17:19:48.965691,109.0
2023-08-17 17:19:48.973379,74.0
2023-08-17 17:19:48.981068,23.0
2023-08-17 17:19:48.988757,-23.0
2023-08-17 17:19:48.996446,-64.0
2023-08-17 17:19:49.004135,-95.0
2023-08-17 17:19:49.011824,-121.0
2023-08-17 17:19:49.019513,-138.0
2023-08-17 17:19:49.027202,-148.0
2023-08-17 17:19:49.034891,-150.0
2023-08-17 17:19:49.042580,-150.0
2023-08-17 17:19:49.050269,-145.0
2023-08-17 17:19:49.057958,-138.0
2023-08-17 17:19:49.065647,-136.0
2023-08-17 17:19:49.073335,-133.0
2023-08-17 17:19:49.081024,-131.0
2023-08-17 17:19:49.088713,-126.0
2023-08-17 17:19:49.096402,-121.0
2023-08-17 17:19:49.104091,-121.0
2023-08-17 17:19:49.111780,-119.0
2023-08-17 17:19:49.119469,-117.0
2023-08-17 17:19:49.127158,-112.0
2023-08-17 17:19:49.134847,-107.0
2023-08-17 17:19:49.142536,-100.0
2023-08-17 17:19:49.150225,-102.0
2023-08-17 17:19:49.157914,-107.0
2023-08-17 17:19:49.165603,-105.0
2023-08-17 17:19:49.173292,-97.0
2023-08-17 17:19:49.180980,-97.0
2023-08-17 17:19:49.188669,-97.0
2023-08-17 17:19:49.196358,-97.0
2023-08-17 17:19:49.204047,-97.0
2023-08-17 17:19:49.211736,-97.0
2023-08-17 17:19:49.219425,-93.0
2023-08-17 17:19:49.227114,-90.0
2023-08-17 17:19:49.234803,-90.0
2023-08-17 17:19:49.242492,-85.0
2023-08-17 17:19:49.250181,-83.0
2023-08-17 17:19:49.257870,-85.0
2023-08-17 17:19:49.265559,-81.0
2023-08-17 17:19:49.273248,-74.0
2023-08-17 17:19:49.280937,-71.0
2023-08-17 17:19:49.288625,-74.0
2023-08-17 17:19:49.296314,-78.0
2023-08-17 17:19:49.304003,-78.0
2023-08-17 17:19:49.311692,-78.0
2023-08-17 17:19:49.319381,-83.0
2023-08-17 17:19:49.327070,-78.0
2023-08-17 17:19:49.334759,-76.0
2023-08-17 17:19:49.342448,-78.0
2023-08-17 17:19:49.350137,-78.0
2023-08-17 17:19:49.357826,-76.0
2023-08-17 17:19:49.365515,-74.0
2023-08-17 17:19:49.373204,-69.0
2023-08-17 17:19:49.380893,-74.0
2023-08-17 17:19:49.388581,-83.0
2023-08-17 17:19:49.396270,-83.0
2023-08-17 17:19:49.403959,-78.0
2023-08-17 17:19:49.411648,-78.0
2023-08-17 17:19:49.419337,-78.0
2023-08-17 17:19:49.427026,-85.0
2023-08-17 17:19:49.434715,-95.0
2023-08-17 17:19:49.442404,-90.0
2023-08-17 17:19:49.450093,-83.0
2023-08-17 17:19:49.457782,-83.0
2023-08-17 17:19:49.465471,-83.0
2023-08-17 17:19:49.473160,-85.0
2023-08-17 17:19:49.480849,-81.0
2023-08-17 17:19:49.488538,-62.0
2023-08-17 17:19:49.496226,-45.0
2023-08-17 17:19:49.503915,-42.0
2023-08-17 17:19:49.511604,-50.0
2023-08-17 17:19:49.519293,-59.0
2023-08-17 17:19:49.526982,-69.0
2023-08-17 17:19:49.534671,-76.0
2023-08-17 17:19:49.542360,-76.0
2023-08-17 17:19:49.550049,-74.0
2023-08-17 17:19:49.557738,-74.0
2023-08-17 17:19:49.565427,-78.0
2023-08-17 17:19:49.573116,-76.0
2023-08-17 17:19:49.580805,-74.0
2023-08-17 17:19:49.588494,-71.0
2023-08-17 17:19:49.596183,-69.0
2023-08-17 17:19:49.603871,-64.0
2023-08-17 17:19:49.611560,-21.0
2023-08-17 17:19:49.619249,164.0
2023-08-17 17:19:49.626938,458.0
2023-08-17 17:19:49.634627,556.0
2023-08-17 17:19:49.642316,250.0
2023-08-17 17:19:49.650005,-143.0
2023-08-17 17:19:49.657694,-203.0
2023-08-17 17:19:49.665383,-90.0
2023-08-17 17:19:49.673072,-97.0
2023-08-17 17:19:49.680761,-133.0
2023-08-17 17:19:49.688450,-112.0
2023-08-17 17:19:49.696139,-107.0
2023-08-17 17:19:49.703828,-117.0
2023-08-17 17:19:49.711516,-105.0
2023-08-17 17:19:49.719205,-93.0
2023-08-17 17:19:49.726894,-90.0
2023-08-17 17:19:49.734583,-85.0
2023-08-17 17:19:49.742272,-74.0
2023-08-17 17:19:49.749961,-66.0
2023-08-17 17:19:49.757650,-62.0
2023-08-17 17:19:49.765339,-57.0
2023-08-17 17:19:49.773028,-40.0
2023-08-17 17:19:49.780717,-21.0
2023-08-17 17:19:49.788406,-9.0
2023-08-17 17:19:49.796095,2.0
2023-08-17 17:19:49.803784,23.0
2023-08-17 17:19:49.811472,47.0
2023-08-17 17:19:49.819161,69.0
2023-08-17 17:19:49.826850,90.0
2023-08-17 17:19:49.834539,109.0
2023-08-17 17:19:49.842228,124.0
2023-08-17 17:19:49.849917,128.0
2023-08-17 17:19:49.857606,119.0
2023-08-17 17:19:49.865295,102.0
2023-08-17 17:19:49.872984,69.0
2023-08-17 17:19:49.880673,19.0
2023-08-17 17:19:49.888362,-33.0
2023-08-17 17:19:49.896051,-71.0
2023-08-17 17:19:49.903740,-105.0
2023-08-17 17:19:49.911429,-128.0
2023-08-17 17:19:49.919117,-143.0
2023-08-17 17:19:49.926806,-157.0
2023-08-17 17:19:49.934495,-164.0
2023-08-17 17:19:49.942184,-162.0
2023-08-17 17:19:49.949873,-160.0
2023-08-17 17:19:49.957562,-152.0
2023-08-17 17:19:49.965251,-150.0
2023-08-17 17:19:49.972940,-148.0
2023-08-17 17:19:49.980629,-140.0
2023-08-17 17:19:49.988318,-133.0
2023-08-17 17:19:49.996007,-131.0
2023-08-17 17:19:50.003696,-131.0
2023-08-17 17:19:50.011385,-124.0
2023-08-17 17:19:50.019074,-119.0
2023-08-17 17:19:50.026762,-117.0
2023-08-17 17:19:50.034451,-117.0
2023-08-17 17:19:50.042140,-112.0
2023-08-17 17:19:50.049829,-105.0
2023-08-17 17:19:50.057518,-102.0
2023-08-17 17:19:50.065207,-100.0
2023-08-17 17:19:50.072896,-100.0
2023-08-17 17:19:50.080585,-97.0
2023-08-17 17:19:50.088274,-95.0
2023-08-17 17:19:50.095963,-93.0
2023-08-17 17:19:50.103652,-90.0
2023-08-17 17:19:50.111341,-90.0
2023-08-17 17:19:50.119030,-90.0
2023-08-17 17:19:50.126718,-88.0
2023-08-17 17:19:50.134407,-90.0
2023-08-17 17:19:50.142096,-90.0
2023-08-17 17:19:50.149785,-90.0
2023-08-17 17:19:50.157474,-90.0
2023-08-17 17:19:50.165163,-85.0
2023-08-17 17:19:50.172852,-83.0
2023-08-17 17:19:50.180541,-83.0
2023-08-17 17:19:50.188230,-83.0
2023-08-17 17:19:50.195919,-83.0
2023-08-17 17:19:50.203608,-78.0
2023-08-17 17:19:50.211297,-76.0
2023-08-17 17:19:50.218986,-76.0
2023-08-17 17:19:50.226675,-74.0
2023-08-17 17:19:50.234363,-71.0
2023-08-17 17:19:50.242052,-74.0
2023-08-17 17:19:50.249741,-71.0
2023-08-17 17:19:50.257430,-69.0
2023-08-17 17:19:50.265119,-69.0
2023-08-17 17:19:50.272808,-69.0
2023-08-17 17:19:50.280497,-69.0
2023-08-17 17:19:50.288186,-69.0
2023-08-17 17:19:50.295875,-64.0
2023-08-17 17:19:50.303564,-66.0
2023-08-17 17:19:50.311253,-66.0
2023-08-17 17:19:50.318942,-64.0
2023-08-17 17:19:50.326631,-66.0
2023-08-17 17:19:50.334320,-69.0
2023-08-17 17:19:50.342008,-66.0
2023-08-17 17:19:50.349697,-69.0
2023-08-17 17:19:50.357386,-74.0
2023-08-17 17:19:50.365075,-71.0
2023-08-17 17:19:50.372764,-74.0
2023-08-17 17:19:50.380453,-71.0
2023-08-17 17:19:50.388142,-59.0
2023-08-17 17:19:50.395831,-47.0
2023-08-17 17:19:50.403520,-45.0
2023-08-17 17:19:50.411209,-54.0
2023-08-17 17:19:50.418898,-66.0
2023-08-17 17:19:50.426587,-81.0
2023-08-17 17:19:50.434276,-93.0
2023-08-17 17:19:50.441965,-93.0
2023-08-17 17:19:50.449653,-90.0
2023-08-17 17:19:50.457342,-90.0
2023-08-17 17:19:50.465031,-95.0
2023-08-17 17:19:50.472720,-105.0
2023-08-17 17:19:50.480409,-102.0
2023-08-17 17:19:50.488098,-97.0
2023-08-17 17:19:50.495787,-93.0
2023-08-17 17:19:50.503476,-85.0
2023-08-17 17:19:50.511165,-19.0
2023-08-17 17:19:50.518854,207.0
2023-08-17 17:19:50.526543,494.0
2023-08-17 17:19:50.534232,492.0
2023-08-17 17:19:50.541921,109.0
2023-08-17 17:19:50.549609,-214.0
2023-08-17 17:19:50.557298,-191.0
2023-08-17 17:19:50.564987,-100.0
2023-08-17 17:19:50.572676,-128.0
2023-08-17 17:19:50.580365,-140.0
2023-08-17 17:19:50.588054,-114.0
2023-08-17 17:19:50.595743,-114.0
2023-08-17 17:19:50.603432,-119.0
2023-08-17 17:19:50.611121,-112.0
2023-08-17 17:19:50.618810,-100.0
2023-08-17 17:19:50.626499,-93.0
2023-08-17 17:19:50.634188,-85.0
2023-08-17 17:19:50.641877,-85.0
2023-08-17 17:19:50.649566,-81.0
2023-08-17 17:19:50.657254,-69.0
2023-08-17 17:19:50.664943,-57.0
2023-08-17 17:19:50.672632,-45.0
2023-08-17 17:19:50.680321,-33.0
2023-08-17 17:19:50.688010,-19.0
2023-08-17 17:19:50.695699,0.0
2023-08-17 17:19:50.703388,26.0
2023-08-17 17:19:50.711077,57.0
2023-08-17 17:19:50.718766,83.0
2023-08-17 17:19:50.726455,105.0
2023-08-17 17:19:50.734144,121.0
2023-08-17 17:19:50.741833,128.0
2023-08-17 17:19:50.749522,136.0
2023-08-17 17:19:50.757211,131.0
2023-08-17 17:19:50.764899,105.0
2023-08-17 17:19:50.772588,62.0
2023-08-17 17:19:50.780277,9.0
2023-08-17 17:19:50.787966,-38.0
2023-08-17 17:19:50.795655,-76.0
2023-08-17 17:19:50.803344,-109.0
2023-08-17 17:19:50.811033,-138.0
2023-08-17 17:19:50.818722,-150.0
2023-08-17 17:19:50.826411,-150.0
2023-08-17 17:19:50.834100,-157.0
2023-08-17 17:19:50.841789,-162.0
2023-08-17 17:19:50.849478,-160.0
2023-08-17 17:19:50.857167,-152.0
2023-08-17 17:19:50.864855,-152.0
2023-08-17 17:19:50.872544,-152.0
2023-08-17 17:19:50.880233,-150.0
2023-08-17 17:19:50.887922,-145.0
2023-08-17 17:19:50.895611,-143.0
2023-08-17 17:19:50.903300,-136.0
2023-08-17 17:19:50.910989,-128.0
2023-08-17 17:19:50.918678,-121.0
2023-08-17 17:19:50.926367,-119.0
2023-08-17 17:19:50.934056,-117.0
2023-08-17 17:19:50.941745,-109.0
2023-08-17 17:19:50.949434,-107.0
2023-08-17 17:19:50.957123,-107.0
2023-08-17 17:19:50.964812,-107.0
2023-08-17 17:19:50.972500,-105.0
2023-08-17 17:19:50.980189,-100.0
2023-08-17 17:19:50.987878,-95.0
2023-08-17 17:19:50.995567,-93.0
2023-08-17 17:19:51.003256,-97.0
2023-08-17 17:19:51.010945,-105.0
2023-08-17 17:19:51.018634,-102.0
2023-08-17 17:19:51.026323,-100.0
2023-08-17 17:19:51.034012,-97.0
2023-08-17 17:19:51.041701,-95.0
2023-08-17 17:19:51.049390,-102.0
2023-08-17 17:19:51.057079,-109.0
2023-08-17 17:19:51.064768,-105.0
2023-08-17 17:19:51.072457,-105.0
2023-08-17 17:19:51.080145,-102.0
2023-08-17 17:19:51.087834,-97.0
2023-08-17 17:19:51.095523,-97.0
2023-08-17 17:19:51.103212,-100.0
2023-08-17 17:19:51.110901,-95.0
2023-08-17 17:19:51.118590,-90.0
2023-08-17 17:19:51.126279,-93.0
2023-08-17 17:19:51.133968,-95.0
2023-08-17 17:19:51.141657,-93.0
2023-08-17 17:19:51.149346,-88.0
2023-08-17 17:19:51.157035,-83.0
2023-08-17 17:19:51.164724,-76.0
2023-08-17 17:19:51.172413,-74.0
2023-08-17 17:19:51.180101,-74.0
2023-08-17 17:19:51.187790,-74.0
2023-08-17 17:19:51.195479,-69.0
2023-08-17 17:19:51.203168,-66.0
2023-08-17 17:19:51.210857,-66.0
2023-08-17 17:19:51.218546,-66.0
2023-08-17 17:19:51.226235,-62.0
2023-08-17 17:19:51.233924,-50.0
2023-08-17 17:19:51.241613,-35.0
2023-08-17 17:19:51.249302,-28.0
2023-08-17 17:19:51.256991,-35.0
2023-08-17 17:19:51.264680,-42.0
2023-08-17 17:19:51.272369,-50.0
2023-08-17 17:19:51.280058,-64.0
2023-08-17 17:19:51.287746,-66.0
2023-08-17 17:19:51.295435,-59.0
2023-08-17 17:19:51.303124,-59.0
2023-08-17 17:19:51.310813,-64.0
2023-08-17 17:19:51.318502,-59.0
2023-08-17 17:19:51.326191,-54.0
2023-08-17 17:19:51.333880,-59.0
2023-08-17 17:19:51.341569,-64.0
2023-08-17 17:19:51.349258,-57.0
2023-08-17 17:19:51.356947,-2.0
2023-08-17 17:19:51.364636,193.0
2023-08-17 17:19:51.372325,487.0
2023-08-17 17:19:51.380014,563.0
2023-08-17 17:19:51.387703,231.0
2023-08-17 17:19:51.395391,-157.0
2023-08-17 17:19:51.403080,-191.0
2023-08-17 17:19:51.410769,-74.0
2023-08-17 17:19:51.418458,-85.0
2023-08-17 17:19:51.426147,-112.0
2023-08-17 17:19:51.433836,-85.0
2023-08-17 17:19:51.441525,-81.0
2023-08-17 17:19:51.449214,-88.0
2023-08-17 17:19:51.456903,-74.0
2023-08-17 17:19:51.464592,-64.0
2023-08-17 17:19:51.472281,-59.0
2023-08-17 17:19:51.479970,-52.0
2023-08-17 17:19:51.487659,-52.0
2023-08-17 17:19:51.495348,-45.0
2023-08-17 17:19:51.503036,-33.0
2023-08-17 17:19:51.510725,-26.0
2023-08-17 17:19:51.518414,-14.0
2023-08-17 17:19:51.526103,0.0
2023-08-17 17:19:51.533792,14.0
2023-08-17 17:19:51.541481,28.0
2023-08-17 17:19:51.549170,52.0
2023-08-17 17:19:51.556859,76.0
2023-08-17 17:19:51.564548,105.0
2023-08-17 17:19:51.572237,128.0
2023-08-17 17:19:51.579926,145.0
2023-08-17 17:19:51.587615,150.0
2023-08-17 17:19:51.595304,148.0
2023-08-17 17:19:51.602992,140.0
2023-08-17 17:19:51.610681,121.0
2023-08-17 17:19:51.618370,81.0
2023-08-17 17:19:51.626059,28.0
2023-08-17 17:19:51.633748,-16.0
2023-08-17 17:19:51.641437,-57.0
2023-08-17 17:19:51.649126,-95.0
2023-08-17 17:19:51.656815,-117.0
2023-08-17 17:19:51.664504,-121.0
2023-08-17 17:19:51.672193,-126.0
2023-08-17 17:19:51.679882,-131.0
2023-08-17 17:19:51.687571,-136.0
2023-08-17 17:19:51.695260,-133.0
2023-08-17 17:19:51.702949,-126.0
2023-08-17 17:19:51.710637,-124.0
2023-08-17 17:19:51.718326,-119.0
2023-08-17 17:19:51.726015,-114.0
2023-08-17 17:19:51.733704,-107.0
2023-08-17 17:19:51.741393,-107.0
2023-08-17 17:19:51.749082,-107.0
2023-08-17 17:19:51.756771,-100.0
2023-08-17 17:19:51.764460,-90.0
2023-08-17 17:19:51.772149,-88.0
2023-08-17 17:19:51.779838,-88.0
2023-08-17 17:19:51.787527,-85.0
2023-08-17 17:19:51.795216,-81.0
2023-08-17 17:19:51.802905,-78.0
2023-08-17 17:19:51.810594,-78.0
2023-08-17 17:19:51.818282,-76.0
2023-08-17 17:19:51.825971,-71.0
2023-08-17 17:19:51.833660,-69.0
2023-08-17 17:19:51.841349,-74.0
2023-08-17 17:19:51.849038,-78.0
2023-08-17 17:19:51.856727,-81.0
2023-08-17 17:19:51.864416,-76.0
2023-08-17 17:19:51.872105,-76.0
2023-08-17 17:19:51.879794,-78.0
2023-08-17 17:19:51.887483,-76.0
2023-08-17 17:19:51.895172,-76.0
2023-08-17 17:19:51.902861,-74.0
2023-08-17 17:19:51.910550,-74.0
2023-08-17 17:19:51.918238,-71.0
2023-08-17 17:19:51.925927,-69.0
2023-08-17 17:19:51.933616,-71.0
2023-08-17 17:19:51.941305,-69.0
2023-08-17 17:19:51.948994,-66.0
2023-08-17 17:19:51.956683,-66.0
2023-08-17 17:19:51.964372,-69.0
2023-08-17 17:19:51.972061,-64.0
2023-08-17 17:19:51.979750,-59.0
2023-08-17 17:19:51.987439,-59.0
2023-08-17 17:19:51.995128,-59.0
2023-08-17 17:19:52.002817,-54.0
2023-08-17 17:19:52.010506,-54.0
2023-08-17 17:19:52.018195,-54.0
2023-08-17 17:19:52.025883,-54.0
2023-08-17 17:19:52.033572,-52.0
2023-08-17 17:19:52.041261,-52.0
2023-08-17 17:19:52.048950,-50.0
2023-08-17 17:19:52.056639,-50.0
2023-08-17 17:19:52.064328,-52.0
2023-08-17 17:19:52.072017,-52.0
2023-08-17 17:19:52.079706,-50.0
2023-08-17 17:19:52.087395,-47.0
2023-08-17 17:19:52.095084,-42.0
2023-08-17 17:19:52.102773,-28.0
2023-08-17 17:19:52.110462,-19.0
2023-08-17 17:19:52.118151,-23.0
2023-08-17 17:19:52.125840,-35.0
2023-08-17 17:19:52.133528,-47.0
2023-08-17 17:19:52.141217,-54.0
2023-08-17 17:19:52.148906,-59.0
2023-08-17 17:19:52.156595,-66.0
2023-08-17 17:19:52.164284,-66.0
2023-08-17 17:19:52.171973,-64.0
2023-08-17 17:19:52.179662,-64.0
2023-08-17 17:19:52.187351,-62.0
2023-08-17 17:19:52.195040,-59.0
2023-08-17 17:19:52.202729,-57.0
2023-08-17 17:19:52.210418,-54.0
2023-08-17 17:19:52.218107,-52.0
2023-08-17 17:19:52.225796,-7.0
2023-08-17 17:19:52.233485,183.0
2023-08-17 17:19:52.241173,484.0
2023-08-17 17:19:52.248862,578.0
2023-08-17 17:19:52.256551,260.0
2023-08-17 17:19:52.264240,-131.0
2023-08-17 17:19:52.271929,-181.0
2023-08-17 17:19:52.279618,-66.0
2023-08-17 17:19:52.287307,-74.0
2023-08-17 17:19:52.294996,-107.0
2023-08-17 17:19:52.302685,-83.0
2023-08-17 17:19:52.310374,-71.0
2023-08-17 17:19:52.318063,-78.0
2023-08-17 17:19:52.325752,-69.0
2023-08-17 17:19:52.333441,-59.0
2023-08-17 17:19:52.341129,-59.0
2023-08-17 17:19:52.348818,-59.0
2023-08-17 17:19:52.356507,-52.0
2023-08-17 17:19:52.364196,-45.0
2023-08-17 17:19:52.371885,-35.0
2023-08-17 17:19:52.379574,-23.0
2023-08-17 17:19:52.387263,-14.0
2023-08-17 17:19:52.394952,-4.0
2023-08-17 17:19:52.402641,11.0
2023-08-17 17:19:52.410330,33.0
2023-08-17 17:19:52.418019,52.0
2023-08-17 17:19:52.425708,71.0
2023-08-17 17:19:52.433397,95.0
2023-08-17 17:19:52.441086,121.0
2023-08-17 17:19:52.448774,140.0
2023-08-17 17:19:52.456463,150.0
2023-08-17 17:19:52.464152,152.0
2023-08-17 17:19:52.471841,148.0
2023-08-17 17:19:52.479530,126.0
2023-08-17 17:19:52.487219,88.0
2023-08-17 17:19:52.494908,38.0
2023-08-17 17:19:52.502597,-11.0
2023-08-17 17:19:52.510286,-54.0
2023-08-17 17:19:52.517975,-88.0
2023-08-17 17:19:52.525664,-114.0
2023-08-17 17:19:52.533353,-128.0
2023-08-17 17:19:52.541042,-136.0
2023-08-17 17:19:52.548731,-136.0
2023-08-17 17:19:52.556419,-136.0
2023-08-17 17:19:52.564108,-138.0
2023-08-17 17:19:52.571797,-138.0
2023-08-17 17:19:52.579486,-131.0
2023-08-17 17:19:52.587175,-126.0
2023-08-17 17:19:52.594864,-126.0
2023-08-17 17:19:52.602553,-126.0
2023-08-17 17:19:52.610242,-124.0
2023-08-17 17:19:52.617931,-119.0
2023-08-17 17:19:52.625620,-114.0
2023-08-17 17:19:52.633309,-112.0
2023-08-17 17:19:52.640998,-105.0
2023-08-17 17:19:52.648687,-102.0
2023-08-17 17:19:52.656375,-100.0
2023-08-17 17:19:52.664064,-100.0
2023-08-17 17:19:52.671753,-100.0
2023-08-17 17:19:52.679442,-95.0
2023-08-17 17:19:52.687131,-90.0
2023-08-17 17:19:52.694820,-88.0
2023-08-17 17:19:52.702509,-90.0
2023-08-17 17:19:52.710198,-95.0
2023-08-17 17:19:52.717887,-97.0
2023-08-17 17:19:52.725576,-97.0
2023-08-17 17:19:52.733265,-95.0
2023-08-17 17:19:52.740954,-95.0
2023-08-17 17:19:52.748643,-93.0
2023-08-17 17:19:52.756332,-93.0
2023-08-17 17:19:52.764020,-90.0
2023-08-17 17:19:52.771709,-88.0
2023-08-17 17:19:52.779398,-88.0
2023-08-17 17:19:52.787087,-83.0
2023-08-17 17:19:52.794776,-78.0
2023-08-17 17:19:52.802465,-81.0
2023-08-17 17:19:52.810154,-81.0
2023-08-17 17:19:52.817843,-78.0
2023-08-17 17:19:52.825532,-74.0
2023-08-17 17:19:52.833221,-71.0
2023-08-17 17:19:52.840910,-71.0
2023-08-17 17:19:52.848599,-74.0
2023-08-17 17:19:52.856288,-78.0
2023-08-17 17:19:52.863977,-78.0
2023-08-17 17:19:52.871665,-76.0
2023-08-17 17:19:52.879354,-76.0
2023-08-17 17:19:52.887043,-76.0
2023-08-17 17:19:52.894732,-74.0
2023-08-17 17:19:52.902421,-69.0
2023-08-17 17:19:52.910110,-66.0
2023-08-17 17:19:52.917799,-69.0
2023-08-17 17:19:52.925488,-69.0
2023-08-17 17:19:52.933177,-66.0
2023-08-17 17:19:52.940866,-66.0
2023-08-17 17:19:52.948555,-64.0
2023-08-17 17:19:52.956244,-59.0
2023-08-17 17:19:52.963933,-57.0
2023-08-17 17:19:52.971622,-54.0
2023-08-17 17:19:52.979310,-59.0
2023-08-17 17:19:52.986999,-69.0
2023-08-17 17:19:52.994688,-66.0
2023-08-17 17:19:53.002377,-50.0
2023-08-17 17:19:53.010066,-31.0
2023-08-17 17:19:53.017755,-19.0
2023-08-17 17:19:53.025444,-28.0
2023-08-17 17:19:53.033133,-42.0
2023-08-17 17:19:53.040822,-42.0
2023-08-17 17:19:53.048511,-52.0
2023-08-17 17:19:53.056200,-64.0
2023-08-17 17:19:53.063889,-64.0
2023-08-17 17:19:53.071578,-59.0
2023-08-17 17:19:53.079266,-64.0
2023-08-17 17:19:53.086955,-64.0
2023-08-17 17:19:53.094644,-62.0
2023-08-17 17:19:53.102333,-62.0
2023-08-17 17:19:53.110022,-59.0
2023-08-17 17:19:53.117711,-57.0
2023-08-17 17:19:53.125400,-52.0
2023-08-17 17:19:53.133089,4.0
2023-08-17 17:19:53.140778,219.0
2023-08-17 17:19:53.148467,515.0
2023-08-17 17:19:53.156156,551.0
2023-08-17 17:19:53.163845,191.0
2023-08-17 17:19:53.171534,-167.0
2023-08-17 17:19:53.179223,-171.0
2023-08-17 17:19:53.186911,-71.0
2023-08-17 17:19:53.194600,-95.0
2023-08-17 17:19:53.202289,-114.0
2023-08-17 17:19:53.209978,-85.0
2023-08-17 17:19:53.217667,-88.0
2023-08-17 17:19:53.225356,-100.0
2023-08-17 17:19:53.233045,-85.0
2023-08-17 17:19:53.240734,-71.0
2023-08-17 17:19:53.248423,-71.0
2023-08-17 17:19:53.256112,-71.0
2023-08-17 17:19:53.263801,-66.0
2023-08-17 17:19:53.271490,-59.0
2023-08-17 17:19:53.279179,-50.0
2023-08-17 17:19:53.286868,-38.0
2023-08-17 17:19:53.294556,-28.0
2023-08-17 17:19:53.302245,-28.0
2023-08-17 17:19:53.309934,-19.0
2023-08-17 17:19:53.317623,2.0
2023-08-17 17:19:53.325312,23.0
2023-08-17 17:19:53.333001,45.0
2023-08-17 17:19:53.340690,71.0
2023-08-17 17:19:53.348379,95.0
2023-08-17 17:19:53.356068,107.0
2023-08-17 17:19:53.363757,117.0
2023-08-17 17:19:53.371446,121.0
2023-08-17 17:19:53.379135,117.0
2023-08-17 17:19:53.386824,90.0
2023-08-17 17:19:53.394512,45.0
2023-08-17 17:19:53.402201,-9.0
2023-08-17 17:19:53.409890,-57.0
2023-08-17 17:19:53.417579,-97.0
2023-08-17 17:19:53.425268,-131.0
2023-08-17 17:19:53.432957,-152.0
2023-08-17 17:19:53.440646,-167.0
2023-08-17 17:19:53.448335,-181.0
2023-08-17 17:19:53.456024,-186.0
2023-08-17 17:19:53.463713,-181.0
2023-08-17 17:19:53.471402,-183.0
2023-08-17 17:19:53.479091,-183.0
2023-08-17 17:19:53.486780,-179.0
2023-08-17 17:19:53.494469,-171.0
2023-08-17 17:19:53.502157,-169.0
2023-08-17 17:19:53.509846,-169.0
2023-08-17 17:19:53.517535,-162.0
2023-08-17 17:19:53.525224,-155.0
2023-08-17 17:19:53.532913,-152.0
2023-08-17 17:19:53.540602,-148.0
2023-08-17 17:19:53.548291,-140.0
2023-08-17 17:19:53.555980,-138.0
2023-08-17 17:19:53.563669,-136.0
2023-08-17 17:19:53.571358,-133.0
2023-08-17 17:19:53.579047,-131.0
2023-08-17 17:19:53.586736,-128.0
2023-08-17 17:19:53.594425,-126.0
2023-08-17 17:19:53.602114,-121.0
2023-08-17 17:19:53.609802,-121.0
2023-08-17 17:19:53.617491,-119.0
2023-08-17 17:19:53.625180,-117.0
2023-08-17 17:19:53.632869,-117.0
2023-08-17 17:19:53.640558,-112.0
2023-08-17 17:19:53.648247,-105.0
2023-08-17 17:19:53.655936,-105.0
2023-08-17 17:19:53.663625,-107.0
2023-08-17 17:19:53.671314,-107.0
2023-08-17 17:19:53.679003,-105.0
2023-08-17 17:19:53.686692,-100.0
2023-08-17 17:19:53.694381,-97.0
2023-08-17 17:19:53.702070,-100.0
2023-08-17 17:19:53.709758,-97.0
2023-08-17 17:19:53.717447,-93.0
2023-08-17 17:19:53.725136,-90.0
2023-08-17 17:19:53.732825,-88.0
2023-08-17 17:19:53.740514,-83.0
2023-08-17 17:19:53.748203,-83.0
2023-08-17 17:19:53.755892,-88.0
2023-08-17 17:19:53.763581,-83.0
2023-08-17 17:19:53.771270,-78.0
2023-08-17 17:19:53.778959,-78.0
2023-08-17 17:19:53.786648,-78.0
2023-08-17 17:19:53.794337,-74.0
2023-08-17 17:19:53.802026,-74.0
2023-08-17 17:19:53.809715,-76.0
2023-08-17 17:19:53.817403,-76.0
2023-08-17 17:19:53.825092,-74.0
2023-08-17 17:19:53.832781,-74.0
2023-08-17 17:19:53.840470,-74.0
2023-08-17 17:19:53.848159,-71.0
2023-08-17 17:19:53.855848,-71.0
2023-08-17 17:19:53.863537,-74.0
2023-08-17 17:19:53.871226,-74.0
2023-08-17 17:19:53.878915,-78.0
2023-08-17 17:19:53.886604,-76.0
2023-08-17 17:19:53.894293,-62.0
2023-08-17 17:19:53.901982,-52.0
2023-08-17 17:19:53.909671,-57.0
2023-08-17 17:19:53.917360,-69.0
2023-08-17 17:19:53.925048,-76.0
2023-08-17 17:19:53.932737,-88.0
2023-08-17 17:19:53.940426,-97.0
2023-08-17 17:19:53.948115,-97.0
2023-08-17 17:19:53.955804,-90.0
2023-08-17 17:19:53.963493,-88.0
2023-08-17 17:19:53.971182,-90.0
2023-08-17 17:19:53.978871,-100.0
2023-08-17 17:19:53.986560,-97.0
2023-08-17 17:19:53.994249,-88.0
2023-08-17 17:19:54.001938,-85.0
2023-08-17 17:19:54.009627,-71.0
2023-08-17 17:19:54.017316,40.0
2023-08-17 17:19:54.025005,310.0
2023-08-17 17:19:54.032693,542.0
2023-08-17 17:19:54.040382,401.0
2023-08-17 17:19:54.048071,-21.0
2023-08-17 17:19:54.055760,-238.0
2023-08-17 17:19:54.063449,-148.0
2023-08-17 17:19:54.071138,-95.0
2023-08-17 17:19:54.078827,-136.0
2023-08-17 17:19:54.086516,-128.0
2023-08-17 17:19:54.094205,-107.0
2023-08-17 17:19:54.101894,-112.0
2023-08-17 17:19:54.109583,-107.0
2023-08-17 17:19:54.117272,-90.0
2023-08-17 17:19:54.124961,-85.0
2023-08-17 17:19:54.132649,-85.0
2023-08-17 17:19:54.140338,-74.0
2023-08-17 17:19:54.148027,-62.0
2023-08-17 17:19:54.155716,-59.0
2023-08-17 17:19:54.163405,-52.0
2023-08-17 17:19:54.171094,-35.0
2023-08-17 17:19:54.178783,-21.0
2023-08-17 17:19:54.186472,-9.0
2023-08-17 17:19:54.194161,7.0
2023-08-17 17:19:54.201850,28.0
2023-08-17 17:19:54.209539,50.0
2023-08-17 17:19:54.217228,71.0
2023-08-17 17:19:54.224917,97.0
2023-08-17 17:19:54.232606,124.0
2023-08-17 17:19:54.240294,138.0
2023-08-17 17:19:54.247983,143.0
2023-08-17 17:19:54.255672,140.0
2023-08-17 17:19:54.263361,131.0
2023-08-17 17:19:54.271050,100.0
2023-08-17 17:19:54.278739,52.0
2023-08-17 17:19:54.286428,0.0
2023-08-17 17:19:54.294117,-45.0
2023-08-17 17:19:54.301806,-83.0
2023-08-17 17:19:54.309495,-117.0
2023-08-17 17:19:54.317184,-138.0
2023-08-17 17:19:54.324873,-152.0
2023-08-17 17:19:54.332562,-160.0
2023-08-17 17:19:54.340251,-160.0
2023-08-17 17:19:54.347939,-157.0
2023-08-17 17:19:54.355628,-155.0
2023-08-17 17:19:54.363317,-155.0
2023-08-17 17:19:54.371006,-150.0
2023-08-17 17:19:54.378695,-145.0
2023-08-17 17:19:54.386384,-148.0
2023-08-17 17:19:54.394073,-145.0
2023-08-17 17:19:54.401762,-140.0
2023-08-17 17:19:54.409451,-138.0
2023-08-17 17:19:54.417140,-136.0
2023-08-17 17:19:54.424829,-138.0
2023-08-17 17:19:54.432518,-138.0
2023-08-17 17:19:54.440207,-128.0
2023-08-17 17:19:54.447895,-121.0
2023-08-17 17:19:54.455584,-121.0
2023-08-17 17:19:54.463273,-117.0
2023-08-17 17:19:54.470962,-109.0
2023-08-17 17:19:54.478651,-107.0
2023-08-17 17:19:54.486340,-102.0
2023-08-17 17:19:54.494029,-97.0
2023-08-17 17:19:54.501718,-95.0
2023-08-17 17:19:54.509407,-95.0
2023-08-17 17:19:54.517096,-93.0
2023-08-17 17:19:54.524785,-90.0
2023-08-17 17:19:54.532474,-93.0
2023-08-17 17:19:54.540163,-90.0
2023-08-17 17:19:54.547852,-88.0
2023-08-17 17:19:54.555540,-88.0
2023-08-17 17:19:54.563229,-85.0
2023-08-17 17:19:54.570918,-83.0
2023-08-17 17:19:54.578607,-83.0
2023-08-17 17:19:54.586296,-81.0
2023-08-17 17:19:54.593985,-81.0
2023-08-17 17:19:54.601674,-81.0
2023-08-17 17:19:54.609363,-78.0
2023-08-17 17:19:54.617052,-74.0
2023-08-17 17:19:54.624741,-74.0
2023-08-17 17:19:54.632430,-74.0
2023-08-17 17:19:54.640119,-71.0
2023-08-17 17:19:54.647808,-69.0
2023-08-17 17:19:54.655497,-66.0
2023-08-17 17:19:54.663185,-64.0
2023-08-17 17:19:54.670874,-64.0
2023-08-17 17:19:54.678563,-62.0
2023-08-17 17:19:54.686252,-57.0
2023-08-17 17:19:54.693941,-59.0
2023-08-17 17:19:54.701630,-59.0
2023-08-17 17:19:54.709319,-54.0
2023-08-17 17:19:54.717008,-52.0
2023-08-17 17:19:54.724697,-54.0
2023-08-17 17:19:54.732386,-54.0
2023-08-17 17:19:54.740075,-50.0
2023-08-17 17:19:54.747764,-47.0
2023-08-17 17:19:54.755453,-50.0
2023-08-17 17:19:54.763142,-50.0
2023-08-17 17:19:54.770830,-45.0
2023-08-17 17:19:54.778519,-47.0
2023-08-17 17:19:54.786208,-54.0
2023-08-17 17:19:54.793897,-52.0
2023-08-17 17:19:54.801586,-42.0
2023-08-17 17:19:54.809275,-28.0
2023-08-17 17:19:54.816964,-19.0
2023-08-17 17:19:54.824653,-21.0
2023-08-17 17:19:54.832342,-33.0
2023-08-17 17:19:54.840031,-38.0
2023-08-17 17:19:54.847720,-42.0
2023-08-17 17:19:54.855409,-54.0
2023-08-17 17:19:54.863098,-57.0
2023-08-17 17:19:54.870786,-52.0
2023-08-17 17:19:54.878475,-54.0
2023-08-17 17:19:54.886164,-62.0
2023-08-17 17:19:54.893853,-66.0
2023-08-17 17:19:54.901542,-59.0
2023-08-17 17:19:54.909231,-52.0
2023-08-17 17:19:54.916920,-54.0
2023-08-17 17:19:54.924609,-54.0
2023-08-17 17:19:54.932298,-23.0
2023-08-17 17:19:54.939987,140.0
2023-08-17 17:19:54.947676,441.0
2023-08-17 17:19:54.955365,592.0
2023-08-17 17:19:54.963054,327.0
2023-08-17 17:19:54.970743,-95.0
2023-08-17 17:19:54.978431,-205.0
2023-08-17 17:19:54.986120,-88.0
2023-08-17 17:19:54.993809,-78.0
2023-08-17 17:19:55.001498,-119.0
2023-08-17 17:19:55.009187,-100.0
2023-08-17 17:19:55.016876,-85.0
2023-08-17 17:19:55.024565,-95.0
2023-08-17 17:19:55.032254,-83.0
2023-08-17 17:19:55.039943,-74.0
2023-08-17 17:19:55.047632,-76.0
2023-08-17 17:19:55.055321,-71.0
2023-08-17 17:19:55.063010,-62.0
2023-08-17 17:19:55.070699,-62.0
2023-08-17 17:19:55.078388,-57.0
2023-08-17 17:19:55.086076,-40.0
2023-08-17 17:19:55.093765,-26.0
2023-08-17 17:19:55.101454,-16.0
2023-08-17 17:19:55.109143,-2.0
2023-08-17 17:19:55.116832,14.0
2023-08-17 17:19:55.124521,38.0
2023-08-17 17:19:55.132210,62.0
2023-08-17 17:19:55.139899,88.0
2023-08-17 17:19:55.147588,109.0
2023-08-17 17:19:55.155277,124.0
2023-08-17 17:19:55.162966,136.0
2023-08-17 17:19:55.170655,145.0
2023-08-17 17:19:55.178344,140.0
2023-08-17 17:19:55.186032,119.0
2023-08-17 17:19:55.193721,83.0
2023-08-17 17:19:55.201410,38.0
2023-08-17 17:19:55.209099,-11.0
2023-08-17 17:19:55.216788,-54.0
2023-08-17 17:19:55.224477,-88.0
2023-08-17 17:19:55.232166,-112.0
2023-08-17 17:19:55.239855,-131.0
2023-08-17 17:19:55.247544,-140.0
2023-08-17 17:19:55.255233,-140.0
2023-08-17 17:19:55.262922,-143.0
2023-08-17 17:19:55.270611,-145.0
2023-08-17 17:19:55.278300,-140.0
2023-08-17 17:19:55.285989,-133.0
2023-08-17 17:19:55.293677,-133.0
2023-08-17 17:19:55.301366,-128.0
2023-08-17 17:19:55.309055,-124.0
2023-08-17 17:19:55.316744,-124.0
2023-08-17 17:19:55.324433,-124.0
2023-08-17 17:19:55.332122,-119.0
2023-08-17 17:19:55.339811,-117.0
2023-08-17 17:19:55.347500,-112.0
2023-08-17 17:19:55.355189,-105.0
2023-08-17 17:19:55.362878,-102.0
2023-08-17 17:19:55.370567,-102.0
2023-08-17 17:19:55.378256,-102.0
2023-08-17 17:19:55.385945,-100.0
2023-08-17 17:19:55.393634,-97.0
2023-08-17 17:19:55.401322,-100.0
2023-08-17 17:19:55.409011,-102.0
2023-08-17 17:19:55.416700,-102.0
2023-08-17 17:19:55.424389,-100.0
2023-08-17 17:19:55.432078,-97.0
2023-08-17 17:19:55.439767,-97.0
2023-08-17 17:19:55.447456,-95.0
2023-08-17 17:19:55.455145,-93.0
2023-08-17 17:19:55.462834,-93.0
2023-08-17 17:19:55.470523,-90.0
2023-08-17 17:19:55.478212,-88.0
2023-08-17 17:19:55.485901,-85.0
2023-08-17 17:19:55.493590,-88.0
2023-08-17 17:19:55.501279,-90.0
2023-08-17 17:19:55.508967,-93.0
2023-08-17 17:19:55.516656,-90.0
2023-08-17 17:19:55.524345,-90.0
2023-08-17 17:19:55.532034,-85.0
2023-08-17 17:19:55.539723,-83.0
2023-08-17 17:19:55.547412,-85.0
2023-08-17 17:19:55.555101,-83.0
2023-08-17 17:19:55.562790,-83.0
2023-08-17 17:19:55.570479,-83.0
2023-08-17 17:19:55.578168,-81.0
2023-08-17 17:19:55.585857,-78.0
2023-08-17 17:19:55.593546,-81.0
2023-08-17 17:19:55.601235,-81.0
2023-08-17 17:19:55.608923,-74.0
2023-08-17 17:19:55.616612,-71.0
2023-08-17 17:19:55.624301,-71.0
2023-08-17 17:19:55.631990,-69.0
2023-08-17 17:19:55.639679,-66.0
2023-08-17 17:19:55.647368,-66.0
2023-08-17 17:19:55.655057,-66.0
2023-08-17 17:19:55.662746,-66.0
2023-08-17 17:19:55.670435,-62.0
2023-08-17 17:19:55.678124,-57.0
2023-08-17 17:19:55.685813,-59.0
2023-08-17 17:19:55.693502,-62.0
2023-08-17 17:19:55.701191,-59.0
2023-08-17 17:19:55.708880,-57.0
2023-08-17 17:19:55.716568,-64.0
2023-08-17 17:19:55.724257,-59.0
2023-08-17 17:19:55.731946,-47.0
2023-08-17 17:19:55.739635,-31.0
2023-08-17 17:19:55.747324,-23.0
2023-08-17 17:19:55.755013,-26.0
2023-08-17 17:19:55.762702,-31.0
2023-08-17 17:19:55.770391,-38.0
2023-08-17 17:19:55.778080,-52.0
2023-08-17 17:19:55.785769,-62.0
2023-08-17 17:19:55.793458,-59.0
2023-08-17 17:19:55.801147,-59.0
2023-08-17 17:19:55.808836,-62.0
2023-08-17 17:19:55.816525,-64.0
2023-08-17 17:19:55.824213,-62.0
2023-08-17 17:19:55.831902,-57.0
2023-08-17 17:19:55.839591,-52.0
2023-08-17 17:19:55.847280,-50.0
2023-08-17 17:19:55.854969,-45.0
2023-08-17 17:19:55.862658,23.0
2023-08-17 17:19:55.870347,253.0
2023-08-17 17:19:55.878036,535.0
2023-08-17 17:19:55.885725,532.0
2023-08-17 17:19:55.893414,157.0
2023-08-17 17:19:55.901103,-174.0
2023-08-17 17:19:55.908792,-157.0
2023-08-17 17:19:55.916481,-64.0
2023-08-17 17:19:55.924169,-95.0
2023-08-17 17:19:55.931858,-114.0
2023-08-17 17:19:55.939547,-88.0
2023-08-17 17:19:55.947236,-90.0
2023-08-17 17:19:55.954925,-95.0
2023-08-17 17:19:55.962614,-81.0
2023-08-17 17:19:55.970303,-74.0
2023-08-17 17:19:55.977992,-76.0
2023-08-17 17:19:55.985681,-66.0
2023-08-17 17:19:55.993370,-57.0
2023-08-17 17:19:56.001059,-52.0
2023-08-17 17:19:56.008748,-40.0
2023-08-17 17:19:56.016437,-31.0
2023-08-17 17:19:56.024126,-26.0
2023-08-17 17:19:56.031814,-14.0
2023-08-17 17:19:56.039503,-2.0
2023-08-17 17:19:56.047192,16.0
2023-08-17 17:19:56.054881,40.0
2023-08-17 17:19:56.062570,62.0
2023-08-17 17:19:56.070259,85.0
2023-08-17 17:19:56.077948,107.0
2023-08-17 17:19:56.085637,121.0
2023-08-17 17:19:56.093326,126.0
2023-08-17 17:19:56.101015,128.0
2023-08-17 17:19:56.108704,124.0
2023-08-17 17:19:56.116393,105.0
2023-08-17 17:19:56.124082,62.0
2023-08-17 17:19:56.131771,7.0
2023-08-17 17:19:56.139459,-50.0
2023-08-17 17:19:56.147148,-93.0
2023-08-17 17:19:56.154837,-117.0
2023-08-17 17:19:56.162526,-140.0
2023-08-17 17:19:56.170215,-157.0
2023-08-17 17:19:56.177904,-164.0
2023-08-17 17:19:56.185593,-169.0
2023-08-17 17:19:56.193282,-169.0
2023-08-17 17:19:56.200971,-162.0
2023-08-17 17:19:56.208660,-160.0
2023-08-17 17:19:56.216349,-160.0
2023-08-17 17:19:56.224038,-155.0
2023-08-17 17:19:56.231727,-150.0
2023-08-17 17:19:56.239416,-143.0
2023-08-17 17:19:56.247104,-136.0
2023-08-17 17:19:56.254793,-131.0
2023-08-17 17:19:56.262482,-128.0
2023-08-17 17:19:56.270171,-126.0
2023-08-17 17:19:56.277860,-124.0
2023-08-17 17:19:56.285549,-121.0
2023-08-17 17:19:56.293238,-121.0
2023-08-17 17:19:56.300927,-121.0
2023-08-17 17:19:56.308616,-119.0
2023-08-17 17:19:56.316305,-114.0
2023-08-17 17:19:56.323994,-114.0
2023-08-17 17:19:56.331683,-119.0
2023-08-17 17:19:56.339372,-117.0
2023-08-17 17:19:56.347060,-109.0
2023-08-17 17:19:56.354749,-109.0
2023-08-17 17:19:56.362438,-114.0
2023-08-17 17:19:56.370127,-117.0
2023-08-17 17:19:56.377816,-109.0
2023-08-17 17:19:56.385505,-105.0
2023-08-17 17:19:56.393194,-109.0
2023-08-17 17:19:56.400883,-107.0
2023-08-17 17:19:56.408572,-109.0
2023-08-17 17:19:56.416261,-109.0
2023-08-17 17:19:56.423950,-107.0
2023-08-17 17:19:56.431639,-109.0
2023-08-17 17:19:56.439328,-109.0
2023-08-17 17:19:56.447017,-105.0
2023-08-17 17:19:56.454705,-105.0
2023-08-17 17:19:56.462394,-105.0
2023-08-17 17:19:56.470083,-100.0
2023-08-17 17:19:56.477772,-100.0
2023-08-17 17:19:56.485461,-100.0
2023-08-17 17:19:56.493150,-97.0
2023-08-17 17:19:56.500839,-95.0
2023-08-17 17:19:56.508528,-95.0
2023-08-17 17:19:56.516217,-93.0
2023-08-17 17:19:56.523906,-90.0
2023-08-17 17:19:56.531595,-90.0
2023-08-17 17:19:56.539284,-88.0
2023-08-17 17:19:56.546973,-88.0
2023-08-17 17:19:56.554662,-90.0
2023-08-17 17:19:56.562350,-85.0
2023-08-17 17:19:56.570039,-81.0
2023-08-17 17:19:56.577728,-83.0
2023-08-17 17:19:56.585417,-88.0
2023-08-17 17:19:56.593106,-85.0
2023-08-17 17:19:56.600795,-83.0
2023-08-17 17:19:56.608484,-85.0
2023-08-17 17:19:56.616173,-83.0
2023-08-17 17:19:56.623862,-88.0
2023-08-17 17:19:56.631551,-102.0
2023-08-17 17:19:56.639240,-105.0
2023-08-17 17:19:56.646929,-88.0
2023-08-17 17:19:56.654618,-69.0
2023-08-17 17:19:56.662306,-59.0
2023-08-17 17:19:56.669995,-64.0
2023-08-17 17:19:56.677684,-76.0
2023-08-17 17:19:56.685373,-85.0
2023-08-17 17:19:56.693062,-93.0
2023-08-17 17:19:56.700751,-100.0
2023-08-17 17:19:56.708440,-102.0
2023-08-17 17:19:56.716129,-105.0
2023-08-17 17:19:56.723818,-107.0
2023-08-17 17:19:56.731507,-105.0
2023-08-17 17:19:56.739196,-102.0
2023-08-17 17:19:56.746885,-100.0
2023-08-17 17:19:56.754574,-95.0
2023-08-17 17:19:56.762263,-97.0
2023-08-17 17:19:56.769951,-95.0
2023-08-17 17:19:56.777640,-31.0
2023-08-17 17:19:56.785329,186.0
2023-08-17 17:19:56.793018,477.0
2023-08-17 17:19:56.800707,501.0
2023-08-17 17:19:56.808396,131.0
2023-08-17 17:19:56.816085,-217.0
2023-08-17 17:19:56.823774,-203.0
2023-08-17 17:19:56.831463,-102.0
2023-08-17 17:19:56.839152,-126.0
2023-08-17 17:19:56.846841,-140.0
2023-08-17 17:19:56.854530,-114.0
2023-08-17 17:19:56.862219,-117.0
2023-08-17 17:19:56.869908,-119.0
2023-08-17 17:19:56.877596,-105.0
2023-08-17 17:19:56.885285,-95.0
2023-08-17 17:19:56.892974,-85.0
2023-08-17 17:19:56.900663,-78.0
2023-08-17 17:19:56.908352,-76.0
2023-08-17 17:19:56.916041,-76.0
2023-08-17 17:19:56.923730,-66.0
2023-08-17 17:19:56.931419,-54.0
2023-08-17 17:19:56.939108,-42.0
2023-08-17 17:19:56.946797,-33.0
2023-08-17 17:19:56.954486,-19.0
2023-08-17 17:19:56.962175,4.0
2023-08-17 17:19:56.969864,33.0
2023-08-17 17:19:56.977552,57.0
2023-08-17 17:19:56.985241,83.0
2023-08-17 17:19:56.992930,105.0
2023-08-17 17:19:57.000619,119.0
2023-08-17 17:19:57.008308,136.0
2023-08-17 17:19:57.015997,145.0
2023-08-17 17:19:57.023686,138.0
2023-08-17 17:19:57.031375,119.0
2023-08-17 17:19:57.039064,76.0
2023-08-17 17:19:57.046753,19.0
2023-08-17 17:19:57.054442,-31.0
2023-08-17 17:19:57.062131,-66.0
2023-08-17 17:19:57.069820,-95.0
2023-08-17 17:19:57.077509,-124.0
2023-08-17 17:19:57.085197,-145.0
2023-08-17 17:19:57.092886,-148.0
2023-08-17 17:19:57.100575,-143.0
2023-08-17 17:19:57.108264,-145.0
2023-08-17 17:19:57.115953,-145.0
2023-08-17 17:19:57.123642,-140.0
2023-08-17 17:19:57.131331,-136.0
2023-08-17 17:19:57.139020,-136.0
2023-08-17 17:19:57.146709,-128.0
2023-08-17 17:19:57.154398,-124.0
2023-08-17 17:19:57.162087,-121.0
2023-08-17 17:19:57.169776,-117.0
2023-08-17 17:19:57.177465,-109.0
2023-08-17 17:19:57.185154,-105.0
2023-08-17 17:19:57.192842,-102.0
2023-08-17 17:19:57.200531,-102.0
2023-08-17 17:19:57.208220,-97.0
2023-08-17 17:19:57.215909,-88.0
2023-08-17 17:19:57.223598,-88.0
2023-08-17 17:19:57.231287,-88.0
2023-08-17 17:19:57.238976,-81.0
2023-08-17 17:19:57.246665,-78.0
2023-08-17 17:19:57.254354,-81.0
2023-08-17 17:19:57.262043,-85.0
2023-08-17 17:19:57.269732,-83.0
2023-08-17 17:19:57.277421,-85.0
2023-08-17 17:19:57.285110,-90.0
2023-08-17 17:19:57.292799,-90.0
2023-08-17 17:19:57.300487,-85.0
2023-08-17 17:19:57.308176,-88.0
2023-08-17 17:19:57.315865,-83.0
2023-08-17 17:19:57.323554,-81.0
2023-08-17 17:19:57.331243,-81.0
2023-08-17 17:19:57.338932,-76.0
2023-08-17 17:19:57.346621,-71.0
2023-08-17 17:19:57.354310,-71.0
2023-08-17 17:19:57.361999,-69.0
2023-08-17 17:19:57.369688,-66.0
2023-08-17 17:19:57.377377,-64.0
2023-08-17 17:19:57.385066,-66.0
2023-08-17 17:19:57.392755,-64.0
2023-08-17 17:19:57.400443,-62.0
2023-08-17 17:19:57.408132,-62.0
2023-08-17 17:19:57.415821,-64.0
2023-08-17 17:19:57.423510,-69.0
2023-08-17 17:19:57.431199,-66.0
2023-08-17 17:19:57.438888,-62.0
2023-08-17 17:19:57.446577,-59.0
2023-08-17 17:19:57.454266,-59.0
2023-08-17 17:19:57.461955,-57.0
2023-08-17 17:19:57.469644,-57.0
2023-08-17 17:19:57.477333,-54.0
2023-08-17 17:19:57.485022,-57.0
2023-08-17 17:19:57.492711,-54.0
2023-08-17 17:19:57.500400,-54.0
2023-08-17 17:19:57.508088,-52.0
2023-08-17 17:19:57.515777,-54.0
2023-08-17 17:19:57.523466,-57.0
2023-08-17 17:19:57.531155,-42.0
2023-08-17 17:19:57.538844,-21.0
2023-08-17 17:19:57.546533,-14.0
2023-08-17 17:19:57.554222,-19.0
2023-08-17 17:19:57.561911,-21.0
2023-08-17 17:19:57.569600,-28.0
2023-08-17 17:19:57.577289,-40.0
2023-08-17 17:19:57.584978,-50.0
2023-08-17 17:19:57.592667,-50.0
2023-08-17 17:19:57.600356,-45.0
2023-08-17 17:19:57.608045,-45.0
2023-08-17 17:19:57.615733,-47.0
2023-08-17 17:19:57.623422,-45.0
2023-08-17 17:19:57.631111,-45.0
2023-08-17 17:19:57.638800,-45.0
2023-08-17 17:19:57.646489,-40.0
2023-08-17 17:19:57.654178,-31.0
2023-08-17 17:19:57.661867,54.0
2023-08-17 17:19:57.669556,308.0
2023-08-17 17:19:57.677245,580.0
2023-08-17 17:19:57.684934,523.0
2023-08-17 17:19:57.692623,119.0
2023-08-17 17:19:57.700312,-176.0
2023-08-17 17:19:57.708001,-128.0
2023-08-17 17:19:57.715689,-47.0
2023-08-17 17:19:57.723378,-85.0
2023-08-17 17:19:57.731067,-97.0
2023-08-17 17:19:57.738756,-71.0
2023-08-17 17:19:57.746445,-74.0
2023-08-17 17:19:57.754134,-83.0
2023-08-17 17:19:57.761823,-76.0
2023-08-17 17:19:57.769512,-66.0
2023-08-17 17:19:57.777201,-66.0
2023-08-17 17:19:57.784890,-62.0
2023-08-17 17:19:57.792579,-50.0
2023-08-17 17:19:57.800268,-47.0
2023-08-17 17:19:57.807957,-45.0
2023-08-17 17:19:57.815646,-33.0
2023-08-17 17:19:57.823334,-23.0
2023-08-17 17:19:57.831023,-9.0
2023-08-17 17:19:57.838712,9.0
2023-08-17 17:19:57.846401,28.0
2023-08-17 17:19:57.854090,50.0
2023-08-17 17:19:57.861779,78.0
2023-08-17 17:19:57.869468,107.0
2023-08-17 17:19:57.877157,128.0
2023-08-17 17:19:57.884846,148.0
2023-08-17 17:19:57.892535,157.0
2023-08-17 17:19:57.900224,152.0
2023-08-17 17:19:57.907913,145.0
2023-08-17 17:19:57.915602,121.0
2023-08-17 17:19:57.923291,71.0
2023-08-17 17:19:57.930979,19.0
2023-08-17 17:19:57.938668,-26.0
2023-08-17 17:19:57.946357,-59.0
2023-08-17 17:19:57.954046,-90.0
2023-08-17 17:19:57.961735,-114.0
2023-08-17 17:19:57.969424,-126.0
2023-08-17 17:19:57.977113,-128.0
2023-08-17 17:19:57.984802,-131.0
2023-08-17 17:19:57.992491,-133.0
2023-08-17 17:19:58.000180,-133.0
2023-08-17 17:19:58.007869,-128.0
2023-08-17 17:19:58.015558,-124.0
2023-08-17 17:19:58.023247,-121.0
2023-08-17 17:19:58.030936,-119.0
2023-08-17 17:19:58.038624,-112.0
2023-08-17 17:19:58.046313,-107.0
2023-08-17 17:19:58.054002,-105.0
2023-08-17 17:19:58.061691,-105.0
2023-08-17 17:19:58.069380,-97.0
2023-08-17 17:19:58.077069,-93.0
2023-08-17 17:19:58.084758,-93.0
2023-08-17 17:19:58.092447,-95.0
2023-08-17 17:19:58.100136,-90.0
2023-08-17 17:19:58.107825,-88.0
2023-08-17 17:19:58.115514,-85.0
2023-08-17 17:19:58.123203,-85.0
2023-08-17 17:19:58.130892,-83.0
2023-08-17 17:19:58.138580,-78.0
2023-08-17 17:19:58.146269,-78.0
2023-08-17 17:19:58.153958,-78.0
2023-08-17 17:19:58.161647,-78.0
2023-08-17 17:19:58.169336,-76.0
2023-08-17 17:19:58.177025,-74.0
2023-08-17 17:19:58.184714,-74.0
2023-08-17 17:19:58.192403,-76.0
2023-08-17 17:19:58.200092,-76.0
2023-08-17 17:19:58.207781,-76.0
2023-08-17 17:19:58.215470,-69.0
2023-08-17 17:19:58.223159,-66.0
2023-08-17 17:19:58.230848,-66.0
2023-08-17 17:19:58.238537,-66.0
2023-08-17 17:19:58.246225,-66.0
2023-08-17 17:19:58.253914,-62.0
2023-08-17 17:19:58.261603,-59.0
2023-08-17 17:19:58.269292,-64.0
2023-08-17 17:19:58.276981,-69.0
2023-08-17 17:19:58.284670,-69.0
2023-08-17 17:19:58.292359,-71.0
2023-08-17 17:19:58.300048,-78.0
2023-08-17 17:19:58.307737,-74.0
2023-08-17 17:19:58.315426,-69.0
2023-08-17 17:19:58.323115,-69.0
2023-08-17 17:19:58.330804,-69.0
2023-08-17 17:19:58.338493,-74.0
2023-08-17 17:19:58.346182,-78.0
2023-08-17 17:19:58.353870,-74.0
2023-08-17 17:19:58.361559,-71.0
2023-08-17 17:19:58.369248,-74.0
2023-08-17 17:19:58.376937,-71.0
2023-08-17 17:19:58.384626,-71.0
2023-08-17 17:19:58.392315,-74.0
2023-08-17 17:19:58.400004,-71.0
2023-08-17 17:19:58.407693,-69.0
2023-08-17 17:19:58.415382,-62.0
2023-08-17 17:19:58.423071,-47.0
2023-08-17 17:19:58.430760,-38.0
2023-08-17 17:19:58.438449,-40.0
2023-08-17 17:19:58.446138,-47.0
2023-08-17 17:19:58.453826,-50.0
2023-08-17 17:19:58.461515,-57.0
2023-08-17 17:19:58.469204,-71.0
2023-08-17 17:19:58.476893,-74.0
2023-08-17 17:19:58.484582,-69.0
2023-08-17 17:19:58.492271,-66.0
2023-08-17 17:19:58.499960,-69.0
2023-08-17 17:19:58.507649,-64.0
2023-08-17 17:19:58.515338,-66.0
2023-08-17 17:19:58.523027,-69.0
2023-08-17 17:19:58.530716,-64.0
2023-08-17 17:19:58.538405,-59.0
2023-08-17 17:19:58.546094,-21.0
2023-08-17 17:19:58.553783,152.0
2023-08-17 17:19:58.561471,451.0
2023-08-17 17:19:58.569160,582.0
2023-08-17 17:19:58.576849,308.0
2023-08-17 17:19:58.584538,-97.0
2023-08-17 17:19:58.592227,-186.0
2023-08-17 17:19:58.599916,-76.0
2023-08-17 17:19:58.607605,-76.0
2023-08-17 17:19:58.615294,-117.0
2023-08-17 17:19:58.622983,-95.0
2023-08-17 17:19:58.630672,-83.0
2023-08-17 17:19:58.638361,-93.0
2023-08-17 17:19:58.646050,-83.0
2023-08-17 17:19:58.653739,-76.0
2023-08-17 17:19:58.661428,-76.0
2023-08-17 17:19:58.669116,-64.0
2023-08-17 17:19:58.676805,-54.0
2023-08-17 17:19:58.684494,-50.0
2023-08-17 17:19:58.692183,-45.0
2023-08-17 17:19:58.699872,-33.0
2023-08-17 17:19:58.707561,-21.0
2023-08-17 17:19:58.715250,-9.0
2023-08-17 17:19:58.722939,2.0
2023-08-17 17:19:58.730628,21.0
2023-08-17 17:19:58.738317,40.0
2023-08-17 17:19:58.746006,59.0
2023-08-17 17:19:58.753695,83.0
2023-08-17 17:19:58.761384,109.0
2023-08-17 17:19:58.769073,126.0
2023-08-17 17:19:58.776761,136.0
2023-08-17 17:19:58.784450,143.0
2023-08-17 17:19:58.792139,138.0
2023-08-17 17:19:58.799828,117.0
2023-08-17 17:19:58.807517,78.0
2023-08-17 17:19:58.815206,31.0
2023-08-17 17:19:58.822895,-14.0
2023-08-17 17:19:58.830584,-57.0
2023-08-17 17:19:58.838273,-95.0
2023-08-17 17:19:58.845962,-119.0
2023-08-17 17:19:58.853651,-133.0
2023-08-17 17:19:58.861340,-140.0
2023-08-17 17:19:58.869029,-143.0
2023-08-17 17:19:58.876717,-150.0
2023-08-17 17:19:58.884406,-157.0
2023-08-17 17:19:58.892095,-155.0
2023-08-17 17:19:58.899784,-150.0
2023-08-17 17:19:58.907473,-145.0
2023-08-17 17:19:58.915162,-138.0
2023-08-17 17:19:58.922851,-136.0
2023-08-17 17:19:58.930540,-136.0
2023-08-17 17:19:58.938229,-136.0
2023-08-17 17:19:58.945918,-128.0
2023-08-17 17:19:58.953607,-121.0
2023-08-17 17:19:58.961296,-119.0
2023-08-17 17:19:58.968985,-117.0
2023-08-17 17:19:58.976674,-117.0
2023-08-17 17:19:58.984362,-117.0
2023-08-17 17:19:58.992051,-114.0
2023-08-17 17:19:58.999740,-109.0
2023-08-17 17:19:59.007429,-109.0
2023-08-17 17:19:59.015118,-109.0
2023-08-17 17:19:59.022807,-102.0
2023-08-17 17:19:59.030496,-102.0
2023-08-17 17:19:59.038185,-107.0
2023-08-17 17:19:59.045874,-105.0
2023-08-17 17:19:59.053563,-95.0
2023-08-17 17:19:59.061252,-95.0
2023-08-17 17:19:59.068941,-100.0
2023-08-17 17:19:59.076630,-97.0
2023-08-17 17:19:59.084319,-93.0
2023-08-17 17:19:59.092007,-88.0
2023-08-17 17:19:59.099696,-85.0
2023-08-17 17:19:59.107385,-85.0
2023-08-17 17:19:59.115074,-88.0
2023-08-17 17:19:59.122763,-83.0
2023-08-17 17:19:59.130452,-78.0
2023-08-17 17:19:59.138141,-76.0
2023-08-17 17:19:59.145830,-78.0
2023-08-17 17:19:59.153519,-78.0
2023-08-17 17:19:59.161208,-76.0
2023-08-17 17:19:59.168897,-76.0
2023-08-17 17:19:59.176586,-74.0
2023-08-17 17:19:59.184275,-71.0
2023-08-17 17:19:59.191963,-74.0
2023-08-17 17:19:59.199652,-71.0
2023-08-17 17:19:59.207341,-66.0
2023-08-17 17:19:59.215030,-66.0
2023-08-17 17:19:59.222719,-64.0
2023-08-17 17:19:59.230408,-62.0
2023-08-17 17:19:59.238097,-62.0
2023-08-17 17:19:59.245786,-62.0
2023-08-17 17:19:59.253475,-64.0
2023-08-17 17:19:59.261164,-64.0
2023-08-17 17:19:59.268853,-64.0
2023-08-17 17:19:59.276542,-64.0
2023-08-17 17:19:59.284231,-64.0
2023-08-17 17:19:59.291920,-62.0
2023-08-17 17:19:59.299608,-59.0
2023-08-17 17:19:59.307297,-62.0
2023-08-17 17:19:59.314986,-62.0
2023-08-17 17:19:59.322675,-59.0
2023-08-17 17:19:59.330364,-62.0
2023-08-17 17:19:59.338053,-62.0
2023-08-17 17:19:59.345742,-47.0
2023-08-17 17:19:59.353431,-33.0
2023-08-17 17:19:59.361120,-26.0
2023-08-17 17:19:59.368809,-31.0
2023-08-17 17:19:59.376498,-40.0
2023-08-17 17:19:59.384187,-45.0
2023-08-17 17:19:59.391876,-54.0
2023-08-17 17:19:59.399565,-62.0
2023-08-17 17:19:59.407253,-62.0
2023-08-17 17:19:59.414942,-62.0
2023-08-17 17:19:59.422631,-64.0
2023-08-17 17:19:59.430320,-66.0
2023-08-17 17:19:59.438009,-66.0
2023-08-17 17:19:59.445698,-66.0
2023-08-17 17:19:59.453387,-64.0
2023-08-17 17:19:59.461076,-66.0
2023-08-17 17:19:59.468765,-71.0
2023-08-17 17:19:59.476454,2.0
2023-08-17 17:19:59.484143,243.0
2023-08-17 17:19:59.491832,523.0
2023-08-17 17:19:59.499521,508.0
2023-08-17 17:19:59.507209,124.0
2023-08-17 17:19:59.514898,-195.0
2023-08-17 17:19:59.522587,-164.0
2023-08-17 17:19:59.530276,-74.0
2023-08-17 17:19:59.537965,-112.0
2023-08-17 17:19:59.545654,-128.0
2023-08-17 17:19:59.553343,-102.0
2023-08-17 17:19:59.561032,-100.0
2023-08-17 17:19:59.568721,-105.0
2023-08-17 17:19:59.576410,-93.0
2023-08-17 17:19:59.584099,-90.0
2023-08-17 17:19:59.591788,-88.0
2023-08-17 17:19:59.599477,-76.0
2023-08-17 17:19:59.607166,-66.0
2023-08-17 17:19:59.614854,-64.0
2023-08-17 17:19:59.622543,-52.0
2023-08-17 17:19:59.630232,-38.0
2023-08-17 17:19:59.637921,-28.0
2023-08-17 17:19:59.645610,-26.0
2023-08-17 17:19:59.653299,-7.0
2023-08-17 17:19:59.660988,19.0
2023-08-17 17:19:59.668677,38.0
2023-08-17 17:19:59.676366,57.0
2023-08-17 17:19:59.684055,83.0
2023-08-17 17:19:59.691744,102.0
2023-08-17 17:19:59.699433,119.0
2023-08-17 17:19:59.707122,133.0
2023-08-17 17:19:59.714811,136.0
2023-08-17 17:19:59.722499,121.0
2023-08-17 17:19:59.730188,100.0
2023-08-17 17:19:59.737877,57.0
2023-08-17 17:19:59.745566,4.0
2023-08-17 17:19:59.753255,-42.0
2023-08-17 17:19:59.760944,-83.0
2023-08-17 17:19:59.768633,-114.0
2023-08-17 17:19:59.776322,-138.0
2023-08-17 17:19:59.784011,-155.0
2023-08-17 17:19:59.791700,-160.0
2023-08-17 17:19:59.799389,-157.0
2023-08-17 17:19:59.807078,-157.0
2023-08-17 17:19:59.814767,-160.0
2023-08-17 17:19:59.822456,-160.0
2023-08-17 17:19:59.830144,-155.0
2023-08-17 17:19:59.837833,-150.0
2023-08-17 17:19:59.845522,-140.0
2023-08-17 17:19:59.853211,-138.0
2023-08-17 17:19:59.860900,-143.0
2023-08-17 17:19:59.868589,-143.0
2023-08-17 17:19:59.876278,-138.0
2023-08-17 17:19:59.883967,-131.0
2023-08-17 17:19:59.891656,-128.0
2023-08-17 17:19:59.899345,-133.0
2023-08-17 17:19:59.907034,-133.0
2023-08-17 17:19:59.914723,-131.0
2023-08-17 17:19:59.922412,-131.0
2023-08-17 17:19:59.930100,-128.0
2023-08-17 17:19:59.937789,-128.0
2023-08-17 17:19:59.945478,-138.0
2023-08-17 17:19:59.953167,-138.0
2023-08-17 17:19:59.960856,-133.0
2023-08-17 17:19:59.968545,-138.0
2023-08-17 17:19:59.976234,-136.0
2023-08-17 17:19:59.983923,-128.0
2023-08-17 17:19:59.991612,-133.0
2023-08-17 17:19:59.999301,-145.0
2023-08-17 17:20:00.006990,-148.0
2023-08-17 17:20:00.014679,-145.0
2023-08-17 17:20:00.022368,-145.0
2023-08-17 17:20:00.030057,-145.0
2023-08-17 17:20:00.037745,-143.0
2023-08-17 17:20:00.045434,-143.0
2023-08-17 17:20:00.053123,-140.0
2023-08-17 17:20:00.060812,-138.0
2023-08-17 17:20:00.068501,-136.0
2023-08-17 17:20:00.076190,-133.0
2023-08-17 17:20:00.083879,-131.0
2023-08-17 17:20:00.091568,-128.0
2023-08-17 17:20:00.099257,-126.0
2023-08-17 17:20:00.106946,-121.0
2023-08-17 17:20:00.114635,-121.0
2023-08-17 17:20:00.122324,-119.0
2023-08-17 17:20:00.130013,-117.0
2023-08-17 17:20:00.137702,-117.0
2023-08-17 17:20:00.145390,-112.0
2023-08-17 17:20:00.153079,-105.0
2023-08-17 17:20:00.160768,-107.0
2023-08-17 17:20:00.168457,-114.0
2023-08-17 17:20:00.176146,-112.0
2023-08-17 17:20:00.183835,-105.0
2023-08-17 17:20:00.191524,-102.0
2023-08-17 17:20:00.199213,-100.0
2023-08-17 17:20:00.206902,-95.0
2023-08-17 17:20:00.214591,-95.0
2023-08-17 17:20:00.222280,-105.0
2023-08-17 17:20:00.229969,-109.0
2023-08-17 17:20:00.237658,-102.0
2023-08-17 17:20:00.245346,-88.0
2023-08-17 17:20:00.253035,-74.0
2023-08-17 17:20:00.260724,-66.0
2023-08-17 17:20:00.268413,-74.0
2023-08-17 17:20:00.276102,-83.0
2023-08-17 17:20:00.283791,-90.0
2023-08-17 17:20:00.291480,-100.0
2023-08-17 17:20:00.299169,-102.0
2023-08-17 17:20:00.306858,-97.0
2023-08-17 17:20:00.314547,-95.0
2023-08-17 17:20:00.322236,-97.0
2023-08-17 17:20:00.329925,-97.0
2023-08-17 17:20:00.337614,-93.0
2023-08-17 17:20:00.345303,-90.0
2023-08-17 17:20:00.352991,-90.0
2023-08-17 17:20:00.360680,-90.0
2023-08-17 17:20:00.368369,-52.0
2023-08-17 17:20:00.376058,109.0
2023-08-17 17:20:00.383747,403.0
2023-08-17 17:20:00.391436,558.0
2023-08-17 17:20:00.399125,305.0
2023-08-17 17:20:00.406814,-112.0
2023-08-17 17:20:00.414503,-226.0
2023-08-17 17:20:00.422192,-117.0
2023-08-17 17:20:00.429881,-100.0
2023-08-17 17:20:00.437570,-138.0
2023-08-17 17:20:00.445259,-121.0
2023-08-17 17:20:00.452948,-109.0
2023-08-17 17:20:00.460636,-117.0
2023-08-17 17:20:00.468325,-109.0
2023-08-17 17:20:00.476014,-97.0
2023-08-17 17:20:00.483703,-97.0
2023-08-17 17:20:00.491392,-93.0
2023-08-17 17:20:00.499081,-85.0
2023-08-17 17:20:00.506770,-76.0
2023-08-17 17:20:00.514459,-64.0
2023-08-17 17:20:00.522148,-54.0
2023-08-17 17:20:00.529837,-45.0
2023-08-17 17:20:00.537526,-31.0
2023-08-17 17:20:00.545215,-14.0
2023-08-17 17:20:00.552904,0.0
2023-08-17 17:20:00.560593,21.0
2023-08-17 17:20:00.568281,50.0
2023-08-17 17:20:00.575970,76.0
2023-08-17 17:20:00.583659,97.0
2023-08-17 17:20:00.591348,107.0
2023-08-17 17:20:00.599037,119.0
2023-08-17 17:20:00.606726,131.0
2023-08-17 17:20:00.614415,128.0
2023-08-17 17:20:00.622104,112.0
2023-08-17 17:20:00.629793,74.0
2023-08-17 17:20:00.637482,19.0
2023-08-17 17:20:00.645171,-31.0
2023-08-17 17:20:00.652860,-74.0
2023-08-17 17:20:00.660549,-109.0
2023-08-17 17:20:00.668237,-136.0
2023-08-17 17:20:00.675926,-155.0
2023-08-17 17:20:00.683615,-167.0
2023-08-17 17:20:00.691304,-169.0
2023-08-17 17:20:00.698993,-162.0
2023-08-17 17:20:00.706682,-160.0
2023-08-17 17:20:00.714371,-157.0
2023-08-17 17:20:00.722060,-155.0
2023-08-17 17:20:00.729749,-155.0
2023-08-17 17:20:00.737438,-155.0
2023-08-17 17:20:00.745127,-145.0
2023-08-17 17:20:00.752816,-136.0
2023-08-17 17:20:00.760505,-133.0
2023-08-17 17:20:00.768194,-133.0
2023-08-17 17:20:00.775882,-128.0
2023-08-17 17:20:00.783571,-124.0
2023-08-17 17:20:00.791260,-119.0
2023-08-17 17:20:00.798949,-112.0
2023-08-17 17:20:00.806638,-107.0
2023-08-17 17:20:00.814327,-105.0
2023-08-17 17:20:00.822016,-105.0
2023-08-17 17:20:00.829705,-102.0
2023-08-17 17:20:00.837394,-100.0
2023-08-17 17:20:00.845083,-97.0
2023-08-17 17:20:00.852772,-95.0
2023-08-17 17:20:00.860461,-93.0
2023-08-17 17:20:00.868150,-95.0
2023-08-17 17:20:00.875839,-93.0
2023-08-17 17:20:00.883527,-88.0
2023-08-17 17:20:00.891216,-88.0
2023-08-17 17:20:00.898905,-85.0
2023-08-17 17:20:00.906594,-83.0
2023-08-17 17:20:00.914283,-85.0
2023-08-17 17:20:00.921972,-83.0
2023-08-17 17:20:00.929661,-76.0
2023-08-17 17:20:00.937350,-74.0
2023-08-17 17:20:00.945039,-76.0
2023-08-17 17:20:00.952728,-76.0
2023-08-17 17:20:00.960417,-71.0
2023-08-17 17:20:00.968106,-71.0
2023-08-17 17:20:00.975795,-76.0
2023-08-17 17:20:00.983483,-74.0
2023-08-17 17:20:00.991172,-69.0
2023-08-17 17:20:00.998861,-69.0
2023-08-17 17:20:01.006550,-69.0
2023-08-17 17:20:01.014239,-69.0
2023-08-17 17:20:01.021928,-66.0
2023-08-17 17:20:01.029617,-62.0
2023-08-17 17:20:01.037306,-62.0
2023-08-17 17:20:01.044995,-64.0
2023-08-17 17:20:01.052684,-59.0
2023-08-17 17:20:01.060373,-57.0
2023-08-17 17:20:01.068062,-57.0
2023-08-17 17:20:01.075751,-57.0
2023-08-17 17:20:01.083440,-52.0
2023-08-17 17:20:01.091128,-52.0
2023-08-17 17:20:01.098817,-57.0
2023-08-17 17:20:01.106506,-62.0
2023-08-17 17:20:01.114195,-52.0
2023-08-17 17:20:01.121884,-35.0
2023-08-17 17:20:01.129573,-26.0
2023-08-17 17:20:01.137262,-26.0
2023-08-17 17:20:01.144951,-38.0
2023-08-17 17:20:01.152640,-42.0
2023-08-17 17:20:01.160329,-45.0
2023-08-17 17:20:01.168018,-62.0
2023-08-17 17:20:01.175707,-74.0
2023-08-17 17:20:01.183396,-74.0
2023-08-17 17:20:01.191085,-71.0
2023-08-17 17:20:01.198773,-69.0
2023-08-17 17:20:01.206462,-71.0
2023-08-17 17:20:01.214151,-66.0
2023-08-17 17:20:01.221840,-64.0
2023-08-17 17:20:01.229529,-64.0
2023-08-17 17:20:01.237218,-64.0
2023-08-17 17:20:01.244907,-33.0
2023-08-17 17:20:01.252596,119.0
2023-08-17 17:20:01.260285,415.0
2023-08-17 17:20:01.267974,594.0
2023-08-17 17:20:01.275663,372.0
2023-08-17 17:20:01.283352,-54.0
2023-08-17 17:20:01.291041,-200.0
2023-08-17 17:20:01.298730,-90.0
2023-08-17 17:20:01.306418,-69.0
2023-08-17 17:20:01.314107,-114.0
2023-08-17 17:20:01.321796,-93.0
2023-08-17 17:20:01.329485,-71.0
2023-08-17 17:20:01.337174,-83.0
2023-08-17 17:20:01.344863,-78.0
2023-08-17 17:20:01.352552,-64.0
2023-08-17 17:20:01.360241,-64.0
2023-08-17 17:20:01.367930,-62.0
2023-08-17 17:20:01.375619,-50.0
2023-08-17 17:20:01.383308,-45.0
2023-08-17 17:20:01.390997,-40.0
2023-08-17 17:20:01.398686,-26.0
2023-08-17 17:20:01.406374,-16.0
2023-08-17 17:20:01.414063,-7.0
2023-08-17 17:20:01.421752,9.0
2023-08-17 17:20:01.429441,26.0
2023-08-17 17:20:01.437130,47.0
2023-08-17 17:20:01.444819,66.0
2023-08-17 17:20:01.452508,90.0
2023-08-17 17:20:01.460197,114.0
2023-08-17 17:20:01.467886,133.0
2023-08-17 17:20:01.475575,143.0
2023-08-17 17:20:01.483264,150.0
2023-08-17 17:20:01.490953,148.0
2023-08-17 17:20:01.498642,126.0
2023-08-17 17:20:01.506331,93.0
2023-08-17 17:20:01.514019,45.0
2023-08-17 17:20:01.521708,-9.0
2023-08-17 17:20:01.529397,-54.0
2023-08-17 17:20:01.537086,-90.0
2023-08-17 17:20:01.544775,-114.0
2023-08-17 17:20:01.552464,-128.0
2023-08-17 17:20:01.560153,-138.0
2023-08-17 17:20:01.567842,-148.0
2023-08-17 17:20:01.575531,-148.0
2023-08-17 17:20:01.583220,-143.0
2023-08-17 17:20:01.590909,-138.0
2023-08-17 17:20:01.598598,-136.0
2023-08-17 17:20:01.606287,-136.0
2023-08-17 17:20:01.613976,-131.0
2023-08-17 17:20:01.621664,-126.0
2023-08-17 17:20:01.629353,-126.0
2023-08-17 17:20:01.637042,-126.0
2023-08-17 17:20:01.644731,-126.0
2023-08-17 17:20:01.652420,-124.0
2023-08-17 17:20:01.660109,-121.0
2023-08-17 17:20:01.667798,-121.0
2023-08-17 17:20:01.675487,-124.0
2023-08-17 17:20:01.683176,-119.0
2023-08-17 17:20:01.690865,-112.0
2023-08-17 17:20:01.698554,-112.0
2023-08-17 17:20:01.706243,-112.0
2023-08-17 17:20:01.713932,-107.0
2023-08-17 17:20:01.721620,-107.0
2023-08-17 17:20:01.729309,-107.0
2023-08-17 17:20:01.736998,-105.0
2023-08-17 17:20:01.744687,-102.0
2023-08-17 17:20:01.752376,-102.0
2023-08-17 17:20:01.760065,-100.0
2023-08-17 17:20:01.767754,-97.0
2023-08-17 17:20:01.775443,-95.0
2023-08-17 17:20:01.783132,-93.0
2023-08-17 17:20:01.790821,-93.0
2023-08-17 17:20:01.798510,-93.0
2023-08-17 17:20:01.806199,-90.0
2023-08-17 17:20:01.813888,-85.0
2023-08-17 17:20:01.821577,-81.0
2023-08-17 17:20:01.829265,-83.0
2023-08-17 17:20:01.836954,-88.0
2023-08-17 17:20:01.844643,-81.0
2023-08-17 17:20:01.852332,-78.0
2023-08-17 17:20:01.860021,-83.0
2023-08-17 17:20:01.867710,-81.0
2023-08-17 17:20:01.875399,-74.0
2023-08-17 17:20:01.883088,-74.0
2023-08-17 17:20:01.890777,-74.0
2023-08-17 17:20:01.898466,-69.0
2023-08-17 17:20:01.906155,-71.0
2023-08-17 17:20:01.913844,-76.0
2023-08-17 17:20:01.921533,-71.0
2023-08-17 17:20:01.929222,-66.0
2023-08-17 17:20:01.936910,-71.0
2023-08-17 17:20:01.944599,-69.0
2023-08-17 17:20:01.952288,-66.0
2023-08-17 17:20:01.959977,-69.0
2023-08-17 17:20:01.967666,-69.0
2023-08-17 17:20:01.975355,-66.0
2023-08-17 17:20:01.983044,-71.0
2023-08-17 17:20:01.990733,-78.0
2023-08-17 17:20:01.998422,-74.0
2023-08-17 17:20:02.006111,-54.0
2023-08-17 17:20:02.013800,-40.0
2023-08-17 17:20:02.021489,-35.0
2023-08-17 17:20:02.029178,-40.0
2023-08-17 17:20:02.036867,-47.0
2023-08-17 17:20:02.044555,-52.0
2023-08-17 17:20:02.052244,-57.0
2023-08-17 17:20:02.059933,-69.0
2023-08-17 17:20:02.067622,-74.0
2023-08-17 17:20:02.075311,-71.0
2023-08-17 17:20:02.083000,-69.0
2023-08-17 17:20:02.090689,-71.0
2023-08-17 17:20:02.098378,-69.0
2023-08-17 17:20:02.106067,-64.0
2023-08-17 17:20:02.113756,-64.0
2023-08-17 17:20:02.121445,-64.0
2023-08-17 17:20:02.129134,-57.0
2023-08-17 17:20:02.136823,0.0
2023-08-17 17:20:02.144511,203.0
2023-08-17 17:20:02.152200,496.0
2023-08-17 17:20:02.159889,546.0
2023-08-17 17:20:02.167578,188.0
2023-08-17 17:20:02.175267,-174.0
2023-08-17 17:20:02.182956,-181.0
2023-08-17 17:20:02.190645,-78.0
2023-08-17 17:20:02.198334,-107.0
2023-08-17 17:20:02.206023,-131.0
2023-08-17 17:20:02.213712,-102.0
2023-08-17 17:20:02.221401,-100.0
2023-08-17 17:20:02.229090,-109.0
2023-08-17 17:20:02.236779,-95.0
2023-08-17 17:20:02.244468,-88.0
2023-08-17 17:20:02.252156,-95.0
2023-08-17 17:20:02.259845,-95.0
2023-08-17 17:20:02.267534,-83.0
2023-08-17 17:20:02.275223,-76.0
2023-08-17 17:20:02.282912,-69.0
2023-08-17 17:20:02.290601,-57.0
2023-08-17 17:20:02.298290,-45.0
2023-08-17 17:20:02.305979,-35.0
2023-08-17 17:20:02.313668,-19.0
2023-08-17 17:20:02.321357,0.0
2023-08-17 17:20:02.329046,21.0
2023-08-17 17:20:02.336735,45.0
2023-08-17 17:20:02.344424,69.0
2023-08-17 17:20:02.352113,90.0
2023-08-17 17:20:02.359801,105.0
2023-08-17 17:20:02.367490,114.0
2023-08-17 17:20:02.375179,119.0
2023-08-17 17:20:02.382868,112.0
2023-08-17 17:20:02.390557,85.0
2023-08-17 17:20:02.398246,42.0
2023-08-17 17:20:02.405935,-4.0
2023-08-17 17:20:02.413624,-52.0
2023-08-17 17:20:02.421313,-95.0
2023-08-17 17:20:02.429002,-128.0
2023-08-17 17:20:02.436691,-148.0
2023-08-17 17:20:02.444380,-160.0
2023-08-17 17:20:02.452069,-167.0
2023-08-17 17:20:02.459757,-169.0
2023-08-17 17:20:02.467446,-169.0
2023-08-17 17:20:02.475135,-171.0
2023-08-17 17:20:02.482824,-174.0
2023-08-17 17:20:02.490513,-164.0
2023-08-17 17:20:02.498202,-155.0
2023-08-17 17:20:02.505891,-152.0
2023-08-17 17:20:02.513580,-155.0
2023-08-17 17:20:02.521269,-150.0
2023-08-17 17:20:02.528958,-143.0
2023-08-17 17:20:02.536647,-138.0
2023-08-17 17:20:02.544336,-138.0
2023-08-17 17:20:02.552025,-133.0
2023-08-17 17:20:02.559714,-128.0
2023-08-17 17:20:02.567402,-126.0
2023-08-17 17:20:02.575091,-128.0
2023-08-17 17:20:02.582780,-128.0
2023-08-17 17:20:02.590469,-124.0
2023-08-17 17:20:02.598158,-121.0
2023-08-17 17:20:02.605847,-119.0
2023-08-17 17:20:02.613536,-121.0
2023-08-17 17:20:02.621225,-126.0
2023-08-17 17:20:02.628914,-121.0
2023-08-17 17:20:02.636603,-121.0
2023-08-17 17:20:02.644292,-126.0
2023-08-17 17:20:02.651981,-126.0
2023-08-17 17:20:02.659670,-124.0
2023-08-17 17:20:02.667359,-126.0
2023-08-17 17:20:02.675047,-126.0
2023-08-17 17:20:02.682736,-124.0
2023-08-17 17:20:02.690425,-121.0
2023-08-17 17:20:02.698114,-126.0
2023-08-17 17:20:02.705803,-128.0
2023-08-17 17:20:02.713492,-124.0
2023-08-17 17:20:02.721181,-124.0
2023-08-17 17:20:02.728870,-126.0
2023-08-17 17:20:02.736559,-124.0
2023-08-17 17:20:02.744248,-126.0
2023-08-17 17:20:02.751937,-128.0
2023-08-17 17:20:02.759626,-128.0
2023-08-17 17:20:02.767315,-126.0
2023-08-17 17:20:02.775003,-121.0
2023-08-17 17:20:02.782692,-121.0
2023-08-17 17:20:02.790381,-124.0
2023-08-17 17:20:02.798070,-124.0
2023-08-17 17:20:02.805759,-119.0
2023-08-17 17:20:02.813448,-121.0
2023-08-17 17:20:02.821137,-124.0
2023-08-17 17:20:02.828826,-124.0
2023-08-17 17:20:02.836515,-124.0
2023-08-17 17:20:02.844204,-133.0
2023-08-17 17:20:02.851893,-136.0
2023-08-17 17:20:02.859582,-131.0
2023-08-17 17:20:02.867271,-124.0
2023-08-17 17:20:02.874960,-121.0
2023-08-17 17:20:02.882648,-126.0
2023-08-17 17:20:02.890337,-121.0
2023-08-17 17:20:02.898026,-117.0
2023-08-17 17:20:02.905715,-117.0
2023-08-17 17:20:02.913404,-121.0
2023-08-17 17:20:02.921093,-124.0
2023-08-17 17:20:02.928782,-119.0
2023-08-17 17:20:02.936471,-105.0
2023-08-17 17:20:02.944160,-88.0
2023-08-17 17:20:02.951849,-85.0
2023-08-17 17:20:02.959538,-90.0
2023-08-17 17:20:02.967227,-93.0
2023-08-17 17:20:02.974916,-102.0
2023-08-17 17:20:02.982605,-117.0
2023-08-17 17:20:02.990293,-121.0
2023-08-17 17:20:02.997982,-114.0
2023-08-17 17:20:03.005671,-114.0
2023-08-17 17:20:03.013360,-121.0
2023-08-17 17:20:03.021049,-119.0
2023-08-17 17:20:03.028738,-114.0
2023-08-17 17:20:03.036427,-114.0
2023-08-17 17:20:03.044116,-112.0
2023-08-17 17:20:03.051805,-107.0
2023-08-17 17:20:03.059494,-100.0
2023-08-17 17:20:03.067183,-23.0
2023-08-17 17:20:03.074872,222.0
2023-08-17 17:20:03.082561,503.0
2023-08-17 17:20:03.090250,470.0
2023-08-17 17:20:03.097938,69.0
2023-08-17 17:20:03.105627,-241.0
2023-08-17 17:20:03.113316,-198.0
2023-08-17 17:20:03.121005,-109.0
2023-08-17 17:20:03.128694,-145.0
2023-08-17 17:20:03.136383,-155.0
2023-08-17 17:20:03.144072,-138.0
2023-08-17 17:20:03.151761,-143.0
2023-08-17 17:20:03.159450,-143.0
2023-08-17 17:20:03.167139,-126.0
2023-08-17 17:20:03.174828,-124.0
2023-08-17 17:20:03.182517,-121.0
2023-08-17 17:20:03.190206,-112.0
2023-08-17 17:20:03.197894,-105.0
2023-08-17 17:20:03.205583,-100.0
2023-08-17 17:20:03.213272,-85.0
2023-08-17 17:20:03.220961,-74.0
2023-08-17 17:20:03.228650,-64.0
2023-08-17 17:20:03.236339,-50.0
2023-08-17 17:20:03.244028,-28.0
2023-08-17 17:20:03.251717,-9.0
2023-08-17 17:20:03.259406,11.0
2023-08-17 17:20:03.267095,40.0
2023-08-17 17:20:03.274784,69.0
2023-08-17 17:20:03.282473,90.0
2023-08-17 17:20:03.290162,105.0
2023-08-17 17:20:03.297851,114.0
2023-08-17 17:20:03.305539,117.0
2023-08-17 17:20:03.313228,107.0
2023-08-17 17:20:03.320917,85.0
2023-08-17 17:20:03.328606,40.0
2023-08-17 17:20:03.336295,-14.0
2023-08-17 17:20:03.343984,-62.0
2023-08-17 17:20:03.351673,-100.0
2023-08-17 17:20:03.359362,-138.0
2023-08-17 17:20:03.367051,-162.0
2023-08-17 17:20:03.374740,-174.0
2023-08-17 17:20:03.382429,-188.0
2023-08-17 17:20:03.390118,-195.0
2023-08-17 17:20:03.397807,-191.0
2023-08-17 17:20:03.405496,-186.0
2023-08-17 17:20:03.413184,-183.0
2023-08-17 17:20:03.420873,-179.0
2023-08-17 17:20:03.428562,-171.0
2023-08-17 17:20:03.436251,-169.0
2023-08-17 17:20:03.443940,-171.0
2023-08-17 17:20:03.451629,-169.0
2023-08-17 17:20:03.459318,-160.0
2023-08-17 17:20:03.467007,-152.0
2023-08-17 17:20:03.474696,-150.0
2023-08-17 17:20:03.482385,-145.0
2023-08-17 17:20:03.490074,-140.0
2023-08-17 17:20:03.497763,-131.0
2023-08-17 17:20:03.505452,-126.0
2023-08-17 17:20:03.513140,-128.0
2023-08-17 17:20:03.520829,-126.0
2023-08-17 17:20:03.528518,-119.0
2023-08-17 17:20:03.536207,-119.0
2023-08-17 17:20:03.543896,-121.0
2023-08-17 17:20:03.551585,-119.0
2023-08-17 17:20:03.559274,-112.0
2023-08-17 17:20:03.566963,-109.0
2023-08-17 17:20:03.574652,-105.0
2023-08-17 17:20:03.582341,-102.0
2023-08-17 17:20:03.590030,-102.0
2023-08-17 17:20:03.597719,-100.0
2023-08-17 17:20:03.605408,-97.0
2023-08-17 17:20:03.613097,-97.0
2023-08-17 17:20:03.620785,-90.0
2023-08-17 17:20:03.628474,-83.0
2023-08-17 17:20:03.636163,-83.0
2023-08-17 17:20:03.643852,-83.0
2023-08-17 17:20:03.651541,-78.0
2023-08-17 17:20:03.659230,-78.0
2023-08-17 17:20:03.666919,-81.0
2023-08-17 17:20:03.674608,-78.0
2023-08-17 17:20:03.682297,-76.0
2023-08-17 17:20:03.689986,-76.0
2023-08-17 17:20:03.697675,-76.0
2023-08-17 17:20:03.705364,-74.0
2023-08-17 17:20:03.713053,-69.0
2023-08-17 17:20:03.720742,-64.0
2023-08-17 17:20:03.728430,-64.0
2023-08-17 17:20:03.736119,-62.0
2023-08-17 17:20:03.743808,-64.0
2023-08-17 17:20:03.751497,-62.0
2023-08-17 17:20:03.759186,-57.0
2023-08-17 17:20:03.766875,-50.0
2023-08-17 17:20:03.774564,-52.0
2023-08-17 17:20:03.782253,-52.0
2023-08-17 17:20:03.789942,-52.0
2023-08-17 17:20:03.797631,-52.0
2023-08-17 17:20:03.805320,-50.0
2023-08-17 17:20:03.813009,-47.0
2023-08-17 17:20:03.820698,-45.0
2023-08-17 17:20:03.828387,-50.0
2023-08-17 17:20:03.836075,-52.0
2023-08-17 17:20:03.843764,-42.0
2023-08-17 17:20:03.851453,-21.0
2023-08-17 17:20:03.859142,-7.0
2023-08-17 17:20:03.866831,-7.0
2023-08-17 17:20:03.874520,-16.0
2023-08-17 17:20:03.882209,-23.0
2023-08-17 17:20:03.889898,-28.0
2023-08-17 17:20:03.897587,-35.0
2023-08-17 17:20:03.905276,-40.0
2023-08-17 17:20:03.912965,-35.0
2023-08-17 17:20:03.920654,-38.0
2023-08-17 17:20:03.928343,-42.0
2023-08-17 17:20:03.936031,-40.0
2023-08-17 17:20:03.943720,-35.0
2023-08-17 17:20:03.951409,-40.0
2023-08-17 17:20:03.959098,-40.0
2023-08-17 17:20:03.966787,-45.0
2023-08-17 17:20:03.974476,-26.0
2023-08-17 17:20:03.982165,114.0
2023-08-17 17:20:03.989854,406.0
2023-08-17 17:20:03.997543,609.0
2023-08-17 17:20:04.005232,415.0
2023-08-17 17:20:04.012921,-14.0
2023-08-17 17:20:04.020610,-186.0
2023-08-17 17:20:04.028299,-85.0
2023-08-17 17:20:04.035988,-54.0
2023-08-17 17:20:04.043676,-100.0
2023-08-17 17:20:04.051365,-85.0
2023-08-17 17:20:04.059054,-69.0
2023-08-17 17:20:04.066743,-76.0
2023-08-17 17:20:04.074432,-71.0
2023-08-17 17:20:04.082121,-59.0
2023-08-17 17:20:04.089810,-54.0
2023-08-17 17:20:04.097499,-54.0
2023-08-17 17:20:04.105188,-47.0
2023-08-17 17:20:04.112877,-40.0
2023-08-17 17:20:04.120566,-31.0
2023-08-17 17:20:04.128255,-21.0
2023-08-17 17:20:04.135944,-11.0
2023-08-17 17:20:04.143633,-2.0
2023-08-17 17:20:04.151321,11.0
2023-08-17 17:20:04.159010,26.0
2023-08-17 17:20:04.166699,40.0
2023-08-17 17:20:04.174388,62.0
2023-08-17 17:20:04.182077,90.0
2023-08-17 17:20:04.189766,112.0
2023-08-17 17:20:04.197455,128.0
2023-08-17 17:20:04.205144,148.0
2023-08-17 17:20:04.212833,160.0
2023-08-17 17:20:04.220522,157.0
2023-08-17 17:20:04.228211,145.0
2023-08-17 17:20:04.235900,117.0
2023-08-17 17:20:04.243589,66.0
2023-08-17 17:20:04.251277,16.0
2023-08-17 17:20:04.258966,-26.0
2023-08-17 17:20:04.266655,-59.0
2023-08-17 17:20:04.274344,-88.0
2023-08-17 17:20:04.282033,-109.0
2023-08-17 17:20:04.289722,-119.0
2023-08-17 17:20:04.297411,-119.0
2023-08-17 17:20:04.305100,-119.0
2023-08-17 17:20:04.312789,-117.0
2023-08-17 17:20:04.320478,-114.0
2023-08-17 17:20:04.328167,-109.0
2023-08-17 17:20:04.335856,-105.0
2023-08-17 17:20:04.343545,-102.0
2023-08-17 17:20:04.351234,-100.0
2023-08-17 17:20:04.358922,-97.0
2023-08-17 17:20:04.366611,-93.0
2023-08-17 17:20:04.374300,-88.0
2023-08-17 17:20:04.381989,-85.0
2023-08-17 17:20:04.389678,-78.0
2023-08-17 17:20:04.397367,-74.0
2023-08-17 17:20:04.405056,-69.0
2023-08-17 17:20:04.412745,-69.0
2023-08-17 17:20:04.420434,-71.0
2023-08-17 17:20:04.428123,-71.0
2023-08-17 17:20:04.435812,-66.0
2023-08-17 17:20:04.443501,-66.0
2023-08-17 17:20:04.451190,-69.0
2023-08-17 17:20:04.458879,-69.0
2023-08-17 17:20:04.466567,-66.0
2023-08-17 17:20:04.474256,-64.0
2023-08-17 17:20:04.481945,-64.0
2023-08-17 17:20:04.489634,-62.0
2023-08-17 17:20:04.497323,-62.0
2023-08-17 17:20:04.505012,-69.0
2023-08-17 17:20:04.512701,-71.0
2023-08-17 17:20:04.520390,-69.0
2023-08-17 17:20:04.528079,-69.0
2023-08-17 17:20:04.535768,-71.0
2023-08-17 17:20:04.543457,-69.0
2023-08-17 17:20:04.551146,-66.0
2023-08-17 17:20:04.558835,-64.0
2023-08-17 17:20:04.566524,-64.0
2023-08-17 17:20:04.574212,-64.0
2023-08-17 17:20:04.581901,-62.0
2023-08-17 17:20:04.589590,-59.0
2023-08-17 17:20:04.597279,-59.0
2023-08-17 17:20:04.604968,-64.0
2023-08-17 17:20:04.612657,-62.0
2023-08-17 17:20:04.620346,-57.0
2023-08-17 17:20:04.628035,-59.0
2023-08-17 17:20:04.635724,-62.0
2023-08-17 17:20:04.643413,-59.0
2023-08-17 17:20:04.651102,-54.0
2023-08-17 17:20:04.658791,-57.0
2023-08-17 17:20:04.666480,-66.0
2023-08-17 17:20:04.674168,-69.0
2023-08-17 17:20:04.681857,-66.0
2023-08-17 17:20:04.689546,-69.0
2023-08-17 17:20:04.697235,-69.0
2023-08-17 17:20:04.704924,-66.0
2023-08-17 17:20:04.712613,-62.0
2023-08-17 17:20:04.720302,-59.0
2023-08-17 17:20:04.727991,-62.0
2023-08-17 17:20:04.735680,-64.0
2023-08-17 17:20:04.743369,-64.0
2023-08-17 17:20:04.751058,-62.0
2023-08-17 17:20:04.758747,-59.0
2023-08-17 17:20:04.766436,-59.0
2023-08-17 17:20:04.774125,-62.0
2023-08-17 17:20:04.781813,-64.0
2023-08-17 17:20:04.789502,-64.0
2023-08-17 17:20:04.797191,-57.0
2023-08-17 17:20:04.804880,-38.0
2023-08-17 17:20:04.812569,-23.0
2023-08-17 17:20:04.820258,-28.0
2023-08-17 17:20:04.827947,-38.0
2023-08-17 17:20:04.835636,-42.0
2023-08-17 17:20:04.843325,-50.0
2023-08-17 17:20:04.851014,-62.0
2023-08-17 17:20:04.858703,-64.0
2023-08-17 17:20:04.866392,-59.0
2023-08-17 17:20:04.874081,-66.0
2023-08-17 17:20:04.881770,-69.0
2023-08-17 17:20:04.889458,-64.0
2023-08-17 17:20:04.897147,-64.0
2023-08-17 17:20:04.904836,-62.0
2023-08-17 17:20:04.912525,-59.0
2023-08-17 17:20:04.920214,-57.0
2023-08-17 17:20:04.927903,0.0
2023-08-17 17:20:04.935592,207.0
2023-08-17 17:20:04.943281,499.0
2023-08-17 17:20:04.950970,546.0
2023-08-17 17:20:04.958659,198.0
2023-08-17 17:20:04.966348,-164.0
2023-08-17 17:20:04.974037,-183.0
2023-08-17 17:20:04.981726,-78.0
2023-08-17 17:20:04.989414,-100.0
2023-08-17 17:20:04.997103,-128.0
2023-08-17 17:20:05.004792,-102.0
2023-08-17 17:20:05.012481,-95.0
2023-08-17 17:20:05.020170,-100.0
2023-08-17 17:20:05.027859,-90.0
2023-08-17 17:20:05.035548,-83.0
2023-08-17 17:20:05.043237,-88.0
2023-08-17 17:20:05.050926,-85.0
2023-08-17 17:20:05.058615,-76.0
2023-08-17 17:20:05.066304,-66.0
2023-08-17 17:20:05.073993,-54.0
2023-08-17 17:20:05.081682,-45.0
2023-08-17 17:20:05.089371,-38.0
2023-08-17 17:20:05.097059,-23.0
2023-08-17 17:20:05.104748,-7.0
2023-08-17 17:20:05.112437,9.0
2023-08-17 17:20:05.120126,31.0
2023-08-17 17:20:05.127815,57.0
2023-08-17 17:20:05.135504,85.0
2023-08-17 17:20:05.143193,112.0
2023-08-17 17:20:05.150882,131.0
2023-08-17 17:20:05.158571,140.0
2023-08-17 17:20:05.166260,140.0
2023-08-17 17:20:05.173949,131.0
2023-08-17 17:20:05.181638,107.0
2023-08-17 17:20:05.189327,71.0
2023-08-17 17:20:05.197016,23.0
2023-08-17 17:20:05.204704,-23.0
2023-08-17 17:20:05.212393,-69.0
2023-08-17 17:20:05.220082,-105.0
2023-08-17 17:20:05.227771,-126.0
2023-08-17 17:20:05.235460,-138.0
2023-08-17 17:20:05.243149,-143.0
2023-08-17 17:20:05.250838,-145.0
2023-08-17 17:20:05.258527,-145.0
2023-08-17 17:20:05.266216,-148.0
2023-08-17 17:20:05.273905,-148.0
2023-08-17 17:20:05.281594,-140.0
2023-08-17 17:20:05.289283,-133.0
2023-08-17 17:20:05.296972,-131.0
2023-08-17 17:20:05.304660,-128.0
2023-08-17 17:20:05.312349,-126.0
2023-08-17 17:20:05.320038,-126.0
2023-08-17 17:20:05.327727,-119.0
2023-08-17 17:20:05.335416,-114.0
2023-08-17 17:20:05.343105,-109.0
2023-08-17 17:20:05.350794,-109.0
2023-08-17 17:20:05.358483,-114.0
2023-08-17 17:20:05.366172,-109.0
2023-08-17 17:20:05.373861,-105.0
2023-08-17 17:20:05.381550,-105.0
2023-08-17 17:20:05.389239,-107.0
2023-08-17 17:20:05.396928,-105.0
2023-08-17 17:20:05.404617,-102.0
2023-08-17 17:20:05.412305,-102.0
2023-08-17 17:20:05.419994,-102.0
2023-08-17 17:20:05.427683,-100.0
2023-08-17 17:20:05.435372,-100.0
2023-08-17 17:20:05.443061,-102.0
2023-08-17 17:20:05.450750,-100.0
2023-08-17 17:20:05.458439,-95.0
2023-08-17 17:20:05.466128,-95.0
2023-08-17 17:20:05.473817,-97.0
2023-08-17 17:20:05.481506,-95.0
2023-08-17 17:20:05.489195,-95.0
2023-08-17 17:20:05.496884,-95.0
2023-08-17 17:20:05.504573,-95.0
2023-08-17 17:20:05.512262,-95.0
2023-08-17 17:20:05.519950,-93.0
2023-08-17 17:20:05.527639,-93.0
2023-08-17 17:20:05.535328,-97.0
2023-08-17 17:20:05.543017,-97.0
2023-08-17 17:20:05.550706,-90.0
2023-08-17 17:20:05.558395,-88.0
2023-08-17 17:20:05.566084,-83.0
2023-08-17 17:20:05.573773,-78.0
2023-08-17 17:20:05.581462,-83.0
2023-08-17 17:20:05.589151,-95.0
2023-08-17 17:20:05.596840,-97.0
2023-08-17 17:20:05.604529,-93.0
2023-08-17 17:20:05.612218,-93.0
2023-08-17 17:20:05.619907,-90.0
2023-08-17 17:20:05.627595,-95.0
2023-08-17 17:20:05.635284,-105.0
2023-08-17 17:20:05.642973,-105.0
2023-08-17 17:20:05.650662,-100.0
2023-08-17 17:20:05.658351,-100.0
2023-08-17 17:20:05.666040,-105.0
2023-08-17 17:20:05.673729,-109.0
2023-08-17 17:20:05.681418,-114.0
2023-08-17 17:20:05.689107,-117.0
2023-08-17 17:20:05.696796,-112.0
2023-08-17 17:20:05.704485,-102.0
2023-08-17 17:20:05.712174,-88.0
2023-08-17 17:20:05.719863,-81.0
2023-08-17 17:20:05.727551,-85.0
2023-08-17 17:20:05.735240,-90.0
2023-08-17 17:20:05.742929,-95.0
2023-08-17 17:20:05.750618,-105.0
2023-08-17 17:20:05.758307,-114.0
2023-08-17 17:20:05.765996,-112.0
2023-08-17 17:20:05.773685,-105.0
2023-08-17 17:20:05.781374,-97.0
2023-08-17 17:20:05.789063,-95.0
2023-08-17 17:20:05.796752,-97.0
2023-08-17 17:20:05.804441,-97.0
2023-08-17 17:20:05.812130,-97.0
2023-08-17 17:20:05.819819,-88.0
2023-08-17 17:20:05.827508,-57.0
2023-08-17 17:20:05.835196,85.0
2023-08-17 17:20:05.842885,374.0
2023-08-17 17:20:05.850574,556.0
2023-08-17 17:20:05.858263,329.0
2023-08-17 17:20:05.865952,-97.0
2023-08-17 17:20:05.873641,-243.0
2023-08-17 17:20:05.881330,-128.0
2023-08-17 17:20:05.889019,-105.0
2023-08-17 17:20:05.896708,-145.0
2023-08-17 17:20:05.904397,-131.0
2023-08-17 17:20:05.912086,-117.0
2023-08-17 17:20:05.919775,-121.0
2023-08-17 17:20:05.927464,-109.0
2023-08-17 17:20:05.935153,-97.0
2023-08-17 17:20:05.942841,-102.0
2023-08-17 17:20:05.950530,-102.0
2023-08-17 17:20:05.958219,-88.0
2023-08-17 17:20:05.965908,-76.0
2023-08-17 17:20:05.973597,-69.0
2023-08-17 17:20:05.981286,-59.0
2023-08-17 17:20:05.988975,-47.0
2023-08-17 17:20:05.996664,-40.0
2023-08-17 17:20:06.004353,-26.0
2023-08-17 17:20:06.012042,-2.0
2023-08-17 17:20:06.019731,21.0
2023-08-17 17:20:06.027420,47.0
2023-08-17 17:20:06.035109,76.0
2023-08-17 17:20:06.042797,100.0
2023-08-17 17:20:06.050486,124.0
2023-08-17 17:20:06.058175,143.0
2023-08-17 17:20:06.065864,150.0
2023-08-17 17:20:06.073553,148.0
2023-08-17 17:20:06.081242,131.0
2023-08-17 17:20:06.088931,100.0
2023-08-17 17:20:06.096620,50.0
2023-08-17 17:20:06.104309,-2.0
2023-08-17 17:20:06.111998,-47.0
2023-08-17 17:20:06.119687,-90.0
2023-08-17 17:20:06.127376,-119.0
2023-08-17 17:20:06.135065,-136.0
2023-08-17 17:20:06.142754,-145.0
2023-08-17 17:20:06.150442,-155.0
2023-08-17 17:20:06.158131,-155.0
2023-08-17 17:20:06.165820,-148.0
2023-08-17 17:20:06.173509,-145.0
2023-08-17 17:20:06.181198,-152.0
2023-08-17 17:20:06.188887,-150.0
2023-08-17 17:20:06.196576,-143.0
2023-08-17 17:20:06.204265,-138.0
2023-08-17 17:20:06.211954,-138.0
2023-08-17 17:20:06.219643,-138.0
2023-08-17 17:20:06.227332,-136.0
2023-08-17 17:20:06.235021,-128.0
2023-08-17 17:20:06.242710,-124.0
2023-08-17 17:20:06.250399,-119.0
2023-08-17 17:20:06.258087,-117.0
2023-08-17 17:20:06.265776,-112.0
2023-08-17 17:20:06.273465,-105.0
2023-08-17 17:20:06.281154,-102.0
2023-08-17 17:20:06.288843,-102.0
2023-08-17 17:20:06.296532,-95.0
2023-08-17 17:20:06.304221,-93.0
2023-08-17 17:20:06.311910,-93.0
2023-08-17 17:20:06.319599,-90.0
2023-08-17 17:20:06.327288,-90.0
2023-08-17 17:20:06.334977,-83.0
2023-08-17 17:20:06.342666,-78.0
2023-08-17 17:20:06.350355,-83.0
2023-08-17 17:20:06.358044,-85.0
2023-08-17 17:20:06.365732,-83.0
2023-08-17 17:20:06.373421,-78.0
2023-08-17 17:20:06.381110,-76.0
2023-08-17 17:20:06.388799,-71.0
2023-08-17 17:20:06.396488,-74.0
2023-08-17 17:20:06.404177,-74.0
2023-08-17 17:20:06.411866,-71.0
2023-08-17 17:20:06.419555,-64.0
2023-08-17 17:20:06.427244,-59.0
2023-08-17 17:20:06.434933,-62.0
2023-08-17 17:20:06.442622,-66.0
2023-08-17 17:20:06.450311,-62.0
2023-08-17 17:20:06.458000,-57.0
2023-08-17 17:20:06.465688,-54.0
2023-08-17 17:20:06.473377,-52.0
2023-08-17 17:20:06.481066,-47.0
2023-08-17 17:20:06.488755,-47.0
2023-08-17 17:20:06.496444,-45.0
2023-08-17 17:20:06.504133,-42.0
2023-08-17 17:20:06.511822,-40.0
2023-08-17 17:20:06.519511,-40.0
2023-08-17 17:20:06.527200,-38.0
2023-08-17 17:20:06.534889,-35.0
2023-08-17 17:20:06.542578,-38.0
2023-08-17 17:20:06.550267,-42.0
2023-08-17 17:20:06.557956,-42.0
2023-08-17 17:20:06.565645,-33.0
2023-08-17 17:20:06.573333,-19.0
2023-08-17 17:20:06.581022,-7.0
2023-08-17 17:20:06.588711,-7.0
2023-08-17 17:20:06.596400,-14.0
2023-08-17 17:20:06.604089,-19.0
2023-08-17 17:20:06.611778,-31.0
2023-08-17 17:20:06.619467,-45.0
2023-08-17 17:20:06.627156,-47.0
2023-08-17 17:20:06.634845,-45.0
2023-08-17 17:20:06.642534,-50.0
2023-08-17 17:20:06.650223,-50.0
2023-08-17 17:20:06.657912,-47.0
2023-08-17 17:20:06.665601,-45.0
2023-08-17 17:20:06.673290,-40.0
2023-08-17 17:20:06.680978,-33.0
2023-08-17 17:20:06.688667,-35.0
2023-08-17 17:20:06.696356,11.0
2023-08-17 17:20:06.704045,226.0
2023-08-17 17:20:06.711734,527.0
2023-08-17 17:20:06.719423,585.0
2023-08-17 17:20:06.727112,241.0
2023-08-17 17:20:06.734801,-128.0
2023-08-17 17:20:06.742490,-152.0
2023-08-17 17:20:06.750179,-50.0
2023-08-17 17:20:06.757868,-78.0
2023-08-17 17:20:06.765557,-114.0
2023-08-17 17:20:06.773246,-85.0
2023-08-17 17:20:06.780934,-78.0
2023-08-17 17:20:06.788623,-88.0
2023-08-17 17:20:06.796312,-81.0
2023-08-17 17:20:06.804001,-71.0
2023-08-17 17:20:06.811690,-66.0
2023-08-17 17:20:06.819379,-62.0
2023-08-17 17:20:06.827068,-52.0
2023-08-17 17:20:06.834757,-42.0
2023-08-17 17:20:06.842446,-35.0
2023-08-17 17:20:06.850135,-28.0
2023-08-17 17:20:06.857824,-21.0
2023-08-17 17:20:06.865513,-7.0
2023-08-17 17:20:06.873202,7.0
2023-08-17 17:20:06.880891,19.0
2023-08-17 17:20:06.888579,38.0
2023-08-17 17:20:06.896268,64.0
2023-08-17 17:20:06.903957,90.0
2023-08-17 17:20:06.911646,117.0
2023-08-17 17:20:06.919335,136.0
2023-08-17 17:20:06.927024,145.0
2023-08-17 17:20:06.934713,152.0
2023-08-17 17:20:06.942402,148.0
2023-08-17 17:20:06.950091,126.0
2023-08-17 17:20:06.957780,85.0
2023-08-17 17:20:06.965469,35.0
2023-08-17 17:20:06.973158,-11.0
2023-08-17 17:20:06.980847,-52.0
2023-08-17 17:20:06.988536,-88.0
2023-08-17 17:20:06.996224,-114.0
2023-08-17 17:20:07.003913,-131.0
2023-08-17 17:20:07.011602,-133.0
2023-08-17 17:20:07.019291,-136.0
2023-08-17 17:20:07.026980,-138.0
2023-08-17 17:20:07.034669,-136.0
2023-08-17 17:20:07.042358,-128.0
2023-08-17 17:20:07.050047,-124.0
2023-08-17 17:20:07.057736,-121.0
2023-08-17 17:20:07.065425,-119.0
2023-08-17 17:20:07.073114,-117.0
2023-08-17 17:20:07.080803,-112.0
2023-08-17 17:20:07.088492,-109.0
2023-08-17 17:20:07.096181,-102.0
2023-08-17 17:20:07.103869,-100.0
2023-08-17 17:20:07.111558,-100.0
2023-08-17 17:20:07.119247,-97.0
2023-08-17 17:20:07.126936,-93.0
2023-08-17 17:20:07.134625,-93.0
2023-08-17 17:20:07.142314,-90.0
2023-08-17 17:20:07.150003,-88.0
2023-08-17 17:20:07.157692,-90.0
2023-08-17 17:20:07.165381,-90.0
2023-08-17 17:20:07.173070,-88.0
2023-08-17 17:20:07.180759,-90.0
2023-08-17 17:20:07.188448,-95.0
2023-08-17 17:20:07.196137,-95.0
2023-08-17 17:20:07.203825,-93.0
2023-08-17 17:20:07.211514,-93.0
2023-08-17 17:20:07.219203,-90.0
2023-08-17 17:20:07.226892,-85.0
2023-08-17 17:20:07.234581,-83.0
2023-08-17 17:20:07.242270,-81.0
2023-08-17 17:20:07.249959,-81.0
2023-08-17 17:20:07.257648,-81.0
2023-08-17 17:20:07.265337,-78.0
2023-08-17 17:20:07.273026,-76.0
2023-08-17 17:20:07.280715,-76.0
2023-08-17 17:20:07.288404,-78.0
2023-08-17 17:20:07.296093,-78.0
2023-08-17 17:20:07.303782,-81.0
2023-08-17 17:20:07.311470,-81.0
2023-08-17 17:20:07.319159,-76.0
2023-08-17 17:20:07.326848,-71.0
2023-08-17 17:20:07.334537,-71.0
2023-08-17 17:20:07.342226,-71.0
2023-08-17 17:20:07.349915,-71.0
2023-08-17 17:20:07.357604,-69.0
2023-08-17 17:20:07.365293,-64.0
2023-08-17 17:20:07.372982,-64.0
2023-08-17 17:20:07.380671,-66.0
2023-08-17 17:20:07.388360,-66.0
2023-08-17 17:20:07.396049,-66.0
2023-08-17 17:20:07.403738,-69.0
2023-08-17 17:20:07.411427,-66.0
2023-08-17 17:20:07.419115,-52.0
2023-08-17 17:20:07.426804,-38.0
2023-08-17 17:20:07.434493,-31.0
2023-08-17 17:20:07.442182,-31.0
2023-08-17 17:20:07.449871,-35.0
2023-08-17 17:20:07.457560,-40.0
2023-08-17 17:20:07.465249,-47.0
2023-08-17 17:20:07.472938,-57.0
2023-08-17 17:20:07.480627,-62.0
2023-08-17 17:20:07.488316,-59.0
2023-08-17 17:20:07.496005,-57.0
2023-08-17 17:20:07.503694,-59.0
2023-08-17 17:20:07.511383,-57.0
2023-08-17 17:20:07.519071,-52.0
2023-08-17 17:20:07.526760,-52.0
2023-08-17 17:20:07.534449,-50.0
2023-08-17 17:20:07.542138,-42.0
2023-08-17 17:20:07.549827,11.0
2023-08-17 17:20:07.557516,222.0
2023-08-17 17:20:07.565205,518.0
2023-08-17 17:20:07.572894,573.0
2023-08-17 17:20:07.580583,236.0
2023-08-17 17:20:07.588272,-133.0
2023-08-17 17:20:07.595961,-160.0
2023-08-17 17:20:07.603650,-52.0
2023-08-17 17:20:07.611339,-76.0
2023-08-17 17:20:07.619028,-109.0
2023-08-17 17:20:07.626716,-83.0
2023-08-17 17:20:07.634405,-76.0
2023-08-17 17:20:07.642094,-83.0
2023-08-17 17:20:07.649783,-69.0
2023-08-17 17:20:07.657472,-62.0
2023-08-17 17:20:07.665161,-62.0
2023-08-17 17:20:07.672850,-52.0
2023-08-17 17:20:07.680539,-42.0
2023-08-17 17:20:07.688228,-38.0
2023-08-17 17:20:07.695917,-31.0
2023-08-17 17:20:07.703606,-26.0
2023-08-17 17:20:07.711295,-14.0
2023-08-17 17:20:07.718984,-2.0
2023-08-17 17:20:07.726673,11.0
2023-08-17 17:20:07.734361,31.0
2023-08-17 17:20:07.742050,52.0
2023-08-17 17:20:07.749739,71.0
2023-08-17 17:20:07.757428,95.0
2023-08-17 17:20:07.765117,119.0
2023-08-17 17:20:07.772806,138.0
2023-08-17 17:20:07.780495,148.0
2023-08-17 17:20:07.788184,148.0
2023-08-17 17:20:07.795873,138.0
2023-08-17 17:20:07.803562,117.0
2023-08-17 17:20:07.811251,81.0
2023-08-17 17:20:07.818940,31.0
2023-08-17 17:20:07.826629,-16.0
2023-08-17 17:20:07.834317,-64.0
2023-08-17 17:20:07.842006,-100.0
2023-08-17 17:20:07.849695,-119.0
2023-08-17 17:20:07.857384,-128.0
2023-08-17 17:20:07.865073,-138.0
2023-08-17 17:20:07.872762,-145.0
2023-08-17 17:20:07.880451,-152.0
2023-08-17 17:20:07.888140,-157.0
2023-08-17 17:20:07.895829,-148.0
2023-08-17 17:20:07.903518,-143.0
2023-08-17 17:20:07.911207,-140.0
2023-08-17 17:20:07.918896,-138.0
2023-08-17 17:20:07.926585,-136.0
2023-08-17 17:20:07.934274,-131.0
2023-08-17 17:20:07.941962,-126.0
2023-08-17 17:20:07.949651,-119.0
2023-08-17 17:20:07.957340,-114.0
2023-08-17 17:20:07.965029,-114.0
2023-08-17 17:20:07.972718,-114.0
2023-08-17 17:20:07.980407,-109.0
2023-08-17 17:20:07.988096,-105.0
2023-08-17 17:20:07.995785,-105.0
2023-08-17 17:20:08.003474,-102.0
2023-08-17 17:20:08.011163,-97.0
2023-08-17 17:20:08.018852,-100.0
2023-08-17 17:20:08.026541,-100.0
2023-08-17 17:20:08.034230,-93.0
2023-08-17 17:20:08.041919,-90.0
2023-08-17 17:20:08.049607,-90.0
2023-08-17 17:20:08.057296,-88.0
2023-08-17 17:20:08.064985,-88.0
2023-08-17 17:20:08.072674,-88.0
2023-08-17 17:20:08.080363,-88.0
2023-08-17 17:20:08.088052,-85.0
2023-08-17 17:20:08.095741,-83.0
2023-08-17 17:20:08.103430,-85.0
2023-08-17 17:20:08.111119,-85.0
2023-08-17 17:20:08.118808,-83.0
2023-08-17 17:20:08.126497,-83.0
2023-08-17 17:20:08.134186,-88.0
2023-08-17 17:20:08.141875,-88.0
2023-08-17 17:20:08.149564,-83.0
2023-08-17 17:20:08.157252,-81.0
2023-08-17 17:20:08.164941,-81.0
2023-08-17 17:20:08.172630,-78.0
2023-08-17 17:20:08.180319,-76.0
2023-08-17 17:20:08.188008,-78.0
2023-08-17 17:20:08.195697,-81.0
2023-08-17 17:20:08.203386,-83.0
2023-08-17 17:20:08.211075,-88.0
2023-08-17 17:20:08.218764,-90.0
2023-08-17 17:20:08.226453,-88.0
2023-08-17 17:20:08.234142,-85.0
2023-08-17 17:20:08.241831,-85.0
2023-08-17 17:20:08.249520,-90.0
2023-08-17 17:20:08.257208,-93.0
2023-08-17 17:20:08.264897,-95.0
2023-08-17 17:20:08.272586,-88.0
2023-08-17 17:20:08.280275,-69.0
2023-08-17 17:20:08.287964,-62.0
2023-08-17 17:20:08.295653,-71.0
2023-08-17 17:20:08.303342,-78.0
2023-08-17 17:20:08.311031,-83.0
2023-08-17 17:20:08.318720,-95.0
2023-08-17 17:20:08.326409,-109.0
2023-08-17 17:20:08.334098,-112.0
2023-08-17 17:20:08.341787,-107.0
2023-08-17 17:20:08.349476,-112.0
2023-08-17 17:20:08.357165,-117.0
2023-08-17 17:20:08.364853,-121.0
2023-08-17 17:20:08.372542,-124.0
2023-08-17 17:20:08.380231,-121.0
2023-08-17 17:20:08.387920,-114.0
2023-08-17 17:20:08.395609,-109.0
2023-08-17 17:20:08.403298,-66.0
2023-08-17 17:20:08.410987,133.0
2023-08-17 17:20:08.418676,432.0
2023-08-17 17:20:08.426365,494.0
2023-08-17 17:20:08.434054,157.0
2023-08-17 17:20:08.441743,-219.0
2023-08-17 17:20:08.449432,-253.0
2023-08-17 17:20:08.457121,-148.0
2023-08-17 17:20:08.464810,-164.0
2023-08-17 17:20:08.472498,-193.0
2023-08-17 17:20:08.480187,-164.0
2023-08-17 17:20:08.487876,-160.0
2023-08-17 17:20:08.495565,-167.0
2023-08-17 17:20:08.503254,-157.0
2023-08-17 17:20:08.510943,-152.0
2023-08-17 17:20:08.518632,-150.0
2023-08-17 17:20:08.526321,-138.0
2023-08-17 17:20:08.534010,-128.0
2023-08-17 17:20:08.541699,-121.0
2023-08-17 17:20:08.549388,-107.0
2023-08-17 17:20:08.557077,-97.0
2023-08-17 17:20:08.564766,-83.0
2023-08-17 17:20:08.572454,-66.0
2023-08-17 17:20:08.580143,-50.0
2023-08-17 17:20:08.587832,-33.0
2023-08-17 17:20:08.595521,-4.0
2023-08-17 17:20:08.603210,21.0
2023-08-17 17:20:08.610899,42.0
2023-08-17 17:20:08.618588,64.0
2023-08-17 17:20:08.626277,85.0
2023-08-17 17:20:08.633966,97.0
2023-08-17 17:20:08.641655,102.0
2023-08-17 17:20:08.649344,97.0
2023-08-17 17:20:08.657033,78.0
2023-08-17 17:20:08.664722,40.0
2023-08-17 17:20:08.672411,-14.0
2023-08-17 17:20:08.680099,-66.0
2023-08-17 17:20:08.687788,-107.0
2023-08-17 17:20:08.695477,-138.0
2023-08-17 17:20:08.703166,-164.0
2023-08-17 17:20:08.710855,-186.0
2023-08-17 17:20:08.718544,-200.0
2023-08-17 17:20:08.726233,-203.0
2023-08-17 17:20:08.733922,-200.0
2023-08-17 17:20:08.741611,-200.0
2023-08-17 17:20:08.749300,-195.0
2023-08-17 17:20:08.756989,-188.0
2023-08-17 17:20:08.764678,-183.0
2023-08-17 17:20:08.772367,-183.0
2023-08-17 17:20:08.780056,-183.0
2023-08-17 17:20:08.787744,-176.0
2023-08-17 17:20:08.795433,-164.0
2023-08-17 17:20:08.803122,-162.0
2023-08-17 17:20:08.810811,-164.0
2023-08-17 17:20:08.818500,-152.0
2023-08-17 17:20:08.826189,-145.0
2023-08-17 17:20:08.833878,-150.0
2023-08-17 17:20:08.841567,-145.0
2023-08-17 17:20:08.849256,-140.0
2023-08-17 17:20:08.856945,-140.0
2023-08-17 17:20:08.864634,-138.0
2023-08-17 17:20:08.872323,-136.0
2023-08-17 17:20:08.880012,-133.0
2023-08-17 17:20:08.887701,-128.0
2023-08-17 17:20:08.895389,-126.0
2023-08-17 17:20:08.903078,-126.0
2023-08-17 17:20:08.910767,-128.0
2023-08-17 17:20:08.918456,-126.0
2023-08-17 17:20:08.926145,-121.0
2023-08-17 17:20:08.933834,-114.0
2023-08-17 17:20:08.941523,-112.0
2023-08-17 17:20:08.949212,-114.0
2023-08-17 17:20:08.956901,-119.0
2023-08-17 17:20:08.964590,-117.0
2023-08-17 17:20:08.972279,-114.0
2023-08-17 17:20:08.979968,-114.0
2023-08-17 17:20:08.987657,-112.0
2023-08-17 17:20:08.995345,-107.0
2023-08-17 17:20:09.003034,-109.0
2023-08-17 17:20:09.010723,-117.0
2023-08-17 17:20:09.018412,-112.0
2023-08-17 17:20:09.026101,-102.0
2023-08-17 17:20:09.033790,-102.0
2023-08-17 17:20:09.041479,-105.0
2023-08-17 17:20:09.049168,-102.0
2023-08-17 17:20:09.056857,-100.0
2023-08-17 17:20:09.064546,-97.0
2023-08-17 17:20:09.072235,-95.0
2023-08-17 17:20:09.079924,-95.0
2023-08-17 17:20:09.087613,-93.0
2023-08-17 17:20:09.095302,-78.0
2023-08-17 17:20:09.102990,-62.0
2023-08-17 17:20:09.110679,-59.0
2023-08-17 17:20:09.118368,-64.0
2023-08-17 17:20:09.126057,-69.0
2023-08-17 17:20:09.133746,-76.0
2023-08-17 17:20:09.141435,-88.0
2023-08-17 17:20:09.149124,-93.0
2023-08-17 17:20:09.156813,-88.0
2023-08-17 17:20:09.164502,-83.0
2023-08-17 17:20:09.172191,-83.0
2023-08-17 17:20:09.179880,-83.0
2023-08-17 17:20:09.187569,-83.0
2023-08-17 17:20:09.195258,-78.0
2023-08-17 17:20:09.202947,-69.0
2023-08-17 17:20:09.210635,-69.0
2023-08-17 17:20:09.218324,-62.0
2023-08-17 17:20:09.226013,52.0
2023-08-17 17:20:09.233702,336.0
2023-08-17 17:20:09.241391,566.0
2023-08-17 17:20:09.249080,413.0
2023-08-17 17:20:09.256769,-19.0
2023-08-17 17:20:09.264458,-231.0
2023-08-17 17:20:09.272147,-136.0
2023-08-17 17:20:09.279836,-81.0
2023-08-17 17:20:09.287525,-121.0
2023-08-17 17:20:09.295214,-112.0
2023-08-17 17:20:09.302903,-90.0
2023-08-17 17:20:09.310591,-97.0
2023-08-17 17:20:09.318280,-95.0
2023-08-17 17:20:09.325969,-81.0
2023-08-17 17:20:09.333658,-74.0
2023-08-17 17:20:09.341347,-69.0
2023-08-17 17:20:09.349036,-62.0
2023-08-17 17:20:09.356725,-57.0
2023-08-17 17:20:09.364414,-52.0
2023-08-17 17:20:09.372103,-38.0
2023-08-17 17:20:09.379792,-26.0
2023-08-17 17:20:09.387481,-14.0
2023-08-17 17:20:09.395170,2.0
2023-08-17 17:20:09.402859,21.0
2023-08-17 17:20:09.410548,40.0
2023-08-17 17:20:09.418236,66.0
2023-08-17 17:20:09.425925,90.0
2023-08-17 17:20:09.433614,114.0
2023-08-17 17:20:09.441303,136.0
2023-08-17 17:20:09.448992,155.0
2023-08-17 17:20:09.456681,162.0
2023-08-17 17:20:09.464370,160.0
2023-08-17 17:20:09.472059,150.0
2023-08-17 17:20:09.479748,119.0
2023-08-17 17:20:09.487437,69.0
2023-08-17 17:20:09.495126,16.0
2023-08-17 17:20:09.502815,-28.0
2023-08-17 17:20:09.510504,-64.0
2023-08-17 17:20:09.518193,-93.0
2023-08-17 17:20:09.525881,-114.0
2023-08-17 17:20:09.533570,-121.0
2023-08-17 17:20:09.541259,-124.0
2023-08-17 17:20:09.548948,-126.0
2023-08-17 17:20:09.556637,-128.0
2023-08-17 17:20:09.564326,-121.0
2023-08-17 17:20:09.572015,-117.0
2023-08-17 17:20:09.579704,-117.0
2023-08-17 17:20:09.587393,-114.0
2023-08-17 17:20:09.595082,-112.0
2023-08-17 17:20:09.602771,-112.0
2023-08-17 17:20:09.610460,-107.0
2023-08-17 17:20:09.618149,-105.0
2023-08-17 17:20:09.625838,-105.0
2023-08-17 17:20:09.633526,-109.0
2023-08-17 17:20:09.641215,-112.0
2023-08-17 17:20:09.648904,-112.0
2023-08-17 17:20:09.656593,-109.0
2023-08-17 17:20:09.664282,-109.0
2023-08-17 17:20:09.671971,-105.0
2023-08-17 17:20:09.679660,-102.0
2023-08-17 17:20:09.687349,-105.0
2023-08-17 17:20:09.695038,-105.0
2023-08-17 17:20:09.702727,-100.0
2023-08-17 17:20:09.710416,-97.0
2023-08-17 17:20:09.718105,-100.0
2023-08-17 17:20:09.725794,-105.0
2023-08-17 17:20:09.733482,-102.0
2023-08-17 17:20:09.741171,-97.0
2023-08-17 17:20:09.748860,-97.0
2023-08-17 17:20:09.756549,-97.0
2023-08-17 17:20:09.764238,-95.0
2023-08-17 17:20:09.771927,-93.0
2023-08-17 17:20:09.779616,-88.0
2023-08-17 17:20:09.787305,-83.0
2023-08-17 17:20:09.794994,-81.0
2023-08-17 17:20:09.802683,-81.0
2023-08-17 17:20:09.810372,-76.0
2023-08-17 17:20:09.818061,-76.0
2023-08-17 17:20:09.825750,-78.0
2023-08-17 17:20:09.833439,-76.0
2023-08-17 17:20:09.841127,-74.0
2023-08-17 17:20:09.848816,-74.0
2023-08-17 17:20:09.856505,-74.0
2023-08-17 17:20:09.864194,-74.0
2023-08-17 17:20:09.871883,-76.0
2023-08-17 17:20:09.879572,-76.0
2023-08-17 17:20:09.887261,-69.0
2023-08-17 17:20:09.894950,-69.0
2023-08-17 17:20:09.902639,-71.0
2023-08-17 17:20:09.910328,-71.0
2023-08-17 17:20:09.918017,-71.0
2023-08-17 17:20:09.925706,-69.0
2023-08-17 17:20:09.933395,-69.0
2023-08-17 17:20:09.941084,-69.0
2023-08-17 17:20:09.948772,-64.0
2023-08-17 17:20:09.956461,-54.0
2023-08-17 17:20:09.964150,-42.0
2023-08-17 17:20:09.971839,-31.0
2023-08-17 17:20:09.979528,-33.0
2023-08-17 17:20:09.987217,-45.0
2023-08-17 17:20:09.994906,-52.0
2023-08-17 17:20:10.002595,-62.0
2023-08-17 17:20:10.010284,-71.0
2023-08-17 17:20:10.017973,-69.0
2023-08-17 17:20:10.025662,-66.0
2023-08-17 17:20:10.033351,-66.0
2023-08-17 17:20:10.041040,-69.0
2023-08-17 17:20:10.048728,-66.0
2023-08-17 17:20:10.056417,-62.0
2023-08-17 17:20:10.064106,-57.0
2023-08-17 17:20:10.071795,-54.0
2023-08-17 17:20:10.079484,-50.0
2023-08-17 17:20:10.087173,14.0
2023-08-17 17:20:10.094862,241.0
2023-08-17 17:20:10.102551,535.0
2023-08-17 17:20:10.110240,551.0
2023-08-17 17:20:10.117929,176.0
2023-08-17 17:20:10.125618,-176.0
2023-08-17 17:20:10.133307,-174.0
2023-08-17 17:20:10.140996,-74.0
2023-08-17 17:20:10.148685,-102.0
2023-08-17 17:20:10.156373,-126.0
2023-08-17 17:20:10.164062,-100.0
2023-08-17 17:20:10.171751,-97.0
2023-08-17 17:20:10.179440,-105.0
2023-08-17 17:20:10.187129,-90.0
2023-08-17 17:20:10.194818,-78.0
2023-08-17 17:20:10.202507,-76.0
2023-08-17 17:20:10.210196,-69.0
2023-08-17 17:20:10.217885,-62.0
2023-08-17 17:20:10.225574,-59.0
2023-08-17 17:20:10.233263,-50.0
2023-08-17 17:20:10.240952,-40.0
2023-08-17 17:20:10.248641,-28.0
2023-08-17 17:20:10.256330,-14.0
2023-08-17 17:20:10.264018,2.0
2023-08-17 17:20:10.271707,23.0
2023-08-17 17:20:10.279396,42.0
2023-08-17 17:20:10.287085,69.0
2023-08-17 17:20:10.294774,97.0
2023-08-17 17:20:10.302463,121.0
2023-08-17 17:20:10.310152,138.0
2023-08-17 17:20:10.317841,145.0
2023-08-17 17:20:10.325530,148.0
2023-08-17 17:20:10.333219,143.0
2023-08-17 17:20:10.340908,117.0
2023-08-17 17:20:10.348597,76.0
2023-08-17 17:20:10.356286,28.0
2023-08-17 17:20:10.363975,-21.0
2023-08-17 17:20:10.371663,-64.0
2023-08-17 17:20:10.379352,-93.0
2023-08-17 17:20:10.387041,-109.0
2023-08-17 17:20:10.394730,-124.0
2023-08-17 17:20:10.402419,-133.0
2023-08-17 17:20:10.410108,-138.0
2023-08-17 17:20:10.417797,-138.0
2023-08-17 17:20:10.425486,-136.0
2023-08-17 17:20:10.433175,-133.0
2023-08-17 17:20:10.440864,-128.0
2023-08-17 17:20:10.448553,-124.0
2023-08-17 17:20:10.456242,-124.0
2023-08-17 17:20:10.463931,-121.0
2023-08-17 17:20:10.471619,-114.0
2023-08-17 17:20:10.479308,-112.0
2023-08-17 17:20:10.486997,-112.0
2023-08-17 17:20:10.494686,-112.0
2023-08-17 17:20:10.502375,-112.0
2023-08-17 17:20:10.510064,-109.0
2023-08-17 17:20:10.517753,-109.0
2023-08-17 17:20:10.525442,-105.0
2023-08-17 17:20:10.533131,-105.0
2023-08-17 17:20:10.540820,-105.0
2023-08-17 17:20:10.548509,-105.0
2023-08-17 17:20:10.556198,-102.0
2023-08-17 17:20:10.563887,-100.0
2023-08-17 17:20:10.571576,-100.0
2023-08-17 17:20:10.579264,-100.0
2023-08-17 17:20:10.586953,-102.0
2023-08-17 17:20:10.594642,-100.0
2023-08-17 17:20:10.602331,-97.0
2023-08-17 17:20:10.610020,-95.0
2023-08-17 17:20:10.617709,-93.0
2023-08-17 17:20:10.625398,-90.0
2023-08-17 17:20:10.633087,-93.0
2023-08-17 17:20:10.640776,-95.0
2023-08-17 17:20:10.648465,-90.0
2023-08-17 17:20:10.656154,-85.0
2023-08-17 17:20:10.663843,-85.0
2023-08-17 17:20:10.671532,-93.0
2023-08-17 17:20:10.679221,-95.0
2023-08-17 17:20:10.686909,-88.0
2023-08-17 17:20:10.694598,-83.0
2023-08-17 17:20:10.702287,-83.0
2023-08-17 17:20:10.709976,-83.0
2023-08-17 17:20:10.717665,-85.0
2023-08-17 17:20:10.725354,-90.0
2023-08-17 17:20:10.733043,-85.0
2023-08-17 17:20:10.740732,-78.0
2023-08-17 17:20:10.748421,-78.0
2023-08-17 17:20:10.756110,-83.0
2023-08-17 17:20:10.763799,-81.0
2023-08-17 17:20:10.771488,-76.0
2023-08-17 17:20:10.779177,-74.0
2023-08-17 17:20:10.786865,-71.0
2023-08-17 17:20:10.794554,-66.0
2023-08-17 17:20:10.802243,-69.0
2023-08-17 17:20:10.809932,-74.0
2023-08-17 17:20:10.817621,-69.0
2023-08-17 17:20:10.825310,-66.0
2023-08-17 17:20:10.832999,-71.0
2023-08-17 17:20:10.840688,-74.0
2023-08-17 17:20:10.848377,-74.0
2023-08-17 17:20:10.856066,-71.0
2023-08-17 17:20:10.863755,-59.0
2023-08-17 17:20:10.871444,-38.0
2023-08-17 17:20:10.879133,-28.0
2023-08-17 17:20:10.886822,-38.0
2023-08-17 17:20:10.894510,-47.0
2023-08-17 17:20:10.902199,-50.0
2023-08-17 17:20:10.909888,-59.0
2023-08-17 17:20:10.917577,-71.0
2023-08-17 17:20:10.925266,-66.0
2023-08-17 17:20:10.932955,-64.0
2023-08-17 17:20:10.940644,-69.0
2023-08-17 17:20:10.948333,-69.0
2023-08-17 17:20:10.956022,-62.0
2023-08-17 17:20:10.963711,-59.0
2023-08-17 17:20:10.971400,-62.0
2023-08-17 17:20:10.979089,-59.0
2023-08-17 17:20:10.986778,-50.0
2023-08-17 17:20:10.994467,16.0
2023-08-17 17:20:11.002155,238.0
2023-08-17 17:20:11.009844,525.0
2023-08-17 17:20:11.017533,549.0
2023-08-17 17:20:11.025222,188.0
2023-08-17 17:20:11.032911,-157.0
2023-08-17 17:20:11.040600,-155.0
2023-08-17 17:20:11.048289,-57.0
2023-08-17 17:20:11.055978,-88.0
2023-08-17 17:20:11.063667,-114.0
2023-08-17 17:20:11.071356,-88.0
2023-08-17 17:20:11.079045,-85.0
2023-08-17 17:20:11.086734,-93.0
2023-08-17 17:20:11.094423,-81.0
2023-08-17 17:20:11.102111,-69.0
2023-08-17 17:20:11.109800,-66.0
2023-08-17 17:20:11.117489,-62.0
2023-08-17 17:20:11.125178,-54.0
2023-08-17 17:20:11.132867,-47.0
2023-08-17 17:20:11.140556,-38.0
2023-08-17 17:20:11.148245,-26.0
2023-08-17 17:20:11.155934,-19.0
2023-08-17 17:20:11.163623,-7.0
2023-08-17 17:20:11.171312,9.0
2023-08-17 17:20:11.179001,31.0
2023-08-17 17:20:11.186690,57.0
2023-08-17 17:20:11.194379,83.0
2023-08-17 17:20:11.202068,102.0
2023-08-17 17:20:11.209756,114.0
2023-08-17 17:20:11.217445,128.0
2023-08-17 17:20:11.225134,140.0
2023-08-17 17:20:11.232823,140.0
2023-08-17 17:20:11.240512,131.0
2023-08-17 17:20:11.248201,112.0
2023-08-17 17:20:11.255890,69.0
2023-08-17 17:20:11.263579,19.0
2023-08-17 17:20:11.271268,-26.0
2023-08-17 17:20:11.278957,-66.0
2023-08-17 17:20:11.286646,-97.0
2023-08-17 17:20:11.294335,-124.0
2023-08-17 17:20:11.302024,-140.0
2023-08-17 17:20:11.309713,-148.0
2023-08-17 17:20:11.317401,-148.0
2023-08-17 17:20:11.325090,-150.0
2023-08-17 17:20:11.332779,-145.0
2023-08-17 17:20:11.340468,-145.0
2023-08-17 17:20:11.348157,-148.0
2023-08-17 17:20:11.355846,-148.0
2023-08-17 17:20:11.363535,-143.0
2023-08-17 17:20:11.371224,-138.0
2023-08-17 17:20:11.378913,-136.0
2023-08-17 17:20:11.386602,-133.0
2023-08-17 17:20:11.394291,-131.0
2023-08-17 17:20:11.401980,-126.0
2023-08-17 17:20:11.409669,-121.0
2023-08-17 17:20:11.417358,-124.0
2023-08-17 17:20:11.425046,-119.0
2023-08-17 17:20:11.432735,-114.0
2023-08-17 17:20:11.440424,-119.0
2023-08-17 17:20:11.448113,-117.0
2023-08-17 17:20:11.455802,-112.0
2023-08-17 17:20:11.463491,-114.0
2023-08-17 17:20:11.471180,-114.0
2023-08-17 17:20:11.478869,-107.0
2023-08-17 17:20:11.486558,-107.0
2023-08-17 17:20:11.494247,-109.0
2023-08-17 17:20:11.501936,-114.0
2023-08-17 17:20:11.509625,-114.0
2023-08-17 17:20:11.517314,-105.0
2023-08-17 17:20:11.525002,-105.0
2023-08-17 17:20:11.532691,-112.0
2023-08-17 17:20:11.540380,-112.0
2023-08-17 17:20:11.548069,-107.0
2023-08-17 17:20:11.555758,-107.0
2023-08-17 17:20:11.563447,-107.0
2023-08-17 17:20:11.571136,-107.0
2023-08-17 17:20:11.578825,-102.0
2023-08-17 17:20:11.586514,-97.0
2023-08-17 17:20:11.594203,-100.0
2023-08-17 17:20:11.601892,-105.0
2023-08-17 17:20:11.609581,-105.0
2023-08-17 17:20:11.617270,-107.0
2023-08-17 17:20:11.624959,-107.0
2023-08-17 17:20:11.632647,-105.0
2023-08-17 17:20:11.640336,-102.0
2023-08-17 17:20:11.648025,-100.0
2023-08-17 17:20:11.655714,-97.0
2023-08-17 17:20:11.663403,-95.0
2023-08-17 17:20:11.671092,-97.0
2023-08-17 17:20:11.678781,-95.0
2023-08-17 17:20:11.686470,-95.0
2023-08-17 17:20:11.694159,-93.0
2023-08-17 17:20:11.701848,-90.0
2023-08-17 17:20:11.709537,-88.0
2023-08-17 17:20:11.717226,-74.0
2023-08-17 17:20:11.724915,-59.0
2023-08-17 17:20:11.732604,-64.0
2023-08-17 17:20:11.740292,-76.0
2023-08-17 17:20:11.747981,-83.0
2023-08-17 17:20:11.755670,-95.0
2023-08-17 17:20:11.763359,-107.0
2023-08-17 17:20:11.771048,-102.0
2023-08-17 17:20:11.778737,-93.0
2023-08-17 17:20:11.786426,-95.0
2023-08-17 17:20:11.794115,-105.0
2023-08-17 17:20:11.801804,-112.0
2023-08-17 17:20:11.809493,-109.0
2023-08-17 17:20:11.817182,-109.0
2023-08-17 17:20:11.824871,-109.0
2023-08-17 17:20:11.832560,-102.0
2023-08-17 17:20:11.840248,-40.0
2023-08-17 17:20:11.847937,176.0
2023-08-17 17:20:11.855626,475.0
2023-08-17 17:20:11.863315,518.0
2023-08-17 17:20:11.871004,155.0
2023-08-17 17:20:11.878693,-212.0
2023-08-17 17:20:11.886382,-212.0
2023-08-17 17:20:11.894071,-105.0
2023-08-17 17:20:11.901760,-126.0
2023-08-17 17:20:11.909449,-140.0
2023-08-17 17:20:11.917138,-107.0
2023-08-17 17:20:11.924827,-107.0
2023-08-17 17:20:11.932516,-117.0
2023-08-17 17:20:11.940205,-102.0
2023-08-17 17:20:11.947893,-88.0
2023-08-17 17:20:11.955582,-85.0
2023-08-17 17:20:11.963271,-83.0
2023-08-17 17:20:11.970960,-71.0
2023-08-17 17:20:11.978649,-57.0
2023-08-17 17:20:11.986338,-50.0
2023-08-17 17:20:11.994027,-40.0
2023-08-17 17:20:12.001716,-26.0
2023-08-17 17:20:12.009405,-9.0
2023-08-17 17:20:12.017094,2.0
2023-08-17 17:20:12.024783,23.0
2023-08-17 17:20:12.032472,47.0
2023-08-17 17:20:12.040161,71.0
2023-08-17 17:20:12.047850,95.0
2023-08-17 17:20:12.055538,124.0
2023-08-17 17:20:12.063227,143.0
2023-08-17 17:20:12.070916,150.0
2023-08-17 17:20:12.078605,155.0
2023-08-17 17:20:12.086294,150.0
2023-08-17 17:20:12.093983,124.0
2023-08-17 17:20:12.101672,81.0
2023-08-17 17:20:12.109361,26.0
2023-08-17 17:20:12.117050,-23.0
2023-08-17 17:20:12.124739,-62.0
2023-08-17 17:20:12.132428,-105.0
2023-08-17 17:20:12.140117,-131.0
2023-08-17 17:20:12.147806,-138.0
2023-08-17 17:20:12.155495,-145.0
2023-08-17 17:20:12.163183,-148.0
2023-08-17 17:20:12.170872,-145.0
2023-08-17 17:20:12.178561,-143.0
2023-08-17 17:20:12.186250,-143.0
2023-08-17 17:20:12.193939,-140.0
2023-08-17 17:20:12.201628,-140.0
2023-08-17 17:20:12.209317,-138.0
2023-08-17 17:20:12.217006,-133.0
2023-08-17 17:20:12.224695,-128.0
2023-08-17 17:20:12.232384,-126.0
2023-08-17 17:20:12.240073,-126.0
2023-08-17 17:20:12.247762,-124.0
2023-08-17 17:20:12.255451,-121.0
2023-08-17 17:20:12.263139,-121.0
2023-08-17 17:20:12.270828,-119.0
2023-08-17 17:20:12.278517,-112.0
2023-08-17 17:20:12.286206,-107.0
2023-08-17 17:20:12.293895,-107.0
2023-08-17 17:20:12.301584,-107.0
2023-08-17 17:20:12.309273,-105.0
2023-08-17 17:20:12.316962,-102.0
2023-08-17 17:20:12.324651,-102.0
2023-08-17 17:20:12.332340,-107.0
2023-08-17 17:20:12.340029,-109.0
2023-08-17 17:20:12.347718,-107.0
2023-08-17 17:20:12.355407,-102.0
2023-08-17 17:20:12.363096,-100.0
2023-08-17 17:20:12.370784,-97.0
2023-08-17 17:20:12.378473,-97.0
2023-08-17 17:20:12.386162,-97.0
2023-08-17 17:20:12.393851,-93.0
2023-08-17 17:20:12.401540,-85.0
2023-08-17 17:20:12.409229,-78.0
2023-08-17 17:20:12.416918,-76.0
2023-08-17 17:20:12.424607,-78.0
2023-08-17 17:20:12.432296,-78.0
2023-08-17 17:20:12.439985,-71.0
