time,ECG
2023-08-09 18:09:40.779343,133.0
2023-08-09 18:09:40.787033,140.0
2023-08-09 18:09:40.794724,136.0
2023-08-09 18:09:40.802414,124.0
2023-08-09 18:09:40.810105,105.0
2023-08-09 18:09:40.817795,76.0
2023-08-09 18:09:40.825486,38.0
2023-08-09 18:09:40.833177,-4.0
2023-08-09 18:09:40.840867,-54.0
2023-08-09 18:09:40.848558,-95.0
2023-08-09 18:09:40.856248,-124.0
2023-08-09 18:09:40.863939,-150.0
2023-08-09 18:09:40.871629,-169.0
2023-08-09 18:09:40.879320,-181.0
2023-08-09 18:09:40.887010,-186.0
2023-08-09 18:09:40.894701,-188.0
2023-08-09 18:09:40.902391,-183.0
2023-08-09 18:09:40.910082,-176.0
2023-08-09 18:09:40.917773,-169.0
2023-08-09 18:09:40.925463,-164.0
2023-08-09 18:09:40.933154,-157.0
2023-08-09 18:09:40.940844,-150.0
2023-08-09 18:09:40.948535,-143.0
2023-08-09 18:09:40.956225,-138.0
2023-08-09 18:09:40.963916,-136.0
2023-08-09 18:09:40.971606,-138.0
2023-08-09 18:09:40.979297,-140.0
2023-08-09 18:09:40.986987,-136.0
2023-08-09 18:09:40.994678,-131.0
2023-08-09 18:09:41.002368,-131.0
2023-08-09 18:09:41.010059,-133.0
2023-08-09 18:09:41.017750,-133.0
2023-08-09 18:09:41.025440,-131.0
2023-08-09 18:09:41.033131,-133.0
2023-08-09 18:09:41.040821,-133.0
2023-08-09 18:09:41.048512,-136.0
2023-08-09 18:09:41.056202,-133.0
2023-08-09 18:09:41.063893,-133.0
2023-08-09 18:09:41.071583,-128.0
2023-08-09 18:09:41.079274,-124.0
2023-08-09 18:09:41.086964,-121.0
2023-08-09 18:09:41.094655,-119.0
2023-08-09 18:09:41.102346,-117.0
2023-08-09 18:09:41.110036,-117.0
2023-08-09 18:09:41.117727,-112.0
2023-08-09 18:09:41.125417,-109.0
2023-08-09 18:09:41.133108,-107.0
2023-08-09 18:09:41.140798,-105.0
2023-08-09 18:09:41.148489,-102.0
2023-08-09 18:09:41.156179,-100.0
2023-08-09 18:09:41.163870,-95.0
2023-08-09 18:09:41.171560,-93.0
2023-08-09 18:09:41.179251,-93.0
2023-08-09 18:09:41.186942,-90.0
2023-08-09 18:09:41.194632,-88.0
2023-08-09 18:09:41.202323,-85.0
2023-08-09 18:09:41.210013,-88.0
2023-08-09 18:09:41.217704,-85.0
2023-08-09 18:09:41.225394,-83.0
2023-08-09 18:09:41.233085,-81.0
2023-08-09 18:09:41.240775,-81.0
2023-08-09 18:09:41.248466,-83.0
2023-08-09 18:09:41.256156,-83.0
2023-08-09 18:09:41.263847,-85.0
2023-08-09 18:09:41.271537,-83.0
2023-08-09 18:09:41.279228,-78.0
2023-08-09 18:09:41.286919,-78.0
2023-08-09 18:09:41.294609,-78.0
2023-08-09 18:09:41.302300,-76.0
2023-08-09 18:09:41.309990,-74.0
2023-08-09 18:09:41.317681,-66.0
2023-08-09 18:09:41.325371,-54.0
2023-08-09 18:09:41.333062,-50.0
2023-08-09 18:09:41.340752,-42.0
2023-08-09 18:09:41.348443,-38.0
2023-08-09 18:09:41.356133,-50.0
2023-08-09 18:09:41.363824,-71.0
2023-08-09 18:09:41.371515,-85.0
2023-08-09 18:09:41.379205,-85.0
2023-08-09 18:09:41.386896,-85.0
2023-08-09 18:09:41.394586,-85.0
2023-08-09 18:09:41.402277,-85.0
2023-08-09 18:09:41.409967,-81.0
2023-08-09 18:09:41.417658,-81.0
2023-08-09 18:09:41.425348,-93.0
2023-08-09 18:09:41.433039,-42.0
2023-08-09 18:09:41.440729,241.0
2023-08-09 18:09:41.448420,773.0
2023-08-09 18:09:41.456111,1251.0
2023-08-09 18:09:41.463801,1311.0
2023-08-09 18:09:41.471492,890.0
2023-08-09 18:09:41.479182,286.0
2023-08-09 18:09:41.486873,-119.0
2023-08-09 18:09:41.494563,-188.0
2023-08-09 18:09:41.502254,-155.0
2023-08-09 18:09:41.509944,-212.0
2023-08-09 18:09:41.517635,-253.0
2023-08-09 18:09:41.525325,-224.0
2023-08-09 18:09:41.533016,-212.0
2023-08-09 18:09:41.540706,-222.0
2023-08-09 18:09:41.548397,-207.0
2023-08-09 18:09:41.556088,-186.0
2023-08-09 18:09:41.563778,-174.0
2023-08-09 18:09:41.571469,-160.0
2023-08-09 18:09:41.579159,-143.0
2023-08-09 18:09:41.586850,-131.0
2023-08-09 18:09:41.594540,-114.0
2023-08-09 18:09:41.602231,-95.0
2023-08-09 18:09:41.609921,-78.0
2023-08-09 18:09:41.617612,-57.0
2023-08-09 18:09:41.625302,-38.0
2023-08-09 18:09:41.632993,-19.0
2023-08-09 18:09:41.640684,0.0
2023-08-09 18:09:41.648374,23.0
2023-08-09 18:09:41.656065,47.0
2023-08-09 18:09:41.663755,74.0
2023-08-09 18:09:41.671446,95.0
2023-08-09 18:09:41.679136,109.0
2023-08-09 18:09:41.686827,121.0
2023-08-09 18:09:41.694517,128.0
2023-08-09 18:09:41.702208,124.0
2023-08-09 18:09:41.709898,114.0
2023-08-09 18:09:41.717589,93.0
2023-08-09 18:09:41.725280,62.0
2023-08-09 18:09:41.732970,21.0
2023-08-09 18:09:41.740661,-23.0
2023-08-09 18:09:41.748351,-71.0
2023-08-09 18:09:41.756042,-114.0
2023-08-09 18:09:41.763732,-145.0
2023-08-09 18:09:41.771423,-167.0
2023-08-09 18:09:41.779113,-183.0
2023-08-09 18:09:41.786804,-193.0
2023-08-09 18:09:41.794494,-193.0
2023-08-09 18:09:41.802185,-191.0
2023-08-09 18:09:41.809875,-191.0
2023-08-09 18:09:41.817566,-183.0
2023-08-09 18:09:41.825257,-176.0
2023-08-09 18:09:41.832947,-171.0
2023-08-09 18:09:41.840638,-164.0
2023-08-09 18:09:41.848328,-155.0
2023-08-09 18:09:41.856019,-150.0
2023-08-09 18:09:41.863709,-148.0
2023-08-09 18:09:41.871400,-143.0
2023-08-09 18:09:41.879090,-138.0
2023-08-09 18:09:41.886781,-136.0
2023-08-09 18:09:41.894471,-136.0
2023-08-09 18:09:41.902162,-136.0
2023-08-09 18:09:41.909853,-133.0
2023-08-09 18:09:41.917543,-128.0
2023-08-09 18:09:41.925234,-128.0
2023-08-09 18:09:41.932924,-124.0
2023-08-09 18:09:41.940615,-121.0
2023-08-09 18:09:41.948305,-124.0
2023-08-09 18:09:41.955996,-121.0
2023-08-09 18:09:41.963686,-119.0
2023-08-09 18:09:41.971377,-119.0
2023-08-09 18:09:41.979067,-117.0
2023-08-09 18:09:41.986758,-114.0
2023-08-09 18:09:41.994449,-114.0
2023-08-09 18:09:42.002139,-114.0
2023-08-09 18:09:42.009830,-114.0
2023-08-09 18:09:42.017520,-109.0
2023-08-09 18:09:42.025211,-107.0
2023-08-09 18:09:42.032901,-105.0
2023-08-09 18:09:42.040592,-105.0
2023-08-09 18:09:42.048282,-107.0
2023-08-09 18:09:42.055973,-107.0
2023-08-09 18:09:42.063663,-105.0
2023-08-09 18:09:42.071354,-100.0
2023-08-09 18:09:42.079045,-97.0
2023-08-09 18:09:42.086735,-97.0
2023-08-09 18:09:42.094426,-102.0
2023-08-09 18:09:42.102116,-107.0
2023-08-09 18:09:42.109807,-102.0
2023-08-09 18:09:42.117497,-93.0
2023-08-09 18:09:42.125188,-93.0
2023-08-09 18:09:42.132878,-93.0
2023-08-09 18:09:42.140569,-90.0
2023-08-09 18:09:42.148259,-93.0
2023-08-09 18:09:42.155950,-88.0
2023-08-09 18:09:42.163640,-83.0
2023-08-09 18:09:42.171331,-83.0
2023-08-09 18:09:42.179022,-83.0
2023-08-09 18:09:42.186712,-81.0
2023-08-09 18:09:42.194403,-78.0
2023-08-09 18:09:42.202093,-78.0
2023-08-09 18:09:42.209784,-81.0
2023-08-09 18:09:42.217474,-81.0
2023-08-09 18:09:42.225165,-76.0
2023-08-09 18:09:42.232855,-76.0
2023-08-09 18:09:42.240546,-76.0
2023-08-09 18:09:42.248236,-71.0
2023-08-09 18:09:42.255927,-59.0
2023-08-09 18:09:42.263618,-45.0
2023-08-09 18:09:42.271308,-42.0
2023-08-09 18:09:42.278999,-35.0
2023-08-09 18:09:42.286689,-33.0
2023-08-09 18:09:42.294380,-54.0
2023-08-09 18:09:42.302070,-78.0
2023-08-09 18:09:42.309761,-83.0
2023-08-09 18:09:42.317451,-85.0
2023-08-09 18:09:42.325142,-90.0
2023-08-09 18:09:42.332832,-88.0
2023-08-09 18:09:42.340523,-85.0
2023-08-09 18:09:42.348214,-83.0
2023-08-09 18:09:42.355904,-85.0
2023-08-09 18:09:42.363595,-85.0
2023-08-09 18:09:42.371285,50.0
2023-08-09 18:09:42.378976,463.0
2023-08-09 18:09:42.386666,1010.0
2023-08-09 18:09:42.394357,1311.0
2023-08-09 18:09:42.402047,1115.0
2023-08-09 18:09:42.409738,563.0
2023-08-09 18:09:42.417428,38.0
2023-08-09 18:09:42.425119,-186.0
2023-08-09 18:09:42.432809,-167.0
2023-08-09 18:09:42.440500,-164.0
2023-08-09 18:09:42.448191,-222.0
2023-08-09 18:09:42.455881,-222.0
2023-08-09 18:09:42.463572,-203.0
2023-08-09 18:09:42.471262,-205.0
2023-08-09 18:09:42.478953,-195.0
2023-08-09 18:09:42.486643,-176.0
2023-08-09 18:09:42.494334,-169.0
2023-08-09 18:09:42.502024,-155.0
2023-08-09 18:09:42.509715,-140.0
2023-08-09 18:09:42.517405,-126.0
2023-08-09 18:09:42.525096,-109.0
2023-08-09 18:09:42.532787,-93.0
2023-08-09 18:09:42.540477,-76.0
2023-08-09 18:09:42.548168,-59.0
2023-08-09 18:09:42.555858,-45.0
2023-08-09 18:09:42.563549,-31.0
2023-08-09 18:09:42.571239,-7.0
2023-08-09 18:09:42.578930,16.0
2023-08-09 18:09:42.586620,35.0
2023-08-09 18:09:42.594311,57.0
2023-08-09 18:09:42.602001,81.0
2023-08-09 18:09:42.609692,97.0
2023-08-09 18:09:42.617383,114.0
2023-08-09 18:09:42.625073,124.0
2023-08-09 18:09:42.632764,121.0
2023-08-09 18:09:42.640454,107.0
2023-08-09 18:09:42.648145,90.0
2023-08-09 18:09:42.655835,71.0
2023-08-09 18:09:42.663526,42.0
2023-08-09 18:09:42.671216,0.0
2023-08-09 18:09:42.678907,-40.0
2023-08-09 18:09:42.686597,-81.0
2023-08-09 18:09:42.694288,-119.0
2023-08-09 18:09:42.701978,-145.0
2023-08-09 18:09:42.709669,-164.0
2023-08-09 18:09:42.717360,-174.0
2023-08-09 18:09:42.725050,-179.0
2023-08-09 18:09:42.732741,-181.0
2023-08-09 18:09:42.740431,-183.0
2023-08-09 18:09:42.748122,-181.0
2023-08-09 18:09:42.755812,-171.0
2023-08-09 18:09:42.763503,-162.0
2023-08-09 18:09:42.771193,-160.0
2023-08-09 18:09:42.778884,-155.0
2023-08-09 18:09:42.786574,-148.0
2023-08-09 18:09:42.794265,-143.0
2023-08-09 18:09:42.801956,-138.0
2023-08-09 18:09:42.809646,-136.0
2023-08-09 18:09:42.817337,-133.0
2023-08-09 18:09:42.825027,-133.0
2023-08-09 18:09:42.832718,-126.0
2023-08-09 18:09:42.840408,-121.0
2023-08-09 18:09:42.848099,-124.0
2023-08-09 18:09:42.855789,-124.0
2023-08-09 18:09:42.863480,-121.0
2023-08-09 18:09:42.871170,-119.0
2023-08-09 18:09:42.878861,-119.0
2023-08-09 18:09:42.886552,-119.0
2023-08-09 18:09:42.894242,-117.0
2023-08-09 18:09:42.901933,-112.0
2023-08-09 18:09:42.909623,-114.0
2023-08-09 18:09:42.917314,-117.0
2023-08-09 18:09:42.925004,-112.0
2023-08-09 18:09:42.932695,-105.0
2023-08-09 18:09:42.940385,-105.0
2023-08-09 18:09:42.948076,-105.0
2023-08-09 18:09:42.955766,-102.0
2023-08-09 18:09:42.963457,-102.0
2023-08-09 18:09:42.971148,-102.0
2023-08-09 18:09:42.978838,-97.0
2023-08-09 18:09:42.986529,-100.0
2023-08-09 18:09:42.994219,-105.0
2023-08-09 18:09:43.001910,-105.0
2023-08-09 18:09:43.009600,-100.0
2023-08-09 18:09:43.017291,-97.0
2023-08-09 18:09:43.024981,-93.0
2023-08-09 18:09:43.032672,-88.0
2023-08-09 18:09:43.040362,-90.0
2023-08-09 18:09:43.048053,-93.0
2023-08-09 18:09:43.055743,-90.0
2023-08-09 18:09:43.063434,-90.0
2023-08-09 18:09:43.071125,-90.0
2023-08-09 18:09:43.078815,-88.0
2023-08-09 18:09:43.086506,-90.0
2023-08-09 18:09:43.094196,-90.0
2023-08-09 18:09:43.101887,-88.0
2023-08-09 18:09:43.109577,-85.0
2023-08-09 18:09:43.117268,-83.0
2023-08-09 18:09:43.124958,-78.0
2023-08-09 18:09:43.132649,-76.0
2023-08-09 18:09:43.140339,-76.0
2023-08-09 18:09:43.148030,-76.0
2023-08-09 18:09:43.155721,-74.0
2023-08-09 18:09:43.163411,-66.0
2023-08-09 18:09:43.171102,-66.0
2023-08-09 18:09:43.178792,-74.0
2023-08-09 18:09:43.186483,-64.0
2023-08-09 18:09:43.194173,-50.0
2023-08-09 18:09:43.201864,-45.0
2023-08-09 18:09:43.209554,-38.0
2023-08-09 18:09:43.217245,-42.0
2023-08-09 18:09:43.224935,-71.0
2023-08-09 18:09:43.232626,-93.0
2023-08-09 18:09:43.240317,-93.0
2023-08-09 18:09:43.248007,-88.0
2023-08-09 18:09:43.255698,-88.0
2023-08-09 18:09:43.263388,-88.0
2023-08-09 18:09:43.271079,-85.0
2023-08-09 18:09:43.278769,-83.0
2023-08-09 18:09:43.286460,-90.0
2023-08-09 18:09:43.294150,-62.0
2023-08-09 18:09:43.301841,152.0
2023-08-09 18:09:43.309531,652.0
2023-08-09 18:09:43.317222,1191.0
2023-08-09 18:09:43.324912,1330.0
2023-08-09 18:09:43.332603,914.0
2023-08-09 18:09:43.340294,293.0
2023-08-09 18:09:43.347984,-102.0
2023-08-09 18:09:43.355675,-186.0
2023-08-09 18:09:43.363365,-174.0
2023-08-09 18:09:43.371056,-212.0
2023-08-09 18:09:43.378746,-238.0
2023-08-09 18:09:43.386437,-222.0
2023-08-09 18:09:43.394127,-219.0
2023-08-09 18:09:43.401818,-222.0
2023-08-09 18:09:43.409508,-205.0
2023-08-09 18:09:43.417199,-186.0
2023-08-09 18:09:43.424890,-176.0
2023-08-09 18:09:43.432580,-162.0
2023-08-09 18:09:43.440271,-140.0
2023-08-09 18:09:43.447961,-124.0
2023-08-09 18:09:43.455652,-117.0
2023-08-09 18:09:43.463342,-102.0
2023-08-09 18:09:43.471033,-83.0
2023-08-09 18:09:43.478723,-66.0
2023-08-09 18:09:43.486414,-47.0
2023-08-09 18:09:43.494104,-26.0
2023-08-09 18:09:43.501795,-9.0
2023-08-09 18:09:43.509486,11.0
2023-08-09 18:09:43.517176,33.0
2023-08-09 18:09:43.524867,54.0
2023-08-09 18:09:43.532557,76.0
2023-08-09 18:09:43.540248,95.0
2023-08-09 18:09:43.547938,107.0
2023-08-09 18:09:43.555629,114.0
2023-08-09 18:09:43.563319,109.0
2023-08-09 18:09:43.571010,93.0
2023-08-09 18:09:43.578700,74.0
2023-08-09 18:09:43.586391,47.0
2023-08-09 18:09:43.594081,9.0
2023-08-09 18:09:43.601772,-33.0
2023-08-09 18:09:43.609463,-81.0
2023-08-09 18:09:43.617153,-121.0
2023-08-09 18:09:43.624844,-152.0
2023-08-09 18:09:43.632534,-174.0
2023-08-09 18:09:43.640225,-193.0
2023-08-09 18:09:43.647915,-200.0
2023-08-09 18:09:43.655606,-207.0
2023-08-09 18:09:43.663296,-212.0
2023-08-09 18:09:43.670987,-207.0
2023-08-09 18:09:43.678677,-200.0
2023-08-09 18:09:43.686368,-195.0
2023-08-09 18:09:43.694059,-186.0
2023-08-09 18:09:43.701749,-181.0
2023-08-09 18:09:43.709440,-174.0
2023-08-09 18:09:43.717130,-164.0
2023-08-09 18:09:43.724821,-162.0
2023-08-09 18:09:43.732511,-157.0
2023-08-09 18:09:43.740202,-152.0
2023-08-09 18:09:43.747892,-150.0
2023-08-09 18:09:43.755583,-150.0
2023-08-09 18:09:43.763273,-157.0
2023-08-09 18:09:43.770964,-162.0
2023-08-09 18:09:43.778655,-157.0
2023-08-09 18:09:43.786345,-152.0
2023-08-09 18:09:43.794036,-152.0
2023-08-09 18:09:43.801726,-155.0
2023-08-09 18:09:43.809417,-150.0
2023-08-09 18:09:43.817107,-148.0
2023-08-09 18:09:43.824798,-145.0
2023-08-09 18:09:43.832488,-143.0
2023-08-09 18:09:43.840179,-140.0
2023-08-09 18:09:43.847869,-138.0
2023-08-09 18:09:43.855560,-138.0
2023-08-09 18:09:43.863250,-136.0
2023-08-09 18:09:43.870941,-131.0
2023-08-09 18:09:43.878632,-126.0
2023-08-09 18:09:43.886322,-124.0
2023-08-09 18:09:43.894013,-124.0
2023-08-09 18:09:43.901703,-124.0
2023-08-09 18:09:43.909394,-119.0
2023-08-09 18:09:43.917084,-114.0
2023-08-09 18:09:43.924775,-109.0
2023-08-09 18:09:43.932465,-107.0
2023-08-09 18:09:43.940156,-107.0
2023-08-09 18:09:43.947846,-105.0
2023-08-09 18:09:43.955537,-102.0
2023-08-09 18:09:43.963228,-100.0
2023-08-09 18:09:43.970918,-102.0
2023-08-09 18:09:43.978609,-102.0
2023-08-09 18:09:43.986299,-102.0
2023-08-09 18:09:43.993990,-100.0
2023-08-09 18:09:44.001680,-93.0
2023-08-09 18:09:44.009371,-90.0
2023-08-09 18:09:44.017061,-88.0
2023-08-09 18:09:44.024752,-88.0
2023-08-09 18:09:44.032442,-88.0
2023-08-09 18:09:44.040133,-88.0
2023-08-09 18:09:44.047824,-85.0
2023-08-09 18:09:44.055514,-81.0
2023-08-09 18:09:44.063205,-81.0
2023-08-09 18:09:44.070895,-85.0
2023-08-09 18:09:44.078586,-83.0
2023-08-09 18:09:44.086276,-66.0
2023-08-09 18:09:44.093967,-52.0
2023-08-09 18:09:44.101657,-45.0
2023-08-09 18:09:44.109348,-38.0
2023-08-09 18:09:44.117038,-40.0
2023-08-09 18:09:44.124729,-64.0
2023-08-09 18:09:44.132420,-81.0
2023-08-09 18:09:44.140110,-81.0
2023-08-09 18:09:44.147801,-83.0
2023-08-09 18:09:44.155491,-83.0
2023-08-09 18:09:44.163182,-78.0
2023-08-09 18:09:44.170872,-83.0
2023-08-09 18:09:44.178563,-83.0
2023-08-09 18:09:44.186253,-88.0
2023-08-09 18:09:44.193944,-81.0
2023-08-09 18:09:44.201634,97.0
2023-08-09 18:09:44.209325,566.0
2023-08-09 18:09:44.217015,1124.0
2023-08-09 18:09:44.224706,1359.0
2023-08-09 18:09:44.232397,1067.0
2023-08-09 18:09:44.240087,472.0
2023-08-09 18:09:44.247778,-21.0
2023-08-09 18:09:44.255468,-198.0
2023-08-09 18:09:44.263159,-171.0
2023-08-09 18:09:44.270849,-186.0
2023-08-09 18:09:44.278540,-241.0
2023-08-09 18:09:44.286230,-231.0
2023-08-09 18:09:44.293921,-214.0
2023-08-09 18:09:44.301611,-219.0
2023-08-09 18:09:44.309302,-210.0
2023-08-09 18:09:44.316993,-191.0
2023-08-09 18:09:44.324683,-174.0
2023-08-09 18:09:44.332374,-160.0
2023-08-09 18:09:44.340064,-145.0
2023-08-09 18:09:44.347755,-138.0
2023-08-09 18:09:44.355445,-128.0
2023-08-09 18:09:44.363136,-109.0
2023-08-09 18:09:44.370826,-90.0
2023-08-09 18:09:44.378517,-74.0
2023-08-09 18:09:44.386207,-54.0
2023-08-09 18:09:44.393898,-35.0
2023-08-09 18:09:44.401589,-14.0
2023-08-09 18:09:44.409279,9.0
2023-08-09 18:09:44.416970,33.0
2023-08-09 18:09:44.424660,57.0
2023-08-09 18:09:44.432351,78.0
2023-08-09 18:09:44.440041,95.0
2023-08-09 18:09:44.447732,107.0
2023-08-09 18:09:44.455422,112.0
2023-08-09 18:09:44.463113,109.0
2023-08-09 18:09:44.470803,100.0
2023-08-09 18:09:44.478494,83.0
2023-08-09 18:09:44.486184,54.0
2023-08-09 18:09:44.493875,14.0
2023-08-09 18:09:44.501566,-28.0
2023-08-09 18:09:44.509256,-74.0
2023-08-09 18:09:44.516947,-117.0
2023-08-09 18:09:44.524637,-150.0
2023-08-09 18:09:44.532328,-171.0
2023-08-09 18:09:44.540018,-191.0
2023-08-09 18:09:44.547709,-200.0
2023-08-09 18:09:44.555399,-200.0
2023-08-09 18:09:44.563090,-203.0
2023-08-09 18:09:44.570780,-207.0
2023-08-09 18:09:44.578471,-203.0
2023-08-09 18:09:44.586162,-193.0
2023-08-09 18:09:44.593852,-183.0
2023-08-09 18:09:44.601543,-176.0
2023-08-09 18:09:44.609233,-169.0
2023-08-09 18:09:44.616924,-162.0
2023-08-09 18:09:44.624614,-162.0
2023-08-09 18:09:44.632305,-160.0
2023-08-09 18:09:44.639995,-152.0
2023-08-09 18:09:44.647686,-148.0
2023-08-09 18:09:44.655376,-143.0
2023-08-09 18:09:44.663067,-140.0
2023-08-09 18:09:44.670758,-140.0
2023-08-09 18:09:44.678448,-138.0
2023-08-09 18:09:44.686139,-136.0
2023-08-09 18:09:44.693829,-133.0
2023-08-09 18:09:44.701520,-133.0
2023-08-09 18:09:44.709210,-133.0
2023-08-09 18:09:44.716901,-131.0
2023-08-09 18:09:44.724591,-131.0
2023-08-09 18:09:44.732282,-126.0
2023-08-09 18:09:44.739972,-124.0
2023-08-09 18:09:44.747663,-121.0
2023-08-09 18:09:44.755353,-121.0
2023-08-09 18:09:44.763044,-117.0
2023-08-09 18:09:44.770735,-117.0
2023-08-09 18:09:44.778425,-117.0
2023-08-09 18:09:44.786116,-112.0
2023-08-09 18:09:44.793806,-107.0
2023-08-09 18:09:44.801497,-107.0
2023-08-09 18:09:44.809187,-107.0
2023-08-09 18:09:44.816878,-107.0
2023-08-09 18:09:44.824568,-105.0
2023-08-09 18:09:44.832259,-100.0
2023-08-09 18:09:44.839949,-95.0
2023-08-09 18:09:44.847640,-93.0
2023-08-09 18:09:44.855331,-95.0
2023-08-09 18:09:44.863021,-95.0
2023-08-09 18:09:44.870712,-93.0
2023-08-09 18:09:44.878402,-95.0
2023-08-09 18:09:44.886093,-97.0
2023-08-09 18:09:44.893783,-100.0
2023-08-09 18:09:44.901474,-97.0
2023-08-09 18:09:44.909164,-93.0
2023-08-09 18:09:44.916855,-90.0
2023-08-09 18:09:44.924545,-90.0
2023-08-09 18:09:44.932236,-90.0
2023-08-09 18:09:44.939927,-90.0
2023-08-09 18:09:44.947617,-93.0
2023-08-09 18:09:44.955308,-93.0
2023-08-09 18:09:44.962998,-88.0
2023-08-09 18:09:44.970689,-83.0
2023-08-09 18:09:44.978379,-81.0
2023-08-09 18:09:44.986070,-83.0
2023-08-09 18:09:44.993760,-78.0
2023-08-09 18:09:45.001451,-74.0
2023-08-09 18:09:45.009141,-74.0
2023-08-09 18:09:45.016832,-69.0
2023-08-09 18:09:45.024522,-64.0
2023-08-09 18:09:45.032213,-52.0
2023-08-09 18:09:45.039904,-38.0
2023-08-09 18:09:45.047594,-31.0
2023-08-09 18:09:45.055285,-23.0
2023-08-09 18:09:45.062975,-31.0
2023-08-09 18:09:45.070666,-57.0
2023-08-09 18:09:45.078356,-81.0
2023-08-09 18:09:45.086047,-85.0
2023-08-09 18:09:45.093737,-85.0
2023-08-09 18:09:45.101428,-85.0
2023-08-09 18:09:45.109118,-85.0
2023-08-09 18:09:45.116809,-85.0
2023-08-09 18:09:45.124500,-81.0
2023-08-09 18:09:45.132190,-88.0
2023-08-09 18:09:45.139881,-59.0
2023-08-09 18:09:45.147571,167.0
2023-08-09 18:09:45.155262,664.0
2023-08-09 18:09:45.162952,1172.0
2023-08-09 18:09:45.170643,1311.0
2023-08-09 18:09:45.178333,950.0
2023-08-09 18:09:45.186024,351.0
2023-08-09 18:09:45.193714,-93.0
2023-08-09 18:09:45.201405,-207.0
2023-08-09 18:09:45.209096,-171.0
2023-08-09 18:09:45.216786,-205.0
2023-08-09 18:09:45.224477,-250.0
2023-08-09 18:09:45.232167,-234.0
2023-08-09 18:09:45.239858,-219.0
2023-08-09 18:09:45.247548,-219.0
2023-08-09 18:09:45.255239,-203.0
2023-08-09 18:09:45.262929,-183.0
2023-08-09 18:09:45.270620,-176.0
2023-08-09 18:09:45.278310,-162.0
2023-08-09 18:09:45.286001,-145.0
2023-08-09 18:09:45.293692,-131.0
2023-08-09 18:09:45.301382,-117.0
2023-08-09 18:09:45.309073,-100.0
2023-08-09 18:09:45.316763,-81.0
2023-08-09 18:09:45.324454,-64.0
2023-08-09 18:09:45.332144,-45.0
2023-08-09 18:09:45.339835,-26.0
2023-08-09 18:09:45.347525,-9.0
2023-08-09 18:09:45.355216,11.0
2023-08-09 18:09:45.362906,33.0
2023-08-09 18:09:45.370597,54.0
2023-08-09 18:09:45.378287,78.0
2023-08-09 18:09:45.385978,93.0
2023-08-09 18:09:45.393669,105.0
2023-08-09 18:09:45.401359,114.0
2023-08-09 18:09:45.409050,114.0
2023-08-09 18:09:45.416740,102.0
2023-08-09 18:09:45.424431,81.0
2023-08-09 18:09:45.432121,47.0
2023-08-09 18:09:45.439812,9.0
2023-08-09 18:09:45.447502,-33.0
2023-08-09 18:09:45.455193,-78.0
2023-08-09 18:09:45.462883,-121.0
2023-08-09 18:09:45.470574,-152.0
2023-08-09 18:09:45.478265,-174.0
2023-08-09 18:09:45.485955,-188.0
2023-08-09 18:09:45.493646,-198.0
2023-08-09 18:09:45.501336,-203.0
2023-08-09 18:09:45.509027,-200.0
2023-08-09 18:09:45.516717,-198.0
2023-08-09 18:09:45.524408,-191.0
2023-08-09 18:09:45.532098,-186.0
2023-08-09 18:09:45.539789,-174.0
2023-08-09 18:09:45.547479,-169.0
2023-08-09 18:09:45.555170,-167.0
2023-08-09 18:09:45.562861,-162.0
2023-08-09 18:09:45.570551,-157.0
2023-08-09 18:09:45.578242,-157.0
2023-08-09 18:09:45.585932,-157.0
2023-08-09 18:09:45.593623,-152.0
2023-08-09 18:09:45.601313,-150.0
2023-08-09 18:09:45.609004,-150.0
2023-08-09 18:09:45.616694,-145.0
2023-08-09 18:09:45.624385,-138.0
2023-08-09 18:09:45.632075,-138.0
2023-08-09 18:09:45.639766,-140.0
2023-08-09 18:09:45.647456,-138.0
2023-08-09 18:09:45.655147,-138.0
2023-08-09 18:09:45.662838,-136.0
2023-08-09 18:09:45.670528,-131.0
2023-08-09 18:09:45.678219,-128.0
2023-08-09 18:09:45.685909,-131.0
2023-08-09 18:09:45.693600,-133.0
2023-08-09 18:09:45.701290,-131.0
2023-08-09 18:09:45.708981,-126.0
2023-08-09 18:09:45.716671,-124.0
2023-08-09 18:09:45.724362,-121.0
2023-08-09 18:09:45.732052,-119.0
2023-08-09 18:09:45.739743,-114.0
2023-08-09 18:09:45.747434,-114.0
2023-08-09 18:09:45.755124,-114.0
2023-08-09 18:09:45.762815,-112.0
2023-08-09 18:09:45.770505,-107.0
2023-08-09 18:09:45.778196,-102.0
2023-08-09 18:09:45.785886,-102.0
2023-08-09 18:09:45.793577,-100.0
2023-08-09 18:09:45.801267,-95.0
2023-08-09 18:09:45.808958,-93.0
2023-08-09 18:09:45.816648,-93.0
2023-08-09 18:09:45.824339,-93.0
2023-08-09 18:09:45.832030,-93.0
2023-08-09 18:09:45.839720,-90.0
2023-08-09 18:09:45.847411,-88.0
2023-08-09 18:09:45.855101,-85.0
2023-08-09 18:09:45.862792,-85.0
2023-08-09 18:09:45.870482,-83.0
2023-08-09 18:09:45.878173,-85.0
2023-08-09 18:09:45.885863,-83.0
2023-08-09 18:09:45.893554,-81.0
2023-08-09 18:09:45.901244,-81.0
2023-08-09 18:09:45.908935,-78.0
2023-08-09 18:09:45.916625,-76.0
2023-08-09 18:09:45.924316,-76.0
2023-08-09 18:09:45.932007,-78.0
2023-08-09 18:09:45.939697,-78.0
2023-08-09 18:09:45.947388,-76.0
2023-08-09 18:09:45.955078,-74.0
2023-08-09 18:09:45.962769,-78.0
2023-08-09 18:09:45.970459,-85.0
2023-08-09 18:09:45.978150,-85.0
2023-08-09 18:09:45.985840,-81.0
2023-08-09 18:09:45.993531,-76.0
2023-08-09 18:09:46.001221,-71.0
2023-08-09 18:09:46.008912,-66.0
2023-08-09 18:09:46.016603,-62.0
2023-08-09 18:09:46.024293,-59.0
2023-08-09 18:09:46.031984,-47.0
2023-08-09 18:09:46.039674,-40.0
2023-08-09 18:09:46.047365,-54.0
2023-08-09 18:09:46.055055,-81.0
2023-08-09 18:09:46.062746,-90.0
2023-08-09 18:09:46.070436,-85.0
2023-08-09 18:09:46.078127,-88.0
2023-08-09 18:09:46.085817,-95.0
2023-08-09 18:09:46.093508,-95.0
2023-08-09 18:09:46.101199,-95.0
2023-08-09 18:09:46.108889,-100.0
2023-08-09 18:09:46.116580,-109.0
2023-08-09 18:09:46.124270,-35.0
2023-08-09 18:09:46.131961,291.0
2023-08-09 18:09:46.139651,850.0
2023-08-09 18:09:46.147342,1277.0
2023-08-09 18:09:46.155032,1196.0
2023-08-09 18:09:46.162723,659.0
2023-08-09 18:09:46.170413,95.0
2023-08-09 18:09:46.178104,-169.0
2023-08-09 18:09:46.185795,-188.0
2023-08-09 18:09:46.193485,-193.0
2023-08-09 18:09:46.201176,-236.0
2023-08-09 18:09:46.208866,-243.0
2023-08-09 18:09:46.216557,-229.0
2023-08-09 18:09:46.224247,-226.0
2023-08-09 18:09:46.231938,-214.0
2023-08-09 18:09:46.239628,-198.0
2023-08-09 18:09:46.247319,-191.0
2023-08-09 18:09:46.255009,-179.0
2023-08-09 18:09:46.262700,-157.0
2023-08-09 18:09:46.270390,-140.0
2023-08-09 18:09:46.278081,-128.0
2023-08-09 18:09:46.285772,-114.0
2023-08-09 18:09:46.293462,-95.0
2023-08-09 18:09:46.301153,-78.0
2023-08-09 18:09:46.308843,-64.0
2023-08-09 18:09:46.316534,-42.0
2023-08-09 18:09:46.324224,-19.0
2023-08-09 18:09:46.331915,0.0
2023-08-09 18:09:46.339605,19.0
2023-08-09 18:09:46.347296,45.0
2023-08-09 18:09:46.354986,71.0
2023-08-09 18:09:46.362677,88.0
2023-08-09 18:09:46.370368,102.0
2023-08-09 18:09:46.378058,117.0
2023-08-09 18:09:46.385749,121.0
2023-08-09 18:09:46.393439,121.0
2023-08-09 18:09:46.401130,112.0
2023-08-09 18:09:46.408820,90.0
2023-08-09 18:09:46.416511,57.0
2023-08-09 18:09:46.424201,16.0
2023-08-09 18:09:46.431892,-33.0
2023-08-09 18:09:46.439582,-78.0
2023-08-09 18:09:46.447273,-109.0
2023-08-09 18:09:46.454964,-138.0
2023-08-09 18:09:46.462654,-162.0
2023-08-09 18:09:46.470345,-176.0
2023-08-09 18:09:46.478035,-179.0
2023-08-09 18:09:46.485726,-188.0
2023-08-09 18:09:46.493416,-188.0
2023-08-09 18:09:46.501107,-181.0
2023-08-09 18:09:46.508797,-176.0
2023-08-09 18:09:46.516488,-174.0
2023-08-09 18:09:46.524178,-162.0
2023-08-09 18:09:46.531869,-150.0
2023-08-09 18:09:46.539559,-145.0
2023-08-09 18:09:46.547250,-145.0
2023-08-09 18:09:46.554941,-150.0
2023-08-09 18:09:46.562631,-152.0
2023-08-09 18:09:46.570322,-148.0
2023-08-09 18:09:46.578012,-148.0
2023-08-09 18:09:46.585703,-152.0
2023-08-09 18:09:46.593393,-152.0
2023-08-09 18:09:46.601084,-145.0
2023-08-09 18:09:46.608774,-145.0
2023-08-09 18:09:46.616465,-145.0
2023-08-09 18:09:46.624155,-145.0
2023-08-09 18:09:46.631846,-140.0
2023-08-09 18:09:46.639537,-140.0
2023-08-09 18:09:46.647227,-138.0
2023-08-09 18:09:46.654918,-133.0
2023-08-09 18:09:46.662608,-133.0
2023-08-09 18:09:46.670299,-136.0
2023-08-09 18:09:46.677989,-136.0
2023-08-09 18:09:46.685680,-131.0
2023-08-09 18:09:46.693370,-126.0
2023-08-09 18:09:46.701061,-126.0
2023-08-09 18:09:46.708751,-126.0
2023-08-09 18:09:46.716442,-121.0
2023-08-09 18:09:46.724133,-117.0
2023-08-09 18:09:46.731823,-117.0
2023-08-09 18:09:46.739514,-117.0
2023-08-09 18:09:46.747204,-114.0
2023-08-09 18:09:46.754895,-107.0
2023-08-09 18:09:46.762585,-107.0
2023-08-09 18:09:46.770276,-107.0
2023-08-09 18:09:46.777966,-105.0
2023-08-09 18:09:46.785657,-102.0
2023-08-09 18:09:46.793347,-100.0
2023-08-09 18:09:46.801038,-97.0
2023-08-09 18:09:46.808728,-93.0
2023-08-09 18:09:46.816419,-90.0
2023-08-09 18:09:46.824110,-88.0
2023-08-09 18:09:46.831800,-85.0
2023-08-09 18:09:46.839491,-88.0
2023-08-09 18:09:46.847181,-88.0
2023-08-09 18:09:46.854872,-81.0
2023-08-09 18:09:46.862562,-78.0
2023-08-09 18:09:46.870253,-78.0
2023-08-09 18:09:46.877943,-76.0
2023-08-09 18:09:46.885634,-74.0
2023-08-09 18:09:46.893324,-74.0
2023-08-09 18:09:46.901015,-74.0
2023-08-09 18:09:46.908706,-69.0
2023-08-09 18:09:46.916396,-66.0
2023-08-09 18:09:46.924087,-62.0
2023-08-09 18:09:46.931777,-50.0
2023-08-09 18:09:46.939468,-40.0
2023-08-09 18:09:46.947158,-31.0
2023-08-09 18:09:46.954849,-26.0
2023-08-09 18:09:46.962539,-35.0
2023-08-09 18:09:46.970230,-54.0
2023-08-09 18:09:46.977920,-66.0
2023-08-09 18:09:46.985611,-69.0
2023-08-09 18:09:46.993302,-71.0
2023-08-09 18:09:47.000992,-74.0
2023-08-09 18:09:47.008683,-71.0
2023-08-09 18:09:47.016373,-66.0
2023-08-09 18:09:47.024064,-64.0
2023-08-09 18:09:47.031754,-74.0
2023-08-09 18:09:47.039445,-62.0
2023-08-09 18:09:47.047135,119.0
2023-08-09 18:09:47.054826,611.0
2023-08-09 18:09:47.062516,1199.0
2023-08-09 18:09:47.070207,1411.0
2023-08-09 18:09:47.077897,1046.0
2023-08-09 18:09:47.085588,420.0
2023-08-09 18:09:47.093279,-40.0
2023-08-09 18:09:47.100969,-183.0
2023-08-09 18:09:47.108660,-152.0
2023-08-09 18:09:47.116350,-174.0
2023-08-09 18:09:47.124041,-222.0
2023-08-09 18:09:47.131731,-214.0
2023-08-09 18:09:47.139422,-205.0
2023-08-09 18:09:47.147112,-210.0
2023-08-09 18:09:47.154803,-191.0
2023-08-09 18:09:47.162493,-171.0
2023-08-09 18:09:47.170184,-167.0
2023-08-09 18:09:47.177875,-152.0
2023-08-09 18:09:47.185565,-133.0
2023-08-09 18:09:47.193256,-119.0
2023-08-09 18:09:47.200946,-102.0
2023-08-09 18:09:47.208637,-83.0
2023-08-09 18:09:47.216327,-64.0
2023-08-09 18:09:47.224018,-47.0
2023-08-09 18:09:47.231708,-26.0
2023-08-09 18:09:47.239399,-4.0
2023-08-09 18:09:47.247089,16.0
2023-08-09 18:09:47.254780,40.0
2023-08-09 18:09:47.262471,62.0
2023-08-09 18:09:47.270161,83.0
2023-08-09 18:09:47.277852,105.0
2023-08-09 18:09:47.285542,124.0
2023-08-09 18:09:47.293233,140.0
2023-08-09 18:09:47.300923,145.0
2023-08-09 18:09:47.308614,143.0
2023-08-09 18:09:47.316304,131.0
2023-08-09 18:09:47.323995,109.0
2023-08-09 18:09:47.331685,81.0
2023-08-09 18:09:47.339376,42.0
2023-08-09 18:09:47.347067,-4.0
2023-08-09 18:09:47.354757,-52.0
2023-08-09 18:09:47.362448,-93.0
2023-08-09 18:09:47.370138,-126.0
2023-08-09 18:09:47.377829,-150.0
2023-08-09 18:09:47.385519,-167.0
2023-08-09 18:09:47.393210,-176.0
2023-08-09 18:09:47.400900,-183.0
2023-08-09 18:09:47.408591,-183.0
2023-08-09 18:09:47.416281,-181.0
2023-08-09 18:09:47.423972,-176.0
2023-08-09 18:09:47.431662,-171.0
2023-08-09 18:09:47.439353,-164.0
2023-08-09 18:09:47.447044,-157.0
2023-08-09 18:09:47.454734,-152.0
2023-08-09 18:09:47.462425,-148.0
2023-08-09 18:09:47.470115,-140.0
2023-08-09 18:09:47.477806,-131.0
2023-08-09 18:09:47.485496,-126.0
2023-08-09 18:09:47.493187,-126.0
2023-08-09 18:09:47.500877,-126.0
2023-08-09 18:09:47.508568,-121.0
2023-08-09 18:09:47.516258,-117.0
2023-08-09 18:09:47.523949,-114.0
2023-08-09 18:09:47.531640,-117.0
2023-08-09 18:09:47.539330,-117.0
2023-08-09 18:09:47.547021,-117.0
2023-08-09 18:09:47.554711,-114.0
2023-08-09 18:09:47.562402,-114.0
2023-08-09 18:09:47.570092,-112.0
2023-08-09 18:09:47.577783,-109.0
2023-08-09 18:09:47.585473,-109.0
2023-08-09 18:09:47.593164,-112.0
2023-08-09 18:09:47.600854,-114.0
2023-08-09 18:09:47.608545,-107.0
2023-08-09 18:09:47.616236,-105.0
2023-08-09 18:09:47.623926,-107.0
2023-08-09 18:09:47.631617,-105.0
2023-08-09 18:09:47.639307,-102.0
2023-08-09 18:09:47.646998,-97.0
2023-08-09 18:09:47.654688,-97.0
2023-08-09 18:09:47.662379,-100.0
2023-08-09 18:09:47.670069,-100.0
2023-08-09 18:09:47.677760,-102.0
2023-08-09 18:09:47.685450,-107.0
2023-08-09 18:09:47.693141,-102.0
2023-08-09 18:09:47.700831,-97.0
2023-08-09 18:09:47.708522,-95.0
2023-08-09 18:09:47.716213,-93.0
2023-08-09 18:09:47.723903,-93.0
2023-08-09 18:09:47.731594,-93.0
2023-08-09 18:09:47.739284,-90.0
2023-08-09 18:09:47.746975,-85.0
2023-08-09 18:09:47.754665,-83.0
2023-08-09 18:09:47.762356,-83.0
2023-08-09 18:09:47.770046,-83.0
2023-08-09 18:09:47.777737,-78.0
2023-08-09 18:09:47.785427,-76.0
2023-08-09 18:09:47.793118,-74.0
2023-08-09 18:09:47.800809,-69.0
2023-08-09 18:09:47.808499,-64.0
2023-08-09 18:09:47.816190,-57.0
2023-08-09 18:09:47.823880,-42.0
2023-08-09 18:09:47.831571,-33.0
2023-08-09 18:09:47.839261,-28.0
2023-08-09 18:09:47.846952,-31.0
2023-08-09 18:09:47.854642,-50.0
2023-08-09 18:09:47.862333,-71.0
2023-08-09 18:09:47.870023,-78.0
2023-08-09 18:09:47.877714,-78.0
2023-08-09 18:09:47.885405,-78.0
2023-08-09 18:09:47.893095,-76.0
2023-08-09 18:09:47.900786,-74.0
2023-08-09 18:09:47.908476,-78.0
2023-08-09 18:09:47.916167,-85.0
2023-08-09 18:09:47.923857,-83.0
2023-08-09 18:09:47.931548,54.0
2023-08-09 18:09:47.939238,482.0
2023-08-09 18:09:47.946929,1048.0
2023-08-09 18:09:47.954619,1344.0
2023-08-09 18:09:47.962310,1110.0
2023-08-09 18:09:47.970000,535.0
2023-08-09 18:09:47.977691,23.0
2023-08-09 18:09:47.985382,-186.0
2023-08-09 18:09:47.993072,-171.0
2023-08-09 18:09:48.000763,-179.0
2023-08-09 18:09:48.008453,-231.0
2023-08-09 18:09:48.016144,-226.0
2023-08-09 18:09:48.023834,-207.0
2023-08-09 18:09:48.031525,-205.0
2023-08-09 18:09:48.039215,-198.0
2023-08-09 18:09:48.046906,-181.0
2023-08-09 18:09:48.054596,-167.0
2023-08-09 18:09:48.062287,-155.0
2023-08-09 18:09:48.069978,-138.0
2023-08-09 18:09:48.077668,-121.0
2023-08-09 18:09:48.085359,-107.0
2023-08-09 18:09:48.093049,-95.0
2023-08-09 18:09:48.100740,-83.0
2023-08-09 18:09:48.108430,-64.0
2023-08-09 18:09:48.116121,-42.0
2023-08-09 18:09:48.123811,-23.0
2023-08-09 18:09:48.131502,-4.0
2023-08-09 18:09:48.139192,16.0
2023-08-09 18:09:48.146883,40.0
2023-08-09 18:09:48.154574,62.0
2023-08-09 18:09:48.162264,81.0
2023-08-09 18:09:48.169955,100.0
2023-08-09 18:09:48.177645,117.0
2023-08-09 18:09:48.185336,124.0
2023-08-09 18:09:48.193026,128.0
2023-08-09 18:09:48.200717,121.0
2023-08-09 18:09:48.208407,102.0
2023-08-09 18:09:48.216098,74.0
2023-08-09 18:09:48.223788,35.0
2023-08-09 18:09:48.231479,-11.0
2023-08-09 18:09:48.239169,-59.0
2023-08-09 18:09:48.246860,-97.0
2023-08-09 18:09:48.254551,-133.0
2023-08-09 18:09:48.262241,-169.0
2023-08-09 18:09:48.269932,-193.0
2023-08-09 18:09:48.277622,-200.0
2023-08-09 18:09:48.285313,-203.0
2023-08-09 18:09:48.293003,-205.0
2023-08-09 18:09:48.300694,-200.0
2023-08-09 18:09:48.308384,-195.0
2023-08-09 18:09:48.316075,-188.0
2023-08-09 18:09:48.323765,-181.0
2023-08-09 18:09:48.331456,-174.0
2023-08-09 18:09:48.339147,-167.0
2023-08-09 18:09:48.346837,-162.0
2023-08-09 18:09:48.354528,-157.0
2023-08-09 18:09:48.362218,-155.0
2023-08-09 18:09:48.369909,-148.0
2023-08-09 18:09:48.377599,-138.0
2023-08-09 18:09:48.385290,-136.0
2023-08-09 18:09:48.392980,-133.0
2023-08-09 18:09:48.400671,-131.0
2023-08-09 18:09:48.408361,-131.0
2023-08-09 18:09:48.416052,-133.0
2023-08-09 18:09:48.423743,-128.0
2023-08-09 18:09:48.431433,-126.0
2023-08-09 18:09:48.439124,-126.0
2023-08-09 18:09:48.446814,-124.0
2023-08-09 18:09:48.454505,-124.0
2023-08-09 18:09:48.462195,-121.0
2023-08-09 18:09:48.469886,-119.0
2023-08-09 18:09:48.477576,-117.0
2023-08-09 18:09:48.485267,-114.0
2023-08-09 18:09:48.492957,-112.0
2023-08-09 18:09:48.500648,-112.0
2023-08-09 18:09:48.508339,-112.0
2023-08-09 18:09:48.516029,-109.0
2023-08-09 18:09:48.523720,-109.0
2023-08-09 18:09:48.531410,-107.0
2023-08-09 18:09:48.539101,-102.0
2023-08-09 18:09:48.546791,-100.0
2023-08-09 18:09:48.554482,-100.0
2023-08-09 18:09:48.562172,-97.0
2023-08-09 18:09:48.569863,-93.0
2023-08-09 18:09:48.577553,-95.0
2023-08-09 18:09:48.585244,-97.0
2023-08-09 18:09:48.592934,-95.0
2023-08-09 18:09:48.600625,-97.0
2023-08-09 18:09:48.608316,-97.0
2023-08-09 18:09:48.616006,-93.0
2023-08-09 18:09:48.623697,-93.0
2023-08-09 18:09:48.631387,-93.0
2023-08-09 18:09:48.639078,-88.0
2023-08-09 18:09:48.646768,-78.0
2023-08-09 18:09:48.654459,-62.0
2023-08-09 18:09:48.662149,-50.0
2023-08-09 18:09:48.669840,-42.0
2023-08-09 18:09:48.677530,-42.0
2023-08-09 18:09:48.685221,-59.0
2023-08-09 18:09:48.692912,-81.0
2023-08-09 18:09:48.700602,-88.0
2023-08-09 18:09:48.708293,-88.0
2023-08-09 18:09:48.715983,-88.0
2023-08-09 18:09:48.723674,-85.0
2023-08-09 18:09:48.731364,-83.0
2023-08-09 18:09:48.739055,-81.0
2023-08-09 18:09:48.746745,-81.0
2023-08-09 18:09:48.754436,-90.0
2023-08-09 18:09:48.762126,-21.0
2023-08-09 18:09:48.769817,300.0
2023-08-09 18:09:48.777508,850.0
2023-08-09 18:09:48.785198,1275.0
2023-08-09 18:09:48.792889,1220.0
2023-08-09 18:09:48.800579,718.0
2023-08-09 18:09:48.808270,143.0
2023-08-09 18:09:48.815960,-164.0
2023-08-09 18:09:48.823651,-183.0
2023-08-09 18:09:48.831341,-169.0
2023-08-09 18:09:48.839032,-226.0
2023-08-09 18:09:48.846722,-246.0
2023-08-09 18:09:48.854413,-226.0
2023-08-09 18:09:48.862103,-222.0
2023-08-09 18:09:48.869794,-217.0
2023-08-09 18:09:48.877485,-200.0
2023-08-09 18:09:48.885175,-188.0
2023-08-09 18:09:48.892866,-179.0
2023-08-09 18:09:48.900556,-164.0
2023-08-09 18:09:48.908247,-150.0
2023-08-09 18:09:48.915937,-138.0
2023-08-09 18:09:48.923628,-121.0
2023-08-09 18:09:48.931318,-102.0
2023-08-09 18:09:48.939009,-88.0
2023-08-09 18:09:48.946699,-69.0
2023-08-09 18:09:48.954390,-45.0
2023-08-09 18:09:48.962081,-23.0
2023-08-09 18:09:48.969771,-4.0
2023-08-09 18:09:48.977462,16.0
2023-08-09 18:09:48.985152,40.0
2023-08-09 18:09:48.992843,62.0
2023-08-09 18:09:49.000533,83.0
2023-08-09 18:09:49.008224,100.0
2023-08-09 18:09:49.015914,109.0
2023-08-09 18:09:49.023605,112.0
2023-08-09 18:09:49.031295,105.0
2023-08-09 18:09:49.038986,88.0
2023-08-09 18:09:49.046677,64.0
2023-08-09 18:09:49.054367,31.0
2023-08-09 18:09:49.062058,-14.0
2023-08-09 18:09:49.069748,-59.0
2023-08-09 18:09:49.077439,-102.0
2023-08-09 18:09:49.085129,-138.0
2023-08-09 18:09:49.092820,-162.0
2023-08-09 18:09:49.100510,-183.0
2023-08-09 18:09:49.108201,-203.0
2023-08-09 18:09:49.115891,-207.0
2023-08-09 18:09:49.123582,-203.0
2023-08-09 18:09:49.131272,-200.0
2023-08-09 18:09:49.138963,-200.0
2023-08-09 18:09:49.146654,-195.0
2023-08-09 18:09:49.154344,-183.0
2023-08-09 18:09:49.162035,-176.0
2023-08-09 18:09:49.169725,-171.0
2023-08-09 18:09:49.177416,-164.0
2023-08-09 18:09:49.185106,-155.0
2023-08-09 18:09:49.192797,-152.0
2023-08-09 18:09:49.200487,-150.0
2023-08-09 18:09:49.208178,-145.0
2023-08-09 18:09:49.215868,-140.0
2023-08-09 18:09:49.223559,-140.0
2023-08-09 18:09:49.231250,-138.0
2023-08-09 18:09:49.238940,-136.0
2023-08-09 18:09:49.246631,-138.0
2023-08-09 18:09:49.254321,-136.0
2023-08-09 18:09:49.262012,-128.0
2023-08-09 18:09:49.269702,-126.0
2023-08-09 18:09:49.277393,-126.0
2023-08-09 18:09:49.285083,-124.0
2023-08-09 18:09:49.292774,-119.0
2023-08-09 18:09:49.300464,-121.0
2023-08-09 18:09:49.308155,-119.0
2023-08-09 18:09:49.315846,-117.0
2023-08-09 18:09:49.323536,-117.0
2023-08-09 18:09:49.331227,-117.0
2023-08-09 18:09:49.338917,-119.0
2023-08-09 18:09:49.346608,-126.0
2023-08-09 18:09:49.354298,-121.0
2023-08-09 18:09:49.361989,-114.0
2023-08-09 18:09:49.369679,-112.0
2023-08-09 18:09:49.377370,-114.0
2023-08-09 18:09:49.385060,-112.0
2023-08-09 18:09:49.392751,-107.0
2023-08-09 18:09:49.400442,-97.0
2023-08-09 18:09:49.408132,-81.0
2023-08-09 18:09:49.415823,-66.0
2023-08-09 18:09:49.423513,-62.0
2023-08-09 18:09:49.431204,-57.0
2023-08-09 18:09:49.438894,-66.0
2023-08-09 18:09:49.446585,-90.0
2023-08-09 18:09:49.454275,-102.0
2023-08-09 18:09:49.461966,-100.0
2023-08-09 18:09:49.469656,-100.0
2023-08-09 18:09:49.477347,-95.0
2023-08-09 18:09:49.485037,-93.0
2023-08-09 18:09:49.492728,-88.0
2023-08-09 18:09:49.500419,-85.0
2023-08-09 18:09:49.508109,-93.0
2023-08-09 18:09:49.515800,-90.0
2023-08-09 18:09:49.523490,66.0
2023-08-09 18:09:49.531181,520.0
2023-08-09 18:09:49.538871,1077.0
2023-08-09 18:09:49.546562,1311.0
2023-08-09 18:09:49.554252,1012.0
2023-08-09 18:09:49.561943,427.0
2023-08-09 18:09:49.569633,-31.0
2023-08-09 18:09:49.577324,-181.0
2023-08-09 18:09:49.585015,-160.0
2023-08-09 18:09:49.592705,-183.0
2023-08-09 18:09:49.600396,-229.0
2023-08-09 18:09:49.608086,-226.0
2023-08-09 18:09:49.615777,-214.0
2023-08-09 18:09:49.623467,-212.0
2023-08-09 18:09:49.631158,-200.0
2023-08-09 18:09:49.638848,-183.0
2023-08-09 18:09:49.646539,-167.0
2023-08-09 18:09:49.654229,-155.0
2023-08-09 18:09:49.661920,-145.0
2023-08-09 18:09:49.669611,-131.0
2023-08-09 18:09:49.677301,-109.0
2023-08-09 18:09:49.684992,-88.0
2023-08-09 18:09:49.692682,-71.0
2023-08-09 18:09:49.700373,-57.0
2023-08-09 18:09:49.708063,-40.0
2023-08-09 18:09:49.715754,-19.0
2023-08-09 18:09:49.723444,7.0
2023-08-09 18:09:49.731135,28.0
2023-08-09 18:09:49.738825,47.0
2023-08-09 18:09:49.746516,71.0
2023-08-09 18:09:49.754206,93.0
2023-08-09 18:09:49.761897,109.0
2023-08-09 18:09:49.769588,121.0
2023-08-09 18:09:49.777278,126.0
2023-08-09 18:09:49.784969,119.0
2023-08-09 18:09:49.792659,100.0
2023-08-09 18:09:49.800350,71.0
2023-08-09 18:09:49.808040,35.0
2023-08-09 18:09:49.815731,-7.0
2023-08-09 18:09:49.823421,-57.0
2023-08-09 18:09:49.831112,-105.0
2023-08-09 18:09:49.838802,-145.0
2023-08-09 18:09:49.846493,-179.0
2023-08-09 18:09:49.854184,-198.0
2023-08-09 18:09:49.861874,-210.0
2023-08-09 18:09:49.869565,-222.0
2023-08-09 18:09:49.877255,-229.0
2023-08-09 18:09:49.884946,-226.0
2023-08-09 18:09:49.892636,-222.0
2023-08-09 18:09:49.900327,-214.0
2023-08-09 18:09:49.908017,-205.0
2023-08-09 18:09:49.915708,-198.0
2023-08-09 18:09:49.923398,-195.0
2023-08-09 18:09:49.931089,-198.0
2023-08-09 18:09:49.938780,-195.0
2023-08-09 18:09:49.946470,-186.0
2023-08-09 18:09:49.954161,-181.0
2023-08-09 18:09:49.961851,-176.0
2023-08-09 18:09:49.969542,-174.0
2023-08-09 18:09:49.977232,-181.0
2023-08-09 18:09:49.984923,-181.0
2023-08-09 18:09:49.992613,-174.0
2023-08-09 18:09:50.000304,-169.0
2023-08-09 18:09:50.007994,-167.0
2023-08-09 18:09:50.015685,-164.0
2023-08-09 18:09:50.023375,-162.0
2023-08-09 18:09:50.031066,-160.0
2023-08-09 18:09:50.038757,-155.0
2023-08-09 18:09:50.046447,-152.0
2023-08-09 18:09:50.054138,-152.0
2023-08-09 18:09:50.061828,-150.0
2023-08-09 18:09:50.069519,-148.0
2023-08-09 18:09:50.077209,-145.0
2023-08-09 18:09:50.084900,-136.0
2023-08-09 18:09:50.092590,-131.0
2023-08-09 18:09:50.100281,-131.0
2023-08-09 18:09:50.107971,-131.0
2023-08-09 18:09:50.115662,-136.0
2023-08-09 18:09:50.123353,-136.0
2023-08-09 18:09:50.131043,-121.0
2023-08-09 18:09:50.138734,-100.0
2023-08-09 18:09:50.146424,-83.0
2023-08-09 18:09:50.154115,-76.0
2023-08-09 18:09:50.161805,-81.0
2023-08-09 18:09:50.169496,-97.0
2023-08-09 18:09:50.177186,-117.0
2023-08-09 18:09:50.184877,-117.0
2023-08-09 18:09:50.192567,-112.0
2023-08-09 18:09:50.200258,-117.0
2023-08-09 18:09:50.207949,-117.0
2023-08-09 18:09:50.215639,-105.0
2023-08-09 18:09:50.223330,-97.0
2023-08-09 18:09:50.231020,-97.0
2023-08-09 18:09:50.238711,-109.0
2023-08-09 18:09:50.246401,-71.0
2023-08-09 18:09:50.254092,200.0
2023-08-09 18:09:50.261782,761.0
2023-08-09 18:09:50.269473,1285.0
2023-08-09 18:09:50.277163,1320.0
2023-08-09 18:09:50.284854,819.0
2023-08-09 18:09:50.292544,195.0
2023-08-09 18:09:50.300235,-143.0
2023-08-09 18:09:50.307926,-171.0
2023-08-09 18:09:50.315616,-157.0
2023-08-09 18:09:50.323307,-210.0
2023-08-09 18:09:50.330997,-224.0
2023-08-09 18:09:50.338688,-205.0
2023-08-09 18:09:50.346378,-200.0
2023-08-09 18:09:50.354069,-193.0
2023-08-09 18:09:50.361759,-171.0
2023-08-09 18:09:50.369450,-160.0
2023-08-09 18:09:50.377140,-152.0
2023-08-09 18:09:50.384831,-138.0
2023-08-09 18:09:50.392522,-121.0
2023-08-09 18:09:50.400212,-107.0
2023-08-09 18:09:50.407903,-88.0
2023-08-09 18:09:50.415593,-69.0
2023-08-09 18:09:50.423284,-52.0
2023-08-09 18:09:50.430974,-35.0
2023-08-09 18:09:50.438665,-16.0
2023-08-09 18:09:50.446355,4.0
2023-08-09 18:09:50.454046,28.0
2023-08-09 18:09:50.461736,52.0
2023-08-09 18:09:50.469427,74.0
2023-08-09 18:09:50.477118,97.0
2023-08-09 18:09:50.484808,114.0
2023-08-09 18:09:50.492499,126.0
2023-08-09 18:09:50.500189,133.0
2023-08-09 18:09:50.507880,128.0
2023-08-09 18:09:50.515570,107.0
2023-08-09 18:09:50.523261,81.0
2023-08-09 18:09:50.530951,52.0
2023-08-09 18:09:50.538642,14.0
2023-08-09 18:09:50.546332,-33.0
2023-08-09 18:09:50.554023,-81.0
2023-08-09 18:09:50.561714,-121.0
2023-08-09 18:09:50.569404,-152.0
2023-08-09 18:09:50.577095,-174.0
2023-08-09 18:09:50.584785,-188.0
2023-08-09 18:09:50.592476,-198.0
2023-08-09 18:09:50.600166,-200.0
2023-08-09 18:09:50.607857,-200.0
2023-08-09 18:09:50.615547,-200.0
2023-08-09 18:09:50.623238,-198.0
2023-08-09 18:09:50.630928,-188.0
2023-08-09 18:09:50.638619,-179.0
2023-08-09 18:09:50.646309,-174.0
2023-08-09 18:09:50.654000,-169.0
2023-08-09 18:09:50.661691,-160.0
2023-08-09 18:09:50.669381,-155.0
2023-08-09 18:09:50.677072,-150.0
2023-08-09 18:09:50.684762,-148.0
2023-08-09 18:09:50.692453,-145.0
2023-08-09 18:09:50.700143,-143.0
2023-08-09 18:09:50.707834,-140.0
2023-08-09 18:09:50.715524,-140.0
2023-08-09 18:09:50.723215,-140.0
2023-08-09 18:09:50.730905,-140.0
2023-08-09 18:09:50.738596,-138.0
2023-08-09 18:09:50.746287,-136.0
2023-08-09 18:09:50.753977,-133.0
2023-08-09 18:09:50.761668,-133.0
2023-08-09 18:09:50.769358,-136.0
2023-08-09 18:09:50.777049,-138.0
2023-08-09 18:09:50.784739,-138.0
2023-08-09 18:09:50.792430,-138.0
2023-08-09 18:09:50.800120,-136.0
2023-08-09 18:09:50.807811,-136.0
2023-08-09 18:09:50.815501,-133.0
2023-08-09 18:09:50.823192,-131.0
2023-08-09 18:09:50.830883,-126.0
2023-08-09 18:09:50.838573,-126.0
2023-08-09 18:09:50.846264,-126.0
2023-08-09 18:09:50.853954,-124.0
2023-08-09 18:09:50.861645,-126.0
2023-08-09 18:09:50.869335,-126.0
2023-08-09 18:09:50.877026,-114.0
2023-08-09 18:09:50.884716,-93.0
2023-08-09 18:09:50.892407,-76.0
2023-08-09 18:09:50.900097,-71.0
2023-08-09 18:09:50.907788,-74.0
2023-08-09 18:09:50.915478,-90.0
2023-08-09 18:09:50.923169,-107.0
2023-08-09 18:09:50.930860,-112.0
2023-08-09 18:09:50.938550,-109.0
2023-08-09 18:09:50.946241,-109.0
2023-08-09 18:09:50.953931,-109.0
2023-08-09 18:09:50.961622,-107.0
2023-08-09 18:09:50.969312,-105.0
2023-08-09 18:09:50.977003,-100.0
2023-08-09 18:09:50.984693,-109.0
2023-08-09 18:09:50.992384,-100.0
2023-08-09 18:09:51.000074,88.0
2023-08-09 18:09:51.007765,568.0
2023-08-09 18:09:51.015456,1122.0
2023-08-09 18:09:51.023146,1351.0
2023-08-09 18:09:51.030837,1055.0
2023-08-09 18:09:51.038527,449.0
2023-08-09 18:09:51.046218,-52.0
2023-08-09 18:09:51.053908,-212.0
2023-08-09 18:09:51.061599,-179.0
2023-08-09 18:09:51.069289,-198.0
2023-08-09 18:09:51.076980,-248.0
2023-08-09 18:09:51.084670,-234.0
2023-08-09 18:09:51.092361,-217.0
2023-08-09 18:09:51.100052,-219.0
2023-08-09 18:09:51.107742,-207.0
2023-08-09 18:09:51.115433,-188.0
2023-08-09 18:09:51.123123,-181.0
2023-08-09 18:09:51.130814,-171.0
2023-08-09 18:09:51.138504,-155.0
2023-08-09 18:09:51.146195,-136.0
2023-08-09 18:09:51.153885,-119.0
2023-08-09 18:09:51.161576,-102.0
2023-08-09 18:09:51.169266,-85.0
2023-08-09 18:09:51.176957,-66.0
2023-08-09 18:09:51.184647,-45.0
2023-08-09 18:09:51.192338,-26.0
2023-08-09 18:09:51.200029,-4.0
2023-08-09 18:09:51.207719,14.0
2023-08-09 18:09:51.215410,33.0
2023-08-09 18:09:51.223100,54.0
2023-08-09 18:09:51.230791,71.0
2023-08-09 18:09:51.238481,85.0
2023-08-09 18:09:51.246172,97.0
2023-08-09 18:09:51.253862,97.0
2023-08-09 18:09:51.261553,88.0
2023-08-09 18:09:51.269243,74.0
2023-08-09 18:09:51.276934,52.0
2023-08-09 18:09:51.284625,16.0
2023-08-09 18:09:51.292315,-23.0
2023-08-09 18:09:51.300006,-69.0
2023-08-09 18:09:51.307696,-112.0
2023-08-09 18:09:51.315387,-140.0
2023-08-09 18:09:51.323077,-167.0
2023-08-09 18:09:51.330768,-186.0
2023-08-09 18:09:51.338458,-193.0
2023-08-09 18:09:51.346149,-195.0
2023-08-09 18:09:51.353839,-198.0
2023-08-09 18:09:51.361530,-200.0
2023-08-09 18:09:51.369221,-195.0
2023-08-09 18:09:51.376911,-188.0
2023-08-09 18:09:51.384602,-181.0
2023-08-09 18:09:51.392292,-174.0
2023-08-09 18:09:51.399983,-167.0
2023-08-09 18:09:51.407673,-164.0
2023-08-09 18:09:51.415364,-162.0
2023-08-09 18:09:51.423054,-157.0
2023-08-09 18:09:51.430745,-152.0
2023-08-09 18:09:51.438435,-150.0
2023-08-09 18:09:51.446126,-148.0
2023-08-09 18:09:51.453816,-145.0
2023-08-09 18:09:51.461507,-145.0
2023-08-09 18:09:51.469198,-140.0
2023-08-09 18:09:51.476888,-138.0
2023-08-09 18:09:51.484579,-133.0
2023-08-09 18:09:51.492269,-131.0
2023-08-09 18:09:51.499960,-131.0
2023-08-09 18:09:51.507650,-131.0
2023-08-09 18:09:51.515341,-128.0
2023-08-09 18:09:51.523031,-126.0
2023-08-09 18:09:51.530722,-124.0
2023-08-09 18:09:51.538412,-121.0
2023-08-09 18:09:51.546103,-119.0
2023-08-09 18:09:51.553794,-119.0
2023-08-09 18:09:51.561484,-119.0
2023-08-09 18:09:51.569175,-117.0
2023-08-09 18:09:51.576865,-117.0
2023-08-09 18:09:51.584556,-114.0
2023-08-09 18:09:51.592246,-112.0
2023-08-09 18:09:51.599937,-114.0
2023-08-09 18:09:51.607627,-114.0
2023-08-09 18:09:51.615318,-112.0
2023-08-09 18:09:51.623008,-109.0
2023-08-09 18:09:51.630699,-112.0
2023-08-09 18:09:51.638390,-114.0
2023-08-09 18:09:51.646080,-112.0
2023-08-09 18:09:51.653771,-107.0
2023-08-09 18:09:51.661461,-109.0
2023-08-09 18:09:51.669152,-109.0
2023-08-09 18:09:51.676842,-109.0
2023-08-09 18:09:51.684533,-119.0
2023-08-09 18:09:51.692223,-124.0
2023-08-09 18:09:51.699914,-114.0
2023-08-09 18:09:51.707604,-97.0
2023-08-09 18:09:51.715295,-81.0
2023-08-09 18:09:51.722986,-71.0
2023-08-09 18:09:51.730676,-71.0
2023-08-09 18:09:51.738367,-76.0
2023-08-09 18:09:51.746057,-93.0
2023-08-09 18:09:51.753748,-109.0
2023-08-09 18:09:51.761438,-114.0
2023-08-09 18:09:51.769129,-112.0
2023-08-09 18:09:51.776819,-114.0
2023-08-09 18:09:51.784510,-112.0
2023-08-09 18:09:51.792200,-105.0
2023-08-09 18:09:51.799891,-97.0
2023-08-09 18:09:51.807581,-97.0
2023-08-09 18:09:51.815272,-109.0
2023-08-09 18:09:51.822963,-66.0
2023-08-09 18:09:51.830653,200.0
2023-08-09 18:09:51.838344,716.0
2023-08-09 18:09:51.846034,1194.0
2023-08-09 18:09:51.853725,1273.0
2023-08-09 18:09:51.861415,881.0
2023-08-09 18:09:51.869106,289.0
2023-08-09 18:09:51.876796,-124.0
2023-08-09 18:09:51.884487,-193.0
2023-08-09 18:09:51.892177,-152.0
2023-08-09 18:09:51.899868,-203.0
2023-08-09 18:09:51.907559,-236.0
2023-08-09 18:09:51.915249,-212.0
2023-08-09 18:09:51.922940,-205.0
2023-08-09 18:09:51.930630,-205.0
2023-08-09 18:09:51.938321,-186.0
2023-08-09 18:09:51.946011,-167.0
2023-08-09 18:09:51.953702,-157.0
2023-08-09 18:09:51.961392,-143.0
2023-08-09 18:09:51.969083,-128.0
2023-08-09 18:09:51.976773,-112.0
2023-08-09 18:09:51.984464,-97.0
2023-08-09 18:09:51.992155,-78.0
2023-08-09 18:09:51.999845,-64.0
2023-08-09 18:09:52.007536,-47.0
2023-08-09 18:09:52.015226,-31.0
2023-08-09 18:09:52.022917,-9.0
2023-08-09 18:09:52.030607,11.0
2023-08-09 18:09:52.038298,31.0
2023-08-09 18:09:52.045988,47.0
2023-08-09 18:09:52.053679,69.0
2023-08-09 18:09:52.061369,83.0
2023-08-09 18:09:52.069060,95.0
2023-08-09 18:09:52.076750,105.0
2023-08-09 18:09:52.084441,107.0
2023-08-09 18:09:52.092132,97.0
2023-08-09 18:09:52.099822,83.0
2023-08-09 18:09:52.107513,64.0
2023-08-09 18:09:52.115203,35.0
2023-08-09 18:09:52.122894,0.0
2023-08-09 18:09:52.130584,-42.0
2023-08-09 18:09:52.138275,-85.0
2023-08-09 18:09:52.145965,-119.0
2023-08-09 18:09:52.153656,-143.0
2023-08-09 18:09:52.161346,-160.0
2023-08-09 18:09:52.169037,-167.0
2023-08-09 18:09:52.176728,-179.0
2023-08-09 18:09:52.184418,-188.0
2023-08-09 18:09:52.192109,-186.0
2023-08-09 18:09:52.199799,-179.0
2023-08-09 18:09:52.207490,-176.0
2023-08-09 18:09:52.215180,-169.0
2023-08-09 18:09:52.222871,-164.0
2023-08-09 18:09:52.230561,-160.0
2023-08-09 18:09:52.238252,-155.0
2023-08-09 18:09:52.245942,-152.0
2023-08-09 18:09:52.253633,-150.0
2023-08-09 18:09:52.261324,-148.0
2023-08-09 18:09:52.269014,-148.0
2023-08-09 18:09:52.276705,-145.0
2023-08-09 18:09:52.284395,-140.0
2023-08-09 18:09:52.292086,-140.0
2023-08-09 18:09:52.299776,-140.0
2023-08-09 18:09:52.307467,-136.0
2023-08-09 18:09:52.315157,-133.0
2023-08-09 18:09:52.322848,-133.0
2023-08-09 18:09:52.330538,-131.0
2023-08-09 18:09:52.338229,-133.0
2023-08-09 18:09:52.345919,-133.0
2023-08-09 18:09:52.353610,-131.0
2023-08-09 18:09:52.361301,-131.0
2023-08-09 18:09:52.368991,-128.0
2023-08-09 18:09:52.376682,-124.0
2023-08-09 18:09:52.384372,-121.0
2023-08-09 18:09:52.392063,-121.0
2023-08-09 18:09:52.399753,-117.0
2023-08-09 18:09:52.407444,-117.0
2023-08-09 18:09:52.415134,-117.0
2023-08-09 18:09:52.422825,-114.0
2023-08-09 18:09:52.430515,-109.0
2023-08-09 18:09:52.438206,-109.0
2023-08-09 18:09:52.445897,-109.0
2023-08-09 18:09:52.453587,-109.0
2023-08-09 18:09:52.461278,-105.0
2023-08-09 18:09:52.468968,-102.0
2023-08-09 18:09:52.476659,-102.0
2023-08-09 18:09:52.484349,-100.0
2023-08-09 18:09:52.492040,-100.0
2023-08-09 18:09:52.499730,-105.0
2023-08-09 18:09:52.507421,-105.0
2023-08-09 18:09:52.515111,-102.0
2023-08-09 18:09:52.522802,-105.0
2023-08-09 18:09:52.530493,-105.0
2023-08-09 18:09:52.538183,-102.0
2023-08-09 18:09:52.545874,-102.0
2023-08-09 18:09:52.553564,-100.0
2023-08-09 18:09:52.561255,-95.0
2023-08-09 18:09:52.568945,-97.0
2023-08-09 18:09:52.576636,-95.0
2023-08-09 18:09:52.584326,-95.0
2023-08-09 18:09:52.592017,-97.0
2023-08-09 18:09:52.599707,-93.0
2023-08-09 18:09:52.607398,-88.0
2023-08-09 18:09:52.615089,-90.0
2023-08-09 18:09:52.622779,-88.0
2023-08-09 18:09:52.630470,-76.0
2023-08-09 18:09:52.638160,-64.0
2023-08-09 18:09:52.645851,-57.0
2023-08-09 18:09:52.653541,-50.0
2023-08-09 18:09:52.661232,-50.0
2023-08-09 18:09:52.668922,-66.0
2023-08-09 18:09:52.676613,-85.0
2023-08-09 18:09:52.684303,-93.0
2023-08-09 18:09:52.691994,-90.0
2023-08-09 18:09:52.699684,-90.0
2023-08-09 18:09:52.707375,-90.0
2023-08-09 18:09:52.715066,-93.0
2023-08-09 18:09:52.722756,-97.0
2023-08-09 18:09:52.730447,-93.0
2023-08-09 18:09:52.738137,-97.0
2023-08-09 18:09:52.745828,-78.0
2023-08-09 18:09:52.753518,133.0
2023-08-09 18:09:52.761209,609.0
2023-08-09 18:09:52.768899,1113.0
2023-08-09 18:09:52.776590,1268.0
2023-08-09 18:09:52.784280,938.0
2023-08-09 18:09:52.791971,363.0
2023-08-09 18:09:52.799662,-69.0
2023-08-09 18:09:52.807352,-179.0
2023-08-09 18:09:52.815043,-148.0
2023-08-09 18:09:52.822733,-181.0
2023-08-09 18:09:52.830424,-224.0
2023-08-09 18:09:52.838114,-207.0
2023-08-09 18:09:52.845805,-200.0
2023-08-09 18:09:52.853495,-205.0
2023-08-09 18:09:52.861186,-188.0
2023-08-09 18:09:52.868876,-167.0
2023-08-09 18:09:52.876567,-155.0
2023-08-09 18:09:52.884258,-143.0
2023-08-09 18:09:52.891948,-126.0
2023-08-09 18:09:52.899639,-109.0
2023-08-09 18:09:52.907329,-95.0
2023-08-09 18:09:52.915020,-78.0
2023-08-09 18:09:52.922710,-62.0
2023-08-09 18:09:52.930401,-45.0
2023-08-09 18:09:52.938091,-28.0
2023-08-09 18:09:52.945782,-9.0
2023-08-09 18:09:52.953472,7.0
2023-08-09 18:09:52.961163,26.0
2023-08-09 18:09:52.968853,40.0
2023-08-09 18:09:52.976544,54.0
2023-08-09 18:09:52.984235,69.0
2023-08-09 18:09:52.991925,78.0
2023-08-09 18:09:52.999616,88.0
2023-08-09 18:09:53.007306,93.0
2023-08-09 18:09:53.014997,90.0
2023-08-09 18:09:53.022687,78.0
2023-08-09 18:09:53.030378,64.0
2023-08-09 18:09:53.038068,42.0
2023-08-09 18:09:53.045759,14.0
2023-08-09 18:09:53.053449,-21.0
2023-08-09 18:09:53.061140,-59.0
2023-08-09 18:09:53.068831,-88.0
2023-08-09 18:09:53.076521,-117.0
2023-08-09 18:09:53.084212,-140.0
2023-08-09 18:09:53.091902,-150.0
2023-08-09 18:09:53.099593,-155.0
2023-08-09 18:09:53.107283,-164.0
2023-08-09 18:09:53.114974,-169.0
2023-08-09 18:09:53.122664,-162.0
2023-08-09 18:09:53.130355,-157.0
2023-08-09 18:09:53.138045,-162.0
2023-08-09 18:09:53.145736,-160.0
2023-08-09 18:09:53.153427,-152.0
2023-08-09 18:09:53.161117,-155.0
2023-08-09 18:09:53.168808,-155.0
2023-08-09 18:09:53.176498,-150.0
2023-08-09 18:09:53.184189,-148.0
2023-08-09 18:09:53.191879,-148.0
2023-08-09 18:09:53.199570,-143.0
2023-08-09 18:09:53.207260,-143.0
2023-08-09 18:09:53.214951,-143.0
2023-08-09 18:09:53.222641,-143.0
2023-08-09 18:09:53.230332,-143.0
2023-08-09 18:09:53.238022,-145.0
2023-08-09 18:09:53.245713,-143.0
2023-08-09 18:09:53.253404,-145.0
2023-08-09 18:09:53.261094,-152.0
2023-08-09 18:09:53.268785,-162.0
2023-08-09 18:09:53.276475,-155.0
2023-08-09 18:09:53.284166,-145.0
2023-08-09 18:09:53.291856,-148.0
2023-08-09 18:09:53.299547,-148.0
2023-08-09 18:09:53.307237,-143.0
2023-08-09 18:09:53.314928,-140.0
2023-08-09 18:09:53.322618,-145.0
2023-08-09 18:09:53.330309,-143.0
2023-08-09 18:09:53.338000,-138.0
2023-08-09 18:09:53.345690,-136.0
2023-08-09 18:09:53.353381,-138.0
2023-08-09 18:09:53.361071,-136.0
2023-08-09 18:09:53.368762,-131.0
2023-08-09 18:09:53.376452,-128.0
2023-08-09 18:09:53.384143,-126.0
2023-08-09 18:09:53.391833,-128.0
2023-08-09 18:09:53.399524,-128.0
2023-08-09 18:09:53.407214,-119.0
2023-08-09 18:09:53.414905,-112.0
2023-08-09 18:09:53.422596,-112.0
2023-08-09 18:09:53.430286,-109.0
2023-08-09 18:09:53.437977,-107.0
2023-08-09 18:09:53.445667,-105.0
2023-08-09 18:09:53.453358,-105.0
2023-08-09 18:09:53.461048,-102.0
2023-08-09 18:09:53.468739,-95.0
2023-08-09 18:09:53.476429,-95.0
2023-08-09 18:09:53.484120,-100.0
2023-08-09 18:09:53.491810,-97.0
2023-08-09 18:09:53.499501,-93.0
2023-08-09 18:09:53.507191,-90.0
2023-08-09 18:09:53.514882,-90.0
2023-08-09 18:09:53.522573,-90.0
2023-08-09 18:09:53.530263,-85.0
2023-08-09 18:09:53.537954,-81.0
2023-08-09 18:09:53.545644,-83.0
2023-08-09 18:09:53.553335,-83.0
2023-08-09 18:09:53.561025,-78.0
2023-08-09 18:09:53.568716,-74.0
2023-08-09 18:09:53.576406,-69.0
2023-08-09 18:09:53.584097,-57.0
2023-08-09 18:09:53.591787,-40.0
2023-08-09 18:09:53.599478,-28.0
2023-08-09 18:09:53.607169,-23.0
2023-08-09 18:09:53.614859,-28.0
2023-08-09 18:09:53.622550,-50.0
2023-08-09 18:09:53.630240,-71.0
2023-08-09 18:09:53.637931,-74.0
2023-08-09 18:09:53.645621,-74.0
2023-08-09 18:09:53.653312,-74.0
2023-08-09 18:09:53.661002,-71.0
2023-08-09 18:09:53.668693,-66.0
2023-08-09 18:09:53.676383,-62.0
2023-08-09 18:09:53.684074,-69.0
2023-08-09 18:09:53.691765,-57.0
2023-08-09 18:09:53.699455,119.0
2023-08-09 18:09:53.707146,599.0
2023-08-09 18:09:53.714836,1194.0
2023-08-09 18:09:53.722527,1430.0
2023-08-09 18:09:53.730217,1060.0
2023-08-09 18:09:53.737908,401.0
2023-08-09 18:09:53.745598,-50.0
2023-08-09 18:09:53.753289,-143.0
2023-08-09 18:09:53.760979,-117.0
2023-08-09 18:09:53.768670,-164.0
2023-08-09 18:09:53.776361,-203.0
2023-08-09 18:09:53.784051,-183.0
2023-08-09 18:09:53.791742,-181.0
2023-08-09 18:09:53.799432,-181.0
2023-08-09 18:09:53.807123,-164.0
2023-08-09 18:09:53.814813,-150.0
2023-08-09 18:09:53.822504,-140.0
2023-08-09 18:09:53.830194,-124.0
2023-08-09 18:09:53.837885,-105.0
2023-08-09 18:09:53.845575,-95.0
2023-08-09 18:09:53.853266,-78.0
2023-08-09 18:09:53.860956,-59.0
2023-08-09 18:09:53.868647,-40.0
2023-08-09 18:09:53.876338,-23.0
2023-08-09 18:09:53.884028,-4.0
2023-08-09 18:09:53.891719,9.0
2023-08-09 18:09:53.899409,23.0
2023-08-09 18:09:53.907100,47.0
2023-08-09 18:09:53.914790,71.0
2023-08-09 18:09:53.922481,88.0
2023-08-09 18:09:53.930171,105.0
2023-08-09 18:09:53.937862,119.0
2023-08-09 18:09:53.945552,126.0
2023-08-09 18:09:53.953243,126.0
2023-08-09 18:09:53.960934,121.0
2023-08-09 18:09:53.968624,114.0
2023-08-09 18:09:53.976315,95.0
2023-08-09 18:09:53.984005,66.0
2023-08-09 18:09:53.991696,33.0
2023-08-09 18:09:53.999386,-7.0
2023-08-09 18:09:54.007077,-45.0
2023-08-09 18:09:54.014767,-78.0
2023-08-09 18:09:54.022458,-107.0
2023-08-09 18:09:54.030148,-133.0
2023-08-09 18:09:54.037839,-152.0
2023-08-09 18:09:54.045530,-164.0
2023-08-09 18:09:54.053220,-169.0
2023-08-09 18:09:54.060911,-174.0
2023-08-09 18:09:54.068601,-179.0
2023-08-09 18:09:54.076292,-174.0
2023-08-09 18:09:54.083982,-164.0
2023-08-09 18:09:54.091673,-160.0
2023-08-09 18:09:54.099363,-157.0
2023-08-09 18:09:54.107054,-155.0
2023-08-09 18:09:54.114744,-148.0
2023-08-09 18:09:54.122435,-140.0
2023-08-09 18:09:54.130125,-138.0
2023-08-09 18:09:54.137816,-133.0
2023-08-09 18:09:54.145507,-133.0
2023-08-09 18:09:54.153197,-138.0
2023-08-09 18:09:54.160888,-138.0
2023-08-09 18:09:54.168578,-131.0
2023-08-09 18:09:54.176269,-131.0
2023-08-09 18:09:54.183959,-131.0
2023-08-09 18:09:54.191650,-128.0
2023-08-09 18:09:54.199340,-128.0
2023-08-09 18:09:54.207031,-128.0
2023-08-09 18:09:54.214721,-126.0
2023-08-09 18:09:54.222412,-126.0
2023-08-09 18:09:54.230103,-121.0
2023-08-09 18:09:54.237793,-117.0
2023-08-09 18:09:54.245484,-119.0
2023-08-09 18:09:54.253174,-119.0
2023-08-09 18:09:54.260865,-114.0
2023-08-09 18:09:54.268555,-112.0
2023-08-09 18:09:54.276246,-112.0
2023-08-09 18:09:54.283936,-105.0
2023-08-09 18:09:54.291627,-105.0
2023-08-09 18:09:54.299317,-107.0
2023-08-09 18:09:54.307008,-107.0
2023-08-09 18:09:54.314699,-107.0
2023-08-09 18:09:54.322389,-105.0
2023-08-09 18:09:54.330080,-105.0
2023-08-09 18:09:54.337770,-102.0
2023-08-09 18:09:54.345461,-100.0
2023-08-09 18:09:54.353151,-97.0
2023-08-09 18:09:54.360842,-97.0
2023-08-09 18:09:54.368532,-97.0
2023-08-09 18:09:54.376223,-97.0
2023-08-09 18:09:54.383913,-95.0
2023-08-09 18:09:54.391604,-90.0
2023-08-09 18:09:54.399294,-90.0
2023-08-09 18:09:54.406985,-90.0
2023-08-09 18:09:54.414676,-88.0
2023-08-09 18:09:54.422366,-88.0
2023-08-09 18:09:54.430057,-95.0
2023-08-09 18:09:54.437747,-100.0
2023-08-09 18:09:54.445438,-97.0
2023-08-09 18:09:54.453128,-95.0
2023-08-09 18:09:54.460819,-85.0
2023-08-09 18:09:54.468509,-69.0
2023-08-09 18:09:54.476200,-57.0
2023-08-09 18:09:54.483890,-47.0
2023-08-09 18:09:54.491581,-47.0
2023-08-09 18:09:54.499272,-62.0
2023-08-09 18:09:54.506962,-83.0
2023-08-09 18:09:54.514653,-93.0
2023-08-09 18:09:54.522343,-93.0
2023-08-09 18:09:54.530034,-93.0
2023-08-09 18:09:54.537724,-88.0
2023-08-09 18:09:54.545415,-85.0
2023-08-09 18:09:54.553105,-88.0
2023-08-09 18:09:54.560796,-90.0
2023-08-09 18:09:54.568486,-105.0
2023-08-09 18:09:54.576177,-62.0
2023-08-09 18:09:54.583868,219.0
2023-08-09 18:09:54.591558,757.0
2023-08-09 18:09:54.599249,1261.0
2023-08-09 18:09:54.606939,1366.0
2023-08-09 18:09:54.614630,948.0
2023-08-09 18:09:54.622320,291.0
2023-08-09 18:09:54.630011,-140.0
2023-08-09 18:09:54.637701,-181.0
2023-08-09 18:09:54.645392,-143.0
2023-08-09 18:09:54.653082,-217.0
2023-08-09 18:09:54.660773,-250.0
2023-08-09 18:09:54.668463,-217.0
2023-08-09 18:09:54.676154,-212.0
2023-08-09 18:09:54.683845,-214.0
2023-08-09 18:09:54.691535,-195.0
2023-08-09 18:09:54.699226,-176.0
2023-08-09 18:09:54.706916,-167.0
2023-08-09 18:09:54.714607,-152.0
2023-08-09 18:09:54.722297,-133.0
2023-08-09 18:09:54.729988,-119.0
2023-08-09 18:09:54.737678,-105.0
2023-08-09 18:09:54.745369,-90.0
2023-08-09 18:09:54.753059,-76.0
2023-08-09 18:09:54.760750,-57.0
2023-08-09 18:09:54.768441,-35.0
2023-08-09 18:09:54.776131,-19.0
2023-08-09 18:09:54.783822,2.0
2023-08-09 18:09:54.791512,21.0
2023-08-09 18:09:54.799203,40.0
2023-08-09 18:09:54.806893,57.0
2023-08-09 18:09:54.814584,71.0
2023-08-09 18:09:54.822274,83.0
2023-08-09 18:09:54.829965,85.0
2023-08-09 18:09:54.837655,83.0
2023-08-09 18:09:54.845346,74.0
2023-08-09 18:09:54.853037,62.0
2023-08-09 18:09:54.860727,40.0
2023-08-09 18:09:54.868418,9.0
2023-08-09 18:09:54.876108,-31.0
2023-08-09 18:09:54.883799,-71.0
2023-08-09 18:09:54.891489,-109.0
2023-08-09 18:09:54.899180,-143.0
2023-08-09 18:09:54.906870,-167.0
2023-08-09 18:09:54.914561,-186.0
2023-08-09 18:09:54.922251,-203.0
2023-08-09 18:09:54.929942,-210.0
2023-08-09 18:09:54.937633,-207.0
2023-08-09 18:09:54.945323,-205.0
2023-08-09 18:09:54.953014,-203.0
2023-08-09 18:09:54.960704,-200.0
2023-08-09 18:09:54.968395,-205.0
2023-08-09 18:09:54.976085,-205.0
2023-08-09 18:09:54.983776,-193.0
2023-08-09 18:09:54.991466,-186.0
2023-08-09 18:09:54.999157,-186.0
2023-08-09 18:09:55.006847,-183.0
2023-08-09 18:09:55.014538,-181.0
2023-08-09 18:09:55.022228,-179.0
2023-08-09 18:09:55.029919,-174.0
2023-08-09 18:09:55.037610,-169.0
2023-08-09 18:09:55.045300,-167.0
2023-08-09 18:09:55.052991,-169.0
2023-08-09 18:09:55.060681,-171.0
2023-08-09 18:09:55.068372,-169.0
2023-08-09 18:09:55.076062,-167.0
2023-08-09 18:09:55.083753,-164.0
2023-08-09 18:09:55.091443,-157.0
2023-08-09 18:09:55.099134,-157.0
2023-08-09 18:09:55.106824,-157.0
2023-08-09 18:09:55.114515,-155.0
2023-08-09 18:09:55.122206,-150.0
2023-08-09 18:09:55.129896,-145.0
2023-08-09 18:09:55.137587,-140.0
2023-08-09 18:09:55.145277,-140.0
2023-08-09 18:09:55.152968,-140.0
2023-08-09 18:09:55.160658,-138.0
2023-08-09 18:09:55.168349,-140.0
2023-08-09 18:09:55.176039,-138.0
2023-08-09 18:09:55.183730,-131.0
2023-08-09 18:09:55.191420,-128.0
2023-08-09 18:09:55.199111,-131.0
2023-08-09 18:09:55.206802,-126.0
2023-08-09 18:09:55.214492,-121.0
2023-08-09 18:09:55.222183,-119.0
2023-08-09 18:09:55.229873,-114.0
2023-08-09 18:09:55.237564,-114.0
2023-08-09 18:09:55.245254,-114.0
2023-08-09 18:09:55.252945,-109.0
2023-08-09 18:09:55.260635,-107.0
2023-08-09 18:09:55.268326,-105.0
2023-08-09 18:09:55.276016,-102.0
2023-08-09 18:09:55.283707,-100.0
2023-08-09 18:09:55.291397,-100.0
2023-08-09 18:09:55.299088,-102.0
2023-08-09 18:09:55.306779,-102.0
2023-08-09 18:09:55.314469,-100.0
2023-08-09 18:09:55.322160,-97.0
2023-08-09 18:09:55.329850,-97.0
2023-08-09 18:09:55.337541,-97.0
2023-08-09 18:09:55.345231,-93.0
2023-08-09 18:09:55.352922,-90.0
2023-08-09 18:09:55.360612,-88.0
2023-08-09 18:09:55.368303,-88.0
2023-08-09 18:09:55.375993,-85.0
2023-08-09 18:09:55.383684,-74.0
2023-08-09 18:09:55.391375,-57.0
2023-08-09 18:09:55.399065,-42.0
2023-08-09 18:09:55.406756,-35.0
2023-08-09 18:09:55.414446,-40.0
2023-08-09 18:09:55.422137,-62.0
2023-08-09 18:09:55.429827,-78.0
2023-08-09 18:09:55.437518,-81.0
2023-08-09 18:09:55.445208,-78.0
2023-08-09 18:09:55.452899,-78.0
2023-08-09 18:09:55.460589,-78.0
2023-08-09 18:09:55.468280,-76.0
2023-08-09 18:09:55.475971,-76.0
2023-08-09 18:09:55.483661,-83.0
2023-08-09 18:09:55.491352,-88.0
2023-08-09 18:09:55.499042,31.0
2023-08-09 18:09:55.506733,425.0
2023-08-09 18:09:55.514423,981.0
2023-08-09 18:09:55.522114,1351.0
2023-08-09 18:09:55.529804,1220.0
2023-08-09 18:09:55.537495,652.0
2023-08-09 18:09:55.545185,64.0
2023-08-09 18:09:55.552876,-193.0
2023-08-09 18:09:55.560566,-169.0
2023-08-09 18:09:55.568257,-174.0
2023-08-09 18:09:55.575948,-243.0
2023-08-09 18:09:55.583638,-241.0
2023-08-09 18:09:55.591329,-217.0
2023-08-09 18:09:55.599019,-224.0
2023-08-09 18:09:55.606710,-212.0
2023-08-09 18:09:55.614400,-191.0
2023-08-09 18:09:55.622091,-179.0
2023-08-09 18:09:55.629781,-167.0
2023-08-09 18:09:55.637472,-150.0
2023-08-09 18:09:55.645162,-136.0
2023-08-09 18:09:55.652853,-119.0
2023-08-09 18:09:55.660544,-100.0
2023-08-09 18:09:55.668234,-83.0
2023-08-09 18:09:55.675925,-74.0
2023-08-09 18:09:55.683615,-59.0
2023-08-09 18:09:55.691306,-33.0
2023-08-09 18:09:55.698996,-14.0
2023-08-09 18:09:55.706687,2.0
2023-08-09 18:09:55.714377,23.0
2023-08-09 18:09:55.722068,45.0
2023-08-09 18:09:55.729758,62.0
2023-08-09 18:09:55.737449,71.0
2023-08-09 18:09:55.745140,81.0
2023-08-09 18:09:55.752830,85.0
2023-08-09 18:09:55.760521,83.0
2023-08-09 18:09:55.768211,76.0
2023-08-09 18:09:55.775902,59.0
2023-08-09 18:09:55.783592,35.0
2023-08-09 18:09:55.791283,7.0
2023-08-09 18:09:55.798973,-28.0
2023-08-09 18:09:55.806664,-66.0
2023-08-09 18:09:55.814354,-100.0
2023-08-09 18:09:55.822045,-131.0
2023-08-09 18:09:55.829736,-155.0
2023-08-09 18:09:55.837426,-171.0
2023-08-09 18:09:55.845117,-181.0
2023-08-09 18:09:55.852807,-188.0
2023-08-09 18:09:55.860498,-191.0
2023-08-09 18:09:55.868188,-188.0
2023-08-09 18:09:55.875879,-183.0
2023-08-09 18:09:55.883569,-186.0
2023-08-09 18:09:55.891260,-186.0
2023-08-09 18:09:55.898950,-179.0
2023-08-09 18:09:55.906641,-171.0
2023-08-09 18:09:55.914331,-169.0
2023-08-09 18:09:55.922022,-167.0
2023-08-09 18:09:55.929713,-162.0
2023-08-09 18:09:55.937403,-157.0
2023-08-09 18:09:55.945094,-155.0
2023-08-09 18:09:55.952784,-155.0
2023-08-09 18:09:55.960475,-150.0
2023-08-09 18:09:55.968165,-148.0
2023-08-09 18:09:55.975856,-148.0
2023-08-09 18:09:55.983546,-145.0
2023-08-09 18:09:55.991237,-138.0
2023-08-09 18:09:55.998927,-136.0
2023-08-09 18:09:56.006618,-138.0
2023-08-09 18:09:56.014309,-133.0
2023-08-09 18:09:56.021999,-126.0
2023-08-09 18:09:56.029690,-131.0
2023-08-09 18:09:56.037380,-136.0
2023-08-09 18:09:56.045071,-131.0
2023-08-09 18:09:56.052761,-121.0
2023-08-09 18:09:56.060452,-121.0
2023-08-09 18:09:56.068142,-121.0
2023-08-09 18:09:56.075833,-119.0
2023-08-09 18:09:56.083523,-114.0
2023-08-09 18:09:56.091214,-114.0
2023-08-09 18:09:56.098905,-119.0
2023-08-09 18:09:56.106595,-114.0
2023-08-09 18:09:56.114286,-107.0
2023-08-09 18:09:56.121976,-107.0
2023-08-09 18:09:56.129667,-107.0
2023-08-09 18:09:56.137357,-100.0
2023-08-09 18:09:56.145048,-97.0
2023-08-09 18:09:56.152738,-95.0
2023-08-09 18:09:56.160429,-90.0
2023-08-09 18:09:56.168119,-88.0
2023-08-09 18:09:56.175810,-88.0
2023-08-09 18:09:56.183500,-85.0
2023-08-09 18:09:56.191191,-85.0
2023-08-09 18:09:56.198882,-83.0
2023-08-09 18:09:56.206572,-81.0
2023-08-09 18:09:56.214263,-81.0
2023-08-09 18:09:56.221953,-76.0
2023-08-09 18:09:56.229644,-74.0
2023-08-09 18:09:56.237334,-76.0
2023-08-09 18:09:56.245025,-74.0
2023-08-09 18:09:56.252715,-64.0
2023-08-09 18:09:56.260406,-62.0
2023-08-09 18:09:56.268096,-64.0
2023-08-09 18:09:56.275787,-64.0
2023-08-09 18:09:56.283478,-64.0
2023-08-09 18:09:56.291168,-66.0
2023-08-09 18:09:56.298859,-59.0
2023-08-09 18:09:56.306549,-50.0
2023-08-09 18:09:56.314240,-35.0
2023-08-09 18:09:56.321930,-23.0
2023-08-09 18:09:56.329621,-16.0
2023-08-09 18:09:56.337311,-14.0
2023-08-09 18:09:56.345002,-28.0
2023-08-09 18:09:56.352692,-52.0
2023-08-09 18:09:56.360383,-59.0
2023-08-09 18:09:56.368074,-59.0
2023-08-09 18:09:56.375764,-59.0
2023-08-09 18:09:56.383455,-59.0
2023-08-09 18:09:56.391145,-62.0
2023-08-09 18:09:56.398836,-64.0
2023-08-09 18:09:56.406526,-69.0
2023-08-09 18:09:56.414217,-83.0
2023-08-09 18:09:56.421907,-42.0
2023-08-09 18:09:56.429598,222.0
2023-08-09 18:09:56.437288,740.0
2023-08-09 18:09:56.444979,1230.0
2023-08-09 18:09:56.452669,1294.0
2023-08-09 18:09:56.460360,857.0
2023-08-09 18:09:56.468051,255.0
2023-08-09 18:09:56.475741,-107.0
2023-08-09 18:09:56.483432,-155.0
2023-08-09 18:09:56.491122,-136.0
2023-08-09 18:09:56.498813,-191.0
2023-08-09 18:09:56.506503,-214.0
2023-08-09 18:09:56.514194,-195.0
2023-08-09 18:09:56.521884,-193.0
2023-08-09 18:09:56.529575,-193.0
2023-08-09 18:09:56.537265,-179.0
2023-08-09 18:09:56.544956,-164.0
2023-08-09 18:09:56.552647,-150.0
2023-08-09 18:09:56.560337,-133.0
2023-08-09 18:09:56.568028,-117.0
2023-08-09 18:09:56.575718,-102.0
2023-08-09 18:09:56.583409,-90.0
2023-08-09 18:09:56.591099,-76.0
2023-08-09 18:09:56.598790,-54.0
2023-08-09 18:09:56.606480,-35.0
2023-08-09 18:09:56.614171,-21.0
2023-08-09 18:09:56.621861,-7.0
2023-08-09 18:09:56.629552,7.0
2023-08-09 18:09:56.637243,16.0
2023-08-09 18:09:56.644933,33.0
2023-08-09 18:09:56.652624,54.0
2023-08-09 18:09:56.660314,71.0
2023-08-09 18:09:56.668005,78.0
2023-08-09 18:09:56.675695,85.0
2023-08-09 18:09:56.683386,88.0
2023-08-09 18:09:56.691076,81.0
2023-08-09 18:09:56.698767,71.0
2023-08-09 18:09:56.706457,57.0
2023-08-09 18:09:56.714148,35.0
2023-08-09 18:09:56.721838,2.0
2023-08-09 18:09:56.729529,-33.0
2023-08-09 18:09:56.737220,-66.0
2023-08-09 18:09:56.744910,-95.0
2023-08-09 18:09:56.752601,-117.0
2023-08-09 18:09:56.760291,-136.0
2023-08-09 18:09:56.767982,-150.0
2023-08-09 18:09:56.775672,-155.0
2023-08-09 18:09:56.783363,-157.0
2023-08-09 18:09:56.791053,-157.0
2023-08-09 18:09:56.798744,-157.0
2023-08-09 18:09:56.806434,-155.0
2023-08-09 18:09:56.814125,-150.0
2023-08-09 18:09:56.821816,-143.0
2023-08-09 18:09:56.829506,-140.0
2023-08-09 18:09:56.837197,-136.0
2023-08-09 18:09:56.844887,-128.0
2023-08-09 18:09:56.852578,-124.0
2023-08-09 18:09:56.860268,-126.0
2023-08-09 18:09:56.867959,-126.0
2023-08-09 18:09:56.875649,-121.0
2023-08-09 18:09:56.883340,-117.0
2023-08-09 18:09:56.891030,-117.0
2023-08-09 18:09:56.898721,-124.0
2023-08-09 18:09:56.906412,-126.0
2023-08-09 18:09:56.914102,-124.0
2023-08-09 18:09:56.921793,-121.0
2023-08-09 18:09:56.929483,-119.0
2023-08-09 18:09:56.937174,-117.0
2023-08-09 18:09:56.944864,-117.0
2023-08-09 18:09:56.952555,-117.0
2023-08-09 18:09:56.960245,-114.0
2023-08-09 18:09:56.967936,-109.0
2023-08-09 18:09:56.975626,-107.0
2023-08-09 18:09:56.983317,-105.0
2023-08-09 18:09:56.991008,-102.0
2023-08-09 18:09:56.998698,-105.0
2023-08-09 18:09:57.006389,-102.0
2023-08-09 18:09:57.014079,-97.0
2023-08-09 18:09:57.021770,-100.0
2023-08-09 18:09:57.029460,-97.0
2023-08-09 18:09:57.037151,-95.0
2023-08-09 18:09:57.044841,-95.0
2023-08-09 18:09:57.052532,-93.0
2023-08-09 18:09:57.060222,-90.0
2023-08-09 18:09:57.067913,-90.0
2023-08-09 18:09:57.075603,-85.0
2023-08-09 18:09:57.083294,-83.0
2023-08-09 18:09:57.090985,-83.0
2023-08-09 18:09:57.098675,-83.0
2023-08-09 18:09:57.106366,-81.0
2023-08-09 18:09:57.114056,-78.0
2023-08-09 18:09:57.121747,-76.0
2023-08-09 18:09:57.129437,-78.0
2023-08-09 18:09:57.137128,-78.0
2023-08-09 18:09:57.144818,-71.0
2023-08-09 18:09:57.152509,-71.0
2023-08-09 18:09:57.160199,-71.0
2023-08-09 18:09:57.167890,-71.0
2023-08-09 18:09:57.175581,-71.0
2023-08-09 18:09:57.183271,-69.0
2023-08-09 18:09:57.190962,-66.0
2023-08-09 18:09:57.198652,-64.0
2023-08-09 18:09:57.206343,-64.0
2023-08-09 18:09:57.214033,-64.0
2023-08-09 18:09:57.221724,-59.0
2023-08-09 18:09:57.229414,-45.0
2023-08-09 18:09:57.237105,-26.0
2023-08-09 18:09:57.244795,-19.0
2023-08-09 18:09:57.252486,-19.0
2023-08-09 18:09:57.260177,-31.0
2023-08-09 18:09:57.267867,-57.0
2023-08-09 18:09:57.275558,-76.0
2023-08-09 18:09:57.283248,-71.0
2023-08-09 18:09:57.290939,-66.0
2023-08-09 18:09:57.298629,-71.0
2023-08-09 18:09:57.306320,-78.0
2023-08-09 18:09:57.314010,-83.0
2023-08-09 18:09:57.321701,-81.0
2023-08-09 18:09:57.329391,-81.0
2023-08-09 18:09:57.337082,-76.0
2023-08-09 18:09:57.344772,83.0
2023-08-09 18:09:57.352463,530.0
2023-08-09 18:09:57.360154,1081.0
2023-08-09 18:09:57.367844,1308.0
2023-08-09 18:09:57.375535,984.0
2023-08-09 18:09:57.383225,374.0
2023-08-09 18:09:57.390916,-57.0
2023-08-09 18:09:57.398606,-171.0
2023-08-09 18:09:57.406297,-157.0
2023-08-09 18:09:57.413987,-193.0
2023-08-09 18:09:57.421678,-229.0
2023-08-09 18:09:57.429368,-219.0
2023-08-09 18:09:57.437059,-217.0
2023-08-09 18:09:57.444750,-214.0
2023-08-09 18:09:57.452440,-200.0
2023-08-09 18:09:57.460131,-188.0
2023-08-09 18:09:57.467821,-181.0
2023-08-09 18:09:57.475512,-164.0
2023-08-09 18:09:57.483202,-150.0
2023-08-09 18:09:57.490893,-140.0
2023-08-09 18:09:57.498583,-121.0
2023-08-09 18:09:57.506274,-102.0
2023-08-09 18:09:57.513964,-88.0
2023-08-09 18:09:57.521655,-76.0
2023-08-09 18:09:57.529346,-62.0
2023-08-09 18:09:57.537036,-38.0
2023-08-09 18:09:57.544727,-19.0
2023-08-09 18:09:57.552417,0.0
2023-08-09 18:09:57.560108,23.0
2023-08-09 18:09:57.567798,47.0
2023-08-09 18:09:57.575489,62.0
2023-08-09 18:09:57.583179,74.0
2023-08-09 18:09:57.590870,83.0
2023-08-09 18:09:57.598560,85.0
2023-08-09 18:09:57.606251,85.0
2023-08-09 18:09:57.613941,81.0
2023-08-09 18:09:57.621632,59.0
2023-08-09 18:09:57.629323,31.0
2023-08-09 18:09:57.637013,-2.0
2023-08-09 18:09:57.644704,-40.0
2023-08-09 18:09:57.652394,-76.0
2023-08-09 18:09:57.660085,-107.0
2023-08-09 18:09:57.667775,-131.0
2023-08-09 18:09:57.675466,-155.0
2023-08-09 18:09:57.683156,-171.0
2023-08-09 18:09:57.690847,-179.0
2023-08-09 18:09:57.698537,-183.0
2023-08-09 18:09:57.706228,-186.0
2023-08-09 18:09:57.713919,-186.0
2023-08-09 18:09:57.721609,-179.0
2023-08-09 18:09:57.729300,-171.0
2023-08-09 18:09:57.736990,-164.0
2023-08-09 18:09:57.744681,-160.0
2023-08-09 18:09:57.752371,-157.0
2023-08-09 18:09:57.760062,-155.0
2023-08-09 18:09:57.767752,-152.0
2023-08-09 18:09:57.775443,-150.0
2023-08-09 18:09:57.783133,-148.0
2023-08-09 18:09:57.790824,-143.0
2023-08-09 18:09:57.798515,-143.0
2023-08-09 18:09:57.806205,-150.0
2023-08-09 18:09:57.813896,-150.0
2023-08-09 18:09:57.821586,-145.0
2023-08-09 18:09:57.829277,-148.0
2023-08-09 18:09:57.836967,-150.0
2023-08-09 18:09:57.844658,-145.0
2023-08-09 18:09:57.852348,-140.0
2023-08-09 18:09:57.860039,-138.0
2023-08-09 18:09:57.867729,-136.0
2023-08-09 18:09:57.875420,-136.0
2023-08-09 18:09:57.883110,-133.0
2023-08-09 18:09:57.890801,-128.0
2023-08-09 18:09:57.898492,-128.0
2023-08-09 18:09:57.906182,-131.0
2023-08-09 18:09:57.913873,-128.0
2023-08-09 18:09:57.921563,-126.0
2023-08-09 18:09:57.929254,-126.0
2023-08-09 18:09:57.936944,-124.0
2023-08-09 18:09:57.944635,-119.0
2023-08-09 18:09:57.952325,-117.0
2023-08-09 18:09:57.960016,-114.0
2023-08-09 18:09:57.967706,-112.0
2023-08-09 18:09:57.975397,-107.0
2023-08-09 18:09:57.983088,-105.0
2023-08-09 18:09:57.990778,-105.0
2023-08-09 18:09:57.998469,-102.0
2023-08-09 18:09:58.006159,-105.0
2023-08-09 18:09:58.013850,-105.0
2023-08-09 18:09:58.021540,-100.0
2023-08-09 18:09:58.029231,-100.0
2023-08-09 18:09:58.036921,-97.0
2023-08-09 18:09:58.044612,-90.0
2023-08-09 18:09:58.052302,-88.0
2023-08-09 18:09:58.059993,-90.0
2023-08-09 18:09:58.067684,-88.0
2023-08-09 18:09:58.075374,-83.0
2023-08-09 18:09:58.083065,-74.0
2023-08-09 18:09:58.090755,-52.0
2023-08-09 18:09:58.098446,-38.0
2023-08-09 18:09:58.106136,-33.0
2023-08-09 18:09:58.113827,-35.0
2023-08-09 18:09:58.121517,-47.0
2023-08-09 18:09:58.129208,-69.0
2023-08-09 18:09:58.136898,-78.0
2023-08-09 18:09:58.144589,-76.0
2023-08-09 18:09:58.152280,-76.0
2023-08-09 18:09:58.159970,-76.0
2023-08-09 18:09:58.167661,-74.0
2023-08-09 18:09:58.175351,-66.0
2023-08-09 18:09:58.183042,-64.0
2023-08-09 18:09:58.190732,-74.0
2023-08-09 18:09:58.198423,-28.0
2023-08-09 18:09:58.206113,262.0
2023-08-09 18:09:58.213804,835.0
2023-08-09 18:09:58.221494,1342.0
2023-08-09 18:09:58.229185,1330.0
2023-08-09 18:09:58.236875,800.0
2023-08-09 18:09:58.244566,183.0
2023-08-09 18:09:58.252257,-131.0
2023-08-09 18:09:58.259947,-145.0
2023-08-09 18:09:58.267638,-136.0
2023-08-09 18:09:58.275328,-193.0
2023-08-09 18:09:58.283019,-207.0
2023-08-09 18:09:58.290709,-188.0
2023-08-09 18:09:58.298400,-188.0
2023-08-09 18:09:58.306090,-183.0
2023-08-09 18:09:58.313781,-167.0
2023-08-09 18:09:58.321471,-155.0
2023-08-09 18:09:58.329162,-145.0
2023-08-09 18:09:58.336853,-133.0
2023-08-09 18:09:58.344543,-124.0
2023-08-09 18:09:58.352234,-112.0
2023-08-09 18:09:58.359924,-93.0
2023-08-09 18:09:58.367615,-71.0
2023-08-09 18:09:58.375305,-57.0
2023-08-09 18:09:58.382996,-45.0
2023-08-09 18:09:58.390686,-31.0
2023-08-09 18:09:58.398377,-14.0
2023-08-09 18:09:58.406067,2.0
2023-08-09 18:09:58.413758,19.0
2023-08-09 18:09:58.421449,42.0
2023-08-09 18:09:58.429139,62.0
2023-08-09 18:09:58.436830,74.0
2023-08-09 18:09:58.444520,85.0
2023-08-09 18:09:58.452211,95.0
2023-08-09 18:09:58.459901,93.0
2023-08-09 18:09:58.467592,83.0
2023-08-09 18:09:58.475282,69.0
2023-08-09 18:09:58.482973,42.0
2023-08-09 18:09:58.490663,9.0
2023-08-09 18:09:58.498354,-26.0
2023-08-09 18:09:58.506044,-69.0
2023-08-09 18:09:58.513735,-105.0
2023-08-09 18:09:58.521426,-138.0
2023-08-09 18:09:58.529116,-164.0
2023-08-09 18:09:58.536807,-179.0
2023-08-09 18:09:58.544497,-188.0
2023-08-09 18:09:58.552188,-193.0
2023-08-09 18:09:58.559878,-193.0
2023-08-09 18:09:58.567569,-193.0
2023-08-09 18:09:58.575259,-191.0
2023-08-09 18:09:58.582950,-181.0
2023-08-09 18:09:58.590640,-169.0
2023-08-09 18:09:58.598331,-164.0
2023-08-09 18:09:58.606022,-160.0
2023-08-09 18:09:58.613712,-155.0
2023-08-09 18:09:58.621403,-148.0
2023-08-09 18:09:58.629093,-140.0
2023-08-09 18:09:58.636784,-136.0
2023-08-09 18:09:58.644474,-133.0
2023-08-09 18:09:58.652165,-131.0
2023-08-09 18:09:58.659855,-131.0
2023-08-09 18:09:58.667546,-131.0
2023-08-09 18:09:58.675236,-131.0
2023-08-09 18:09:58.682927,-131.0
2023-08-09 18:09:58.690618,-128.0
2023-08-09 18:09:58.698308,-126.0
2023-08-09 18:09:58.705999,-126.0
2023-08-09 18:09:58.713689,-124.0
2023-08-09 18:09:58.721380,-119.0
2023-08-09 18:09:58.729070,-117.0
2023-08-09 18:09:58.736761,-117.0
2023-08-09 18:09:58.744451,-119.0
2023-08-09 18:09:58.752142,-119.0
2023-08-09 18:09:58.759832,-114.0
2023-08-09 18:09:58.767523,-109.0
2023-08-09 18:09:58.775213,-109.0
2023-08-09 18:09:58.782904,-107.0
2023-08-09 18:09:58.790595,-105.0
2023-08-09 18:09:58.798285,-102.0
2023-08-09 18:09:58.805976,-100.0
2023-08-09 18:09:58.813666,-95.0
2023-08-09 18:09:58.821357,-93.0
2023-08-09 18:09:58.829047,-90.0
2023-08-09 18:09:58.836738,-90.0
2023-08-09 18:09:58.844428,-90.0
2023-08-09 18:09:58.852119,-88.0
2023-08-09 18:09:58.859809,-81.0
2023-08-09 18:09:58.867500,-78.0
2023-08-09 18:09:58.875191,-78.0
2023-08-09 18:09:58.882881,-78.0
2023-08-09 18:09:58.890572,-78.0
2023-08-09 18:09:58.898262,-74.0
2023-08-09 18:09:58.905953,-78.0
2023-08-09 18:09:58.913643,-83.0
2023-08-09 18:09:58.921334,-74.0
2023-08-09 18:09:58.929024,-59.0
2023-08-09 18:09:58.936715,-52.0
2023-08-09 18:09:58.944405,-42.0
2023-08-09 18:09:58.952096,-38.0
2023-08-09 18:09:58.959787,-50.0
2023-08-09 18:09:58.967477,-71.0
2023-08-09 18:09:58.975168,-83.0
2023-08-09 18:09:58.982858,-85.0
2023-08-09 18:09:58.990549,-85.0
2023-08-09 18:09:58.998239,-85.0
2023-08-09 18:09:59.005930,-81.0
2023-08-09 18:09:59.013620,-78.0
2023-08-09 18:09:59.021311,-83.0
2023-08-09 18:09:59.029001,-100.0
2023-08-09 18:09:59.036692,-78.0
2023-08-09 18:09:59.044383,143.0
2023-08-09 18:09:59.052073,644.0
2023-08-09 18:09:59.059764,1184.0
2023-08-09 18:09:59.067454,1347.0
2023-08-09 18:09:59.075145,979.0
2023-08-09 18:09:59.082835,365.0
2023-08-09 18:09:59.090526,-74.0
2023-08-09 18:09:59.098216,-176.0
2023-08-09 18:09:59.105907,-143.0
2023-08-09 18:09:59.113597,-181.0
2023-08-09 18:09:59.121288,-222.0
2023-08-09 18:09:59.128978,-200.0
2023-08-09 18:09:59.136669,-191.0
2023-08-09 18:09:59.144360,-193.0
2023-08-09 18:09:59.152050,-179.0
2023-08-09 18:09:59.159741,-162.0
2023-08-09 18:09:59.167431,-150.0
2023-08-09 18:09:59.175122,-136.0
2023-08-09 18:09:59.182812,-119.0
2023-08-09 18:09:59.190503,-105.0
2023-08-09 18:09:59.198193,-88.0
2023-08-09 18:09:59.205884,-74.0
2023-08-09 18:09:59.213574,-54.0
2023-08-09 18:09:59.221265,-38.0
2023-08-09 18:09:59.228956,-23.0
2023-08-09 18:09:59.236646,-9.0
2023-08-09 18:09:59.244337,7.0
2023-08-09 18:09:59.252027,26.0
2023-08-09 18:09:59.259718,45.0
2023-08-09 18:09:59.267408,64.0
2023-08-09 18:09:59.275099,85.0
2023-08-09 18:09:59.282789,97.0
2023-08-09 18:09:59.290480,102.0
2023-08-09 18:09:59.298170,102.0
2023-08-09 18:09:59.305861,95.0
2023-08-09 18:09:59.313552,81.0
2023-08-09 18:09:59.321242,57.0
2023-08-09 18:09:59.328933,28.0
2023-08-09 18:09:59.336623,-9.0
2023-08-09 18:09:59.344314,-54.0
2023-08-09 18:09:59.352004,-97.0
2023-08-09 18:09:59.359695,-128.0
2023-08-09 18:09:59.367385,-150.0
2023-08-09 18:09:59.375076,-169.0
2023-08-09 18:09:59.382766,-183.0
2023-08-09 18:09:59.390457,-188.0
2023-08-09 18:09:59.398147,-191.0
2023-08-09 18:09:59.405838,-191.0
2023-08-09 18:09:59.413529,-191.0
2023-08-09 18:09:59.421219,-186.0
2023-08-09 18:09:59.428910,-176.0
2023-08-09 18:09:59.436600,-174.0
2023-08-09 18:09:59.444291,-167.0
2023-08-09 18:09:59.451981,-162.0
2023-08-09 18:09:59.459672,-157.0
2023-08-09 18:09:59.467362,-157.0
2023-08-09 18:09:59.475053,-162.0
2023-08-09 18:09:59.482743,-162.0
2023-08-09 18:09:59.490434,-157.0
2023-08-09 18:09:59.498125,-152.0
2023-08-09 18:09:59.505815,-150.0
2023-08-09 18:09:59.513506,-148.0
2023-08-09 18:09:59.521196,-145.0
2023-08-09 18:09:59.528887,-145.0
2023-08-09 18:09:59.536577,-145.0
2023-08-09 18:09:59.544268,-140.0
2023-08-09 18:09:59.551958,-136.0
2023-08-09 18:09:59.559649,-138.0
2023-08-09 18:09:59.567339,-133.0
2023-08-09 18:09:59.575030,-131.0
2023-08-09 18:09:59.582721,-128.0
2023-08-09 18:09:59.590411,-126.0
2023-08-09 18:09:59.598102,-124.0
2023-08-09 18:09:59.605792,-121.0
2023-08-09 18:09:59.613483,-119.0
2023-08-09 18:09:59.621173,-114.0
2023-08-09 18:09:59.628864,-109.0
2023-08-09 18:09:59.636554,-107.0
2023-08-09 18:09:59.644245,-107.0
2023-08-09 18:09:59.651935,-105.0
2023-08-09 18:09:59.659626,-102.0
2023-08-09 18:09:59.667316,-100.0
2023-08-09 18:09:59.675007,-95.0
2023-08-09 18:09:59.682698,-93.0
2023-08-09 18:09:59.690388,-90.0
2023-08-09 18:09:59.698079,-90.0
2023-08-09 18:09:59.705769,-88.0
2023-08-09 18:09:59.713460,-85.0
2023-08-09 18:09:59.721150,-85.0
2023-08-09 18:09:59.728841,-83.0
2023-08-09 18:09:59.736531,-85.0
2023-08-09 18:09:59.744222,-85.0
2023-08-09 18:09:59.751912,-83.0
2023-08-09 18:09:59.759603,-81.0
2023-08-09 18:09:59.767294,-81.0
2023-08-09 18:09:59.774984,-76.0
2023-08-09 18:09:59.782675,-74.0
2023-08-09 18:09:59.790365,-71.0
2023-08-09 18:09:59.798056,-71.0
2023-08-09 18:09:59.805746,-64.0
2023-08-09 18:09:59.813437,-50.0
2023-08-09 18:09:59.821127,-35.0
2023-08-09 18:09:59.828818,-26.0
2023-08-09 18:09:59.836508,-21.0
2023-08-09 18:09:59.844199,-31.0
2023-08-09 18:09:59.851890,-52.0
2023-08-09 18:09:59.859580,-66.0
2023-08-09 18:09:59.867271,-66.0
2023-08-09 18:09:59.874961,-64.0
2023-08-09 18:09:59.882652,-69.0
2023-08-09 18:09:59.890342,-66.0
2023-08-09 18:09:59.898033,-62.0
2023-08-09 18:09:59.905723,-62.0
2023-08-09 18:09:59.913414,-74.0
2023-08-09 18:09:59.921104,-71.0
2023-08-09 18:09:59.928795,81.0
2023-08-09 18:09:59.936485,513.0
2023-08-09 18:09:59.944176,1067.0
2023-08-09 18:09:59.951867,1344.0
2023-08-09 18:09:59.959557,1089.0
2023-08-09 18:09:59.967248,501.0
2023-08-09 18:09:59.974938,7.0
2023-08-09 18:09:59.982629,-169.0
2023-08-09 18:09:59.990319,-143.0
2023-08-09 18:09:59.998010,-162.0
2023-08-09 18:10:00.005700,-217.0
2023-08-09 18:10:00.013391,-207.0
2023-08-09 18:10:00.021081,-188.0
2023-08-09 18:10:00.028772,-191.0
2023-08-09 18:10:00.036463,-181.0
2023-08-09 18:10:00.044153,-162.0
2023-08-09 18:10:00.051844,-155.0
2023-08-09 18:10:00.059534,-148.0
2023-08-09 18:10:00.067225,-133.0
2023-08-09 18:10:00.074915,-121.0
2023-08-09 18:10:00.082606,-105.0
2023-08-09 18:10:00.090296,-88.0
2023-08-09 18:10:00.097987,-71.0
2023-08-09 18:10:00.105677,-54.0
2023-08-09 18:10:00.113368,-38.0
2023-08-09 18:10:00.121059,-19.0
2023-08-09 18:10:00.128749,2.0
2023-08-09 18:10:00.136440,21.0
2023-08-09 18:10:00.144130,38.0
2023-08-09 18:10:00.151821,59.0
2023-08-09 18:10:00.159511,76.0
2023-08-09 18:10:00.167202,88.0
2023-08-09 18:10:00.174892,93.0
2023-08-09 18:10:00.182583,90.0
2023-08-09 18:10:00.190273,88.0
2023-08-09 18:10:00.197964,81.0
2023-08-09 18:10:00.205655,62.0
2023-08-09 18:10:00.213345,33.0
2023-08-09 18:10:00.221036,-2.0
2023-08-09 18:10:00.228726,-42.0
2023-08-09 18:10:00.236417,-85.0
2023-08-09 18:10:00.244107,-119.0
2023-08-09 18:10:00.251798,-143.0
2023-08-09 18:10:00.259488,-162.0
2023-08-09 18:10:00.267179,-179.0
2023-08-09 18:10:00.274869,-188.0
2023-08-09 18:10:00.282560,-191.0
2023-08-09 18:10:00.290250,-186.0
2023-08-09 18:10:00.297941,-183.0
2023-08-09 18:10:00.305632,-179.0
2023-08-09 18:10:00.313322,-171.0
2023-08-09 18:10:00.321013,-167.0
2023-08-09 18:10:00.328703,-162.0
2023-08-09 18:10:00.336394,-155.0
2023-08-09 18:10:00.344084,-150.0
2023-08-09 18:10:00.351775,-148.0
2023-08-09 18:10:00.359465,-148.0
2023-08-09 18:10:00.367156,-145.0
2023-08-09 18:10:00.374846,-143.0
2023-08-09 18:10:00.382537,-136.0
2023-08-09 18:10:00.390228,-133.0
2023-08-09 18:10:00.397918,-133.0
2023-08-09 18:10:00.405609,-133.0
2023-08-09 18:10:00.413299,-133.0
2023-08-09 18:10:00.420990,-133.0
2023-08-09 18:10:00.428680,-136.0
2023-08-09 18:10:00.436371,-138.0
2023-08-09 18:10:00.444061,-136.0
2023-08-09 18:10:00.451752,-133.0
2023-08-09 18:10:00.459442,-136.0
2023-08-09 18:10:00.467133,-136.0
2023-08-09 18:10:00.474824,-136.0
2023-08-09 18:10:00.482514,-131.0
2023-08-09 18:10:00.490205,-126.0
2023-08-09 18:10:00.497895,-126.0
2023-08-09 18:10:00.505586,-126.0
2023-08-09 18:10:00.513276,-121.0
2023-08-09 18:10:00.520967,-114.0
2023-08-09 18:10:00.528657,-112.0
2023-08-09 18:10:00.536348,-112.0
2023-08-09 18:10:00.544038,-112.0
2023-08-09 18:10:00.551729,-109.0
2023-08-09 18:10:00.559419,-107.0
2023-08-09 18:10:00.567110,-107.0
2023-08-09 18:10:00.574801,-102.0
2023-08-09 18:10:00.582491,-100.0
2023-08-09 18:10:00.590182,-105.0
2023-08-09 18:10:00.597872,-102.0
2023-08-09 18:10:00.605563,-97.0
2023-08-09 18:10:00.613253,-93.0
2023-08-09 18:10:00.620944,-93.0
2023-08-09 18:10:00.628634,-93.0
2023-08-09 18:10:00.636325,-97.0
2023-08-09 18:10:00.644015,-105.0
2023-08-09 18:10:00.651706,-102.0
2023-08-09 18:10:00.659397,-97.0
2023-08-09 18:10:00.667087,-95.0
2023-08-09 18:10:00.674778,-95.0
2023-08-09 18:10:00.682468,-95.0
2023-08-09 18:10:00.690159,-93.0
2023-08-09 18:10:00.697849,-90.0
2023-08-09 18:10:00.705540,-88.0
2023-08-09 18:10:00.713230,-90.0
2023-08-09 18:10:00.720921,-93.0
2023-08-09 18:10:00.728611,-90.0
2023-08-09 18:10:00.736302,-88.0
2023-08-09 18:10:00.743993,-85.0
2023-08-09 18:10:00.751683,-76.0
2023-08-09 18:10:00.759374,-57.0
2023-08-09 18:10:00.767064,-42.0
2023-08-09 18:10:00.774755,-38.0
2023-08-09 18:10:00.782445,-40.0
2023-08-09 18:10:00.790136,-52.0
2023-08-09 18:10:00.797826,-71.0
2023-08-09 18:10:00.805517,-83.0
2023-08-09 18:10:00.813207,-83.0
2023-08-09 18:10:00.820898,-85.0
2023-08-09 18:10:00.828588,-83.0
2023-08-09 18:10:00.836279,-78.0
2023-08-09 18:10:00.843970,-76.0
2023-08-09 18:10:00.851660,-74.0
2023-08-09 18:10:00.859351,-83.0
2023-08-09 18:10:00.867041,-52.0
2023-08-09 18:10:00.874732,183.0
2023-08-09 18:10:00.882422,697.0
2023-08-09 18:10:00.890113,1218.0
2023-08-09 18:10:00.897803,1313.0
2023-08-09 18:10:00.905494,871.0
2023-08-09 18:10:00.913184,257.0
2023-08-09 18:10:00.920875,-102.0
2023-08-09 18:10:00.928566,-160.0
2023-08-09 18:10:00.936256,-155.0
2023-08-09 18:10:00.943947,-205.0
2023-08-09 18:10:00.951637,-229.0
2023-08-09 18:10:00.959328,-212.0
2023-08-09 18:10:00.967018,-210.0
2023-08-09 18:10:00.974709,-205.0
2023-08-09 18:10:00.982399,-186.0
2023-08-09 18:10:00.990090,-176.0
2023-08-09 18:10:00.997780,-167.0
2023-08-09 18:10:01.005471,-148.0
2023-08-09 18:10:01.013162,-133.0
2023-08-09 18:10:01.020852,-121.0
2023-08-09 18:10:01.028543,-102.0
2023-08-09 18:10:01.036233,-83.0
2023-08-09 18:10:01.043924,-71.0
2023-08-09 18:10:01.051614,-57.0
2023-08-09 18:10:01.059305,-38.0
2023-08-09 18:10:01.066995,-23.0
2023-08-09 18:10:01.074686,-2.0
2023-08-09 18:10:01.082376,16.0
2023-08-09 18:10:01.090067,33.0
2023-08-09 18:10:01.097757,47.0
2023-08-09 18:10:01.105448,69.0
2023-08-09 18:10:01.113139,83.0
2023-08-09 18:10:01.120829,88.0
2023-08-09 18:10:01.128520,90.0
2023-08-09 18:10:01.136210,88.0
2023-08-09 18:10:01.143901,74.0
2023-08-09 18:10:01.151591,52.0
2023-08-09 18:10:01.159282,26.0
2023-08-09 18:10:01.166972,-11.0
2023-08-09 18:10:01.174663,-59.0
2023-08-09 18:10:01.182353,-105.0
2023-08-09 18:10:01.190044,-140.0
2023-08-09 18:10:01.197735,-167.0
2023-08-09 18:10:01.205425,-188.0
2023-08-09 18:10:01.213116,-205.0
2023-08-09 18:10:01.220806,-212.0
2023-08-09 18:10:01.228497,-217.0
2023-08-09 18:10:01.236187,-214.0
2023-08-09 18:10:01.243878,-207.0
2023-08-09 18:10:01.251568,-200.0
2023-08-09 18:10:01.259259,-193.0
2023-08-09 18:10:01.266949,-188.0
2023-08-09 18:10:01.274640,-179.0
2023-08-09 18:10:01.282331,-174.0
2023-08-09 18:10:01.290021,-169.0
2023-08-09 18:10:01.297712,-167.0
2023-08-09 18:10:01.305402,-162.0
2023-08-09 18:10:01.313093,-157.0
2023-08-09 18:10:01.320783,-155.0
2023-08-09 18:10:01.328474,-155.0
2023-08-09 18:10:01.336164,-155.0
2023-08-09 18:10:01.343855,-152.0
2023-08-09 18:10:01.351545,-150.0
2023-08-09 18:10:01.359236,-145.0
2023-08-09 18:10:01.366927,-143.0
2023-08-09 18:10:01.374617,-143.0
2023-08-09 18:10:01.382308,-140.0
2023-08-09 18:10:01.389998,-136.0
2023-08-09 18:10:01.397689,-133.0
2023-08-09 18:10:01.405379,-133.0
2023-08-09 18:10:01.413070,-131.0
2023-08-09 18:10:01.420760,-128.0
2023-08-09 18:10:01.428451,-128.0
2023-08-09 18:10:01.436141,-128.0
2023-08-09 18:10:01.443832,-131.0
2023-08-09 18:10:01.451522,-131.0
2023-08-09 18:10:01.459213,-128.0
2023-08-09 18:10:01.466904,-126.0
2023-08-09 18:10:01.474594,-124.0
2023-08-09 18:10:01.482285,-121.0
2023-08-09 18:10:01.489975,-117.0
2023-08-09 18:10:01.497666,-114.0
2023-08-09 18:10:01.505356,-112.0
2023-08-09 18:10:01.513047,-112.0
2023-08-09 18:10:01.520737,-107.0
2023-08-09 18:10:01.528428,-105.0
2023-08-09 18:10:01.536118,-107.0
2023-08-09 18:10:01.543809,-105.0
2023-08-09 18:10:01.551500,-97.0
2023-08-09 18:10:01.559190,-93.0
2023-08-09 18:10:01.566881,-90.0
2023-08-09 18:10:01.574571,-93.0
2023-08-09 18:10:01.582262,-90.0
2023-08-09 18:10:01.589952,-88.0
2023-08-09 18:10:01.597643,-85.0
2023-08-09 18:10:01.605333,-83.0
2023-08-09 18:10:01.613024,-81.0
2023-08-09 18:10:01.620714,-81.0
2023-08-09 18:10:01.628405,-78.0
2023-08-09 18:10:01.636096,-76.0
2023-08-09 18:10:01.643786,-74.0
2023-08-09 18:10:01.651477,-71.0
2023-08-09 18:10:01.659167,-69.0
2023-08-09 18:10:01.666858,-71.0
2023-08-09 18:10:01.674548,-71.0
2023-08-09 18:10:01.682239,-64.0
2023-08-09 18:10:01.689929,-50.0
2023-08-09 18:10:01.697620,-38.0
2023-08-09 18:10:01.705310,-31.0
2023-08-09 18:10:01.713001,-26.0
2023-08-09 18:10:01.720691,-38.0
2023-08-09 18:10:01.728382,-64.0
2023-08-09 18:10:01.736073,-76.0
2023-08-09 18:10:01.743763,-78.0
2023-08-09 18:10:01.751454,-81.0
2023-08-09 18:10:01.759144,-78.0
2023-08-09 18:10:01.766835,-76.0
2023-08-09 18:10:01.774525,-71.0
2023-08-09 18:10:01.782216,-66.0
2023-08-09 18:10:01.789906,-69.0
2023-08-09 18:10:01.797597,-78.0
2023-08-09 18:10:01.805287,4.0
2023-08-09 18:10:01.812978,358.0
2023-08-09 18:10:01.820669,926.0
2023-08-09 18:10:01.828359,1337.0
2023-08-09 18:10:01.836050,1239.0
2023-08-09 18:10:01.843740,702.0
2023-08-09 18:10:01.851431,128.0
2023-08-09 18:10:01.859121,-150.0
2023-08-09 18:10:01.866812,-145.0
2023-08-09 18:10:01.874502,-140.0
2023-08-09 18:10:01.882193,-203.0
2023-08-09 18:10:01.889883,-210.0
2023-08-09 18:10:01.897574,-186.0
2023-08-09 18:10:01.905265,-186.0
2023-08-09 18:10:01.912955,-181.0
2023-08-09 18:10:01.920646,-162.0
2023-08-09 18:10:01.928336,-152.0
2023-08-09 18:10:01.936027,-145.0
2023-08-09 18:10:01.943717,-136.0
2023-08-09 18:10:01.951408,-124.0
2023-08-09 18:10:01.959098,-107.0
2023-08-09 18:10:01.966789,-90.0
2023-08-09 18:10:01.974479,-74.0
2023-08-09 18:10:01.982170,-54.0
2023-08-09 18:10:01.989860,-38.0
2023-08-09 18:10:01.997551,-21.0
2023-08-09 18:10:02.005242,0.0
2023-08-09 18:10:02.012932,23.0
2023-08-09 18:10:02.020623,42.0
2023-08-09 18:10:02.028313,62.0
2023-08-09 18:10:02.036004,78.0
2023-08-09 18:10:02.043694,95.0
2023-08-09 18:10:02.051385,109.0
2023-08-09 18:10:02.059075,112.0
2023-08-09 18:10:02.066766,112.0
2023-08-09 18:10:02.074456,102.0
2023-08-09 18:10:02.082147,83.0
2023-08-09 18:10:02.089838,62.0
2023-08-09 18:10:02.097528,28.0
2023-08-09 18:10:02.105219,-11.0
2023-08-09 18:10:02.112909,-54.0
2023-08-09 18:10:02.120600,-95.0
2023-08-09 18:10:02.128290,-126.0
2023-08-09 18:10:02.135981,-150.0
2023-08-09 18:10:02.143671,-167.0
2023-08-09 18:10:02.151362,-179.0
2023-08-09 18:10:02.159052,-183.0
2023-08-09 18:10:02.166743,-183.0
2023-08-09 18:10:02.174434,-181.0
2023-08-09 18:10:02.182124,-176.0
2023-08-09 18:10:02.189815,-174.0
2023-08-09 18:10:02.197505,-171.0
2023-08-09 18:10:02.205196,-162.0
2023-08-09 18:10:02.212886,-155.0
2023-08-09 18:10:02.220577,-152.0
2023-08-09 18:10:02.228267,-148.0
2023-08-09 18:10:02.235958,-140.0
2023-08-09 18:10:02.243648,-138.0
2023-08-09 18:10:02.251339,-138.0
2023-08-09 18:10:02.259030,-140.0
2023-08-09 18:10:02.266720,-143.0
2023-08-09 18:10:02.274411,-140.0
2023-08-09 18:10:02.282101,-138.0
2023-08-09 18:10:02.289792,-138.0
2023-08-09 18:10:02.297482,-133.0
2023-08-09 18:10:02.305173,-133.0
2023-08-09 18:10:02.312863,-136.0
2023-08-09 18:10:02.320554,-131.0
2023-08-09 18:10:02.328244,-126.0
2023-08-09 18:10:02.335935,-128.0
2023-08-09 18:10:02.343625,-128.0
2023-08-09 18:10:02.351316,-126.0
2023-08-09 18:10:02.359007,-121.0
2023-08-09 18:10:02.366697,-117.0
2023-08-09 18:10:02.374388,-114.0
2023-08-09 18:10:02.382078,-112.0
2023-08-09 18:10:02.389769,-109.0
2023-08-09 18:10:02.397459,-109.0
2023-08-09 18:10:02.405150,-105.0
2023-08-09 18:10:02.412840,-100.0
2023-08-09 18:10:02.420531,-97.0
2023-08-09 18:10:02.428221,-97.0
2023-08-09 18:10:02.435912,-97.0
2023-08-09 18:10:02.443603,-102.0
2023-08-09 18:10:02.451293,-105.0
2023-08-09 18:10:02.458984,-102.0
2023-08-09 18:10:02.466674,-97.0
2023-08-09 18:10:02.474365,-95.0
2023-08-09 18:10:02.482055,-93.0
2023-08-09 18:10:02.489746,-93.0
2023-08-09 18:10:02.497436,-90.0
2023-08-09 18:10:02.505127,-85.0
2023-08-09 18:10:02.512817,-83.0
2023-08-09 18:10:02.520508,-83.0
2023-08-09 18:10:02.528199,-85.0
2023-08-09 18:10:02.535889,-85.0
2023-08-09 18:10:02.543580,-78.0
2023-08-09 18:10:02.551270,-76.0
2023-08-09 18:10:02.558961,-76.0
2023-08-09 18:10:02.566651,-76.0
2023-08-09 18:10:02.574342,-74.0
2023-08-09 18:10:02.582032,-76.0
2023-08-09 18:10:02.589723,-74.0
2023-08-09 18:10:02.597413,-71.0
2023-08-09 18:10:02.605104,-69.0
2023-08-09 18:10:02.612794,-69.0
2023-08-09 18:10:02.620485,-71.0
2023-08-09 18:10:02.628176,-71.0
2023-08-09 18:10:02.635866,-69.0
2023-08-09 18:10:02.643557,-66.0
2023-08-09 18:10:02.651247,-64.0
2023-08-09 18:10:02.658938,-54.0
2023-08-09 18:10:02.666628,-40.0
2023-08-09 18:10:02.674319,-31.0
2023-08-09 18:10:02.682009,-28.0
2023-08-09 18:10:02.689700,-26.0
2023-08-09 18:10:02.697390,-33.0
2023-08-09 18:10:02.705081,-52.0
2023-08-09 18:10:02.712772,-71.0
2023-08-09 18:10:02.720462,-76.0
2023-08-09 18:10:02.728153,-74.0
2023-08-09 18:10:02.735843,-74.0
2023-08-09 18:10:02.743534,-71.0
2023-08-09 18:10:02.751224,-69.0
2023-08-09 18:10:02.758915,-66.0
2023-08-09 18:10:02.766605,-74.0
2023-08-09 18:10:02.774296,-78.0
2023-08-09 18:10:02.781986,54.0
2023-08-09 18:10:02.789677,463.0
2023-08-09 18:10:02.797368,1012.0
2023-08-09 18:10:02.805058,1332.0
2023-08-09 18:10:02.812749,1141.0
2023-08-09 18:10:02.820439,578.0
2023-08-09 18:10:02.828130,50.0
2023-08-09 18:10:02.835820,-176.0
2023-08-09 18:10:02.843511,-167.0
2023-08-09 18:10:02.851201,-176.0
2023-08-09 18:10:02.858892,-234.0
2023-08-09 18:10:02.866582,-229.0
2023-08-09 18:10:02.874273,-210.0
2023-08-09 18:10:02.881963,-212.0
2023-08-09 18:10:02.889654,-203.0
2023-08-09 18:10:02.897345,-183.0
2023-08-09 18:10:02.905035,-171.0
2023-08-09 18:10:02.912726,-155.0
2023-08-09 18:10:02.920416,-138.0
2023-08-09 18:10:02.928107,-126.0
2023-08-09 18:10:02.935797,-114.0
2023-08-09 18:10:02.943488,-95.0
2023-08-09 18:10:02.951178,-81.0
2023-08-09 18:10:02.958869,-69.0
2023-08-09 18:10:02.966559,-47.0
2023-08-09 18:10:02.974250,-28.0
2023-08-09 18:10:02.981941,-9.0
2023-08-09 18:10:02.989631,11.0
2023-08-09 18:10:02.997322,33.0
2023-08-09 18:10:03.005012,54.0
2023-08-09 18:10:03.012703,74.0
2023-08-09 18:10:03.020393,90.0
2023-08-09 18:10:03.028084,102.0
2023-08-09 18:10:03.035774,107.0
2023-08-09 18:10:03.043465,107.0
2023-08-09 18:10:03.051155,100.0
2023-08-09 18:10:03.058846,83.0
2023-08-09 18:10:03.066537,59.0
2023-08-09 18:10:03.074227,26.0
2023-08-09 18:10:03.081918,-14.0
2023-08-09 18:10:03.089608,-57.0
2023-08-09 18:10:03.097299,-97.0
2023-08-09 18:10:03.104989,-126.0
2023-08-09 18:10:03.112680,-150.0
2023-08-09 18:10:03.120370,-169.0
2023-08-09 18:10:03.128061,-181.0
2023-08-09 18:10:03.135751,-183.0
2023-08-09 18:10:03.143442,-181.0
2023-08-09 18:10:03.151132,-179.0
2023-08-09 18:10:03.158823,-179.0
2023-08-09 18:10:03.166514,-174.0
2023-08-09 18:10:03.174204,-169.0
2023-08-09 18:10:03.181895,-167.0
2023-08-09 18:10:03.189585,-162.0
2023-08-09 18:10:03.197276,-152.0
2023-08-09 18:10:03.204966,-148.0
2023-08-09 18:10:03.212657,-148.0
2023-08-09 18:10:03.220347,-145.0
2023-08-09 18:10:03.228038,-140.0
2023-08-09 18:10:03.235728,-138.0
2023-08-09 18:10:03.243419,-136.0
2023-08-09 18:10:03.251110,-131.0
2023-08-09 18:10:03.258800,-128.0
2023-08-09 18:10:03.266491,-126.0
2023-08-09 18:10:03.274181,-126.0
2023-08-09 18:10:03.281872,-124.0
2023-08-09 18:10:03.289562,-124.0
2023-08-09 18:10:03.297253,-126.0
2023-08-09 18:10:03.304943,-126.0
2023-08-09 18:10:03.312634,-124.0
2023-08-09 18:10:03.320324,-124.0
2023-08-09 18:10:03.328015,-124.0
2023-08-09 18:10:03.335706,-119.0
2023-08-09 18:10:03.343396,-117.0
2023-08-09 18:10:03.351087,-114.0
2023-08-09 18:10:03.358777,-112.0
2023-08-09 18:10:03.366468,-112.0
2023-08-09 18:10:03.374158,-112.0
2023-08-09 18:10:03.381849,-114.0
2023-08-09 18:10:03.389539,-114.0
2023-08-09 18:10:03.397230,-112.0
2023-08-09 18:10:03.404920,-107.0
2023-08-09 18:10:03.412611,-109.0
2023-08-09 18:10:03.420302,-107.0
2023-08-09 18:10:03.427992,-105.0
2023-08-09 18:10:03.435683,-102.0
2023-08-09 18:10:03.443373,-102.0
2023-08-09 18:10:03.451064,-100.0
2023-08-09 18:10:03.458754,-102.0
2023-08-09 18:10:03.466445,-105.0
2023-08-09 18:10:03.474135,-102.0
2023-08-09 18:10:03.481826,-100.0
2023-08-09 18:10:03.489516,-97.0
2023-08-09 18:10:03.497207,-95.0
2023-08-09 18:10:03.504897,-93.0
2023-08-09 18:10:03.512588,-93.0
2023-08-09 18:10:03.520279,-90.0
2023-08-09 18:10:03.527969,-90.0
2023-08-09 18:10:03.535660,-85.0
2023-08-09 18:10:03.543350,-85.0
2023-08-09 18:10:03.551041,-83.0
2023-08-09 18:10:03.558731,-81.0
2023-08-09 18:10:03.566422,-78.0
2023-08-09 18:10:03.574112,-81.0
2023-08-09 18:10:03.581803,-81.0
2023-08-09 18:10:03.589493,-78.0
2023-08-09 18:10:03.597184,-78.0
2023-08-09 18:10:03.604875,-76.0
2023-08-09 18:10:03.612565,-76.0
2023-08-09 18:10:03.620256,-74.0
2023-08-09 18:10:03.627946,-69.0
2023-08-09 18:10:03.635637,-69.0
2023-08-09 18:10:03.643327,-66.0
2023-08-09 18:10:03.651018,-57.0
2023-08-09 18:10:03.658708,-45.0
2023-08-09 18:10:03.666399,-38.0
2023-08-09 18:10:03.674089,-33.0
2023-08-09 18:10:03.681780,-38.0
2023-08-09 18:10:03.689471,-57.0
2023-08-09 18:10:03.697161,-81.0
2023-08-09 18:10:03.704852,-88.0
2023-08-09 18:10:03.712542,-85.0
2023-08-09 18:10:03.720233,-85.0
2023-08-09 18:10:03.727923,-85.0
2023-08-09 18:10:03.735614,-83.0
2023-08-09 18:10:03.743304,-78.0
2023-08-09 18:10:03.750995,-81.0
2023-08-09 18:10:03.758685,-95.0
2023-08-09 18:10:03.766376,-50.0
2023-08-09 18:10:03.774066,219.0
2023-08-09 18:10:03.781757,733.0
2023-08-09 18:10:03.789448,1210.0
2023-08-09 18:10:03.797138,1275.0
2023-08-09 18:10:03.804829,857.0
2023-08-09 18:10:03.812519,269.0
2023-08-09 18:10:03.820210,-105.0
2023-08-09 18:10:03.827900,-169.0
2023-08-09 18:10:03.835591,-150.0
2023-08-09 18:10:03.843281,-195.0
2023-08-09 18:10:03.850972,-219.0
2023-08-09 18:10:03.858662,-200.0
2023-08-09 18:10:03.866353,-193.0
2023-08-09 18:10:03.874044,-193.0
2023-08-09 18:10:03.881734,-176.0
2023-08-09 18:10:03.889425,-162.0
2023-08-09 18:10:03.897115,-150.0
2023-08-09 18:10:03.904806,-136.0
2023-08-09 18:10:03.912496,-124.0
2023-08-09 18:10:03.920187,-114.0
2023-08-09 18:10:03.927877,-100.0
2023-08-09 18:10:03.935568,-78.0
2023-08-09 18:10:03.943258,-59.0
2023-08-09 18:10:03.950949,-42.0
2023-08-09 18:10:03.958640,-31.0
2023-08-09 18:10:03.966330,-16.0
2023-08-09 18:10:03.974021,2.0
2023-08-09 18:10:03.981711,26.0
2023-08-09 18:10:03.989402,47.0
2023-08-09 18:10:03.997092,66.0
2023-08-09 18:10:04.004783,85.0
2023-08-09 18:10:04.012473,95.0
2023-08-09 18:10:04.020164,97.0
2023-08-09 18:10:04.027854,100.0
2023-08-09 18:10:04.035545,97.0
2023-08-09 18:10:04.043235,88.0
2023-08-09 18:10:04.050926,69.0
2023-08-09 18:10:04.058617,42.0
2023-08-09 18:10:04.066307,2.0
2023-08-09 18:10:04.073998,-38.0
2023-08-09 18:10:04.081688,-78.0
2023-08-09 18:10:04.089379,-117.0
2023-08-09 18:10:04.097069,-145.0
2023-08-09 18:10:04.104760,-162.0
2023-08-09 18:10:04.112450,-176.0
2023-08-09 18:10:04.120141,-188.0
2023-08-09 18:10:04.127831,-191.0
2023-08-09 18:10:04.135522,-186.0
2023-08-09 18:10:04.143213,-181.0
2023-08-09 18:10:04.150903,-179.0
2023-08-09 18:10:04.158594,-181.0
2023-08-09 18:10:04.166284,-176.0
2023-08-09 18:10:04.173975,-167.0
2023-08-09 18:10:04.181665,-157.0
2023-08-09 18:10:04.189356,-155.0
2023-08-09 18:10:04.197046,-152.0
2023-08-09 18:10:04.204737,-148.0
2023-08-09 18:10:04.212427,-145.0
2023-08-09 18:10:04.220118,-140.0
2023-08-09 18:10:04.227809,-136.0
2023-08-09 18:10:04.235499,-136.0
2023-08-09 18:10:04.243190,-138.0
2023-08-09 18:10:04.250880,-136.0
2023-08-09 18:10:04.258571,-128.0
2023-08-09 18:10:04.266261,-126.0
2023-08-09 18:10:04.273952,-124.0
2023-08-09 18:10:04.281642,-124.0
2023-08-09 18:10:04.289333,-128.0
2023-08-09 18:10:04.297023,-126.0
2023-08-09 18:10:04.304714,-119.0
2023-08-09 18:10:04.312404,-119.0
2023-08-09 18:10:04.320095,-117.0
2023-08-09 18:10:04.327786,-114.0
2023-08-09 18:10:04.335476,-114.0
2023-08-09 18:10:04.343167,-112.0
2023-08-09 18:10:04.350857,-109.0
2023-08-09 18:10:04.358548,-107.0
2023-08-09 18:10:04.366238,-107.0
2023-08-09 18:10:04.373929,-105.0
2023-08-09 18:10:04.381619,-105.0
2023-08-09 18:10:04.389310,-102.0
2023-08-09 18:10:04.397000,-97.0
2023-08-09 18:10:04.404691,-97.0
2023-08-09 18:10:04.412382,-100.0
2023-08-09 18:10:04.420072,-100.0
2023-08-09 18:10:04.427763,-97.0
2023-08-09 18:10:04.435453,-95.0
2023-08-09 18:10:04.443144,-95.0
2023-08-09 18:10:04.450834,-90.0
2023-08-09 18:10:04.458525,-88.0
2023-08-09 18:10:04.466215,-90.0
2023-08-09 18:10:04.473906,-97.0
2023-08-09 18:10:04.481596,-97.0
2023-08-09 18:10:04.489287,-93.0
2023-08-09 18:10:04.496978,-88.0
2023-08-09 18:10:04.504668,-88.0
2023-08-09 18:10:04.512359,-90.0
2023-08-09 18:10:04.520049,-93.0
2023-08-09 18:10:04.527740,-88.0
2023-08-09 18:10:04.535430,-85.0
2023-08-09 18:10:04.543121,-83.0
2023-08-09 18:10:04.550811,-88.0
2023-08-09 18:10:04.558502,-97.0
2023-08-09 18:10:04.566192,-97.0
2023-08-09 18:10:04.573883,-90.0
2023-08-09 18:10:04.581574,-88.0
2023-08-09 18:10:04.589264,-88.0
2023-08-09 18:10:04.596955,-88.0
2023-08-09 18:10:04.604645,-90.0
2023-08-09 18:10:04.612336,-90.0
2023-08-09 18:10:04.620026,-78.0
2023-08-09 18:10:04.627717,-64.0
2023-08-09 18:10:04.635407,-50.0
2023-08-09 18:10:04.643098,-42.0
2023-08-09 18:10:04.650788,-47.0
2023-08-09 18:10:04.658479,-62.0
2023-08-09 18:10:04.666169,-78.0
2023-08-09 18:10:04.673860,-90.0
2023-08-09 18:10:04.681551,-95.0
2023-08-09 18:10:04.689241,-90.0
2023-08-09 18:10:04.696932,-88.0
2023-08-09 18:10:04.704622,-88.0
2023-08-09 18:10:04.712313,-83.0
2023-08-09 18:10:04.720003,-78.0
2023-08-09 18:10:04.727694,-83.0
2023-08-09 18:10:04.735384,-76.0
2023-08-09 18:10:04.743075,88.0
2023-08-09 18:10:04.750765,549.0
2023-08-09 18:10:04.758456,1127.0
2023-08-09 18:10:04.766147,1373.0
2023-08-09 18:10:04.773837,1039.0
2023-08-09 18:10:04.781528,417.0
2023-08-09 18:10:04.789218,-28.0
2023-08-09 18:10:04.796909,-155.0
2023-08-09 18:10:04.804599,-136.0
2023-08-09 18:10:04.812290,-164.0
2023-08-09 18:10:04.819980,-205.0
2023-08-09 18:10:04.827671,-195.0
2023-08-09 18:10:04.835361,-186.0
2023-08-09 18:10:04.843052,-183.0
2023-08-09 18:10:04.850743,-167.0
2023-08-09 18:10:04.858433,-150.0
2023-08-09 18:10:04.866124,-138.0
2023-08-09 18:10:04.873814,-126.0
2023-08-09 18:10:04.881505,-107.0
2023-08-09 18:10:04.889195,-93.0
2023-08-09 18:10:04.896886,-78.0
2023-08-09 18:10:04.904576,-62.0
2023-08-09 18:10:04.912267,-45.0
2023-08-09 18:10:04.919957,-28.0
2023-08-09 18:10:04.927648,-9.0
2023-08-09 18:10:04.935338,9.0
2023-08-09 18:10:04.943029,33.0
2023-08-09 18:10:04.950720,52.0
2023-08-09 18:10:04.958410,71.0
2023-08-09 18:10:04.966101,93.0
2023-08-09 18:10:04.973791,112.0
2023-08-09 18:10:04.981482,121.0
2023-08-09 18:10:04.989172,126.0
2023-08-09 18:10:04.996863,131.0
2023-08-09 18:10:05.004553,128.0
2023-08-09 18:10:05.012244,112.0
2023-08-09 18:10:05.019934,93.0
2023-08-09 18:10:05.027625,69.0
2023-08-09 18:10:05.035316,33.0
2023-08-09 18:10:05.043006,-7.0
2023-08-09 18:10:05.050697,-50.0
2023-08-09 18:10:05.058387,-90.0
2023-08-09 18:10:05.066078,-119.0
2023-08-09 18:10:05.073768,-140.0
2023-08-09 18:10:05.081459,-160.0
2023-08-09 18:10:05.089149,-174.0
2023-08-09 18:10:05.096840,-183.0
2023-08-09 18:10:05.104530,-188.0
2023-08-09 18:10:05.112221,-186.0
2023-08-09 18:10:05.119912,-179.0
2023-08-09 18:10:05.127602,-171.0
2023-08-09 18:10:05.135293,-162.0
2023-08-09 18:10:05.142983,-157.0
2023-08-09 18:10:05.150674,-155.0
2023-08-09 18:10:05.158364,-150.0
2023-08-09 18:10:05.166055,-143.0
2023-08-09 18:10:05.173745,-140.0
2023-08-09 18:10:05.181436,-138.0
2023-08-09 18:10:05.189126,-133.0
2023-08-09 18:10:05.196817,-128.0
2023-08-09 18:10:05.204507,-126.0
2023-08-09 18:10:05.212198,-126.0
2023-08-09 18:10:05.219889,-126.0
2023-08-09 18:10:05.227579,-126.0
2023-08-09 18:10:05.235270,-124.0
2023-08-09 18:10:05.242960,-121.0
2023-08-09 18:10:05.250651,-121.0
2023-08-09 18:10:05.258341,-121.0
2023-08-09 18:10:05.266032,-117.0
2023-08-09 18:10:05.273722,-117.0
2023-08-09 18:10:05.281413,-117.0
2023-08-09 18:10:05.289103,-114.0
2023-08-09 18:10:05.296794,-112.0
2023-08-09 18:10:05.304485,-109.0
2023-08-09 18:10:05.312175,-107.0
2023-08-09 18:10:05.319866,-107.0
2023-08-09 18:10:05.327556,-105.0
2023-08-09 18:10:05.335247,-100.0
2023-08-09 18:10:05.342937,-97.0
2023-08-09 18:10:05.350628,-97.0
2023-08-09 18:10:05.358318,-95.0
2023-08-09 18:10:05.366009,-93.0
2023-08-09 18:10:05.373699,-93.0
2023-08-09 18:10:05.381390,-90.0
2023-08-09 18:10:05.389081,-93.0
2023-08-09 18:10:05.396771,-93.0
2023-08-09 18:10:05.404462,-90.0
2023-08-09 18:10:05.412152,-85.0
2023-08-09 18:10:05.419843,-85.0
2023-08-09 18:10:05.427533,-85.0
2023-08-09 18:10:05.435224,-83.0
2023-08-09 18:10:05.442914,-83.0
2023-08-09 18:10:05.450605,-85.0
2023-08-09 18:10:05.458295,-85.0
2023-08-09 18:10:05.465986,-83.0
2023-08-09 18:10:05.473677,-81.0
2023-08-09 18:10:05.481367,-81.0
2023-08-09 18:10:05.489058,-83.0
2023-08-09 18:10:05.496748,-85.0
2023-08-09 18:10:05.504439,-88.0
2023-08-09 18:10:05.512129,-85.0
2023-08-09 18:10:05.519820,-81.0
2023-08-09 18:10:05.527510,-83.0
2023-08-09 18:10:05.535201,-85.0
2023-08-09 18:10:05.542891,-85.0
2023-08-09 18:10:05.550582,-83.0
2023-08-09 18:10:05.558272,-83.0
2023-08-09 18:10:05.565963,-83.0
2023-08-09 18:10:05.573654,-81.0
2023-08-09 18:10:05.581344,-81.0
2023-08-09 18:10:05.589035,-83.0
2023-08-09 18:10:05.596725,-81.0
2023-08-09 18:10:05.604416,-76.0
2023-08-09 18:10:05.612106,-66.0
2023-08-09 18:10:05.619797,-52.0
2023-08-09 18:10:05.627487,-42.0
2023-08-09 18:10:05.635178,-38.0
2023-08-09 18:10:05.642868,-38.0
2023-08-09 18:10:05.650559,-50.0
2023-08-09 18:10:05.658250,-69.0
2023-08-09 18:10:05.665940,-81.0
2023-08-09 18:10:05.673631,-85.0
2023-08-09 18:10:05.681321,-93.0
2023-08-09 18:10:05.689012,-93.0
2023-08-09 18:10:05.696702,-85.0
2023-08-09 18:10:05.704393,-83.0
2023-08-09 18:10:05.712083,-83.0
2023-08-09 18:10:05.719774,-95.0
2023-08-09 18:10:05.727464,-57.0
2023-08-09 18:10:05.735155,200.0
2023-08-09 18:10:05.742846,711.0
2023-08-09 18:10:05.750536,1208.0
2023-08-09 18:10:05.758227,1316.0
2023-08-09 18:10:05.765917,919.0
2023-08-09 18:10:05.773608,312.0
2023-08-09 18:10:05.781298,-97.0
2023-08-09 18:10:05.788989,-174.0
2023-08-09 18:10:05.796679,-143.0
2023-08-09 18:10:05.804370,-186.0
2023-08-09 18:10:05.812060,-224.0
2023-08-09 18:10:05.819751,-207.0
2023-08-09 18:10:05.827441,-198.0
2023-08-09 18:10:05.835132,-195.0
2023-08-09 18:10:05.842823,-176.0
2023-08-09 18:10:05.850513,-162.0
2023-08-09 18:10:05.858204,-157.0
2023-08-09 18:10:05.865894,-138.0
2023-08-09 18:10:05.873585,-119.0
2023-08-09 18:10:05.881275,-109.0
2023-08-09 18:10:05.888966,-97.0
2023-08-09 18:10:05.896656,-81.0
2023-08-09 18:10:05.904347,-64.0
2023-08-09 18:10:05.912037,-45.0
2023-08-09 18:10:05.919728,-23.0
2023-08-09 18:10:05.927419,-4.0
2023-08-09 18:10:05.935109,14.0
2023-08-09 18:10:05.942800,35.0
2023-08-09 18:10:05.950490,54.0
2023-08-09 18:10:05.958181,74.0
2023-08-09 18:10:05.965871,93.0
2023-08-09 18:10:05.973562,109.0
2023-08-09 18:10:05.981252,119.0
2023-08-09 18:10:05.988943,119.0
2023-08-09 18:10:05.996633,109.0
2023-08-09 18:10:06.004324,95.0
2023-08-09 18:10:06.012015,78.0
2023-08-09 18:10:06.019705,52.0
2023-08-09 18:10:06.027396,14.0
2023-08-09 18:10:06.035086,-31.0
2023-08-09 18:10:06.042777,-76.0
2023-08-09 18:10:06.050467,-112.0
2023-08-09 18:10:06.058158,-143.0
2023-08-09 18:10:06.065848,-167.0
2023-08-09 18:10:06.073539,-181.0
2023-08-09 18:10:06.081229,-191.0
2023-08-09 18:10:06.088920,-195.0
2023-08-09 18:10:06.096610,-193.0
2023-08-09 18:10:06.104301,-188.0
2023-08-09 18:10:06.111992,-186.0
2023-08-09 18:10:06.119682,-179.0
2023-08-09 18:10:06.127373,-174.0
2023-08-09 18:10:06.135063,-171.0
2023-08-09 18:10:06.142754,-167.0
2023-08-09 18:10:06.150444,-160.0
2023-08-09 18:10:06.158135,-155.0
2023-08-09 18:10:06.165825,-152.0
2023-08-09 18:10:06.173516,-150.0
2023-08-09 18:10:06.181206,-148.0
2023-08-09 18:10:06.188897,-143.0
2023-08-09 18:10:06.196588,-140.0
2023-08-09 18:10:06.204278,-138.0
2023-08-09 18:10:06.211969,-138.0
2023-08-09 18:10:06.219659,-145.0
2023-08-09 18:10:06.227350,-150.0
2023-08-09 18:10:06.235040,-145.0
2023-08-09 18:10:06.242731,-140.0
2023-08-09 18:10:06.250421,-140.0
2023-08-09 18:10:06.258112,-140.0
2023-08-09 18:10:06.265802,-138.0
2023-08-09 18:10:06.273493,-138.0
2023-08-09 18:10:06.281184,-133.0
2023-08-09 18:10:06.288874,-128.0
2023-08-09 18:10:06.296565,-126.0
2023-08-09 18:10:06.304255,-124.0
2023-08-09 18:10:06.311946,-124.0
2023-08-09 18:10:06.319636,-121.0
2023-08-09 18:10:06.327327,-117.0
2023-08-09 18:10:06.335017,-114.0
2023-08-09 18:10:06.342708,-112.0
2023-08-09 18:10:06.350398,-112.0
2023-08-09 18:10:06.358089,-112.0
2023-08-09 18:10:06.365779,-109.0
2023-08-09 18:10:06.373470,-107.0
2023-08-09 18:10:06.381161,-107.0
2023-08-09 18:10:06.388851,-107.0
2023-08-09 18:10:06.396542,-102.0
2023-08-09 18:10:06.404232,-102.0
2023-08-09 18:10:06.411923,-97.0
2023-08-09 18:10:06.419613,-97.0
2023-08-09 18:10:06.427304,-100.0
2023-08-09 18:10:06.434994,-100.0
2023-08-09 18:10:06.442685,-95.0
2023-08-09 18:10:06.450375,-95.0
2023-08-09 18:10:06.458066,-97.0
2023-08-09 18:10:06.465757,-97.0
2023-08-09 18:10:06.473447,-93.0
2023-08-09 18:10:06.481138,-90.0
2023-08-09 18:10:06.488828,-93.0
2023-08-09 18:10:06.496519,-95.0
2023-08-09 18:10:06.504209,-102.0
2023-08-09 18:10:06.511900,-102.0
2023-08-09 18:10:06.519590,-100.0
2023-08-09 18:10:06.527281,-100.0
2023-08-09 18:10:06.534971,-102.0
2023-08-09 18:10:06.542662,-100.0
2023-08-09 18:10:06.550353,-97.0
2023-08-09 18:10:06.558043,-95.0
2023-08-09 18:10:06.565734,-95.0
2023-08-09 18:10:06.573424,-95.0
2023-08-09 18:10:06.581115,-93.0
2023-08-09 18:10:06.588805,-90.0
2023-08-09 18:10:06.596496,-90.0
2023-08-09 18:10:06.604186,-88.0
2023-08-09 18:10:06.611877,-83.0
2023-08-09 18:10:06.619567,-74.0
2023-08-09 18:10:06.627258,-62.0
2023-08-09 18:10:06.634949,-52.0
2023-08-09 18:10:06.642639,-45.0
2023-08-09 18:10:06.650330,-45.0
2023-08-09 18:10:06.658020,-57.0
2023-08-09 18:10:06.665711,-76.0
2023-08-09 18:10:06.673401,-88.0
2023-08-09 18:10:06.681092,-90.0
2023-08-09 18:10:06.688782,-90.0
2023-08-09 18:10:06.696473,-88.0
2023-08-09 18:10:06.704163,-83.0
2023-08-09 18:10:06.711854,-81.0
2023-08-09 18:10:06.719544,-81.0
2023-08-09 18:10:06.727235,-90.0
2023-08-09 18:10:06.734926,-69.0
2023-08-09 18:10:06.742616,136.0
2023-08-09 18:10:06.750307,616.0
2023-08-09 18:10:06.757997,1141.0
2023-08-09 18:10:06.765688,1325.0
2023-08-09 18:10:06.773378,993.0
2023-08-09 18:10:06.781069,396.0
2023-08-09 18:10:06.788759,-54.0
2023-08-09 18:10:06.796450,-183.0
2023-08-09 18:10:06.804140,-157.0
2023-08-09 18:10:06.811831,-188.0
2023-08-09 18:10:06.819522,-234.0
2023-08-09 18:10:06.827212,-219.0
2023-08-09 18:10:06.834903,-205.0
2023-08-09 18:10:06.842593,-207.0
2023-08-09 18:10:06.850284,-193.0
2023-08-09 18:10:06.857974,-174.0
2023-08-09 18:10:06.865665,-167.0
2023-08-09 18:10:06.873355,-157.0
2023-08-09 18:10:06.881046,-140.0
2023-08-09 18:10:06.888736,-124.0
2023-08-09 18:10:06.896427,-109.0
2023-08-09 18:10:06.904118,-93.0
2023-08-09 18:10:06.911808,-74.0
2023-08-09 18:10:06.919499,-57.0
2023-08-09 18:10:06.927189,-40.0
2023-08-09 18:10:06.934880,-19.0
2023-08-09 18:10:06.942570,2.0
2023-08-09 18:10:06.950261,21.0
2023-08-09 18:10:06.957951,40.0
2023-08-09 18:10:06.965642,62.0
2023-08-09 18:10:06.973332,85.0
2023-08-09 18:10:06.981023,100.0
2023-08-09 18:10:06.988713,109.0
2023-08-09 18:10:06.996404,112.0
2023-08-09 18:10:07.004095,107.0
2023-08-09 18:10:07.011785,95.0
2023-08-09 18:10:07.019476,78.0
2023-08-09 18:10:07.027166,52.0
2023-08-09 18:10:07.034857,16.0
2023-08-09 18:10:07.042547,-23.0
2023-08-09 18:10:07.050238,-69.0
2023-08-09 18:10:07.057928,-112.0
2023-08-09 18:10:07.065619,-138.0
2023-08-09 18:10:07.073309,-162.0
2023-08-09 18:10:07.081000,-183.0
2023-08-09 18:10:07.088691,-193.0
2023-08-09 18:10:07.096381,-198.0
2023-08-09 18:10:07.104072,-198.0
2023-08-09 18:10:07.111762,-195.0
2023-08-09 18:10:07.119453,-193.0
2023-08-09 18:10:07.127143,-188.0
2023-08-09 18:10:07.134834,-181.0
2023-08-09 18:10:07.142524,-179.0
2023-08-09 18:10:07.150215,-171.0
2023-08-09 18:10:07.157905,-167.0
2023-08-09 18:10:07.165596,-162.0
2023-08-09 18:10:07.173287,-160.0
2023-08-09 18:10:07.180977,-152.0
2023-08-09 18:10:07.188668,-148.0
2023-08-09 18:10:07.196358,-148.0
2023-08-09 18:10:07.204049,-148.0
2023-08-09 18:10:07.211739,-143.0
2023-08-09 18:10:07.219430,-140.0
2023-08-09 18:10:07.227120,-140.0
2023-08-09 18:10:07.234811,-140.0
2023-08-09 18:10:07.242501,-143.0
2023-08-09 18:10:07.250192,-143.0
2023-08-09 18:10:07.257882,-140.0
2023-08-09 18:10:07.265573,-136.0
2023-08-09 18:10:07.273264,-133.0
2023-08-09 18:10:07.280954,-136.0
2023-08-09 18:10:07.288645,-136.0
2023-08-09 18:10:07.296335,-133.0
2023-08-09 18:10:07.304026,-133.0
2023-08-09 18:10:07.311716,-128.0
2023-08-09 18:10:07.319407,-126.0
2023-08-09 18:10:07.327097,-126.0
2023-08-09 18:10:07.334788,-124.0
2023-08-09 18:10:07.342478,-128.0
2023-08-09 18:10:07.350169,-133.0
2023-08-09 18:10:07.357860,-136.0
2023-08-09 18:10:07.365550,-133.0
2023-08-09 18:10:07.373241,-131.0
2023-08-09 18:10:07.380931,-126.0
2023-08-09 18:10:07.388622,-128.0
2023-08-09 18:10:07.396312,-126.0
2023-08-09 18:10:07.404003,-124.0
2023-08-09 18:10:07.411693,-124.0
2023-08-09 18:10:07.419384,-124.0
2023-08-09 18:10:07.427074,-119.0
2023-08-09 18:10:07.434765,-117.0
2023-08-09 18:10:07.442456,-117.0
2023-08-09 18:10:07.450146,-114.0
2023-08-09 18:10:07.457837,-109.0
2023-08-09 18:10:07.465527,-109.0
2023-08-09 18:10:07.473218,-112.0
2023-08-09 18:10:07.480908,-109.0
2023-08-09 18:10:07.488599,-107.0
2023-08-09 18:10:07.496289,-107.0
2023-08-09 18:10:07.503980,-117.0
2023-08-09 18:10:07.511670,-121.0
2023-08-09 18:10:07.519361,-119.0
2023-08-09 18:10:07.527051,-119.0
2023-08-09 18:10:07.534742,-114.0
2023-08-09 18:10:07.542433,-109.0
2023-08-09 18:10:07.550123,-109.0
2023-08-09 18:10:07.557814,-109.0
2023-08-09 18:10:07.565504,-109.0
2023-08-09 18:10:07.573195,-105.0
2023-08-09 18:10:07.580885,-102.0
2023-08-09 18:10:07.588576,-97.0
2023-08-09 18:10:07.596266,-83.0
2023-08-09 18:10:07.603957,-69.0
2023-08-09 18:10:07.611647,-66.0
2023-08-09 18:10:07.619338,-64.0
2023-08-09 18:10:07.627029,-71.0
2023-08-09 18:10:07.634719,-90.0
2023-08-09 18:10:07.642410,-102.0
2023-08-09 18:10:07.650100,-102.0
2023-08-09 18:10:07.657791,-109.0
2023-08-09 18:10:07.665481,-112.0
2023-08-09 18:10:07.673172,-102.0
2023-08-09 18:10:07.680862,-97.0
2023-08-09 18:10:07.688553,-95.0
2023-08-09 18:10:07.696243,-97.0
2023-08-09 18:10:07.703934,-93.0
2023-08-09 18:10:07.711625,78.0
2023-08-09 18:10:07.719315,561.0
2023-08-09 18:10:07.727006,1163.0
2023-08-09 18:10:07.734696,1399.0
2023-08-09 18:10:07.742387,1024.0
2023-08-09 18:10:07.750077,370.0
2023-08-09 18:10:07.757768,-74.0
2023-08-09 18:10:07.765458,-174.0
2023-08-09 18:10:07.773149,-150.0
2023-08-09 18:10:07.780839,-195.0
2023-08-09 18:10:07.788530,-234.0
2023-08-09 18:10:07.796221,-217.0
2023-08-09 18:10:07.803911,-212.0
2023-08-09 18:10:07.811602,-214.0
2023-08-09 18:10:07.819292,-193.0
2023-08-09 18:10:07.826983,-174.0
2023-08-09 18:10:07.834673,-164.0
2023-08-09 18:10:07.842364,-155.0
2023-08-09 18:10:07.850054,-138.0
2023-08-09 18:10:07.857745,-124.0
2023-08-09 18:10:07.865435,-109.0
2023-08-09 18:10:07.873126,-90.0
2023-08-09 18:10:07.880816,-74.0
2023-08-09 18:10:07.888507,-62.0
2023-08-09 18:10:07.896198,-40.0
2023-08-09 18:10:07.903888,-16.0
2023-08-09 18:10:07.911579,0.0
2023-08-09 18:10:07.919269,21.0
2023-08-09 18:10:07.926960,40.0
2023-08-09 18:10:07.934650,54.0
2023-08-09 18:10:07.942341,76.0
2023-08-09 18:10:07.950031,100.0
2023-08-09 18:10:07.957722,112.0
2023-08-09 18:10:07.965412,117.0
2023-08-09 18:10:07.973103,117.0
2023-08-09 18:10:07.980794,102.0
2023-08-09 18:10:07.988484,81.0
2023-08-09 18:10:07.996175,52.0
2023-08-09 18:10:08.003865,14.0
2023-08-09 18:10:08.011556,-33.0
2023-08-09 18:10:08.019246,-88.0
2023-08-09 18:10:08.026937,-133.0
2023-08-09 18:10:08.034627,-164.0
2023-08-09 18:10:08.042318,-186.0
2023-08-09 18:10:08.050008,-200.0
2023-08-09 18:10:08.057699,-214.0
2023-08-09 18:10:08.065390,-222.0
2023-08-09 18:10:08.073080,-219.0
2023-08-09 18:10:08.080771,-212.0
2023-08-09 18:10:08.088461,-207.0
2023-08-09 18:10:08.096152,-203.0
2023-08-09 18:10:08.103842,-198.0
2023-08-09 18:10:08.111533,-193.0
2023-08-09 18:10:08.119223,-183.0
2023-08-09 18:10:08.126914,-179.0
2023-08-09 18:10:08.134604,-174.0
2023-08-09 18:10:08.142295,-167.0
2023-08-09 18:10:08.149985,-160.0
2023-08-09 18:10:08.157676,-157.0
2023-08-09 18:10:08.165367,-152.0
2023-08-09 18:10:08.173057,-148.0
2023-08-09 18:10:08.180748,-145.0
2023-08-09 18:10:08.188438,-143.0
2023-08-09 18:10:08.196129,-143.0
2023-08-09 18:10:08.203819,-143.0
2023-08-09 18:10:08.211510,-140.0
2023-08-09 18:10:08.219200,-138.0
2023-08-09 18:10:08.226891,-136.0
2023-08-09 18:10:08.234581,-136.0
2023-08-09 18:10:08.242272,-131.0
2023-08-09 18:10:08.249963,-128.0
2023-08-09 18:10:08.257653,-128.0
2023-08-09 18:10:08.265344,-126.0
2023-08-09 18:10:08.273034,-121.0
2023-08-09 18:10:08.280725,-119.0
2023-08-09 18:10:08.288415,-117.0
2023-08-09 18:10:08.296106,-117.0
2023-08-09 18:10:08.303796,-114.0
2023-08-09 18:10:08.311487,-112.0
2023-08-09 18:10:08.319177,-107.0
2023-08-09 18:10:08.326868,-105.0
2023-08-09 18:10:08.334559,-105.0
2023-08-09 18:10:08.342249,-105.0
2023-08-09 18:10:08.349940,-105.0
2023-08-09 18:10:08.357630,-102.0
