time,ECG
2023-12-19 12:17:15.201887,-19.0
2023-12-19 12:17:15.209576,-19.0
2023-12-19 12:17:15.217265,-19.0
2023-12-19 12:17:15.224954,-19.0
2023-12-19 12:17:15.232643,-16.0
2023-12-19 12:17:15.240332,-9.0
2023-12-19 12:17:15.248021,-9.0
2023-12-19 12:17:15.255710,-16.0
2023-12-19 12:17:15.263398,-9.0
2023-12-19 12:17:15.271087,-2.0
2023-12-19 12:17:15.278776,-4.0
2023-12-19 12:17:15.286465,-9.0
2023-12-19 12:17:15.294154,-2.0
2023-12-19 12:17:15.301843,4.0
2023-12-19 12:17:15.309532,4.0
2023-12-19 12:17:15.317221,0.0
2023-12-19 12:17:15.324909,0.0
2023-12-19 12:17:15.332598,2.0
2023-12-19 12:17:15.340287,-2.0
2023-12-19 12:17:15.347976,-7.0
2023-12-19 12:17:15.355665,-2.0
2023-12-19 12:17:15.363354,-4.0
2023-12-19 12:17:15.371043,-9.0
2023-12-19 12:17:15.378732,-19.0
2023-12-19 12:17:15.386420,-33.0
2023-12-19 12:17:15.394109,-38.0
2023-12-19 12:17:15.401798,-40.0
2023-12-19 12:17:15.409487,-61.0
2023-12-19 12:17:15.417176,-85.0
2023-12-19 12:17:15.424865,-81.0
2023-12-19 12:17:15.432554,-69.0
2023-12-19 12:17:15.440242,-59.0
2023-12-19 12:17:15.447931,-47.0
2023-12-19 12:17:15.455620,-40.0
2023-12-19 12:17:15.463309,-42.0
2023-12-19 12:17:15.470998,-45.0
2023-12-19 12:17:15.478687,-52.0
2023-12-19 12:17:15.486376,-61.0
2023-12-19 12:17:15.494065,-50.0
2023-12-19 12:17:15.501753,-33.0
2023-12-19 12:17:15.509442,-78.0
2023-12-19 12:17:15.517131,-314.0
2023-12-19 12:17:15.524820,-746.0
2023-12-19 12:17:15.532509,-1008.0
2023-12-19 12:17:15.540198,-660.0
2023-12-19 12:17:15.547887,26.0
2023-12-19 12:17:15.555576,271.0
2023-12-19 12:17:15.563264,59.0
2023-12-19 12:17:15.570953,-14.0
2023-12-19 12:17:15.578642,59.0
2023-12-19 12:17:15.586331,35.0
2023-12-19 12:17:15.594020,-2.0
2023-12-19 12:17:15.601709,9.0
2023-12-19 12:17:15.609398,0.0
2023-12-19 12:17:15.617086,-16.0
2023-12-19 12:17:15.624775,-9.0
2023-12-19 12:17:15.632464,-4.0
2023-12-19 12:17:15.640153,-14.0
2023-12-19 12:17:15.647842,-26.0
2023-12-19 12:17:15.655531,-30.0
2023-12-19 12:17:15.663220,-33.0
2023-12-19 12:17:15.670909,-40.0
2023-12-19 12:17:15.678597,-50.0
2023-12-19 12:17:15.686286,-57.0
2023-12-19 12:17:15.693975,-73.0
2023-12-19 12:17:15.701664,-92.0
2023-12-19 12:17:15.709353,-104.0
2023-12-19 12:17:15.717042,-116.0
2023-12-19 12:17:15.724731,-135.0
2023-12-19 12:17:15.732420,-150.0
2023-12-19 12:17:15.740108,-154.0
2023-12-19 12:17:15.747797,-150.0
2023-12-19 12:17:15.755486,-131.0
2023-12-19 12:17:15.763175,-112.0
2023-12-19 12:17:15.770864,-97.0
2023-12-19 12:17:15.778553,-76.0
2023-12-19 12:17:15.786242,-54.0
2023-12-19 12:17:15.793930,-33.0
2023-12-19 12:17:15.801619,-14.0
2023-12-19 12:17:15.809308,0.0
2023-12-19 12:17:15.816997,11.0
2023-12-19 12:17:15.824686,19.0
2023-12-19 12:17:15.832375,21.0
2023-12-19 12:17:15.840064,21.0
2023-12-19 12:17:15.847753,26.0
2023-12-19 12:17:15.855441,23.0
2023-12-19 12:17:15.863130,23.0
2023-12-19 12:17:15.870819,26.0
2023-12-19 12:17:15.878508,23.0
2023-12-19 12:17:15.886197,21.0
2023-12-19 12:17:15.893886,16.0
2023-12-19 12:17:15.901575,7.0
2023-12-19 12:17:15.909264,4.0
2023-12-19 12:17:15.916952,2.0
2023-12-19 12:17:15.924641,-4.0
2023-12-19 12:17:15.932330,-9.0
2023-12-19 12:17:15.940019,-9.0
2023-12-19 12:17:15.947708,-9.0
2023-12-19 12:17:15.955397,-14.0
2023-12-19 12:17:15.963086,-23.0
2023-12-19 12:17:15.970774,-42.0
2023-12-19 12:17:15.978463,-57.0
2023-12-19 12:17:15.986152,-52.0
2023-12-19 12:17:15.993841,-52.0
2023-12-19 12:17:16.001530,-52.0
2023-12-19 12:17:16.009219,-47.0
2023-12-19 12:17:16.016908,-52.0
2023-12-19 12:17:16.024597,-50.0
2023-12-19 12:17:16.032285,-40.0
2023-12-19 12:17:16.039974,-33.0
2023-12-19 12:17:16.047663,-30.0
2023-12-19 12:17:16.055352,-28.0
2023-12-19 12:17:16.063041,-33.0
2023-12-19 12:17:16.070730,-33.0
2023-12-19 12:17:16.078419,-26.0
2023-12-19 12:17:16.086108,-23.0
2023-12-19 12:17:16.093796,-23.0
2023-12-19 12:17:16.101485,-30.0
2023-12-19 12:17:16.109174,-42.0
2023-12-19 12:17:16.116863,-42.0
2023-12-19 12:17:16.124552,-40.0
2023-12-19 12:17:16.132241,-40.0
2023-12-19 12:17:16.139930,-40.0
2023-12-19 12:17:16.147618,-45.0
2023-12-19 12:17:16.155307,-47.0
2023-12-19 12:17:16.162996,-40.0
2023-12-19 12:17:16.170685,-33.0
2023-12-19 12:17:16.178374,-23.0
2023-12-19 12:17:16.186063,-16.0
2023-12-19 12:17:16.193752,-30.0
2023-12-19 12:17:16.201441,-59.0
2023-12-19 12:17:16.209129,-71.0
2023-12-19 12:17:16.216818,-61.0
2023-12-19 12:17:16.224507,-50.0
2023-12-19 12:17:16.232196,-45.0
2023-12-19 12:17:16.239885,-38.0
2023-12-19 12:17:16.247574,-35.0
2023-12-19 12:17:16.255263,-38.0
2023-12-19 12:17:16.262952,-40.0
2023-12-19 12:17:16.270640,-45.0
2023-12-19 12:17:16.278329,-52.0
2023-12-19 12:17:16.286018,-50.0
2023-12-19 12:17:16.293707,-38.0
2023-12-19 12:17:16.301396,-52.0
2023-12-19 12:17:16.309085,-238.0
2023-12-19 12:17:16.316774,-658.0
2023-12-19 12:17:16.324462,-1032.0
2023-12-19 12:17:16.332151,-851.0
2023-12-19 12:17:16.339840,-164.0
2023-12-19 12:17:16.347529,212.0
2023-12-19 12:17:16.355218,61.0
2023-12-19 12:17:16.362907,-16.0
2023-12-19 12:17:16.370596,73.0
2023-12-19 12:17:16.378285,50.0
2023-12-19 12:17:16.385973,2.0
2023-12-19 12:17:16.393662,35.0
2023-12-19 12:17:16.401351,40.0
2023-12-19 12:17:16.409040,16.0
2023-12-19 12:17:16.416729,19.0
2023-12-19 12:17:16.424418,14.0
2023-12-19 12:17:16.432107,4.0
2023-12-19 12:17:16.439796,4.0
2023-12-19 12:17:16.447484,4.0
2023-12-19 12:17:16.455173,0.0
2023-12-19 12:17:16.462862,-11.0
2023-12-19 12:17:16.470551,-21.0
2023-12-19 12:17:16.478240,-33.0
2023-12-19 12:17:16.485929,-47.0
2023-12-19 12:17:16.493618,-71.0
2023-12-19 12:17:16.501306,-102.0
2023-12-19 12:17:16.508995,-135.0
2023-12-19 12:17:16.516684,-166.0
2023-12-19 12:17:16.524373,-171.0
2023-12-19 12:17:16.532062,-169.0
2023-12-19 12:17:16.539751,-169.0
2023-12-19 12:17:16.547440,-159.0
2023-12-19 12:17:16.555129,-145.0
2023-12-19 12:17:16.562817,-131.0
2023-12-19 12:17:16.570506,-114.0
2023-12-19 12:17:16.578195,-90.0
2023-12-19 12:17:16.585884,-69.0
2023-12-19 12:17:16.593573,-59.0
2023-12-19 12:17:16.601262,-47.0
2023-12-19 12:17:16.608951,-28.0
2023-12-19 12:17:16.616640,-16.0
2023-12-19 12:17:16.624328,-7.0
2023-12-19 12:17:16.632017,0.0
2023-12-19 12:17:16.639706,2.0
2023-12-19 12:17:16.647395,2.0
2023-12-19 12:17:16.655084,4.0
2023-12-19 12:17:16.662773,9.0
2023-12-19 12:17:16.670462,11.0
2023-12-19 12:17:16.678150,11.0
2023-12-19 12:17:16.685839,9.0
2023-12-19 12:17:16.693528,9.0
2023-12-19 12:17:16.701217,9.0
2023-12-19 12:17:16.708906,2.0
2023-12-19 12:17:16.716595,2.0
2023-12-19 12:17:16.724284,2.0
2023-12-19 12:17:16.731973,0.0
2023-12-19 12:17:16.739661,-4.0
2023-12-19 12:17:16.747350,-4.0
2023-12-19 12:17:16.755039,-4.0
2023-12-19 12:17:16.762728,-7.0
2023-12-19 12:17:16.770417,-4.0
2023-12-19 12:17:16.778106,-4.0
2023-12-19 12:17:16.785795,-4.0
2023-12-19 12:17:16.793484,-2.0
2023-12-19 12:17:16.801172,-2.0
2023-12-19 12:17:16.808861,7.0
2023-12-19 12:17:16.816550,9.0
2023-12-19 12:17:16.824239,-2.0
2023-12-19 12:17:16.831928,-7.0
2023-12-19 12:17:16.839617,-9.0
2023-12-19 12:17:16.847306,-19.0
2023-12-19 12:17:16.854994,-16.0
2023-12-19 12:17:16.862683,-9.0
2023-12-19 12:17:16.870372,-16.0
2023-12-19 12:17:16.878061,-16.0
2023-12-19 12:17:16.885750,-11.0
2023-12-19 12:17:16.893439,-11.0
2023-12-19 12:17:16.901128,-14.0
2023-12-19 12:17:16.908817,-14.0
2023-12-19 12:17:16.916505,-14.0
2023-12-19 12:17:16.924194,-14.0
2023-12-19 12:17:16.931883,-11.0
2023-12-19 12:17:16.939572,-14.0
2023-12-19 12:17:16.947261,-16.0
2023-12-19 12:17:16.954950,-21.0
2023-12-19 12:17:16.962639,-28.0
2023-12-19 12:17:16.970328,-33.0
2023-12-19 12:17:16.978016,-35.0
2023-12-19 12:17:16.985705,-35.0
2023-12-19 12:17:16.993394,-40.0
2023-12-19 12:17:17.001083,-52.0
2023-12-19 12:17:17.008772,-54.0
2023-12-19 12:17:17.016461,-52.0
2023-12-19 12:17:17.024150,-71.0
2023-12-19 12:17:17.031838,-95.0
2023-12-19 12:17:17.039527,-95.0
2023-12-19 12:17:17.047216,-97.0
2023-12-19 12:17:17.054905,-104.0
2023-12-19 12:17:17.062594,-88.0
2023-12-19 12:17:17.070283,-73.0
2023-12-19 12:17:17.077972,-81.0
2023-12-19 12:17:17.085661,-85.0
2023-12-19 12:17:17.093349,-83.0
2023-12-19 12:17:17.101038,-78.0
2023-12-19 12:17:17.108727,-71.0
2023-12-19 12:17:17.116416,-59.0
2023-12-19 12:17:17.124105,-47.0
2023-12-19 12:17:17.131794,-147.0
2023-12-19 12:17:17.139483,-472.0
2023-12-19 12:17:17.147172,-872.0
2023-12-19 12:17:17.154860,-908.0
2023-12-19 12:17:17.162549,-388.0
2023-12-19 12:17:17.170238,121.0
2023-12-19 12:17:17.177927,119.0
2023-12-19 12:17:17.185616,-33.0
2023-12-19 12:17:17.193305,19.0
2023-12-19 12:17:17.200994,57.0
2023-12-19 12:17:17.208682,9.0
2023-12-19 12:17:17.216371,11.0
2023-12-19 12:17:17.224060,33.0
2023-12-19 12:17:17.231749,11.0
2023-12-19 12:17:17.239438,2.0
2023-12-19 12:17:17.247127,19.0
2023-12-19 12:17:17.254816,16.0
2023-12-19 12:17:17.262505,7.0
2023-12-19 12:17:17.270193,9.0
2023-12-19 12:17:17.277882,2.0
2023-12-19 12:17:17.285571,-7.0
2023-12-19 12:17:17.293260,-4.0
2023-12-19 12:17:17.300949,-9.0
2023-12-19 12:17:17.308638,-26.0
2023-12-19 12:17:17.316327,-40.0
2023-12-19 12:17:17.324016,-57.0
2023-12-19 12:17:17.331704,-81.0
2023-12-19 12:17:17.339393,-97.0
2023-12-19 12:17:17.347082,-104.0
2023-12-19 12:17:17.354771,-114.0
2023-12-19 12:17:17.362460,-121.0
2023-12-19 12:17:17.370149,-116.0
2023-12-19 12:17:17.377838,-100.0
2023-12-19 12:17:17.385526,-85.0
2023-12-19 12:17:17.393215,-73.0
2023-12-19 12:17:17.400904,-54.0
2023-12-19 12:17:17.408593,-38.0
2023-12-19 12:17:17.416282,-23.0
2023-12-19 12:17:17.423971,-4.0
2023-12-19 12:17:17.431660,11.0
2023-12-19 12:17:17.439349,21.0
2023-12-19 12:17:17.447037,21.0
2023-12-19 12:17:17.454726,26.0
2023-12-19 12:17:17.462415,30.0
2023-12-19 12:17:17.470104,38.0
2023-12-19 12:17:17.477793,38.0
2023-12-19 12:17:17.485482,38.0
2023-12-19 12:17:17.493171,40.0
2023-12-19 12:17:17.500860,28.0
2023-12-19 12:17:17.508548,9.0
2023-12-19 12:17:17.516237,9.0
2023-12-19 12:17:17.523926,11.0
2023-12-19 12:17:17.531615,-7.0
2023-12-19 12:17:17.539304,-16.0
2023-12-19 12:17:17.546993,-11.0
2023-12-19 12:17:17.554682,-11.0
2023-12-19 12:17:17.562370,-16.0
2023-12-19 12:17:17.570059,-14.0
2023-12-19 12:17:17.577748,-26.0
2023-12-19 12:17:17.585437,-54.0
2023-12-19 12:17:17.593126,-71.0
2023-12-19 12:17:17.600815,-61.0
2023-12-19 12:17:17.608504,-52.0
2023-12-19 12:17:17.616193,-52.0
2023-12-19 12:17:17.623881,-52.0
2023-12-19 12:17:17.631570,-52.0
2023-12-19 12:17:17.639259,-50.0
2023-12-19 12:17:17.646948,-42.0
2023-12-19 12:17:17.654637,-40.0
2023-12-19 12:17:17.662326,-45.0
2023-12-19 12:17:17.670015,-47.0
2023-12-19 12:17:17.677704,-57.0
2023-12-19 12:17:17.685392,-64.0
2023-12-19 12:17:17.693081,-59.0
2023-12-19 12:17:17.700770,-54.0
2023-12-19 12:17:17.708459,-50.0
2023-12-19 12:17:17.716148,-47.0
2023-12-19 12:17:17.723837,-57.0
2023-12-19 12:17:17.731526,-57.0
2023-12-19 12:17:17.739214,-50.0
2023-12-19 12:17:17.746903,-50.0
2023-12-19 12:17:17.754592,-50.0
2023-12-19 12:17:17.762281,-47.0
2023-12-19 12:17:17.769970,-52.0
2023-12-19 12:17:17.777659,-52.0
2023-12-19 12:17:17.785348,-50.0
2023-12-19 12:17:17.793037,-42.0
2023-12-19 12:17:17.800725,-38.0
2023-12-19 12:17:17.808414,-40.0
2023-12-19 12:17:17.816103,-42.0
2023-12-19 12:17:17.823792,-42.0
2023-12-19 12:17:17.831481,-47.0
2023-12-19 12:17:17.839170,-59.0
2023-12-19 12:17:17.846859,-76.0
2023-12-19 12:17:17.854548,-76.0
2023-12-19 12:17:17.862236,-71.0
2023-12-19 12:17:17.869925,-64.0
2023-12-19 12:17:17.877614,-42.0
2023-12-19 12:17:17.885303,-28.0
2023-12-19 12:17:17.892992,-28.0
2023-12-19 12:17:17.900681,-30.0
2023-12-19 12:17:17.908370,-33.0
2023-12-19 12:17:17.916058,-28.0
2023-12-19 12:17:17.923747,-16.0
2023-12-19 12:17:17.931436,-9.0
2023-12-19 12:17:17.939125,-11.0
2023-12-19 12:17:17.946814,-128.0
2023-12-19 12:17:17.954503,-445.0
2023-12-19 12:17:17.962192,-789.0
2023-12-19 12:17:17.969881,-739.0
2023-12-19 12:17:17.977569,-185.0
2023-12-19 12:17:17.985258,257.0
2023-12-19 12:17:17.992947,188.0
2023-12-19 12:17:18.000636,28.0
2023-12-19 12:17:18.008325,57.0
2023-12-19 12:17:18.016014,66.0
2023-12-19 12:17:18.023703,23.0
2023-12-19 12:17:18.031392,33.0
2023-12-19 12:17:18.039080,40.0
2023-12-19 12:17:18.046769,19.0
2023-12-19 12:17:18.054458,16.0
2023-12-19 12:17:18.062147,21.0
2023-12-19 12:17:18.069836,7.0
2023-12-19 12:17:18.077525,-7.0
2023-12-19 12:17:18.085214,-21.0
2023-12-19 12:17:18.092902,-38.0
2023-12-19 12:17:18.100591,-38.0
2023-12-19 12:17:18.108280,-38.0
2023-12-19 12:17:18.115969,-47.0
2023-12-19 12:17:18.123658,-57.0
2023-12-19 12:17:18.131347,-73.0
2023-12-19 12:17:18.139036,-95.0
2023-12-19 12:17:18.146725,-102.0
2023-12-19 12:17:18.154413,-109.0
2023-12-19 12:17:18.162102,-126.0
2023-12-19 12:17:18.169791,-145.0
2023-12-19 12:17:18.177480,-159.0
2023-12-19 12:17:18.185169,-154.0
2023-12-19 12:17:18.192858,-138.0
2023-12-19 12:17:18.200547,-123.0
2023-12-19 12:17:18.208236,-102.0
2023-12-19 12:17:18.215924,-85.0
2023-12-19 12:17:18.223613,-78.0
2023-12-19 12:17:18.231302,-61.0
2023-12-19 12:17:18.238991,-38.0
2023-12-19 12:17:18.246680,-26.0
2023-12-19 12:17:18.254369,-23.0
2023-12-19 12:17:18.262058,-19.0
2023-12-19 12:17:18.269746,-9.0
2023-12-19 12:17:18.277435,-4.0
2023-12-19 12:17:18.285124,-2.0
2023-12-19 12:17:18.292813,0.0
2023-12-19 12:17:18.300502,0.0
2023-12-19 12:17:18.308191,-2.0
2023-12-19 12:17:18.315880,-11.0
2023-12-19 12:17:18.323569,-28.0
2023-12-19 12:17:18.331257,-30.0
2023-12-19 12:17:18.338946,-28.0
2023-12-19 12:17:18.346635,-33.0
2023-12-19 12:17:18.354324,-38.0
2023-12-19 12:17:18.362013,-38.0
2023-12-19 12:17:18.369702,-40.0
2023-12-19 12:17:18.377391,-40.0
2023-12-19 12:17:18.385080,-40.0
2023-12-19 12:17:18.392768,-45.0
2023-12-19 12:17:18.400457,-50.0
2023-12-19 12:17:18.408146,-54.0
2023-12-19 12:17:18.415835,-57.0
2023-12-19 12:17:18.423524,-52.0
2023-12-19 12:17:18.431213,-50.0
2023-12-19 12:17:18.438902,-54.0
2023-12-19 12:17:18.446590,-57.0
2023-12-19 12:17:18.454279,-54.0
2023-12-19 12:17:18.461968,-50.0
2023-12-19 12:17:18.469657,-42.0
2023-12-19 12:17:18.477346,-38.0
2023-12-19 12:17:18.485035,-40.0
2023-12-19 12:17:18.492724,-47.0
2023-12-19 12:17:18.500413,-47.0
2023-12-19 12:17:18.508101,-54.0
2023-12-19 12:17:18.515790,-69.0
2023-12-19 12:17:18.523479,-64.0
2023-12-19 12:17:18.531168,-57.0
2023-12-19 12:17:18.538857,-61.0
2023-12-19 12:17:18.546546,-59.0
2023-12-19 12:17:18.554235,-57.0
2023-12-19 12:17:18.561924,-61.0
2023-12-19 12:17:18.569612,-61.0
2023-12-19 12:17:18.577301,-57.0
2023-12-19 12:17:18.584990,-54.0
2023-12-19 12:17:18.592679,-50.0
2023-12-19 12:17:18.600368,-45.0
2023-12-19 12:17:18.608057,-54.0
2023-12-19 12:17:18.615746,-78.0
2023-12-19 12:17:18.623434,-90.0
2023-12-19 12:17:18.631123,-78.0
2023-12-19 12:17:18.638812,-61.0
2023-12-19 12:17:18.646501,-50.0
2023-12-19 12:17:18.654190,-40.0
2023-12-19 12:17:18.661879,-35.0
2023-12-19 12:17:18.669568,-38.0
2023-12-19 12:17:18.677257,-35.0
2023-12-19 12:17:18.684945,-33.0
2023-12-19 12:17:18.692634,-26.0
2023-12-19 12:17:18.700323,-16.0
2023-12-19 12:17:18.708012,-7.0
2023-12-19 12:17:18.715701,-76.0
2023-12-19 12:17:18.723390,-343.0
2023-12-19 12:17:18.731079,-746.0
2023-12-19 12:17:18.738768,-867.0
2023-12-19 12:17:18.746456,-395.0
2023-12-19 12:17:18.754145,193.0
2023-12-19 12:17:18.761834,250.0
2023-12-19 12:17:18.769523,35.0
2023-12-19 12:17:18.777212,33.0
2023-12-19 12:17:18.784901,83.0
2023-12-19 12:17:18.792590,38.0
2023-12-19 12:17:18.800278,28.0
2023-12-19 12:17:18.807967,42.0
2023-12-19 12:17:18.815656,23.0
2023-12-19 12:17:18.823345,19.0
2023-12-19 12:17:18.831034,23.0
2023-12-19 12:17:18.838723,14.0
2023-12-19 12:17:18.846412,11.0
2023-12-19 12:17:18.854101,14.0
2023-12-19 12:17:18.861789,9.0
2023-12-19 12:17:18.869478,0.0
2023-12-19 12:17:18.877167,-7.0
2023-12-19 12:17:18.884856,-14.0
2023-12-19 12:17:18.892545,-26.0
2023-12-19 12:17:18.900234,-38.0
2023-12-19 12:17:18.907923,-47.0
2023-12-19 12:17:18.915612,-61.0
2023-12-19 12:17:18.923300,-76.0
2023-12-19 12:17:18.930989,-88.0
2023-12-19 12:17:18.938678,-100.0
2023-12-19 12:17:18.946367,-100.0
2023-12-19 12:17:18.954056,-83.0
2023-12-19 12:17:18.961745,-69.0
2023-12-19 12:17:18.969434,-59.0
2023-12-19 12:17:18.977122,-45.0
2023-12-19 12:17:18.984811,-30.0
2023-12-19 12:17:18.992500,-11.0
2023-12-19 12:17:19.000189,9.0
2023-12-19 12:17:19.007878,11.0
2023-12-19 12:17:19.015567,-2.0
2023-12-19 12:17:19.023256,-4.0
2023-12-19 12:17:19.030945,2.0
2023-12-19 12:17:19.038633,9.0
2023-12-19 12:17:19.046322,16.0
2023-12-19 12:17:19.054011,16.0
2023-12-19 12:17:19.061700,4.0
2023-12-19 12:17:19.069389,2.0
2023-12-19 12:17:19.077078,0.0
2023-12-19 12:17:19.084767,-2.0
2023-12-19 12:17:19.092456,-2.0
2023-12-19 12:17:19.100144,-4.0
2023-12-19 12:17:19.107833,-11.0
2023-12-19 12:17:19.115522,-21.0
2023-12-19 12:17:19.123211,-28.0
2023-12-19 12:17:19.130900,-28.0
2023-12-19 12:17:19.138589,-28.0
2023-12-19 12:17:19.146278,-38.0
2023-12-19 12:17:19.153966,-45.0
2023-12-19 12:17:19.161655,-47.0
2023-12-19 12:17:19.169344,-52.0
2023-12-19 12:17:19.177033,-54.0
2023-12-19 12:17:19.184722,-50.0
2023-12-19 12:17:19.192411,-42.0
2023-12-19 12:17:19.200100,-45.0
2023-12-19 12:17:19.207789,-50.0
2023-12-19 12:17:19.215477,-42.0
2023-12-19 12:17:19.223166,-38.0
2023-12-19 12:17:19.230855,-38.0
2023-12-19 12:17:19.238544,-35.0
2023-12-19 12:17:19.246233,-35.0
2023-12-19 12:17:19.253922,-35.0
2023-12-19 12:17:19.261611,-33.0
2023-12-19 12:17:19.269300,-33.0
2023-12-19 12:17:19.276988,-30.0
2023-12-19 12:17:19.284677,-28.0
2023-12-19 12:17:19.292366,-30.0
2023-12-19 12:17:19.300055,-38.0
2023-12-19 12:17:19.307744,-40.0
2023-12-19 12:17:19.315433,-35.0
2023-12-19 12:17:19.323122,-26.0
2023-12-19 12:17:19.330810,-28.0
2023-12-19 12:17:19.338499,-42.0
2023-12-19 12:17:19.346188,-61.0
2023-12-19 12:17:19.353877,-59.0
2023-12-19 12:17:19.361566,-42.0
2023-12-19 12:17:19.369255,-38.0
2023-12-19 12:17:19.376944,-40.0
2023-12-19 12:17:19.384633,-47.0
2023-12-19 12:17:19.392321,-76.0
2023-12-19 12:17:19.400010,-88.0
2023-12-19 12:17:19.407699,-73.0
2023-12-19 12:17:19.415388,-59.0
2023-12-19 12:17:19.423077,-47.0
2023-12-19 12:17:19.430766,-33.0
2023-12-19 12:17:19.438455,-30.0
2023-12-19 12:17:19.446144,-33.0
2023-12-19 12:17:19.453832,-26.0
2023-12-19 12:17:19.461521,-21.0
2023-12-19 12:17:19.469210,-21.0
2023-12-19 12:17:19.476899,-21.0
2023-12-19 12:17:19.484588,-7.0
2023-12-19 12:17:19.492277,-30.0
2023-12-19 12:17:19.499966,-228.0
2023-12-19 12:17:19.507654,-612.0
2023-12-19 12:17:19.515343,-879.0
2023-12-19 12:17:19.523032,-619.0
2023-12-19 12:17:19.530721,-7.0
2023-12-19 12:17:19.538410,243.0
2023-12-19 12:17:19.546099,66.0
2023-12-19 12:17:19.553788,9.0
2023-12-19 12:17:19.561477,85.0
2023-12-19 12:17:19.569165,54.0
2023-12-19 12:17:19.576854,16.0
2023-12-19 12:17:19.584543,47.0
2023-12-19 12:17:19.592232,50.0
2023-12-19 12:17:19.599921,28.0
2023-12-19 12:17:19.607610,30.0
2023-12-19 12:17:19.615299,30.0
2023-12-19 12:17:19.622988,23.0
2023-12-19 12:17:19.630676,21.0
2023-12-19 12:17:19.638365,19.0
2023-12-19 12:17:19.646054,14.0
2023-12-19 12:17:19.653743,9.0
2023-12-19 12:17:19.661432,-4.0
2023-12-19 12:17:19.669121,-14.0
2023-12-19 12:17:19.676810,-16.0
2023-12-19 12:17:19.684498,-28.0
2023-12-19 12:17:19.692187,-42.0
2023-12-19 12:17:19.699876,-64.0
2023-12-19 12:17:19.707565,-88.0
2023-12-19 12:17:19.715254,-109.0
2023-12-19 12:17:19.722943,-119.0
2023-12-19 12:17:19.730632,-112.0
2023-12-19 12:17:19.738321,-97.0
2023-12-19 12:17:19.746009,-90.0
2023-12-19 12:17:19.753698,-85.0
2023-12-19 12:17:19.761387,-73.0
2023-12-19 12:17:19.769076,-54.0
2023-12-19 12:17:19.776765,-35.0
2023-12-19 12:17:19.784454,-23.0
2023-12-19 12:17:19.792143,-19.0
2023-12-19 12:17:19.799832,-19.0
2023-12-19 12:17:19.807520,-9.0
2023-12-19 12:17:19.815209,7.0
2023-12-19 12:17:19.822898,14.0
2023-12-19 12:17:19.830587,16.0
2023-12-19 12:17:19.838276,11.0
2023-12-19 12:17:19.845965,4.0
2023-12-19 12:17:19.853654,7.0
2023-12-19 12:17:19.861342,11.0
2023-12-19 12:17:19.869031,7.0
2023-12-19 12:17:19.876720,-2.0
2023-12-19 12:17:19.884409,-28.0
2023-12-19 12:17:19.892098,-59.0
2023-12-19 12:17:19.899787,-64.0
2023-12-19 12:17:19.907476,-52.0
2023-12-19 12:17:19.915165,-59.0
2023-12-19 12:17:19.922853,-81.0
2023-12-19 12:17:19.930542,-107.0
2023-12-19 12:17:19.938231,-116.0
2023-12-19 12:17:19.945920,-107.0
2023-12-19 12:17:19.953609,-102.0
2023-12-19 12:17:19.961298,-102.0
2023-12-19 12:17:19.968987,-100.0
2023-12-19 12:17:19.976676,-100.0
2023-12-19 12:17:19.984364,-100.0
2023-12-19 12:17:19.992053,-88.0
2023-12-19 12:17:19.999742,-81.0
2023-12-19 12:17:20.007431,-78.0
2023-12-19 12:17:20.015120,-78.0
2023-12-19 12:17:20.022809,-73.0
2023-12-19 12:17:20.030498,-73.0
2023-12-19 12:17:20.038186,-78.0
2023-12-19 12:17:20.045875,-78.0
2023-12-19 12:17:20.053564,-73.0
2023-12-19 12:17:20.061253,-71.0
2023-12-19 12:17:20.068942,-71.0
2023-12-19 12:17:20.076631,-66.0
2023-12-19 12:17:20.084320,-61.0
2023-12-19 12:17:20.092009,-61.0
2023-12-19 12:17:20.099697,-57.0
2023-12-19 12:17:20.107386,-52.0
2023-12-19 12:17:20.115075,-52.0
2023-12-19 12:17:20.122764,-57.0
2023-12-19 12:17:20.130453,-52.0
2023-12-19 12:17:20.138142,-35.0
2023-12-19 12:17:20.145831,-35.0
2023-12-19 12:17:20.153520,-42.0
2023-12-19 12:17:20.161208,-40.0
2023-12-19 12:17:20.168897,-45.0
2023-12-19 12:17:20.176586,-73.0
2023-12-19 12:17:20.184275,-81.0
2023-12-19 12:17:20.191964,-59.0
2023-12-19 12:17:20.199653,-50.0
2023-12-19 12:17:20.207342,-45.0
2023-12-19 12:17:20.215030,-35.0
2023-12-19 12:17:20.222719,-47.0
2023-12-19 12:17:20.230408,-59.0
2023-12-19 12:17:20.238097,-47.0
2023-12-19 12:17:20.245786,-40.0
2023-12-19 12:17:20.253475,-47.0
2023-12-19 12:17:20.261164,-42.0
2023-12-19 12:17:20.268853,-23.0
2023-12-19 12:17:20.276541,-83.0
2023-12-19 12:17:20.284230,-333.0
2023-12-19 12:17:20.291919,-701.0
2023-12-19 12:17:20.299608,-808.0
2023-12-19 12:17:20.307297,-393.0
2023-12-19 12:17:20.314986,121.0
2023-12-19 12:17:20.322675,185.0
2023-12-19 12:17:20.330364,21.0
2023-12-19 12:17:20.338052,26.0
2023-12-19 12:17:20.345741,69.0
2023-12-19 12:17:20.353430,26.0
2023-12-19 12:17:20.361119,23.0
2023-12-19 12:17:20.368808,45.0
2023-12-19 12:17:20.376497,28.0
2023-12-19 12:17:20.384186,11.0
2023-12-19 12:17:20.391874,21.0
2023-12-19 12:17:20.399563,23.0
2023-12-19 12:17:20.407252,14.0
2023-12-19 12:17:20.414941,2.0
2023-12-19 12:17:20.422630,-14.0
2023-12-19 12:17:20.430319,-33.0
2023-12-19 12:17:20.438008,-38.0
2023-12-19 12:17:20.445697,-40.0
2023-12-19 12:17:20.453385,-47.0
2023-12-19 12:17:20.461074,-59.0
2023-12-19 12:17:20.468763,-76.0
2023-12-19 12:17:20.476452,-90.0
2023-12-19 12:17:20.484141,-100.0
2023-12-19 12:17:20.491830,-112.0
2023-12-19 12:17:20.499519,-121.0
2023-12-19 12:17:20.507208,-116.0
2023-12-19 12:17:20.514896,-112.0
2023-12-19 12:17:20.522585,-104.0
2023-12-19 12:17:20.530274,-100.0
2023-12-19 12:17:20.537963,-97.0
2023-12-19 12:17:20.545652,-81.0
2023-12-19 12:17:20.553341,-61.0
2023-12-19 12:17:20.561030,-57.0
2023-12-19 12:17:20.568718,-50.0
2023-12-19 12:17:20.576407,-38.0
2023-12-19 12:17:20.584096,-28.0
2023-12-19 12:17:20.591785,-21.0
2023-12-19 12:17:20.599474,-23.0
2023-12-19 12:17:20.607163,-11.0
2023-12-19 12:17:20.614852,7.0
2023-12-19 12:17:20.622541,0.0
2023-12-19 12:17:20.630229,-9.0
2023-12-19 12:17:20.637918,-2.0
2023-12-19 12:17:20.645607,-7.0
2023-12-19 12:17:20.653296,-21.0
2023-12-19 12:17:20.660985,-26.0
2023-12-19 12:17:20.668674,-28.0
2023-12-19 12:17:20.676363,-30.0
2023-12-19 12:17:20.684052,-35.0
2023-12-19 12:17:20.691740,-47.0
2023-12-19 12:17:20.699429,-47.0
2023-12-19 12:17:20.707118,-50.0
2023-12-19 12:17:20.714807,-64.0
2023-12-19 12:17:20.722496,-69.0
2023-12-19 12:17:20.730185,-81.0
2023-12-19 12:17:20.737874,-90.0
2023-12-19 12:17:20.745562,-85.0
2023-12-19 12:17:20.753251,-78.0
2023-12-19 12:17:20.760940,-71.0
2023-12-19 12:17:20.768629,-66.0
2023-12-19 12:17:20.776318,-76.0
2023-12-19 12:17:20.784007,-83.0
2023-12-19 12:17:20.791696,-78.0
2023-12-19 12:17:20.799385,-71.0
2023-12-19 12:17:20.807073,-66.0
2023-12-19 12:17:20.814762,-61.0
2023-12-19 12:17:20.822451,-64.0
2023-12-19 12:17:20.830140,-66.0
2023-12-19 12:17:20.837829,-57.0
2023-12-19 12:17:20.845518,-47.0
2023-12-19 12:17:20.853207,-50.0
2023-12-19 12:17:20.860896,-54.0
2023-12-19 12:17:20.868584,-50.0
2023-12-19 12:17:20.876273,-45.0
2023-12-19 12:17:20.883962,-42.0
2023-12-19 12:17:20.891651,-40.0
2023-12-19 12:17:20.899340,-40.0
2023-12-19 12:17:20.907029,-42.0
2023-12-19 12:17:20.914718,-33.0
2023-12-19 12:17:20.922406,-28.0
2023-12-19 12:17:20.930095,-26.0
2023-12-19 12:17:20.937784,-19.0
2023-12-19 12:17:20.945473,-16.0
2023-12-19 12:17:20.953162,-42.0
2023-12-19 12:17:20.960851,-81.0
2023-12-19 12:17:20.968540,-95.0
2023-12-19 12:17:20.976229,-76.0
2023-12-19 12:17:20.983917,-57.0
2023-12-19 12:17:20.991606,-54.0
2023-12-19 12:17:20.999295,-52.0
2023-12-19 12:17:21.006984,-47.0
2023-12-19 12:17:21.014673,-42.0
2023-12-19 12:17:21.022362,-40.0
2023-12-19 12:17:21.030051,-45.0
2023-12-19 12:17:21.037740,-47.0
2023-12-19 12:17:21.045428,-30.0
2023-12-19 12:17:21.053117,-19.0
2023-12-19 12:17:21.060806,-114.0
2023-12-19 12:17:21.068495,-407.0
2023-12-19 12:17:21.076184,-765.0
2023-12-19 12:17:21.083873,-777.0
2023-12-19 12:17:21.091562,-274.0
2023-12-19 12:17:21.099250,202.0
2023-12-19 12:17:21.106939,183.0
2023-12-19 12:17:21.114628,28.0
2023-12-19 12:17:21.122317,61.0
2023-12-19 12:17:21.130006,83.0
2023-12-19 12:17:21.137695,33.0
2023-12-19 12:17:21.145384,35.0
2023-12-19 12:17:21.153073,50.0
2023-12-19 12:17:21.160761,38.0
2023-12-19 12:17:21.168450,33.0
2023-12-19 12:17:21.176139,33.0
2023-12-19 12:17:21.183828,21.0
2023-12-19 12:17:21.191517,16.0
2023-12-19 12:17:21.199206,21.0
2023-12-19 12:17:21.206895,19.0
2023-12-19 12:17:21.214584,7.0
2023-12-19 12:17:21.222272,-11.0
2023-12-19 12:17:21.229961,-35.0
2023-12-19 12:17:21.237650,-50.0
2023-12-19 12:17:21.245339,-59.0
2023-12-19 12:17:21.253028,-73.0
2023-12-19 12:17:21.260717,-85.0
2023-12-19 12:17:21.268406,-102.0
2023-12-19 12:17:21.276094,-123.0
2023-12-19 12:17:21.283783,-133.0
2023-12-19 12:17:21.291472,-128.0
2023-12-19 12:17:21.299161,-119.0
2023-12-19 12:17:21.306850,-107.0
2023-12-19 12:17:21.314539,-95.0
2023-12-19 12:17:21.322228,-90.0
2023-12-19 12:17:21.329917,-76.0
2023-12-19 12:17:21.337605,-50.0
2023-12-19 12:17:21.345294,-33.0
2023-12-19 12:17:21.352983,-26.0
2023-12-19 12:17:21.360672,-14.0
2023-12-19 12:17:21.368361,2.0
2023-12-19 12:17:21.376050,7.0
2023-12-19 12:17:21.383739,7.0
2023-12-19 12:17:21.391428,11.0
2023-12-19 12:17:21.399116,14.0
2023-12-19 12:17:21.406805,4.0
2023-12-19 12:17:21.414494,-4.0
2023-12-19 12:17:21.422183,2.0
2023-12-19 12:17:21.429872,9.0
2023-12-19 12:17:21.437561,2.0
2023-12-19 12:17:21.445250,-7.0
2023-12-19 12:17:21.452938,-16.0
2023-12-19 12:17:21.460627,-21.0
2023-12-19 12:17:21.468316,-23.0
2023-12-19 12:17:21.476005,-26.0
2023-12-19 12:17:21.483694,-28.0
2023-12-19 12:17:21.491383,-23.0
2023-12-19 12:17:21.499072,-33.0
2023-12-19 12:17:21.506761,-64.0
2023-12-19 12:17:21.514449,-83.0
2023-12-19 12:17:21.522138,-78.0
2023-12-19 12:17:21.529827,-78.0
2023-12-19 12:17:21.537516,-83.0
2023-12-19 12:17:21.545205,-88.0
2023-12-19 12:17:21.552894,-90.0
2023-12-19 12:17:21.560583,-81.0
2023-12-19 12:17:21.568272,-71.0
2023-12-19 12:17:21.575960,-73.0
2023-12-19 12:17:21.583649,-69.0
2023-12-19 12:17:21.591338,-64.0
2023-12-19 12:17:21.599027,-66.0
2023-12-19 12:17:21.606716,-66.0
2023-12-19 12:17:21.614405,-61.0
2023-12-19 12:17:21.622094,-59.0
2023-12-19 12:17:21.629782,-57.0
2023-12-19 12:17:21.637471,-57.0
2023-12-19 12:17:21.645160,-57.0
2023-12-19 12:17:21.652849,-50.0
2023-12-19 12:17:21.660538,-42.0
2023-12-19 12:17:21.668227,-42.0
2023-12-19 12:17:21.675916,-50.0
2023-12-19 12:17:21.683605,-69.0
2023-12-19 12:17:21.691293,-83.0
2023-12-19 12:17:21.698982,-71.0
2023-12-19 12:17:21.706671,-54.0
2023-12-19 12:17:21.714360,-42.0
2023-12-19 12:17:21.722049,-38.0
2023-12-19 12:17:21.729738,-50.0
2023-12-19 12:17:21.737427,-61.0
2023-12-19 12:17:21.745116,-52.0
2023-12-19 12:17:21.752804,-42.0
2023-12-19 12:17:21.760493,-45.0
2023-12-19 12:17:21.768182,-35.0
2023-12-19 12:17:21.775871,-42.0
2023-12-19 12:17:21.783560,-157.0
2023-12-19 12:17:21.791249,-464.0
2023-12-19 12:17:21.798938,-839.0
2023-12-19 12:17:21.806626,-841.0
2023-12-19 12:17:21.814315,-274.0
2023-12-19 12:17:21.822004,257.0
2023-12-19 12:17:21.829693,228.0
2023-12-19 12:17:21.837382,30.0
2023-12-19 12:17:21.845071,45.0
2023-12-19 12:17:21.852760,76.0
2023-12-19 12:17:21.860449,26.0
2023-12-19 12:17:21.868137,19.0
2023-12-19 12:17:21.875826,35.0
2023-12-19 12:17:21.883515,23.0
2023-12-19 12:17:21.891204,11.0
2023-12-19 12:17:21.898893,19.0
2023-12-19 12:17:21.906582,16.0
2023-12-19 12:17:21.914271,7.0
2023-12-19 12:17:21.921960,2.0
2023-12-19 12:17:21.929648,0.0
2023-12-19 12:17:21.937337,-9.0
2023-12-19 12:17:21.945026,-14.0
2023-12-19 12:17:21.952715,-26.0
2023-12-19 12:17:21.960404,-47.0
2023-12-19 12:17:21.968093,-59.0
2023-12-19 12:17:21.975782,-61.0
2023-12-19 12:17:21.983470,-81.0
2023-12-19 12:17:21.991159,-102.0
2023-12-19 12:17:21.998848,-112.0
2023-12-19 12:17:22.006537,-119.0
2023-12-19 12:17:22.014226,-128.0
2023-12-19 12:17:22.021915,-121.0
2023-12-19 12:17:22.029604,-100.0
2023-12-19 12:17:22.037293,-85.0
2023-12-19 12:17:22.044981,-69.0
2023-12-19 12:17:22.052670,-50.0
2023-12-19 12:17:22.060359,-40.0
2023-12-19 12:17:22.068048,-26.0
2023-12-19 12:17:22.075737,-11.0
2023-12-19 12:17:22.083426,2.0
2023-12-19 12:17:22.091115,14.0
2023-12-19 12:17:22.098804,21.0
2023-12-19 12:17:22.106492,21.0
2023-12-19 12:17:22.114181,28.0
2023-12-19 12:17:22.121870,30.0
2023-12-19 12:17:22.129559,19.0
2023-12-19 12:17:22.137248,-7.0
2023-12-19 12:17:22.144937,-14.0
2023-12-19 12:17:22.152626,-7.0
2023-12-19 12:17:22.160314,-19.0
2023-12-19 12:17:22.168003,-28.0
2023-12-19 12:17:22.175692,-19.0
2023-12-19 12:17:22.183381,-28.0
2023-12-19 12:17:22.191070,-45.0
2023-12-19 12:17:22.198759,-45.0
2023-12-19 12:17:22.206448,-42.0
2023-12-19 12:17:22.214137,-47.0
2023-12-19 12:17:22.221825,-47.0
2023-12-19 12:17:22.229514,-52.0
2023-12-19 12:17:22.237203,-64.0
2023-12-19 12:17:22.244892,-61.0
2023-12-19 12:17:22.252581,-59.0
2023-12-19 12:17:22.260270,-69.0
2023-12-19 12:17:22.267959,-66.0
2023-12-19 12:17:22.275648,-50.0
2023-12-19 12:17:22.283336,-50.0
2023-12-19 12:17:22.291025,-52.0
2023-12-19 12:17:22.298714,-42.0
2023-12-19 12:17:22.306403,-35.0
2023-12-19 12:17:22.314092,-33.0
2023-12-19 12:17:22.321781,-30.0
2023-12-19 12:17:22.329470,-33.0
2023-12-19 12:17:22.337158,-42.0
2023-12-19 12:17:22.344847,-42.0
2023-12-19 12:17:22.352536,-42.0
2023-12-19 12:17:22.360225,-40.0
2023-12-19 12:17:22.367914,-33.0
2023-12-19 12:17:22.375603,-26.0
2023-12-19 12:17:22.383292,-26.0
2023-12-19 12:17:22.390981,-35.0
2023-12-19 12:17:22.398669,-57.0
2023-12-19 12:17:22.406358,-76.0
2023-12-19 12:17:22.414047,-73.0
2023-12-19 12:17:22.421736,-59.0
2023-12-19 12:17:22.429425,-50.0
2023-12-19 12:17:22.437114,-38.0
2023-12-19 12:17:22.444803,-28.0
2023-12-19 12:17:22.452492,-28.0
2023-12-19 12:17:22.460180,-23.0
2023-12-19 12:17:22.467869,-23.0
2023-12-19 12:17:22.475558,-33.0
2023-12-19 12:17:22.483247,-26.0
2023-12-19 12:17:22.490936,0.0
2023-12-19 12:17:22.498625,-4.0
2023-12-19 12:17:22.506314,-166.0
2023-12-19 12:17:22.514002,-541.0
2023-12-19 12:17:22.521691,-913.0
2023-12-19 12:17:22.529380,-810.0
2023-12-19 12:17:22.537069,-176.0
2023-12-19 12:17:22.544758,262.0
2023-12-19 12:17:22.552447,159.0
2023-12-19 12:17:22.560136,30.0
2023-12-19 12:17:22.567825,90.0
2023-12-19 12:17:22.575513,92.0
2023-12-19 12:17:22.583202,52.0
2023-12-19 12:17:22.590891,69.0
2023-12-19 12:17:22.598580,76.0
2023-12-19 12:17:22.606269,57.0
2023-12-19 12:17:22.613958,57.0
2023-12-19 12:17:22.621647,57.0
2023-12-19 12:17:22.629336,45.0
2023-12-19 12:17:22.637024,45.0
2023-12-19 12:17:22.644713,47.0
2023-12-19 12:17:22.652402,35.0
2023-12-19 12:17:22.660091,35.0
2023-12-19 12:17:22.667780,23.0
2023-12-19 12:17:22.675469,-19.0
2023-12-19 12:17:22.683158,-45.0
2023-12-19 12:17:22.690846,-40.0
2023-12-19 12:17:22.698535,-52.0
2023-12-19 12:17:22.706224,-81.0
2023-12-19 12:17:22.713913,-92.0
2023-12-19 12:17:22.721602,-97.0
2023-12-19 12:17:22.729291,-104.0
2023-12-19 12:17:22.736980,-114.0
2023-12-19 12:17:22.744669,-116.0
2023-12-19 12:17:22.752357,-112.0
2023-12-19 12:17:22.760046,-104.0
2023-12-19 12:17:22.767735,-88.0
2023-12-19 12:17:22.775424,-59.0
2023-12-19 12:17:22.783113,-30.0
2023-12-19 12:17:22.790802,-14.0
2023-12-19 12:17:22.798491,-4.0
2023-12-19 12:17:22.806180,4.0
2023-12-19 12:17:22.813868,9.0
2023-12-19 12:17:22.821557,16.0
2023-12-19 12:17:22.829246,30.0
2023-12-19 12:17:22.836935,35.0
2023-12-19 12:17:22.844624,35.0
2023-12-19 12:17:22.852313,33.0
2023-12-19 12:17:22.860002,30.0
2023-12-19 12:17:22.867690,30.0
2023-12-19 12:17:22.875379,30.0
2023-12-19 12:17:22.883068,23.0
2023-12-19 12:17:22.890757,21.0
2023-12-19 12:17:22.898446,21.0
2023-12-19 12:17:22.906135,16.0
2023-12-19 12:17:22.913824,9.0
2023-12-19 12:17:22.921513,2.0
2023-12-19 12:17:22.929201,4.0
2023-12-19 12:17:22.936890,0.0
2023-12-19 12:17:22.944579,-9.0
2023-12-19 12:17:22.952268,-4.0
2023-12-19 12:17:22.959957,0.0
2023-12-19 12:17:22.967646,-2.0
2023-12-19 12:17:22.975335,-11.0
2023-12-19 12:17:22.983024,-14.0
2023-12-19 12:17:22.990712,-9.0
2023-12-19 12:17:22.998401,-11.0
2023-12-19 12:17:23.006090,-16.0
2023-12-19 12:17:23.013779,-21.0
2023-12-19 12:17:23.021468,-23.0
2023-12-19 12:17:23.029157,-14.0
2023-12-19 12:17:23.036846,-11.0
2023-12-19 12:17:23.044534,-19.0
2023-12-19 12:17:23.052223,-16.0
2023-12-19 12:17:23.059912,4.0
2023-12-19 12:17:23.067601,11.0
2023-12-19 12:17:23.075290,-9.0
2023-12-19 12:17:23.082979,-19.0
2023-12-19 12:17:23.090668,0.0
2023-12-19 12:17:23.098357,4.0
2023-12-19 12:17:23.106045,-16.0
2023-12-19 12:17:23.113734,-11.0
2023-12-19 12:17:23.121423,7.0
2023-12-19 12:17:23.129112,-4.0
2023-12-19 12:17:23.136801,-23.0
2023-12-19 12:17:23.144490,-38.0
2023-12-19 12:17:23.152179,-47.0
2023-12-19 12:17:23.159868,-47.0
2023-12-19 12:17:23.167556,-47.0
2023-12-19 12:17:23.175245,-45.0
2023-12-19 12:17:23.182934,-26.0
2023-12-19 12:17:23.190623,-11.0
2023-12-19 12:17:23.198312,-9.0
2023-12-19 12:17:23.206001,-11.0
2023-12-19 12:17:23.213690,-28.0
2023-12-19 12:17:23.221378,-47.0
2023-12-19 12:17:23.229067,-42.0
2023-12-19 12:17:23.236756,-33.0
2023-12-19 12:17:23.244445,-50.0
2023-12-19 12:17:23.252134,-181.0
2023-12-19 12:17:23.259823,-517.0
2023-12-19 12:17:23.267512,-870.0
2023-12-19 12:17:23.275201,-774.0
2023-12-19 12:17:23.282889,-185.0
2023-12-19 12:17:23.290578,214.0
2023-12-19 12:17:23.298267,116.0
2023-12-19 12:17:23.305956,0.0
2023-12-19 12:17:23.313645,61.0
2023-12-19 12:17:23.321334,71.0
2023-12-19 12:17:23.329023,35.0
2023-12-19 12:17:23.336712,45.0
2023-12-19 12:17:23.344400,45.0
2023-12-19 12:17:23.352089,35.0
2023-12-19 12:17:23.359778,38.0
2023-12-19 12:17:23.367467,33.0
2023-12-19 12:17:23.375156,26.0
2023-12-19 12:17:23.382845,35.0
2023-12-19 12:17:23.390534,33.0
2023-12-19 12:17:23.398222,11.0
2023-12-19 12:17:23.405911,7.0
2023-12-19 12:17:23.413600,19.0
2023-12-19 12:17:23.421289,16.0
2023-12-19 12:17:23.428978,0.0
2023-12-19 12:17:23.436667,-26.0
2023-12-19 12:17:23.444356,-50.0
2023-12-19 12:17:23.452045,-64.0
2023-12-19 12:17:23.459733,-69.0
2023-12-19 12:17:23.467422,-76.0
2023-12-19 12:17:23.475111,-81.0
2023-12-19 12:17:23.482800,-78.0
2023-12-19 12:17:23.490489,-78.0
2023-12-19 12:17:23.498178,-73.0
2023-12-19 12:17:23.505867,-57.0
2023-12-19 12:17:23.513556,-38.0
2023-12-19 12:17:23.521244,-23.0
2023-12-19 12:17:23.528933,-14.0
2023-12-19 12:17:23.536622,0.0
2023-12-19 12:17:23.544311,21.0
2023-12-19 12:17:23.552000,35.0
2023-12-19 12:17:23.559689,42.0
2023-12-19 12:17:23.567378,45.0
2023-12-19 12:17:23.575066,52.0
2023-12-19 12:17:23.582755,66.0
2023-12-19 12:17:23.590444,69.0
2023-12-19 12:17:23.598133,59.0
2023-12-19 12:17:23.605822,64.0
2023-12-19 12:17:23.613511,73.0
2023-12-19 12:17:23.621200,59.0
2023-12-19 12:17:23.628889,42.0
2023-12-19 12:17:23.636577,50.0
2023-12-19 12:17:23.644266,47.0
2023-12-19 12:17:23.651955,35.0
2023-12-19 12:17:23.659644,30.0
2023-12-19 12:17:23.667333,28.0
2023-12-19 12:17:23.675022,21.0
2023-12-19 12:17:23.682711,26.0
2023-12-19 12:17:23.690400,33.0
2023-12-19 12:17:23.698088,26.0
2023-12-19 12:17:23.705777,19.0
2023-12-19 12:17:23.713466,23.0
2023-12-19 12:17:23.721155,23.0
2023-12-19 12:17:23.728844,19.0
2023-12-19 12:17:23.736533,14.0
2023-12-19 12:17:23.744222,0.0
2023-12-19 12:17:23.751910,-21.0
2023-12-19 12:17:23.759599,-26.0
2023-12-19 12:17:23.767288,-14.0
2023-12-19 12:17:23.774977,-16.0
2023-12-19 12:17:23.782666,-21.0
2023-12-19 12:17:23.790355,-14.0
2023-12-19 12:17:23.798044,-28.0
2023-12-19 12:17:23.805733,-52.0
2023-12-19 12:17:23.813421,-47.0
2023-12-19 12:17:23.821110,-40.0
2023-12-19 12:17:23.828799,-42.0
2023-12-19 12:17:23.836488,-40.0
2023-12-19 12:17:23.844177,-30.0
2023-12-19 12:17:23.851866,-26.0
2023-12-19 12:17:23.859555,-26.0
2023-12-19 12:17:23.867244,-26.0
2023-12-19 12:17:23.874932,-30.0
2023-12-19 12:17:23.882621,-47.0
2023-12-19 12:17:23.890310,-73.0
2023-12-19 12:17:23.897999,-90.0
2023-12-19 12:17:23.905688,-81.0
2023-12-19 12:17:23.913377,-66.0
2023-12-19 12:17:23.921066,-54.0
2023-12-19 12:17:23.928754,-42.0
2023-12-19 12:17:23.936443,-40.0
2023-12-19 12:17:23.944132,-47.0
2023-12-19 12:17:23.951821,-52.0
2023-12-19 12:17:23.959510,-42.0
2023-12-19 12:17:23.967199,-30.0
2023-12-19 12:17:23.974888,-30.0
2023-12-19 12:17:23.982577,-42.0
2023-12-19 12:17:23.990265,-147.0
2023-12-19 12:17:23.997954,-443.0
2023-12-19 12:17:24.005643,-789.0
2023-12-19 12:17:24.013332,-758.0
2023-12-19 12:17:24.021021,-221.0
2023-12-19 12:17:24.028710,224.0
2023-12-19 12:17:24.036399,174.0
2023-12-19 12:17:24.044088,16.0
2023-12-19 12:17:24.051776,42.0
2023-12-19 12:17:24.059465,61.0
2023-12-19 12:17:24.067154,21.0
2023-12-19 12:17:24.074843,23.0
2023-12-19 12:17:24.082532,26.0
2023-12-19 12:17:24.090221,11.0
2023-12-19 12:17:24.097910,14.0
2023-12-19 12:17:24.105598,16.0
2023-12-19 12:17:24.113287,7.0
2023-12-19 12:17:24.120976,7.0
2023-12-19 12:17:24.128665,11.0
2023-12-19 12:17:24.136354,-7.0
2023-12-19 12:17:24.144043,-21.0
2023-12-19 12:17:24.151732,-16.0
2023-12-19 12:17:24.159421,-23.0
2023-12-19 12:17:24.167109,-45.0
2023-12-19 12:17:24.174798,-61.0
2023-12-19 12:17:24.182487,-76.0
2023-12-19 12:17:24.190176,-88.0
2023-12-19 12:17:24.197865,-97.0
2023-12-19 12:17:24.205554,-114.0
2023-12-19 12:17:24.213243,-119.0
2023-12-19 12:17:24.220932,-116.0
2023-12-19 12:17:24.228620,-121.0
2023-12-19 12:17:24.236309,-126.0
2023-12-19 12:17:24.243998,-123.0
2023-12-19 12:17:24.251687,-107.0
2023-12-19 12:17:24.259376,-85.0
2023-12-19 12:17:24.267065,-69.0
2023-12-19 12:17:24.274754,-61.0
2023-12-19 12:17:24.282442,-47.0
2023-12-19 12:17:24.290131,-28.0
2023-12-19 12:17:24.297820,-19.0
2023-12-19 12:17:24.305509,-11.0
2023-12-19 12:17:24.313198,-4.0
2023-12-19 12:17:24.320887,-2.0
2023-12-19 12:17:24.328576,-4.0
2023-12-19 12:17:24.336265,0.0
2023-12-19 12:17:24.343953,2.0
2023-12-19 12:17:24.351642,-2.0
2023-12-19 12:17:24.359331,-4.0
2023-12-19 12:17:24.367020,-7.0
2023-12-19 12:17:24.374709,-11.0
2023-12-19 12:17:24.382398,-33.0
2023-12-19 12:17:24.390087,-57.0
2023-12-19 12:17:24.397776,-61.0
2023-12-19 12:17:24.405464,-57.0
2023-12-19 12:17:24.413153,-59.0
2023-12-19 12:17:24.420842,-57.0
2023-12-19 12:17:24.428531,-57.0
2023-12-19 12:17:24.436220,-57.0
2023-12-19 12:17:24.443909,-47.0
2023-12-19 12:17:24.451598,-45.0
2023-12-19 12:17:24.459286,-45.0
2023-12-19 12:17:24.466975,-40.0
2023-12-19 12:17:24.474664,-47.0
2023-12-19 12:17:24.482353,-50.0
2023-12-19 12:17:24.490042,-40.0
2023-12-19 12:17:24.497731,-35.0
2023-12-19 12:17:24.505420,-35.0
2023-12-19 12:17:24.513109,-30.0
2023-12-19 12:17:24.520797,-30.0
2023-12-19 12:17:24.528486,-42.0
2023-12-19 12:17:24.536175,-50.0
2023-12-19 12:17:24.543864,-42.0
2023-12-19 12:17:24.551553,-42.0
2023-12-19 12:17:24.559242,-50.0
2023-12-19 12:17:24.566931,-54.0
2023-12-19 12:17:24.574620,-45.0
2023-12-19 12:17:24.582308,-35.0
2023-12-19 12:17:24.589997,-33.0
2023-12-19 12:17:24.597686,-35.0
2023-12-19 12:17:24.605375,-47.0
2023-12-19 12:17:24.613064,-73.0
2023-12-19 12:17:24.620753,-88.0
2023-12-19 12:17:24.628442,-73.0
2023-12-19 12:17:24.636130,-59.0
2023-12-19 12:17:24.643819,-54.0
2023-12-19 12:17:24.651508,-61.0
2023-12-19 12:17:24.659197,-81.0
2023-12-19 12:17:24.666886,-90.0
2023-12-19 12:17:24.674575,-85.0
2023-12-19 12:17:24.682264,-90.0
2023-12-19 12:17:24.689953,-100.0
2023-12-19 12:17:24.697641,-107.0
2023-12-19 12:17:24.705330,-119.0
2023-12-19 12:17:24.713019,-200.0
2023-12-19 12:17:24.720708,-474.0
2023-12-19 12:17:24.728397,-872.0
2023-12-19 12:17:24.736086,-975.0
2023-12-19 12:17:24.743775,-507.0
2023-12-19 12:17:24.751464,69.0
2023-12-19 12:17:24.759152,157.0
2023-12-19 12:17:24.766841,-35.0
2023-12-19 12:17:24.774530,-66.0
2023-12-19 12:17:24.782219,-33.0
2023-12-19 12:17:24.789908,-88.0
2023-12-19 12:17:24.797597,-112.0
2023-12-19 12:17:24.805286,-83.0
2023-12-19 12:17:24.812974,-78.0
2023-12-19 12:17:24.820663,-95.0
2023-12-19 12:17:24.828352,-104.0
2023-12-19 12:17:24.836041,-119.0
2023-12-19 12:17:24.843730,-126.0
2023-12-19 12:17:24.851419,-114.0
2023-12-19 12:17:24.859108,-112.0
2023-12-19 12:17:24.866797,-121.0
2023-12-19 12:17:24.874485,-138.0
2023-12-19 12:17:24.882174,-162.0
2023-12-19 12:17:24.889863,-174.0
2023-12-19 12:17:24.897552,-169.0
2023-12-19 12:17:24.905241,-181.0
2023-12-19 12:17:24.912930,-205.0
2023-12-19 12:17:24.920619,-231.0
2023-12-19 12:17:24.928308,-255.0
2023-12-19 12:17:24.935996,-257.0
2023-12-19 12:17:24.943685,-236.0
2023-12-19 12:17:24.951374,-216.0
2023-12-19 12:17:24.959063,-214.0
2023-12-19 12:17:24.966752,-209.0
2023-12-19 12:17:24.974441,-185.0
2023-12-19 12:17:24.982130,-154.0
2023-12-19 12:17:24.989818,-128.0
2023-12-19 12:17:24.997507,-107.0
2023-12-19 12:17:25.005196,-95.0
2023-12-19 12:17:25.012885,-100.0
2023-12-19 12:17:25.020574,-102.0
2023-12-19 12:17:25.028263,-83.0
2023-12-19 12:17:25.035952,-64.0
2023-12-19 12:17:25.043641,-64.0
2023-12-19 12:17:25.051329,-64.0
2023-12-19 12:17:25.059018,-69.0
2023-12-19 12:17:25.066707,-76.0
2023-12-19 12:17:25.074396,-73.0
2023-12-19 12:17:25.082085,-64.0
2023-12-19 12:17:25.089774,-61.0
2023-12-19 12:17:25.097463,-76.0
2023-12-19 12:17:25.105152,-119.0
2023-12-19 12:17:25.112840,-145.0
2023-12-19 12:17:25.120529,-131.0
2023-12-19 12:17:25.128218,-123.0
2023-12-19 12:17:25.135907,-128.0
2023-12-19 12:17:25.143596,-140.0
2023-12-19 12:17:25.151285,-174.0
2023-12-19 12:17:25.158974,-193.0
2023-12-19 12:17:25.166662,-166.0
2023-12-19 12:17:25.174351,-145.0
2023-12-19 12:17:25.182040,-140.0
2023-12-19 12:17:25.189729,-145.0
2023-12-19 12:17:25.197418,-157.0
2023-12-19 12:17:25.205107,-152.0
2023-12-19 12:17:25.212796,-145.0
2023-12-19 12:17:25.220485,-143.0
2023-12-19 12:17:25.228173,-123.0
2023-12-19 12:17:25.235862,-112.0
2023-12-19 12:17:25.243551,-116.0
2023-12-19 12:17:25.251240,-112.0
2023-12-19 12:17:25.258929,-109.0
2023-12-19 12:17:25.266618,-114.0
2023-12-19 12:17:25.274307,-102.0
2023-12-19 12:17:25.281996,-88.0
2023-12-19 12:17:25.289684,-88.0
2023-12-19 12:17:25.297373,-83.0
2023-12-19 12:17:25.305062,-66.0
2023-12-19 12:17:25.312751,-59.0
2023-12-19 12:17:25.320440,-69.0
2023-12-19 12:17:25.328129,-97.0
2023-12-19 12:17:25.335818,-119.0
2023-12-19 12:17:25.343506,-102.0
2023-12-19 12:17:25.351195,-78.0
2023-12-19 12:17:25.358884,-69.0
2023-12-19 12:17:25.366573,-54.0
2023-12-19 12:17:25.374262,-42.0
2023-12-19 12:17:25.381951,-42.0
2023-12-19 12:17:25.389640,-40.0
2023-12-19 12:17:25.397329,-33.0
2023-12-19 12:17:25.405017,-21.0
2023-12-19 12:17:25.412706,-11.0
2023-12-19 12:17:25.420395,-4.0
2023-12-19 12:17:25.428084,-19.0
2023-12-19 12:17:25.435773,-166.0
2023-12-19 12:17:25.443462,-526.0
2023-12-19 12:17:25.451151,-894.0
2023-12-19 12:17:25.458840,-801.0
2023-12-19 12:17:25.466528,-190.0
2023-12-19 12:17:25.474217,233.0
2023-12-19 12:17:25.481906,123.0
2023-12-19 12:17:25.489595,-2.0
2023-12-19 12:17:25.497284,76.0
2023-12-19 12:17:25.504973,76.0
2023-12-19 12:17:25.512662,16.0
2023-12-19 12:17:25.520350,33.0
2023-12-19 12:17:25.528039,50.0
2023-12-19 12:17:25.535728,38.0
2023-12-19 12:17:25.543417,30.0
2023-12-19 12:17:25.551106,14.0
2023-12-19 12:17:25.558795,-11.0
2023-12-19 12:17:25.566484,-11.0
2023-12-19 12:17:25.574173,-4.0
2023-12-19 12:17:25.581861,-14.0
2023-12-19 12:17:25.589550,-21.0
2023-12-19 12:17:25.597239,-33.0
2023-12-19 12:17:25.604928,-64.0
2023-12-19 12:17:25.612617,-78.0
2023-12-19 12:17:25.620306,-83.0
2023-12-19 12:17:25.627995,-92.0
2023-12-19 12:17:25.635684,-107.0
2023-12-19 12:17:25.643372,-143.0
2023-12-19 12:17:25.651061,-178.0
2023-12-19 12:17:25.658750,-176.0
2023-12-19 12:17:25.666439,-152.0
2023-12-19 12:17:25.674128,-140.0
2023-12-19 12:17:25.681817,-133.0
2023-12-19 12:17:25.689506,-121.0
2023-12-19 12:17:25.697194,-100.0
2023-12-19 12:17:25.704883,-83.0
2023-12-19 12:17:25.712572,-69.0
2023-12-19 12:17:25.720261,-50.0
2023-12-19 12:17:25.727950,-33.0
2023-12-19 12:17:25.735639,-23.0
2023-12-19 12:17:25.743328,-9.0
2023-12-19 12:17:25.751017,0.0
2023-12-19 12:17:25.758705,-11.0
2023-12-19 12:17:25.766394,-21.0
2023-12-19 12:17:25.774083,-7.0
2023-12-19 12:17:25.781772,0.0
2023-12-19 12:17:25.789461,-7.0
2023-12-19 12:17:25.797150,-4.0
2023-12-19 12:17:25.804839,4.0
2023-12-19 12:17:25.812528,9.0
2023-12-19 12:17:25.820216,7.0
2023-12-19 12:17:25.827905,0.0
2023-12-19 12:17:25.835594,-2.0
2023-12-19 12:17:25.843283,-2.0
2023-12-19 12:17:25.850972,-2.0
2023-12-19 12:17:25.858661,0.0
2023-12-19 12:17:25.866350,-4.0
2023-12-19 12:17:25.874038,-7.0
2023-12-19 12:17:25.881727,-4.0
2023-12-19 12:17:25.889416,0.0
2023-12-19 12:17:25.897105,2.0
2023-12-19 12:17:25.904794,7.0
2023-12-19 12:17:25.912483,7.0
2023-12-19 12:17:25.920172,9.0
2023-12-19 12:17:25.927861,14.0
2023-12-19 12:17:25.935549,16.0
2023-12-19 12:17:25.943238,14.0
2023-12-19 12:17:25.950927,9.0
2023-12-19 12:17:25.958616,4.0
2023-12-19 12:17:25.966305,14.0
2023-12-19 12:17:25.973994,19.0
2023-12-19 12:17:25.981683,9.0
2023-12-19 12:17:25.989372,11.0
2023-12-19 12:17:25.997060,26.0
2023-12-19 12:17:26.004749,23.0
2023-12-19 12:17:26.012438,16.0
2023-12-19 12:17:26.020127,19.0
2023-12-19 12:17:26.027816,19.0
2023-12-19 12:17:26.035505,9.0
2023-12-19 12:17:26.043194,2.0
2023-12-19 12:17:26.050882,-14.0
2023-12-19 12:17:26.058571,-21.0
2023-12-19 12:17:26.066260,-9.0
2023-12-19 12:17:26.073949,-11.0
2023-12-19 12:17:26.081638,-28.0
2023-12-19 12:17:26.089327,-47.0
2023-12-19 12:17:26.097016,-57.0
2023-12-19 12:17:26.104705,-50.0
2023-12-19 12:17:26.112393,-35.0
2023-12-19 12:17:26.120082,-21.0
2023-12-19 12:17:26.127771,-11.0
2023-12-19 12:17:26.135460,-9.0
2023-12-19 12:17:26.143149,-11.0
2023-12-19 12:17:26.150838,-14.0
2023-12-19 12:17:26.158527,-16.0
2023-12-19 12:17:26.166216,-19.0
2023-12-19 12:17:26.173904,-9.0
2023-12-19 12:17:26.181593,4.0
2023-12-19 12:17:26.189282,-59.0
2023-12-19 12:17:26.196971,-305.0
2023-12-19 12:17:26.204660,-701.0
2023-12-19 12:17:26.212349,-894.0
2023-12-19 12:17:26.220038,-524.0
2023-12-19 12:17:26.227726,61.0
2023-12-19 12:17:26.235415,200.0
2023-12-19 12:17:26.243104,28.0
2023-12-19 12:17:26.250793,23.0
2023-12-19 12:17:26.258482,69.0
2023-12-19 12:17:26.266171,9.0
2023-12-19 12:17:26.273860,-7.0
2023-12-19 12:17:26.281549,19.0
2023-12-19 12:17:26.289237,9.0
2023-12-19 12:17:26.296926,0.0
2023-12-19 12:17:26.304615,7.0
2023-12-19 12:17:26.312304,0.0
2023-12-19 12:17:26.319993,-9.0
2023-12-19 12:17:26.327682,-9.0
2023-12-19 12:17:26.335371,-9.0
2023-12-19 12:17:26.343060,-14.0
2023-12-19 12:17:26.350748,-19.0
2023-12-19 12:17:26.358437,-28.0
2023-12-19 12:17:26.366126,-42.0
2023-12-19 12:17:26.373815,-57.0
2023-12-19 12:17:26.381504,-61.0
2023-12-19 12:17:26.389193,-73.0
2023-12-19 12:17:26.396882,-95.0
2023-12-19 12:17:26.404570,-112.0
2023-12-19 12:17:26.412259,-119.0
2023-12-19 12:17:26.419948,-119.0
2023-12-19 12:17:26.427637,-109.0
2023-12-19 12:17:26.435326,-104.0
2023-12-19 12:17:26.443015,-107.0
2023-12-19 12:17:26.450704,-95.0
2023-12-19 12:17:26.458393,-71.0
2023-12-19 12:17:26.466081,-54.0
2023-12-19 12:17:26.473770,-40.0
2023-12-19 12:17:26.481459,-16.0
2023-12-19 12:17:26.489148,-4.0
2023-12-19 12:17:26.496837,-2.0
2023-12-19 12:17:26.504526,2.0
2023-12-19 12:17:26.512215,16.0
2023-12-19 12:17:26.519904,28.0
2023-12-19 12:17:26.527592,28.0
2023-12-19 12:17:26.535281,26.0
2023-12-19 12:17:26.542970,23.0
2023-12-19 12:17:26.550659,19.0
2023-12-19 12:17:26.558348,23.0
2023-12-19 12:17:26.566037,28.0
2023-12-19 12:17:26.573726,23.0
2023-12-19 12:17:26.581414,11.0
2023-12-19 12:17:26.589103,-14.0
2023-12-19 12:17:26.596792,-26.0
2023-12-19 12:17:26.604481,-19.0
2023-12-19 12:17:26.612170,-16.0
2023-12-19 12:17:26.619859,-26.0
2023-12-19 12:17:26.627548,-28.0
2023-12-19 12:17:26.635237,-30.0
2023-12-19 12:17:26.642925,-33.0
2023-12-19 12:17:26.650614,-26.0
2023-12-19 12:17:26.658303,-19.0
2023-12-19 12:17:26.665992,-16.0
2023-12-19 12:17:26.673681,-16.0
2023-12-19 12:17:26.681370,-19.0
2023-12-19 12:17:26.689059,-23.0
2023-12-19 12:17:26.696748,-23.0
2023-12-19 12:17:26.704436,-19.0
2023-12-19 12:17:26.712125,-16.0
2023-12-19 12:17:26.719814,-16.0
2023-12-19 12:17:26.727503,-21.0
2023-12-19 12:17:26.735192,-23.0
2023-12-19 12:17:26.742881,-14.0
2023-12-19 12:17:26.750570,-9.0
2023-12-19 12:17:26.758258,-19.0
2023-12-19 12:17:26.765947,-30.0
2023-12-19 12:17:26.773636,-42.0
2023-12-19 12:17:26.781325,-42.0
2023-12-19 12:17:26.789014,-35.0
2023-12-19 12:17:26.796703,-33.0
2023-12-19 12:17:26.804392,-38.0
2023-12-19 12:17:26.812081,-45.0
2023-12-19 12:17:26.819769,-42.0
2023-12-19 12:17:26.827458,-30.0
2023-12-19 12:17:26.835147,-23.0
2023-12-19 12:17:26.842836,-19.0
2023-12-19 12:17:26.850525,-19.0
2023-12-19 12:17:26.858214,-28.0
2023-12-19 12:17:26.865903,-52.0
2023-12-19 12:17:26.873592,-73.0
2023-12-19 12:17:26.881280,-69.0
2023-12-19 12:17:26.888969,-57.0
2023-12-19 12:17:26.896658,-52.0
2023-12-19 12:17:26.904347,-50.0
2023-12-19 12:17:26.912036,-50.0
2023-12-19 12:17:26.919725,-54.0
2023-12-19 12:17:26.927414,-57.0
2023-12-19 12:17:26.935102,-59.0
2023-12-19 12:17:26.942791,-64.0
2023-12-19 12:17:26.950480,-64.0
2023-12-19 12:17:26.958169,-57.0
2023-12-19 12:17:26.965858,-47.0
2023-12-19 12:17:26.973547,-135.0
2023-12-19 12:17:26.981236,-433.0
2023-12-19 12:17:26.988925,-805.0
2023-12-19 12:17:26.996613,-810.0
2023-12-19 12:17:27.004302,-283.0
2023-12-19 12:17:27.011991,174.0
2023-12-19 12:17:27.019680,131.0
2023-12-19 12:17:27.027369,-2.0
2023-12-19 12:17:27.035058,45.0
2023-12-19 12:17:27.042747,59.0
2023-12-19 12:17:27.050436,11.0
2023-12-19 12:17:27.058124,23.0
2023-12-19 12:17:27.065813,38.0
2023-12-19 12:17:27.073502,19.0
2023-12-19 12:17:27.081191,14.0
2023-12-19 12:17:27.088880,16.0
2023-12-19 12:17:27.096569,7.0
2023-12-19 12:17:27.104258,2.0
2023-12-19 12:17:27.111946,9.0
2023-12-19 12:17:27.119635,0.0
2023-12-19 12:17:27.127324,-21.0
2023-12-19 12:17:27.135013,-30.0
2023-12-19 12:17:27.142702,-30.0
2023-12-19 12:17:27.150391,-42.0
2023-12-19 12:17:27.158080,-57.0
2023-12-19 12:17:27.165769,-69.0
2023-12-19 12:17:27.173457,-88.0
2023-12-19 12:17:27.181146,-104.0
2023-12-19 12:17:27.188835,-121.0
2023-12-19 12:17:27.196524,-131.0
2023-12-19 12:17:27.204213,-131.0
2023-12-19 12:17:27.211902,-119.0
2023-12-19 12:17:27.219591,-107.0
2023-12-19 12:17:27.227280,-104.0
2023-12-19 12:17:27.234968,-92.0
2023-12-19 12:17:27.242657,-69.0
2023-12-19 12:17:27.250346,-47.0
2023-12-19 12:17:27.258035,-30.0
2023-12-19 12:17:27.265724,-21.0
2023-12-19 12:17:27.273413,-26.0
2023-12-19 12:17:27.281102,-26.0
2023-12-19 12:17:27.288790,-11.0
2023-12-19 12:17:27.296479,0.0
2023-12-19 12:17:27.304168,-4.0
2023-12-19 12:17:27.311857,-26.0
2023-12-19 12:17:27.319546,-38.0
2023-12-19 12:17:27.327235,-28.0
2023-12-19 12:17:27.334924,-19.0
2023-12-19 12:17:27.342613,-23.0
2023-12-19 12:17:27.350301,-35.0
2023-12-19 12:17:27.357990,-57.0
2023-12-19 12:17:27.365679,-66.0
2023-12-19 12:17:27.373368,-57.0
2023-12-19 12:17:27.381057,-52.0
2023-12-19 12:17:27.388746,-57.0
2023-12-19 12:17:27.396435,-57.0
2023-12-19 12:17:27.404124,-54.0
2023-12-19 12:17:27.411812,-57.0
2023-12-19 12:17:27.419501,-59.0
2023-12-19 12:17:27.427190,-57.0
2023-12-19 12:17:27.434879,-59.0
2023-12-19 12:17:27.442568,-61.0
2023-12-19 12:17:27.450257,-59.0
2023-12-19 12:17:27.457946,-54.0
2023-12-19 12:17:27.465634,-50.0
2023-12-19 12:17:27.473323,-35.0
2023-12-19 12:17:27.481012,-30.0
2023-12-19 12:17:27.488701,-33.0
2023-12-19 12:17:27.496390,-40.0
2023-12-19 12:17:27.504079,-45.0
2023-12-19 12:17:27.511768,-45.0
2023-12-19 12:17:27.519457,-40.0
2023-12-19 12:17:27.527145,-38.0
2023-12-19 12:17:27.534834,-38.0
2023-12-19 12:17:27.542523,-38.0
2023-12-19 12:17:27.550212,-35.0
2023-12-19 12:17:27.557901,-33.0
2023-12-19 12:17:27.565590,-33.0
2023-12-19 12:17:27.573279,-33.0
2023-12-19 12:17:27.580968,-28.0
2023-12-19 12:17:27.588656,-26.0
2023-12-19 12:17:27.596345,-23.0
2023-12-19 12:17:27.604034,-16.0
2023-12-19 12:17:27.611723,-21.0
2023-12-19 12:17:27.619412,-52.0
2023-12-19 12:17:27.627101,-76.0
2023-12-19 12:17:27.634790,-69.0
2023-12-19 12:17:27.642478,-54.0
2023-12-19 12:17:27.650167,-50.0
2023-12-19 12:17:27.657856,-50.0
2023-12-19 12:17:27.665545,-50.0
2023-12-19 12:17:27.673234,-50.0
2023-12-19 12:17:27.680923,-52.0
2023-12-19 12:17:27.688612,-54.0
2023-12-19 12:17:27.696301,-57.0
2023-12-19 12:17:27.703989,-54.0
2023-12-19 12:17:27.711678,-54.0
2023-12-19 12:17:27.719367,-102.0
2023-12-19 12:17:27.727056,-293.0
2023-12-19 12:17:27.734745,-660.0
2023-12-19 12:17:27.742434,-925.0
2023-12-19 12:17:27.750123,-665.0
2023-12-19 12:17:27.757812,-42.0
2023-12-19 12:17:27.765500,240.0
2023-12-19 12:17:27.773189,71.0
2023-12-19 12:17:27.780878,-33.0
2023-12-19 12:17:27.788567,21.0
2023-12-19 12:17:27.796256,14.0
2023-12-19 12:17:27.803945,-23.0
2023-12-19 12:17:27.811634,-11.0
2023-12-19 12:17:27.819322,-9.0
2023-12-19 12:17:27.827011,-19.0
2023-12-19 12:17:27.834700,-14.0
2023-12-19 12:17:27.842389,-9.0
2023-12-19 12:17:27.850078,-21.0
2023-12-19 12:17:27.857767,-28.0
2023-12-19 12:17:27.865456,-30.0
2023-12-19 12:17:27.873145,-33.0
2023-12-19 12:17:27.880833,-30.0
2023-12-19 12:17:27.888522,-35.0
2023-12-19 12:17:27.896211,-52.0
2023-12-19 12:17:27.903900,-64.0
2023-12-19 12:17:27.911589,-73.0
2023-12-19 12:17:27.919278,-97.0
2023-12-19 12:17:27.926967,-123.0
2023-12-19 12:17:27.934656,-133.0
2023-12-19 12:17:27.942344,-135.0
2023-12-19 12:17:27.950033,-133.0
2023-12-19 12:17:27.957722,-126.0
2023-12-19 12:17:27.965411,-114.0
2023-12-19 12:17:27.973100,-102.0
2023-12-19 12:17:27.980789,-88.0
2023-12-19 12:17:27.988478,-76.0
2023-12-19 12:17:27.996166,-57.0
2023-12-19 12:17:28.003855,-35.0
2023-12-19 12:17:28.011544,-19.0
2023-12-19 12:17:28.019233,-9.0
2023-12-19 12:17:28.026922,2.0
2023-12-19 12:17:28.034611,14.0
2023-12-19 12:17:28.042300,28.0
2023-12-19 12:17:28.049989,38.0
2023-12-19 12:17:28.057677,33.0
2023-12-19 12:17:28.065366,33.0
2023-12-19 12:17:28.073055,33.0
2023-12-19 12:17:28.080744,28.0
2023-12-19 12:17:28.088433,28.0
2023-12-19 12:17:28.096122,26.0
2023-12-19 12:17:28.103811,16.0
2023-12-19 12:17:28.111500,11.0
2023-12-19 12:17:28.119188,11.0
2023-12-19 12:17:28.126877,7.0
2023-12-19 12:17:28.134566,2.0
2023-12-19 12:17:28.142255,-2.0
2023-12-19 12:17:28.149944,-2.0
2023-12-19 12:17:28.157633,-2.0
2023-12-19 12:17:28.165322,-9.0
2023-12-19 12:17:28.173010,-11.0
2023-12-19 12:17:28.180699,-2.0
2023-12-19 12:17:28.188388,2.0
2023-12-19 12:17:28.196077,0.0
2023-12-19 12:17:28.203766,0.0
2023-12-19 12:17:28.211455,7.0
2023-12-19 12:17:28.219144,7.0
2023-12-19 12:17:28.226833,4.0
2023-12-19 12:17:28.234521,7.0
2023-12-19 12:17:28.242210,4.0
2023-12-19 12:17:28.249899,-7.0
2023-12-19 12:17:28.257588,-30.0
2023-12-19 12:17:28.265277,-33.0
2023-12-19 12:17:28.272966,-28.0
2023-12-19 12:17:28.280655,-45.0
2023-12-19 12:17:28.288344,-59.0
2023-12-19 12:17:28.296032,-52.0
2023-12-19 12:17:28.303721,-42.0
2023-12-19 12:17:28.311410,-38.0
2023-12-19 12:17:28.319099,-28.0
2023-12-19 12:17:28.326788,-28.0
2023-12-19 12:17:28.334477,-40.0
2023-12-19 12:17:28.342166,-59.0
2023-12-19 12:17:28.349854,-73.0
2023-12-19 12:17:28.357543,-66.0
2023-12-19 12:17:28.365232,-52.0
2023-12-19 12:17:28.372921,-47.0
2023-12-19 12:17:28.380610,-45.0
2023-12-19 12:17:28.388299,-42.0
2023-12-19 12:17:28.395988,-47.0
2023-12-19 12:17:28.403677,-50.0
2023-12-19 12:17:28.411365,-54.0
2023-12-19 12:17:28.419054,-66.0
2023-12-19 12:17:28.426743,-57.0
2023-12-19 12:17:28.434432,-35.0
2023-12-19 12:17:28.442121,-95.0
2023-12-19 12:17:28.449810,-352.0
2023-12-19 12:17:28.457499,-779.0
2023-12-19 12:17:28.465188,-975.0
2023-12-19 12:17:28.472876,-553.0
2023-12-19 12:17:28.480565,88.0
2023-12-19 12:17:28.488254,221.0
2023-12-19 12:17:28.495943,23.0
2023-12-19 12:17:28.503632,23.0
2023-12-19 12:17:28.511321,88.0
2023-12-19 12:17:28.519010,35.0
2023-12-19 12:17:28.526698,19.0
2023-12-19 12:17:28.534387,50.0
2023-12-19 12:17:28.542076,38.0
2023-12-19 12:17:28.549765,26.0
2023-12-19 12:17:28.557454,28.0
2023-12-19 12:17:28.565143,21.0
2023-12-19 12:17:28.572832,11.0
2023-12-19 12:17:28.580521,14.0
2023-12-19 12:17:28.588209,14.0
2023-12-19 12:17:28.595898,7.0
2023-12-19 12:17:28.603587,0.0
2023-12-19 12:17:28.611276,-11.0
2023-12-19 12:17:28.618965,-21.0
2023-12-19 12:17:28.626654,-33.0
2023-12-19 12:17:28.634343,-45.0
2023-12-19 12:17:28.642032,-59.0
2023-12-19 12:17:28.649720,-83.0
2023-12-19 12:17:28.657409,-104.0
2023-12-19 12:17:28.665098,-116.0
2023-12-19 12:17:28.672787,-109.0
2023-12-19 12:17:28.680476,-97.0
2023-12-19 12:17:28.688165,-88.0
2023-12-19 12:17:28.695854,-71.0
2023-12-19 12:17:28.703542,-54.0
2023-12-19 12:17:28.711231,-40.0
2023-12-19 12:17:28.718920,-28.0
2023-12-19 12:17:28.726609,-9.0
2023-12-19 12:17:28.734298,11.0
2023-12-19 12:17:28.741987,21.0
2023-12-19 12:17:28.749676,23.0
2023-12-19 12:17:28.757365,30.0
2023-12-19 12:17:28.765053,40.0
2023-12-19 12:17:28.772742,47.0
2023-12-19 12:17:28.780431,42.0
2023-12-19 12:17:28.788120,26.0
2023-12-19 12:17:28.795809,19.0
2023-12-19 12:17:28.803498,21.0
2023-12-19 12:17:28.811187,23.0
2023-12-19 12:17:28.818876,23.0
2023-12-19 12:17:28.826564,21.0
2023-12-19 12:17:28.834253,11.0
2023-12-19 12:17:28.841942,2.0
2023-12-19 12:17:28.849631,2.0
2023-12-19 12:17:28.857320,2.0
2023-12-19 12:17:28.865009,-2.0
2023-12-19 12:17:28.872698,-2.0
2023-12-19 12:17:28.880386,-11.0
2023-12-19 12:17:28.888075,-42.0
2023-12-19 12:17:28.895764,-50.0
2023-12-19 12:17:28.903453,-35.0
2023-12-19 12:17:28.911142,-40.0
2023-12-19 12:17:28.918831,-47.0
2023-12-19 12:17:28.926520,-47.0
2023-12-19 12:17:28.934209,-61.0
2023-12-19 12:17:28.941897,-61.0
2023-12-19 12:17:28.949586,-52.0
2023-12-19 12:17:28.957275,-50.0
2023-12-19 12:17:28.964964,-47.0
2023-12-19 12:17:28.972653,-50.0
2023-12-19 12:17:28.980342,-54.0
2023-12-19 12:17:28.988031,-52.0
2023-12-19 12:17:28.995720,-42.0
2023-12-19 12:17:29.003408,-35.0
2023-12-19 12:17:29.011097,-40.0
2023-12-19 12:17:29.018786,-45.0
2023-12-19 12:17:29.026475,-42.0
2023-12-19 12:17:29.034164,-38.0
2023-12-19 12:17:29.041853,-35.0
2023-12-19 12:17:29.049542,-26.0
2023-12-19 12:17:29.057230,-21.0
2023-12-19 12:17:29.064919,-26.0
2023-12-19 12:17:29.072608,-28.0
2023-12-19 12:17:29.080297,-14.0
2023-12-19 12:17:29.087986,-9.0
2023-12-19 12:17:29.095675,-40.0
2023-12-19 12:17:29.103364,-71.0
2023-12-19 12:17:29.111053,-73.0
2023-12-19 12:17:29.118741,-71.0
2023-12-19 12:17:29.126430,-64.0
2023-12-19 12:17:29.134119,-42.0
2023-12-19 12:17:29.141808,-38.0
2023-12-19 12:17:29.149497,-47.0
2023-12-19 12:17:29.157186,-47.0
2023-12-19 12:17:29.164875,-42.0
2023-12-19 12:17:29.172564,-42.0
2023-12-19 12:17:29.180252,-33.0
2023-12-19 12:17:29.187941,-11.0
2023-12-19 12:17:29.195630,-7.0
2023-12-19 12:17:29.203319,-126.0
2023-12-19 12:17:29.211008,-455.0
2023-12-19 12:17:29.218697,-822.0
2023-12-19 12:17:29.226386,-796.0
2023-12-19 12:17:29.234074,-233.0
2023-12-19 12:17:29.241763,228.0
2023-12-19 12:17:29.249452,157.0
2023-12-19 12:17:29.257141,16.0
2023-12-19 12:17:29.264830,90.0
2023-12-19 12:17:29.272519,100.0
2023-12-19 12:17:29.280208,47.0
2023-12-19 12:17:29.287897,61.0
2023-12-19 12:17:29.295585,57.0
2023-12-19 12:17:29.303274,26.0
2023-12-19 12:17:29.310963,35.0
2023-12-19 12:17:29.318652,42.0
2023-12-19 12:17:29.326341,21.0
2023-12-19 12:17:29.334030,14.0
2023-12-19 12:17:29.341719,19.0
2023-12-19 12:17:29.349408,9.0
2023-12-19 12:17:29.357096,7.0
2023-12-19 12:17:29.364785,11.0
2023-12-19 12:17:29.372474,0.0
2023-12-19 12:17:29.380163,-19.0
2023-12-19 12:17:29.387852,-38.0
2023-12-19 12:17:29.395541,-64.0
2023-12-19 12:17:29.403230,-81.0
2023-12-19 12:17:29.410918,-95.0
2023-12-19 12:17:29.418607,-126.0
2023-12-19 12:17:29.426296,-150.0
2023-12-19 12:17:29.433985,-145.0
2023-12-19 12:17:29.441674,-138.0
2023-12-19 12:17:29.449363,-131.0
2023-12-19 12:17:29.457052,-107.0
2023-12-19 12:17:29.464741,-95.0
2023-12-19 12:17:29.472429,-102.0
2023-12-19 12:17:29.480118,-85.0
2023-12-19 12:17:29.487807,-54.0
2023-12-19 12:17:29.495496,-47.0
2023-12-19 12:17:29.503185,-38.0
2023-12-19 12:17:29.510874,-19.0
2023-12-19 12:17:29.518563,-4.0
2023-12-19 12:17:29.526252,0.0
2023-12-19 12:17:29.533940,0.0
2023-12-19 12:17:29.541629,2.0
2023-12-19 12:17:29.549318,4.0
2023-12-19 12:17:29.557007,4.0
2023-12-19 12:17:29.564696,11.0
2023-12-19 12:17:29.572385,19.0
2023-12-19 12:17:29.580074,7.0
2023-12-19 12:17:29.587762,2.0
2023-12-19 12:17:29.595451,14.0
2023-12-19 12:17:29.603140,7.0
2023-12-19 12:17:29.610829,0.0
2023-12-19 12:17:29.618518,2.0
2023-12-19 12:17:29.626207,-2.0
2023-12-19 12:17:29.633896,-7.0
2023-12-19 12:17:29.641585,-16.0
2023-12-19 12:17:29.649273,-16.0
2023-12-19 12:17:29.656962,-7.0
2023-12-19 12:17:29.664651,-21.0
2023-12-19 12:17:29.672340,-40.0
2023-12-19 12:17:29.680029,-19.0
2023-12-19 12:17:29.687718,-4.0
2023-12-19 12:17:29.695407,-30.0
2023-12-19 12:17:29.703096,-40.0
2023-12-19 12:17:29.710784,-16.0
2023-12-19 12:17:29.718473,-7.0
2023-12-19 12:17:29.726162,-16.0
2023-12-19 12:17:29.733851,-23.0
2023-12-19 12:17:29.741540,-16.0
2023-12-19 12:17:29.749229,-7.0
2023-12-19 12:17:29.756918,-11.0
2023-12-19 12:17:29.764606,-21.0
2023-12-19 12:17:29.772295,-16.0
2023-12-19 12:17:29.779984,-7.0
2023-12-19 12:17:29.787673,-16.0
2023-12-19 12:17:29.795362,-33.0
2023-12-19 12:17:29.803051,-33.0
2023-12-19 12:17:29.810740,-28.0
2023-12-19 12:17:29.818429,-33.0
2023-12-19 12:17:29.826117,-40.0
2023-12-19 12:17:29.833806,-57.0
2023-12-19 12:17:29.841495,-85.0
2023-12-19 12:17:29.849184,-100.0
2023-12-19 12:17:29.856873,-90.0
2023-12-19 12:17:29.864562,-83.0
2023-12-19 12:17:29.872251,-78.0
2023-12-19 12:17:29.879940,-61.0
2023-12-19 12:17:29.887628,-52.0
2023-12-19 12:17:29.895317,-69.0
2023-12-19 12:17:29.903006,-73.0
2023-12-19 12:17:29.910695,-66.0
2023-12-19 12:17:29.918384,-61.0
2023-12-19 12:17:29.926073,-61.0
2023-12-19 12:17:29.933762,-47.0
2023-12-19 12:17:29.941450,-38.0
2023-12-19 12:17:29.949139,-150.0
2023-12-19 12:17:29.956828,-474.0
2023-12-19 12:17:29.964517,-827.0
2023-12-19 12:17:29.972206,-753.0
2023-12-19 12:17:29.979895,-185.0
2023-12-19 12:17:29.987584,207.0
2023-12-19 12:17:29.995273,104.0
2023-12-19 12:17:30.002961,-35.0
2023-12-19 12:17:30.010650,-11.0
2023-12-19 12:17:30.018339,-14.0
2023-12-19 12:17:30.026028,-33.0
2023-12-19 12:17:30.033717,-9.0
2023-12-19 12:17:30.041406,-11.0
2023-12-19 12:17:30.049095,-35.0
2023-12-19 12:17:30.056784,-52.0
2023-12-19 12:17:30.064472,-59.0
2023-12-19 12:17:30.072161,-50.0
2023-12-19 12:17:30.079850,-47.0
2023-12-19 12:17:30.087539,-59.0
2023-12-19 12:17:30.095228,-69.0
2023-12-19 12:17:30.102917,-66.0
2023-12-19 12:17:30.110606,-69.0
2023-12-19 12:17:30.118294,-73.0
2023-12-19 12:17:30.125983,-83.0
2023-12-19 12:17:30.133672,-100.0
2023-12-19 12:17:30.141361,-119.0
2023-12-19 12:17:30.149050,-131.0
2023-12-19 12:17:30.156739,-143.0
2023-12-19 12:17:30.164428,-152.0
2023-12-19 12:17:30.172117,-152.0
2023-12-19 12:17:30.179805,-145.0
2023-12-19 12:17:30.187494,-140.0
2023-12-19 12:17:30.195183,-128.0
2023-12-19 12:17:30.202872,-107.0
2023-12-19 12:17:30.210561,-90.0
2023-12-19 12:17:30.218250,-76.0
2023-12-19 12:17:30.225939,-54.0
2023-12-19 12:17:30.233628,-38.0
2023-12-19 12:17:30.241316,-30.0
2023-12-19 12:17:30.249005,-19.0
2023-12-19 12:17:30.256694,0.0
2023-12-19 12:17:30.264383,4.0
2023-12-19 12:17:30.272072,2.0
2023-12-19 12:17:30.279761,14.0
2023-12-19 12:17:30.287450,26.0
2023-12-19 12:17:30.295138,9.0
2023-12-19 12:17:30.302827,-7.0
2023-12-19 12:17:30.310516,-2.0
2023-12-19 12:17:30.318205,-2.0
2023-12-19 12:17:30.325894,-11.0
2023-12-19 12:17:30.333583,-11.0
2023-12-19 12:17:30.341272,-11.0
2023-12-19 12:17:30.348961,-19.0
2023-12-19 12:17:30.356649,-19.0
2023-12-19 12:17:30.364338,-21.0
2023-12-19 12:17:30.372027,-30.0
2023-12-19 12:17:30.379716,-33.0
2023-12-19 12:17:30.387405,-35.0
2023-12-19 12:17:30.395094,-38.0
2023-12-19 12:17:30.402783,-33.0
2023-12-19 12:17:30.410472,-33.0
2023-12-19 12:17:30.418160,-33.0
2023-12-19 12:17:30.425849,-26.0
2023-12-19 12:17:30.433538,-23.0
2023-12-19 12:17:30.441227,-26.0
2023-12-19 12:17:30.448916,-28.0
2023-12-19 12:17:30.456605,-30.0
2023-12-19 12:17:30.464294,-30.0
2023-12-19 12:17:30.471982,-26.0
2023-12-19 12:17:30.479671,-26.0
2023-12-19 12:17:30.487360,-28.0
2023-12-19 12:17:30.495049,-26.0
2023-12-19 12:17:30.502738,-40.0
2023-12-19 12:17:30.510427,-61.0
2023-12-19 12:17:30.518116,-61.0
2023-12-19 12:17:30.525805,-47.0
2023-12-19 12:17:30.533493,-47.0
2023-12-19 12:17:30.541182,-47.0
2023-12-19 12:17:30.548871,-61.0
2023-12-19 12:17:30.556560,-92.0
2023-12-19 12:17:30.564249,-109.0
2023-12-19 12:17:30.571938,-112.0
2023-12-19 12:17:30.579627,-112.0
2023-12-19 12:17:30.587316,-107.0
2023-12-19 12:17:30.595004,-102.0
2023-12-19 12:17:30.602693,-95.0
2023-12-19 12:17:30.610382,-90.0
2023-12-19 12:17:30.618071,-85.0
2023-12-19 12:17:30.625760,-83.0
2023-12-19 12:17:30.633449,-95.0
2023-12-19 12:17:30.641138,-104.0
2023-12-19 12:17:30.648826,-90.0
2023-12-19 12:17:30.656515,-66.0
2023-12-19 12:17:30.664204,-100.0
2023-12-19 12:17:30.671893,-305.0
2023-12-19 12:17:30.679582,-679.0
2023-12-19 12:17:30.687271,-898.0
2023-12-19 12:17:30.694960,-574.0
2023-12-19 12:17:30.702649,42.0
2023-12-19 12:17:30.710337,257.0
2023-12-19 12:17:30.718026,71.0
2023-12-19 12:17:30.725715,-2.0
2023-12-19 12:17:30.733404,38.0
2023-12-19 12:17:30.741093,7.0
2023-12-19 12:17:30.748782,-11.0
2023-12-19 12:17:30.756471,14.0
2023-12-19 12:17:30.764160,9.0
2023-12-19 12:17:30.771848,-9.0
2023-12-19 12:17:30.779537,-11.0
2023-12-19 12:17:30.787226,-14.0
2023-12-19 12:17:30.794915,-26.0
2023-12-19 12:17:30.802604,-38.0
2023-12-19 12:17:30.810293,-40.0
2023-12-19 12:17:30.817982,-45.0
2023-12-19 12:17:30.825670,-59.0
2023-12-19 12:17:30.833359,-66.0
2023-12-19 12:17:30.841048,-66.0
2023-12-19 12:17:30.848737,-73.0
2023-12-19 12:17:30.856426,-88.0
2023-12-19 12:17:30.864115,-104.0
2023-12-19 12:17:30.871804,-126.0
2023-12-19 12:17:30.879493,-152.0
2023-12-19 12:17:30.887181,-164.0
2023-12-19 12:17:30.894870,-154.0
2023-12-19 12:17:30.902559,-143.0
2023-12-19 12:17:30.910248,-133.0
2023-12-19 12:17:30.917937,-119.0
2023-12-19 12:17:30.925626,-100.0
2023-12-19 12:17:30.933315,-83.0
2023-12-19 12:17:30.941004,-61.0
2023-12-19 12:17:30.948692,-45.0
2023-12-19 12:17:30.956381,-35.0
2023-12-19 12:17:30.964070,-21.0
2023-12-19 12:17:30.971759,-2.0
2023-12-19 12:17:30.979448,4.0
2023-12-19 12:17:30.987137,11.0
2023-12-19 12:17:30.994826,23.0
2023-12-19 12:17:31.002514,23.0
2023-12-19 12:17:31.010203,19.0
2023-12-19 12:17:31.017892,28.0
2023-12-19 12:17:31.025581,30.0
2023-12-19 12:17:31.033270,23.0
2023-12-19 12:17:31.040959,16.0
2023-12-19 12:17:31.048648,7.0
2023-12-19 12:17:31.056337,0.0
2023-12-19 12:17:31.064025,0.0
2023-12-19 12:17:31.071714,-4.0
2023-12-19 12:17:31.079403,-14.0
2023-12-19 12:17:31.087092,-19.0
2023-12-19 12:17:31.094781,-21.0
2023-12-19 12:17:31.102470,-16.0
2023-12-19 12:17:31.110159,-14.0
2023-12-19 12:17:31.117848,-16.0
2023-12-19 12:17:31.125536,-28.0
2023-12-19 12:17:31.133225,-30.0
2023-12-19 12:17:31.140914,-23.0
2023-12-19 12:17:31.148603,-21.0
2023-12-19 12:17:31.156292,-19.0
2023-12-19 12:17:31.163981,-9.0
2023-12-19 12:17:31.171670,-7.0
2023-12-19 12:17:31.179358,-11.0
2023-12-19 12:17:31.187047,-7.0
2023-12-19 12:17:31.194736,-7.0
2023-12-19 12:17:31.202425,-9.0
2023-12-19 12:17:31.210114,-2.0
2023-12-19 12:17:31.217803,-2.0
2023-12-19 12:17:31.225492,-7.0
2023-12-19 12:17:31.233181,-7.0
2023-12-19 12:17:31.240869,-2.0
2023-12-19 12:17:31.248558,-2.0
2023-12-19 12:17:31.256247,-7.0
2023-12-19 12:17:31.263936,-23.0
2023-12-19 12:17:31.271625,-47.0
2023-12-19 12:17:31.279314,-57.0
2023-12-19 12:17:31.287003,-42.0
2023-12-19 12:17:31.294692,-30.0
2023-12-19 12:17:31.302380,-35.0
2023-12-19 12:17:31.310069,-40.0
2023-12-19 12:17:31.317758,-42.0
2023-12-19 12:17:31.325447,-42.0
2023-12-19 12:17:31.333136,-42.0
2023-12-19 12:17:31.340825,-30.0
2023-12-19 12:17:31.348514,-26.0
2023-12-19 12:17:31.356202,-26.0
2023-12-19 12:17:31.363891,-40.0
2023-12-19 12:17:31.371580,-181.0
2023-12-19 12:17:31.379269,-541.0
2023-12-19 12:17:31.386958,-925.0
2023-12-19 12:17:31.394647,-851.0
2023-12-19 12:17:31.402336,-240.0
2023-12-19 12:17:31.410025,221.0
2023-12-19 12:17:31.417713,131.0
2023-12-19 12:17:31.425402,-23.0
2023-12-19 12:17:31.433091,38.0
2023-12-19 12:17:31.440780,52.0
2023-12-19 12:17:31.448469,-4.0
2023-12-19 12:17:31.456158,4.0
2023-12-19 12:17:31.463847,19.0
2023-12-19 12:17:31.471536,-4.0
2023-12-19 12:17:31.479224,-11.0
2023-12-19 12:17:31.486913,0.0
2023-12-19 12:17:31.494602,-9.0
2023-12-19 12:17:31.502291,-21.0
2023-12-19 12:17:31.509980,-19.0
2023-12-19 12:17:31.517669,-23.0
2023-12-19 12:17:31.525358,-33.0
2023-12-19 12:17:31.533046,-40.0
2023-12-19 12:17:31.540735,-47.0
2023-12-19 12:17:31.548424,-59.0
2023-12-19 12:17:31.556113,-76.0
2023-12-19 12:17:31.563802,-92.0
2023-12-19 12:17:31.571491,-104.0
2023-12-19 12:17:31.579180,-119.0
2023-12-19 12:17:31.586869,-135.0
2023-12-19 12:17:31.594557,-143.0
2023-12-19 12:17:31.602246,-138.0
2023-12-19 12:17:31.609935,-128.0
2023-12-19 12:17:31.617624,-121.0
2023-12-19 12:17:31.625313,-114.0
2023-12-19 12:17:31.633002,-102.0
2023-12-19 12:17:31.640691,-76.0
2023-12-19 12:17:31.648380,-50.0
2023-12-19 12:17:31.656068,-38.0
2023-12-19 12:17:31.663757,-26.0
2023-12-19 12:17:31.671446,-11.0
2023-12-19 12:17:31.679135,-4.0
2023-12-19 12:17:31.686824,4.0
2023-12-19 12:17:31.694513,16.0
2023-12-19 12:17:31.702202,14.0
2023-12-19 12:17:31.709890,11.0
2023-12-19 12:17:31.717579,0.0
2023-12-19 12:17:31.725268,-16.0
2023-12-19 12:17:31.732957,-14.0
2023-12-19 12:17:31.740646,-9.0
2023-12-19 12:17:31.748335,-11.0
2023-12-19 12:17:31.756024,-19.0
2023-12-19 12:17:31.763713,-59.0
2023-12-19 12:17:31.771401,-109.0
2023-12-19 12:17:31.779090,-107.0
2023-12-19 12:17:31.786779,-85.0
2023-12-19 12:17:31.794468,-92.0
2023-12-19 12:17:31.802157,-109.0
2023-12-19 12:17:31.809846,-116.0
2023-12-19 12:17:31.817535,-109.0
2023-12-19 12:17:31.825224,-97.0
2023-12-19 12:17:31.832912,-95.0
2023-12-19 12:17:31.840601,-90.0
2023-12-19 12:17:31.848290,-76.0
2023-12-19 12:17:31.855979,-73.0
2023-12-19 12:17:31.863668,-76.0
2023-12-19 12:17:31.871357,-71.0
2023-12-19 12:17:31.879046,-64.0
2023-12-19 12:17:31.886734,-64.0
2023-12-19 12:17:31.894423,-81.0
2023-12-19 12:17:31.902112,-112.0
2023-12-19 12:17:31.909801,-126.0
2023-12-19 12:17:31.917490,-104.0
2023-12-19 12:17:31.925179,-95.0
2023-12-19 12:17:31.932868,-100.0
2023-12-19 12:17:31.940557,-90.0
2023-12-19 12:17:31.948245,-85.0
2023-12-19 12:17:31.955934,-88.0
2023-12-19 12:17:31.963623,-73.0
2023-12-19 12:17:31.971312,-64.0
2023-12-19 12:17:31.979001,-73.0
2023-12-19 12:17:31.986690,-73.0
2023-12-19 12:17:31.994379,-61.0
2023-12-19 12:17:32.002068,-57.0
2023-12-19 12:17:32.009756,-73.0
2023-12-19 12:17:32.017445,-92.0
2023-12-19 12:17:32.025134,-92.0
2023-12-19 12:17:32.032823,-78.0
2023-12-19 12:17:32.040512,-66.0
2023-12-19 12:17:32.048201,-54.0
2023-12-19 12:17:32.055890,-40.0
2023-12-19 12:17:32.063578,-38.0
2023-12-19 12:17:32.071267,-42.0
2023-12-19 12:17:32.078956,-33.0
2023-12-19 12:17:32.086645,-26.0
2023-12-19 12:17:32.094334,-26.0
2023-12-19 12:17:32.102023,-19.0
2023-12-19 12:17:32.109712,-19.0
2023-12-19 12:17:32.117401,-116.0
2023-12-19 12:17:32.125089,-410.0
2023-12-19 12:17:32.132778,-808.0
2023-12-19 12:17:32.140467,-882.0
2023-12-19 12:17:32.148156,-371.0
2023-12-19 12:17:32.155845,166.0
2023-12-19 12:17:32.163534,166.0
2023-12-19 12:17:32.171223,-7.0
2023-12-19 12:17:32.178912,40.0
2023-12-19 12:17:32.186600,78.0
2023-12-19 12:17:32.194289,21.0
2023-12-19 12:17:32.201978,26.0
2023-12-19 12:17:32.209667,35.0
2023-12-19 12:17:32.217356,-11.0
2023-12-19 12:17:32.225045,-26.0
2023-12-19 12:17:32.232734,-4.0
2023-12-19 12:17:32.240422,-4.0
2023-12-19 12:17:32.248111,-19.0
2023-12-19 12:17:32.255800,-38.0
2023-12-19 12:17:32.263489,-61.0
2023-12-19 12:17:32.271178,-54.0
2023-12-19 12:17:32.278867,-47.0
2023-12-19 12:17:32.286556,-59.0
2023-12-19 12:17:32.294245,-69.0
2023-12-19 12:17:32.301933,-78.0
2023-12-19 12:17:32.309622,-112.0
2023-12-19 12:17:32.317311,-133.0
2023-12-19 12:17:32.325000,-138.0
2023-12-19 12:17:32.332689,-150.0
2023-12-19 12:17:32.340378,-162.0
2023-12-19 12:17:32.348067,-152.0
2023-12-19 12:17:32.355756,-143.0
2023-12-19 12:17:32.363444,-140.0
2023-12-19 12:17:32.371133,-121.0
2023-12-19 12:17:32.378822,-95.0
2023-12-19 12:17:32.386511,-81.0
2023-12-19 12:17:32.394200,-85.0
2023-12-19 12:17:32.401889,-81.0
2023-12-19 12:17:32.409578,-52.0
2023-12-19 12:17:32.417266,-23.0
2023-12-19 12:17:32.424955,-11.0
2023-12-19 12:17:32.432644,-9.0
2023-12-19 12:17:32.440333,-9.0
2023-12-19 12:17:32.448022,0.0
2023-12-19 12:17:32.455711,11.0
2023-12-19 12:17:32.463400,19.0
2023-12-19 12:17:32.471089,19.0
2023-12-19 12:17:32.478777,14.0
2023-12-19 12:17:32.486466,11.0
2023-12-19 12:17:32.494155,23.0
2023-12-19 12:17:32.501844,23.0
2023-12-19 12:17:32.509533,16.0
2023-12-19 12:17:32.517222,19.0
2023-12-19 12:17:32.524911,16.0
2023-12-19 12:17:32.532600,4.0
2023-12-19 12:17:32.540288,-2.0
2023-12-19 12:17:32.547977,4.0
2023-12-19 12:17:32.555666,7.0
2023-12-19 12:17:32.563355,7.0
2023-12-19 12:17:32.571044,7.0
2023-12-19 12:17:32.578733,0.0
2023-12-19 12:17:32.586422,0.0
2023-12-19 12:17:32.594110,9.0
2023-12-19 12:17:32.601799,9.0
2023-12-19 12:17:32.609488,4.0
2023-12-19 12:17:32.617177,4.0
2023-12-19 12:17:32.624866,0.0
2023-12-19 12:17:32.632555,2.0
2023-12-19 12:17:32.640244,14.0
2023-12-19 12:17:32.647933,19.0
2023-12-19 12:17:32.655621,21.0
2023-12-19 12:17:32.663310,21.0
2023-12-19 12:17:32.670999,16.0
2023-12-19 12:17:32.678688,16.0
2023-12-19 12:17:32.686377,21.0
2023-12-19 12:17:32.694066,16.0
2023-12-19 12:17:32.701755,7.0
2023-12-19 12:17:32.709444,2.0
2023-12-19 12:17:32.717132,-2.0
2023-12-19 12:17:32.724821,2.0
2023-12-19 12:17:32.732510,9.0
2023-12-19 12:17:32.740199,11.0
2023-12-19 12:17:32.747888,14.0
2023-12-19 12:17:32.755577,14.0
2023-12-19 12:17:32.763266,2.0
2023-12-19 12:17:32.770955,-21.0
2023-12-19 12:17:32.778643,-35.0
2023-12-19 12:17:32.786332,-23.0
2023-12-19 12:17:32.794021,-19.0
2023-12-19 12:17:32.801710,-38.0
2023-12-19 12:17:32.809399,-50.0
2023-12-19 12:17:32.817088,-50.0
2023-12-19 12:17:32.824777,-52.0
2023-12-19 12:17:32.832465,-52.0
2023-12-19 12:17:32.840154,-50.0
2023-12-19 12:17:32.847843,-59.0
2023-12-19 12:17:32.855532,-71.0
2023-12-19 12:17:32.863221,-52.0
2023-12-19 12:17:32.870910,-45.0
2023-12-19 12:17:32.878599,-171.0
2023-12-19 12:17:32.886288,-507.0
2023-12-19 12:17:32.893976,-879.0
2023-12-19 12:17:32.901665,-813.0
2023-12-19 12:17:32.909354,-231.0
2023-12-19 12:17:32.917043,188.0
2023-12-19 12:17:32.924732,97.0
2023-12-19 12:17:32.932421,-47.0
2023-12-19 12:17:32.940110,-9.0
2023-12-19 12:17:32.947799,4.0
2023-12-19 12:17:32.955487,-28.0
2023-12-19 12:17:32.963176,-23.0
2023-12-19 12:17:32.970865,-16.0
2023-12-19 12:17:32.978554,-28.0
2023-12-19 12:17:32.986243,-33.0
2023-12-19 12:17:32.993932,-33.0
2023-12-19 12:17:33.001621,-28.0
2023-12-19 12:17:33.009309,-26.0
2023-12-19 12:17:33.016998,-33.0
2023-12-19 12:17:33.024687,-40.0
2023-12-19 12:17:33.032376,-35.0
2023-12-19 12:17:33.040065,-42.0
2023-12-19 12:17:33.047754,-57.0
2023-12-19 12:17:33.055443,-66.0
2023-12-19 12:17:33.063132,-73.0
2023-12-19 12:17:33.070820,-88.0
2023-12-19 12:17:33.078509,-104.0
2023-12-19 12:17:33.086198,-121.0
2023-12-19 12:17:33.093887,-138.0
2023-12-19 12:17:33.101576,-147.0
2023-12-19 12:17:33.109265,-143.0
2023-12-19 12:17:33.116954,-128.0
2023-12-19 12:17:33.124643,-119.0
2023-12-19 12:17:33.132331,-114.0
2023-12-19 12:17:33.140020,-100.0
2023-12-19 12:17:33.147709,-73.0
2023-12-19 12:17:33.155398,-45.0
2023-12-19 12:17:33.163087,-26.0
2023-12-19 12:17:33.170776,-19.0
2023-12-19 12:17:33.178465,-9.0
2023-12-19 12:17:33.186153,11.0
2023-12-19 12:17:33.193842,23.0
2023-12-19 12:17:33.201531,19.0
2023-12-19 12:17:33.209220,21.0
2023-12-19 12:17:33.216909,33.0
2023-12-19 12:17:33.224598,38.0
2023-12-19 12:17:33.232287,40.0
2023-12-19 12:17:33.239976,38.0
2023-12-19 12:17:33.247664,35.0
2023-12-19 12:17:33.255353,38.0
2023-12-19 12:17:33.263042,35.0
2023-12-19 12:17:33.270731,21.0
2023-12-19 12:17:33.278420,21.0
2023-12-19 12:17:33.286109,21.0
2023-12-19 12:17:33.293798,9.0
2023-12-19 12:17:33.301487,4.0
2023-12-19 12:17:33.309175,0.0
2023-12-19 12:17:33.316864,-19.0
2023-12-19 12:17:33.324553,-28.0
2023-12-19 12:17:33.332242,-21.0
2023-12-19 12:17:33.339931,-16.0
2023-12-19 12:17:33.347620,-21.0
2023-12-19 12:17:33.355309,-28.0
2023-12-19 12:17:33.362997,-26.0
2023-12-19 12:17:33.370686,-11.0
2023-12-19 12:17:33.378375,-11.0
2023-12-19 12:17:33.386064,-33.0
2023-12-19 12:17:33.393753,-42.0
2023-12-19 12:17:33.401442,-30.0
2023-12-19 12:17:33.409131,-23.0
2023-12-19 12:17:33.416820,-19.0
2023-12-19 12:17:33.424508,-26.0
2023-12-19 12:17:33.432197,-50.0
2023-12-19 12:17:33.439886,-57.0
2023-12-19 12:17:33.447575,-45.0
2023-12-19 12:17:33.455264,-47.0
2023-12-19 12:17:33.462953,-52.0
2023-12-19 12:17:33.470642,-47.0
2023-12-19 12:17:33.478331,-42.0
2023-12-19 12:17:33.486019,-38.0
2023-12-19 12:17:33.493708,-30.0
2023-12-19 12:17:33.501397,-26.0
2023-12-19 12:17:33.509086,-35.0
2023-12-19 12:17:33.516775,-78.0
2023-12-19 12:17:33.524464,-114.0
2023-12-19 12:17:33.532153,-90.0
2023-12-19 12:17:33.539841,-66.0
2023-12-19 12:17:33.547530,-64.0
2023-12-19 12:17:33.555219,-52.0
2023-12-19 12:17:33.562908,-45.0
2023-12-19 12:17:33.570597,-47.0
2023-12-19 12:17:33.578286,-47.0
2023-12-19 12:17:33.585975,-54.0
2023-12-19 12:17:33.593664,-64.0
2023-12-19 12:17:33.601352,-64.0
2023-12-19 12:17:33.609041,-54.0
2023-12-19 12:17:33.616730,-90.0
2023-12-19 12:17:33.624419,-290.0
2023-12-19 12:17:33.632108,-674.0
2023-12-19 12:17:33.639797,-910.0
2023-12-19 12:17:33.647486,-596.0
2023-12-19 12:17:33.655175,30.0
2023-12-19 12:17:33.662863,267.0
2023-12-19 12:17:33.670552,90.0
2023-12-19 12:17:33.678241,14.0
2023-12-19 12:17:33.685930,59.0
2023-12-19 12:17:33.693619,33.0
2023-12-19 12:17:33.701308,9.0
2023-12-19 12:17:33.708997,28.0
2023-12-19 12:17:33.716685,30.0
2023-12-19 12:17:33.724374,11.0
2023-12-19 12:17:33.732063,11.0
2023-12-19 12:17:33.739752,14.0
2023-12-19 12:17:33.747441,9.0
2023-12-19 12:17:33.755130,2.0
2023-12-19 12:17:33.762819,2.0
2023-12-19 12:17:33.770508,0.0
2023-12-19 12:17:33.778196,-9.0
2023-12-19 12:17:33.785885,-16.0
2023-12-19 12:17:33.793574,-28.0
2023-12-19 12:17:33.801263,-38.0
2023-12-19 12:17:33.808952,-50.0
2023-12-19 12:17:33.816641,-76.0
2023-12-19 12:17:33.824330,-112.0
2023-12-19 12:17:33.832019,-133.0
2023-12-19 12:17:33.839707,-140.0
2023-12-19 12:17:33.847396,-138.0
2023-12-19 12:17:33.855085,-128.0
2023-12-19 12:17:33.862774,-116.0
2023-12-19 12:17:33.870463,-102.0
2023-12-19 12:17:33.878152,-90.0
2023-12-19 12:17:33.885841,-78.0
2023-12-19 12:17:33.893529,-57.0
2023-12-19 12:17:33.901218,-28.0
2023-12-19 12:17:33.908907,-4.0
2023-12-19 12:17:33.916596,-4.0
2023-12-19 12:17:33.924285,-16.0
2023-12-19 12:17:33.931974,-11.0
2023-12-19 12:17:33.939663,2.0
2023-12-19 12:17:33.947352,11.0
2023-12-19 12:17:33.955040,14.0
2023-12-19 12:17:33.962729,21.0
2023-12-19 12:17:33.970418,21.0
2023-12-19 12:17:33.978107,16.0
2023-12-19 12:17:33.985796,19.0
2023-12-19 12:17:33.993485,19.0
2023-12-19 12:17:34.001174,11.0
2023-12-19 12:17:34.008863,4.0
2023-12-19 12:17:34.016551,4.0
2023-12-19 12:17:34.024240,7.0
2023-12-19 12:17:34.031929,4.0
2023-12-19 12:17:34.039618,-4.0
2023-12-19 12:17:34.047307,-4.0
2023-12-19 12:17:34.054996,-2.0
2023-12-19 12:17:34.062685,-11.0
2023-12-19 12:17:34.070373,-11.0
2023-12-19 12:17:34.078062,-2.0
2023-12-19 12:17:34.085751,-2.0
2023-12-19 12:17:34.093440,-4.0
2023-12-19 12:17:34.101129,-4.0
2023-12-19 12:17:34.108818,-4.0
2023-12-19 12:17:34.116507,-2.0
2023-12-19 12:17:34.124196,9.0
2023-12-19 12:17:34.131884,16.0
2023-12-19 12:17:34.139573,21.0
2023-12-19 12:17:34.147262,16.0
2023-12-19 12:17:34.154951,14.0
2023-12-19 12:17:34.162640,19.0
2023-12-19 12:17:34.170329,16.0
2023-12-19 12:17:34.178018,14.0
2023-12-19 12:17:34.185707,19.0
2023-12-19 12:17:34.193395,16.0
2023-12-19 12:17:34.201084,4.0
2023-12-19 12:17:34.208773,9.0
2023-12-19 12:17:34.216462,16.0
2023-12-19 12:17:34.224151,9.0
2023-12-19 12:17:34.231840,9.0
2023-12-19 12:17:34.239529,14.0
2023-12-19 12:17:34.247217,14.0
2023-12-19 12:17:34.254906,4.0
2023-12-19 12:17:34.262595,-19.0
2023-12-19 12:17:34.270284,-30.0
2023-12-19 12:17:34.277973,-21.0
2023-12-19 12:17:34.285662,-19.0
2023-12-19 12:17:34.293351,-11.0
2023-12-19 12:17:34.301040,4.0
2023-12-19 12:17:34.308728,7.0
2023-12-19 12:17:34.316417,2.0
2023-12-19 12:17:34.324106,-7.0
2023-12-19 12:17:34.331795,-30.0
2023-12-19 12:17:34.339484,-45.0
2023-12-19 12:17:34.347173,-35.0
2023-12-19 12:17:34.354862,-21.0
2023-12-19 12:17:34.362551,-38.0
2023-12-19 12:17:34.370239,-219.0
2023-12-19 12:17:34.377928,-610.0
2023-12-19 12:17:34.385617,-932.0
2023-12-19 12:17:34.393306,-732.0
2023-12-19 12:17:34.400995,-97.0
2023-12-19 12:17:34.408684,240.0
2023-12-19 12:17:34.416373,92.0
2023-12-19 12:17:34.424061,0.0
2023-12-19 12:17:34.431750,71.0
2023-12-19 12:17:34.439439,59.0
2023-12-19 12:17:34.447128,19.0
2023-12-19 12:17:34.454817,42.0
2023-12-19 12:17:34.462506,38.0
2023-12-19 12:17:34.470195,4.0
2023-12-19 12:17:34.477884,9.0
2023-12-19 12:17:34.485572,23.0
2023-12-19 12:17:34.493261,16.0
2023-12-19 12:17:34.500950,7.0
2023-12-19 12:17:34.508639,2.0
2023-12-19 12:17:34.516328,-7.0
2023-12-19 12:17:34.524017,-11.0
2023-12-19 12:17:34.531706,-11.0
2023-12-19 12:17:34.539395,-19.0
2023-12-19 12:17:34.547083,-30.0
2023-12-19 12:17:34.554772,-47.0
2023-12-19 12:17:34.562461,-71.0
2023-12-19 12:17:34.570150,-92.0
2023-12-19 12:17:34.577839,-112.0
2023-12-19 12:17:34.585528,-121.0
2023-12-19 12:17:34.593217,-126.0
2023-12-19 12:17:34.600905,-131.0
2023-12-19 12:17:34.608594,-123.0
2023-12-19 12:17:34.616283,-102.0
2023-12-19 12:17:34.623972,-83.0
2023-12-19 12:17:34.631661,-66.0
2023-12-19 12:17:34.639350,-50.0
2023-12-19 12:17:34.647039,-40.0
2023-12-19 12:17:34.654728,-23.0
2023-12-19 12:17:34.662416,2.0
2023-12-19 12:17:34.670105,16.0
2023-12-19 12:17:34.677794,21.0
2023-12-19 12:17:34.685483,26.0
2023-12-19 12:17:34.693172,28.0
2023-12-19 12:17:34.700861,26.0
2023-12-19 12:17:34.708550,33.0
2023-12-19 12:17:34.716239,38.0
2023-12-19 12:17:34.723927,33.0
2023-12-19 12:17:34.731616,19.0
2023-12-19 12:17:34.739305,0.0
2023-12-19 12:17:34.746994,-9.0
2023-12-19 12:17:34.754683,-7.0
2023-12-19 12:17:34.762372,0.0
2023-12-19 12:17:34.770061,-2.0
2023-12-19 12:17:34.777749,-9.0
2023-12-19 12:17:34.785438,-16.0
2023-12-19 12:17:34.793127,-19.0
2023-12-19 12:17:34.800816,-21.0
2023-12-19 12:17:34.808505,-16.0
2023-12-19 12:17:34.816194,-21.0
2023-12-19 12:17:34.823883,-33.0
2023-12-19 12:17:34.831572,-38.0
2023-12-19 12:17:34.839260,-50.0
2023-12-19 12:17:34.846949,-57.0
2023-12-19 12:17:34.854638,-45.0
2023-12-19 12:17:34.862327,-40.0
2023-12-19 12:17:34.870016,-45.0
2023-12-19 12:17:34.877705,-38.0
2023-12-19 12:17:34.885394,-33.0
2023-12-19 12:17:34.893083,-35.0
2023-12-19 12:17:34.900771,-28.0
2023-12-19 12:17:34.908460,-23.0
2023-12-19 12:17:34.916149,-28.0
2023-12-19 12:17:34.923838,-38.0
2023-12-19 12:17:34.931527,-38.0
2023-12-19 12:17:34.939216,-30.0
2023-12-19 12:17:34.946905,-28.0
2023-12-19 12:17:34.954593,-33.0
2023-12-19 12:17:34.962282,-33.0
2023-12-19 12:17:34.969971,-35.0
2023-12-19 12:17:34.977660,-33.0
2023-12-19 12:17:34.985349,-28.0
2023-12-19 12:17:34.993038,-26.0
2023-12-19 12:17:35.000727,-38.0
2023-12-19 12:17:35.008416,-52.0
2023-12-19 12:17:35.016104,-54.0
2023-12-19 12:17:35.023793,-59.0
2023-12-19 12:17:35.031482,-83.0
2023-12-19 12:17:35.039171,-92.0
2023-12-19 12:17:35.046860,-92.0
2023-12-19 12:17:35.054549,-109.0
2023-12-19 12:17:35.062238,-114.0
2023-12-19 12:17:35.069927,-104.0
2023-12-19 12:17:35.077615,-97.0
2023-12-19 12:17:35.085304,-100.0
2023-12-19 12:17:35.092993,-119.0
2023-12-19 12:17:35.100682,-128.0
2023-12-19 12:17:35.108371,-116.0
2023-12-19 12:17:35.116060,-104.0
2023-12-19 12:17:35.123749,-97.0
2023-12-19 12:17:35.131437,-133.0
2023-12-19 12:17:35.139126,-340.0
2023-12-19 12:17:35.146815,-720.0
2023-12-19 12:17:35.154504,-963.0
2023-12-19 12:17:35.162193,-681.0
2023-12-19 12:17:35.169882,-73.0
2023-12-19 12:17:35.177571,154.0
2023-12-19 12:17:35.185260,-14.0
2023-12-19 12:17:35.192948,-57.0
2023-12-19 12:17:35.200637,14.0
2023-12-19 12:17:35.208326,-11.0
2023-12-19 12:17:35.216015,-33.0
2023-12-19 12:17:35.223704,-7.0
2023-12-19 12:17:35.231393,-16.0
2023-12-19 12:17:35.239082,-33.0
2023-12-19 12:17:35.246771,-23.0
2023-12-19 12:17:35.254459,-16.0
2023-12-19 12:17:35.262148,-26.0
2023-12-19 12:17:35.269837,-30.0
2023-12-19 12:17:35.277526,-28.0
2023-12-19 12:17:35.285215,-30.0
2023-12-19 12:17:35.292904,-35.0
2023-12-19 12:17:35.300593,-45.0
2023-12-19 12:17:35.308281,-64.0
2023-12-19 12:17:35.315970,-81.0
2023-12-19 12:17:35.323659,-88.0
2023-12-19 12:17:35.331348,-97.0
2023-12-19 12:17:35.339037,-126.0
2023-12-19 12:17:35.346726,-157.0
2023-12-19 12:17:35.354415,-166.0
2023-12-19 12:17:35.362104,-162.0
2023-12-19 12:17:35.369792,-152.0
2023-12-19 12:17:35.377481,-140.0
2023-12-19 12:17:35.385170,-131.0
2023-12-19 12:17:35.392859,-114.0
2023-12-19 12:17:35.400548,-88.0
2023-12-19 12:17:35.408237,-69.0
2023-12-19 12:17:35.415926,-61.0
2023-12-19 12:17:35.423615,-40.0
2023-12-19 12:17:35.431303,-19.0
2023-12-19 12:17:35.438992,-11.0
2023-12-19 12:17:35.446681,0.0
2023-12-19 12:17:35.454370,9.0
2023-12-19 12:17:35.462059,11.0
2023-12-19 12:17:35.469748,14.0
2023-12-19 12:17:35.477437,19.0
2023-12-19 12:17:35.485125,23.0
2023-12-19 12:17:35.492814,26.0
2023-12-19 12:17:35.500503,26.0
2023-12-19 12:17:35.508192,23.0
2023-12-19 12:17:35.515881,23.0
2023-12-19 12:17:35.523570,21.0
2023-12-19 12:17:35.531259,16.0
2023-12-19 12:17:35.538948,11.0
2023-12-19 12:17:35.546636,4.0
2023-12-19 12:17:35.554325,-7.0
2023-12-19 12:17:35.562014,-14.0
2023-12-19 12:17:35.569703,-19.0
2023-12-19 12:17:35.577392,-19.0
2023-12-19 12:17:35.585081,-14.0
2023-12-19 12:17:35.592770,-9.0
2023-12-19 12:17:35.600459,-7.0
2023-12-19 12:17:35.608147,-4.0
2023-12-19 12:17:35.615836,-2.0
2023-12-19 12:17:35.623525,-14.0
2023-12-19 12:17:35.631214,-33.0
2023-12-19 12:17:35.638903,-45.0
2023-12-19 12:17:35.646592,-38.0
2023-12-19 12:17:35.654281,-28.0
2023-12-19 12:17:35.661969,-30.0
2023-12-19 12:17:35.669658,-38.0
2023-12-19 12:17:35.677347,-47.0
2023-12-19 12:17:35.685036,-61.0
2023-12-19 12:17:35.692725,-61.0
2023-12-19 12:17:35.700414,-50.0
2023-12-19 12:17:35.708103,-47.0
2023-12-19 12:17:35.715792,-57.0
2023-12-19 12:17:35.723480,-69.0
2023-12-19 12:17:35.731169,-76.0
2023-12-19 12:17:35.738858,-69.0
2023-12-19 12:17:35.746547,-64.0
2023-12-19 12:17:35.754236,-73.0
2023-12-19 12:17:35.761925,-83.0
2023-12-19 12:17:35.769614,-81.0
2023-12-19 12:17:35.777303,-78.0
2023-12-19 12:17:35.784991,-76.0
2023-12-19 12:17:35.792680,-66.0
2023-12-19 12:17:35.800369,-69.0
2023-12-19 12:17:35.808058,-88.0
2023-12-19 12:17:35.815747,-102.0
2023-12-19 12:17:35.823436,-114.0
2023-12-19 12:17:35.831125,-121.0
2023-12-19 12:17:35.838813,-107.0
2023-12-19 12:17:35.846502,-95.0
2023-12-19 12:17:35.854191,-100.0
2023-12-19 12:17:35.861880,-97.0
2023-12-19 12:17:35.869569,-83.0
2023-12-19 12:17:35.877258,-76.0
2023-12-19 12:17:35.884947,-71.0
2023-12-19 12:17:35.892636,-69.0
2023-12-19 12:17:35.900324,-69.0
2023-12-19 12:17:35.908013,-61.0
2023-12-19 12:17:35.915702,-40.0
2023-12-19 12:17:35.923391,-78.0
2023-12-19 12:17:35.931080,-300.0
2023-12-19 12:17:35.938769,-679.0
2023-12-19 12:17:35.946458,-877.0
2023-12-19 12:17:35.954147,-524.0
2023-12-19 12:17:35.961835,81.0
2023-12-19 12:17:35.969524,252.0
2023-12-19 12:17:35.977213,71.0
2023-12-19 12:17:35.984902,38.0
2023-12-19 12:17:35.992591,92.0
2023-12-19 12:17:36.000280,52.0
2023-12-19 12:17:36.007969,33.0
2023-12-19 12:17:36.015657,59.0
2023-12-19 12:17:36.023346,57.0
2023-12-19 12:17:36.031035,47.0
2023-12-19 12:17:36.038724,47.0
2023-12-19 12:17:36.046413,38.0
2023-12-19 12:17:36.054102,28.0
2023-12-19 12:17:36.061791,28.0
2023-12-19 12:17:36.069480,28.0
2023-12-19 12:17:36.077168,16.0
2023-12-19 12:17:36.084857,7.0
2023-12-19 12:17:36.092546,0.0
2023-12-19 12:17:36.100235,-9.0
2023-12-19 12:17:36.107924,-19.0
2023-12-19 12:17:36.115613,-28.0
2023-12-19 12:17:36.123302,-52.0
2023-12-19 12:17:36.130991,-81.0
2023-12-19 12:17:36.138679,-92.0
2023-12-19 12:17:36.146368,-100.0
2023-12-19 12:17:36.154057,-104.0
2023-12-19 12:17:36.161746,-95.0
2023-12-19 12:17:36.169435,-92.0
2023-12-19 12:17:36.177124,-102.0
2023-12-19 12:17:36.184813,-95.0
2023-12-19 12:17:36.192501,-69.0
2023-12-19 12:17:36.200190,-52.0
2023-12-19 12:17:36.207879,-30.0
2023-12-19 12:17:36.215568,-19.0
2023-12-19 12:17:36.223257,-33.0
2023-12-19 12:17:36.230946,-35.0
2023-12-19 12:17:36.238635,-7.0
2023-12-19 12:17:36.246324,9.0
2023-12-19 12:17:36.254012,11.0
2023-12-19 12:17:36.261701,4.0
2023-12-19 12:17:36.269390,-14.0
2023-12-19 12:17:36.277079,-16.0
2023-12-19 12:17:36.284768,4.0
2023-12-19 12:17:36.292457,4.0
2023-12-19 12:17:36.300146,-19.0
2023-12-19 12:17:36.307835,-35.0
2023-12-19 12:17:36.315523,-52.0
2023-12-19 12:17:36.323212,-61.0
2023-12-19 12:17:36.330901,-47.0
2023-12-19 12:17:36.338590,-40.0
2023-12-19 12:17:36.346279,-50.0
2023-12-19 12:17:36.353968,-66.0
2023-12-19 12:17:36.361657,-76.0
2023-12-19 12:17:36.369345,-66.0
2023-12-19 12:17:36.377034,-57.0
2023-12-19 12:17:36.384723,-59.0
2023-12-19 12:17:36.392412,-66.0
2023-12-19 12:17:36.400101,-73.0
2023-12-19 12:17:36.407790,-76.0
2023-12-19 12:17:36.415479,-69.0
2023-12-19 12:17:36.423168,-61.0
2023-12-19 12:17:36.430856,-52.0
2023-12-19 12:17:36.438545,-54.0
2023-12-19 12:17:36.446234,-78.0
2023-12-19 12:17:36.453923,-85.0
2023-12-19 12:17:36.461612,-61.0
2023-12-19 12:17:36.469301,-50.0
2023-12-19 12:17:36.476990,-52.0
2023-12-19 12:17:36.484679,-47.0
2023-12-19 12:17:36.492367,-52.0
2023-12-19 12:17:36.500056,-61.0
2023-12-19 12:17:36.507745,-61.0
2023-12-19 12:17:36.515434,-54.0
2023-12-19 12:17:36.523123,-52.0
2023-12-19 12:17:36.530812,-50.0
2023-12-19 12:17:36.538501,-52.0
2023-12-19 12:17:36.546189,-54.0
2023-12-19 12:17:36.553878,-52.0
2023-12-19 12:17:36.561567,-64.0
2023-12-19 12:17:36.569256,-90.0
2023-12-19 12:17:36.576945,-100.0
2023-12-19 12:17:36.584634,-100.0
2023-12-19 12:17:36.592323,-88.0
2023-12-19 12:17:36.600012,-66.0
2023-12-19 12:17:36.607700,-59.0
2023-12-19 12:17:36.615389,-61.0
2023-12-19 12:17:36.623078,-57.0
2023-12-19 12:17:36.630767,-52.0
2023-12-19 12:17:36.638456,-45.0
2023-12-19 12:17:36.646145,-35.0
2023-12-19 12:17:36.653834,-35.0
2023-12-19 12:17:36.661523,-92.0
2023-12-19 12:17:36.669211,-340.0
2023-12-19 12:17:36.676900,-779.0
2023-12-19 12:17:36.684589,-999.0
2023-12-19 12:17:36.692278,-588.0
2023-12-19 12:17:36.699967,95.0
2023-12-19 12:17:36.707656,293.0
2023-12-19 12:17:36.715345,47.0
2023-12-19 12:17:36.723033,-52.0
2023-12-19 12:17:36.730722,7.0
2023-12-19 12:17:36.738411,-14.0
2023-12-19 12:17:36.746100,-35.0
2023-12-19 12:17:36.753789,-4.0
2023-12-19 12:17:36.761478,-7.0
2023-12-19 12:17:36.769167,-28.0
2023-12-19 12:17:36.776856,-23.0
2023-12-19 12:17:36.784544,-26.0
2023-12-19 12:17:36.792233,-33.0
2023-12-19 12:17:36.799922,-40.0
2023-12-19 12:17:36.807611,-59.0
2023-12-19 12:17:36.815300,-73.0
2023-12-19 12:17:36.822989,-71.0
2023-12-19 12:17:36.830678,-73.0
2023-12-19 12:17:36.838367,-83.0
2023-12-19 12:17:36.846055,-92.0
2023-12-19 12:17:36.853744,-107.0
2023-12-19 12:17:36.861433,-133.0
2023-12-19 12:17:36.869122,-166.0
2023-12-19 12:17:36.876811,-178.0
2023-12-19 12:17:36.884500,-171.0
2023-12-19 12:17:36.892189,-166.0
2023-12-19 12:17:36.899877,-162.0
2023-12-19 12:17:36.907566,-147.0
2023-12-19 12:17:36.915255,-126.0
2023-12-19 12:17:36.922944,-100.0
2023-12-19 12:17:36.930633,-73.0
2023-12-19 12:17:36.938322,-52.0
2023-12-19 12:17:36.946011,-33.0
2023-12-19 12:17:36.953700,-14.0
2023-12-19 12:17:36.961388,-2.0
2023-12-19 12:17:36.969077,9.0
2023-12-19 12:17:36.976766,26.0
2023-12-19 12:17:36.984455,38.0
2023-12-19 12:17:36.992144,47.0
2023-12-19 12:17:36.999833,54.0
2023-12-19 12:17:37.007522,52.0
2023-12-19 12:17:37.015211,45.0
2023-12-19 12:17:37.022899,47.0
2023-12-19 12:17:37.030588,61.0
2023-12-19 12:17:37.038277,52.0
2023-12-19 12:17:37.045966,19.0
2023-12-19 12:17:37.053655,14.0
2023-12-19 12:17:37.061344,28.0
2023-12-19 12:17:37.069033,19.0
2023-12-19 12:17:37.076721,9.0
2023-12-19 12:17:37.084410,11.0
2023-12-19 12:17:37.092099,7.0
2023-12-19 12:17:37.099788,2.0
2023-12-19 12:17:37.107477,4.0
2023-12-19 12:17:37.115166,4.0
2023-12-19 12:17:37.122855,-2.0
2023-12-19 12:17:37.130544,-11.0
2023-12-19 12:17:37.138232,-7.0
2023-12-19 12:17:37.145921,4.0
2023-12-19 12:17:37.153610,2.0
2023-12-19 12:17:37.161299,4.0
2023-12-19 12:17:37.168988,9.0
2023-12-19 12:17:37.176677,4.0
2023-12-19 12:17:37.184366,7.0
2023-12-19 12:17:37.192055,9.0
2023-12-19 12:17:37.199743,4.0
2023-12-19 12:17:37.207432,9.0
2023-12-19 12:17:37.215121,16.0
2023-12-19 12:17:37.222810,14.0
2023-12-19 12:17:37.230499,9.0
2023-12-19 12:17:37.238188,4.0
2023-12-19 12:17:37.245877,7.0
2023-12-19 12:17:37.253565,-2.0
2023-12-19 12:17:37.261254,-26.0
2023-12-19 12:17:37.268943,-23.0
2023-12-19 12:17:37.276632,-19.0
2023-12-19 12:17:37.284321,-57.0
2023-12-19 12:17:37.292010,-100.0
2023-12-19 12:17:37.299699,-107.0
2023-12-19 12:17:37.307388,-102.0
2023-12-19 12:17:37.315076,-92.0
2023-12-19 12:17:37.322765,-73.0
2023-12-19 12:17:37.330454,-66.0
2023-12-19 12:17:37.338143,-73.0
2023-12-19 12:17:37.345832,-85.0
2023-12-19 12:17:37.353521,-90.0
2023-12-19 12:17:37.361210,-85.0
2023-12-19 12:17:37.368899,-92.0
2023-12-19 12:17:37.376587,-95.0
2023-12-19 12:17:37.384276,-100.0
2023-12-19 12:17:37.391965,-221.0
2023-12-19 12:17:37.399654,-555.0
2023-12-19 12:17:37.407343,-932.0
2023-12-19 12:17:37.415032,-882.0
2023-12-19 12:17:37.422721,-286.0
2023-12-19 12:17:37.430409,185.0
2023-12-19 12:17:37.438098,116.0
2023-12-19 12:17:37.445787,-30.0
2023-12-19 12:17:37.453476,26.0
2023-12-19 12:17:37.461165,52.0
2023-12-19 12:17:37.468854,9.0
2023-12-19 12:17:37.476543,11.0
2023-12-19 12:17:37.484232,21.0
2023-12-19 12:17:37.491920,16.0
2023-12-19 12:17:37.499609,19.0
2023-12-19 12:17:37.507298,19.0
2023-12-19 12:17:37.514987,26.0
2023-12-19 12:17:37.522676,19.0
2023-12-19 12:17:37.530365,-2.0
2023-12-19 12:17:37.538054,0.0
2023-12-19 12:17:37.545743,11.0
2023-12-19 12:17:37.553431,4.0
2023-12-19 12:17:37.561120,-9.0
2023-12-19 12:17:37.568809,-19.0
2023-12-19 12:17:37.576498,-30.0
2023-12-19 12:17:37.584187,-42.0
2023-12-19 12:17:37.591876,-57.0
2023-12-19 12:17:37.599565,-73.0
2023-12-19 12:17:37.607253,-90.0
2023-12-19 12:17:37.614942,-95.0
2023-12-19 12:17:37.622631,-92.0
2023-12-19 12:17:37.630320,-85.0
2023-12-19 12:17:37.638009,-66.0
2023-12-19 12:17:37.645698,-47.0
2023-12-19 12:17:37.653387,-42.0
2023-12-19 12:17:37.661076,-28.0
2023-12-19 12:17:37.668764,4.0
2023-12-19 12:17:37.676453,26.0
2023-12-19 12:17:37.684142,33.0
2023-12-19 12:17:37.691831,42.0
2023-12-19 12:17:37.699520,57.0
2023-12-19 12:17:37.707209,64.0
2023-12-19 12:17:37.714898,64.0
2023-12-19 12:17:37.722587,71.0
2023-12-19 12:17:37.730275,78.0
2023-12-19 12:17:37.737964,76.0
2023-12-19 12:17:37.745653,76.0
2023-12-19 12:17:37.753342,85.0
2023-12-19 12:17:37.761031,76.0
2023-12-19 12:17:37.768720,54.0
2023-12-19 12:17:37.776409,52.0
2023-12-19 12:17:37.784097,52.0
2023-12-19 12:17:37.791786,26.0
2023-12-19 12:17:37.799475,-9.0
2023-12-19 12:17:37.807164,-7.0
2023-12-19 12:17:37.814853,9.0
2023-12-19 12:17:37.822542,-2.0
2023-12-19 12:17:37.830231,-19.0
2023-12-19 12:17:37.837920,-21.0
2023-12-19 12:17:37.845608,-26.0
2023-12-19 12:17:37.853297,-30.0
2023-12-19 12:17:37.860986,-23.0
2023-12-19 12:17:37.868675,-21.0
2023-12-19 12:17:37.876364,-40.0
2023-12-19 12:17:37.884053,-69.0
2023-12-19 12:17:37.891742,-85.0
2023-12-19 12:17:37.899431,-64.0
2023-12-19 12:17:37.907119,-40.0
2023-12-19 12:17:37.914808,-50.0
2023-12-19 12:17:37.922497,-61.0
2023-12-19 12:17:37.930186,-64.0
2023-12-19 12:17:37.937875,-71.0
2023-12-19 12:17:37.945564,-69.0
2023-12-19 12:17:37.953253,-57.0
2023-12-19 12:17:37.960941,-42.0
2023-12-19 12:17:37.968630,-42.0
2023-12-19 12:17:37.976319,-47.0
2023-12-19 12:17:37.984008,-40.0
2023-12-19 12:17:37.991697,-28.0
2023-12-19 12:17:37.999386,-23.0
2023-12-19 12:17:38.007075,-28.0
2023-12-19 12:17:38.014764,-42.0
2023-12-19 12:17:38.022452,-61.0
2023-12-19 12:17:38.030141,-81.0
2023-12-19 12:17:38.037830,-81.0
2023-12-19 12:17:38.045519,-66.0
2023-12-19 12:17:38.053208,-59.0
2023-12-19 12:17:38.060897,-52.0
2023-12-19 12:17:38.068586,-42.0
2023-12-19 12:17:38.076275,-33.0
2023-12-19 12:17:38.083963,-33.0
2023-12-19 12:17:38.091652,-30.0
2023-12-19 12:17:38.099341,-11.0
2023-12-19 12:17:38.107030,-7.0
2023-12-19 12:17:38.114719,-11.0
2023-12-19 12:17:38.122408,-2.0
2023-12-19 12:17:38.130097,-71.0
2023-12-19 12:17:38.137785,-345.0
2023-12-19 12:17:38.145474,-724.0
2023-12-19 12:17:38.153163,-813.0
2023-12-19 12:17:38.160852,-348.0
2023-12-19 12:17:38.168541,183.0
2023-12-19 12:17:38.176230,219.0
2023-12-19 12:17:38.183919,57.0
2023-12-19 12:17:38.191608,88.0
2023-12-19 12:17:38.199296,116.0
2023-12-19 12:17:38.206985,59.0
2023-12-19 12:17:38.214674,61.0
2023-12-19 12:17:38.222363,95.0
2023-12-19 12:17:38.230052,78.0
2023-12-19 12:17:38.237741,52.0
2023-12-19 12:17:38.245430,61.0
2023-12-19 12:17:38.253119,66.0
2023-12-19 12:17:38.260807,47.0
2023-12-19 12:17:38.268496,35.0
2023-12-19 12:17:38.276185,38.0
2023-12-19 12:17:38.283874,30.0
2023-12-19 12:17:38.291563,16.0
2023-12-19 12:17:38.299252,2.0
2023-12-19 12:17:38.306941,4.0
2023-12-19 12:17:38.314629,0.0
2023-12-19 12:17:38.322318,-28.0
2023-12-19 12:17:38.330007,-50.0
2023-12-19 12:17:38.337696,-66.0
2023-12-19 12:17:38.345385,-81.0
2023-12-19 12:17:38.353074,-81.0
2023-12-19 12:17:38.360763,-76.0
2023-12-19 12:17:38.368452,-76.0
2023-12-19 12:17:38.376140,-78.0
2023-12-19 12:17:38.383829,-73.0
2023-12-19 12:17:38.391518,-52.0
2023-12-19 12:17:38.399207,-38.0
2023-12-19 12:17:38.406896,-21.0
2023-12-19 12:17:38.414585,9.0
2023-12-19 12:17:38.422274,4.0
2023-12-19 12:17:38.429963,-16.0
2023-12-19 12:17:38.437651,0.0
2023-12-19 12:17:38.445340,28.0
2023-12-19 12:17:38.453029,33.0
2023-12-19 12:17:38.460718,30.0
2023-12-19 12:17:38.468407,30.0
2023-12-19 12:17:38.476096,30.0
2023-12-19 12:17:38.483785,38.0
2023-12-19 12:17:38.491473,38.0
2023-12-19 12:17:38.499162,35.0
2023-12-19 12:17:38.506851,33.0
2023-12-19 12:17:38.514540,30.0
2023-12-19 12:17:38.522229,28.0
2023-12-19 12:17:38.529918,28.0
2023-12-19 12:17:38.537607,26.0
2023-12-19 12:17:38.545296,16.0
2023-12-19 12:17:38.552984,9.0
2023-12-19 12:17:38.560673,0.0
2023-12-19 12:17:38.568362,-23.0
2023-12-19 12:17:38.576051,-23.0
2023-12-19 12:17:38.583740,-9.0
2023-12-19 12:17:38.591429,-16.0
2023-12-19 12:17:38.599118,-33.0
2023-12-19 12:17:38.606807,-21.0
2023-12-19 12:17:38.614495,-7.0
2023-12-19 12:17:38.622184,-14.0
2023-12-19 12:17:38.629873,-26.0
2023-12-19 12:17:38.637562,-19.0
2023-12-19 12:17:38.645251,-33.0
2023-12-19 12:17:38.652940,-54.0
2023-12-19 12:17:38.660629,-45.0
2023-12-19 12:17:38.668317,-38.0
2023-12-19 12:17:38.676006,-47.0
2023-12-19 12:17:38.683695,-40.0
2023-12-19 12:17:38.691384,-38.0
2023-12-19 12:17:38.699073,-69.0
2023-12-19 12:17:38.706762,-78.0
2023-12-19 12:17:38.714451,-64.0
2023-12-19 12:17:38.722140,-57.0
2023-12-19 12:17:38.729828,-59.0
2023-12-19 12:17:38.737517,-73.0
2023-12-19 12:17:38.745206,-85.0
2023-12-19 12:17:38.752895,-92.0
2023-12-19 12:17:38.760584,-116.0
2023-12-19 12:17:38.768273,-145.0
2023-12-19 12:17:38.775962,-147.0
2023-12-19 12:17:38.783651,-133.0
2023-12-19 12:17:38.791339,-126.0
2023-12-19 12:17:38.799028,-121.0
2023-12-19 12:17:38.806717,-104.0
2023-12-19 12:17:38.814406,-90.0
2023-12-19 12:17:38.822095,-92.0
2023-12-19 12:17:38.829784,-97.0
2023-12-19 12:17:38.837473,-85.0
2023-12-19 12:17:38.845161,-78.0
2023-12-19 12:17:38.852850,-81.0
2023-12-19 12:17:38.860539,-64.0
2023-12-19 12:17:38.868228,-73.0
2023-12-19 12:17:38.875917,-250.0
2023-12-19 12:17:38.883606,-610.0
2023-12-19 12:17:38.891295,-906.0
2023-12-19 12:17:38.898984,-715.0
2023-12-19 12:17:38.906672,-100.0
2023-12-19 12:17:38.914361,233.0
2023-12-19 12:17:38.922050,88.0
2023-12-19 12:17:38.929739,-26.0
2023-12-19 12:17:38.937428,23.0
2023-12-19 12:17:38.945117,19.0
2023-12-19 12:17:38.952806,-14.0
2023-12-19 12:17:38.960495,-16.0
2023-12-19 12:17:38.968183,-40.0
2023-12-19 12:17:38.975872,-61.0
2023-12-19 12:17:38.983561,-47.0
2023-12-19 12:17:38.991250,-42.0
2023-12-19 12:17:38.998939,-61.0
2023-12-19 12:17:39.006628,-83.0
2023-12-19 12:17:39.014317,-97.0
2023-12-19 12:17:39.022005,-95.0
2023-12-19 12:17:39.029694,-97.0
2023-12-19 12:17:39.037383,-107.0
2023-12-19 12:17:39.045072,-112.0
2023-12-19 12:17:39.052761,-114.0
2023-12-19 12:17:39.060450,-126.0
2023-12-19 12:17:39.068139,-145.0
2023-12-19 12:17:39.075828,-159.0
2023-12-19 12:17:39.083516,-171.0
2023-12-19 12:17:39.091205,-174.0
2023-12-19 12:17:39.098894,-174.0
2023-12-19 12:17:39.106583,-174.0
2023-12-19 12:17:39.114272,-162.0
2023-12-19 12:17:39.121961,-143.0
2023-12-19 12:17:39.129650,-131.0
2023-12-19 12:17:39.137339,-109.0
2023-12-19 12:17:39.145027,-81.0
2023-12-19 12:17:39.152716,-61.0
2023-12-19 12:17:39.160405,-45.0
2023-12-19 12:17:39.168094,-28.0
2023-12-19 12:17:39.175783,-14.0
2023-12-19 12:17:39.183472,2.0
2023-12-19 12:17:39.191161,11.0
2023-12-19 12:17:39.198849,11.0
2023-12-19 12:17:39.206538,23.0
2023-12-19 12:17:39.214227,33.0
2023-12-19 12:17:39.221916,26.0
2023-12-19 12:17:39.229605,26.0
2023-12-19 12:17:39.237294,28.0
2023-12-19 12:17:39.244983,26.0
2023-12-19 12:17:39.252672,16.0
2023-12-19 12:17:39.260360,7.0
2023-12-19 12:17:39.268049,7.0
2023-12-19 12:17:39.275738,4.0
2023-12-19 12:17:39.283427,-7.0
2023-12-19 12:17:39.291116,-11.0
2023-12-19 12:17:39.298805,-9.0
2023-12-19 12:17:39.306494,-11.0
2023-12-19 12:17:39.314183,-21.0
2023-12-19 12:17:39.321871,-23.0
2023-12-19 12:17:39.329560,-23.0
2023-12-19 12:17:39.337249,-19.0
2023-12-19 12:17:39.344938,-19.0
2023-12-19 12:17:39.352627,-16.0
2023-12-19 12:17:39.360316,-9.0
2023-12-19 12:17:39.368005,-7.0
2023-12-19 12:17:39.375693,-7.0
2023-12-19 12:17:39.383382,-16.0
2023-12-19 12:17:39.391071,-30.0
2023-12-19 12:17:39.398760,-35.0
2023-12-19 12:17:39.406449,-35.0
2023-12-19 12:17:39.414138,-38.0
2023-12-19 12:17:39.421827,-35.0
2023-12-19 12:17:39.429516,-30.0
2023-12-19 12:17:39.437204,-28.0
2023-12-19 12:17:39.444893,-28.0
2023-12-19 12:17:39.452582,-30.0
2023-12-19 12:17:39.460271,-28.0
2023-12-19 12:17:39.467960,-21.0
2023-12-19 12:17:39.475649,-40.0
2023-12-19 12:17:39.483338,-64.0
2023-12-19 12:17:39.491027,-66.0
2023-12-19 12:17:39.498715,-78.0
2023-12-19 12:17:39.506404,-95.0
2023-12-19 12:17:39.514093,-88.0
2023-12-19 12:17:39.521782,-73.0
2023-12-19 12:17:39.529471,-76.0
2023-12-19 12:17:39.537160,-81.0
2023-12-19 12:17:39.544849,-100.0
2023-12-19 12:17:39.552537,-116.0
2023-12-19 12:17:39.560226,-119.0
2023-12-19 12:17:39.567915,-97.0
2023-12-19 12:17:39.575604,-102.0
2023-12-19 12:17:39.583293,-262.0
2023-12-19 12:17:39.590982,-639.0
2023-12-19 12:17:39.598671,-972.0
2023-12-19 12:17:39.606360,-805.0
2023-12-19 12:17:39.614048,-159.0
2023-12-19 12:17:39.621737,252.0
2023-12-19 12:17:39.629426,133.0
2023-12-19 12:17:39.637115,-19.0
2023-12-19 12:17:39.644804,14.0
2023-12-19 12:17:39.652493,16.0
2023-12-19 12:17:39.660182,-16.0
2023-12-19 12:17:39.667871,-2.0
2023-12-19 12:17:39.675559,-2.0
2023-12-19 12:17:39.683248,-23.0
2023-12-19 12:17:39.690937,-21.0
2023-12-19 12:17:39.698626,-11.0
2023-12-19 12:17:39.706315,-19.0
2023-12-19 12:17:39.714004,-21.0
2023-12-19 12:17:39.721693,-23.0
2023-12-19 12:17:39.729381,-33.0
2023-12-19 12:17:39.737070,-42.0
2023-12-19 12:17:39.744759,-54.0
2023-12-19 12:17:39.752448,-69.0
2023-12-19 12:17:39.760137,-76.0
2023-12-19 12:17:39.767826,-88.0
2023-12-19 12:17:39.775515,-112.0
2023-12-19 12:17:39.783204,-131.0
2023-12-19 12:17:39.790892,-138.0
2023-12-19 12:17:39.798581,-145.0
2023-12-19 12:17:39.806270,-150.0
2023-12-19 12:17:39.813959,-145.0
2023-12-19 12:17:39.821648,-138.0
2023-12-19 12:17:39.829337,-123.0
2023-12-19 12:17:39.837026,-95.0
2023-12-19 12:17:39.844715,-69.0
2023-12-19 12:17:39.852403,-50.0
2023-12-19 12:17:39.860092,-35.0
2023-12-19 12:17:39.867781,-16.0
2023-12-19 12:17:39.875470,0.0
2023-12-19 12:17:39.883159,11.0
2023-12-19 12:17:39.890848,16.0
2023-12-19 12:17:39.898537,9.0
2023-12-19 12:17:39.906225,9.0
2023-12-19 12:17:39.913914,14.0
2023-12-19 12:17:39.921603,19.0
2023-12-19 12:17:39.929292,23.0
2023-12-19 12:17:39.936981,28.0
2023-12-19 12:17:39.944670,30.0
2023-12-19 12:17:39.952359,23.0
2023-12-19 12:17:39.960048,14.0
2023-12-19 12:17:39.967736,14.0
2023-12-19 12:17:39.975425,14.0
2023-12-19 12:17:39.983114,4.0
2023-12-19 12:17:39.990803,-9.0
2023-12-19 12:17:39.998492,-23.0
2023-12-19 12:17:40.006181,-28.0
2023-12-19 12:17:40.013870,-28.0
2023-12-19 12:17:40.021559,-28.0
2023-12-19 12:17:40.029247,-21.0
2023-12-19 12:17:40.036936,-16.0
2023-12-19 12:17:40.044625,-23.0
2023-12-19 12:17:40.052314,-26.0
2023-12-19 12:17:40.060003,-19.0
2023-12-19 12:17:40.067692,-14.0
2023-12-19 12:17:40.075381,-9.0
2023-12-19 12:17:40.083069,0.0
2023-12-19 12:17:40.090758,0.0
2023-12-19 12:17:40.098447,-2.0
2023-12-19 12:17:40.106136,0.0
2023-12-19 12:17:40.113825,0.0
2023-12-19 12:17:40.121514,-2.0
2023-12-19 12:17:40.129203,-7.0
2023-12-19 12:17:40.136892,-26.0
2023-12-19 12:17:40.144580,-35.0
2023-12-19 12:17:40.152269,-23.0
2023-12-19 12:17:40.159958,-14.0
2023-12-19 12:17:40.167647,-16.0
2023-12-19 12:17:40.175336,-19.0
2023-12-19 12:17:40.183025,-28.0
2023-12-19 12:17:40.190714,-50.0
2023-12-19 12:17:40.198403,-66.0
2023-12-19 12:17:40.206091,-64.0
2023-12-19 12:17:40.213780,-54.0
2023-12-19 12:17:40.221469,-45.0
2023-12-19 12:17:40.229158,-42.0
2023-12-19 12:17:40.236847,-45.0
2023-12-19 12:17:40.244536,-45.0
2023-12-19 12:17:40.252225,-35.0
2023-12-19 12:17:40.259913,-30.0
2023-12-19 12:17:40.267602,-33.0
2023-12-19 12:17:40.275291,-33.0
2023-12-19 12:17:40.282980,-23.0
2023-12-19 12:17:40.290669,-21.0
2023-12-19 12:17:40.298358,-143.0
2023-12-19 12:17:40.306047,-491.0
2023-12-19 12:17:40.313736,-910.0
2023-12-19 12:17:40.321424,-910.0
2023-12-19 12:17:40.329113,-314.0
2023-12-19 12:17:40.336802,200.0
2023-12-19 12:17:40.344491,147.0
2023-12-19 12:17:40.352180,-14.0
2023-12-19 12:17:40.359869,35.0
2023-12-19 12:17:40.367558,54.0
2023-12-19 12:17:40.375247,2.0
2023-12-19 12:17:40.382935,9.0
2023-12-19 12:17:40.390624,11.0
2023-12-19 12:17:40.398313,-26.0
2023-12-19 12:17:40.406002,-38.0
2023-12-19 12:17:40.413691,-30.0
2023-12-19 12:17:40.421380,-38.0
2023-12-19 12:17:40.429069,-42.0
2023-12-19 12:17:40.436757,-42.0
2023-12-19 12:17:40.444446,-54.0
2023-12-19 12:17:40.452135,-61.0
2023-12-19 12:17:40.459824,-61.0
2023-12-19 12:17:40.467513,-71.0
2023-12-19 12:17:40.475202,-92.0
2023-12-19 12:17:40.482891,-114.0
2023-12-19 12:17:40.490580,-131.0
2023-12-19 12:17:40.498268,-147.0
2023-12-19 12:17:40.505957,-166.0
2023-12-19 12:17:40.513646,-183.0
2023-12-19 12:17:40.521335,-190.0
2023-12-19 12:17:40.529024,-185.0
2023-12-19 12:17:40.536713,-181.0
2023-12-19 12:17:40.544402,-171.0
2023-12-19 12:17:40.552091,-157.0
2023-12-19 12:17:40.559779,-138.0
2023-12-19 12:17:40.567468,-116.0
2023-12-19 12:17:40.575157,-92.0
2023-12-19 12:17:40.582846,-73.0
2023-12-19 12:17:40.590535,-64.0
2023-12-19 12:17:40.598224,-47.0
2023-12-19 12:17:40.605913,-33.0
2023-12-19 12:17:40.613601,-26.0
2023-12-19 12:17:40.621290,-26.0
2023-12-19 12:17:40.628979,-38.0
2023-12-19 12:17:40.636668,-50.0
2023-12-19 12:17:40.644357,-47.0
2023-12-19 12:17:40.652046,-42.0
2023-12-19 12:17:40.659735,-42.0
2023-12-19 12:17:40.667424,-42.0
2023-12-19 12:17:40.675112,-47.0
2023-12-19 12:17:40.682801,-50.0
2023-12-19 12:17:40.690490,-45.0
2023-12-19 12:17:40.698179,-47.0
2023-12-19 12:17:40.705868,-57.0
2023-12-19 12:17:40.713557,-57.0
2023-12-19 12:17:40.721246,-59.0
2023-12-19 12:17:40.728935,-71.0
2023-12-19 12:17:40.736623,-81.0
2023-12-19 12:17:40.744312,-81.0
2023-12-19 12:17:40.752001,-76.0
2023-12-19 12:17:40.759690,-76.0
2023-12-19 12:17:40.767379,-78.0
2023-12-19 12:17:40.775068,-73.0
2023-12-19 12:17:40.782757,-66.0
2023-12-19 12:17:40.790445,-69.0
2023-12-19 12:17:40.798134,-66.0
2023-12-19 12:17:40.805823,-61.0
2023-12-19 12:17:40.813512,-64.0
2023-12-19 12:17:40.821201,-61.0
2023-12-19 12:17:40.828890,-54.0
2023-12-19 12:17:40.836579,-54.0
2023-12-19 12:17:40.844268,-57.0
2023-12-19 12:17:40.851956,-59.0
2023-12-19 12:17:40.859645,-61.0
2023-12-19 12:17:40.867334,-57.0
2023-12-19 12:17:40.875023,-54.0
2023-12-19 12:17:40.882712,-57.0
2023-12-19 12:17:40.890401,-57.0
2023-12-19 12:17:40.898090,-66.0
2023-12-19 12:17:40.905779,-78.0
2023-12-19 12:17:40.913467,-73.0
2023-12-19 12:17:40.921156,-71.0
2023-12-19 12:17:40.928845,-83.0
2023-12-19 12:17:40.936534,-104.0
2023-12-19 12:17:40.944223,-126.0
2023-12-19 12:17:40.951912,-126.0
2023-12-19 12:17:40.959601,-104.0
2023-12-19 12:17:40.967289,-95.0
2023-12-19 12:17:40.974978,-102.0
2023-12-19 12:17:40.982667,-104.0
2023-12-19 12:17:40.990356,-100.0
2023-12-19 12:17:40.998045,-90.0
2023-12-19 12:17:41.005734,-88.0
2023-12-19 12:17:41.013423,-92.0
2023-12-19 12:17:41.021112,-90.0
2023-12-19 12:17:41.028800,-69.0
2023-12-19 12:17:41.036489,-73.0
2023-12-19 12:17:41.044178,-219.0
2023-12-19 12:17:41.051867,-557.0
2023-12-19 12:17:41.059556,-910.0
2023-12-19 12:17:41.067245,-848.0
2023-12-19 12:17:41.074934,-276.0
2023-12-19 12:17:41.082623,143.0
2023-12-19 12:17:41.090311,57.0
2023-12-19 12:17:41.098000,-64.0
2023-12-19 12:17:41.105689,-11.0
2023-12-19 12:17:41.113378,-9.0
2023-12-19 12:17:41.121067,-54.0
2023-12-19 12:17:41.128756,-40.0
2023-12-19 12:17:41.136445,-35.0
2023-12-19 12:17:41.144133,-54.0
2023-12-19 12:17:41.151822,-59.0
2023-12-19 12:17:41.159511,-57.0
2023-12-19 12:17:41.167200,-69.0
2023-12-19 12:17:41.174889,-76.0
2023-12-19 12:17:41.182578,-71.0
2023-12-19 12:17:41.190267,-71.0
2023-12-19 12:17:41.197956,-83.0
2023-12-19 12:17:41.205644,-92.0
2023-12-19 12:17:41.213333,-102.0
2023-12-19 12:17:41.221022,-116.0
2023-12-19 12:17:41.228711,-131.0
2023-12-19 12:17:41.236400,-147.0
2023-12-19 12:17:41.244089,-164.0
2023-12-19 12:17:41.251778,-181.0
2023-12-19 12:17:41.259467,-195.0
2023-12-19 12:17:41.267155,-200.0
2023-12-19 12:17:41.274844,-193.0
2023-12-19 12:17:41.282533,-183.0
2023-12-19 12:17:41.290222,-174.0
2023-12-19 12:17:41.297911,-174.0
2023-12-19 12:17:41.305600,-176.0
2023-12-19 12:17:41.313289,-159.0
2023-12-19 12:17:41.320977,-131.0
2023-12-19 12:17:41.328666,-112.0
2023-12-19 12:17:41.336355,-97.0
2023-12-19 12:17:41.344044,-81.0
2023-12-19 12:17:41.351733,-73.0
2023-12-19 12:17:41.359422,-69.0
2023-12-19 12:17:41.367111,-54.0
2023-12-19 12:17:41.374800,-42.0
2023-12-19 12:17:41.382488,-45.0
2023-12-19 12:17:41.390177,-52.0
2023-12-19 12:17:41.397866,-59.0
2023-12-19 12:17:41.405555,-61.0
2023-12-19 12:17:41.413244,-54.0
2023-12-19 12:17:41.420933,-54.0
2023-12-19 12:17:41.428622,-61.0
2023-12-19 12:17:41.436311,-66.0
2023-12-19 12:17:41.443999,-66.0
2023-12-19 12:17:41.451688,-64.0
2023-12-19 12:17:41.459377,-64.0
2023-12-19 12:17:41.467066,-76.0
2023-12-19 12:17:41.474755,-85.0
2023-12-19 12:17:41.482444,-88.0
2023-12-19 12:17:41.490133,-88.0
2023-12-19 12:17:41.497821,-85.0
2023-12-19 12:17:41.505510,-76.0
2023-12-19 12:17:41.513199,-69.0
2023-12-19 12:17:41.520888,-66.0
2023-12-19 12:17:41.528577,-69.0
2023-12-19 12:17:41.536266,-69.0
2023-12-19 12:17:41.543955,-64.0
2023-12-19 12:17:41.551644,-57.0
2023-12-19 12:17:41.559332,-54.0
2023-12-19 12:17:41.567021,-50.0
2023-12-19 12:17:41.574710,-50.0
2023-12-19 12:17:41.582399,-50.0
2023-12-19 12:17:41.590088,-45.0
2023-12-19 12:17:41.597777,-40.0
2023-12-19 12:17:41.605466,-40.0
2023-12-19 12:17:41.613155,-40.0
2023-12-19 12:17:41.620843,-38.0
2023-12-19 12:17:41.628532,-40.0
2023-12-19 12:17:41.636221,-45.0
2023-12-19 12:17:41.643910,-47.0
2023-12-19 12:17:41.651599,-50.0
2023-12-19 12:17:41.659288,-52.0
2023-12-19 12:17:41.666977,-54.0
2023-12-19 12:17:41.674665,-47.0
2023-12-19 12:17:41.682354,-35.0
2023-12-19 12:17:41.690043,-35.0
2023-12-19 12:17:41.697732,-38.0
2023-12-19 12:17:41.705421,-40.0
2023-12-19 12:17:41.713110,-69.0
2023-12-19 12:17:41.720799,-97.0
2023-12-19 12:17:41.728488,-90.0
2023-12-19 12:17:41.736176,-73.0
2023-12-19 12:17:41.743865,-64.0
2023-12-19 12:17:41.751554,-64.0
2023-12-19 12:17:41.759243,-76.0
2023-12-19 12:17:41.766932,-78.0
2023-12-19 12:17:41.774621,-76.0
2023-12-19 12:17:41.782310,-76.0
2023-12-19 12:17:41.789999,-76.0
2023-12-19 12:17:41.797687,-83.0
2023-12-19 12:17:41.805376,-78.0
2023-12-19 12:17:41.813065,-71.0
2023-12-19 12:17:41.820754,-181.0
2023-12-19 12:17:41.828443,-498.0
2023-12-19 12:17:41.836132,-860.0
2023-12-19 12:17:41.843821,-834.0
2023-12-19 12:17:41.851509,-288.0
2023-12-19 12:17:41.859198,162.0
2023-12-19 12:17:41.866887,112.0
2023-12-19 12:17:41.874576,-19.0
2023-12-19 12:17:41.882265,28.0
2023-12-19 12:17:41.889954,33.0
2023-12-19 12:17:41.897643,-21.0
2023-12-19 12:17:41.905332,-21.0
2023-12-19 12:17:41.913020,-19.0
2023-12-19 12:17:41.920709,-35.0
2023-12-19 12:17:41.928398,-38.0
2023-12-19 12:17:41.936087,-38.0
2023-12-19 12:17:41.943776,-45.0
2023-12-19 12:17:41.951465,-42.0
2023-12-19 12:17:41.959154,-45.0
2023-12-19 12:17:41.966843,-57.0
2023-12-19 12:17:41.974531,-61.0
2023-12-19 12:17:41.982220,-69.0
2023-12-19 12:17:41.989909,-83.0
2023-12-19 12:17:41.997598,-90.0
2023-12-19 12:17:42.005287,-90.0
2023-12-19 12:17:42.012976,-102.0
2023-12-19 12:17:42.020665,-123.0
2023-12-19 12:17:42.028353,-143.0
2023-12-19 12:17:42.036042,-154.0
2023-12-19 12:17:42.043731,-157.0
2023-12-19 12:17:42.051420,-157.0
2023-12-19 12:17:42.059109,-145.0
2023-12-19 12:17:42.066798,-131.0
2023-12-19 12:17:42.074487,-121.0
2023-12-19 12:17:42.082176,-116.0
2023-12-19 12:17:42.089864,-92.0
2023-12-19 12:17:42.097553,-54.0
2023-12-19 12:17:42.105242,-33.0
2023-12-19 12:17:42.112931,-26.0
2023-12-19 12:17:42.120620,-14.0
2023-12-19 12:17:42.128309,-2.0
2023-12-19 12:17:42.135998,2.0
2023-12-19 12:17:42.143687,11.0
2023-12-19 12:17:42.151375,19.0
2023-12-19 12:17:42.159064,19.0
2023-12-19 12:17:42.166753,19.0
2023-12-19 12:17:42.174442,21.0
2023-12-19 12:17:42.182131,28.0
2023-12-19 12:17:42.189820,26.0
2023-12-19 12:17:42.197509,14.0
2023-12-19 12:17:42.205197,7.0
2023-12-19 12:17:42.212886,2.0
2023-12-19 12:17:42.220575,2.0
2023-12-19 12:17:42.228264,2.0
2023-12-19 12:17:42.235953,-2.0
2023-12-19 12:17:42.243642,-4.0
2023-12-19 12:17:42.251331,-9.0
2023-12-19 12:17:42.259020,-9.0
2023-12-19 12:17:42.266708,-7.0
2023-12-19 12:17:42.274397,-7.0
2023-12-19 12:17:42.282086,-2.0
2023-12-19 12:17:42.289775,4.0
2023-12-19 12:17:42.297464,2.0
2023-12-19 12:17:42.305153,-4.0
2023-12-19 12:17:42.312842,0.0
2023-12-19 12:17:42.320531,7.0
2023-12-19 12:17:42.328219,11.0
2023-12-19 12:17:42.335908,7.0
2023-12-19 12:17:42.343597,7.0
2023-12-19 12:17:42.351286,11.0
2023-12-19 12:17:42.358975,11.0
2023-12-19 12:17:42.366664,7.0
2023-12-19 12:17:42.374353,4.0
2023-12-19 12:17:42.382041,-7.0
2023-12-19 12:17:42.389730,-26.0
2023-12-19 12:17:42.397419,-26.0
2023-12-19 12:17:42.405108,-35.0
2023-12-19 12:17:42.412797,-57.0
2023-12-19 12:17:42.420486,-54.0
2023-12-19 12:17:42.428175,-40.0
2023-12-19 12:17:42.435864,-45.0
2023-12-19 12:17:42.443552,-52.0
2023-12-19 12:17:42.451241,-73.0
2023-12-19 12:17:42.458930,-100.0
2023-12-19 12:17:42.466619,-97.0
2023-12-19 12:17:42.474308,-81.0
2023-12-19 12:17:42.481997,-71.0
2023-12-19 12:17:42.489686,-57.0
2023-12-19 12:17:42.497375,-47.0
2023-12-19 12:17:42.505063,-52.0
2023-12-19 12:17:42.512752,-54.0
2023-12-19 12:17:42.520441,-47.0
2023-12-19 12:17:42.528130,-50.0
2023-12-19 12:17:42.535819,-61.0
2023-12-19 12:17:42.543508,-54.0
2023-12-19 12:17:42.551197,-42.0
2023-12-19 12:17:42.558885,-145.0
2023-12-19 12:17:42.566574,-464.0
2023-12-19 12:17:42.574263,-853.0
2023-12-19 12:17:42.581952,-863.0
2023-12-19 12:17:42.589641,-312.0
2023-12-19 12:17:42.597330,216.0
2023-12-19 12:17:42.605019,214.0
2023-12-19 12:17:42.612708,23.0
2023-12-19 12:17:42.620396,33.0
2023-12-19 12:17:42.628085,64.0
2023-12-19 12:17:42.635774,16.0
2023-12-19 12:17:42.643463,19.0
2023-12-19 12:17:42.651152,35.0
2023-12-19 12:17:42.658841,14.0
2023-12-19 12:17:42.666530,9.0
2023-12-19 12:17:42.674219,16.0
2023-12-19 12:17:42.681907,4.0
2023-12-19 12:17:42.689596,-4.0
2023-12-19 12:17:42.697285,-4.0
2023-12-19 12:17:42.704974,-7.0
2023-12-19 12:17:42.712663,-14.0
2023-12-19 12:17:42.720352,-21.0
2023-12-19 12:17:42.728041,-30.0
2023-12-19 12:17:42.735729,-38.0
2023-12-19 12:17:42.743418,-52.0
2023-12-19 12:17:42.751107,-69.0
2023-12-19 12:17:42.758796,-85.0
2023-12-19 12:17:42.766485,-102.0
2023-12-19 12:17:42.774174,-112.0
2023-12-19 12:17:42.781863,-114.0
2023-12-19 12:17:42.789552,-116.0
2023-12-19 12:17:42.797240,-109.0
2023-12-19 12:17:42.804929,-90.0
2023-12-19 12:17:42.812618,-73.0
2023-12-19 12:17:42.820307,-61.0
2023-12-19 12:17:42.827996,-45.0
2023-12-19 12:17:42.835685,-26.0
2023-12-19 12:17:42.843374,-4.0
2023-12-19 12:17:42.851063,11.0
2023-12-19 12:17:42.858751,21.0
2023-12-19 12:17:42.866440,33.0
2023-12-19 12:17:42.874129,38.0
2023-12-19 12:17:42.881818,40.0
2023-12-19 12:17:42.889507,52.0
2023-12-19 12:17:42.897196,57.0
2023-12-19 12:17:42.904885,47.0
2023-12-19 12:17:42.912573,33.0
2023-12-19 12:17:42.920262,7.0
2023-12-19 12:17:42.927951,-16.0
2023-12-19 12:17:42.935640,-14.0
2023-12-19 12:17:42.943329,-19.0
2023-12-19 12:17:42.951018,-33.0
2023-12-19 12:17:42.958707,-40.0
2023-12-19 12:17:42.966396,-38.0
2023-12-19 12:17:42.974084,-40.0
2023-12-19 12:17:42.981773,-38.0
2023-12-19 12:17:42.989462,-33.0
2023-12-19 12:17:42.997151,-33.0
2023-12-19 12:17:43.004840,-33.0
2023-12-19 12:17:43.012529,-30.0
2023-12-19 12:17:43.020218,-28.0
2023-12-19 12:17:43.027907,-21.0
2023-12-19 12:17:43.035595,-14.0
2023-12-19 12:17:43.043284,-14.0
2023-12-19 12:17:43.050973,-14.0
2023-12-19 12:17:43.058662,-11.0
2023-12-19 12:17:43.066351,-4.0
2023-12-19 12:17:43.074040,4.0
2023-12-19 12:17:43.081729,9.0
2023-12-19 12:17:43.089417,4.0
2023-12-19 12:17:43.097106,0.0
2023-12-19 12:17:43.104795,2.0
2023-12-19 12:17:43.112484,4.0
2023-12-19 12:17:43.120173,4.0
2023-12-19 12:17:43.127862,2.0
2023-12-19 12:17:43.135551,-2.0
2023-12-19 12:17:43.143240,-9.0
2023-12-19 12:17:43.150928,-9.0
2023-12-19 12:17:43.158617,-4.0
2023-12-19 12:17:43.166306,4.0
2023-12-19 12:17:43.173995,7.0
2023-12-19 12:17:43.181684,4.0
2023-12-19 12:17:43.189373,-4.0
2023-12-19 12:17:43.197062,-28.0
2023-12-19 12:17:43.204751,-50.0
2023-12-19 12:17:43.212439,-52.0
2023-12-19 12:17:43.220128,-40.0
2023-12-19 12:17:43.227817,-26.0
2023-12-19 12:17:43.235506,-23.0
2023-12-19 12:17:43.243195,-21.0
2023-12-19 12:17:43.250884,-11.0
2023-12-19 12:17:43.258573,-14.0
2023-12-19 12:17:43.266261,-21.0
2023-12-19 12:17:43.273950,-23.0
2023-12-19 12:17:43.281639,-26.0
2023-12-19 12:17:43.289328,-23.0
2023-12-19 12:17:43.297017,-9.0
2023-12-19 12:17:43.304706,-73.0
2023-12-19 12:17:43.312395,-350.0
2023-12-19 12:17:43.320084,-774.0
2023-12-19 12:17:43.327772,-932.0
2023-12-19 12:17:43.335461,-479.0
2023-12-19 12:17:43.343150,133.0
