time,ECG
2023-08-11 19:55:10.834688,-59.0
2023-08-11 19:55:10.842377,-64.0
2023-08-11 19:55:10.850066,-66.0
2023-08-11 19:55:10.857755,-71.0
2023-08-11 19:55:10.865444,-81.0
2023-08-11 19:55:10.873134,-85.0
2023-08-11 19:55:10.880823,-95.0
2023-08-11 19:55:10.888512,-109.0
2023-08-11 19:55:10.896201,-117.0
2023-08-11 19:55:10.903890,-126.0
2023-08-11 19:55:10.911580,-140.0
2023-08-11 19:55:10.919269,-150.0
2023-08-11 19:55:10.926958,-155.0
2023-08-11 19:55:10.934647,-160.0
2023-08-11 19:55:10.942337,-164.0
2023-08-11 19:55:10.950026,-160.0
2023-08-11 19:55:10.957715,-145.0
2023-08-11 19:55:10.965404,-121.0
2023-08-11 19:55:10.973093,-100.0
2023-08-11 19:55:10.980783,-76.0
2023-08-11 19:55:10.988472,-54.0
2023-08-11 19:55:10.996161,-38.0
2023-08-11 19:55:11.003850,-23.0
2023-08-11 19:55:11.011539,-16.0
2023-08-11 19:55:11.019229,-14.0
2023-08-11 19:55:11.026918,-14.0
2023-08-11 19:55:11.034607,-14.0
2023-08-11 19:55:11.042296,-14.0
2023-08-11 19:55:11.049985,-16.0
2023-08-11 19:55:11.057675,-19.0
2023-08-11 19:55:11.065364,-19.0
2023-08-11 19:55:11.073053,-21.0
2023-08-11 19:55:11.080742,-21.0
2023-08-11 19:55:11.088432,-23.0
2023-08-11 19:55:11.096121,-23.0
2023-08-11 19:55:11.103810,-23.0
2023-08-11 19:55:11.111499,-23.0
2023-08-11 19:55:11.119188,-21.0
2023-08-11 19:55:11.126878,-21.0
2023-08-11 19:55:11.134567,-21.0
2023-08-11 19:55:11.142256,-21.0
2023-08-11 19:55:11.149945,-19.0
2023-08-11 19:55:11.157634,-16.0
2023-08-11 19:55:11.165324,-16.0
2023-08-11 19:55:11.173013,-19.0
2023-08-11 19:55:11.180702,-21.0
2023-08-11 19:55:11.188391,-16.0
2023-08-11 19:55:11.196081,-19.0
2023-08-11 19:55:11.203770,-31.0
2023-08-11 19:55:11.211459,-33.0
2023-08-11 19:55:11.219148,-26.0
2023-08-11 19:55:11.226837,-26.0
2023-08-11 19:55:11.234527,-26.0
2023-08-11 19:55:11.242216,-23.0
2023-08-11 19:55:11.249905,-23.0
2023-08-11 19:55:11.257594,-28.0
2023-08-11 19:55:11.265283,-31.0
2023-08-11 19:55:11.272973,-31.0
2023-08-11 19:55:11.280662,-35.0
2023-08-11 19:55:11.288351,-38.0
2023-08-11 19:55:11.296040,-52.0
2023-08-11 19:55:11.303729,-76.0
2023-08-11 19:55:11.311419,-95.0
2023-08-11 19:55:11.319108,-81.0
2023-08-11 19:55:11.326797,-57.0
2023-08-11 19:55:11.334486,-45.0
2023-08-11 19:55:11.342176,-38.0
2023-08-11 19:55:11.349865,-31.0
2023-08-11 19:55:11.357554,-28.0
2023-08-11 19:55:11.365243,-28.0
2023-08-11 19:55:11.372932,-31.0
2023-08-11 19:55:11.380622,-33.0
2023-08-11 19:55:11.388311,-31.0
2023-08-11 19:55:11.396000,-14.0
2023-08-11 19:55:11.403689,-9.0
2023-08-11 19:55:11.411378,-140.0
2023-08-11 19:55:11.419068,-453.0
2023-08-11 19:55:11.426757,-668.0
2023-08-11 19:55:11.434446,-339.0
2023-08-11 19:55:11.442135,214.0
2023-08-11 19:55:11.449824,234.0
2023-08-11 19:55:11.457514,-19.0
2023-08-11 19:55:11.465203,-21.0
2023-08-11 19:55:11.472892,28.0
2023-08-11 19:55:11.480581,-19.0
2023-08-11 19:55:11.488271,-28.0
2023-08-11 19:55:11.495960,-9.0
2023-08-11 19:55:11.503649,-19.0
2023-08-11 19:55:11.511338,-26.0
2023-08-11 19:55:11.519027,-26.0
2023-08-11 19:55:11.526717,-31.0
2023-08-11 19:55:11.534406,-35.0
2023-08-11 19:55:11.542095,-31.0
2023-08-11 19:55:11.549784,-28.0
2023-08-11 19:55:11.557473,-35.0
2023-08-11 19:55:11.565163,-45.0
2023-08-11 19:55:11.572852,-40.0
2023-08-11 19:55:11.580541,-38.0
2023-08-11 19:55:11.588230,-47.0
2023-08-11 19:55:11.595919,-59.0
2023-08-11 19:55:11.603609,-64.0
2023-08-11 19:55:11.611298,-66.0
2023-08-11 19:55:11.618987,-71.0
2023-08-11 19:55:11.626676,-81.0
2023-08-11 19:55:11.634366,-90.0
2023-08-11 19:55:11.642055,-100.0
2023-08-11 19:55:11.649744,-114.0
2023-08-11 19:55:11.657433,-128.0
2023-08-11 19:55:11.665122,-133.0
2023-08-11 19:55:11.672812,-136.0
2023-08-11 19:55:11.680501,-140.0
2023-08-11 19:55:11.688190,-140.0
2023-08-11 19:55:11.695879,-140.0
2023-08-11 19:55:11.703568,-136.0
2023-08-11 19:55:11.711258,-114.0
2023-08-11 19:55:11.718947,-88.0
2023-08-11 19:55:11.726636,-69.0
2023-08-11 19:55:11.734325,-52.0
2023-08-11 19:55:11.742015,-31.0
2023-08-11 19:55:11.749704,-9.0
2023-08-11 19:55:11.757393,-2.0
2023-08-11 19:55:11.765082,2.0
2023-08-11 19:55:11.772771,7.0
2023-08-11 19:55:11.780461,0.0
2023-08-11 19:55:11.788150,-11.0
2023-08-11 19:55:11.795839,-14.0
2023-08-11 19:55:11.803528,-9.0
2023-08-11 19:55:11.811217,-11.0
2023-08-11 19:55:11.818907,-21.0
2023-08-11 19:55:11.826596,-21.0
2023-08-11 19:55:11.834285,-19.0
2023-08-11 19:55:11.841974,-23.0
2023-08-11 19:55:11.849663,-26.0
2023-08-11 19:55:11.857353,-23.0
2023-08-11 19:55:11.865042,-19.0
2023-08-11 19:55:11.872731,-28.0
2023-08-11 19:55:11.880420,-40.0
2023-08-11 19:55:11.888110,-38.0
2023-08-11 19:55:11.895799,-33.0
2023-08-11 19:55:11.903488,-35.0
2023-08-11 19:55:11.911177,-33.0
2023-08-11 19:55:11.918866,-23.0
2023-08-11 19:55:11.926556,-31.0
2023-08-11 19:55:11.934245,-35.0
2023-08-11 19:55:11.941934,-28.0
2023-08-11 19:55:11.949623,-23.0
2023-08-11 19:55:11.957312,-35.0
2023-08-11 19:55:11.965002,-40.0
2023-08-11 19:55:11.972691,-33.0
2023-08-11 19:55:11.980380,-35.0
2023-08-11 19:55:11.988069,-45.0
2023-08-11 19:55:11.995758,-52.0
2023-08-11 19:55:12.003448,-74.0
2023-08-11 19:55:12.011137,-100.0
2023-08-11 19:55:12.018826,-90.0
2023-08-11 19:55:12.026515,-64.0
2023-08-11 19:55:12.034205,-52.0
2023-08-11 19:55:12.041894,-42.0
2023-08-11 19:55:12.049583,-33.0
2023-08-11 19:55:12.057272,-35.0
2023-08-11 19:55:12.064961,-38.0
2023-08-11 19:55:12.072651,-33.0
2023-08-11 19:55:12.080340,-31.0
2023-08-11 19:55:12.088029,-33.0
2023-08-11 19:55:12.095718,-23.0
2023-08-11 19:55:12.103407,-11.0
2023-08-11 19:55:12.111097,-105.0
2023-08-11 19:55:12.118786,-396.0
2023-08-11 19:55:12.126475,-692.0
2023-08-11 19:55:12.134164,-480.0
2023-08-11 19:55:12.141854,126.0
2023-08-11 19:55:12.149543,284.0
2023-08-11 19:55:12.157232,38.0
2023-08-11 19:55:12.164921,-11.0
2023-08-11 19:55:12.172610,31.0
2023-08-11 19:55:12.180300,-14.0
2023-08-11 19:55:12.187989,-23.0
2023-08-11 19:55:12.195678,-4.0
2023-08-11 19:55:12.203367,-23.0
2023-08-11 19:55:12.211056,-35.0
2023-08-11 19:55:12.218746,-23.0
2023-08-11 19:55:12.226435,-26.0
2023-08-11 19:55:12.234124,-38.0
2023-08-11 19:55:12.241813,-40.0
2023-08-11 19:55:12.249502,-33.0
2023-08-11 19:55:12.257192,-38.0
2023-08-11 19:55:12.264881,-45.0
2023-08-11 19:55:12.272570,-45.0
2023-08-11 19:55:12.280259,-47.0
2023-08-11 19:55:12.287949,-57.0
2023-08-11 19:55:12.295638,-62.0
2023-08-11 19:55:12.303327,-66.0
2023-08-11 19:55:12.311016,-78.0
2023-08-11 19:55:12.318705,-88.0
2023-08-11 19:55:12.326395,-95.0
2023-08-11 19:55:12.334084,-102.0
2023-08-11 19:55:12.341773,-114.0
2023-08-11 19:55:12.349462,-126.0
2023-08-11 19:55:12.357151,-136.0
2023-08-11 19:55:12.364841,-143.0
2023-08-11 19:55:12.372530,-155.0
2023-08-11 19:55:12.380219,-162.0
2023-08-11 19:55:12.387908,-162.0
2023-08-11 19:55:12.395597,-162.0
2023-08-11 19:55:12.403287,-157.0
2023-08-11 19:55:12.410976,-143.0
2023-08-11 19:55:12.418665,-131.0
2023-08-11 19:55:12.426354,-109.0
2023-08-11 19:55:12.434044,-81.0
2023-08-11 19:55:12.441733,-57.0
2023-08-11 19:55:12.449422,-42.0
2023-08-11 19:55:12.457111,-38.0
2023-08-11 19:55:12.464800,-40.0
2023-08-11 19:55:12.472490,-38.0
2023-08-11 19:55:12.480179,-33.0
2023-08-11 19:55:12.487868,-33.0
2023-08-11 19:55:12.495557,-35.0
2023-08-11 19:55:12.503246,-42.0
2023-08-11 19:55:12.510936,-50.0
2023-08-11 19:55:12.518625,-50.0
2023-08-11 19:55:12.526314,-50.0
2023-08-11 19:55:12.534003,-57.0
2023-08-11 19:55:12.541693,-57.0
2023-08-11 19:55:12.549382,-57.0
2023-08-11 19:55:12.557071,-59.0
2023-08-11 19:55:12.564760,-57.0
2023-08-11 19:55:12.572449,-54.0
2023-08-11 19:55:12.580139,-52.0
2023-08-11 19:55:12.587828,-50.0
2023-08-11 19:55:12.595517,-50.0
2023-08-11 19:55:12.603206,-47.0
2023-08-11 19:55:12.610895,-45.0
2023-08-11 19:55:12.618585,-47.0
2023-08-11 19:55:12.626274,-45.0
2023-08-11 19:55:12.633963,-40.0
2023-08-11 19:55:12.641652,-47.0
2023-08-11 19:55:12.649341,-50.0
2023-08-11 19:55:12.657031,-45.0
2023-08-11 19:55:12.664720,-42.0
2023-08-11 19:55:12.672409,-45.0
2023-08-11 19:55:12.680098,-47.0
2023-08-11 19:55:12.687788,-54.0
2023-08-11 19:55:12.695477,-71.0
2023-08-11 19:55:12.703166,-97.0
2023-08-11 19:55:12.710855,-107.0
2023-08-11 19:55:12.718544,-90.0
2023-08-11 19:55:12.726234,-74.0
2023-08-11 19:55:12.733923,-69.0
2023-08-11 19:55:12.741612,-54.0
2023-08-11 19:55:12.749301,-47.0
2023-08-11 19:55:12.756990,-52.0
2023-08-11 19:55:12.764680,-50.0
2023-08-11 19:55:12.772369,-45.0
2023-08-11 19:55:12.780058,-47.0
2023-08-11 19:55:12.787747,-45.0
2023-08-11 19:55:12.795436,-21.0
2023-08-11 19:55:12.803126,-26.0
2023-08-11 19:55:12.810815,-183.0
2023-08-11 19:55:12.818504,-537.0
2023-08-11 19:55:12.826193,-742.0
2023-08-11 19:55:12.833883,-332.0
2023-08-11 19:55:12.841572,253.0
2023-08-11 19:55:12.849261,224.0
2023-08-11 19:55:12.856950,-35.0
2023-08-11 19:55:12.864639,-14.0
2023-08-11 19:55:12.872329,28.0
2023-08-11 19:55:12.880018,-26.0
2023-08-11 19:55:12.887707,-31.0
2023-08-11 19:55:12.895396,-16.0
2023-08-11 19:55:12.903085,-38.0
2023-08-11 19:55:12.910775,-52.0
2023-08-11 19:55:12.918464,-45.0
2023-08-11 19:55:12.926153,-45.0
2023-08-11 19:55:12.933842,-47.0
2023-08-11 19:55:12.941532,-50.0
2023-08-11 19:55:12.949221,-52.0
2023-08-11 19:55:12.956910,-62.0
2023-08-11 19:55:12.964599,-66.0
2023-08-11 19:55:12.972288,-64.0
2023-08-11 19:55:12.979978,-64.0
2023-08-11 19:55:12.987667,-69.0
2023-08-11 19:55:12.995356,-78.0
2023-08-11 19:55:13.003045,-93.0
2023-08-11 19:55:13.010734,-102.0
2023-08-11 19:55:13.018424,-107.0
2023-08-11 19:55:13.026113,-114.0
2023-08-11 19:55:13.033802,-124.0
2023-08-11 19:55:13.041491,-133.0
2023-08-11 19:55:13.049180,-145.0
2023-08-11 19:55:13.056870,-152.0
2023-08-11 19:55:13.064559,-155.0
2023-08-11 19:55:13.072248,-160.0
2023-08-11 19:55:13.079937,-167.0
2023-08-11 19:55:13.087627,-164.0
2023-08-11 19:55:13.095316,-155.0
2023-08-11 19:55:13.103005,-138.0
2023-08-11 19:55:13.110694,-114.0
2023-08-11 19:55:13.118383,-93.0
2023-08-11 19:55:13.126073,-74.0
2023-08-11 19:55:13.133762,-52.0
2023-08-11 19:55:13.141451,-33.0
2023-08-11 19:55:13.149140,-21.0
2023-08-11 19:55:13.156829,-16.0
2023-08-11 19:55:13.164519,-11.0
2023-08-11 19:55:13.172208,-11.0
2023-08-11 19:55:13.179897,-11.0
2023-08-11 19:55:13.187586,-11.0
2023-08-11 19:55:13.195275,-11.0
2023-08-11 19:55:13.202965,-16.0
2023-08-11 19:55:13.210654,-19.0
2023-08-11 19:55:13.218343,-19.0
2023-08-11 19:55:13.226032,-21.0
2023-08-11 19:55:13.233722,-21.0
2023-08-11 19:55:13.241411,-23.0
2023-08-11 19:55:13.249100,-26.0
2023-08-11 19:55:13.256789,-26.0
2023-08-11 19:55:13.264478,-28.0
2023-08-11 19:55:13.272168,-28.0
2023-08-11 19:55:13.279857,-23.0
2023-08-11 19:55:13.287546,-21.0
2023-08-11 19:55:13.295235,-21.0
2023-08-11 19:55:13.302924,-21.0
2023-08-11 19:55:13.310614,-19.0
2023-08-11 19:55:13.318303,-19.0
2023-08-11 19:55:13.325992,-19.0
2023-08-11 19:55:13.333681,-16.0
2023-08-11 19:55:13.341371,-19.0
2023-08-11 19:55:13.349060,-19.0
2023-08-11 19:55:13.356749,-19.0
2023-08-11 19:55:13.364438,-19.0
2023-08-11 19:55:13.372127,-21.0
2023-08-11 19:55:13.379817,-26.0
2023-08-11 19:55:13.387506,-23.0
2023-08-11 19:55:13.395195,-21.0
2023-08-11 19:55:13.402884,-31.0
2023-08-11 19:55:13.410573,-45.0
2023-08-11 19:55:13.418263,-71.0
2023-08-11 19:55:13.425952,-93.0
2023-08-11 19:55:13.433641,-81.0
2023-08-11 19:55:13.441330,-62.0
2023-08-11 19:55:13.449019,-59.0
2023-08-11 19:55:13.456709,-54.0
2023-08-11 19:55:13.464398,-47.0
2023-08-11 19:55:13.472087,-50.0
2023-08-11 19:55:13.479776,-54.0
2023-08-11 19:55:13.487466,-50.0
2023-08-11 19:55:13.495155,-50.0
2023-08-11 19:55:13.502844,-52.0
2023-08-11 19:55:13.510533,-35.0
2023-08-11 19:55:13.518222,-21.0
2023-08-11 19:55:13.525912,-126.0
2023-08-11 19:55:13.533601,-453.0
2023-08-11 19:55:13.541290,-781.0
2023-08-11 19:55:13.548979,-527.0
2023-08-11 19:55:13.556668,160.0
2023-08-11 19:55:13.564358,308.0
2023-08-11 19:55:13.572047,-16.0
2023-08-11 19:55:13.579736,-52.0
2023-08-11 19:55:13.587425,47.0
2023-08-11 19:55:13.595114,-7.0
2023-08-11 19:55:13.602804,-38.0
2023-08-11 19:55:13.610493,-2.0
2023-08-11 19:55:13.618182,-14.0
2023-08-11 19:55:13.625871,-40.0
2023-08-11 19:55:13.633561,-35.0
2023-08-11 19:55:13.641250,-33.0
2023-08-11 19:55:13.648939,-40.0
2023-08-11 19:55:13.656628,-38.0
2023-08-11 19:55:13.664317,-40.0
2023-08-11 19:55:13.672007,-47.0
2023-08-11 19:55:13.679696,-50.0
2023-08-11 19:55:13.687385,-50.0
2023-08-11 19:55:13.695074,-54.0
2023-08-11 19:55:13.702763,-59.0
2023-08-11 19:55:13.710453,-64.0
2023-08-11 19:55:13.718142,-71.0
2023-08-11 19:55:13.725831,-81.0
2023-08-11 19:55:13.733520,-88.0
2023-08-11 19:55:13.741209,-95.0
2023-08-11 19:55:13.748899,-105.0
2023-08-11 19:55:13.756588,-112.0
2023-08-11 19:55:13.764277,-124.0
2023-08-11 19:55:13.771966,-138.0
2023-08-11 19:55:13.779656,-145.0
2023-08-11 19:55:13.787345,-150.0
2023-08-11 19:55:13.795034,-155.0
2023-08-11 19:55:13.802723,-155.0
2023-08-11 19:55:13.810412,-152.0
2023-08-11 19:55:13.818102,-143.0
2023-08-11 19:55:13.825791,-124.0
2023-08-11 19:55:13.833480,-100.0
2023-08-11 19:55:13.841169,-76.0
2023-08-11 19:55:13.848858,-52.0
2023-08-11 19:55:13.856548,-35.0
2023-08-11 19:55:13.864237,-26.0
2023-08-11 19:55:13.871926,-23.0
2023-08-11 19:55:13.879615,-19.0
2023-08-11 19:55:13.887305,-14.0
2023-08-11 19:55:13.894994,-16.0
2023-08-11 19:55:13.902683,-19.0
2023-08-11 19:55:13.910372,-21.0
2023-08-11 19:55:13.918061,-19.0
2023-08-11 19:55:13.925751,-16.0
2023-08-11 19:55:13.933440,-16.0
2023-08-11 19:55:13.941129,-21.0
2023-08-11 19:55:13.948818,-26.0
2023-08-11 19:55:13.956507,-28.0
2023-08-11 19:55:13.964197,-26.0
2023-08-11 19:55:13.971886,-28.0
2023-08-11 19:55:13.979575,-35.0
2023-08-11 19:55:13.987264,-35.0
2023-08-11 19:55:13.994953,-35.0
2023-08-11 19:55:14.002643,-35.0
2023-08-11 19:55:14.010332,-35.0
2023-08-11 19:55:14.018021,-31.0
2023-08-11 19:55:14.025710,-33.0
2023-08-11 19:55:14.033400,-38.0
2023-08-11 19:55:14.041089,-40.0
2023-08-11 19:55:14.048778,-38.0
2023-08-11 19:55:14.056467,-35.0
2023-08-11 19:55:14.064156,-35.0
2023-08-11 19:55:14.071846,-33.0
2023-08-11 19:55:14.079535,-33.0
2023-08-11 19:55:14.087224,-38.0
2023-08-11 19:55:14.094913,-38.0
2023-08-11 19:55:14.102602,-33.0
2023-08-11 19:55:14.110292,-31.0
2023-08-11 19:55:14.117981,-38.0
2023-08-11 19:55:14.125670,-47.0
2023-08-11 19:55:14.133359,-54.0
2023-08-11 19:55:14.141048,-62.0
2023-08-11 19:55:14.148738,-81.0
2023-08-11 19:55:14.156427,-107.0
2023-08-11 19:55:14.164116,-105.0
2023-08-11 19:55:14.171805,-81.0
2023-08-11 19:55:14.179495,-71.0
2023-08-11 19:55:14.187184,-64.0
2023-08-11 19:55:14.194873,-50.0
2023-08-11 19:55:14.202562,-42.0
2023-08-11 19:55:14.210251,-47.0
2023-08-11 19:55:14.217941,-47.0
2023-08-11 19:55:14.225630,-45.0
2023-08-11 19:55:14.233319,-45.0
2023-08-11 19:55:14.241008,-33.0
2023-08-11 19:55:14.248697,-19.0
2023-08-11 19:55:14.256387,-90.0
2023-08-11 19:55:14.264076,-355.0
2023-08-11 19:55:14.271765,-687.0
2023-08-11 19:55:14.279454,-566.0
2023-08-11 19:55:14.287144,64.0
2023-08-11 19:55:14.294833,320.0
2023-08-11 19:55:14.302522,26.0
2023-08-11 19:55:14.310211,-71.0
2023-08-11 19:55:14.317900,35.0
2023-08-11 19:55:14.325590,4.0
2023-08-11 19:55:14.333279,-40.0
2023-08-11 19:55:14.340968,-9.0
2023-08-11 19:55:14.348657,-11.0
2023-08-11 19:55:14.356346,-38.0
2023-08-11 19:55:14.364036,-33.0
2023-08-11 19:55:14.371725,-33.0
2023-08-11 19:55:14.379414,-42.0
2023-08-11 19:55:14.387103,-42.0
2023-08-11 19:55:14.394792,-40.0
2023-08-11 19:55:14.402482,-47.0
2023-08-11 19:55:14.410171,-47.0
2023-08-11 19:55:14.417860,-47.0
2023-08-11 19:55:14.425549,-52.0
2023-08-11 19:55:14.433239,-57.0
2023-08-11 19:55:14.440928,-62.0
2023-08-11 19:55:14.448617,-69.0
2023-08-11 19:55:14.456306,-74.0
2023-08-11 19:55:14.463995,-78.0
2023-08-11 19:55:14.471685,-88.0
2023-08-11 19:55:14.479374,-100.0
2023-08-11 19:55:14.487063,-114.0
2023-08-11 19:55:14.494752,-126.0
2023-08-11 19:55:14.502441,-133.0
2023-08-11 19:55:14.510131,-143.0
2023-08-11 19:55:14.517820,-150.0
2023-08-11 19:55:14.525509,-155.0
2023-08-11 19:55:14.533198,-157.0
2023-08-11 19:55:14.540887,-155.0
2023-08-11 19:55:14.548577,-143.0
2023-08-11 19:55:14.556266,-128.0
2023-08-11 19:55:14.563955,-107.0
2023-08-11 19:55:14.571644,-83.0
2023-08-11 19:55:14.579334,-59.0
2023-08-11 19:55:14.587023,-38.0
2023-08-11 19:55:14.594712,-23.0
2023-08-11 19:55:14.602401,-14.0
2023-08-11 19:55:14.610090,-16.0
2023-08-11 19:55:14.617780,-21.0
2023-08-11 19:55:14.625469,-21.0
2023-08-11 19:55:14.633158,-16.0
2023-08-11 19:55:14.640847,-16.0
2023-08-11 19:55:14.648536,-19.0
2023-08-11 19:55:14.656226,-21.0
2023-08-11 19:55:14.663915,-19.0
2023-08-11 19:55:14.671604,-21.0
2023-08-11 19:55:14.679293,-21.0
2023-08-11 19:55:14.686983,-21.0
2023-08-11 19:55:14.694672,-21.0
2023-08-11 19:55:14.702361,-21.0
2023-08-11 19:55:14.710050,-21.0
2023-08-11 19:55:14.717739,-19.0
2023-08-11 19:55:14.725429,-14.0
2023-08-11 19:55:14.733118,-16.0
2023-08-11 19:55:14.740807,-19.0
2023-08-11 19:55:14.748496,-16.0
2023-08-11 19:55:14.756185,-11.0
2023-08-11 19:55:14.763875,-9.0
2023-08-11 19:55:14.771564,-9.0
2023-08-11 19:55:14.779253,-9.0
2023-08-11 19:55:14.786942,-4.0
2023-08-11 19:55:14.794631,-2.0
2023-08-11 19:55:14.802321,-4.0
2023-08-11 19:55:14.810010,-2.0
2023-08-11 19:55:14.817699,-2.0
2023-08-11 19:55:14.825388,-7.0
2023-08-11 19:55:14.833078,-7.0
2023-08-11 19:55:14.840767,-7.0
2023-08-11 19:55:14.848456,-9.0
2023-08-11 19:55:14.856145,-11.0
2023-08-11 19:55:14.863834,-9.0
2023-08-11 19:55:14.871524,-11.0
2023-08-11 19:55:14.879213,-26.0
2023-08-11 19:55:14.886902,-54.0
2023-08-11 19:55:14.894591,-74.0
2023-08-11 19:55:14.902280,-62.0
2023-08-11 19:55:14.909970,-38.0
2023-08-11 19:55:14.917659,-26.0
2023-08-11 19:55:14.925348,-19.0
2023-08-11 19:55:14.933037,-14.0
2023-08-11 19:55:14.940726,-16.0
2023-08-11 19:55:14.948416,-16.0
2023-08-11 19:55:14.956105,-14.0
2023-08-11 19:55:14.963794,-14.0
2023-08-11 19:55:14.971483,-16.0
2023-08-11 19:55:14.979173,-2.0
2023-08-11 19:55:14.986862,-7.0
2023-08-11 19:55:14.994551,-157.0
2023-08-11 19:55:15.002240,-477.0
2023-08-11 19:55:15.009929,-647.0
2023-08-11 19:55:15.017619,-260.0
2023-08-11 19:55:15.025308,257.0
2023-08-11 19:55:15.032997,214.0
2023-08-11 19:55:15.040686,-16.0
2023-08-11 19:55:15.048375,9.0
2023-08-11 19:55:15.056065,38.0
2023-08-11 19:55:15.063754,-14.0
2023-08-11 19:55:15.071443,-9.0
2023-08-11 19:55:15.079132,7.0
2023-08-11 19:55:15.086822,-14.0
2023-08-11 19:55:15.094511,-21.0
2023-08-11 19:55:15.102200,-11.0
2023-08-11 19:55:15.109889,-19.0
2023-08-11 19:55:15.117578,-26.0
2023-08-11 19:55:15.125268,-26.0
2023-08-11 19:55:15.132957,-31.0
2023-08-11 19:55:15.140646,-33.0
2023-08-11 19:55:15.148335,-26.0
2023-08-11 19:55:15.156024,-35.0
2023-08-11 19:55:15.163714,-52.0
2023-08-11 19:55:15.171403,-57.0
2023-08-11 19:55:15.179092,-57.0
2023-08-11 19:55:15.186781,-64.0
2023-08-11 19:55:15.194470,-69.0
2023-08-11 19:55:15.202160,-76.0
2023-08-11 19:55:15.209849,-90.0
2023-08-11 19:55:15.217538,-97.0
2023-08-11 19:55:15.225227,-102.0
2023-08-11 19:55:15.232917,-112.0
2023-08-11 19:55:15.240606,-121.0
2023-08-11 19:55:15.248295,-128.0
2023-08-11 19:55:15.255984,-133.0
2023-08-11 19:55:15.263673,-138.0
2023-08-11 19:55:15.271363,-143.0
2023-08-11 19:55:15.279052,-138.0
2023-08-11 19:55:15.286741,-126.0
2023-08-11 19:55:15.294430,-112.0
2023-08-11 19:55:15.302119,-93.0
2023-08-11 19:55:15.309809,-66.0
2023-08-11 19:55:15.317498,-42.0
2023-08-11 19:55:15.325187,-21.0
2023-08-11 19:55:15.332876,-4.0
2023-08-11 19:55:15.340565,2.0
2023-08-11 19:55:15.348255,4.0
2023-08-11 19:55:15.355944,0.0
2023-08-11 19:55:15.363633,-2.0
2023-08-11 19:55:15.371322,2.0
2023-08-11 19:55:15.379012,2.0
2023-08-11 19:55:15.386701,-7.0
2023-08-11 19:55:15.394390,-9.0
2023-08-11 19:55:15.402079,-7.0
2023-08-11 19:55:15.409768,-9.0
2023-08-11 19:55:15.417458,-11.0
2023-08-11 19:55:15.425147,-14.0
2023-08-11 19:55:15.432836,-16.0
2023-08-11 19:55:15.440525,-21.0
2023-08-11 19:55:15.448214,-19.0
2023-08-11 19:55:15.455904,-14.0
2023-08-11 19:55:15.463593,-11.0
2023-08-11 19:55:15.471282,-14.0
2023-08-11 19:55:15.478971,-14.0
2023-08-11 19:55:15.486661,-11.0
2023-08-11 19:55:15.494350,-11.0
2023-08-11 19:55:15.502039,-14.0
2023-08-11 19:55:15.509728,-11.0
2023-08-11 19:55:15.517417,-9.0
2023-08-11 19:55:15.525107,-14.0
2023-08-11 19:55:15.532796,-19.0
2023-08-11 19:55:15.540485,-14.0
2023-08-11 19:55:15.548174,-14.0
2023-08-11 19:55:15.555863,-21.0
2023-08-11 19:55:15.563553,-23.0
2023-08-11 19:55:15.571242,-28.0
2023-08-11 19:55:15.578931,-50.0
2023-08-11 19:55:15.586620,-76.0
2023-08-11 19:55:15.594309,-69.0
2023-08-11 19:55:15.601999,-50.0
2023-08-11 19:55:15.609688,-45.0
2023-08-11 19:55:15.617377,-38.0
2023-08-11 19:55:15.625066,-26.0
2023-08-11 19:55:15.632756,-26.0
2023-08-11 19:55:15.640445,-28.0
2023-08-11 19:55:15.648134,-26.0
2023-08-11 19:55:15.655823,-33.0
2023-08-11 19:55:15.663512,-38.0
2023-08-11 19:55:15.671202,-19.0
2023-08-11 19:55:15.678891,-4.0
2023-08-11 19:55:15.686580,-112.0
2023-08-11 19:55:15.694269,-425.0
2023-08-11 19:55:15.701958,-699.0
2023-08-11 19:55:15.709648,-420.0
2023-08-11 19:55:15.717337,181.0
2023-08-11 19:55:15.725026,272.0
2023-08-11 19:55:15.732715,21.0
2023-08-11 19:55:15.740404,-4.0
2023-08-11 19:55:15.748094,31.0
2023-08-11 19:55:15.755783,-26.0
2023-08-11 19:55:15.763472,-40.0
2023-08-11 19:55:15.771161,-11.0
2023-08-11 19:55:15.778851,-21.0
2023-08-11 19:55:15.786540,-35.0
2023-08-11 19:55:15.794229,-33.0
2023-08-11 19:55:15.801918,-35.0
2023-08-11 19:55:15.809607,-40.0
2023-08-11 19:55:15.817297,-38.0
2023-08-11 19:55:15.824986,-35.0
2023-08-11 19:55:15.832675,-42.0
2023-08-11 19:55:15.840364,-50.0
2023-08-11 19:55:15.848053,-54.0
2023-08-11 19:55:15.855743,-54.0
2023-08-11 19:55:15.863432,-54.0
2023-08-11 19:55:15.871121,-62.0
2023-08-11 19:55:15.878810,-69.0
2023-08-11 19:55:15.886499,-76.0
2023-08-11 19:55:15.894189,-85.0
2023-08-11 19:55:15.901878,-93.0
2023-08-11 19:55:15.909567,-97.0
2023-08-11 19:55:15.917256,-109.0
2023-08-11 19:55:15.924946,-121.0
2023-08-11 19:55:15.932635,-128.0
2023-08-11 19:55:15.940324,-133.0
2023-08-11 19:55:15.948013,-138.0
2023-08-11 19:55:15.955702,-136.0
2023-08-11 19:55:15.963392,-138.0
2023-08-11 19:55:15.971081,-140.0
2023-08-11 19:55:15.978770,-131.0
2023-08-11 19:55:15.986459,-109.0
2023-08-11 19:55:15.994148,-88.0
2023-08-11 19:55:16.001838,-74.0
2023-08-11 19:55:16.009527,-52.0
2023-08-11 19:55:16.017216,-28.0
2023-08-11 19:55:16.024905,-16.0
2023-08-11 19:55:16.032595,-11.0
2023-08-11 19:55:16.040284,-7.0
2023-08-11 19:55:16.047973,-4.0
2023-08-11 19:55:16.055662,-4.0
2023-08-11 19:55:16.063351,-7.0
2023-08-11 19:55:16.071041,-11.0
2023-08-11 19:55:16.078730,-11.0
2023-08-11 19:55:16.086419,-14.0
2023-08-11 19:55:16.094108,-19.0
2023-08-11 19:55:16.101797,-21.0
2023-08-11 19:55:16.109487,-23.0
2023-08-11 19:55:16.117176,-26.0
2023-08-11 19:55:16.124865,-28.0
2023-08-11 19:55:16.132554,-33.0
2023-08-11 19:55:16.140243,-31.0
2023-08-11 19:55:16.147933,-28.0
2023-08-11 19:55:16.155622,-26.0
2023-08-11 19:55:16.163311,-21.0
2023-08-11 19:55:16.171000,-21.0
2023-08-11 19:55:16.178690,-21.0
2023-08-11 19:55:16.186379,-16.0
2023-08-11 19:55:16.194068,-14.0
2023-08-11 19:55:16.201757,-14.0
2023-08-11 19:55:16.209446,-11.0
2023-08-11 19:55:16.217136,-11.0
2023-08-11 19:55:16.224825,-14.0
2023-08-11 19:55:16.232514,-19.0
2023-08-11 19:55:16.240203,-16.0
2023-08-11 19:55:16.247892,-11.0
2023-08-11 19:55:16.255582,-14.0
2023-08-11 19:55:16.263271,-23.0
2023-08-11 19:55:16.270960,-33.0
2023-08-11 19:55:16.278649,-54.0
2023-08-11 19:55:16.286338,-76.0
2023-08-11 19:55:16.294028,-71.0
2023-08-11 19:55:16.301717,-50.0
2023-08-11 19:55:16.309406,-40.0
2023-08-11 19:55:16.317095,-33.0
2023-08-11 19:55:16.324785,-23.0
2023-08-11 19:55:16.332474,-23.0
2023-08-11 19:55:16.340163,-28.0
2023-08-11 19:55:16.347852,-28.0
2023-08-11 19:55:16.355541,-28.0
2023-08-11 19:55:16.363231,-28.0
2023-08-11 19:55:16.370920,-19.0
2023-08-11 19:55:16.378609,-14.0
2023-08-11 19:55:16.386298,-131.0
2023-08-11 19:55:16.393987,-453.0
2023-08-11 19:55:16.401677,-735.0
2023-08-11 19:55:16.409366,-449.0
2023-08-11 19:55:16.417055,181.0
2023-08-11 19:55:16.424744,272.0
2023-08-11 19:55:16.432434,-7.0
2023-08-11 19:55:16.440123,-21.0
2023-08-11 19:55:16.447812,42.0
2023-08-11 19:55:16.455501,-11.0
2023-08-11 19:55:16.463190,-31.0
2023-08-11 19:55:16.470880,-7.0
2023-08-11 19:55:16.478569,-16.0
2023-08-11 19:55:16.486258,-31.0
2023-08-11 19:55:16.493947,-26.0
2023-08-11 19:55:16.501636,-33.0
2023-08-11 19:55:16.509326,-42.0
2023-08-11 19:55:16.517015,-40.0
2023-08-11 19:55:16.524704,-38.0
2023-08-11 19:55:16.532393,-45.0
2023-08-11 19:55:16.540082,-47.0
2023-08-11 19:55:16.547772,-47.0
2023-08-11 19:55:16.555461,-54.0
2023-08-11 19:55:16.563150,-62.0
2023-08-11 19:55:16.570839,-59.0
2023-08-11 19:55:16.578529,-69.0
2023-08-11 19:55:16.586218,-85.0
2023-08-11 19:55:16.593907,-93.0
2023-08-11 19:55:16.601596,-95.0
2023-08-11 19:55:16.609285,-105.0
2023-08-11 19:55:16.616975,-117.0
2023-08-11 19:55:16.624664,-128.0
2023-08-11 19:55:16.632353,-136.0
2023-08-11 19:55:16.640042,-145.0
2023-08-11 19:55:16.647731,-150.0
2023-08-11 19:55:16.655421,-150.0
2023-08-11 19:55:16.663110,-148.0
2023-08-11 19:55:16.670799,-145.0
2023-08-11 19:55:16.678488,-136.0
2023-08-11 19:55:16.686177,-114.0
2023-08-11 19:55:16.693867,-93.0
2023-08-11 19:55:16.701556,-69.0
2023-08-11 19:55:16.709245,-45.0
2023-08-11 19:55:16.716934,-28.0
2023-08-11 19:55:16.724624,-16.0
2023-08-11 19:55:16.732313,-9.0
2023-08-11 19:55:16.740002,-4.0
2023-08-11 19:55:16.747691,-4.0
2023-08-11 19:55:16.755380,-4.0
2023-08-11 19:55:16.763070,-4.0
2023-08-11 19:55:16.770759,-7.0
2023-08-11 19:55:16.778448,-9.0
2023-08-11 19:55:16.786137,-14.0
2023-08-11 19:55:16.793826,-11.0
2023-08-11 19:55:16.801516,-11.0
2023-08-11 19:55:16.809205,-16.0
2023-08-11 19:55:16.816894,-21.0
2023-08-11 19:55:16.824583,-21.0
2023-08-11 19:55:16.832273,-23.0
2023-08-11 19:55:16.839962,-26.0
2023-08-11 19:55:16.847651,-23.0
2023-08-11 19:55:16.855340,-23.0
2023-08-11 19:55:16.863029,-26.0
2023-08-11 19:55:16.870719,-33.0
2023-08-11 19:55:16.878408,-33.0
2023-08-11 19:55:16.886097,-28.0
2023-08-11 19:55:16.893786,-26.0
2023-08-11 19:55:16.901475,-23.0
2023-08-11 19:55:16.909165,-26.0
2023-08-11 19:55:16.916854,-33.0
2023-08-11 19:55:16.924543,-33.0
2023-08-11 19:55:16.932232,-28.0
2023-08-11 19:55:16.939921,-26.0
2023-08-11 19:55:16.947611,-28.0
2023-08-11 19:55:16.955300,-35.0
2023-08-11 19:55:16.962989,-42.0
2023-08-11 19:55:16.970678,-40.0
2023-08-11 19:55:16.978368,-38.0
2023-08-11 19:55:16.986057,-50.0
2023-08-11 19:55:16.993746,-69.0
2023-08-11 19:55:17.001435,-93.0
2023-08-11 19:55:17.009124,-97.0
2023-08-11 19:55:17.016814,-76.0
2023-08-11 19:55:17.024503,-62.0
2023-08-11 19:55:17.032192,-52.0
2023-08-11 19:55:17.039881,-45.0
2023-08-11 19:55:17.047570,-45.0
2023-08-11 19:55:17.055260,-45.0
2023-08-11 19:55:17.062949,-45.0
2023-08-11 19:55:17.070638,-45.0
2023-08-11 19:55:17.078327,-47.0
2023-08-11 19:55:17.086016,-40.0
2023-08-11 19:55:17.093706,-19.0
2023-08-11 19:55:17.101395,-71.0
2023-08-11 19:55:17.109084,-324.0
2023-08-11 19:55:17.116773,-687.0
2023-08-11 19:55:17.124463,-642.0
2023-08-11 19:55:17.132152,-19.0
2023-08-11 19:55:17.139841,334.0
2023-08-11 19:55:17.147530,66.0
2023-08-11 19:55:17.155219,-78.0
2023-08-11 19:55:17.162909,33.0
2023-08-11 19:55:17.170598,21.0
2023-08-11 19:55:17.178287,-35.0
2023-08-11 19:55:17.185976,-9.0
2023-08-11 19:55:17.193665,-4.0
2023-08-11 19:55:17.201355,-28.0
2023-08-11 19:55:17.209044,-23.0
2023-08-11 19:55:17.216733,-19.0
2023-08-11 19:55:17.224422,-31.0
2023-08-11 19:55:17.232112,-35.0
2023-08-11 19:55:17.239801,-31.0
2023-08-11 19:55:17.247490,-35.0
2023-08-11 19:55:17.255179,-38.0
2023-08-11 19:55:17.262868,-40.0
2023-08-11 19:55:17.270558,-45.0
2023-08-11 19:55:17.278247,-50.0
2023-08-11 19:55:17.285936,-54.0
2023-08-11 19:55:17.293625,-57.0
2023-08-11 19:55:17.301314,-62.0
2023-08-11 19:55:17.309004,-69.0
2023-08-11 19:55:17.316693,-81.0
2023-08-11 19:55:17.324382,-95.0
2023-08-11 19:55:17.332071,-105.0
2023-08-11 19:55:17.339760,-112.0
2023-08-11 19:55:17.347450,-119.0
2023-08-11 19:55:17.355139,-131.0
2023-08-11 19:55:17.362828,-140.0
2023-08-11 19:55:17.370517,-148.0
2023-08-11 19:55:17.378207,-148.0
2023-08-11 19:55:17.385896,-148.0
2023-08-11 19:55:17.393585,-138.0
2023-08-11 19:55:17.401274,-119.0
2023-08-11 19:55:17.408963,-97.0
2023-08-11 19:55:17.416653,-78.0
2023-08-11 19:55:17.424342,-54.0
2023-08-11 19:55:17.432031,-31.0
2023-08-11 19:55:17.439720,-14.0
2023-08-11 19:55:17.447409,-9.0
2023-08-11 19:55:17.455099,-11.0
2023-08-11 19:55:17.462788,-16.0
2023-08-11 19:55:17.470477,-16.0
2023-08-11 19:55:17.478166,-14.0
2023-08-11 19:55:17.485855,-14.0
2023-08-11 19:55:17.493545,-14.0
2023-08-11 19:55:17.501234,-16.0
2023-08-11 19:55:17.508923,-21.0
2023-08-11 19:55:17.516612,-26.0
2023-08-11 19:55:17.524302,-23.0
2023-08-11 19:55:17.531991,-23.0
2023-08-11 19:55:17.539680,-26.0
2023-08-11 19:55:17.547369,-28.0
2023-08-11 19:55:17.555058,-28.0
2023-08-11 19:55:17.562748,-31.0
2023-08-11 19:55:17.570437,-33.0
2023-08-11 19:55:17.578126,-31.0
2023-08-11 19:55:17.585815,-28.0
2023-08-11 19:55:17.593504,-31.0
2023-08-11 19:55:17.601194,-31.0
2023-08-11 19:55:17.608883,-26.0
2023-08-11 19:55:17.616572,-23.0
2023-08-11 19:55:17.624261,-21.0
2023-08-11 19:55:17.631951,-19.0
2023-08-11 19:55:17.639640,-21.0
2023-08-11 19:55:17.647329,-19.0
2023-08-11 19:55:17.655018,-16.0
2023-08-11 19:55:17.662707,-16.0
2023-08-11 19:55:17.670397,-16.0
2023-08-11 19:55:17.678086,-21.0
2023-08-11 19:55:17.685775,-23.0
2023-08-11 19:55:17.693464,-21.0
2023-08-11 19:55:17.701153,-19.0
2023-08-11 19:55:17.708843,-21.0
2023-08-11 19:55:17.716532,-28.0
2023-08-11 19:55:17.724221,-42.0
2023-08-11 19:55:17.731910,-71.0
2023-08-11 19:55:17.739599,-81.0
2023-08-11 19:55:17.747289,-62.0
2023-08-11 19:55:17.754978,-47.0
2023-08-11 19:55:17.762667,-35.0
2023-08-11 19:55:17.770356,-23.0
2023-08-11 19:55:17.778046,-23.0
2023-08-11 19:55:17.785735,-28.0
2023-08-11 19:55:17.793424,-26.0
2023-08-11 19:55:17.801113,-26.0
2023-08-11 19:55:17.808802,-28.0
2023-08-11 19:55:17.816492,-31.0
2023-08-11 19:55:17.824181,-11.0
2023-08-11 19:55:17.831870,-16.0
2023-08-11 19:55:17.839559,-174.0
2023-08-11 19:55:17.847248,-518.0
2023-08-11 19:55:17.854938,-690.0
2023-08-11 19:55:17.862627,-257.0
2023-08-11 19:55:17.870316,286.0
2023-08-11 19:55:17.878005,203.0
2023-08-11 19:55:17.885694,-57.0
2023-08-11 19:55:17.893384,0.0
2023-08-11 19:55:17.901073,50.0
2023-08-11 19:55:17.908762,-14.0
2023-08-11 19:55:17.916451,-14.0
2023-08-11 19:55:17.924141,4.0
2023-08-11 19:55:17.931830,-16.0
2023-08-11 19:55:17.939519,-23.0
2023-08-11 19:55:17.947208,-19.0
2023-08-11 19:55:17.954897,-33.0
2023-08-11 19:55:17.962587,-40.0
2023-08-11 19:55:17.970276,-33.0
2023-08-11 19:55:17.977965,-33.0
2023-08-11 19:55:17.985654,-40.0
2023-08-11 19:55:17.993343,-40.0
2023-08-11 19:55:18.001033,-45.0
2023-08-11 19:55:18.008722,-57.0
2023-08-11 19:55:18.016411,-62.0
2023-08-11 19:55:18.024100,-64.0
2023-08-11 19:55:18.031789,-71.0
2023-08-11 19:55:18.039479,-81.0
2023-08-11 19:55:18.047168,-85.0
2023-08-11 19:55:18.054857,-93.0
2023-08-11 19:55:18.062546,-107.0
2023-08-11 19:55:18.070236,-119.0
2023-08-11 19:55:18.077925,-128.0
2023-08-11 19:55:18.085614,-133.0
2023-08-11 19:55:18.093303,-136.0
2023-08-11 19:55:18.100992,-145.0
2023-08-11 19:55:18.108682,-152.0
2023-08-11 19:55:18.116371,-152.0
2023-08-11 19:55:18.124060,-150.0
2023-08-11 19:55:18.131749,-140.0
2023-08-11 19:55:18.139438,-117.0
2023-08-11 19:55:18.147128,-90.0
2023-08-11 19:55:18.154817,-69.0
2023-08-11 19:55:18.162506,-45.0
2023-08-11 19:55:18.170195,-23.0
2023-08-11 19:55:18.177885,-9.0
2023-08-11 19:55:18.185574,-2.0
2023-08-11 19:55:18.193263,-2.0
2023-08-11 19:55:18.200952,-2.0
2023-08-11 19:55:18.208641,2.0
2023-08-11 19:55:18.216331,0.0
2023-08-11 19:55:18.224020,-2.0
2023-08-11 19:55:18.231709,0.0
2023-08-11 19:55:18.239398,-2.0
2023-08-11 19:55:18.247087,-9.0
2023-08-11 19:55:18.254777,-9.0
2023-08-11 19:55:18.262466,-9.0
2023-08-11 19:55:18.270155,-11.0
2023-08-11 19:55:18.277844,-14.0
2023-08-11 19:55:18.285533,-9.0
2023-08-11 19:55:18.293223,-7.0
2023-08-11 19:55:18.300912,-11.0
2023-08-11 19:55:18.308601,-19.0
2023-08-11 19:55:18.316290,-16.0
2023-08-11 19:55:18.323980,-11.0
2023-08-11 19:55:18.331669,-9.0
2023-08-11 19:55:18.339358,-11.0
2023-08-11 19:55:18.347047,-7.0
2023-08-11 19:55:18.354736,0.0
2023-08-11 19:55:18.362426,-2.0
2023-08-11 19:55:18.370115,-7.0
2023-08-11 19:55:18.377804,-4.0
2023-08-11 19:55:18.385493,-4.0
2023-08-11 19:55:18.393182,-2.0
2023-08-11 19:55:18.400872,-2.0
2023-08-11 19:55:18.408561,-4.0
2023-08-11 19:55:18.416250,-7.0
2023-08-11 19:55:18.423939,-14.0
2023-08-11 19:55:18.431628,-21.0
2023-08-11 19:55:18.439318,-42.0
2023-08-11 19:55:18.447007,-69.0
2023-08-11 19:55:18.454696,-62.0
2023-08-11 19:55:18.462385,-40.0
2023-08-11 19:55:18.470075,-28.0
2023-08-11 19:55:18.477764,-16.0
2023-08-11 19:55:18.485453,-4.0
2023-08-11 19:55:18.493142,-11.0
2023-08-11 19:55:18.500831,-16.0
2023-08-11 19:55:18.508521,-19.0
2023-08-11 19:55:18.516210,-26.0
2023-08-11 19:55:18.523899,-28.0
2023-08-11 19:55:18.531588,-19.0
2023-08-11 19:55:18.539277,-19.0
2023-08-11 19:55:18.546967,-114.0
2023-08-11 19:55:18.554656,-396.0
2023-08-11 19:55:18.562345,-687.0
2023-08-11 19:55:18.570034,-475.0
2023-08-11 19:55:18.577724,121.0
2023-08-11 19:55:18.585413,272.0
2023-08-11 19:55:18.593102,28.0
2023-08-11 19:55:18.600791,-21.0
2023-08-11 19:55:18.608480,23.0
2023-08-11 19:55:18.616170,-19.0
2023-08-11 19:55:18.623859,-38.0
2023-08-11 19:55:18.631548,-16.0
2023-08-11 19:55:18.639237,-21.0
2023-08-11 19:55:18.646926,-33.0
2023-08-11 19:55:18.654616,-31.0
2023-08-11 19:55:18.662305,-33.0
2023-08-11 19:55:18.669994,-40.0
2023-08-11 19:55:18.677683,-42.0
2023-08-11 19:55:18.685372,-40.0
2023-08-11 19:55:18.693062,-40.0
2023-08-11 19:55:18.700751,-42.0
2023-08-11 19:55:18.708440,-50.0
2023-08-11 19:55:18.716129,-54.0
2023-08-11 19:55:18.723819,-57.0
2023-08-11 19:55:18.731508,-59.0
2023-08-11 19:55:18.739197,-64.0
2023-08-11 19:55:18.746886,-74.0
2023-08-11 19:55:18.754575,-83.0
2023-08-11 19:55:18.762265,-93.0
2023-08-11 19:55:18.769954,-100.0
2023-08-11 19:55:18.777643,-107.0
2023-08-11 19:55:18.785332,-114.0
2023-08-11 19:55:18.793021,-131.0
2023-08-11 19:55:18.800711,-143.0
2023-08-11 19:55:18.808400,-143.0
2023-08-11 19:55:18.816089,-143.0
2023-08-11 19:55:18.823778,-148.0
2023-08-11 19:55:18.831467,-148.0
2023-08-11 19:55:18.839157,-140.0
2023-08-11 19:55:18.846846,-119.0
2023-08-11 19:55:18.854535,-102.0
2023-08-11 19:55:18.862224,-85.0
2023-08-11 19:55:18.869914,-62.0
2023-08-11 19:55:18.877603,-31.0
2023-08-11 19:55:18.885292,-11.0
2023-08-11 19:55:18.892981,-9.0
2023-08-11 19:55:18.900670,-7.0
2023-08-11 19:55:18.908360,-7.0
2023-08-11 19:55:18.916049,-7.0
2023-08-11 19:55:18.923738,-4.0
2023-08-11 19:55:18.931427,-7.0
2023-08-11 19:55:18.939116,-14.0
2023-08-11 19:55:18.946806,-14.0
2023-08-11 19:55:18.954495,-14.0
2023-08-11 19:55:18.962184,-21.0
2023-08-11 19:55:18.969873,-23.0
2023-08-11 19:55:18.977563,-23.0
2023-08-11 19:55:18.985252,-28.0
2023-08-11 19:55:18.992941,-33.0
2023-08-11 19:55:19.000630,-33.0
2023-08-11 19:55:19.008319,-31.0
2023-08-11 19:55:19.016009,-31.0
2023-08-11 19:55:19.023698,-31.0
2023-08-11 19:55:19.031387,-35.0
2023-08-11 19:55:19.039076,-38.0
2023-08-11 19:55:19.046765,-33.0
2023-08-11 19:55:19.054455,-33.0
2023-08-11 19:55:19.062144,-33.0
2023-08-11 19:55:19.069833,-35.0
2023-08-11 19:55:19.077522,-40.0
2023-08-11 19:55:19.085211,-42.0
2023-08-11 19:55:19.092901,-38.0
2023-08-11 19:55:19.100590,-35.0
2023-08-11 19:55:19.108279,-38.0
2023-08-11 19:55:19.115968,-45.0
2023-08-11 19:55:19.123658,-54.0
2023-08-11 19:55:19.131347,-71.0
2023-08-11 19:55:19.139036,-93.0
2023-08-11 19:55:19.146725,-107.0
2023-08-11 19:55:19.154414,-90.0
2023-08-11 19:55:19.162104,-71.0
2023-08-11 19:55:19.169793,-64.0
2023-08-11 19:55:19.177482,-54.0
2023-08-11 19:55:19.185171,-50.0
2023-08-11 19:55:19.192860,-50.0
2023-08-11 19:55:19.200550,-50.0
2023-08-11 19:55:19.208239,-47.0
2023-08-11 19:55:19.215928,-52.0
2023-08-11 19:55:19.223617,-52.0
2023-08-11 19:55:19.231306,-31.0
2023-08-11 19:55:19.238996,-26.0
2023-08-11 19:55:19.246685,-171.0
2023-08-11 19:55:19.254374,-518.0
2023-08-11 19:55:19.262063,-730.0
2023-08-11 19:55:19.269753,-343.0
2023-08-11 19:55:19.277442,236.0
2023-08-11 19:55:19.285131,219.0
2023-08-11 19:55:19.292820,-40.0
2023-08-11 19:55:19.300509,-21.0
2023-08-11 19:55:19.308199,16.0
2023-08-11 19:55:19.315888,-35.0
2023-08-11 19:55:19.323577,-38.0
2023-08-11 19:55:19.331266,-21.0
2023-08-11 19:55:19.338955,-38.0
2023-08-11 19:55:19.346645,-47.0
2023-08-11 19:55:19.354334,-38.0
2023-08-11 19:55:19.362023,-42.0
2023-08-11 19:55:19.369712,-47.0
2023-08-11 19:55:19.377402,-45.0
2023-08-11 19:55:19.385091,-50.0
2023-08-11 19:55:19.392780,-59.0
2023-08-11 19:55:19.400469,-59.0
2023-08-11 19:55:19.408158,-59.0
2023-08-11 19:55:19.415848,-64.0
2023-08-11 19:55:19.423537,-66.0
2023-08-11 19:55:19.431226,-71.0
2023-08-11 19:55:19.438915,-81.0
2023-08-11 19:55:19.446604,-88.0
2023-08-11 19:55:19.454294,-90.0
2023-08-11 19:55:19.461983,-97.0
2023-08-11 19:55:19.469672,-109.0
2023-08-11 19:55:19.477361,-121.0
2023-08-11 19:55:19.485050,-131.0
2023-08-11 19:55:19.492740,-140.0
2023-08-11 19:55:19.500429,-145.0
2023-08-11 19:55:19.508118,-145.0
2023-08-11 19:55:19.515807,-150.0
2023-08-11 19:55:19.523497,-152.0
2023-08-11 19:55:19.531186,-155.0
2023-08-11 19:55:19.538875,-148.0
2023-08-11 19:55:19.546564,-128.0
2023-08-11 19:55:19.554253,-102.0
2023-08-11 19:55:19.561943,-78.0
2023-08-11 19:55:19.569632,-59.0
2023-08-11 19:55:19.577321,-45.0
2023-08-11 19:55:19.585010,-31.0
2023-08-11 19:55:19.592699,-21.0
2023-08-11 19:55:19.600389,-16.0
2023-08-11 19:55:19.608078,-16.0
2023-08-11 19:55:19.615767,-19.0
2023-08-11 19:55:19.623456,-23.0
2023-08-11 19:55:19.631145,-23.0
2023-08-11 19:55:19.638835,-21.0
2023-08-11 19:55:19.646524,-23.0
2023-08-11 19:55:19.654213,-33.0
2023-08-11 19:55:19.661902,-40.0
2023-08-11 19:55:19.669592,-45.0
2023-08-11 19:55:19.677281,-45.0
2023-08-11 19:55:19.684970,-45.0
2023-08-11 19:55:19.692659,-45.0
2023-08-11 19:55:19.700348,-47.0
2023-08-11 19:55:19.708038,-52.0
2023-08-11 19:55:19.715727,-54.0
2023-08-11 19:55:19.723416,-52.0
2023-08-11 19:55:19.731105,-50.0
2023-08-11 19:55:19.738794,-47.0
2023-08-11 19:55:19.746484,-45.0
2023-08-11 19:55:19.754173,-45.0
2023-08-11 19:55:19.761862,-42.0
2023-08-11 19:55:19.769551,-40.0
2023-08-11 19:55:19.777240,-38.0
2023-08-11 19:55:19.784930,-40.0
2023-08-11 19:55:19.792619,-40.0
2023-08-11 19:55:19.800308,-40.0
2023-08-11 19:55:19.807997,-42.0
2023-08-11 19:55:19.815687,-40.0
2023-08-11 19:55:19.823376,-40.0
2023-08-11 19:55:19.831065,-38.0
2023-08-11 19:55:19.838754,-38.0
2023-08-11 19:55:19.846443,-45.0
2023-08-11 19:55:19.854133,-62.0
2023-08-11 19:55:19.861822,-85.0
2023-08-11 19:55:19.869511,-95.0
2023-08-11 19:55:19.877200,-76.0
2023-08-11 19:55:19.884889,-64.0
2023-08-11 19:55:19.892579,-57.0
2023-08-11 19:55:19.900268,-47.0
2023-08-11 19:55:19.907957,-42.0
2023-08-11 19:55:19.915646,-45.0
2023-08-11 19:55:19.923336,-45.0
2023-08-11 19:55:19.931025,-42.0
2023-08-11 19:55:19.938714,-40.0
2023-08-11 19:55:19.946403,-38.0
2023-08-11 19:55:19.954092,-19.0
2023-08-11 19:55:19.961782,-40.0
2023-08-11 19:55:19.969471,-238.0
2023-08-11 19:55:19.977160,-609.0
2023-08-11 19:55:19.984849,-709.0
2023-08-11 19:55:19.992538,-174.0
2023-08-11 19:55:20.000228,322.0
2023-08-11 19:55:20.007917,148.0
2023-08-11 19:55:20.015606,-76.0
2023-08-11 19:55:20.023295,11.0
2023-08-11 19:55:20.030984,31.0
2023-08-11 19:55:20.038674,-42.0
2023-08-11 19:55:20.046363,-26.0
2023-08-11 19:55:20.054052,-9.0
2023-08-11 19:55:20.061741,-38.0
2023-08-11 19:55:20.069431,-40.0
2023-08-11 19:55:20.077120,-28.0
2023-08-11 19:55:20.084809,-40.0
2023-08-11 19:55:20.092498,-45.0
2023-08-11 19:55:20.100187,-38.0
2023-08-11 19:55:20.107877,-40.0
2023-08-11 19:55:20.115566,-47.0
2023-08-11 19:55:20.123255,-47.0
2023-08-11 19:55:20.130944,-47.0
2023-08-11 19:55:20.138633,-54.0
2023-08-11 19:55:20.146323,-62.0
2023-08-11 19:55:20.154012,-66.0
2023-08-11 19:55:20.161701,-74.0
2023-08-11 19:55:20.169390,-81.0
2023-08-11 19:55:20.177079,-88.0
2023-08-11 19:55:20.184769,-97.0
2023-08-11 19:55:20.192458,-107.0
2023-08-11 19:55:20.200147,-124.0
2023-08-11 19:55:20.207836,-138.0
2023-08-11 19:55:20.215526,-145.0
2023-08-11 19:55:20.223215,-152.0
2023-08-11 19:55:20.230904,-157.0
2023-08-11 19:55:20.238593,-160.0
2023-08-11 19:55:20.246282,-162.0
2023-08-11 19:55:20.253972,-157.0
2023-08-11 19:55:20.261661,-138.0
2023-08-11 19:55:20.269350,-117.0
2023-08-11 19:55:20.277039,-102.0
2023-08-11 19:55:20.284728,-81.0
2023-08-11 19:55:20.292418,-54.0
2023-08-11 19:55:20.300107,-38.0
2023-08-11 19:55:20.307796,-26.0
2023-08-11 19:55:20.315485,-21.0
2023-08-11 19:55:20.323175,-19.0
2023-08-11 19:55:20.330864,-19.0
2023-08-11 19:55:20.338553,-16.0
2023-08-11 19:55:20.346242,-19.0
2023-08-11 19:55:20.353931,-21.0
2023-08-11 19:55:20.361621,-23.0
2023-08-11 19:55:20.369310,-21.0
2023-08-11 19:55:20.376999,-21.0
2023-08-11 19:55:20.384688,-26.0
2023-08-11 19:55:20.392377,-26.0
2023-08-11 19:55:20.400067,-26.0
2023-08-11 19:55:20.407756,-26.0
2023-08-11 19:55:20.415445,-28.0
2023-08-11 19:55:20.423134,-26.0
2023-08-11 19:55:20.430823,-28.0
2023-08-11 19:55:20.438513,-26.0
2023-08-11 19:55:20.446202,-23.0
2023-08-11 19:55:20.453891,-23.0
2023-08-11 19:55:20.461580,-23.0
2023-08-11 19:55:20.469270,-23.0
2023-08-11 19:55:20.476959,-21.0
2023-08-11 19:55:20.484648,-19.0
2023-08-11 19:55:20.492337,-19.0
2023-08-11 19:55:20.500026,-21.0
2023-08-11 19:55:20.507716,-21.0
2023-08-11 19:55:20.515405,-19.0
2023-08-11 19:55:20.523094,-21.0
2023-08-11 19:55:20.530783,-26.0
2023-08-11 19:55:20.538472,-31.0
2023-08-11 19:55:20.546162,-31.0
2023-08-11 19:55:20.553851,-28.0
2023-08-11 19:55:20.561540,-33.0
2023-08-11 19:55:20.569229,-38.0
2023-08-11 19:55:20.576918,-40.0
2023-08-11 19:55:20.584608,-59.0
2023-08-11 19:55:20.592297,-88.0
2023-08-11 19:55:20.599986,-93.0
2023-08-11 19:55:20.607675,-71.0
2023-08-11 19:55:20.615365,-54.0
2023-08-11 19:55:20.623054,-47.0
2023-08-11 19:55:20.630743,-38.0
2023-08-11 19:55:20.638432,-33.0
2023-08-11 19:55:20.646121,-38.0
2023-08-11 19:55:20.653811,-40.0
2023-08-11 19:55:20.661500,-38.0
2023-08-11 19:55:20.669189,-38.0
2023-08-11 19:55:20.676878,-28.0
2023-08-11 19:55:20.684567,-9.0
2023-08-11 19:55:20.692257,-78.0
2023-08-11 19:55:20.699946,-343.0
2023-08-11 19:55:20.707635,-673.0
2023-08-11 19:55:20.715324,-563.0
2023-08-11 19:55:20.723014,54.0
2023-08-11 19:55:20.730703,317.0
2023-08-11 19:55:20.738392,31.0
2023-08-11 19:55:20.746081,-78.0
2023-08-11 19:55:20.753770,26.0
2023-08-11 19:55:20.761460,0.0
2023-08-11 19:55:20.769149,-47.0
2023-08-11 19:55:20.776838,-16.0
2023-08-11 19:55:20.784527,-16.0
2023-08-11 19:55:20.792216,-42.0
2023-08-11 19:55:20.799906,-38.0
2023-08-11 19:55:20.807595,-28.0
2023-08-11 19:55:20.815284,-35.0
2023-08-11 19:55:20.822973,-42.0
2023-08-11 19:55:20.830662,-42.0
2023-08-11 19:55:20.838352,-45.0
2023-08-11 19:55:20.846041,-47.0
2023-08-11 19:55:20.853730,-47.0
2023-08-11 19:55:20.861419,-52.0
2023-08-11 19:55:20.869109,-57.0
2023-08-11 19:55:20.876798,-62.0
2023-08-11 19:55:20.884487,-64.0
2023-08-11 19:55:20.892176,-69.0
2023-08-11 19:55:20.899865,-78.0
2023-08-11 19:55:20.907555,-88.0
2023-08-11 19:55:20.915244,-97.0
2023-08-11 19:55:20.922933,-107.0
2023-08-11 19:55:20.930622,-117.0
2023-08-11 19:55:20.938311,-126.0
2023-08-11 19:55:20.946001,-136.0
2023-08-11 19:55:20.953690,-138.0
2023-08-11 19:55:20.961379,-143.0
2023-08-11 19:55:20.969068,-148.0
2023-08-11 19:55:20.976757,-145.0
2023-08-11 19:55:20.984447,-136.0
2023-08-11 19:55:20.992136,-121.0
2023-08-11 19:55:20.999825,-97.0
2023-08-11 19:55:21.007514,-76.0
2023-08-11 19:55:21.015204,-57.0
2023-08-11 19:55:21.022893,-38.0
2023-08-11 19:55:21.030582,-19.0
2023-08-11 19:55:21.038271,-14.0
2023-08-11 19:55:21.045960,-14.0
2023-08-11 19:55:21.053650,-9.0
2023-08-11 19:55:21.061339,-7.0
2023-08-11 19:55:21.069028,-7.0
2023-08-11 19:55:21.076717,-11.0
2023-08-11 19:55:21.084406,-14.0
2023-08-11 19:55:21.092096,-11.0
2023-08-11 19:55:21.099785,-14.0
2023-08-11 19:55:21.107474,-23.0
2023-08-11 19:55:21.115163,-23.0
2023-08-11 19:55:21.122853,-19.0
2023-08-11 19:55:21.130542,-16.0
2023-08-11 19:55:21.138231,-14.0
2023-08-11 19:55:21.145920,-19.0
2023-08-11 19:55:21.153609,-21.0
2023-08-11 19:55:21.161299,-19.0
2023-08-11 19:55:21.168988,-16.0
2023-08-11 19:55:21.176677,-19.0
2023-08-11 19:55:21.184366,-19.0
2023-08-11 19:55:21.192055,-16.0
2023-08-11 19:55:21.199745,-14.0
2023-08-11 19:55:21.207434,-9.0
2023-08-11 19:55:21.215123,-7.0
2023-08-11 19:55:21.222812,-9.0
2023-08-11 19:55:21.230501,-9.0
2023-08-11 19:55:21.238191,-16.0
2023-08-11 19:55:21.245880,-16.0
2023-08-11 19:55:21.253569,-14.0
2023-08-11 19:55:21.261258,-16.0
2023-08-11 19:55:21.268948,-16.0
2023-08-11 19:55:21.276637,-14.0
2023-08-11 19:55:21.284326,-26.0
2023-08-11 19:55:21.292015,-38.0
2023-08-11 19:55:21.299704,-52.0
2023-08-11 19:55:21.307394,-74.0
2023-08-11 19:55:21.315083,-76.0
2023-08-11 19:55:21.322772,-57.0
2023-08-11 19:55:21.330461,-52.0
2023-08-11 19:55:21.338150,-45.0
2023-08-11 19:55:21.345840,-31.0
2023-08-11 19:55:21.353529,-31.0
2023-08-11 19:55:21.361218,-38.0
2023-08-11 19:55:21.368907,-35.0
2023-08-11 19:55:21.376596,-38.0
2023-08-11 19:55:21.384286,-40.0
2023-08-11 19:55:21.391975,-23.0
2023-08-11 19:55:21.399664,-14.0
2023-08-11 19:55:21.407353,-126.0
2023-08-11 19:55:21.415043,-437.0
2023-08-11 19:55:21.422732,-687.0
2023-08-11 19:55:21.430421,-391.0
2023-08-11 19:55:21.438110,186.0
2023-08-11 19:55:21.445799,257.0
2023-08-11 19:55:21.453489,11.0
2023-08-11 19:55:21.461178,-9.0
2023-08-11 19:55:21.468867,23.0
2023-08-11 19:55:21.476556,-23.0
2023-08-11 19:55:21.484245,-26.0
2023-08-11 19:55:21.491935,0.0
2023-08-11 19:55:21.499624,-14.0
2023-08-11 19:55:21.507313,-33.0
2023-08-11 19:55:21.515002,-31.0
2023-08-11 19:55:21.522692,-28.0
2023-08-11 19:55:21.530381,-35.0
2023-08-11 19:55:21.538070,-42.0
2023-08-11 19:55:21.545759,-45.0
2023-08-11 19:55:21.553448,-42.0
2023-08-11 19:55:21.561138,-47.0
2023-08-11 19:55:21.568827,-54.0
2023-08-11 19:55:21.576516,-59.0
2023-08-11 19:55:21.584205,-57.0
2023-08-11 19:55:21.591894,-64.0
2023-08-11 19:55:21.599584,-74.0
2023-08-11 19:55:21.607273,-81.0
2023-08-11 19:55:21.614962,-85.0
2023-08-11 19:55:21.622651,-90.0
2023-08-11 19:55:21.630340,-97.0
2023-08-11 19:55:21.638030,-107.0
2023-08-11 19:55:21.645719,-119.0
2023-08-11 19:55:21.653408,-128.0
2023-08-11 19:55:21.661097,-136.0
2023-08-11 19:55:21.668787,-140.0
2023-08-11 19:55:21.676476,-140.0
2023-08-11 19:55:21.684165,-143.0
2023-08-11 19:55:21.691854,-145.0
2023-08-11 19:55:21.699543,-138.0
2023-08-11 19:55:21.707233,-121.0
2023-08-11 19:55:21.714922,-105.0
2023-08-11 19:55:21.722611,-76.0
2023-08-11 19:55:21.730300,-52.0
2023-08-11 19:55:21.737989,-35.0
2023-08-11 19:55:21.745679,-21.0
2023-08-11 19:55:21.753368,-11.0
2023-08-11 19:55:21.761057,-9.0
2023-08-11 19:55:21.768746,-9.0
2023-08-11 19:55:21.776435,-9.0
2023-08-11 19:55:21.784125,-11.0
2023-08-11 19:55:21.791814,-9.0
2023-08-11 19:55:21.799503,-14.0
2023-08-11 19:55:21.807192,-23.0
2023-08-11 19:55:21.814882,-21.0
2023-08-11 19:55:21.822571,-21.0
2023-08-11 19:55:21.830260,-26.0
2023-08-11 19:55:21.837949,-28.0
2023-08-11 19:55:21.845638,-28.0
2023-08-11 19:55:21.853328,-33.0
2023-08-11 19:55:21.861017,-35.0
2023-08-11 19:55:21.868706,-31.0
2023-08-11 19:55:21.876395,-31.0
2023-08-11 19:55:21.884084,-31.0
2023-08-11 19:55:21.891774,-28.0
2023-08-11 19:55:21.899463,-26.0
2023-08-11 19:55:21.907152,-28.0
2023-08-11 19:55:21.914841,-33.0
2023-08-11 19:55:21.922530,-31.0
2023-08-11 19:55:21.930220,-26.0
2023-08-11 19:55:21.937909,-28.0
2023-08-11 19:55:21.945598,-28.0
2023-08-11 19:55:21.953287,-28.0
2023-08-11 19:55:21.960977,-33.0
2023-08-11 19:55:21.968666,-40.0
2023-08-11 19:55:21.976355,-45.0
2023-08-11 19:55:21.984044,-54.0
2023-08-11 19:55:21.991733,-78.0
2023-08-11 19:55:21.999423,-95.0
2023-08-11 19:55:22.007112,-88.0
2023-08-11 19:55:22.014801,-69.0
2023-08-11 19:55:22.022490,-52.0
2023-08-11 19:55:22.030179,-38.0
2023-08-11 19:55:22.037869,-35.0
2023-08-11 19:55:22.045558,-45.0
2023-08-11 19:55:22.053247,-50.0
2023-08-11 19:55:22.060936,-50.0
2023-08-11 19:55:22.068626,-50.0
2023-08-11 19:55:22.076315,-47.0
2023-08-11 19:55:22.084004,-31.0
2023-08-11 19:55:22.091693,-26.0
2023-08-11 19:55:22.099382,-157.0
2023-08-11 19:55:22.107072,-492.0
2023-08-11 19:55:22.114761,-735.0
2023-08-11 19:55:22.122450,-389.0
2023-08-11 19:55:22.130139,210.0
2023-08-11 19:55:22.137828,238.0
2023-08-11 19:55:22.145518,-23.0
2023-08-11 19:55:22.153207,-21.0
2023-08-11 19:55:22.160896,21.0
2023-08-11 19:55:22.168585,-33.0
2023-08-11 19:55:22.176274,-38.0
2023-08-11 19:55:22.183964,-16.0
2023-08-11 19:55:22.191653,-33.0
2023-08-11 19:55:22.199342,-45.0
2023-08-11 19:55:22.207031,-35.0
2023-08-11 19:55:22.214721,-38.0
2023-08-11 19:55:22.222410,-47.0
2023-08-11 19:55:22.230099,-47.0
2023-08-11 19:55:22.237788,-47.0
2023-08-11 19:55:22.245477,-54.0
2023-08-11 19:55:22.253167,-59.0
2023-08-11 19:55:22.260856,-62.0
2023-08-11 19:55:22.268545,-66.0
2023-08-11 19:55:22.276234,-71.0
2023-08-11 19:55:22.283923,-76.0
2023-08-11 19:55:22.291613,-81.0
2023-08-11 19:55:22.299302,-83.0
2023-08-11 19:55:22.306991,-93.0
2023-08-11 19:55:22.314680,-102.0
2023-08-11 19:55:22.322369,-112.0
2023-08-11 19:55:22.330059,-121.0
2023-08-11 19:55:22.337748,-128.0
2023-08-11 19:55:22.345437,-136.0
2023-08-11 19:55:22.353126,-143.0
2023-08-11 19:55:22.360816,-148.0
2023-08-11 19:55:22.368505,-148.0
2023-08-11 19:55:22.376194,-148.0
2023-08-11 19:55:22.383883,-143.0
2023-08-11 19:55:22.391572,-133.0
2023-08-11 19:55:22.399262,-119.0
2023-08-11 19:55:22.406951,-97.0
2023-08-11 19:55:22.414640,-74.0
2023-08-11 19:55:22.422329,-50.0
2023-08-11 19:55:22.430018,-33.0
2023-08-11 19:55:22.437708,-21.0
2023-08-11 19:55:22.445397,-21.0
2023-08-11 19:55:22.453086,-28.0
2023-08-11 19:55:22.460775,-26.0
2023-08-11 19:55:22.468465,-21.0
2023-08-11 19:55:22.476154,-23.0
2023-08-11 19:55:22.483843,-31.0
2023-08-11 19:55:22.491532,-33.0
2023-08-11 19:55:22.499221,-35.0
2023-08-11 19:55:22.506911,-40.0
2023-08-11 19:55:22.514600,-40.0
2023-08-11 19:55:22.522289,-38.0
2023-08-11 19:55:22.529978,-38.0
2023-08-11 19:55:22.537667,-45.0
2023-08-11 19:55:22.545357,-47.0
2023-08-11 19:55:22.553046,-50.0
2023-08-11 19:55:22.560735,-52.0
2023-08-11 19:55:22.568424,-50.0
2023-08-11 19:55:22.576113,-45.0
2023-08-11 19:55:22.583803,-47.0
2023-08-11 19:55:22.591492,-45.0
2023-08-11 19:55:22.599181,-40.0
2023-08-11 19:55:22.606870,-38.0
2023-08-11 19:55:22.614560,-38.0
2023-08-11 19:55:22.622249,-35.0
2023-08-11 19:55:22.629938,-33.0
2023-08-11 19:55:22.637627,-33.0
2023-08-11 19:55:22.645316,-33.0
2023-08-11 19:55:22.653006,-31.0
2023-08-11 19:55:22.660695,-33.0
2023-08-11 19:55:22.668384,-38.0
2023-08-11 19:55:22.676073,-38.0
2023-08-11 19:55:22.683762,-38.0
2023-08-11 19:55:22.691452,-45.0
2023-08-11 19:55:22.699141,-54.0
2023-08-11 19:55:22.706830,-81.0
2023-08-11 19:55:22.714519,-95.0
2023-08-11 19:55:22.722208,-78.0
2023-08-11 19:55:22.729898,-59.0
2023-08-11 19:55:22.737587,-52.0
2023-08-11 19:55:22.745276,-42.0
2023-08-11 19:55:22.752965,-35.0
2023-08-11 19:55:22.760655,-42.0
2023-08-11 19:55:22.768344,-47.0
2023-08-11 19:55:22.776033,-45.0
2023-08-11 19:55:22.783722,-42.0
2023-08-11 19:55:22.791411,-40.0
2023-08-11 19:55:22.799101,-21.0
2023-08-11 19:55:22.806790,-38.0
2023-08-11 19:55:22.814479,-224.0
2023-08-11 19:55:22.822168,-589.0
2023-08-11 19:55:22.829857,-735.0
2023-08-11 19:55:22.837547,-241.0
2023-08-11 19:55:22.845236,305.0
2023-08-11 19:55:22.852925,181.0
2023-08-11 19:55:22.860614,-78.0
2023-08-11 19:55:22.868304,-2.0
2023-08-11 19:55:22.875993,38.0
2023-08-11 19:55:22.883682,-31.0
2023-08-11 19:55:22.891371,-23.0
2023-08-11 19:55:22.899060,-2.0
2023-08-11 19:55:22.906750,-31.0
2023-08-11 19:55:22.914439,-38.0
2023-08-11 19:55:22.922128,-28.0
2023-08-11 19:55:22.929817,-31.0
2023-08-11 19:55:22.937506,-38.0
2023-08-11 19:55:22.945196,-38.0
2023-08-11 19:55:22.952885,-42.0
2023-08-11 19:55:22.960574,-45.0
2023-08-11 19:55:22.968263,-45.0
2023-08-11 19:55:22.975952,-50.0
2023-08-11 19:55:22.983642,-57.0
2023-08-11 19:55:22.991331,-64.0
2023-08-11 19:55:22.999020,-71.0
2023-08-11 19:55:23.006709,-78.0
2023-08-11 19:55:23.014399,-85.0
2023-08-11 19:55:23.022088,-90.0
2023-08-11 19:55:23.029777,-102.0
2023-08-11 19:55:23.037466,-121.0
2023-08-11 19:55:23.045155,-136.0
2023-08-11 19:55:23.052845,-145.0
2023-08-11 19:55:23.060534,-157.0
2023-08-11 19:55:23.068223,-167.0
2023-08-11 19:55:23.075912,-171.0
2023-08-11 19:55:23.083601,-171.0
2023-08-11 19:55:23.091291,-174.0
2023-08-11 19:55:23.098980,-167.0
2023-08-11 19:55:23.106669,-150.0
2023-08-11 19:55:23.114358,-128.0
2023-08-11 19:55:23.122047,-112.0
2023-08-11 19:55:23.129737,-88.0
2023-08-11 19:55:23.137426,-64.0
2023-08-11 19:55:23.145115,-47.0
2023-08-11 19:55:23.152804,-35.0
2023-08-11 19:55:23.160494,-28.0
2023-08-11 19:55:23.168183,-23.0
2023-08-11 19:55:23.175872,-26.0
2023-08-11 19:55:23.183561,-28.0
2023-08-11 19:55:23.191250,-23.0
2023-08-11 19:55:23.198940,-23.0
2023-08-11 19:55:23.206629,-26.0
2023-08-11 19:55:23.214318,-31.0
2023-08-11 19:55:23.222007,-33.0
2023-08-11 19:55:23.229696,-38.0
2023-08-11 19:55:23.237386,-35.0
2023-08-11 19:55:23.245075,-35.0
2023-08-11 19:55:23.252764,-38.0
2023-08-11 19:55:23.260453,-35.0
2023-08-11 19:55:23.268143,-33.0
2023-08-11 19:55:23.275832,-38.0
2023-08-11 19:55:23.283521,-38.0
2023-08-11 19:55:23.291210,-33.0
2023-08-11 19:55:23.298899,-31.0
2023-08-11 19:55:23.306589,-33.0
2023-08-11 19:55:23.314278,-33.0
2023-08-11 19:55:23.321967,-31.0
2023-08-11 19:55:23.329656,-26.0
2023-08-11 19:55:23.337345,-23.0
2023-08-11 19:55:23.345035,-23.0
2023-08-11 19:55:23.352724,-26.0
2023-08-11 19:55:23.360413,-26.0
2023-08-11 19:55:23.368102,-23.0
2023-08-11 19:55:23.375791,-26.0
2023-08-11 19:55:23.383481,-26.0
2023-08-11 19:55:23.391170,-28.0
2023-08-11 19:55:23.398859,-28.0
2023-08-11 19:55:23.406548,-31.0
2023-08-11 19:55:23.414238,-33.0
2023-08-11 19:55:23.421927,-42.0
2023-08-11 19:55:23.429616,-62.0
2023-08-11 19:55:23.437305,-85.0
2023-08-11 19:55:23.444994,-85.0
2023-08-11 19:55:23.452684,-64.0
2023-08-11 19:55:23.460373,-52.0
2023-08-11 19:55:23.468062,-45.0
2023-08-11 19:55:23.475751,-35.0
2023-08-11 19:55:23.483440,-38.0
2023-08-11 19:55:23.491130,-40.0
2023-08-11 19:55:23.498819,-40.0
2023-08-11 19:55:23.506508,-40.0
2023-08-11 19:55:23.514197,-40.0
2023-08-11 19:55:23.521886,-28.0
2023-08-11 19:55:23.529576,-14.0
2023-08-11 19:55:23.537265,-83.0
2023-08-11 19:55:23.544954,-351.0
2023-08-11 19:55:23.552643,-685.0
2023-08-11 19:55:23.560333,-563.0
2023-08-11 19:55:23.568022,59.0
2023-08-11 19:55:23.575711,298.0
2023-08-11 19:55:23.583400,7.0
2023-08-11 19:55:23.591089,-81.0
2023-08-11 19:55:23.598779,26.0
2023-08-11 19:55:23.606468,-9.0
2023-08-11 19:55:23.614157,-52.0
2023-08-11 19:55:23.621846,-19.0
2023-08-11 19:55:23.629535,-21.0
2023-08-11 19:55:23.637225,-42.0
2023-08-11 19:55:23.644914,-35.0
2023-08-11 19:55:23.652603,-38.0
2023-08-11 19:55:23.660292,-47.0
2023-08-11 19:55:23.667982,-45.0
2023-08-11 19:55:23.675671,-45.0
2023-08-11 19:55:23.683360,-50.0
2023-08-11 19:55:23.691049,-50.0
2023-08-11 19:55:23.698738,-50.0
2023-08-11 19:55:23.706428,-57.0
2023-08-11 19:55:23.714117,-62.0
2023-08-11 19:55:23.721806,-64.0
2023-08-11 19:55:23.729495,-71.0
2023-08-11 19:55:23.737184,-78.0
2023-08-11 19:55:23.744874,-85.0
2023-08-11 19:55:23.752563,-95.0
2023-08-11 19:55:23.760252,-102.0
2023-08-11 19:55:23.767941,-109.0
2023-08-11 19:55:23.775630,-117.0
2023-08-11 19:55:23.783320,-126.0
2023-08-11 19:55:23.791009,-133.0
2023-08-11 19:55:23.798698,-143.0
2023-08-11 19:55:23.806387,-155.0
2023-08-11 19:55:23.814077,-157.0
2023-08-11 19:55:23.821766,-152.0
2023-08-11 19:55:23.829455,-148.0
2023-08-11 19:55:23.837144,-131.0
2023-08-11 19:55:23.844833,-107.0
2023-08-11 19:55:23.852523,-88.0
2023-08-11 19:55:23.860212,-64.0
2023-08-11 19:55:23.867901,-38.0
2023-08-11 19:55:23.875590,-21.0
2023-08-11 19:55:23.883279,-16.0
2023-08-11 19:55:23.890969,-11.0
2023-08-11 19:55:23.898658,-7.0
2023-08-11 19:55:23.906347,-7.0
2023-08-11 19:55:23.914036,-9.0
2023-08-11 19:55:23.921725,-11.0
2023-08-11 19:55:23.929415,-14.0
2023-08-11 19:55:23.937104,-16.0
2023-08-11 19:55:23.944793,-14.0
2023-08-11 19:55:23.952482,-16.0
2023-08-11 19:55:23.960172,-21.0
2023-08-11 19:55:23.967861,-23.0
2023-08-11 19:55:23.975550,-21.0
2023-08-11 19:55:23.983239,-21.0
2023-08-11 19:55:23.990928,-21.0
2023-08-11 19:55:23.998618,-21.0
2023-08-11 19:55:24.006307,-21.0
2023-08-11 19:55:24.013996,-21.0
2023-08-11 19:55:24.021685,-23.0
2023-08-11 19:55:24.029374,-23.0
2023-08-11 19:55:24.037064,-19.0
2023-08-11 19:55:24.044753,-14.0
2023-08-11 19:55:24.052442,-11.0
2023-08-11 19:55:24.060131,-16.0
2023-08-11 19:55:24.067820,-19.0
2023-08-11 19:55:24.075510,-19.0
2023-08-11 19:55:24.083199,-11.0
2023-08-11 19:55:24.090888,-7.0
2023-08-11 19:55:24.098577,-9.0
2023-08-11 19:55:24.106267,-16.0
2023-08-11 19:55:24.113956,-23.0
2023-08-11 19:55:24.121645,-23.0
2023-08-11 19:55:24.129334,-23.0
2023-08-11 19:55:24.137023,-26.0
2023-08-11 19:55:24.144713,-42.0
2023-08-11 19:55:24.152402,-74.0
2023-08-11 19:55:24.160091,-83.0
2023-08-11 19:55:24.167780,-64.0
2023-08-11 19:55:24.175469,-45.0
2023-08-11 19:55:24.183159,-35.0
2023-08-11 19:55:24.190848,-28.0
2023-08-11 19:55:24.198537,-23.0
2023-08-11 19:55:24.206226,-26.0
2023-08-11 19:55:24.213916,-33.0
2023-08-11 19:55:24.221605,-35.0
2023-08-11 19:55:24.229294,-33.0
2023-08-11 19:55:24.236983,-28.0
2023-08-11 19:55:24.244672,-11.0
2023-08-11 19:55:24.252362,-38.0
2023-08-11 19:55:24.260051,-238.0
2023-08-11 19:55:24.267740,-580.0
2023-08-11 19:55:24.275429,-623.0
2023-08-11 19:55:24.283118,-105.0
2023-08-11 19:55:24.290808,296.0
2023-08-11 19:55:24.298497,138.0
2023-08-11 19:55:24.306186,-26.0
2023-08-11 19:55:24.313875,21.0
2023-08-11 19:55:24.321564,7.0
2023-08-11 19:55:24.329254,-33.0
2023-08-11 19:55:24.336943,-16.0
2023-08-11 19:55:24.344632,-14.0
2023-08-11 19:55:24.352321,-31.0
2023-08-11 19:55:24.360011,-26.0
2023-08-11 19:55:24.367700,-23.0
2023-08-11 19:55:24.375389,-33.0
2023-08-11 19:55:24.383078,-35.0
2023-08-11 19:55:24.390767,-38.0
2023-08-11 19:55:24.398457,-38.0
2023-08-11 19:55:24.406146,-35.0
2023-08-11 19:55:24.413835,-38.0
2023-08-11 19:55:24.421524,-45.0
2023-08-11 19:55:24.429213,-50.0
2023-08-11 19:55:24.436903,-52.0
2023-08-11 19:55:24.444592,-59.0
2023-08-11 19:55:24.452281,-69.0
2023-08-11 19:55:24.459970,-71.0
2023-08-11 19:55:24.467659,-81.0
2023-08-11 19:55:24.475349,-97.0
2023-08-11 19:55:24.483038,-105.0
2023-08-11 19:55:24.490727,-105.0
2023-08-11 19:55:24.498416,-114.0
2023-08-11 19:55:24.506106,-128.0
2023-08-11 19:55:24.513795,-133.0
2023-08-11 19:55:24.521484,-133.0
2023-08-11 19:55:24.529173,-140.0
2023-08-11 19:55:24.536862,-143.0
2023-08-11 19:55:24.544552,-136.0
2023-08-11 19:55:24.552241,-124.0
2023-08-11 19:55:24.559930,-107.0
2023-08-11 19:55:24.567619,-90.0
2023-08-11 19:55:24.575308,-66.0
2023-08-11 19:55:24.582998,-40.0
2023-08-11 19:55:24.590687,-21.0
2023-08-11 19:55:24.598376,-7.0
2023-08-11 19:55:24.606065,-2.0
2023-08-11 19:55:24.613755,-2.0
2023-08-11 19:55:24.621444,0.0
2023-08-11 19:55:24.629133,-2.0
2023-08-11 19:55:24.636822,-2.0
2023-08-11 19:55:24.644511,-2.0
2023-08-11 19:55:24.652201,-2.0
2023-08-11 19:55:24.659890,-11.0
2023-08-11 19:55:24.667579,-16.0
2023-08-11 19:55:24.675268,-16.0
2023-08-11 19:55:24.682957,-19.0
2023-08-11 19:55:24.690647,-26.0
2023-08-11 19:55:24.698336,-26.0
2023-08-11 19:55:24.706025,-26.0
2023-08-11 19:55:24.713714,-28.0
2023-08-11 19:55:24.721403,-26.0
2023-08-11 19:55:24.729093,-23.0
2023-08-11 19:55:24.736782,-21.0
2023-08-11 19:55:24.744471,-28.0
2023-08-11 19:55:24.752160,-33.0
2023-08-11 19:55:24.759850,-26.0
2023-08-11 19:55:24.767539,-21.0
2023-08-11 19:55:24.775228,-26.0
2023-08-11 19:55:24.782917,-26.0
2023-08-11 19:55:24.790606,-23.0
2023-08-11 19:55:24.798296,-26.0
2023-08-11 19:55:24.805985,-23.0
2023-08-11 19:55:24.813674,-21.0
2023-08-11 19:55:24.821363,-28.0
2023-08-11 19:55:24.829052,-50.0
2023-08-11 19:55:24.836742,-78.0
2023-08-11 19:55:24.844431,-90.0
2023-08-11 19:55:24.852120,-76.0
2023-08-11 19:55:24.859809,-54.0
2023-08-11 19:55:24.867498,-38.0
2023-08-11 19:55:24.875188,-33.0
2023-08-11 19:55:24.882877,-33.0
2023-08-11 19:55:24.890566,-33.0
2023-08-11 19:55:24.898255,-33.0
2023-08-11 19:55:24.905945,-35.0
2023-08-11 19:55:24.913634,-38.0
2023-08-11 19:55:24.921323,-33.0
2023-08-11 19:55:24.929012,-16.0
2023-08-11 19:55:24.936701,-64.0
2023-08-11 19:55:24.944391,-308.0
2023-08-11 19:55:24.952080,-659.0
2023-08-11 19:55:24.959769,-613.0
2023-08-11 19:55:24.967458,-23.0
2023-08-11 19:55:24.975147,308.0
2023-08-11 19:55:24.982837,88.0
2023-08-11 19:55:24.990526,-40.0
2023-08-11 19:55:24.998215,21.0
2023-08-11 19:55:25.005904,-2.0
2023-08-11 19:55:25.013594,-45.0
2023-08-11 19:55:25.021283,-26.0
2023-08-11 19:55:25.028972,-23.0
2023-08-11 19:55:25.036661,-35.0
2023-08-11 19:55:25.044350,-35.0
2023-08-11 19:55:25.052040,-33.0
2023-08-11 19:55:25.059729,-35.0
2023-08-11 19:55:25.067418,-40.0
2023-08-11 19:55:25.075107,-47.0
2023-08-11 19:55:25.082796,-47.0
2023-08-11 19:55:25.090486,-45.0
2023-08-11 19:55:25.098175,-50.0
2023-08-11 19:55:25.105864,-57.0
2023-08-11 19:55:25.113553,-59.0
2023-08-11 19:55:25.121242,-64.0
2023-08-11 19:55:25.128932,-71.0
2023-08-11 19:55:25.136621,-78.0
2023-08-11 19:55:25.144310,-85.0
2023-08-11 19:55:25.151999,-93.0
2023-08-11 19:55:25.159689,-100.0
2023-08-11 19:55:25.167378,-109.0
2023-08-11 19:55:25.175067,-119.0
2023-08-11 19:55:25.182756,-128.0
2023-08-11 19:55:25.190445,-136.0
2023-08-11 19:55:25.198135,-140.0
2023-08-11 19:55:25.205824,-145.0
2023-08-11 19:55:25.213513,-148.0
2023-08-11 19:55:25.221202,-145.0
2023-08-11 19:55:25.228891,-138.0
2023-08-11 19:55:25.236581,-121.0
2023-08-11 19:55:25.244270,-100.0
2023-08-11 19:55:25.251959,-83.0
2023-08-11 19:55:25.259648,-64.0
2023-08-11 19:55:25.267337,-35.0
2023-08-11 19:55:25.275027,-21.0
2023-08-11 19:55:25.282716,-23.0
2023-08-11 19:55:25.290405,-23.0
2023-08-11 19:55:25.298094,-21.0
2023-08-11 19:55:25.305784,-21.0
2023-08-11 19:55:25.313473,-19.0
2023-08-11 19:55:25.321162,-16.0
2023-08-11 19:55:25.328851,-23.0
2023-08-11 19:55:25.336540,-33.0
2023-08-11 19:55:25.344230,-35.0
2023-08-11 19:55:25.351919,-35.0
2023-08-11 19:55:25.359608,-35.0
2023-08-11 19:55:25.367297,-38.0
2023-08-11 19:55:25.374986,-47.0
2023-08-11 19:55:25.382676,-54.0
2023-08-11 19:55:25.390365,-52.0
2023-08-11 19:55:25.398054,-47.0
2023-08-11 19:55:25.405743,-42.0
2023-08-11 19:55:25.413433,-40.0
2023-08-11 19:55:25.421122,-45.0
2023-08-11 19:55:25.428811,-42.0
2023-08-11 19:55:25.436500,-35.0
2023-08-11 19:55:25.444189,-35.0
2023-08-11 19:55:25.451879,-40.0
2023-08-11 19:55:25.459568,-38.0
2023-08-11 19:55:25.467257,-35.0
2023-08-11 19:55:25.474946,-35.0
2023-08-11 19:55:25.482635,-35.0
2023-08-11 19:55:25.490325,-31.0
2023-08-11 19:55:25.498014,-33.0
2023-08-11 19:55:25.505703,-33.0
2023-08-11 19:55:25.513392,-31.0
2023-08-11 19:55:25.521081,-38.0
2023-08-11 19:55:25.528771,-42.0
2023-08-11 19:55:25.536460,-59.0
2023-08-11 19:55:25.544149,-88.0
2023-08-11 19:55:25.551838,-90.0
2023-08-11 19:55:25.559528,-69.0
2023-08-11 19:55:25.567217,-52.0
2023-08-11 19:55:25.574906,-42.0
2023-08-11 19:55:25.582595,-33.0
2023-08-11 19:55:25.590284,-33.0
2023-08-11 19:55:25.597974,-38.0
2023-08-11 19:55:25.605663,-40.0
2023-08-11 19:55:25.613352,-40.0
2023-08-11 19:55:25.621041,-40.0
2023-08-11 19:55:25.628730,-23.0
2023-08-11 19:55:25.636420,-16.0
2023-08-11 19:55:25.644109,-150.0
2023-08-11 19:55:25.651798,-494.0
2023-08-11 19:55:25.659487,-752.0
2023-08-11 19:55:25.667176,-406.0
2023-08-11 19:55:25.674866,224.0
2023-08-11 19:55:25.682555,253.0
2023-08-11 19:55:25.690244,-38.0
2023-08-11 19:55:25.697933,-28.0
2023-08-11 19:55:25.705623,38.0
2023-08-11 19:55:25.713312,-19.0
2023-08-11 19:55:25.721001,-33.0
2023-08-11 19:55:25.728690,-7.0
2023-08-11 19:55:25.736379,-26.0
2023-08-11 19:55:25.744069,-38.0
2023-08-11 19:55:25.751758,-26.0
2023-08-11 19:55:25.759447,-28.0
2023-08-11 19:55:25.767136,-38.0
2023-08-11 19:55:25.774825,-38.0
2023-08-11 19:55:25.782515,-38.0
2023-08-11 19:55:25.790204,-38.0
2023-08-11 19:55:25.797893,-40.0
2023-08-11 19:55:25.805582,-47.0
2023-08-11 19:55:25.813272,-54.0
2023-08-11 19:55:25.820961,-62.0
2023-08-11 19:55:25.828650,-74.0
2023-08-11 19:55:25.836339,-83.0
2023-08-11 19:55:25.844028,-90.0
2023-08-11 19:55:25.851718,-100.0
2023-08-11 19:55:25.859407,-107.0
2023-08-11 19:55:25.867096,-121.0
2023-08-11 19:55:25.874785,-138.0
2023-08-11 19:55:25.882474,-148.0
2023-08-11 19:55:25.890164,-150.0
2023-08-11 19:55:25.897853,-157.0
2023-08-11 19:55:25.905542,-162.0
2023-08-11 19:55:25.913231,-164.0
2023-08-11 19:55:25.920920,-167.0
2023-08-11 19:55:25.928610,-160.0
2023-08-11 19:55:25.936299,-148.0
2023-08-11 19:55:25.943988,-133.0
2023-08-11 19:55:25.951677,-112.0
2023-08-11 19:55:25.959367,-88.0
2023-08-11 19:55:25.967056,-64.0
2023-08-11 19:55:25.974745,-45.0
2023-08-11 19:55:25.982434,-31.0
2023-08-11 19:55:25.990123,-26.0
2023-08-11 19:55:25.997813,-21.0
2023-08-11 19:55:26.005502,-21.0
2023-08-11 19:55:26.013191,-21.0
2023-08-11 19:55:26.020880,-19.0
2023-08-11 19:55:26.028569,-19.0
2023-08-11 19:55:26.036259,-21.0
2023-08-11 19:55:26.043948,-23.0
2023-08-11 19:55:26.051637,-23.0
2023-08-11 19:55:26.059326,-23.0
2023-08-11 19:55:26.067015,-26.0
2023-08-11 19:55:26.074705,-23.0
2023-08-11 19:55:26.082394,-26.0
2023-08-11 19:55:26.090083,-28.0
2023-08-11 19:55:26.097772,-28.0
2023-08-11 19:55:26.105462,-28.0
2023-08-11 19:55:26.113151,-26.0
2023-08-11 19:55:26.120840,-23.0
2023-08-11 19:55:26.128529,-21.0
2023-08-11 19:55:26.136218,-21.0
2023-08-11 19:55:26.143908,-21.0
2023-08-11 19:55:26.151597,-19.0
2023-08-11 19:55:26.159286,-14.0
2023-08-11 19:55:26.166975,-11.0
2023-08-11 19:55:26.174664,-11.0
2023-08-11 19:55:26.182354,-11.0
2023-08-11 19:55:26.190043,-11.0
2023-08-11 19:55:26.197732,-11.0
2023-08-11 19:55:26.205421,-9.0
2023-08-11 19:55:26.213110,-9.0
2023-08-11 19:55:26.220800,-9.0
2023-08-11 19:55:26.228489,-9.0
2023-08-11 19:55:26.236178,-14.0
2023-08-11 19:55:26.243867,-16.0
2023-08-11 19:55:26.251557,-31.0
2023-08-11 19:55:26.259246,-57.0
2023-08-11 19:55:26.266935,-71.0
2023-08-11 19:55:26.274624,-59.0
2023-08-11 19:55:26.282313,-38.0
2023-08-11 19:55:26.290003,-26.0
2023-08-11 19:55:26.297692,-16.0
2023-08-11 19:55:26.305381,-16.0
2023-08-11 19:55:26.313070,-19.0
2023-08-11 19:55:26.320759,-21.0
2023-08-11 19:55:26.328449,-26.0
2023-08-11 19:55:26.336138,-31.0
2023-08-11 19:55:26.343827,-23.0
2023-08-11 19:55:26.351516,-4.0
2023-08-11 19:55:26.359206,-59.0
2023-08-11 19:55:26.366895,-312.0
2023-08-11 19:55:26.374584,-664.0
2023-08-11 19:55:26.382273,-604.0
2023-08-11 19:55:26.389962,16.0
2023-08-11 19:55:26.397652,343.0
2023-08-11 19:55:26.405341,66.0
2023-08-11 19:55:26.413030,-78.0
2023-08-11 19:55:26.420719,33.0
2023-08-11 19:55:26.428408,16.0
2023-08-11 19:55:26.436098,-40.0
2023-08-11 19:55:26.443787,-11.0
2023-08-11 19:55:26.451476,-9.0
2023-08-11 19:55:26.459165,-38.0
2023-08-11 19:55:26.466854,-33.0
2023-08-11 19:55:26.474544,-23.0
2023-08-11 19:55:26.482233,-33.0
2023-08-11 19:55:26.489922,-35.0
2023-08-11 19:55:26.497611,-33.0
2023-08-11 19:55:26.505301,-38.0
2023-08-11 19:55:26.512990,-40.0
2023-08-11 19:55:26.520679,-40.0
2023-08-11 19:55:26.528368,-45.0
2023-08-11 19:55:26.536057,-50.0
2023-08-11 19:55:26.543747,-54.0
2023-08-11 19:55:26.551436,-62.0
2023-08-11 19:55:26.559125,-66.0
2023-08-11 19:55:26.566814,-71.0
2023-08-11 19:55:26.574503,-81.0
2023-08-11 19:55:26.582193,-88.0
2023-08-11 19:55:26.589882,-95.0
2023-08-11 19:55:26.597571,-107.0
2023-08-11 19:55:26.605260,-117.0
2023-08-11 19:55:26.612949,-126.0
2023-08-11 19:55:26.620639,-131.0
2023-08-11 19:55:26.628328,-136.0
2023-08-11 19:55:26.636017,-140.0
2023-08-11 19:55:26.643706,-140.0
2023-08-11 19:55:26.651396,-128.0
2023-08-11 19:55:26.659085,-112.0
2023-08-11 19:55:26.666774,-95.0
2023-08-11 19:55:26.674463,-74.0
2023-08-11 19:55:26.682152,-52.0
2023-08-11 19:55:26.689842,-31.0
2023-08-11 19:55:26.697531,-11.0
2023-08-11 19:55:26.705220,-2.0
2023-08-11 19:55:26.712909,0.0
2023-08-11 19:55:26.720598,2.0
2023-08-11 19:55:26.728288,0.0
2023-08-11 19:55:26.735977,-2.0
2023-08-11 19:55:26.743666,2.0
2023-08-11 19:55:26.751355,2.0
2023-08-11 19:55:26.759045,-2.0
2023-08-11 19:55:26.766734,0.0
2023-08-11 19:55:26.774423,2.0
2023-08-11 19:55:26.782112,0.0
2023-08-11 19:55:26.789801,-2.0
2023-08-11 19:55:26.797491,-4.0
2023-08-11 19:55:26.805180,-4.0
2023-08-11 19:55:26.812869,-4.0
2023-08-11 19:55:26.820558,-4.0
2023-08-11 19:55:26.828247,-9.0
2023-08-11 19:55:26.835937,-7.0
2023-08-11 19:55:26.843626,-7.0
2023-08-11 19:55:26.851315,-9.0
2023-08-11 19:55:26.859004,-7.0
2023-08-11 19:55:26.866693,-7.0
2023-08-11 19:55:26.874383,-7.0
2023-08-11 19:55:26.882072,-4.0
2023-08-11 19:55:26.889761,-7.0
2023-08-11 19:55:26.897450,-4.0
2023-08-11 19:55:26.905140,2.0
2023-08-11 19:55:26.912829,0.0
2023-08-11 19:55:26.920518,-9.0
2023-08-11 19:55:26.928207,-11.0
2023-08-11 19:55:26.935896,-2.0
2023-08-11 19:55:26.943586,2.0
2023-08-11 19:55:26.951275,-4.0
2023-08-11 19:55:26.958964,-11.0
2023-08-11 19:55:26.966653,-19.0
2023-08-11 19:55:26.974342,-40.0
2023-08-11 19:55:26.982032,-62.0
2023-08-11 19:55:26.989721,-59.0
2023-08-11 19:55:26.997410,-45.0
2023-08-11 19:55:27.005099,-33.0
2023-08-11 19:55:27.012788,-21.0
2023-08-11 19:55:27.020478,-14.0
2023-08-11 19:55:27.028167,-14.0
2023-08-11 19:55:27.035856,-16.0
2023-08-11 19:55:27.043545,-21.0
2023-08-11 19:55:27.051235,-23.0
2023-08-11 19:55:27.058924,-21.0
2023-08-11 19:55:27.066613,2.0
2023-08-11 19:55:27.074302,-23.0
2023-08-11 19:55:27.081991,-231.0
2023-08-11 19:55:27.089681,-582.0
2023-08-11 19:55:27.097370,-635.0
2023-08-11 19:55:27.105059,-112.0
2023-08-11 19:55:27.112748,315.0
2023-08-11 19:55:27.120437,152.0
2023-08-11 19:55:27.128127,-33.0
2023-08-11 19:55:27.135816,26.0
2023-08-11 19:55:27.143505,26.0
2023-08-11 19:55:27.151194,-19.0
2023-08-11 19:55:27.158884,-2.0
2023-08-11 19:55:27.166573,4.0
2023-08-11 19:55:27.174262,-16.0
2023-08-11 19:55:27.181951,-19.0
2023-08-11 19:55:27.189640,-16.0
2023-08-11 19:55:27.197330,-23.0
2023-08-11 19:55:27.205019,-31.0
2023-08-11 19:55:27.212708,-26.0
2023-08-11 19:55:27.220397,-28.0
2023-08-11 19:55:27.228086,-35.0
2023-08-11 19:55:27.235776,-38.0
2023-08-11 19:55:27.243465,-38.0
2023-08-11 19:55:27.251154,-42.0
2023-08-11 19:55:27.258843,-50.0
2023-08-11 19:55:27.266532,-54.0
2023-08-11 19:55:27.274222,-59.0
2023-08-11 19:55:27.281911,-66.0
2023-08-11 19:55:27.289600,-76.0
2023-08-11 19:55:27.297289,-81.0
2023-08-11 19:55:27.304979,-90.0
2023-08-11 19:55:27.312668,-102.0
2023-08-11 19:55:27.320357,-109.0
2023-08-11 19:55:27.328046,-119.0
2023-08-11 19:55:27.335735,-126.0
2023-08-11 19:55:27.343425,-128.0
2023-08-11 19:55:27.351114,-140.0
2023-08-11 19:55:27.358803,-148.0
2023-08-11 19:55:27.366492,-136.0
2023-08-11 19:55:27.374181,-117.0
2023-08-11 19:55:27.381871,-100.0
2023-08-11 19:55:27.389560,-76.0
2023-08-11 19:55:27.397249,-54.0
2023-08-11 19:55:27.404938,-35.0
2023-08-11 19:55:27.412627,-19.0
2023-08-11 19:55:27.420317,-9.0
2023-08-11 19:55:27.428006,-7.0
2023-08-11 19:55:27.435695,2.0
2023-08-11 19:55:27.443384,4.0
2023-08-11 19:55:27.451074,0.0
2023-08-11 19:55:27.458763,-2.0
2023-08-11 19:55:27.466452,-7.0
2023-08-11 19:55:27.474141,-9.0
2023-08-11 19:55:27.481830,-11.0
2023-08-11 19:55:27.489520,-23.0
2023-08-11 19:55:27.497209,-33.0
2023-08-11 19:55:27.504898,-31.0
2023-08-11 19:55:27.512587,-31.0
2023-08-11 19:55:27.520276,-33.0
2023-08-11 19:55:27.527966,-31.0
2023-08-11 19:55:27.535655,-31.0
2023-08-11 19:55:27.543344,-31.0
2023-08-11 19:55:27.551033,-28.0
2023-08-11 19:55:27.558723,-28.0
2023-08-11 19:55:27.566412,-23.0
2023-08-11 19:55:27.574101,-19.0
2023-08-11 19:55:27.581790,-21.0
2023-08-11 19:55:27.589479,-21.0
2023-08-11 19:55:27.597169,-19.0
2023-08-11 19:55:27.604858,-16.0
2023-08-11 19:55:27.612547,-16.0
2023-08-11 19:55:27.620236,-16.0
2023-08-11 19:55:27.627925,-14.0
2023-08-11 19:55:27.635615,-19.0
2023-08-11 19:55:27.643304,-35.0
2023-08-11 19:55:27.650993,-62.0
2023-08-11 19:55:27.658682,-71.0
2023-08-11 19:55:27.666371,-57.0
2023-08-11 19:55:27.674061,-35.0
2023-08-11 19:55:27.681750,-23.0
2023-08-11 19:55:27.689439,-21.0
2023-08-11 19:55:27.697128,-26.0
2023-08-11 19:55:27.704818,-28.0
2023-08-11 19:55:27.712507,-26.0
2023-08-11 19:55:27.720196,-23.0
2023-08-11 19:55:27.727885,-23.0
2023-08-11 19:55:27.735574,-7.0
2023-08-11 19:55:27.743264,-2.0
2023-08-11 19:55:27.750953,-148.0
2023-08-11 19:55:27.758642,-501.0
2023-08-11 19:55:27.766331,-730.0
2023-08-11 19:55:27.774020,-343.0
2023-08-11 19:55:27.781710,248.0
2023-08-11 19:55:27.789399,241.0
2023-08-11 19:55:27.797088,-11.0
2023-08-11 19:55:27.804777,-2.0
2023-08-11 19:55:27.812466,28.0
2023-08-11 19:55:27.820156,-23.0
2023-08-11 19:55:27.827845,-21.0
2023-08-11 19:55:27.835534,-7.0
2023-08-11 19:55:27.843223,-26.0
2023-08-11 19:55:27.850913,-33.0
2023-08-11 19:55:27.858602,-31.0
2023-08-11 19:55:27.866291,-42.0
2023-08-11 19:55:27.873980,-50.0
2023-08-11 19:55:27.881669,-45.0
2023-08-11 19:55:27.889359,-45.0
2023-08-11 19:55:27.897048,-54.0
2023-08-11 19:55:27.904737,-59.0
2023-08-11 19:55:27.912426,-62.0
2023-08-11 19:55:27.920115,-66.0
2023-08-11 19:55:27.927805,-71.0
2023-08-11 19:55:27.935494,-76.0
2023-08-11 19:55:27.943183,-85.0
2023-08-11 19:55:27.950872,-90.0
2023-08-11 19:55:27.958562,-97.0
2023-08-11 19:55:27.966251,-107.0
2023-08-11 19:55:27.973940,-117.0
2023-08-11 19:55:27.981629,-124.0
2023-08-11 19:55:27.989318,-136.0
2023-08-11 19:55:27.997008,-145.0
2023-08-11 19:55:28.004697,-145.0
2023-08-11 19:55:28.012386,-148.0
2023-08-11 19:55:28.020075,-155.0
2023-08-11 19:55:28.027764,-162.0
2023-08-11 19:55:28.035454,-160.0
2023-08-11 19:55:28.043143,-145.0
2023-08-11 19:55:28.050832,-124.0
2023-08-11 19:55:28.058521,-102.0
2023-08-11 19:55:28.066210,-78.0
2023-08-11 19:55:28.073900,-57.0
2023-08-11 19:55:28.081589,-38.0
2023-08-11 19:55:28.089278,-28.0
2023-08-11 19:55:28.096967,-21.0
2023-08-11 19:55:28.104657,-16.0
2023-08-11 19:55:28.112346,-16.0
2023-08-11 19:55:28.120035,-21.0
2023-08-11 19:55:28.127724,-19.0
2023-08-11 19:55:28.135413,-19.0
2023-08-11 19:55:28.143103,-21.0
2023-08-11 19:55:28.150792,-28.0
2023-08-11 19:55:28.158481,-35.0
2023-08-11 19:55:28.166170,-40.0
2023-08-11 19:55:28.173859,-40.0
2023-08-11 19:55:28.181549,-40.0
2023-08-11 19:55:28.189238,-42.0
2023-08-11 19:55:28.196927,-42.0
2023-08-11 19:55:28.204616,-40.0
2023-08-11 19:55:28.212305,-42.0
2023-08-11 19:55:28.219995,-45.0
2023-08-11 19:55:28.227684,-40.0
2023-08-11 19:55:28.235373,-33.0
2023-08-11 19:55:28.243062,-28.0
2023-08-11 19:55:28.250752,-28.0
2023-08-11 19:55:28.258441,-31.0
2023-08-11 19:55:28.266130,-28.0
2023-08-11 19:55:28.273819,-26.0
2023-08-11 19:55:28.281508,-23.0
2023-08-11 19:55:28.289198,-21.0
2023-08-11 19:55:28.296887,-23.0
2023-08-11 19:55:28.304576,-26.0
2023-08-11 19:55:28.312265,-23.0
2023-08-11 19:55:28.319954,-38.0
2023-08-11 19:55:28.327644,-66.0
2023-08-11 19:55:28.335333,-76.0
2023-08-11 19:55:28.343022,-62.0
2023-08-11 19:55:28.350711,-47.0
2023-08-11 19:55:28.358400,-35.0
2023-08-11 19:55:28.366090,-31.0
2023-08-11 19:55:28.373779,-33.0
2023-08-11 19:55:28.381468,-33.0
2023-08-11 19:55:28.389157,-33.0
2023-08-11 19:55:28.396847,-40.0
2023-08-11 19:55:28.404536,-40.0
2023-08-11 19:55:28.412225,-23.0
2023-08-11 19:55:28.419914,-11.0
2023-08-11 19:55:28.427603,-102.0
2023-08-11 19:55:28.435293,-403.0
2023-08-11 19:55:28.442982,-738.0
2023-08-11 19:55:28.450671,-554.0
2023-08-11 19:55:28.458360,102.0
2023-08-11 19:55:28.466049,305.0
2023-08-11 19:55:28.473739,16.0
2023-08-11 19:55:28.481428,-54.0
2023-08-11 19:55:28.489117,31.0
2023-08-11 19:55:28.496806,-7.0
2023-08-11 19:55:28.504496,-42.0
2023-08-11 19:55:28.512185,-16.0
2023-08-11 19:55:28.519874,-21.0
2023-08-11 19:55:28.527563,-38.0
2023-08-11 19:55:28.535252,-35.0
2023-08-11 19:55:28.542942,-35.0
2023-08-11 19:55:28.550631,-40.0
2023-08-11 19:55:28.558320,-40.0
2023-08-11 19:55:28.566009,-42.0
2023-08-11 19:55:28.573698,-47.0
2023-08-11 19:55:28.581388,-52.0
2023-08-11 19:55:28.589077,-54.0
2023-08-11 19:55:28.596766,-57.0
2023-08-11 19:55:28.604455,-59.0
2023-08-11 19:55:28.612144,-66.0
2023-08-11 19:55:28.619834,-78.0
2023-08-11 19:55:28.627523,-83.0
2023-08-11 19:55:28.635212,-90.0
2023-08-11 19:55:28.642901,-102.0
2023-08-11 19:55:28.650591,-109.0
2023-08-11 19:55:28.658280,-126.0
2023-08-11 19:55:28.665969,-148.0
2023-08-11 19:55:28.673658,-155.0
2023-08-11 19:55:28.681347,-157.0
2023-08-11 19:55:28.689037,-162.0
2023-08-11 19:55:28.696726,-164.0
2023-08-11 19:55:28.704415,-167.0
2023-08-11 19:55:28.712104,-164.0
2023-08-11 19:55:28.719793,-150.0
2023-08-11 19:55:28.727483,-131.0
2023-08-11 19:55:28.735172,-109.0
2023-08-11 19:55:28.742861,-88.0
2023-08-11 19:55:28.750550,-64.0
2023-08-11 19:55:28.758239,-45.0
2023-08-11 19:55:28.765929,-33.0
2023-08-11 19:55:28.773618,-23.0
2023-08-11 19:55:28.781307,-19.0
2023-08-11 19:55:28.788996,-21.0
2023-08-11 19:55:28.796686,-21.0
2023-08-11 19:55:28.804375,-19.0
2023-08-11 19:55:28.812064,-21.0
2023-08-11 19:55:28.819753,-21.0
2023-08-11 19:55:28.827442,-21.0
2023-08-11 19:55:28.835132,-26.0
2023-08-11 19:55:28.842821,-26.0
2023-08-11 19:55:28.850510,-23.0
2023-08-11 19:55:28.858199,-31.0
2023-08-11 19:55:28.865888,-38.0
2023-08-11 19:55:28.873578,-40.0
2023-08-11 19:55:28.881267,-40.0
2023-08-11 19:55:28.888956,-42.0
2023-08-11 19:55:28.896645,-45.0
2023-08-11 19:55:28.904335,-42.0
2023-08-11 19:55:28.912024,-38.0
2023-08-11 19:55:28.919713,-35.0
2023-08-11 19:55:28.927402,-38.0
2023-08-11 19:55:28.935091,-35.0
2023-08-11 19:55:28.942781,-31.0
2023-08-11 19:55:28.950470,-31.0
2023-08-11 19:55:28.958159,-31.0
2023-08-11 19:55:28.965848,-28.0
2023-08-11 19:55:28.973537,-28.0
2023-08-11 19:55:28.981227,-28.0
2023-08-11 19:55:28.988916,-26.0
2023-08-11 19:55:28.996605,-23.0
2023-08-11 19:55:29.004294,-23.0
2023-08-11 19:55:29.011983,-26.0
2023-08-11 19:55:29.019673,-47.0
2023-08-11 19:55:29.027362,-76.0
2023-08-11 19:55:29.035051,-78.0
2023-08-11 19:55:29.042740,-59.0
2023-08-11 19:55:29.050430,-42.0
2023-08-11 19:55:29.058119,-31.0
2023-08-11 19:55:29.065808,-23.0
2023-08-11 19:55:29.073497,-26.0
2023-08-11 19:55:29.081186,-28.0
2023-08-11 19:55:29.088876,-28.0
2023-08-11 19:55:29.096565,-26.0
2023-08-11 19:55:29.104254,-26.0
2023-08-11 19:55:29.111943,-14.0
2023-08-11 19:55:29.119632,2.0
2023-08-11 19:55:29.127322,-95.0
2023-08-11 19:55:29.135011,-406.0
2023-08-11 19:55:29.142700,-728.0
2023-08-11 19:55:29.150389,-508.0
2023-08-11 19:55:29.158078,148.0
2023-08-11 19:55:29.165768,303.0
2023-08-11 19:55:29.173457,-9.0
2023-08-11 19:55:29.181146,-54.0
2023-08-11 19:55:29.188835,47.0
2023-08-11 19:55:29.196525,-7.0
2023-08-11 19:55:29.204214,-50.0
2023-08-11 19:55:29.211903,-19.0
2023-08-11 19:55:29.219592,-26.0
2023-08-11 19:55:29.227281,-45.0
2023-08-11 19:55:29.234971,-40.0
2023-08-11 19:55:29.242660,-38.0
2023-08-11 19:55:29.250349,-45.0
2023-08-11 19:55:29.258038,-47.0
2023-08-11 19:55:29.265727,-47.0
2023-08-11 19:55:29.273417,-47.0
2023-08-11 19:55:29.281106,-47.0
2023-08-11 19:55:29.288795,-54.0
2023-08-11 19:55:29.296484,-59.0
2023-08-11 19:55:29.304174,-62.0
2023-08-11 19:55:29.311863,-69.0
2023-08-11 19:55:29.319552,-74.0
2023-08-11 19:55:29.327241,-81.0
2023-08-11 19:55:29.334930,-85.0
2023-08-11 19:55:29.342620,-95.0
2023-08-11 19:55:29.350309,-107.0
2023-08-11 19:55:29.357998,-117.0
2023-08-11 19:55:29.365687,-124.0
2023-08-11 19:55:29.373376,-136.0
2023-08-11 19:55:29.381066,-150.0
2023-08-11 19:55:29.388755,-160.0
2023-08-11 19:55:29.396444,-162.0
2023-08-11 19:55:29.404133,-162.0
2023-08-11 19:55:29.411822,-162.0
2023-08-11 19:55:29.419512,-150.0
2023-08-11 19:55:29.427201,-133.0
2023-08-11 19:55:29.434890,-109.0
2023-08-11 19:55:29.442579,-85.0
2023-08-11 19:55:29.450269,-66.0
2023-08-11 19:55:29.457958,-50.0
2023-08-11 19:55:29.465647,-38.0
2023-08-11 19:55:29.473336,-28.0
2023-08-11 19:55:29.481025,-23.0
2023-08-11 19:55:29.488715,-21.0
2023-08-11 19:55:29.496404,-21.0
2023-08-11 19:55:29.504093,-21.0
2023-08-11 19:55:29.511782,-23.0
2023-08-11 19:55:29.519471,-26.0
2023-08-11 19:55:29.527161,-26.0
2023-08-11 19:55:29.534850,-28.0
2023-08-11 19:55:29.542539,-31.0
2023-08-11 19:55:29.550228,-31.0
2023-08-11 19:55:29.557917,-28.0
2023-08-11 19:55:29.565607,-28.0
2023-08-11 19:55:29.573296,-28.0
2023-08-11 19:55:29.580985,-28.0
2023-08-11 19:55:29.588674,-28.0
2023-08-11 19:55:29.596364,-28.0
2023-08-11 19:55:29.604053,-31.0
2023-08-11 19:55:29.611742,-28.0
2023-08-11 19:55:29.619431,-26.0
2023-08-11 19:55:29.627120,-26.0
2023-08-11 19:55:29.634810,-28.0
2023-08-11 19:55:29.642499,-31.0
2023-08-11 19:55:29.650188,-31.0
2023-08-11 19:55:29.657877,-28.0
2023-08-11 19:55:29.665566,-23.0
2023-08-11 19:55:29.673256,-23.0
2023-08-11 19:55:29.680945,-26.0
2023-08-11 19:55:29.688634,-26.0
2023-08-11 19:55:29.696323,-21.0
2023-08-11 19:55:29.704013,-21.0
2023-08-11 19:55:29.711702,-23.0
2023-08-11 19:55:29.719391,-26.0
2023-08-11 19:55:29.727080,-42.0
2023-08-11 19:55:29.734769,-76.0
2023-08-11 19:55:29.742459,-88.0
2023-08-11 19:55:29.750148,-69.0
2023-08-11 19:55:29.757837,-47.0
2023-08-11 19:55:29.765526,-40.0
2023-08-11 19:55:29.773215,-33.0
2023-08-11 19:55:29.780905,-31.0
2023-08-11 19:55:29.788594,-33.0
2023-08-11 19:55:29.796283,-31.0
2023-08-11 19:55:29.803972,-31.0
2023-08-11 19:55:29.811661,-33.0
2023-08-11 19:55:29.819351,-19.0
2023-08-11 19:55:29.827040,-4.0
2023-08-11 19:55:29.834729,-93.0
2023-08-11 19:55:29.842418,-379.0
2023-08-11 19:55:29.850108,-690.0
2023-08-11 19:55:29.857797,-499.0
2023-08-11 19:55:29.865486,124.0
2023-08-11 19:55:29.873175,293.0
2023-08-11 19:55:29.880864,-2.0
2023-08-11 19:55:29.888554,-62.0
2023-08-11 19:55:29.896243,33.0
2023-08-11 19:55:29.903932,-7.0
2023-08-11 19:55:29.911621,-40.0
2023-08-11 19:55:29.919310,-19.0
2023-08-11 19:55:29.927000,-28.0
2023-08-11 19:55:29.934689,-42.0
2023-08-11 19:55:29.942378,-33.0
2023-08-11 19:55:29.950067,-31.0
2023-08-11 19:55:29.957756,-42.0
2023-08-11 19:55:29.965446,-47.0
2023-08-11 19:55:29.973135,-47.0
2023-08-11 19:55:29.980824,-45.0
2023-08-11 19:55:29.988513,-42.0
2023-08-11 19:55:29.996203,-47.0
2023-08-11 19:55:30.003892,-54.0
2023-08-11 19:55:30.011581,-59.0
2023-08-11 19:55:30.019270,-62.0
2023-08-11 19:55:30.026959,-69.0
2023-08-11 19:55:30.034649,-76.0
2023-08-11 19:55:30.042338,-83.0
2023-08-11 19:55:30.050027,-93.0
2023-08-11 19:55:30.057716,-102.0
2023-08-11 19:55:30.065405,-114.0
2023-08-11 19:55:30.073095,-124.0
2023-08-11 19:55:30.080784,-128.0
2023-08-11 19:55:30.088473,-133.0
2023-08-11 19:55:30.096162,-143.0
2023-08-11 19:55:30.103852,-148.0
2023-08-11 19:55:30.111541,-152.0
2023-08-11 19:55:30.119230,-152.0
2023-08-11 19:55:30.126919,-143.0
2023-08-11 19:55:30.134608,-126.0
2023-08-11 19:55:30.142298,-107.0
2023-08-11 19:55:30.149987,-83.0
2023-08-11 19:55:30.157676,-54.0
2023-08-11 19:55:30.165365,-35.0
2023-08-11 19:55:30.173054,-26.0
2023-08-11 19:55:30.180744,-14.0
2023-08-11 19:55:30.188433,-9.0
2023-08-11 19:55:30.196122,-11.0
2023-08-11 19:55:30.203811,-11.0
2023-08-11 19:55:30.211500,-9.0
2023-08-11 19:55:30.219190,-9.0
2023-08-11 19:55:30.226879,-14.0
2023-08-11 19:55:30.234568,-19.0
2023-08-11 19:55:30.242257,-23.0
2023-08-11 19:55:30.249947,-21.0
2023-08-11 19:55:30.257636,-19.0
2023-08-11 19:55:30.265325,-21.0
2023-08-11 19:55:30.273014,-21.0
2023-08-11 19:55:30.280703,-21.0
2023-08-11 19:55:30.288393,-26.0
2023-08-11 19:55:30.296082,-23.0
2023-08-11 19:55:30.303771,-19.0
2023-08-11 19:55:30.311460,-19.0
2023-08-11 19:55:30.319149,-21.0
2023-08-11 19:55:30.326839,-28.0
2023-08-11 19:55:30.334528,-31.0
2023-08-11 19:55:30.342217,-26.0
2023-08-11 19:55:30.349906,-23.0
2023-08-11 19:55:30.357595,-23.0
2023-08-11 19:55:30.365285,-23.0
2023-08-11 19:55:30.372974,-26.0
2023-08-11 19:55:30.380663,-26.0
2023-08-11 19:55:30.388352,-26.0
2023-08-11 19:55:30.396042,-31.0
2023-08-11 19:55:30.403731,-45.0
2023-08-11 19:55:30.411420,-71.0
2023-08-11 19:55:30.419109,-83.0
2023-08-11 19:55:30.426798,-69.0
2023-08-11 19:55:30.434488,-45.0
2023-08-11 19:55:30.442177,-28.0
2023-08-11 19:55:30.449866,-19.0
2023-08-11 19:55:30.457555,-23.0
2023-08-11 19:55:30.465244,-26.0
2023-08-11 19:55:30.472934,-21.0
2023-08-11 19:55:30.480623,-21.0
2023-08-11 19:55:30.488312,-23.0
2023-08-11 19:55:30.496001,-11.0
2023-08-11 19:55:30.503690,0.0
2023-08-11 19:55:30.511380,-100.0
2023-08-11 19:55:30.519069,-408.0
2023-08-11 19:55:30.526758,-687.0
2023-08-11 19:55:30.534447,-425.0
2023-08-11 19:55:30.542137,176.0
2023-08-11 19:55:30.549826,281.0
2023-08-11 19:55:30.557515,31.0
2023-08-11 19:55:30.565204,-4.0
2023-08-11 19:55:30.572893,33.0
2023-08-11 19:55:30.580583,-11.0
2023-08-11 19:55:30.588272,-21.0
2023-08-11 19:55:30.595961,-7.0
2023-08-11 19:55:30.603650,-26.0
2023-08-11 19:55:30.611339,-33.0
2023-08-11 19:55:30.619029,-26.0
2023-08-11 19:55:30.626718,-33.0
2023-08-11 19:55:30.634407,-40.0
2023-08-11 19:55:30.642096,-40.0
2023-08-11 19:55:30.649786,-42.0
2023-08-11 19:55:30.657475,-45.0
2023-08-11 19:55:30.665164,-45.0
2023-08-11 19:55:30.672853,-47.0
2023-08-11 19:55:30.680542,-54.0
2023-08-11 19:55:30.688232,-57.0
2023-08-11 19:55:30.695921,-59.0
2023-08-11 19:55:30.703610,-62.0
2023-08-11 19:55:30.711299,-71.0
2023-08-11 19:55:30.718988,-83.0
2023-08-11 19:55:30.726678,-85.0
2023-08-11 19:55:30.734367,-90.0
2023-08-11 19:55:30.742056,-105.0
2023-08-11 19:55:30.749745,-114.0
2023-08-11 19:55:30.757434,-119.0
2023-08-11 19:55:30.765124,-124.0
2023-08-11 19:55:30.772813,-133.0
2023-08-11 19:55:30.780502,-136.0
2023-08-11 19:55:30.788191,-131.0
2023-08-11 19:55:30.795881,-128.0
2023-08-11 19:55:30.803570,-126.0
2023-08-11 19:55:30.811259,-105.0
2023-08-11 19:55:30.818948,-78.0
2023-08-11 19:55:30.826637,-62.0
2023-08-11 19:55:30.834327,-38.0
2023-08-11 19:55:30.842016,-16.0
2023-08-11 19:55:30.849705,-4.0
2023-08-11 19:55:30.857394,4.0
2023-08-11 19:55:30.865083,11.0
2023-08-11 19:55:30.872773,7.0
2023-08-11 19:55:30.880462,0.0
2023-08-11 19:55:30.888151,2.0
2023-08-11 19:55:30.895840,0.0
2023-08-11 19:55:30.903529,-7.0
2023-08-11 19:55:30.911219,-19.0
2023-08-11 19:55:30.918908,-28.0
2023-08-11 19:55:30.926597,-31.0
2023-08-11 19:55:30.934286,-31.0
2023-08-11 19:55:30.941976,-31.0
2023-08-11 19:55:30.949665,-31.0
2023-08-11 19:55:30.957354,-28.0
2023-08-11 19:55:30.965043,-31.0
2023-08-11 19:55:30.972732,-31.0
2023-08-11 19:55:30.980422,-28.0
2023-08-11 19:55:30.988111,-23.0
2023-08-11 19:55:30.995800,-16.0
2023-08-11 19:55:31.003489,-9.0
2023-08-11 19:55:31.011178,-9.0
2023-08-11 19:55:31.018868,-14.0
2023-08-11 19:55:31.026557,-16.0
2023-08-11 19:55:31.034246,-9.0
2023-08-11 19:55:31.041935,-7.0
2023-08-11 19:55:31.049625,-19.0
2023-08-11 19:55:31.057314,-38.0
2023-08-11 19:55:31.065003,-52.0
2023-08-11 19:55:31.072692,-54.0
2023-08-11 19:55:31.080381,-35.0
2023-08-11 19:55:31.088071,-7.0
2023-08-11 19:55:31.095760,-2.0
2023-08-11 19:55:31.103449,-11.0
2023-08-11 19:55:31.111138,-9.0
2023-08-11 19:55:31.118827,-4.0
2023-08-11 19:55:31.126517,-9.0
2023-08-11 19:55:31.134206,-11.0
2023-08-11 19:55:31.141895,4.0
2023-08-11 19:55:31.149584,28.0
2023-08-11 19:55:31.157273,-26.0
2023-08-11 19:55:31.164963,-286.0
2023-08-11 19:55:31.172652,-690.0
2023-08-11 19:55:31.180341,-702.0
2023-08-11 19:55:31.188030,-57.0
2023-08-11 19:55:31.195720,384.0
2023-08-11 19:55:31.203409,162.0
2023-08-11 19:55:31.211098,-4.0
2023-08-11 19:55:31.218787,74.0
2023-08-11 19:55:31.226476,42.0
2023-08-11 19:55:31.234166,-14.0
2023-08-11 19:55:31.241855,14.0
2023-08-11 19:55:31.249544,14.0
2023-08-11 19:55:31.257233,-9.0
2023-08-11 19:55:31.264922,-7.0
2023-08-11 19:55:31.272612,-4.0
2023-08-11 19:55:31.280301,-16.0
2023-08-11 19:55:31.287990,-16.0
2023-08-11 19:55:31.295679,-16.0
2023-08-11 19:55:31.303368,-21.0
2023-08-11 19:55:31.311058,-21.0
2023-08-11 19:55:31.318747,-19.0
2023-08-11 19:55:31.326436,-28.0
2023-08-11 19:55:31.334125,-40.0
2023-08-11 19:55:31.341815,-42.0
2023-08-11 19:55:31.349504,-47.0
2023-08-11 19:55:31.357193,-54.0
2023-08-11 19:55:31.364882,-64.0
2023-08-11 19:55:31.372571,-74.0
2023-08-11 19:55:31.380261,-78.0
2023-08-11 19:55:31.387950,-88.0
2023-08-11 19:55:31.395639,-109.0
2023-08-11 19:55:31.403328,-128.0
2023-08-11 19:55:31.411017,-140.0
2023-08-11 19:55:31.418707,-138.0
2023-08-11 19:55:31.426396,-131.0
2023-08-11 19:55:31.434085,-138.0
2023-08-11 19:55:31.441774,-133.0
2023-08-11 19:55:31.449464,-117.0
2023-08-11 19:55:31.457153,-100.0
2023-08-11 19:55:31.464842,-81.0
2023-08-11 19:55:31.472531,-59.0
2023-08-11 19:55:31.480220,-31.0
2023-08-11 19:55:31.487910,-2.0
2023-08-11 19:55:31.495599,7.0
2023-08-11 19:55:31.503288,9.0
2023-08-11 19:55:31.510977,11.0
2023-08-11 19:55:31.518666,19.0
2023-08-11 19:55:31.526356,28.0
2023-08-11 19:55:31.534045,33.0
2023-08-11 19:55:31.541734,21.0
2023-08-11 19:55:31.549423,9.0
2023-08-11 19:55:31.557112,14.0
2023-08-11 19:55:31.564802,26.0
2023-08-11 19:55:31.572491,19.0
2023-08-11 19:55:31.580180,-2.0
2023-08-11 19:55:31.587869,0.0
2023-08-11 19:55:31.595559,7.0
2023-08-11 19:55:31.603248,-9.0
2023-08-11 19:55:31.610937,-14.0
2023-08-11 19:55:31.618626,4.0
2023-08-11 19:55:31.626315,4.0
2023-08-11 19:55:31.634005,-9.0
2023-08-11 19:55:31.641694,-7.0
2023-08-11 19:55:31.649383,11.0
2023-08-11 19:55:31.657072,26.0
2023-08-11 19:55:31.664761,4.0
2023-08-11 19:55:31.672451,-11.0
2023-08-11 19:55:31.680140,-19.0
2023-08-11 19:55:31.687829,-28.0
2023-08-11 19:55:31.695518,-16.0
2023-08-11 19:55:31.703207,11.0
2023-08-11 19:55:31.710897,23.0
2023-08-11 19:55:31.718586,16.0
2023-08-11 19:55:31.726275,19.0
2023-08-11 19:55:31.733964,26.0
2023-08-11 19:55:31.741654,23.0
2023-08-11 19:55:31.749343,21.0
2023-08-11 19:55:31.757032,31.0
2023-08-11 19:55:31.764721,54.0
2023-08-11 19:55:31.772410,19.0
2023-08-11 19:55:31.780100,-265.0
2023-08-11 19:55:31.787789,-759.0
2023-08-11 19:55:31.795478,-792.0
2023-08-11 19:55:31.803167,-45.0
2023-08-11 19:55:31.810856,475.0
2023-08-11 19:55:31.818546,217.0
2023-08-11 19:55:31.826235,21.0
2023-08-11 19:55:31.833924,114.0
2023-08-11 19:55:31.841613,76.0
2023-08-11 19:55:31.849303,4.0
2023-08-11 19:55:31.856992,45.0
2023-08-11 19:55:31.864681,54.0
2023-08-11 19:55:31.872370,19.0
2023-08-11 19:55:31.880059,23.0
2023-08-11 19:55:31.887749,28.0
2023-08-11 19:55:31.895438,9.0
2023-08-11 19:55:31.903127,-2.0
2023-08-11 19:55:31.910816,7.0
2023-08-11 19:55:31.918505,11.0
2023-08-11 19:55:31.926195,-7.0
2023-08-11 19:55:31.933884,-23.0
2023-08-11 19:55:31.941573,-26.0
2023-08-11 19:55:31.949262,-28.0
2023-08-11 19:55:31.956951,-28.0
2023-08-11 19:55:31.964641,-31.0
2023-08-11 19:55:31.972330,-52.0
2023-08-11 19:55:31.980019,-71.0
2023-08-11 19:55:31.987708,-74.0
2023-08-11 19:55:31.995398,-88.0
2023-08-11 19:55:32.003087,-105.0
2023-08-11 19:55:32.010776,-109.0
2023-08-11 19:55:32.018465,-121.0
2023-08-11 19:55:32.026154,-136.0
2023-08-11 19:55:32.033844,-138.0
2023-08-11 19:55:32.041533,-145.0
2023-08-11 19:55:32.049222,-145.0
2023-08-11 19:55:32.056911,-128.0
2023-08-11 19:55:32.064600,-107.0
2023-08-11 19:55:32.072290,-81.0
2023-08-11 19:55:32.079979,-57.0
2023-08-11 19:55:32.087668,-38.0
2023-08-11 19:55:32.095357,-19.0
2023-08-11 19:55:32.103046,-4.0
2023-08-11 19:55:32.110736,2.0
2023-08-11 19:55:32.118425,4.0
2023-08-11 19:55:32.126114,4.0
2023-08-11 19:55:32.133803,4.0
2023-08-11 19:55:32.141493,2.0
2023-08-11 19:55:32.149182,2.0
2023-08-11 19:55:32.156871,0.0
2023-08-11 19:55:32.164560,-9.0
2023-08-11 19:55:32.172249,-14.0
2023-08-11 19:55:32.179939,-16.0
2023-08-11 19:55:32.187628,-21.0
2023-08-11 19:55:32.195317,-26.0
2023-08-11 19:55:32.203006,-28.0
2023-08-11 19:55:32.210695,-33.0
2023-08-11 19:55:32.218385,-35.0
2023-08-11 19:55:32.226074,-35.0
2023-08-11 19:55:32.233763,-42.0
2023-08-11 19:55:32.241452,-42.0
2023-08-11 19:55:32.249142,-33.0
2023-08-11 19:55:32.256831,-26.0
2023-08-11 19:55:32.264520,-40.0
2023-08-11 19:55:32.272209,-54.0
2023-08-11 19:55:32.279898,-52.0
2023-08-11 19:55:32.287588,-64.0
2023-08-11 19:55:32.295277,-69.0
2023-08-11 19:55:32.302966,-42.0
2023-08-11 19:55:32.310655,-21.0
2023-08-11 19:55:32.318344,-23.0
2023-08-11 19:55:32.326034,-31.0
2023-08-11 19:55:32.333723,-31.0
2023-08-11 19:55:32.341412,-31.0
2023-08-11 19:55:32.349101,-35.0
2023-08-11 19:55:32.356790,-21.0
2023-08-11 19:55:32.364480,9.0
2023-08-11 19:55:32.372169,-69.0
2023-08-11 19:55:32.379858,-427.0
2023-08-11 19:55:32.387547,-886.0
2023-08-11 19:55:32.395237,-742.0
2023-08-11 19:55:32.402926,69.0
2023-08-11 19:55:32.410615,413.0
2023-08-11 19:55:32.418304,71.0
2023-08-11 19:55:32.425993,-45.0
2023-08-11 19:55:32.433683,64.0
2023-08-11 19:55:32.441372,14.0
2023-08-11 19:55:32.449061,-33.0
2023-08-11 19:55:32.456750,7.0
2023-08-11 19:55:32.464439,0.0
2023-08-11 19:55:32.472129,-26.0
2023-08-11 19:55:32.479818,-16.0
2023-08-11 19:55:32.487507,-14.0
2023-08-11 19:55:32.495196,-26.0
2023-08-11 19:55:32.502885,-26.0
2023-08-11 19:55:32.510575,-21.0
2023-08-11 19:55:32.518264,-28.0
2023-08-11 19:55:32.525953,-40.0
2023-08-11 19:55:32.533642,-40.0
2023-08-11 19:55:32.541332,-40.0
2023-08-11 19:55:32.549021,-52.0
2023-08-11 19:55:32.556710,-59.0
2023-08-11 19:55:32.564399,-62.0
2023-08-11 19:55:32.572088,-74.0
2023-08-11 19:55:32.579778,-95.0
2023-08-11 19:55:32.587467,-107.0
2023-08-11 19:55:32.595156,-114.0
2023-08-11 19:55:32.602845,-126.0
2023-08-11 19:55:32.610534,-138.0
2023-08-11 19:55:32.618224,-155.0
2023-08-11 19:55:32.625913,-167.0
2023-08-11 19:55:32.633602,-164.0
2023-08-11 19:55:32.641291,-164.0
2023-08-11 19:55:32.648980,-162.0
2023-08-11 19:55:32.656670,-145.0
2023-08-11 19:55:32.664359,-133.0
2023-08-11 19:55:32.672048,-117.0
2023-08-11 19:55:32.679737,-90.0
2023-08-11 19:55:32.687427,-64.0
2023-08-11 19:55:32.695116,-47.0
2023-08-11 19:55:32.702805,-35.0
2023-08-11 19:55:32.710494,-26.0
2023-08-11 19:55:32.718183,-26.0
2023-08-11 19:55:32.725873,-26.0
2023-08-11 19:55:32.733562,-26.0
2023-08-11 19:55:32.741251,-21.0
2023-08-11 19:55:32.748940,-23.0
2023-08-11 19:55:32.756629,-28.0
2023-08-11 19:55:32.764319,-28.0
2023-08-11 19:55:32.772008,-26.0
2023-08-11 19:55:32.779697,-28.0
2023-08-11 19:55:32.787386,-33.0
2023-08-11 19:55:32.795076,-35.0
2023-08-11 19:55:32.802765,-38.0
2023-08-11 19:55:32.810454,-38.0
2023-08-11 19:55:32.818143,-35.0
2023-08-11 19:55:32.825832,-40.0
2023-08-11 19:55:32.833522,-40.0
2023-08-11 19:55:32.841211,-35.0
2023-08-11 19:55:32.848900,-38.0
2023-08-11 19:55:32.856589,-40.0
2023-08-11 19:55:32.864278,-33.0
2023-08-11 19:55:32.871968,-31.0
2023-08-11 19:55:32.879657,-26.0
2023-08-11 19:55:32.887346,-33.0
2023-08-11 19:55:32.895035,-57.0
2023-08-11 19:55:32.902724,-78.0
2023-08-11 19:55:32.910414,-71.0
2023-08-11 19:55:32.918103,-42.0
2023-08-11 19:55:32.925792,-28.0
2023-08-11 19:55:32.933481,-33.0
2023-08-11 19:55:32.941171,-28.0
2023-08-11 19:55:32.948860,-23.0
2023-08-11 19:55:32.956549,-26.0
2023-08-11 19:55:32.964238,-28.0
2023-08-11 19:55:32.971927,-21.0
2023-08-11 19:55:32.979617,2.0
2023-08-11 19:55:32.987306,-14.0
2023-08-11 19:55:32.994995,-250.0
2023-08-11 19:55:33.002684,-730.0
2023-08-11 19:55:33.010373,-910.0
2023-08-11 19:55:33.018063,-255.0
2023-08-11 19:55:33.025752,425.0
2023-08-11 19:55:33.033441,224.0
2023-08-11 19:55:33.041130,-81.0
2023-08-11 19:55:33.048819,42.0
2023-08-11 19:55:33.056509,81.0
2023-08-11 19:55:33.064198,-16.0
2023-08-11 19:55:33.071887,2.0
2023-08-11 19:55:33.079576,26.0
2023-08-11 19:55:33.087266,-9.0
2023-08-11 19:55:33.094955,-14.0
2023-08-11 19:55:33.102644,0.0
2023-08-11 19:55:33.110333,-11.0
2023-08-11 19:55:33.118022,-26.0
2023-08-11 19:55:33.125712,-26.0
2023-08-11 19:55:33.133401,-26.0
2023-08-11 19:55:33.141090,-31.0
2023-08-11 19:55:33.148779,-35.0
2023-08-11 19:55:33.156468,-38.0
2023-08-11 19:55:33.164158,-42.0
2023-08-11 19:55:33.171847,-50.0
2023-08-11 19:55:33.179536,-57.0
2023-08-11 19:55:33.187225,-66.0
2023-08-11 19:55:33.194915,-74.0
2023-08-11 19:55:33.202604,-83.0
2023-08-11 19:55:33.210293,-95.0
2023-08-11 19:55:33.217982,-107.0
2023-08-11 19:55:33.225671,-117.0
2023-08-11 19:55:33.233361,-126.0
2023-08-11 19:55:33.241050,-138.0
2023-08-11 19:55:33.248739,-145.0
2023-08-11 19:55:33.256428,-150.0
2023-08-11 19:55:33.264117,-150.0
2023-08-11 19:55:33.271807,-143.0
2023-08-11 19:55:33.279496,-126.0
2023-08-11 19:55:33.287185,-107.0
2023-08-11 19:55:33.294874,-85.0
2023-08-11 19:55:33.302563,-62.0
2023-08-11 19:55:33.310253,-38.0
2023-08-11 19:55:33.317942,-19.0
2023-08-11 19:55:33.325631,-9.0
2023-08-11 19:55:33.333320,-9.0
2023-08-11 19:55:33.341010,-14.0
2023-08-11 19:55:33.348699,-14.0
2023-08-11 19:55:33.356388,-14.0
2023-08-11 19:55:33.364077,-16.0
2023-08-11 19:55:33.371766,-19.0
2023-08-11 19:55:33.379456,-19.0
2023-08-11 19:55:33.387145,-21.0
2023-08-11 19:55:33.394834,-26.0
2023-08-11 19:55:33.402523,-28.0
2023-08-11 19:55:33.410212,-35.0
2023-08-11 19:55:33.417902,-40.0
2023-08-11 19:55:33.425591,-40.0
2023-08-11 19:55:33.433280,-38.0
2023-08-11 19:55:33.440969,-40.0
2023-08-11 19:55:33.448658,-40.0
2023-08-11 19:55:33.456348,-38.0
2023-08-11 19:55:33.464037,-35.0
2023-08-11 19:55:33.471726,-38.0
2023-08-11 19:55:33.479415,-38.0
2023-08-11 19:55:33.487105,-35.0
2023-08-11 19:55:33.494794,-33.0
2023-08-11 19:55:33.502483,-31.0
2023-08-11 19:55:33.510172,-33.0
2023-08-11 19:55:33.517861,-35.0
2023-08-11 19:55:33.525551,-28.0
2023-08-11 19:55:33.533240,-21.0
2023-08-11 19:55:33.540929,-23.0
2023-08-11 19:55:33.548618,-35.0
2023-08-11 19:55:33.556307,-57.0
2023-08-11 19:55:33.563997,-76.0
2023-08-11 19:55:33.571686,-78.0
2023-08-11 19:55:33.579375,-62.0
2023-08-11 19:55:33.587064,-38.0
2023-08-11 19:55:33.594754,-28.0
2023-08-11 19:55:33.602443,-31.0
2023-08-11 19:55:33.610132,-28.0
2023-08-11 19:55:33.617821,-26.0
2023-08-11 19:55:33.625510,-28.0
2023-08-11 19:55:33.633200,-33.0
2023-08-11 19:55:33.640889,-21.0
2023-08-11 19:55:33.648578,0.0
2023-08-11 19:55:33.656267,-45.0
2023-08-11 19:55:33.663956,-303.0
2023-08-11 19:55:33.671646,-735.0
2023-08-11 19:55:33.679335,-792.0
2023-08-11 19:55:33.687024,-124.0
2023-08-11 19:55:33.694713,382.0
2023-08-11 19:55:33.702402,119.0
2023-08-11 19:55:33.710092,-102.0
2023-08-11 19:55:33.717781,28.0
2023-08-11 19:55:33.725470,33.0
2023-08-11 19:55:33.733159,-42.0
2023-08-11 19:55:33.740849,-16.0
2023-08-11 19:55:33.748538,-2.0
2023-08-11 19:55:33.756227,-33.0
2023-08-11 19:55:33.763916,-31.0
2023-08-11 19:55:33.771605,-21.0
2023-08-11 19:55:33.779295,-31.0
2023-08-11 19:55:33.786984,-35.0
2023-08-11 19:55:33.794673,-35.0
2023-08-11 19:55:33.802362,-38.0
2023-08-11 19:55:33.810051,-42.0
2023-08-11 19:55:33.817741,-45.0
2023-08-11 19:55:33.825430,-50.0
2023-08-11 19:55:33.833119,-54.0
2023-08-11 19:55:33.840808,-62.0
2023-08-11 19:55:33.848497,-64.0
2023-08-11 19:55:33.856187,-71.0
2023-08-11 19:55:33.863876,-78.0
2023-08-11 19:55:33.871565,-90.0
2023-08-11 19:55:33.879254,-102.0
2023-08-11 19:55:33.886944,-114.0
2023-08-11 19:55:33.894633,-124.0
2023-08-11 19:55:33.902322,-138.0
2023-08-11 19:55:33.910011,-152.0
2023-08-11 19:55:33.917700,-157.0
2023-08-11 19:55:33.925390,-164.0
2023-08-11 19:55:33.933079,-169.0
2023-08-11 19:55:33.940768,-167.0
2023-08-11 19:55:33.948457,-152.0
2023-08-11 19:55:33.956146,-133.0
2023-08-11 19:55:33.963836,-109.0
2023-08-11 19:55:33.971525,-85.0
2023-08-11 19:55:33.979214,-66.0
2023-08-11 19:55:33.986903,-47.0
2023-08-11 19:55:33.994593,-33.0
2023-08-11 19:55:34.002282,-28.0
2023-08-11 19:55:34.009971,-28.0
2023-08-11 19:55:34.017660,-31.0
2023-08-11 19:55:34.025349,-33.0
2023-08-11 19:55:34.033039,-33.0
2023-08-11 19:55:34.040728,-33.0
2023-08-11 19:55:34.048417,-33.0
2023-08-11 19:55:34.056106,-35.0
2023-08-11 19:55:34.063795,-35.0
2023-08-11 19:55:34.071485,-42.0
2023-08-11 19:55:34.079174,-45.0
2023-08-11 19:55:34.086863,-42.0
2023-08-11 19:55:34.094552,-42.0
2023-08-11 19:55:34.102241,-40.0
2023-08-11 19:55:34.109931,-40.0
2023-08-11 19:55:34.117620,-42.0
2023-08-11 19:55:34.125309,-45.0
2023-08-11 19:55:34.132998,-45.0
2023-08-11 19:55:34.140688,-42.0
2023-08-11 19:55:34.148377,-40.0
2023-08-11 19:55:34.156066,-40.0
2023-08-11 19:55:34.163755,-40.0
2023-08-11 19:55:34.171444,-40.0
2023-08-11 19:55:34.179134,-35.0
2023-08-11 19:55:34.186823,-33.0
2023-08-11 19:55:34.194512,-33.0
2023-08-11 19:55:34.202201,-35.0
2023-08-11 19:55:34.209890,-35.0
2023-08-11 19:55:34.217580,-33.0
2023-08-11 19:55:34.225269,-31.0
2023-08-11 19:55:34.232958,-31.0
2023-08-11 19:55:34.240647,-35.0
2023-08-11 19:55:34.248336,-42.0
2023-08-11 19:55:34.256026,-42.0
2023-08-11 19:55:34.263715,-38.0
2023-08-11 19:55:34.271404,-35.0
2023-08-11 19:55:34.279093,-42.0
2023-08-11 19:55:34.286783,-54.0
2023-08-11 19:55:34.294472,-76.0
2023-08-11 19:55:34.302161,-100.0
2023-08-11 19:55:34.309850,-105.0
2023-08-11 19:55:34.317539,-90.0
2023-08-11 19:55:34.325229,-74.0
2023-08-11 19:55:34.332918,-64.0
2023-08-11 19:55:34.340607,-57.0
2023-08-11 19:55:34.348296,-54.0
2023-08-11 19:55:34.355985,-52.0
2023-08-11 19:55:34.363675,-50.0
2023-08-11 19:55:34.371364,-54.0
2023-08-11 19:55:34.379053,-62.0
2023-08-11 19:55:34.386742,-47.0
2023-08-11 19:55:34.394432,-33.0
2023-08-11 19:55:34.402121,-138.0
2023-08-11 19:55:34.409810,-463.0
2023-08-11 19:55:34.417499,-766.0
2023-08-11 19:55:34.425188,-496.0
2023-08-11 19:55:34.432878,167.0
2023-08-11 19:55:34.440567,277.0
2023-08-11 19:55:34.448256,-40.0
2023-08-11 19:55:34.455945,-62.0
2023-08-11 19:55:34.463634,31.0
2023-08-11 19:55:34.471324,-23.0
2023-08-11 19:55:34.479013,-50.0
2023-08-11 19:55:34.486702,-16.0
2023-08-11 19:55:34.494391,-26.0
2023-08-11 19:55:34.502080,-42.0
2023-08-11 19:55:34.509770,-35.0
2023-08-11 19:55:34.517459,-38.0
2023-08-11 19:55:34.525148,-42.0
2023-08-11 19:55:34.532837,-40.0
2023-08-11 19:55:34.540527,-42.0
2023-08-11 19:55:34.548216,-45.0
2023-08-11 19:55:34.555905,-47.0
2023-08-11 19:55:34.563594,-50.0
2023-08-11 19:55:34.571283,-57.0
2023-08-11 19:55:34.578973,-62.0
2023-08-11 19:55:34.586662,-66.0
2023-08-11 19:55:34.594351,-71.0
2023-08-11 19:55:34.602040,-78.0
2023-08-11 19:55:34.609729,-88.0
2023-08-11 19:55:34.617419,-95.0
2023-08-11 19:55:34.625108,-102.0
2023-08-11 19:55:34.632797,-109.0
2023-08-11 19:55:34.640486,-121.0
2023-08-11 19:55:34.648175,-133.0
2023-08-11 19:55:34.655865,-140.0
2023-08-11 19:55:34.663554,-148.0
2023-08-11 19:55:34.671243,-155.0
2023-08-11 19:55:34.678932,-160.0
2023-08-11 19:55:34.686622,-160.0
2023-08-11 19:55:34.694311,-152.0
2023-08-11 19:55:34.702000,-136.0
2023-08-11 19:55:34.709689,-117.0
2023-08-11 19:55:34.717378,-95.0
2023-08-11 19:55:34.725068,-74.0
2023-08-11 19:55:34.732757,-57.0
2023-08-11 19:55:34.740446,-45.0
2023-08-11 19:55:34.748135,-33.0
2023-08-11 19:55:34.755824,-28.0
2023-08-11 19:55:34.763514,-28.0
2023-08-11 19:55:34.771203,-28.0
2023-08-11 19:55:34.778892,-35.0
2023-08-11 19:55:34.786581,-45.0
2023-08-11 19:55:34.794270,-45.0
2023-08-11 19:55:34.801960,-47.0
2023-08-11 19:55:34.809649,-52.0
2023-08-11 19:55:34.817338,-50.0
2023-08-11 19:55:34.825027,-47.0
2023-08-11 19:55:34.832717,-47.0
2023-08-11 19:55:34.840406,-50.0
2023-08-11 19:55:34.848095,-47.0
2023-08-11 19:55:34.855784,-45.0
2023-08-11 19:55:34.863473,-47.0
2023-08-11 19:55:34.871163,-47.0
2023-08-11 19:55:34.878852,-45.0
2023-08-11 19:55:34.886541,-40.0
2023-08-11 19:55:34.894230,-38.0
2023-08-11 19:55:34.901919,-38.0
2023-08-11 19:55:34.909609,-35.0
2023-08-11 19:55:34.917298,-38.0
2023-08-11 19:55:34.924987,-40.0
2023-08-11 19:55:34.932676,-35.0
2023-08-11 19:55:34.940366,-35.0
2023-08-11 19:55:34.948055,-35.0
2023-08-11 19:55:34.955744,-33.0
2023-08-11 19:55:34.963433,-35.0
2023-08-11 19:55:34.971122,-33.0
2023-08-11 19:55:34.978812,-28.0
2023-08-11 19:55:34.986501,-28.0
2023-08-11 19:55:34.994190,-31.0
2023-08-11 19:55:35.001879,-33.0
2023-08-11 19:55:35.009568,-31.0
2023-08-11 19:55:35.017258,-31.0
2023-08-11 19:55:35.024947,-31.0
2023-08-11 19:55:35.032636,-31.0
2023-08-11 19:55:35.040325,-33.0
2023-08-11 19:55:35.048014,-42.0
2023-08-11 19:55:35.055704,-71.0
2023-08-11 19:55:35.063393,-90.0
2023-08-11 19:55:35.071082,-83.0
2023-08-11 19:55:35.078771,-62.0
2023-08-11 19:55:35.086461,-45.0
2023-08-11 19:55:35.094150,-35.0
2023-08-11 19:55:35.101839,-31.0
2023-08-11 19:55:35.109528,-31.0
2023-08-11 19:55:35.117217,-28.0
2023-08-11 19:55:35.124907,-28.0
2023-08-11 19:55:35.132596,-31.0
2023-08-11 19:55:35.140285,-28.0
2023-08-11 19:55:35.147974,-9.0
2023-08-11 19:55:35.155663,-28.0
2023-08-11 19:55:35.163353,-207.0
2023-08-11 19:55:35.171042,-549.0
2023-08-11 19:55:35.178731,-654.0
2023-08-11 19:55:35.186420,-160.0
2023-08-11 19:55:35.194109,324.0
2023-08-11 19:55:35.201799,162.0
2023-08-11 19:55:35.209488,-71.0
2023-08-11 19:55:35.217177,11.0
2023-08-11 19:55:35.224866,38.0
2023-08-11 19:55:35.232556,-33.0
2023-08-11 19:55:35.240245,-21.0
2023-08-11 19:55:35.247934,0.0
2023-08-11 19:55:35.255623,-26.0
2023-08-11 19:55:35.263312,-33.0
2023-08-11 19:55:35.271002,-26.0
2023-08-11 19:55:35.278691,-35.0
2023-08-11 19:55:35.286380,-45.0
2023-08-11 19:55:35.294069,-47.0
2023-08-11 19:55:35.301758,-50.0
2023-08-11 19:55:35.309448,-52.0
2023-08-11 19:55:35.317137,-57.0
2023-08-11 19:55:35.324826,-64.0
2023-08-11 19:55:35.332515,-66.0
2023-08-11 19:55:35.340205,-69.0
2023-08-11 19:55:35.347894,-74.0
2023-08-11 19:55:35.355583,-81.0
2023-08-11 19:55:35.363272,-93.0
2023-08-11 19:55:35.370961,-105.0
2023-08-11 19:55:35.378651,-109.0
2023-08-11 19:55:35.386340,-114.0
2023-08-11 19:55:35.394029,-121.0
2023-08-11 19:55:35.401718,-131.0
2023-08-11 19:55:35.409407,-140.0
2023-08-11 19:55:35.417097,-150.0
2023-08-11 19:55:35.424786,-157.0
2023-08-11 19:55:35.432475,-160.0
2023-08-11 19:55:35.440164,-160.0
2023-08-11 19:55:35.447853,-160.0
2023-08-11 19:55:35.455543,-150.0
2023-08-11 19:55:35.463232,-131.0
2023-08-11 19:55:35.470921,-107.0
2023-08-11 19:55:35.478610,-88.0
2023-08-11 19:55:35.486300,-69.0
2023-08-11 19:55:35.493989,-50.0
2023-08-11 19:55:35.501678,-40.0
2023-08-11 19:55:35.509367,-38.0
2023-08-11 19:55:35.517056,-31.0
2023-08-11 19:55:35.524746,-26.0
2023-08-11 19:55:35.532435,-28.0
2023-08-11 19:55:35.540124,-31.0
2023-08-11 19:55:35.547813,-35.0
2023-08-11 19:55:35.555502,-35.0
2023-08-11 19:55:35.563192,-33.0
2023-08-11 19:55:35.570881,-33.0
2023-08-11 19:55:35.578570,-33.0
2023-08-11 19:55:35.586259,-33.0
2023-08-11 19:55:35.593948,-33.0
2023-08-11 19:55:35.601638,-31.0
2023-08-11 19:55:35.609327,-28.0
2023-08-11 19:55:35.617016,-33.0
2023-08-11 19:55:35.624705,-31.0
2023-08-11 19:55:35.632395,-26.0
2023-08-11 19:55:35.640084,-21.0
2023-08-11 19:55:35.647773,-21.0
2023-08-11 19:55:35.655462,-19.0
2023-08-11 19:55:35.663151,-19.0
2023-08-11 19:55:35.670841,-19.0
2023-08-11 19:55:35.678530,-21.0
2023-08-11 19:55:35.686219,-19.0
2023-08-11 19:55:35.693908,-16.0
2023-08-11 19:55:35.701597,-16.0
2023-08-11 19:55:35.709287,-19.0
2023-08-11 19:55:35.716976,-14.0
2023-08-11 19:55:35.724665,-9.0
2023-08-11 19:55:35.732354,-16.0
2023-08-11 19:55:35.740044,-21.0
2023-08-11 19:55:35.747733,-19.0
2023-08-11 19:55:35.755422,-16.0
2023-08-11 19:55:35.763111,-19.0
2023-08-11 19:55:35.770800,-23.0
2023-08-11 19:55:35.778490,-21.0
2023-08-11 19:55:35.786179,-21.0
2023-08-11 19:55:35.793868,-31.0
2023-08-11 19:55:35.801557,-28.0
2023-08-11 19:55:35.809246,-26.0
2023-08-11 19:55:35.816936,-54.0
2023-08-11 19:55:35.824625,-88.0
2023-08-11 19:55:35.832314,-81.0
2023-08-11 19:55:35.840003,-59.0
2023-08-11 19:55:35.847692,-47.0
2023-08-11 19:55:35.855382,-35.0
2023-08-11 19:55:35.863071,-28.0
2023-08-11 19:55:35.870760,-28.0
2023-08-11 19:55:35.878449,-28.0
2023-08-11 19:55:35.886139,-33.0
2023-08-11 19:55:35.893828,-38.0
2023-08-11 19:55:35.901517,-38.0
2023-08-11 19:55:35.909206,-21.0
2023-08-11 19:55:35.916895,-45.0
2023-08-11 19:55:35.924585,-229.0
2023-08-11 19:55:35.932274,-561.0
2023-08-11 19:55:35.939963,-652.0
2023-08-11 19:55:35.947652,-181.0
2023-08-11 19:55:35.955341,274.0
2023-08-11 19:55:35.963031,157.0
2023-08-11 19:55:35.970720,-38.0
2023-08-11 19:55:35.978409,4.0
2023-08-11 19:55:35.986098,11.0
2023-08-11 19:55:35.993787,-40.0
2023-08-11 19:55:36.001477,-35.0
2023-08-11 19:55:36.009166,-23.0
2023-08-11 19:55:36.016855,-40.0
2023-08-11 19:55:36.024544,-45.0
2023-08-11 19:55:36.032234,-40.0
2023-08-11 19:55:36.039923,-47.0
2023-08-11 19:55:36.047612,-52.0
2023-08-11 19:55:36.055301,-52.0
2023-08-11 19:55:36.062990,-54.0
2023-08-11 19:55:36.070680,-52.0
2023-08-11 19:55:36.078369,-54.0
2023-08-11 19:55:36.086058,-62.0
2023-08-11 19:55:36.093747,-69.0
2023-08-11 19:55:36.101436,-71.0
2023-08-11 19:55:36.109126,-69.0
2023-08-11 19:55:36.116815,-74.0
2023-08-11 19:55:36.124504,-83.0
2023-08-11 19:55:36.132193,-93.0
2023-08-11 19:55:36.139883,-95.0
2023-08-11 19:55:36.147572,-100.0
2023-08-11 19:55:36.155261,-109.0
2023-08-11 19:55:36.162950,-119.0
2023-08-11 19:55:36.170639,-124.0
2023-08-11 19:55:36.178329,-126.0
2023-08-11 19:55:36.186018,-128.0
2023-08-11 19:55:36.193707,-131.0
2023-08-11 19:55:36.201396,-133.0
2023-08-11 19:55:36.209085,-136.0
2023-08-11 19:55:36.216775,-131.0
2023-08-11 19:55:36.224464,-117.0
2023-08-11 19:55:36.232153,-97.0
2023-08-11 19:55:36.239842,-76.0
2023-08-11 19:55:36.247531,-50.0
2023-08-11 19:55:36.255221,-35.0
2023-08-11 19:55:36.262910,-26.0
2023-08-11 19:55:36.270599,-16.0
2023-08-11 19:55:36.278288,-9.0
2023-08-11 19:55:36.285978,-14.0
2023-08-11 19:55:36.293667,-21.0
2023-08-11 19:55:36.301356,-21.0
2023-08-11 19:55:36.309045,-21.0
2023-08-11 19:55:36.316734,-26.0
2023-08-11 19:55:36.324424,-28.0
2023-08-11 19:55:36.332113,-28.0
2023-08-11 19:55:36.339802,-33.0
2023-08-11 19:55:36.347491,-35.0
2023-08-11 19:55:36.355180,-35.0
2023-08-11 19:55:36.362870,-35.0
2023-08-11 19:55:36.370559,-38.0
2023-08-11 19:55:36.378248,-35.0
2023-08-11 19:55:36.385937,-33.0
2023-08-11 19:55:36.393626,-33.0
2023-08-11 19:55:36.401316,-35.0
2023-08-11 19:55:36.409005,-31.0
2023-08-11 19:55:36.416694,-28.0
2023-08-11 19:55:36.424383,-33.0
2023-08-11 19:55:36.432073,-38.0
2023-08-11 19:55:36.439762,-35.0
2023-08-11 19:55:36.447451,-33.0
2023-08-11 19:55:36.455140,-35.0
2023-08-11 19:55:36.462829,-35.0
2023-08-11 19:55:36.470519,-38.0
2023-08-11 19:55:36.478208,-40.0
2023-08-11 19:55:36.485897,-42.0
2023-08-11 19:55:36.493586,-50.0
2023-08-11 19:55:36.501275,-54.0
2023-08-11 19:55:36.508965,-59.0
2023-08-11 19:55:36.516654,-88.0
2023-08-11 19:55:36.524343,-112.0
2023-08-11 19:55:36.532032,-109.0
2023-08-11 19:55:36.539722,-90.0
2023-08-11 19:55:36.547411,-71.0
2023-08-11 19:55:36.555100,-62.0
2023-08-11 19:55:36.562789,-57.0
2023-08-11 19:55:36.570478,-54.0
2023-08-11 19:55:36.578168,-57.0
2023-08-11 19:55:36.585857,-54.0
2023-08-11 19:55:36.593546,-52.0
2023-08-11 19:55:36.601235,-45.0
2023-08-11 19:55:36.608924,-28.0
2023-08-11 19:55:36.616614,-57.0
2023-08-11 19:55:36.624303,-260.0
2023-08-11 19:55:36.631992,-609.0
2023-08-11 19:55:36.639681,-659.0
2023-08-11 19:55:36.647370,-126.0
2023-08-11 19:55:36.655060,298.0
2023-08-11 19:55:36.662749,131.0
2023-08-11 19:55:36.670438,-52.0
2023-08-11 19:55:36.678127,2.0
2023-08-11 19:55:36.685817,2.0
2023-08-11 19:55:36.693506,-40.0
2023-08-11 19:55:36.701195,-28.0
2023-08-11 19:55:36.708884,-23.0
2023-08-11 19:55:36.716573,-42.0
2023-08-11 19:55:36.724263,-45.0
2023-08-11 19:55:36.731952,-40.0
2023-08-11 19:55:36.739641,-42.0
2023-08-11 19:55:36.747330,-47.0
2023-08-11 19:55:36.755019,-47.0
2023-08-11 19:55:36.762709,-52.0
2023-08-11 19:55:36.770398,-57.0
2023-08-11 19:55:36.778087,-59.0
2023-08-11 19:55:36.785776,-64.0
2023-08-11 19:55:36.793465,-66.0
2023-08-11 19:55:36.801155,-69.0
2023-08-11 19:55:36.808844,-76.0
2023-08-11 19:55:36.816533,-83.0
2023-08-11 19:55:36.824222,-88.0
2023-08-11 19:55:36.831912,-93.0
2023-08-11 19:55:36.839601,-102.0
2023-08-11 19:55:36.847290,-109.0
2023-08-11 19:55:36.854979,-117.0
2023-08-11 19:55:36.862668,-124.0
2023-08-11 19:55:36.870358,-128.0
2023-08-11 19:55:36.878047,-133.0
2023-08-11 19:55:36.885736,-136.0
2023-08-11 19:55:36.893425,-138.0
2023-08-11 19:55:36.901114,-138.0
2023-08-11 19:55:36.908804,-131.0
2023-08-11 19:55:36.916493,-117.0
2023-08-11 19:55:36.924182,-100.0
2023-08-11 19:55:36.931871,-88.0
2023-08-11 19:55:36.939560,-74.0
2023-08-11 19:55:36.947250,-54.0
2023-08-11 19:55:36.954939,-38.0
2023-08-11 19:55:36.962628,-28.0
2023-08-11 19:55:36.970317,-21.0
2023-08-11 19:55:36.978007,-21.0
2023-08-11 19:55:36.985696,-23.0
2023-08-11 19:55:36.993385,-26.0
2023-08-11 19:55:37.001074,-26.0
2023-08-11 19:55:37.008763,-26.0
2023-08-11 19:55:37.016453,-31.0
2023-08-11 19:55:37.024142,-40.0
2023-08-11 19:55:37.031831,-47.0
2023-08-11 19:55:37.039520,-50.0
2023-08-11 19:55:37.047209,-45.0
2023-08-11 19:55:37.054899,-47.0
2023-08-11 19:55:37.062588,-52.0
2023-08-11 19:55:37.070277,-52.0
2023-08-11 19:55:37.077966,-50.0
2023-08-11 19:55:37.085656,-50.0
2023-08-11 19:55:37.093345,-47.0
2023-08-11 19:55:37.101034,-42.0
2023-08-11 19:55:37.108723,-42.0
2023-08-11 19:55:37.116412,-42.0
2023-08-11 19:55:37.124102,-40.0
2023-08-11 19:55:37.131791,-38.0
2023-08-11 19:55:37.139480,-33.0
2023-08-11 19:55:37.147169,-35.0
2023-08-11 19:55:37.154858,-38.0
2023-08-11 19:55:37.162548,-38.0
2023-08-11 19:55:37.170237,-38.0
2023-08-11 19:55:37.177926,-42.0
2023-08-11 19:55:37.185615,-42.0
2023-08-11 19:55:37.193304,-40.0
2023-08-11 19:55:37.200994,-38.0
2023-08-11 19:55:37.208683,-40.0
2023-08-11 19:55:37.216372,-40.0
2023-08-11 19:55:37.224061,-42.0
2023-08-11 19:55:37.231751,-54.0
2023-08-11 19:55:37.239440,-78.0
2023-08-11 19:55:37.247129,-95.0
2023-08-11 19:55:37.254818,-90.0
2023-08-11 19:55:37.262507,-69.0
2023-08-11 19:55:37.270197,-54.0
2023-08-11 19:55:37.277886,-47.0
2023-08-11 19:55:37.285575,-40.0
2023-08-11 19:55:37.293264,-40.0
2023-08-11 19:55:37.300953,-42.0
2023-08-11 19:55:37.308643,-45.0
2023-08-11 19:55:37.316332,-42.0
2023-08-11 19:55:37.324021,-33.0
2023-08-11 19:55:37.331710,-19.0
2023-08-11 19:55:37.339399,-78.0
2023-08-11 19:55:37.347089,-332.0
2023-08-11 19:55:37.354778,-678.0
2023-08-11 19:55:37.362467,-594.0
2023-08-11 19:55:37.370156,28.0
2023-08-11 19:55:37.377846,332.0
2023-08-11 19:55:37.385535,59.0
2023-08-11 19:55:37.393224,-66.0
2023-08-11 19:55:37.400913,35.0
2023-08-11 19:55:37.408602,16.0
2023-08-11 19:55:37.416292,-33.0
2023-08-11 19:55:37.423981,-7.0
2023-08-11 19:55:37.431670,-4.0
2023-08-11 19:55:37.439359,-31.0
2023-08-11 19:55:37.447048,-33.0
2023-08-11 19:55:37.454738,-28.0
2023-08-11 19:55:37.462427,-35.0
2023-08-11 19:55:37.470116,-38.0
2023-08-11 19:55:37.477805,-35.0
2023-08-11 19:55:37.485495,-40.0
2023-08-11 19:55:37.493184,-42.0
2023-08-11 19:55:37.500873,-45.0
2023-08-11 19:55:37.508562,-50.0
2023-08-11 19:55:37.516251,-57.0
2023-08-11 19:55:37.523941,-64.0
2023-08-11 19:55:37.531630,-69.0
2023-08-11 19:55:37.539319,-74.0
2023-08-11 19:55:37.547008,-78.0
2023-08-11 19:55:37.554697,-88.0
2023-08-11 19:55:37.562387,-97.0
2023-08-11 19:55:37.570076,-105.0
2023-08-11 19:55:37.577765,-114.0
2023-08-11 19:55:37.585454,-124.0
2023-08-11 19:55:37.593143,-131.0
2023-08-11 19:55:37.600833,-136.0
2023-08-11 19:55:37.608522,-143.0
2023-08-11 19:55:37.616211,-152.0
2023-08-11 19:55:37.623900,-155.0
2023-08-11 19:55:37.631590,-143.0
2023-08-11 19:55:37.639279,-126.0
2023-08-11 19:55:37.646968,-109.0
2023-08-11 19:55:37.654657,-88.0
2023-08-11 19:55:37.662346,-69.0
2023-08-11 19:55:37.670036,-50.0
2023-08-11 19:55:37.677725,-35.0
2023-08-11 19:55:37.685414,-26.0
2023-08-11 19:55:37.693103,-23.0
2023-08-11 19:55:37.700792,-21.0
2023-08-11 19:55:37.708482,-21.0
2023-08-11 19:55:37.716171,-21.0
2023-08-11 19:55:37.723860,-23.0
2023-08-11 19:55:37.731549,-21.0
2023-08-11 19:55:37.739238,-19.0
2023-08-11 19:55:37.746928,-23.0
2023-08-11 19:55:37.754617,-28.0
2023-08-11 19:55:37.762306,-31.0
2023-08-11 19:55:37.769995,-33.0
2023-08-11 19:55:37.777685,-33.0
2023-08-11 19:55:37.785374,-31.0
2023-08-11 19:55:37.793063,-31.0
2023-08-11 19:55:37.800752,-33.0
2023-08-11 19:55:37.808441,-33.0
2023-08-11 19:55:37.816131,-31.0
2023-08-11 19:55:37.823820,-31.0
2023-08-11 19:55:37.831509,-31.0
2023-08-11 19:55:37.839198,-28.0
2023-08-11 19:55:37.846887,-28.0
2023-08-11 19:55:37.854577,-28.0
2023-08-11 19:55:37.862266,-28.0
2023-08-11 19:55:37.869955,-26.0
2023-08-11 19:55:37.877644,-23.0
2023-08-11 19:55:37.885334,-23.0
2023-08-11 19:55:37.893023,-28.0
2023-08-11 19:55:37.900712,-31.0
2023-08-11 19:55:37.908401,-28.0
2023-08-11 19:55:37.916090,-31.0
2023-08-11 19:55:37.923780,-33.0
2023-08-11 19:55:37.931469,-33.0
2023-08-11 19:55:37.939158,-38.0
2023-08-11 19:55:37.946847,-45.0
2023-08-11 19:55:37.954536,-57.0
2023-08-11 19:55:37.962226,-78.0
2023-08-11 19:55:37.969915,-100.0
2023-08-11 19:55:37.977604,-100.0
2023-08-11 19:55:37.985293,-76.0
2023-08-11 19:55:37.992982,-59.0
2023-08-11 19:55:38.000672,-50.0
2023-08-11 19:55:38.008361,-45.0
2023-08-11 19:55:38.016050,-47.0
2023-08-11 19:55:38.023739,-45.0
2023-08-11 19:55:38.031429,-45.0
2023-08-11 19:55:38.039118,-47.0
2023-08-11 19:55:38.046807,-40.0
2023-08-11 19:55:38.054496,-21.0
2023-08-11 19:55:38.062185,-47.0
2023-08-11 19:55:38.069875,-243.0
2023-08-11 19:55:38.077564,-592.0
2023-08-11 19:55:38.085253,-671.0
2023-08-11 19:55:38.092942,-143.0
2023-08-11 19:55:38.100631,322.0
2023-08-11 19:55:38.108321,136.0
2023-08-11 19:55:38.116010,-83.0
2023-08-11 19:55:38.123699,9.0
2023-08-11 19:55:38.131388,28.0
2023-08-11 19:55:38.139077,-38.0
2023-08-11 19:55:38.146767,-23.0
2023-08-11 19:55:38.154456,-9.0
2023-08-11 19:55:38.162145,-40.0
2023-08-11 19:55:38.169834,-45.0
2023-08-11 19:55:38.177524,-35.0
2023-08-11 19:55:38.185213,-42.0
2023-08-11 19:55:38.192902,-47.0
2023-08-11 19:55:38.200591,-50.0
2023-08-11 19:55:38.208280,-59.0
2023-08-11 19:55:38.215970,-62.0
2023-08-11 19:55:38.223659,-59.0
2023-08-11 19:55:38.231348,-59.0
2023-08-11 19:55:38.239037,-64.0
2023-08-11 19:55:38.246726,-69.0
2023-08-11 19:55:38.254416,-76.0
2023-08-11 19:55:38.262105,-81.0
2023-08-11 19:55:38.269794,-85.0
2023-08-11 19:55:38.277483,-93.0
2023-08-11 19:55:38.285173,-97.0
2023-08-11 19:55:38.292862,-102.0
2023-08-11 19:55:38.300551,-112.0
2023-08-11 19:55:38.308240,-119.0
2023-08-11 19:55:38.315929,-128.0
2023-08-11 19:55:38.323619,-133.0
2023-08-11 19:55:38.331308,-138.0
2023-08-11 19:55:38.338997,-150.0
2023-08-11 19:55:38.346686,-152.0
2023-08-11 19:55:38.354375,-143.0
2023-08-11 19:55:38.362065,-131.0
2023-08-11 19:55:38.369754,-114.0
2023-08-11 19:55:38.377443,-97.0
2023-08-11 19:55:38.385132,-83.0
2023-08-11 19:55:38.392821,-62.0
2023-08-11 19:55:38.400511,-42.0
2023-08-11 19:55:38.408200,-35.0
2023-08-11 19:55:38.415889,-31.0
2023-08-11 19:55:38.423578,-23.0
2023-08-11 19:55:38.431268,-16.0
2023-08-11 19:55:38.438957,-16.0
2023-08-11 19:55:38.446646,-23.0
2023-08-11 19:55:38.454335,-28.0
2023-08-11 19:55:38.462024,-33.0
2023-08-11 19:55:38.469714,-38.0
2023-08-11 19:55:38.477403,-38.0
2023-08-11 19:55:38.485092,-33.0
2023-08-11 19:55:38.492781,-33.0
2023-08-11 19:55:38.500470,-35.0
2023-08-11 19:55:38.508160,-38.0
2023-08-11 19:55:38.515849,-35.0
2023-08-11 19:55:38.523538,-28.0
2023-08-11 19:55:38.531227,-28.0
2023-08-11 19:55:38.538916,-31.0
2023-08-11 19:55:38.546606,-28.0
2023-08-11 19:55:38.554295,-26.0
2023-08-11 19:55:38.561984,-21.0
2023-08-11 19:55:38.569673,-19.0
2023-08-11 19:55:38.577363,-19.0
2023-08-11 19:55:38.585052,-19.0
2023-08-11 19:55:38.592741,-21.0
2023-08-11 19:55:38.600430,-23.0
2023-08-11 19:55:38.608119,-19.0
2023-08-11 19:55:38.615809,-16.0
2023-08-11 19:55:38.623498,-16.0
2023-08-11 19:55:38.631187,-16.0
2023-08-11 19:55:38.638876,-16.0
2023-08-11 19:55:38.646565,-16.0
2023-08-11 19:55:38.654255,-23.0
2023-08-11 19:55:38.661944,-28.0
2023-08-11 19:55:38.669633,-35.0
2023-08-11 19:55:38.677322,-59.0
2023-08-11 19:55:38.685012,-83.0
2023-08-11 19:55:38.692701,-76.0
2023-08-11 19:55:38.700390,-52.0
2023-08-11 19:55:38.708079,-35.0
2023-08-11 19:55:38.715768,-28.0
2023-08-11 19:55:38.723458,-26.0
2023-08-11 19:55:38.731147,-23.0
2023-08-11 19:55:38.738836,-21.0
