time,ECG
2023-08-09 16:20:42.708626,-88.0
2023-08-09 16:20:42.716316,-95.0
2023-08-09 16:20:42.724006,-107.0
2023-08-09 16:20:42.731697,-112.0
2023-08-09 16:20:42.739387,-107.0
2023-08-09 16:20:42.747077,-97.0
2023-08-09 16:20:42.754768,-90.0
2023-08-09 16:20:42.762458,-95.0
2023-08-09 16:20:42.770148,-88.0
2023-08-09 16:20:42.777839,-66.0
2023-08-09 16:20:42.785529,-42.0
2023-08-09 16:20:42.793219,-33.0
2023-08-09 16:20:42.800910,-35.0
2023-08-09 16:20:42.808600,-52.0
2023-08-09 16:20:42.816290,-62.0
2023-08-09 16:20:42.823981,-71.0
2023-08-09 16:20:42.831671,-90.0
2023-08-09 16:20:42.839361,-76.0
2023-08-09 16:20:42.847052,-57.0
2023-08-09 16:20:42.854742,-81.0
2023-08-09 16:20:42.862432,-93.0
2023-08-09 16:20:42.870123,-81.0
2023-08-09 16:20:42.877813,-81.0
2023-08-09 16:20:42.885503,-83.0
2023-08-09 16:20:42.893194,-76.0
2023-08-09 16:20:42.900884,-76.0
2023-08-09 16:20:42.908574,-78.0
2023-08-09 16:20:42.916265,-81.0
2023-08-09 16:20:42.923955,-105.0
2023-08-09 16:20:42.931645,-114.0
2023-08-09 16:20:42.939336,-7.0
2023-08-09 16:20:42.947026,250.0
2023-08-09 16:20:42.954716,556.0
2023-08-09 16:20:42.962407,649.0
2023-08-09 16:20:42.970097,305.0
2023-08-09 16:20:42.977787,-138.0
2023-08-09 16:20:42.985478,-243.0
2023-08-09 16:20:42.993168,-217.0
2023-08-09 16:20:43.000858,-224.0
2023-08-09 16:20:43.008548,-136.0
2023-08-09 16:20:43.016239,-54.0
2023-08-09 16:20:43.023929,-76.0
2023-08-09 16:20:43.031619,-85.0
2023-08-09 16:20:43.039310,-50.0
2023-08-09 16:20:43.047000,-40.0
2023-08-09 16:20:43.054690,-38.0
2023-08-09 16:20:43.062381,-16.0
2023-08-09 16:20:43.070071,-9.0
2023-08-09 16:20:43.077761,-14.0
2023-08-09 16:20:43.085452,2.0
2023-08-09 16:20:43.093142,23.0
2023-08-09 16:20:43.100832,35.0
2023-08-09 16:20:43.108523,52.0
2023-08-09 16:20:43.116213,71.0
2023-08-09 16:20:43.123903,88.0
2023-08-09 16:20:43.131594,107.0
2023-08-09 16:20:43.139284,121.0
2023-08-09 16:20:43.146974,121.0
2023-08-09 16:20:43.154665,124.0
2023-08-09 16:20:43.162355,117.0
2023-08-09 16:20:43.170045,90.0
2023-08-09 16:20:43.177736,54.0
2023-08-09 16:20:43.185426,9.0
2023-08-09 16:20:43.193116,-35.0
2023-08-09 16:20:43.200807,-69.0
2023-08-09 16:20:43.208497,-100.0
2023-08-09 16:20:43.216187,-126.0
2023-08-09 16:20:43.223878,-138.0
2023-08-09 16:20:43.231568,-140.0
2023-08-09 16:20:43.239258,-143.0
2023-08-09 16:20:43.246949,-140.0
2023-08-09 16:20:43.254639,-145.0
2023-08-09 16:20:43.262329,-150.0
2023-08-09 16:20:43.270020,-140.0
2023-08-09 16:20:43.277710,-126.0
2023-08-09 16:20:43.285400,-124.0
2023-08-09 16:20:43.293091,-124.0
2023-08-09 16:20:43.300781,-121.0
2023-08-09 16:20:43.308471,-114.0
2023-08-09 16:20:43.316162,-105.0
2023-08-09 16:20:43.323852,-100.0
2023-08-09 16:20:43.331542,-100.0
2023-08-09 16:20:43.339233,-100.0
2023-08-09 16:20:43.346923,-95.0
2023-08-09 16:20:43.354613,-88.0
2023-08-09 16:20:43.362304,-83.0
2023-08-09 16:20:43.369994,-88.0
2023-08-09 16:20:43.377684,-93.0
2023-08-09 16:20:43.385375,-90.0
2023-08-09 16:20:43.393065,-90.0
2023-08-09 16:20:43.400755,-93.0
2023-08-09 16:20:43.408446,-95.0
2023-08-09 16:20:43.416136,-93.0
2023-08-09 16:20:43.423826,-90.0
2023-08-09 16:20:43.431517,-95.0
2023-08-09 16:20:43.439207,-97.0
2023-08-09 16:20:43.446897,-97.0
2023-08-09 16:20:43.454588,-97.0
2023-08-09 16:20:43.462278,-90.0
2023-08-09 16:20:43.469968,-85.0
2023-08-09 16:20:43.477659,-81.0
2023-08-09 16:20:43.485349,-66.0
2023-08-09 16:20:43.493039,-47.0
2023-08-09 16:20:43.500730,-45.0
2023-08-09 16:20:43.508420,-64.0
2023-08-09 16:20:43.516110,-74.0
2023-08-09 16:20:43.523801,-71.0
2023-08-09 16:20:43.531491,-78.0
2023-08-09 16:20:43.539181,-95.0
2023-08-09 16:20:43.546872,-102.0
2023-08-09 16:20:43.554562,-109.0
2023-08-09 16:20:43.562252,-117.0
2023-08-09 16:20:43.569943,-109.0
2023-08-09 16:20:43.577633,-102.0
2023-08-09 16:20:43.585323,-105.0
2023-08-09 16:20:43.593014,-107.0
2023-08-09 16:20:43.600704,-100.0
2023-08-09 16:20:43.608394,-93.0
2023-08-09 16:20:43.616085,-95.0
2023-08-09 16:20:43.623775,-100.0
2023-08-09 16:20:43.631465,-119.0
2023-08-09 16:20:43.639156,-126.0
2023-08-09 16:20:43.646846,-4.0
2023-08-09 16:20:43.654536,277.0
2023-08-09 16:20:43.662227,582.0
2023-08-09 16:20:43.669917,613.0
2023-08-09 16:20:43.677607,217.0
2023-08-09 16:20:43.685298,-186.0
2023-08-09 16:20:43.692988,-253.0
2023-08-09 16:20:43.700678,-241.0
2023-08-09 16:20:43.708368,-241.0
2023-08-09 16:20:43.716059,-136.0
2023-08-09 16:20:43.723749,-69.0
2023-08-09 16:20:43.731439,-90.0
2023-08-09 16:20:43.739130,-81.0
2023-08-09 16:20:43.746820,-54.0
2023-08-09 16:20:43.754510,-54.0
2023-08-09 16:20:43.762201,-47.0
2023-08-09 16:20:43.769891,-28.0
2023-08-09 16:20:43.777581,-21.0
2023-08-09 16:20:43.785272,-11.0
2023-08-09 16:20:43.792962,0.0
2023-08-09 16:20:43.800652,11.0
2023-08-09 16:20:43.808343,33.0
2023-08-09 16:20:43.816033,54.0
2023-08-09 16:20:43.823723,74.0
2023-08-09 16:20:43.831414,93.0
2023-08-09 16:20:43.839104,117.0
2023-08-09 16:20:43.846794,133.0
2023-08-09 16:20:43.854485,133.0
2023-08-09 16:20:43.862175,131.0
2023-08-09 16:20:43.869865,121.0
2023-08-09 16:20:43.877556,93.0
2023-08-09 16:20:43.885246,57.0
2023-08-09 16:20:43.892936,14.0
2023-08-09 16:20:43.900627,-26.0
2023-08-09 16:20:43.908317,-64.0
2023-08-09 16:20:43.916007,-97.0
2023-08-09 16:20:43.923698,-117.0
2023-08-09 16:20:43.931388,-126.0
2023-08-09 16:20:43.939078,-133.0
2023-08-09 16:20:43.946769,-133.0
2023-08-09 16:20:43.954459,-131.0
2023-08-09 16:20:43.962149,-136.0
2023-08-09 16:20:43.969840,-133.0
2023-08-09 16:20:43.977530,-124.0
2023-08-09 16:20:43.985220,-121.0
2023-08-09 16:20:43.992911,-117.0
2023-08-09 16:20:44.000601,-109.0
2023-08-09 16:20:44.008291,-105.0
2023-08-09 16:20:44.015982,-105.0
2023-08-09 16:20:44.023672,-100.0
2023-08-09 16:20:44.031362,-93.0
2023-08-09 16:20:44.039053,-97.0
2023-08-09 16:20:44.046743,-105.0
2023-08-09 16:20:44.054433,-102.0
2023-08-09 16:20:44.062124,-102.0
2023-08-09 16:20:44.069814,-109.0
2023-08-09 16:20:44.077504,-97.0
2023-08-09 16:20:44.085195,-85.0
2023-08-09 16:20:44.092885,-95.0
2023-08-09 16:20:44.100575,-93.0
2023-08-09 16:20:44.108266,-62.0
2023-08-09 16:20:44.115956,-54.0
2023-08-09 16:20:44.123646,-81.0
2023-08-09 16:20:44.131337,-105.0
2023-08-09 16:20:44.139027,-93.0
2023-08-09 16:20:44.146717,-71.0
2023-08-09 16:20:44.154408,-90.0
2023-08-09 16:20:44.162098,-102.0
2023-08-09 16:20:44.169788,-90.0
2023-08-09 16:20:44.177479,-85.0
2023-08-09 16:20:44.185169,-76.0
2023-08-09 16:20:44.192859,-74.0
2023-08-09 16:20:44.200550,-69.0
2023-08-09 16:20:44.208240,-33.0
2023-08-09 16:20:44.215930,0.0
2023-08-09 16:20:44.223621,-11.0
2023-08-09 16:20:44.231311,-35.0
2023-08-09 16:20:44.239001,-33.0
2023-08-09 16:20:44.246692,-31.0
2023-08-09 16:20:44.254382,-45.0
2023-08-09 16:20:44.262072,-66.0
2023-08-09 16:20:44.269763,-85.0
2023-08-09 16:20:44.277453,-78.0
2023-08-09 16:20:44.285143,-69.0
2023-08-09 16:20:44.292834,-93.0
2023-08-09 16:20:44.300524,-109.0
2023-08-09 16:20:44.308214,-95.0
2023-08-09 16:20:44.315905,-93.0
2023-08-09 16:20:44.323595,-107.0
2023-08-09 16:20:44.331285,-100.0
2023-08-09 16:20:44.338976,-88.0
2023-08-09 16:20:44.346666,-102.0
2023-08-09 16:20:44.354356,-136.0
2023-08-09 16:20:44.362047,-131.0
2023-08-09 16:20:44.369737,7.0
2023-08-09 16:20:44.377427,286.0
2023-08-09 16:20:44.385117,554.0
2023-08-09 16:20:44.392808,499.0
2023-08-09 16:20:44.400498,93.0
2023-08-09 16:20:44.408188,-207.0
2023-08-09 16:20:44.415879,-246.0
2023-08-09 16:20:44.423569,-243.0
2023-08-09 16:20:44.431259,-205.0
2023-08-09 16:20:44.438950,-133.0
2023-08-09 16:20:44.446640,-131.0
2023-08-09 16:20:44.454330,-145.0
2023-08-09 16:20:44.462021,-112.0
2023-08-09 16:20:44.469711,-85.0
2023-08-09 16:20:44.477401,-90.0
2023-08-09 16:20:44.485092,-76.0
2023-08-09 16:20:44.492782,-66.0
2023-08-09 16:20:44.500472,-66.0
2023-08-09 16:20:44.508163,-45.0
2023-08-09 16:20:44.515853,-21.0
2023-08-09 16:20:44.523543,-21.0
2023-08-09 16:20:44.531234,-14.0
2023-08-09 16:20:44.538924,16.0
2023-08-09 16:20:44.546614,38.0
2023-08-09 16:20:44.554305,54.0
2023-08-09 16:20:44.561995,81.0
2023-08-09 16:20:44.569685,93.0
2023-08-09 16:20:44.577376,90.0
2023-08-09 16:20:44.585066,100.0
2023-08-09 16:20:44.592756,93.0
2023-08-09 16:20:44.600447,59.0
2023-08-09 16:20:44.608137,28.0
2023-08-09 16:20:44.615827,-2.0
2023-08-09 16:20:44.623518,-47.0
2023-08-09 16:20:44.631208,-85.0
2023-08-09 16:20:44.638898,-109.0
2023-08-09 16:20:44.646589,-128.0
2023-08-09 16:20:44.654279,-150.0
2023-08-09 16:20:44.661969,-162.0
2023-08-09 16:20:44.669660,-155.0
2023-08-09 16:20:44.677350,-148.0
2023-08-09 16:20:44.685040,-152.0
2023-08-09 16:20:44.692731,-148.0
2023-08-09 16:20:44.700421,-133.0
2023-08-09 16:20:44.708111,-136.0
2023-08-09 16:20:44.715802,-138.0
2023-08-09 16:20:44.723492,-128.0
2023-08-09 16:20:44.731182,-124.0
2023-08-09 16:20:44.738873,-124.0
2023-08-09 16:20:44.746563,-112.0
2023-08-09 16:20:44.754253,-102.0
2023-08-09 16:20:44.761944,-109.0
2023-08-09 16:20:44.769634,-126.0
2023-08-09 16:20:44.777324,-121.0
2023-08-09 16:20:44.785015,-105.0
2023-08-09 16:20:44.792705,-97.0
2023-08-09 16:20:44.800395,-105.0
2023-08-09 16:20:44.808086,-105.0
2023-08-09 16:20:44.815776,-102.0
2023-08-09 16:20:44.823466,-107.0
2023-08-09 16:20:44.831157,-105.0
2023-08-09 16:20:44.838847,-95.0
2023-08-09 16:20:44.846537,-105.0
2023-08-09 16:20:44.854228,-112.0
2023-08-09 16:20:44.861918,-100.0
2023-08-09 16:20:44.869608,-100.0
2023-08-09 16:20:44.877299,-107.0
2023-08-09 16:20:44.884989,-95.0
2023-08-09 16:20:44.892679,-83.0
2023-08-09 16:20:44.900370,-93.0
2023-08-09 16:20:44.908060,-97.0
2023-08-09 16:20:44.915750,-95.0
2023-08-09 16:20:44.923441,-83.0
2023-08-09 16:20:44.931131,-47.0
2023-08-09 16:20:44.938821,-19.0
2023-08-09 16:20:44.946512,-31.0
2023-08-09 16:20:44.954202,-54.0
2023-08-09 16:20:44.961892,-59.0
2023-08-09 16:20:44.969583,-54.0
2023-08-09 16:20:44.977273,-62.0
2023-08-09 16:20:44.984963,-83.0
2023-08-09 16:20:44.992654,-93.0
2023-08-09 16:20:45.000344,-85.0
2023-08-09 16:20:45.008034,-93.0
2023-08-09 16:20:45.015725,-109.0
2023-08-09 16:20:45.023415,-100.0
2023-08-09 16:20:45.031105,-85.0
2023-08-09 16:20:45.038796,-93.0
2023-08-09 16:20:45.046486,-97.0
2023-08-09 16:20:45.054176,-95.0
2023-08-09 16:20:45.061867,-93.0
2023-08-09 16:20:45.069557,-88.0
2023-08-09 16:20:45.077247,-107.0
2023-08-09 16:20:45.084937,-121.0
2023-08-09 16:20:45.092628,-7.0
2023-08-09 16:20:45.100318,274.0
2023-08-09 16:20:45.108008,566.0
2023-08-09 16:20:45.115699,566.0
2023-08-09 16:20:45.123389,162.0
2023-08-09 16:20:45.131079,-195.0
2023-08-09 16:20:45.138770,-241.0
2023-08-09 16:20:45.146460,-248.0
2023-08-09 16:20:45.154150,-243.0
2023-08-09 16:20:45.161841,-128.0
2023-08-09 16:20:45.169531,-62.0
2023-08-09 16:20:45.177221,-81.0
2023-08-09 16:20:45.184912,-62.0
2023-08-09 16:20:45.192602,-42.0
2023-08-09 16:20:45.200292,-52.0
2023-08-09 16:20:45.207983,-38.0
2023-08-09 16:20:45.215673,-14.0
2023-08-09 16:20:45.223363,-16.0
2023-08-09 16:20:45.231054,-9.0
2023-08-09 16:20:45.238744,14.0
2023-08-09 16:20:45.246434,31.0
2023-08-09 16:20:45.254125,45.0
2023-08-09 16:20:45.261815,69.0
2023-08-09 16:20:45.269505,88.0
2023-08-09 16:20:45.277196,97.0
2023-08-09 16:20:45.284886,119.0
2023-08-09 16:20:45.292576,138.0
2023-08-09 16:20:45.300267,143.0
2023-08-09 16:20:45.307957,138.0
2023-08-09 16:20:45.315647,121.0
2023-08-09 16:20:45.323338,88.0
2023-08-09 16:20:45.331028,45.0
2023-08-09 16:20:45.338718,4.0
2023-08-09 16:20:45.346409,-35.0
2023-08-09 16:20:45.354099,-78.0
2023-08-09 16:20:45.361789,-109.0
2023-08-09 16:20:45.369480,-124.0
2023-08-09 16:20:45.377170,-133.0
2023-08-09 16:20:45.384860,-138.0
2023-08-09 16:20:45.392551,-140.0
2023-08-09 16:20:45.400241,-143.0
2023-08-09 16:20:45.407931,-143.0
2023-08-09 16:20:45.415622,-138.0
2023-08-09 16:20:45.423312,-133.0
2023-08-09 16:20:45.431002,-124.0
2023-08-09 16:20:45.438693,-119.0
2023-08-09 16:20:45.446383,-114.0
2023-08-09 16:20:45.454073,-114.0
2023-08-09 16:20:45.461764,-109.0
2023-08-09 16:20:45.469454,-100.0
2023-08-09 16:20:45.477144,-93.0
2023-08-09 16:20:45.484835,-88.0
2023-08-09 16:20:45.492525,-88.0
2023-08-09 16:20:45.500215,-83.0
2023-08-09 16:20:45.507906,-83.0
2023-08-09 16:20:45.515596,-83.0
2023-08-09 16:20:45.523286,-76.0
2023-08-09 16:20:45.530977,-69.0
2023-08-09 16:20:45.538667,-74.0
2023-08-09 16:20:45.546357,-76.0
2023-08-09 16:20:45.554048,-78.0
2023-08-09 16:20:45.561738,-83.0
2023-08-09 16:20:45.569428,-88.0
2023-08-09 16:20:45.577119,-85.0
2023-08-09 16:20:45.584809,-88.0
2023-08-09 16:20:45.592499,-95.0
2023-08-09 16:20:45.600190,-93.0
2023-08-09 16:20:45.607880,-85.0
2023-08-09 16:20:45.615570,-85.0
2023-08-09 16:20:45.623261,-85.0
2023-08-09 16:20:45.630951,-85.0
2023-08-09 16:20:45.638641,-93.0
2023-08-09 16:20:45.646332,-97.0
2023-08-09 16:20:45.654022,-85.0
2023-08-09 16:20:45.661712,-62.0
2023-08-09 16:20:45.669403,-38.0
2023-08-09 16:20:45.677093,-33.0
2023-08-09 16:20:45.684783,-50.0
2023-08-09 16:20:45.692474,-59.0
2023-08-09 16:20:45.700164,-57.0
2023-08-09 16:20:45.707854,-59.0
2023-08-09 16:20:45.715545,-74.0
2023-08-09 16:20:45.723235,-90.0
2023-08-09 16:20:45.730925,-97.0
2023-08-09 16:20:45.738616,-93.0
2023-08-09 16:20:45.746306,-88.0
2023-08-09 16:20:45.753996,-88.0
2023-08-09 16:20:45.761686,-90.0
2023-08-09 16:20:45.769377,-90.0
2023-08-09 16:20:45.777067,-88.0
2023-08-09 16:20:45.784757,-83.0
2023-08-09 16:20:45.792448,-78.0
2023-08-09 16:20:45.800138,-81.0
2023-08-09 16:20:45.807828,-102.0
2023-08-09 16:20:45.815519,-121.0
2023-08-09 16:20:45.823209,-38.0
2023-08-09 16:20:45.830899,203.0
2023-08-09 16:20:45.838590,518.0
2023-08-09 16:20:45.846280,649.0
2023-08-09 16:20:45.853970,332.0
2023-08-09 16:20:45.861661,-140.0
2023-08-09 16:20:45.869351,-277.0
2023-08-09 16:20:45.877041,-238.0
2023-08-09 16:20:45.884732,-236.0
2023-08-09 16:20:45.892422,-155.0
2023-08-09 16:20:45.900112,-69.0
2023-08-09 16:20:45.907803,-90.0
2023-08-09 16:20:45.915493,-107.0
2023-08-09 16:20:45.923183,-74.0
2023-08-09 16:20:45.930874,-59.0
2023-08-09 16:20:45.938564,-64.0
2023-08-09 16:20:45.946254,-54.0
2023-08-09 16:20:45.953945,-40.0
2023-08-09 16:20:45.961635,-28.0
2023-08-09 16:20:45.969325,-19.0
2023-08-09 16:20:45.977016,-2.0
2023-08-09 16:20:45.984706,16.0
2023-08-09 16:20:45.992396,35.0
2023-08-09 16:20:46.000087,57.0
2023-08-09 16:20:46.007777,76.0
2023-08-09 16:20:46.015467,95.0
2023-08-09 16:20:46.023158,112.0
2023-08-09 16:20:46.030848,121.0
2023-08-09 16:20:46.038538,126.0
2023-08-09 16:20:46.046229,117.0
2023-08-09 16:20:46.053919,88.0
2023-08-09 16:20:46.061609,45.0
2023-08-09 16:20:46.069300,2.0
2023-08-09 16:20:46.076990,-40.0
2023-08-09 16:20:46.084680,-81.0
2023-08-09 16:20:46.092371,-112.0
2023-08-09 16:20:46.100061,-128.0
2023-08-09 16:20:46.107751,-140.0
2023-08-09 16:20:46.115442,-150.0
2023-08-09 16:20:46.123132,-152.0
2023-08-09 16:20:46.130822,-152.0
2023-08-09 16:20:46.138513,-152.0
2023-08-09 16:20:46.146203,-150.0
2023-08-09 16:20:46.153893,-138.0
2023-08-09 16:20:46.161584,-131.0
2023-08-09 16:20:46.169274,-128.0
2023-08-09 16:20:46.176964,-126.0
2023-08-09 16:20:46.184655,-121.0
2023-08-09 16:20:46.192345,-117.0
2023-08-09 16:20:46.200035,-112.0
2023-08-09 16:20:46.207726,-105.0
2023-08-09 16:20:46.215416,-97.0
2023-08-09 16:20:46.223106,-95.0
2023-08-09 16:20:46.230797,-95.0
2023-08-09 16:20:46.238487,-93.0
2023-08-09 16:20:46.246177,-88.0
2023-08-09 16:20:46.253868,-83.0
2023-08-09 16:20:46.261558,-78.0
2023-08-09 16:20:46.269248,-78.0
2023-08-09 16:20:46.276939,-81.0
2023-08-09 16:20:46.284629,-83.0
2023-08-09 16:20:46.292319,-85.0
2023-08-09 16:20:46.300010,-81.0
2023-08-09 16:20:46.307700,-78.0
2023-08-09 16:20:46.315390,-83.0
2023-08-09 16:20:46.323081,-90.0
2023-08-09 16:20:46.330771,-85.0
2023-08-09 16:20:46.338461,-76.0
2023-08-09 16:20:46.346152,-81.0
2023-08-09 16:20:46.353842,-90.0
2023-08-09 16:20:46.361532,-88.0
2023-08-09 16:20:46.369223,-81.0
2023-08-09 16:20:46.376913,-83.0
2023-08-09 16:20:46.384603,-85.0
2023-08-09 16:20:46.392294,-83.0
2023-08-09 16:20:46.399984,-83.0
2023-08-09 16:20:46.407674,-83.0
2023-08-09 16:20:46.415365,-81.0
2023-08-09 16:20:46.423055,-83.0
2023-08-09 16:20:46.430745,-81.0
2023-08-09 16:20:46.438436,-66.0
2023-08-09 16:20:46.446126,-47.0
2023-08-09 16:20:46.453816,-38.0
2023-08-09 16:20:46.461506,-35.0
2023-08-09 16:20:46.469197,-47.0
2023-08-09 16:20:46.476887,-57.0
2023-08-09 16:20:46.484577,-54.0
2023-08-09 16:20:46.492268,-59.0
2023-08-09 16:20:46.499958,-76.0
2023-08-09 16:20:46.507648,-88.0
2023-08-09 16:20:46.515339,-93.0
2023-08-09 16:20:46.523029,-88.0
2023-08-09 16:20:46.530719,-81.0
2023-08-09 16:20:46.538410,-81.0
2023-08-09 16:20:46.546100,-81.0
2023-08-09 16:20:46.553790,-81.0
2023-08-09 16:20:46.561481,-85.0
2023-08-09 16:20:46.569171,-90.0
2023-08-09 16:20:46.576861,-85.0
2023-08-09 16:20:46.584552,-93.0
2023-08-09 16:20:46.592242,-117.0
2023-08-09 16:20:46.599932,-114.0
2023-08-09 16:20:46.607623,2.0
2023-08-09 16:20:46.615313,260.0
2023-08-09 16:20:46.623003,566.0
2023-08-09 16:20:46.630694,613.0
2023-08-09 16:20:46.638384,229.0
2023-08-09 16:20:46.646074,-174.0
2023-08-09 16:20:46.653765,-243.0
2023-08-09 16:20:46.661455,-212.0
2023-08-09 16:20:46.669145,-193.0
2023-08-09 16:20:46.676836,-112.0
2023-08-09 16:20:46.684526,-71.0
2023-08-09 16:20:46.692216,-95.0
2023-08-09 16:20:46.699907,-85.0
2023-08-09 16:20:46.707597,-57.0
2023-08-09 16:20:46.715287,-54.0
2023-08-09 16:20:46.722978,-50.0
2023-08-09 16:20:46.730668,-35.0
2023-08-09 16:20:46.738358,-26.0
2023-08-09 16:20:46.746049,-23.0
2023-08-09 16:20:46.753739,-9.0
2023-08-09 16:20:46.761429,7.0
2023-08-09 16:20:46.769120,23.0
2023-08-09 16:20:46.776810,40.0
2023-08-09 16:20:46.784500,57.0
2023-08-09 16:20:46.792191,76.0
2023-08-09 16:20:46.799881,93.0
2023-08-09 16:20:46.807571,109.0
2023-08-09 16:20:46.815262,124.0
2023-08-09 16:20:46.822952,119.0
2023-08-09 16:20:46.830642,105.0
2023-08-09 16:20:46.838333,90.0
2023-08-09 16:20:46.846023,66.0
2023-08-09 16:20:46.853713,26.0
2023-08-09 16:20:46.861404,-16.0
2023-08-09 16:20:46.869094,-50.0
2023-08-09 16:20:46.876784,-78.0
2023-08-09 16:20:46.884475,-102.0
2023-08-09 16:20:46.892165,-114.0
2023-08-09 16:20:46.899855,-119.0
2023-08-09 16:20:46.907546,-124.0
2023-08-09 16:20:46.915236,-124.0
2023-08-09 16:20:46.922926,-121.0
2023-08-09 16:20:46.930617,-119.0
2023-08-09 16:20:46.938307,-117.0
2023-08-09 16:20:46.945997,-112.0
2023-08-09 16:20:46.953688,-102.0
2023-08-09 16:20:46.961378,-95.0
2023-08-09 16:20:46.969068,-93.0
2023-08-09 16:20:46.976759,-93.0
2023-08-09 16:20:46.984449,-93.0
2023-08-09 16:20:46.992139,-100.0
2023-08-09 16:20:46.999830,-100.0
2023-08-09 16:20:47.007520,-93.0
2023-08-09 16:20:47.015210,-88.0
2023-08-09 16:20:47.022901,-88.0
2023-08-09 16:20:47.030591,-88.0
2023-08-09 16:20:47.038281,-88.0
2023-08-09 16:20:47.045972,-85.0
2023-08-09 16:20:47.053662,-85.0
2023-08-09 16:20:47.061352,-90.0
2023-08-09 16:20:47.069043,-95.0
2023-08-09 16:20:47.076733,-97.0
2023-08-09 16:20:47.084423,-102.0
2023-08-09 16:20:47.092114,-102.0
2023-08-09 16:20:47.099804,-100.0
2023-08-09 16:20:47.107494,-97.0
2023-08-09 16:20:47.115185,-95.0
2023-08-09 16:20:47.122875,-97.0
2023-08-09 16:20:47.130565,-102.0
2023-08-09 16:20:47.138255,-100.0
2023-08-09 16:20:47.145946,-95.0
2023-08-09 16:20:47.153636,-95.0
2023-08-09 16:20:47.161326,-97.0
2023-08-09 16:20:47.169017,-93.0
2023-08-09 16:20:47.176707,-88.0
2023-08-09 16:20:47.184397,-88.0
2023-08-09 16:20:47.192088,-90.0
2023-08-09 16:20:47.199778,-85.0
2023-08-09 16:20:47.207468,-83.0
2023-08-09 16:20:47.215159,-88.0
2023-08-09 16:20:47.222849,-88.0
2023-08-09 16:20:47.230539,-83.0
2023-08-09 16:20:47.238230,-81.0
2023-08-09 16:20:47.245920,-66.0
2023-08-09 16:20:47.253610,-40.0
2023-08-09 16:20:47.261301,-23.0
2023-08-09 16:20:47.268991,-31.0
2023-08-09 16:20:47.276681,-47.0
2023-08-09 16:20:47.284372,-47.0
2023-08-09 16:20:47.292062,-45.0
2023-08-09 16:20:47.299752,-57.0
2023-08-09 16:20:47.307443,-76.0
2023-08-09 16:20:47.315133,-88.0
2023-08-09 16:20:47.322823,-93.0
2023-08-09 16:20:47.330514,-85.0
2023-08-09 16:20:47.338204,-81.0
2023-08-09 16:20:47.345894,-81.0
2023-08-09 16:20:47.353585,-78.0
2023-08-09 16:20:47.361275,-78.0
2023-08-09 16:20:47.368965,-78.0
2023-08-09 16:20:47.376656,-81.0
2023-08-09 16:20:47.384346,-85.0
2023-08-09 16:20:47.392036,-97.0
2023-08-09 16:20:47.399727,-117.0
2023-08-09 16:20:47.407417,-76.0
2023-08-09 16:20:47.415107,107.0
2023-08-09 16:20:47.422798,406.0
2023-08-09 16:20:47.430488,628.0
2023-08-09 16:20:47.438178,472.0
2023-08-09 16:20:47.445869,21.0
2023-08-09 16:20:47.453559,-229.0
2023-08-09 16:20:47.461249,-234.0
2023-08-09 16:20:47.468940,-243.0
2023-08-09 16:20:47.476630,-193.0
2023-08-09 16:20:47.484320,-90.0
2023-08-09 16:20:47.492011,-78.0
2023-08-09 16:20:47.499701,-100.0
2023-08-09 16:20:47.507391,-74.0
2023-08-09 16:20:47.515082,-52.0
2023-08-09 16:20:47.522772,-54.0
2023-08-09 16:20:47.530462,-47.0
2023-08-09 16:20:47.538153,-33.0
2023-08-09 16:20:47.545843,-28.0
2023-08-09 16:20:47.553533,-21.0
2023-08-09 16:20:47.561224,-9.0
2023-08-09 16:20:47.568914,-2.0
2023-08-09 16:20:47.576604,2.0
2023-08-09 16:20:47.584295,14.0
2023-08-09 16:20:47.591985,38.0
2023-08-09 16:20:47.599675,62.0
2023-08-09 16:20:47.607366,78.0
2023-08-09 16:20:47.615056,85.0
2023-08-09 16:20:47.622746,88.0
2023-08-09 16:20:47.630437,81.0
2023-08-09 16:20:47.638127,64.0
2023-08-09 16:20:47.645817,40.0
2023-08-09 16:20:47.653508,9.0
2023-08-09 16:20:47.661198,-28.0
2023-08-09 16:20:47.668888,-69.0
2023-08-09 16:20:47.676579,-97.0
2023-08-09 16:20:47.684269,-124.0
2023-08-09 16:20:47.691959,-145.0
2023-08-09 16:20:47.699650,-162.0
2023-08-09 16:20:47.707340,-169.0
2023-08-09 16:20:47.715030,-169.0
2023-08-09 16:20:47.722721,-164.0
2023-08-09 16:20:47.730411,-167.0
2023-08-09 16:20:47.738101,-169.0
2023-08-09 16:20:47.745792,-160.0
2023-08-09 16:20:47.753482,-148.0
2023-08-09 16:20:47.761172,-145.0
2023-08-09 16:20:47.768863,-143.0
2023-08-09 16:20:47.776553,-140.0
2023-08-09 16:20:47.784243,-140.0
2023-08-09 16:20:47.791934,-133.0
2023-08-09 16:20:47.799624,-128.0
2023-08-09 16:20:47.807314,-131.0
2023-08-09 16:20:47.815004,-131.0
2023-08-09 16:20:47.822695,-124.0
2023-08-09 16:20:47.830385,-121.0
2023-08-09 16:20:47.838075,-117.0
2023-08-09 16:20:47.845766,-121.0
2023-08-09 16:20:47.853456,-128.0
2023-08-09 16:20:47.861146,-124.0
2023-08-09 16:20:47.868837,-114.0
2023-08-09 16:20:47.876527,-109.0
2023-08-09 16:20:47.884217,-109.0
2023-08-09 16:20:47.891908,-112.0
2023-08-09 16:20:47.899598,-112.0
2023-08-09 16:20:47.907288,-107.0
2023-08-09 16:20:47.914979,-105.0
2023-08-09 16:20:47.922669,-102.0
2023-08-09 16:20:47.930359,-105.0
2023-08-09 16:20:47.938050,-105.0
2023-08-09 16:20:47.945740,-102.0
2023-08-09 16:20:47.953430,-95.0
2023-08-09 16:20:47.961121,-90.0
2023-08-09 16:20:47.968811,-88.0
2023-08-09 16:20:47.976501,-88.0
2023-08-09 16:20:47.984192,-90.0
2023-08-09 16:20:47.991882,-88.0
2023-08-09 16:20:47.999572,-81.0
2023-08-09 16:20:48.007263,-81.0
2023-08-09 16:20:48.014953,-85.0
2023-08-09 16:20:48.022643,-88.0
2023-08-09 16:20:48.030334,-85.0
2023-08-09 16:20:48.038024,-74.0
2023-08-09 16:20:48.045714,-47.0
2023-08-09 16:20:48.053405,-26.0
2023-08-09 16:20:48.061095,-21.0
2023-08-09 16:20:48.068785,-38.0
2023-08-09 16:20:48.076476,-50.0
2023-08-09 16:20:48.084166,-50.0
2023-08-09 16:20:48.091856,-54.0
2023-08-09 16:20:48.099547,-71.0
2023-08-09 16:20:48.107237,-85.0
2023-08-09 16:20:48.114927,-90.0
2023-08-09 16:20:48.122618,-85.0
2023-08-09 16:20:48.130308,-83.0
2023-08-09 16:20:48.137998,-85.0
2023-08-09 16:20:48.145689,-83.0
2023-08-09 16:20:48.153379,-83.0
2023-08-09 16:20:48.161069,-88.0
2023-08-09 16:20:48.168760,-90.0
2023-08-09 16:20:48.176450,-85.0
2023-08-09 16:20:48.184140,-93.0
2023-08-09 16:20:48.191831,-119.0
2023-08-09 16:20:48.199521,-90.0
2023-08-09 16:20:48.207211,85.0
2023-08-09 16:20:48.214902,389.0
2023-08-09 16:20:48.222592,635.0
2023-08-09 16:20:48.230282,513.0
2023-08-09 16:20:48.237973,42.0
2023-08-09 16:20:48.245663,-248.0
2023-08-09 16:20:48.253353,-246.0
2023-08-09 16:20:48.261044,-241.0
2023-08-09 16:20:48.268734,-203.0
2023-08-09 16:20:48.276424,-90.0
2023-08-09 16:20:48.284115,-62.0
2023-08-09 16:20:48.291805,-88.0
2023-08-09 16:20:48.299495,-66.0
2023-08-09 16:20:48.307186,-45.0
2023-08-09 16:20:48.314876,-50.0
2023-08-09 16:20:48.322566,-42.0
2023-08-09 16:20:48.330257,-23.0
2023-08-09 16:20:48.337947,-16.0
2023-08-09 16:20:48.345637,-9.0
2023-08-09 16:20:48.353328,4.0
2023-08-09 16:20:48.361018,19.0
2023-08-09 16:20:48.368708,35.0
2023-08-09 16:20:48.376399,57.0
2023-08-09 16:20:48.384089,78.0
2023-08-09 16:20:48.391779,95.0
2023-08-09 16:20:48.399470,109.0
2023-08-09 16:20:48.407160,121.0
2023-08-09 16:20:48.414850,126.0
2023-08-09 16:20:48.422541,124.0
2023-08-09 16:20:48.430231,109.0
2023-08-09 16:20:48.437921,81.0
2023-08-09 16:20:48.445612,42.0
2023-08-09 16:20:48.453302,0.0
2023-08-09 16:20:48.460992,-38.0
2023-08-09 16:20:48.468683,-71.0
2023-08-09 16:20:48.476373,-105.0
2023-08-09 16:20:48.484063,-126.0
2023-08-09 16:20:48.491754,-136.0
2023-08-09 16:20:48.499444,-145.0
2023-08-09 16:20:48.507134,-150.0
2023-08-09 16:20:48.514824,-152.0
2023-08-09 16:20:48.522515,-150.0
2023-08-09 16:20:48.530205,-148.0
2023-08-09 16:20:48.537895,-148.0
2023-08-09 16:20:48.545586,-143.0
2023-08-09 16:20:48.553276,-138.0
2023-08-09 16:20:48.560966,-128.0
2023-08-09 16:20:48.568657,-126.0
2023-08-09 16:20:48.576347,-126.0
2023-08-09 16:20:48.584037,-124.0
2023-08-09 16:20:48.591728,-117.0
2023-08-09 16:20:48.599418,-114.0
2023-08-09 16:20:48.607108,-117.0
2023-08-09 16:20:48.614799,-114.0
2023-08-09 16:20:48.622489,-109.0
2023-08-09 16:20:48.630179,-109.0
2023-08-09 16:20:48.637870,-105.0
2023-08-09 16:20:48.645560,-102.0
2023-08-09 16:20:48.653250,-102.0
2023-08-09 16:20:48.660941,-102.0
2023-08-09 16:20:48.668631,-102.0
2023-08-09 16:20:48.676321,-102.0
2023-08-09 16:20:48.684012,-100.0
2023-08-09 16:20:48.691702,-97.0
2023-08-09 16:20:48.699392,-102.0
2023-08-09 16:20:48.707083,-107.0
2023-08-09 16:20:48.714773,-102.0
2023-08-09 16:20:48.722463,-100.0
2023-08-09 16:20:48.730154,-105.0
2023-08-09 16:20:48.737844,-102.0
2023-08-09 16:20:48.745534,-93.0
2023-08-09 16:20:48.753225,-93.0
2023-08-09 16:20:48.760915,-95.0
2023-08-09 16:20:48.768605,-90.0
2023-08-09 16:20:48.776296,-83.0
2023-08-09 16:20:48.783986,-85.0
2023-08-09 16:20:48.791676,-90.0
2023-08-09 16:20:48.799367,-88.0
2023-08-09 16:20:48.807057,-83.0
2023-08-09 16:20:48.814747,-81.0
2023-08-09 16:20:48.822438,-76.0
2023-08-09 16:20:48.830128,-71.0
2023-08-09 16:20:48.837818,-57.0
2023-08-09 16:20:48.845509,-28.0
2023-08-09 16:20:48.853199,-16.0
2023-08-09 16:20:48.860889,-35.0
2023-08-09 16:20:48.868580,-50.0
2023-08-09 16:20:48.876270,-42.0
2023-08-09 16:20:48.883960,-42.0
2023-08-09 16:20:48.891651,-54.0
2023-08-09 16:20:48.899341,-71.0
2023-08-09 16:20:48.907031,-81.0
2023-08-09 16:20:48.914722,-71.0
2023-08-09 16:20:48.922412,-69.0
2023-08-09 16:20:48.930102,-76.0
2023-08-09 16:20:48.937793,-71.0
2023-08-09 16:20:48.945483,-57.0
2023-08-09 16:20:48.953173,-59.0
2023-08-09 16:20:48.960864,-71.0
2023-08-09 16:20:48.968554,-71.0
2023-08-09 16:20:48.976244,-71.0
2023-08-09 16:20:48.983935,-95.0
2023-08-09 16:20:48.991625,-85.0
2023-08-09 16:20:48.999315,62.0
2023-08-09 16:20:49.007006,348.0
2023-08-09 16:20:49.014696,606.0
2023-08-09 16:20:49.022386,535.0
2023-08-09 16:20:49.030077,112.0
2023-08-09 16:20:49.037767,-205.0
2023-08-09 16:20:49.045457,-231.0
2023-08-09 16:20:49.053148,-212.0
2023-08-09 16:20:49.060838,-171.0
2023-08-09 16:20:49.068528,-85.0
2023-08-09 16:20:49.076219,-66.0
2023-08-09 16:20:49.083909,-83.0
2023-08-09 16:20:49.091599,-62.0
2023-08-09 16:20:49.099290,-59.0
2023-08-09 16:20:49.106980,-71.0
2023-08-09 16:20:49.114670,-47.0
2023-08-09 16:20:49.122361,-26.0
2023-08-09 16:20:49.130051,-31.0
2023-08-09 16:20:49.137741,-26.0
2023-08-09 16:20:49.145432,-7.0
2023-08-09 16:20:49.153122,2.0
2023-08-09 16:20:49.160812,16.0
2023-08-09 16:20:49.168503,42.0
2023-08-09 16:20:49.176193,69.0
2023-08-09 16:20:49.183883,83.0
2023-08-09 16:20:49.191573,88.0
2023-08-09 16:20:49.199264,97.0
2023-08-09 16:20:49.206954,112.0
2023-08-09 16:20:49.214644,107.0
2023-08-09 16:20:49.222335,93.0
2023-08-09 16:20:49.230025,71.0
2023-08-09 16:20:49.237715,28.0
2023-08-09 16:20:49.245406,-16.0
2023-08-09 16:20:49.253096,-50.0
2023-08-09 16:20:49.260786,-81.0
2023-08-09 16:20:49.268477,-109.0
2023-08-09 16:20:49.276167,-136.0
2023-08-09 16:20:49.283857,-152.0
2023-08-09 16:20:49.291548,-160.0
2023-08-09 16:20:49.299238,-162.0
2023-08-09 16:20:49.306928,-157.0
2023-08-09 16:20:49.314619,-152.0
2023-08-09 16:20:49.322309,-148.0
2023-08-09 16:20:49.329999,-143.0
2023-08-09 16:20:49.337690,-138.0
2023-08-09 16:20:49.345380,-136.0
2023-08-09 16:20:49.353070,-133.0
2023-08-09 16:20:49.360761,-128.0
2023-08-09 16:20:49.368451,-121.0
2023-08-09 16:20:49.376141,-117.0
2023-08-09 16:20:49.383832,-117.0
2023-08-09 16:20:49.391522,-112.0
2023-08-09 16:20:49.399212,-95.0
2023-08-09 16:20:49.406903,-95.0
2023-08-09 16:20:49.414593,-105.0
2023-08-09 16:20:49.422283,-95.0
2023-08-09 16:20:49.429974,-83.0
2023-08-09 16:20:49.437664,-83.0
2023-08-09 16:20:49.445354,-90.0
2023-08-09 16:20:49.453045,-90.0
2023-08-09 16:20:49.460735,-83.0
2023-08-09 16:20:49.468425,-88.0
2023-08-09 16:20:49.476116,-95.0
2023-08-09 16:20:49.483806,-83.0
2023-08-09 16:20:49.491496,-74.0
2023-08-09 16:20:49.499187,-81.0
2023-08-09 16:20:49.506877,-93.0
2023-08-09 16:20:49.514567,-90.0
2023-08-09 16:20:49.522258,-78.0
2023-08-09 16:20:49.529948,-76.0
2023-08-09 16:20:49.537638,-81.0
2023-08-09 16:20:49.545329,-88.0
2023-08-09 16:20:49.553019,-90.0
2023-08-09 16:20:49.560709,-90.0
2023-08-09 16:20:49.568400,-83.0
2023-08-09 16:20:49.576090,-74.0
2023-08-09 16:20:49.583780,-69.0
2023-08-09 16:20:49.591471,-76.0
2023-08-09 16:20:49.599161,-81.0
2023-08-09 16:20:49.606851,-74.0
2023-08-09 16:20:49.614542,-52.0
2023-08-09 16:20:49.622232,-23.0
2023-08-09 16:20:49.629922,-14.0
2023-08-09 16:20:49.637613,-33.0
2023-08-09 16:20:49.645303,-47.0
2023-08-09 16:20:49.652993,-45.0
2023-08-09 16:20:49.660684,-38.0
2023-08-09 16:20:49.668374,-50.0
2023-08-09 16:20:49.676064,-78.0
2023-08-09 16:20:49.683755,-90.0
2023-08-09 16:20:49.691445,-74.0
2023-08-09 16:20:49.699135,-66.0
2023-08-09 16:20:49.706826,-83.0
2023-08-09 16:20:49.714516,-93.0
2023-08-09 16:20:49.722206,-88.0
2023-08-09 16:20:49.729897,-85.0
2023-08-09 16:20:49.737587,-83.0
2023-08-09 16:20:49.745277,-78.0
2023-08-09 16:20:49.752968,-76.0
2023-08-09 16:20:49.760658,-102.0
2023-08-09 16:20:49.768348,-126.0
2023-08-09 16:20:49.776039,-38.0
2023-08-09 16:20:49.783729,191.0
2023-08-09 16:20:49.791419,460.0
2023-08-09 16:20:49.799110,544.0
2023-08-09 16:20:49.806800,250.0
2023-08-09 16:20:49.814490,-136.0
2023-08-09 16:20:49.822181,-248.0
2023-08-09 16:20:49.829871,-253.0
2023-08-09 16:20:49.837561,-269.0
2023-08-09 16:20:49.845252,-176.0
2023-08-09 16:20:49.852942,-90.0
2023-08-09 16:20:49.860632,-105.0
2023-08-09 16:20:49.868323,-109.0
2023-08-09 16:20:49.876013,-83.0
2023-08-09 16:20:49.883703,-76.0
2023-08-09 16:20:49.891393,-78.0
2023-08-09 16:20:49.899084,-69.0
2023-08-09 16:20:49.906774,-50.0
2023-08-09 16:20:49.914464,-38.0
2023-08-09 16:20:49.922155,-35.0
2023-08-09 16:20:49.929845,-26.0
2023-08-09 16:20:49.937535,-9.0
2023-08-09 16:20:49.945226,9.0
2023-08-09 16:20:49.952916,26.0
2023-08-09 16:20:49.960606,40.0
2023-08-09 16:20:49.968297,57.0
2023-08-09 16:20:49.975987,71.0
2023-08-09 16:20:49.983677,85.0
2023-08-09 16:20:49.991368,93.0
2023-08-09 16:20:49.999058,81.0
2023-08-09 16:20:50.006748,57.0
2023-08-09 16:20:50.014439,31.0
2023-08-09 16:20:50.022129,-4.0
2023-08-09 16:20:50.029819,-47.0
2023-08-09 16:20:50.037510,-85.0
2023-08-09 16:20:50.045200,-114.0
2023-08-09 16:20:50.052890,-138.0
2023-08-09 16:20:50.060581,-157.0
2023-08-09 16:20:50.068271,-167.0
2023-08-09 16:20:50.075961,-174.0
2023-08-09 16:20:50.083652,-176.0
2023-08-09 16:20:50.091342,-171.0
2023-08-09 16:20:50.099032,-171.0
2023-08-09 16:20:50.106723,-174.0
2023-08-09 16:20:50.114413,-160.0
2023-08-09 16:20:50.122103,-155.0
2023-08-09 16:20:50.129794,-167.0
2023-08-09 16:20:50.137484,-167.0
2023-08-09 16:20:50.145174,-152.0
2023-08-09 16:20:50.152865,-140.0
2023-08-09 16:20:50.160555,-138.0
2023-08-09 16:20:50.168245,-140.0
2023-08-09 16:20:50.175936,-136.0
2023-08-09 16:20:50.183626,-128.0
2023-08-09 16:20:50.191316,-128.0
2023-08-09 16:20:50.199007,-126.0
2023-08-09 16:20:50.206697,-119.0
2023-08-09 16:20:50.214387,-117.0
2023-08-09 16:20:50.222078,-119.0
2023-08-09 16:20:50.229768,-124.0
2023-08-09 16:20:50.237458,-124.0
2023-08-09 16:20:50.245149,-117.0
2023-08-09 16:20:50.252839,-112.0
2023-08-09 16:20:50.260529,-117.0
2023-08-09 16:20:50.268220,-124.0
2023-08-09 16:20:50.275910,-124.0
2023-08-09 16:20:50.283600,-114.0
2023-08-09 16:20:50.291291,-107.0
2023-08-09 16:20:50.298981,-114.0
2023-08-09 16:20:50.306671,-119.0
2023-08-09 16:20:50.314362,-124.0
2023-08-09 16:20:50.322052,-119.0
2023-08-09 16:20:50.329742,-102.0
2023-08-09 16:20:50.337433,-97.0
2023-08-09 16:20:50.345123,-112.0
2023-08-09 16:20:50.352813,-121.0
2023-08-09 16:20:50.360504,-105.0
2023-08-09 16:20:50.368194,-62.0
2023-08-09 16:20:50.375884,-38.0
2023-08-09 16:20:50.383575,-54.0
2023-08-09 16:20:50.391265,-76.0
2023-08-09 16:20:50.398955,-81.0
2023-08-09 16:20:50.406646,-81.0
2023-08-09 16:20:50.414336,-97.0
2023-08-09 16:20:50.422026,-117.0
2023-08-09 16:20:50.429717,-119.0
2023-08-09 16:20:50.437407,-117.0
2023-08-09 16:20:50.445097,-117.0
2023-08-09 16:20:50.452788,-114.0
2023-08-09 16:20:50.460478,-117.0
2023-08-09 16:20:50.468168,-119.0
2023-08-09 16:20:50.475859,-112.0
2023-08-09 16:20:50.483549,-107.0
2023-08-09 16:20:50.491239,-109.0
2023-08-09 16:20:50.498930,-107.0
2023-08-09 16:20:50.506620,-117.0
2023-08-09 16:20:50.514310,-133.0
2023-08-09 16:20:50.522001,-52.0
2023-08-09 16:20:50.529691,183.0
2023-08-09 16:20:50.537381,482.0
2023-08-09 16:20:50.545072,573.0
2023-08-09 16:20:50.552762,250.0
2023-08-09 16:20:50.560452,-157.0
2023-08-09 16:20:50.568142,-255.0
2023-08-09 16:20:50.575833,-248.0
2023-08-09 16:20:50.583523,-267.0
2023-08-09 16:20:50.591213,-171.0
2023-08-09 16:20:50.598904,-76.0
2023-08-09 16:20:50.606594,-83.0
2023-08-09 16:20:50.614284,-85.0
2023-08-09 16:20:50.621975,-71.0
2023-08-09 16:20:50.629665,-76.0
2023-08-09 16:20:50.637355,-64.0
2023-08-09 16:20:50.645046,-35.0
2023-08-09 16:20:50.652736,-26.0
2023-08-09 16:20:50.660426,-19.0
2023-08-09 16:20:50.668117,-9.0
2023-08-09 16:20:50.675807,-2.0
2023-08-09 16:20:50.683497,9.0
2023-08-09 16:20:50.691188,38.0
2023-08-09 16:20:50.698878,62.0
2023-08-09 16:20:50.706568,69.0
2023-08-09 16:20:50.714259,85.0
2023-08-09 16:20:50.721949,117.0
2023-08-09 16:20:50.729639,124.0
2023-08-09 16:20:50.737330,117.0
2023-08-09 16:20:50.745020,107.0
2023-08-09 16:20:50.752710,83.0
2023-08-09 16:20:50.760401,38.0
2023-08-09 16:20:50.768091,4.0
2023-08-09 16:20:50.775781,-28.0
2023-08-09 16:20:50.783472,-78.0
2023-08-09 16:20:50.791162,-119.0
2023-08-09 16:20:50.798852,-133.0
2023-08-09 16:20:50.806543,-143.0
2023-08-09 16:20:50.814233,-152.0
2023-08-09 16:20:50.821923,-152.0
2023-08-09 16:20:50.829614,-150.0
2023-08-09 16:20:50.837304,-152.0
2023-08-09 16:20:50.844994,-150.0
2023-08-09 16:20:50.852685,-143.0
2023-08-09 16:20:50.860375,-138.0
2023-08-09 16:20:50.868065,-128.0
2023-08-09 16:20:50.875756,-117.0
2023-08-09 16:20:50.883446,-109.0
2023-08-09 16:20:50.891136,-102.0
2023-08-09 16:20:50.898827,-95.0
2023-08-09 16:20:50.906517,-95.0
2023-08-09 16:20:50.914207,-93.0
2023-08-09 16:20:50.921898,-88.0
2023-08-09 16:20:50.929588,-83.0
2023-08-09 16:20:50.937278,-83.0
2023-08-09 16:20:50.944969,-83.0
2023-08-09 16:20:50.952659,-85.0
2023-08-09 16:20:50.960349,-83.0
2023-08-09 16:20:50.968040,-81.0
2023-08-09 16:20:50.975730,-83.0
2023-08-09 16:20:50.983420,-83.0
2023-08-09 16:20:50.991111,-81.0
2023-08-09 16:20:50.998801,-83.0
2023-08-09 16:20:51.006491,-85.0
2023-08-09 16:20:51.014182,-83.0
2023-08-09 16:20:51.021872,-74.0
2023-08-09 16:20:51.029562,-71.0
2023-08-09 16:20:51.037253,-74.0
2023-08-09 16:20:51.044943,-83.0
2023-08-09 16:20:51.052633,-90.0
2023-08-09 16:20:51.060324,-95.0
2023-08-09 16:20:51.068014,-81.0
2023-08-09 16:20:51.075704,-57.0
2023-08-09 16:20:51.083395,-42.0
2023-08-09 16:20:51.091085,-14.0
2023-08-09 16:20:51.098775,4.0
2023-08-09 16:20:51.106466,-19.0
2023-08-09 16:20:51.114156,-40.0
2023-08-09 16:20:51.121846,-40.0
2023-08-09 16:20:51.129537,-47.0
2023-08-09 16:20:51.137227,-62.0
2023-08-09 16:20:51.144917,-76.0
2023-08-09 16:20:51.152608,-81.0
2023-08-09 16:20:51.160298,-78.0
2023-08-09 16:20:51.167988,-74.0
2023-08-09 16:20:51.175679,-74.0
2023-08-09 16:20:51.183369,-76.0
2023-08-09 16:20:51.191059,-76.0
2023-08-09 16:20:51.198750,-69.0
2023-08-09 16:20:51.206440,-62.0
2023-08-09 16:20:51.214130,-62.0
2023-08-09 16:20:51.221821,-71.0
2023-08-09 16:20:51.229511,-97.0
2023-08-09 16:20:51.237201,-102.0
2023-08-09 16:20:51.244892,14.0
2023-08-09 16:20:51.252582,277.0
2023-08-09 16:20:51.260272,546.0
2023-08-09 16:20:51.267962,556.0
2023-08-09 16:20:51.275653,188.0
2023-08-09 16:20:51.283343,-157.0
2023-08-09 16:20:51.291033,-214.0
2023-08-09 16:20:51.298724,-226.0
2023-08-09 16:20:51.306414,-231.0
2023-08-09 16:20:51.314104,-121.0
2023-08-09 16:20:51.321795,-52.0
2023-08-09 16:20:51.329485,-76.0
2023-08-09 16:20:51.337175,-71.0
2023-08-09 16:20:51.344866,-42.0
2023-08-09 16:20:51.352556,-42.0
2023-08-09 16:20:51.360246,-45.0
2023-08-09 16:20:51.367937,-26.0
2023-08-09 16:20:51.375627,-11.0
2023-08-09 16:20:51.383317,-7.0
2023-08-09 16:20:51.391008,9.0
2023-08-09 16:20:51.398698,19.0
2023-08-09 16:20:51.406388,31.0
2023-08-09 16:20:51.414079,57.0
2023-08-09 16:20:51.421769,81.0
2023-08-09 16:20:51.429459,93.0
2023-08-09 16:20:51.437150,107.0
2023-08-09 16:20:51.444840,121.0
2023-08-09 16:20:51.452530,128.0
2023-08-09 16:20:51.460221,126.0
2023-08-09 16:20:51.467911,117.0
2023-08-09 16:20:51.475601,93.0
2023-08-09 16:20:51.483292,57.0
2023-08-09 16:20:51.490982,21.0
2023-08-09 16:20:51.498672,-21.0
2023-08-09 16:20:51.506363,-64.0
2023-08-09 16:20:51.514053,-88.0
2023-08-09 16:20:51.521743,-105.0
2023-08-09 16:20:51.529434,-128.0
2023-08-09 16:20:51.537124,-148.0
2023-08-09 16:20:51.544814,-150.0
2023-08-09 16:20:51.552505,-145.0
2023-08-09 16:20:51.560195,-148.0
2023-08-09 16:20:51.567885,-145.0
2023-08-09 16:20:51.575576,-140.0
2023-08-09 16:20:51.583266,-140.0
2023-08-09 16:20:51.590956,-138.0
2023-08-09 16:20:51.598647,-133.0
2023-08-09 16:20:51.606337,-126.0
2023-08-09 16:20:51.614027,-124.0
2023-08-09 16:20:51.621718,-126.0
2023-08-09 16:20:51.629408,-124.0
2023-08-09 16:20:51.637098,-117.0
2023-08-09 16:20:51.644789,-109.0
2023-08-09 16:20:51.652479,-107.0
2023-08-09 16:20:51.660169,-107.0
2023-08-09 16:20:51.667860,-105.0
2023-08-09 16:20:51.675550,-105.0
2023-08-09 16:20:51.683240,-100.0
2023-08-09 16:20:51.690931,-95.0
2023-08-09 16:20:51.698621,-95.0
2023-08-09 16:20:51.706311,-95.0
2023-08-09 16:20:51.714002,-97.0
2023-08-09 16:20:51.721692,-95.0
2023-08-09 16:20:51.729382,-90.0
2023-08-09 16:20:51.737073,-90.0
2023-08-09 16:20:51.744763,-90.0
2023-08-09 16:20:51.752453,-90.0
2023-08-09 16:20:51.760144,-88.0
2023-08-09 16:20:51.767834,-88.0
2023-08-09 16:20:51.775524,-90.0
2023-08-09 16:20:51.783215,-85.0
2023-08-09 16:20:51.790905,-74.0
2023-08-09 16:20:51.798595,-50.0
2023-08-09 16:20:51.806286,-21.0
2023-08-09 16:20:51.813976,-11.0
2023-08-09 16:20:51.821666,-31.0
2023-08-09 16:20:51.829357,-47.0
2023-08-09 16:20:51.837047,-47.0
2023-08-09 16:20:51.844737,-45.0
2023-08-09 16:20:51.852428,-59.0
2023-08-09 16:20:51.860118,-76.0
2023-08-09 16:20:51.867808,-81.0
2023-08-09 16:20:51.875499,-76.0
2023-08-09 16:20:51.883189,-74.0
2023-08-09 16:20:51.890879,-78.0
2023-08-09 16:20:51.898570,-76.0
2023-08-09 16:20:51.906260,-76.0
2023-08-09 16:20:51.913950,-78.0
2023-08-09 16:20:51.921641,-74.0
2023-08-09 16:20:51.929331,-69.0
2023-08-09 16:20:51.937021,-76.0
2023-08-09 16:20:51.944711,-97.0
2023-08-09 16:20:51.952402,-90.0
2023-08-09 16:20:51.960092,47.0
2023-08-09 16:20:51.967782,322.0
2023-08-09 16:20:51.975473,582.0
2023-08-09 16:20:51.983163,532.0
2023-08-09 16:20:51.990853,117.0
2023-08-09 16:20:51.998544,-195.0
2023-08-09 16:20:52.006234,-219.0
2023-08-09 16:20:52.013924,-224.0
2023-08-09 16:20:52.021615,-207.0
2023-08-09 16:20:52.029305,-102.0
2023-08-09 16:20:52.036995,-59.0
2023-08-09 16:20:52.044686,-88.0
2023-08-09 16:20:52.052376,-69.0
2023-08-09 16:20:52.060066,-38.0
2023-08-09 16:20:52.067757,-45.0
2023-08-09 16:20:52.075447,-52.0
2023-08-09 16:20:52.083137,-40.0
2023-08-09 16:20:52.090828,-26.0
2023-08-09 16:20:52.098518,-21.0
2023-08-09 16:20:52.106208,-9.0
2023-08-09 16:20:52.113899,7.0
2023-08-09 16:20:52.121589,14.0
2023-08-09 16:20:52.129279,31.0
2023-08-09 16:20:52.136970,57.0
2023-08-09 16:20:52.144660,78.0
2023-08-09 16:20:52.152350,90.0
2023-08-09 16:20:52.160041,107.0
2023-08-09 16:20:52.167731,114.0
2023-08-09 16:20:52.175421,112.0
2023-08-09 16:20:52.183112,102.0
2023-08-09 16:20:52.190802,78.0
2023-08-09 16:20:52.198492,42.0
2023-08-09 16:20:52.206183,2.0
2023-08-09 16:20:52.213873,-38.0
2023-08-09 16:20:52.221563,-74.0
2023-08-09 16:20:52.229254,-105.0
2023-08-09 16:20:52.236944,-124.0
2023-08-09 16:20:52.244634,-138.0
2023-08-09 16:20:52.252325,-150.0
2023-08-09 16:20:52.260015,-152.0
2023-08-09 16:20:52.267705,-152.0
2023-08-09 16:20:52.275396,-155.0
2023-08-09 16:20:52.283086,-155.0
2023-08-09 16:20:52.290776,-150.0
2023-08-09 16:20:52.298467,-143.0
2023-08-09 16:20:52.306157,-136.0
2023-08-09 16:20:52.313847,-131.0
2023-08-09 16:20:52.321538,-128.0
2023-08-09 16:20:52.329228,-128.0
2023-08-09 16:20:52.336918,-124.0
2023-08-09 16:20:52.344609,-124.0
2023-08-09 16:20:52.352299,-124.0
2023-08-09 16:20:52.359989,-121.0
2023-08-09 16:20:52.367680,-119.0
2023-08-09 16:20:52.375370,-119.0
2023-08-09 16:20:52.383060,-119.0
2023-08-09 16:20:52.390751,-112.0
2023-08-09 16:20:52.398441,-107.0
2023-08-09 16:20:52.406131,-112.0
2023-08-09 16:20:52.413822,-117.0
2023-08-09 16:20:52.421512,-114.0
2023-08-09 16:20:52.429202,-112.0
2023-08-09 16:20:52.436893,-112.0
2023-08-09 16:20:52.444583,-109.0
2023-08-09 16:20:52.452273,-105.0
2023-08-09 16:20:52.459964,-107.0
2023-08-09 16:20:52.467654,-114.0
2023-08-09 16:20:52.475344,-107.0
2023-08-09 16:20:52.483035,-93.0
2023-08-09 16:20:52.490725,-69.0
2023-08-09 16:20:52.498415,-50.0
2023-08-09 16:20:52.506106,-47.0
2023-08-09 16:20:52.513796,-59.0
2023-08-09 16:20:52.521486,-71.0
2023-08-09 16:20:52.529177,-78.0
2023-08-09 16:20:52.536867,-85.0
2023-08-09 16:20:52.544557,-100.0
2023-08-09 16:20:52.552248,-114.0
2023-08-09 16:20:52.559938,-112.0
2023-08-09 16:20:52.567628,-105.0
2023-08-09 16:20:52.575319,-102.0
2023-08-09 16:20:52.583009,-95.0
2023-08-09 16:20:52.590699,-93.0
2023-08-09 16:20:52.598390,-105.0
2023-08-09 16:20:52.606080,-114.0
2023-08-09 16:20:52.613770,-121.0
2023-08-09 16:20:52.621461,-124.0
2023-08-09 16:20:52.629151,-133.0
2023-08-09 16:20:52.636841,-155.0
2023-08-09 16:20:52.644531,-112.0
2023-08-09 16:20:52.652222,85.0
2023-08-09 16:20:52.659912,386.0
2023-08-09 16:20:52.667602,585.0
2023-08-09 16:20:52.675293,408.0
2023-08-09 16:20:52.682983,-54.0
2023-08-09 16:20:52.690673,-293.0
2023-08-09 16:20:52.698364,-274.0
2023-08-09 16:20:52.706054,-286.0
2023-08-09 16:20:52.713744,-236.0
2023-08-09 16:20:52.721435,-105.0
2023-08-09 16:20:52.729125,-78.0
2023-08-09 16:20:52.736815,-107.0
2023-08-09 16:20:52.744506,-81.0
2023-08-09 16:20:52.752196,-57.0
2023-08-09 16:20:52.759886,-57.0
2023-08-09 16:20:52.767577,-47.0
2023-08-09 16:20:52.775267,-31.0
2023-08-09 16:20:52.782957,-26.0
2023-08-09 16:20:52.790648,-14.0
2023-08-09 16:20:52.798338,2.0
2023-08-09 16:20:52.806028,19.0
2023-08-09 16:20:52.813719,35.0
2023-08-09 16:20:52.821409,59.0
2023-08-09 16:20:52.829099,78.0
2023-08-09 16:20:52.836790,95.0
2023-08-09 16:20:52.844480,112.0
2023-08-09 16:20:52.852170,128.0
2023-08-09 16:20:52.859861,133.0
2023-08-09 16:20:52.867551,126.0
2023-08-09 16:20:52.875241,109.0
2023-08-09 16:20:52.882932,76.0
2023-08-09 16:20:52.890622,40.0
2023-08-09 16:20:52.898312,2.0
2023-08-09 16:20:52.906003,-38.0
2023-08-09 16:20:52.913693,-78.0
2023-08-09 16:20:52.921383,-107.0
2023-08-09 16:20:52.929074,-126.0
2023-08-09 16:20:52.936764,-138.0
2023-08-09 16:20:52.944454,-143.0
2023-08-09 16:20:52.952145,-140.0
2023-08-09 16:20:52.959835,-140.0
2023-08-09 16:20:52.967525,-143.0
2023-08-09 16:20:52.975216,-138.0
2023-08-09 16:20:52.982906,-128.0
2023-08-09 16:20:52.990596,-126.0
2023-08-09 16:20:52.998287,-124.0
2023-08-09 16:20:53.005977,-117.0
2023-08-09 16:20:53.013667,-112.0
2023-08-09 16:20:53.021358,-112.0
2023-08-09 16:20:53.029048,-107.0
2023-08-09 16:20:53.036738,-102.0
2023-08-09 16:20:53.044429,-100.0
2023-08-09 16:20:53.052119,-95.0
2023-08-09 16:20:53.059809,-90.0
2023-08-09 16:20:53.067500,-90.0
2023-08-09 16:20:53.075190,-93.0
2023-08-09 16:20:53.082880,-88.0
2023-08-09 16:20:53.090571,-81.0
2023-08-09 16:20:53.098261,-83.0
2023-08-09 16:20:53.105951,-90.0
2023-08-09 16:20:53.113642,-93.0
2023-08-09 16:20:53.121332,-90.0
2023-08-09 16:20:53.129022,-90.0
2023-08-09 16:20:53.136713,-95.0
2023-08-09 16:20:53.144403,-102.0
2023-08-09 16:20:53.152093,-109.0
2023-08-09 16:20:53.159784,-100.0
2023-08-09 16:20:53.167474,-69.0
2023-08-09 16:20:53.175164,-47.0
2023-08-09 16:20:53.182855,-42.0
2023-08-09 16:20:53.190545,-57.0
2023-08-09 16:20:53.198235,-81.0
2023-08-09 16:20:53.205926,-85.0
2023-08-09 16:20:53.213616,-85.0
2023-08-09 16:20:53.221306,-107.0
2023-08-09 16:20:53.228997,-124.0
2023-08-09 16:20:53.236687,-119.0
2023-08-09 16:20:53.244377,-117.0
2023-08-09 16:20:53.252068,-114.0
2023-08-09 16:20:53.259758,-109.0
2023-08-09 16:20:53.267448,-114.0
2023-08-09 16:20:53.275139,-114.0
2023-08-09 16:20:53.282829,-102.0
2023-08-09 16:20:53.290519,-102.0
2023-08-09 16:20:53.298210,-107.0
2023-08-09 16:20:53.305900,-105.0
2023-08-09 16:20:53.313590,-124.0
2023-08-09 16:20:53.321280,-119.0
2023-08-09 16:20:53.328971,26.0
2023-08-09 16:20:53.336661,312.0
2023-08-09 16:20:53.344351,575.0
2023-08-09 16:20:53.352042,532.0
2023-08-09 16:20:53.359732,105.0
2023-08-09 16:20:53.367422,-241.0
2023-08-09 16:20:53.375113,-262.0
2023-08-09 16:20:53.382803,-248.0
2023-08-09 16:20:53.390493,-234.0
2023-08-09 16:20:53.398184,-121.0
2023-08-09 16:20:53.405874,-64.0
2023-08-09 16:20:53.413564,-90.0
2023-08-09 16:20:53.421255,-78.0
2023-08-09 16:20:53.428945,-52.0
2023-08-09 16:20:53.436635,-52.0
2023-08-09 16:20:53.444326,-42.0
2023-08-09 16:20:53.452016,-23.0
2023-08-09 16:20:53.459706,-19.0
2023-08-09 16:20:53.467397,-14.0
2023-08-09 16:20:53.475087,-2.0
2023-08-09 16:20:53.482777,16.0
2023-08-09 16:20:53.490468,35.0
2023-08-09 16:20:53.498158,52.0
2023-08-09 16:20:53.505848,71.0
2023-08-09 16:20:53.513539,93.0
2023-08-09 16:20:53.521229,109.0
2023-08-09 16:20:53.528919,121.0
2023-08-09 16:20:53.536610,131.0
2023-08-09 16:20:53.544300,128.0
2023-08-09 16:20:53.551990,109.0
2023-08-09 16:20:53.559681,78.0
2023-08-09 16:20:53.567371,40.0
2023-08-09 16:20:53.575061,-2.0
2023-08-09 16:20:53.582752,-38.0
2023-08-09 16:20:53.590442,-74.0
2023-08-09 16:20:53.598132,-100.0
2023-08-09 16:20:53.605823,-117.0
2023-08-09 16:20:53.613513,-128.0
2023-08-09 16:20:53.621203,-138.0
2023-08-09 16:20:53.628894,-138.0
2023-08-09 16:20:53.636584,-140.0
2023-08-09 16:20:53.644274,-143.0
2023-08-09 16:20:53.651965,-140.0
2023-08-09 16:20:53.659655,-133.0
2023-08-09 16:20:53.667345,-128.0
2023-08-09 16:20:53.675036,-126.0
2023-08-09 16:20:53.682726,-121.0
2023-08-09 16:20:53.690416,-117.0
2023-08-09 16:20:53.698107,-112.0
2023-08-09 16:20:53.705797,-109.0
2023-08-09 16:20:53.713487,-109.0
2023-08-09 16:20:53.721178,-105.0
2023-08-09 16:20:53.728868,-95.0
2023-08-09 16:20:53.736558,-93.0
2023-08-09 16:20:53.744249,-97.0
2023-08-09 16:20:53.751939,-95.0
2023-08-09 16:20:53.759629,-93.0
2023-08-09 16:20:53.767320,-85.0
2023-08-09 16:20:53.775010,-85.0
2023-08-09 16:20:53.782700,-97.0
2023-08-09 16:20:53.790391,-107.0
2023-08-09 16:20:53.798081,-102.0
2023-08-09 16:20:53.805771,-97.0
2023-08-09 16:20:53.813462,-97.0
2023-08-09 16:20:53.821152,-105.0
2023-08-09 16:20:53.828842,-107.0
2023-08-09 16:20:53.836533,-93.0
2023-08-09 16:20:53.844223,-76.0
2023-08-09 16:20:53.851913,-66.0
2023-08-09 16:20:53.859604,-52.0
2023-08-09 16:20:53.867294,-47.0
2023-08-09 16:20:53.874984,-66.0
2023-08-09 16:20:53.882675,-78.0
2023-08-09 16:20:53.890365,-71.0
2023-08-09 16:20:53.898055,-78.0
2023-08-09 16:20:53.905746,-93.0
2023-08-09 16:20:53.913436,-102.0
2023-08-09 16:20:53.921126,-109.0
2023-08-09 16:20:53.928817,-112.0
2023-08-09 16:20:53.936507,-105.0
2023-08-09 16:20:53.944197,-109.0
2023-08-09 16:20:53.951888,-117.0
2023-08-09 16:20:53.959578,-114.0
2023-08-09 16:20:53.967268,-109.0
2023-08-09 16:20:53.974959,-109.0
2023-08-09 16:20:53.982649,-105.0
2023-08-09 16:20:53.990339,-102.0
2023-08-09 16:20:53.998030,-121.0
2023-08-09 16:20:54.005720,-128.0
2023-08-09 16:20:54.013410,-16.0
2023-08-09 16:20:54.021100,241.0
2023-08-09 16:20:54.028791,525.0
2023-08-09 16:20:54.036481,566.0
2023-08-09 16:20:54.044171,193.0
2023-08-09 16:20:54.051862,-193.0
2023-08-09 16:20:54.059552,-257.0
2023-08-09 16:20:54.067242,-234.0
2023-08-09 16:20:54.074933,-224.0
2023-08-09 16:20:54.082623,-131.0
2023-08-09 16:20:54.090313,-66.0
2023-08-09 16:20:54.098004,-90.0
2023-08-09 16:20:54.105694,-90.0
2023-08-09 16:20:54.113384,-64.0
2023-08-09 16:20:54.121075,-62.0
2023-08-09 16:20:54.128765,-57.0
2023-08-09 16:20:54.136455,-35.0
2023-08-09 16:20:54.144146,-26.0
2023-08-09 16:20:54.151836,-23.0
2023-08-09 16:20:54.159526,-9.0
2023-08-09 16:20:54.167217,11.0
2023-08-09 16:20:54.174907,33.0
2023-08-09 16:20:54.182597,45.0
2023-08-09 16:20:54.190288,54.0
2023-08-09 16:20:54.197978,78.0
2023-08-09 16:20:54.205668,100.0
2023-08-09 16:20:54.213359,105.0
2023-08-09 16:20:54.221049,109.0
2023-08-09 16:20:54.228739,119.0
2023-08-09 16:20:54.236430,109.0
2023-08-09 16:20:54.244120,83.0
2023-08-09 16:20:54.251810,45.0
2023-08-09 16:20:54.259501,4.0
2023-08-09 16:20:54.267191,-35.0
2023-08-09 16:20:54.274881,-71.0
2023-08-09 16:20:54.282572,-102.0
2023-08-09 16:20:54.290262,-126.0
2023-08-09 16:20:54.297952,-136.0
2023-08-09 16:20:54.305643,-136.0
2023-08-09 16:20:54.313333,-138.0
2023-08-09 16:20:54.321023,-143.0
2023-08-09 16:20:54.328714,-150.0
2023-08-09 16:20:54.336404,-148.0
2023-08-09 16:20:54.344094,-138.0
2023-08-09 16:20:54.351785,-131.0
2023-08-09 16:20:54.359475,-128.0
2023-08-09 16:20:54.367165,-124.0
2023-08-09 16:20:54.374856,-121.0
2023-08-09 16:20:54.382546,-119.0
2023-08-09 16:20:54.390236,-114.0
2023-08-09 16:20:54.397927,-114.0
2023-08-09 16:20:54.405617,-109.0
2023-08-09 16:20:54.413307,-102.0
2023-08-09 16:20:54.420998,-100.0
2023-08-09 16:20:54.428688,-100.0
2023-08-09 16:20:54.436378,-95.0
2023-08-09 16:20:54.444069,-88.0
2023-08-09 16:20:54.451759,-90.0
2023-08-09 16:20:54.459449,-97.0
2023-08-09 16:20:54.467140,-95.0
2023-08-09 16:20:54.474830,-88.0
2023-08-09 16:20:54.482520,-88.0
2023-08-09 16:20:54.490211,-90.0
2023-08-09 16:20:54.497901,-90.0
2023-08-09 16:20:54.505591,-90.0
2023-08-09 16:20:54.513282,-88.0
2023-08-09 16:20:54.520972,-81.0
2023-08-09 16:20:54.528662,-81.0
2023-08-09 16:20:54.536353,-78.0
2023-08-09 16:20:54.544043,-69.0
2023-08-09 16:20:54.551733,-50.0
2023-08-09 16:20:54.559424,-26.0
2023-08-09 16:20:54.567114,-23.0
2023-08-09 16:20:54.574804,-45.0
2023-08-09 16:20:54.582495,-52.0
2023-08-09 16:20:54.590185,-52.0
2023-08-09 16:20:54.597875,-62.0
2023-08-09 16:20:54.605566,-76.0
2023-08-09 16:20:54.613256,-85.0
2023-08-09 16:20:54.620946,-88.0
2023-08-09 16:20:54.628637,-88.0
2023-08-09 16:20:54.636327,-93.0
2023-08-09 16:20:54.644017,-100.0
2023-08-09 16:20:54.651708,-97.0
2023-08-09 16:20:54.659398,-95.0
2023-08-09 16:20:54.667088,-93.0
2023-08-09 16:20:54.674779,-90.0
2023-08-09 16:20:54.682469,-90.0
2023-08-09 16:20:54.690159,-97.0
2023-08-09 16:20:54.697849,-126.0
2023-08-09 16:20:54.705540,-119.0
2023-08-09 16:20:54.713230,31.0
2023-08-09 16:20:54.720920,327.0
2023-08-09 16:20:54.728611,592.0
2023-08-09 16:20:54.736301,508.0
2023-08-09 16:20:54.743991,57.0
2023-08-09 16:20:54.751682,-253.0
2023-08-09 16:20:54.759372,-255.0
2023-08-09 16:20:54.767062,-248.0
2023-08-09 16:20:54.774753,-222.0
2023-08-09 16:20:54.782443,-119.0
2023-08-09 16:20:54.790133,-83.0
2023-08-09 16:20:54.797824,-107.0
2023-08-09 16:20:54.805514,-88.0
2023-08-09 16:20:54.813204,-64.0
2023-08-09 16:20:54.820895,-69.0
2023-08-09 16:20:54.828585,-64.0
2023-08-09 16:20:54.836275,-47.0
2023-08-09 16:20:54.843966,-33.0
2023-08-09 16:20:54.851656,-23.0
2023-08-09 16:20:54.859346,-19.0
2023-08-09 16:20:54.867037,-11.0
2023-08-09 16:20:54.874727,0.0
2023-08-09 16:20:54.882417,19.0
2023-08-09 16:20:54.890108,45.0
2023-08-09 16:20:54.897798,66.0
2023-08-09 16:20:54.905488,74.0
2023-08-09 16:20:54.913179,81.0
2023-08-09 16:20:54.920869,88.0
2023-08-09 16:20:54.928559,85.0
2023-08-09 16:20:54.936250,69.0
2023-08-09 16:20:54.943940,40.0
2023-08-09 16:20:54.951630,0.0
2023-08-09 16:20:54.959321,-40.0
2023-08-09 16:20:54.967011,-78.0
2023-08-09 16:20:54.974701,-112.0
2023-08-09 16:20:54.982392,-128.0
2023-08-09 16:20:54.990082,-143.0
2023-08-09 16:20:54.997772,-155.0
2023-08-09 16:20:55.005463,-162.0
2023-08-09 16:20:55.013153,-167.0
2023-08-09 16:20:55.020843,-167.0
2023-08-09 16:20:55.028534,-162.0
2023-08-09 16:20:55.036224,-152.0
2023-08-09 16:20:55.043914,-148.0
2023-08-09 16:20:55.051605,-143.0
2023-08-09 16:20:55.059295,-138.0
2023-08-09 16:20:55.066985,-136.0
2023-08-09 16:20:55.074676,-128.0
2023-08-09 16:20:55.082366,-119.0
2023-08-09 16:20:55.090056,-112.0
2023-08-09 16:20:55.097747,-109.0
2023-08-09 16:20:55.105437,-105.0
2023-08-09 16:20:55.113127,-102.0
2023-08-09 16:20:55.120818,-100.0
2023-08-09 16:20:55.128508,-97.0
2023-08-09 16:20:55.136198,-93.0
2023-08-09 16:20:55.143889,-90.0
2023-08-09 16:20:55.151579,-85.0
2023-08-09 16:20:55.159269,-83.0
2023-08-09 16:20:55.166960,-83.0
2023-08-09 16:20:55.174650,-85.0
2023-08-09 16:20:55.182340,-85.0
2023-08-09 16:20:55.190031,-93.0
2023-08-09 16:20:55.197721,-100.0
2023-08-09 16:20:55.205411,-90.0
2023-08-09 16:20:55.213102,-78.0
2023-08-09 16:20:55.220792,-83.0
2023-08-09 16:20:55.228482,-95.0
2023-08-09 16:20:55.236173,-85.0
2023-08-09 16:20:55.243863,-74.0
2023-08-09 16:20:55.251553,-78.0
2023-08-09 16:20:55.259244,-85.0
2023-08-09 16:20:55.266934,-83.0
2023-08-09 16:20:55.274624,-71.0
2023-08-09 16:20:55.282315,-40.0
2023-08-09 16:20:55.290005,-11.0
2023-08-09 16:20:55.297695,-21.0
2023-08-09 16:20:55.305386,-40.0
2023-08-09 16:20:55.313076,-45.0
2023-08-09 16:20:55.320766,-47.0
2023-08-09 16:20:55.328457,-57.0
2023-08-09 16:20:55.336147,-69.0
2023-08-09 16:20:55.343837,-76.0
2023-08-09 16:20:55.351528,-74.0
2023-08-09 16:20:55.359218,-78.0
2023-08-09 16:20:55.366908,-102.0
2023-08-09 16:20:55.374599,-107.0
2023-08-09 16:20:55.382289,-93.0
2023-08-09 16:20:55.389979,-90.0
2023-08-09 16:20:55.397669,-93.0
2023-08-09 16:20:55.405360,-93.0
2023-08-09 16:20:55.413050,-95.0
2023-08-09 16:20:55.420740,-95.0
2023-08-09 16:20:55.428431,-114.0
2023-08-09 16:20:55.436121,-131.0
2023-08-09 16:20:55.443811,-35.0
2023-08-09 16:20:55.451502,224.0
2023-08-09 16:20:55.459192,532.0
2023-08-09 16:20:55.466882,621.0
2023-08-09 16:20:55.474573,274.0
2023-08-09 16:20:55.482263,-171.0
2023-08-09 16:20:55.489953,-281.0
2023-08-09 16:20:55.497644,-262.0
2023-08-09 16:20:55.505334,-272.0
2023-08-09 16:20:55.513024,-171.0
2023-08-09 16:20:55.520715,-74.0
2023-08-09 16:20:55.528405,-85.0
2023-08-09 16:20:55.536095,-90.0
2023-08-09 16:20:55.543786,-66.0
2023-08-09 16:20:55.551476,-62.0
2023-08-09 16:20:55.559166,-54.0
2023-08-09 16:20:55.566857,-40.0
2023-08-09 16:20:55.574547,-33.0
2023-08-09 16:20:55.582237,-16.0
2023-08-09 16:20:55.589928,0.0
2023-08-09 16:20:55.597618,4.0
2023-08-09 16:20:55.605308,21.0
2023-08-09 16:20:55.612999,47.0
2023-08-09 16:20:55.620689,66.0
2023-08-09 16:20:55.628379,85.0
2023-08-09 16:20:55.636070,107.0
2023-08-09 16:20:55.643760,124.0
2023-08-09 16:20:55.651450,131.0
2023-08-09 16:20:55.659141,124.0
2023-08-09 16:20:55.666831,112.0
2023-08-09 16:20:55.674521,93.0
2023-08-09 16:20:55.682212,57.0
2023-08-09 16:20:55.689902,16.0
2023-08-09 16:20:55.697592,-23.0
2023-08-09 16:20:55.705283,-66.0
2023-08-09 16:20:55.712973,-100.0
2023-08-09 16:20:55.720663,-121.0
2023-08-09 16:20:55.728354,-133.0
2023-08-09 16:20:55.736044,-133.0
2023-08-09 16:20:55.743734,-138.0
2023-08-09 16:20:55.751425,-143.0
2023-08-09 16:20:55.759115,-138.0
2023-08-09 16:20:55.766805,-136.0
2023-08-09 16:20:55.774496,-136.0
2023-08-09 16:20:55.782186,-128.0
2023-08-09 16:20:55.789876,-119.0
2023-08-09 16:20:55.797567,-112.0
2023-08-09 16:20:55.805257,-112.0
2023-08-09 16:20:55.812947,-109.0
2023-08-09 16:20:55.820638,-100.0
2023-08-09 16:20:55.828328,-90.0
2023-08-09 16:20:55.836018,-83.0
2023-08-09 16:20:55.843709,-83.0
2023-08-09 16:20:55.851399,-85.0
2023-08-09 16:20:55.859089,-78.0
2023-08-09 16:20:55.866780,-71.0
2023-08-09 16:20:55.874470,-74.0
2023-08-09 16:20:55.882160,-78.0
2023-08-09 16:20:55.889851,-76.0
2023-08-09 16:20:55.897541,-69.0
2023-08-09 16:20:55.905231,-71.0
2023-08-09 16:20:55.912922,-83.0
2023-08-09 16:20:55.920612,-88.0
2023-08-09 16:20:55.928302,-83.0
2023-08-09 16:20:55.935993,-83.0
2023-08-09 16:20:55.943683,-83.0
2023-08-09 16:20:55.951373,-81.0
2023-08-09 16:20:55.959064,-78.0
2023-08-09 16:20:55.966754,-74.0
2023-08-09 16:20:55.974444,-71.0
2023-08-09 16:20:55.982135,-74.0
2023-08-09 16:20:55.989825,-78.0
2023-08-09 16:20:55.997515,-81.0
2023-08-09 16:20:56.005206,-78.0
2023-08-09 16:20:56.012896,-78.0
2023-08-09 16:20:56.020586,-78.0
2023-08-09 16:20:56.028277,-74.0
2023-08-09 16:20:56.035967,-59.0
2023-08-09 16:20:56.043657,-38.0
2023-08-09 16:20:56.051348,-23.0
2023-08-09 16:20:56.059038,-35.0
2023-08-09 16:20:56.066728,-52.0
2023-08-09 16:20:56.074418,-57.0
2023-08-09 16:20:56.082109,-62.0
2023-08-09 16:20:56.089799,-78.0
2023-08-09 16:20:56.097489,-93.0
2023-08-09 16:20:56.105180,-97.0
2023-08-09 16:20:56.112870,-100.0
2023-08-09 16:20:56.120560,-100.0
2023-08-09 16:20:56.128251,-97.0
2023-08-09 16:20:56.135941,-93.0
2023-08-09 16:20:56.143631,-95.0
2023-08-09 16:20:56.151322,-97.0
2023-08-09 16:20:56.159012,-90.0
2023-08-09 16:20:56.166702,-85.0
2023-08-09 16:20:56.174393,-93.0
2023-08-09 16:20:56.182083,-112.0
2023-08-09 16:20:56.189773,-128.0
2023-08-09 16:20:56.197464,-64.0
2023-08-09 16:20:56.205154,148.0
2023-08-09 16:20:56.212844,458.0
2023-08-09 16:20:56.220535,635.0
2023-08-09 16:20:56.228225,386.0
2023-08-09 16:20:56.235915,-95.0
2023-08-09 16:20:56.243606,-286.0
2023-08-09 16:20:56.251296,-243.0
2023-08-09 16:20:56.258986,-231.0
2023-08-09 16:20:56.266677,-171.0
2023-08-09 16:20:56.274367,-83.0
2023-08-09 16:20:56.282057,-81.0
2023-08-09 16:20:56.289748,-93.0
2023-08-09 16:20:56.297438,-66.0
2023-08-09 16:20:56.305128,-50.0
2023-08-09 16:20:56.312819,-54.0
2023-08-09 16:20:56.320509,-50.0
2023-08-09 16:20:56.328199,-28.0
2023-08-09 16:20:56.335890,-14.0
2023-08-09 16:20:56.343580,-11.0
2023-08-09 16:20:56.351270,-4.0
2023-08-09 16:20:56.358961,14.0
2023-08-09 16:20:56.366651,40.0
2023-08-09 16:20:56.374341,64.0
2023-08-09 16:20:56.382032,81.0
2023-08-09 16:20:56.389722,97.0
2023-08-09 16:20:56.397412,109.0
2023-08-09 16:20:56.405103,117.0
2023-08-09 16:20:56.412793,121.0
2023-08-09 16:20:56.420483,114.0
2023-08-09 16:20:56.428174,95.0
2023-08-09 16:20:56.435864,64.0
2023-08-09 16:20:56.443554,14.0
2023-08-09 16:20:56.451245,-31.0
2023-08-09 16:20:56.458935,-64.0
2023-08-09 16:20:56.466625,-90.0
2023-08-09 16:20:56.474316,-112.0
2023-08-09 16:20:56.482006,-131.0
2023-08-09 16:20:56.489696,-145.0
2023-08-09 16:20:56.497387,-152.0
2023-08-09 16:20:56.505077,-157.0
2023-08-09 16:20:56.512767,-150.0
2023-08-09 16:20:56.520458,-143.0
2023-08-09 16:20:56.528148,-155.0
2023-08-09 16:20:56.535838,-157.0
2023-08-09 16:20:56.543529,-133.0
2023-08-09 16:20:56.551219,-131.0
2023-08-09 16:20:56.558909,-138.0
2023-08-09 16:20:56.566600,-128.0
2023-08-09 16:20:56.574290,-119.0
2023-08-09 16:20:56.581980,-121.0
2023-08-09 16:20:56.589671,-131.0
2023-08-09 16:20:56.597361,-126.0
2023-08-09 16:20:56.605051,-105.0
2023-08-09 16:20:56.612742,-102.0
2023-08-09 16:20:56.620432,-119.0
2023-08-09 16:20:56.628122,-109.0
2023-08-09 16:20:56.635813,-90.0
2023-08-09 16:20:56.643503,-95.0
2023-08-09 16:20:56.651193,-88.0
2023-08-09 16:20:56.658884,-78.0
2023-08-09 16:20:56.666574,-100.0
2023-08-09 16:20:56.674264,-109.0
2023-08-09 16:20:56.681955,-90.0
2023-08-09 16:20:56.689645,-85.0
2023-08-09 16:20:56.697335,-90.0
2023-08-09 16:20:56.705026,-85.0
2023-08-09 16:20:56.712716,-95.0
2023-08-09 16:20:56.720406,-105.0
2023-08-09 16:20:56.728097,-90.0
2023-08-09 16:20:56.735787,-90.0
2023-08-09 16:20:56.743477,-109.0
2023-08-09 16:20:56.751167,-97.0
2023-08-09 16:20:56.758858,-81.0
2023-08-09 16:20:56.766548,-95.0
2023-08-09 16:20:56.774238,-112.0
2023-08-09 16:20:56.781929,-102.0
2023-08-09 16:20:56.789619,-97.0
2023-08-09 16:20:56.797309,-114.0
2023-08-09 16:20:56.805000,-107.0
2023-08-09 16:20:56.812690,-83.0
2023-08-09 16:20:56.820380,-102.0
2023-08-09 16:20:56.828071,-117.0
2023-08-09 16:20:56.835761,-97.0
2023-08-09 16:20:56.843451,-95.0
2023-08-09 16:20:56.851142,-93.0
2023-08-09 16:20:56.858832,-85.0
2023-08-09 16:20:56.866522,-83.0
2023-08-09 16:20:56.874213,-59.0
2023-08-09 16:20:56.881903,-40.0
2023-08-09 16:20:56.889593,-71.0
2023-08-09 16:20:56.897284,-107.0
2023-08-09 16:20:56.904974,-109.0
2023-08-09 16:20:56.912664,-97.0
2023-08-09 16:20:56.920355,-105.0
2023-08-09 16:20:56.928045,-114.0
2023-08-09 16:20:56.935735,-107.0
2023-08-09 16:20:56.943426,-107.0
2023-08-09 16:20:56.951116,-124.0
2023-08-09 16:20:56.958806,-121.0
2023-08-09 16:20:56.966497,-90.0
2023-08-09 16:20:56.974187,-83.0
2023-08-09 16:20:56.981877,-102.0
2023-08-09 16:20:56.989568,-105.0
2023-08-09 16:20:56.997258,-81.0
2023-08-09 16:20:57.004948,-88.0
2023-08-09 16:20:57.012639,-117.0
2023-08-09 16:20:57.020329,-38.0
2023-08-09 16:20:57.028019,164.0
2023-08-09 16:20:57.035710,415.0
2023-08-09 16:20:57.043400,566.0
2023-08-09 16:20:57.051090,355.0
2023-08-09 16:20:57.058781,-62.0
2023-08-09 16:20:57.066471,-234.0
2023-08-09 16:20:57.074161,-231.0
2023-08-09 16:20:57.081852,-248.0
2023-08-09 16:20:57.089542,-164.0
2023-08-09 16:20:57.097232,-54.0
2023-08-09 16:20:57.104923,-71.0
2023-08-09 16:20:57.112613,-100.0
2023-08-09 16:20:57.120303,-78.0
2023-08-09 16:20:57.127994,-78.0
2023-08-09 16:20:57.135684,-74.0
2023-08-09 16:20:57.143374,-42.0
2023-08-09 16:20:57.151065,-40.0
2023-08-09 16:20:57.158755,-47.0
2023-08-09 16:20:57.166445,-26.0
2023-08-09 16:20:57.174136,-9.0
2023-08-09 16:20:57.181826,-9.0
2023-08-09 16:20:57.189516,7.0
2023-08-09 16:20:57.197207,45.0
2023-08-09 16:20:57.204897,76.0
2023-08-09 16:20:57.212587,88.0
2023-08-09 16:20:57.220278,88.0
2023-08-09 16:20:57.227968,102.0
2023-08-09 16:20:57.235658,124.0
2023-08-09 16:20:57.243349,121.0
2023-08-09 16:20:57.251039,109.0
2023-08-09 16:20:57.258729,100.0
2023-08-09 16:20:57.266420,85.0
2023-08-09 16:20:57.274110,76.0
2023-08-09 16:20:57.281800,35.0
2023-08-09 16:20:57.289491,-42.0
2023-08-09 16:20:57.297181,-119.0
2023-08-09 16:20:57.304871,-157.0
2023-08-09 16:20:57.312562,-138.0
2023-08-09 16:20:57.320252,-126.0
2023-08-09 16:20:57.327942,-169.0
2023-08-09 16:20:57.335633,-171.0
2023-08-09 16:20:57.343323,-126.0
2023-08-09 16:20:57.351013,-114.0
2023-08-09 16:20:57.358704,-112.0
2023-08-09 16:20:57.366394,-102.0
2023-08-09 16:20:57.374084,-128.0
2023-08-09 16:20:57.381775,-121.0
2023-08-09 16:20:57.389465,-83.0
2023-08-09 16:20:57.397155,-100.0
2023-08-09 16:20:57.404846,-131.0
2023-08-09 16:20:57.412536,-117.0
2023-08-09 16:20:57.420226,-100.0
2023-08-09 16:20:57.427917,-107.0
2023-08-09 16:20:57.435607,-93.0
2023-08-09 16:20:57.443297,-66.0
2023-08-09 16:20:57.450987,-76.0
2023-08-09 16:20:57.458678,-105.0
2023-08-09 16:20:57.466368,-138.0
2023-08-09 16:20:57.474058,-136.0
2023-08-09 16:20:57.481749,-95.0
2023-08-09 16:20:57.489439,-95.0
2023-08-09 16:20:57.497129,-121.0
2023-08-09 16:20:57.504820,-107.0
2023-08-09 16:20:57.512510,-88.0
2023-08-09 16:20:57.520200,-105.0
2023-08-09 16:20:57.527891,-102.0
2023-08-09 16:20:57.535581,-83.0
2023-08-09 16:20:57.543271,-100.0
2023-08-09 16:20:57.550962,-117.0
2023-08-09 16:20:57.558652,-95.0
2023-08-09 16:20:57.566342,-83.0
2023-08-09 16:20:57.574033,-100.0
2023-08-09 16:20:57.581723,-112.0
2023-08-09 16:20:57.589413,-107.0
2023-08-09 16:20:57.597104,-78.0
2023-08-09 16:20:57.604794,-57.0
2023-08-09 16:20:57.612484,-76.0
2023-08-09 16:20:57.620175,-93.0
2023-08-09 16:20:57.627865,-74.0
2023-08-09 16:20:57.635555,-52.0
2023-08-09 16:20:57.643246,-33.0
2023-08-09 16:20:57.650936,-28.0
2023-08-09 16:20:57.658626,-31.0
2023-08-09 16:20:57.666317,-45.0
2023-08-09 16:20:57.674007,-64.0
2023-08-09 16:20:57.681697,-64.0
2023-08-09 16:20:57.689388,-57.0
2023-08-09 16:20:57.697078,-66.0
2023-08-09 16:20:57.704768,-83.0
2023-08-09 16:20:57.712459,-88.0
2023-08-09 16:20:57.720149,-74.0
2023-08-09 16:20:57.727839,-69.0
2023-08-09 16:20:57.735530,-66.0
2023-08-09 16:20:57.743220,-66.0
2023-08-09 16:20:57.750910,-88.0
2023-08-09 16:20:57.758601,-85.0
2023-08-09 16:20:57.766291,-78.0
2023-08-09 16:20:57.773981,-112.0
2023-08-09 16:20:57.781672,-131.0
2023-08-09 16:20:57.789362,-114.0
2023-08-09 16:20:57.797052,-11.0
2023-08-09 16:20:57.804743,231.0
2023-08-09 16:20:57.812433,494.0
2023-08-09 16:20:57.820123,527.0
2023-08-09 16:20:57.827814,198.0
2023-08-09 16:20:57.835504,-160.0
2023-08-09 16:20:57.843194,-238.0
2023-08-09 16:20:57.850885,-236.0
2023-08-09 16:20:57.858575,-238.0
2023-08-09 16:20:57.866265,-152.0
2023-08-09 16:20:57.873956,-81.0
2023-08-09 16:20:57.881646,-95.0
2023-08-09 16:20:57.889336,-95.0
2023-08-09 16:20:57.897027,-54.0
2023-08-09 16:20:57.904717,-28.0
2023-08-09 16:20:57.912407,-28.0
2023-08-09 16:20:57.920098,-62.0
2023-08-09 16:20:57.927788,-64.0
2023-08-09 16:20:57.935478,-2.0
2023-08-09 16:20:57.943169,23.0
2023-08-09 16:20:57.950859,-2.0
2023-08-09 16:20:57.958549,0.0
2023-08-09 16:20:57.966240,42.0
2023-08-09 16:20:57.973930,81.0
2023-08-09 16:20:57.981620,95.0
2023-08-09 16:20:57.989311,88.0
2023-08-09 16:20:57.997001,95.0
2023-08-09 16:20:58.004691,128.0
2023-08-09 16:20:58.012382,128.0
2023-08-09 16:20:58.020072,97.0
2023-08-09 16:20:58.027762,88.0
2023-08-09 16:20:58.035453,71.0
2023-08-09 16:20:58.043143,28.0
2023-08-09 16:20:58.050833,-19.0
2023-08-09 16:20:58.058524,-50.0
2023-08-09 16:20:58.066214,-83.0
2023-08-09 16:20:58.073904,-126.0
2023-08-09 16:20:58.081595,-143.0
2023-08-09 16:20:58.089285,-138.0
2023-08-09 16:20:58.096975,-136.0
2023-08-09 16:20:58.104666,-124.0
2023-08-09 16:20:58.112356,-109.0
2023-08-09 16:20:58.120046,-121.0
2023-08-09 16:20:58.127736,-140.0
2023-08-09 16:20:58.135427,-143.0
2023-08-09 16:20:58.143117,-128.0
2023-08-09 16:20:58.150807,-121.0
2023-08-09 16:20:58.158498,-124.0
2023-08-09 16:20:58.166188,-126.0
2023-08-09 16:20:58.173878,-124.0
2023-08-09 16:20:58.181569,-109.0
2023-08-09 16:20:58.189259,-95.0
2023-08-09 16:20:58.196949,-95.0
2023-08-09 16:20:58.204640,-109.0
2023-08-09 16:20:58.212330,-121.0
2023-08-09 16:20:58.220020,-117.0
2023-08-09 16:20:58.227711,-109.0
2023-08-09 16:20:58.235401,-102.0
2023-08-09 16:20:58.243091,-85.0
2023-08-09 16:20:58.250782,-85.0
2023-08-09 16:20:58.258472,-105.0
2023-08-09 16:20:58.266162,-112.0
2023-08-09 16:20:58.273853,-100.0
2023-08-09 16:20:58.281543,-95.0
2023-08-09 16:20:58.289233,-100.0
2023-08-09 16:20:58.296924,-119.0
2023-08-09 16:20:58.304614,-114.0
2023-08-09 16:20:58.312304,-83.0
2023-08-09 16:20:58.319995,-78.0
2023-08-09 16:20:58.327685,-85.0
2023-08-09 16:20:58.335375,-71.0
2023-08-09 16:20:58.343066,-76.0
2023-08-09 16:20:58.350756,-107.0
2023-08-09 16:20:58.358446,-102.0
2023-08-09 16:20:58.366137,-81.0
2023-08-09 16:20:58.373827,-90.0
2023-08-09 16:20:58.381517,-88.0
2023-08-09 16:20:58.389208,-66.0
2023-08-09 16:20:58.396898,-64.0
2023-08-09 16:20:58.404588,-66.0
2023-08-09 16:20:58.412279,-38.0
2023-08-09 16:20:58.419969,-9.0
2023-08-09 16:20:58.427659,-45.0
2023-08-09 16:20:58.435350,-85.0
2023-08-09 16:20:58.443040,-66.0
2023-08-09 16:20:58.450730,-38.0
2023-08-09 16:20:58.458421,-45.0
2023-08-09 16:20:58.466111,-76.0
2023-08-09 16:20:58.473801,-88.0
2023-08-09 16:20:58.481492,-74.0
2023-08-09 16:20:58.489182,-74.0
2023-08-09 16:20:58.496872,-83.0
2023-08-09 16:20:58.504563,-83.0
2023-08-09 16:20:58.512253,-85.0
2023-08-09 16:20:58.519943,-88.0
2023-08-09 16:20:58.527634,-78.0
2023-08-09 16:20:58.535324,-59.0
2023-08-09 16:20:58.543014,-59.0
2023-08-09 16:20:58.550705,-83.0
2023-08-09 16:20:58.558395,-95.0
2023-08-09 16:20:58.566085,-38.0
2023-08-09 16:20:58.573776,152.0
2023-08-09 16:20:58.581466,446.0
2023-08-09 16:20:58.589156,585.0
2023-08-09 16:20:58.596847,312.0
2023-08-09 16:20:58.604537,-90.0
2023-08-09 16:20:58.612227,-203.0
2023-08-09 16:20:58.619918,-198.0
2023-08-09 16:20:58.627608,-236.0
2023-08-09 16:20:58.635298,-150.0
2023-08-09 16:20:58.642989,-42.0
2023-08-09 16:20:58.650679,-69.0
2023-08-09 16:20:58.658369,-90.0
2023-08-09 16:20:58.666060,-50.0
2023-08-09 16:20:58.673750,-40.0
2023-08-09 16:20:58.681440,-47.0
2023-08-09 16:20:58.689131,-31.0
2023-08-09 16:20:58.696821,-14.0
2023-08-09 16:20:58.704511,-4.0
2023-08-09 16:20:58.712202,2.0
2023-08-09 16:20:58.719892,7.0
2023-08-09 16:20:58.727582,11.0
2023-08-09 16:20:58.735273,42.0
2023-08-09 16:20:58.742963,76.0
2023-08-09 16:20:58.750653,74.0
2023-08-09 16:20:58.758344,81.0
2023-08-09 16:20:58.766034,107.0
2023-08-09 16:20:58.773724,105.0
2023-08-09 16:20:58.781415,95.0
2023-08-09 16:20:58.789105,109.0
2023-08-09 16:20:58.796795,114.0
2023-08-09 16:20:58.804486,83.0
2023-08-09 16:20:58.812176,33.0
2023-08-09 16:20:58.819866,-16.0
2023-08-09 16:20:58.827556,-59.0
2023-08-09 16:20:58.835247,-85.0
2023-08-09 16:20:58.842937,-100.0
2023-08-09 16:20:58.850627,-126.0
2023-08-09 16:20:58.858318,-148.0
2023-08-09 16:20:58.866008,-131.0
2023-08-09 16:20:58.873698,-128.0
2023-08-09 16:20:58.881389,-162.0
2023-08-09 16:20:58.889079,-171.0
2023-08-09 16:20:58.896769,-160.0
2023-08-09 16:20:58.904460,-162.0
2023-08-09 16:20:58.912150,-152.0
2023-08-09 16:20:58.919840,-131.0
2023-08-09 16:20:58.927531,-136.0
2023-08-09 16:20:58.935221,-145.0
2023-08-09 16:20:58.942911,-145.0
2023-08-09 16:20:58.950602,-138.0
2023-08-09 16:20:58.958292,-126.0
2023-08-09 16:20:58.965982,-119.0
2023-08-09 16:20:58.973673,-119.0
2023-08-09 16:20:58.981363,-121.0
2023-08-09 16:20:58.989053,-124.0
2023-08-09 16:20:58.996744,-124.0
2023-08-09 16:20:59.004434,-112.0
2023-08-09 16:20:59.012124,-95.0
2023-08-09 16:20:59.019815,-102.0
2023-08-09 16:20:59.027505,-114.0
2023-08-09 16:20:59.035195,-109.0
2023-08-09 16:20:59.042886,-100.0
2023-08-09 16:20:59.050576,-97.0
2023-08-09 16:20:59.058266,-112.0
2023-08-09 16:20:59.065957,-112.0
2023-08-09 16:20:59.073647,-90.0
2023-08-09 16:20:59.081337,-83.0
2023-08-09 16:20:59.089028,-93.0
2023-08-09 16:20:59.096718,-97.0
2023-08-09 16:20:59.104408,-88.0
2023-08-09 16:20:59.112099,-97.0
2023-08-09 16:20:59.119789,-107.0
2023-08-09 16:20:59.127479,-83.0
2023-08-09 16:20:59.135170,-71.0
2023-08-09 16:20:59.142860,-90.0
2023-08-09 16:20:59.150550,-85.0
2023-08-09 16:20:59.158241,-47.0
2023-08-09 16:20:59.165931,-16.0
2023-08-09 16:20:59.173621,-21.0
2023-08-09 16:20:59.181312,-52.0
2023-08-09 16:20:59.189002,-66.0
2023-08-09 16:20:59.196692,-62.0
2023-08-09 16:20:59.204383,-71.0
2023-08-09 16:20:59.212073,-71.0
2023-08-09 16:20:59.219763,-71.0
2023-08-09 16:20:59.227454,-93.0
2023-08-09 16:20:59.235144,-100.0
2023-08-09 16:20:59.242834,-85.0
2023-08-09 16:20:59.250525,-88.0
2023-08-09 16:20:59.258215,-97.0
2023-08-09 16:20:59.265905,-88.0
2023-08-09 16:20:59.273596,-71.0
2023-08-09 16:20:59.281286,-76.0
2023-08-09 16:20:59.288976,-83.0
2023-08-09 16:20:59.296667,-81.0
2023-08-09 16:20:59.304357,-100.0
2023-08-09 16:20:59.312047,-71.0
2023-08-09 16:20:59.319738,121.0
2023-08-09 16:20:59.327428,425.0
2023-08-09 16:20:59.335118,568.0
2023-08-09 16:20:59.342809,322.0
2023-08-09 16:20:59.350499,-69.0
2023-08-09 16:20:59.358189,-205.0
2023-08-09 16:20:59.365880,-214.0
2023-08-09 16:20:59.373570,-253.0
2023-08-09 16:20:59.381260,-198.0
2023-08-09 16:20:59.388951,-107.0
2023-08-09 16:20:59.396641,-102.0
2023-08-09 16:20:59.404331,-109.0
2023-08-09 16:20:59.412022,-97.0
2023-08-09 16:20:59.419712,-64.0
2023-08-09 16:20:59.427402,-16.0
2023-08-09 16:20:59.435093,-38.0
2023-08-09 16:20:59.442783,-74.0
2023-08-09 16:20:59.450473,-28.0
2023-08-09 16:20:59.458164,0.0
2023-08-09 16:20:59.465854,-16.0
2023-08-09 16:20:59.473544,-16.0
2023-08-09 16:20:59.481235,16.0
2023-08-09 16:20:59.488925,45.0
2023-08-09 16:20:59.496615,47.0
2023-08-09 16:20:59.504305,62.0
2023-08-09 16:20:59.511996,102.0
2023-08-09 16:20:59.519686,117.0
2023-08-09 16:20:59.527376,114.0
2023-08-09 16:20:59.535067,105.0
2023-08-09 16:20:59.542757,69.0
2023-08-09 16:20:59.550447,35.0
2023-08-09 16:20:59.558138,19.0
2023-08-09 16:20:59.565828,-19.0
2023-08-09 16:20:59.573518,-78.0
2023-08-09 16:20:59.581209,-124.0
2023-08-09 16:20:59.588899,-128.0
2023-08-09 16:20:59.596589,-121.0
2023-08-09 16:20:59.604280,-138.0
2023-08-09 16:20:59.611970,-160.0
2023-08-09 16:20:59.619660,-167.0
2023-08-09 16:20:59.627351,-164.0
2023-08-09 16:20:59.635041,-160.0
2023-08-09 16:20:59.642731,-155.0
2023-08-09 16:20:59.650422,-157.0
2023-08-09 16:20:59.658112,-157.0
2023-08-09 16:20:59.665802,-148.0
2023-08-09 16:20:59.673493,-131.0
2023-08-09 16:20:59.681183,-128.0
2023-08-09 16:20:59.688873,-128.0
2023-08-09 16:20:59.696564,-124.0
2023-08-09 16:20:59.704254,-124.0
2023-08-09 16:20:59.711944,-112.0
2023-08-09 16:20:59.719635,-100.0
2023-08-09 16:20:59.727325,-105.0
2023-08-09 16:20:59.735015,-114.0
2023-08-09 16:20:59.742706,-109.0
2023-08-09 16:20:59.750396,-102.0
2023-08-09 16:20:59.758086,-93.0
2023-08-09 16:20:59.765777,-78.0
2023-08-09 16:20:59.773467,-78.0
2023-08-09 16:20:59.781157,-102.0
2023-08-09 16:20:59.788848,-107.0
2023-08-09 16:20:59.796538,-83.0
2023-08-09 16:20:59.804228,-83.0
2023-08-09 16:20:59.811919,-109.0
2023-08-09 16:20:59.819609,-102.0
2023-08-09 16:20:59.827299,-78.0
2023-08-09 16:20:59.834990,-81.0
2023-08-09 16:20:59.842680,-93.0
2023-08-09 16:20:59.850370,-85.0
2023-08-09 16:20:59.858061,-71.0
2023-08-09 16:20:59.865751,-85.0
2023-08-09 16:20:59.873441,-93.0
2023-08-09 16:20:59.881132,-62.0
2023-08-09 16:20:59.888822,-31.0
2023-08-09 16:20:59.896512,-26.0
2023-08-09 16:20:59.904203,-33.0
2023-08-09 16:20:59.911893,-54.0
2023-08-09 16:20:59.919583,-74.0
2023-08-09 16:20:59.927274,-69.0
2023-08-09 16:20:59.934964,-69.0
2023-08-09 16:20:59.942654,-97.0
2023-08-09 16:20:59.950345,-109.0
2023-08-09 16:20:59.958035,-100.0
2023-08-09 16:20:59.965725,-97.0
2023-08-09 16:20:59.973416,-100.0
2023-08-09 16:20:59.981106,-90.0
2023-08-09 16:20:59.988796,-78.0
2023-08-09 16:20:59.996487,-76.0
2023-08-09 16:21:00.004177,-85.0
2023-08-09 16:21:00.011867,-83.0
2023-08-09 16:21:00.019558,-74.0
2023-08-09 16:21:00.027248,-100.0
2023-08-09 16:21:00.034938,-133.0
2023-08-09 16:21:00.042629,-54.0
2023-08-09 16:21:00.050319,198.0
2023-08-09 16:21:00.058009,501.0
2023-08-09 16:21:00.065700,597.0
2023-08-09 16:21:00.073390,291.0
2023-08-09 16:21:00.081080,-109.0
2023-08-09 16:21:00.088771,-212.0
2023-08-09 16:21:00.096461,-203.0
2023-08-09 16:21:00.104151,-229.0
2023-08-09 16:21:00.111842,-160.0
2023-08-09 16:21:00.119532,-81.0
2023-08-09 16:21:00.127222,-81.0
2023-08-09 16:21:00.134913,-78.0
2023-08-09 16:21:00.142603,-59.0
2023-08-09 16:21:00.150293,-57.0
2023-08-09 16:21:00.157984,-47.0
2023-08-09 16:21:00.165674,-28.0
2023-08-09 16:21:00.173364,-23.0
2023-08-09 16:21:00.181055,-21.0
2023-08-09 16:21:00.188745,4.0
2023-08-09 16:21:00.196435,28.0
2023-08-09 16:21:00.204125,23.0
2023-08-09 16:21:00.211816,28.0
2023-08-09 16:21:00.219506,64.0
2023-08-09 16:21:00.227196,76.0
2023-08-09 16:21:00.234887,81.0
2023-08-09 16:21:00.242577,114.0
2023-08-09 16:21:00.250267,133.0
2023-08-09 16:21:00.257958,119.0
2023-08-09 16:21:00.265648,107.0
2023-08-09 16:21:00.273338,102.0
2023-08-09 16:21:00.281029,78.0
2023-08-09 16:21:00.288719,33.0
2023-08-09 16:21:00.296409,-14.0
2023-08-09 16:21:00.304100,-45.0
2023-08-09 16:21:00.311790,-78.0
2023-08-09 16:21:00.319480,-124.0
2023-08-09 16:21:00.327171,-140.0
2023-08-09 16:21:00.334861,-121.0
2023-08-09 16:21:00.342551,-124.0
2023-08-09 16:21:00.350242,-140.0
2023-08-09 16:21:00.357932,-128.0
2023-08-09 16:21:00.365622,-128.0
2023-08-09 16:21:00.373313,-155.0
2023-08-09 16:21:00.381003,-150.0
2023-08-09 16:21:00.388693,-136.0
2023-08-09 16:21:00.396384,-138.0
2023-08-09 16:21:00.404074,-119.0
2023-08-09 16:21:00.411764,-102.0
2023-08-09 16:21:00.419455,-102.0
2023-08-09 16:21:00.427145,-100.0
2023-08-09 16:21:00.434835,-114.0
2023-08-09 16:21:00.442526,-126.0
2023-08-09 16:21:00.450216,-112.0
2023-08-09 16:21:00.457906,-102.0
2023-08-09 16:21:00.465597,-109.0
2023-08-09 16:21:00.473287,-102.0
2023-08-09 16:21:00.480977,-85.0
2023-08-09 16:21:00.488668,-95.0
2023-08-09 16:21:00.496358,-112.0
2023-08-09 16:21:00.504048,-100.0
2023-08-09 16:21:00.511739,-85.0
2023-08-09 16:21:00.519429,-90.0
2023-08-09 16:21:00.527119,-102.0
2023-08-09 16:21:00.534810,-117.0
2023-08-09 16:21:00.542500,-112.0
2023-08-09 16:21:00.550190,-78.0
2023-08-09 16:21:00.557881,-69.0
2023-08-09 16:21:00.565571,-93.0
2023-08-09 16:21:00.573261,-90.0
2023-08-09 16:21:00.580952,-74.0
2023-08-09 16:21:00.588642,-90.0
2023-08-09 16:21:00.596332,-97.0
2023-08-09 16:21:00.604023,-74.0
2023-08-09 16:21:00.611713,-66.0
2023-08-09 16:21:00.619403,-76.0
2023-08-09 16:21:00.627094,-64.0
2023-08-09 16:21:00.634784,-26.0
2023-08-09 16:21:00.642474,-7.0
2023-08-09 16:21:00.650165,-28.0
2023-08-09 16:21:00.657855,-50.0
2023-08-09 16:21:00.665545,-47.0
2023-08-09 16:21:00.673236,-40.0
2023-08-09 16:21:00.680926,-54.0
2023-08-09 16:21:00.688616,-76.0
2023-08-09 16:21:00.696307,-85.0
2023-08-09 16:21:00.703997,-81.0
2023-08-09 16:21:00.711687,-74.0
2023-08-09 16:21:00.719378,-69.0
2023-08-09 16:21:00.727068,-71.0
2023-08-09 16:21:00.734758,-78.0
2023-08-09 16:21:00.742449,-88.0
2023-08-09 16:21:00.750139,-78.0
2023-08-09 16:21:00.757829,-50.0
2023-08-09 16:21:00.765520,-69.0
2023-08-09 16:21:00.773210,-114.0
2023-08-09 16:21:00.780900,-59.0
2023-08-09 16:21:00.788591,117.0
2023-08-09 16:21:00.796281,367.0
2023-08-09 16:21:00.803971,582.0
2023-08-09 16:21:00.811662,460.0
2023-08-09 16:21:00.819352,19.0
2023-08-09 16:21:00.827042,-241.0
2023-08-09 16:21:00.834733,-214.0
2023-08-09 16:21:00.842423,-186.0
2023-08-09 16:21:00.850113,-145.0
2023-08-09 16:21:00.857804,-59.0
2023-08-09 16:21:00.865494,-59.0
2023-08-09 16:21:00.873184,-95.0
2023-08-09 16:21:00.880874,-57.0
2023-08-09 16:21:00.888565,-35.0
2023-08-09 16:21:00.896255,-76.0
2023-08-09 16:21:00.903945,-50.0
2023-08-09 16:21:00.911636,19.0
2023-08-09 16:21:00.919326,19.0
2023-08-09 16:21:00.927016,2.0
2023-08-09 16:21:00.934707,19.0
2023-08-09 16:21:00.942397,35.0
2023-08-09 16:21:00.950087,33.0
2023-08-09 16:21:00.957778,50.0
2023-08-09 16:21:00.965468,109.0
2023-08-09 16:21:00.973158,117.0
2023-08-09 16:21:00.980849,85.0
2023-08-09 16:21:00.988539,97.0
2023-08-09 16:21:00.996229,105.0
2023-08-09 16:21:01.003920,105.0
2023-08-09 16:21:01.011610,124.0
2023-08-09 16:21:01.019300,114.0
2023-08-09 16:21:01.026991,62.0
2023-08-09 16:21:01.034681,9.0
2023-08-09 16:21:01.042371,-16.0
2023-08-09 16:21:01.050062,-28.0
2023-08-09 16:21:01.057752,-59.0
2023-08-09 16:21:01.065442,-88.0
2023-08-09 16:21:01.073133,-119.0
2023-08-09 16:21:01.080823,-136.0
2023-08-09 16:21:01.088513,-121.0
2023-08-09 16:21:01.096204,-114.0
2023-08-09 16:21:01.103894,-124.0
2023-08-09 16:21:01.111584,-107.0
2023-08-09 16:21:01.119275,-85.0
2023-08-09 16:21:01.126965,-114.0
2023-08-09 16:21:01.134655,-136.0
2023-08-09 16:21:01.142346,-109.0
2023-08-09 16:21:01.150036,-107.0
2023-08-09 16:21:01.157726,-121.0
2023-08-09 16:21:01.165417,-107.0
2023-08-09 16:21:01.173107,-100.0
2023-08-09 16:21:01.180797,-107.0
2023-08-09 16:21:01.188488,-97.0
2023-08-09 16:21:01.196178,-100.0
2023-08-09 16:21:01.203868,-105.0
2023-08-09 16:21:01.211559,-105.0
2023-08-09 16:21:01.219249,-119.0
2023-08-09 16:21:01.226939,-107.0
2023-08-09 16:21:01.234630,-76.0
2023-08-09 16:21:01.242320,-85.0
2023-08-09 16:21:01.250010,-109.0
2023-08-09 16:21:01.257701,-93.0
2023-08-09 16:21:01.265391,-83.0
2023-08-09 16:21:01.273081,-102.0
2023-08-09 16:21:01.280772,-102.0
2023-08-09 16:21:01.288462,-78.0
2023-08-09 16:21:01.296152,-74.0
2023-08-09 16:21:01.303843,-97.0
2023-08-09 16:21:01.311533,-107.0
2023-08-09 16:21:01.319223,-83.0
2023-08-09 16:21:01.326914,-74.0
2023-08-09 16:21:01.334604,-64.0
2023-08-09 16:21:01.342294,-11.0
2023-08-09 16:21:01.349985,7.0
2023-08-09 16:21:01.357675,-40.0
2023-08-09 16:21:01.365365,-74.0
2023-08-09 16:21:01.373056,-59.0
2023-08-09 16:21:01.380746,-57.0
2023-08-09 16:21:01.388436,-78.0
2023-08-09 16:21:01.396127,-95.0
2023-08-09 16:21:01.403817,-95.0
2023-08-09 16:21:01.411507,-97.0
2023-08-09 16:21:01.419198,-95.0
2023-08-09 16:21:01.426888,-100.0
2023-08-09 16:21:01.434578,-131.0
2023-08-09 16:21:01.442269,-136.0
2023-08-09 16:21:01.449959,-100.0
2023-08-09 16:21:01.457649,-105.0
2023-08-09 16:21:01.465340,-126.0
2023-08-09 16:21:01.473030,-114.0
2023-08-09 16:21:01.480720,-121.0
2023-08-09 16:21:01.488411,-131.0
2023-08-09 16:21:01.496101,2.0
2023-08-09 16:21:01.503791,296.0
2023-08-09 16:21:01.511482,544.0
2023-08-09 16:21:01.519172,446.0
2023-08-09 16:21:01.526862,50.0
2023-08-09 16:21:01.534553,-191.0
2023-08-09 16:21:01.542243,-219.0
2023-08-09 16:21:01.549933,-277.0
2023-08-09 16:21:01.557624,-253.0
2023-08-09 16:21:01.565314,-121.0
2023-08-09 16:21:01.573004,-85.0
2023-08-09 16:21:01.580694,-114.0
2023-08-09 16:21:01.588385,-107.0
2023-08-09 16:21:01.596075,-83.0
2023-08-09 16:21:01.603765,-71.0
2023-08-09 16:21:01.611456,-81.0
2023-08-09 16:21:01.619146,-85.0
2023-08-09 16:21:01.626836,-57.0
2023-08-09 16:21:01.634527,-31.0
2023-08-09 16:21:01.642217,-28.0
2023-08-09 16:21:01.649907,-21.0
2023-08-09 16:21:01.657598,-7.0
2023-08-09 16:21:01.665288,2.0
2023-08-09 16:21:01.672978,26.0
2023-08-09 16:21:01.680669,71.0
2023-08-09 16:21:01.688359,97.0
2023-08-09 16:21:01.696049,88.0
2023-08-09 16:21:01.703740,76.0
2023-08-09 16:21:01.711430,81.0
2023-08-09 16:21:01.719120,78.0
2023-08-09 16:21:01.726811,54.0
2023-08-09 16:21:01.734501,23.0
2023-08-09 16:21:01.742191,-21.0
2023-08-09 16:21:01.749882,-62.0
2023-08-09 16:21:01.757572,-90.0
2023-08-09 16:21:01.765262,-107.0
2023-08-09 16:21:01.772953,-117.0
2023-08-09 16:21:01.780643,-121.0
2023-08-09 16:21:01.788333,-136.0
2023-08-09 16:21:01.796024,-160.0
2023-08-09 16:21:01.803714,-160.0
2023-08-09 16:21:01.811404,-143.0
2023-08-09 16:21:01.819095,-133.0
2023-08-09 16:21:01.826785,-128.0
2023-08-09 16:21:01.834475,-143.0
2023-08-09 16:21:01.842166,-148.0
2023-08-09 16:21:01.849856,-128.0
2023-08-09 16:21:01.857546,-126.0
2023-08-09 16:21:01.865237,-138.0
2023-08-09 16:21:01.872927,-133.0
2023-08-09 16:21:01.880617,-124.0
2023-08-09 16:21:01.888308,-124.0
2023-08-09 16:21:01.895998,-114.0
2023-08-09 16:21:01.903688,-109.0
2023-08-09 16:21:01.911379,-112.0
2023-08-09 16:21:01.919069,-105.0
2023-08-09 16:21:01.926759,-112.0
2023-08-09 16:21:01.934450,-140.0
2023-08-09 16:21:01.942140,-145.0
2023-08-09 16:21:01.949830,-124.0
2023-08-09 16:21:01.957521,-119.0
2023-08-09 16:21:01.965211,-121.0
2023-08-09 16:21:01.972901,-107.0
2023-08-09 16:21:01.980592,-112.0
2023-08-09 16:21:01.988282,-126.0
2023-08-09 16:21:01.995972,-119.0
2023-08-09 16:21:02.003663,-112.0
2023-08-09 16:21:02.011353,-112.0
2023-08-09 16:21:02.019043,-112.0
2023-08-09 16:21:02.026734,-109.0
2023-08-09 16:21:02.034424,-100.0
2023-08-09 16:21:02.042114,-85.0
2023-08-09 16:21:02.049805,-69.0
2023-08-09 16:21:02.057495,-52.0
2023-08-09 16:21:02.065185,-38.0
2023-08-09 16:21:02.072876,-40.0
2023-08-09 16:21:02.080566,-45.0
2023-08-09 16:21:02.088256,-54.0
2023-08-09 16:21:02.095947,-74.0
2023-08-09 16:21:02.103637,-83.0
2023-08-09 16:21:02.111327,-85.0
2023-08-09 16:21:02.119018,-90.0
2023-08-09 16:21:02.126708,-83.0
2023-08-09 16:21:02.134398,-74.0
2023-08-09 16:21:02.142089,-83.0
2023-08-09 16:21:02.149779,-90.0
2023-08-09 16:21:02.157469,-71.0
2023-08-09 16:21:02.165160,-64.0
2023-08-09 16:21:02.172850,-83.0
2023-08-09 16:21:02.180540,-85.0
2023-08-09 16:21:02.188231,-88.0
2023-08-09 16:21:02.195921,-114.0
2023-08-09 16:21:02.203611,-59.0
2023-08-09 16:21:02.211302,171.0
2023-08-09 16:21:02.218992,475.0
2023-08-09 16:21:02.226682,594.0
2023-08-09 16:21:02.234373,332.0
2023-08-09 16:21:02.242063,-74.0
2023-08-09 16:21:02.249753,-224.0
2023-08-09 16:21:02.257443,-226.0
2023-08-09 16:21:02.265134,-234.0
2023-08-09 16:21:02.272824,-140.0
2023-08-09 16:21:02.280514,-42.0
2023-08-09 16:21:02.288205,-50.0
2023-08-09 16:21:02.295895,-71.0
2023-08-09 16:21:02.303585,-50.0
2023-08-09 16:21:02.311276,-31.0
2023-08-09 16:21:02.318966,-23.0
2023-08-09 16:21:02.326656,-11.0
2023-08-09 16:21:02.334347,0.0
2023-08-09 16:21:02.342037,11.0
2023-08-09 16:21:02.349727,26.0
2023-08-09 16:21:02.357418,33.0
2023-08-09 16:21:02.365108,45.0
2023-08-09 16:21:02.372798,66.0
2023-08-09 16:21:02.380489,85.0
2023-08-09 16:21:02.388179,105.0
2023-08-09 16:21:02.395869,121.0
2023-08-09 16:21:02.403560,136.0
2023-08-09 16:21:02.411250,145.0
2023-08-09 16:21:02.418940,148.0
2023-08-09 16:21:02.426631,136.0
2023-08-09 16:21:02.434321,112.0
2023-08-09 16:21:02.442011,81.0
2023-08-09 16:21:02.449702,47.0
2023-08-09 16:21:02.457392,14.0
2023-08-09 16:21:02.465082,-26.0
2023-08-09 16:21:02.472773,-57.0
2023-08-09 16:21:02.480463,-76.0
2023-08-09 16:21:02.488153,-85.0
2023-08-09 16:21:02.495844,-95.0
2023-08-09 16:21:02.503534,-102.0
2023-08-09 16:21:02.511224,-95.0
2023-08-09 16:21:02.518915,-95.0
2023-08-09 16:21:02.526605,-105.0
2023-08-09 16:21:02.534295,-100.0
2023-08-09 16:21:02.541986,-83.0
2023-08-09 16:21:02.549676,-83.0
2023-08-09 16:21:02.557366,-85.0
2023-08-09 16:21:02.565057,-85.0
2023-08-09 16:21:02.572747,-74.0
2023-08-09 16:21:02.580437,-66.0
2023-08-09 16:21:02.588128,-66.0
2023-08-09 16:21:02.595818,-64.0
2023-08-09 16:21:02.603508,-64.0
2023-08-09 16:21:02.611199,-69.0
2023-08-09 16:21:02.618889,-66.0
2023-08-09 16:21:02.626579,-62.0
2023-08-09 16:21:02.634270,-62.0
2023-08-09 16:21:02.641960,-64.0
2023-08-09 16:21:02.649650,-66.0
2023-08-09 16:21:02.657341,-64.0
2023-08-09 16:21:02.665031,-59.0
2023-08-09 16:21:02.672721,-59.0
2023-08-09 16:21:02.680412,-66.0
2023-08-09 16:21:02.688102,-69.0
2023-08-09 16:21:02.695792,-64.0
2023-08-09 16:21:02.703483,-66.0
2023-08-09 16:21:02.711173,-71.0
2023-08-09 16:21:02.718863,-66.0
2023-08-09 16:21:02.726554,-62.0
2023-08-09 16:21:02.734244,-64.0
2023-08-09 16:21:02.741934,-57.0
2023-08-09 16:21:02.749625,-33.0
2023-08-09 16:21:02.757315,-16.0
2023-08-09 16:21:02.765005,-23.0
2023-08-09 16:21:02.772696,-35.0
2023-08-09 16:21:02.780386,-40.0
2023-08-09 16:21:02.788076,-40.0
2023-08-09 16:21:02.795767,-50.0
2023-08-09 16:21:02.803457,-71.0
2023-08-09 16:21:02.811147,-85.0
2023-08-09 16:21:02.818838,-83.0
2023-08-09 16:21:02.826528,-81.0
2023-08-09 16:21:02.834218,-85.0
2023-08-09 16:21:02.841909,-88.0
2023-08-09 16:21:02.849599,-83.0
2023-08-09 16:21:02.857289,-81.0
2023-08-09 16:21:02.864980,-78.0
2023-08-09 16:21:02.872670,-74.0
2023-08-09 16:21:02.880360,-76.0
2023-08-09 16:21:02.888051,-93.0
2023-08-09 16:21:02.895741,-117.0
2023-08-09 16:21:02.903431,-71.0
2023-08-09 16:21:02.911122,121.0
2023-08-09 16:21:02.918812,413.0
2023-08-09 16:21:02.926502,599.0
2023-08-09 16:21:02.934193,406.0
2023-08-09 16:21:02.941883,-31.0
2023-08-09 16:21:02.949573,-241.0
2023-08-09 16:21:02.957263,-226.0
2023-08-09 16:21:02.964954,-224.0
2023-08-09 16:21:02.972644,-164.0
2023-08-09 16:21:02.980334,-69.0
2023-08-09 16:21:02.988025,-64.0
2023-08-09 16:21:02.995715,-83.0
2023-08-09 16:21:03.003405,-62.0
2023-08-09 16:21:03.011096,-47.0
2023-08-09 16:21:03.018786,-47.0
2023-08-09 16:21:03.026476,-35.0
2023-08-09 16:21:03.034167,-21.0
2023-08-09 16:21:03.041857,-19.0
2023-08-09 16:21:03.049547,-9.0
2023-08-09 16:21:03.057238,9.0
2023-08-09 16:21:03.064928,21.0
2023-08-09 16:21:03.072618,33.0
2023-08-09 16:21:03.080309,47.0
2023-08-09 16:21:03.087999,62.0
2023-08-09 16:21:03.095689,81.0
2023-08-09 16:21:03.103380,95.0
2023-08-09 16:21:03.111070,107.0
2023-08-09 16:21:03.118760,112.0
2023-08-09 16:21:03.126451,105.0
2023-08-09 16:21:03.134141,88.0
2023-08-09 16:21:03.141831,64.0
2023-08-09 16:21:03.149522,28.0
2023-08-09 16:21:03.157212,-7.0
2023-08-09 16:21:03.164902,-38.0
2023-08-09 16:21:03.172593,-66.0
2023-08-09 16:21:03.180283,-90.0
2023-08-09 16:21:03.187973,-107.0
2023-08-09 16:21:03.195664,-117.0
2023-08-09 16:21:03.203354,-119.0
2023-08-09 16:21:03.211044,-119.0
2023-08-09 16:21:03.218735,-121.0
2023-08-09 16:21:03.226425,-121.0
2023-08-09 16:21:03.234115,-121.0
2023-08-09 16:21:03.241806,-117.0
2023-08-09 16:21:03.249496,-107.0
2023-08-09 16:21:03.257186,-102.0
2023-08-09 16:21:03.264877,-100.0
2023-08-09 16:21:03.272567,-102.0
2023-08-09 16:21:03.280257,-109.0
2023-08-09 16:21:03.287948,-109.0
2023-08-09 16:21:03.295638,-100.0
2023-08-09 16:21:03.303328,-97.0
2023-08-09 16:21:03.311019,-100.0
2023-08-09 16:21:03.318709,-95.0
2023-08-09 16:21:03.326399,-93.0
2023-08-09 16:21:03.334090,-93.0
2023-08-09 16:21:03.341780,-93.0
2023-08-09 16:21:03.349470,-95.0
2023-08-09 16:21:03.357161,-90.0
2023-08-09 16:21:03.364851,-88.0
2023-08-09 16:21:03.372541,-95.0
2023-08-09 16:21:03.380232,-100.0
2023-08-09 16:21:03.387922,-100.0
2023-08-09 16:21:03.395612,-97.0
2023-08-09 16:21:03.403303,-97.0
2023-08-09 16:21:03.410993,-97.0
2023-08-09 16:21:03.418683,-90.0
2023-08-09 16:21:03.426374,-81.0
2023-08-09 16:21:03.434064,-66.0
2023-08-09 16:21:03.441754,-50.0
2023-08-09 16:21:03.449445,-42.0
2023-08-09 16:21:03.457135,-52.0
2023-08-09 16:21:03.464825,-69.0
2023-08-09 16:21:03.472516,-74.0
2023-08-09 16:21:03.480206,-76.0
2023-08-09 16:21:03.487896,-90.0
2023-08-09 16:21:03.495587,-109.0
2023-08-09 16:21:03.503277,-112.0
2023-08-09 16:21:03.510967,-109.0
2023-08-09 16:21:03.518658,-107.0
2023-08-09 16:21:03.526348,-105.0
2023-08-09 16:21:03.534038,-105.0
2023-08-09 16:21:03.541729,-109.0
2023-08-09 16:21:03.549419,-107.0
2023-08-09 16:21:03.557109,-105.0
2023-08-09 16:21:03.564800,-105.0
2023-08-09 16:21:03.572490,-107.0
2023-08-09 16:21:03.580180,-126.0
2023-08-09 16:21:03.587871,-140.0
2023-08-09 16:21:03.595561,-57.0
2023-08-09 16:21:03.603251,183.0
2023-08-09 16:21:03.610942,477.0
2023-08-09 16:21:03.618632,561.0
2023-08-09 16:21:03.626322,234.0
2023-08-09 16:21:03.634012,-167.0
2023-08-09 16:21:03.641703,-257.0
2023-08-09 16:21:03.649393,-248.0
2023-08-09 16:21:03.657083,-255.0
2023-08-09 16:21:03.664774,-155.0
2023-08-09 16:21:03.672464,-76.0
2023-08-09 16:21:03.680154,-100.0
2023-08-09 16:21:03.687845,-107.0
2023-08-09 16:21:03.695535,-74.0
2023-08-09 16:21:03.703225,-66.0
2023-08-09 16:21:03.710916,-64.0
2023-08-09 16:21:03.718606,-50.0
2023-08-09 16:21:03.726296,-42.0
2023-08-09 16:21:03.733987,-35.0
2023-08-09 16:21:03.741677,-19.0
2023-08-09 16:21:03.749367,-4.0
2023-08-09 16:21:03.757058,4.0
2023-08-09 16:21:03.764748,28.0
2023-08-09 16:21:03.772438,52.0
2023-08-09 16:21:03.780129,59.0
2023-08-09 16:21:03.787819,66.0
2023-08-09 16:21:03.795509,85.0
2023-08-09 16:21:03.803200,97.0
2023-08-09 16:21:03.810890,90.0
2023-08-09 16:21:03.818580,69.0
2023-08-09 16:21:03.826271,45.0
2023-08-09 16:21:03.833961,19.0
2023-08-09 16:21:03.841651,-14.0
2023-08-09 16:21:03.849342,-52.0
2023-08-09 16:21:03.857032,-78.0
2023-08-09 16:21:03.864722,-109.0
2023-08-09 16:21:03.872413,-138.0
2023-08-09 16:21:03.880103,-148.0
2023-08-09 16:21:03.887793,-152.0
2023-08-09 16:21:03.895484,-157.0
2023-08-09 16:21:03.903174,-157.0
2023-08-09 16:21:03.910864,-155.0
2023-08-09 16:21:03.918555,-155.0
2023-08-09 16:21:03.926245,-148.0
2023-08-09 16:21:03.933935,-136.0
2023-08-09 16:21:03.941626,-131.0
2023-08-09 16:21:03.949316,-131.0
2023-08-09 16:21:03.957006,-136.0
2023-08-09 16:21:03.964697,-133.0
2023-08-09 16:21:03.972387,-124.0
2023-08-09 16:21:03.980077,-121.0
2023-08-09 16:21:03.987768,-117.0
2023-08-09 16:21:03.995458,-112.0
2023-08-09 16:21:04.003148,-117.0
2023-08-09 16:21:04.010839,-119.0
2023-08-09 16:21:04.018529,-114.0
2023-08-09 16:21:04.026219,-105.0
2023-08-09 16:21:04.033910,-102.0
2023-08-09 16:21:04.041600,-102.0
2023-08-09 16:21:04.049290,-105.0
2023-08-09 16:21:04.056981,-105.0
2023-08-09 16:21:04.064671,-105.0
2023-08-09 16:21:04.072361,-105.0
2023-08-09 16:21:04.080052,-105.0
2023-08-09 16:21:04.087742,-109.0
2023-08-09 16:21:04.095432,-109.0
2023-08-09 16:21:04.103123,-97.0
2023-08-09 16:21:04.110813,-78.0
2023-08-09 16:21:04.118503,-54.0
2023-08-09 16:21:04.126194,-42.0
2023-08-09 16:21:04.133884,-52.0
2023-08-09 16:21:04.141574,-69.0
2023-08-09 16:21:04.149265,-74.0
2023-08-09 16:21:04.156955,-76.0
2023-08-09 16:21:04.164645,-90.0
2023-08-09 16:21:04.172336,-109.0
2023-08-09 16:21:04.180026,-117.0
2023-08-09 16:21:04.187716,-117.0
2023-08-09 16:21:04.195407,-117.0
2023-08-09 16:21:04.203097,-114.0
2023-08-09 16:21:04.210787,-112.0
2023-08-09 16:21:04.218478,-112.0
2023-08-09 16:21:04.226168,-112.0
2023-08-09 16:21:04.233858,-109.0
2023-08-09 16:21:04.241549,-107.0
2023-08-09 16:21:04.249239,-112.0
2023-08-09 16:21:04.256929,-136.0
2023-08-09 16:21:04.264620,-133.0
2023-08-09 16:21:04.272310,9.0
2023-08-09 16:21:04.280000,293.0
2023-08-09 16:21:04.287691,563.0
2023-08-09 16:21:04.295381,513.0
2023-08-09 16:21:04.303071,74.0
2023-08-09 16:21:04.310762,-265.0
2023-08-09 16:21:04.318452,-279.0
2023-08-09 16:21:04.326142,-269.0
2023-08-09 16:21:04.333832,-248.0
2023-08-09 16:21:04.341523,-128.0
2023-08-09 16:21:04.349213,-81.0
2023-08-09 16:21:04.356903,-109.0
2023-08-09 16:21:04.364594,-95.0
2023-08-09 16:21:04.372284,-66.0
2023-08-09 16:21:04.379974,-66.0
2023-08-09 16:21:04.387665,-57.0
2023-08-09 16:21:04.395355,-38.0
2023-08-09 16:21:04.403045,-33.0
2023-08-09 16:21:04.410736,-26.0
2023-08-09 16:21:04.418426,-9.0
2023-08-09 16:21:04.426116,4.0
2023-08-09 16:21:04.433807,19.0
2023-08-09 16:21:04.441497,38.0
2023-08-09 16:21:04.449187,54.0
2023-08-09 16:21:04.456878,64.0
2023-08-09 16:21:04.464568,74.0
2023-08-09 16:21:04.472258,85.0
2023-08-09 16:21:04.479949,95.0
2023-08-09 16:21:04.487639,90.0
2023-08-09 16:21:04.495329,76.0
2023-08-09 16:21:04.503020,50.0
2023-08-09 16:21:04.510710,14.0
2023-08-09 16:21:04.518400,-23.0
2023-08-09 16:21:04.526091,-59.0
2023-08-09 16:21:04.533781,-90.0
2023-08-09 16:21:04.541471,-119.0
2023-08-09 16:21:04.549162,-138.0
2023-08-09 16:21:04.556852,-148.0
2023-08-09 16:21:04.564542,-148.0
2023-08-09 16:21:04.572233,-148.0
2023-08-09 16:21:04.579923,-150.0
2023-08-09 16:21:04.587613,-148.0
2023-08-09 16:21:04.595304,-140.0
2023-08-09 16:21:04.602994,-136.0
2023-08-09 16:21:04.610684,-131.0
2023-08-09 16:21:04.618375,-124.0
2023-08-09 16:21:04.626065,-114.0
2023-08-09 16:21:04.633755,-109.0
2023-08-09 16:21:04.641446,-107.0
2023-08-09 16:21:04.649136,-107.0
2023-08-09 16:21:04.656826,-102.0
2023-08-09 16:21:04.664517,-95.0
2023-08-09 16:21:04.672207,-93.0
2023-08-09 16:21:04.679897,-93.0
2023-08-09 16:21:04.687588,-88.0
2023-08-09 16:21:04.695278,-81.0
2023-08-09 16:21:04.702968,-81.0
2023-08-09 16:21:04.710659,-81.0
2023-08-09 16:21:04.718349,-81.0
2023-08-09 16:21:04.726039,-78.0
2023-08-09 16:21:04.733730,-81.0
2023-08-09 16:21:04.741420,-81.0
2023-08-09 16:21:04.749110,-78.0
2023-08-09 16:21:04.756801,-76.0
2023-08-09 16:21:04.764491,-78.0
2023-08-09 16:21:04.772181,-78.0
2023-08-09 16:21:04.779872,-69.0
2023-08-09 16:21:04.787562,-52.0
2023-08-09 16:21:04.795252,-31.0
2023-08-09 16:21:04.802943,-21.0
2023-08-09 16:21:04.810633,-21.0
2023-08-09 16:21:04.818323,-35.0
2023-08-09 16:21:04.826014,-47.0
2023-08-09 16:21:04.833704,-50.0
2023-08-09 16:21:04.841394,-57.0
2023-08-09 16:21:04.849085,-76.0
2023-08-09 16:21:04.856775,-90.0
2023-08-09 16:21:04.864465,-85.0
2023-08-09 16:21:04.872156,-83.0
2023-08-09 16:21:04.879846,-88.0
2023-08-09 16:21:04.887536,-88.0
2023-08-09 16:21:04.895227,-85.0
2023-08-09 16:21:04.902917,-88.0
2023-08-09 16:21:04.910607,-88.0
2023-08-09 16:21:04.918298,-83.0
2023-08-09 16:21:04.925988,-88.0
2023-08-09 16:21:04.933678,-114.0
2023-08-09 16:21:04.941369,-136.0
2023-08-09 16:21:04.949059,-57.0
2023-08-09 16:21:04.956749,179.0
2023-08-09 16:21:04.964440,492.0
2023-08-09 16:21:04.972130,613.0
2023-08-09 16:21:04.979820,303.0
2023-08-09 16:21:04.987511,-145.0
2023-08-09 16:21:04.995201,-277.0
2023-08-09 16:21:05.002891,-241.0
2023-08-09 16:21:05.010581,-236.0
2023-08-09 16:21:05.018272,-160.0
2023-08-09 16:21:05.025962,-83.0
2023-08-09 16:21:05.033652,-100.0
2023-08-09 16:21:05.041343,-105.0
2023-08-09 16:21:05.049033,-76.0
2023-08-09 16:21:05.056723,-69.0
2023-08-09 16:21:05.064414,-69.0
2023-08-09 16:21:05.072104,-54.0
2023-08-09 16:21:05.079794,-50.0
2023-08-09 16:21:05.087485,-47.0
2023-08-09 16:21:05.095175,-31.0
2023-08-09 16:21:05.102865,-16.0
2023-08-09 16:21:05.110556,-4.0
2023-08-09 16:21:05.118246,14.0
2023-08-09 16:21:05.125936,31.0
2023-08-09 16:21:05.133627,50.0
2023-08-09 16:21:05.141317,69.0
2023-08-09 16:21:05.149007,83.0
2023-08-09 16:21:05.156698,90.0
2023-08-09 16:21:05.164388,90.0
2023-08-09 16:21:05.172078,83.0
2023-08-09 16:21:05.179769,66.0
2023-08-09 16:21:05.187459,38.0
2023-08-09 16:21:05.195149,0.0
2023-08-09 16:21:05.202840,-40.0
2023-08-09 16:21:05.210530,-71.0
2023-08-09 16:21:05.218220,-97.0
2023-08-09 16:21:05.225911,-117.0
2023-08-09 16:21:05.233601,-128.0
2023-08-09 16:21:05.241291,-138.0
2023-08-09 16:21:05.248982,-140.0
2023-08-09 16:21:05.256672,-138.0
2023-08-09 16:21:05.264362,-133.0
2023-08-09 16:21:05.272053,-131.0
2023-08-09 16:21:05.279743,-131.0
2023-08-09 16:21:05.287433,-126.0
2023-08-09 16:21:05.295124,-121.0
2023-08-09 16:21:05.302814,-119.0
2023-08-09 16:21:05.310504,-117.0
2023-08-09 16:21:05.318195,-109.0
2023-08-09 16:21:05.325885,-102.0
2023-08-09 16:21:05.333575,-102.0
2023-08-09 16:21:05.341266,-100.0
2023-08-09 16:21:05.348956,-97.0
2023-08-09 16:21:05.356646,-95.0
2023-08-09 16:21:05.364337,-93.0
2023-08-09 16:21:05.372027,-85.0
2023-08-09 16:21:05.379717,-85.0
2023-08-09 16:21:05.387408,-88.0
2023-08-09 16:21:05.395098,-88.0
2023-08-09 16:21:05.402788,-88.0
2023-08-09 16:21:05.410479,-85.0
2023-08-09 16:21:05.418169,-83.0
2023-08-09 16:21:05.425859,-85.0
2023-08-09 16:21:05.433550,-88.0
2023-08-09 16:21:05.441240,-85.0
2023-08-09 16:21:05.448930,-83.0
2023-08-09 16:21:05.456621,-81.0
2023-08-09 16:21:05.464311,-83.0
2023-08-09 16:21:05.472001,-78.0
2023-08-09 16:21:05.479692,-57.0
2023-08-09 16:21:05.487382,-26.0
2023-08-09 16:21:05.495072,-19.0
2023-08-09 16:21:05.502763,-35.0
2023-08-09 16:21:05.510453,-50.0
2023-08-09 16:21:05.518143,-50.0
2023-08-09 16:21:05.525834,-54.0
2023-08-09 16:21:05.533524,-76.0
2023-08-09 16:21:05.541214,-95.0
2023-08-09 16:21:05.548905,-100.0
2023-08-09 16:21:05.556595,-95.0
2023-08-09 16:21:05.564285,-95.0
2023-08-09 16:21:05.571976,-105.0
2023-08-09 16:21:05.579666,-109.0
2023-08-09 16:21:05.587356,-105.0
2023-08-09 16:21:05.595047,-102.0
2023-08-09 16:21:05.602737,-102.0
2023-08-09 16:21:05.610427,-97.0
2023-08-09 16:21:05.618118,-114.0
2023-08-09 16:21:05.625808,-150.0
2023-08-09 16:21:05.633498,-145.0
2023-08-09 16:21:05.641189,2.0
2023-08-09 16:21:05.648879,296.0
2023-08-09 16:21:05.656569,551.0
2023-08-09 16:21:05.664260,463.0
2023-08-09 16:21:05.671950,35.0
2023-08-09 16:21:05.679640,-243.0
2023-08-09 16:21:05.687330,-250.0
2023-08-09 16:21:05.695021,-234.0
2023-08-09 16:21:05.702711,-176.0
2023-08-09 16:21:05.710401,-83.0
2023-08-09 16:21:05.718092,-81.0
2023-08-09 16:21:05.725782,-105.0
2023-08-09 16:21:05.733472,-78.0
2023-08-09 16:21:05.741163,-66.0
2023-08-09 16:21:05.748853,-74.0
2023-08-09 16:21:05.756543,-57.0
2023-08-09 16:21:05.764234,-38.0
2023-08-09 16:21:05.771924,-33.0
2023-08-09 16:21:05.779614,-26.0
2023-08-09 16:21:05.787305,-14.0
2023-08-09 16:21:05.794995,-4.0
2023-08-09 16:21:05.802685,11.0
2023-08-09 16:21:05.810376,31.0
2023-08-09 16:21:05.818066,47.0
2023-08-09 16:21:05.825756,64.0
2023-08-09 16:21:05.833447,78.0
2023-08-09 16:21:05.841137,95.0
2023-08-09 16:21:05.848827,109.0
2023-08-09 16:21:05.856518,105.0
2023-08-09 16:21:05.864208,71.0
2023-08-09 16:21:05.871898,40.0
2023-08-09 16:21:05.879589,23.0
2023-08-09 16:21:05.887279,-7.0
2023-08-09 16:21:05.894969,-52.0
2023-08-09 16:21:05.902660,-76.0
2023-08-09 16:21:05.910350,-88.0
2023-08-09 16:21:05.918040,-107.0
2023-08-09 16:21:05.925731,-112.0
2023-08-09 16:21:05.933421,-119.0
2023-08-09 16:21:05.941111,-136.0
2023-08-09 16:21:05.948802,-140.0
2023-08-09 16:21:05.956492,-124.0
2023-08-09 16:21:05.964182,-102.0
2023-08-09 16:21:05.971873,-95.0
2023-08-09 16:21:05.979563,-112.0
2023-08-09 16:21:05.987253,-124.0
2023-08-09 16:21:05.994944,-121.0
2023-08-09 16:21:06.002634,-117.0
2023-08-09 16:21:06.010324,-107.0
2023-08-09 16:21:06.018015,-100.0
2023-08-09 16:21:06.025705,-95.0
2023-08-09 16:21:06.033395,-88.0
2023-08-09 16:21:06.041086,-81.0
2023-08-09 16:21:06.048776,-88.0
2023-08-09 16:21:06.056466,-90.0
2023-08-09 16:21:06.064157,-90.0
2023-08-09 16:21:06.071847,-95.0
2023-08-09 16:21:06.079537,-90.0
2023-08-09 16:21:06.087228,-71.0
2023-08-09 16:21:06.094918,-64.0
2023-08-09 16:21:06.102608,-78.0
2023-08-09 16:21:06.110299,-88.0
2023-08-09 16:21:06.117989,-85.0
2023-08-09 16:21:06.125679,-88.0
2023-08-09 16:21:06.133370,-93.0
2023-08-09 16:21:06.141060,-83.0
2023-08-09 16:21:06.148750,-74.0
2023-08-09 16:21:06.156441,-78.0
2023-08-09 16:21:06.164131,-81.0
2023-08-09 16:21:06.171821,-76.0
2023-08-09 16:21:06.179512,-59.0
2023-08-09 16:21:06.187202,-28.0
2023-08-09 16:21:06.194892,-11.0
2023-08-09 16:21:06.202583,-38.0
2023-08-09 16:21:06.210273,-64.0
2023-08-09 16:21:06.217963,-54.0
2023-08-09 16:21:06.225654,-33.0
2023-08-09 16:21:06.233344,-52.0
2023-08-09 16:21:06.241034,-93.0
2023-08-09 16:21:06.248725,-95.0
2023-08-09 16:21:06.256415,-76.0
2023-08-09 16:21:06.264105,-93.0
2023-08-09 16:21:06.271796,-107.0
2023-08-09 16:21:06.279486,-90.0
2023-08-09 16:21:06.287176,-90.0
2023-08-09 16:21:06.294867,-105.0
2023-08-09 16:21:06.302557,-90.0
2023-08-09 16:21:06.310247,-78.0
2023-08-09 16:21:06.317938,-97.0
2023-08-09 16:21:06.325628,-131.0
2023-08-09 16:21:06.333318,-117.0
2023-08-09 16:21:06.341009,40.0
2023-08-09 16:21:06.348699,334.0
2023-08-09 16:21:06.356389,609.0
2023-08-09 16:21:06.364080,515.0
2023-08-09 16:21:06.371770,45.0
2023-08-09 16:21:06.379460,-248.0
2023-08-09 16:21:06.387150,-236.0
2023-08-09 16:21:06.394841,-243.0
2023-08-09 16:21:06.402531,-219.0
2023-08-09 16:21:06.410221,-97.0
2023-08-09 16:21:06.417912,-69.0
2023-08-09 16:21:06.425602,-114.0
2023-08-09 16:21:06.433292,-105.0
2023-08-09 16:21:06.440983,-66.0
2023-08-09 16:21:06.448673,-52.0
2023-08-09 16:21:06.456363,-38.0
2023-08-09 16:21:06.464054,-14.0
2023-08-09 16:21:06.471744,-19.0
2023-08-09 16:21:06.479434,-50.0
2023-08-09 16:21:06.487125,-38.0
2023-08-09 16:21:06.494815,19.0
2023-08-09 16:21:06.502505,50.0
2023-08-09 16:21:06.510196,45.0
2023-08-09 16:21:06.517886,52.0
2023-08-09 16:21:06.525576,69.0
2023-08-09 16:21:06.533267,85.0
2023-08-09 16:21:06.540957,112.0
2023-08-09 16:21:06.548647,131.0
2023-08-09 16:21:06.556338,112.0
2023-08-09 16:21:06.564028,66.0
2023-08-09 16:21:06.571718,35.0
2023-08-09 16:21:06.579409,31.0
2023-08-09 16:21:06.587099,9.0
2023-08-09 16:21:06.594789,-54.0
2023-08-09 16:21:06.602480,-97.0
2023-08-09 16:21:06.610170,-100.0
2023-08-09 16:21:06.617860,-124.0
2023-08-09 16:21:06.625551,-164.0
2023-08-09 16:21:06.633241,-157.0
2023-08-09 16:21:06.640931,-128.0
2023-08-09 16:21:06.648622,-131.0
2023-08-09 16:21:06.656312,-140.0
2023-08-09 16:21:06.664002,-128.0
2023-08-09 16:21:06.671693,-128.0
2023-08-09 16:21:06.679383,-128.0
2023-08-09 16:21:06.687073,-114.0
2023-08-09 16:21:06.694764,-128.0
2023-08-09 16:21:06.702454,-140.0
2023-08-09 16:21:06.710144,-109.0
2023-08-09 16:21:06.717835,-100.0
2023-08-09 16:21:06.725525,-119.0
2023-08-09 16:21:06.733215,-105.0
2023-08-09 16:21:06.740906,-83.0
2023-08-09 16:21:06.748596,-105.0
2023-08-09 16:21:06.756286,-124.0
2023-08-09 16:21:06.763977,-105.0
2023-08-09 16:21:06.771667,-85.0
2023-08-09 16:21:06.779357,-100.0
2023-08-09 16:21:06.787048,-109.0
2023-08-09 16:21:06.794738,-88.0
2023-08-09 16:21:06.802428,-88.0
2023-08-09 16:21:06.810119,-126.0
2023-08-09 16:21:06.817809,-117.0
2023-08-09 16:21:06.825499,-71.0
2023-08-09 16:21:06.833190,-81.0
2023-08-09 16:21:06.840880,-109.0
2023-08-09 16:21:06.848570,-78.0
2023-08-09 16:21:06.856261,-66.0
2023-08-09 16:21:06.863951,-81.0
2023-08-09 16:21:06.871641,-50.0
2023-08-09 16:21:06.879332,-16.0
2023-08-09 16:21:06.887022,-21.0
2023-08-09 16:21:06.894712,-23.0
2023-08-09 16:21:06.902403,-23.0
2023-08-09 16:21:06.910093,-52.0
2023-08-09 16:21:06.917783,-76.0
2023-08-09 16:21:06.925474,-64.0
2023-08-09 16:21:06.933164,-66.0
2023-08-09 16:21:06.940854,-97.0
2023-08-09 16:21:06.948545,-81.0
2023-08-09 16:21:06.956235,-40.0
2023-08-09 16:21:06.963925,-78.0
2023-08-09 16:21:06.971616,-121.0
2023-08-09 16:21:06.979306,-102.0
2023-08-09 16:21:06.986996,-88.0
2023-08-09 16:21:06.994687,-88.0
2023-08-09 16:21:07.002377,-76.0
2023-08-09 16:21:07.010067,-85.0
2023-08-09 16:21:07.017758,-133.0
2023-08-09 16:21:07.025448,-112.0
2023-08-09 16:21:07.033138,76.0
2023-08-09 16:21:07.040829,410.0
2023-08-09 16:21:07.048519,680.0
2023-08-09 16:21:07.056209,499.0
2023-08-09 16:21:07.063899,-31.0
2023-08-09 16:21:07.071590,-279.0
2023-08-09 16:21:07.079280,-238.0
2023-08-09 16:21:07.086970,-253.0
2023-08-09 16:21:07.094661,-224.0
2023-08-09 16:21:07.102351,-109.0
2023-08-09 16:21:07.110041,-81.0
2023-08-09 16:21:07.117732,-102.0
2023-08-09 16:21:07.125422,-76.0
2023-08-09 16:21:07.133112,-66.0
2023-08-09 16:21:07.140803,-83.0
2023-08-09 16:21:07.148493,-69.0
2023-08-09 16:21:07.156183,-47.0
2023-08-09 16:21:07.163874,-40.0
2023-08-09 16:21:07.171564,-21.0
2023-08-09 16:21:07.179254,-4.0
2023-08-09 16:21:07.186945,11.0
2023-08-09 16:21:07.194635,45.0
2023-08-09 16:21:07.202325,59.0
2023-08-09 16:21:07.210016,33.0
2023-08-09 16:21:07.217706,38.0
2023-08-09 16:21:07.225396,97.0
2023-08-09 16:21:07.233087,126.0
2023-08-09 16:21:07.240777,105.0
2023-08-09 16:21:07.248467,97.0
2023-08-09 16:21:07.256158,88.0
2023-08-09 16:21:07.263848,33.0
2023-08-09 16:21:07.271538,-26.0
2023-08-09 16:21:07.279229,-52.0
2023-08-09 16:21:07.286919,-62.0
2023-08-09 16:21:07.294609,-95.0
2023-08-09 16:21:07.302300,-128.0
2023-08-09 16:21:07.309990,-131.0
2023-08-09 16:21:07.317680,-136.0
2023-08-09 16:21:07.325371,-143.0
2023-08-09 16:21:07.333061,-143.0
2023-08-09 16:21:07.340751,-140.0
2023-08-09 16:21:07.348442,-136.0
2023-08-09 16:21:07.356132,-128.0
2023-08-09 16:21:07.363822,-126.0
2023-08-09 16:21:07.371513,-126.0
2023-08-09 16:21:07.379203,-114.0
2023-08-09 16:21:07.386893,-102.0
2023-08-09 16:21:07.394584,-114.0
2023-08-09 16:21:07.402274,-119.0
2023-08-09 16:21:07.409964,-100.0
2023-08-09 16:21:07.417655,-97.0
2023-08-09 16:21:07.425345,-102.0
2023-08-09 16:21:07.433035,-66.0
2023-08-09 16:21:07.440726,-59.0
2023-08-09 16:21:07.448416,-95.0
2023-08-09 16:21:07.456106,-90.0
2023-08-09 16:21:07.463797,-66.0
2023-08-09 16:21:07.471487,-81.0
2023-08-09 16:21:07.479177,-102.0
2023-08-09 16:21:07.486868,-90.0
2023-08-09 16:21:07.494558,-71.0
2023-08-09 16:21:07.502248,-85.0
2023-08-09 16:21:07.509939,-102.0
2023-08-09 16:21:07.517629,-95.0
2023-08-09 16:21:07.525319,-76.0
2023-08-09 16:21:07.533010,-64.0
2023-08-09 16:21:07.540700,-88.0
2023-08-09 16:21:07.548390,-109.0
2023-08-09 16:21:07.556081,-90.0
2023-08-09 16:21:07.563771,-76.0
2023-08-09 16:21:07.571461,-88.0
2023-08-09 16:21:07.579152,-90.0
2023-08-09 16:21:07.586842,-59.0
2023-08-09 16:21:07.594532,-7.0
2023-08-09 16:21:07.602223,0.0
2023-08-09 16:21:07.609913,-38.0
2023-08-09 16:21:07.617603,-40.0
2023-08-09 16:21:07.625294,-26.0
2023-08-09 16:21:07.632984,-45.0
2023-08-09 16:21:07.640674,-64.0
2023-08-09 16:21:07.648365,-69.0
2023-08-09 16:21:07.656055,-88.0
2023-08-09 16:21:07.663745,-109.0
2023-08-09 16:21:07.671436,-105.0
2023-08-09 16:21:07.679126,-78.0
2023-08-09 16:21:07.686816,-78.0
2023-08-09 16:21:07.694507,-100.0
2023-08-09 16:21:07.702197,-81.0
2023-08-09 16:21:07.709887,-57.0
2023-08-09 16:21:07.717578,-85.0
2023-08-09 16:21:07.725268,-97.0
2023-08-09 16:21:07.732958,-97.0
2023-08-09 16:21:07.740649,-140.0
2023-08-09 16:21:07.748339,-114.0
2023-08-09 16:21:07.756029,85.0
2023-08-09 16:21:07.763719,408.0
2023-08-09 16:21:07.771410,644.0
2023-08-09 16:21:07.779100,468.0
2023-08-09 16:21:07.786790,-4.0
2023-08-09 16:21:07.794481,-243.0
2023-08-09 16:21:07.802171,-234.0
2023-08-09 16:21:07.809861,-238.0
2023-08-09 16:21:07.817552,-200.0
2023-08-09 16:21:07.825242,-117.0
2023-08-09 16:21:07.832932,-93.0
2023-08-09 16:21:07.840623,-95.0
2023-08-09 16:21:07.848313,-85.0
2023-08-09 16:21:07.856003,-76.0
2023-08-09 16:21:07.863694,-71.0
2023-08-09 16:21:07.871384,-88.0
2023-08-09 16:21:07.879074,-85.0
2023-08-09 16:21:07.886765,-40.0
2023-08-09 16:21:07.894455,-14.0
2023-08-09 16:21:07.902145,-23.0
2023-08-09 16:21:07.909836,-21.0
2023-08-09 16:21:07.917526,0.0
2023-08-09 16:21:07.925216,21.0
2023-08-09 16:21:07.932907,40.0
2023-08-09 16:21:07.940597,57.0
2023-08-09 16:21:07.948287,62.0
2023-08-09 16:21:07.955978,74.0
2023-08-09 16:21:07.963668,102.0
2023-08-09 16:21:07.971358,102.0
2023-08-09 16:21:07.979049,74.0
2023-08-09 16:21:07.986739,38.0
2023-08-09 16:21:07.994429,-14.0
2023-08-09 16:21:08.002120,-59.0
2023-08-09 16:21:08.009810,-90.0
2023-08-09 16:21:08.017500,-117.0
2023-08-09 16:21:08.025191,-140.0
2023-08-09 16:21:08.032881,-150.0
2023-08-09 16:21:08.040571,-136.0
2023-08-09 16:21:08.048262,-133.0
2023-08-09 16:21:08.055952,-174.0
2023-08-09 16:21:08.063642,-188.0
2023-08-09 16:21:08.071333,-152.0
2023-08-09 16:21:08.079023,-145.0
2023-08-09 16:21:08.086713,-160.0
2023-08-09 16:21:08.094404,-140.0
2023-08-09 16:21:08.102094,-126.0
2023-08-09 16:21:08.109784,-138.0
2023-08-09 16:21:08.117475,-136.0
2023-08-09 16:21:08.125165,-114.0
2023-08-09 16:21:08.132855,-112.0
2023-08-09 16:21:08.140546,-117.0
2023-08-09 16:21:08.148236,-109.0
2023-08-09 16:21:08.155926,-93.0
2023-08-09 16:21:08.163617,-93.0
2023-08-09 16:21:08.171307,-97.0
2023-08-09 16:21:08.178997,-90.0
2023-08-09 16:21:08.186688,-90.0
2023-08-09 16:21:08.194378,-95.0
2023-08-09 16:21:08.202068,-93.0
2023-08-09 16:21:08.209759,-95.0
2023-08-09 16:21:08.217449,-95.0
2023-08-09 16:21:08.225139,-83.0
2023-08-09 16:21:08.232830,-78.0
2023-08-09 16:21:08.240520,-88.0
2023-08-09 16:21:08.248210,-88.0
2023-08-09 16:21:08.255901,-85.0
2023-08-09 16:21:08.263591,-93.0
2023-08-09 16:21:08.271281,-90.0
2023-08-09 16:21:08.278972,-83.0
2023-08-09 16:21:08.286662,-76.0
2023-08-09 16:21:08.294352,-78.0
2023-08-09 16:21:08.302043,-90.0
2023-08-09 16:21:08.309733,-83.0
2023-08-09 16:21:08.317423,-66.0
2023-08-09 16:21:08.325114,-90.0
2023-08-09 16:21:08.332804,-85.0
2023-08-09 16:21:08.340494,-21.0
2023-08-09 16:21:08.348185,4.0
2023-08-09 16:21:08.355875,-28.0
2023-08-09 16:21:08.363565,-47.0
2023-08-09 16:21:08.371256,-52.0
2023-08-09 16:21:08.378946,-71.0
2023-08-09 16:21:08.386636,-88.0
2023-08-09 16:21:08.394327,-97.0
2023-08-09 16:21:08.402017,-119.0
2023-08-09 16:21:08.409707,-121.0
2023-08-09 16:21:08.417398,-90.0
2023-08-09 16:21:08.425088,-85.0
2023-08-09 16:21:08.432778,-124.0
2023-08-09 16:21:08.440468,-131.0
2023-08-09 16:21:08.448159,-85.0
2023-08-09 16:21:08.455849,-71.0
2023-08-09 16:21:08.463539,-100.0
2023-08-09 16:21:08.471230,-112.0
2023-08-09 16:21:08.478920,-124.0
2023-08-09 16:21:08.486610,-121.0
2023-08-09 16:21:08.494301,-2.0
2023-08-09 16:21:08.501991,293.0
2023-08-09 16:21:08.509681,628.0
2023-08-09 16:21:08.517372,630.0
2023-08-09 16:21:08.525062,174.0
2023-08-09 16:21:08.532752,-212.0
2023-08-09 16:21:08.540443,-250.0
2023-08-09 16:21:08.548133,-257.0
2023-08-09 16:21:08.555823,-257.0
2023-08-09 16:21:08.563514,-133.0
2023-08-09 16:21:08.571204,-71.0
2023-08-09 16:21:08.578894,-117.0
2023-08-09 16:21:08.586585,-100.0
2023-08-09 16:21:08.594275,-54.0
2023-08-09 16:21:08.601965,-59.0
2023-08-09 16:21:08.609656,-52.0
2023-08-09 16:21:08.617346,-21.0
2023-08-09 16:21:08.625036,-21.0
2023-08-09 16:21:08.632727,-21.0
2023-08-09 16:21:08.640417,0.0
2023-08-09 16:21:08.648107,4.0
2023-08-09 16:21:08.655798,14.0
2023-08-09 16:21:08.663488,59.0
2023-08-09 16:21:08.671178,95.0
2023-08-09 16:21:08.678869,97.0
2023-08-09 16:21:08.686559,102.0
2023-08-09 16:21:08.694249,117.0
2023-08-09 16:21:08.701940,126.0
2023-08-09 16:21:08.709630,131.0
2023-08-09 16:21:08.717320,121.0
2023-08-09 16:21:08.725011,93.0
2023-08-09 16:21:08.732701,40.0
2023-08-09 16:21:08.740391,-14.0
2023-08-09 16:21:08.748082,-50.0
2023-08-09 16:21:08.755772,-71.0
2023-08-09 16:21:08.763462,-93.0
2023-08-09 16:21:08.771153,-117.0
2023-08-09 16:21:08.778843,-121.0
2023-08-09 16:21:08.786533,-124.0
2023-08-09 16:21:08.794224,-145.0
2023-08-09 16:21:08.801914,-155.0
2023-08-09 16:21:08.809604,-131.0
2023-08-09 16:21:08.817295,-107.0
2023-08-09 16:21:08.824985,-109.0
2023-08-09 16:21:08.832675,-119.0
2023-08-09 16:21:08.840366,-112.0
2023-08-09 16:21:08.848056,-93.0
2023-08-09 16:21:08.855746,-95.0
2023-08-09 16:21:08.863437,-109.0
2023-08-09 16:21:08.871127,-97.0
2023-08-09 16:21:08.878817,-74.0
2023-08-09 16:21:08.886508,-69.0
2023-08-09 16:21:08.894198,-81.0
2023-08-09 16:21:08.901888,-78.0
2023-08-09 16:21:08.909579,-76.0
2023-08-09 16:21:08.917269,-88.0
2023-08-09 16:21:08.924959,-88.0
2023-08-09 16:21:08.932650,-66.0
2023-08-09 16:21:08.940340,-62.0
2023-08-09 16:21:08.948030,-85.0
2023-08-09 16:21:08.955721,-78.0
2023-08-09 16:21:08.963411,-54.0
2023-08-09 16:21:08.971101,-66.0
2023-08-09 16:21:08.978792,-85.0
2023-08-09 16:21:08.986482,-83.0
2023-08-09 16:21:08.994172,-90.0
2023-08-09 16:21:09.001863,-88.0
2023-08-09 16:21:09.009553,-66.0
2023-08-09 16:21:09.017243,-78.0
2023-08-09 16:21:09.024934,-117.0
2023-08-09 16:21:09.032624,-97.0
2023-08-09 16:21:09.040314,-57.0
2023-08-09 16:21:09.048005,-66.0
2023-08-09 16:21:09.055695,-76.0
2023-08-09 16:21:09.063385,-62.0
2023-08-09 16:21:09.071076,-69.0
2023-08-09 16:21:09.078766,-83.0
2023-08-09 16:21:09.086456,-90.0
2023-08-09 16:21:09.094147,-85.0
2023-08-09 16:21:09.101837,-64.0
2023-08-09 16:21:09.109527,-33.0
2023-08-09 16:21:09.117218,-4.0
2023-08-09 16:21:09.124908,-4.0
2023-08-09 16:21:09.132598,-23.0
2023-08-09 16:21:09.140288,-45.0
2023-08-09 16:21:09.147979,-54.0
2023-08-09 16:21:09.155669,-50.0
2023-08-09 16:21:09.163359,-52.0
2023-08-09 16:21:09.171050,-83.0
2023-08-09 16:21:09.178740,-107.0
2023-08-09 16:21:09.186430,-97.0
2023-08-09 16:21:09.194121,-78.0
2023-08-09 16:21:09.201811,-71.0
2023-08-09 16:21:09.209501,-62.0
2023-08-09 16:21:09.217192,-74.0
2023-08-09 16:21:09.224882,-90.0
2023-08-09 16:21:09.232572,-76.0
2023-08-09 16:21:09.240263,-76.0
2023-08-09 16:21:09.247953,-107.0
2023-08-09 16:21:09.255643,-131.0
2023-08-09 16:21:09.263334,-97.0
2023-08-09 16:21:09.271024,95.0
2023-08-09 16:21:09.278714,432.0
2023-08-09 16:21:09.286405,690.0
2023-08-09 16:21:09.294095,535.0
2023-08-09 16:21:09.301785,35.0
2023-08-09 16:21:09.309476,-262.0
2023-08-09 16:21:09.317166,-262.0
2023-08-09 16:21:09.324856,-236.0
2023-08-09 16:21:09.332547,-171.0
2023-08-09 16:21:09.340237,-74.0
2023-08-09 16:21:09.347927,-76.0
2023-08-09 16:21:09.355618,-109.0
2023-08-09 16:21:09.363308,-83.0
2023-08-09 16:21:09.370998,-50.0
2023-08-09 16:21:09.378689,-52.0
2023-08-09 16:21:09.386379,-50.0
2023-08-09 16:21:09.394069,-35.0
2023-08-09 16:21:09.401760,-19.0
2023-08-09 16:21:09.409450,-2.0
2023-08-09 16:21:09.417140,7.0
2023-08-09 16:21:09.424831,9.0
2023-08-09 16:21:09.432521,31.0
2023-08-09 16:21:09.440211,57.0
2023-08-09 16:21:09.447902,64.0
2023-08-09 16:21:09.455592,76.0
2023-08-09 16:21:09.463282,105.0
2023-08-09 16:21:09.470973,114.0
2023-08-09 16:21:09.478663,117.0
2023-08-09 16:21:09.486353,117.0
2023-08-09 16:21:09.494044,95.0
2023-08-09 16:21:09.501734,62.0
2023-08-09 16:21:09.509424,23.0
2023-08-09 16:21:09.517115,-23.0
2023-08-09 16:21:09.524805,-57.0
2023-08-09 16:21:09.532495,-100.0
2023-08-09 16:21:09.540186,-145.0
2023-08-09 16:21:09.547876,-138.0
2023-08-09 16:21:09.555566,-131.0
2023-08-09 16:21:09.563257,-155.0
2023-08-09 16:21:09.570947,-160.0
2023-08-09 16:21:09.578637,-150.0
2023-08-09 16:21:09.586328,-145.0
2023-08-09 16:21:09.594018,-145.0
2023-08-09 16:21:09.601708,-150.0
2023-08-09 16:21:09.609399,-143.0
2023-08-09 16:21:09.617089,-124.0
2023-08-09 16:21:09.624779,-121.0
2023-08-09 16:21:09.632470,-126.0
2023-08-09 16:21:09.640160,-124.0
2023-08-09 16:21:09.647850,-100.0
2023-08-09 16:21:09.655541,-76.0
2023-08-09 16:21:09.663231,-88.0
2023-08-09 16:21:09.670921,-112.0
2023-08-09 16:21:09.678612,-100.0
2023-08-09 16:21:09.686302,-95.0
2023-08-09 16:21:09.693992,-93.0
2023-08-09 16:21:09.701683,-76.0
2023-08-09 16:21:09.709373,-93.0
2023-08-09 16:21:09.717063,-112.0
2023-08-09 16:21:09.724754,-88.0
2023-08-09 16:21:09.732444,-69.0
2023-08-09 16:21:09.740134,-78.0
2023-08-09 16:21:09.747825,-88.0
2023-08-09 16:21:09.755515,-88.0
2023-08-09 16:21:09.763205,-81.0
2023-08-09 16:21:09.770896,-90.0
2023-08-09 16:21:09.778586,-105.0
2023-08-09 16:21:09.786276,-97.0
2023-08-09 16:21:09.793967,-78.0
2023-08-09 16:21:09.801657,-78.0
2023-08-09 16:21:09.809347,-95.0
2023-08-09 16:21:09.817037,-83.0
2023-08-09 16:21:09.824728,-66.0
2023-08-09 16:21:09.832418,-85.0
2023-08-09 16:21:09.840108,-107.0
2023-08-09 16:21:09.847799,-95.0
2023-08-09 16:21:09.855489,-85.0
2023-08-09 16:21:09.863179,-105.0
2023-08-09 16:21:09.870870,-105.0
2023-08-09 16:21:09.878560,-71.0
2023-08-09 16:21:09.886250,-42.0
2023-08-09 16:21:09.893941,-28.0
2023-08-09 16:21:09.901631,-23.0
2023-08-09 16:21:09.909321,-33.0
2023-08-09 16:21:09.917012,-40.0
2023-08-09 16:21:09.924702,-38.0
2023-08-09 16:21:09.932392,-45.0
2023-08-09 16:21:09.940083,-62.0
2023-08-09 16:21:09.947773,-88.0
2023-08-09 16:21:09.955463,-105.0
2023-08-09 16:21:09.963154,-95.0
2023-08-09 16:21:09.970844,-97.0
2023-08-09 16:21:09.978534,-105.0
2023-08-09 16:21:09.986225,-93.0
2023-08-09 16:21:09.993915,-85.0
2023-08-09 16:21:10.001605,-90.0
2023-08-09 16:21:10.009296,-97.0
2023-08-09 16:21:10.016986,-105.0
2023-08-09 16:21:10.024676,-114.0
2023-08-09 16:21:10.032367,-138.0
2023-08-09 16:21:10.040057,-150.0
2023-08-09 16:21:10.047747,-33.0
2023-08-09 16:21:10.055438,248.0
2023-08-09 16:21:10.063128,544.0
2023-08-09 16:21:10.070818,582.0
2023-08-09 16:21:10.078509,214.0
2023-08-09 16:21:10.086199,-183.0
2023-08-09 16:21:10.093889,-269.0
2023-08-09 16:21:10.101580,-257.0
2023-08-09 16:21:10.109270,-255.0
2023-08-09 16:21:10.116960,-148.0
2023-08-09 16:21:10.124651,-76.0
2023-08-09 16:21:10.132341,-97.0
2023-08-09 16:21:10.140031,-88.0
2023-08-09 16:21:10.147722,-76.0
2023-08-09 16:21:10.155412,-88.0
2023-08-09 16:21:10.163102,-54.0
2023-08-09 16:21:10.170793,-23.0
2023-08-09 16:21:10.178483,-35.0
2023-08-09 16:21:10.186173,-33.0
2023-08-09 16:21:10.193864,-16.0
2023-08-09 16:21:10.201554,-4.0
2023-08-09 16:21:10.209244,21.0
2023-08-09 16:21:10.216935,50.0
2023-08-09 16:21:10.224625,62.0
2023-08-09 16:21:10.232315,76.0
2023-08-09 16:21:10.240006,85.0
2023-08-09 16:21:10.247696,95.0
2023-08-09 16:21:10.255386,109.0
2023-08-09 16:21:10.263077,107.0
2023-08-09 16:21:10.270767,93.0
2023-08-09 16:21:10.278457,85.0
2023-08-09 16:21:10.286148,57.0
2023-08-09 16:21:10.293838,2.0
2023-08-09 16:21:10.301528,-38.0
2023-08-09 16:21:10.309219,-76.0
2023-08-09 16:21:10.316909,-107.0
2023-08-09 16:21:10.324599,-131.0
2023-08-09 16:21:10.332290,-148.0
2023-08-09 16:21:10.339980,-152.0
2023-08-09 16:21:10.347670,-150.0
2023-08-09 16:21:10.355361,-145.0
2023-08-09 16:21:10.363051,-150.0
2023-08-09 16:21:10.370741,-152.0
2023-08-09 16:21:10.378432,-145.0
2023-08-09 16:21:10.386122,-157.0
2023-08-09 16:21:10.393812,-160.0
2023-08-09 16:21:10.401503,-126.0
2023-08-09 16:21:10.409193,-114.0
2023-08-09 16:21:10.416883,-128.0
2023-08-09 16:21:10.424574,-119.0
2023-08-09 16:21:10.432264,-114.0
2023-08-09 16:21:10.439954,-117.0
2023-08-09 16:21:10.447645,-109.0
2023-08-09 16:21:10.455335,-114.0
2023-08-09 16:21:10.463025,-131.0
2023-08-09 16:21:10.470716,-128.0
2023-08-09 16:21:10.478406,-93.0
