time,ECG
2023-08-11 17:33:24.427627,-2.0
2023-08-11 17:33:24.435316,-4.0
2023-08-11 17:33:24.443005,0.0
2023-08-11 17:33:24.450695,-2.0
2023-08-11 17:33:24.458384,-7.0
2023-08-11 17:33:24.466073,-7.0
2023-08-11 17:33:24.473763,-7.0
2023-08-11 17:33:24.481452,-7.0
2023-08-11 17:33:24.489142,-4.0
2023-08-11 17:33:24.496831,2.0
2023-08-11 17:33:24.504520,-2.0
2023-08-11 17:33:24.512210,-24.0
2023-08-11 17:33:24.519899,-43.0
2023-08-11 17:33:24.527588,-50.0
2023-08-11 17:33:24.535278,-62.0
2023-08-11 17:33:24.542967,-67.0
2023-08-11 17:33:24.550657,-53.0
2023-08-11 17:33:24.558346,-38.0
2023-08-11 17:33:24.566035,-31.0
2023-08-11 17:33:24.573725,-26.0
2023-08-11 17:33:24.581414,-12.0
2023-08-11 17:33:24.589103,-7.0
2023-08-11 17:33:24.596793,-19.0
2023-08-11 17:33:24.604482,-36.0
2023-08-11 17:33:24.612172,-43.0
2023-08-11 17:33:24.619861,-45.0
2023-08-11 17:33:24.627550,-50.0
2023-08-11 17:33:24.635240,-45.0
2023-08-11 17:33:24.642929,-26.0
2023-08-11 17:33:24.650619,-53.0
2023-08-11 17:33:24.658308,-273.0
2023-08-11 17:33:24.665997,-778.0
2023-08-11 17:33:24.673687,-1232.0
2023-08-11 17:33:24.681376,-1073.0
2023-08-11 17:33:24.689065,-299.0
2023-08-11 17:33:24.696755,364.0
2023-08-11 17:33:24.704444,350.0
2023-08-11 17:33:24.712134,89.0
2023-08-11 17:33:24.719823,67.0
2023-08-11 17:33:24.727512,62.0
2023-08-11 17:33:24.735202,-14.0
2023-08-11 17:33:24.742891,-7.0
2023-08-11 17:33:24.750580,12.0
2023-08-11 17:33:24.758270,-19.0
2023-08-11 17:33:24.765959,-29.0
2023-08-11 17:33:24.773649,-24.0
2023-08-11 17:33:24.781338,-38.0
2023-08-11 17:33:24.789027,-53.0
2023-08-11 17:33:24.796717,-60.0
2023-08-11 17:33:24.804406,-70.0
2023-08-11 17:33:24.812095,-87.0
2023-08-11 17:33:24.819785,-103.0
2023-08-11 17:33:24.827474,-123.0
2023-08-11 17:33:24.835164,-147.0
2023-08-11 17:33:24.842853,-178.0
2023-08-11 17:33:24.850542,-215.0
2023-08-11 17:33:24.858232,-253.0
2023-08-11 17:33:24.865921,-285.0
2023-08-11 17:33:24.873610,-306.0
2023-08-11 17:33:24.881300,-321.0
2023-08-11 17:33:24.888989,-321.0
2023-08-11 17:33:24.896679,-302.0
2023-08-11 17:33:24.904368,-256.0
2023-08-11 17:33:24.912057,-186.0
2023-08-11 17:33:24.919747,-106.0
2023-08-11 17:33:24.927436,-36.0
2023-08-11 17:33:24.935125,16.0
2023-08-11 17:33:24.942815,50.0
2023-08-11 17:33:24.950504,72.0
2023-08-11 17:33:24.958194,84.0
2023-08-11 17:33:24.965883,89.0
2023-08-11 17:33:24.973572,87.0
2023-08-11 17:33:24.981262,87.0
2023-08-11 17:33:24.988951,84.0
2023-08-11 17:33:24.996640,84.0
2023-08-11 17:33:25.004330,82.0
2023-08-11 17:33:25.012019,74.0
2023-08-11 17:33:25.019709,70.0
2023-08-11 17:33:25.027398,67.0
2023-08-11 17:33:25.035087,62.0
2023-08-11 17:33:25.042777,60.0
2023-08-11 17:33:25.050466,55.0
2023-08-11 17:33:25.058155,48.0
2023-08-11 17:33:25.065845,38.0
2023-08-11 17:33:25.073534,38.0
2023-08-11 17:33:25.081224,33.0
2023-08-11 17:33:25.088913,24.0
2023-08-11 17:33:25.096602,19.0
2023-08-11 17:33:25.104292,16.0
2023-08-11 17:33:25.111981,14.0
2023-08-11 17:33:25.119671,4.0
2023-08-11 17:33:25.127360,-4.0
2023-08-11 17:33:25.135049,-7.0
2023-08-11 17:33:25.142739,-12.0
2023-08-11 17:33:25.150428,-16.0
2023-08-11 17:33:25.158117,-16.0
2023-08-11 17:33:25.165807,-14.0
2023-08-11 17:33:25.173496,-16.0
2023-08-11 17:33:25.181186,-16.0
2023-08-11 17:33:25.188875,-14.0
2023-08-11 17:33:25.196564,-14.0
2023-08-11 17:33:25.204254,-16.0
2023-08-11 17:33:25.211943,-19.0
2023-08-11 17:33:25.219632,-21.0
2023-08-11 17:33:25.227322,-19.0
2023-08-11 17:33:25.235011,-16.0
2023-08-11 17:33:25.242701,-14.0
2023-08-11 17:33:25.250390,-16.0
2023-08-11 17:33:25.258079,-26.0
2023-08-11 17:33:25.265769,-43.0
2023-08-11 17:33:25.273458,-55.0
2023-08-11 17:33:25.281147,-62.0
2023-08-11 17:33:25.288837,-72.0
2023-08-11 17:33:25.296526,-62.0
2023-08-11 17:33:25.304216,-45.0
2023-08-11 17:33:25.311905,-41.0
2023-08-11 17:33:25.319594,-38.0
2023-08-11 17:33:25.327284,-31.0
2023-08-11 17:33:25.334973,-24.0
2023-08-11 17:33:25.342662,-21.0
2023-08-11 17:33:25.350352,-24.0
2023-08-11 17:33:25.358041,-26.0
2023-08-11 17:33:25.365731,-33.0
2023-08-11 17:33:25.373420,-41.0
2023-08-11 17:33:25.381109,-41.0
2023-08-11 17:33:25.388799,-26.0
2023-08-11 17:33:25.396488,-12.0
2023-08-11 17:33:25.404177,-101.0
2023-08-11 17:33:25.411867,-459.0
2023-08-11 17:33:25.419556,-1007.0
2023-08-11 17:33:25.427246,-1220.0
2023-08-11 17:33:25.434935,-727.0
2023-08-11 17:33:25.442624,94.0
2023-08-11 17:33:25.450314,442.0
2023-08-11 17:33:25.458003,207.0
2023-08-11 17:33:25.465692,48.0
2023-08-11 17:33:25.473382,89.0
2023-08-11 17:33:25.481071,41.0
2023-08-11 17:33:25.488761,-4.0
2023-08-11 17:33:25.496450,19.0
2023-08-11 17:33:25.504139,12.0
2023-08-11 17:33:25.511829,-12.0
2023-08-11 17:33:25.519518,-14.0
2023-08-11 17:33:25.527208,-16.0
2023-08-11 17:33:25.534897,-29.0
2023-08-11 17:33:25.542586,-38.0
2023-08-11 17:33:25.550276,-50.0
2023-08-11 17:33:25.557965,-65.0
2023-08-11 17:33:25.565654,-77.0
2023-08-11 17:33:25.573344,-94.0
2023-08-11 17:33:25.581033,-118.0
2023-08-11 17:33:25.588723,-145.0
2023-08-11 17:33:25.596412,-176.0
2023-08-11 17:33:25.604101,-212.0
2023-08-11 17:33:25.611791,-248.0
2023-08-11 17:33:25.619480,-277.0
2023-08-11 17:33:25.627169,-302.0
2023-08-11 17:33:25.634859,-309.0
2023-08-11 17:33:25.642548,-302.0
2023-08-11 17:33:25.650238,-275.0
2023-08-11 17:33:25.657927,-219.0
2023-08-11 17:33:25.665616,-142.0
2023-08-11 17:33:25.673306,-74.0
2023-08-11 17:33:25.680995,-24.0
2023-08-11 17:33:25.688684,19.0
2023-08-11 17:33:25.696374,50.0
2023-08-11 17:33:25.704063,70.0
2023-08-11 17:33:25.711753,72.0
2023-08-11 17:33:25.719442,70.0
2023-08-11 17:33:25.727131,62.0
2023-08-11 17:33:25.734821,60.0
2023-08-11 17:33:25.742510,62.0
2023-08-11 17:33:25.750199,60.0
2023-08-11 17:33:25.757889,53.0
2023-08-11 17:33:25.765578,43.0
2023-08-11 17:33:25.773268,43.0
2023-08-11 17:33:25.780957,41.0
2023-08-11 17:33:25.788646,41.0
2023-08-11 17:33:25.796336,41.0
2023-08-11 17:33:25.804025,33.0
2023-08-11 17:33:25.811714,26.0
2023-08-11 17:33:25.819404,26.0
2023-08-11 17:33:25.827093,26.0
2023-08-11 17:33:25.834783,21.0
2023-08-11 17:33:25.842472,16.0
2023-08-11 17:33:25.850161,14.0
2023-08-11 17:33:25.857851,9.0
2023-08-11 17:33:25.865540,4.0
2023-08-11 17:33:25.873229,7.0
2023-08-11 17:33:25.880919,7.0
2023-08-11 17:33:25.888608,2.0
2023-08-11 17:33:25.896298,-2.0
2023-08-11 17:33:25.903987,-2.0
2023-08-11 17:33:25.911676,-4.0
2023-08-11 17:33:25.919366,-2.0
2023-08-11 17:33:25.927055,0.0
2023-08-11 17:33:25.934744,2.0
2023-08-11 17:33:25.942434,-2.0
2023-08-11 17:33:25.950123,-4.0
2023-08-11 17:33:25.957813,-7.0
2023-08-11 17:33:25.965502,-7.0
2023-08-11 17:33:25.973191,-7.0
2023-08-11 17:33:25.980881,-7.0
2023-08-11 17:33:25.988570,-4.0
2023-08-11 17:33:25.996260,-7.0
2023-08-11 17:33:26.003949,-14.0
2023-08-11 17:33:26.011638,-29.0
2023-08-11 17:33:26.019328,-43.0
2023-08-11 17:33:26.027017,-55.0
2023-08-11 17:33:26.034706,-62.0
2023-08-11 17:33:26.042396,-74.0
2023-08-11 17:33:26.050085,-67.0
2023-08-11 17:33:26.057775,-48.0
2023-08-11 17:33:26.065464,-38.0
2023-08-11 17:33:26.073153,-43.0
2023-08-11 17:33:26.080843,-36.0
2023-08-11 17:33:26.088532,-24.0
2023-08-11 17:33:26.096221,-26.0
2023-08-11 17:33:26.103911,-33.0
2023-08-11 17:33:26.111600,-36.0
2023-08-11 17:33:26.119290,-33.0
2023-08-11 17:33:26.126979,-41.0
2023-08-11 17:33:26.134668,-48.0
2023-08-11 17:33:26.142358,-33.0
2023-08-11 17:33:26.150047,-14.0
2023-08-11 17:33:26.157736,-101.0
2023-08-11 17:33:26.165426,-454.0
2023-08-11 17:33:26.173115,-976.0
2023-08-11 17:33:26.180805,-1162.0
2023-08-11 17:33:26.188494,-667.0
2023-08-11 17:33:26.196183,111.0
2023-08-11 17:33:26.203873,415.0
2023-08-11 17:33:26.211562,190.0
2023-08-11 17:33:26.219251,50.0
2023-08-11 17:33:26.226941,79.0
2023-08-11 17:33:26.234630,31.0
2023-08-11 17:33:26.242320,-4.0
2023-08-11 17:33:26.250009,14.0
2023-08-11 17:33:26.257698,0.0
2023-08-11 17:33:26.265388,-29.0
2023-08-11 17:33:26.273077,-33.0
2023-08-11 17:33:26.280766,-33.0
2023-08-11 17:33:26.288456,-41.0
2023-08-11 17:33:26.296145,-48.0
2023-08-11 17:33:26.303835,-55.0
2023-08-11 17:33:26.311524,-67.0
2023-08-11 17:33:26.319213,-87.0
2023-08-11 17:33:26.326903,-103.0
2023-08-11 17:33:26.334592,-123.0
2023-08-11 17:33:26.342281,-147.0
2023-08-11 17:33:26.349971,-178.0
2023-08-11 17:33:26.357660,-217.0
2023-08-11 17:33:26.365350,-248.0
2023-08-11 17:33:26.373039,-270.0
2023-08-11 17:33:26.380728,-287.0
2023-08-11 17:33:26.388418,-297.0
2023-08-11 17:33:26.396107,-290.0
2023-08-11 17:33:26.403796,-263.0
2023-08-11 17:33:26.411486,-215.0
2023-08-11 17:33:26.419175,-145.0
2023-08-11 17:33:26.426865,-72.0
2023-08-11 17:33:26.434554,-12.0
2023-08-11 17:33:26.442243,31.0
2023-08-11 17:33:26.449933,60.0
2023-08-11 17:33:26.457622,77.0
2023-08-11 17:33:26.465312,87.0
2023-08-11 17:33:26.473001,89.0
2023-08-11 17:33:26.480690,89.0
2023-08-11 17:33:26.488380,89.0
2023-08-11 17:33:26.496069,84.0
2023-08-11 17:33:26.503758,77.0
2023-08-11 17:33:26.511448,72.0
2023-08-11 17:33:26.519137,72.0
2023-08-11 17:33:26.526827,67.0
2023-08-11 17:33:26.534516,62.0
2023-08-11 17:33:26.542205,58.0
2023-08-11 17:33:26.549895,55.0
2023-08-11 17:33:26.557584,53.0
2023-08-11 17:33:26.565273,48.0
2023-08-11 17:33:26.572963,43.0
2023-08-11 17:33:26.580652,36.0
2023-08-11 17:33:26.588342,31.0
2023-08-11 17:33:26.596031,29.0
2023-08-11 17:33:26.603720,26.0
2023-08-11 17:33:26.611410,21.0
2023-08-11 17:33:26.619099,16.0
2023-08-11 17:33:26.626788,16.0
2023-08-11 17:33:26.634478,12.0
2023-08-11 17:33:26.642167,4.0
2023-08-11 17:33:26.649857,7.0
2023-08-11 17:33:26.657546,7.0
2023-08-11 17:33:26.665235,2.0
2023-08-11 17:33:26.672925,2.0
2023-08-11 17:33:26.680614,4.0
2023-08-11 17:33:26.688303,2.0
2023-08-11 17:33:26.695993,0.0
2023-08-11 17:33:26.703682,2.0
2023-08-11 17:33:26.711372,0.0
2023-08-11 17:33:26.719061,-7.0
2023-08-11 17:33:26.726750,-7.0
2023-08-11 17:33:26.734440,-4.0
2023-08-11 17:33:26.742129,-4.0
2023-08-11 17:33:26.749818,-9.0
2023-08-11 17:33:26.757508,-26.0
2023-08-11 17:33:26.765197,-48.0
2023-08-11 17:33:26.772887,-60.0
2023-08-11 17:33:26.780576,-70.0
2023-08-11 17:33:26.788265,-77.0
2023-08-11 17:33:26.795955,-62.0
2023-08-11 17:33:26.803644,-53.0
2023-08-11 17:33:26.811333,-55.0
2023-08-11 17:33:26.819023,-55.0
2023-08-11 17:33:26.826712,-43.0
2023-08-11 17:33:26.834402,-33.0
2023-08-11 17:33:26.842091,-31.0
2023-08-11 17:33:26.849780,-36.0
2023-08-11 17:33:26.857470,-36.0
2023-08-11 17:33:26.865159,-33.0
2023-08-11 17:33:26.872849,-41.0
2023-08-11 17:33:26.880538,-43.0
2023-08-11 17:33:26.888227,-24.0
2023-08-11 17:33:26.895917,-14.0
2023-08-11 17:33:26.903606,-137.0
2023-08-11 17:33:26.911295,-538.0
2023-08-11 17:33:26.918985,-1056.0
2023-08-11 17:33:26.926674,-1131.0
2023-08-11 17:33:26.934364,-526.0
2023-08-11 17:33:26.942053,215.0
2023-08-11 17:33:26.949742,410.0
2023-08-11 17:33:26.957432,161.0
2023-08-11 17:33:26.965121,53.0
2023-08-11 17:33:26.972810,77.0
2023-08-11 17:33:26.980500,24.0
2023-08-11 17:33:26.988189,-2.0
2023-08-11 17:33:26.995879,14.0
2023-08-11 17:33:27.003568,0.0
2023-08-11 17:33:27.011257,-19.0
2023-08-11 17:33:27.018947,-14.0
2023-08-11 17:33:27.026636,-19.0
2023-08-11 17:33:27.034325,-36.0
2023-08-11 17:33:27.042015,-43.0
2023-08-11 17:33:27.049704,-45.0
2023-08-11 17:33:27.057394,-60.0
2023-08-11 17:33:27.065083,-79.0
2023-08-11 17:33:27.072772,-94.0
2023-08-11 17:33:27.080462,-118.0
2023-08-11 17:33:27.088151,-157.0
2023-08-11 17:33:27.095840,-190.0
2023-08-11 17:33:27.103530,-222.0
2023-08-11 17:33:27.111219,-256.0
2023-08-11 17:33:27.118909,-282.0
2023-08-11 17:33:27.126598,-299.0
2023-08-11 17:33:27.134287,-309.0
2023-08-11 17:33:27.141977,-304.0
2023-08-11 17:33:27.149666,-270.0
2023-08-11 17:33:27.157355,-215.0
2023-08-11 17:33:27.165045,-149.0
2023-08-11 17:33:27.172734,-77.0
2023-08-11 17:33:27.180424,-12.0
2023-08-11 17:33:27.188113,29.0
2023-08-11 17:33:27.195802,50.0
2023-08-11 17:33:27.203492,70.0
2023-08-11 17:33:27.211181,82.0
2023-08-11 17:33:27.218870,84.0
2023-08-11 17:33:27.226560,79.0
2023-08-11 17:33:27.234249,74.0
2023-08-11 17:33:27.241939,72.0
2023-08-11 17:33:27.249628,72.0
2023-08-11 17:33:27.257317,70.0
2023-08-11 17:33:27.265007,62.0
2023-08-11 17:33:27.272696,55.0
2023-08-11 17:33:27.280385,53.0
2023-08-11 17:33:27.288075,53.0
2023-08-11 17:33:27.295764,48.0
2023-08-11 17:33:27.303454,41.0
2023-08-11 17:33:27.311143,29.0
2023-08-11 17:33:27.318832,24.0
2023-08-11 17:33:27.326522,24.0
2023-08-11 17:33:27.334211,19.0
2023-08-11 17:33:27.341901,16.0
2023-08-11 17:33:27.349590,16.0
2023-08-11 17:33:27.357279,19.0
2023-08-11 17:33:27.364969,9.0
2023-08-11 17:33:27.372658,4.0
2023-08-11 17:33:27.380347,4.0
2023-08-11 17:33:27.388037,4.0
2023-08-11 17:33:27.395726,-2.0
2023-08-11 17:33:27.403416,-4.0
2023-08-11 17:33:27.411105,-2.0
2023-08-11 17:33:27.418794,-7.0
2023-08-11 17:33:27.426484,-12.0
2023-08-11 17:33:27.434173,-4.0
2023-08-11 17:33:27.441862,-2.0
2023-08-11 17:33:27.449552,-9.0
2023-08-11 17:33:27.457241,-9.0
2023-08-11 17:33:27.464931,-7.0
2023-08-11 17:33:27.472620,-16.0
2023-08-11 17:33:27.480309,-31.0
2023-08-11 17:33:27.487999,-43.0
2023-08-11 17:33:27.495688,-60.0
2023-08-11 17:33:27.503377,-74.0
2023-08-11 17:33:27.511067,-67.0
2023-08-11 17:33:27.518756,-50.0
2023-08-11 17:33:27.526446,-45.0
2023-08-11 17:33:27.534135,-48.0
2023-08-11 17:33:27.541824,-36.0
2023-08-11 17:33:27.549514,-19.0
2023-08-11 17:33:27.557203,-21.0
2023-08-11 17:33:27.564892,-33.0
2023-08-11 17:33:27.572582,-36.0
2023-08-11 17:33:27.580271,-41.0
2023-08-11 17:33:27.587961,-41.0
2023-08-11 17:33:27.595650,-36.0
2023-08-11 17:33:27.603339,-29.0
2023-08-11 17:33:27.611029,-21.0
2023-08-11 17:33:27.618718,-120.0
2023-08-11 17:33:27.626407,-488.0
2023-08-11 17:33:27.634097,-1032.0
2023-08-11 17:33:27.641786,-1208.0
2023-08-11 17:33:27.649476,-676.0
2023-08-11 17:33:27.657165,137.0
2023-08-11 17:33:27.664854,471.0
2023-08-11 17:33:27.672544,236.0
2023-08-11 17:33:27.680233,65.0
2023-08-11 17:33:27.687922,89.0
2023-08-11 17:33:27.695612,29.0
2023-08-11 17:33:27.703301,-21.0
2023-08-11 17:33:27.710991,9.0
2023-08-11 17:33:27.718680,4.0
2023-08-11 17:33:27.726369,-26.0
2023-08-11 17:33:27.734059,-29.0
2023-08-11 17:33:27.741748,-29.0
2023-08-11 17:33:27.749437,-43.0
2023-08-11 17:33:27.757127,-53.0
2023-08-11 17:33:27.764816,-60.0
2023-08-11 17:33:27.772506,-72.0
2023-08-11 17:33:27.780195,-89.0
2023-08-11 17:33:27.787884,-108.0
2023-08-11 17:33:27.795574,-132.0
2023-08-11 17:33:27.803263,-159.0
2023-08-11 17:33:27.810953,-190.0
2023-08-11 17:33:27.818642,-227.0
2023-08-11 17:33:27.826331,-263.0
2023-08-11 17:33:27.834021,-292.0
2023-08-11 17:33:27.841710,-309.0
2023-08-11 17:33:27.849399,-311.0
2023-08-11 17:33:27.857089,-302.0
2023-08-11 17:33:27.864778,-270.0
2023-08-11 17:33:27.872468,-212.0
2023-08-11 17:33:27.880157,-137.0
2023-08-11 17:33:27.887846,-67.0
2023-08-11 17:33:27.895536,-7.0
2023-08-11 17:33:27.903225,38.0
2023-08-11 17:33:27.910914,72.0
2023-08-11 17:33:27.918604,89.0
2023-08-11 17:33:27.926293,91.0
2023-08-11 17:33:27.933983,87.0
2023-08-11 17:33:27.941672,84.0
2023-08-11 17:33:27.949361,87.0
2023-08-11 17:33:27.957051,84.0
2023-08-11 17:33:27.964740,82.0
2023-08-11 17:33:27.972429,74.0
2023-08-11 17:33:27.980119,70.0
2023-08-11 17:33:27.987808,65.0
2023-08-11 17:33:27.995498,60.0
2023-08-11 17:33:28.003187,58.0
2023-08-11 17:33:28.010876,53.0
2023-08-11 17:33:28.018566,45.0
2023-08-11 17:33:28.026255,41.0
2023-08-11 17:33:28.033944,36.0
2023-08-11 17:33:28.041634,31.0
2023-08-11 17:33:28.049323,29.0
2023-08-11 17:33:28.057013,26.0
2023-08-11 17:33:28.064702,19.0
2023-08-11 17:33:28.072391,14.0
2023-08-11 17:33:28.080081,12.0
2023-08-11 17:33:28.087770,14.0
2023-08-11 17:33:28.095459,14.0
2023-08-11 17:33:28.103149,12.0
2023-08-11 17:33:28.110838,4.0
2023-08-11 17:33:28.118528,2.0
2023-08-11 17:33:28.126217,4.0
2023-08-11 17:33:28.133906,4.0
2023-08-11 17:33:28.141596,0.0
2023-08-11 17:33:28.149285,-2.0
2023-08-11 17:33:28.156974,-2.0
2023-08-11 17:33:28.164664,-2.0
2023-08-11 17:33:28.172353,-9.0
2023-08-11 17:33:28.180043,-21.0
2023-08-11 17:33:28.187732,-36.0
2023-08-11 17:33:28.195421,-45.0
2023-08-11 17:33:28.203111,-55.0
2023-08-11 17:33:28.210800,-55.0
2023-08-11 17:33:28.218489,-41.0
2023-08-11 17:33:28.226179,-31.0
2023-08-11 17:33:28.233868,-29.0
2023-08-11 17:33:28.241558,-24.0
2023-08-11 17:33:28.249247,-16.0
2023-08-11 17:33:28.256936,-19.0
2023-08-11 17:33:28.264626,-24.0
2023-08-11 17:33:28.272315,-29.0
2023-08-11 17:33:28.280005,-29.0
2023-08-11 17:33:28.287694,-33.0
2023-08-11 17:33:28.295383,-36.0
2023-08-11 17:33:28.303073,-26.0
2023-08-11 17:33:28.310762,-7.0
2023-08-11 17:33:28.318451,-65.0
2023-08-11 17:33:28.326141,-372.0
2023-08-11 17:33:28.333830,-911.0
2023-08-11 17:33:28.341520,-1213.0
2023-08-11 17:33:28.349209,-829.0
2023-08-11 17:33:28.356898,-14.0
2023-08-11 17:33:28.364588,447.0
2023-08-11 17:33:28.372277,270.0
2023-08-11 17:33:28.379966,67.0
2023-08-11 17:33:28.387656,89.0
2023-08-11 17:33:28.395345,50.0
2023-08-11 17:33:28.403035,-4.0
2023-08-11 17:33:28.410724,21.0
2023-08-11 17:33:28.418413,21.0
2023-08-11 17:33:28.426103,-9.0
2023-08-11 17:33:28.433792,-14.0
2023-08-11 17:33:28.441481,-14.0
2023-08-11 17:33:28.449171,-26.0
2023-08-11 17:33:28.456860,-33.0
2023-08-11 17:33:28.464550,-41.0
2023-08-11 17:33:28.472239,-58.0
2023-08-11 17:33:28.479928,-74.0
2023-08-11 17:33:28.487618,-91.0
2023-08-11 17:33:28.495307,-111.0
2023-08-11 17:33:28.502996,-137.0
2023-08-11 17:33:28.510686,-169.0
2023-08-11 17:33:28.518375,-212.0
2023-08-11 17:33:28.526065,-253.0
2023-08-11 17:33:28.533754,-275.0
2023-08-11 17:33:28.541443,-287.0
2023-08-11 17:33:28.549133,-297.0
2023-08-11 17:33:28.556822,-294.0
2023-08-11 17:33:28.564511,-268.0
2023-08-11 17:33:28.572201,-212.0
2023-08-11 17:33:28.579890,-142.0
2023-08-11 17:33:28.587580,-74.0
2023-08-11 17:33:28.595269,-12.0
2023-08-11 17:33:28.602958,33.0
2023-08-11 17:33:28.610648,60.0
2023-08-11 17:33:28.618337,74.0
2023-08-11 17:33:28.626026,84.0
2023-08-11 17:33:28.633716,91.0
2023-08-11 17:33:28.641405,89.0
2023-08-11 17:33:28.649095,79.0
2023-08-11 17:33:28.656784,74.0
2023-08-11 17:33:28.664473,74.0
2023-08-11 17:33:28.672163,70.0
2023-08-11 17:33:28.679852,67.0
2023-08-11 17:33:28.687542,67.0
2023-08-11 17:33:28.695231,62.0
2023-08-11 17:33:28.702920,58.0
2023-08-11 17:33:28.710610,53.0
2023-08-11 17:33:28.718299,43.0
2023-08-11 17:33:28.725988,33.0
2023-08-11 17:33:28.733678,33.0
2023-08-11 17:33:28.741367,29.0
2023-08-11 17:33:28.749057,21.0
2023-08-11 17:33:28.756746,19.0
2023-08-11 17:33:28.764435,16.0
2023-08-11 17:33:28.772125,12.0
2023-08-11 17:33:28.779814,9.0
2023-08-11 17:33:28.787503,7.0
2023-08-11 17:33:28.795193,4.0
2023-08-11 17:33:28.802882,2.0
2023-08-11 17:33:28.810572,2.0
2023-08-11 17:33:28.818261,2.0
2023-08-11 17:33:28.825950,2.0
2023-08-11 17:33:28.833640,2.0
2023-08-11 17:33:28.841329,2.0
2023-08-11 17:33:28.849018,0.0
2023-08-11 17:33:28.856708,0.0
2023-08-11 17:33:28.864397,0.0
2023-08-11 17:33:28.872087,-2.0
2023-08-11 17:33:28.879776,-16.0
2023-08-11 17:33:28.887465,-33.0
2023-08-11 17:33:28.895155,-43.0
2023-08-11 17:33:28.902844,-53.0
2023-08-11 17:33:28.910533,-55.0
2023-08-11 17:33:28.918223,-36.0
2023-08-11 17:33:28.925912,-19.0
2023-08-11 17:33:28.933602,-16.0
2023-08-11 17:33:28.941291,-16.0
2023-08-11 17:33:28.948980,-4.0
2023-08-11 17:33:28.956670,0.0
2023-08-11 17:33:28.964359,-9.0
2023-08-11 17:33:28.972048,-19.0
2023-08-11 17:33:28.979738,-19.0
2023-08-11 17:33:28.987427,-21.0
2023-08-11 17:33:28.995117,-31.0
2023-08-11 17:33:29.002806,-26.0
2023-08-11 17:33:29.010495,-7.0
2023-08-11 17:33:29.018185,-19.0
2023-08-11 17:33:29.025874,-198.0
2023-08-11 17:33:29.033563,-655.0
2023-08-11 17:33:29.041253,-1119.0
2023-08-11 17:33:29.048942,-1044.0
2023-08-11 17:33:29.056632,-355.0
2023-08-11 17:33:29.064321,304.0
2023-08-11 17:33:29.072010,343.0
2023-08-11 17:33:29.079700,91.0
2023-08-11 17:33:29.087389,45.0
2023-08-11 17:33:29.095078,50.0
2023-08-11 17:33:29.102768,-21.0
2023-08-11 17:33:29.110457,-26.0
2023-08-11 17:33:29.118147,-7.0
2023-08-11 17:33:29.125836,-29.0
2023-08-11 17:33:29.133525,-41.0
2023-08-11 17:33:29.141215,-41.0
2023-08-11 17:33:29.148904,-55.0
2023-08-11 17:33:29.156594,-67.0
2023-08-11 17:33:29.164283,-70.0
2023-08-11 17:33:29.171972,-82.0
2023-08-11 17:33:29.179662,-99.0
2023-08-11 17:33:29.187351,-113.0
2023-08-11 17:33:29.195040,-137.0
2023-08-11 17:33:29.202730,-164.0
2023-08-11 17:33:29.210419,-198.0
2023-08-11 17:33:29.218109,-236.0
2023-08-11 17:33:29.225798,-268.0
2023-08-11 17:33:29.233487,-299.0
2023-08-11 17:33:29.241177,-328.0
2023-08-11 17:33:29.248866,-335.0
2023-08-11 17:33:29.256555,-331.0
2023-08-11 17:33:29.264245,-316.0
2023-08-11 17:33:29.271934,-277.0
2023-08-11 17:33:29.279624,-212.0
2023-08-11 17:33:29.287313,-140.0
2023-08-11 17:33:29.295002,-72.0
2023-08-11 17:33:29.302692,-19.0
2023-08-11 17:33:29.310381,14.0
2023-08-11 17:33:29.318070,38.0
2023-08-11 17:33:29.325760,53.0
2023-08-11 17:33:29.333449,60.0
2023-08-11 17:33:29.341139,65.0
2023-08-11 17:33:29.348828,62.0
2023-08-11 17:33:29.356517,55.0
2023-08-11 17:33:29.364207,53.0
2023-08-11 17:33:29.371896,53.0
2023-08-11 17:33:29.379585,50.0
2023-08-11 17:33:29.387275,50.0
2023-08-11 17:33:29.394964,53.0
2023-08-11 17:33:29.402654,50.0
2023-08-11 17:33:29.410343,43.0
2023-08-11 17:33:29.418032,38.0
2023-08-11 17:33:29.425722,31.0
2023-08-11 17:33:29.433411,24.0
2023-08-11 17:33:29.441100,24.0
2023-08-11 17:33:29.448790,21.0
2023-08-11 17:33:29.456479,14.0
2023-08-11 17:33:29.464169,9.0
2023-08-11 17:33:29.471858,4.0
2023-08-11 17:33:29.479547,4.0
2023-08-11 17:33:29.487237,4.0
2023-08-11 17:33:29.494926,4.0
2023-08-11 17:33:29.502615,4.0
2023-08-11 17:33:29.510305,2.0
2023-08-11 17:33:29.517994,0.0
2023-08-11 17:33:29.525684,2.0
2023-08-11 17:33:29.533373,4.0
2023-08-11 17:33:29.541062,2.0
2023-08-11 17:33:29.548752,-2.0
2023-08-11 17:33:29.556441,-4.0
2023-08-11 17:33:29.564130,-9.0
2023-08-11 17:33:29.571820,-21.0
2023-08-11 17:33:29.579509,-33.0
2023-08-11 17:33:29.587199,-48.0
2023-08-11 17:33:29.594888,-67.0
2023-08-11 17:33:29.602577,-67.0
2023-08-11 17:33:29.610267,-43.0
2023-08-11 17:33:29.617956,-26.0
2023-08-11 17:33:29.625646,-31.0
2023-08-11 17:33:29.633335,-29.0
2023-08-11 17:33:29.641024,-16.0
2023-08-11 17:33:29.648714,-16.0
2023-08-11 17:33:29.656403,-24.0
2023-08-11 17:33:29.664092,-21.0
2023-08-11 17:33:29.671782,-14.0
2023-08-11 17:33:29.679471,-21.0
2023-08-11 17:33:29.687161,-33.0
2023-08-11 17:33:29.694850,-29.0
2023-08-11 17:33:29.702539,-9.0
2023-08-11 17:33:29.710229,-29.0
2023-08-11 17:33:29.717918,-229.0
2023-08-11 17:33:29.725607,-710.0
2023-08-11 17:33:29.733297,-1145.0
2023-08-11 17:33:29.740986,-988.0
2023-08-11 17:33:29.748676,-251.0
2023-08-11 17:33:29.756365,362.0
2023-08-11 17:33:29.764054,343.0
2023-08-11 17:33:29.771744,96.0
2023-08-11 17:33:29.779433,65.0
2023-08-11 17:33:29.787122,55.0
2023-08-11 17:33:29.794812,-14.0
2023-08-11 17:33:29.802501,-7.0
2023-08-11 17:33:29.810191,4.0
2023-08-11 17:33:29.817880,-29.0
2023-08-11 17:33:29.825569,-31.0
2023-08-11 17:33:29.833259,-21.0
2023-08-11 17:33:29.840948,-41.0
2023-08-11 17:33:29.848637,-58.0
2023-08-11 17:33:29.856327,-60.0
2023-08-11 17:33:29.864016,-67.0
2023-08-11 17:33:29.871706,-82.0
2023-08-11 17:33:29.879395,-99.0
2023-08-11 17:33:29.887084,-120.0
2023-08-11 17:33:29.894774,-149.0
2023-08-11 17:33:29.902463,-178.0
2023-08-11 17:33:29.910152,-212.0
2023-08-11 17:33:29.917842,-253.0
2023-08-11 17:33:29.925531,-285.0
2023-08-11 17:33:29.933221,-302.0
2023-08-11 17:33:29.940910,-311.0
2023-08-11 17:33:29.948599,-314.0
2023-08-11 17:33:29.956289,-299.0
2023-08-11 17:33:29.963978,-256.0
2023-08-11 17:33:29.971667,-188.0
2023-08-11 17:33:29.979357,-113.0
2023-08-11 17:33:29.987046,-50.0
2023-08-11 17:33:29.994736,0.0
2023-08-11 17:33:30.002425,33.0
2023-08-11 17:33:30.010114,55.0
2023-08-11 17:33:30.017804,70.0
2023-08-11 17:33:30.025493,79.0
2023-08-11 17:33:30.033183,74.0
2023-08-11 17:33:30.040872,72.0
2023-08-11 17:33:30.048561,70.0
2023-08-11 17:33:30.056251,67.0
2023-08-11 17:33:30.063940,65.0
2023-08-11 17:33:30.071629,67.0
2023-08-11 17:33:30.079319,62.0
2023-08-11 17:33:30.087008,55.0
2023-08-11 17:33:30.094698,55.0
2023-08-11 17:33:30.102387,48.0
2023-08-11 17:33:30.110076,36.0
2023-08-11 17:33:30.117766,29.0
2023-08-11 17:33:30.125455,26.0
2023-08-11 17:33:30.133144,19.0
2023-08-11 17:33:30.140834,12.0
2023-08-11 17:33:30.148523,7.0
2023-08-11 17:33:30.156213,2.0
2023-08-11 17:33:30.163902,0.0
2023-08-11 17:33:30.171591,-2.0
2023-08-11 17:33:30.179281,-2.0
2023-08-11 17:33:30.186970,-9.0
2023-08-11 17:33:30.194659,-19.0
2023-08-11 17:33:30.202349,-24.0
2023-08-11 17:33:30.210038,-21.0
2023-08-11 17:33:30.217728,-19.0
2023-08-11 17:33:30.225417,-16.0
2023-08-11 17:33:30.233106,-24.0
2023-08-11 17:33:30.240796,-29.0
2023-08-11 17:33:30.248485,-24.0
2023-08-11 17:33:30.256174,-19.0
2023-08-11 17:33:30.263864,-26.0
2023-08-11 17:33:30.271553,-48.0
2023-08-11 17:33:30.279243,-67.0
2023-08-11 17:33:30.286932,-77.0
2023-08-11 17:33:30.294621,-82.0
2023-08-11 17:33:30.302311,-65.0
2023-08-11 17:33:30.310000,-45.0
2023-08-11 17:33:30.317689,-53.0
2023-08-11 17:33:30.325379,-55.0
2023-08-11 17:33:30.333068,-38.0
2023-08-11 17:33:30.340758,-24.0
2023-08-11 17:33:30.348447,-26.0
2023-08-11 17:33:30.356136,-33.0
2023-08-11 17:33:30.363826,-41.0
2023-08-11 17:33:30.371515,-43.0
2023-08-11 17:33:30.379204,-43.0
2023-08-11 17:33:30.386894,-45.0
2023-08-11 17:33:30.394583,-33.0
2023-08-11 17:33:30.402273,-24.0
2023-08-11 17:33:30.409962,-128.0
2023-08-11 17:33:30.417651,-509.0
2023-08-11 17:33:30.425341,-1053.0
2023-08-11 17:33:30.433030,-1215.0
2023-08-11 17:33:30.440719,-667.0
2023-08-11 17:33:30.448409,159.0
2023-08-11 17:33:30.456098,478.0
2023-08-11 17:33:30.463788,217.0
2023-08-11 17:33:30.471477,58.0
2023-08-11 17:33:30.479166,101.0
2023-08-11 17:33:30.486856,36.0
2023-08-11 17:33:30.494545,-14.0
2023-08-11 17:33:30.502235,14.0
2023-08-11 17:33:30.509924,0.0
2023-08-11 17:33:30.517613,-31.0
2023-08-11 17:33:30.525303,-29.0
2023-08-11 17:33:30.532992,-31.0
2023-08-11 17:33:30.540681,-45.0
2023-08-11 17:33:30.548371,-53.0
2023-08-11 17:33:30.556060,-60.0
2023-08-11 17:33:30.563750,-72.0
2023-08-11 17:33:30.571439,-84.0
2023-08-11 17:33:30.579128,-103.0
2023-08-11 17:33:30.586818,-135.0
2023-08-11 17:33:30.594507,-166.0
2023-08-11 17:33:30.602196,-198.0
2023-08-11 17:33:30.609886,-236.0
2023-08-11 17:33:30.617575,-273.0
2023-08-11 17:33:30.625265,-297.0
2023-08-11 17:33:30.632954,-311.0
2023-08-11 17:33:30.640643,-311.0
2023-08-11 17:33:30.648333,-299.0
2023-08-11 17:33:30.656022,-268.0
2023-08-11 17:33:30.663711,-212.0
2023-08-11 17:33:30.671401,-140.0
2023-08-11 17:33:30.679090,-65.0
2023-08-11 17:33:30.686780,-4.0
2023-08-11 17:33:30.694469,33.0
2023-08-11 17:33:30.702158,58.0
2023-08-11 17:33:30.709848,74.0
2023-08-11 17:33:30.717537,84.0
2023-08-11 17:33:30.725226,84.0
2023-08-11 17:33:30.732916,84.0
2023-08-11 17:33:30.740605,84.0
2023-08-11 17:33:30.748295,79.0
2023-08-11 17:33:30.755984,77.0
2023-08-11 17:33:30.763673,70.0
2023-08-11 17:33:30.771363,62.0
2023-08-11 17:33:30.779052,62.0
2023-08-11 17:33:30.786741,60.0
2023-08-11 17:33:30.794431,55.0
2023-08-11 17:33:30.802120,50.0
2023-08-11 17:33:30.809810,43.0
2023-08-11 17:33:30.817499,33.0
2023-08-11 17:33:30.825188,33.0
2023-08-11 17:33:30.832878,33.0
2023-08-11 17:33:30.840567,29.0
2023-08-11 17:33:30.848256,21.0
2023-08-11 17:33:30.855946,16.0
2023-08-11 17:33:30.863635,14.0
2023-08-11 17:33:30.871325,14.0
2023-08-11 17:33:30.879014,16.0
2023-08-11 17:33:30.886703,14.0
2023-08-11 17:33:30.894393,9.0
2023-08-11 17:33:30.902082,9.0
2023-08-11 17:33:30.909771,9.0
2023-08-11 17:33:30.917461,9.0
2023-08-11 17:33:30.925150,9.0
2023-08-11 17:33:30.932840,7.0
2023-08-11 17:33:30.940529,4.0
2023-08-11 17:33:30.948218,2.0
2023-08-11 17:33:30.955908,-9.0
2023-08-11 17:33:30.963597,-24.0
2023-08-11 17:33:30.971287,-33.0
2023-08-11 17:33:30.978976,-43.0
2023-08-11 17:33:30.986665,-41.0
2023-08-11 17:33:30.994355,-24.0
2023-08-11 17:33:31.002044,-9.0
2023-08-11 17:33:31.009733,-4.0
2023-08-11 17:33:31.017423,0.0
2023-08-11 17:33:31.025112,9.0
2023-08-11 17:33:31.032802,12.0
2023-08-11 17:33:31.040491,9.0
2023-08-11 17:33:31.048180,4.0
2023-08-11 17:33:31.055870,2.0
2023-08-11 17:33:31.063559,0.0
2023-08-11 17:33:31.071248,-4.0
2023-08-11 17:33:31.078938,-2.0
2023-08-11 17:33:31.086627,21.0
2023-08-11 17:33:31.094317,16.0
2023-08-11 17:33:31.102006,-183.0
2023-08-11 17:33:31.109695,-681.0
2023-08-11 17:33:31.117385,-1155.0
2023-08-11 17:33:31.125074,-1046.0
2023-08-11 17:33:31.132763,-297.0
2023-08-11 17:33:31.140453,391.0
2023-08-11 17:33:31.148142,408.0
2023-08-11 17:33:31.155832,135.0
2023-08-11 17:33:31.163521,96.0
2023-08-11 17:33:31.171210,94.0
2023-08-11 17:33:31.178900,16.0
2023-08-11 17:33:31.186589,21.0
2023-08-11 17:33:31.194278,41.0
2023-08-11 17:33:31.201968,12.0
2023-08-11 17:33:31.209657,-9.0
2023-08-11 17:33:31.217347,-9.0
2023-08-11 17:33:31.225036,-21.0
2023-08-11 17:33:31.232725,-36.0
2023-08-11 17:33:31.240415,-41.0
2023-08-11 17:33:31.248104,-55.0
2023-08-11 17:33:31.255793,-74.0
2023-08-11 17:33:31.263483,-89.0
2023-08-11 17:33:31.271172,-111.0
2023-08-11 17:33:31.278862,-140.0
2023-08-11 17:33:31.286551,-166.0
2023-08-11 17:33:31.294240,-203.0
2023-08-11 17:33:31.301930,-246.0
2023-08-11 17:33:31.309619,-285.0
2023-08-11 17:33:31.317308,-302.0
2023-08-11 17:33:31.324998,-306.0
2023-08-11 17:33:31.332687,-306.0
2023-08-11 17:33:31.340377,-290.0
2023-08-11 17:33:31.348066,-241.0
2023-08-11 17:33:31.355755,-174.0
2023-08-11 17:33:31.363445,-103.0
2023-08-11 17:33:31.371134,-38.0
2023-08-11 17:33:31.378824,12.0
2023-08-11 17:33:31.386513,48.0
2023-08-11 17:33:31.394202,67.0
2023-08-11 17:33:31.401892,77.0
2023-08-11 17:33:31.409581,82.0
2023-08-11 17:33:31.417270,82.0
2023-08-11 17:33:31.424960,77.0
2023-08-11 17:33:31.432649,70.0
2023-08-11 17:33:31.440339,67.0
2023-08-11 17:33:31.448028,65.0
2023-08-11 17:33:31.455717,62.0
2023-08-11 17:33:31.463407,58.0
2023-08-11 17:33:31.471096,55.0
2023-08-11 17:33:31.478785,55.0
2023-08-11 17:33:31.486475,48.0
2023-08-11 17:33:31.494164,41.0
2023-08-11 17:33:31.501854,41.0
2023-08-11 17:33:31.509543,36.0
2023-08-11 17:33:31.517232,24.0
2023-08-11 17:33:31.524922,19.0
2023-08-11 17:33:31.532611,19.0
2023-08-11 17:33:31.540300,16.0
2023-08-11 17:33:31.547990,14.0
2023-08-11 17:33:31.555679,14.0
2023-08-11 17:33:31.563369,12.0
2023-08-11 17:33:31.571058,7.0
2023-08-11 17:33:31.578747,4.0
2023-08-11 17:33:31.586437,4.0
2023-08-11 17:33:31.594126,4.0
2023-08-11 17:33:31.601815,2.0
2023-08-11 17:33:31.609505,2.0
2023-08-11 17:33:31.617194,2.0
2023-08-11 17:33:31.624884,-2.0
2023-08-11 17:33:31.632573,0.0
2023-08-11 17:33:31.640262,4.0
2023-08-11 17:33:31.647952,-7.0
2023-08-11 17:33:31.655641,-29.0
2023-08-11 17:33:31.663330,-43.0
2023-08-11 17:33:31.671020,-53.0
2023-08-11 17:33:31.678709,-60.0
2023-08-11 17:33:31.686399,-48.0
2023-08-11 17:33:31.694088,-29.0
2023-08-11 17:33:31.701777,-21.0
2023-08-11 17:33:31.709467,-21.0
2023-08-11 17:33:31.717156,-12.0
2023-08-11 17:33:31.724845,-2.0
2023-08-11 17:33:31.732535,-2.0
2023-08-11 17:33:31.740224,-7.0
2023-08-11 17:33:31.747914,-9.0
2023-08-11 17:33:31.755603,-14.0
2023-08-11 17:33:31.763292,-16.0
2023-08-11 17:33:31.770982,-16.0
2023-08-11 17:33:31.778671,-2.0
2023-08-11 17:33:31.786360,16.0
2023-08-11 17:33:31.794050,-55.0
2023-08-11 17:33:31.801739,-389.0
2023-08-11 17:33:31.809429,-918.0
2023-08-11 17:33:31.817118,-1145.0
2023-08-11 17:33:31.824807,-688.0
2023-08-11 17:33:31.832497,96.0
2023-08-11 17:33:31.840186,444.0
2023-08-11 17:33:31.847876,227.0
2023-08-11 17:33:31.855565,65.0
2023-08-11 17:33:31.863254,94.0
2023-08-11 17:33:31.870944,50.0
2023-08-11 17:33:31.878633,14.0
2023-08-11 17:33:31.886322,33.0
2023-08-11 17:33:31.894012,14.0
2023-08-11 17:33:31.901701,-14.0
2023-08-11 17:33:31.909391,-14.0
2023-08-11 17:33:31.917080,-21.0
2023-08-11 17:33:31.924769,-41.0
2023-08-11 17:33:31.932459,-53.0
2023-08-11 17:33:31.940148,-60.0
2023-08-11 17:33:31.947837,-74.0
2023-08-11 17:33:31.955527,-91.0
2023-08-11 17:33:31.963216,-108.0
2023-08-11 17:33:31.970906,-135.0
2023-08-11 17:33:31.978595,-166.0
2023-08-11 17:33:31.986284,-195.0
2023-08-11 17:33:31.993974,-224.0
2023-08-11 17:33:32.001663,-256.0
2023-08-11 17:33:32.009352,-285.0
2023-08-11 17:33:32.017042,-302.0
2023-08-11 17:33:32.024731,-306.0
2023-08-11 17:33:32.032421,-302.0
2023-08-11 17:33:32.040110,-275.0
2023-08-11 17:33:32.047799,-215.0
2023-08-11 17:33:32.055489,-142.0
2023-08-11 17:33:32.063178,-72.0
2023-08-11 17:33:32.070867,-16.0
2023-08-11 17:33:32.078557,24.0
2023-08-11 17:33:32.086246,58.0
2023-08-11 17:33:32.093936,74.0
2023-08-11 17:33:32.101625,79.0
2023-08-11 17:33:32.109314,82.0
2023-08-11 17:33:32.117004,82.0
2023-08-11 17:33:32.124693,77.0
2023-08-11 17:33:32.132382,74.0
2023-08-11 17:33:32.140072,74.0
2023-08-11 17:33:32.147761,72.0
2023-08-11 17:33:32.155451,67.0
2023-08-11 17:33:32.163140,60.0
2023-08-11 17:33:32.170829,50.0
2023-08-11 17:33:32.178519,41.0
2023-08-11 17:33:32.186208,36.0
2023-08-11 17:33:32.193897,38.0
2023-08-11 17:33:32.201587,36.0
2023-08-11 17:33:32.209276,29.0
2023-08-11 17:33:32.216966,21.0
2023-08-11 17:33:32.224655,19.0
2023-08-11 17:33:32.232344,16.0
2023-08-11 17:33:32.240034,14.0
2023-08-11 17:33:32.247723,12.0
2023-08-11 17:33:32.255412,9.0
2023-08-11 17:33:32.263102,7.0
2023-08-11 17:33:32.270791,7.0
2023-08-11 17:33:32.278481,4.0
2023-08-11 17:33:32.286170,4.0
2023-08-11 17:33:32.293859,2.0
2023-08-11 17:33:32.301549,2.0
2023-08-11 17:33:32.309238,2.0
2023-08-11 17:33:32.316928,4.0
2023-08-11 17:33:32.324617,2.0
2023-08-11 17:33:32.332306,2.0
2023-08-11 17:33:32.339996,0.0
2023-08-11 17:33:32.347685,-14.0
2023-08-11 17:33:32.355374,-31.0
2023-08-11 17:33:32.363064,-43.0
2023-08-11 17:33:32.370753,-50.0
2023-08-11 17:33:32.378443,-45.0
2023-08-11 17:33:32.386132,-29.0
2023-08-11 17:33:32.393821,-19.0
2023-08-11 17:33:32.401511,-16.0
2023-08-11 17:33:32.409200,-12.0
2023-08-11 17:33:32.416889,2.0
2023-08-11 17:33:32.424579,7.0
2023-08-11 17:33:32.432268,-4.0
2023-08-11 17:33:32.439958,-14.0
2023-08-11 17:33:32.447647,-12.0
2023-08-11 17:33:32.455336,-14.0
2023-08-11 17:33:32.463026,-21.0
2023-08-11 17:33:32.470715,-14.0
2023-08-11 17:33:32.478404,4.0
2023-08-11 17:33:32.486094,-21.0
2023-08-11 17:33:32.493783,-246.0
2023-08-11 17:33:32.501473,-739.0
2023-08-11 17:33:32.509162,-1133.0
2023-08-11 17:33:32.516851,-899.0
2023-08-11 17:33:32.524541,-140.0
2023-08-11 17:33:32.532230,410.0
2023-08-11 17:33:32.539919,333.0
2023-08-11 17:33:32.547609,103.0
2023-08-11 17:33:32.555298,96.0
2023-08-11 17:33:32.562988,77.0
2023-08-11 17:33:32.570677,12.0
2023-08-11 17:33:32.578366,24.0
2023-08-11 17:33:32.586056,31.0
2023-08-11 17:33:32.593745,2.0
2023-08-11 17:33:32.601434,-9.0
2023-08-11 17:33:32.609124,-9.0
2023-08-11 17:33:32.616813,-21.0
2023-08-11 17:33:32.624503,-31.0
2023-08-11 17:33:32.632192,-41.0
2023-08-11 17:33:32.639881,-60.0
2023-08-11 17:33:32.647571,-79.0
2023-08-11 17:33:32.655260,-91.0
2023-08-11 17:33:32.662949,-113.0
2023-08-11 17:33:32.670639,-147.0
2023-08-11 17:33:32.678328,-181.0
2023-08-11 17:33:32.686018,-217.0
2023-08-11 17:33:32.693707,-261.0
2023-08-11 17:33:32.701396,-294.0
2023-08-11 17:33:32.709086,-311.0
2023-08-11 17:33:32.716775,-316.0
2023-08-11 17:33:32.724464,-316.0
2023-08-11 17:33:32.732154,-294.0
2023-08-11 17:33:32.739843,-246.0
2023-08-11 17:33:32.747533,-178.0
2023-08-11 17:33:32.755222,-106.0
2023-08-11 17:33:32.762911,-45.0
2023-08-11 17:33:32.770601,-2.0
2023-08-11 17:33:32.778290,38.0
2023-08-11 17:33:32.785980,67.0
2023-08-11 17:33:32.793669,72.0
2023-08-11 17:33:32.801358,72.0
2023-08-11 17:33:32.809048,77.0
2023-08-11 17:33:32.816737,77.0
2023-08-11 17:33:32.824426,65.0
2023-08-11 17:33:32.832116,60.0
2023-08-11 17:33:32.839805,65.0
2023-08-11 17:33:32.847495,65.0
2023-08-11 17:33:32.855184,60.0
2023-08-11 17:33:32.862873,60.0
2023-08-11 17:33:32.870563,55.0
2023-08-11 17:33:32.878252,45.0
2023-08-11 17:33:32.885941,41.0
2023-08-11 17:33:32.893631,33.0
2023-08-11 17:33:32.901320,26.0
2023-08-11 17:33:32.909010,19.0
2023-08-11 17:33:32.916699,12.0
2023-08-11 17:33:32.924388,7.0
2023-08-11 17:33:32.932078,7.0
2023-08-11 17:33:32.939767,7.0
2023-08-11 17:33:32.947456,7.0
2023-08-11 17:33:32.955146,2.0
2023-08-11 17:33:32.962835,0.0
2023-08-11 17:33:32.970525,-2.0
2023-08-11 17:33:32.978214,-7.0
2023-08-11 17:33:32.985903,-12.0
2023-08-11 17:33:32.993593,-12.0
2023-08-11 17:33:33.001282,-9.0
2023-08-11 17:33:33.008971,-9.0
2023-08-11 17:33:33.016661,-9.0
2023-08-11 17:33:33.024350,-7.0
2023-08-11 17:33:33.032040,-7.0
2023-08-11 17:33:33.039729,-9.0
2023-08-11 17:33:33.047418,-21.0
2023-08-11 17:33:33.055108,-36.0
2023-08-11 17:33:33.062797,-53.0
2023-08-11 17:33:33.070486,-67.0
2023-08-11 17:33:33.078176,-55.0
2023-08-11 17:33:33.085865,-29.0
2023-08-11 17:33:33.093555,-19.0
2023-08-11 17:33:33.101244,-21.0
2023-08-11 17:33:33.108933,-16.0
2023-08-11 17:33:33.116623,-4.0
2023-08-11 17:33:33.124312,-4.0
2023-08-11 17:33:33.132001,-9.0
2023-08-11 17:33:33.139691,-14.0
2023-08-11 17:33:33.147380,-16.0
2023-08-11 17:33:33.155070,-24.0
2023-08-11 17:33:33.162759,-24.0
2023-08-11 17:33:33.170448,-12.0
2023-08-11 17:33:33.178138,4.0
2023-08-11 17:33:33.185827,-31.0
2023-08-11 17:33:33.193517,-287.0
2023-08-11 17:33:33.201206,-821.0
2023-08-11 17:33:33.208895,-1230.0
2023-08-11 17:33:33.216585,-986.0
2023-08-11 17:33:33.224274,-169.0
2023-08-11 17:33:33.231963,447.0
2023-08-11 17:33:33.239653,357.0
2023-08-11 17:33:33.247342,96.0
2023-08-11 17:33:33.255032,99.0
2023-08-11 17:33:33.262721,79.0
2023-08-11 17:33:33.270410,2.0
2023-08-11 17:33:33.278100,14.0
2023-08-11 17:33:33.285789,29.0
2023-08-11 17:33:33.293478,-7.0
2023-08-11 17:33:33.301168,-19.0
2023-08-11 17:33:33.308857,-9.0
2023-08-11 17:33:33.316547,-21.0
2023-08-11 17:33:33.324236,-38.0
2023-08-11 17:33:33.331925,-50.0
2023-08-11 17:33:33.339615,-70.0
2023-08-11 17:33:33.347304,-87.0
2023-08-11 17:33:33.354993,-101.0
2023-08-11 17:33:33.362683,-120.0
2023-08-11 17:33:33.370372,-147.0
2023-08-11 17:33:33.378062,-183.0
2023-08-11 17:33:33.385751,-219.0
2023-08-11 17:33:33.393440,-256.0
2023-08-11 17:33:33.401130,-292.0
2023-08-11 17:33:33.408819,-309.0
2023-08-11 17:33:33.416508,-316.0
2023-08-11 17:33:33.424198,-319.0
2023-08-11 17:33:33.431887,-297.0
2023-08-11 17:33:33.439577,-241.0
2023-08-11 17:33:33.447266,-171.0
2023-08-11 17:33:33.454955,-103.0
2023-08-11 17:33:33.462645,-43.0
2023-08-11 17:33:33.470334,12.0
2023-08-11 17:33:33.478023,48.0
2023-08-11 17:33:33.485713,62.0
2023-08-11 17:33:33.493402,72.0
2023-08-11 17:33:33.501092,82.0
2023-08-11 17:33:33.508781,79.0
2023-08-11 17:33:33.516470,74.0
2023-08-11 17:33:33.524160,74.0
2023-08-11 17:33:33.531849,70.0
2023-08-11 17:33:33.539538,65.0
2023-08-11 17:33:33.547228,62.0
2023-08-11 17:33:33.554917,58.0
2023-08-11 17:33:33.562607,55.0
2023-08-11 17:33:33.570296,53.0
2023-08-11 17:33:33.577985,45.0
2023-08-11 17:33:33.585675,43.0
2023-08-11 17:33:33.593364,36.0
2023-08-11 17:33:33.601053,24.0
2023-08-11 17:33:33.608743,12.0
2023-08-11 17:33:33.616432,7.0
2023-08-11 17:33:33.624122,4.0
2023-08-11 17:33:33.631811,-2.0
2023-08-11 17:33:33.639500,-9.0
2023-08-11 17:33:33.647190,-12.0
2023-08-11 17:33:33.654879,-14.0
2023-08-11 17:33:33.662569,-16.0
2023-08-11 17:33:33.670258,-14.0
2023-08-11 17:33:33.677947,-14.0
2023-08-11 17:33:33.685637,-14.0
2023-08-11 17:33:33.693326,-19.0
2023-08-11 17:33:33.701015,-21.0
2023-08-11 17:33:33.708705,-16.0
2023-08-11 17:33:33.716394,-12.0
2023-08-11 17:33:33.724084,-14.0
2023-08-11 17:33:33.731773,-19.0
2023-08-11 17:33:33.739462,-29.0
2023-08-11 17:33:33.747152,-43.0
2023-08-11 17:33:33.754841,-53.0
2023-08-11 17:33:33.762530,-62.0
2023-08-11 17:33:33.770220,-65.0
2023-08-11 17:33:33.777909,-43.0
2023-08-11 17:33:33.785599,-24.0
2023-08-11 17:33:33.793288,-29.0
2023-08-11 17:33:33.800977,-26.0
2023-08-11 17:33:33.808667,-7.0
2023-08-11 17:33:33.816356,0.0
2023-08-11 17:33:33.824045,-7.0
2023-08-11 17:33:33.831735,-9.0
2023-08-11 17:33:33.839424,-12.0
2023-08-11 17:33:33.847114,-16.0
2023-08-11 17:33:33.854803,-19.0
2023-08-11 17:33:33.862492,-14.0
2023-08-11 17:33:33.870182,9.0
2023-08-11 17:33:33.877871,0.0
2023-08-11 17:33:33.885560,-200.0
2023-08-11 17:33:33.893250,-691.0
2023-08-11 17:33:33.900939,-1152.0
2023-08-11 17:33:33.908629,-1034.0
2023-08-11 17:33:33.916318,-297.0
2023-08-11 17:33:33.924007,369.0
2023-08-11 17:33:33.931697,374.0
2023-08-11 17:33:33.939386,116.0
2023-08-11 17:33:33.947075,89.0
2023-08-11 17:33:33.954765,94.0
2023-08-11 17:33:33.962454,24.0
2023-08-11 17:33:33.970144,24.0
2023-08-11 17:33:33.977833,41.0
2023-08-11 17:33:33.985522,12.0
2023-08-11 17:33:33.993212,-2.0
2023-08-11 17:33:34.000901,-2.0
2023-08-11 17:33:34.008590,-16.0
2023-08-11 17:33:34.016280,-33.0
2023-08-11 17:33:34.023969,-38.0
2023-08-11 17:33:34.031659,-50.0
2023-08-11 17:33:34.039348,-67.0
2023-08-11 17:33:34.047037,-84.0
2023-08-11 17:33:34.054727,-106.0
2023-08-11 17:33:34.062416,-132.0
2023-08-11 17:33:34.070105,-161.0
2023-08-11 17:33:34.077795,-190.0
2023-08-11 17:33:34.085484,-227.0
2023-08-11 17:33:34.093174,-261.0
2023-08-11 17:33:34.100863,-282.0
2023-08-11 17:33:34.108552,-287.0
2023-08-11 17:33:34.116242,-285.0
2023-08-11 17:33:34.123931,-268.0
2023-08-11 17:33:34.131621,-232.0
2023-08-11 17:33:34.139310,-174.0
2023-08-11 17:33:34.146999,-108.0
2023-08-11 17:33:34.154689,-43.0
2023-08-11 17:33:34.162378,9.0
2023-08-11 17:33:34.170067,43.0
2023-08-11 17:33:34.177757,62.0
2023-08-11 17:33:34.185446,74.0
2023-08-11 17:33:34.193136,77.0
2023-08-11 17:33:34.200825,72.0
2023-08-11 17:33:34.208514,70.0
2023-08-11 17:33:34.216204,67.0
2023-08-11 17:33:34.223893,65.0
2023-08-11 17:33:34.231582,58.0
2023-08-11 17:33:34.239272,53.0
2023-08-11 17:33:34.246961,53.0
2023-08-11 17:33:34.254651,48.0
2023-08-11 17:33:34.262340,43.0
2023-08-11 17:33:34.270029,41.0
2023-08-11 17:33:34.277719,36.0
2023-08-11 17:33:34.285408,31.0
2023-08-11 17:33:34.293097,29.0
2023-08-11 17:33:34.300787,21.0
2023-08-11 17:33:34.308476,19.0
2023-08-11 17:33:34.316166,14.0
2023-08-11 17:33:34.323855,9.0
2023-08-11 17:33:34.331544,7.0
2023-08-11 17:33:34.339234,7.0
2023-08-11 17:33:34.346923,2.0
2023-08-11 17:33:34.354612,0.0
2023-08-11 17:33:34.362302,2.0
2023-08-11 17:33:34.369991,2.0
2023-08-11 17:33:34.377681,0.0
2023-08-11 17:33:34.385370,-7.0
2023-08-11 17:33:34.393059,-12.0
2023-08-11 17:33:34.400749,-9.0
2023-08-11 17:33:34.408438,-4.0
2023-08-11 17:33:34.416127,-4.0
2023-08-11 17:33:34.423817,-7.0
2023-08-11 17:33:34.431506,-16.0
2023-08-11 17:33:34.439196,-36.0
2023-08-11 17:33:34.446885,-45.0
2023-08-11 17:33:34.454574,-55.0
2023-08-11 17:33:34.462264,-65.0
2023-08-11 17:33:34.469953,-53.0
2023-08-11 17:33:34.477642,-33.0
2023-08-11 17:33:34.485332,-29.0
2023-08-11 17:33:34.493021,-29.0
2023-08-11 17:33:34.500711,-16.0
2023-08-11 17:33:34.508400,-4.0
2023-08-11 17:33:34.516089,-2.0
2023-08-11 17:33:34.523779,-4.0
2023-08-11 17:33:34.531468,-7.0
2023-08-11 17:33:34.539158,-12.0
2023-08-11 17:33:34.546847,-16.0
2023-08-11 17:33:34.554536,-16.0
2023-08-11 17:33:34.562226,-7.0
2023-08-11 17:33:34.569915,14.0
2023-08-11 17:33:34.577604,-33.0
2023-08-11 17:33:34.585294,-311.0
2023-08-11 17:33:34.592983,-831.0
2023-08-11 17:33:34.600673,-1148.0
2023-08-11 17:33:34.608362,-807.0
2023-08-11 17:33:34.616051,-26.0
2023-08-11 17:33:34.623741,427.0
2023-08-11 17:33:34.631430,265.0
2023-08-11 17:33:34.639119,70.0
2023-08-11 17:33:34.646809,89.0
2023-08-11 17:33:34.654498,55.0
2023-08-11 17:33:34.662188,4.0
2023-08-11 17:33:34.669877,21.0
2023-08-11 17:33:34.677566,12.0
2023-08-11 17:33:34.685256,-21.0
2023-08-11 17:33:34.692945,-31.0
2023-08-11 17:33:34.700634,-38.0
2023-08-11 17:33:34.708324,-53.0
2023-08-11 17:33:34.716013,-58.0
2023-08-11 17:33:34.723703,-67.0
2023-08-11 17:33:34.731392,-87.0
2023-08-11 17:33:34.739081,-99.0
2023-08-11 17:33:34.746771,-111.0
2023-08-11 17:33:34.754460,-128.0
2023-08-11 17:33:34.762149,-159.0
2023-08-11 17:33:34.769839,-193.0
2023-08-11 17:33:34.777528,-227.0
2023-08-11 17:33:34.785218,-261.0
2023-08-11 17:33:34.792907,-285.0
2023-08-11 17:33:34.800596,-297.0
2023-08-11 17:33:34.808286,-306.0
2023-08-11 17:33:34.815975,-306.0
2023-08-11 17:33:34.823664,-282.0
2023-08-11 17:33:34.831354,-232.0
2023-08-11 17:33:34.839043,-169.0
2023-08-11 17:33:34.846733,-99.0
2023-08-11 17:33:34.854422,-38.0
2023-08-11 17:33:34.862111,4.0
2023-08-11 17:33:34.869801,36.0
2023-08-11 17:33:34.877490,60.0
2023-08-11 17:33:34.885179,70.0
2023-08-11 17:33:34.892869,74.0
2023-08-11 17:33:34.900558,74.0
2023-08-11 17:33:34.908248,72.0
2023-08-11 17:33:34.915937,67.0
2023-08-11 17:33:34.923626,65.0
2023-08-11 17:33:34.931316,62.0
2023-08-11 17:33:34.939005,58.0
2023-08-11 17:33:34.946694,53.0
2023-08-11 17:33:34.954384,48.0
2023-08-11 17:33:34.962073,43.0
2023-08-11 17:33:34.969763,41.0
2023-08-11 17:33:34.977452,38.0
2023-08-11 17:33:34.985141,33.0
2023-08-11 17:33:34.992831,26.0
2023-08-11 17:33:35.000520,21.0
2023-08-11 17:33:35.008210,16.0
2023-08-11 17:33:35.015899,19.0
2023-08-11 17:33:35.023588,14.0
2023-08-11 17:33:35.031278,7.0
2023-08-11 17:33:35.038967,2.0
2023-08-11 17:33:35.046656,0.0
2023-08-11 17:33:35.054346,0.0
2023-08-11 17:33:35.062035,2.0
2023-08-11 17:33:35.069725,2.0
2023-08-11 17:33:35.077414,0.0
2023-08-11 17:33:35.085103,0.0
2023-08-11 17:33:35.092793,-2.0
2023-08-11 17:33:35.100482,2.0
2023-08-11 17:33:35.108171,4.0
2023-08-11 17:33:35.115861,-4.0
2023-08-11 17:33:35.123550,-24.0
2023-08-11 17:33:35.131240,-45.0
2023-08-11 17:33:35.138929,-53.0
2023-08-11 17:33:35.146618,-58.0
2023-08-11 17:33:35.154308,-53.0
2023-08-11 17:33:35.161997,-33.0
2023-08-11 17:33:35.169686,-19.0
2023-08-11 17:33:35.177376,-21.0
2023-08-11 17:33:35.185065,-16.0
2023-08-11 17:33:35.192755,-2.0
2023-08-11 17:33:35.200444,-2.0
2023-08-11 17:33:35.208133,-14.0
2023-08-11 17:33:35.215823,-24.0
2023-08-11 17:33:35.223512,-33.0
2023-08-11 17:33:35.231201,-38.0
2023-08-11 17:33:35.238891,-36.0
2023-08-11 17:33:35.246580,-26.0
2023-08-11 17:33:35.254270,-12.0
2023-08-11 17:33:35.261959,-53.0
2023-08-11 17:33:35.269648,-306.0
2023-08-11 17:33:35.277338,-821.0
2023-08-11 17:33:35.285027,-1177.0
2023-08-11 17:33:35.292716,-874.0
2023-08-11 17:33:35.300406,-82.0
2023-08-11 17:33:35.308095,435.0
2023-08-11 17:33:35.315785,304.0
2023-08-11 17:33:35.323474,77.0
2023-08-11 17:33:35.331163,91.0
2023-08-11 17:33:35.338853,62.0
2023-08-11 17:33:35.346542,-4.0
2023-08-11 17:33:35.354231,16.0
2023-08-11 17:33:35.361921,24.0
2023-08-11 17:33:35.369610,-9.0
2023-08-11 17:33:35.377300,-14.0
2023-08-11 17:33:35.384989,-16.0
2023-08-11 17:33:35.392678,-36.0
2023-08-11 17:33:35.400368,-53.0
2023-08-11 17:33:35.408057,-62.0
2023-08-11 17:33:35.415746,-70.0
2023-08-11 17:33:35.423436,-82.0
2023-08-11 17:33:35.431125,-103.0
2023-08-11 17:33:35.438815,-132.0
2023-08-11 17:33:35.446504,-161.0
2023-08-11 17:33:35.454193,-190.0
2023-08-11 17:33:35.461883,-224.0
2023-08-11 17:33:35.469572,-261.0
2023-08-11 17:33:35.477262,-290.0
2023-08-11 17:33:35.484951,-311.0
2023-08-11 17:33:35.492640,-321.0
2023-08-11 17:33:35.500330,-319.0
2023-08-11 17:33:35.508019,-294.0
2023-08-11 17:33:35.515708,-239.0
2023-08-11 17:33:35.523398,-161.0
2023-08-11 17:33:35.531087,-89.0
2023-08-11 17:33:35.538777,-31.0
2023-08-11 17:33:35.546466,14.0
2023-08-11 17:33:35.554155,48.0
2023-08-11 17:33:35.561845,65.0
2023-08-11 17:33:35.569534,72.0
2023-08-11 17:33:35.577223,82.0
2023-08-11 17:33:35.584913,82.0
2023-08-11 17:33:35.592602,72.0
2023-08-11 17:33:35.600292,67.0
2023-08-11 17:33:35.607981,67.0
2023-08-11 17:33:35.615670,60.0
2023-08-11 17:33:35.623360,53.0
2023-08-11 17:33:35.631049,50.0
2023-08-11 17:33:35.638738,48.0
2023-08-11 17:33:35.646428,41.0
2023-08-11 17:33:35.654117,36.0
2023-08-11 17:33:35.661807,36.0
2023-08-11 17:33:35.669496,29.0
2023-08-11 17:33:35.677185,24.0
2023-08-11 17:33:35.684875,16.0
2023-08-11 17:33:35.692564,9.0
2023-08-11 17:33:35.700253,9.0
2023-08-11 17:33:35.707943,7.0
2023-08-11 17:33:35.715632,0.0
2023-08-11 17:33:35.723322,-7.0
2023-08-11 17:33:35.731011,-9.0
2023-08-11 17:33:35.738700,-9.0
2023-08-11 17:33:35.746390,-7.0
2023-08-11 17:33:35.754079,-7.0
2023-08-11 17:33:35.761768,-7.0
2023-08-11 17:33:35.769458,0.0
2023-08-11 17:33:35.777147,0.0
2023-08-11 17:33:35.784837,-4.0
2023-08-11 17:33:35.792526,-7.0
2023-08-11 17:33:35.800215,-7.0
2023-08-11 17:33:35.807905,-21.0
2023-08-11 17:33:35.815594,-48.0
2023-08-11 17:33:35.823283,-60.0
2023-08-11 17:33:35.830973,-58.0
2023-08-11 17:33:35.838662,-50.0
2023-08-11 17:33:35.846352,-38.0
2023-08-11 17:33:35.854041,-26.0
2023-08-11 17:33:35.861730,-26.0
2023-08-11 17:33:35.869420,-24.0
2023-08-11 17:33:35.877109,-9.0
2023-08-11 17:33:35.884798,-9.0
2023-08-11 17:33:35.892488,-16.0
2023-08-11 17:33:35.900177,-16.0
2023-08-11 17:33:35.907867,-16.0
2023-08-11 17:33:35.915556,-19.0
2023-08-11 17:33:35.923245,-21.0
2023-08-11 17:33:35.930935,-12.0
2023-08-11 17:33:35.938624,12.0
2023-08-11 17:33:35.946314,-16.0
2023-08-11 17:33:35.954003,-251.0
2023-08-11 17:33:35.961692,-763.0
2023-08-11 17:33:35.969382,-1191.0
2023-08-11 17:33:35.977071,-983.0
2023-08-11 17:33:35.984760,-188.0
2023-08-11 17:33:35.992450,435.0
2023-08-11 17:33:36.000139,367.0
2023-08-11 17:33:36.007829,103.0
2023-08-11 17:33:36.015518,91.0
2023-08-11 17:33:36.023207,82.0
2023-08-11 17:33:36.030897,16.0
2023-08-11 17:33:36.038586,26.0
2023-08-11 17:33:36.046275,29.0
2023-08-11 17:33:36.053965,0.0
2023-08-11 17:33:36.061654,-2.0
2023-08-11 17:33:36.069344,-2.0
2023-08-11 17:33:36.077033,-24.0
2023-08-11 17:33:36.084722,-36.0
2023-08-11 17:33:36.092412,-36.0
2023-08-11 17:33:36.100101,-58.0
2023-08-11 17:33:36.107790,-87.0
2023-08-11 17:33:36.115480,-103.0
2023-08-11 17:33:36.123169,-123.0
2023-08-11 17:33:36.130859,-154.0
2023-08-11 17:33:36.138548,-186.0
2023-08-11 17:33:36.146237,-219.0
2023-08-11 17:33:36.153927,-253.0
2023-08-11 17:33:36.161616,-280.0
2023-08-11 17:33:36.169305,-299.0
2023-08-11 17:33:36.176995,-311.0
2023-08-11 17:33:36.184684,-306.0
2023-08-11 17:33:36.192374,-285.0
2023-08-11 17:33:36.200063,-239.0
2023-08-11 17:33:36.207752,-176.0
2023-08-11 17:33:36.215442,-108.0
2023-08-11 17:33:36.223131,-38.0
2023-08-11 17:33:36.230820,16.0
2023-08-11 17:33:36.238510,45.0
2023-08-11 17:33:36.246199,65.0
2023-08-11 17:33:36.253889,77.0
2023-08-11 17:33:36.261578,77.0
2023-08-11 17:33:36.269267,77.0
2023-08-11 17:33:36.276957,82.0
2023-08-11 17:33:36.284646,77.0
2023-08-11 17:33:36.292335,67.0
2023-08-11 17:33:36.300025,65.0
2023-08-11 17:33:36.307714,65.0
2023-08-11 17:33:36.315404,62.0
2023-08-11 17:33:36.323093,60.0
2023-08-11 17:33:36.330782,58.0
2023-08-11 17:33:36.338472,50.0
2023-08-11 17:33:36.346161,43.0
2023-08-11 17:33:36.353851,38.0
2023-08-11 17:33:36.361540,33.0
2023-08-11 17:33:36.369229,26.0
2023-08-11 17:33:36.376919,21.0
2023-08-11 17:33:36.384608,16.0
2023-08-11 17:33:36.392297,14.0
2023-08-11 17:33:36.399987,12.0
2023-08-11 17:33:36.407676,7.0
2023-08-11 17:33:36.415366,2.0
2023-08-11 17:33:36.423055,0.0
2023-08-11 17:33:36.430744,-2.0
2023-08-11 17:33:36.438434,-12.0
2023-08-11 17:33:36.446123,-14.0
2023-08-11 17:33:36.453812,-9.0
2023-08-11 17:33:36.461502,-9.0
2023-08-11 17:33:36.469191,-12.0
2023-08-11 17:33:36.476881,-12.0
2023-08-11 17:33:36.484570,-19.0
2023-08-11 17:33:36.492259,-31.0
2023-08-11 17:33:36.499949,-41.0
2023-08-11 17:33:36.507638,-53.0
2023-08-11 17:33:36.515327,-58.0
2023-08-11 17:33:36.523017,-41.0
2023-08-11 17:33:36.530706,-24.0
2023-08-11 17:33:36.538396,-19.0
2023-08-11 17:33:36.546085,-16.0
2023-08-11 17:33:36.553774,-4.0
2023-08-11 17:33:36.561464,0.0
2023-08-11 17:33:36.569153,-4.0
2023-08-11 17:33:36.576842,-7.0
2023-08-11 17:33:36.584532,-9.0
2023-08-11 17:33:36.592221,-12.0
2023-08-11 17:33:36.599911,-16.0
2023-08-11 17:33:36.607600,-14.0
2023-08-11 17:33:36.615289,4.0
2023-08-11 17:33:36.622979,7.0
2023-08-11 17:33:36.630668,-125.0
2023-08-11 17:33:36.638357,-536.0
2023-08-11 17:33:36.646047,-1036.0
2023-08-11 17:33:36.653736,-1068.0
2023-08-11 17:33:36.661426,-435.0
2023-08-11 17:33:36.669115,282.0
2023-08-11 17:33:36.676804,413.0
2023-08-11 17:33:36.684494,157.0
2023-08-11 17:33:36.692183,72.0
2023-08-11 17:33:36.699872,91.0
2023-08-11 17:33:36.707562,31.0
2023-08-11 17:33:36.715251,9.0
2023-08-11 17:33:36.722941,24.0
2023-08-11 17:33:36.730630,7.0
2023-08-11 17:33:36.738319,-9.0
2023-08-11 17:33:36.746009,-12.0
2023-08-11 17:33:36.753698,-21.0
2023-08-11 17:33:36.761387,-31.0
2023-08-11 17:33:36.769077,-36.0
2023-08-11 17:33:36.776766,-53.0
2023-08-11 17:33:36.784456,-74.0
2023-08-11 17:33:36.792145,-91.0
2023-08-11 17:33:36.799834,-111.0
2023-08-11 17:33:36.807524,-135.0
2023-08-11 17:33:36.815213,-161.0
2023-08-11 17:33:36.822903,-193.0
2023-08-11 17:33:36.830592,-232.0
2023-08-11 17:33:36.838281,-268.0
2023-08-11 17:33:36.845971,-287.0
2023-08-11 17:33:36.853660,-299.0
2023-08-11 17:33:36.861349,-302.0
2023-08-11 17:33:36.869039,-285.0
2023-08-11 17:33:36.876728,-244.0
2023-08-11 17:33:36.884418,-193.0
2023-08-11 17:33:36.892107,-132.0
2023-08-11 17:33:36.899796,-65.0
2023-08-11 17:33:36.907486,-9.0
2023-08-11 17:33:36.915175,24.0
2023-08-11 17:33:36.922864,45.0
2023-08-11 17:33:36.930554,55.0
2023-08-11 17:33:36.938243,58.0
2023-08-11 17:33:36.945933,65.0
2023-08-11 17:33:36.953622,65.0
2023-08-11 17:33:36.961311,60.0
2023-08-11 17:33:36.969001,60.0
2023-08-11 17:33:36.976690,58.0
2023-08-11 17:33:36.984379,55.0
2023-08-11 17:33:36.992069,50.0
2023-08-11 17:33:36.999758,45.0
2023-08-11 17:33:37.007448,43.0
2023-08-11 17:33:37.015137,41.0
2023-08-11 17:33:37.022826,31.0
2023-08-11 17:33:37.030516,26.0
2023-08-11 17:33:37.038205,26.0
2023-08-11 17:33:37.045894,16.0
2023-08-11 17:33:37.053584,12.0
2023-08-11 17:33:37.061273,7.0
2023-08-11 17:33:37.068963,2.0
2023-08-11 17:33:37.076652,-2.0
2023-08-11 17:33:37.084341,-2.0
2023-08-11 17:33:37.092031,-7.0
2023-08-11 17:33:37.099720,-12.0
2023-08-11 17:33:37.107409,-14.0
2023-08-11 17:33:37.115099,-12.0
2023-08-11 17:33:37.122788,-12.0
2023-08-11 17:33:37.130478,-12.0
2023-08-11 17:33:37.138167,-9.0
2023-08-11 17:33:37.145856,-9.0
2023-08-11 17:33:37.153546,-9.0
2023-08-11 17:33:37.161235,-12.0
2023-08-11 17:33:37.168924,-16.0
2023-08-11 17:33:37.176614,-26.0
2023-08-11 17:33:37.184303,-43.0
2023-08-11 17:33:37.191993,-53.0
2023-08-11 17:33:37.199682,-60.0
2023-08-11 17:33:37.207371,-65.0
2023-08-11 17:33:37.215061,-48.0
2023-08-11 17:33:37.222750,-31.0
2023-08-11 17:33:37.230439,-38.0
2023-08-11 17:33:37.238129,-38.0
2023-08-11 17:33:37.245818,-21.0
2023-08-11 17:33:37.253508,-12.0
2023-08-11 17:33:37.261197,-16.0
2023-08-11 17:33:37.268886,-16.0
2023-08-11 17:33:37.276576,-14.0
2023-08-11 17:33:37.284265,-19.0
2023-08-11 17:33:37.291955,-26.0
2023-08-11 17:33:37.299644,-26.0
2023-08-11 17:33:37.307333,-12.0
2023-08-11 17:33:37.315023,2.0
2023-08-11 17:33:37.322712,-94.0
2023-08-11 17:33:37.330401,-461.0
2023-08-11 17:33:37.338091,-993.0
2023-08-11 17:33:37.345780,-1135.0
2023-08-11 17:33:37.353470,-580.0
2023-08-11 17:33:37.361159,186.0
2023-08-11 17:33:37.368848,425.0
2023-08-11 17:33:37.376538,190.0
2023-08-11 17:33:37.384227,70.0
2023-08-11 17:33:37.391916,89.0
2023-08-11 17:33:37.399606,31.0
2023-08-11 17:33:37.407295,7.0
2023-08-11 17:33:37.414985,29.0
2023-08-11 17:33:37.422674,12.0
2023-08-11 17:33:37.430363,-9.0
2023-08-11 17:33:37.438053,-9.0
2023-08-11 17:33:37.445742,-14.0
2023-08-11 17:33:37.453431,-26.0
2023-08-11 17:33:37.461121,-36.0
2023-08-11 17:33:37.468810,-48.0
2023-08-11 17:33:37.476500,-65.0
2023-08-11 17:33:37.484189,-82.0
2023-08-11 17:33:37.491878,-106.0
2023-08-11 17:33:37.499568,-132.0
2023-08-11 17:33:37.507257,-159.0
2023-08-11 17:33:37.514946,-200.0
2023-08-11 17:33:37.522636,-246.0
2023-08-11 17:33:37.530325,-277.0
2023-08-11 17:33:37.538015,-292.0
2023-08-11 17:33:37.545704,-311.0
2023-08-11 17:33:37.553393,-326.0
2023-08-11 17:33:37.561083,-319.0
2023-08-11 17:33:37.568772,-287.0
2023-08-11 17:33:37.576461,-229.0
2023-08-11 17:33:37.584151,-159.0
2023-08-11 17:33:37.591840,-94.0
2023-08-11 17:33:37.599530,-36.0
2023-08-11 17:33:37.607219,4.0
2023-08-11 17:33:37.614908,36.0
2023-08-11 17:33:37.622598,55.0
2023-08-11 17:33:37.630287,62.0
2023-08-11 17:33:37.637976,67.0
2023-08-11 17:33:37.645666,67.0
2023-08-11 17:33:37.653355,62.0
2023-08-11 17:33:37.661045,55.0
2023-08-11 17:33:37.668734,50.0
2023-08-11 17:33:37.676423,45.0
2023-08-11 17:33:37.684113,43.0
2023-08-11 17:33:37.691802,43.0
2023-08-11 17:33:37.699492,38.0
2023-08-11 17:33:37.707181,31.0
2023-08-11 17:33:37.714870,26.0
2023-08-11 17:33:37.722560,21.0
2023-08-11 17:33:37.730249,9.0
2023-08-11 17:33:37.737938,-2.0
2023-08-11 17:33:37.745628,-2.0
2023-08-11 17:33:37.753317,-2.0
2023-08-11 17:33:37.761007,-9.0
2023-08-11 17:33:37.768696,-14.0
2023-08-11 17:33:37.776385,-9.0
2023-08-11 17:33:37.784075,-9.0
2023-08-11 17:33:37.791764,-9.0
2023-08-11 17:33:37.799453,-7.0
2023-08-11 17:33:37.807143,-9.0
2023-08-11 17:33:37.814832,-16.0
2023-08-11 17:33:37.822522,-19.0
2023-08-11 17:33:37.830211,-19.0
2023-08-11 17:33:37.837900,-16.0
2023-08-11 17:33:37.845590,-14.0
2023-08-11 17:33:37.853279,-14.0
2023-08-11 17:33:37.860968,-14.0
2023-08-11 17:33:37.868658,-21.0
2023-08-11 17:33:37.876347,-41.0
2023-08-11 17:33:37.884037,-55.0
2023-08-11 17:33:37.891726,-67.0
2023-08-11 17:33:37.899415,-70.0
2023-08-11 17:33:37.907105,-50.0
2023-08-11 17:33:37.914794,-31.0
2023-08-11 17:33:37.922483,-36.0
2023-08-11 17:33:37.930173,-33.0
2023-08-11 17:33:37.937862,-14.0
2023-08-11 17:33:37.945552,-2.0
2023-08-11 17:33:37.953241,-9.0
2023-08-11 17:33:37.960930,-21.0
2023-08-11 17:33:37.968620,-24.0
2023-08-11 17:33:37.976309,-16.0
2023-08-11 17:33:37.983998,-19.0
2023-08-11 17:33:37.991688,-24.0
2023-08-11 17:33:37.999377,-7.0
2023-08-11 17:33:38.007067,-9.0
2023-08-11 17:33:38.014756,-174.0
2023-08-11 17:33:38.022445,-628.0
2023-08-11 17:33:38.030135,-1138.0
2023-08-11 17:33:38.037824,-1128.0
2023-08-11 17:33:38.045513,-430.0
2023-08-11 17:33:38.053203,323.0
2023-08-11 17:33:38.060892,435.0
2023-08-11 17:33:38.068582,147.0
2023-08-11 17:33:38.076271,67.0
2023-08-11 17:33:38.083960,84.0
2023-08-11 17:33:38.091650,12.0
2023-08-11 17:33:38.099339,-2.0
2023-08-11 17:33:38.107028,16.0
2023-08-11 17:33:38.114718,-7.0
2023-08-11 17:33:38.122407,-24.0
2023-08-11 17:33:38.130097,-19.0
2023-08-11 17:33:38.137786,-31.0
2023-08-11 17:33:38.145475,-45.0
2023-08-11 17:33:38.153165,-50.0
2023-08-11 17:33:38.160854,-60.0
2023-08-11 17:33:38.168544,-84.0
2023-08-11 17:33:38.176233,-106.0
2023-08-11 17:33:38.183922,-128.0
2023-08-11 17:33:38.191612,-159.0
2023-08-11 17:33:38.199301,-188.0
2023-08-11 17:33:38.206990,-219.0
2023-08-11 17:33:38.214680,-261.0
2023-08-11 17:33:38.222369,-297.0
2023-08-11 17:33:38.230059,-316.0
2023-08-11 17:33:38.237748,-331.0
2023-08-11 17:33:38.245437,-338.0
2023-08-11 17:33:38.253127,-321.0
2023-08-11 17:33:38.260816,-277.0
2023-08-11 17:33:38.268505,-210.0
2023-08-11 17:33:38.276195,-132.0
2023-08-11 17:33:38.283884,-65.0
2023-08-11 17:33:38.291574,-9.0
2023-08-11 17:33:38.299263,29.0
2023-08-11 17:33:38.306952,50.0
2023-08-11 17:33:38.314642,60.0
2023-08-11 17:33:38.322331,60.0
2023-08-11 17:33:38.330020,58.0
2023-08-11 17:33:38.337710,62.0
2023-08-11 17:33:38.345399,62.0
2023-08-11 17:33:38.353089,60.0
2023-08-11 17:33:38.360778,58.0
2023-08-11 17:33:38.368467,53.0
2023-08-11 17:33:38.376157,45.0
2023-08-11 17:33:38.383846,43.0
2023-08-11 17:33:38.391535,43.0
2023-08-11 17:33:38.399225,41.0
2023-08-11 17:33:38.406914,33.0
2023-08-11 17:33:38.414604,26.0
2023-08-11 17:33:38.422293,19.0
2023-08-11 17:33:38.429982,16.0
2023-08-11 17:33:38.437672,19.0
2023-08-11 17:33:38.445361,16.0
2023-08-11 17:33:38.453050,7.0
2023-08-11 17:33:38.460740,0.0
2023-08-11 17:33:38.468429,0.0
2023-08-11 17:33:38.476119,-4.0
2023-08-11 17:33:38.483808,-7.0
2023-08-11 17:33:38.491497,-2.0
2023-08-11 17:33:38.499187,0.0
2023-08-11 17:33:38.506876,-4.0
2023-08-11 17:33:38.514565,-4.0
2023-08-11 17:33:38.522255,-2.0
2023-08-11 17:33:38.529944,-2.0
2023-08-11 17:33:38.537634,0.0
2023-08-11 17:33:38.545323,-2.0
2023-08-11 17:33:38.553012,-2.0
2023-08-11 17:33:38.560702,-9.0
2023-08-11 17:33:38.568391,-26.0
2023-08-11 17:33:38.576080,-41.0
2023-08-11 17:33:38.583770,-50.0
2023-08-11 17:33:38.591459,-65.0
2023-08-11 17:33:38.599149,-67.0
2023-08-11 17:33:38.606838,-53.0
2023-08-11 17:33:38.614527,-38.0
2023-08-11 17:33:38.622217,-36.0
2023-08-11 17:33:38.629906,-29.0
2023-08-11 17:33:38.637596,-21.0
2023-08-11 17:33:38.645285,-26.0
2023-08-11 17:33:38.652974,-31.0
2023-08-11 17:33:38.660664,-29.0
2023-08-11 17:33:38.668353,-29.0
2023-08-11 17:33:38.676042,-33.0
2023-08-11 17:33:38.683732,-33.0
2023-08-11 17:33:38.691421,-24.0
2023-08-11 17:33:38.699111,-7.0
2023-08-11 17:33:38.706800,-41.0
2023-08-11 17:33:38.714489,-294.0
2023-08-11 17:33:38.722179,-816.0
2023-08-11 17:33:38.729868,-1206.0
2023-08-11 17:33:38.737557,-940.0
2023-08-11 17:33:38.745247,-135.0
2023-08-11 17:33:38.752936,432.0
2023-08-11 17:33:38.760626,321.0
2023-08-11 17:33:38.768315,77.0
2023-08-11 17:33:38.776004,82.0
2023-08-11 17:33:38.783694,60.0
2023-08-11 17:33:38.791383,-2.0
2023-08-11 17:33:38.799072,16.0
2023-08-11 17:33:38.806762,19.0
2023-08-11 17:33:38.814451,-16.0
2023-08-11 17:33:38.822141,-26.0
2023-08-11 17:33:38.829830,-24.0
2023-08-11 17:33:38.837519,-33.0
2023-08-11 17:33:38.845209,-45.0
2023-08-11 17:33:38.852898,-55.0
2023-08-11 17:33:38.860587,-67.0
2023-08-11 17:33:38.868277,-84.0
2023-08-11 17:33:38.875966,-108.0
2023-08-11 17:33:38.883656,-130.0
2023-08-11 17:33:38.891345,-157.0
2023-08-11 17:33:38.899034,-190.0
2023-08-11 17:33:38.906724,-227.0
2023-08-11 17:33:38.914413,-261.0
2023-08-11 17:33:38.922102,-287.0
2023-08-11 17:33:38.929792,-304.0
2023-08-11 17:33:38.937481,-311.0
2023-08-11 17:33:38.945171,-309.0
2023-08-11 17:33:38.952860,-285.0
2023-08-11 17:33:38.960549,-236.0
2023-08-11 17:33:38.968239,-166.0
2023-08-11 17:33:38.975928,-96.0
2023-08-11 17:33:38.983617,-33.0
2023-08-11 17:33:38.991307,16.0
2023-08-11 17:33:38.998996,45.0
2023-08-11 17:33:39.006686,58.0
2023-08-11 17:33:39.014375,70.0
2023-08-11 17:33:39.022064,77.0
2023-08-11 17:33:39.029754,77.0
2023-08-11 17:33:39.037443,74.0
2023-08-11 17:33:39.045133,72.0
2023-08-11 17:33:39.052822,65.0
2023-08-11 17:33:39.060511,60.0
2023-08-11 17:33:39.068201,55.0
2023-08-11 17:33:39.075890,53.0
2023-08-11 17:33:39.083579,50.0
2023-08-11 17:33:39.091269,43.0
2023-08-11 17:33:39.098958,38.0
2023-08-11 17:33:39.106648,33.0
2023-08-11 17:33:39.114337,29.0
2023-08-11 17:33:39.122026,21.0
2023-08-11 17:33:39.129716,14.0
2023-08-11 17:33:39.137405,9.0
2023-08-11 17:33:39.145094,4.0
2023-08-11 17:33:39.152784,2.0
2023-08-11 17:33:39.160473,0.0
2023-08-11 17:33:39.168163,0.0
2023-08-11 17:33:39.175852,-2.0
2023-08-11 17:33:39.183541,-12.0
2023-08-11 17:33:39.191231,-16.0
2023-08-11 17:33:39.198920,-16.0
2023-08-11 17:33:39.206609,-12.0
2023-08-11 17:33:39.214299,-14.0
2023-08-11 17:33:39.221988,-14.0
2023-08-11 17:33:39.229678,-14.0
2023-08-11 17:33:39.237367,-19.0
2023-08-11 17:33:39.245056,-19.0
2023-08-11 17:33:39.252746,-21.0
2023-08-11 17:33:39.260435,-19.0
2023-08-11 17:33:39.268124,-21.0
2023-08-11 17:33:39.275814,-36.0
2023-08-11 17:33:39.283503,-53.0
2023-08-11 17:33:39.291193,-62.0
2023-08-11 17:33:39.298882,-74.0
2023-08-11 17:33:39.306571,-82.0
2023-08-11 17:33:39.314261,-65.0
2023-08-11 17:33:39.321950,-45.0
2023-08-11 17:33:39.329639,-41.0
2023-08-11 17:33:39.337329,-41.0
2023-08-11 17:33:39.345018,-29.0
2023-08-11 17:33:39.352708,-19.0
2023-08-11 17:33:39.360397,-19.0
2023-08-11 17:33:39.368086,-24.0
2023-08-11 17:33:39.375776,-24.0
2023-08-11 17:33:39.383465,-26.0
2023-08-11 17:33:39.391154,-26.0
2023-08-11 17:33:39.398844,-24.0
2023-08-11 17:33:39.406533,-9.0
2023-08-11 17:33:39.414223,0.0
2023-08-11 17:33:39.421912,-99.0
2023-08-11 17:33:39.429601,-466.0
2023-08-11 17:33:39.437291,-993.0
2023-08-11 17:33:39.444980,-1140.0
2023-08-11 17:33:39.452669,-594.0
2023-08-11 17:33:39.460359,181.0
2023-08-11 17:33:39.468048,437.0
2023-08-11 17:33:39.475738,188.0
2023-08-11 17:33:39.483427,62.0
2023-08-11 17:33:39.491116,94.0
2023-08-11 17:33:39.498806,41.0
2023-08-11 17:33:39.506495,7.0
2023-08-11 17:33:39.514185,29.0
2023-08-11 17:33:39.521874,16.0
2023-08-11 17:33:39.529563,-7.0
2023-08-11 17:33:39.537253,-9.0
2023-08-11 17:33:39.544942,-19.0
2023-08-11 17:33:39.552631,-38.0
2023-08-11 17:33:39.560321,-50.0
2023-08-11 17:33:39.568010,-58.0
2023-08-11 17:33:39.575700,-72.0
2023-08-11 17:33:39.583389,-91.0
2023-08-11 17:33:39.591078,-108.0
2023-08-11 17:33:39.598768,-130.0
2023-08-11 17:33:39.606457,-159.0
2023-08-11 17:33:39.614146,-190.0
2023-08-11 17:33:39.621836,-222.0
2023-08-11 17:33:39.629525,-256.0
2023-08-11 17:33:39.637215,-280.0
2023-08-11 17:33:39.644904,-294.0
2023-08-11 17:33:39.652593,-299.0
2023-08-11 17:33:39.660283,-290.0
2023-08-11 17:33:39.667972,-261.0
2023-08-11 17:33:39.675661,-207.0
2023-08-11 17:33:39.683351,-140.0
2023-08-11 17:33:39.691040,-72.0
2023-08-11 17:33:39.698730,-14.0
2023-08-11 17:33:39.706419,26.0
2023-08-11 17:33:39.714108,55.0
2023-08-11 17:33:39.721798,62.0
2023-08-11 17:33:39.729487,62.0
2023-08-11 17:33:39.737176,65.0
2023-08-11 17:33:39.744866,65.0
2023-08-11 17:33:39.752555,55.0
2023-08-11 17:33:39.760245,45.0
2023-08-11 17:33:39.767934,43.0
2023-08-11 17:33:39.775623,41.0
2023-08-11 17:33:39.783313,38.0
2023-08-11 17:33:39.791002,33.0
2023-08-11 17:33:39.798691,31.0
2023-08-11 17:33:39.806381,26.0
2023-08-11 17:33:39.814070,21.0
2023-08-11 17:33:39.821760,16.0
2023-08-11 17:33:39.829449,12.0
2023-08-11 17:33:39.837138,9.0
2023-08-11 17:33:39.844828,9.0
2023-08-11 17:33:39.852517,4.0
2023-08-11 17:33:39.860206,0.0
2023-08-11 17:33:39.867896,-2.0
2023-08-11 17:33:39.875585,-2.0
2023-08-11 17:33:39.883275,-7.0
2023-08-11 17:33:39.890964,-9.0
2023-08-11 17:33:39.898653,-9.0
2023-08-11 17:33:39.906343,-9.0
2023-08-11 17:33:39.914032,-9.0
2023-08-11 17:33:39.921721,-9.0
2023-08-11 17:33:39.929411,-9.0
2023-08-11 17:33:39.937100,-9.0
2023-08-11 17:33:39.944790,-9.0
2023-08-11 17:33:39.952479,-9.0
2023-08-11 17:33:39.960168,-9.0
2023-08-11 17:33:39.967858,-4.0
2023-08-11 17:33:39.975547,-2.0
2023-08-11 17:33:39.983237,-4.0
2023-08-11 17:33:39.990926,-16.0
2023-08-11 17:33:39.998615,-38.0
2023-08-11 17:33:40.006305,-50.0
2023-08-11 17:33:40.013994,-58.0
2023-08-11 17:33:40.021683,-62.0
2023-08-11 17:33:40.029373,-48.0
2023-08-11 17:33:40.037062,-29.0
2023-08-11 17:33:40.044752,-29.0
2023-08-11 17:33:40.052441,-26.0
2023-08-11 17:33:40.060130,-7.0
2023-08-11 17:33:40.067820,2.0
2023-08-11 17:33:40.075509,-4.0
2023-08-11 17:33:40.083198,-7.0
2023-08-11 17:33:40.090888,-7.0
2023-08-11 17:33:40.098577,-9.0
2023-08-11 17:33:40.106267,-14.0
2023-08-11 17:33:40.113956,-14.0
2023-08-11 17:33:40.121645,-2.0
2023-08-11 17:33:40.129335,14.0
2023-08-11 17:33:40.137024,-70.0
2023-08-11 17:33:40.144713,-427.0
2023-08-11 17:33:40.152403,-969.0
2023-08-11 17:33:40.160092,-1143.0
2023-08-11 17:33:40.167782,-609.0
2023-08-11 17:33:40.175471,174.0
2023-08-11 17:33:40.183160,442.0
2023-08-11 17:33:40.190850,203.0
2023-08-11 17:33:40.198539,72.0
2023-08-11 17:33:40.206228,99.0
2023-08-11 17:33:40.213918,41.0
2023-08-11 17:33:40.221607,7.0
2023-08-11 17:33:40.229297,26.0
2023-08-11 17:33:40.236986,9.0
2023-08-11 17:33:40.244675,-14.0
2023-08-11 17:33:40.252365,-12.0
2023-08-11 17:33:40.260054,-24.0
2023-08-11 17:33:40.267743,-43.0
2023-08-11 17:33:40.275433,-48.0
2023-08-11 17:33:40.283122,-58.0
2023-08-11 17:33:40.290812,-77.0
2023-08-11 17:33:40.298501,-99.0
2023-08-11 17:33:40.306190,-118.0
2023-08-11 17:33:40.313880,-147.0
2023-08-11 17:33:40.321569,-176.0
2023-08-11 17:33:40.329258,-207.0
2023-08-11 17:33:40.336948,-246.0
2023-08-11 17:33:40.344637,-280.0
2023-08-11 17:33:40.352327,-302.0
2023-08-11 17:33:40.360016,-314.0
2023-08-11 17:33:40.367705,-314.0
2023-08-11 17:33:40.375395,-309.0
2023-08-11 17:33:40.383084,-282.0
2023-08-11 17:33:40.390773,-229.0
2023-08-11 17:33:40.398463,-164.0
2023-08-11 17:33:40.406152,-94.0
2023-08-11 17:33:40.413842,-29.0
2023-08-11 17:33:40.421531,14.0
2023-08-11 17:33:40.429220,36.0
2023-08-11 17:33:40.436910,50.0
2023-08-11 17:33:40.444599,62.0
2023-08-11 17:33:40.452289,67.0
2023-08-11 17:33:40.459978,70.0
2023-08-11 17:33:40.467667,70.0
2023-08-11 17:33:40.475357,67.0
2023-08-11 17:33:40.483046,60.0
2023-08-11 17:33:40.490735,53.0
2023-08-11 17:33:40.498425,45.0
2023-08-11 17:33:40.506114,48.0
2023-08-11 17:33:40.513804,45.0
2023-08-11 17:33:40.521493,38.0
2023-08-11 17:33:40.529182,31.0
2023-08-11 17:33:40.536872,26.0
2023-08-11 17:33:40.544561,21.0
2023-08-11 17:33:40.552250,21.0
2023-08-11 17:33:40.559940,16.0
2023-08-11 17:33:40.567629,4.0
2023-08-11 17:33:40.575319,0.0
2023-08-11 17:33:40.583008,2.0
2023-08-11 17:33:40.590697,2.0
2023-08-11 17:33:40.598387,-2.0
2023-08-11 17:33:40.606076,-4.0
2023-08-11 17:33:40.613765,-2.0
2023-08-11 17:33:40.621455,-4.0
2023-08-11 17:33:40.629144,-4.0
2023-08-11 17:33:40.636834,-7.0
2023-08-11 17:33:40.644523,-9.0
2023-08-11 17:33:40.652212,-7.0
2023-08-11 17:33:40.659902,-4.0
2023-08-11 17:33:40.667591,-12.0
2023-08-11 17:33:40.675280,-14.0
2023-08-11 17:33:40.682970,-9.0
2023-08-11 17:33:40.690659,-7.0
2023-08-11 17:33:40.698349,-9.0
2023-08-11 17:33:40.706038,-16.0
2023-08-11 17:33:40.713727,-36.0
2023-08-11 17:33:40.721417,-50.0
2023-08-11 17:33:40.729106,-62.0
2023-08-11 17:33:40.736795,-67.0
2023-08-11 17:33:40.744485,-53.0
2023-08-11 17:33:40.752174,-33.0
2023-08-11 17:33:40.759864,-33.0
2023-08-11 17:33:40.767553,-43.0
2023-08-11 17:33:40.775242,-36.0
2023-08-11 17:33:40.782932,-21.0
2023-08-11 17:33:40.790621,-21.0
2023-08-11 17:33:40.798310,-31.0
2023-08-11 17:33:40.806000,-36.0
2023-08-11 17:33:40.813689,-36.0
2023-08-11 17:33:40.821379,-36.0
2023-08-11 17:33:40.829068,-36.0
2023-08-11 17:33:40.836757,-21.0
2023-08-11 17:33:40.844447,-9.0
2023-08-11 17:33:40.852136,-118.0
2023-08-11 17:33:40.859826,-502.0
2023-08-11 17:33:40.867515,-1053.0
2023-08-11 17:33:40.875204,-1215.0
2023-08-11 17:33:40.882894,-642.0
2023-08-11 17:33:40.890583,176.0
2023-08-11 17:33:40.898272,439.0
2023-08-11 17:33:40.905962,166.0
2023-08-11 17:33:40.913651,38.0
2023-08-11 17:33:40.921341,77.0
2023-08-11 17:33:40.929030,12.0
2023-08-11 17:33:40.936719,-26.0
2023-08-11 17:33:40.944409,0.0
2023-08-11 17:33:40.952098,-14.0
2023-08-11 17:33:40.959787,-41.0
2023-08-11 17:33:40.967477,-38.0
2023-08-11 17:33:40.975166,-41.0
2023-08-11 17:33:40.982856,-58.0
2023-08-11 17:33:40.990545,-67.0
2023-08-11 17:33:40.998234,-74.0
2023-08-11 17:33:41.005924,-89.0
2023-08-11 17:33:41.013613,-103.0
2023-08-11 17:33:41.021302,-120.0
2023-08-11 17:33:41.028992,-147.0
2023-08-11 17:33:41.036681,-178.0
2023-08-11 17:33:41.044371,-210.0
2023-08-11 17:33:41.052060,-244.0
2023-08-11 17:33:41.059749,-275.0
2023-08-11 17:33:41.067439,-299.0
2023-08-11 17:33:41.075128,-314.0
2023-08-11 17:33:41.082817,-321.0
2023-08-11 17:33:41.090507,-309.0
2023-08-11 17:33:41.098196,-273.0
2023-08-11 17:33:41.105886,-217.0
2023-08-11 17:33:41.113575,-147.0
2023-08-11 17:33:41.121264,-79.0
2023-08-11 17:33:41.128954,-24.0
2023-08-11 17:33:41.136643,19.0
2023-08-11 17:33:41.144332,50.0
2023-08-11 17:33:41.152022,65.0
2023-08-11 17:33:41.159711,77.0
2023-08-11 17:33:41.167401,79.0
2023-08-11 17:33:41.175090,74.0
2023-08-11 17:33:41.182779,72.0
2023-08-11 17:33:41.190469,74.0
2023-08-11 17:33:41.198158,74.0
2023-08-11 17:33:41.205847,70.0
2023-08-11 17:33:41.213537,65.0
2023-08-11 17:33:41.221226,62.0
2023-08-11 17:33:41.228916,60.0
2023-08-11 17:33:41.236605,53.0
2023-08-11 17:33:41.244294,48.0
2023-08-11 17:33:41.251984,41.0
2023-08-11 17:33:41.259673,31.0
2023-08-11 17:33:41.267362,26.0
2023-08-11 17:33:41.275052,19.0
2023-08-11 17:33:41.282741,12.0
2023-08-11 17:33:41.290431,9.0
2023-08-11 17:33:41.298120,12.0
2023-08-11 17:33:41.305809,7.0
2023-08-11 17:33:41.313499,2.0
2023-08-11 17:33:41.321188,4.0
2023-08-11 17:33:41.328878,7.0
2023-08-11 17:33:41.336567,7.0
2023-08-11 17:33:41.344256,4.0
2023-08-11 17:33:41.351946,4.0
2023-08-11 17:33:41.359635,2.0
2023-08-11 17:33:41.367324,2.0
2023-08-11 17:33:41.375014,2.0
2023-08-11 17:33:41.382703,2.0
2023-08-11 17:33:41.390393,4.0
2023-08-11 17:33:41.398082,4.0
2023-08-11 17:33:41.405771,4.0
2023-08-11 17:33:41.413461,0.0
2023-08-11 17:33:41.421150,-9.0
2023-08-11 17:33:41.428839,-29.0
2023-08-11 17:33:41.436529,-50.0
2023-08-11 17:33:41.444218,-65.0
2023-08-11 17:33:41.451908,-60.0
2023-08-11 17:33:41.459597,-41.0
2023-08-11 17:33:41.467286,-24.0
2023-08-11 17:33:41.474976,-19.0
2023-08-11 17:33:41.482665,-14.0
2023-08-11 17:33:41.490354,-4.0
2023-08-11 17:33:41.498044,-2.0
2023-08-11 17:33:41.505733,-4.0
2023-08-11 17:33:41.513423,-4.0
2023-08-11 17:33:41.521112,-7.0
2023-08-11 17:33:41.528801,-14.0
2023-08-11 17:33:41.536491,-16.0
2023-08-11 17:33:41.544180,-7.0
2023-08-11 17:33:41.551869,14.0
2023-08-11 17:33:41.559559,-9.0
2023-08-11 17:33:41.567248,-261.0
2023-08-11 17:33:41.574938,-792.0
2023-08-11 17:33:41.582627,-1181.0
2023-08-11 17:33:41.590316,-899.0
2023-08-11 17:33:41.598006,-89.0
2023-08-11 17:33:41.605695,449.0
2023-08-11 17:33:41.613384,309.0
2023-08-11 17:33:41.621074,67.0
2023-08-11 17:33:41.628763,79.0
2023-08-11 17:33:41.636453,62.0
2023-08-11 17:33:41.644142,7.0
2023-08-11 17:33:41.651831,19.0
2023-08-11 17:33:41.659521,16.0
2023-08-11 17:33:41.667210,-7.0
2023-08-11 17:33:41.674899,-7.0
2023-08-11 17:33:41.682589,-9.0
2023-08-11 17:33:41.690278,-24.0
2023-08-11 17:33:41.697968,-31.0
2023-08-11 17:33:41.705657,-41.0
2023-08-11 17:33:41.713346,-53.0
2023-08-11 17:33:41.721036,-67.0
2023-08-11 17:33:41.728725,-87.0
2023-08-11 17:33:41.736414,-108.0
2023-08-11 17:33:41.744104,-132.0
2023-08-11 17:33:41.751793,-164.0
2023-08-11 17:33:41.759483,-200.0
2023-08-11 17:33:41.767172,-236.0
2023-08-11 17:33:41.774861,-265.0
2023-08-11 17:33:41.782551,-290.0
2023-08-11 17:33:41.790240,-302.0
2023-08-11 17:33:41.797930,-297.0
2023-08-11 17:33:41.805619,-273.0
2023-08-11 17:33:41.813308,-232.0
2023-08-11 17:33:41.820998,-164.0
2023-08-11 17:33:41.828687,-94.0
2023-08-11 17:33:41.836376,-33.0
2023-08-11 17:33:41.844066,12.0
2023-08-11 17:33:41.851755,48.0
2023-08-11 17:33:41.859445,67.0
2023-08-11 17:33:41.867134,77.0
2023-08-11 17:33:41.874823,82.0
2023-08-11 17:33:41.882513,82.0
2023-08-11 17:33:41.890202,82.0
2023-08-11 17:33:41.897891,79.0
2023-08-11 17:33:41.905581,74.0
2023-08-11 17:33:41.913270,70.0
2023-08-11 17:33:41.920960,67.0
2023-08-11 17:33:41.928649,62.0
2023-08-11 17:33:41.936338,55.0
2023-08-11 17:33:41.944028,55.0
2023-08-11 17:33:41.951717,50.0
2023-08-11 17:33:41.959406,43.0
2023-08-11 17:33:41.967096,38.0
2023-08-11 17:33:41.974785,36.0
2023-08-11 17:33:41.982475,31.0
2023-08-11 17:33:41.990164,29.0
2023-08-11 17:33:41.997853,24.0
2023-08-11 17:33:42.005543,16.0
2023-08-11 17:33:42.013232,12.0
2023-08-11 17:33:42.020921,9.0
2023-08-11 17:33:42.028611,9.0
2023-08-11 17:33:42.036300,9.0
2023-08-11 17:33:42.043990,9.0
2023-08-11 17:33:42.051679,7.0
2023-08-11 17:33:42.059368,2.0
2023-08-11 17:33:42.067058,2.0
2023-08-11 17:33:42.074747,4.0
2023-08-11 17:33:42.082436,2.0
2023-08-11 17:33:42.090126,2.0
2023-08-11 17:33:42.097815,0.0
2023-08-11 17:33:42.105505,-4.0
2023-08-11 17:33:42.113194,-4.0
2023-08-11 17:33:42.120883,-2.0
2023-08-11 17:33:42.128573,-2.0
2023-08-11 17:33:42.136262,-4.0
2023-08-11 17:33:42.143951,-19.0
2023-08-11 17:33:42.151641,-43.0
2023-08-11 17:33:42.159330,-62.0
2023-08-11 17:33:42.167020,-72.0
2023-08-11 17:33:42.174709,-77.0
2023-08-11 17:33:42.182398,-65.0
2023-08-11 17:33:42.190088,-48.0
2023-08-11 17:33:42.197777,-48.0
2023-08-11 17:33:42.205467,-48.0
2023-08-11 17:33:42.213156,-33.0
2023-08-11 17:33:42.220845,-21.0
2023-08-11 17:33:42.228535,-26.0
2023-08-11 17:33:42.236224,-31.0
2023-08-11 17:33:42.243913,-29.0
2023-08-11 17:33:42.251603,-31.0
2023-08-11 17:33:42.259292,-41.0
2023-08-11 17:33:42.266982,-41.0
2023-08-11 17:33:42.274671,-21.0
2023-08-11 17:33:42.282360,-16.0
2023-08-11 17:33:42.290050,-159.0
2023-08-11 17:33:42.297739,-592.0
2023-08-11 17:33:42.305428,-1085.0
2023-08-11 17:33:42.313118,-1065.0
2023-08-11 17:33:42.320807,-393.0
2023-08-11 17:33:42.328497,294.0
2023-08-11 17:33:42.336186,355.0
2023-08-11 17:33:42.343875,82.0
2023-08-11 17:33:42.351565,26.0
2023-08-11 17:33:42.359254,48.0
2023-08-11 17:33:42.366943,-12.0
2023-08-11 17:33:42.374633,-24.0
2023-08-11 17:33:42.382322,-9.0
2023-08-11 17:33:42.390012,-29.0
2023-08-11 17:33:42.397701,-38.0
2023-08-11 17:33:42.405390,-33.0
2023-08-11 17:33:42.413080,-43.0
2023-08-11 17:33:42.420769,-58.0
2023-08-11 17:33:42.428458,-62.0
2023-08-11 17:33:42.436148,-72.0
2023-08-11 17:33:42.443837,-87.0
2023-08-11 17:33:42.451527,-99.0
2023-08-11 17:33:42.459216,-120.0
2023-08-11 17:33:42.466905,-142.0
2023-08-11 17:33:42.474595,-166.0
2023-08-11 17:33:42.482284,-200.0
2023-08-11 17:33:42.489973,-232.0
2023-08-11 17:33:42.497663,-261.0
2023-08-11 17:33:42.505352,-287.0
2023-08-11 17:33:42.513042,-311.0
2023-08-11 17:33:42.520731,-316.0
2023-08-11 17:33:42.528420,-302.0
2023-08-11 17:33:42.536110,-268.0
2023-08-11 17:33:42.543799,-212.0
2023-08-11 17:33:42.551488,-142.0
2023-08-11 17:33:42.559178,-82.0
2023-08-11 17:33:42.566867,-29.0
2023-08-11 17:33:42.574557,12.0
2023-08-11 17:33:42.582246,38.0
2023-08-11 17:33:42.589935,53.0
2023-08-11 17:33:42.597625,58.0
2023-08-11 17:33:42.605314,60.0
2023-08-11 17:33:42.613003,60.0
2023-08-11 17:33:42.620693,58.0
2023-08-11 17:33:42.628382,55.0
2023-08-11 17:33:42.636072,55.0
2023-08-11 17:33:42.643761,50.0
2023-08-11 17:33:42.651450,41.0
2023-08-11 17:33:42.659140,45.0
2023-08-11 17:33:42.666829,43.0
2023-08-11 17:33:42.674519,38.0
2023-08-11 17:33:42.682208,36.0
2023-08-11 17:33:42.689897,33.0
2023-08-11 17:33:42.697587,26.0
2023-08-11 17:33:42.705276,21.0
2023-08-11 17:33:42.712965,21.0
2023-08-11 17:33:42.720655,16.0
2023-08-11 17:33:42.728344,9.0
2023-08-11 17:33:42.736034,4.0
2023-08-11 17:33:42.743723,2.0
2023-08-11 17:33:42.751412,-2.0
2023-08-11 17:33:42.759102,-7.0
2023-08-11 17:33:42.766791,-4.0
2023-08-11 17:33:42.774480,-4.0
2023-08-11 17:33:42.782170,-7.0
2023-08-11 17:33:42.789859,-12.0
2023-08-11 17:33:42.797549,-19.0
2023-08-11 17:33:42.805238,-16.0
2023-08-11 17:33:42.812927,-12.0
2023-08-11 17:33:42.820617,-14.0
2023-08-11 17:33:42.828306,-16.0
2023-08-11 17:33:42.835995,-19.0
2023-08-11 17:33:42.843685,-16.0
2023-08-11 17:33:42.851374,-12.0
2023-08-11 17:33:42.859064,-12.0
2023-08-11 17:33:42.866753,-16.0
2023-08-11 17:33:42.874442,-31.0
2023-08-11 17:33:42.882132,-48.0
2023-08-11 17:33:42.889821,-60.0
2023-08-11 17:33:42.897510,-65.0
2023-08-11 17:33:42.905200,-62.0
2023-08-11 17:33:42.912889,-45.0
2023-08-11 17:33:42.920579,-29.0
2023-08-11 17:33:42.928268,-26.0
2023-08-11 17:33:42.935957,-24.0
2023-08-11 17:33:42.943647,-9.0
2023-08-11 17:33:42.951336,-4.0
2023-08-11 17:33:42.959025,-9.0
2023-08-11 17:33:42.966715,-12.0
2023-08-11 17:33:42.974404,-16.0
2023-08-11 17:33:42.982094,-24.0
2023-08-11 17:33:42.989783,-24.0
2023-08-11 17:33:42.997472,-14.0
2023-08-11 17:33:43.005162,0.0
2023-08-11 17:33:43.012851,-29.0
2023-08-11 17:33:43.020540,-258.0
2023-08-11 17:33:43.028230,-744.0
2023-08-11 17:33:43.035919,-1090.0
2023-08-11 17:33:43.043609,-807.0
2023-08-11 17:33:43.051298,-62.0
2023-08-11 17:33:43.058987,406.0
2023-08-11 17:33:43.066677,273.0
2023-08-11 17:33:43.074366,58.0
2023-08-11 17:33:43.082055,55.0
2023-08-11 17:33:43.089745,31.0
2023-08-11 17:33:43.097434,-24.0
2023-08-11 17:33:43.105124,-19.0
2023-08-11 17:33:43.112813,-19.0
2023-08-11 17:33:43.120502,-33.0
2023-08-11 17:33:43.128192,-36.0
2023-08-11 17:33:43.135881,-38.0
2023-08-11 17:33:43.143571,-48.0
2023-08-11 17:33:43.151260,-58.0
2023-08-11 17:33:43.158949,-65.0
2023-08-11 17:33:43.166639,-77.0
2023-08-11 17:33:43.174328,-89.0
2023-08-11 17:33:43.182017,-108.0
2023-08-11 17:33:43.189707,-132.0
2023-08-11 17:33:43.197396,-154.0
2023-08-11 17:33:43.205086,-176.0
2023-08-11 17:33:43.212775,-207.0
2023-08-11 17:33:43.220464,-241.0
2023-08-11 17:33:43.228154,-268.0
2023-08-11 17:33:43.235843,-280.0
2023-08-11 17:33:43.243532,-292.0
2023-08-11 17:33:43.251222,-299.0
2023-08-11 17:33:43.258911,-287.0
2023-08-11 17:33:43.266601,-251.0
2023-08-11 17:33:43.274290,-195.0
2023-08-11 17:33:43.281979,-125.0
2023-08-11 17:33:43.289669,-65.0
2023-08-11 17:33:43.297358,-19.0
2023-08-11 17:33:43.305047,14.0
2023-08-11 17:33:43.312737,41.0
2023-08-11 17:33:43.320426,62.0
2023-08-11 17:33:43.328116,72.0
2023-08-11 17:33:43.335805,67.0
2023-08-11 17:33:43.343494,67.0
2023-08-11 17:33:43.351184,74.0
2023-08-11 17:33:43.358873,72.0
2023-08-11 17:33:43.366562,58.0
2023-08-11 17:33:43.374252,50.0
2023-08-11 17:33:43.381941,53.0
2023-08-11 17:33:43.389631,53.0
2023-08-11 17:33:43.397320,48.0
2023-08-11 17:33:43.405009,43.0
2023-08-11 17:33:43.412699,38.0
2023-08-11 17:33:43.420388,33.0
2023-08-11 17:33:43.428077,26.0
2023-08-11 17:33:43.435767,21.0
2023-08-11 17:33:43.443456,19.0
2023-08-11 17:33:43.451146,12.0
2023-08-11 17:33:43.458835,12.0
2023-08-11 17:33:43.466524,12.0
2023-08-11 17:33:43.474214,7.0
2023-08-11 17:33:43.481903,7.0
2023-08-11 17:33:43.489592,7.0
2023-08-11 17:33:43.497282,0.0
2023-08-11 17:33:43.504971,-7.0
2023-08-11 17:33:43.512661,-4.0
2023-08-11 17:33:43.520350,-2.0
2023-08-11 17:33:43.528039,-4.0
2023-08-11 17:33:43.535729,-4.0
2023-08-11 17:33:43.543418,-4.0
2023-08-11 17:33:43.551108,-7.0
2023-08-11 17:33:43.558797,-7.0
2023-08-11 17:33:43.566486,-4.0
2023-08-11 17:33:43.574176,-7.0
2023-08-11 17:33:43.581865,-24.0
2023-08-11 17:33:43.589554,-41.0
2023-08-11 17:33:43.597244,-55.0
2023-08-11 17:33:43.604933,-62.0
2023-08-11 17:33:43.612623,-60.0
2023-08-11 17:33:43.620312,-45.0
2023-08-11 17:33:43.628001,-33.0
2023-08-11 17:33:43.635691,-38.0
2023-08-11 17:33:43.643380,-45.0
2023-08-11 17:33:43.651069,-31.0
2023-08-11 17:33:43.658759,-21.0
2023-08-11 17:33:43.666448,-26.0
2023-08-11 17:33:43.674138,-33.0
2023-08-11 17:33:43.681827,-43.0
2023-08-11 17:33:43.689516,-48.0
2023-08-11 17:33:43.697206,-48.0
2023-08-11 17:33:43.704895,-48.0
2023-08-11 17:33:43.712584,-38.0
2023-08-11 17:33:43.720274,-82.0
2023-08-11 17:33:43.727963,-355.0
2023-08-11 17:33:43.735653,-872.0
2023-08-11 17:33:43.743342,-1172.0
2023-08-11 17:33:43.751031,-800.0
2023-08-11 17:33:43.758721,-16.0
2023-08-11 17:33:43.766410,427.0
2023-08-11 17:33:43.774099,256.0
2023-08-11 17:33:43.781789,36.0
2023-08-11 17:33:43.789478,43.0
2023-08-11 17:33:43.797168,2.0
2023-08-11 17:33:43.804857,-58.0
2023-08-11 17:33:43.812546,-31.0
2023-08-11 17:33:43.820236,-31.0
2023-08-11 17:33:43.827925,-65.0
2023-08-11 17:33:43.835614,-67.0
2023-08-11 17:33:43.843304,-65.0
2023-08-11 17:33:43.850993,-77.0
2023-08-11 17:33:43.858683,-84.0
2023-08-11 17:33:43.866372,-87.0
2023-08-11 17:33:43.874061,-96.0
2023-08-11 17:33:43.881751,-106.0
2023-08-11 17:33:43.889440,-125.0
2023-08-11 17:33:43.897129,-154.0
2023-08-11 17:33:43.904819,-183.0
2023-08-11 17:33:43.912508,-210.0
2023-08-11 17:33:43.920198,-241.0
2023-08-11 17:33:43.927887,-273.0
2023-08-11 17:33:43.935576,-302.0
2023-08-11 17:33:43.943266,-309.0
2023-08-11 17:33:43.950955,-306.0
2023-08-11 17:33:43.958644,-311.0
2023-08-11 17:33:43.966334,-294.0
2023-08-11 17:33:43.974023,-241.0
2023-08-11 17:33:43.981713,-174.0
2023-08-11 17:33:43.989402,-106.0
2023-08-11 17:33:43.997091,-45.0
2023-08-11 17:33:44.004781,4.0
2023-08-11 17:33:44.012470,36.0
2023-08-11 17:33:44.020160,55.0
2023-08-11 17:33:44.027849,67.0
2023-08-11 17:33:44.035538,70.0
2023-08-11 17:33:44.043228,58.0
2023-08-11 17:33:44.050917,58.0
2023-08-11 17:33:44.058606,70.0
2023-08-11 17:33:44.066296,70.0
2023-08-11 17:33:44.073985,60.0
2023-08-11 17:33:44.081675,55.0
2023-08-11 17:33:44.089364,58.0
2023-08-11 17:33:44.097053,48.0
2023-08-11 17:33:44.104743,29.0
2023-08-11 17:33:44.112432,26.0
2023-08-11 17:33:44.120121,31.0
2023-08-11 17:33:44.127811,24.0
2023-08-11 17:33:44.135500,14.0
2023-08-11 17:33:44.143190,21.0
2023-08-11 17:33:44.150879,31.0
2023-08-11 17:33:44.158568,16.0
2023-08-11 17:33:44.166258,-4.0
2023-08-11 17:33:44.173947,-2.0
2023-08-11 17:33:44.181636,7.0
2023-08-11 17:33:44.189326,14.0
2023-08-11 17:33:44.197015,14.0
2023-08-11 17:33:44.204705,7.0
2023-08-11 17:33:44.212394,0.0
2023-08-11 17:33:44.220083,0.0
2023-08-11 17:33:44.227773,2.0
2023-08-11 17:33:44.235462,0.0
2023-08-11 17:33:44.243151,-2.0
2023-08-11 17:33:44.250841,2.0
2023-08-11 17:33:44.258530,2.0
2023-08-11 17:33:44.266220,-2.0
2023-08-11 17:33:44.273909,-14.0
2023-08-11 17:33:44.281598,-24.0
2023-08-11 17:33:44.289288,-33.0
2023-08-11 17:33:44.296977,-62.0
2023-08-11 17:33:44.304666,-79.0
2023-08-11 17:33:44.312356,-60.0
2023-08-11 17:33:44.320045,-36.0
2023-08-11 17:33:44.327735,-43.0
2023-08-11 17:33:44.335424,-43.0
2023-08-11 17:33:44.343113,-16.0
2023-08-11 17:33:44.350803,-14.0
2023-08-11 17:33:44.358492,-31.0
2023-08-11 17:33:44.366181,-16.0
2023-08-11 17:33:44.373871,0.0
2023-08-11 17:33:44.381560,-16.0
2023-08-11 17:33:44.389250,-38.0
2023-08-11 17:33:44.396939,-29.0
2023-08-11 17:33:44.404628,-14.0
2023-08-11 17:33:44.412318,-77.0
2023-08-11 17:33:44.420007,-348.0
2023-08-11 17:33:44.427696,-853.0
2023-08-11 17:33:44.435386,-1206.0
2023-08-11 17:33:44.443075,-911.0
2023-08-11 17:33:44.450765,-82.0
2023-08-11 17:33:44.458454,485.0
2023-08-11 17:33:44.466143,331.0
2023-08-11 17:33:44.473833,58.0
2023-08-11 17:33:44.481522,82.0
2023-08-11 17:33:44.489212,65.0
2023-08-11 17:33:44.496901,-24.0
2023-08-11 17:33:44.504590,-12.0
2023-08-11 17:33:44.512280,4.0
2023-08-11 17:33:44.519969,-26.0
2023-08-11 17:33:44.527658,-31.0
2023-08-11 17:33:44.535348,-24.0
2023-08-11 17:33:44.543037,-33.0
2023-08-11 17:33:44.550727,-43.0
2023-08-11 17:33:44.558416,-58.0
2023-08-11 17:33:44.566105,-77.0
2023-08-11 17:33:44.573795,-94.0
2023-08-11 17:33:44.581484,-108.0
2023-08-11 17:33:44.589173,-123.0
2023-08-11 17:33:44.596863,-149.0
2023-08-11 17:33:44.604552,-188.0
2023-08-11 17:33:44.612242,-219.0
2023-08-11 17:33:44.619931,-246.0
2023-08-11 17:33:44.627620,-277.0
2023-08-11 17:33:44.635310,-302.0
2023-08-11 17:33:44.642999,-299.0
2023-08-11 17:33:44.650688,-285.0
2023-08-11 17:33:44.658378,-263.0
2023-08-11 17:33:44.666067,-205.0
2023-08-11 17:33:44.673757,-130.0
2023-08-11 17:33:44.681446,-67.0
2023-08-11 17:33:44.689135,-19.0
2023-08-11 17:33:44.696825,26.0
2023-08-11 17:33:44.704514,62.0
2023-08-11 17:33:44.712203,87.0
2023-08-11 17:33:44.719893,94.0
2023-08-11 17:33:44.727582,96.0
2023-08-11 17:33:44.735272,99.0
2023-08-11 17:33:44.742961,96.0
2023-08-11 17:33:44.750650,84.0
2023-08-11 17:33:44.758340,77.0
2023-08-11 17:33:44.766029,79.0
2023-08-11 17:33:44.773718,82.0
2023-08-11 17:33:44.781408,84.0
2023-08-11 17:33:44.789097,70.0
2023-08-11 17:33:44.796787,55.0
2023-08-11 17:33:44.804476,48.0
2023-08-11 17:33:44.812165,38.0
2023-08-11 17:33:44.819855,33.0
2023-08-11 17:33:44.827544,38.0
2023-08-11 17:33:44.835233,33.0
2023-08-11 17:33:44.842923,19.0
2023-08-11 17:33:44.850612,21.0
2023-08-11 17:33:44.858302,14.0
2023-08-11 17:33:44.865991,-4.0
2023-08-11 17:33:44.873680,-9.0
2023-08-11 17:33:44.881370,2.0
2023-08-11 17:33:44.889059,16.0
2023-08-11 17:33:44.896748,14.0
2023-08-11 17:33:44.904438,0.0
2023-08-11 17:33:44.912127,7.0
2023-08-11 17:33:44.919817,16.0
2023-08-11 17:33:44.927506,16.0
2023-08-11 17:33:44.935195,16.0
2023-08-11 17:33:44.942885,19.0
2023-08-11 17:33:44.950574,12.0
2023-08-11 17:33:44.958264,0.0
2023-08-11 17:33:44.965953,-4.0
2023-08-11 17:33:44.973642,-21.0
2023-08-11 17:33:44.981332,-43.0
2023-08-11 17:33:44.989021,-38.0
2023-08-11 17:33:44.996710,-19.0
2023-08-11 17:33:45.004400,-7.0
2023-08-11 17:33:45.012089,2.0
2023-08-11 17:33:45.019779,9.0
2023-08-11 17:33:45.027468,12.0
2023-08-11 17:33:45.035157,7.0
2023-08-11 17:33:45.042847,4.0
2023-08-11 17:33:45.050536,7.0
2023-08-11 17:33:45.058225,7.0
2023-08-11 17:33:45.065915,0.0
2023-08-11 17:33:45.073604,-4.0
2023-08-11 17:33:45.081294,7.0
2023-08-11 17:33:45.088983,2.0
2023-08-11 17:33:45.096672,-164.0
2023-08-11 17:33:45.104362,-613.0
2023-08-11 17:33:45.112051,-1102.0
2023-08-11 17:33:45.119740,-1094.0
2023-08-11 17:33:45.127430,-418.0
2023-08-11 17:33:45.135119,364.0
2023-08-11 17:33:45.142809,500.0
2023-08-11 17:33:45.150498,166.0
2023-08-11 17:33:45.158187,53.0
2023-08-11 17:33:45.165877,96.0
2023-08-11 17:33:45.173566,36.0
2023-08-11 17:33:45.181255,9.0
2023-08-11 17:33:45.188945,31.0
2023-08-11 17:33:45.196634,14.0
2023-08-11 17:33:45.204324,-4.0
2023-08-11 17:33:45.212013,-7.0
2023-08-11 17:33:45.219702,-14.0
2023-08-11 17:33:45.227392,-31.0
2023-08-11 17:33:45.235081,-45.0
2023-08-11 17:33:45.242770,-53.0
2023-08-11 17:33:45.250460,-65.0
2023-08-11 17:33:45.258149,-84.0
2023-08-11 17:33:45.265839,-108.0
2023-08-11 17:33:45.273528,-128.0
2023-08-11 17:33:45.281217,-149.0
2023-08-11 17:33:45.288907,-186.0
2023-08-11 17:33:45.296596,-229.0
2023-08-11 17:33:45.304285,-263.0
2023-08-11 17:33:45.311975,-282.0
2023-08-11 17:33:45.319664,-297.0
2023-08-11 17:33:45.327354,-292.0
2023-08-11 17:33:45.335043,-273.0
2023-08-11 17:33:45.342732,-236.0
2023-08-11 17:33:45.350422,-183.0
2023-08-11 17:33:45.358111,-111.0
2023-08-11 17:33:45.365801,-41.0
2023-08-11 17:33:45.373490,-2.0
2023-08-11 17:33:45.381179,31.0
2023-08-11 17:33:45.388869,67.0
2023-08-11 17:33:45.396558,77.0
2023-08-11 17:33:45.404247,70.0
2023-08-11 17:33:45.411937,74.0
2023-08-11 17:33:45.419626,79.0
2023-08-11 17:33:45.427316,72.0
2023-08-11 17:33:45.435005,70.0
2023-08-11 17:33:45.442694,67.0
2023-08-11 17:33:45.450384,62.0
2023-08-11 17:33:45.458073,55.0
2023-08-11 17:33:45.465762,43.0
2023-08-11 17:33:45.473452,31.0
2023-08-11 17:33:45.481141,33.0
2023-08-11 17:33:45.488831,29.0
2023-08-11 17:33:45.496520,9.0
2023-08-11 17:33:45.504209,7.0
2023-08-11 17:33:45.511899,12.0
2023-08-11 17:33:45.519588,4.0
2023-08-11 17:33:45.527277,0.0
2023-08-11 17:33:45.534967,4.0
2023-08-11 17:33:45.542656,4.0
2023-08-11 17:33:45.550346,0.0
2023-08-11 17:33:45.558035,-2.0
2023-08-11 17:33:45.565724,0.0
2023-08-11 17:33:45.573414,0.0
2023-08-11 17:33:45.581103,-4.0
2023-08-11 17:33:45.588792,-2.0
2023-08-11 17:33:45.596482,2.0
2023-08-11 17:33:45.604171,4.0
2023-08-11 17:33:45.611861,4.0
2023-08-11 17:33:45.619550,0.0
2023-08-11 17:33:45.627239,-2.0
2023-08-11 17:33:45.634929,0.0
2023-08-11 17:33:45.642618,-2.0
2023-08-11 17:33:45.650307,4.0
2023-08-11 17:33:45.657997,12.0
2023-08-11 17:33:45.665686,-4.0
2023-08-11 17:33:45.673376,-24.0
2023-08-11 17:33:45.681065,-41.0
2023-08-11 17:33:45.688754,-55.0
2023-08-11 17:33:45.696444,-48.0
2023-08-11 17:33:45.704133,-24.0
2023-08-11 17:33:45.711822,-26.0
2023-08-11 17:33:45.719512,-31.0
2023-08-11 17:33:45.727201,-14.0
2023-08-11 17:33:45.734891,0.0
2023-08-11 17:33:45.742580,-2.0
2023-08-11 17:33:45.750269,0.0
2023-08-11 17:33:45.757959,-2.0
2023-08-11 17:33:45.765648,-12.0
2023-08-11 17:33:45.773337,-14.0
2023-08-11 17:33:45.781027,-14.0
2023-08-11 17:33:45.788716,-2.0
2023-08-11 17:33:45.796406,9.0
2023-08-11 17:33:45.804095,-128.0
2023-08-11 17:33:45.811784,-575.0
2023-08-11 17:33:45.819474,-1111.0
2023-08-11 17:33:45.827163,-1164.0
2023-08-11 17:33:45.834853,-502.0
2023-08-11 17:33:45.842542,311.0
2023-08-11 17:33:45.850231,471.0
2023-08-11 17:33:45.857921,147.0
2023-08-11 17:33:45.865610,45.0
2023-08-11 17:33:45.873299,99.0
2023-08-11 17:33:45.880989,33.0
2023-08-11 17:33:45.888678,-4.0
2023-08-11 17:33:45.896368,19.0
2023-08-11 17:33:45.904057,7.0
2023-08-11 17:33:45.911746,-14.0
2023-08-11 17:33:45.919436,-16.0
2023-08-11 17:33:45.927125,-31.0
2023-08-11 17:33:45.934814,-45.0
2023-08-11 17:33:45.942504,-50.0
2023-08-11 17:33:45.950193,-60.0
2023-08-11 17:33:45.957883,-77.0
2023-08-11 17:33:45.965572,-91.0
2023-08-11 17:33:45.973261,-118.0
2023-08-11 17:33:45.980951,-152.0
2023-08-11 17:33:45.988640,-183.0
2023-08-11 17:33:45.996329,-219.0
2023-08-11 17:33:46.004019,-258.0
2023-08-11 17:33:46.011708,-290.0
2023-08-11 17:33:46.019398,-314.0
2023-08-11 17:33:46.027087,-326.0
2023-08-11 17:33:46.034776,-326.0
2023-08-11 17:33:46.042466,-319.0
2023-08-11 17:33:46.050155,-280.0
2023-08-11 17:33:46.057844,-205.0
2023-08-11 17:33:46.065534,-132.0
2023-08-11 17:33:46.073223,-72.0
2023-08-11 17:33:46.080913,-7.0
2023-08-11 17:33:46.088602,38.0
2023-08-11 17:33:46.096291,55.0
2023-08-11 17:33:46.103981,67.0
2023-08-11 17:33:46.111670,79.0
2023-08-11 17:33:46.119359,77.0
2023-08-11 17:33:46.127049,72.0
2023-08-11 17:33:46.134738,70.0
2023-08-11 17:33:46.142428,72.0
2023-08-11 17:33:46.150117,67.0
2023-08-11 17:33:46.157806,62.0
2023-08-11 17:33:46.165496,58.0
2023-08-11 17:33:46.173185,53.0
2023-08-11 17:33:46.180874,50.0
2023-08-11 17:33:46.188564,50.0
2023-08-11 17:33:46.196253,41.0
2023-08-11 17:33:46.203943,31.0
2023-08-11 17:33:46.211632,29.0
2023-08-11 17:33:46.219321,31.0
2023-08-11 17:33:46.227011,24.0
2023-08-11 17:33:46.234700,19.0
2023-08-11 17:33:46.242389,19.0
2023-08-11 17:33:46.250079,14.0
2023-08-11 17:33:46.257768,12.0
2023-08-11 17:33:46.265458,16.0
2023-08-11 17:33:46.273147,16.0
2023-08-11 17:33:46.280836,12.0
2023-08-11 17:33:46.288526,12.0
2023-08-11 17:33:46.296215,12.0
2023-08-11 17:33:46.303905,12.0
2023-08-11 17:33:46.311594,12.0
2023-08-11 17:33:46.319283,9.0
2023-08-11 17:33:46.326973,9.0
2023-08-11 17:33:46.334662,9.0
2023-08-11 17:33:46.342351,7.0
2023-08-11 17:33:46.350041,7.0
2023-08-11 17:33:46.357730,9.0
2023-08-11 17:33:46.365420,9.0
2023-08-11 17:33:46.373109,0.0
2023-08-11 17:33:46.380798,-16.0
2023-08-11 17:33:46.388488,-31.0
2023-08-11 17:33:46.396177,-41.0
2023-08-11 17:33:46.403866,-43.0
2023-08-11 17:33:46.411556,-31.0
2023-08-11 17:33:46.419245,-16.0
2023-08-11 17:33:46.426935,-12.0
2023-08-11 17:33:46.434624,-9.0
2023-08-11 17:33:46.442313,2.0
2023-08-11 17:33:46.450003,7.0
2023-08-11 17:33:46.457692,0.0
2023-08-11 17:33:46.465381,-2.0
2023-08-11 17:33:46.473071,-12.0
2023-08-11 17:33:46.480760,-26.0
2023-08-11 17:33:46.488450,-24.0
2023-08-11 17:33:46.496139,-9.0
2023-08-11 17:33:46.503828,4.0
2023-08-11 17:33:46.511518,-48.0
2023-08-11 17:33:46.519207,-345.0
2023-08-11 17:33:46.526896,-879.0
2023-08-11 17:33:46.534586,-1181.0
2023-08-11 17:33:46.542275,-800.0
2023-08-11 17:33:46.549965,19.0
2023-08-11 17:33:46.557654,502.0
2023-08-11 17:33:46.565343,319.0
2023-08-11 17:33:46.573033,77.0
2023-08-11 17:33:46.580722,91.0
2023-08-11 17:33:46.588411,62.0
2023-08-11 17:33:46.596101,-2.0
2023-08-11 17:33:46.603790,14.0
2023-08-11 17:33:46.611480,14.0
2023-08-11 17:33:46.619169,-19.0
2023-08-11 17:33:46.626858,-24.0
2023-08-11 17:33:46.634548,-24.0
2023-08-11 17:33:46.642237,-38.0
2023-08-11 17:33:46.649926,-48.0
2023-08-11 17:33:46.657616,-58.0
2023-08-11 17:33:46.665305,-77.0
2023-08-11 17:33:46.672995,-94.0
2023-08-11 17:33:46.680684,-108.0
2023-08-11 17:33:46.688373,-130.0
2023-08-11 17:33:46.696063,-159.0
2023-08-11 17:33:46.703752,-195.0
2023-08-11 17:33:46.711442,-234.0
2023-08-11 17:33:46.719131,-270.0
2023-08-11 17:33:46.726820,-294.0
2023-08-11 17:33:46.734510,-304.0
2023-08-11 17:33:46.742199,-306.0
2023-08-11 17:33:46.749888,-302.0
2023-08-11 17:33:46.757578,-280.0
2023-08-11 17:33:46.765267,-234.0
2023-08-11 17:33:46.772957,-169.0
2023-08-11 17:33:46.780646,-96.0
2023-08-11 17:33:46.788335,-33.0
2023-08-11 17:33:46.796025,16.0
2023-08-11 17:33:46.803714,53.0
2023-08-11 17:33:46.811403,72.0
2023-08-11 17:33:46.819093,82.0
2023-08-11 17:33:46.826782,87.0
2023-08-11 17:33:46.834472,89.0
2023-08-11 17:33:46.842161,87.0
2023-08-11 17:33:46.849850,84.0
2023-08-11 17:33:46.857540,79.0
2023-08-11 17:33:46.865229,74.0
2023-08-11 17:33:46.872918,67.0
2023-08-11 17:33:46.880608,62.0
2023-08-11 17:33:46.888297,60.0
2023-08-11 17:33:46.895987,55.0
2023-08-11 17:33:46.903676,50.0
2023-08-11 17:33:46.911365,48.0
2023-08-11 17:33:46.919055,43.0
2023-08-11 17:33:46.926744,38.0
2023-08-11 17:33:46.934433,36.0
2023-08-11 17:33:46.942123,29.0
2023-08-11 17:33:46.949812,19.0
2023-08-11 17:33:46.957502,21.0
2023-08-11 17:33:46.965191,21.0
2023-08-11 17:33:46.972880,14.0
2023-08-11 17:33:46.980570,14.0
2023-08-11 17:33:46.988259,12.0
2023-08-11 17:33:46.995948,9.0
2023-08-11 17:33:47.003638,7.0
2023-08-11 17:33:47.011327,7.0
2023-08-11 17:33:47.019017,2.0
2023-08-11 17:33:47.026706,0.0
2023-08-11 17:33:47.034395,0.0
2023-08-11 17:33:47.042085,0.0
2023-08-11 17:33:47.049774,0.0
2023-08-11 17:33:47.057463,-7.0
2023-08-11 17:33:47.065153,-21.0
2023-08-11 17:33:47.072842,-33.0
2023-08-11 17:33:47.080532,-43.0
2023-08-11 17:33:47.088221,-60.0
2023-08-11 17:33:47.095910,-62.0
2023-08-11 17:33:47.103600,-43.0
2023-08-11 17:33:47.111289,-29.0
2023-08-11 17:33:47.118978,-26.0
2023-08-11 17:33:47.126668,-19.0
2023-08-11 17:33:47.134357,-7.0
2023-08-11 17:33:47.142047,-2.0
2023-08-11 17:33:47.149736,-4.0
2023-08-11 17:33:47.157425,-7.0
2023-08-11 17:33:47.165115,-9.0
2023-08-11 17:33:47.172804,-12.0
2023-08-11 17:33:47.180494,-16.0
2023-08-11 17:33:47.188183,-16.0
2023-08-11 17:33:47.195872,-7.0
2023-08-11 17:33:47.203562,-43.0
2023-08-11 17:33:47.211251,-290.0
2023-08-11 17:33:47.218940,-787.0
2023-08-11 17:33:47.226630,-1111.0
2023-08-11 17:33:47.234319,-790.0
2023-08-11 17:33:47.242009,-24.0
2023-08-11 17:33:47.249698,476.0
2023-08-11 17:33:47.257387,367.0
2023-08-11 17:33:47.265077,123.0
2023-08-11 17:33:47.272766,91.0
2023-08-11 17:33:47.280455,60.0
2023-08-11 17:33:47.288145,-7.0
2023-08-11 17:33:47.295834,7.0
2023-08-11 17:33:47.303524,14.0
2023-08-11 17:33:47.311213,-16.0
2023-08-11 17:33:47.318902,-29.0
2023-08-11 17:33:47.326592,-26.0
2023-08-11 17:33:47.334281,-41.0
2023-08-11 17:33:47.341970,-53.0
2023-08-11 17:33:47.349660,-60.0
2023-08-11 17:33:47.357349,-72.0
2023-08-11 17:33:47.365039,-89.0
2023-08-11 17:33:47.372728,-106.0
2023-08-11 17:33:47.380417,-130.0
2023-08-11 17:33:47.388107,-157.0
2023-08-11 17:33:47.395796,-186.0
2023-08-11 17:33:47.403485,-222.0
2023-08-11 17:33:47.411175,-253.0
2023-08-11 17:33:47.418864,-277.0
2023-08-11 17:33:47.426554,-294.0
2023-08-11 17:33:47.434243,-304.0
2023-08-11 17:33:47.441932,-297.0
2023-08-11 17:33:47.449622,-275.0
2023-08-11 17:33:47.457311,-232.0
2023-08-11 17:33:47.465000,-169.0
2023-08-11 17:33:47.472690,-99.0
2023-08-11 17:33:47.480379,-36.0
2023-08-11 17:33:47.488069,9.0
2023-08-11 17:33:47.495758,43.0
2023-08-11 17:33:47.503447,62.0
2023-08-11 17:33:47.511137,72.0
2023-08-11 17:33:47.518826,72.0
2023-08-11 17:33:47.526515,70.0
2023-08-11 17:33:47.534205,70.0
2023-08-11 17:33:47.541894,70.0
2023-08-11 17:33:47.549584,65.0
2023-08-11 17:33:47.557273,60.0
2023-08-11 17:33:47.564962,55.0
2023-08-11 17:33:47.572652,53.0
2023-08-11 17:33:47.580341,50.0
2023-08-11 17:33:47.588030,43.0
2023-08-11 17:33:47.595720,31.0
2023-08-11 17:33:47.603409,21.0
2023-08-11 17:33:47.611099,19.0
2023-08-11 17:33:47.618788,16.0
2023-08-11 17:33:47.626477,12.0
2023-08-11 17:33:47.634167,7.0
2023-08-11 17:33:47.641856,4.0
2023-08-11 17:33:47.649546,2.0
2023-08-11 17:33:47.657235,2.0
2023-08-11 17:33:47.664924,0.0
2023-08-11 17:33:47.672614,-2.0
2023-08-11 17:33:47.680303,-4.0
2023-08-11 17:33:47.687992,-9.0
2023-08-11 17:33:47.695682,-7.0
2023-08-11 17:33:47.703371,-7.0
2023-08-11 17:33:47.711061,-4.0
2023-08-11 17:33:47.718750,-7.0
2023-08-11 17:33:47.726439,-7.0
2023-08-11 17:33:47.734129,-9.0
2023-08-11 17:33:47.741818,-7.0
2023-08-11 17:33:47.749507,-12.0
2023-08-11 17:33:47.757197,-26.0
2023-08-11 17:33:47.764886,-38.0
2023-08-11 17:33:47.772576,-50.0
2023-08-11 17:33:47.780265,-55.0
2023-08-11 17:33:47.787954,-41.0
2023-08-11 17:33:47.795644,-21.0
2023-08-11 17:33:47.803333,-14.0
2023-08-11 17:33:47.811022,-12.0
2023-08-11 17:33:47.818712,0.0
2023-08-11 17:33:47.826401,7.0
2023-08-11 17:33:47.834091,4.0
2023-08-11 17:33:47.841780,0.0
2023-08-11 17:33:47.849469,-2.0
2023-08-11 17:33:47.857159,-4.0
2023-08-11 17:33:47.864848,-9.0
2023-08-11 17:33:47.872537,-9.0
2023-08-11 17:33:47.880227,7.0
2023-08-11 17:33:47.887916,7.0
2023-08-11 17:33:47.895606,-145.0
2023-08-11 17:33:47.903295,-572.0
2023-08-11 17:33:47.910984,-1036.0
2023-08-11 17:33:47.918674,-971.0
2023-08-11 17:33:47.926363,-294.0
2023-08-11 17:33:47.934052,357.0
2023-08-11 17:33:47.941742,425.0
2023-08-11 17:33:47.949431,166.0
2023-08-11 17:33:47.957121,87.0
2023-08-11 17:33:47.964810,82.0
2023-08-11 17:33:47.972499,12.0
2023-08-11 17:33:47.980189,4.0
2023-08-11 17:33:47.987878,26.0
2023-08-11 17:33:47.995567,0.0
2023-08-11 17:33:48.003257,-19.0
2023-08-11 17:33:48.010946,-19.0
2023-08-11 17:33:48.018636,-29.0
2023-08-11 17:33:48.026325,-48.0
2023-08-11 17:33:48.034014,-60.0
2023-08-11 17:33:48.041704,-72.0
2023-08-11 17:33:48.049393,-89.0
2023-08-11 17:33:48.057083,-103.0
2023-08-11 17:33:48.064772,-123.0
2023-08-11 17:33:48.072461,-145.0
2023-08-11 17:33:48.080151,-174.0
2023-08-11 17:33:48.087840,-210.0
2023-08-11 17:33:48.095529,-246.0
2023-08-11 17:33:48.103219,-270.0
2023-08-11 17:33:48.110908,-287.0
2023-08-11 17:33:48.118598,-294.0
2023-08-11 17:33:48.126287,-290.0
2023-08-11 17:33:48.133976,-275.0
2023-08-11 17:33:48.141666,-241.0
2023-08-11 17:33:48.149355,-183.0
2023-08-11 17:33:48.157044,-113.0
2023-08-11 17:33:48.164734,-50.0
2023-08-11 17:33:48.172423,-2.0
2023-08-11 17:33:48.180113,26.0
2023-08-11 17:33:48.187802,41.0
2023-08-11 17:33:48.195491,53.0
2023-08-11 17:33:48.203181,65.0
2023-08-11 17:33:48.210870,65.0
2023-08-11 17:33:48.218559,62.0
2023-08-11 17:33:48.226249,58.0
2023-08-11 17:33:48.233938,45.0
2023-08-11 17:33:48.241628,45.0
2023-08-11 17:33:48.249317,48.0
2023-08-11 17:33:48.257006,41.0
2023-08-11 17:33:48.264696,36.0
2023-08-11 17:33:48.272385,33.0
2023-08-11 17:33:48.280074,26.0
2023-08-11 17:33:48.287764,21.0
2023-08-11 17:33:48.295453,21.0
2023-08-11 17:33:48.303143,19.0
2023-08-11 17:33:48.310832,14.0
2023-08-11 17:33:48.318521,7.0
2023-08-11 17:33:48.326211,0.0
2023-08-11 17:33:48.333900,0.0
2023-08-11 17:33:48.341589,0.0
2023-08-11 17:33:48.349279,-2.0
2023-08-11 17:33:48.356968,-2.0
2023-08-11 17:33:48.364658,-2.0
2023-08-11 17:33:48.372347,-2.0
2023-08-11 17:33:48.380036,-2.0
2023-08-11 17:33:48.387726,0.0
2023-08-11 17:33:48.395415,0.0
2023-08-11 17:33:48.403104,-2.0
2023-08-11 17:33:48.410794,-2.0
2023-08-11 17:33:48.418483,-4.0
2023-08-11 17:33:48.426173,-4.0
2023-08-11 17:33:48.433862,-9.0
2023-08-11 17:33:48.441551,-21.0
2023-08-11 17:33:48.449241,-38.0
2023-08-11 17:33:48.456930,-53.0
2023-08-11 17:33:48.464619,-60.0
2023-08-11 17:33:48.472309,-55.0
2023-08-11 17:33:48.479998,-36.0
2023-08-11 17:33:48.487688,-21.0
2023-08-11 17:33:48.495377,-19.0
2023-08-11 17:33:48.503066,-14.0
2023-08-11 17:33:48.510756,-2.0
2023-08-11 17:33:48.518445,0.0
2023-08-11 17:33:48.526135,-12.0
2023-08-11 17:33:48.533824,-21.0
2023-08-11 17:33:48.541513,-19.0
2023-08-11 17:33:48.549203,-16.0
2023-08-11 17:33:48.556892,-19.0
2023-08-11 17:33:48.564581,-9.0
2023-08-11 17:33:48.572271,9.0
2023-08-11 17:33:48.579960,-45.0
2023-08-11 17:33:48.587650,-350.0
2023-08-11 17:33:48.595339,-884.0
2023-08-11 17:33:48.603028,-1152.0
2023-08-11 17:33:48.610718,-725.0
2023-08-11 17:33:48.618407,67.0
2023-08-11 17:33:48.626096,459.0
2023-08-11 17:33:48.633786,261.0
2023-08-11 17:33:48.641475,72.0
2023-08-11 17:33:48.649165,91.0
2023-08-11 17:33:48.656854,43.0
2023-08-11 17:33:48.664543,-9.0
2023-08-11 17:33:48.672233,12.0
2023-08-11 17:33:48.679922,4.0
2023-08-11 17:33:48.687611,-24.0
2023-08-11 17:33:48.695301,-24.0
2023-08-11 17:33:48.702990,-29.0
2023-08-11 17:33:48.710680,-45.0
2023-08-11 17:33:48.718369,-58.0
2023-08-11 17:33:48.726058,-74.0
2023-08-11 17:33:48.733748,-94.0
2023-08-11 17:33:48.741437,-108.0
2023-08-11 17:33:48.749126,-120.0
2023-08-11 17:33:48.756816,-145.0
2023-08-11 17:33:48.764505,-174.0
2023-08-11 17:33:48.772195,-205.0
2023-08-11 17:33:48.779884,-239.0
2023-08-11 17:33:48.787573,-275.0
2023-08-11 17:33:48.795263,-304.0
2023-08-11 17:33:48.802952,-316.0
2023-08-11 17:33:48.810641,-314.0
2023-08-11 17:33:48.818331,-306.0
2023-08-11 17:33:48.826020,-282.0
2023-08-11 17:33:48.833710,-232.0
2023-08-11 17:33:48.841399,-161.0
2023-08-11 17:33:48.849088,-96.0
2023-08-11 17:33:48.856778,-41.0
2023-08-11 17:33:48.864467,7.0
2023-08-11 17:33:48.872156,41.0
2023-08-11 17:33:48.879846,58.0
2023-08-11 17:33:48.887535,70.0
2023-08-11 17:33:48.895225,74.0
2023-08-11 17:33:48.902914,70.0
2023-08-11 17:33:48.910603,65.0
2023-08-11 17:33:48.918293,62.0
2023-08-11 17:33:48.925982,60.0
2023-08-11 17:33:48.933671,58.0
2023-08-11 17:33:48.941361,50.0
2023-08-11 17:33:48.949050,43.0
2023-08-11 17:33:48.956740,41.0
2023-08-11 17:33:48.964429,41.0
2023-08-11 17:33:48.972118,33.0
2023-08-11 17:33:48.979808,24.0
2023-08-11 17:33:48.987497,21.0
2023-08-11 17:33:48.995187,16.0
2023-08-11 17:33:49.002876,14.0
2023-08-11 17:33:49.010565,14.0
2023-08-11 17:33:49.018255,9.0
2023-08-11 17:33:49.025944,4.0
2023-08-11 17:33:49.033633,-2.0
2023-08-11 17:33:49.041323,-9.0
2023-08-11 17:33:49.049012,-9.0
2023-08-11 17:33:49.056702,-4.0
2023-08-11 17:33:49.064391,-4.0
2023-08-11 17:33:49.072080,-7.0
2023-08-11 17:33:49.079770,-9.0
2023-08-11 17:33:49.087459,-9.0
2023-08-11 17:33:49.095148,-12.0
2023-08-11 17:33:49.102838,-14.0
2023-08-11 17:33:49.110527,-21.0
2023-08-11 17:33:49.118217,-38.0
2023-08-11 17:33:49.125906,-55.0
2023-08-11 17:33:49.133595,-65.0
2023-08-11 17:33:49.141285,-77.0
2023-08-11 17:33:49.148974,-84.0
2023-08-11 17:33:49.156663,-67.0
2023-08-11 17:33:49.164353,-50.0
2023-08-11 17:33:49.172042,-48.0
2023-08-11 17:33:49.179732,-43.0
2023-08-11 17:33:49.187421,-21.0
2023-08-11 17:33:49.195110,-19.0
2023-08-11 17:33:49.202800,-31.0
2023-08-11 17:33:49.210489,-33.0
2023-08-11 17:33:49.218178,-31.0
2023-08-11 17:33:49.225868,-33.0
2023-08-11 17:33:49.233557,-36.0
2023-08-11 17:33:49.241247,-29.0
2023-08-11 17:33:49.248936,-12.0
2023-08-11 17:33:49.256625,-45.0
2023-08-11 17:33:49.264315,-297.0
2023-08-11 17:33:49.272004,-824.0
2023-08-11 17:33:49.279693,-1218.0
2023-08-11 17:33:49.287383,-949.0
2023-08-11 17:33:49.295072,-147.0
2023-08-11 17:33:49.302762,422.0
2023-08-11 17:33:49.310451,309.0
2023-08-11 17:33:49.318140,53.0
2023-08-11 17:33:49.325830,58.0
2023-08-11 17:33:49.333519,50.0
2023-08-11 17:33:49.341208,-14.0
2023-08-11 17:33:49.348898,-9.0
2023-08-11 17:33:49.356587,-9.0
2023-08-11 17:33:49.364277,-43.0
2023-08-11 17:33:49.371966,-48.0
2023-08-11 17:33:49.379655,-43.0
2023-08-11 17:33:49.387345,-55.0
2023-08-11 17:33:49.395034,-67.0
2023-08-11 17:33:49.402723,-77.0
2023-08-11 17:33:49.410413,-94.0
2023-08-11 17:33:49.418102,-113.0
2023-08-11 17:33:49.425792,-128.0
2023-08-11 17:33:49.433481,-154.0
2023-08-11 17:33:49.441170,-186.0
2023-08-11 17:33:49.448860,-219.0
2023-08-11 17:33:49.456549,-251.0
2023-08-11 17:33:49.464239,-282.0
2023-08-11 17:33:49.471928,-309.0
2023-08-11 17:33:49.479617,-326.0
2023-08-11 17:33:49.487307,-333.0
2023-08-11 17:33:49.494996,-328.0
2023-08-11 17:33:49.502685,-302.0
2023-08-11 17:33:49.510375,-251.0
2023-08-11 17:33:49.518064,-183.0
2023-08-11 17:33:49.525754,-111.0
2023-08-11 17:33:49.533443,-48.0
2023-08-11 17:33:49.541132,-4.0
2023-08-11 17:33:49.548822,21.0
2023-08-11 17:33:49.556511,43.0
2023-08-11 17:33:49.564200,58.0
2023-08-11 17:33:49.571890,58.0
2023-08-11 17:33:49.579579,58.0
2023-08-11 17:33:49.587269,60.0
2023-08-11 17:33:49.594958,58.0
2023-08-11 17:33:49.602647,53.0
2023-08-11 17:33:49.610337,50.0
2023-08-11 17:33:49.618026,50.0
2023-08-11 17:33:49.625715,45.0
2023-08-11 17:33:49.633405,41.0
2023-08-11 17:33:49.641094,38.0
2023-08-11 17:33:49.648784,33.0
2023-08-11 17:33:49.656473,24.0
2023-08-11 17:33:49.664162,16.0
2023-08-11 17:33:49.671852,12.0
2023-08-11 17:33:49.679541,12.0
2023-08-11 17:33:49.687230,9.0
2023-08-11 17:33:49.694920,7.0
2023-08-11 17:33:49.702609,2.0
2023-08-11 17:33:49.710299,0.0
2023-08-11 17:33:49.717988,0.0
2023-08-11 17:33:49.725677,2.0
2023-08-11 17:33:49.733367,2.0
2023-08-11 17:33:49.741056,2.0
2023-08-11 17:33:49.748745,2.0
2023-08-11 17:33:49.756435,0.0
2023-08-11 17:33:49.764124,0.0
2023-08-11 17:33:49.771814,2.0
2023-08-11 17:33:49.779503,4.0
2023-08-11 17:33:49.787192,4.0
2023-08-11 17:33:49.794882,-9.0
2023-08-11 17:33:49.802571,-31.0
2023-08-11 17:33:49.810260,-48.0
2023-08-11 17:33:49.817950,-60.0
2023-08-11 17:33:49.825639,-60.0
2023-08-11 17:33:49.833329,-41.0
2023-08-11 17:33:49.841018,-24.0
2023-08-11 17:33:49.848707,-26.0
2023-08-11 17:33:49.856397,-24.0
2023-08-11 17:33:49.864086,-9.0
2023-08-11 17:33:49.871776,-2.0
2023-08-11 17:33:49.879465,-7.0
2023-08-11 17:33:49.887154,-7.0
2023-08-11 17:33:49.894844,-12.0
2023-08-11 17:33:49.902533,-19.0
2023-08-11 17:33:49.910222,-19.0
2023-08-11 17:33:49.917912,-9.0
2023-08-11 17:33:49.925601,14.0
2023-08-11 17:33:49.933291,-4.0
2023-08-11 17:33:49.940980,-236.0
2023-08-11 17:33:49.948669,-763.0
2023-08-11 17:33:49.956359,-1203.0
2023-08-11 17:33:49.964048,-998.0
2023-08-11 17:33:49.971737,-188.0
2023-08-11 17:33:49.979427,435.0
2023-08-11 17:33:49.987116,345.0
2023-08-11 17:33:49.994806,82.0
2023-08-11 17:33:50.002495,91.0
2023-08-11 17:33:50.010184,89.0
2023-08-11 17:33:50.017874,24.0
2023-08-11 17:33:50.025563,36.0
2023-08-11 17:33:50.033252,43.0
2023-08-11 17:33:50.040942,9.0
2023-08-11 17:33:50.048631,-2.0
2023-08-11 17:33:50.056321,0.0
2023-08-11 17:33:50.064010,-9.0
2023-08-11 17:33:50.071699,-26.0
2023-08-11 17:33:50.079389,-36.0
2023-08-11 17:33:50.087078,-48.0
2023-08-11 17:33:50.094767,-62.0
2023-08-11 17:33:50.102457,-82.0
2023-08-11 17:33:50.110146,-108.0
2023-08-11 17:33:50.117836,-142.0
2023-08-11 17:33:50.125525,-181.0
2023-08-11 17:33:50.133214,-219.0
2023-08-11 17:33:50.140904,-256.0
2023-08-11 17:33:50.148593,-287.0
2023-08-11 17:33:50.156282,-304.0
2023-08-11 17:33:50.163972,-314.0
2023-08-11 17:33:50.171661,-311.0
2023-08-11 17:33:50.179351,-287.0
2023-08-11 17:33:50.187040,-234.0
2023-08-11 17:33:50.194729,-161.0
2023-08-11 17:33:50.202419,-91.0
2023-08-11 17:33:50.210108,-31.0
2023-08-11 17:33:50.217797,16.0
2023-08-11 17:33:50.225487,48.0
2023-08-11 17:33:50.233176,67.0
2023-08-11 17:33:50.240866,77.0
2023-08-11 17:33:50.248555,79.0
2023-08-11 17:33:50.256244,77.0
2023-08-11 17:33:50.263934,74.0
2023-08-11 17:33:50.271623,74.0
2023-08-11 17:33:50.279312,72.0
2023-08-11 17:33:50.287002,67.0
2023-08-11 17:33:50.294691,65.0
2023-08-11 17:33:50.302381,60.0
2023-08-11 17:33:50.310070,55.0
2023-08-11 17:33:50.317759,53.0
2023-08-11 17:33:50.325449,50.0
2023-08-11 17:33:50.333138,43.0
2023-08-11 17:33:50.340828,38.0
2023-08-11 17:33:50.348517,33.0
2023-08-11 17:33:50.356206,29.0
2023-08-11 17:33:50.363896,24.0
2023-08-11 17:33:50.371585,24.0
2023-08-11 17:33:50.379274,19.0
2023-08-11 17:33:50.386964,14.0
2023-08-11 17:33:50.394653,9.0
2023-08-11 17:33:50.402343,7.0
2023-08-11 17:33:50.410032,7.0
2023-08-11 17:33:50.417721,7.0
2023-08-11 17:33:50.425411,4.0
2023-08-11 17:33:50.433100,-4.0
2023-08-11 17:33:50.440789,-9.0
2023-08-11 17:33:50.448479,-7.0
2023-08-11 17:33:50.456168,-2.0
2023-08-11 17:33:50.463858,-2.0
2023-08-11 17:33:50.471547,-4.0
2023-08-11 17:33:50.479236,-19.0
2023-08-11 17:33:50.486926,-38.0
2023-08-11 17:33:50.494615,-50.0
2023-08-11 17:33:50.502304,-58.0
2023-08-11 17:33:50.509994,-55.0
2023-08-11 17:33:50.517683,-36.0
2023-08-11 17:33:50.525373,-21.0
2023-08-11 17:33:50.533062,-16.0
2023-08-11 17:33:50.540751,-14.0
2023-08-11 17:33:50.548441,-7.0
2023-08-11 17:33:50.556130,-4.0
2023-08-11 17:33:50.563819,-9.0
2023-08-11 17:33:50.571509,-9.0
2023-08-11 17:33:50.579198,-12.0
2023-08-11 17:33:50.586888,-12.0
2023-08-11 17:33:50.594577,-16.0
2023-08-11 17:33:50.602266,-12.0
2023-08-11 17:33:50.609956,14.0
2023-08-11 17:33:50.617645,9.0
2023-08-11 17:33:50.625334,-186.0
2023-08-11 17:33:50.633024,-693.0
2023-08-11 17:33:50.640713,-1164.0
2023-08-11 17:33:50.648403,-1017.0
2023-08-11 17:33:50.656092,-239.0
2023-08-11 17:33:50.663781,406.0
2023-08-11 17:33:50.671471,355.0
2023-08-11 17:33:50.679160,89.0
2023-08-11 17:33:50.686849,79.0
2023-08-11 17:33:50.694539,87.0
2023-08-11 17:33:50.702228,24.0
2023-08-11 17:33:50.709918,26.0
2023-08-11 17:33:50.717607,36.0
2023-08-11 17:33:50.725296,9.0
2023-08-11 17:33:50.732986,2.0
2023-08-11 17:33:50.740675,4.0
2023-08-11 17:33:50.748364,-7.0
2023-08-11 17:33:50.756054,-19.0
2023-08-11 17:33:50.763743,-29.0
2023-08-11 17:33:50.771433,-43.0
2023-08-11 17:33:50.779122,-58.0
2023-08-11 17:33:50.786811,-74.0
2023-08-11 17:33:50.794501,-101.0
2023-08-11 17:33:50.802190,-132.0
2023-08-11 17:33:50.809880,-164.0
2023-08-11 17:33:50.817569,-205.0
2023-08-11 17:33:50.825258,-244.0
2023-08-11 17:33:50.832948,-273.0
2023-08-11 17:33:50.840637,-292.0
2023-08-11 17:33:50.848326,-302.0
2023-08-11 17:33:50.856016,-299.0
2023-08-11 17:33:50.863705,-280.0
2023-08-11 17:33:50.871395,-232.0
2023-08-11 17:33:50.879084,-164.0
2023-08-11 17:33:50.886773,-96.0
2023-08-11 17:33:50.894463,-31.0
2023-08-11 17:33:50.902152,16.0
2023-08-11 17:33:50.909841,48.0
2023-08-11 17:33:50.917531,67.0
2023-08-11 17:33:50.925220,77.0
2023-08-11 17:33:50.932910,79.0
2023-08-11 17:33:50.940599,79.0
2023-08-11 17:33:50.948288,79.0
2023-08-11 17:33:50.955978,74.0
2023-08-11 17:33:50.963667,70.0
2023-08-11 17:33:50.971356,60.0
2023-08-11 17:33:50.979046,48.0
2023-08-11 17:33:50.986735,48.0
2023-08-11 17:33:50.994425,45.0
2023-08-11 17:33:51.002114,38.0
2023-08-11 17:33:51.009803,33.0
2023-08-11 17:33:51.017493,26.0
2023-08-11 17:33:51.025182,14.0
2023-08-11 17:33:51.032871,12.0
2023-08-11 17:33:51.040561,12.0
2023-08-11 17:33:51.048250,2.0
2023-08-11 17:33:51.055940,-7.0
2023-08-11 17:33:51.063629,-9.0
2023-08-11 17:33:51.071318,-9.0
2023-08-11 17:33:51.079008,-12.0
2023-08-11 17:33:51.086697,-14.0
2023-08-11 17:33:51.094386,-14.0
2023-08-11 17:33:51.102076,-14.0
2023-08-11 17:33:51.109765,-14.0
2023-08-11 17:33:51.117455,-14.0
2023-08-11 17:33:51.125144,-16.0
2023-08-11 17:33:51.132833,-21.0
2023-08-11 17:33:51.140523,-21.0
2023-08-11 17:33:51.148212,-19.0
2023-08-11 17:33:51.155901,-19.0
2023-08-11 17:33:51.163591,-19.0
2023-08-11 17:33:51.171280,-16.0
2023-08-11 17:33:51.178970,-16.0
2023-08-11 17:33:51.186659,-21.0
2023-08-11 17:33:51.194348,-38.0
2023-08-11 17:33:51.202038,-53.0
2023-08-11 17:33:51.209727,-62.0
2023-08-11 17:33:51.217417,-70.0
2023-08-11 17:33:51.225106,-62.0
2023-08-11 17:33:51.232795,-41.0
2023-08-11 17:33:51.240485,-31.0
2023-08-11 17:33:51.248174,-31.0
2023-08-11 17:33:51.255863,-21.0
2023-08-11 17:33:51.263553,-7.0
2023-08-11 17:33:51.271242,-4.0
2023-08-11 17:33:51.278932,-9.0
2023-08-11 17:33:51.286621,-12.0
2023-08-11 17:33:51.294310,-12.0
2023-08-11 17:33:51.302000,-14.0
2023-08-11 17:33:51.309689,-16.0
2023-08-11 17:33:51.317378,-7.0
2023-08-11 17:33:51.325068,19.0
2023-08-11 17:33:51.332757,-7.0
2023-08-11 17:33:51.340447,-268.0
2023-08-11 17:33:51.348136,-804.0
2023-08-11 17:33:51.355825,-1164.0
2023-08-11 17:33:51.363515,-841.0
2023-08-11 17:33:51.371204,-31.0
2023-08-11 17:33:51.378893,447.0
2023-08-11 17:33:51.386583,273.0
2023-08-11 17:33:51.394272,58.0
2023-08-11 17:33:51.401962,87.0
2023-08-11 17:33:51.409651,67.0
2023-08-11 17:33:51.417340,12.0
2023-08-11 17:33:51.425030,29.0
2023-08-11 17:33:51.432719,31.0
2023-08-11 17:33:51.440408,4.0
2023-08-11 17:33:51.448098,0.0
2023-08-11 17:33:51.455787,-2.0
2023-08-11 17:33:51.463477,-19.0
2023-08-11 17:33:51.471166,-29.0
2023-08-11 17:33:51.478855,-36.0
2023-08-11 17:33:51.486545,-53.0
2023-08-11 17:33:51.494234,-70.0
2023-08-11 17:33:51.501923,-89.0
2023-08-11 17:33:51.509613,-116.0
2023-08-11 17:33:51.517302,-147.0
2023-08-11 17:33:51.524992,-181.0
2023-08-11 17:33:51.532681,-212.0
2023-08-11 17:33:51.540370,-246.0
2023-08-11 17:33:51.548060,-273.0
2023-08-11 17:33:51.555749,-294.0
2023-08-11 17:33:51.563438,-306.0
2023-08-11 17:33:51.571128,-304.0
2023-08-11 17:33:51.578817,-275.0
2023-08-11 17:33:51.586507,-224.0
2023-08-11 17:33:51.594196,-157.0
2023-08-11 17:33:51.601885,-96.0
2023-08-11 17:33:51.609575,-41.0
2023-08-11 17:33:51.617264,4.0
2023-08-11 17:33:51.624953,36.0
2023-08-11 17:33:51.632643,53.0
2023-08-11 17:33:51.640332,60.0
2023-08-11 17:33:51.648022,62.0
2023-08-11 17:33:51.655711,62.0
2023-08-11 17:33:51.663400,62.0
2023-08-11 17:33:51.671090,62.0
2023-08-11 17:33:51.678779,60.0
2023-08-11 17:33:51.686469,55.0
2023-08-11 17:33:51.694158,50.0
2023-08-11 17:33:51.701847,45.0
2023-08-11 17:33:51.709537,45.0
2023-08-11 17:33:51.717226,43.0
2023-08-11 17:33:51.724915,36.0
2023-08-11 17:33:51.732605,33.0
2023-08-11 17:33:51.740294,31.0
2023-08-11 17:33:51.747984,24.0
2023-08-11 17:33:51.755673,21.0
2023-08-11 17:33:51.763362,21.0
2023-08-11 17:33:51.771052,16.0
2023-08-11 17:33:51.778741,14.0
2023-08-11 17:33:51.786430,9.0
2023-08-11 17:33:51.794120,7.0
2023-08-11 17:33:51.801809,7.0
2023-08-11 17:33:51.809499,7.0
2023-08-11 17:33:51.817188,7.0
2023-08-11 17:33:51.824877,2.0
2023-08-11 17:33:51.832567,0.0
2023-08-11 17:33:51.840256,2.0
2023-08-11 17:33:51.847945,2.0
2023-08-11 17:33:51.855635,2.0
2023-08-11 17:33:51.863324,-2.0
2023-08-11 17:33:51.871014,-4.0
2023-08-11 17:33:51.878703,-9.0
2023-08-11 17:33:51.886392,-7.0
2023-08-11 17:33:51.894082,-7.0
2023-08-11 17:33:51.901771,-7.0
2023-08-11 17:33:51.909460,-9.0
2023-08-11 17:33:51.917150,-12.0
2023-08-11 17:33:51.924839,-14.0
2023-08-11 17:33:51.932529,-14.0
2023-08-11 17:33:51.940218,-12.0
2023-08-11 17:33:51.947907,-14.0
2023-08-11 17:33:51.955597,-12.0
2023-08-11 17:33:51.963286,-9.0
2023-08-11 17:33:51.970975,-9.0
2023-08-11 17:33:51.978665,-16.0
2023-08-11 17:33:51.986354,-31.0
2023-08-11 17:33:51.994044,-45.0
2023-08-11 17:33:52.001733,-55.0
2023-08-11 17:33:52.009422,-65.0
2023-08-11 17:33:52.017112,-60.0
2023-08-11 17:33:52.024801,-38.0
2023-08-11 17:33:52.032490,-26.0
2023-08-11 17:33:52.040180,-24.0
2023-08-11 17:33:52.047869,-16.0
2023-08-11 17:33:52.055559,-7.0
2023-08-11 17:33:52.063248,-7.0
2023-08-11 17:33:52.070937,-14.0
2023-08-11 17:33:52.078627,-16.0
2023-08-11 17:33:52.086316,-19.0
2023-08-11 17:33:52.094005,-26.0
2023-08-11 17:33:52.101695,-38.0
2023-08-11 17:33:52.109384,-33.0
2023-08-11 17:33:52.117074,-4.0
2023-08-11 17:33:52.124763,-19.0
2023-08-11 17:33:52.132452,-251.0
2023-08-11 17:33:52.140142,-780.0
2023-08-11 17:33:52.147831,-1191.0
2023-08-11 17:33:52.155521,-930.0
2023-08-11 17:33:52.163210,-137.0
2023-08-11 17:33:52.170899,393.0
2023-08-11 17:33:52.178589,263.0
2023-08-11 17:33:52.186278,31.0
2023-08-11 17:33:52.193967,43.0
2023-08-11 17:33:52.201657,31.0
2023-08-11 17:33:52.209346,-21.0
2023-08-11 17:33:52.217036,-7.0
2023-08-11 17:33:52.224725,-2.0
2023-08-11 17:33:52.232414,-29.0
2023-08-11 17:33:52.240104,-36.0
2023-08-11 17:33:52.247793,-33.0
2023-08-11 17:33:52.255482,-45.0
2023-08-11 17:33:52.263172,-55.0
2023-08-11 17:33:52.270861,-60.0
2023-08-11 17:33:52.278551,-74.0
2023-08-11 17:33:52.286240,-89.0
2023-08-11 17:33:52.293929,-106.0
2023-08-11 17:33:52.301619,-125.0
2023-08-11 17:33:52.309308,-152.0
2023-08-11 17:33:52.316997,-183.0
2023-08-11 17:33:52.324687,-215.0
2023-08-11 17:33:52.332376,-248.0
2023-08-11 17:33:52.340066,-277.0
2023-08-11 17:33:52.347755,-292.0
2023-08-11 17:33:52.355444,-302.0
2023-08-11 17:33:52.363134,-304.0
2023-08-11 17:33:52.370823,-285.0
2023-08-11 17:33:52.378512,-241.0
2023-08-11 17:33:52.386202,-181.0
2023-08-11 17:33:52.393891,-111.0
2023-08-11 17:33:52.401581,-45.0
2023-08-11 17:33:52.409270,4.0
2023-08-11 17:33:52.416959,38.0
2023-08-11 17:33:52.424649,60.0
2023-08-11 17:33:52.432338,72.0
2023-08-11 17:33:52.440027,82.0
2023-08-11 17:33:52.447717,82.0
2023-08-11 17:33:52.455406,77.0
2023-08-11 17:33:52.463096,74.0
2023-08-11 17:33:52.470785,72.0
2023-08-11 17:33:52.478474,67.0
2023-08-11 17:33:52.486164,62.0
2023-08-11 17:33:52.493853,60.0
2023-08-11 17:33:52.501542,55.0
2023-08-11 17:33:52.509232,53.0
2023-08-11 17:33:52.516921,50.0
2023-08-11 17:33:52.524611,45.0
2023-08-11 17:33:52.532300,41.0
2023-08-11 17:33:52.539989,36.0
2023-08-11 17:33:52.547679,31.0
2023-08-11 17:33:52.555368,26.0
2023-08-11 17:33:52.563057,24.0
2023-08-11 17:33:52.570747,19.0
2023-08-11 17:33:52.578436,14.0
2023-08-11 17:33:52.586126,4.0
2023-08-11 17:33:52.593815,2.0
2023-08-11 17:33:52.601504,0.0
2023-08-11 17:33:52.609194,-4.0
2023-08-11 17:33:52.616883,-4.0
2023-08-11 17:33:52.624573,-2.0
2023-08-11 17:33:52.632262,-7.0
2023-08-11 17:33:52.639951,-16.0
2023-08-11 17:33:52.647641,-19.0
2023-08-11 17:33:52.655330,-14.0
2023-08-11 17:33:52.663019,-16.0
2023-08-11 17:33:52.670709,-19.0
2023-08-11 17:33:52.678398,-19.0
2023-08-11 17:33:52.686088,-19.0
2023-08-11 17:33:52.693777,-19.0
