time,ECG
2023-08-11 18:30:02.272715,-103.0
2023-08-11 18:30:02.280405,-98.0
2023-08-11 18:30:02.288094,-93.0
2023-08-11 18:30:02.295784,-93.0
2023-08-11 18:30:02.303474,-98.0
2023-08-11 18:30:02.311164,-95.0
2023-08-11 18:30:02.318853,-95.0
2023-08-11 18:30:02.326543,-95.0
2023-08-11 18:30:02.334233,-91.0
2023-08-11 18:30:02.341923,-86.0
2023-08-11 18:30:02.349612,-86.0
2023-08-11 18:30:02.357302,-91.0
2023-08-11 18:30:02.364992,-100.0
2023-08-11 18:30:02.372682,-98.0
2023-08-11 18:30:02.380371,-91.0
2023-08-11 18:30:02.388061,-86.0
2023-08-11 18:30:02.395751,-86.0
2023-08-11 18:30:02.403441,-83.0
2023-08-11 18:30:02.411130,-86.0
2023-08-11 18:30:02.418820,-86.0
2023-08-11 18:30:02.426510,-86.0
2023-08-11 18:30:02.434200,-86.0
2023-08-11 18:30:02.441889,-91.0
2023-08-11 18:30:02.449579,-95.0
2023-08-11 18:30:02.457269,-79.0
2023-08-11 18:30:02.464958,-35.0
2023-08-11 18:30:02.472648,-7.0
2023-08-11 18:30:02.480338,-14.0
2023-08-11 18:30:02.488028,-16.0
2023-08-11 18:30:02.495717,-19.0
2023-08-11 18:30:02.503407,-57.0
2023-08-11 18:30:02.511097,-88.0
2023-08-11 18:30:02.518787,-86.0
2023-08-11 18:30:02.526476,-81.0
2023-08-11 18:30:02.534166,-88.0
2023-08-11 18:30:02.541856,-83.0
2023-08-11 18:30:02.549546,-79.0
2023-08-11 18:30:02.557235,-81.0
2023-08-11 18:30:02.564925,-86.0
2023-08-11 18:30:02.572615,-95.0
2023-08-11 18:30:02.580305,-112.0
2023-08-11 18:30:02.587994,31.0
2023-08-11 18:30:02.595684,589.0
2023-08-11 18:30:02.603374,1308.0
2023-08-11 18:30:02.611064,1435.0
2023-08-11 18:30:02.618753,568.0
2023-08-11 18:30:02.626443,-565.0
2023-08-11 18:30:02.634133,-783.0
2023-08-11 18:30:02.641822,-301.0
2023-08-11 18:30:02.649512,-110.0
2023-08-11 18:30:02.657202,-208.0
2023-08-11 18:30:02.664892,-189.0
2023-08-11 18:30:02.672581,-134.0
2023-08-11 18:30:02.680271,-148.0
2023-08-11 18:30:02.687961,-146.0
2023-08-11 18:30:02.695651,-110.0
2023-08-11 18:30:02.703340,-100.0
2023-08-11 18:30:02.711030,-98.0
2023-08-11 18:30:02.718720,-86.0
2023-08-11 18:30:02.726410,-71.0
2023-08-11 18:30:02.734099,-59.0
2023-08-11 18:30:02.741789,-45.0
2023-08-11 18:30:02.749479,-35.0
2023-08-11 18:30:02.757169,-23.0
2023-08-11 18:30:02.764858,-16.0
2023-08-11 18:30:02.772548,-7.0
2023-08-11 18:30:02.780238,7.0
2023-08-11 18:30:02.787928,19.0
2023-08-11 18:30:02.795617,33.0
2023-08-11 18:30:02.803307,45.0
2023-08-11 18:30:02.810997,59.0
2023-08-11 18:30:02.818687,81.0
2023-08-11 18:30:02.826376,95.0
2023-08-11 18:30:02.834066,110.0
2023-08-11 18:30:02.841756,131.0
2023-08-11 18:30:02.849445,153.0
2023-08-11 18:30:02.857135,172.0
2023-08-11 18:30:02.864825,191.0
2023-08-11 18:30:02.872515,203.0
2023-08-11 18:30:02.880204,210.0
2023-08-11 18:30:02.887894,210.0
2023-08-11 18:30:02.895584,208.0
2023-08-11 18:30:02.903274,191.0
2023-08-11 18:30:02.910963,155.0
2023-08-11 18:30:02.918653,100.0
2023-08-11 18:30:02.926343,33.0
2023-08-11 18:30:02.934033,-31.0
2023-08-11 18:30:02.941722,-95.0
2023-08-11 18:30:02.949412,-146.0
2023-08-11 18:30:02.957102,-170.0
2023-08-11 18:30:02.964792,-184.0
2023-08-11 18:30:02.972481,-196.0
2023-08-11 18:30:02.980171,-201.0
2023-08-11 18:30:02.987861,-198.0
2023-08-11 18:30:02.995551,-189.0
2023-08-11 18:30:03.003240,-177.0
2023-08-11 18:30:03.010930,-170.0
2023-08-11 18:30:03.018620,-170.0
2023-08-11 18:30:03.026309,-160.0
2023-08-11 18:30:03.033999,-148.0
2023-08-11 18:30:03.041689,-143.0
2023-08-11 18:30:03.049379,-139.0
2023-08-11 18:30:03.057068,-131.0
2023-08-11 18:30:03.064758,-129.0
2023-08-11 18:30:03.072448,-127.0
2023-08-11 18:30:03.080138,-127.0
2023-08-11 18:30:03.087827,-127.0
2023-08-11 18:30:03.095517,-119.0
2023-08-11 18:30:03.103207,-119.0
2023-08-11 18:30:03.110897,-122.0
2023-08-11 18:30:03.118586,-122.0
2023-08-11 18:30:03.126276,-119.0
2023-08-11 18:30:03.133966,-117.0
2023-08-11 18:30:03.141656,-115.0
2023-08-11 18:30:03.149345,-117.0
2023-08-11 18:30:03.157035,-119.0
2023-08-11 18:30:03.164725,-117.0
2023-08-11 18:30:03.172415,-115.0
2023-08-11 18:30:03.180104,-122.0
2023-08-11 18:30:03.187794,-124.0
2023-08-11 18:30:03.195484,-122.0
2023-08-11 18:30:03.203173,-117.0
2023-08-11 18:30:03.210863,-115.0
2023-08-11 18:30:03.218553,-115.0
2023-08-11 18:30:03.226243,-115.0
2023-08-11 18:30:03.233932,-112.0
2023-08-11 18:30:03.241622,-115.0
2023-08-11 18:30:03.249312,-117.0
2023-08-11 18:30:03.257002,-117.0
2023-08-11 18:30:03.264691,-115.0
2023-08-11 18:30:03.272381,-112.0
2023-08-11 18:30:03.280071,-110.0
2023-08-11 18:30:03.287761,-112.0
2023-08-11 18:30:03.295450,-112.0
2023-08-11 18:30:03.303140,-112.0
2023-08-11 18:30:03.310830,-110.0
2023-08-11 18:30:03.318520,-103.0
2023-08-11 18:30:03.326209,-103.0
2023-08-11 18:30:03.333899,-105.0
2023-08-11 18:30:03.341589,-105.0
2023-08-11 18:30:03.349279,-103.0
2023-08-11 18:30:03.356968,-100.0
2023-08-11 18:30:03.364658,-98.0
2023-08-11 18:30:03.372348,-93.0
2023-08-11 18:30:03.380037,-91.0
2023-08-11 18:30:03.387727,-88.0
2023-08-11 18:30:03.395417,-88.0
2023-08-11 18:30:03.403107,-88.0
2023-08-11 18:30:03.410796,-86.0
2023-08-11 18:30:03.418486,-81.0
2023-08-11 18:30:03.426176,-81.0
2023-08-11 18:30:03.433866,-83.0
2023-08-11 18:30:03.441555,-79.0
2023-08-11 18:30:03.449245,-74.0
2023-08-11 18:30:03.456935,-71.0
2023-08-11 18:30:03.464625,-76.0
2023-08-11 18:30:03.472314,-81.0
2023-08-11 18:30:03.480004,-91.0
2023-08-11 18:30:03.487694,-86.0
2023-08-11 18:30:03.495384,-40.0
2023-08-11 18:30:03.503073,-11.0
2023-08-11 18:30:03.510763,-21.0
2023-08-11 18:30:03.518453,-26.0
2023-08-11 18:30:03.526143,-33.0
2023-08-11 18:30:03.533832,-71.0
2023-08-11 18:30:03.541522,-93.0
2023-08-11 18:30:03.549212,-91.0
2023-08-11 18:30:03.556901,-88.0
2023-08-11 18:30:03.564591,-98.0
2023-08-11 18:30:03.572281,-98.0
2023-08-11 18:30:03.579971,-93.0
2023-08-11 18:30:03.587660,-93.0
2023-08-11 18:30:03.595350,-91.0
2023-08-11 18:30:03.603040,-105.0
2023-08-11 18:30:03.610730,-117.0
2023-08-11 18:30:03.618419,81.0
2023-08-11 18:30:03.626109,690.0
2023-08-11 18:30:03.633799,1346.0
2023-08-11 18:30:03.641489,1306.0
2023-08-11 18:30:03.649178,330.0
2023-08-11 18:30:03.656868,-680.0
2023-08-11 18:30:03.664558,-709.0
2023-08-11 18:30:03.672248,-227.0
2023-08-11 18:30:03.679937,-131.0
2023-08-11 18:30:03.687627,-237.0
2023-08-11 18:30:03.695317,-191.0
2023-08-11 18:30:03.703007,-141.0
2023-08-11 18:30:03.710696,-162.0
2023-08-11 18:30:03.718386,-148.0
2023-08-11 18:30:03.726076,-112.0
2023-08-11 18:30:03.733765,-105.0
2023-08-11 18:30:03.741455,-98.0
2023-08-11 18:30:03.749145,-83.0
2023-08-11 18:30:03.756835,-74.0
2023-08-11 18:30:03.764524,-64.0
2023-08-11 18:30:03.772214,-50.0
2023-08-11 18:30:03.779904,-43.0
2023-08-11 18:30:03.787594,-31.0
2023-08-11 18:30:03.795283,-19.0
2023-08-11 18:30:03.802973,-11.0
2023-08-11 18:30:03.810663,-2.0
2023-08-11 18:30:03.818353,16.0
2023-08-11 18:30:03.826042,33.0
2023-08-11 18:30:03.833732,45.0
2023-08-11 18:30:03.841422,57.0
2023-08-11 18:30:03.849112,74.0
2023-08-11 18:30:03.856801,95.0
2023-08-11 18:30:03.864491,112.0
2023-08-11 18:30:03.872181,134.0
2023-08-11 18:30:03.879871,155.0
2023-08-11 18:30:03.887560,172.0
2023-08-11 18:30:03.895250,184.0
2023-08-11 18:30:03.902940,196.0
2023-08-11 18:30:03.910629,206.0
2023-08-11 18:30:03.918319,206.0
2023-08-11 18:30:03.926009,194.0
2023-08-11 18:30:03.933699,170.0
2023-08-11 18:30:03.941388,124.0
2023-08-11 18:30:03.949078,62.0
2023-08-11 18:30:03.956768,-2.0
2023-08-11 18:30:03.964458,-67.0
2023-08-11 18:30:03.972147,-119.0
2023-08-11 18:30:03.979837,-158.0
2023-08-11 18:30:03.987527,-186.0
2023-08-11 18:30:03.995217,-203.0
2023-08-11 18:30:04.002906,-206.0
2023-08-11 18:30:04.010596,-203.0
2023-08-11 18:30:04.018286,-198.0
2023-08-11 18:30:04.025976,-198.0
2023-08-11 18:30:04.033665,-189.0
2023-08-11 18:30:04.041355,-174.0
2023-08-11 18:30:04.049045,-167.0
2023-08-11 18:30:04.056735,-158.0
2023-08-11 18:30:04.064424,-153.0
2023-08-11 18:30:04.072114,-160.0
2023-08-11 18:30:04.079804,-155.0
2023-08-11 18:30:04.087493,-141.0
2023-08-11 18:30:04.095183,-136.0
2023-08-11 18:30:04.102873,-139.0
2023-08-11 18:30:04.110563,-136.0
2023-08-11 18:30:04.118252,-136.0
2023-08-11 18:30:04.125942,-134.0
2023-08-11 18:30:04.133632,-134.0
2023-08-11 18:30:04.141322,-136.0
2023-08-11 18:30:04.149011,-136.0
2023-08-11 18:30:04.156701,-134.0
2023-08-11 18:30:04.164391,-136.0
2023-08-11 18:30:04.172081,-134.0
2023-08-11 18:30:04.179770,-127.0
2023-08-11 18:30:04.187460,-131.0
2023-08-11 18:30:04.195150,-139.0
2023-08-11 18:30:04.202840,-139.0
2023-08-11 18:30:04.210529,-134.0
2023-08-11 18:30:04.218219,-129.0
2023-08-11 18:30:04.225909,-122.0
2023-08-11 18:30:04.233599,-119.0
2023-08-11 18:30:04.241288,-117.0
2023-08-11 18:30:04.248978,-119.0
2023-08-11 18:30:04.256668,-124.0
2023-08-11 18:30:04.264357,-124.0
2023-08-11 18:30:04.272047,-122.0
2023-08-11 18:30:04.279737,-122.0
2023-08-11 18:30:04.287427,-117.0
2023-08-11 18:30:04.295116,-115.0
2023-08-11 18:30:04.302806,-115.0
2023-08-11 18:30:04.310496,-112.0
2023-08-11 18:30:04.318186,-112.0
2023-08-11 18:30:04.325875,-110.0
2023-08-11 18:30:04.333565,-107.0
2023-08-11 18:30:04.341255,-110.0
2023-08-11 18:30:04.348945,-110.0
2023-08-11 18:30:04.356634,-103.0
2023-08-11 18:30:04.364324,-103.0
2023-08-11 18:30:04.372014,-100.0
2023-08-11 18:30:04.379704,-98.0
2023-08-11 18:30:04.387393,-103.0
2023-08-11 18:30:04.395083,-105.0
2023-08-11 18:30:04.402773,-98.0
2023-08-11 18:30:04.410463,-95.0
2023-08-11 18:30:04.418152,-98.0
2023-08-11 18:30:04.425842,-95.0
2023-08-11 18:30:04.433532,-91.0
2023-08-11 18:30:04.441222,-93.0
2023-08-11 18:30:04.448911,-93.0
2023-08-11 18:30:04.456601,-88.0
2023-08-11 18:30:04.464291,-88.0
2023-08-11 18:30:04.471980,-88.0
2023-08-11 18:30:04.479670,-86.0
2023-08-11 18:30:04.487360,-86.0
2023-08-11 18:30:04.495050,-83.0
2023-08-11 18:30:04.502739,-79.0
2023-08-11 18:30:04.510429,-83.0
2023-08-11 18:30:04.518119,-91.0
2023-08-11 18:30:04.525809,-88.0
2023-08-11 18:30:04.533498,-62.0
2023-08-11 18:30:04.541188,-21.0
2023-08-11 18:30:04.548878,-4.0
2023-08-11 18:30:04.556568,-14.0
2023-08-11 18:30:04.564257,-16.0
2023-08-11 18:30:04.571947,-33.0
2023-08-11 18:30:04.579637,-71.0
2023-08-11 18:30:04.587327,-93.0
2023-08-11 18:30:04.595016,-86.0
2023-08-11 18:30:04.602706,-88.0
2023-08-11 18:30:04.610396,-103.0
2023-08-11 18:30:04.618086,-100.0
2023-08-11 18:30:04.625775,-91.0
2023-08-11 18:30:04.633465,-98.0
2023-08-11 18:30:04.641155,-103.0
2023-08-11 18:30:04.648844,-117.0
2023-08-11 18:30:04.656534,-112.0
2023-08-11 18:30:04.664224,153.0
2023-08-11 18:30:04.671914,824.0
2023-08-11 18:30:04.679603,1423.0
2023-08-11 18:30:04.687293,1212.0
2023-08-11 18:30:04.694983,129.0
2023-08-11 18:30:04.702673,-771.0
2023-08-11 18:30:04.710362,-637.0
2023-08-11 18:30:04.718052,-174.0
2023-08-11 18:30:04.725742,-153.0
2023-08-11 18:30:04.733432,-244.0
2023-08-11 18:30:04.741121,-174.0
2023-08-11 18:30:04.748811,-143.0
2023-08-11 18:30:04.756501,-162.0
2023-08-11 18:30:04.764191,-136.0
2023-08-11 18:30:04.771880,-112.0
2023-08-11 18:30:04.779570,-110.0
2023-08-11 18:30:04.787260,-98.0
2023-08-11 18:30:04.794950,-79.0
2023-08-11 18:30:04.802639,-71.0
2023-08-11 18:30:04.810329,-64.0
2023-08-11 18:30:04.818019,-52.0
2023-08-11 18:30:04.825708,-40.0
2023-08-11 18:30:04.833398,-31.0
2023-08-11 18:30:04.841088,-16.0
2023-08-11 18:30:04.848778,-7.0
2023-08-11 18:30:04.856467,4.0
2023-08-11 18:30:04.864157,19.0
2023-08-11 18:30:04.871847,33.0
2023-08-11 18:30:04.879537,45.0
2023-08-11 18:30:04.887226,57.0
2023-08-11 18:30:04.894916,76.0
2023-08-11 18:30:04.902606,95.0
2023-08-11 18:30:04.910296,110.0
2023-08-11 18:30:04.917985,124.0
2023-08-11 18:30:04.925675,143.0
2023-08-11 18:30:04.933365,167.0
2023-08-11 18:30:04.941055,189.0
2023-08-11 18:30:04.948744,201.0
2023-08-11 18:30:04.956434,203.0
2023-08-11 18:30:04.964124,198.0
2023-08-11 18:30:04.971814,189.0
2023-08-11 18:30:04.979503,162.0
2023-08-11 18:30:04.987193,119.0
2023-08-11 18:30:04.994883,59.0
2023-08-11 18:30:05.002572,-7.0
2023-08-11 18:30:05.010262,-71.0
2023-08-11 18:30:05.017952,-124.0
2023-08-11 18:30:05.025642,-162.0
2023-08-11 18:30:05.033331,-186.0
2023-08-11 18:30:05.041021,-196.0
2023-08-11 18:30:05.048711,-201.0
2023-08-11 18:30:05.056401,-201.0
2023-08-11 18:30:05.064090,-196.0
2023-08-11 18:30:05.071780,-189.0
2023-08-11 18:30:05.079470,-179.0
2023-08-11 18:30:05.087160,-172.0
2023-08-11 18:30:05.094849,-160.0
2023-08-11 18:30:05.102539,-153.0
2023-08-11 18:30:05.110229,-148.0
2023-08-11 18:30:05.117919,-139.0
2023-08-11 18:30:05.125608,-134.0
2023-08-11 18:30:05.133298,-131.0
2023-08-11 18:30:05.140988,-129.0
2023-08-11 18:30:05.148678,-134.0
2023-08-11 18:30:05.156367,-136.0
2023-08-11 18:30:05.164057,-129.0
2023-08-11 18:30:05.171747,-127.0
2023-08-11 18:30:05.179436,-127.0
2023-08-11 18:30:05.187126,-124.0
2023-08-11 18:30:05.194816,-127.0
2023-08-11 18:30:05.202506,-124.0
2023-08-11 18:30:05.210195,-117.0
2023-08-11 18:30:05.217885,-115.0
2023-08-11 18:30:05.225575,-117.0
2023-08-11 18:30:05.233265,-117.0
2023-08-11 18:30:05.240954,-112.0
2023-08-11 18:30:05.248644,-110.0
2023-08-11 18:30:05.256334,-105.0
2023-08-11 18:30:05.264024,-103.0
2023-08-11 18:30:05.271713,-107.0
2023-08-11 18:30:05.279403,-107.0
2023-08-11 18:30:05.287093,-100.0
2023-08-11 18:30:05.294783,-100.0
2023-08-11 18:30:05.302472,-98.0
2023-08-11 18:30:05.310162,-98.0
2023-08-11 18:30:05.317852,-103.0
2023-08-11 18:30:05.325542,-107.0
2023-08-11 18:30:05.333231,-105.0
2023-08-11 18:30:05.340921,-98.0
2023-08-11 18:30:05.348611,-95.0
2023-08-11 18:30:05.356300,-98.0
2023-08-11 18:30:05.363990,-95.0
2023-08-11 18:30:05.371680,-100.0
2023-08-11 18:30:05.379370,-103.0
2023-08-11 18:30:05.387059,-98.0
2023-08-11 18:30:05.394749,-88.0
2023-08-11 18:30:05.402439,-88.0
2023-08-11 18:30:05.410129,-88.0
2023-08-11 18:30:05.417818,-86.0
2023-08-11 18:30:05.425508,-91.0
2023-08-11 18:30:05.433198,-91.0
2023-08-11 18:30:05.440888,-83.0
2023-08-11 18:30:05.448577,-81.0
2023-08-11 18:30:05.456267,-86.0
2023-08-11 18:30:05.463957,-83.0
2023-08-11 18:30:05.471647,-76.0
2023-08-11 18:30:05.479336,-69.0
2023-08-11 18:30:05.487026,-67.0
2023-08-11 18:30:05.494716,-74.0
2023-08-11 18:30:05.502406,-74.0
2023-08-11 18:30:05.510095,-67.0
2023-08-11 18:30:05.517785,-59.0
2023-08-11 18:30:05.525475,-62.0
2023-08-11 18:30:05.533164,-64.0
2023-08-11 18:30:05.540854,-57.0
2023-08-11 18:30:05.548544,-55.0
2023-08-11 18:30:05.556234,-59.0
2023-08-11 18:30:05.563923,-62.0
2023-08-11 18:30:05.571613,-59.0
2023-08-11 18:30:05.579303,-55.0
2023-08-11 18:30:05.586993,-28.0
2023-08-11 18:30:05.594682,7.0
2023-08-11 18:30:05.602372,11.0
2023-08-11 18:30:05.610062,2.0
2023-08-11 18:30:05.617752,2.0
2023-08-11 18:30:05.625441,-26.0
2023-08-11 18:30:05.633131,-62.0
2023-08-11 18:30:05.640821,-71.0
2023-08-11 18:30:05.648511,-64.0
2023-08-11 18:30:05.656200,-67.0
2023-08-11 18:30:05.663890,-67.0
2023-08-11 18:30:05.671580,-64.0
2023-08-11 18:30:05.679270,-62.0
2023-08-11 18:30:05.686959,-62.0
2023-08-11 18:30:05.694649,-67.0
2023-08-11 18:30:05.702339,-86.0
2023-08-11 18:30:05.710028,-16.0
2023-08-11 18:30:05.717718,421.0
2023-08-11 18:30:05.725408,1145.0
2023-08-11 18:30:05.733098,1459.0
2023-08-11 18:30:05.740787,800.0
2023-08-11 18:30:05.748477,-345.0
2023-08-11 18:30:05.756167,-802.0
2023-08-11 18:30:05.763857,-431.0
2023-08-11 18:30:05.771546,-127.0
2023-08-11 18:30:05.779236,-162.0
2023-08-11 18:30:05.786926,-182.0
2023-08-11 18:30:05.794616,-127.0
2023-08-11 18:30:05.802305,-115.0
2023-08-11 18:30:05.809995,-117.0
2023-08-11 18:30:05.817685,-95.0
2023-08-11 18:30:05.825375,-83.0
2023-08-11 18:30:05.833064,-79.0
2023-08-11 18:30:05.840754,-64.0
2023-08-11 18:30:05.848444,-55.0
2023-08-11 18:30:05.856134,-45.0
2023-08-11 18:30:05.863823,-35.0
2023-08-11 18:30:05.871513,-31.0
2023-08-11 18:30:05.879203,-19.0
2023-08-11 18:30:05.886892,-2.0
2023-08-11 18:30:05.894582,11.0
2023-08-11 18:30:05.902272,16.0
2023-08-11 18:30:05.909962,23.0
2023-08-11 18:30:05.917651,38.0
2023-08-11 18:30:05.925341,47.0
2023-08-11 18:30:05.933031,52.0
2023-08-11 18:30:05.940721,74.0
2023-08-11 18:30:05.948410,98.0
2023-08-11 18:30:05.956100,112.0
2023-08-11 18:30:05.963790,131.0
2023-08-11 18:30:05.971480,155.0
2023-08-11 18:30:05.979169,177.0
2023-08-11 18:30:05.986859,196.0
2023-08-11 18:30:05.994549,208.0
2023-08-11 18:30:06.002239,215.0
2023-08-11 18:30:06.009928,213.0
2023-08-11 18:30:06.017618,210.0
2023-08-11 18:30:06.025308,198.0
2023-08-11 18:30:06.032998,162.0
2023-08-11 18:30:06.040687,103.0
2023-08-11 18:30:06.048377,33.0
2023-08-11 18:30:06.056067,-33.0
2023-08-11 18:30:06.063757,-88.0
2023-08-11 18:30:06.071446,-131.0
2023-08-11 18:30:06.079136,-162.0
2023-08-11 18:30:06.086826,-184.0
2023-08-11 18:30:06.094515,-194.0
2023-08-11 18:30:06.102205,-194.0
2023-08-11 18:30:06.109895,-196.0
2023-08-11 18:30:06.117585,-189.0
2023-08-11 18:30:06.125274,-179.0
2023-08-11 18:30:06.132964,-170.0
2023-08-11 18:30:06.140654,-162.0
2023-08-11 18:30:06.148344,-155.0
2023-08-11 18:30:06.156033,-146.0
2023-08-11 18:30:06.163723,-134.0
2023-08-11 18:30:06.171413,-129.0
2023-08-11 18:30:06.179103,-129.0
2023-08-11 18:30:06.186792,-127.0
2023-08-11 18:30:06.194482,-119.0
2023-08-11 18:30:06.202172,-117.0
2023-08-11 18:30:06.209862,-119.0
2023-08-11 18:30:06.217551,-117.0
2023-08-11 18:30:06.225241,-115.0
2023-08-11 18:30:06.232931,-119.0
2023-08-11 18:30:06.240621,-122.0
2023-08-11 18:30:06.248310,-117.0
2023-08-11 18:30:06.256000,-115.0
2023-08-11 18:30:06.263690,-115.0
2023-08-11 18:30:06.271379,-115.0
2023-08-11 18:30:06.279069,-112.0
2023-08-11 18:30:06.286759,-112.0
2023-08-11 18:30:06.294449,-110.0
2023-08-11 18:30:06.302138,-107.0
2023-08-11 18:30:06.309828,-105.0
2023-08-11 18:30:06.317518,-110.0
2023-08-11 18:30:06.325208,-115.0
2023-08-11 18:30:06.332897,-112.0
2023-08-11 18:30:06.340587,-107.0
2023-08-11 18:30:06.348277,-107.0
2023-08-11 18:30:06.355967,-110.0
2023-08-11 18:30:06.363656,-115.0
2023-08-11 18:30:06.371346,-110.0
2023-08-11 18:30:06.379036,-105.0
2023-08-11 18:30:06.386726,-105.0
2023-08-11 18:30:06.394415,-105.0
2023-08-11 18:30:06.402105,-105.0
2023-08-11 18:30:06.409795,-117.0
2023-08-11 18:30:06.417485,-122.0
2023-08-11 18:30:06.425174,-119.0
2023-08-11 18:30:06.432864,-124.0
2023-08-11 18:30:06.440554,-129.0
2023-08-11 18:30:06.448243,-119.0
2023-08-11 18:30:06.455933,-115.0
2023-08-11 18:30:06.463623,-117.0
2023-08-11 18:30:06.471313,-117.0
2023-08-11 18:30:06.479002,-112.0
2023-08-11 18:30:06.486692,-107.0
2023-08-11 18:30:06.494382,-107.0
2023-08-11 18:30:06.502072,-110.0
2023-08-11 18:30:06.509761,-105.0
2023-08-11 18:30:06.517451,-103.0
2023-08-11 18:30:06.525141,-105.0
2023-08-11 18:30:06.532831,-103.0
2023-08-11 18:30:06.540520,-98.0
2023-08-11 18:30:06.548210,-95.0
2023-08-11 18:30:06.555900,-95.0
2023-08-11 18:30:06.563590,-95.0
2023-08-11 18:30:06.571279,-100.0
2023-08-11 18:30:06.578969,-100.0
2023-08-11 18:30:06.586659,-74.0
2023-08-11 18:30:06.594349,-31.0
2023-08-11 18:30:06.602038,-23.0
2023-08-11 18:30:06.609728,-38.0
2023-08-11 18:30:06.617418,-35.0
2023-08-11 18:30:06.625107,-45.0
2023-08-11 18:30:06.632797,-86.0
2023-08-11 18:30:06.640487,-107.0
2023-08-11 18:30:06.648177,-98.0
2023-08-11 18:30:06.655866,-98.0
2023-08-11 18:30:06.663556,-103.0
2023-08-11 18:30:06.671246,-100.0
2023-08-11 18:30:06.678936,-100.0
2023-08-11 18:30:06.686625,-100.0
2023-08-11 18:30:06.694315,-98.0
2023-08-11 18:30:06.702005,-115.0
2023-08-11 18:30:06.709695,-107.0
2023-08-11 18:30:06.717384,158.0
2023-08-11 18:30:06.725074,810.0
2023-08-11 18:30:06.732764,1387.0
2023-08-11 18:30:06.740454,1179.0
2023-08-11 18:30:06.748143,124.0
2023-08-11 18:30:06.755833,-757.0
2023-08-11 18:30:06.763523,-644.0
2023-08-11 18:30:06.771213,-196.0
2023-08-11 18:30:06.778902,-153.0
2023-08-11 18:30:06.786592,-232.0
2023-08-11 18:30:06.794282,-172.0
2023-08-11 18:30:06.801971,-143.0
2023-08-11 18:30:06.809661,-162.0
2023-08-11 18:30:06.817351,-141.0
2023-08-11 18:30:06.825041,-112.0
2023-08-11 18:30:06.832730,-110.0
2023-08-11 18:30:06.840420,-105.0
2023-08-11 18:30:06.848110,-93.0
2023-08-11 18:30:06.855800,-93.0
2023-08-11 18:30:06.863489,-91.0
2023-08-11 18:30:06.871179,-71.0
2023-08-11 18:30:06.878869,-57.0
2023-08-11 18:30:06.886559,-47.0
2023-08-11 18:30:06.894248,-35.0
2023-08-11 18:30:06.901938,-23.0
2023-08-11 18:30:06.909628,-14.0
2023-08-11 18:30:06.917318,2.0
2023-08-11 18:30:06.925007,16.0
2023-08-11 18:30:06.932697,28.0
2023-08-11 18:30:06.940387,43.0
2023-08-11 18:30:06.948077,57.0
2023-08-11 18:30:06.955766,76.0
2023-08-11 18:30:06.963456,100.0
2023-08-11 18:30:06.971146,124.0
2023-08-11 18:30:06.978835,146.0
2023-08-11 18:30:06.986525,165.0
2023-08-11 18:30:06.994215,179.0
2023-08-11 18:30:07.001905,191.0
2023-08-11 18:30:07.009594,201.0
2023-08-11 18:30:07.017284,196.0
2023-08-11 18:30:07.024974,177.0
2023-08-11 18:30:07.032664,143.0
2023-08-11 18:30:07.040353,95.0
2023-08-11 18:30:07.048043,31.0
2023-08-11 18:30:07.055733,-38.0
2023-08-11 18:30:07.063423,-100.0
2023-08-11 18:30:07.071112,-148.0
2023-08-11 18:30:07.078802,-184.0
2023-08-11 18:30:07.086492,-210.0
2023-08-11 18:30:07.094182,-222.0
2023-08-11 18:30:07.101871,-227.0
2023-08-11 18:30:07.109561,-222.0
2023-08-11 18:30:07.117251,-215.0
2023-08-11 18:30:07.124941,-210.0
2023-08-11 18:30:07.132630,-201.0
2023-08-11 18:30:07.140320,-189.0
2023-08-11 18:30:07.148010,-177.0
2023-08-11 18:30:07.155699,-167.0
2023-08-11 18:30:07.163389,-160.0
2023-08-11 18:30:07.171079,-158.0
2023-08-11 18:30:07.178769,-153.0
2023-08-11 18:30:07.186458,-143.0
2023-08-11 18:30:07.194148,-139.0
2023-08-11 18:30:07.201838,-139.0
2023-08-11 18:30:07.209528,-134.0
2023-08-11 18:30:07.217217,-136.0
2023-08-11 18:30:07.224907,-139.0
2023-08-11 18:30:07.232597,-134.0
2023-08-11 18:30:07.240287,-134.0
2023-08-11 18:30:07.247976,-136.0
2023-08-11 18:30:07.255666,-134.0
2023-08-11 18:30:07.263356,-136.0
2023-08-11 18:30:07.271046,-136.0
2023-08-11 18:30:07.278735,-131.0
2023-08-11 18:30:07.286425,-129.0
2023-08-11 18:30:07.294115,-129.0
2023-08-11 18:30:07.301805,-129.0
2023-08-11 18:30:07.309494,-124.0
2023-08-11 18:30:07.317184,-122.0
2023-08-11 18:30:07.324874,-119.0
2023-08-11 18:30:07.332563,-119.0
2023-08-11 18:30:07.340253,-119.0
2023-08-11 18:30:07.347943,-122.0
2023-08-11 18:30:07.355633,-122.0
2023-08-11 18:30:07.363322,-115.0
2023-08-11 18:30:07.371012,-112.0
2023-08-11 18:30:07.378702,-112.0
2023-08-11 18:30:07.386392,-115.0
2023-08-11 18:30:07.394081,-117.0
2023-08-11 18:30:07.401771,-117.0
2023-08-11 18:30:07.409461,-112.0
2023-08-11 18:30:07.417151,-107.0
2023-08-11 18:30:07.424840,-107.0
2023-08-11 18:30:07.432530,-107.0
2023-08-11 18:30:07.440220,-112.0
2023-08-11 18:30:07.447910,-122.0
2023-08-11 18:30:07.455599,-122.0
2023-08-11 18:30:07.463289,-119.0
2023-08-11 18:30:07.470979,-115.0
2023-08-11 18:30:07.478669,-112.0
2023-08-11 18:30:07.486358,-117.0
2023-08-11 18:30:07.494048,-127.0
2023-08-11 18:30:07.501738,-122.0
2023-08-11 18:30:07.509427,-112.0
2023-08-11 18:30:07.517117,-112.0
2023-08-11 18:30:07.524807,-112.0
2023-08-11 18:30:07.532497,-110.0
2023-08-11 18:30:07.540186,-110.0
2023-08-11 18:30:07.547876,-107.0
2023-08-11 18:30:07.555566,-103.0
2023-08-11 18:30:07.563256,-105.0
2023-08-11 18:30:07.570945,-103.0
2023-08-11 18:30:07.578635,-103.0
2023-08-11 18:30:07.586325,-103.0
2023-08-11 18:30:07.594015,-105.0
2023-08-11 18:30:07.601704,-100.0
2023-08-11 18:30:07.609394,-95.0
2023-08-11 18:30:07.617084,-100.0
2023-08-11 18:30:07.624774,-105.0
2023-08-11 18:30:07.632463,-95.0
2023-08-11 18:30:07.640153,-64.0
2023-08-11 18:30:07.647843,-31.0
2023-08-11 18:30:07.655533,-28.0
2023-08-11 18:30:07.663222,-33.0
2023-08-11 18:30:07.670912,-33.0
2023-08-11 18:30:07.678602,-59.0
2023-08-11 18:30:07.686292,-98.0
2023-08-11 18:30:07.693981,-107.0
2023-08-11 18:30:07.701671,-100.0
2023-08-11 18:30:07.709361,-100.0
2023-08-11 18:30:07.717050,-103.0
2023-08-11 18:30:07.724740,-103.0
2023-08-11 18:30:07.732430,-98.0
2023-08-11 18:30:07.740120,-95.0
2023-08-11 18:30:07.747809,-100.0
2023-08-11 18:30:07.755499,-124.0
2023-08-11 18:30:07.763189,-93.0
2023-08-11 18:30:07.770879,261.0
2023-08-11 18:30:07.778568,982.0
2023-08-11 18:30:07.786258,1488.0
2023-08-11 18:30:07.793948,1080.0
2023-08-11 18:30:07.801638,-86.0
2023-08-11 18:30:07.809327,-831.0
2023-08-11 18:30:07.817017,-568.0
2023-08-11 18:30:07.824707,-162.0
2023-08-11 18:30:07.832397,-184.0
2023-08-11 18:30:07.840086,-242.0
2023-08-11 18:30:07.847776,-174.0
2023-08-11 18:30:07.855466,-155.0
2023-08-11 18:30:07.863156,-170.0
2023-08-11 18:30:07.870845,-139.0
2023-08-11 18:30:07.878535,-117.0
2023-08-11 18:30:07.886225,-115.0
2023-08-11 18:30:07.893914,-103.0
2023-08-11 18:30:07.901604,-88.0
2023-08-11 18:30:07.909294,-81.0
2023-08-11 18:30:07.916984,-69.0
2023-08-11 18:30:07.924673,-55.0
2023-08-11 18:30:07.932363,-45.0
2023-08-11 18:30:07.940053,-35.0
2023-08-11 18:30:07.947743,-31.0
2023-08-11 18:30:07.955432,-23.0
2023-08-11 18:30:07.963122,-9.0
2023-08-11 18:30:07.970812,9.0
2023-08-11 18:30:07.978502,19.0
2023-08-11 18:30:07.986191,26.0
2023-08-11 18:30:07.993881,43.0
2023-08-11 18:30:08.001571,64.0
2023-08-11 18:30:08.009261,86.0
2023-08-11 18:30:08.016950,110.0
2023-08-11 18:30:08.024640,131.0
2023-08-11 18:30:08.032330,153.0
2023-08-11 18:30:08.040020,172.0
2023-08-11 18:30:08.047709,186.0
2023-08-11 18:30:08.055399,198.0
2023-08-11 18:30:08.063089,210.0
2023-08-11 18:30:08.070778,210.0
2023-08-11 18:30:08.078468,191.0
2023-08-11 18:30:08.086158,153.0
2023-08-11 18:30:08.093848,100.0
2023-08-11 18:30:08.101537,33.0
2023-08-11 18:30:08.109227,-33.0
2023-08-11 18:30:08.116917,-95.0
2023-08-11 18:30:08.124607,-146.0
2023-08-11 18:30:08.132296,-186.0
2023-08-11 18:30:08.139986,-213.0
2023-08-11 18:30:08.147676,-220.0
2023-08-11 18:30:08.155366,-220.0
2023-08-11 18:30:08.163055,-220.0
2023-08-11 18:30:08.170745,-215.0
2023-08-11 18:30:08.178435,-206.0
2023-08-11 18:30:08.186125,-198.0
2023-08-11 18:30:08.193814,-189.0
2023-08-11 18:30:08.201504,-177.0
2023-08-11 18:30:08.209194,-167.0
2023-08-11 18:30:08.216884,-165.0
2023-08-11 18:30:08.224573,-160.0
2023-08-11 18:30:08.232263,-153.0
2023-08-11 18:30:08.239953,-146.0
2023-08-11 18:30:08.247642,-139.0
2023-08-11 18:30:08.255332,-136.0
2023-08-11 18:30:08.263022,-136.0
2023-08-11 18:30:08.270712,-136.0
2023-08-11 18:30:08.278401,-139.0
2023-08-11 18:30:08.286091,-136.0
2023-08-11 18:30:08.293781,-131.0
2023-08-11 18:30:08.301471,-134.0
2023-08-11 18:30:08.309160,-136.0
2023-08-11 18:30:08.316850,-136.0
2023-08-11 18:30:08.324540,-136.0
2023-08-11 18:30:08.332230,-131.0
2023-08-11 18:30:08.339919,-129.0
2023-08-11 18:30:08.347609,-127.0
2023-08-11 18:30:08.355299,-124.0
2023-08-11 18:30:08.362989,-127.0
2023-08-11 18:30:08.370678,-127.0
2023-08-11 18:30:08.378368,-122.0
2023-08-11 18:30:08.386058,-117.0
2023-08-11 18:30:08.393748,-117.0
2023-08-11 18:30:08.401437,-117.0
2023-08-11 18:30:08.409127,-112.0
2023-08-11 18:30:08.416817,-110.0
2023-08-11 18:30:08.424506,-107.0
2023-08-11 18:30:08.432196,-115.0
2023-08-11 18:30:08.439886,-117.0
2023-08-11 18:30:08.447576,-110.0
2023-08-11 18:30:08.455265,-112.0
2023-08-11 18:30:08.462955,-117.0
2023-08-11 18:30:08.470645,-112.0
2023-08-11 18:30:08.478335,-115.0
2023-08-11 18:30:08.486024,-117.0
2023-08-11 18:30:08.493714,-110.0
2023-08-11 18:30:08.501404,-110.0
2023-08-11 18:30:08.509094,-117.0
2023-08-11 18:30:08.516783,-117.0
2023-08-11 18:30:08.524473,-117.0
2023-08-11 18:30:08.532163,-119.0
2023-08-11 18:30:08.539853,-117.0
2023-08-11 18:30:08.547542,-115.0
2023-08-11 18:30:08.555232,-115.0
2023-08-11 18:30:08.562922,-110.0
2023-08-11 18:30:08.570612,-110.0
2023-08-11 18:30:08.578301,-112.0
2023-08-11 18:30:08.585991,-107.0
2023-08-11 18:30:08.593681,-103.0
2023-08-11 18:30:08.601370,-107.0
2023-08-11 18:30:08.609060,-105.0
2023-08-11 18:30:08.616750,-100.0
2023-08-11 18:30:08.624440,-95.0
2023-08-11 18:30:08.632129,-98.0
2023-08-11 18:30:08.639819,-98.0
2023-08-11 18:30:08.647509,-95.0
2023-08-11 18:30:08.655199,-93.0
2023-08-11 18:30:08.662888,-98.0
2023-08-11 18:30:08.670578,-103.0
2023-08-11 18:30:08.678268,-100.0
2023-08-11 18:30:08.685958,-86.0
2023-08-11 18:30:08.693647,-52.0
2023-08-11 18:30:08.701337,-23.0
2023-08-11 18:30:08.709027,-26.0
2023-08-11 18:30:08.716717,-31.0
2023-08-11 18:30:08.724406,-26.0
2023-08-11 18:30:08.732096,-57.0
2023-08-11 18:30:08.739786,-98.0
2023-08-11 18:30:08.747476,-100.0
2023-08-11 18:30:08.755165,-93.0
2023-08-11 18:30:08.762855,-95.0
2023-08-11 18:30:08.770545,-91.0
2023-08-11 18:30:08.778234,-88.0
2023-08-11 18:30:08.785924,-95.0
2023-08-11 18:30:08.793614,-93.0
2023-08-11 18:30:08.801304,-100.0
2023-08-11 18:30:08.808993,-127.0
2023-08-11 18:30:08.816683,-38.0
2023-08-11 18:30:08.824373,443.0
2023-08-11 18:30:08.832063,1181.0
2023-08-11 18:30:08.839752,1459.0
2023-08-11 18:30:08.847442,750.0
2023-08-11 18:30:08.855132,-412.0
2023-08-11 18:30:08.862822,-826.0
2023-08-11 18:30:08.870511,-419.0
2023-08-11 18:30:08.878201,-141.0
2023-08-11 18:30:08.885891,-194.0
2023-08-11 18:30:08.893581,-196.0
2023-08-11 18:30:08.901270,-141.0
2023-08-11 18:30:08.908960,-146.0
2023-08-11 18:30:08.916650,-148.0
2023-08-11 18:30:08.924340,-119.0
2023-08-11 18:30:08.932029,-103.0
2023-08-11 18:30:08.939719,-98.0
2023-08-11 18:30:08.947409,-81.0
2023-08-11 18:30:08.955098,-79.0
2023-08-11 18:30:08.962788,-76.0
2023-08-11 18:30:08.970478,-62.0
2023-08-11 18:30:08.978168,-50.0
2023-08-11 18:30:08.985857,-38.0
2023-08-11 18:30:08.993547,-23.0
2023-08-11 18:30:09.001237,-11.0
2023-08-11 18:30:09.008927,-2.0
2023-08-11 18:30:09.016616,7.0
2023-08-11 18:30:09.024306,26.0
2023-08-11 18:30:09.031996,47.0
2023-08-11 18:30:09.039686,59.0
2023-08-11 18:30:09.047375,71.0
2023-08-11 18:30:09.055065,93.0
2023-08-11 18:30:09.062755,110.0
2023-08-11 18:30:09.070445,127.0
2023-08-11 18:30:09.078134,148.0
2023-08-11 18:30:09.085824,172.0
2023-08-11 18:30:09.093514,191.0
2023-08-11 18:30:09.101204,198.0
2023-08-11 18:30:09.108893,203.0
2023-08-11 18:30:09.116583,206.0
2023-08-11 18:30:09.124273,203.0
2023-08-11 18:30:09.131962,186.0
2023-08-11 18:30:09.139652,146.0
2023-08-11 18:30:09.147342,83.0
2023-08-11 18:30:09.155032,7.0
2023-08-11 18:30:09.162721,-64.0
2023-08-11 18:30:09.170411,-117.0
2023-08-11 18:30:09.178101,-160.0
2023-08-11 18:30:09.185791,-194.0
2023-08-11 18:30:09.193480,-220.0
2023-08-11 18:30:09.201170,-234.0
2023-08-11 18:30:09.208860,-234.0
2023-08-11 18:30:09.216550,-222.0
2023-08-11 18:30:09.224239,-215.0
2023-08-11 18:30:09.231929,-208.0
2023-08-11 18:30:09.239619,-203.0
2023-08-11 18:30:09.247309,-203.0
2023-08-11 18:30:09.254998,-189.0
2023-08-11 18:30:09.262688,-174.0
2023-08-11 18:30:09.270378,-170.0
2023-08-11 18:30:09.278068,-160.0
2023-08-11 18:30:09.285757,-153.0
2023-08-11 18:30:09.293447,-155.0
2023-08-11 18:30:09.301137,-153.0
2023-08-11 18:30:09.308827,-148.0
2023-08-11 18:30:09.316516,-146.0
2023-08-11 18:30:09.324206,-143.0
2023-08-11 18:30:09.331896,-146.0
2023-08-11 18:30:09.339585,-150.0
2023-08-11 18:30:09.347275,-143.0
2023-08-11 18:30:09.354965,-136.0
2023-08-11 18:30:09.362655,-136.0
2023-08-11 18:30:09.370344,-136.0
2023-08-11 18:30:09.378034,-134.0
2023-08-11 18:30:09.385724,-131.0
2023-08-11 18:30:09.393414,-127.0
2023-08-11 18:30:09.401103,-124.0
2023-08-11 18:30:09.408793,-122.0
2023-08-11 18:30:09.416483,-119.0
2023-08-11 18:30:09.424173,-119.0
2023-08-11 18:30:09.431862,-119.0
2023-08-11 18:30:09.439552,-117.0
2023-08-11 18:30:09.447242,-117.0
2023-08-11 18:30:09.454932,-117.0
2023-08-11 18:30:09.462621,-117.0
2023-08-11 18:30:09.470311,-122.0
2023-08-11 18:30:09.478001,-124.0
2023-08-11 18:30:09.485691,-122.0
2023-08-11 18:30:09.493380,-119.0
2023-08-11 18:30:09.501070,-117.0
2023-08-11 18:30:09.508760,-117.0
2023-08-11 18:30:09.516449,-119.0
2023-08-11 18:30:09.524139,-119.0
2023-08-11 18:30:09.531829,-119.0
2023-08-11 18:30:09.539519,-124.0
2023-08-11 18:30:09.547208,-119.0
2023-08-11 18:30:09.554898,-122.0
2023-08-11 18:30:09.562588,-129.0
2023-08-11 18:30:09.570278,-124.0
2023-08-11 18:30:09.577967,-117.0
2023-08-11 18:30:09.585657,-117.0
2023-08-11 18:30:09.593347,-117.0
2023-08-11 18:30:09.601037,-117.0
2023-08-11 18:30:09.608726,-115.0
2023-08-11 18:30:09.616416,-115.0
2023-08-11 18:30:09.624106,-115.0
2023-08-11 18:30:09.631796,-115.0
2023-08-11 18:30:09.639485,-112.0
2023-08-11 18:30:09.647175,-110.0
2023-08-11 18:30:09.654865,-110.0
2023-08-11 18:30:09.662555,-117.0
2023-08-11 18:30:09.670244,-117.0
2023-08-11 18:30:09.677934,-107.0
2023-08-11 18:30:09.685624,-71.0
2023-08-11 18:30:09.693313,-45.0
2023-08-11 18:30:09.701003,-55.0
2023-08-11 18:30:09.708693,-57.0
2023-08-11 18:30:09.716383,-52.0
2023-08-11 18:30:09.724072,-81.0
2023-08-11 18:30:09.731762,-117.0
2023-08-11 18:30:09.739452,-124.0
2023-08-11 18:30:09.747142,-117.0
2023-08-11 18:30:09.754831,-117.0
2023-08-11 18:30:09.762521,-119.0
2023-08-11 18:30:09.770211,-115.0
2023-08-11 18:30:09.777901,-117.0
2023-08-11 18:30:09.785590,-115.0
2023-08-11 18:30:09.793280,-119.0
2023-08-11 18:30:09.800970,-146.0
2023-08-11 18:30:09.808660,-74.0
2023-08-11 18:30:09.816349,357.0
2023-08-11 18:30:09.824039,1066.0
2023-08-11 18:30:09.831729,1411.0
2023-08-11 18:30:09.839419,819.0
2023-08-11 18:30:09.847108,-328.0
2023-08-11 18:30:09.854798,-853.0
2023-08-11 18:30:09.862488,-484.0
2023-08-11 18:30:09.870177,-155.0
2023-08-11 18:30:09.877867,-203.0
2023-08-11 18:30:09.885557,-225.0
2023-08-11 18:30:09.893247,-162.0
2023-08-11 18:30:09.900936,-160.0
2023-08-11 18:30:09.908626,-162.0
2023-08-11 18:30:09.916316,-136.0
2023-08-11 18:30:09.924006,-122.0
2023-08-11 18:30:09.931695,-119.0
2023-08-11 18:30:09.939385,-107.0
2023-08-11 18:30:09.947075,-91.0
2023-08-11 18:30:09.954765,-81.0
2023-08-11 18:30:09.962454,-76.0
2023-08-11 18:30:09.970144,-69.0
2023-08-11 18:30:09.977834,-59.0
2023-08-11 18:30:09.985524,-47.0
2023-08-11 18:30:09.993213,-31.0
2023-08-11 18:30:10.000903,-21.0
2023-08-11 18:30:10.008593,-9.0
2023-08-11 18:30:10.016283,4.0
2023-08-11 18:30:10.023972,19.0
2023-08-11 18:30:10.031662,33.0
2023-08-11 18:30:10.039352,52.0
2023-08-11 18:30:10.047041,74.0
2023-08-11 18:30:10.054731,91.0
2023-08-11 18:30:10.062421,115.0
2023-08-11 18:30:10.070111,139.0
2023-08-11 18:30:10.077800,158.0
2023-08-11 18:30:10.085490,177.0
2023-08-11 18:30:10.093180,196.0
2023-08-11 18:30:10.100870,201.0
2023-08-11 18:30:10.108559,206.0
2023-08-11 18:30:10.116249,198.0
2023-08-11 18:30:10.123939,174.0
2023-08-11 18:30:10.131629,131.0
2023-08-11 18:30:10.139318,74.0
2023-08-11 18:30:10.147008,2.0
2023-08-11 18:30:10.154698,-69.0
2023-08-11 18:30:10.162388,-127.0
2023-08-11 18:30:10.170077,-172.0
2023-08-11 18:30:10.177767,-203.0
2023-08-11 18:30:10.185457,-220.0
2023-08-11 18:30:10.193147,-230.0
2023-08-11 18:30:10.200836,-230.0
2023-08-11 18:30:10.208526,-227.0
2023-08-11 18:30:10.216216,-222.0
2023-08-11 18:30:10.223905,-213.0
2023-08-11 18:30:10.231595,-198.0
2023-08-11 18:30:10.239285,-191.0
2023-08-11 18:30:10.246975,-182.0
2023-08-11 18:30:10.254664,-172.0
2023-08-11 18:30:10.262354,-165.0
2023-08-11 18:30:10.270044,-158.0
2023-08-11 18:30:10.277734,-162.0
2023-08-11 18:30:10.285423,-165.0
2023-08-11 18:30:10.293113,-155.0
2023-08-11 18:30:10.300803,-155.0
2023-08-11 18:30:10.308493,-155.0
2023-08-11 18:30:10.316182,-150.0
2023-08-11 18:30:10.323872,-148.0
2023-08-11 18:30:10.331562,-150.0
2023-08-11 18:30:10.339252,-148.0
2023-08-11 18:30:10.346941,-146.0
2023-08-11 18:30:10.354631,-146.0
2023-08-11 18:30:10.362321,-148.0
2023-08-11 18:30:10.370011,-153.0
2023-08-11 18:30:10.377700,-155.0
2023-08-11 18:30:10.385390,-146.0
2023-08-11 18:30:10.393080,-143.0
2023-08-11 18:30:10.400769,-143.0
2023-08-11 18:30:10.408459,-143.0
2023-08-11 18:30:10.416149,-148.0
2023-08-11 18:30:10.423839,-146.0
2023-08-11 18:30:10.431528,-139.0
2023-08-11 18:30:10.439218,-136.0
2023-08-11 18:30:10.446908,-136.0
2023-08-11 18:30:10.454598,-131.0
2023-08-11 18:30:10.462287,-129.0
2023-08-11 18:30:10.469977,-134.0
2023-08-11 18:30:10.477667,-136.0
2023-08-11 18:30:10.485357,-136.0
2023-08-11 18:30:10.493046,-134.0
2023-08-11 18:30:10.500736,-131.0
2023-08-11 18:30:10.508426,-127.0
2023-08-11 18:30:10.516116,-124.0
2023-08-11 18:30:10.523805,-119.0
2023-08-11 18:30:10.531495,-122.0
2023-08-11 18:30:10.539185,-127.0
2023-08-11 18:30:10.546875,-127.0
2023-08-11 18:30:10.554564,-129.0
2023-08-11 18:30:10.562254,-129.0
2023-08-11 18:30:10.569944,-122.0
2023-08-11 18:30:10.577633,-119.0
2023-08-11 18:30:10.585323,-119.0
2023-08-11 18:30:10.593013,-117.0
2023-08-11 18:30:10.600703,-115.0
2023-08-11 18:30:10.608392,-112.0
2023-08-11 18:30:10.616082,-110.0
2023-08-11 18:30:10.623772,-110.0
2023-08-11 18:30:10.631462,-107.0
2023-08-11 18:30:10.639151,-107.0
2023-08-11 18:30:10.646841,-107.0
2023-08-11 18:30:10.654531,-103.0
2023-08-11 18:30:10.662221,-100.0
2023-08-11 18:30:10.669910,-103.0
2023-08-11 18:30:10.677600,-103.0
2023-08-11 18:30:10.685290,-98.0
2023-08-11 18:30:10.692980,-95.0
2023-08-11 18:30:10.700669,-95.0
2023-08-11 18:30:10.708359,-98.0
2023-08-11 18:30:10.716049,-100.0
2023-08-11 18:30:10.723739,-88.0
2023-08-11 18:30:10.731428,-52.0
2023-08-11 18:30:10.739118,-21.0
2023-08-11 18:30:10.746808,-26.0
2023-08-11 18:30:10.754497,-31.0
2023-08-11 18:30:10.762187,-33.0
2023-08-11 18:30:10.769877,-71.0
2023-08-11 18:30:10.777567,-115.0
2023-08-11 18:30:10.785256,-117.0
2023-08-11 18:30:10.792946,-107.0
2023-08-11 18:30:10.800636,-112.0
2023-08-11 18:30:10.808326,-112.0
2023-08-11 18:30:10.816015,-110.0
2023-08-11 18:30:10.823705,-107.0
2023-08-11 18:30:10.831395,-105.0
2023-08-11 18:30:10.839085,-115.0
2023-08-11 18:30:10.846774,-136.0
2023-08-11 18:30:10.854464,-33.0
2023-08-11 18:30:10.862154,448.0
2023-08-11 18:30:10.869844,1167.0
2023-08-11 18:30:10.877533,1449.0
2023-08-11 18:30:10.885223,764.0
2023-08-11 18:30:10.892913,-409.0
2023-08-11 18:30:10.900603,-829.0
2023-08-11 18:30:10.908292,-388.0
2023-08-11 18:30:10.915982,-119.0
2023-08-11 18:30:10.923672,-222.0
2023-08-11 18:30:10.931362,-225.0
2023-08-11 18:30:10.939051,-148.0
2023-08-11 18:30:10.946741,-160.0
2023-08-11 18:30:10.954431,-162.0
2023-08-11 18:30:10.962120,-127.0
2023-08-11 18:30:10.969810,-115.0
2023-08-11 18:30:10.977500,-119.0
2023-08-11 18:30:10.985190,-107.0
2023-08-11 18:30:10.992879,-93.0
2023-08-11 18:30:11.000569,-83.0
2023-08-11 18:30:11.008259,-71.0
2023-08-11 18:30:11.015949,-57.0
2023-08-11 18:30:11.023638,-43.0
2023-08-11 18:30:11.031328,-35.0
2023-08-11 18:30:11.039018,-28.0
2023-08-11 18:30:11.046708,-14.0
2023-08-11 18:30:11.054397,0.0
2023-08-11 18:30:11.062087,16.0
2023-08-11 18:30:11.069777,31.0
2023-08-11 18:30:11.077467,47.0
2023-08-11 18:30:11.085156,64.0
2023-08-11 18:30:11.092846,81.0
2023-08-11 18:30:11.100536,103.0
2023-08-11 18:30:11.108226,129.0
2023-08-11 18:30:11.115915,150.0
2023-08-11 18:30:11.123605,172.0
2023-08-11 18:30:11.131295,194.0
2023-08-11 18:30:11.138984,208.0
2023-08-11 18:30:11.146674,218.0
2023-08-11 18:30:11.154364,222.0
2023-08-11 18:30:11.162054,218.0
2023-08-11 18:30:11.169743,196.0
2023-08-11 18:30:11.177433,155.0
2023-08-11 18:30:11.185123,95.0
2023-08-11 18:30:11.192813,28.0
2023-08-11 18:30:11.200502,-43.0
2023-08-11 18:30:11.208192,-103.0
2023-08-11 18:30:11.215882,-150.0
2023-08-11 18:30:11.223572,-186.0
2023-08-11 18:30:11.231261,-206.0
2023-08-11 18:30:11.238951,-208.0
2023-08-11 18:30:11.246641,-208.0
2023-08-11 18:30:11.254331,-208.0
2023-08-11 18:30:11.262020,-206.0
2023-08-11 18:30:11.269710,-201.0
2023-08-11 18:30:11.277400,-196.0
2023-08-11 18:30:11.285090,-184.0
2023-08-11 18:30:11.292779,-174.0
2023-08-11 18:30:11.300469,-167.0
2023-08-11 18:30:11.308159,-162.0
2023-08-11 18:30:11.315848,-158.0
2023-08-11 18:30:11.323538,-150.0
2023-08-11 18:30:11.331228,-146.0
2023-08-11 18:30:11.338918,-141.0
2023-08-11 18:30:11.346607,-136.0
2023-08-11 18:30:11.354297,-139.0
2023-08-11 18:30:11.361987,-148.0
2023-08-11 18:30:11.369677,-148.0
2023-08-11 18:30:11.377366,-141.0
2023-08-11 18:30:11.385056,-139.0
2023-08-11 18:30:11.392746,-139.0
2023-08-11 18:30:11.400436,-139.0
2023-08-11 18:30:11.408125,-139.0
2023-08-11 18:30:11.415815,-136.0
2023-08-11 18:30:11.423505,-131.0
2023-08-11 18:30:11.431195,-129.0
2023-08-11 18:30:11.438884,-127.0
2023-08-11 18:30:11.446574,-122.0
2023-08-11 18:30:11.454264,-122.0
2023-08-11 18:30:11.461954,-124.0
2023-08-11 18:30:11.469643,-119.0
2023-08-11 18:30:11.477333,-119.0
2023-08-11 18:30:11.485023,-122.0
2023-08-11 18:30:11.492712,-122.0
2023-08-11 18:30:11.500402,-117.0
2023-08-11 18:30:11.508092,-117.0
2023-08-11 18:30:11.515782,-115.0
2023-08-11 18:30:11.523471,-112.0
2023-08-11 18:30:11.531161,-117.0
2023-08-11 18:30:11.538851,-119.0
2023-08-11 18:30:11.546541,-117.0
2023-08-11 18:30:11.554230,-115.0
2023-08-11 18:30:11.561920,-112.0
2023-08-11 18:30:11.569610,-110.0
2023-08-11 18:30:11.577300,-107.0
2023-08-11 18:30:11.584989,-110.0
2023-08-11 18:30:11.592679,-115.0
2023-08-11 18:30:11.600369,-117.0
2023-08-11 18:30:11.608059,-112.0
2023-08-11 18:30:11.615748,-107.0
2023-08-11 18:30:11.623438,-105.0
2023-08-11 18:30:11.631128,-105.0
2023-08-11 18:30:11.638818,-107.0
2023-08-11 18:30:11.646507,-110.0
2023-08-11 18:30:11.654197,-105.0
2023-08-11 18:30:11.661887,-100.0
2023-08-11 18:30:11.669576,-100.0
2023-08-11 18:30:11.677266,-98.0
2023-08-11 18:30:11.684956,-93.0
2023-08-11 18:30:11.692646,-95.0
2023-08-11 18:30:11.700335,-95.0
2023-08-11 18:30:11.708025,-93.0
2023-08-11 18:30:11.715715,-93.0
2023-08-11 18:30:11.723405,-91.0
2023-08-11 18:30:11.731094,-88.0
2023-08-11 18:30:11.738784,-86.0
2023-08-11 18:30:11.746474,-83.0
2023-08-11 18:30:11.754164,-86.0
2023-08-11 18:30:11.761853,-88.0
2023-08-11 18:30:11.769543,-88.0
2023-08-11 18:30:11.777233,-93.0
2023-08-11 18:30:11.784923,-100.0
2023-08-11 18:30:11.792612,-98.0
2023-08-11 18:30:11.800302,-71.0
2023-08-11 18:30:11.807992,-31.0
2023-08-11 18:30:11.815682,-14.0
2023-08-11 18:30:11.823371,-21.0
2023-08-11 18:30:11.831061,-21.0
2023-08-11 18:30:11.838751,-31.0
2023-08-11 18:30:11.846440,-69.0
2023-08-11 18:30:11.854130,-95.0
2023-08-11 18:30:11.861820,-91.0
2023-08-11 18:30:11.869510,-86.0
2023-08-11 18:30:11.877199,-93.0
2023-08-11 18:30:11.884889,-91.0
2023-08-11 18:30:11.892579,-86.0
2023-08-11 18:30:11.900269,-93.0
2023-08-11 18:30:11.907958,-98.0
2023-08-11 18:30:11.915648,-107.0
2023-08-11 18:30:11.923338,-119.0
2023-08-11 18:30:11.931028,62.0
2023-08-11 18:30:11.938717,668.0
2023-08-11 18:30:11.946407,1356.0
2023-08-11 18:30:11.954097,1361.0
2023-08-11 18:30:11.961787,405.0
2023-08-11 18:30:11.969476,-656.0
2023-08-11 18:30:11.977166,-745.0
2023-08-11 18:30:11.984856,-268.0
2023-08-11 18:30:11.992546,-141.0
2023-08-11 18:30:12.000235,-222.0
2023-08-11 18:30:12.007925,-174.0
2023-08-11 18:30:12.015615,-139.0
2023-08-11 18:30:12.023304,-160.0
2023-08-11 18:30:12.030994,-141.0
2023-08-11 18:30:12.038684,-110.0
2023-08-11 18:30:12.046374,-103.0
2023-08-11 18:30:12.054063,-98.0
2023-08-11 18:30:12.061753,-76.0
2023-08-11 18:30:12.069443,-64.0
2023-08-11 18:30:12.077133,-59.0
2023-08-11 18:30:12.084822,-50.0
2023-08-11 18:30:12.092512,-35.0
2023-08-11 18:30:12.100202,-23.0
2023-08-11 18:30:12.107892,-14.0
2023-08-11 18:30:12.115581,0.0
2023-08-11 18:30:12.123271,16.0
2023-08-11 18:30:12.130961,28.0
2023-08-11 18:30:12.138651,40.0
2023-08-11 18:30:12.146340,57.0
2023-08-11 18:30:12.154030,79.0
2023-08-11 18:30:12.161720,91.0
2023-08-11 18:30:12.169410,103.0
2023-08-11 18:30:12.177099,131.0
2023-08-11 18:30:12.184789,155.0
2023-08-11 18:30:12.192479,170.0
2023-08-11 18:30:12.200168,194.0
2023-08-11 18:30:12.207858,213.0
2023-08-11 18:30:12.215548,222.0
2023-08-11 18:30:12.223238,230.0
2023-08-11 18:30:12.230927,234.0
2023-08-11 18:30:12.238617,222.0
2023-08-11 18:30:12.246307,201.0
2023-08-11 18:30:12.253997,160.0
2023-08-11 18:30:12.261686,93.0
2023-08-11 18:30:12.269376,16.0
2023-08-11 18:30:12.277066,-50.0
2023-08-11 18:30:12.284756,-98.0
2023-08-11 18:30:12.292445,-143.0
2023-08-11 18:30:12.300135,-179.0
2023-08-11 18:30:12.307825,-194.0
2023-08-11 18:30:12.315515,-196.0
2023-08-11 18:30:12.323204,-198.0
2023-08-11 18:30:12.330894,-194.0
2023-08-11 18:30:12.338584,-184.0
2023-08-11 18:30:12.346274,-177.0
2023-08-11 18:30:12.353963,-174.0
2023-08-11 18:30:12.361653,-165.0
2023-08-11 18:30:12.369343,-155.0
2023-08-11 18:30:12.377032,-146.0
2023-08-11 18:30:12.384722,-139.0
2023-08-11 18:30:12.392412,-136.0
2023-08-11 18:30:12.400102,-131.0
2023-08-11 18:30:12.407791,-124.0
2023-08-11 18:30:12.415481,-119.0
2023-08-11 18:30:12.423171,-119.0
2023-08-11 18:30:12.430861,-124.0
2023-08-11 18:30:12.438550,-131.0
2023-08-11 18:30:12.446240,-134.0
2023-08-11 18:30:12.453930,-127.0
2023-08-11 18:30:12.461620,-122.0
2023-08-11 18:30:12.469309,-124.0
2023-08-11 18:30:12.476999,-127.0
2023-08-11 18:30:12.484689,-129.0
2023-08-11 18:30:12.492379,-131.0
2023-08-11 18:30:12.500068,-129.0
2023-08-11 18:30:12.507758,-124.0
2023-08-11 18:30:12.515448,-127.0
2023-08-11 18:30:12.523138,-129.0
2023-08-11 18:30:12.530827,-127.0
2023-08-11 18:30:12.538517,-124.0
2023-08-11 18:30:12.546207,-117.0
2023-08-11 18:30:12.553896,-115.0
2023-08-11 18:30:12.561586,-117.0
2023-08-11 18:30:12.569276,-117.0
2023-08-11 18:30:12.576966,-112.0
2023-08-11 18:30:12.584655,-112.0
2023-08-11 18:30:12.592345,-117.0
2023-08-11 18:30:12.600035,-115.0
2023-08-11 18:30:12.607725,-110.0
2023-08-11 18:30:12.615414,-110.0
2023-08-11 18:30:12.623104,-112.0
2023-08-11 18:30:12.630794,-112.0
2023-08-11 18:30:12.638484,-112.0
2023-08-11 18:30:12.646173,-110.0
2023-08-11 18:30:12.653863,-110.0
2023-08-11 18:30:12.661553,-117.0
2023-08-11 18:30:12.669243,-119.0
2023-08-11 18:30:12.676932,-112.0
2023-08-11 18:30:12.684622,-110.0
2023-08-11 18:30:12.692312,-112.0
2023-08-11 18:30:12.700002,-107.0
2023-08-11 18:30:12.707691,-110.0
2023-08-11 18:30:12.715381,-107.0
2023-08-11 18:30:12.723071,-103.0
2023-08-11 18:30:12.730761,-103.0
2023-08-11 18:30:12.738450,-105.0
2023-08-11 18:30:12.746140,-103.0
2023-08-11 18:30:12.753830,-105.0
2023-08-11 18:30:12.761519,-107.0
2023-08-11 18:30:12.769209,-105.0
2023-08-11 18:30:12.776899,-100.0
2023-08-11 18:30:12.784589,-100.0
2023-08-11 18:30:12.792278,-103.0
2023-08-11 18:30:12.799968,-107.0
2023-08-11 18:30:12.807658,-107.0
2023-08-11 18:30:12.815348,-83.0
2023-08-11 18:30:12.823037,-38.0
2023-08-11 18:30:12.830727,-23.0
2023-08-11 18:30:12.838417,-38.0
2023-08-11 18:30:12.846107,-40.0
2023-08-11 18:30:12.853796,-50.0
2023-08-11 18:30:12.861486,-83.0
2023-08-11 18:30:12.869176,-107.0
2023-08-11 18:30:12.876866,-103.0
2023-08-11 18:30:12.884555,-103.0
2023-08-11 18:30:12.892245,-110.0
2023-08-11 18:30:12.899935,-103.0
2023-08-11 18:30:12.907625,-95.0
2023-08-11 18:30:12.915314,-98.0
2023-08-11 18:30:12.923004,-98.0
2023-08-11 18:30:12.930694,-115.0
2023-08-11 18:30:12.938383,-115.0
2023-08-11 18:30:12.946073,122.0
2023-08-11 18:30:12.953763,747.0
2023-08-11 18:30:12.961453,1356.0
2023-08-11 18:30:12.969142,1217.0
2023-08-11 18:30:12.976832,196.0
2023-08-11 18:30:12.984522,-740.0
2023-08-11 18:30:12.992212,-687.0
2023-08-11 18:30:12.999901,-222.0
2023-08-11 18:30:13.007591,-148.0
2023-08-11 18:30:13.015281,-227.0
2023-08-11 18:30:13.022971,-174.0
2023-08-11 18:30:13.030660,-143.0
2023-08-11 18:30:13.038350,-158.0
2023-08-11 18:30:13.046040,-131.0
2023-08-11 18:30:13.053730,-105.0
2023-08-11 18:30:13.061419,-107.0
2023-08-11 18:30:13.069109,-98.0
2023-08-11 18:30:13.076799,-81.0
2023-08-11 18:30:13.084489,-69.0
2023-08-11 18:30:13.092178,-59.0
2023-08-11 18:30:13.099868,-47.0
2023-08-11 18:30:13.107558,-38.0
2023-08-11 18:30:13.115247,-33.0
2023-08-11 18:30:13.122937,-23.0
2023-08-11 18:30:13.130627,-7.0
2023-08-11 18:30:13.138317,7.0
2023-08-11 18:30:13.146006,21.0
2023-08-11 18:30:13.153696,35.0
2023-08-11 18:30:13.161386,50.0
2023-08-11 18:30:13.169076,62.0
2023-08-11 18:30:13.176765,83.0
2023-08-11 18:30:13.184455,105.0
2023-08-11 18:30:13.192145,127.0
2023-08-11 18:30:13.199835,148.0
2023-08-11 18:30:13.207524,172.0
2023-08-11 18:30:13.215214,196.0
2023-08-11 18:30:13.222904,210.0
2023-08-11 18:30:13.230594,218.0
2023-08-11 18:30:13.238283,227.0
2023-08-11 18:30:13.245973,227.0
2023-08-11 18:30:13.253663,203.0
2023-08-11 18:30:13.261353,170.0
2023-08-11 18:30:13.269042,124.0
2023-08-11 18:30:13.276732,52.0
2023-08-11 18:30:13.284422,-19.0
2023-08-11 18:30:13.292111,-79.0
2023-08-11 18:30:13.299801,-129.0
2023-08-11 18:30:13.307491,-170.0
2023-08-11 18:30:13.315181,-191.0
2023-08-11 18:30:13.322870,-201.0
2023-08-11 18:30:13.330560,-208.0
2023-08-11 18:30:13.338250,-208.0
2023-08-11 18:30:13.345940,-198.0
2023-08-11 18:30:13.353629,-189.0
2023-08-11 18:30:13.361319,-182.0
2023-08-11 18:30:13.369009,-172.0
2023-08-11 18:30:13.376699,-162.0
2023-08-11 18:30:13.384388,-153.0
2023-08-11 18:30:13.392078,-148.0
2023-08-11 18:30:13.399768,-139.0
2023-08-11 18:30:13.407458,-131.0
2023-08-11 18:30:13.415147,-129.0
2023-08-11 18:30:13.422837,-124.0
2023-08-11 18:30:13.430527,-122.0
2023-08-11 18:30:13.438217,-122.0
2023-08-11 18:30:13.445906,-122.0
2023-08-11 18:30:13.453596,-119.0
2023-08-11 18:30:13.461286,-119.0
2023-08-11 18:30:13.468975,-119.0
2023-08-11 18:30:13.476665,-122.0
2023-08-11 18:30:13.484355,-127.0
2023-08-11 18:30:13.492045,-131.0
2023-08-11 18:30:13.499734,-131.0
2023-08-11 18:30:13.507424,-129.0
2023-08-11 18:30:13.515114,-131.0
2023-08-11 18:30:13.522804,-129.0
2023-08-11 18:30:13.530493,-124.0
2023-08-11 18:30:13.538183,-122.0
2023-08-11 18:30:13.545873,-117.0
2023-08-11 18:30:13.553563,-119.0
2023-08-11 18:30:13.561252,-119.0
2023-08-11 18:30:13.568942,-112.0
2023-08-11 18:30:13.576632,-112.0
2023-08-11 18:30:13.584322,-119.0
2023-08-11 18:30:13.592011,-119.0
2023-08-11 18:30:13.599701,-115.0
2023-08-11 18:30:13.607391,-124.0
2023-08-11 18:30:13.615081,-127.0
2023-08-11 18:30:13.622770,-115.0
2023-08-11 18:30:13.630460,-115.0
2023-08-11 18:30:13.638150,-124.0
2023-08-11 18:30:13.645839,-117.0
2023-08-11 18:30:13.653529,-119.0
2023-08-11 18:30:13.661219,-124.0
2023-08-11 18:30:13.668909,-119.0
2023-08-11 18:30:13.676598,-115.0
2023-08-11 18:30:13.684288,-112.0
2023-08-11 18:30:13.691978,-112.0
2023-08-11 18:30:13.699668,-105.0
2023-08-11 18:30:13.707357,-103.0
2023-08-11 18:30:13.715047,-105.0
2023-08-11 18:30:13.722737,-105.0
2023-08-11 18:30:13.730427,-103.0
2023-08-11 18:30:13.738116,-98.0
2023-08-11 18:30:13.745806,-100.0
2023-08-11 18:30:13.753496,-103.0
2023-08-11 18:30:13.761186,-98.0
2023-08-11 18:30:13.768875,-98.0
2023-08-11 18:30:13.776565,-93.0
2023-08-11 18:30:13.784255,-88.0
2023-08-11 18:30:13.791945,-91.0
2023-08-11 18:30:13.799634,-91.0
2023-08-11 18:30:13.807324,-88.0
2023-08-11 18:30:13.815014,-88.0
2023-08-11 18:30:13.822703,-91.0
2023-08-11 18:30:13.830393,-88.0
2023-08-11 18:30:13.838083,-86.0
2023-08-11 18:30:13.845773,-86.0
2023-08-11 18:30:13.853462,-83.0
2023-08-11 18:30:13.861152,-86.0
2023-08-11 18:30:13.868842,-88.0
2023-08-11 18:30:13.876532,-76.0
2023-08-11 18:30:13.884221,-40.0
2023-08-11 18:30:13.891911,-11.0
2023-08-11 18:30:13.899601,-16.0
2023-08-11 18:30:13.907291,-21.0
2023-08-11 18:30:13.914980,-21.0
2023-08-11 18:30:13.922670,-55.0
2023-08-11 18:30:13.930360,-93.0
2023-08-11 18:30:13.938050,-93.0
2023-08-11 18:30:13.945739,-88.0
2023-08-11 18:30:13.953429,-93.0
2023-08-11 18:30:13.961119,-93.0
2023-08-11 18:30:13.968809,-93.0
2023-08-11 18:30:13.976498,-93.0
2023-08-11 18:30:13.984188,-93.0
2023-08-11 18:30:13.991878,-105.0
2023-08-11 18:30:13.999567,-136.0
2023-08-11 18:30:14.007257,-55.0
2023-08-11 18:30:14.014947,383.0
2023-08-11 18:30:14.022637,1083.0
2023-08-11 18:30:14.030326,1421.0
2023-08-11 18:30:14.038016,826.0
2023-08-11 18:30:14.045706,-335.0
2023-08-11 18:30:14.053396,-836.0
2023-08-11 18:30:14.061085,-421.0
2023-08-11 18:30:14.068775,-117.0
2023-08-11 18:30:14.076465,-215.0
2023-08-11 18:30:14.084155,-232.0
2023-08-11 18:30:14.091844,-153.0
2023-08-11 18:30:14.099534,-158.0
2023-08-11 18:30:14.107224,-165.0
2023-08-11 18:30:14.114914,-131.0
2023-08-11 18:30:14.122603,-115.0
2023-08-11 18:30:14.130293,-115.0
2023-08-11 18:30:14.137983,-100.0
2023-08-11 18:30:14.145673,-91.0
2023-08-11 18:30:14.153362,-93.0
2023-08-11 18:30:14.161052,-81.0
2023-08-11 18:30:14.168742,-64.0
2023-08-11 18:30:14.176431,-55.0
2023-08-11 18:30:14.184121,-45.0
2023-08-11 18:30:14.191811,-38.0
2023-08-11 18:30:14.199501,-31.0
2023-08-11 18:30:14.207190,-11.0
2023-08-11 18:30:14.214880,2.0
2023-08-11 18:30:14.222570,11.0
2023-08-11 18:30:14.230260,28.0
2023-08-11 18:30:14.237949,47.0
2023-08-11 18:30:14.245639,64.0
2023-08-11 18:30:14.253329,86.0
2023-08-11 18:30:14.261019,110.0
2023-08-11 18:30:14.268708,131.0
2023-08-11 18:30:14.276398,150.0
2023-08-11 18:30:14.284088,172.0
2023-08-11 18:30:14.291778,189.0
2023-08-11 18:30:14.299467,201.0
2023-08-11 18:30:14.307157,203.0
2023-08-11 18:30:14.314847,196.0
2023-08-11 18:30:14.322537,179.0
2023-08-11 18:30:14.330226,146.0
2023-08-11 18:30:14.337916,91.0
2023-08-11 18:30:14.345606,21.0
2023-08-11 18:30:14.353296,-47.0
2023-08-11 18:30:14.360985,-107.0
2023-08-11 18:30:14.368675,-158.0
2023-08-11 18:30:14.376365,-196.0
2023-08-11 18:30:14.384054,-215.0
2023-08-11 18:30:14.391744,-222.0
2023-08-11 18:30:14.399434,-225.0
2023-08-11 18:30:14.407124,-225.0
2023-08-11 18:30:14.414813,-222.0
2023-08-11 18:30:14.422503,-213.0
2023-08-11 18:30:14.430193,-198.0
2023-08-11 18:30:14.437883,-191.0
2023-08-11 18:30:14.445572,-184.0
2023-08-11 18:30:14.453262,-174.0
2023-08-11 18:30:14.460952,-170.0
2023-08-11 18:30:14.468642,-167.0
2023-08-11 18:30:14.476331,-158.0
2023-08-11 18:30:14.484021,-155.0
2023-08-11 18:30:14.491711,-160.0
2023-08-11 18:30:14.499401,-160.0
2023-08-11 18:30:14.507090,-155.0
2023-08-11 18:30:14.514780,-153.0
2023-08-11 18:30:14.522470,-150.0
2023-08-11 18:30:14.530160,-150.0
2023-08-11 18:30:14.537849,-148.0
2023-08-11 18:30:14.545539,-146.0
2023-08-11 18:30:14.553229,-150.0
2023-08-11 18:30:14.560918,-150.0
2023-08-11 18:30:14.568608,-143.0
2023-08-11 18:30:14.576298,-141.0
2023-08-11 18:30:14.583988,-141.0
2023-08-11 18:30:14.591677,-141.0
2023-08-11 18:30:14.599367,-136.0
2023-08-11 18:30:14.607057,-134.0
2023-08-11 18:30:14.614747,-131.0
2023-08-11 18:30:14.622436,-134.0
2023-08-11 18:30:14.630126,-136.0
2023-08-11 18:30:14.637816,-134.0
2023-08-11 18:30:14.645506,-131.0
2023-08-11 18:30:14.653195,-131.0
2023-08-11 18:30:14.660885,-127.0
2023-08-11 18:30:14.668575,-124.0
2023-08-11 18:30:14.676265,-129.0
2023-08-11 18:30:14.683954,-139.0
2023-08-11 18:30:14.691644,-148.0
2023-08-11 18:30:14.699334,-148.0
2023-08-11 18:30:14.707024,-143.0
2023-08-11 18:30:14.714713,-139.0
2023-08-11 18:30:14.722403,-136.0
2023-08-11 18:30:14.730093,-141.0
2023-08-11 18:30:14.737782,-143.0
2023-08-11 18:30:14.745472,-136.0
2023-08-11 18:30:14.753162,-131.0
2023-08-11 18:30:14.760852,-129.0
2023-08-11 18:30:14.768541,-127.0
2023-08-11 18:30:14.776231,-129.0
2023-08-11 18:30:14.783921,-129.0
2023-08-11 18:30:14.791611,-127.0
2023-08-11 18:30:14.799300,-124.0
2023-08-11 18:30:14.806990,-124.0
2023-08-11 18:30:14.814680,-122.0
2023-08-11 18:30:14.822370,-119.0
2023-08-11 18:30:14.830059,-122.0
2023-08-11 18:30:14.837749,-117.0
2023-08-11 18:30:14.845439,-115.0
2023-08-11 18:30:14.853129,-117.0
2023-08-11 18:30:14.860818,-115.0
2023-08-11 18:30:14.868508,-112.0
2023-08-11 18:30:14.876198,-110.0
2023-08-11 18:30:14.883888,-110.0
2023-08-11 18:30:14.891577,-110.0
2023-08-11 18:30:14.899267,-105.0
2023-08-11 18:30:14.906957,-105.0
2023-08-11 18:30:14.914646,-110.0
2023-08-11 18:30:14.922336,-107.0
2023-08-11 18:30:14.930026,-105.0
2023-08-11 18:30:14.937716,-103.0
2023-08-11 18:30:14.945405,-103.0
2023-08-11 18:30:14.953095,-103.0
2023-08-11 18:30:14.960785,-112.0
2023-08-11 18:30:14.968475,-115.0
2023-08-11 18:30:14.976164,-95.0
2023-08-11 18:30:14.983854,-59.0
2023-08-11 18:30:14.991544,-33.0
2023-08-11 18:30:14.999234,-40.0
2023-08-11 18:30:15.006923,-47.0
2023-08-11 18:30:15.014613,-52.0
2023-08-11 18:30:15.022303,-81.0
2023-08-11 18:30:15.029993,-115.0
2023-08-11 18:30:15.037682,-115.0
2023-08-11 18:30:15.045372,-110.0
2023-08-11 18:30:15.053062,-117.0
2023-08-11 18:30:15.060752,-115.0
2023-08-11 18:30:15.068441,-110.0
2023-08-11 18:30:15.076131,-107.0
2023-08-11 18:30:15.083821,-105.0
2023-08-11 18:30:15.091510,-115.0
2023-08-11 18:30:15.099200,-141.0
2023-08-11 18:30:15.106890,-45.0
2023-08-11 18:30:15.114580,431.0
2023-08-11 18:30:15.122269,1157.0
2023-08-11 18:30:15.129959,1466.0
2023-08-11 18:30:15.137649,798.0
2023-08-11 18:30:15.145339,-397.0
2023-08-11 18:30:15.153028,-855.0
2023-08-11 18:30:15.160718,-409.0
2023-08-11 18:30:15.168408,-119.0
2023-08-11 18:30:15.176098,-225.0
2023-08-11 18:30:15.183787,-234.0
2023-08-11 18:30:15.191477,-155.0
2023-08-11 18:30:15.199167,-165.0
2023-08-11 18:30:15.206857,-167.0
2023-08-11 18:30:15.214546,-127.0
2023-08-11 18:30:15.222236,-115.0
2023-08-11 18:30:15.229926,-119.0
2023-08-11 18:30:15.237616,-105.0
2023-08-11 18:30:15.245305,-91.0
2023-08-11 18:30:15.252995,-83.0
2023-08-11 18:30:15.260685,-71.0
2023-08-11 18:30:15.268374,-59.0
2023-08-11 18:30:15.276064,-59.0
2023-08-11 18:30:15.283754,-50.0
2023-08-11 18:30:15.291444,-28.0
2023-08-11 18:30:15.299133,-11.0
2023-08-11 18:30:15.306823,0.0
2023-08-11 18:30:15.314513,14.0
2023-08-11 18:30:15.322203,26.0
2023-08-11 18:30:15.329892,38.0
2023-08-11 18:30:15.337582,59.0
2023-08-11 18:30:15.345272,79.0
2023-08-11 18:30:15.352962,98.0
2023-08-11 18:30:15.360651,122.0
2023-08-11 18:30:15.368341,146.0
2023-08-11 18:30:15.376031,165.0
2023-08-11 18:30:15.383721,182.0
2023-08-11 18:30:15.391410,201.0
2023-08-11 18:30:15.399100,215.0
2023-08-11 18:30:15.406790,218.0
2023-08-11 18:30:15.414480,213.0
2023-08-11 18:30:15.422169,194.0
2023-08-11 18:30:15.429859,158.0
2023-08-11 18:30:15.437549,105.0
2023-08-11 18:30:15.445238,38.0
2023-08-11 18:30:15.452928,-33.0
2023-08-11 18:30:15.460618,-95.0
2023-08-11 18:30:15.468308,-146.0
2023-08-11 18:30:15.475997,-186.0
2023-08-11 18:30:15.483687,-206.0
2023-08-11 18:30:15.491377,-213.0
2023-08-11 18:30:15.499067,-215.0
2023-08-11 18:30:15.506756,-215.0
2023-08-11 18:30:15.514446,-218.0
2023-08-11 18:30:15.522136,-210.0
2023-08-11 18:30:15.529826,-201.0
2023-08-11 18:30:15.537515,-191.0
2023-08-11 18:30:15.545205,-182.0
2023-08-11 18:30:15.552895,-174.0
2023-08-11 18:30:15.560585,-165.0
2023-08-11 18:30:15.568274,-160.0
2023-08-11 18:30:15.575964,-153.0
2023-08-11 18:30:15.583654,-143.0
2023-08-11 18:30:15.591344,-143.0
2023-08-11 18:30:15.599033,-141.0
2023-08-11 18:30:15.606723,-136.0
2023-08-11 18:30:15.614413,-136.0
2023-08-11 18:30:15.622102,-139.0
2023-08-11 18:30:15.629792,-136.0
2023-08-11 18:30:15.637482,-134.0
2023-08-11 18:30:15.645172,-131.0
2023-08-11 18:30:15.652861,-129.0
2023-08-11 18:30:15.660551,-129.0
2023-08-11 18:30:15.668241,-127.0
2023-08-11 18:30:15.675931,-124.0
2023-08-11 18:30:15.683620,-124.0
2023-08-11 18:30:15.691310,-124.0
2023-08-11 18:30:15.699000,-124.0
2023-08-11 18:30:15.706690,-127.0
2023-08-11 18:30:15.714379,-124.0
2023-08-11 18:30:15.722069,-119.0
2023-08-11 18:30:15.729759,-117.0
2023-08-11 18:30:15.737449,-117.0
2023-08-11 18:30:15.745138,-117.0
2023-08-11 18:30:15.752828,-122.0
2023-08-11 18:30:15.760518,-122.0
2023-08-11 18:30:15.768208,-119.0
2023-08-11 18:30:15.775897,-122.0
2023-08-11 18:30:15.783587,-117.0
2023-08-11 18:30:15.791277,-112.0
2023-08-11 18:30:15.798966,-117.0
2023-08-11 18:30:15.806656,-117.0
2023-08-11 18:30:15.814346,-122.0
2023-08-11 18:30:15.822036,-124.0
2023-08-11 18:30:15.829725,-117.0
2023-08-11 18:30:15.837415,-112.0
2023-08-11 18:30:15.845105,-117.0
2023-08-11 18:30:15.852795,-112.0
2023-08-11 18:30:15.860484,-110.0
2023-08-11 18:30:15.868174,-107.0
2023-08-11 18:30:15.875864,-107.0
2023-08-11 18:30:15.883554,-107.0
2023-08-11 18:30:15.891243,-107.0
2023-08-11 18:30:15.898933,-103.0
2023-08-11 18:30:15.906623,-100.0
2023-08-11 18:30:15.914313,-100.0
2023-08-11 18:30:15.922002,-98.0
2023-08-11 18:30:15.929692,-100.0
2023-08-11 18:30:15.937382,-100.0
2023-08-11 18:30:15.945072,-98.0
2023-08-11 18:30:15.952761,-98.0
2023-08-11 18:30:15.960451,-98.0
2023-08-11 18:30:15.968141,-95.0
2023-08-11 18:30:15.975831,-93.0
2023-08-11 18:30:15.983520,-95.0
2023-08-11 18:30:15.991210,-95.0
2023-08-11 18:30:15.998900,-93.0
2023-08-11 18:30:16.006589,-100.0
2023-08-11 18:30:16.014279,-110.0
2023-08-11 18:30:16.021969,-105.0
2023-08-11 18:30:16.029659,-71.0
2023-08-11 18:30:16.037348,-35.0
2023-08-11 18:30:16.045038,-31.0
2023-08-11 18:30:16.052728,-33.0
2023-08-11 18:30:16.060418,-31.0
2023-08-11 18:30:16.068107,-57.0
2023-08-11 18:30:16.075797,-93.0
2023-08-11 18:30:16.083487,-103.0
2023-08-11 18:30:16.091177,-98.0
2023-08-11 18:30:16.098866,-98.0
2023-08-11 18:30:16.106556,-95.0
2023-08-11 18:30:16.114246,-95.0
2023-08-11 18:30:16.121936,-98.0
2023-08-11 18:30:16.129625,-98.0
2023-08-11 18:30:16.137315,-98.0
2023-08-11 18:30:16.145005,-119.0
2023-08-11 18:30:16.152695,-69.0
2023-08-11 18:30:16.160384,323.0
2023-08-11 18:30:16.168074,1030.0
2023-08-11 18:30:16.175764,1430.0
2023-08-11 18:30:16.183453,893.0
2023-08-11 18:30:16.191143,-256.0
2023-08-11 18:30:16.198833,-834.0
2023-08-11 18:30:16.206523,-498.0
2023-08-11 18:30:16.214212,-153.0
2023-08-11 18:30:16.221902,-184.0
2023-08-11 18:30:16.229592,-210.0
2023-08-11 18:30:16.237282,-150.0
2023-08-11 18:30:16.244971,-148.0
2023-08-11 18:30:16.252661,-153.0
2023-08-11 18:30:16.260351,-124.0
2023-08-11 18:30:16.268041,-110.0
2023-08-11 18:30:16.275730,-105.0
2023-08-11 18:30:16.283420,-91.0
2023-08-11 18:30:16.291110,-79.0
2023-08-11 18:30:16.298800,-71.0
2023-08-11 18:30:16.306489,-64.0
2023-08-11 18:30:16.314179,-52.0
2023-08-11 18:30:16.321869,-38.0
2023-08-11 18:30:16.329559,-26.0
2023-08-11 18:30:16.337248,-16.0
2023-08-11 18:30:16.344938,-7.0
2023-08-11 18:30:16.352628,4.0
2023-08-11 18:30:16.360317,16.0
2023-08-11 18:30:16.368007,31.0
2023-08-11 18:30:16.375697,47.0
2023-08-11 18:30:16.383387,64.0
2023-08-11 18:30:16.391076,79.0
2023-08-11 18:30:16.398766,88.0
2023-08-11 18:30:16.406456,103.0
2023-08-11 18:30:16.414146,129.0
2023-08-11 18:30:16.421835,153.0
2023-08-11 18:30:16.429525,167.0
2023-08-11 18:30:16.437215,184.0
2023-08-11 18:30:16.444905,191.0
2023-08-11 18:30:16.452594,194.0
2023-08-11 18:30:16.460284,189.0
2023-08-11 18:30:16.467974,174.0
2023-08-11 18:30:16.475664,143.0
2023-08-11 18:30:16.483353,91.0
2023-08-11 18:30:16.491043,21.0
2023-08-11 18:30:16.498733,-43.0
2023-08-11 18:30:16.506423,-103.0
2023-08-11 18:30:16.514112,-158.0
2023-08-11 18:30:16.521802,-191.0
2023-08-11 18:30:16.529492,-210.0
2023-08-11 18:30:16.537181,-222.0
2023-08-11 18:30:16.544871,-222.0
2023-08-11 18:30:16.552561,-218.0
2023-08-11 18:30:16.560251,-210.0
2023-08-11 18:30:16.567940,-201.0
2023-08-11 18:30:16.575630,-194.0
2023-08-11 18:30:16.583320,-186.0
2023-08-11 18:30:16.591010,-177.0
2023-08-11 18:30:16.598699,-165.0
2023-08-11 18:30:16.606389,-158.0
2023-08-11 18:30:16.614079,-148.0
2023-08-11 18:30:16.621769,-143.0
2023-08-11 18:30:16.629458,-143.0
2023-08-11 18:30:16.637148,-141.0
2023-08-11 18:30:16.644838,-136.0
2023-08-11 18:30:16.652528,-136.0
2023-08-11 18:30:16.660217,-136.0
2023-08-11 18:30:16.667907,-136.0
2023-08-11 18:30:16.675597,-136.0
2023-08-11 18:30:16.683287,-134.0
2023-08-11 18:30:16.690976,-134.0
2023-08-11 18:30:16.698666,-134.0
2023-08-11 18:30:16.706356,-139.0
2023-08-11 18:30:16.714045,-141.0
2023-08-11 18:30:16.721735,-143.0
2023-08-11 18:30:16.729425,-139.0
2023-08-11 18:30:16.737115,-134.0
2023-08-11 18:30:16.744804,-131.0
2023-08-11 18:30:16.752494,-129.0
2023-08-11 18:30:16.760184,-129.0
2023-08-11 18:30:16.767874,-134.0
2023-08-11 18:30:16.775563,-131.0
2023-08-11 18:30:16.783253,-127.0
2023-08-11 18:30:16.790943,-129.0
2023-08-11 18:30:16.798633,-127.0
2023-08-11 18:30:16.806322,-124.0
2023-08-11 18:30:16.814012,-124.0
2023-08-11 18:30:16.821702,-122.0
2023-08-11 18:30:16.829392,-117.0
2023-08-11 18:30:16.837081,-117.0
2023-08-11 18:30:16.844771,-117.0
2023-08-11 18:30:16.852461,-117.0
2023-08-11 18:30:16.860151,-115.0
2023-08-11 18:30:16.867840,-112.0
2023-08-11 18:30:16.875530,-110.0
2023-08-11 18:30:16.883220,-110.0
2023-08-11 18:30:16.890909,-110.0
2023-08-11 18:30:16.898599,-110.0
2023-08-11 18:30:16.906289,-110.0
2023-08-11 18:30:16.913979,-107.0
2023-08-11 18:30:16.921668,-103.0
2023-08-11 18:30:16.929358,-103.0
2023-08-11 18:30:16.937048,-103.0
2023-08-11 18:30:16.944738,-103.0
2023-08-11 18:30:16.952427,-105.0
2023-08-11 18:30:16.960117,-100.0
2023-08-11 18:30:16.967807,-98.0
2023-08-11 18:30:16.975497,-100.0
2023-08-11 18:30:16.983186,-105.0
2023-08-11 18:30:16.990876,-110.0
2023-08-11 18:30:16.998566,-105.0
2023-08-11 18:30:17.006256,-103.0
2023-08-11 18:30:17.013945,-107.0
2023-08-11 18:30:17.021635,-110.0
2023-08-11 18:30:17.029325,-105.0
2023-08-11 18:30:17.037015,-103.0
2023-08-11 18:30:17.044704,-103.0
2023-08-11 18:30:17.052394,-98.0
2023-08-11 18:30:17.060084,-95.0
2023-08-11 18:30:17.067773,-100.0
2023-08-11 18:30:17.075463,-105.0
2023-08-11 18:30:17.083153,-98.0
2023-08-11 18:30:17.090843,-64.0
2023-08-11 18:30:17.098532,-26.0
2023-08-11 18:30:17.106222,-23.0
2023-08-11 18:30:17.113912,-31.0
2023-08-11 18:30:17.121602,-28.0
2023-08-11 18:30:17.129291,-57.0
2023-08-11 18:30:17.136981,-98.0
2023-08-11 18:30:17.144671,-105.0
2023-08-11 18:30:17.152361,-95.0
2023-08-11 18:30:17.160050,-98.0
2023-08-11 18:30:17.167740,-103.0
2023-08-11 18:30:17.175430,-100.0
2023-08-11 18:30:17.183120,-98.0
2023-08-11 18:30:17.190809,-100.0
2023-08-11 18:30:17.198499,-107.0
2023-08-11 18:30:17.206189,-129.0
2023-08-11 18:30:17.213879,-71.0
2023-08-11 18:30:17.221568,323.0
2023-08-11 18:30:17.229258,1028.0
2023-08-11 18:30:17.236948,1442.0
2023-08-11 18:30:17.244637,932.0
2023-08-11 18:30:17.252327,-237.0
2023-08-11 18:30:17.260017,-846.0
2023-08-11 18:30:17.267707,-481.0
2023-08-11 18:30:17.275396,-122.0
2023-08-11 18:30:17.283086,-191.0
2023-08-11 18:30:17.290776,-230.0
2023-08-11 18:30:17.298466,-153.0
2023-08-11 18:30:17.306155,-148.0
2023-08-11 18:30:17.313845,-158.0
2023-08-11 18:30:17.321535,-127.0
2023-08-11 18:30:17.329225,-110.0
2023-08-11 18:30:17.336914,-110.0
2023-08-11 18:30:17.344604,-95.0
2023-08-11 18:30:17.352294,-81.0
2023-08-11 18:30:17.359984,-71.0
2023-08-11 18:30:17.367673,-62.0
2023-08-11 18:30:17.375363,-47.0
2023-08-11 18:30:17.383053,-38.0
2023-08-11 18:30:17.390743,-28.0
2023-08-11 18:30:17.398432,-14.0
2023-08-11 18:30:17.406122,-2.0
2023-08-11 18:30:17.413812,9.0
2023-08-11 18:30:17.421501,23.0
2023-08-11 18:30:17.429191,35.0
2023-08-11 18:30:17.436881,47.0
2023-08-11 18:30:17.444571,64.0
2023-08-11 18:30:17.452260,81.0
2023-08-11 18:30:17.459950,103.0
2023-08-11 18:30:17.467640,122.0
2023-08-11 18:30:17.475330,143.0
2023-08-11 18:30:17.483019,162.0
2023-08-11 18:30:17.490709,184.0
2023-08-11 18:30:17.498399,201.0
2023-08-11 18:30:17.506089,208.0
2023-08-11 18:30:17.513778,208.0
2023-08-11 18:30:17.521468,194.0
2023-08-11 18:30:17.529158,170.0
2023-08-11 18:30:17.536848,146.0
2023-08-11 18:30:17.544537,100.0
2023-08-11 18:30:17.552227,31.0
2023-08-11 18:30:17.559917,-40.0
2023-08-11 18:30:17.567607,-100.0
2023-08-11 18:30:17.575296,-150.0
2023-08-11 18:30:17.582986,-186.0
2023-08-11 18:30:17.590676,-208.0
2023-08-11 18:30:17.598366,-218.0
2023-08-11 18:30:17.606055,-220.0
2023-08-11 18:30:17.613745,-218.0
2023-08-11 18:30:17.621435,-213.0
2023-08-11 18:30:17.629124,-203.0
2023-08-11 18:30:17.636814,-194.0
2023-08-11 18:30:17.644504,-184.0
2023-08-11 18:30:17.652194,-174.0
2023-08-11 18:30:17.659883,-167.0
2023-08-11 18:30:17.667573,-160.0
2023-08-11 18:30:17.675263,-153.0
2023-08-11 18:30:17.682953,-150.0
2023-08-11 18:30:17.690642,-148.0
2023-08-11 18:30:17.698332,-141.0
2023-08-11 18:30:17.706022,-139.0
2023-08-11 18:30:17.713712,-136.0
2023-08-11 18:30:17.721401,-134.0
2023-08-11 18:30:17.729091,-134.0
2023-08-11 18:30:17.736781,-134.0
2023-08-11 18:30:17.744471,-131.0
2023-08-11 18:30:17.752160,-131.0
2023-08-11 18:30:17.759850,-131.0
2023-08-11 18:30:17.767540,-131.0
2023-08-11 18:30:17.775230,-131.0
2023-08-11 18:30:17.782919,-136.0
2023-08-11 18:30:17.790609,-134.0
2023-08-11 18:30:17.798299,-129.0
2023-08-11 18:30:17.805988,-124.0
2023-08-11 18:30:17.813678,-124.0
2023-08-11 18:30:17.821368,-122.0
2023-08-11 18:30:17.829058,-124.0
2023-08-11 18:30:17.836747,-127.0
2023-08-11 18:30:17.844437,-124.0
2023-08-11 18:30:17.852127,-122.0
2023-08-11 18:30:17.859817,-122.0
2023-08-11 18:30:17.867506,-119.0
2023-08-11 18:30:17.875196,-117.0
2023-08-11 18:30:17.882886,-117.0
2023-08-11 18:30:17.890576,-117.0
2023-08-11 18:30:17.898265,-112.0
2023-08-11 18:30:17.905955,-110.0
2023-08-11 18:30:17.913645,-107.0
2023-08-11 18:30:17.921335,-107.0
2023-08-11 18:30:17.929024,-107.0
2023-08-11 18:30:17.936714,-107.0
2023-08-11 18:30:17.944404,-105.0
2023-08-11 18:30:17.952094,-100.0
2023-08-11 18:30:17.959783,-98.0
2023-08-11 18:30:17.967473,-100.0
2023-08-11 18:30:17.975163,-100.0
2023-08-11 18:30:17.982852,-98.0
2023-08-11 18:30:17.990542,-95.0
2023-08-11 18:30:17.998232,-93.0
2023-08-11 18:30:18.005922,-91.0
2023-08-11 18:30:18.013611,-93.0
2023-08-11 18:30:18.021301,-98.0
2023-08-11 18:30:18.028991,-100.0
2023-08-11 18:30:18.036681,-93.0
2023-08-11 18:30:18.044370,-91.0
2023-08-11 18:30:18.052060,-93.0
2023-08-11 18:30:18.059750,-98.0
2023-08-11 18:30:18.067440,-100.0
2023-08-11 18:30:18.075129,-98.0
2023-08-11 18:30:18.082819,-93.0
2023-08-11 18:30:18.090509,-91.0
2023-08-11 18:30:18.098199,-88.0
2023-08-11 18:30:18.105888,-86.0
2023-08-11 18:30:18.113578,-88.0
2023-08-11 18:30:18.121268,-86.0
2023-08-11 18:30:18.128958,-83.0
2023-08-11 18:30:18.136647,-81.0
2023-08-11 18:30:18.144337,-81.0
2023-08-11 18:30:18.152027,-86.0
2023-08-11 18:30:18.159716,-88.0
2023-08-11 18:30:18.167406,-81.0
2023-08-11 18:30:18.175096,-50.0
2023-08-11 18:30:18.182786,-16.0
2023-08-11 18:30:18.190475,-14.0
2023-08-11 18:30:18.198165,-21.0
2023-08-11 18:30:18.205855,-19.0
2023-08-11 18:30:18.213545,-43.0
2023-08-11 18:30:18.221234,-83.0
2023-08-11 18:30:18.228924,-93.0
2023-08-11 18:30:18.236614,-86.0
2023-08-11 18:30:18.244304,-88.0
2023-08-11 18:30:18.251993,-91.0
2023-08-11 18:30:18.259683,-86.0
2023-08-11 18:30:18.267373,-86.0
2023-08-11 18:30:18.275063,-83.0
2023-08-11 18:30:18.282752,-88.0
2023-08-11 18:30:18.290442,-117.0
2023-08-11 18:30:18.298132,-74.0
2023-08-11 18:30:18.305822,301.0
2023-08-11 18:30:18.313511,1013.0
2023-08-11 18:30:18.321201,1478.0
2023-08-11 18:30:18.328891,1032.0
2023-08-11 18:30:18.336580,-139.0
2023-08-11 18:30:18.344270,-834.0
2023-08-11 18:30:18.351960,-512.0
2023-08-11 18:30:18.359650,-117.0
2023-08-11 18:30:18.367339,-172.0
2023-08-11 18:30:18.375029,-227.0
2023-08-11 18:30:18.382719,-150.0
2023-08-11 18:30:18.390409,-139.0
2023-08-11 18:30:18.398098,-150.0
2023-08-11 18:30:18.405788,-119.0
2023-08-11 18:30:18.413478,-100.0
2023-08-11 18:30:18.421168,-103.0
2023-08-11 18:30:18.428857,-91.0
2023-08-11 18:30:18.436547,-74.0
2023-08-11 18:30:18.444237,-67.0
2023-08-11 18:30:18.451927,-55.0
2023-08-11 18:30:18.459616,-40.0
2023-08-11 18:30:18.467306,-31.0
2023-08-11 18:30:18.474996,-23.0
2023-08-11 18:30:18.482686,-9.0
2023-08-11 18:30:18.490375,2.0
2023-08-11 18:30:18.498065,16.0
2023-08-11 18:30:18.505755,31.0
2023-08-11 18:30:18.513444,40.0
2023-08-11 18:30:18.521134,52.0
2023-08-11 18:30:18.528824,62.0
2023-08-11 18:30:18.536514,76.0
2023-08-11 18:30:18.544203,98.0
2023-08-11 18:30:18.551893,122.0
2023-08-11 18:30:18.559583,139.0
2023-08-11 18:30:18.567273,158.0
2023-08-11 18:30:18.574962,179.0
2023-08-11 18:30:18.582652,198.0
2023-08-11 18:30:18.590342,208.0
2023-08-11 18:30:18.598032,213.0
2023-08-11 18:30:18.605721,208.0
2023-08-11 18:30:18.613411,194.0
2023-08-11 18:30:18.621101,170.0
2023-08-11 18:30:18.628791,124.0
2023-08-11 18:30:18.636480,57.0
2023-08-11 18:30:18.644170,-16.0
2023-08-11 18:30:18.651860,-91.0
2023-08-11 18:30:18.659550,-141.0
2023-08-11 18:30:18.667239,-174.0
2023-08-11 18:30:18.674929,-203.0
2023-08-11 18:30:18.682619,-220.0
2023-08-11 18:30:18.690308,-220.0
2023-08-11 18:30:18.697998,-218.0
2023-08-11 18:30:18.705688,-213.0
2023-08-11 18:30:18.713378,-201.0
2023-08-11 18:30:18.721067,-191.0
2023-08-11 18:30:18.728757,-184.0
2023-08-11 18:30:18.736447,-177.0
2023-08-11 18:30:18.744137,-172.0
2023-08-11 18:30:18.751826,-165.0
2023-08-11 18:30:18.759516,-150.0
2023-08-11 18:30:18.767206,-143.0
2023-08-11 18:30:18.774896,-141.0
2023-08-11 18:30:18.782585,-139.0
2023-08-11 18:30:18.790275,-139.0
2023-08-11 18:30:18.797965,-136.0
2023-08-11 18:30:18.805655,-131.0
2023-08-11 18:30:18.813344,-131.0
2023-08-11 18:30:18.821034,-131.0
2023-08-11 18:30:18.828724,-131.0
2023-08-11 18:30:18.836414,-131.0
2023-08-11 18:30:18.844103,-131.0
2023-08-11 18:30:18.851793,-127.0
2023-08-11 18:30:18.859483,-124.0
2023-08-11 18:30:18.867172,-124.0
2023-08-11 18:30:18.874862,-124.0
2023-08-11 18:30:18.882552,-127.0
2023-08-11 18:30:18.890242,-124.0
2023-08-11 18:30:18.897931,-117.0
2023-08-11 18:30:18.905621,-119.0
2023-08-11 18:30:18.913311,-119.0
2023-08-11 18:30:18.921001,-115.0
2023-08-11 18:30:18.928690,-117.0
2023-08-11 18:30:18.936380,-117.0
2023-08-11 18:30:18.944070,-115.0
2023-08-11 18:30:18.951760,-112.0
2023-08-11 18:30:18.959449,-112.0
2023-08-11 18:30:18.967139,-112.0
2023-08-11 18:30:18.974829,-112.0
2023-08-11 18:30:18.982519,-112.0
2023-08-11 18:30:18.990208,-107.0
2023-08-11 18:30:18.997898,-103.0
2023-08-11 18:30:19.005588,-105.0
2023-08-11 18:30:19.013278,-103.0
2023-08-11 18:30:19.020967,-100.0
2023-08-11 18:30:19.028657,-100.0
2023-08-11 18:30:19.036347,-103.0
2023-08-11 18:30:19.044036,-107.0
2023-08-11 18:30:19.051726,-105.0
2023-08-11 18:30:19.059416,-100.0
2023-08-11 18:30:19.067106,-100.0
2023-08-11 18:30:19.074795,-100.0
2023-08-11 18:30:19.082485,-98.0
2023-08-11 18:30:19.090175,-95.0
2023-08-11 18:30:19.097865,-91.0
2023-08-11 18:30:19.105554,-93.0
2023-08-11 18:30:19.113244,-93.0
2023-08-11 18:30:19.120934,-88.0
2023-08-11 18:30:19.128624,-86.0
2023-08-11 18:30:19.136313,-83.0
2023-08-11 18:30:19.144003,-83.0
2023-08-11 18:30:19.151693,-86.0
2023-08-11 18:30:19.159383,-86.0
2023-08-11 18:30:19.167072,-86.0
2023-08-11 18:30:19.174762,-83.0
2023-08-11 18:30:19.182452,-83.0
2023-08-11 18:30:19.190142,-93.0
2023-08-11 18:30:19.197831,-98.0
2023-08-11 18:30:19.205521,-93.0
2023-08-11 18:30:19.213211,-88.0
2023-08-11 18:30:19.220901,-88.0
2023-08-11 18:30:19.228590,-86.0
2023-08-11 18:30:19.236280,-81.0
2023-08-11 18:30:19.243970,-81.0
2023-08-11 18:30:19.251659,-83.0
2023-08-11 18:30:19.259349,-69.0
2023-08-11 18:30:19.267039,-28.0
2023-08-11 18:30:19.274729,-7.0
2023-08-11 18:30:19.282418,-19.0
2023-08-11 18:30:19.290108,-16.0
2023-08-11 18:30:19.297798,-23.0
2023-08-11 18:30:19.305488,-64.0
2023-08-11 18:30:19.313177,-86.0
2023-08-11 18:30:19.320867,-76.0
2023-08-11 18:30:19.328557,-79.0
2023-08-11 18:30:19.336247,-88.0
2023-08-11 18:30:19.343936,-83.0
2023-08-11 18:30:19.351626,-81.0
2023-08-11 18:30:19.359316,-79.0
2023-08-11 18:30:19.367006,-79.0
2023-08-11 18:30:19.374695,-98.0
2023-08-11 18:30:19.382385,-105.0
2023-08-11 18:30:19.390075,122.0
2023-08-11 18:30:19.397765,762.0
2023-08-11 18:30:19.405454,1397.0
2023-08-11 18:30:19.413144,1265.0
2023-08-11 18:30:19.420834,230.0
2023-08-11 18:30:19.428523,-730.0
2023-08-11 18:30:19.436213,-702.0
2023-08-11 18:30:19.443903,-230.0
2023-08-11 18:30:19.451593,-129.0
2023-08-11 18:30:19.459282,-203.0
2023-08-11 18:30:19.466972,-160.0
2023-08-11 18:30:19.474662,-124.0
2023-08-11 18:30:19.482352,-139.0
2023-08-11 18:30:19.490041,-119.0
2023-08-11 18:30:19.497731,-95.0
2023-08-11 18:30:19.505421,-98.0
2023-08-11 18:30:19.513111,-86.0
2023-08-11 18:30:19.520800,-67.0
2023-08-11 18:30:19.528490,-62.0
2023-08-11 18:30:19.536180,-55.0
2023-08-11 18:30:19.543870,-47.0
2023-08-11 18:30:19.551559,-40.0
2023-08-11 18:30:19.559249,-28.0
2023-08-11 18:30:19.566939,-14.0
2023-08-11 18:30:19.574629,-4.0
2023-08-11 18:30:19.582318,4.0
2023-08-11 18:30:19.590008,19.0
2023-08-11 18:30:19.597698,35.0
2023-08-11 18:30:19.605387,50.0
2023-08-11 18:30:19.613077,64.0
2023-08-11 18:30:19.620767,79.0
2023-08-11 18:30:19.628457,95.0
2023-08-11 18:30:19.636146,115.0
2023-08-11 18:30:19.643836,134.0
2023-08-11 18:30:19.651526,155.0
2023-08-11 18:30:19.659216,172.0
2023-08-11 18:30:19.666905,189.0
2023-08-11 18:30:19.674595,203.0
2023-08-11 18:30:19.682285,208.0
2023-08-11 18:30:19.689975,208.0
2023-08-11 18:30:19.697664,206.0
2023-08-11 18:30:19.705354,184.0
2023-08-11 18:30:19.713044,141.0
2023-08-11 18:30:19.720734,79.0
2023-08-11 18:30:19.728423,9.0
2023-08-11 18:30:19.736113,-55.0
2023-08-11 18:30:19.743803,-107.0
2023-08-11 18:30:19.751493,-148.0
2023-08-11 18:30:19.759182,-177.0
2023-08-11 18:30:19.766872,-196.0
2023-08-11 18:30:19.774562,-210.0
2023-08-11 18:30:19.782251,-218.0
2023-08-11 18:30:19.789941,-206.0
2023-08-11 18:30:19.797631,-191.0
2023-08-11 18:30:19.805321,-186.0
2023-08-11 18:30:19.813010,-182.0
2023-08-11 18:30:19.820700,-172.0
2023-08-11 18:30:19.828390,-162.0
2023-08-11 18:30:19.836080,-153.0
2023-08-11 18:30:19.843769,-146.0
2023-08-11 18:30:19.851459,-141.0
2023-08-11 18:30:19.859149,-136.0
2023-08-11 18:30:19.866839,-134.0
2023-08-11 18:30:19.874528,-129.0
2023-08-11 18:30:19.882218,-127.0
2023-08-11 18:30:19.889908,-129.0
2023-08-11 18:30:19.897598,-131.0
2023-08-11 18:30:19.905287,-136.0
2023-08-11 18:30:19.912977,-134.0
2023-08-11 18:30:19.920667,-129.0
2023-08-11 18:30:19.928357,-134.0
2023-08-11 18:30:19.936046,-136.0
2023-08-11 18:30:19.943736,-131.0
2023-08-11 18:30:19.951426,-129.0
2023-08-11 18:30:19.959115,-127.0
2023-08-11 18:30:19.966805,-124.0
2023-08-11 18:30:19.974495,-124.0
2023-08-11 18:30:19.982185,-129.0
2023-08-11 18:30:19.989874,-129.0
2023-08-11 18:30:19.997564,-129.0
2023-08-11 18:30:20.005254,-129.0
2023-08-11 18:30:20.012944,-122.0
2023-08-11 18:30:20.020633,-117.0
2023-08-11 18:30:20.028323,-119.0
2023-08-11 18:30:20.036013,-119.0
2023-08-11 18:30:20.043703,-117.0
2023-08-11 18:30:20.051392,-122.0
2023-08-11 18:30:20.059082,-122.0
2023-08-11 18:30:20.066772,-115.0
2023-08-11 18:30:20.074462,-112.0
2023-08-11 18:30:20.082151,-115.0
2023-08-11 18:30:20.089841,-115.0
2023-08-11 18:30:20.097531,-112.0
2023-08-11 18:30:20.105221,-107.0
2023-08-11 18:30:20.112910,-107.0
2023-08-11 18:30:20.120600,-107.0
2023-08-11 18:30:20.128290,-110.0
2023-08-11 18:30:20.135979,-110.0
2023-08-11 18:30:20.143669,-107.0
2023-08-11 18:30:20.151359,-105.0
2023-08-11 18:30:20.159049,-107.0
2023-08-11 18:30:20.166738,-100.0
2023-08-11 18:30:20.174428,-98.0
2023-08-11 18:30:20.182118,-103.0
2023-08-11 18:30:20.189808,-103.0
2023-08-11 18:30:20.197497,-95.0
2023-08-11 18:30:20.205187,-93.0
2023-08-11 18:30:20.212877,-95.0
2023-08-11 18:30:20.220567,-95.0
2023-08-11 18:30:20.228256,-93.0
2023-08-11 18:30:20.235946,-91.0
2023-08-11 18:30:20.243636,-91.0
2023-08-11 18:30:20.251326,-88.0
2023-08-11 18:30:20.259015,-86.0
2023-08-11 18:30:20.266705,-91.0
2023-08-11 18:30:20.274395,-91.0
2023-08-11 18:30:20.282085,-86.0
2023-08-11 18:30:20.289774,-81.0
2023-08-11 18:30:20.297464,-83.0
2023-08-11 18:30:20.305154,-91.0
2023-08-11 18:30:20.312843,-95.0
2023-08-11 18:30:20.320533,-81.0
2023-08-11 18:30:20.328223,-38.0
2023-08-11 18:30:20.335913,-9.0
2023-08-11 18:30:20.343602,-19.0
2023-08-11 18:30:20.351292,-23.0
2023-08-11 18:30:20.358982,-33.0
2023-08-11 18:30:20.366672,-76.0
2023-08-11 18:30:20.374361,-103.0
2023-08-11 18:30:20.382051,-100.0
2023-08-11 18:30:20.389741,-98.0
2023-08-11 18:30:20.397431,-105.0
2023-08-11 18:30:20.405120,-107.0
2023-08-11 18:30:20.412810,-100.0
2023-08-11 18:30:20.420500,-95.0
2023-08-11 18:30:20.428190,-98.0
2023-08-11 18:30:20.435879,-110.0
2023-08-11 18:30:20.443569,-127.0
2023-08-11 18:30:20.451259,26.0
2023-08-11 18:30:20.458949,587.0
2023-08-11 18:30:20.466638,1275.0
2023-08-11 18:30:20.474328,1368.0
2023-08-11 18:30:20.482018,498.0
2023-08-11 18:30:20.489707,-599.0
2023-08-11 18:30:20.497397,-781.0
2023-08-11 18:30:20.505087,-294.0
2023-08-11 18:30:20.512777,-119.0
2023-08-11 18:30:20.520466,-222.0
2023-08-11 18:30:20.528156,-196.0
2023-08-11 18:30:20.535846,-136.0
2023-08-11 18:30:20.543536,-158.0
2023-08-11 18:30:20.551225,-158.0
2023-08-11 18:30:20.558915,-124.0
2023-08-11 18:30:20.566605,-112.0
2023-08-11 18:30:20.574295,-105.0
2023-08-11 18:30:20.581984,-88.0
2023-08-11 18:30:20.589674,-81.0
2023-08-11 18:30:20.597364,-76.0
2023-08-11 18:30:20.605054,-64.0
2023-08-11 18:30:20.612743,-45.0
2023-08-11 18:30:20.620433,-33.0
2023-08-11 18:30:20.628123,-26.0
2023-08-11 18:30:20.635813,-19.0
2023-08-11 18:30:20.643502,-9.0
2023-08-11 18:30:20.651192,7.0
2023-08-11 18:30:20.658882,23.0
2023-08-11 18:30:20.666571,35.0
2023-08-11 18:30:20.674261,52.0
2023-08-11 18:30:20.681951,69.0
2023-08-11 18:30:20.689641,86.0
2023-08-11 18:30:20.697330,110.0
2023-08-11 18:30:20.705020,131.0
2023-08-11 18:30:20.712710,150.0
2023-08-11 18:30:20.720400,170.0
2023-08-11 18:30:20.728089,189.0
2023-08-11 18:30:20.735779,203.0
2023-08-11 18:30:20.743469,210.0
2023-08-11 18:30:20.751159,215.0
2023-08-11 18:30:20.758848,206.0
2023-08-11 18:30:20.766538,182.0
2023-08-11 18:30:20.774228,141.0
2023-08-11 18:30:20.781918,83.0
2023-08-11 18:30:20.789607,11.0
2023-08-11 18:30:20.797297,-55.0
2023-08-11 18:30:20.804987,-110.0
2023-08-11 18:30:20.812677,-153.0
2023-08-11 18:30:20.820366,-184.0
2023-08-11 18:30:20.828056,-201.0
2023-08-11 18:30:20.835746,-208.0
2023-08-11 18:30:20.843436,-208.0
2023-08-11 18:30:20.851125,-206.0
2023-08-11 18:30:20.858815,-198.0
2023-08-11 18:30:20.866505,-189.0
2023-08-11 18:30:20.874194,-179.0
2023-08-11 18:30:20.881884,-172.0
2023-08-11 18:30:20.889574,-167.0
2023-08-11 18:30:20.897264,-167.0
2023-08-11 18:30:20.904953,-165.0
2023-08-11 18:30:20.912643,-150.0
2023-08-11 18:30:20.920333,-143.0
2023-08-11 18:30:20.928023,-143.0
2023-08-11 18:30:20.935712,-139.0
2023-08-11 18:30:20.943402,-136.0
2023-08-11 18:30:20.951092,-134.0
2023-08-11 18:30:20.958782,-131.0
2023-08-11 18:30:20.966471,-131.0
2023-08-11 18:30:20.974161,-131.0
2023-08-11 18:30:20.981851,-134.0
2023-08-11 18:30:20.989541,-139.0
2023-08-11 18:30:20.997230,-136.0
2023-08-11 18:30:21.004920,-134.0
2023-08-11 18:30:21.012610,-131.0
2023-08-11 18:30:21.020300,-129.0
2023-08-11 18:30:21.027989,-127.0
2023-08-11 18:30:21.035679,-129.0
2023-08-11 18:30:21.043369,-136.0
2023-08-11 18:30:21.051058,-136.0
2023-08-11 18:30:21.058748,-139.0
2023-08-11 18:30:21.066438,-136.0
2023-08-11 18:30:21.074128,-129.0
2023-08-11 18:30:21.081817,-127.0
2023-08-11 18:30:21.089507,-124.0
2023-08-11 18:30:21.097197,-122.0
2023-08-11 18:30:21.104887,-122.0
2023-08-11 18:30:21.112576,-119.0
2023-08-11 18:30:21.120266,-115.0
2023-08-11 18:30:21.127956,-115.0
2023-08-11 18:30:21.135646,-117.0
2023-08-11 18:30:21.143335,-117.0
2023-08-11 18:30:21.151025,-112.0
2023-08-11 18:30:21.158715,-110.0
2023-08-11 18:30:21.166405,-107.0
2023-08-11 18:30:21.174094,-107.0
2023-08-11 18:30:21.181784,-105.0
2023-08-11 18:30:21.189474,-103.0
2023-08-11 18:30:21.197164,-103.0
2023-08-11 18:30:21.204853,-100.0
2023-08-11 18:30:21.212543,-100.0
2023-08-11 18:30:21.220233,-100.0
2023-08-11 18:30:21.227922,-95.0
2023-08-11 18:30:21.235612,-95.0
2023-08-11 18:30:21.243302,-95.0
2023-08-11 18:30:21.250992,-93.0
2023-08-11 18:30:21.258681,-91.0
2023-08-11 18:30:21.266371,-91.0
2023-08-11 18:30:21.274061,-91.0
2023-08-11 18:30:21.281751,-88.0
2023-08-11 18:30:21.289440,-88.0
2023-08-11 18:30:21.297130,-86.0
2023-08-11 18:30:21.304820,-86.0
2023-08-11 18:30:21.312510,-86.0
2023-08-11 18:30:21.320199,-83.0
2023-08-11 18:30:21.327889,-83.0
2023-08-11 18:30:21.335579,-81.0
2023-08-11 18:30:21.343269,-79.0
2023-08-11 18:30:21.350958,-76.0
2023-08-11 18:30:21.358648,-79.0
2023-08-11 18:30:21.366338,-76.0
2023-08-11 18:30:21.374028,-79.0
2023-08-11 18:30:21.381717,-86.0
2023-08-11 18:30:21.389407,-91.0
2023-08-11 18:30:21.397097,-86.0
2023-08-11 18:30:21.404786,-55.0
2023-08-11 18:30:21.412476,-11.0
2023-08-11 18:30:21.420166,-4.0
2023-08-11 18:30:21.427856,-16.0
2023-08-11 18:30:21.435545,-21.0
2023-08-11 18:30:21.443235,-50.0
2023-08-11 18:30:21.450925,-88.0
2023-08-11 18:30:21.458615,-95.0
2023-08-11 18:30:21.466304,-91.0
2023-08-11 18:30:21.473994,-93.0
2023-08-11 18:30:21.481684,-93.0
2023-08-11 18:30:21.489374,-91.0
2023-08-11 18:30:21.497063,-88.0
2023-08-11 18:30:21.504753,-88.0
2023-08-11 18:30:21.512443,-93.0
2023-08-11 18:30:21.520133,-115.0
2023-08-11 18:30:21.527822,-91.0
2023-08-11 18:30:21.535512,232.0
2023-08-11 18:30:21.543202,927.0
2023-08-11 18:30:21.550892,1464.0
2023-08-11 18:30:21.558581,1128.0
2023-08-11 18:30:21.566271,-14.0
2023-08-11 18:30:21.573961,-812.0
2023-08-11 18:30:21.581650,-558.0
2023-08-11 18:30:21.589340,-129.0
2023-08-11 18:30:21.597030,-167.0
2023-08-11 18:30:21.604720,-239.0
2023-08-11 18:30:21.612409,-158.0
2023-08-11 18:30:21.620099,-141.0
2023-08-11 18:30:21.627789,-165.0
2023-08-11 18:30:21.635479,-131.0
2023-08-11 18:30:21.643168,-107.0
2023-08-11 18:30:21.650858,-107.0
2023-08-11 18:30:21.658548,-95.0
2023-08-11 18:30:21.666238,-79.0
2023-08-11 18:30:21.673927,-71.0
2023-08-11 18:30:21.681617,-59.0
2023-08-11 18:30:21.689307,-45.0
2023-08-11 18:30:21.696997,-35.0
2023-08-11 18:30:21.704686,-28.0
2023-08-11 18:30:21.712376,-16.0
2023-08-11 18:30:21.720066,0.0
2023-08-11 18:30:21.727756,14.0
2023-08-11 18:30:21.735445,26.0
2023-08-11 18:30:21.743135,40.0
2023-08-11 18:30:21.750825,52.0
2023-08-11 18:30:21.758514,67.0
2023-08-11 18:30:21.766204,86.0
2023-08-11 18:30:21.773894,107.0
2023-08-11 18:30:21.781584,124.0
2023-08-11 18:30:21.789273,146.0
2023-08-11 18:30:21.796963,167.0
2023-08-11 18:30:21.804653,186.0
2023-08-11 18:30:21.812343,203.0
2023-08-11 18:30:21.820032,215.0
2023-08-11 18:30:21.827722,220.0
2023-08-11 18:30:21.835412,213.0
2023-08-11 18:30:21.843102,196.0
2023-08-11 18:30:21.850791,170.0
2023-08-11 18:30:21.858481,127.0
2023-08-11 18:30:21.866171,62.0
2023-08-11 18:30:21.873861,-9.0
2023-08-11 18:30:21.881550,-74.0
2023-08-11 18:30:21.889240,-124.0
2023-08-11 18:30:21.896930,-162.0
2023-08-11 18:30:21.904620,-189.0
2023-08-11 18:30:21.912309,-203.0
2023-08-11 18:30:21.919999,-208.0
2023-08-11 18:30:21.927689,-208.0
2023-08-11 18:30:21.935378,-203.0
2023-08-11 18:30:21.943068,-196.0
2023-08-11 18:30:21.950758,-182.0
2023-08-11 18:30:21.958448,-172.0
2023-08-11 18:30:21.966137,-167.0
2023-08-11 18:30:21.973827,-162.0
2023-08-11 18:30:21.981517,-165.0
2023-08-11 18:30:21.989207,-158.0
2023-08-11 18:30:21.996896,-143.0
2023-08-11 18:30:22.004586,-143.0
2023-08-11 18:30:22.012276,-141.0
2023-08-11 18:30:22.019966,-136.0
2023-08-11 18:30:22.027655,-136.0
2023-08-11 18:30:22.035345,-134.0
2023-08-11 18:30:22.043035,-129.0
2023-08-11 18:30:22.050725,-129.0
2023-08-11 18:30:22.058414,-134.0
2023-08-11 18:30:22.066104,-143.0
2023-08-11 18:30:22.073794,-148.0
2023-08-11 18:30:22.081484,-146.0
2023-08-11 18:30:22.089173,-139.0
2023-08-11 18:30:22.096863,-136.0
2023-08-11 18:30:22.104553,-131.0
2023-08-11 18:30:22.112242,-129.0
2023-08-11 18:30:22.119932,-139.0
2023-08-11 18:30:22.127622,-139.0
2023-08-11 18:30:22.135312,-131.0
2023-08-11 18:30:22.143001,-129.0
2023-08-11 18:30:22.150691,-131.0
2023-08-11 18:30:22.158381,-129.0
2023-08-11 18:30:22.166071,-124.0
2023-08-11 18:30:22.173760,-124.0
2023-08-11 18:30:22.181450,-122.0
2023-08-11 18:30:22.189140,-115.0
2023-08-11 18:30:22.196830,-115.0
2023-08-11 18:30:22.204519,-115.0
2023-08-11 18:30:22.212209,-115.0
2023-08-11 18:30:22.219899,-112.0
2023-08-11 18:30:22.227589,-110.0
2023-08-11 18:30:22.235278,-103.0
2023-08-11 18:30:22.242968,-100.0
2023-08-11 18:30:22.250658,-105.0
2023-08-11 18:30:22.258348,-107.0
2023-08-11 18:30:22.266037,-103.0
2023-08-11 18:30:22.273727,-98.0
2023-08-11 18:30:22.281417,-95.0
2023-08-11 18:30:22.289106,-95.0
2023-08-11 18:30:22.296796,-95.0
2023-08-11 18:30:22.304486,-93.0
2023-08-11 18:30:22.312176,-91.0
2023-08-11 18:30:22.319865,-86.0
2023-08-11 18:30:22.327555,-83.0
2023-08-11 18:30:22.335245,-86.0
2023-08-11 18:30:22.342935,-88.0
2023-08-11 18:30:22.350624,-86.0
2023-08-11 18:30:22.358314,-86.0
2023-08-11 18:30:22.366004,-88.0
2023-08-11 18:30:22.373694,-86.0
2023-08-11 18:30:22.381383,-81.0
2023-08-11 18:30:22.389073,-81.0
2023-08-11 18:30:22.396763,-83.0
2023-08-11 18:30:22.404453,-81.0
2023-08-11 18:30:22.412142,-79.0
2023-08-11 18:30:22.419832,-76.0
2023-08-11 18:30:22.427522,-74.0
2023-08-11 18:30:22.435212,-76.0
2023-08-11 18:30:22.442901,-74.0
2023-08-11 18:30:22.450591,-69.0
2023-08-11 18:30:22.458281,-74.0
2023-08-11 18:30:22.465971,-83.0
2023-08-11 18:30:22.473660,-81.0
2023-08-11 18:30:22.481350,-57.0
2023-08-11 18:30:22.489040,-11.0
2023-08-11 18:30:22.496729,4.0
2023-08-11 18:30:22.504419,-9.0
2023-08-11 18:30:22.512109,-7.0
2023-08-11 18:30:22.519799,-16.0
2023-08-11 18:30:22.527488,-57.0
2023-08-11 18:30:22.535178,-81.0
2023-08-11 18:30:22.542868,-76.0
2023-08-11 18:30:22.550558,-74.0
2023-08-11 18:30:22.558247,-76.0
2023-08-11 18:30:22.565937,-79.0
2023-08-11 18:30:22.573627,-81.0
2023-08-11 18:30:22.581317,-83.0
2023-08-11 18:30:22.589006,-83.0
2023-08-11 18:30:22.596696,-103.0
2023-08-11 18:30:22.604386,-93.0
2023-08-11 18:30:22.612076,191.0
2023-08-11 18:30:22.619765,874.0
2023-08-11 18:30:22.627455,1454.0
2023-08-11 18:30:22.635145,1183.0
2023-08-11 18:30:22.642835,67.0
2023-08-11 18:30:22.650524,-795.0
2023-08-11 18:30:22.658214,-632.0
2023-08-11 18:30:22.665904,-177.0
2023-08-11 18:30:22.673593,-150.0
2023-08-11 18:30:22.681283,-227.0
2023-08-11 18:30:22.688973,-160.0
2023-08-11 18:30:22.696663,-129.0
2023-08-11 18:30:22.704352,-146.0
2023-08-11 18:30:22.712042,-124.0
2023-08-11 18:30:22.719732,-103.0
2023-08-11 18:30:22.727422,-98.0
2023-08-11 18:30:22.735111,-83.0
2023-08-11 18:30:22.742801,-71.0
2023-08-11 18:30:22.750491,-69.0
2023-08-11 18:30:22.758181,-59.0
2023-08-11 18:30:22.765870,-45.0
2023-08-11 18:30:22.773560,-31.0
2023-08-11 18:30:22.781250,-21.0
2023-08-11 18:30:22.788940,-9.0
2023-08-11 18:30:22.796629,2.0
2023-08-11 18:30:22.804319,11.0
2023-08-11 18:30:22.812009,26.0
2023-08-11 18:30:22.819699,38.0
2023-08-11 18:30:22.827388,52.0
2023-08-11 18:30:22.835078,64.0
2023-08-11 18:30:22.842768,81.0
2023-08-11 18:30:22.850457,103.0
2023-08-11 18:30:22.858147,117.0
2023-08-11 18:30:22.865837,134.0
2023-08-11 18:30:22.873527,155.0
2023-08-11 18:30:22.881216,174.0
2023-08-11 18:30:22.888906,194.0
2023-08-11 18:30:22.896596,210.0
2023-08-11 18:30:22.904286,213.0
2023-08-11 18:30:22.911975,213.0
2023-08-11 18:30:22.919665,201.0
2023-08-11 18:30:22.927355,170.0
2023-08-11 18:30:22.935045,127.0
2023-08-11 18:30:22.942734,69.0
2023-08-11 18:30:22.950424,4.0
2023-08-11 18:30:22.958114,-59.0
2023-08-11 18:30:22.965804,-115.0
2023-08-11 18:30:22.973493,-153.0
2023-08-11 18:30:22.981183,-179.0
2023-08-11 18:30:22.988873,-189.0
2023-08-11 18:30:22.996563,-194.0
2023-08-11 18:30:23.004252,-194.0
2023-08-11 18:30:23.011942,-189.0
2023-08-11 18:30:23.019632,-184.0
2023-08-11 18:30:23.027321,-174.0
2023-08-11 18:30:23.035011,-165.0
2023-08-11 18:30:23.042701,-158.0
2023-08-11 18:30:23.050391,-150.0
2023-08-11 18:30:23.058080,-143.0
2023-08-11 18:30:23.065770,-141.0
2023-08-11 18:30:23.073460,-143.0
2023-08-11 18:30:23.081150,-136.0
2023-08-11 18:30:23.088839,-129.0
2023-08-11 18:30:23.096529,-129.0
2023-08-11 18:30:23.104219,-131.0
2023-08-11 18:30:23.111909,-127.0
2023-08-11 18:30:23.119598,-124.0
2023-08-11 18:30:23.127288,-127.0
2023-08-11 18:30:23.134978,-129.0
2023-08-11 18:30:23.142668,-129.0
2023-08-11 18:30:23.150357,-136.0
2023-08-11 18:30:23.158047,-141.0
2023-08-11 18:30:23.165737,-139.0
2023-08-11 18:30:23.173427,-134.0
2023-08-11 18:30:23.181116,-129.0
2023-08-11 18:30:23.188806,-124.0
2023-08-11 18:30:23.196496,-124.0
2023-08-11 18:30:23.204185,-127.0
2023-08-11 18:30:23.211875,-124.0
2023-08-11 18:30:23.219565,-122.0
2023-08-11 18:30:23.227255,-124.0
2023-08-11 18:30:23.234944,-127.0
2023-08-11 18:30:23.242634,-124.0
2023-08-11 18:30:23.250324,-115.0
2023-08-11 18:30:23.258014,-117.0
2023-08-11 18:30:23.265703,-119.0
2023-08-11 18:30:23.273393,-117.0
2023-08-11 18:30:23.281083,-112.0
2023-08-11 18:30:23.288773,-112.0
2023-08-11 18:30:23.296462,-110.0
2023-08-11 18:30:23.304152,-107.0
2023-08-11 18:30:23.311842,-107.0
2023-08-11 18:30:23.319532,-110.0
2023-08-11 18:30:23.327221,-107.0
2023-08-11 18:30:23.334911,-105.0
2023-08-11 18:30:23.342601,-105.0
2023-08-11 18:30:23.350291,-107.0
2023-08-11 18:30:23.357980,-110.0
2023-08-11 18:30:23.365670,-105.0
2023-08-11 18:30:23.373360,-103.0
2023-08-11 18:30:23.381049,-103.0
2023-08-11 18:30:23.388739,-103.0
2023-08-11 18:30:23.396429,-100.0
2023-08-11 18:30:23.404119,-100.0
2023-08-11 18:30:23.411808,-98.0
2023-08-11 18:30:23.419498,-95.0
2023-08-11 18:30:23.427188,-95.0
2023-08-11 18:30:23.434878,-95.0
2023-08-11 18:30:23.442567,-93.0
2023-08-11 18:30:23.450257,-88.0
2023-08-11 18:30:23.457947,-91.0
2023-08-11 18:30:23.465637,-91.0
2023-08-11 18:30:23.473326,-91.0
2023-08-11 18:30:23.481016,-88.0
2023-08-11 18:30:23.488706,-86.0
2023-08-11 18:30:23.496396,-83.0
2023-08-11 18:30:23.504085,-91.0
2023-08-11 18:30:23.511775,-98.0
2023-08-11 18:30:23.519465,-95.0
2023-08-11 18:30:23.527155,-69.0
2023-08-11 18:30:23.534844,-26.0
2023-08-11 18:30:23.542534,-11.0
2023-08-11 18:30:23.550224,-23.0
2023-08-11 18:30:23.557913,-23.0
2023-08-11 18:30:23.565603,-43.0
2023-08-11 18:30:23.573293,-86.0
2023-08-11 18:30:23.580983,-107.0
2023-08-11 18:30:23.588672,-100.0
2023-08-11 18:30:23.596362,-100.0
2023-08-11 18:30:23.604052,-103.0
2023-08-11 18:30:23.611742,-95.0
2023-08-11 18:30:23.619431,-91.0
2023-08-11 18:30:23.627121,-95.0
2023-08-11 18:30:23.634811,-103.0
2023-08-11 18:30:23.642501,-122.0
2023-08-11 18:30:23.650190,-81.0
2023-08-11 18:30:23.657880,268.0
2023-08-11 18:30:23.665570,958.0
2023-08-11 18:30:23.673260,1416.0
2023-08-11 18:30:23.680949,987.0
2023-08-11 18:30:23.688639,-150.0
2023-08-11 18:30:23.696329,-838.0
2023-08-11 18:30:23.704019,-532.0
2023-08-11 18:30:23.711708,-136.0
2023-08-11 18:30:23.719398,-179.0
2023-08-11 18:30:23.727088,-232.0
2023-08-11 18:30:23.734777,-160.0
2023-08-11 18:30:23.742467,-148.0
2023-08-11 18:30:23.750157,-160.0
2023-08-11 18:30:23.757847,-131.0
2023-08-11 18:30:23.765536,-110.0
2023-08-11 18:30:23.773226,-110.0
2023-08-11 18:30:23.780916,-100.0
2023-08-11 18:30:23.788606,-83.0
2023-08-11 18:30:23.796295,-74.0
2023-08-11 18:30:23.803985,-67.0
2023-08-11 18:30:23.811675,-52.0
2023-08-11 18:30:23.819365,-43.0
2023-08-11 18:30:23.827054,-35.0
2023-08-11 18:30:23.834744,-23.0
2023-08-11 18:30:23.842434,-11.0
2023-08-11 18:30:23.850124,-2.0
2023-08-11 18:30:23.857813,14.0
2023-08-11 18:30:23.865503,26.0
2023-08-11 18:30:23.873193,38.0
2023-08-11 18:30:23.880883,55.0
2023-08-11 18:30:23.888572,74.0
2023-08-11 18:30:23.896262,91.0
2023-08-11 18:30:23.903952,110.0
2023-08-11 18:30:23.911641,134.0
2023-08-11 18:30:23.919331,150.0
2023-08-11 18:30:23.927021,170.0
2023-08-11 18:30:23.934711,186.0
2023-08-11 18:30:23.942400,198.0
2023-08-11 18:30:23.950090,203.0
2023-08-11 18:30:23.957780,196.0
2023-08-11 18:30:23.965470,182.0
2023-08-11 18:30:23.973159,153.0
2023-08-11 18:30:23.980849,107.0
2023-08-11 18:30:23.988539,45.0
2023-08-11 18:30:23.996229,-23.0
2023-08-11 18:30:24.003918,-88.0
2023-08-11 18:30:24.011608,-141.0
2023-08-11 18:30:24.019298,-174.0
2023-08-11 18:30:24.026988,-196.0
2023-08-11 18:30:24.034677,-206.0
2023-08-11 18:30:24.042367,-208.0
2023-08-11 18:30:24.050057,-208.0
2023-08-11 18:30:24.057747,-203.0
2023-08-11 18:30:24.065436,-194.0
2023-08-11 18:30:24.073126,-186.0
2023-08-11 18:30:24.080816,-189.0
2023-08-11 18:30:24.088506,-184.0
2023-08-11 18:30:24.096195,-172.0
2023-08-11 18:30:24.103885,-162.0
2023-08-11 18:30:24.111575,-155.0
2023-08-11 18:30:24.119264,-150.0
2023-08-11 18:30:24.126954,-146.0
2023-08-11 18:30:24.134644,-141.0
2023-08-11 18:30:24.142334,-139.0
2023-08-11 18:30:24.150023,-139.0
2023-08-11 18:30:24.157713,-136.0
2023-08-11 18:30:24.165403,-134.0
2023-08-11 18:30:24.173093,-131.0
2023-08-11 18:30:24.180782,-131.0
2023-08-11 18:30:24.188472,-134.0
2023-08-11 18:30:24.196162,-131.0
2023-08-11 18:30:24.203852,-129.0
2023-08-11 18:30:24.211541,-129.0
2023-08-11 18:30:24.219231,-131.0
2023-08-11 18:30:24.226921,-134.0
2023-08-11 18:30:24.234611,-134.0
2023-08-11 18:30:24.242300,-131.0
2023-08-11 18:30:24.249990,-124.0
2023-08-11 18:30:24.257680,-122.0
2023-08-11 18:30:24.265370,-122.0
2023-08-11 18:30:24.273059,-129.0
2023-08-11 18:30:24.280749,-139.0
2023-08-11 18:30:24.288439,-134.0
2023-08-11 18:30:24.296128,-129.0
2023-08-11 18:30:24.303818,-129.0
2023-08-11 18:30:24.311508,-124.0
2023-08-11 18:30:24.319198,-124.0
2023-08-11 18:30:24.326887,-124.0
2023-08-11 18:30:24.334577,-127.0
2023-08-11 18:30:24.342267,-124.0
2023-08-11 18:30:24.349957,-119.0
2023-08-11 18:30:24.357646,-117.0
2023-08-11 18:30:24.365336,-119.0
2023-08-11 18:30:24.373026,-119.0
2023-08-11 18:30:24.380716,-115.0
2023-08-11 18:30:24.388405,-110.0
2023-08-11 18:30:24.396095,-110.0
2023-08-11 18:30:24.403785,-110.0
2023-08-11 18:30:24.411475,-107.0
2023-08-11 18:30:24.419164,-107.0
2023-08-11 18:30:24.426854,-107.0
2023-08-11 18:30:24.434544,-103.0
2023-08-11 18:30:24.442234,-100.0
2023-08-11 18:30:24.449923,-100.0
2023-08-11 18:30:24.457613,-100.0
2023-08-11 18:30:24.465303,-98.0
2023-08-11 18:30:24.472992,-95.0
2023-08-11 18:30:24.480682,-95.0
2023-08-11 18:30:24.488372,-93.0
2023-08-11 18:30:24.496062,-93.0
2023-08-11 18:30:24.503751,-93.0
2023-08-11 18:30:24.511441,-91.0
2023-08-11 18:30:24.519131,-91.0
2023-08-11 18:30:24.526821,-88.0
2023-08-11 18:30:24.534510,-88.0
2023-08-11 18:30:24.542200,-88.0
2023-08-11 18:30:24.549890,-88.0
2023-08-11 18:30:24.557580,-86.0
2023-08-11 18:30:24.565269,-83.0
2023-08-11 18:30:24.572959,-83.0
2023-08-11 18:30:24.580649,-86.0
2023-08-11 18:30:24.588339,-91.0
2023-08-11 18:30:24.596028,-88.0
2023-08-11 18:30:24.603718,-86.0
2023-08-11 18:30:24.611408,-88.0
2023-08-11 18:30:24.619098,-91.0
2023-08-11 18:30:24.626787,-83.0
2023-08-11 18:30:24.634477,-50.0
2023-08-11 18:30:24.642167,-11.0
2023-08-11 18:30:24.649856,-11.0
2023-08-11 18:30:24.657546,-21.0
2023-08-11 18:30:24.665236,-21.0
2023-08-11 18:30:24.672926,-47.0
2023-08-11 18:30:24.680615,-86.0
2023-08-11 18:30:24.688305,-91.0
2023-08-11 18:30:24.695995,-83.0
2023-08-11 18:30:24.703685,-88.0
2023-08-11 18:30:24.711374,-91.0
2023-08-11 18:30:24.719064,-86.0
2023-08-11 18:30:24.726754,-88.0
2023-08-11 18:30:24.734444,-86.0
2023-08-11 18:30:24.742133,-91.0
2023-08-11 18:30:24.749823,-119.0
2023-08-11 18:30:24.757513,-40.0
2023-08-11 18:30:24.765203,405.0
2023-08-11 18:30:24.772892,1116.0
2023-08-11 18:30:24.780582,1447.0
2023-08-11 18:30:24.788272,834.0
2023-08-11 18:30:24.795962,-333.0
2023-08-11 18:30:24.803651,-819.0
2023-08-11 18:30:24.811341,-409.0
2023-08-11 18:30:24.819031,-119.0
2023-08-11 18:30:24.826720,-213.0
2023-08-11 18:30:24.834410,-227.0
2023-08-11 18:30:24.842100,-150.0
2023-08-11 18:30:24.849790,-153.0
2023-08-11 18:30:24.857479,-160.0
2023-08-11 18:30:24.865169,-127.0
2023-08-11 18:30:24.872859,-110.0
2023-08-11 18:30:24.880549,-110.0
2023-08-11 18:30:24.888238,-93.0
2023-08-11 18:30:24.895928,-79.0
2023-08-11 18:30:24.903618,-74.0
2023-08-11 18:30:24.911308,-62.0
2023-08-11 18:30:24.918997,-47.0
2023-08-11 18:30:24.926687,-38.0
2023-08-11 18:30:24.934377,-28.0
2023-08-11 18:30:24.942067,-16.0
2023-08-11 18:30:24.949756,-4.0
2023-08-11 18:30:24.957446,7.0
2023-08-11 18:30:24.965136,21.0
2023-08-11 18:30:24.972826,35.0
2023-08-11 18:30:24.980515,50.0
2023-08-11 18:30:24.988205,64.0
2023-08-11 18:30:24.995895,79.0
2023-08-11 18:30:25.003584,98.0
2023-08-11 18:30:25.011274,117.0
2023-08-11 18:30:25.018964,136.0
2023-08-11 18:30:25.026654,158.0
2023-08-11 18:30:25.034343,177.0
2023-08-11 18:30:25.042033,189.0
2023-08-11 18:30:25.049723,201.0
2023-08-11 18:30:25.057413,210.0
2023-08-11 18:30:25.065102,203.0
2023-08-11 18:30:25.072792,184.0
2023-08-11 18:30:25.080482,155.0
2023-08-11 18:30:25.088172,110.0
2023-08-11 18:30:25.095861,38.0
2023-08-11 18:30:25.103551,-28.0
2023-08-11 18:30:25.111241,-83.0
2023-08-11 18:30:25.118931,-134.0
2023-08-11 18:30:25.126620,-172.0
2023-08-11 18:30:25.134310,-196.0
2023-08-11 18:30:25.142000,-206.0
2023-08-11 18:30:25.149690,-208.0
2023-08-11 18:30:25.157379,-206.0
2023-08-11 18:30:25.165069,-203.0
2023-08-11 18:30:25.172759,-196.0
2023-08-11 18:30:25.180448,-186.0
2023-08-11 18:30:25.188138,-177.0
2023-08-11 18:30:25.195828,-170.0
2023-08-11 18:30:25.203518,-162.0
2023-08-11 18:30:25.211207,-158.0
2023-08-11 18:30:25.218897,-153.0
2023-08-11 18:30:25.226587,-146.0
2023-08-11 18:30:25.234277,-136.0
2023-08-11 18:30:25.241966,-134.0
2023-08-11 18:30:25.249656,-131.0
2023-08-11 18:30:25.257346,-131.0
2023-08-11 18:30:25.265036,-131.0
2023-08-11 18:30:25.272725,-129.0
2023-08-11 18:30:25.280415,-129.0
2023-08-11 18:30:25.288105,-129.0
2023-08-11 18:30:25.295795,-129.0
2023-08-11 18:30:25.303484,-134.0
2023-08-11 18:30:25.311174,-136.0
2023-08-11 18:30:25.318864,-136.0
2023-08-11 18:30:25.326554,-134.0
2023-08-11 18:30:25.334243,-131.0
2023-08-11 18:30:25.341933,-129.0
2023-08-11 18:30:25.349623,-131.0
2023-08-11 18:30:25.357312,-134.0
2023-08-11 18:30:25.365002,-131.0
2023-08-11 18:30:25.372692,-127.0
2023-08-11 18:30:25.380382,-127.0
2023-08-11 18:30:25.388071,-124.0
2023-08-11 18:30:25.395761,-129.0
2023-08-11 18:30:25.403451,-134.0
2023-08-11 18:30:25.411141,-129.0
2023-08-11 18:30:25.418830,-122.0
2023-08-11 18:30:25.426520,-124.0
2023-08-11 18:30:25.434210,-124.0
2023-08-11 18:30:25.441900,-129.0
2023-08-11 18:30:25.449589,-134.0
2023-08-11 18:30:25.457279,-127.0
2023-08-11 18:30:25.464969,-119.0
2023-08-11 18:30:25.472659,-119.0
2023-08-11 18:30:25.480348,-119.0
2023-08-11 18:30:25.488038,-117.0
2023-08-11 18:30:25.495728,-115.0
2023-08-11 18:30:25.503418,-112.0
2023-08-11 18:30:25.511107,-110.0
2023-08-11 18:30:25.518797,-107.0
2023-08-11 18:30:25.526487,-107.0
2023-08-11 18:30:25.534176,-107.0
2023-08-11 18:30:25.541866,-105.0
2023-08-11 18:30:25.549556,-100.0
2023-08-11 18:30:25.557246,-103.0
2023-08-11 18:30:25.564935,-105.0
2023-08-11 18:30:25.572625,-105.0
2023-08-11 18:30:25.580315,-105.0
2023-08-11 18:30:25.588005,-100.0
2023-08-11 18:30:25.595694,-103.0
2023-08-11 18:30:25.603384,-107.0
2023-08-11 18:30:25.611074,-100.0
2023-08-11 18:30:25.618764,-98.0
2023-08-11 18:30:25.626453,-103.0
2023-08-11 18:30:25.634143,-98.0
2023-08-11 18:30:25.641833,-91.0
2023-08-11 18:30:25.649523,-91.0
2023-08-11 18:30:25.657212,-91.0
2023-08-11 18:30:25.664902,-88.0
2023-08-11 18:30:25.672592,-88.0
2023-08-11 18:30:25.680282,-88.0
2023-08-11 18:30:25.687971,-83.0
2023-08-11 18:30:25.695661,-81.0
2023-08-11 18:30:25.703351,-81.0
2023-08-11 18:30:25.711041,-81.0
2023-08-11 18:30:25.718730,-81.0
2023-08-11 18:30:25.726420,-81.0
2023-08-11 18:30:25.734110,-79.0
2023-08-11 18:30:25.741799,-76.0
2023-08-11 18:30:25.749489,-79.0
2023-08-11 18:30:25.757179,-86.0
2023-08-11 18:30:25.764869,-83.0
2023-08-11 18:30:25.772558,-47.0
2023-08-11 18:30:25.780248,-7.0
2023-08-11 18:30:25.787938,-2.0
2023-08-11 18:30:25.795628,-11.0
2023-08-11 18:30:25.803317,-11.0
2023-08-11 18:30:25.811007,-40.0
2023-08-11 18:30:25.818697,-81.0
2023-08-11 18:30:25.826387,-88.0
2023-08-11 18:30:25.834076,-79.0
2023-08-11 18:30:25.841766,-81.0
2023-08-11 18:30:25.849456,-88.0
2023-08-11 18:30:25.857146,-86.0
2023-08-11 18:30:25.864835,-83.0
2023-08-11 18:30:25.872525,-81.0
2023-08-11 18:30:25.880215,-86.0
2023-08-11 18:30:25.887905,-107.0
2023-08-11 18:30:25.895594,-76.0
2023-08-11 18:30:25.903284,270.0
2023-08-11 18:30:25.910974,977.0
2023-08-11 18:30:25.918663,1476.0
2023-08-11 18:30:25.926353,1083.0
2023-08-11 18:30:25.934043,-79.0
2023-08-11 18:30:25.941733,-829.0
2023-08-11 18:30:25.949422,-532.0
2023-08-11 18:30:25.957112,-119.0
2023-08-11 18:30:25.964802,-177.0
2023-08-11 18:30:25.972492,-239.0
2023-08-11 18:30:25.980181,-155.0
2023-08-11 18:30:25.987871,-143.0
2023-08-11 18:30:25.995561,-165.0
2023-08-11 18:30:26.003251,-129.0
2023-08-11 18:30:26.010940,-105.0
2023-08-11 18:30:26.018630,-110.0
2023-08-11 18:30:26.026320,-95.0
2023-08-11 18:30:26.034010,-81.0
2023-08-11 18:30:26.041699,-74.0
2023-08-11 18:30:26.049389,-62.0
2023-08-11 18:30:26.057079,-52.0
2023-08-11 18:30:26.064769,-45.0
2023-08-11 18:30:26.072458,-33.0
2023-08-11 18:30:26.080148,-21.0
2023-08-11 18:30:26.087838,-9.0
2023-08-11 18:30:26.095527,0.0
2023-08-11 18:30:26.103217,7.0
2023-08-11 18:30:26.110907,21.0
2023-08-11 18:30:26.118597,38.0
2023-08-11 18:30:26.126286,52.0
2023-08-11 18:30:26.133976,67.0
2023-08-11 18:30:26.141666,86.0
2023-08-11 18:30:26.149356,105.0
2023-08-11 18:30:26.157045,124.0
2023-08-11 18:30:26.164735,146.0
2023-08-11 18:30:26.172425,165.0
2023-08-11 18:30:26.180115,182.0
2023-08-11 18:30:26.187804,194.0
2023-08-11 18:30:26.195494,201.0
2023-08-11 18:30:26.203184,203.0
2023-08-11 18:30:26.210874,194.0
2023-08-11 18:30:26.218563,172.0
2023-08-11 18:30:26.226253,131.0
2023-08-11 18:30:26.233943,74.0
2023-08-11 18:30:26.241633,9.0
2023-08-11 18:30:26.249322,-55.0
2023-08-11 18:30:26.257012,-112.0
2023-08-11 18:30:26.264702,-153.0
2023-08-11 18:30:26.272391,-179.0
2023-08-11 18:30:26.280081,-194.0
2023-08-11 18:30:26.287771,-198.0
2023-08-11 18:30:26.295461,-198.0
2023-08-11 18:30:26.303150,-198.0
2023-08-11 18:30:26.310840,-198.0
2023-08-11 18:30:26.318530,-189.0
2023-08-11 18:30:26.326220,-174.0
2023-08-11 18:30:26.333909,-170.0
2023-08-11 18:30:26.341599,-162.0
2023-08-11 18:30:26.349289,-153.0
2023-08-11 18:30:26.356979,-148.0
2023-08-11 18:30:26.364668,-143.0
2023-08-11 18:30:26.372358,-139.0
2023-08-11 18:30:26.380048,-136.0
2023-08-11 18:30:26.387738,-139.0
2023-08-11 18:30:26.395427,-136.0
2023-08-11 18:30:26.403117,-131.0
2023-08-11 18:30:26.410807,-131.0
2023-08-11 18:30:26.418497,-129.0
2023-08-11 18:30:26.426186,-131.0
2023-08-11 18:30:26.433876,-139.0
2023-08-11 18:30:26.441566,-139.0
2023-08-11 18:30:26.449255,-139.0
2023-08-11 18:30:26.456945,-141.0
2023-08-11 18:30:26.464635,-136.0
2023-08-11 18:30:26.472325,-129.0
2023-08-11 18:30:26.480014,-129.0
2023-08-11 18:30:26.487704,-129.0
2023-08-11 18:30:26.495394,-127.0
2023-08-11 18:30:26.503084,-127.0
2023-08-11 18:30:26.510773,-124.0
2023-08-11 18:30:26.518463,-124.0
2023-08-11 18:30:26.526153,-131.0
2023-08-11 18:30:26.533843,-131.0
2023-08-11 18:30:26.541532,-124.0
2023-08-11 18:30:26.549222,-124.0
2023-08-11 18:30:26.556912,-124.0
2023-08-11 18:30:26.564602,-122.0
2023-08-11 18:30:26.572291,-119.0
2023-08-11 18:30:26.579981,-117.0
2023-08-11 18:30:26.587671,-112.0
2023-08-11 18:30:26.595361,-112.0
2023-08-11 18:30:26.603050,-115.0
2023-08-11 18:30:26.610740,-122.0
2023-08-11 18:30:26.618430,-119.0
2023-08-11 18:30:26.626119,-112.0
2023-08-11 18:30:26.633809,-110.0
2023-08-11 18:30:26.641499,-112.0
2023-08-11 18:30:26.649189,-107.0
2023-08-11 18:30:26.656878,-107.0
2023-08-11 18:30:26.664568,-105.0
2023-08-11 18:30:26.672258,-100.0
2023-08-11 18:30:26.679948,-98.0
2023-08-11 18:30:26.687637,-100.0
2023-08-11 18:30:26.695327,-100.0
2023-08-11 18:30:26.703017,-98.0
2023-08-11 18:30:26.710707,-91.0
2023-08-11 18:30:26.718396,-88.0
2023-08-11 18:30:26.726086,-88.0
2023-08-11 18:30:26.733776,-88.0
2023-08-11 18:30:26.741466,-86.0
2023-08-11 18:30:26.749155,-88.0
2023-08-11 18:30:26.756845,-86.0
2023-08-11 18:30:26.764535,-81.0
2023-08-11 18:30:26.772225,-81.0
2023-08-11 18:30:26.779914,-79.0
2023-08-11 18:30:26.787604,-76.0
2023-08-11 18:30:26.795294,-81.0
2023-08-11 18:30:26.802983,-83.0
2023-08-11 18:30:26.810673,-76.0
2023-08-11 18:30:26.818363,-76.0
2023-08-11 18:30:26.826053,-76.0
2023-08-11 18:30:26.833742,-76.0
2023-08-11 18:30:26.841432,-76.0
2023-08-11 18:30:26.849122,-74.0
2023-08-11 18:30:26.856812,-69.0
2023-08-11 18:30:26.864501,-67.0
2023-08-11 18:30:26.872191,-64.0
2023-08-11 18:30:26.879881,-64.0
2023-08-11 18:30:26.887571,-67.0
2023-08-11 18:30:26.895260,-67.0
2023-08-11 18:30:26.902950,-69.0
2023-08-11 18:30:26.910640,-76.0
2023-08-11 18:30:26.918330,-74.0
2023-08-11 18:30:26.926019,-40.0
2023-08-11 18:30:26.933709,2.0
2023-08-11 18:30:26.941399,9.0
2023-08-11 18:30:26.949089,0.0
2023-08-11 18:30:26.956778,-2.0
2023-08-11 18:30:26.964468,-26.0
2023-08-11 18:30:26.972158,-69.0
2023-08-11 18:30:26.979847,-79.0
2023-08-11 18:30:26.987537,-69.0
2023-08-11 18:30:26.995227,-71.0
2023-08-11 18:30:27.002917,-76.0
2023-08-11 18:30:27.010606,-74.0
2023-08-11 18:30:27.018296,-71.0
2023-08-11 18:30:27.025986,-69.0
2023-08-11 18:30:27.033676,-74.0
2023-08-11 18:30:27.041365,-103.0
2023-08-11 18:30:27.049055,-71.0
2023-08-11 18:30:27.056745,289.0
2023-08-11 18:30:27.064435,1001.0
2023-08-11 18:30:27.072124,1483.0
2023-08-11 18:30:27.079814,1049.0
2023-08-11 18:30:27.087504,-117.0
2023-08-11 18:30:27.095194,-831.0
2023-08-11 18:30:27.102883,-536.0
2023-08-11 18:30:27.110573,-139.0
2023-08-11 18:30:27.118263,-174.0
2023-08-11 18:30:27.125953,-222.0
2023-08-11 18:30:27.133642,-146.0
2023-08-11 18:30:27.141332,-139.0
2023-08-11 18:30:27.149022,-153.0
2023-08-11 18:30:27.156711,-119.0
2023-08-11 18:30:27.164401,-98.0
2023-08-11 18:30:27.172091,-98.0
2023-08-11 18:30:27.179781,-86.0
2023-08-11 18:30:27.187470,-69.0
2023-08-11 18:30:27.195160,-67.0
2023-08-11 18:30:27.202850,-55.0
2023-08-11 18:30:27.210540,-40.0
2023-08-11 18:30:27.218229,-31.0
2023-08-11 18:30:27.225919,-21.0
2023-08-11 18:30:27.233609,-9.0
2023-08-11 18:30:27.241299,2.0
2023-08-11 18:30:27.248988,14.0
2023-08-11 18:30:27.256678,26.0
2023-08-11 18:30:27.264368,38.0
2023-08-11 18:30:27.272058,52.0
2023-08-11 18:30:27.279747,69.0
2023-08-11 18:30:27.287437,81.0
2023-08-11 18:30:27.295127,95.0
2023-08-11 18:30:27.302817,117.0
2023-08-11 18:30:27.310506,141.0
2023-08-11 18:30:27.318196,153.0
2023-08-11 18:30:27.325886,167.0
2023-08-11 18:30:27.333575,184.0
2023-08-11 18:30:27.341265,198.0
2023-08-11 18:30:27.348955,208.0
2023-08-11 18:30:27.356645,210.0
2023-08-11 18:30:27.364334,203.0
2023-08-11 18:30:27.372024,179.0
2023-08-11 18:30:27.379714,139.0
2023-08-11 18:30:27.387404,86.0
2023-08-11 18:30:27.395093,23.0
2023-08-11 18:30:27.402783,-40.0
2023-08-11 18:30:27.410473,-95.0
2023-08-11 18:30:27.418163,-136.0
2023-08-11 18:30:27.425852,-174.0
2023-08-11 18:30:27.433542,-191.0
2023-08-11 18:30:27.441232,-191.0
2023-08-11 18:30:27.448922,-191.0
2023-08-11 18:30:27.456611,-189.0
2023-08-11 18:30:27.464301,-182.0
2023-08-11 18:30:27.471991,-179.0
2023-08-11 18:30:27.479681,-177.0
2023-08-11 18:30:27.487370,-165.0
2023-08-11 18:30:27.495060,-160.0
2023-08-11 18:30:27.502750,-160.0
2023-08-11 18:30:27.510440,-150.0
2023-08-11 18:30:27.518129,-141.0
2023-08-11 18:30:27.525819,-136.0
2023-08-11 18:30:27.533509,-139.0
2023-08-11 18:30:27.541198,-141.0
2023-08-11 18:30:27.548888,-134.0
2023-08-11 18:30:27.556578,-129.0
2023-08-11 18:30:27.564268,-134.0
2023-08-11 18:30:27.571957,-131.0
2023-08-11 18:30:27.579647,-131.0
2023-08-11 18:30:27.587337,-131.0
2023-08-11 18:30:27.595027,-129.0
2023-08-11 18:30:27.602716,-127.0
2023-08-11 18:30:27.610406,-131.0
2023-08-11 18:30:27.618096,-134.0
2023-08-11 18:30:27.625786,-131.0
2023-08-11 18:30:27.633475,-127.0
2023-08-11 18:30:27.641165,-124.0
2023-08-11 18:30:27.648855,-131.0
2023-08-11 18:30:27.656545,-134.0
2023-08-11 18:30:27.664234,-127.0
2023-08-11 18:30:27.671924,-119.0
2023-08-11 18:30:27.679614,-117.0
2023-08-11 18:30:27.687304,-112.0
2023-08-11 18:30:27.694993,-115.0
2023-08-11 18:30:27.702683,-117.0
2023-08-11 18:30:27.710373,-112.0
2023-08-11 18:30:27.718062,-105.0
2023-08-11 18:30:27.725752,-103.0
2023-08-11 18:30:27.733442,-100.0
2023-08-11 18:30:27.741132,-100.0
2023-08-11 18:30:27.748821,-100.0
2023-08-11 18:30:27.756511,-95.0
2023-08-11 18:30:27.764201,-91.0
2023-08-11 18:30:27.771891,-93.0
2023-08-11 18:30:27.779580,-98.0
2023-08-11 18:30:27.787270,-95.0
2023-08-11 18:30:27.794960,-93.0
2023-08-11 18:30:27.802650,-91.0
2023-08-11 18:30:27.810339,-88.0
2023-08-11 18:30:27.818029,-86.0
2023-08-11 18:30:27.825719,-86.0
2023-08-11 18:30:27.833409,-88.0
2023-08-11 18:30:27.841098,-86.0
2023-08-11 18:30:27.848788,-81.0
2023-08-11 18:30:27.856478,-81.0
2023-08-11 18:30:27.864168,-79.0
2023-08-11 18:30:27.871857,-79.0
2023-08-11 18:30:27.879547,-79.0
2023-08-11 18:30:27.887237,-76.0
2023-08-11 18:30:27.894926,-74.0
2023-08-11 18:30:27.902616,-76.0
2023-08-11 18:30:27.910306,-76.0
2023-08-11 18:30:27.917996,-74.0
2023-08-11 18:30:27.925685,-71.0
2023-08-11 18:30:27.933375,-71.0
2023-08-11 18:30:27.941065,-69.0
2023-08-11 18:30:27.948755,-67.0
2023-08-11 18:30:27.956444,-67.0
2023-08-11 18:30:27.964134,-69.0
2023-08-11 18:30:27.971824,-71.0
2023-08-11 18:30:27.979514,-74.0
2023-08-11 18:30:27.987203,-71.0
2023-08-11 18:30:27.994893,-71.0
2023-08-11 18:30:28.002583,-76.0
2023-08-11 18:30:28.010273,-79.0
2023-08-11 18:30:28.017962,-50.0
2023-08-11 18:30:28.025652,-9.0
2023-08-11 18:30:28.033342,-4.0
2023-08-11 18:30:28.041032,-14.0
2023-08-11 18:30:28.048721,-11.0
2023-08-11 18:30:28.056411,-33.0
2023-08-11 18:30:28.064101,-74.0
2023-08-11 18:30:28.071790,-83.0
2023-08-11 18:30:28.079480,-74.0
2023-08-11 18:30:28.087170,-74.0
2023-08-11 18:30:28.094860,-79.0
2023-08-11 18:30:28.102549,-81.0
2023-08-11 18:30:28.110239,-81.0
2023-08-11 18:30:28.117929,-83.0
2023-08-11 18:30:28.125619,-93.0
2023-08-11 18:30:28.133308,-119.0
2023-08-11 18:30:28.140998,-45.0
2023-08-11 18:30:28.148688,388.0
2023-08-11 18:30:28.156378,1100.0
2023-08-11 18:30:28.164067,1430.0
2023-08-11 18:30:28.171757,810.0
2023-08-11 18:30:28.179447,-337.0
2023-08-11 18:30:28.187137,-814.0
2023-08-11 18:30:28.194826,-417.0
2023-08-11 18:30:28.202516,-115.0
2023-08-11 18:30:28.210206,-186.0
2023-08-11 18:30:28.217896,-206.0
2023-08-11 18:30:28.225585,-139.0
2023-08-11 18:30:28.233275,-148.0
2023-08-11 18:30:28.240965,-160.0
2023-08-11 18:30:28.248654,-127.0
2023-08-11 18:30:28.256344,-110.0
2023-08-11 18:30:28.264034,-107.0
2023-08-11 18:30:28.271724,-93.0
2023-08-11 18:30:28.279413,-86.0
2023-08-11 18:30:28.287103,-79.0
2023-08-11 18:30:28.294793,-64.0
2023-08-11 18:30:28.302483,-52.0
2023-08-11 18:30:28.310172,-43.0
2023-08-11 18:30:28.317862,-33.0
2023-08-11 18:30:28.325552,-23.0
2023-08-11 18:30:28.333242,-11.0
2023-08-11 18:30:28.340931,2.0
2023-08-11 18:30:28.348621,14.0
2023-08-11 18:30:28.356311,26.0
2023-08-11 18:30:28.364001,40.0
2023-08-11 18:30:28.371690,55.0
2023-08-11 18:30:28.379380,69.0
2023-08-11 18:30:28.387070,88.0
2023-08-11 18:30:28.394760,103.0
2023-08-11 18:30:28.402449,124.0
2023-08-11 18:30:28.410139,146.0
2023-08-11 18:30:28.417829,160.0
2023-08-11 18:30:28.425518,174.0
2023-08-11 18:30:28.433208,186.0
2023-08-11 18:30:28.440898,189.0
2023-08-11 18:30:28.448588,184.0
2023-08-11 18:30:28.456277,174.0
2023-08-11 18:30:28.463967,148.0
2023-08-11 18:30:28.471657,105.0
2023-08-11 18:30:28.479347,45.0
2023-08-11 18:30:28.487036,-21.0
2023-08-11 18:30:28.494726,-81.0
2023-08-11 18:30:28.502416,-127.0
2023-08-11 18:30:28.510106,-160.0
2023-08-11 18:30:28.517795,-189.0
2023-08-11 18:30:28.525485,-206.0
2023-08-11 18:30:28.533175,-213.0
2023-08-11 18:30:28.540865,-213.0
2023-08-11 18:30:28.548554,-203.0
2023-08-11 18:30:28.556244,-196.0
2023-08-11 18:30:28.563934,-186.0
2023-08-11 18:30:28.571624,-179.0
2023-08-11 18:30:28.579313,-174.0
2023-08-11 18:30:28.587003,-170.0
2023-08-11 18:30:28.594693,-165.0
2023-08-11 18:30:28.602382,-162.0
2023-08-11 18:30:28.610072,-160.0
2023-08-11 18:30:28.617762,-153.0
2023-08-11 18:30:28.625452,-150.0
2023-08-11 18:30:28.633141,-155.0
2023-08-11 18:30:28.640831,-155.0
2023-08-11 18:30:28.648521,-150.0
2023-08-11 18:30:28.656211,-150.0
2023-08-11 18:30:28.663900,-150.0
2023-08-11 18:30:28.671590,-148.0
2023-08-11 18:30:28.679280,-146.0
2023-08-11 18:30:28.686970,-146.0
2023-08-11 18:30:28.694659,-143.0
2023-08-11 18:30:28.702349,-141.0
2023-08-11 18:30:28.710039,-139.0
2023-08-11 18:30:28.717729,-139.0
2023-08-11 18:30:28.725418,-141.0
2023-08-11 18:30:28.733108,-143.0
2023-08-11 18:30:28.740798,-139.0
2023-08-11 18:30:28.748488,-136.0
2023-08-11 18:30:28.756177,-139.0
2023-08-11 18:30:28.763867,-136.0
2023-08-11 18:30:28.771557,-134.0
2023-08-11 18:30:28.779246,-131.0
2023-08-11 18:30:28.786936,-127.0
2023-08-11 18:30:28.794626,-124.0
2023-08-11 18:30:28.802316,-127.0
2023-08-11 18:30:28.810005,-122.0
2023-08-11 18:30:28.817695,-119.0
2023-08-11 18:30:28.825385,-117.0
2023-08-11 18:30:28.833075,-115.0
2023-08-11 18:30:28.840764,-112.0
2023-08-11 18:30:28.848454,-115.0
2023-08-11 18:30:28.856144,-112.0
2023-08-11 18:30:28.863834,-107.0
2023-08-11 18:30:28.871523,-105.0
2023-08-11 18:30:28.879213,-103.0
2023-08-11 18:30:28.886903,-103.0
2023-08-11 18:30:28.894593,-103.0
2023-08-11 18:30:28.902282,-103.0
2023-08-11 18:30:28.909972,-100.0
2023-08-11 18:30:28.917662,-100.0
2023-08-11 18:30:28.925352,-95.0
2023-08-11 18:30:28.933041,-93.0
2023-08-11 18:30:28.940731,-95.0
2023-08-11 18:30:28.948421,-95.0
2023-08-11 18:30:28.956110,-95.0
2023-08-11 18:30:28.963800,-93.0
2023-08-11 18:30:28.971490,-88.0
2023-08-11 18:30:28.979180,-88.0
2023-08-11 18:30:28.986869,-88.0
2023-08-11 18:30:28.994559,-86.0
2023-08-11 18:30:29.002249,-86.0
2023-08-11 18:30:29.009939,-88.0
2023-08-11 18:30:29.017628,-91.0
2023-08-11 18:30:29.025318,-88.0
2023-08-11 18:30:29.033008,-86.0
2023-08-11 18:30:29.040698,-86.0
2023-08-11 18:30:29.048387,-88.0
2023-08-11 18:30:29.056077,-83.0
2023-08-11 18:30:29.063767,-81.0
2023-08-11 18:30:29.071457,-81.0
2023-08-11 18:30:29.079146,-83.0
2023-08-11 18:30:29.086836,-88.0
2023-08-11 18:30:29.094526,-93.0
2023-08-11 18:30:29.102216,-83.0
2023-08-11 18:30:29.109905,-45.0
2023-08-11 18:30:29.117595,-7.0
2023-08-11 18:30:29.125285,-9.0
2023-08-11 18:30:29.132975,-21.0
2023-08-11 18:30:29.140664,-26.0
2023-08-11 18:30:29.148354,-57.0
2023-08-11 18:30:29.156044,-91.0
2023-08-11 18:30:29.163733,-93.0
2023-08-11 18:30:29.171423,-86.0
2023-08-11 18:30:29.179113,-93.0
2023-08-11 18:30:29.186803,-93.0
2023-08-11 18:30:29.194492,-86.0
2023-08-11 18:30:29.202182,-86.0
2023-08-11 18:30:29.209872,-86.0
2023-08-11 18:30:29.217562,-98.0
2023-08-11 18:30:29.225251,-119.0
2023-08-11 18:30:29.232941,2.0
2023-08-11 18:30:29.240631,512.0
2023-08-11 18:30:29.248321,1212.0
2023-08-11 18:30:29.256010,1406.0
2023-08-11 18:30:29.263700,625.0
2023-08-11 18:30:29.271390,-522.0
2023-08-11 18:30:29.279080,-814.0
2023-08-11 18:30:29.286769,-330.0
2023-08-11 18:30:29.294459,-110.0
2023-08-11 18:30:29.302149,-225.0
2023-08-11 18:30:29.309839,-210.0
2023-08-11 18:30:29.317528,-143.0
2023-08-11 18:30:29.325218,-158.0
2023-08-11 18:30:29.332908,-150.0
2023-08-11 18:30:29.340597,-115.0
2023-08-11 18:30:29.348287,-107.0
2023-08-11 18:30:29.355977,-107.0
2023-08-11 18:30:29.363667,-91.0
2023-08-11 18:30:29.371356,-79.0
2023-08-11 18:30:29.379046,-71.0
2023-08-11 18:30:29.386736,-59.0
2023-08-11 18:30:29.394426,-50.0
2023-08-11 18:30:29.402115,-40.0
2023-08-11 18:30:29.409805,-31.0
2023-08-11 18:30:29.417495,-16.0
2023-08-11 18:30:29.425185,0.0
2023-08-11 18:30:29.432874,9.0
2023-08-11 18:30:29.440564,21.0
2023-08-11 18:30:29.448254,33.0
2023-08-11 18:30:29.455944,45.0
2023-08-11 18:30:29.463633,64.0
2023-08-11 18:30:29.471323,83.0
2023-08-11 18:30:29.479013,100.0
2023-08-11 18:30:29.486703,119.0
2023-08-11 18:30:29.494392,134.0
2023-08-11 18:30:29.502082,150.0
2023-08-11 18:30:29.509772,167.0
2023-08-11 18:30:29.517461,182.0
2023-08-11 18:30:29.525151,194.0
2023-08-11 18:30:29.532841,196.0
2023-08-11 18:30:29.540531,189.0
2023-08-11 18:30:29.548220,174.0
2023-08-11 18:30:29.555910,148.0
2023-08-11 18:30:29.563600,100.0
2023-08-11 18:30:29.571290,38.0
2023-08-11 18:30:29.578979,-28.0
2023-08-11 18:30:29.586669,-88.0
2023-08-11 18:30:29.594359,-136.0
2023-08-11 18:30:29.602049,-167.0
2023-08-11 18:30:29.609738,-189.0
2023-08-11 18:30:29.617428,-201.0
2023-08-11 18:30:29.625118,-203.0
2023-08-11 18:30:29.632808,-206.0
2023-08-11 18:30:29.640497,-206.0
2023-08-11 18:30:29.648187,-198.0
2023-08-11 18:30:29.655877,-186.0
2023-08-11 18:30:29.663567,-177.0
2023-08-11 18:30:29.671256,-177.0
2023-08-11 18:30:29.678946,-174.0
2023-08-11 18:30:29.686636,-162.0
2023-08-11 18:30:29.694325,-153.0
2023-08-11 18:30:29.702015,-148.0
2023-08-11 18:30:29.709705,-143.0
2023-08-11 18:30:29.717395,-141.0
2023-08-11 18:30:29.725084,-146.0
2023-08-11 18:30:29.732774,-146.0
2023-08-11 18:30:29.740464,-143.0
2023-08-11 18:30:29.748154,-150.0
2023-08-11 18:30:29.755843,-150.0
2023-08-11 18:30:29.763533,-148.0
2023-08-11 18:30:29.771223,-146.0
2023-08-11 18:30:29.778913,-146.0
2023-08-11 18:30:29.786602,-141.0
2023-08-11 18:30:29.794292,-139.0
2023-08-11 18:30:29.801982,-139.0
2023-08-11 18:30:29.809672,-136.0
2023-08-11 18:30:29.817361,-136.0
2023-08-11 18:30:29.825051,-134.0
