time,ECG
2023-08-10 18:15:47.197769,-78.0
2023-08-10 18:15:47.205460,-76.0
2023-08-10 18:15:47.213151,-69.0
2023-08-10 18:15:47.220842,-66.0
2023-08-10 18:15:47.228533,-71.0
2023-08-10 18:15:47.236224,-71.0
2023-08-10 18:15:47.243915,-69.0
2023-08-10 18:15:47.251606,-69.0
2023-08-10 18:15:47.259297,-64.0
2023-08-10 18:15:47.266988,-66.0
2023-08-10 18:15:47.274679,-71.0
2023-08-10 18:15:47.282370,-66.0
2023-08-10 18:15:47.290061,-54.0
2023-08-10 18:15:47.297752,-45.0
2023-08-10 18:15:47.305443,-35.0
2023-08-10 18:15:47.313134,-26.0
2023-08-10 18:15:47.320825,-21.0
2023-08-10 18:15:47.328516,-26.0
2023-08-10 18:15:47.336207,-42.0
2023-08-10 18:15:47.343898,-59.0
2023-08-10 18:15:47.351589,-66.0
2023-08-10 18:15:47.359280,-64.0
2023-08-10 18:15:47.366971,-71.0
2023-08-10 18:15:47.374662,-78.0
2023-08-10 18:15:47.382353,-73.0
2023-08-10 18:15:47.390044,-69.0
2023-08-10 18:15:47.397735,-78.0
2023-08-10 18:15:47.405426,-97.0
2023-08-10 18:15:47.413117,11.0
2023-08-10 18:15:47.420808,404.0
2023-08-10 18:15:47.428499,933.0
2023-08-10 18:15:47.436190,1135.0
2023-08-10 18:15:47.443881,533.0
2023-08-10 18:15:47.451572,-523.0
2023-08-10 18:15:47.459263,-787.0
2023-08-10 18:15:47.466954,-242.0
2023-08-10 18:15:47.474645,-66.0
2023-08-10 18:15:47.482336,-226.0
2023-08-10 18:15:47.490027,-154.0
2023-08-10 18:15:47.497718,-83.0
2023-08-10 18:15:47.505409,-135.0
2023-08-10 18:15:47.513100,-128.0
2023-08-10 18:15:47.520791,-88.0
2023-08-10 18:15:47.528483,-95.0
2023-08-10 18:15:47.536174,-92.0
2023-08-10 18:15:47.543865,-73.0
2023-08-10 18:15:47.551556,-73.0
2023-08-10 18:15:47.559247,-78.0
2023-08-10 18:15:47.566938,-71.0
2023-08-10 18:15:47.574629,-61.0
2023-08-10 18:15:47.582320,-49.0
2023-08-10 18:15:47.590011,-47.0
2023-08-10 18:15:47.597702,-42.0
2023-08-10 18:15:47.605393,-30.0
2023-08-10 18:15:47.613084,-19.0
2023-08-10 18:15:47.620775,-11.0
2023-08-10 18:15:47.628466,0.0
2023-08-10 18:15:47.636157,9.0
2023-08-10 18:15:47.643848,23.0
2023-08-10 18:15:47.651539,40.0
2023-08-10 18:15:47.659230,57.0
2023-08-10 18:15:47.666921,71.0
2023-08-10 18:15:47.674612,88.0
2023-08-10 18:15:47.682303,99.0
2023-08-10 18:15:47.689994,104.0
2023-08-10 18:15:47.697685,107.0
2023-08-10 18:15:47.705376,109.0
2023-08-10 18:15:47.713067,99.0
2023-08-10 18:15:47.720758,78.0
2023-08-10 18:15:47.728449,52.0
2023-08-10 18:15:47.736140,21.0
2023-08-10 18:15:47.743831,-19.0
2023-08-10 18:15:47.751522,-61.0
2023-08-10 18:15:47.759213,-97.0
2023-08-10 18:15:47.766904,-126.0
2023-08-10 18:15:47.774595,-152.0
2023-08-10 18:15:47.782286,-173.0
2023-08-10 18:15:47.789977,-183.0
2023-08-10 18:15:47.797668,-178.0
2023-08-10 18:15:47.805359,-173.0
2023-08-10 18:15:47.813050,-171.0
2023-08-10 18:15:47.820741,-169.0
2023-08-10 18:15:47.828432,-166.0
2023-08-10 18:15:47.836123,-161.0
2023-08-10 18:15:47.843814,-157.0
2023-08-10 18:15:47.851505,-152.0
2023-08-10 18:15:47.859196,-138.0
2023-08-10 18:15:47.866888,-128.0
2023-08-10 18:15:47.874579,-130.0
2023-08-10 18:15:47.882270,-128.0
2023-08-10 18:15:47.889961,-121.0
2023-08-10 18:15:47.897652,-114.0
2023-08-10 18:15:47.905343,-109.0
2023-08-10 18:15:47.913034,-104.0
2023-08-10 18:15:47.920725,-102.0
2023-08-10 18:15:47.928416,-99.0
2023-08-10 18:15:47.936107,-95.0
2023-08-10 18:15:47.943798,-90.0
2023-08-10 18:15:47.951489,-88.0
2023-08-10 18:15:47.959180,-92.0
2023-08-10 18:15:47.966871,-99.0
2023-08-10 18:15:47.974562,-92.0
2023-08-10 18:15:47.982253,-85.0
2023-08-10 18:15:47.989944,-85.0
2023-08-10 18:15:47.997635,-90.0
2023-08-10 18:15:48.005326,-92.0
2023-08-10 18:15:48.013017,-92.0
2023-08-10 18:15:48.020708,-90.0
2023-08-10 18:15:48.028399,-88.0
2023-08-10 18:15:48.036090,-90.0
2023-08-10 18:15:48.043781,-90.0
2023-08-10 18:15:48.051472,-85.0
2023-08-10 18:15:48.059163,-92.0
2023-08-10 18:15:48.066854,-90.0
2023-08-10 18:15:48.074545,-76.0
2023-08-10 18:15:48.082236,-76.0
2023-08-10 18:15:48.089927,-80.0
2023-08-10 18:15:48.097618,-78.0
2023-08-10 18:15:48.105309,-76.0
2023-08-10 18:15:48.113000,-76.0
2023-08-10 18:15:48.120691,-73.0
2023-08-10 18:15:48.128382,-76.0
2023-08-10 18:15:48.136073,-78.0
2023-08-10 18:15:48.143764,-80.0
2023-08-10 18:15:48.151455,-80.0
2023-08-10 18:15:48.159146,-71.0
2023-08-10 18:15:48.166837,-64.0
2023-08-10 18:15:48.174528,-69.0
2023-08-10 18:15:48.182219,-73.0
2023-08-10 18:15:48.189910,-73.0
2023-08-10 18:15:48.197601,-69.0
2023-08-10 18:15:48.205292,-66.0
2023-08-10 18:15:48.212984,-66.0
2023-08-10 18:15:48.220675,-69.0
2023-08-10 18:15:48.228366,-71.0
2023-08-10 18:15:48.236057,-71.0
2023-08-10 18:15:48.243748,-76.0
2023-08-10 18:15:48.251439,-73.0
2023-08-10 18:15:48.259130,-69.0
2023-08-10 18:15:48.266821,-69.0
2023-08-10 18:15:48.274512,-66.0
2023-08-10 18:15:48.282203,-66.0
2023-08-10 18:15:48.289894,-71.0
2023-08-10 18:15:48.297585,-71.0
2023-08-10 18:15:48.305276,-64.0
2023-08-10 18:15:48.312967,-59.0
2023-08-10 18:15:48.320658,-64.0
2023-08-10 18:15:48.328349,-61.0
2023-08-10 18:15:48.336040,-59.0
2023-08-10 18:15:48.343731,-61.0
2023-08-10 18:15:48.351422,-57.0
2023-08-10 18:15:48.359113,-52.0
2023-08-10 18:15:48.366804,-59.0
2023-08-10 18:15:48.374495,-59.0
2023-08-10 18:15:48.382186,-57.0
2023-08-10 18:15:48.389877,-61.0
2023-08-10 18:15:48.397568,-64.0
2023-08-10 18:15:48.405259,-59.0
2023-08-10 18:15:48.412950,-54.0
2023-08-10 18:15:48.420641,-59.0
2023-08-10 18:15:48.428332,-66.0
2023-08-10 18:15:48.436023,-59.0
2023-08-10 18:15:48.443714,-57.0
2023-08-10 18:15:48.451405,-57.0
2023-08-10 18:15:48.459096,-47.0
2023-08-10 18:15:48.466787,-33.0
2023-08-10 18:15:48.474478,-30.0
2023-08-10 18:15:48.482169,-38.0
2023-08-10 18:15:48.489860,-40.0
2023-08-10 18:15:48.497551,-42.0
2023-08-10 18:15:48.505242,-59.0
2023-08-10 18:15:48.512933,-71.0
2023-08-10 18:15:48.520624,-73.0
2023-08-10 18:15:48.528315,-73.0
2023-08-10 18:15:48.536006,-71.0
2023-08-10 18:15:48.543697,-59.0
2023-08-10 18:15:48.551388,-57.0
2023-08-10 18:15:48.559080,-76.0
2023-08-10 18:15:48.566771,-83.0
2023-08-10 18:15:48.574462,61.0
2023-08-10 18:15:48.582153,476.0
2023-08-10 18:15:48.589844,978.0
2023-08-10 18:15:48.597535,1087.0
2023-08-10 18:15:48.605226,388.0
2023-08-10 18:15:48.612917,-616.0
2023-08-10 18:15:48.620608,-733.0
2023-08-10 18:15:48.628299,-188.0
2023-08-10 18:15:48.635990,-88.0
2023-08-10 18:15:48.643681,-235.0
2023-08-10 18:15:48.651372,-149.0
2023-08-10 18:15:48.659063,-97.0
2023-08-10 18:15:48.666754,-142.0
2023-08-10 18:15:48.674445,-121.0
2023-08-10 18:15:48.682136,-90.0
2023-08-10 18:15:48.689827,-104.0
2023-08-10 18:15:48.697518,-104.0
2023-08-10 18:15:48.705209,-83.0
2023-08-10 18:15:48.712900,-78.0
2023-08-10 18:15:48.720591,-78.0
2023-08-10 18:15:48.728282,-69.0
2023-08-10 18:15:48.735973,-52.0
2023-08-10 18:15:48.743664,-52.0
2023-08-10 18:15:48.751355,-47.0
2023-08-10 18:15:48.759046,-35.0
2023-08-10 18:15:48.766737,-26.0
2023-08-10 18:15:48.774428,-26.0
2023-08-10 18:15:48.782119,-21.0
2023-08-10 18:15:48.789810,-4.0
2023-08-10 18:15:48.797501,19.0
2023-08-10 18:15:48.805192,33.0
2023-08-10 18:15:48.812883,45.0
2023-08-10 18:15:48.820574,61.0
2023-08-10 18:15:48.828265,80.0
2023-08-10 18:15:48.835956,99.0
2023-08-10 18:15:48.843647,111.0
2023-08-10 18:15:48.851338,119.0
2023-08-10 18:15:48.859029,123.0
2023-08-10 18:15:48.866720,121.0
2023-08-10 18:15:48.874411,109.0
2023-08-10 18:15:48.882102,85.0
2023-08-10 18:15:48.889793,54.0
2023-08-10 18:15:48.897485,23.0
2023-08-10 18:15:48.905176,-11.0
2023-08-10 18:15:48.912867,-59.0
2023-08-10 18:15:48.920558,-107.0
2023-08-10 18:15:48.928249,-138.0
2023-08-10 18:15:48.935940,-152.0
2023-08-10 18:15:48.943631,-166.0
2023-08-10 18:15:48.951322,-178.0
2023-08-10 18:15:48.959013,-178.0
2023-08-10 18:15:48.966704,-178.0
2023-08-10 18:15:48.974395,-173.0
2023-08-10 18:15:48.982086,-164.0
2023-08-10 18:15:48.989777,-157.0
2023-08-10 18:15:48.997468,-159.0
2023-08-10 18:15:49.005159,-154.0
2023-08-10 18:15:49.012850,-140.0
2023-08-10 18:15:49.020541,-133.0
2023-08-10 18:15:49.028232,-133.0
2023-08-10 18:15:49.035923,-126.0
2023-08-10 18:15:49.043614,-116.0
2023-08-10 18:15:49.051305,-111.0
2023-08-10 18:15:49.058996,-109.0
2023-08-10 18:15:49.066687,-104.0
2023-08-10 18:15:49.074378,-99.0
2023-08-10 18:15:49.082069,-92.0
2023-08-10 18:15:49.089760,-85.0
2023-08-10 18:15:49.097451,-85.0
2023-08-10 18:15:49.105142,-85.0
2023-08-10 18:15:49.112833,-83.0
2023-08-10 18:15:49.120524,-85.0
2023-08-10 18:15:49.128215,-92.0
2023-08-10 18:15:49.135906,-92.0
2023-08-10 18:15:49.143597,-92.0
2023-08-10 18:15:49.151288,-92.0
2023-08-10 18:15:49.158979,-95.0
2023-08-10 18:15:49.166670,-92.0
2023-08-10 18:15:49.174361,-90.0
2023-08-10 18:15:49.182052,-90.0
2023-08-10 18:15:49.189743,-88.0
2023-08-10 18:15:49.197434,-85.0
2023-08-10 18:15:49.205125,-90.0
2023-08-10 18:15:49.212816,-88.0
2023-08-10 18:15:49.220507,-83.0
2023-08-10 18:15:49.228198,-83.0
2023-08-10 18:15:49.235889,-85.0
2023-08-10 18:15:49.243581,-85.0
2023-08-10 18:15:49.251272,-83.0
2023-08-10 18:15:49.258963,-80.0
2023-08-10 18:15:49.266654,-80.0
2023-08-10 18:15:49.274345,-80.0
2023-08-10 18:15:49.282036,-78.0
2023-08-10 18:15:49.289727,-76.0
2023-08-10 18:15:49.297418,-80.0
2023-08-10 18:15:49.305109,-78.0
2023-08-10 18:15:49.312800,-83.0
2023-08-10 18:15:49.320491,-85.0
2023-08-10 18:15:49.328182,-83.0
2023-08-10 18:15:49.335873,-80.0
2023-08-10 18:15:49.343564,-80.0
2023-08-10 18:15:49.351255,-78.0
2023-08-10 18:15:49.358946,-76.0
2023-08-10 18:15:49.366637,-76.0
2023-08-10 18:15:49.374328,-80.0
2023-08-10 18:15:49.382019,-78.0
2023-08-10 18:15:49.389710,-76.0
2023-08-10 18:15:49.397401,-76.0
2023-08-10 18:15:49.405092,-80.0
2023-08-10 18:15:49.412783,-80.0
2023-08-10 18:15:49.420474,-73.0
2023-08-10 18:15:49.428165,-69.0
2023-08-10 18:15:49.435856,-76.0
2023-08-10 18:15:49.443547,-78.0
2023-08-10 18:15:49.451238,-76.0
2023-08-10 18:15:49.458929,-76.0
2023-08-10 18:15:49.466620,-73.0
2023-08-10 18:15:49.474311,-73.0
2023-08-10 18:15:49.482002,-76.0
2023-08-10 18:15:49.489693,-71.0
2023-08-10 18:15:49.497384,-66.0
2023-08-10 18:15:49.505075,-69.0
2023-08-10 18:15:49.512766,-66.0
2023-08-10 18:15:49.520457,-59.0
2023-08-10 18:15:49.528148,-61.0
2023-08-10 18:15:49.535839,-66.0
2023-08-10 18:15:49.543530,-64.0
2023-08-10 18:15:49.551221,-59.0
2023-08-10 18:15:49.558912,-61.0
2023-08-10 18:15:49.566603,-66.0
2023-08-10 18:15:49.574294,-59.0
2023-08-10 18:15:49.581985,-57.0
2023-08-10 18:15:49.589677,-64.0
2023-08-10 18:15:49.597368,-66.0
2023-08-10 18:15:49.605059,-59.0
2023-08-10 18:15:49.612750,-59.0
2023-08-10 18:15:49.620441,-64.0
2023-08-10 18:15:49.628132,-61.0
2023-08-10 18:15:49.635823,-52.0
2023-08-10 18:15:49.643514,-35.0
2023-08-10 18:15:49.651205,-28.0
2023-08-10 18:15:49.658896,-28.0
2023-08-10 18:15:49.666587,-28.0
2023-08-10 18:15:49.674278,-42.0
2023-08-10 18:15:49.681969,-64.0
2023-08-10 18:15:49.689660,-71.0
2023-08-10 18:15:49.697351,-73.0
2023-08-10 18:15:49.705042,-76.0
2023-08-10 18:15:49.712733,-71.0
2023-08-10 18:15:49.720424,-69.0
2023-08-10 18:15:49.728115,-71.0
2023-08-10 18:15:49.735806,-76.0
2023-08-10 18:15:49.743497,-95.0
2023-08-10 18:15:49.751188,-23.0
2023-08-10 18:15:49.758879,314.0
2023-08-10 18:15:49.766570,845.0
2023-08-10 18:15:49.774261,1152.0
2023-08-10 18:15:49.781952,726.0
2023-08-10 18:15:49.789643,-323.0
2023-08-10 18:15:49.797334,-821.0
2023-08-10 18:15:49.805025,-349.0
2023-08-10 18:15:49.812716,-49.0
2023-08-10 18:15:49.820407,-214.0
2023-08-10 18:15:49.828098,-204.0
2023-08-10 18:15:49.835789,-99.0
2023-08-10 18:15:49.843480,-128.0
2023-08-10 18:15:49.851171,-138.0
2023-08-10 18:15:49.858862,-99.0
2023-08-10 18:15:49.866553,-102.0
2023-08-10 18:15:49.874244,-107.0
2023-08-10 18:15:49.881935,-85.0
2023-08-10 18:15:49.889626,-80.0
2023-08-10 18:15:49.897317,-83.0
2023-08-10 18:15:49.905008,-83.0
2023-08-10 18:15:49.912699,-76.0
2023-08-10 18:15:49.920390,-64.0
2023-08-10 18:15:49.928081,-52.0
2023-08-10 18:15:49.935773,-45.0
2023-08-10 18:15:49.943464,-47.0
2023-08-10 18:15:49.951155,-38.0
2023-08-10 18:15:49.958846,-16.0
2023-08-10 18:15:49.966537,-4.0
2023-08-10 18:15:49.974228,9.0
2023-08-10 18:15:49.981919,30.0
2023-08-10 18:15:49.989610,40.0
2023-08-10 18:15:49.997301,52.0
2023-08-10 18:15:50.004992,80.0
2023-08-10 18:15:50.012683,99.0
2023-08-10 18:15:50.020374,109.0
2023-08-10 18:15:50.028065,121.0
2023-08-10 18:15:50.035756,123.0
2023-08-10 18:15:50.043447,116.0
2023-08-10 18:15:50.051138,107.0
2023-08-10 18:15:50.058829,97.0
2023-08-10 18:15:50.066520,73.0
2023-08-10 18:15:50.074211,40.0
2023-08-10 18:15:50.081902,0.0
2023-08-10 18:15:50.089593,-38.0
2023-08-10 18:15:50.097284,-71.0
2023-08-10 18:15:50.104975,-102.0
2023-08-10 18:15:50.112666,-135.0
2023-08-10 18:15:50.120357,-154.0
2023-08-10 18:15:50.128048,-164.0
2023-08-10 18:15:50.135739,-171.0
2023-08-10 18:15:50.143430,-169.0
2023-08-10 18:15:50.151121,-161.0
2023-08-10 18:15:50.158812,-154.0
2023-08-10 18:15:50.166503,-149.0
2023-08-10 18:15:50.174194,-149.0
2023-08-10 18:15:50.181885,-149.0
2023-08-10 18:15:50.189576,-140.0
2023-08-10 18:15:50.197267,-133.0
2023-08-10 18:15:50.204958,-128.0
2023-08-10 18:15:50.212649,-123.0
2023-08-10 18:15:50.220340,-123.0
2023-08-10 18:15:50.228031,-119.0
2023-08-10 18:15:50.235722,-104.0
2023-08-10 18:15:50.243413,-92.0
2023-08-10 18:15:50.251104,-88.0
2023-08-10 18:15:50.258795,-90.0
2023-08-10 18:15:50.266486,-88.0
2023-08-10 18:15:50.274178,-83.0
2023-08-10 18:15:50.281869,-80.0
2023-08-10 18:15:50.289560,-83.0
2023-08-10 18:15:50.297251,-83.0
2023-08-10 18:15:50.304942,-80.0
2023-08-10 18:15:50.312633,-80.0
2023-08-10 18:15:50.320324,-85.0
2023-08-10 18:15:50.328015,-88.0
2023-08-10 18:15:50.335706,-85.0
2023-08-10 18:15:50.343397,-80.0
2023-08-10 18:15:50.351088,-83.0
2023-08-10 18:15:50.358779,-90.0
2023-08-10 18:15:50.366470,-90.0
2023-08-10 18:15:50.374161,-88.0
2023-08-10 18:15:50.381852,-85.0
2023-08-10 18:15:50.389543,-78.0
2023-08-10 18:15:50.397234,-83.0
2023-08-10 18:15:50.404925,-88.0
2023-08-10 18:15:50.412616,-80.0
2023-08-10 18:15:50.420307,-78.0
2023-08-10 18:15:50.427998,-83.0
2023-08-10 18:15:50.435689,-83.0
2023-08-10 18:15:50.443380,-80.0
2023-08-10 18:15:50.451071,-83.0
2023-08-10 18:15:50.458762,-85.0
2023-08-10 18:15:50.466453,-85.0
2023-08-10 18:15:50.474144,-83.0
2023-08-10 18:15:50.481835,-80.0
2023-08-10 18:15:50.489526,-92.0
2023-08-10 18:15:50.497217,-92.0
2023-08-10 18:15:50.504908,-83.0
2023-08-10 18:15:50.512599,-83.0
2023-08-10 18:15:50.520290,-85.0
2023-08-10 18:15:50.527981,-83.0
2023-08-10 18:15:50.535672,-80.0
2023-08-10 18:15:50.543363,-83.0
2023-08-10 18:15:50.551054,-80.0
2023-08-10 18:15:50.558745,-78.0
2023-08-10 18:15:50.566436,-76.0
2023-08-10 18:15:50.574127,-76.0
2023-08-10 18:15:50.581818,-76.0
2023-08-10 18:15:50.589509,-71.0
2023-08-10 18:15:50.597200,-71.0
2023-08-10 18:15:50.604891,-78.0
2023-08-10 18:15:50.612582,-76.0
2023-08-10 18:15:50.620274,-69.0
2023-08-10 18:15:50.627965,-69.0
2023-08-10 18:15:50.635656,-73.0
2023-08-10 18:15:50.643347,-76.0
2023-08-10 18:15:50.651038,-76.0
2023-08-10 18:15:50.658729,-69.0
2023-08-10 18:15:50.666420,-64.0
2023-08-10 18:15:50.674111,-69.0
2023-08-10 18:15:50.681802,-69.0
2023-08-10 18:15:50.689493,-66.0
2023-08-10 18:15:50.697184,-61.0
2023-08-10 18:15:50.704875,-61.0
2023-08-10 18:15:50.712566,-61.0
2023-08-10 18:15:50.720257,-64.0
2023-08-10 18:15:50.727948,-66.0
2023-08-10 18:15:50.735639,-64.0
2023-08-10 18:15:50.743330,-59.0
2023-08-10 18:15:50.751021,-59.0
2023-08-10 18:15:50.758712,-64.0
2023-08-10 18:15:50.766403,-61.0
2023-08-10 18:15:50.774094,-61.0
2023-08-10 18:15:50.781785,-66.0
2023-08-10 18:15:50.789476,-64.0
2023-08-10 18:15:50.797167,-57.0
2023-08-10 18:15:50.804858,-57.0
2023-08-10 18:15:50.812549,-57.0
2023-08-10 18:15:50.820240,-40.0
2023-08-10 18:15:50.827931,-21.0
2023-08-10 18:15:50.835622,-16.0
2023-08-10 18:15:50.843313,-26.0
2023-08-10 18:15:50.851004,-38.0
2023-08-10 18:15:50.858695,-52.0
2023-08-10 18:15:50.866386,-71.0
2023-08-10 18:15:50.874077,-76.0
2023-08-10 18:15:50.881768,-71.0
2023-08-10 18:15:50.889459,-71.0
2023-08-10 18:15:50.897150,-73.0
2023-08-10 18:15:50.904841,-69.0
2023-08-10 18:15:50.912532,-69.0
2023-08-10 18:15:50.920223,-85.0
2023-08-10 18:15:50.927914,-92.0
2023-08-10 18:15:50.935605,42.0
2023-08-10 18:15:50.943296,452.0
2023-08-10 18:15:50.950987,956.0
2023-08-10 18:15:50.958678,1090.0
2023-08-10 18:15:50.966370,416.0
2023-08-10 18:15:50.974061,-609.0
2023-08-10 18:15:50.981752,-761.0
2023-08-10 18:15:50.989443,-197.0
2023-08-10 18:15:50.997134,-78.0
2023-08-10 18:15:51.004825,-249.0
2023-08-10 18:15:51.012516,-166.0
2023-08-10 18:15:51.020207,-102.0
2023-08-10 18:15:51.027898,-164.0
2023-08-10 18:15:51.035589,-152.0
2023-08-10 18:15:51.043280,-104.0
2023-08-10 18:15:51.050971,-111.0
2023-08-10 18:15:51.058662,-116.0
2023-08-10 18:15:51.066353,-99.0
2023-08-10 18:15:51.074044,-95.0
2023-08-10 18:15:51.081735,-90.0
2023-08-10 18:15:51.089426,-78.0
2023-08-10 18:15:51.097117,-69.0
2023-08-10 18:15:51.104808,-64.0
2023-08-10 18:15:51.112499,-59.0
2023-08-10 18:15:51.120190,-52.0
2023-08-10 18:15:51.127881,-38.0
2023-08-10 18:15:51.135572,-21.0
2023-08-10 18:15:51.143263,-11.0
2023-08-10 18:15:51.150954,-2.0
2023-08-10 18:15:51.158645,11.0
2023-08-10 18:15:51.166336,26.0
2023-08-10 18:15:51.174027,40.0
2023-08-10 18:15:51.181718,64.0
2023-08-10 18:15:51.189409,85.0
2023-08-10 18:15:51.197100,95.0
2023-08-10 18:15:51.204791,102.0
2023-08-10 18:15:51.212482,114.0
2023-08-10 18:15:51.220173,119.0
2023-08-10 18:15:51.227864,107.0
2023-08-10 18:15:51.235555,97.0
2023-08-10 18:15:51.243246,83.0
2023-08-10 18:15:51.250937,54.0
2023-08-10 18:15:51.258628,21.0
2023-08-10 18:15:51.266319,-11.0
2023-08-10 18:15:51.274010,-52.0
2023-08-10 18:15:51.281701,-90.0
2023-08-10 18:15:51.289392,-116.0
2023-08-10 18:15:51.297083,-138.0
2023-08-10 18:15:51.304775,-149.0
2023-08-10 18:15:51.312466,-152.0
2023-08-10 18:15:51.320157,-159.0
2023-08-10 18:15:51.327848,-166.0
2023-08-10 18:15:51.335539,-161.0
2023-08-10 18:15:51.343230,-157.0
2023-08-10 18:15:51.350921,-152.0
2023-08-10 18:15:51.358612,-145.0
2023-08-10 18:15:51.366303,-138.0
2023-08-10 18:15:51.373994,-133.0
2023-08-10 18:15:51.381685,-130.0
2023-08-10 18:15:51.389376,-130.0
2023-08-10 18:15:51.397067,-126.0
2023-08-10 18:15:51.404758,-116.0
2023-08-10 18:15:51.412449,-104.0
2023-08-10 18:15:51.420140,-95.0
2023-08-10 18:15:51.427831,-95.0
2023-08-10 18:15:51.435522,-97.0
2023-08-10 18:15:51.443213,-99.0
2023-08-10 18:15:51.450904,-107.0
2023-08-10 18:15:51.458595,-99.0
2023-08-10 18:15:51.466286,-88.0
2023-08-10 18:15:51.473977,-90.0
2023-08-10 18:15:51.481668,-95.0
2023-08-10 18:15:51.489359,-92.0
2023-08-10 18:15:51.497050,-99.0
2023-08-10 18:15:51.504741,-95.0
2023-08-10 18:15:51.512432,-80.0
2023-08-10 18:15:51.520123,-90.0
2023-08-10 18:15:51.527814,-97.0
2023-08-10 18:15:51.535505,-90.0
2023-08-10 18:15:51.543196,-90.0
2023-08-10 18:15:51.550887,-92.0
2023-08-10 18:15:51.558578,-90.0
2023-08-10 18:15:51.566269,-95.0
2023-08-10 18:15:51.573960,-102.0
2023-08-10 18:15:51.581651,-102.0
2023-08-10 18:15:51.589342,-99.0
2023-08-10 18:15:51.597033,-95.0
2023-08-10 18:15:51.604724,-90.0
2023-08-10 18:15:51.612415,-97.0
2023-08-10 18:15:51.620106,-111.0
2023-08-10 18:15:51.627797,-97.0
2023-08-10 18:15:51.635488,-76.0
2023-08-10 18:15:51.643179,-80.0
2023-08-10 18:15:51.650871,-90.0
2023-08-10 18:15:51.658562,-90.0
2023-08-10 18:15:51.666253,-88.0
2023-08-10 18:15:51.673944,-85.0
2023-08-10 18:15:51.681635,-80.0
2023-08-10 18:15:51.689326,-80.0
2023-08-10 18:15:51.697017,-83.0
2023-08-10 18:15:51.704708,-76.0
2023-08-10 18:15:51.712399,-76.0
2023-08-10 18:15:51.720090,-76.0
2023-08-10 18:15:51.727781,-69.0
2023-08-10 18:15:51.735472,-69.0
2023-08-10 18:15:51.743163,-76.0
2023-08-10 18:15:51.750854,-73.0
2023-08-10 18:15:51.758545,-71.0
2023-08-10 18:15:51.766236,-71.0
2023-08-10 18:15:51.773927,-64.0
2023-08-10 18:15:51.781618,-61.0
2023-08-10 18:15:51.789309,-69.0
2023-08-10 18:15:51.797000,-69.0
2023-08-10 18:15:51.804691,-61.0
2023-08-10 18:15:51.812382,-61.0
2023-08-10 18:15:51.820073,-61.0
2023-08-10 18:15:51.827764,-61.0
2023-08-10 18:15:51.835455,-66.0
2023-08-10 18:15:51.843146,-61.0
2023-08-10 18:15:51.850837,-59.0
2023-08-10 18:15:51.858528,-66.0
2023-08-10 18:15:51.866219,-61.0
2023-08-10 18:15:51.873910,-52.0
2023-08-10 18:15:51.881601,-57.0
2023-08-10 18:15:51.889292,-64.0
2023-08-10 18:15:51.896983,-57.0
2023-08-10 18:15:51.904674,-52.0
2023-08-10 18:15:51.912365,-57.0
2023-08-10 18:15:51.920056,-57.0
2023-08-10 18:15:51.927747,-57.0
2023-08-10 18:15:51.935438,-64.0
2023-08-10 18:15:51.943129,-64.0
2023-08-10 18:15:51.950820,-59.0
2023-08-10 18:15:51.958511,-59.0
2023-08-10 18:15:51.966202,-49.0
2023-08-10 18:15:51.973893,-33.0
2023-08-10 18:15:51.981584,-28.0
2023-08-10 18:15:51.989275,-33.0
2023-08-10 18:15:51.996967,-33.0
2023-08-10 18:15:52.004658,-45.0
2023-08-10 18:15:52.012349,-66.0
2023-08-10 18:15:52.020040,-80.0
2023-08-10 18:15:52.027731,-78.0
2023-08-10 18:15:52.035422,-66.0
2023-08-10 18:15:52.043113,-64.0
2023-08-10 18:15:52.050804,-69.0
2023-08-10 18:15:52.058495,-71.0
2023-08-10 18:15:52.066186,-80.0
2023-08-10 18:15:52.073877,-90.0
2023-08-10 18:15:52.081568,19.0
2023-08-10 18:15:52.089259,397.0
2023-08-10 18:15:52.096950,914.0
2023-08-10 18:15:52.104641,1094.0
2023-08-10 18:15:52.112332,471.0
2023-08-10 18:15:52.120023,-568.0
2023-08-10 18:15:52.127714,-785.0
2023-08-10 18:15:52.135405,-226.0
2023-08-10 18:15:52.143096,-66.0
2023-08-10 18:15:52.150787,-238.0
2023-08-10 18:15:52.158478,-173.0
2023-08-10 18:15:52.166169,-97.0
2023-08-10 18:15:52.173860,-145.0
2023-08-10 18:15:52.181551,-138.0
2023-08-10 18:15:52.189242,-99.0
2023-08-10 18:15:52.196933,-109.0
2023-08-10 18:15:52.204624,-104.0
2023-08-10 18:15:52.212315,-83.0
2023-08-10 18:15:52.220006,-83.0
2023-08-10 18:15:52.227697,-83.0
2023-08-10 18:15:52.235388,-69.0
2023-08-10 18:15:52.243079,-57.0
2023-08-10 18:15:52.250770,-52.0
2023-08-10 18:15:52.258461,-45.0
2023-08-10 18:15:52.266152,-38.0
2023-08-10 18:15:52.273843,-26.0
2023-08-10 18:15:52.281534,-11.0
2023-08-10 18:15:52.289225,-2.0
2023-08-10 18:15:52.296916,4.0
2023-08-10 18:15:52.304607,19.0
2023-08-10 18:15:52.312298,30.0
2023-08-10 18:15:52.319989,45.0
2023-08-10 18:15:52.327680,64.0
2023-08-10 18:15:52.335372,80.0
2023-08-10 18:15:52.343063,88.0
2023-08-10 18:15:52.350754,97.0
2023-08-10 18:15:52.358445,107.0
2023-08-10 18:15:52.366136,114.0
2023-08-10 18:15:52.373827,104.0
2023-08-10 18:15:52.381518,90.0
2023-08-10 18:15:52.389209,73.0
2023-08-10 18:15:52.396900,52.0
2023-08-10 18:15:52.404591,23.0
2023-08-10 18:15:52.412282,-7.0
2023-08-10 18:15:52.419973,-45.0
2023-08-10 18:15:52.427664,-80.0
2023-08-10 18:15:52.435355,-109.0
2023-08-10 18:15:52.443046,-133.0
2023-08-10 18:15:52.450737,-147.0
2023-08-10 18:15:52.458428,-147.0
2023-08-10 18:15:52.466119,-157.0
2023-08-10 18:15:52.473810,-166.0
2023-08-10 18:15:52.481501,-157.0
2023-08-10 18:15:52.489192,-145.0
2023-08-10 18:15:52.496883,-147.0
2023-08-10 18:15:52.504574,-147.0
2023-08-10 18:15:52.512265,-142.0
2023-08-10 18:15:52.519956,-135.0
2023-08-10 18:15:52.527647,-130.0
2023-08-10 18:15:52.535338,-123.0
2023-08-10 18:15:52.543029,-116.0
2023-08-10 18:15:52.550720,-116.0
2023-08-10 18:15:52.558411,-107.0
2023-08-10 18:15:52.566102,-99.0
2023-08-10 18:15:52.573793,-102.0
2023-08-10 18:15:52.581484,-95.0
2023-08-10 18:15:52.589175,-88.0
2023-08-10 18:15:52.596866,-92.0
2023-08-10 18:15:52.604557,-92.0
2023-08-10 18:15:52.612248,-90.0
2023-08-10 18:15:52.619939,-88.0
2023-08-10 18:15:52.627630,-88.0
2023-08-10 18:15:52.635321,-90.0
2023-08-10 18:15:52.643012,-85.0
2023-08-10 18:15:52.650703,-85.0
2023-08-10 18:15:52.658394,-90.0
2023-08-10 18:15:52.666085,-90.0
2023-08-10 18:15:52.673776,-88.0
2023-08-10 18:15:52.681468,-90.0
2023-08-10 18:15:52.689159,-97.0
2023-08-10 18:15:52.696850,-102.0
2023-08-10 18:15:52.704541,-97.0
2023-08-10 18:15:52.712232,-97.0
2023-08-10 18:15:52.719923,-104.0
2023-08-10 18:15:52.727614,-95.0
2023-08-10 18:15:52.735305,-85.0
2023-08-10 18:15:52.742996,-88.0
2023-08-10 18:15:52.750687,-90.0
2023-08-10 18:15:52.758378,-88.0
2023-08-10 18:15:52.766069,-88.0
2023-08-10 18:15:52.773760,-90.0
2023-08-10 18:15:52.781451,-88.0
2023-08-10 18:15:52.789142,-80.0
2023-08-10 18:15:52.796833,-76.0
2023-08-10 18:15:52.804524,-76.0
2023-08-10 18:15:52.812215,-76.0
2023-08-10 18:15:52.819906,-80.0
2023-08-10 18:15:52.827597,-85.0
2023-08-10 18:15:52.835288,-85.0
2023-08-10 18:15:52.842979,-80.0
2023-08-10 18:15:52.850670,-76.0
2023-08-10 18:15:52.858361,-76.0
2023-08-10 18:15:52.866052,-80.0
2023-08-10 18:15:52.873743,-80.0
2023-08-10 18:15:52.881434,-71.0
2023-08-10 18:15:52.889125,-64.0
2023-08-10 18:15:52.896816,-69.0
2023-08-10 18:15:52.904507,-73.0
2023-08-10 18:15:52.912198,-71.0
2023-08-10 18:15:52.919889,-73.0
2023-08-10 18:15:52.927580,-71.0
2023-08-10 18:15:52.935271,-64.0
2023-08-10 18:15:52.942962,-64.0
2023-08-10 18:15:52.950653,-61.0
2023-08-10 18:15:52.958344,-59.0
2023-08-10 18:15:52.966035,-66.0
2023-08-10 18:15:52.973726,-73.0
2023-08-10 18:15:52.981417,-69.0
2023-08-10 18:15:52.989108,-66.0
2023-08-10 18:15:52.996799,-71.0
2023-08-10 18:15:53.004490,-76.0
2023-08-10 18:15:53.012181,-66.0
2023-08-10 18:15:53.019872,-57.0
2023-08-10 18:15:53.027564,-61.0
2023-08-10 18:15:53.035255,-61.0
2023-08-10 18:15:53.042946,-57.0
2023-08-10 18:15:53.050637,-57.0
2023-08-10 18:15:53.058328,-64.0
2023-08-10 18:15:53.066019,-69.0
2023-08-10 18:15:53.073710,-64.0
2023-08-10 18:15:53.081401,-61.0
2023-08-10 18:15:53.089092,-66.0
2023-08-10 18:15:53.096783,-64.0
2023-08-10 18:15:53.104474,-59.0
2023-08-10 18:15:53.112165,-61.0
2023-08-10 18:15:53.119856,-59.0
2023-08-10 18:15:53.127547,-30.0
2023-08-10 18:15:53.135238,-16.0
2023-08-10 18:15:53.142929,-28.0
2023-08-10 18:15:53.150620,-33.0
2023-08-10 18:15:53.158311,-33.0
2023-08-10 18:15:53.166002,-49.0
2023-08-10 18:15:53.173693,-69.0
2023-08-10 18:15:53.181384,-73.0
2023-08-10 18:15:53.189075,-76.0
2023-08-10 18:15:53.196766,-78.0
2023-08-10 18:15:53.204457,-69.0
2023-08-10 18:15:53.212148,-59.0
2023-08-10 18:15:53.219839,-69.0
2023-08-10 18:15:53.227530,-95.0
2023-08-10 18:15:53.235221,-76.0
2023-08-10 18:15:53.242912,159.0
2023-08-10 18:15:53.250603,645.0
2023-08-10 18:15:53.258294,1071.0
2023-08-10 18:15:53.265985,918.0
2023-08-10 18:15:53.273676,-21.0
2023-08-10 18:15:53.281367,-818.0
2023-08-10 18:15:53.289058,-561.0
2023-08-10 18:15:53.296749,-80.0
2023-08-10 18:15:53.304440,-152.0
2023-08-10 18:15:53.312131,-238.0
2023-08-10 18:15:53.319822,-128.0
2023-08-10 18:15:53.327513,-119.0
2023-08-10 18:15:53.335204,-154.0
2023-08-10 18:15:53.342895,-119.0
2023-08-10 18:15:53.350586,-104.0
2023-08-10 18:15:53.358277,-119.0
2023-08-10 18:15:53.365969,-104.0
2023-08-10 18:15:53.373660,-78.0
2023-08-10 18:15:53.381351,-80.0
2023-08-10 18:15:53.389042,-85.0
2023-08-10 18:15:53.396733,-73.0
2023-08-10 18:15:53.404424,-54.0
2023-08-10 18:15:53.412115,-49.0
2023-08-10 18:15:53.419806,-47.0
2023-08-10 18:15:53.427497,-40.0
2023-08-10 18:15:53.435188,-26.0
2023-08-10 18:15:53.442879,-9.0
2023-08-10 18:15:53.450570,0.0
2023-08-10 18:15:53.458261,4.0
2023-08-10 18:15:53.465952,21.0
2023-08-10 18:15:53.473643,35.0
2023-08-10 18:15:53.481334,47.0
2023-08-10 18:15:53.489025,61.0
2023-08-10 18:15:53.496716,73.0
2023-08-10 18:15:53.504407,83.0
2023-08-10 18:15:53.512098,95.0
2023-08-10 18:15:53.519789,102.0
2023-08-10 18:15:53.527480,102.0
2023-08-10 18:15:53.535171,97.0
2023-08-10 18:15:53.542862,78.0
2023-08-10 18:15:53.550553,49.0
2023-08-10 18:15:53.558244,23.0
2023-08-10 18:15:53.565935,2.0
2023-08-10 18:15:53.573626,-28.0
2023-08-10 18:15:53.581317,-71.0
2023-08-10 18:15:53.589008,-107.0
2023-08-10 18:15:53.596699,-130.0
2023-08-10 18:15:53.604390,-145.0
2023-08-10 18:15:53.612081,-154.0
2023-08-10 18:15:53.619772,-161.0
2023-08-10 18:15:53.627463,-161.0
2023-08-10 18:15:53.635154,-161.0
2023-08-10 18:15:53.642845,-161.0
2023-08-10 18:15:53.650536,-154.0
2023-08-10 18:15:53.658227,-145.0
2023-08-10 18:15:53.665918,-138.0
2023-08-10 18:15:53.673609,-133.0
2023-08-10 18:15:53.681300,-135.0
2023-08-10 18:15:53.688991,-130.0
2023-08-10 18:15:53.696682,-119.0
2023-08-10 18:15:53.704373,-111.0
2023-08-10 18:15:53.712065,-107.0
2023-08-10 18:15:53.719756,-104.0
2023-08-10 18:15:53.727447,-102.0
2023-08-10 18:15:53.735138,-102.0
2023-08-10 18:15:53.742829,-95.0
2023-08-10 18:15:53.750520,-85.0
2023-08-10 18:15:53.758211,-83.0
2023-08-10 18:15:53.765902,-88.0
2023-08-10 18:15:53.773593,-90.0
2023-08-10 18:15:53.781284,-83.0
2023-08-10 18:15:53.788975,-83.0
2023-08-10 18:15:53.796666,-92.0
2023-08-10 18:15:53.804357,-95.0
2023-08-10 18:15:53.812048,-88.0
2023-08-10 18:15:53.819739,-95.0
2023-08-10 18:15:53.827430,-97.0
2023-08-10 18:15:53.835121,-90.0
2023-08-10 18:15:53.842812,-92.0
2023-08-10 18:15:53.850503,-92.0
2023-08-10 18:15:53.858194,-90.0
2023-08-10 18:15:53.865885,-95.0
2023-08-10 18:15:53.873576,-102.0
2023-08-10 18:15:53.881267,-97.0
2023-08-10 18:15:53.888958,-97.0
2023-08-10 18:15:53.896649,-95.0
2023-08-10 18:15:53.904340,-95.0
2023-08-10 18:15:53.912031,-92.0
2023-08-10 18:15:53.919722,-88.0
2023-08-10 18:15:53.927413,-83.0
2023-08-10 18:15:53.935104,-85.0
2023-08-10 18:15:53.942795,-90.0
2023-08-10 18:15:53.950486,-85.0
2023-08-10 18:15:53.958177,-78.0
2023-08-10 18:15:53.965868,-80.0
2023-08-10 18:15:53.973559,-80.0
2023-08-10 18:15:53.981250,-80.0
2023-08-10 18:15:53.988941,-85.0
2023-08-10 18:15:53.996632,-88.0
2023-08-10 18:15:54.004323,-85.0
2023-08-10 18:15:54.012014,-80.0
2023-08-10 18:15:54.019705,-78.0
2023-08-10 18:15:54.027396,-80.0
2023-08-10 18:15:54.035087,-78.0
2023-08-10 18:15:54.042778,-69.0
2023-08-10 18:15:54.050469,-71.0
2023-08-10 18:15:54.058161,-78.0
2023-08-10 18:15:54.065852,-73.0
2023-08-10 18:15:54.073543,-69.0
2023-08-10 18:15:54.081234,-73.0
2023-08-10 18:15:54.088925,-73.0
2023-08-10 18:15:54.096616,-66.0
2023-08-10 18:15:54.104307,-66.0
2023-08-10 18:15:54.111998,-69.0
2023-08-10 18:15:54.119689,-66.0
2023-08-10 18:15:54.127380,-66.0
2023-08-10 18:15:54.135071,-66.0
2023-08-10 18:15:54.142762,-66.0
2023-08-10 18:15:54.150453,-61.0
2023-08-10 18:15:54.158144,-64.0
2023-08-10 18:15:54.165835,-59.0
2023-08-10 18:15:54.173526,-52.0
2023-08-10 18:15:54.181217,-59.0
2023-08-10 18:15:54.188908,-59.0
2023-08-10 18:15:54.196599,-52.0
2023-08-10 18:15:54.204290,-52.0
2023-08-10 18:15:54.211981,-59.0
2023-08-10 18:15:54.219672,-57.0
2023-08-10 18:15:54.227363,-52.0
2023-08-10 18:15:54.235054,-52.0
2023-08-10 18:15:54.242745,-47.0
2023-08-10 18:15:54.250436,-40.0
2023-08-10 18:15:54.258127,-28.0
2023-08-10 18:15:54.265818,-16.0
2023-08-10 18:15:54.273509,-16.0
2023-08-10 18:15:54.281200,-28.0
2023-08-10 18:15:54.288891,-38.0
2023-08-10 18:15:54.296582,-47.0
2023-08-10 18:15:54.304273,-64.0
2023-08-10 18:15:54.311964,-78.0
2023-08-10 18:15:54.319655,-73.0
2023-08-10 18:15:54.327346,-64.0
2023-08-10 18:15:54.335037,-66.0
2023-08-10 18:15:54.342728,-69.0
2023-08-10 18:15:54.350419,-61.0
2023-08-10 18:15:54.358110,-78.0
2023-08-10 18:15:54.365801,-71.0
2023-08-10 18:15:54.373492,119.0
2023-08-10 18:15:54.381183,559.0
2023-08-10 18:15:54.388874,1004.0
2023-08-10 18:15:54.396566,968.0
2023-08-10 18:15:54.404257,140.0
2023-08-10 18:15:54.411948,-742.0
2023-08-10 18:15:54.419639,-633.0
2023-08-10 18:15:54.427330,-104.0
2023-08-10 18:15:54.435021,-104.0
2023-08-10 18:15:54.442712,-223.0
2023-08-10 18:15:54.450403,-119.0
2023-08-10 18:15:54.458094,-92.0
2023-08-10 18:15:54.465785,-145.0
2023-08-10 18:15:54.473476,-116.0
2023-08-10 18:15:54.481167,-83.0
2023-08-10 18:15:54.488858,-102.0
2023-08-10 18:15:54.496549,-107.0
2023-08-10 18:15:54.504240,-83.0
2023-08-10 18:15:54.511931,-76.0
2023-08-10 18:15:54.519622,-76.0
2023-08-10 18:15:54.527313,-66.0
2023-08-10 18:15:54.535004,-57.0
2023-08-10 18:15:54.542695,-52.0
2023-08-10 18:15:54.550386,-47.0
2023-08-10 18:15:54.558077,-40.0
2023-08-10 18:15:54.565768,-28.0
2023-08-10 18:15:54.573459,-14.0
2023-08-10 18:15:54.581150,-4.0
2023-08-10 18:15:54.588841,4.0
2023-08-10 18:15:54.596532,26.0
2023-08-10 18:15:54.604223,45.0
2023-08-10 18:15:54.611914,54.0
2023-08-10 18:15:54.619605,69.0
2023-08-10 18:15:54.627296,88.0
2023-08-10 18:15:54.634987,95.0
2023-08-10 18:15:54.642678,99.0
2023-08-10 18:15:54.650369,116.0
2023-08-10 18:15:54.658060,116.0
2023-08-10 18:15:54.665751,102.0
2023-08-10 18:15:54.673442,85.0
2023-08-10 18:15:54.681133,69.0
2023-08-10 18:15:54.688824,47.0
2023-08-10 18:15:54.696515,16.0
2023-08-10 18:15:54.704206,-21.0
2023-08-10 18:15:54.711897,-57.0
2023-08-10 18:15:54.719588,-90.0
2023-08-10 18:15:54.727279,-119.0
2023-08-10 18:15:54.734970,-138.0
2023-08-10 18:15:54.742662,-147.0
2023-08-10 18:15:54.750353,-154.0
2023-08-10 18:15:54.758044,-161.0
2023-08-10 18:15:54.765735,-159.0
2023-08-10 18:15:54.773426,-154.0
2023-08-10 18:15:54.781117,-152.0
2023-08-10 18:15:54.788808,-149.0
2023-08-10 18:15:54.796499,-142.0
2023-08-10 18:15:54.804190,-135.0
2023-08-10 18:15:54.811881,-130.0
2023-08-10 18:15:54.819572,-123.0
2023-08-10 18:15:54.827263,-111.0
2023-08-10 18:15:54.834954,-107.0
2023-08-10 18:15:54.842645,-109.0
2023-08-10 18:15:54.850336,-104.0
2023-08-10 18:15:54.858027,-97.0
2023-08-10 18:15:54.865718,-95.0
2023-08-10 18:15:54.873409,-95.0
2023-08-10 18:15:54.881100,-88.0
2023-08-10 18:15:54.888791,-85.0
2023-08-10 18:15:54.896482,-90.0
2023-08-10 18:15:54.904173,-85.0
2023-08-10 18:15:54.911864,-78.0
2023-08-10 18:15:54.919555,-85.0
2023-08-10 18:15:54.927246,-90.0
2023-08-10 18:15:54.934937,-92.0
2023-08-10 18:15:54.942628,-99.0
2023-08-10 18:15:54.950319,-97.0
2023-08-10 18:15:54.958010,-92.0
2023-08-10 18:15:54.965701,-97.0
2023-08-10 18:15:54.973392,-97.0
2023-08-10 18:15:54.981083,-92.0
2023-08-10 18:15:54.988774,-97.0
2023-08-10 18:15:54.996465,-99.0
2023-08-10 18:15:55.004156,-90.0
2023-08-10 18:15:55.011847,-88.0
2023-08-10 18:15:55.019538,-92.0
2023-08-10 18:15:55.027229,-88.0
2023-08-10 18:15:55.034920,-88.0
2023-08-10 18:15:55.042611,-92.0
2023-08-10 18:15:55.050302,-85.0
2023-08-10 18:15:55.057993,-78.0
2023-08-10 18:15:55.065684,-83.0
2023-08-10 18:15:55.073375,-90.0
2023-08-10 18:15:55.081066,-95.0
2023-08-10 18:15:55.088758,-90.0
2023-08-10 18:15:55.096449,-85.0
2023-08-10 18:15:55.104140,-83.0
2023-08-10 18:15:55.111831,-83.0
2023-08-10 18:15:55.119522,-80.0
2023-08-10 18:15:55.127213,-76.0
2023-08-10 18:15:55.134904,-76.0
2023-08-10 18:15:55.142595,-73.0
2023-08-10 18:15:55.150286,-71.0
2023-08-10 18:15:55.157977,-71.0
2023-08-10 18:15:55.165668,-71.0
2023-08-10 18:15:55.173359,-71.0
2023-08-10 18:15:55.181050,-73.0
2023-08-10 18:15:55.188741,-71.0
2023-08-10 18:15:55.196432,-64.0
2023-08-10 18:15:55.204123,-59.0
2023-08-10 18:15:55.211814,-66.0
2023-08-10 18:15:55.219505,-64.0
2023-08-10 18:15:55.227196,-57.0
2023-08-10 18:15:55.234887,-59.0
2023-08-10 18:15:55.242578,-61.0
2023-08-10 18:15:55.250269,-59.0
2023-08-10 18:15:55.257960,-57.0
2023-08-10 18:15:55.265651,-59.0
2023-08-10 18:15:55.273342,-57.0
2023-08-10 18:15:55.281033,-61.0
2023-08-10 18:15:55.288724,-66.0
2023-08-10 18:15:55.296415,-57.0
2023-08-10 18:15:55.304106,-52.0
2023-08-10 18:15:55.311797,-54.0
2023-08-10 18:15:55.319488,-49.0
2023-08-10 18:15:55.327179,-40.0
2023-08-10 18:15:55.334870,-30.0
2023-08-10 18:15:55.342561,-16.0
2023-08-10 18:15:55.350252,-14.0
2023-08-10 18:15:55.357943,-26.0
2023-08-10 18:15:55.365634,-35.0
2023-08-10 18:15:55.373325,-40.0
2023-08-10 18:15:55.381016,-54.0
2023-08-10 18:15:55.388707,-69.0
2023-08-10 18:15:55.396398,-64.0
2023-08-10 18:15:55.404089,-52.0
2023-08-10 18:15:55.411780,-57.0
2023-08-10 18:15:55.419471,-59.0
2023-08-10 18:15:55.427163,-59.0
2023-08-10 18:15:55.434854,-78.0
2023-08-10 18:15:55.442545,-69.0
2023-08-10 18:15:55.450236,154.0
2023-08-10 18:15:55.457927,637.0
2023-08-10 18:15:55.465618,1078.0
2023-08-10 18:15:55.473309,947.0
2023-08-10 18:15:55.481000,19.0
2023-08-10 18:15:55.488691,-792.0
2023-08-10 18:15:55.496382,-557.0
2023-08-10 18:15:55.504073,-69.0
2023-08-10 18:15:55.511764,-128.0
2023-08-10 18:15:55.519455,-214.0
2023-08-10 18:15:55.527146,-102.0
2023-08-10 18:15:55.534837,-95.0
2023-08-10 18:15:55.542528,-133.0
2023-08-10 18:15:55.550219,-99.0
2023-08-10 18:15:55.557910,-80.0
2023-08-10 18:15:55.565601,-92.0
2023-08-10 18:15:55.573292,-92.0
2023-08-10 18:15:55.580983,-83.0
2023-08-10 18:15:55.588674,-76.0
2023-08-10 18:15:55.596365,-69.0
2023-08-10 18:15:55.604056,-66.0
2023-08-10 18:15:55.611747,-61.0
2023-08-10 18:15:55.619438,-57.0
2023-08-10 18:15:55.627129,-49.0
2023-08-10 18:15:55.634820,-38.0
2023-08-10 18:15:55.642511,-28.0
2023-08-10 18:15:55.650202,-16.0
2023-08-10 18:15:55.657893,-2.0
2023-08-10 18:15:55.665584,7.0
2023-08-10 18:15:55.673275,21.0
2023-08-10 18:15:55.680966,40.0
2023-08-10 18:15:55.688657,54.0
2023-08-10 18:15:55.696348,69.0
2023-08-10 18:15:55.704039,85.0
2023-08-10 18:15:55.711730,95.0
2023-08-10 18:15:55.719421,102.0
2023-08-10 18:15:55.727112,111.0
2023-08-10 18:15:55.734803,109.0
2023-08-10 18:15:55.742494,99.0
2023-08-10 18:15:55.750185,88.0
2023-08-10 18:15:55.757876,69.0
2023-08-10 18:15:55.765567,38.0
2023-08-10 18:15:55.773259,0.0
2023-08-10 18:15:55.780950,-40.0
2023-08-10 18:15:55.788641,-73.0
2023-08-10 18:15:55.796332,-107.0
2023-08-10 18:15:55.804023,-135.0
2023-08-10 18:15:55.811714,-154.0
2023-08-10 18:15:55.819405,-161.0
2023-08-10 18:15:55.827096,-164.0
2023-08-10 18:15:55.834787,-169.0
2023-08-10 18:15:55.842478,-169.0
2023-08-10 18:15:55.850169,-161.0
2023-08-10 18:15:55.857860,-154.0
2023-08-10 18:15:55.865551,-152.0
2023-08-10 18:15:55.873242,-147.0
2023-08-10 18:15:55.880933,-138.0
2023-08-10 18:15:55.888624,-135.0
2023-08-10 18:15:55.896315,-133.0
2023-08-10 18:15:55.904006,-123.0
2023-08-10 18:15:55.911697,-114.0
2023-08-10 18:15:55.919388,-111.0
2023-08-10 18:15:55.927079,-109.0
2023-08-10 18:15:55.934770,-99.0
2023-08-10 18:15:55.942461,-90.0
2023-08-10 18:15:55.950152,-88.0
2023-08-10 18:15:55.957843,-88.0
2023-08-10 18:15:55.965534,-85.0
2023-08-10 18:15:55.973225,-83.0
2023-08-10 18:15:55.980916,-85.0
2023-08-10 18:15:55.988607,-88.0
2023-08-10 18:15:55.996298,-90.0
2023-08-10 18:15:56.003989,-90.0
2023-08-10 18:15:56.011680,-92.0
2023-08-10 18:15:56.019371,-95.0
2023-08-10 18:15:56.027062,-92.0
2023-08-10 18:15:56.034753,-95.0
2023-08-10 18:15:56.042444,-95.0
2023-08-10 18:15:56.050135,-92.0
2023-08-10 18:15:56.057826,-95.0
2023-08-10 18:15:56.065517,-99.0
2023-08-10 18:15:56.073208,-102.0
2023-08-10 18:15:56.080899,-99.0
2023-08-10 18:15:56.088590,-99.0
2023-08-10 18:15:56.096281,-99.0
2023-08-10 18:15:56.103972,-102.0
2023-08-10 18:15:56.111663,-104.0
2023-08-10 18:15:56.119355,-102.0
2023-08-10 18:15:56.127046,-95.0
2023-08-10 18:15:56.134737,-95.0
2023-08-10 18:15:56.142428,-97.0
2023-08-10 18:15:56.150119,-92.0
2023-08-10 18:15:56.157810,-88.0
2023-08-10 18:15:56.165501,-90.0
2023-08-10 18:15:56.173192,-92.0
2023-08-10 18:15:56.180883,-90.0
2023-08-10 18:15:56.188574,-88.0
2023-08-10 18:15:56.196265,-85.0
2023-08-10 18:15:56.203956,-80.0
2023-08-10 18:15:56.211647,-73.0
2023-08-10 18:15:56.219338,-78.0
2023-08-10 18:15:56.227029,-78.0
2023-08-10 18:15:56.234720,-76.0
2023-08-10 18:15:56.242411,-76.0
2023-08-10 18:15:56.250102,-76.0
2023-08-10 18:15:56.257793,-76.0
2023-08-10 18:15:56.265484,-76.0
2023-08-10 18:15:56.273175,-76.0
2023-08-10 18:15:56.280866,-76.0
2023-08-10 18:15:56.288557,-78.0
2023-08-10 18:15:56.296248,-73.0
2023-08-10 18:15:56.303939,-64.0
2023-08-10 18:15:56.311630,-66.0
2023-08-10 18:15:56.319321,-69.0
2023-08-10 18:15:56.327012,-64.0
2023-08-10 18:15:56.334703,-66.0
2023-08-10 18:15:56.342394,-71.0
2023-08-10 18:15:56.350085,-64.0
2023-08-10 18:15:56.357776,-59.0
2023-08-10 18:15:56.365467,-66.0
2023-08-10 18:15:56.373158,-64.0
2023-08-10 18:15:56.380849,-59.0
2023-08-10 18:15:56.388540,-59.0
2023-08-10 18:15:56.396231,-57.0
2023-08-10 18:15:56.403922,-54.0
2023-08-10 18:15:56.411613,-54.0
2023-08-10 18:15:56.419304,-57.0
2023-08-10 18:15:56.426995,-59.0
2023-08-10 18:15:56.434686,-57.0
2023-08-10 18:15:56.442377,-45.0
2023-08-10 18:15:56.450068,-35.0
2023-08-10 18:15:56.457760,-26.0
2023-08-10 18:15:56.465451,-16.0
2023-08-10 18:15:56.473142,-14.0
2023-08-10 18:15:56.480833,-19.0
2023-08-10 18:15:56.488524,-33.0
2023-08-10 18:15:56.496215,-64.0
2023-08-10 18:15:56.503906,-78.0
2023-08-10 18:15:56.511597,-76.0
2023-08-10 18:15:56.519288,-80.0
2023-08-10 18:15:56.526979,-83.0
2023-08-10 18:15:56.534670,-69.0
2023-08-10 18:15:56.542361,-61.0
2023-08-10 18:15:56.550052,-76.0
2023-08-10 18:15:56.557743,-97.0
2023-08-10 18:15:56.565434,-28.0
2023-08-10 18:15:56.573125,304.0
2023-08-10 18:15:56.580816,833.0
2023-08-10 18:15:56.588507,1130.0
2023-08-10 18:15:56.596198,692.0
2023-08-10 18:15:56.603889,-357.0
2023-08-10 18:15:56.611580,-833.0
2023-08-10 18:15:56.619271,-342.0
2023-08-10 18:15:56.626962,-45.0
2023-08-10 18:15:56.634653,-211.0
2023-08-10 18:15:56.642344,-199.0
2023-08-10 18:15:56.650035,-102.0
2023-08-10 18:15:56.657726,-145.0
2023-08-10 18:15:56.665417,-154.0
2023-08-10 18:15:56.673108,-102.0
2023-08-10 18:15:56.680799,-97.0
2023-08-10 18:15:56.688490,-114.0
2023-08-10 18:15:56.696181,-107.0
2023-08-10 18:15:56.703872,-99.0
2023-08-10 18:15:56.711563,-95.0
2023-08-10 18:15:56.719254,-83.0
2023-08-10 18:15:56.726945,-73.0
2023-08-10 18:15:56.734636,-61.0
2023-08-10 18:15:56.742327,-54.0
2023-08-10 18:15:56.750018,-52.0
2023-08-10 18:15:56.757709,-47.0
2023-08-10 18:15:56.765400,-40.0
2023-08-10 18:15:56.773091,-33.0
2023-08-10 18:15:56.780782,-21.0
2023-08-10 18:15:56.788473,-9.0
2023-08-10 18:15:56.796164,11.0
2023-08-10 18:15:56.803856,30.0
2023-08-10 18:15:56.811547,45.0
2023-08-10 18:15:56.819238,59.0
2023-08-10 18:15:56.826929,73.0
2023-08-10 18:15:56.834620,80.0
2023-08-10 18:15:56.842311,85.0
2023-08-10 18:15:56.850002,92.0
2023-08-10 18:15:56.857693,95.0
2023-08-10 18:15:56.865384,83.0
2023-08-10 18:15:56.873075,59.0
2023-08-10 18:15:56.880766,38.0
2023-08-10 18:15:56.888457,16.0
2023-08-10 18:15:56.896148,-16.0
2023-08-10 18:15:56.903839,-57.0
2023-08-10 18:15:56.911530,-95.0
2023-08-10 18:15:56.919221,-126.0
2023-08-10 18:15:56.926912,-142.0
2023-08-10 18:15:56.934603,-152.0
2023-08-10 18:15:56.942294,-164.0
2023-08-10 18:15:56.949985,-169.0
2023-08-10 18:15:56.957676,-169.0
2023-08-10 18:15:56.965367,-166.0
2023-08-10 18:15:56.973058,-159.0
2023-08-10 18:15:56.980749,-154.0
2023-08-10 18:15:56.988440,-154.0
2023-08-10 18:15:56.996131,-152.0
2023-08-10 18:15:57.003822,-147.0
2023-08-10 18:15:57.011513,-145.0
2023-08-10 18:15:57.019204,-138.0
2023-08-10 18:15:57.026895,-133.0
2023-08-10 18:15:57.034586,-128.0
2023-08-10 18:15:57.042277,-121.0
2023-08-10 18:15:57.049968,-114.0
2023-08-10 18:15:57.057659,-111.0
2023-08-10 18:15:57.065350,-109.0
2023-08-10 18:15:57.073041,-99.0
2023-08-10 18:15:57.080732,-95.0
2023-08-10 18:15:57.088423,-92.0
2023-08-10 18:15:57.096114,-90.0
2023-08-10 18:15:57.103805,-92.0
2023-08-10 18:15:57.111496,-97.0
2023-08-10 18:15:57.119187,-90.0
2023-08-10 18:15:57.126878,-88.0
2023-08-10 18:15:57.134569,-92.0
2023-08-10 18:15:57.142260,-92.0
2023-08-10 18:15:57.149952,-95.0
2023-08-10 18:15:57.157643,-97.0
2023-08-10 18:15:57.165334,-90.0
2023-08-10 18:15:57.173025,-85.0
2023-08-10 18:15:57.180716,-90.0
2023-08-10 18:15:57.188407,-92.0
2023-08-10 18:15:57.196098,-92.0
2023-08-10 18:15:57.203789,-90.0
2023-08-10 18:15:57.211480,-88.0
2023-08-10 18:15:57.219171,-85.0
2023-08-10 18:15:57.226862,-85.0
2023-08-10 18:15:57.234553,-92.0
2023-08-10 18:15:57.242244,-99.0
2023-08-10 18:15:57.249935,-97.0
2023-08-10 18:15:57.257626,-95.0
2023-08-10 18:15:57.265317,-97.0
2023-08-10 18:15:57.273008,-90.0
2023-08-10 18:15:57.280699,-88.0
2023-08-10 18:15:57.288390,-90.0
2023-08-10 18:15:57.296081,-88.0
2023-08-10 18:15:57.303772,-85.0
2023-08-10 18:15:57.311463,-83.0
2023-08-10 18:15:57.319154,-83.0
2023-08-10 18:15:57.326845,-83.0
2023-08-10 18:15:57.334536,-85.0
2023-08-10 18:15:57.342227,-83.0
2023-08-10 18:15:57.349918,-73.0
2023-08-10 18:15:57.357609,-66.0
2023-08-10 18:15:57.365300,-76.0
2023-08-10 18:15:57.372991,-80.0
2023-08-10 18:15:57.380682,-73.0
2023-08-10 18:15:57.388373,-71.0
2023-08-10 18:15:57.396064,-71.0
2023-08-10 18:15:57.403755,-69.0
2023-08-10 18:15:57.411446,-69.0
2023-08-10 18:15:57.419137,-71.0
2023-08-10 18:15:57.426828,-71.0
2023-08-10 18:15:57.434519,-64.0
2023-08-10 18:15:57.442210,-64.0
2023-08-10 18:15:57.449901,-66.0
2023-08-10 18:15:57.457592,-64.0
2023-08-10 18:15:57.465283,-66.0
2023-08-10 18:15:57.472974,-66.0
2023-08-10 18:15:57.480665,-61.0
2023-08-10 18:15:57.488357,-64.0
2023-08-10 18:15:57.496048,-69.0
2023-08-10 18:15:57.503739,-66.0
2023-08-10 18:15:57.511430,-64.0
2023-08-10 18:15:57.519121,-69.0
2023-08-10 18:15:57.526812,-71.0
2023-08-10 18:15:57.534503,-69.0
2023-08-10 18:15:57.542194,-66.0
2023-08-10 18:15:57.549885,-64.0
2023-08-10 18:15:57.557576,-66.0
2023-08-10 18:15:57.565267,-71.0
2023-08-10 18:15:57.572958,-69.0
2023-08-10 18:15:57.580649,-52.0
2023-08-10 18:15:57.588340,-47.0
2023-08-10 18:15:57.596031,-54.0
2023-08-10 18:15:57.603722,-42.0
2023-08-10 18:15:57.611413,-21.0
2023-08-10 18:15:57.619104,-19.0
2023-08-10 18:15:57.626795,-28.0
2023-08-10 18:15:57.634486,-28.0
2023-08-10 18:15:57.642177,-42.0
2023-08-10 18:15:57.649868,-69.0
2023-08-10 18:15:57.657559,-73.0
2023-08-10 18:15:57.665250,-61.0
2023-08-10 18:15:57.672941,-66.0
2023-08-10 18:15:57.680632,-71.0
2023-08-10 18:15:57.688323,-61.0
2023-08-10 18:15:57.696014,-59.0
2023-08-10 18:15:57.703705,-78.0
2023-08-10 18:15:57.711396,-78.0
2023-08-10 18:15:57.719087,97.0
2023-08-10 18:15:57.726778,547.0
2023-08-10 18:15:57.734469,1025.0
2023-08-10 18:15:57.742160,1028.0
2023-08-10 18:15:57.749851,209.0
2023-08-10 18:15:57.757542,-721.0
2023-08-10 18:15:57.765233,-652.0
2023-08-10 18:15:57.772924,-114.0
2023-08-10 18:15:57.780615,-114.0
2023-08-10 18:15:57.788306,-247.0
2023-08-10 18:15:57.795997,-135.0
2023-08-10 18:15:57.803688,-99.0
2023-08-10 18:15:57.811379,-147.0
2023-08-10 18:15:57.819070,-121.0
2023-08-10 18:15:57.826761,-95.0
2023-08-10 18:15:57.834453,-109.0
2023-08-10 18:15:57.842144,-92.0
2023-08-10 18:15:57.849835,-73.0
2023-08-10 18:15:57.857526,-76.0
2023-08-10 18:15:57.865217,-76.0
2023-08-10 18:15:57.872908,-64.0
2023-08-10 18:15:57.880599,-54.0
2023-08-10 18:15:57.888290,-54.0
2023-08-10 18:15:57.895981,-49.0
2023-08-10 18:15:57.903672,-42.0
2023-08-10 18:15:57.911363,-33.0
2023-08-10 18:15:57.919054,-19.0
2023-08-10 18:15:57.926745,-7.0
2023-08-10 18:15:57.934436,4.0
2023-08-10 18:15:57.942127,19.0
2023-08-10 18:15:57.949818,30.0
2023-08-10 18:15:57.957509,45.0
2023-08-10 18:15:57.965200,61.0
2023-08-10 18:15:57.972891,73.0
2023-08-10 18:15:57.980582,85.0
2023-08-10 18:15:57.988273,92.0
2023-08-10 18:15:57.995964,95.0
2023-08-10 18:15:58.003655,92.0
2023-08-10 18:15:58.011346,85.0
2023-08-10 18:15:58.019037,71.0
2023-08-10 18:15:58.026728,52.0
2023-08-10 18:15:58.034419,30.0
2023-08-10 18:15:58.042110,2.0
2023-08-10 18:15:58.049801,-33.0
2023-08-10 18:15:58.057492,-73.0
2023-08-10 18:15:58.065183,-104.0
2023-08-10 18:15:58.072874,-128.0
2023-08-10 18:15:58.080565,-147.0
2023-08-10 18:15:58.088256,-159.0
2023-08-10 18:15:58.095947,-166.0
2023-08-10 18:15:58.103638,-171.0
2023-08-10 18:15:58.111329,-169.0
2023-08-10 18:15:58.119020,-157.0
2023-08-10 18:15:58.126711,-149.0
2023-08-10 18:15:58.134402,-154.0
2023-08-10 18:15:58.142093,-152.0
2023-08-10 18:15:58.149784,-135.0
2023-08-10 18:15:58.157475,-126.0
2023-08-10 18:15:58.165166,-126.0
2023-08-10 18:15:58.172857,-121.0
2023-08-10 18:15:58.180549,-114.0
2023-08-10 18:15:58.188240,-114.0
2023-08-10 18:15:58.195931,-107.0
2023-08-10 18:15:58.203622,-99.0
2023-08-10 18:15:58.211313,-99.0
2023-08-10 18:15:58.219004,-99.0
2023-08-10 18:15:58.226695,-90.0
2023-08-10 18:15:58.234386,-83.0
2023-08-10 18:15:58.242077,-85.0
2023-08-10 18:15:58.249768,-90.0
2023-08-10 18:15:58.257459,-90.0
2023-08-10 18:15:58.265150,-90.0
2023-08-10 18:15:58.272841,-92.0
2023-08-10 18:15:58.280532,-97.0
2023-08-10 18:15:58.288223,-97.0
2023-08-10 18:15:58.295914,-95.0
2023-08-10 18:15:58.303605,-85.0
2023-08-10 18:15:58.311296,-90.0
2023-08-10 18:15:58.318987,-104.0
2023-08-10 18:15:58.326678,-104.0
2023-08-10 18:15:58.334369,-92.0
2023-08-10 18:15:58.342060,-90.0
2023-08-10 18:15:58.349751,-99.0
2023-08-10 18:15:58.357442,-97.0
2023-08-10 18:15:58.365133,-92.0
2023-08-10 18:15:58.372824,-92.0
2023-08-10 18:15:58.380515,-90.0
2023-08-10 18:15:58.388206,-85.0
2023-08-10 18:15:58.395897,-88.0
2023-08-10 18:15:58.403588,-88.0
2023-08-10 18:15:58.411279,-80.0
2023-08-10 18:15:58.418970,-80.0
2023-08-10 18:15:58.426661,-83.0
2023-08-10 18:15:58.434352,-78.0
2023-08-10 18:15:58.442043,-73.0
2023-08-10 18:15:58.449734,-76.0
2023-08-10 18:15:58.457425,-78.0
2023-08-10 18:15:58.465116,-76.0
2023-08-10 18:15:58.472807,-76.0
2023-08-10 18:15:58.480498,-76.0
2023-08-10 18:15:58.488189,-76.0
2023-08-10 18:15:58.495880,-80.0
2023-08-10 18:15:58.503571,-78.0
2023-08-10 18:15:58.511262,-76.0
2023-08-10 18:15:58.518954,-80.0
2023-08-10 18:15:58.526645,-80.0
2023-08-10 18:15:58.534336,-76.0
2023-08-10 18:15:58.542027,-76.0
2023-08-10 18:15:58.549718,-76.0
2023-08-10 18:15:58.557409,-76.0
2023-08-10 18:15:58.565100,-76.0
2023-08-10 18:15:58.572791,-69.0
2023-08-10 18:15:58.580482,-69.0
2023-08-10 18:15:58.588173,-76.0
2023-08-10 18:15:58.595864,-69.0
2023-08-10 18:15:58.603555,-59.0
2023-08-10 18:15:58.611246,-61.0
2023-08-10 18:15:58.618937,-66.0
2023-08-10 18:15:58.626628,-66.0
2023-08-10 18:15:58.634319,-66.0
2023-08-10 18:15:58.642010,-61.0
2023-08-10 18:15:58.649701,-59.0
2023-08-10 18:15:58.657392,-59.0
2023-08-10 18:15:58.665083,-59.0
2023-08-10 18:15:58.672774,-57.0
2023-08-10 18:15:58.680465,-57.0
2023-08-10 18:15:58.688156,-57.0
2023-08-10 18:15:58.695847,-57.0
2023-08-10 18:15:58.703538,-49.0
2023-08-10 18:15:58.711229,-45.0
2023-08-10 18:15:58.718920,-33.0
2023-08-10 18:15:58.726611,-19.0
2023-08-10 18:15:58.734302,-23.0
2023-08-10 18:15:58.741993,-33.0
2023-08-10 18:15:58.749684,-35.0
2023-08-10 18:15:58.757375,-40.0
2023-08-10 18:15:58.765066,-59.0
2023-08-10 18:15:58.772757,-71.0
2023-08-10 18:15:58.780448,-73.0
2023-08-10 18:15:58.788139,-69.0
2023-08-10 18:15:58.795830,-59.0
2023-08-10 18:15:58.803521,-54.0
2023-08-10 18:15:58.811212,-64.0
2023-08-10 18:15:58.818903,-80.0
2023-08-10 18:15:58.826594,-59.0
2023-08-10 18:15:58.834285,145.0
2023-08-10 18:15:58.841976,606.0
2023-08-10 18:15:58.849667,1042.0
2023-08-10 18:15:58.857358,921.0
2023-08-10 18:15:58.865050,9.0
2023-08-10 18:15:58.872741,-795.0
2023-08-10 18:15:58.880432,-566.0
2023-08-10 18:15:58.888123,-76.0
2023-08-10 18:15:58.895814,-126.0
2023-08-10 18:15:58.903505,-216.0
2023-08-10 18:15:58.911196,-104.0
2023-08-10 18:15:58.918887,-90.0
2023-08-10 18:15:58.926578,-128.0
2023-08-10 18:15:58.934269,-95.0
2023-08-10 18:15:58.941960,-76.0
2023-08-10 18:15:58.949651,-92.0
2023-08-10 18:15:58.957342,-85.0
2023-08-10 18:15:58.965033,-73.0
2023-08-10 18:15:58.972724,-73.0
2023-08-10 18:15:58.980415,-69.0
2023-08-10 18:15:58.988106,-64.0
2023-08-10 18:15:58.995797,-57.0
2023-08-10 18:15:59.003488,-49.0
2023-08-10 18:15:59.011179,-42.0
2023-08-10 18:15:59.018870,-40.0
2023-08-10 18:15:59.026561,-33.0
2023-08-10 18:15:59.034252,-21.0
2023-08-10 18:15:59.041943,-11.0
2023-08-10 18:15:59.049634,2.0
2023-08-10 18:15:59.057325,19.0
2023-08-10 18:15:59.065016,33.0
2023-08-10 18:15:59.072707,47.0
2023-08-10 18:15:59.080398,61.0
2023-08-10 18:15:59.088089,73.0
2023-08-10 18:15:59.095780,88.0
2023-08-10 18:15:59.103471,102.0
2023-08-10 18:15:59.111162,104.0
2023-08-10 18:15:59.118853,104.0
2023-08-10 18:15:59.126544,99.0
2023-08-10 18:15:59.134235,85.0
2023-08-10 18:15:59.141926,61.0
2023-08-10 18:15:59.149617,35.0
2023-08-10 18:15:59.157308,7.0
2023-08-10 18:15:59.164999,-28.0
2023-08-10 18:15:59.172690,-71.0
2023-08-10 18:15:59.180381,-104.0
2023-08-10 18:15:59.188072,-123.0
2023-08-10 18:15:59.195763,-142.0
2023-08-10 18:15:59.203454,-159.0
2023-08-10 18:15:59.211146,-161.0
2023-08-10 18:15:59.218837,-164.0
2023-08-10 18:15:59.226528,-169.0
2023-08-10 18:15:59.234219,-157.0
2023-08-10 18:15:59.241910,-147.0
2023-08-10 18:15:59.249601,-149.0
2023-08-10 18:15:59.257292,-145.0
2023-08-10 18:15:59.264983,-130.0
2023-08-10 18:15:59.272674,-128.0
2023-08-10 18:15:59.280365,-128.0
2023-08-10 18:15:59.288056,-116.0
2023-08-10 18:15:59.295747,-109.0
2023-08-10 18:15:59.303438,-107.0
2023-08-10 18:15:59.311129,-107.0
2023-08-10 18:15:59.318820,-104.0
2023-08-10 18:15:59.326511,-97.0
2023-08-10 18:15:59.334202,-90.0
2023-08-10 18:15:59.341893,-83.0
2023-08-10 18:15:59.349584,-85.0
2023-08-10 18:15:59.357275,-90.0
2023-08-10 18:15:59.364966,-90.0
2023-08-10 18:15:59.372657,-85.0
2023-08-10 18:15:59.380348,-83.0
2023-08-10 18:15:59.388039,-85.0
2023-08-10 18:15:59.395730,-88.0
2023-08-10 18:15:59.403421,-90.0
2023-08-10 18:15:59.411112,-92.0
2023-08-10 18:15:59.418803,-92.0
2023-08-10 18:15:59.426494,-90.0
2023-08-10 18:15:59.434185,-83.0
2023-08-10 18:15:59.441876,-92.0
2023-08-10 18:15:59.449567,-107.0
2023-08-10 18:15:59.457258,-99.0
2023-08-10 18:15:59.464949,-90.0
2023-08-10 18:15:59.472640,-97.0
2023-08-10 18:15:59.480331,-102.0
2023-08-10 18:15:59.488022,-107.0
2023-08-10 18:15:59.495713,-107.0
2023-08-10 18:15:59.503404,-99.0
2023-08-10 18:15:59.511095,-102.0
2023-08-10 18:15:59.518786,-102.0
2023-08-10 18:15:59.526477,-97.0
2023-08-10 18:15:59.534168,-99.0
2023-08-10 18:15:59.541859,-102.0
2023-08-10 18:15:59.549551,-95.0
2023-08-10 18:15:59.557242,-88.0
2023-08-10 18:15:59.564933,-90.0
2023-08-10 18:15:59.572624,-97.0
2023-08-10 18:15:59.580315,-104.0
2023-08-10 18:15:59.588006,-102.0
2023-08-10 18:15:59.595697,-95.0
2023-08-10 18:15:59.603388,-90.0
2023-08-10 18:15:59.611079,-92.0
2023-08-10 18:15:59.618770,-90.0
2023-08-10 18:15:59.626461,-83.0
2023-08-10 18:15:59.634152,-80.0
2023-08-10 18:15:59.641843,-85.0
2023-08-10 18:15:59.649534,-85.0
2023-08-10 18:15:59.657225,-76.0
2023-08-10 18:15:59.664916,-76.0
2023-08-10 18:15:59.672607,-80.0
2023-08-10 18:15:59.680298,-76.0
2023-08-10 18:15:59.687989,-76.0
2023-08-10 18:15:59.695680,-80.0
2023-08-10 18:15:59.703371,-73.0
2023-08-10 18:15:59.711062,-66.0
2023-08-10 18:15:59.718753,-71.0
2023-08-10 18:15:59.726444,-76.0
2023-08-10 18:15:59.734135,-69.0
2023-08-10 18:15:59.741826,-66.0
2023-08-10 18:15:59.749517,-69.0
2023-08-10 18:15:59.757208,-69.0
2023-08-10 18:15:59.764899,-66.0
2023-08-10 18:15:59.772590,-64.0
2023-08-10 18:15:59.780281,-66.0
2023-08-10 18:15:59.787972,-66.0
2023-08-10 18:15:59.795663,-66.0
2023-08-10 18:15:59.803354,-64.0
2023-08-10 18:15:59.811045,-61.0
2023-08-10 18:15:59.818736,-54.0
2023-08-10 18:15:59.826427,-54.0
2023-08-10 18:15:59.834118,-52.0
2023-08-10 18:15:59.841809,-49.0
2023-08-10 18:15:59.849500,-42.0
2023-08-10 18:15:59.857191,-21.0
2023-08-10 18:15:59.864882,-11.0
2023-08-10 18:15:59.872573,-23.0
2023-08-10 18:15:59.880264,-30.0
2023-08-10 18:15:59.887955,-38.0
2023-08-10 18:15:59.895647,-57.0
2023-08-10 18:15:59.903338,-66.0
2023-08-10 18:15:59.911029,-64.0
2023-08-10 18:15:59.918720,-66.0
2023-08-10 18:15:59.926411,-71.0
2023-08-10 18:15:59.934102,-64.0
2023-08-10 18:15:59.941793,-57.0
2023-08-10 18:15:59.949484,-73.0
2023-08-10 18:15:59.957175,-95.0
2023-08-10 18:15:59.964866,30.0
2023-08-10 18:15:59.972557,449.0
2023-08-10 18:15:59.980248,966.0
2023-08-10 18:15:59.987939,1090.0
2023-08-10 18:15:59.995630,407.0
2023-08-10 18:16:00.003321,-604.0
2023-08-10 18:16:00.011012,-742.0
2023-08-10 18:16:00.018703,-180.0
2023-08-10 18:16:00.026394,-76.0
2023-08-10 18:16:00.034085,-245.0
2023-08-10 18:16:00.041776,-154.0
2023-08-10 18:16:00.049467,-88.0
2023-08-10 18:16:00.057158,-145.0
2023-08-10 18:16:00.064849,-128.0
2023-08-10 18:16:00.072540,-92.0
2023-08-10 18:16:00.080231,-109.0
2023-08-10 18:16:00.087922,-104.0
2023-08-10 18:16:00.095613,-85.0
2023-08-10 18:16:00.103304,-85.0
2023-08-10 18:16:00.110995,-80.0
2023-08-10 18:16:00.118686,-73.0
2023-08-10 18:16:00.126377,-69.0
2023-08-10 18:16:00.134068,-59.0
2023-08-10 18:16:00.141759,-45.0
2023-08-10 18:16:00.149450,-35.0
2023-08-10 18:16:00.157141,-30.0
2023-08-10 18:16:00.164832,-21.0
2023-08-10 18:16:00.172523,-7.0
2023-08-10 18:16:00.180214,7.0
2023-08-10 18:16:00.187905,19.0
2023-08-10 18:16:00.195596,33.0
2023-08-10 18:16:00.203287,47.0
2023-08-10 18:16:00.210978,57.0
2023-08-10 18:16:00.218669,71.0
2023-08-10 18:16:00.226360,88.0
2023-08-10 18:16:00.234051,102.0
2023-08-10 18:16:00.241743,109.0
2023-08-10 18:16:00.249434,109.0
2023-08-10 18:16:00.257125,102.0
2023-08-10 18:16:00.264816,92.0
2023-08-10 18:16:00.272507,78.0
2023-08-10 18:16:00.280198,52.0
2023-08-10 18:16:00.287889,16.0
2023-08-10 18:16:00.295580,-19.0
2023-08-10 18:16:00.303271,-59.0
2023-08-10 18:16:00.310962,-90.0
2023-08-10 18:16:00.318653,-111.0
2023-08-10 18:16:00.326344,-128.0
2023-08-10 18:16:00.334035,-147.0
2023-08-10 18:16:00.341726,-159.0
2023-08-10 18:16:00.349417,-159.0
2023-08-10 18:16:00.357108,-157.0
2023-08-10 18:16:00.364799,-154.0
2023-08-10 18:16:00.372490,-154.0
2023-08-10 18:16:00.380181,-149.0
2023-08-10 18:16:00.387872,-147.0
2023-08-10 18:16:00.395563,-140.0
2023-08-10 18:16:00.403254,-128.0
2023-08-10 18:16:00.410945,-126.0
2023-08-10 18:16:00.418636,-121.0
2023-08-10 18:16:00.426327,-114.0
2023-08-10 18:16:00.434018,-111.0
2023-08-10 18:16:00.441709,-107.0
2023-08-10 18:16:00.449400,-99.0
2023-08-10 18:16:00.457091,-102.0
2023-08-10 18:16:00.464782,-97.0
2023-08-10 18:16:00.472473,-85.0
2023-08-10 18:16:00.480164,-80.0
2023-08-10 18:16:00.487855,-85.0
2023-08-10 18:16:00.495546,-85.0
2023-08-10 18:16:00.503237,-85.0
2023-08-10 18:16:00.510928,-85.0
2023-08-10 18:16:00.518619,-83.0
2023-08-10 18:16:00.526310,-85.0
2023-08-10 18:16:00.534001,-95.0
2023-08-10 18:16:00.541692,-99.0
2023-08-10 18:16:00.549383,-97.0
2023-08-10 18:16:00.557074,-95.0
2023-08-10 18:16:00.564765,-102.0
2023-08-10 18:16:00.572456,-107.0
2023-08-10 18:16:00.580147,-102.0
2023-08-10 18:16:00.587839,-99.0
2023-08-10 18:16:00.595530,-99.0
2023-08-10 18:16:00.603221,-99.0
2023-08-10 18:16:00.610912,-102.0
2023-08-10 18:16:00.618603,-99.0
2023-08-10 18:16:00.626294,-92.0
2023-08-10 18:16:00.633985,-90.0
2023-08-10 18:16:00.641676,-90.0
2023-08-10 18:16:00.649367,-90.0
2023-08-10 18:16:00.657058,-90.0
2023-08-10 18:16:00.664749,-90.0
2023-08-10 18:16:00.672440,-88.0
2023-08-10 18:16:00.680131,-85.0
2023-08-10 18:16:00.687822,-80.0
2023-08-10 18:16:00.695513,-78.0
2023-08-10 18:16:00.703204,-83.0
2023-08-10 18:16:00.710895,-85.0
2023-08-10 18:16:00.718586,-80.0
2023-08-10 18:16:00.726277,-76.0
2023-08-10 18:16:00.733968,-76.0
2023-08-10 18:16:00.741659,-80.0
2023-08-10 18:16:00.749350,-83.0
2023-08-10 18:16:00.757041,-78.0
2023-08-10 18:16:00.764732,-73.0
2023-08-10 18:16:00.772423,-69.0
2023-08-10 18:16:00.780114,-69.0
2023-08-10 18:16:00.787805,-76.0
2023-08-10 18:16:00.795496,-76.0
2023-08-10 18:16:00.803187,-66.0
2023-08-10 18:16:00.810878,-61.0
2023-08-10 18:16:00.818569,-64.0
2023-08-10 18:16:00.826260,-61.0
2023-08-10 18:16:00.833951,-64.0
2023-08-10 18:16:00.841642,-71.0
2023-08-10 18:16:00.849333,-69.0
2023-08-10 18:16:00.857024,-61.0
2023-08-10 18:16:00.864715,-59.0
2023-08-10 18:16:00.872406,-59.0
2023-08-10 18:16:00.880097,-64.0
2023-08-10 18:16:00.887788,-61.0
2023-08-10 18:16:00.895479,-59.0
2023-08-10 18:16:00.903170,-59.0
2023-08-10 18:16:00.910861,-52.0
2023-08-10 18:16:00.918552,-52.0
2023-08-10 18:16:00.926244,-59.0
2023-08-10 18:16:00.933935,-57.0
2023-08-10 18:16:00.941626,-57.0
2023-08-10 18:16:00.949317,-61.0
2023-08-10 18:16:00.957008,-61.0
2023-08-10 18:16:00.964699,-59.0
2023-08-10 18:16:00.972390,-61.0
2023-08-10 18:16:00.980081,-61.0
2023-08-10 18:16:00.987772,-49.0
2023-08-10 18:16:00.995463,-40.0
2023-08-10 18:16:01.003154,-38.0
2023-08-10 18:16:01.010845,-21.0
2023-08-10 18:16:01.018536,-11.0
2023-08-10 18:16:01.026227,-19.0
2023-08-10 18:16:01.033918,-28.0
2023-08-10 18:16:01.041609,-47.0
2023-08-10 18:16:01.049300,-69.0
2023-08-10 18:16:01.056991,-76.0
2023-08-10 18:16:01.064682,-76.0
2023-08-10 18:16:01.072373,-80.0
2023-08-10 18:16:01.080064,-80.0
2023-08-10 18:16:01.087755,-66.0
2023-08-10 18:16:01.095446,-59.0
2023-08-10 18:16:01.103137,-78.0
2023-08-10 18:16:01.110828,-102.0
2023-08-10 18:16:01.118519,-11.0
2023-08-10 18:16:01.126210,347.0
2023-08-10 18:16:01.133901,871.0
2023-08-10 18:16:01.141592,1128.0
2023-08-10 18:16:01.149283,611.0
2023-08-10 18:16:01.156974,-454.0
2023-08-10 18:16:01.164665,-816.0
2023-08-10 18:16:01.172356,-278.0
2023-08-10 18:16:01.180047,-45.0
2023-08-10 18:16:01.187738,-223.0
2023-08-10 18:16:01.195429,-185.0
2023-08-10 18:16:01.203120,-95.0
2023-08-10 18:16:01.210811,-135.0
2023-08-10 18:16:01.218502,-140.0
2023-08-10 18:16:01.226193,-99.0
2023-08-10 18:16:01.233884,-99.0
2023-08-10 18:16:01.241575,-107.0
2023-08-10 18:16:01.249266,-95.0
2023-08-10 18:16:01.256957,-90.0
2023-08-10 18:16:01.264648,-83.0
2023-08-10 18:16:01.272340,-71.0
2023-08-10 18:16:01.280031,-64.0
2023-08-10 18:16:01.287722,-61.0
2023-08-10 18:16:01.295413,-52.0
2023-08-10 18:16:01.303104,-47.0
2023-08-10 18:16:01.310795,-40.0
2023-08-10 18:16:01.318486,-21.0
2023-08-10 18:16:01.326177,-7.0
2023-08-10 18:16:01.333868,0.0
2023-08-10 18:16:01.341559,9.0
2023-08-10 18:16:01.349250,26.0
2023-08-10 18:16:01.356941,40.0
2023-08-10 18:16:01.364632,59.0
2023-08-10 18:16:01.372323,78.0
2023-08-10 18:16:01.380014,88.0
2023-08-10 18:16:01.387705,92.0
2023-08-10 18:16:01.395396,102.0
2023-08-10 18:16:01.403087,114.0
2023-08-10 18:16:01.410778,109.0
2023-08-10 18:16:01.418469,92.0
2023-08-10 18:16:01.426160,78.0
2023-08-10 18:16:01.433851,54.0
2023-08-10 18:16:01.441542,21.0
2023-08-10 18:16:01.449233,-11.0
2023-08-10 18:16:01.456924,-49.0
2023-08-10 18:16:01.464615,-88.0
2023-08-10 18:16:01.472306,-121.0
2023-08-10 18:16:01.479997,-138.0
2023-08-10 18:16:01.487688,-142.0
2023-08-10 18:16:01.495379,-154.0
2023-08-10 18:16:01.503070,-166.0
2023-08-10 18:16:01.510761,-164.0
2023-08-10 18:16:01.518452,-159.0
2023-08-10 18:16:01.526143,-157.0
2023-08-10 18:16:01.533834,-157.0
2023-08-10 18:16:01.541525,-157.0
2023-08-10 18:16:01.549216,-157.0
2023-08-10 18:16:01.556907,-145.0
2023-08-10 18:16:01.564598,-130.0
2023-08-10 18:16:01.572289,-130.0
2023-08-10 18:16:01.579980,-126.0
2023-08-10 18:16:01.587671,-119.0
2023-08-10 18:16:01.595362,-119.0
2023-08-10 18:16:01.603053,-111.0
2023-08-10 18:16:01.610744,-99.0
2023-08-10 18:16:01.618436,-99.0
2023-08-10 18:16:01.626127,-102.0
2023-08-10 18:16:01.633818,-92.0
2023-08-10 18:16:01.641509,-85.0
2023-08-10 18:16:01.649200,-88.0
2023-08-10 18:16:01.656891,-90.0
2023-08-10 18:16:01.664582,-90.0
2023-08-10 18:16:01.672273,-90.0
2023-08-10 18:16:01.679964,-95.0
2023-08-10 18:16:01.687655,-104.0
2023-08-10 18:16:01.695346,-109.0
2023-08-10 18:16:01.703037,-109.0
2023-08-10 18:16:01.710728,-109.0
2023-08-10 18:16:01.718419,-109.0
2023-08-10 18:16:01.726110,-107.0
2023-08-10 18:16:01.733801,-99.0
2023-08-10 18:16:01.741492,-97.0
2023-08-10 18:16:01.749183,-97.0
2023-08-10 18:16:01.756874,-99.0
2023-08-10 18:16:01.764565,-95.0
2023-08-10 18:16:01.772256,-90.0
2023-08-10 18:16:01.779947,-92.0
2023-08-10 18:16:01.787638,-92.0
2023-08-10 18:16:01.795329,-90.0
2023-08-10 18:16:01.803020,-92.0
2023-08-10 18:16:01.810711,-92.0
2023-08-10 18:16:01.818402,-83.0
2023-08-10 18:16:01.826093,-78.0
2023-08-10 18:16:01.833784,-85.0
2023-08-10 18:16:01.841475,-83.0
2023-08-10 18:16:01.849166,-76.0
2023-08-10 18:16:01.856857,-78.0
2023-08-10 18:16:01.864548,-85.0
2023-08-10 18:16:01.872239,-80.0
2023-08-10 18:16:01.879930,-71.0
2023-08-10 18:16:01.887621,-71.0
2023-08-10 18:16:01.895312,-73.0
2023-08-10 18:16:01.903003,-73.0
2023-08-10 18:16:01.910694,-73.0
2023-08-10 18:16:01.918385,-73.0
2023-08-10 18:16:01.926076,-76.0
2023-08-10 18:16:01.933767,-78.0
2023-08-10 18:16:01.941458,-76.0
2023-08-10 18:16:01.949149,-71.0
2023-08-10 18:16:01.956841,-69.0
2023-08-10 18:16:01.964532,-66.0
2023-08-10 18:16:01.972223,-66.0
2023-08-10 18:16:01.979914,-66.0
2023-08-10 18:16:01.987605,-66.0
2023-08-10 18:16:01.995296,-66.0
2023-08-10 18:16:02.002987,-69.0
2023-08-10 18:16:02.010678,-71.0
2023-08-10 18:16:02.018369,-64.0
2023-08-10 18:16:02.026060,-52.0
2023-08-10 18:16:02.033751,-59.0
2023-08-10 18:16:02.041442,-66.0
2023-08-10 18:16:02.049133,-69.0
2023-08-10 18:16:02.056824,-69.0
2023-08-10 18:16:02.064515,-71.0
2023-08-10 18:16:02.072206,-66.0
2023-08-10 18:16:02.079897,-61.0
2023-08-10 18:16:02.087588,-61.0
2023-08-10 18:16:02.095279,-66.0
2023-08-10 18:16:02.102970,-59.0
2023-08-10 18:16:02.110661,-47.0
2023-08-10 18:16:02.118352,-49.0
2023-08-10 18:16:02.126043,-54.0
2023-08-10 18:16:02.133734,-54.0
2023-08-10 18:16:02.141425,-52.0
2023-08-10 18:16:02.149116,-35.0
2023-08-10 18:16:02.156807,-19.0
2023-08-10 18:16:02.164498,-26.0
2023-08-10 18:16:02.172189,-38.0
2023-08-10 18:16:02.179880,-47.0
2023-08-10 18:16:02.187571,-59.0
2023-08-10 18:16:02.195262,-69.0
2023-08-10 18:16:02.202953,-71.0
2023-08-10 18:16:02.210644,-71.0
2023-08-10 18:16:02.218335,-69.0
2023-08-10 18:16:02.226026,-73.0
2023-08-10 18:16:02.233717,-85.0
2023-08-10 18:16:02.241408,-90.0
2023-08-10 18:16:02.249099,-90.0
2023-08-10 18:16:02.256790,14.0
2023-08-10 18:16:02.264481,376.0
2023-08-10 18:16:02.272172,873.0
2023-08-10 18:16:02.279863,1061.0
2023-08-10 18:16:02.287554,478.0
2023-08-10 18:16:02.295245,-537.0
2023-08-10 18:16:02.302937,-787.0
2023-08-10 18:16:02.310628,-242.0
2023-08-10 18:16:02.318319,-61.0
2023-08-10 18:16:02.326010,-218.0
2023-08-10 18:16:02.333701,-161.0
2023-08-10 18:16:02.341392,-92.0
2023-08-10 18:16:02.349083,-138.0
2023-08-10 18:16:02.356774,-128.0
2023-08-10 18:16:02.364465,-99.0
2023-08-10 18:16:02.372156,-107.0
2023-08-10 18:16:02.379847,-102.0
2023-08-10 18:16:02.387538,-83.0
2023-08-10 18:16:02.395229,-80.0
2023-08-10 18:16:02.402920,-76.0
2023-08-10 18:16:02.410611,-71.0
2023-08-10 18:16:02.418302,-66.0
2023-08-10 18:16:02.425993,-59.0
2023-08-10 18:16:02.433684,-49.0
2023-08-10 18:16:02.441375,-42.0
2023-08-10 18:16:02.449066,-35.0
2023-08-10 18:16:02.456757,-26.0
2023-08-10 18:16:02.464448,-14.0
2023-08-10 18:16:02.472139,0.0
2023-08-10 18:16:02.479830,16.0
2023-08-10 18:16:02.487521,30.0
2023-08-10 18:16:02.495212,45.0
2023-08-10 18:16:02.502903,64.0
2023-08-10 18:16:02.510594,78.0
2023-08-10 18:16:02.518285,92.0
2023-08-10 18:16:02.525976,102.0
2023-08-10 18:16:02.533667,107.0
2023-08-10 18:16:02.541358,111.0
2023-08-10 18:16:02.549049,111.0
2023-08-10 18:16:02.556740,92.0
2023-08-10 18:16:02.564431,66.0
2023-08-10 18:16:02.572122,49.0
2023-08-10 18:16:02.579813,28.0
2023-08-10 18:16:02.587504,-11.0
2023-08-10 18:16:02.595195,-52.0
2023-08-10 18:16:02.602886,-88.0
2023-08-10 18:16:02.610577,-116.0
2023-08-10 18:16:02.618268,-138.0
2023-08-10 18:16:02.625959,-154.0
2023-08-10 18:16:02.633650,-161.0
2023-08-10 18:16:02.641341,-166.0
2023-08-10 18:16:02.649033,-164.0
2023-08-10 18:16:02.656724,-157.0
2023-08-10 18:16:02.664415,-154.0
2023-08-10 18:16:02.672106,-154.0
2023-08-10 18:16:02.679797,-154.0
2023-08-10 18:16:02.687488,-145.0
2023-08-10 18:16:02.695179,-130.0
2023-08-10 18:16:02.702870,-123.0
2023-08-10 18:16:02.710561,-121.0
2023-08-10 18:16:02.718252,-116.0
2023-08-10 18:16:02.725943,-111.0
2023-08-10 18:16:02.733634,-109.0
2023-08-10 18:16:02.741325,-102.0
2023-08-10 18:16:02.749016,-97.0
2023-08-10 18:16:02.756707,-95.0
2023-08-10 18:16:02.764398,-92.0
2023-08-10 18:16:02.772089,-90.0
2023-08-10 18:16:02.779780,-90.0
2023-08-10 18:16:02.787471,-88.0
2023-08-10 18:16:02.795162,-88.0
2023-08-10 18:16:02.802853,-90.0
2023-08-10 18:16:02.810544,-90.0
2023-08-10 18:16:02.818235,-95.0
2023-08-10 18:16:02.825926,-102.0
2023-08-10 18:16:02.833617,-99.0
2023-08-10 18:16:02.841308,-97.0
2023-08-10 18:16:02.848999,-97.0
2023-08-10 18:16:02.856690,-99.0
2023-08-10 18:16:02.864381,-104.0
2023-08-10 18:16:02.872072,-104.0
2023-08-10 18:16:02.879763,-104.0
2023-08-10 18:16:02.887454,-104.0
2023-08-10 18:16:02.895145,-97.0
2023-08-10 18:16:02.902836,-92.0
2023-08-10 18:16:02.910527,-97.0
2023-08-10 18:16:02.918218,-99.0
2023-08-10 18:16:02.925909,-92.0
2023-08-10 18:16:02.933600,-90.0
2023-08-10 18:16:02.941291,-90.0
2023-08-10 18:16:02.948982,-90.0
2023-08-10 18:16:02.956673,-92.0
2023-08-10 18:16:02.964364,-92.0
2023-08-10 18:16:02.972055,-83.0
2023-08-10 18:16:02.979746,-78.0
2023-08-10 18:16:02.987438,-85.0
2023-08-10 18:16:02.995129,-83.0
2023-08-10 18:16:03.002820,-78.0
2023-08-10 18:16:03.010511,-76.0
2023-08-10 18:16:03.018202,-76.0
2023-08-10 18:16:03.025893,-80.0
2023-08-10 18:16:03.033584,-80.0
2023-08-10 18:16:03.041275,-69.0
2023-08-10 18:16:03.048966,-69.0
2023-08-10 18:16:03.056657,-78.0
2023-08-10 18:16:03.064348,-85.0
2023-08-10 18:16:03.072039,-80.0
2023-08-10 18:16:03.079730,-76.0
2023-08-10 18:16:03.087421,-76.0
2023-08-10 18:16:03.095112,-76.0
2023-08-10 18:16:03.102803,-76.0
2023-08-10 18:16:03.110494,-76.0
2023-08-10 18:16:03.118185,-71.0
2023-08-10 18:16:03.125876,-71.0
2023-08-10 18:16:03.133567,-71.0
2023-08-10 18:16:03.141258,-69.0
2023-08-10 18:16:03.148949,-66.0
2023-08-10 18:16:03.156640,-66.0
2023-08-10 18:16:03.164331,-69.0
2023-08-10 18:16:03.172022,-71.0
2023-08-10 18:16:03.179713,-69.0
2023-08-10 18:16:03.187404,-64.0
2023-08-10 18:16:03.195095,-64.0
2023-08-10 18:16:03.202786,-66.0
2023-08-10 18:16:03.210477,-64.0
2023-08-10 18:16:03.218168,-66.0
2023-08-10 18:16:03.225859,-66.0
2023-08-10 18:16:03.233550,-59.0
2023-08-10 18:16:03.241241,-54.0
2023-08-10 18:16:03.248932,-49.0
2023-08-10 18:16:03.256623,-52.0
2023-08-10 18:16:03.264314,-45.0
2023-08-10 18:16:03.272005,-16.0
2023-08-10 18:16:03.279696,-11.0
2023-08-10 18:16:03.287387,-35.0
2023-08-10 18:16:03.295078,-45.0
2023-08-10 18:16:03.302769,-49.0
2023-08-10 18:16:03.310460,-69.0
2023-08-10 18:16:03.318151,-78.0
2023-08-10 18:16:03.325842,-73.0
2023-08-10 18:16:03.333534,-71.0
2023-08-10 18:16:03.341225,-69.0
2023-08-10 18:16:03.348916,-71.0
2023-08-10 18:16:03.356607,-83.0
2023-08-10 18:16:03.364298,-104.0
2023-08-10 18:16:03.371989,-52.0
2023-08-10 18:16:03.379680,242.0
2023-08-10 18:16:03.387371,761.0
2023-08-10 18:16:03.395062,1123.0
2023-08-10 18:16:03.402753,785.0
2023-08-10 18:16:03.410444,-245.0
2023-08-10 18:16:03.418135,-833.0
2023-08-10 18:16:03.425826,-407.0
2023-08-10 18:16:03.433517,-45.0
2023-08-10 18:16:03.441208,-188.0
2023-08-10 18:16:03.448899,-216.0
2023-08-10 18:16:03.456590,-109.0
2023-08-10 18:16:03.464281,-126.0
2023-08-10 18:16:03.471972,-145.0
2023-08-10 18:16:03.479663,-107.0
2023-08-10 18:16:03.487354,-102.0
2023-08-10 18:16:03.495045,-111.0
2023-08-10 18:16:03.502736,-102.0
2023-08-10 18:16:03.510427,-90.0
2023-08-10 18:16:03.518118,-85.0
2023-08-10 18:16:03.525809,-78.0
2023-08-10 18:16:03.533500,-69.0
2023-08-10 18:16:03.541191,-66.0
2023-08-10 18:16:03.548882,-57.0
2023-08-10 18:16:03.556573,-49.0
2023-08-10 18:16:03.564264,-47.0
2023-08-10 18:16:03.571955,-38.0
2023-08-10 18:16:03.579646,-19.0
2023-08-10 18:16:03.587337,-11.0
2023-08-10 18:16:03.595028,-2.0
2023-08-10 18:16:03.602719,19.0
2023-08-10 18:16:03.610410,38.0
2023-08-10 18:16:03.618101,49.0
2023-08-10 18:16:03.625792,64.0
2023-08-10 18:16:03.633483,80.0
2023-08-10 18:16:03.641174,95.0
2023-08-10 18:16:03.648865,102.0
2023-08-10 18:16:03.656556,102.0
2023-08-10 18:16:03.664247,102.0
2023-08-10 18:16:03.671938,95.0
2023-08-10 18:16:03.679630,73.0
2023-08-10 18:16:03.687321,57.0
2023-08-10 18:16:03.695012,33.0
2023-08-10 18:16:03.702703,-7.0
2023-08-10 18:16:03.710394,-47.0
2023-08-10 18:16:03.718085,-80.0
2023-08-10 18:16:03.725776,-109.0
2023-08-10 18:16:03.733467,-135.0
2023-08-10 18:16:03.741158,-154.0
2023-08-10 18:16:03.748849,-161.0
2023-08-10 18:16:03.756540,-164.0
2023-08-10 18:16:03.764231,-166.0
2023-08-10 18:16:03.771922,-164.0
2023-08-10 18:16:03.779613,-157.0
2023-08-10 18:16:03.787304,-154.0
2023-08-10 18:16:03.794995,-152.0
2023-08-10 18:16:03.802686,-145.0
2023-08-10 18:16:03.810377,-142.0
2023-08-10 18:16:03.818068,-135.0
2023-08-10 18:16:03.825759,-130.0
2023-08-10 18:16:03.833450,-126.0
2023-08-10 18:16:03.841141,-116.0
2023-08-10 18:16:03.848832,-104.0
2023-08-10 18:16:03.856523,-102.0
2023-08-10 18:16:03.864214,-95.0
2023-08-10 18:16:03.871905,-88.0
2023-08-10 18:16:03.879596,-85.0
2023-08-10 18:16:03.887287,-85.0
2023-08-10 18:16:03.894978,-80.0
2023-08-10 18:16:03.902669,-85.0
2023-08-10 18:16:03.910360,-90.0
2023-08-10 18:16:03.918051,-83.0
2023-08-10 18:16:03.925742,-76.0
2023-08-10 18:16:03.933433,-83.0
2023-08-10 18:16:03.941124,-95.0
2023-08-10 18:16:03.948815,-97.0
2023-08-10 18:16:03.956506,-92.0
2023-08-10 18:16:03.964197,-95.0
2023-08-10 18:16:03.971888,-97.0
2023-08-10 18:16:03.979579,-104.0
2023-08-10 18:16:03.987270,-114.0
2023-08-10 18:16:03.994961,-104.0
2023-08-10 18:16:04.002652,-90.0
2023-08-10 18:16:04.010343,-95.0
2023-08-10 18:16:04.018035,-102.0
2023-08-10 18:16:04.025726,-99.0
2023-08-10 18:16:04.033417,-92.0
2023-08-10 18:16:04.041108,-90.0
2023-08-10 18:16:04.048799,-88.0
2023-08-10 18:16:04.056490,-83.0
2023-08-10 18:16:04.064181,-90.0
2023-08-10 18:16:04.071872,-102.0
2023-08-10 18:16:04.079563,-97.0
2023-08-10 18:16:04.087254,-85.0
2023-08-10 18:16:04.094945,-88.0
2023-08-10 18:16:04.102636,-90.0
2023-08-10 18:16:04.110327,-83.0
2023-08-10 18:16:04.118018,-80.0
2023-08-10 18:16:04.125709,-88.0
2023-08-10 18:16:04.133400,-83.0
2023-08-10 18:16:04.141091,-78.0
2023-08-10 18:16:04.148782,-80.0
2023-08-10 18:16:04.156473,-83.0
2023-08-10 18:16:04.164164,-78.0
2023-08-10 18:16:04.171855,-78.0
2023-08-10 18:16:04.179546,-78.0
2023-08-10 18:16:04.187237,-76.0
2023-08-10 18:16:04.194928,-73.0
2023-08-10 18:16:04.202619,-73.0
2023-08-10 18:16:04.210310,-71.0
2023-08-10 18:16:04.218001,-69.0
2023-08-10 18:16:04.225692,-66.0
2023-08-10 18:16:04.233383,-66.0
2023-08-10 18:16:04.241074,-66.0
2023-08-10 18:16:04.248765,-64.0
2023-08-10 18:16:04.256456,-69.0
2023-08-10 18:16:04.264147,-71.0
2023-08-10 18:16:04.271838,-59.0
2023-08-10 18:16:04.279529,-52.0
2023-08-10 18:16:04.287220,-59.0
2023-08-10 18:16:04.294911,-61.0
2023-08-10 18:16:04.302602,-59.0
2023-08-10 18:16:04.310293,-61.0
2023-08-10 18:16:04.317984,-59.0
2023-08-10 18:16:04.325675,-57.0
2023-08-10 18:16:04.333366,-57.0
2023-08-10 18:16:04.341057,-54.0
2023-08-10 18:16:04.348748,-54.0
2023-08-10 18:16:04.356439,-52.0
2023-08-10 18:16:04.364131,-47.0
2023-08-10 18:16:04.371822,-49.0
2023-08-10 18:16:04.379513,-52.0
2023-08-10 18:16:04.387204,-52.0
2023-08-10 18:16:04.394895,-57.0
2023-08-10 18:16:04.402586,-59.0
2023-08-10 18:16:04.410277,-54.0
2023-08-10 18:16:04.417968,-47.0
2023-08-10 18:16:04.425659,-42.0
2023-08-10 18:16:04.433350,-47.0
2023-08-10 18:16:04.441041,-42.0
2023-08-10 18:16:04.448732,-21.0
2023-08-10 18:16:04.456423,-7.0
2023-08-10 18:16:04.464114,-16.0
2023-08-10 18:16:04.471805,-26.0
2023-08-10 18:16:04.479496,-35.0
2023-08-10 18:16:04.487187,-57.0
2023-08-10 18:16:04.494878,-73.0
2023-08-10 18:16:04.502569,-66.0
2023-08-10 18:16:04.510260,-64.0
2023-08-10 18:16:04.517951,-66.0
2023-08-10 18:16:04.525642,-69.0
2023-08-10 18:16:04.533333,-76.0
2023-08-10 18:16:04.541024,-83.0
2023-08-10 18:16:04.548715,-95.0
2023-08-10 18:16:04.556406,-35.0
2023-08-10 18:16:04.564097,280.0
2023-08-10 18:16:04.571788,804.0
2023-08-10 18:16:04.579479,1133.0
2023-08-10 18:16:04.587170,742.0
2023-08-10 18:16:04.594861,-299.0
2023-08-10 18:16:04.602552,-821.0
2023-08-10 18:16:04.610243,-354.0
2023-08-10 18:16:04.617934,-40.0
2023-08-10 18:16:04.625625,-207.0
2023-08-10 18:16:04.633316,-207.0
2023-08-10 18:16:04.641007,-104.0
2023-08-10 18:16:04.648698,-142.0
2023-08-10 18:16:04.656389,-159.0
2023-08-10 18:16:04.664080,-114.0
2023-08-10 18:16:04.671771,-104.0
2023-08-10 18:16:04.679462,-114.0
2023-08-10 18:16:04.687153,-99.0
2023-08-10 18:16:04.694844,-85.0
2023-08-10 18:16:04.702535,-85.0
2023-08-10 18:16:04.710227,-80.0
2023-08-10 18:16:04.717918,-71.0
2023-08-10 18:16:04.725609,-64.0
2023-08-10 18:16:04.733300,-52.0
2023-08-10 18:16:04.740991,-42.0
2023-08-10 18:16:04.748682,-35.0
2023-08-10 18:16:04.756373,-30.0
2023-08-10 18:16:04.764064,-21.0
2023-08-10 18:16:04.771755,-2.0
2023-08-10 18:16:04.779446,16.0
2023-08-10 18:16:04.787137,33.0
2023-08-10 18:16:04.794828,42.0
2023-08-10 18:16:04.802519,54.0
2023-08-10 18:16:04.810210,71.0
2023-08-10 18:16:04.817901,88.0
2023-08-10 18:16:04.825592,97.0
2023-08-10 18:16:04.833283,104.0
2023-08-10 18:16:04.840974,104.0
2023-08-10 18:16:04.848665,99.0
2023-08-10 18:16:04.856356,90.0
2023-08-10 18:16:04.864047,83.0
2023-08-10 18:16:04.871738,69.0
2023-08-10 18:16:04.879429,35.0
2023-08-10 18:16:04.887120,-4.0
2023-08-10 18:16:04.894811,-42.0
2023-08-10 18:16:04.902502,-76.0
2023-08-10 18:16:04.910193,-104.0
2023-08-10 18:16:04.917884,-123.0
2023-08-10 18:16:04.925575,-138.0
2023-08-10 18:16:04.933266,-152.0
2023-08-10 18:16:04.940957,-159.0
2023-08-10 18:16:04.948648,-152.0
2023-08-10 18:16:04.956339,-147.0
2023-08-10 18:16:04.964030,-149.0
2023-08-10 18:16:04.971721,-149.0
2023-08-10 18:16:04.979412,-142.0
2023-08-10 18:16:04.987103,-138.0
2023-08-10 18:16:04.994794,-133.0
2023-08-10 18:16:05.002485,-123.0
2023-08-10 18:16:05.010176,-119.0
2023-08-10 18:16:05.017867,-116.0
2023-08-10 18:16:05.025558,-111.0
2023-08-10 18:16:05.033249,-109.0
2023-08-10 18:16:05.040940,-104.0
2023-08-10 18:16:05.048632,-92.0
2023-08-10 18:16:05.056323,-83.0
2023-08-10 18:16:05.064014,-95.0
2023-08-10 18:16:05.071705,-104.0
2023-08-10 18:16:05.079396,-99.0
2023-08-10 18:16:05.087087,-97.0
2023-08-10 18:16:05.094778,-95.0
2023-08-10 18:16:05.102469,-97.0
2023-08-10 18:16:05.110160,-109.0
2023-08-10 18:16:05.117851,-114.0
2023-08-10 18:16:05.125542,-109.0
2023-08-10 18:16:05.133233,-114.0
2023-08-10 18:16:05.140924,-119.0
2023-08-10 18:16:05.148615,-114.0
2023-08-10 18:16:05.156306,-104.0
2023-08-10 18:16:05.163997,-107.0
2023-08-10 18:16:05.171688,-109.0
2023-08-10 18:16:05.179379,-102.0
2023-08-10 18:16:05.187070,-99.0
2023-08-10 18:16:05.194761,-99.0
2023-08-10 18:16:05.202452,-99.0
2023-08-10 18:16:05.210143,-97.0
2023-08-10 18:16:05.217834,-99.0
2023-08-10 18:16:05.225525,-104.0
2023-08-10 18:16:05.233216,-95.0
2023-08-10 18:16:05.240907,-78.0
2023-08-10 18:16:05.248598,-85.0
2023-08-10 18:16:05.256289,-92.0
2023-08-10 18:16:05.263980,-85.0
2023-08-10 18:16:05.271671,-83.0
2023-08-10 18:16:05.279362,-83.0
2023-08-10 18:16:05.287053,-83.0
2023-08-10 18:16:05.294744,-88.0
2023-08-10 18:16:05.302435,-90.0
2023-08-10 18:16:05.310126,-78.0
2023-08-10 18:16:05.317817,-71.0
2023-08-10 18:16:05.325508,-76.0
2023-08-10 18:16:05.333199,-76.0
2023-08-10 18:16:05.340890,-73.0
2023-08-10 18:16:05.348581,-73.0
2023-08-10 18:16:05.356272,-76.0
2023-08-10 18:16:05.363963,-73.0
2023-08-10 18:16:05.371654,-71.0
2023-08-10 18:16:05.379345,-73.0
2023-08-10 18:16:05.387036,-76.0
2023-08-10 18:16:05.394728,-69.0
2023-08-10 18:16:05.402419,-61.0
2023-08-10 18:16:05.410110,-69.0
2023-08-10 18:16:05.417801,-71.0
2023-08-10 18:16:05.425492,-69.0
2023-08-10 18:16:05.433183,-66.0
2023-08-10 18:16:05.440874,-64.0
2023-08-10 18:16:05.448565,-61.0
2023-08-10 18:16:05.456256,-61.0
2023-08-10 18:16:05.463947,-64.0
2023-08-10 18:16:05.471638,-66.0
2023-08-10 18:16:05.479329,-61.0
2023-08-10 18:16:05.487020,-57.0
2023-08-10 18:16:05.494711,-54.0
2023-08-10 18:16:05.502402,-54.0
2023-08-10 18:16:05.510093,-59.0
2023-08-10 18:16:05.517784,-61.0
2023-08-10 18:16:05.525475,-57.0
2023-08-10 18:16:05.533166,-52.0
2023-08-10 18:16:05.540857,-57.0
2023-08-10 18:16:05.548548,-59.0
2023-08-10 18:16:05.556239,-54.0
2023-08-10 18:16:05.563930,-52.0
2023-08-10 18:16:05.571621,-54.0
2023-08-10 18:16:05.579312,-52.0
2023-08-10 18:16:05.587003,-57.0
2023-08-10 18:16:05.594694,-69.0
2023-08-10 18:16:05.602385,-76.0
2023-08-10 18:16:05.610076,-78.0
2023-08-10 18:16:05.617767,-78.0
2023-08-10 18:16:05.625458,-78.0
2023-08-10 18:16:05.633149,-78.0
2023-08-10 18:16:05.640840,-71.0
2023-08-10 18:16:05.648531,-57.0
2023-08-10 18:16:05.656222,-40.0
2023-08-10 18:16:05.663913,-33.0
2023-08-10 18:16:05.671604,-40.0
2023-08-10 18:16:05.679295,-45.0
2023-08-10 18:16:05.686986,-49.0
2023-08-10 18:16:05.694677,-71.0
2023-08-10 18:16:05.702368,-85.0
2023-08-10 18:16:05.710059,-80.0
2023-08-10 18:16:05.717750,-76.0
2023-08-10 18:16:05.725441,-80.0
2023-08-10 18:16:05.733132,-73.0
2023-08-10 18:16:05.740824,-69.0
2023-08-10 18:16:05.748515,-76.0
2023-08-10 18:16:05.756206,-90.0
2023-08-10 18:16:05.763897,4.0
2023-08-10 18:16:05.771588,364.0
2023-08-10 18:16:05.779279,878.0
2023-08-10 18:16:05.786970,1097.0
2023-08-10 18:16:05.794661,530.0
2023-08-10 18:16:05.802352,-514.0
2023-08-10 18:16:05.810043,-802.0
2023-08-10 18:16:05.817734,-249.0
2023-08-10 18:16:05.825425,-49.0
2023-08-10 18:16:05.833116,-221.0
2023-08-10 18:16:05.840807,-169.0
2023-08-10 18:16:05.848498,-85.0
2023-08-10 18:16:05.856189,-128.0
2023-08-10 18:16:05.863880,-133.0
2023-08-10 18:16:05.871571,-99.0
2023-08-10 18:16:05.879262,-102.0
2023-08-10 18:16:05.886953,-102.0
2023-08-10 18:16:05.894644,-85.0
2023-08-10 18:16:05.902335,-78.0
2023-08-10 18:16:05.910026,-80.0
2023-08-10 18:16:05.917717,-71.0
2023-08-10 18:16:05.925408,-52.0
2023-08-10 18:16:05.933099,-47.0
2023-08-10 18:16:05.940790,-45.0
2023-08-10 18:16:05.948481,-33.0
2023-08-10 18:16:05.956172,-23.0
2023-08-10 18:16:05.963863,-16.0
2023-08-10 18:16:05.971554,-7.0
2023-08-10 18:16:05.979245,7.0
2023-08-10 18:16:05.986936,21.0
2023-08-10 18:16:05.994627,35.0
2023-08-10 18:16:06.002318,54.0
2023-08-10 18:16:06.010009,66.0
2023-08-10 18:16:06.017700,76.0
2023-08-10 18:16:06.025391,92.0
2023-08-10 18:16:06.033082,107.0
2023-08-10 18:16:06.040773,111.0
2023-08-10 18:16:06.048464,107.0
2023-08-10 18:16:06.056155,102.0
2023-08-10 18:16:06.063846,92.0
2023-08-10 18:16:06.071537,80.0
2023-08-10 18:16:06.079229,61.0
2023-08-10 18:16:06.086920,28.0
2023-08-10 18:16:06.094611,-9.0
2023-08-10 18:16:06.102302,-47.0
2023-08-10 18:16:06.109993,-78.0
2023-08-10 18:16:06.117684,-109.0
2023-08-10 18:16:06.125375,-135.0
2023-08-10 18:16:06.133066,-145.0
2023-08-10 18:16:06.140757,-159.0
2023-08-10 18:16:06.148448,-180.0
2023-08-10 18:16:06.156139,-176.0
2023-08-10 18:16:06.163830,-154.0
2023-08-10 18:16:06.171521,-152.0
2023-08-10 18:16:06.179212,-154.0
2023-08-10 18:16:06.186903,-152.0
2023-08-10 18:16:06.194594,-147.0
2023-08-10 18:16:06.202285,-135.0
2023-08-10 18:16:06.209976,-128.0
2023-08-10 18:16:06.217667,-123.0
2023-08-10 18:16:06.225358,-114.0
2023-08-10 18:16:06.233049,-111.0
2023-08-10 18:16:06.240740,-109.0
2023-08-10 18:16:06.248431,-102.0
2023-08-10 18:16:06.256122,-99.0
2023-08-10 18:16:06.263813,-97.0
2023-08-10 18:16:06.271504,-90.0
2023-08-10 18:16:06.279195,-88.0
2023-08-10 18:16:06.286886,-90.0
2023-08-10 18:16:06.294577,-90.0
2023-08-10 18:16:06.302268,-85.0
2023-08-10 18:16:06.309959,-80.0
2023-08-10 18:16:06.317650,-83.0
2023-08-10 18:16:06.325341,-88.0
2023-08-10 18:16:06.333032,-88.0
2023-08-10 18:16:06.340723,-88.0
2023-08-10 18:16:06.348414,-85.0
2023-08-10 18:16:06.356105,-88.0
2023-08-10 18:16:06.363796,-92.0
2023-08-10 18:16:06.371487,-90.0
2023-08-10 18:16:06.379178,-85.0
2023-08-10 18:16:06.386869,-88.0
2023-08-10 18:16:06.394560,-88.0
2023-08-10 18:16:06.402251,-83.0
2023-08-10 18:16:06.409942,-85.0
2023-08-10 18:16:06.417633,-90.0
2023-08-10 18:16:06.425325,-80.0
2023-08-10 18:16:06.433016,-76.0
2023-08-10 18:16:06.440707,-83.0
2023-08-10 18:16:06.448398,-78.0
2023-08-10 18:16:06.456089,-76.0
2023-08-10 18:16:06.463780,-76.0
2023-08-10 18:16:06.471471,-73.0
2023-08-10 18:16:06.479162,-71.0
2023-08-10 18:16:06.486853,-71.0
2023-08-10 18:16:06.494544,-69.0
2023-08-10 18:16:06.502235,-71.0
2023-08-10 18:16:06.509926,-71.0
2023-08-10 18:16:06.517617,-64.0
2023-08-10 18:16:06.525308,-66.0
2023-08-10 18:16:06.532999,-69.0
2023-08-10 18:16:06.540690,-64.0
2023-08-10 18:16:06.548381,-61.0
2023-08-10 18:16:06.556072,-64.0
2023-08-10 18:16:06.563763,-64.0
2023-08-10 18:16:06.571454,-66.0
2023-08-10 18:16:06.579145,-64.0
2023-08-10 18:16:06.586836,-54.0
2023-08-10 18:16:06.594527,-59.0
2023-08-10 18:16:06.602218,-76.0
2023-08-10 18:16:06.609909,-78.0
2023-08-10 18:16:06.617600,-64.0
2023-08-10 18:16:06.625291,-61.0
2023-08-10 18:16:06.632982,-71.0
2023-08-10 18:16:06.640673,-73.0
2023-08-10 18:16:06.648364,-66.0
2023-08-10 18:16:06.656055,-61.0
2023-08-10 18:16:06.663746,-64.0
2023-08-10 18:16:06.671437,-66.0
2023-08-10 18:16:06.679128,-64.0
2023-08-10 18:16:06.686819,-64.0
2023-08-10 18:16:06.694510,-57.0
2023-08-10 18:16:06.702201,-54.0
2023-08-10 18:16:06.709892,-59.0
2023-08-10 18:16:06.717583,-66.0
2023-08-10 18:16:06.725274,-66.0
2023-08-10 18:16:06.732965,-69.0
2023-08-10 18:16:06.740656,-73.0
2023-08-10 18:16:06.748347,-73.0
2023-08-10 18:16:06.756038,-71.0
2023-08-10 18:16:06.763729,-71.0
2023-08-10 18:16:06.771421,-69.0
2023-08-10 18:16:06.779112,-71.0
2023-08-10 18:16:06.786803,-66.0
2023-08-10 18:16:06.794494,-64.0
2023-08-10 18:16:06.802185,-66.0
2023-08-10 18:16:06.809876,-66.0
2023-08-10 18:16:06.817567,-64.0
2023-08-10 18:16:06.825258,-61.0
2023-08-10 18:16:06.832949,-59.0
2023-08-10 18:16:06.840640,-57.0
2023-08-10 18:16:06.848331,-49.0
2023-08-10 18:16:06.856022,-38.0
2023-08-10 18:16:06.863713,-23.0
2023-08-10 18:16:06.871404,-33.0
2023-08-10 18:16:06.879095,-47.0
2023-08-10 18:16:06.886786,-49.0
2023-08-10 18:16:06.894477,-66.0
2023-08-10 18:16:06.902168,-85.0
2023-08-10 18:16:06.909859,-80.0
2023-08-10 18:16:06.917550,-76.0
2023-08-10 18:16:06.925241,-85.0
2023-08-10 18:16:06.932932,-80.0
2023-08-10 18:16:06.940623,-69.0
2023-08-10 18:16:06.948314,-76.0
2023-08-10 18:16:06.956005,-102.0
2023-08-10 18:16:06.963696,-16.0
2023-08-10 18:16:06.971387,326.0
2023-08-10 18:16:06.979078,823.0
2023-08-10 18:16:06.986769,1075.0
2023-08-10 18:16:06.994460,592.0
2023-08-10 18:16:07.002151,-442.0
2023-08-10 18:16:07.009842,-816.0
2023-08-10 18:16:07.017533,-290.0
2023-08-10 18:16:07.025224,-38.0
2023-08-10 18:16:07.032915,-207.0
2023-08-10 18:16:07.040606,-171.0
2023-08-10 18:16:07.048297,-76.0
2023-08-10 18:16:07.055988,-121.0
2023-08-10 18:16:07.063679,-126.0
2023-08-10 18:16:07.071370,-83.0
2023-08-10 18:16:07.079061,-83.0
2023-08-10 18:16:07.086752,-88.0
2023-08-10 18:16:07.094443,-76.0
2023-08-10 18:16:07.102134,-76.0
2023-08-10 18:16:07.109826,-78.0
2023-08-10 18:16:07.117517,-69.0
2023-08-10 18:16:07.125208,-54.0
2023-08-10 18:16:07.132899,-45.0
2023-08-10 18:16:07.140590,-40.0
2023-08-10 18:16:07.148281,-35.0
2023-08-10 18:16:07.155972,-23.0
2023-08-10 18:16:07.163663,-11.0
2023-08-10 18:16:07.171354,-2.0
2023-08-10 18:16:07.179045,9.0
2023-08-10 18:16:07.186736,19.0
2023-08-10 18:16:07.194427,33.0
2023-08-10 18:16:07.202118,45.0
2023-08-10 18:16:07.209809,61.0
2023-08-10 18:16:07.217500,83.0
2023-08-10 18:16:07.225191,95.0
2023-08-10 18:16:07.232882,102.0
2023-08-10 18:16:07.240573,107.0
2023-08-10 18:16:07.248264,109.0
2023-08-10 18:16:07.255955,102.0
2023-08-10 18:16:07.263646,92.0
2023-08-10 18:16:07.271337,76.0
2023-08-10 18:16:07.279028,52.0
2023-08-10 18:16:07.286719,28.0
2023-08-10 18:16:07.294410,2.0
2023-08-10 18:16:07.302101,-28.0
2023-08-10 18:16:07.309792,-66.0
2023-08-10 18:16:07.317483,-104.0
2023-08-10 18:16:07.325174,-133.0
2023-08-10 18:16:07.332865,-145.0
2023-08-10 18:16:07.340556,-152.0
2023-08-10 18:16:07.348247,-159.0
2023-08-10 18:16:07.355938,-169.0
2023-08-10 18:16:07.363629,-178.0
2023-08-10 18:16:07.371320,-169.0
2023-08-10 18:16:07.379011,-147.0
2023-08-10 18:16:07.386702,-147.0
2023-08-10 18:16:07.394393,-149.0
2023-08-10 18:16:07.402084,-140.0
2023-08-10 18:16:07.409775,-135.0
2023-08-10 18:16:07.417466,-128.0
2023-08-10 18:16:07.425157,-116.0
2023-08-10 18:16:07.432848,-111.0
2023-08-10 18:16:07.440539,-111.0
2023-08-10 18:16:07.448230,-109.0
2023-08-10 18:16:07.455922,-107.0
2023-08-10 18:16:07.463613,-97.0
2023-08-10 18:16:07.471304,-85.0
2023-08-10 18:16:07.478995,-88.0
2023-08-10 18:16:07.486686,-92.0
2023-08-10 18:16:07.494377,-92.0
2023-08-10 18:16:07.502068,-90.0
2023-08-10 18:16:07.509759,-88.0
2023-08-10 18:16:07.517450,-85.0
2023-08-10 18:16:07.525141,-88.0
2023-08-10 18:16:07.532832,-92.0
2023-08-10 18:16:07.540523,-97.0
2023-08-10 18:16:07.548214,-90.0
2023-08-10 18:16:07.555905,-78.0
2023-08-10 18:16:07.563596,-83.0
2023-08-10 18:16:07.571287,-90.0
2023-08-10 18:16:07.578978,-85.0
2023-08-10 18:16:07.586669,-85.0
2023-08-10 18:16:07.594360,-90.0
2023-08-10 18:16:07.602051,-90.0
2023-08-10 18:16:07.609742,-95.0
2023-08-10 18:16:07.617433,-95.0
2023-08-10 18:16:07.625124,-95.0
2023-08-10 18:16:07.632815,-92.0
2023-08-10 18:16:07.640506,-88.0
2023-08-10 18:16:07.648197,-85.0
2023-08-10 18:16:07.655888,-85.0
2023-08-10 18:16:07.663579,-85.0
2023-08-10 18:16:07.671270,-80.0
2023-08-10 18:16:07.678961,-83.0
2023-08-10 18:16:07.686652,-85.0
2023-08-10 18:16:07.694343,-76.0
2023-08-10 18:16:07.702034,-71.0
2023-08-10 18:16:07.709725,-78.0
2023-08-10 18:16:07.717416,-78.0
2023-08-10 18:16:07.725107,-76.0
2023-08-10 18:16:07.732798,-73.0
2023-08-10 18:16:07.740489,-69.0
2023-08-10 18:16:07.748180,-69.0
2023-08-10 18:16:07.755871,-73.0
2023-08-10 18:16:07.763562,-73.0
2023-08-10 18:16:07.771253,-66.0
2023-08-10 18:16:07.778944,-64.0
2023-08-10 18:16:07.786635,-69.0
2023-08-10 18:16:07.794326,-66.0
2023-08-10 18:16:07.802018,-61.0
2023-08-10 18:16:07.809709,-64.0
2023-08-10 18:16:07.817400,-64.0
2023-08-10 18:16:07.825091,-59.0
2023-08-10 18:16:07.832782,-61.0
2023-08-10 18:16:07.840473,-66.0
2023-08-10 18:16:07.848164,-69.0
2023-08-10 18:16:07.855855,-76.0
2023-08-10 18:16:07.863546,-80.0
2023-08-10 18:16:07.871237,-76.0
2023-08-10 18:16:07.878928,-66.0
2023-08-10 18:16:07.886619,-69.0
2023-08-10 18:16:07.894310,-71.0
2023-08-10 18:16:07.902001,-71.0
2023-08-10 18:16:07.909692,-71.0
2023-08-10 18:16:07.917383,-71.0
2023-08-10 18:16:07.925074,-69.0
2023-08-10 18:16:07.932765,-66.0
2023-08-10 18:16:07.940456,-69.0
2023-08-10 18:16:07.948147,-73.0
2023-08-10 18:16:07.955838,-71.0
2023-08-10 18:16:07.963529,-61.0
2023-08-10 18:16:07.971220,-61.0
2023-08-10 18:16:07.978911,-64.0
2023-08-10 18:16:07.986602,-61.0
2023-08-10 18:16:07.994293,-64.0
2023-08-10 18:16:08.001984,-66.0
2023-08-10 18:16:08.009675,-59.0
2023-08-10 18:16:08.017366,-57.0
2023-08-10 18:16:08.025057,-59.0
2023-08-10 18:16:08.032748,-59.0
2023-08-10 18:16:08.040439,-59.0
2023-08-10 18:16:08.048130,-59.0
2023-08-10 18:16:08.055821,-52.0
2023-08-10 18:16:08.063512,-49.0
2023-08-10 18:16:08.071203,-45.0
2023-08-10 18:16:08.078894,-33.0
2023-08-10 18:16:08.086585,-23.0
2023-08-10 18:16:08.094276,-30.0
2023-08-10 18:16:08.101967,-42.0
2023-08-10 18:16:08.109658,-54.0
2023-08-10 18:16:08.117349,-76.0
2023-08-10 18:16:08.125040,-92.0
2023-08-10 18:16:08.132731,-90.0
2023-08-10 18:16:08.140423,-85.0
2023-08-10 18:16:08.148114,-83.0
2023-08-10 18:16:08.155805,-78.0
2023-08-10 18:16:08.163496,-76.0
2023-08-10 18:16:08.171187,-85.0
2023-08-10 18:16:08.178878,-107.0
2023-08-10 18:16:08.186569,-38.0
2023-08-10 18:16:08.194260,288.0
2023-08-10 18:16:08.201951,804.0
2023-08-10 18:16:08.209642,1125.0
2023-08-10 18:16:08.217333,728.0
2023-08-10 18:16:08.225024,-316.0
2023-08-10 18:16:08.232715,-821.0
2023-08-10 18:16:08.240406,-342.0
2023-08-10 18:16:08.248097,-33.0
2023-08-10 18:16:08.255788,-202.0
2023-08-10 18:16:08.263479,-197.0
2023-08-10 18:16:08.271170,-90.0
2023-08-10 18:16:08.278861,-123.0
2023-08-10 18:16:08.286552,-138.0
2023-08-10 18:16:08.294243,-92.0
2023-08-10 18:16:08.301934,-92.0
2023-08-10 18:16:08.309625,-102.0
2023-08-10 18:16:08.317316,-88.0
2023-08-10 18:16:08.325007,-76.0
2023-08-10 18:16:08.332698,-69.0
2023-08-10 18:16:08.340389,-64.0
2023-08-10 18:16:08.348080,-61.0
2023-08-10 18:16:08.355771,-54.0
2023-08-10 18:16:08.363462,-38.0
2023-08-10 18:16:08.371153,-28.0
2023-08-10 18:16:08.378844,-26.0
2023-08-10 18:16:08.386535,-14.0
2023-08-10 18:16:08.394226,-2.0
2023-08-10 18:16:08.401917,7.0
2023-08-10 18:16:08.409608,16.0
2023-08-10 18:16:08.417299,35.0
2023-08-10 18:16:08.424990,54.0
2023-08-10 18:16:08.432681,64.0
2023-08-10 18:16:08.440372,69.0
2023-08-10 18:16:08.448063,78.0
2023-08-10 18:16:08.455754,90.0
2023-08-10 18:16:08.463445,99.0
2023-08-10 18:16:08.471136,99.0
2023-08-10 18:16:08.478827,92.0
2023-08-10 18:16:08.486519,83.0
2023-08-10 18:16:08.494210,64.0
2023-08-10 18:16:08.501901,49.0
2023-08-10 18:16:08.509592,28.0
2023-08-10 18:16:08.517283,-4.0
2023-08-10 18:16:08.524974,-38.0
2023-08-10 18:16:08.532665,-64.0
2023-08-10 18:16:08.540356,-95.0
2023-08-10 18:16:08.548047,-121.0
2023-08-10 18:16:08.555738,-138.0
2023-08-10 18:16:08.563429,-145.0
2023-08-10 18:16:08.571120,-152.0
2023-08-10 18:16:08.578811,-152.0
2023-08-10 18:16:08.586502,-149.0
2023-08-10 18:16:08.594193,-154.0
2023-08-10 18:16:08.601884,-147.0
2023-08-10 18:16:08.609575,-138.0
2023-08-10 18:16:08.617266,-142.0
2023-08-10 18:16:08.624957,-142.0
2023-08-10 18:16:08.632648,-133.0
2023-08-10 18:16:08.640339,-126.0
2023-08-10 18:16:08.648030,-123.0
2023-08-10 18:16:08.655721,-116.0
2023-08-10 18:16:08.663412,-107.0
2023-08-10 18:16:08.671103,-102.0
2023-08-10 18:16:08.678794,-99.0
2023-08-10 18:16:08.686485,-95.0
2023-08-10 18:16:08.694176,-90.0
2023-08-10 18:16:08.701867,-83.0
2023-08-10 18:16:08.709558,-85.0
2023-08-10 18:16:08.717249,-85.0
2023-08-10 18:16:08.724940,-78.0
2023-08-10 18:16:08.732631,-83.0
2023-08-10 18:16:08.740322,-90.0
2023-08-10 18:16:08.748013,-83.0
2023-08-10 18:16:08.755704,-83.0
2023-08-10 18:16:08.763395,-90.0
2023-08-10 18:16:08.771086,-88.0
2023-08-10 18:16:08.778777,-83.0
2023-08-10 18:16:08.786468,-85.0
2023-08-10 18:16:08.794159,-88.0
2023-08-10 18:16:08.801850,-85.0
2023-08-10 18:16:08.809541,-83.0
2023-08-10 18:16:08.817232,-85.0
2023-08-10 18:16:08.824923,-88.0
2023-08-10 18:16:08.832615,-88.0
2023-08-10 18:16:08.840306,-90.0
2023-08-10 18:16:08.847997,-88.0
2023-08-10 18:16:08.855688,-83.0
2023-08-10 18:16:08.863379,-83.0
2023-08-10 18:16:08.871070,-85.0
2023-08-10 18:16:08.878761,-80.0
2023-08-10 18:16:08.886452,-76.0
2023-08-10 18:16:08.894143,-78.0
2023-08-10 18:16:08.901834,-78.0
2023-08-10 18:16:08.909525,-73.0
2023-08-10 18:16:08.917216,-76.0
2023-08-10 18:16:08.924907,-76.0
2023-08-10 18:16:08.932598,-71.0
2023-08-10 18:16:08.940289,-71.0
2023-08-10 18:16:08.947980,-78.0
2023-08-10 18:16:08.955671,-73.0
2023-08-10 18:16:08.963362,-64.0
2023-08-10 18:16:08.971053,-69.0
2023-08-10 18:16:08.978744,-80.0
2023-08-10 18:16:08.986435,-83.0
2023-08-10 18:16:08.994126,-78.0
2023-08-10 18:16:09.001817,-76.0
2023-08-10 18:16:09.009508,-76.0
2023-08-10 18:16:09.017199,-76.0
2023-08-10 18:16:09.024890,-76.0
2023-08-10 18:16:09.032581,-76.0
2023-08-10 18:16:09.040272,-69.0
2023-08-10 18:16:09.047963,-69.0
2023-08-10 18:16:09.055654,-71.0
2023-08-10 18:16:09.063345,-69.0
2023-08-10 18:16:09.071036,-71.0
2023-08-10 18:16:09.078727,-73.0
2023-08-10 18:16:09.086418,-66.0
2023-08-10 18:16:09.094109,-61.0
2023-08-10 18:16:09.101800,-64.0
2023-08-10 18:16:09.109491,-69.0
2023-08-10 18:16:09.117182,-76.0
2023-08-10 18:16:09.124873,-78.0
2023-08-10 18:16:09.132564,-71.0
2023-08-10 18:16:09.140255,-73.0
2023-08-10 18:16:09.147946,-76.0
2023-08-10 18:16:09.155637,-69.0
2023-08-10 18:16:09.163328,-66.0
2023-08-10 18:16:09.171020,-73.0
2023-08-10 18:16:09.178711,-71.0
2023-08-10 18:16:09.186402,-64.0
2023-08-10 18:16:09.194093,-66.0
2023-08-10 18:16:09.201784,-69.0
2023-08-10 18:16:09.209475,-64.0
2023-08-10 18:16:09.217166,-66.0
2023-08-10 18:16:09.224857,-69.0
2023-08-10 18:16:09.232548,-64.0
2023-08-10 18:16:09.240239,-64.0
2023-08-10 18:16:09.247930,-64.0
2023-08-10 18:16:09.255621,-57.0
2023-08-10 18:16:09.263312,-49.0
2023-08-10 18:16:09.271003,-54.0
2023-08-10 18:16:09.278694,-47.0
2023-08-10 18:16:09.286385,-26.0
2023-08-10 18:16:09.294076,-23.0
2023-08-10 18:16:09.301767,-38.0
2023-08-10 18:16:09.309458,-45.0
2023-08-10 18:16:09.317149,-64.0
2023-08-10 18:16:09.324840,-85.0
2023-08-10 18:16:09.332531,-83.0
2023-08-10 18:16:09.340222,-73.0
2023-08-10 18:16:09.347913,-80.0
2023-08-10 18:16:09.355604,-85.0
2023-08-10 18:16:09.363295,-76.0
2023-08-10 18:16:09.370986,-73.0
2023-08-10 18:16:09.378677,-92.0
2023-08-10 18:16:09.386368,-102.0
2023-08-10 18:16:09.394059,45.0
2023-08-10 18:16:09.401750,476.0
2023-08-10 18:16:09.409441,985.0
2023-08-10 18:16:09.417132,1066.0
2023-08-10 18:16:09.424823,314.0
2023-08-10 18:16:09.432514,-668.0
2023-08-10 18:16:09.440205,-699.0
2023-08-10 18:16:09.447896,-138.0
2023-08-10 18:16:09.455587,-78.0
2023-08-10 18:16:09.463278,-230.0
2023-08-10 18:16:09.470969,-140.0
2023-08-10 18:16:09.478660,-92.0
2023-08-10 18:16:09.486351,-140.0
2023-08-10 18:16:09.494042,-109.0
2023-08-10 18:16:09.501733,-76.0
2023-08-10 18:16:09.509424,-97.0
2023-08-10 18:16:09.517116,-97.0
2023-08-10 18:16:09.524807,-80.0
2023-08-10 18:16:09.532498,-80.0
2023-08-10 18:16:09.540189,-73.0
2023-08-10 18:16:09.547880,-61.0
2023-08-10 18:16:09.555571,-59.0
2023-08-10 18:16:09.563262,-59.0
2023-08-10 18:16:09.570953,-45.0
2023-08-10 18:16:09.578644,-26.0
2023-08-10 18:16:09.586335,-23.0
2023-08-10 18:16:09.594026,-19.0
2023-08-10 18:16:09.601717,2.0
2023-08-10 18:16:09.609408,16.0
2023-08-10 18:16:09.617099,16.0
2023-08-10 18:16:09.624790,26.0
2023-08-10 18:16:09.632481,45.0
2023-08-10 18:16:09.640172,57.0
2023-08-10 18:16:09.647863,69.0
2023-08-10 18:16:09.655554,88.0
2023-08-10 18:16:09.663245,95.0
2023-08-10 18:16:09.670936,92.0
2023-08-10 18:16:09.678627,97.0
2023-08-10 18:16:09.686318,97.0
2023-08-10 18:16:09.694009,83.0
2023-08-10 18:16:09.701700,61.0
2023-08-10 18:16:09.709391,42.0
2023-08-10 18:16:09.717082,14.0
2023-08-10 18:16:09.724773,-16.0
2023-08-10 18:16:09.732464,-45.0
2023-08-10 18:16:09.740155,-78.0
2023-08-10 18:16:09.747846,-114.0
2023-08-10 18:16:09.755537,-133.0
2023-08-10 18:16:09.763228,-140.0
2023-08-10 18:16:09.770919,-147.0
2023-08-10 18:16:09.778610,-149.0
2023-08-10 18:16:09.786301,-152.0
2023-08-10 18:16:09.793992,-152.0
2023-08-10 18:16:09.801683,-147.0
2023-08-10 18:16:09.809374,-145.0
2023-08-10 18:16:09.817065,-140.0
2023-08-10 18:16:09.824756,-135.0
2023-08-10 18:16:09.832447,-130.0
2023-08-10 18:16:09.840138,-126.0
2023-08-10 18:16:09.847829,-119.0
2023-08-10 18:16:09.855520,-114.0
2023-08-10 18:16:09.863212,-109.0
2023-08-10 18:16:09.870903,-102.0
2023-08-10 18:16:09.878594,-95.0
2023-08-10 18:16:09.886285,-95.0
2023-08-10 18:16:09.893976,-95.0
2023-08-10 18:16:09.901667,-88.0
2023-08-10 18:16:09.909358,-80.0
2023-08-10 18:16:09.917049,-80.0
2023-08-10 18:16:09.924740,-80.0
2023-08-10 18:16:09.932431,-80.0
2023-08-10 18:16:09.940122,-83.0
2023-08-10 18:16:09.947813,-85.0
2023-08-10 18:16:09.955504,-83.0
2023-08-10 18:16:09.963195,-85.0
2023-08-10 18:16:09.970886,-88.0
2023-08-10 18:16:09.978577,-85.0
2023-08-10 18:16:09.986268,-83.0
2023-08-10 18:16:09.993959,-85.0
2023-08-10 18:16:10.001650,-85.0
2023-08-10 18:16:10.009341,-85.0
2023-08-10 18:16:10.017032,-85.0
2023-08-10 18:16:10.024723,-88.0
2023-08-10 18:16:10.032414,-83.0
2023-08-10 18:16:10.040105,-78.0
2023-08-10 18:16:10.047796,-83.0
2023-08-10 18:16:10.055487,-92.0
2023-08-10 18:16:10.063178,-92.0
2023-08-10 18:16:10.070869,-83.0
2023-08-10 18:16:10.078560,-78.0
2023-08-10 18:16:10.086251,-83.0
2023-08-10 18:16:10.093942,-80.0
2023-08-10 18:16:10.101633,-78.0
2023-08-10 18:16:10.109324,-80.0
2023-08-10 18:16:10.117015,-78.0
2023-08-10 18:16:10.124706,-76.0
2023-08-10 18:16:10.132397,-88.0
2023-08-10 18:16:10.140088,-90.0
2023-08-10 18:16:10.147779,-88.0
2023-08-10 18:16:10.155470,-92.0
2023-08-10 18:16:10.163161,-95.0
2023-08-10 18:16:10.170852,-88.0
2023-08-10 18:16:10.178543,-85.0
2023-08-10 18:16:10.186234,-83.0
2023-08-10 18:16:10.193925,-88.0
2023-08-10 18:16:10.201617,-95.0
2023-08-10 18:16:10.209308,-95.0
2023-08-10 18:16:10.216999,-92.0
2023-08-10 18:16:10.224690,-88.0
2023-08-10 18:16:10.232381,-83.0
2023-08-10 18:16:10.240072,-85.0
2023-08-10 18:16:10.247763,-88.0
2023-08-10 18:16:10.255454,-83.0
2023-08-10 18:16:10.263145,-73.0
2023-08-10 18:16:10.270836,-73.0
2023-08-10 18:16:10.278527,-76.0
2023-08-10 18:16:10.286218,-76.0
2023-08-10 18:16:10.293909,-80.0
2023-08-10 18:16:10.301600,-85.0
2023-08-10 18:16:10.309291,-83.0
2023-08-10 18:16:10.316982,-73.0
2023-08-10 18:16:10.324673,-76.0
2023-08-10 18:16:10.332364,-80.0
2023-08-10 18:16:10.340055,-78.0
2023-08-10 18:16:10.347746,-71.0
2023-08-10 18:16:10.355437,-76.0
2023-08-10 18:16:10.363128,-76.0
2023-08-10 18:16:10.370819,-69.0
2023-08-10 18:16:10.378510,-64.0
2023-08-10 18:16:10.386201,-71.0
2023-08-10 18:16:10.393892,-76.0
2023-08-10 18:16:10.401583,-69.0
2023-08-10 18:16:10.409274,-66.0
2023-08-10 18:16:10.416965,-66.0
2023-08-10 18:16:10.424656,-61.0
2023-08-10 18:16:10.432347,-57.0
2023-08-10 18:16:10.440038,-59.0
2023-08-10 18:16:10.447729,-47.0
2023-08-10 18:16:10.455420,-28.0
2023-08-10 18:16:10.463111,-26.0
2023-08-10 18:16:10.470802,-33.0
2023-08-10 18:16:10.478493,-40.0
2023-08-10 18:16:10.486184,-57.0
2023-08-10 18:16:10.493875,-76.0
2023-08-10 18:16:10.501566,-83.0
2023-08-10 18:16:10.509257,-80.0
2023-08-10 18:16:10.516948,-83.0
2023-08-10 18:16:10.524639,-78.0
2023-08-10 18:16:10.532330,-69.0
2023-08-10 18:16:10.540021,-71.0
2023-08-10 18:16:10.547713,-90.0
2023-08-10 18:16:10.555404,-85.0
2023-08-10 18:16:10.563095,92.0
2023-08-10 18:16:10.570786,521.0
2023-08-10 18:16:10.578477,966.0
2023-08-10 18:16:10.586168,933.0
2023-08-10 18:16:10.593859,107.0
2023-08-10 18:16:10.601550,-764.0
2023-08-10 18:16:10.609241,-633.0
2023-08-10 18:16:10.616932,-97.0
2023-08-10 18:16:10.624623,-104.0
2023-08-10 18:16:10.632314,-228.0
2023-08-10 18:16:10.640005,-119.0
2023-08-10 18:16:10.647696,-90.0
2023-08-10 18:16:10.655387,-138.0
2023-08-10 18:16:10.663078,-109.0
2023-08-10 18:16:10.670769,-83.0
2023-08-10 18:16:10.678460,-95.0
2023-08-10 18:16:10.686151,-88.0
2023-08-10 18:16:10.693842,-78.0
2023-08-10 18:16:10.701533,-83.0
2023-08-10 18:16:10.709224,-80.0
2023-08-10 18:16:10.716915,-64.0
2023-08-10 18:16:10.724606,-54.0
2023-08-10 18:16:10.732297,-47.0
2023-08-10 18:16:10.739988,-40.0
2023-08-10 18:16:10.747679,-30.0
2023-08-10 18:16:10.755370,-21.0
2023-08-10 18:16:10.763061,-7.0
2023-08-10 18:16:10.770752,7.0
2023-08-10 18:16:10.778443,14.0
2023-08-10 18:16:10.786134,26.0
2023-08-10 18:16:10.793825,45.0
2023-08-10 18:16:10.801516,54.0
2023-08-10 18:16:10.809207,66.0
2023-08-10 18:16:10.816898,88.0
2023-08-10 18:16:10.824589,99.0
2023-08-10 18:16:10.832280,102.0
2023-08-10 18:16:10.839971,109.0
2023-08-10 18:16:10.847662,114.0
2023-08-10 18:16:10.855353,99.0
2023-08-10 18:16:10.863044,85.0
2023-08-10 18:16:10.870735,76.0
2023-08-10 18:16:10.878426,57.0
2023-08-10 18:16:10.886117,21.0
2023-08-10 18:16:10.893809,-19.0
2023-08-10 18:16:10.901500,-52.0
2023-08-10 18:16:10.909191,-78.0
2023-08-10 18:16:10.916882,-107.0
2023-08-10 18:16:10.924573,-128.0
2023-08-10 18:16:10.932264,-140.0
2023-08-10 18:16:10.939955,-149.0
2023-08-10 18:16:10.947646,-154.0
2023-08-10 18:16:10.955337,-152.0
2023-08-10 18:16:10.963028,-147.0
2023-08-10 18:16:10.970719,-142.0
2023-08-10 18:16:10.978410,-140.0
2023-08-10 18:16:10.986101,-130.0
2023-08-10 18:16:10.993792,-121.0
2023-08-10 18:16:11.001483,-119.0
2023-08-10 18:16:11.009174,-119.0
2023-08-10 18:16:11.016865,-111.0
2023-08-10 18:16:11.024556,-99.0
2023-08-10 18:16:11.032247,-95.0
2023-08-10 18:16:11.039938,-97.0
2023-08-10 18:16:11.047629,-97.0
2023-08-10 18:16:11.055320,-95.0
2023-08-10 18:16:11.063011,-92.0
2023-08-10 18:16:11.070702,-92.0
2023-08-10 18:16:11.078393,-95.0
2023-08-10 18:16:11.086084,-85.0
2023-08-10 18:16:11.093775,-76.0
2023-08-10 18:16:11.101466,-80.0
2023-08-10 18:16:11.109157,-85.0
2023-08-10 18:16:11.116848,-83.0
2023-08-10 18:16:11.124539,-88.0
2023-08-10 18:16:11.132230,-92.0
2023-08-10 18:16:11.139921,-95.0
2023-08-10 18:16:11.147612,-90.0
2023-08-10 18:16:11.155303,-88.0
2023-08-10 18:16:11.162994,-90.0
2023-08-10 18:16:11.170685,-92.0
2023-08-10 18:16:11.178376,-95.0
2023-08-10 18:16:11.186067,-90.0
2023-08-10 18:16:11.193758,-83.0
2023-08-10 18:16:11.201449,-85.0
2023-08-10 18:16:11.209140,-83.0
2023-08-10 18:16:11.216831,-78.0
2023-08-10 18:16:11.224522,-80.0
2023-08-10 18:16:11.232213,-92.0
2023-08-10 18:16:11.239905,-95.0
2023-08-10 18:16:11.247596,-83.0
2023-08-10 18:16:11.255287,-78.0
2023-08-10 18:16:11.262978,-85.0
2023-08-10 18:16:11.270669,-85.0
2023-08-10 18:16:11.278360,-85.0
2023-08-10 18:16:11.286051,-83.0
2023-08-10 18:16:11.293742,-80.0
2023-08-10 18:16:11.301433,-80.0
2023-08-10 18:16:11.309124,-80.0
2023-08-10 18:16:11.316815,-80.0
2023-08-10 18:16:11.324506,-83.0
2023-08-10 18:16:11.332197,-76.0
2023-08-10 18:16:11.339888,-71.0
2023-08-10 18:16:11.347579,-71.0
2023-08-10 18:16:11.355270,-69.0
2023-08-10 18:16:11.362961,-69.0
2023-08-10 18:16:11.370652,-73.0
2023-08-10 18:16:11.378343,-73.0
2023-08-10 18:16:11.386034,-69.0
2023-08-10 18:16:11.393725,-64.0
2023-08-10 18:16:11.401416,-64.0
2023-08-10 18:16:11.409107,-66.0
2023-08-10 18:16:11.416798,-71.0
2023-08-10 18:16:11.424489,-66.0
2023-08-10 18:16:11.432180,-54.0
2023-08-10 18:16:11.439871,-57.0
2023-08-10 18:16:11.447562,-61.0
2023-08-10 18:16:11.455253,-64.0
2023-08-10 18:16:11.462944,-61.0
2023-08-10 18:16:11.470635,-59.0
2023-08-10 18:16:11.478326,-54.0
2023-08-10 18:16:11.486017,-57.0
2023-08-10 18:16:11.493708,-57.0
2023-08-10 18:16:11.501399,-52.0
2023-08-10 18:16:11.509090,-54.0
2023-08-10 18:16:11.516781,-59.0
2023-08-10 18:16:11.524472,-59.0
2023-08-10 18:16:11.532163,-57.0
2023-08-10 18:16:11.539854,-57.0
2023-08-10 18:16:11.547545,-59.0
2023-08-10 18:16:11.555236,-49.0
2023-08-10 18:16:11.562927,-28.0
2023-08-10 18:16:11.570618,-23.0
2023-08-10 18:16:11.578310,-40.0
2023-08-10 18:16:11.586001,-47.0
2023-08-10 18:16:11.593692,-47.0
2023-08-10 18:16:11.601383,-61.0
2023-08-10 18:16:11.609074,-76.0
2023-08-10 18:16:11.616765,-69.0
2023-08-10 18:16:11.624456,-64.0
2023-08-10 18:16:11.632147,-69.0
2023-08-10 18:16:11.639838,-73.0
2023-08-10 18:16:11.647529,-76.0
2023-08-10 18:16:11.655220,-80.0
2023-08-10 18:16:11.662911,-40.0
2023-08-10 18:16:11.670602,207.0
2023-08-10 18:16:11.678293,676.0
2023-08-10 18:16:11.685984,1037.0
2023-08-10 18:16:11.693675,771.0
2023-08-10 18:16:11.701366,-207.0
2023-08-10 18:16:11.709057,-842.0
2023-08-10 18:16:11.716748,-461.0
2023-08-10 18:16:11.724439,-59.0
2023-08-10 18:16:11.732130,-166.0
2023-08-10 18:16:11.739821,-190.0
2023-08-10 18:16:11.747512,-80.0
2023-08-10 18:16:11.755203,-104.0
2023-08-10 18:16:11.762894,-133.0
2023-08-10 18:16:11.770585,-95.0
2023-08-10 18:16:11.778276,-90.0
2023-08-10 18:16:11.785967,-99.0
2023-08-10 18:16:11.793658,-83.0
2023-08-10 18:16:11.801349,-71.0
2023-08-10 18:16:11.809040,-76.0
2023-08-10 18:16:11.816731,-78.0
2023-08-10 18:16:11.824422,-73.0
2023-08-10 18:16:11.832113,-59.0
2023-08-10 18:16:11.839804,-52.0
2023-08-10 18:16:11.847495,-45.0
2023-08-10 18:16:11.855186,-35.0
2023-08-10 18:16:11.862877,-33.0
2023-08-10 18:16:11.870568,-33.0
2023-08-10 18:16:11.878259,-16.0
2023-08-10 18:16:11.885950,9.0
2023-08-10 18:16:11.893641,23.0
2023-08-10 18:16:11.901332,30.0
2023-08-10 18:16:11.909023,42.0
2023-08-10 18:16:11.916714,64.0
2023-08-10 18:16:11.924406,80.0
2023-08-10 18:16:11.932097,90.0
2023-08-10 18:16:11.939788,99.0
2023-08-10 18:16:11.947479,104.0
2023-08-10 18:16:11.955170,97.0
2023-08-10 18:16:11.962861,88.0
2023-08-10 18:16:11.970552,76.0
2023-08-10 18:16:11.978243,57.0
2023-08-10 18:16:11.985934,35.0
2023-08-10 18:16:11.993625,4.0
2023-08-10 18:16:12.001316,-38.0
2023-08-10 18:16:12.009007,-78.0
2023-08-10 18:16:12.016698,-102.0
2023-08-10 18:16:12.024389,-121.0
2023-08-10 18:16:12.032080,-149.0
2023-08-10 18:16:12.039771,-164.0
2023-08-10 18:16:12.047462,-164.0
2023-08-10 18:16:12.055153,-164.0
2023-08-10 18:16:12.062844,-166.0
2023-08-10 18:16:12.070535,-161.0
2023-08-10 18:16:12.078226,-152.0
2023-08-10 18:16:12.085917,-147.0
2023-08-10 18:16:12.093608,-140.0
2023-08-10 18:16:12.101299,-135.0
2023-08-10 18:16:12.108990,-133.0
2023-08-10 18:16:12.116681,-126.0
2023-08-10 18:16:12.124372,-111.0
2023-08-10 18:16:12.132063,-109.0
2023-08-10 18:16:12.139754,-114.0
2023-08-10 18:16:12.147445,-114.0
2023-08-10 18:16:12.155136,-109.0
2023-08-10 18:16:12.162827,-102.0
2023-08-10 18:16:12.170518,-99.0
2023-08-10 18:16:12.178209,-95.0
2023-08-10 18:16:12.185900,-90.0
2023-08-10 18:16:12.193591,-92.0
2023-08-10 18:16:12.201282,-90.0
2023-08-10 18:16:12.208973,-88.0
2023-08-10 18:16:12.216664,-95.0
2023-08-10 18:16:12.224355,-92.0
2023-08-10 18:16:12.232046,-88.0
2023-08-10 18:16:12.239737,-92.0
2023-08-10 18:16:12.247428,-95.0
2023-08-10 18:16:12.255119,-90.0
2023-08-10 18:16:12.262810,-92.0
2023-08-10 18:16:12.270502,-97.0
2023-08-10 18:16:12.278193,-99.0
2023-08-10 18:16:12.285884,-92.0
2023-08-10 18:16:12.293575,-85.0
2023-08-10 18:16:12.301266,-85.0
2023-08-10 18:16:12.308957,-90.0
2023-08-10 18:16:12.316648,-90.0
2023-08-10 18:16:12.324339,-88.0
2023-08-10 18:16:12.332030,-83.0
2023-08-10 18:16:12.339721,-80.0
2023-08-10 18:16:12.347412,-85.0
2023-08-10 18:16:12.355103,-92.0
2023-08-10 18:16:12.362794,-95.0
2023-08-10 18:16:12.370485,-90.0
2023-08-10 18:16:12.378176,-83.0
2023-08-10 18:16:12.385867,-85.0
2023-08-10 18:16:12.393558,-88.0
2023-08-10 18:16:12.401249,-88.0
2023-08-10 18:16:12.408940,-80.0
2023-08-10 18:16:12.416631,-80.0
2023-08-10 18:16:12.424322,-83.0
2023-08-10 18:16:12.432013,-76.0
2023-08-10 18:16:12.439704,-71.0
2023-08-10 18:16:12.447395,-76.0
2023-08-10 18:16:12.455086,-78.0
2023-08-10 18:16:12.462777,-76.0
2023-08-10 18:16:12.470468,-71.0
2023-08-10 18:16:12.478159,-69.0
2023-08-10 18:16:12.485850,-71.0
2023-08-10 18:16:12.493541,-71.0
2023-08-10 18:16:12.501232,-66.0
2023-08-10 18:16:12.508923,-69.0
2023-08-10 18:16:12.516614,-71.0
2023-08-10 18:16:12.524305,-69.0
2023-08-10 18:16:12.531996,-69.0
2023-08-10 18:16:12.539687,-71.0
2023-08-10 18:16:12.547378,-69.0
2023-08-10 18:16:12.555069,-69.0
2023-08-10 18:16:12.562760,-69.0
2023-08-10 18:16:12.570451,-59.0
2023-08-10 18:16:12.578142,-57.0
2023-08-10 18:16:12.585833,-66.0
2023-08-10 18:16:12.593524,-66.0
2023-08-10 18:16:12.601215,-57.0
2023-08-10 18:16:12.608907,-57.0
2023-08-10 18:16:12.616598,-61.0
2023-08-10 18:16:12.624289,-59.0
2023-08-10 18:16:12.631980,-59.0
2023-08-10 18:16:12.639671,-57.0
2023-08-10 18:16:12.647362,-59.0
2023-08-10 18:16:12.655053,-66.0
2023-08-10 18:16:12.662744,-61.0
2023-08-10 18:16:12.670435,-52.0
2023-08-10 18:16:12.678126,-57.0
2023-08-10 18:16:12.685817,-49.0
2023-08-10 18:16:12.693508,-23.0
2023-08-10 18:16:12.701199,-14.0
2023-08-10 18:16:12.708890,-33.0
2023-08-10 18:16:12.716581,-45.0
2023-08-10 18:16:12.724272,-52.0
2023-08-10 18:16:12.731963,-71.0
2023-08-10 18:16:12.739654,-78.0
2023-08-10 18:16:12.747345,-73.0
2023-08-10 18:16:12.755036,-71.0
2023-08-10 18:16:12.762727,-69.0
2023-08-10 18:16:12.770418,-66.0
2023-08-10 18:16:12.778109,-73.0
2023-08-10 18:16:12.785800,-88.0
2023-08-10 18:16:12.793491,-11.0
2023-08-10 18:16:12.801182,318.0
2023-08-10 18:16:12.808873,825.0
2023-08-10 18:16:12.816564,1104.0
2023-08-10 18:16:12.824255,656.0
2023-08-10 18:16:12.831946,-390.0
2023-08-10 18:16:12.839637,-835.0
2023-08-10 18:16:12.847328,-316.0
2023-08-10 18:16:12.855019,-21.0
2023-08-10 18:16:12.862710,-195.0
2023-08-10 18:16:12.870401,-178.0
2023-08-10 18:16:12.878092,-76.0
2023-08-10 18:16:12.885783,-116.0
2023-08-10 18:16:12.893474,-135.0
2023-08-10 18:16:12.901165,-104.0
2023-08-10 18:16:12.908856,-102.0
2023-08-10 18:16:12.916547,-102.0
2023-08-10 18:16:12.924238,-90.0
2023-08-10 18:16:12.931929,-90.0
2023-08-10 18:16:12.939620,-88.0
2023-08-10 18:16:12.947311,-73.0
2023-08-10 18:16:12.955003,-66.0
2023-08-10 18:16:12.962694,-61.0
2023-08-10 18:16:12.970385,-49.0
2023-08-10 18:16:12.978076,-38.0
2023-08-10 18:16:12.985767,-35.0
2023-08-10 18:16:12.993458,-21.0
2023-08-10 18:16:13.001149,-7.0
2023-08-10 18:16:13.008840,-2.0
2023-08-10 18:16:13.016531,4.0
2023-08-10 18:16:13.024222,19.0
2023-08-10 18:16:13.031913,38.0
2023-08-10 18:16:13.039604,54.0
2023-08-10 18:16:13.047295,69.0
2023-08-10 18:16:13.054986,78.0
2023-08-10 18:16:13.062677,92.0
2023-08-10 18:16:13.070368,107.0
2023-08-10 18:16:13.078059,109.0
2023-08-10 18:16:13.085750,99.0
2023-08-10 18:16:13.093441,90.0
2023-08-10 18:16:13.101132,80.0
2023-08-10 18:16:13.108823,59.0
2023-08-10 18:16:13.116514,28.0
2023-08-10 18:16:13.124205,-9.0
2023-08-10 18:16:13.131896,-45.0
2023-08-10 18:16:13.139587,-76.0
2023-08-10 18:16:13.147278,-102.0
2023-08-10 18:16:13.154969,-126.0
2023-08-10 18:16:13.162660,-152.0
2023-08-10 18:16:13.170351,-166.0
2023-08-10 18:16:13.178042,-166.0
2023-08-10 18:16:13.185733,-159.0
2023-08-10 18:16:13.193424,-161.0
2023-08-10 18:16:13.201115,-166.0
2023-08-10 18:16:13.208806,-161.0
2023-08-10 18:16:13.216497,-154.0
2023-08-10 18:16:13.224188,-145.0
2023-08-10 18:16:13.231879,-138.0
2023-08-10 18:16:13.239570,-138.0
2023-08-10 18:16:13.247261,-130.0
2023-08-10 18:16:13.254952,-123.0
2023-08-10 18:16:13.262643,-121.0
2023-08-10 18:16:13.270334,-114.0
2023-08-10 18:16:13.278025,-104.0
2023-08-10 18:16:13.285716,-99.0
2023-08-10 18:16:13.293407,-97.0
2023-08-10 18:16:13.301099,-97.0
2023-08-10 18:16:13.308790,-92.0
2023-08-10 18:16:13.316481,-85.0
2023-08-10 18:16:13.324172,-85.0
2023-08-10 18:16:13.331863,-88.0
2023-08-10 18:16:13.339554,-83.0
2023-08-10 18:16:13.347245,-85.0
2023-08-10 18:16:13.354936,-90.0
2023-08-10 18:16:13.362627,-90.0
2023-08-10 18:16:13.370318,-85.0
2023-08-10 18:16:13.378009,-83.0
2023-08-10 18:16:13.385700,-88.0
2023-08-10 18:16:13.393391,-92.0
2023-08-10 18:16:13.401082,-88.0
2023-08-10 18:16:13.408773,-85.0
2023-08-10 18:16:13.416464,-88.0
2023-08-10 18:16:13.424155,-90.0
2023-08-10 18:16:13.431846,-90.0
2023-08-10 18:16:13.439537,-102.0
2023-08-10 18:16:13.447228,-99.0
2023-08-10 18:16:13.454919,-85.0
2023-08-10 18:16:13.462610,-85.0
2023-08-10 18:16:13.470301,-92.0
2023-08-10 18:16:13.477992,-90.0
2023-08-10 18:16:13.485683,-88.0
2023-08-10 18:16:13.493374,-88.0
2023-08-10 18:16:13.501065,-85.0
2023-08-10 18:16:13.508756,-85.0
2023-08-10 18:16:13.516447,-88.0
2023-08-10 18:16:13.524138,-88.0
2023-08-10 18:16:13.531829,-80.0
2023-08-10 18:16:13.539520,-76.0
2023-08-10 18:16:13.547211,-78.0
2023-08-10 18:16:13.554902,-78.0
2023-08-10 18:16:13.562593,-76.0
2023-08-10 18:16:13.570284,-78.0
2023-08-10 18:16:13.577975,-83.0
2023-08-10 18:16:13.585666,-76.0
2023-08-10 18:16:13.593357,-66.0
2023-08-10 18:16:13.601048,-69.0
2023-08-10 18:16:13.608739,-73.0
2023-08-10 18:16:13.616430,-66.0
2023-08-10 18:16:13.624121,-66.0
2023-08-10 18:16:13.631812,-69.0
2023-08-10 18:16:13.639504,-64.0
2023-08-10 18:16:13.647195,-61.0
2023-08-10 18:16:13.654886,-66.0
2023-08-10 18:16:13.662577,-71.0
2023-08-10 18:16:13.670268,-69.0
2023-08-10 18:16:13.677959,-66.0
2023-08-10 18:16:13.685650,-71.0
2023-08-10 18:16:13.693341,-69.0
2023-08-10 18:16:13.701032,-66.0
2023-08-10 18:16:13.708723,-64.0
2023-08-10 18:16:13.716414,-61.0
2023-08-10 18:16:13.724105,-61.0
2023-08-10 18:16:13.731796,-69.0
2023-08-10 18:16:13.739487,-64.0
2023-08-10 18:16:13.747178,-59.0
2023-08-10 18:16:13.754869,-59.0
2023-08-10 18:16:13.762560,-59.0
2023-08-10 18:16:13.770251,-59.0
2023-08-10 18:16:13.777942,-59.0
2023-08-10 18:16:13.785633,-57.0
2023-08-10 18:16:13.793324,-59.0
2023-08-10 18:16:13.801015,-59.0
2023-08-10 18:16:13.808706,-57.0
2023-08-10 18:16:13.816397,-52.0
2023-08-10 18:16:13.824088,-49.0
2023-08-10 18:16:13.831779,-52.0
2023-08-10 18:16:13.839470,-45.0
2023-08-10 18:16:13.847161,-26.0
2023-08-10 18:16:13.854852,-11.0
2023-08-10 18:16:13.862543,-16.0
2023-08-10 18:16:13.870234,-26.0
2023-08-10 18:16:13.877925,-35.0
2023-08-10 18:16:13.885616,-52.0
2023-08-10 18:16:13.893307,-66.0
2023-08-10 18:16:13.900998,-71.0
2023-08-10 18:16:13.908689,-71.0
2023-08-10 18:16:13.916380,-69.0
2023-08-10 18:16:13.924071,-54.0
2023-08-10 18:16:13.931762,-54.0
2023-08-10 18:16:13.939453,-73.0
2023-08-10 18:16:13.947144,-73.0
2023-08-10 18:16:13.954835,64.0
2023-08-10 18:16:13.962526,461.0
2023-08-10 18:16:13.970217,952.0
2023-08-10 18:16:13.977908,1066.0
2023-08-10 18:16:13.985600,368.0
2023-08-10 18:16:13.993291,-642.0
2023-08-10 18:16:14.000982,-752.0
2023-08-10 18:16:14.008673,-169.0
2023-08-10 18:16:14.016364,-49.0
2023-08-10 18:16:14.024055,-216.0
2023-08-10 18:16:14.031746,-135.0
2023-08-10 18:16:14.039437,-78.0
2023-08-10 18:16:14.047128,-128.0
2023-08-10 18:16:14.054819,-109.0
2023-08-10 18:16:14.062510,-83.0
2023-08-10 18:16:14.070201,-104.0
2023-08-10 18:16:14.077892,-104.0
2023-08-10 18:16:14.085583,-88.0
2023-08-10 18:16:14.093274,-80.0
2023-08-10 18:16:14.100965,-73.0
2023-08-10 18:16:14.108656,-69.0
2023-08-10 18:16:14.116347,-66.0
2023-08-10 18:16:14.124038,-54.0
2023-08-10 18:16:14.131729,-45.0
2023-08-10 18:16:14.139420,-42.0
2023-08-10 18:16:14.147111,-33.0
2023-08-10 18:16:14.154802,-21.0
2023-08-10 18:16:14.162493,-16.0
2023-08-10 18:16:14.170184,-4.0
2023-08-10 18:16:14.177875,7.0
2023-08-10 18:16:14.185566,21.0
2023-08-10 18:16:14.193257,38.0
2023-08-10 18:16:14.200948,54.0
2023-08-10 18:16:14.208639,69.0
2023-08-10 18:16:14.216330,80.0
2023-08-10 18:16:14.224021,90.0
2023-08-10 18:16:14.231712,99.0
2023-08-10 18:16:14.239403,97.0
2023-08-10 18:16:14.247094,88.0
2023-08-10 18:16:14.254785,88.0
2023-08-10 18:16:14.262476,71.0
2023-08-10 18:16:14.270167,42.0
2023-08-10 18:16:14.277858,16.0
2023-08-10 18:16:14.285549,-14.0
2023-08-10 18:16:14.293240,-59.0
2023-08-10 18:16:14.300931,-92.0
2023-08-10 18:16:14.308622,-116.0
2023-08-10 18:16:14.316313,-135.0
2023-08-10 18:16:14.324004,-145.0
2023-08-10 18:16:14.331696,-157.0
2023-08-10 18:16:14.339387,-169.0
2023-08-10 18:16:14.347078,-164.0
2023-08-10 18:16:14.354769,-154.0
2023-08-10 18:16:14.362460,-154.0
2023-08-10 18:16:14.370151,-152.0
2023-08-10 18:16:14.377842,-145.0
2023-08-10 18:16:14.385533,-142.0
2023-08-10 18:16:14.393224,-135.0
2023-08-10 18:16:14.400915,-130.0
2023-08-10 18:16:14.408606,-123.0
2023-08-10 18:16:14.416297,-111.0
2023-08-10 18:16:14.423988,-109.0
2023-08-10 18:16:14.431679,-111.0
2023-08-10 18:16:14.439370,-99.0
2023-08-10 18:16:14.447061,-92.0
2023-08-10 18:16:14.454752,-92.0
2023-08-10 18:16:14.462443,-88.0
2023-08-10 18:16:14.470134,-83.0
2023-08-10 18:16:14.477825,-88.0
2023-08-10 18:16:14.485516,-95.0
2023-08-10 18:16:14.493207,-95.0
2023-08-10 18:16:14.500898,-88.0
2023-08-10 18:16:14.508589,-80.0
2023-08-10 18:16:14.516280,-90.0
2023-08-10 18:16:14.523971,-92.0
2023-08-10 18:16:14.531662,-90.0
2023-08-10 18:16:14.539353,-92.0
2023-08-10 18:16:14.547044,-88.0
2023-08-10 18:16:14.554735,-85.0
2023-08-10 18:16:14.562426,-92.0
2023-08-10 18:16:14.570117,-92.0
2023-08-10 18:16:14.577808,-85.0
2023-08-10 18:16:14.585499,-85.0
2023-08-10 18:16:14.593190,-83.0
2023-08-10 18:16:14.600881,-90.0
2023-08-10 18:16:14.608572,-102.0
2023-08-10 18:16:14.616263,-99.0
2023-08-10 18:16:14.623954,-90.0
2023-08-10 18:16:14.631645,-90.0
2023-08-10 18:16:14.639336,-92.0
2023-08-10 18:16:14.647027,-88.0
2023-08-10 18:16:14.654718,-88.0
2023-08-10 18:16:14.662409,-88.0
2023-08-10 18:16:14.670101,-80.0
2023-08-10 18:16:14.677792,-88.0
2023-08-10 18:16:14.685483,-97.0
2023-08-10 18:16:14.693174,-90.0
2023-08-10 18:16:14.700865,-85.0
2023-08-10 18:16:14.708556,-88.0
2023-08-10 18:16:14.716247,-85.0
2023-08-10 18:16:14.723938,-80.0
2023-08-10 18:16:14.731629,-83.0
2023-08-10 18:16:14.739320,-92.0
2023-08-10 18:16:14.747011,-92.0
2023-08-10 18:16:14.754702,-78.0
2023-08-10 18:16:14.762393,-71.0
2023-08-10 18:16:14.770084,-76.0
2023-08-10 18:16:14.777775,-76.0
2023-08-10 18:16:14.785466,-76.0
2023-08-10 18:16:14.793157,-73.0
2023-08-10 18:16:14.800848,-71.0
2023-08-10 18:16:14.808539,-69.0
2023-08-10 18:16:14.816230,-71.0
2023-08-10 18:16:14.823921,-76.0
2023-08-10 18:16:14.831612,-76.0
2023-08-10 18:16:14.839303,-66.0
2023-08-10 18:16:14.846994,-64.0
2023-08-10 18:16:14.854685,-69.0
2023-08-10 18:16:14.862376,-66.0
2023-08-10 18:16:14.870067,-59.0
2023-08-10 18:16:14.877758,-61.0
2023-08-10 18:16:14.885449,-66.0
2023-08-10 18:16:14.893140,-59.0
2023-08-10 18:16:14.900831,-59.0
2023-08-10 18:16:14.908522,-64.0
2023-08-10 18:16:14.916213,-59.0
2023-08-10 18:16:14.923904,-54.0
2023-08-10 18:16:14.931595,-52.0
2023-08-10 18:16:14.939286,-47.0
2023-08-10 18:16:14.946977,-49.0
2023-08-10 18:16:14.954668,-40.0
2023-08-10 18:16:14.962359,-23.0
2023-08-10 18:16:14.970050,-23.0
2023-08-10 18:16:14.977741,-40.0
2023-08-10 18:16:14.985432,-45.0
2023-08-10 18:16:14.993123,-47.0
2023-08-10 18:16:15.000814,-64.0
2023-08-10 18:16:15.008505,-73.0
2023-08-10 18:16:15.016197,-73.0
2023-08-10 18:16:15.023888,-76.0
2023-08-10 18:16:15.031579,-69.0
2023-08-10 18:16:15.039270,-64.0
2023-08-10 18:16:15.046961,-71.0
2023-08-10 18:16:15.054652,-83.0
2023-08-10 18:16:15.062343,-2.0
