time,ECG
2023-08-09 09:36:15.389151,72.0
2023-08-09 09:36:15.396841,88.0
2023-08-09 09:36:15.404531,93.0
2023-08-09 09:36:15.412221,98.0
2023-08-09 09:36:15.419911,98.0
2023-08-09 09:36:15.427600,67.0
2023-08-09 09:36:15.435290,21.0
2023-08-09 09:36:15.442980,-16.0
2023-08-09 09:36:15.450670,-55.0
2023-08-09 09:36:15.458360,-91.0
2023-08-09 09:36:15.466049,-115.0
2023-08-09 09:36:15.473739,-129.0
2023-08-09 09:36:15.481429,-139.0
2023-08-09 09:36:15.489119,-139.0
2023-08-09 09:36:15.496809,-137.0
2023-08-09 09:36:15.504499,-141.0
2023-08-09 09:36:15.512188,-137.0
2023-08-09 09:36:15.519878,-132.0
2023-08-09 09:36:15.527568,-134.0
2023-08-09 09:36:15.535258,-129.0
2023-08-09 09:36:15.542948,-125.0
2023-08-09 09:36:15.550637,-132.0
2023-08-09 09:36:15.558327,-125.0
2023-08-09 09:36:15.566017,-105.0
2023-08-09 09:36:15.573707,-105.0
2023-08-09 09:36:15.581397,-117.0
2023-08-09 09:36:15.589086,-122.0
2023-08-09 09:36:15.596776,-110.0
2023-08-09 09:36:15.604466,-105.0
2023-08-09 09:36:15.612156,-117.0
2023-08-09 09:36:15.619846,-115.0
2023-08-09 09:36:15.627535,-105.0
2023-08-09 09:36:15.635225,-108.0
2023-08-09 09:36:15.642915,-108.0
2023-08-09 09:36:15.650605,-96.0
2023-08-09 09:36:15.658295,-96.0
2023-08-09 09:36:15.665985,-110.0
2023-08-09 09:36:15.673674,-120.0
2023-08-09 09:36:15.681364,-115.0
2023-08-09 09:36:15.689054,-108.0
2023-08-09 09:36:15.696744,-103.0
2023-08-09 09:36:15.704434,-101.0
2023-08-09 09:36:15.712123,-103.0
2023-08-09 09:36:15.719813,-93.0
2023-08-09 09:36:15.727503,-96.0
2023-08-09 09:36:15.735193,-110.0
2023-08-09 09:36:15.742883,-108.0
2023-08-09 09:36:15.750572,-84.0
2023-08-09 09:36:15.758262,-72.0
2023-08-09 09:36:15.765952,-72.0
2023-08-09 09:36:15.773642,-60.0
2023-08-09 09:36:15.781332,-43.0
2023-08-09 09:36:15.789022,-31.0
2023-08-09 09:36:15.796711,-31.0
2023-08-09 09:36:15.804401,-62.0
2023-08-09 09:36:15.812091,-101.0
2023-08-09 09:36:15.819781,-108.0
2023-08-09 09:36:15.827471,-110.0
2023-08-09 09:36:15.835160,-113.0
2023-08-09 09:36:15.842850,-108.0
2023-08-09 09:36:15.850540,-105.0
2023-08-09 09:36:15.858230,-103.0
2023-08-09 09:36:15.865920,-93.0
2023-08-09 09:36:15.873609,-88.0
2023-08-09 09:36:15.881299,-105.0
2023-08-09 09:36:15.888989,-120.0
2023-08-09 09:36:15.896679,-96.0
2023-08-09 09:36:15.904369,36.0
2023-08-09 09:36:15.912058,382.0
2023-08-09 09:36:15.919748,810.0
2023-08-09 09:36:15.927438,925.0
2023-08-09 09:36:15.935128,468.0
2023-08-09 09:36:15.942818,-223.0
2023-08-09 09:36:15.950508,-447.0
2023-08-09 09:36:15.958197,-209.0
2023-08-09 09:36:15.965887,-96.0
2023-08-09 09:36:15.973577,-153.0
2023-08-09 09:36:15.981267,-149.0
2023-08-09 09:36:15.988957,-132.0
2023-08-09 09:36:15.996646,-137.0
2023-08-09 09:36:16.004336,-120.0
2023-08-09 09:36:16.012026,-103.0
2023-08-09 09:36:16.019716,-101.0
2023-08-09 09:36:16.027406,-98.0
2023-08-09 09:36:16.035095,-91.0
2023-08-09 09:36:16.042785,-84.0
2023-08-09 09:36:16.050475,-74.0
2023-08-09 09:36:16.058165,-69.0
2023-08-09 09:36:16.065855,-57.0
2023-08-09 09:36:16.073544,-43.0
2023-08-09 09:36:16.081234,-43.0
2023-08-09 09:36:16.088924,-40.0
2023-08-09 09:36:16.096614,-26.0
2023-08-09 09:36:16.104304,-14.0
2023-08-09 09:36:16.111994,-4.0
2023-08-09 09:36:16.119683,9.0
2023-08-09 09:36:16.127373,26.0
2023-08-09 09:36:16.135063,36.0
2023-08-09 09:36:16.142753,52.0
2023-08-09 09:36:16.150443,72.0
2023-08-09 09:36:16.158132,86.0
2023-08-09 09:36:16.165822,96.0
2023-08-09 09:36:16.173512,103.0
2023-08-09 09:36:16.181202,110.0
2023-08-09 09:36:16.188892,120.0
2023-08-09 09:36:16.196581,127.0
2023-08-09 09:36:16.204271,120.0
2023-08-09 09:36:16.211961,91.0
2023-08-09 09:36:16.219651,43.0
2023-08-09 09:36:16.227341,2.0
2023-08-09 09:36:16.235030,-36.0
2023-08-09 09:36:16.242720,-74.0
2023-08-09 09:36:16.250410,-105.0
2023-08-09 09:36:16.258100,-125.0
2023-08-09 09:36:16.265790,-137.0
2023-08-09 09:36:16.273480,-141.0
2023-08-09 09:36:16.281169,-141.0
2023-08-09 09:36:16.288859,-139.0
2023-08-09 09:36:16.296549,-137.0
2023-08-09 09:36:16.304239,-132.0
2023-08-09 09:36:16.311929,-129.0
2023-08-09 09:36:16.319618,-129.0
2023-08-09 09:36:16.327308,-132.0
2023-08-09 09:36:16.334998,-127.0
2023-08-09 09:36:16.342688,-125.0
2023-08-09 09:36:16.350378,-132.0
2023-08-09 09:36:16.358067,-139.0
2023-08-09 09:36:16.365757,-137.0
2023-08-09 09:36:16.373447,-139.0
2023-08-09 09:36:16.381137,-141.0
2023-08-09 09:36:16.388827,-144.0
2023-08-09 09:36:16.396517,-146.0
2023-08-09 09:36:16.404206,-146.0
2023-08-09 09:36:16.411896,-141.0
2023-08-09 09:36:16.419586,-141.0
2023-08-09 09:36:16.427276,-141.0
2023-08-09 09:36:16.434966,-141.0
2023-08-09 09:36:16.442655,-139.0
2023-08-09 09:36:16.450345,-137.0
2023-08-09 09:36:16.458035,-134.0
2023-08-09 09:36:16.465725,-132.0
2023-08-09 09:36:16.473415,-127.0
2023-08-09 09:36:16.481104,-127.0
2023-08-09 09:36:16.488794,-132.0
2023-08-09 09:36:16.496484,-132.0
2023-08-09 09:36:16.504174,-127.0
2023-08-09 09:36:16.511864,-129.0
2023-08-09 09:36:16.519553,-122.0
2023-08-09 09:36:16.527243,-98.0
2023-08-09 09:36:16.534933,-79.0
2023-08-09 09:36:16.542623,-81.0
2023-08-09 09:36:16.550313,-81.0
2023-08-09 09:36:16.558003,-76.0
2023-08-09 09:36:16.565692,-101.0
2023-08-09 09:36:16.573382,-134.0
2023-08-09 09:36:16.581072,-149.0
2023-08-09 09:36:16.588762,-149.0
2023-08-09 09:36:16.596452,-149.0
2023-08-09 09:36:16.604141,-151.0
2023-08-09 09:36:16.611831,-149.0
2023-08-09 09:36:16.619521,-151.0
2023-08-09 09:36:16.627211,-151.0
2023-08-09 09:36:16.634901,-149.0
2023-08-09 09:36:16.642590,-146.0
2023-08-09 09:36:16.650280,-156.0
2023-08-09 09:36:16.657970,-165.0
2023-08-09 09:36:16.665660,-72.0
2023-08-09 09:36:16.673350,254.0
2023-08-09 09:36:16.681039,731.0
2023-08-09 09:36:16.688729,1000.0
2023-08-09 09:36:16.696419,711.0
2023-08-09 09:36:16.704109,-33.0
2023-08-09 09:36:16.711799,-492.0
2023-08-09 09:36:16.719489,-305.0
2023-08-09 09:36:16.727178,-101.0
2023-08-09 09:36:16.734868,-197.0
2023-08-09 09:36:16.742558,-240.0
2023-08-09 09:36:16.750248,-180.0
2023-08-09 09:36:16.757938,-182.0
2023-08-09 09:36:16.765627,-194.0
2023-08-09 09:36:16.773317,-165.0
2023-08-09 09:36:16.781007,-151.0
2023-08-09 09:36:16.788697,-151.0
2023-08-09 09:36:16.796387,-139.0
2023-08-09 09:36:16.804076,-127.0
2023-08-09 09:36:16.811766,-127.0
2023-08-09 09:36:16.819456,-120.0
2023-08-09 09:36:16.827146,-113.0
2023-08-09 09:36:16.834836,-108.0
2023-08-09 09:36:16.842525,-101.0
2023-08-09 09:36:16.850215,-86.0
2023-08-09 09:36:16.857905,-76.0
2023-08-09 09:36:16.865595,-69.0
2023-08-09 09:36:16.873285,-57.0
2023-08-09 09:36:16.880975,-45.0
2023-08-09 09:36:16.888664,-28.0
2023-08-09 09:36:16.896354,-16.0
2023-08-09 09:36:16.904044,-4.0
2023-08-09 09:36:16.911734,12.0
2023-08-09 09:36:16.919424,28.0
2023-08-09 09:36:16.927113,33.0
2023-08-09 09:36:16.934803,36.0
2023-08-09 09:36:16.942493,40.0
2023-08-09 09:36:16.950183,55.0
2023-08-09 09:36:16.957873,69.0
2023-08-09 09:36:16.965562,72.0
2023-08-09 09:36:16.973252,60.0
2023-08-09 09:36:16.980942,31.0
2023-08-09 09:36:16.988632,-7.0
2023-08-09 09:36:16.996322,-45.0
2023-08-09 09:36:17.004012,-76.0
2023-08-09 09:36:17.011701,-103.0
2023-08-09 09:36:17.019391,-125.0
2023-08-09 09:36:17.027081,-139.0
2023-08-09 09:36:17.034771,-141.0
2023-08-09 09:36:17.042461,-141.0
2023-08-09 09:36:17.050150,-141.0
2023-08-09 09:36:17.057840,-137.0
2023-08-09 09:36:17.065530,-134.0
2023-08-09 09:36:17.073220,-134.0
2023-08-09 09:36:17.080910,-134.0
2023-08-09 09:36:17.088599,-129.0
2023-08-09 09:36:17.096289,-122.0
2023-08-09 09:36:17.103979,-117.0
2023-08-09 09:36:17.111669,-113.0
2023-08-09 09:36:17.119359,-110.0
2023-08-09 09:36:17.127048,-103.0
2023-08-09 09:36:17.134738,-101.0
2023-08-09 09:36:17.142428,-103.0
2023-08-09 09:36:17.150118,-101.0
2023-08-09 09:36:17.157808,-98.0
2023-08-09 09:36:17.165498,-103.0
2023-08-09 09:36:17.173187,-108.0
2023-08-09 09:36:17.180877,-105.0
2023-08-09 09:36:17.188567,-101.0
2023-08-09 09:36:17.196257,-98.0
2023-08-09 09:36:17.203947,-98.0
2023-08-09 09:36:17.211636,-98.0
2023-08-09 09:36:17.219326,-98.0
2023-08-09 09:36:17.227016,-101.0
2023-08-09 09:36:17.234706,-103.0
2023-08-09 09:36:17.242396,-101.0
2023-08-09 09:36:17.250085,-105.0
2023-08-09 09:36:17.257775,-110.0
2023-08-09 09:36:17.265465,-105.0
2023-08-09 09:36:17.273155,-98.0
2023-08-09 09:36:17.280845,-81.0
2023-08-09 09:36:17.288534,-55.0
2023-08-09 09:36:17.296224,-45.0
2023-08-09 09:36:17.303914,-45.0
2023-08-09 09:36:17.311604,-40.0
2023-08-09 09:36:17.319294,-55.0
2023-08-09 09:36:17.326984,-88.0
2023-08-09 09:36:17.334673,-110.0
2023-08-09 09:36:17.342363,-113.0
2023-08-09 09:36:17.350053,-115.0
2023-08-09 09:36:17.357743,-117.0
2023-08-09 09:36:17.365433,-117.0
2023-08-09 09:36:17.373122,-115.0
2023-08-09 09:36:17.380812,-115.0
2023-08-09 09:36:17.388502,-113.0
2023-08-09 09:36:17.396192,-110.0
2023-08-09 09:36:17.403882,-120.0
2023-08-09 09:36:17.411571,-137.0
2023-08-09 09:36:17.419261,-88.0
2023-08-09 09:36:17.426951,153.0
2023-08-09 09:36:17.434641,579.0
2023-08-09 09:36:17.442331,916.0
2023-08-09 09:36:17.450020,800.0
2023-08-09 09:36:17.457710,161.0
2023-08-09 09:36:17.465400,-404.0
2023-08-09 09:36:17.473090,-346.0
2023-08-09 09:36:17.480780,-101.0
2023-08-09 09:36:17.488470,-144.0
2023-08-09 09:36:17.496159,-221.0
2023-08-09 09:36:17.503849,-168.0
2023-08-09 09:36:17.511539,-158.0
2023-08-09 09:36:17.519229,-192.0
2023-08-09 09:36:17.526919,-182.0
2023-08-09 09:36:17.534608,-161.0
2023-08-09 09:36:17.542298,-156.0
2023-08-09 09:36:17.549988,-149.0
2023-08-09 09:36:17.557678,-129.0
2023-08-09 09:36:17.565368,-117.0
2023-08-09 09:36:17.573057,-115.0
2023-08-09 09:36:17.580747,-105.0
2023-08-09 09:36:17.588437,-93.0
2023-08-09 09:36:17.596127,-84.0
2023-08-09 09:36:17.603817,-76.0
2023-08-09 09:36:17.611507,-72.0
2023-08-09 09:36:17.619196,-67.0
2023-08-09 09:36:17.626886,-57.0
2023-08-09 09:36:17.634576,-45.0
2023-08-09 09:36:17.642266,-36.0
2023-08-09 09:36:17.649956,-21.0
2023-08-09 09:36:17.657645,-9.0
2023-08-09 09:36:17.665335,0.0
2023-08-09 09:36:17.673025,7.0
2023-08-09 09:36:17.680715,19.0
2023-08-09 09:36:17.688405,36.0
2023-08-09 09:36:17.696094,52.0
2023-08-09 09:36:17.703784,62.0
2023-08-09 09:36:17.711474,72.0
2023-08-09 09:36:17.719164,79.0
2023-08-09 09:36:17.726854,72.0
2023-08-09 09:36:17.734543,45.0
2023-08-09 09:36:17.742233,7.0
2023-08-09 09:36:17.749923,-33.0
2023-08-09 09:36:17.757613,-69.0
2023-08-09 09:36:17.765303,-93.0
2023-08-09 09:36:17.772993,-110.0
2023-08-09 09:36:17.780682,-122.0
2023-08-09 09:36:17.788372,-132.0
2023-08-09 09:36:17.796062,-132.0
2023-08-09 09:36:17.803752,-132.0
2023-08-09 09:36:17.811442,-137.0
2023-08-09 09:36:17.819131,-139.0
2023-08-09 09:36:17.826821,-139.0
2023-08-09 09:36:17.834511,-134.0
2023-08-09 09:36:17.842201,-134.0
2023-08-09 09:36:17.849891,-127.0
2023-08-09 09:36:17.857580,-122.0
2023-08-09 09:36:17.865270,-122.0
2023-08-09 09:36:17.872960,-122.0
2023-08-09 09:36:17.880650,-117.0
2023-08-09 09:36:17.888340,-113.0
2023-08-09 09:36:17.896029,-108.0
2023-08-09 09:36:17.903719,-105.0
2023-08-09 09:36:17.911409,-103.0
2023-08-09 09:36:17.919099,-101.0
2023-08-09 09:36:17.926789,-103.0
2023-08-09 09:36:17.934479,-103.0
2023-08-09 09:36:17.942168,-105.0
2023-08-09 09:36:17.949858,-113.0
2023-08-09 09:36:17.957548,-110.0
2023-08-09 09:36:17.965238,-108.0
2023-08-09 09:36:17.972928,-110.0
2023-08-09 09:36:17.980617,-110.0
2023-08-09 09:36:17.988307,-103.0
2023-08-09 09:36:17.995997,-101.0
2023-08-09 09:36:18.003687,-101.0
2023-08-09 09:36:18.011377,-98.0
2023-08-09 09:36:18.019066,-93.0
2023-08-09 09:36:18.026756,-84.0
2023-08-09 09:36:18.034446,-62.0
2023-08-09 09:36:18.042136,-40.0
2023-08-09 09:36:18.049826,-33.0
2023-08-09 09:36:18.057515,-33.0
2023-08-09 09:36:18.065205,-40.0
2023-08-09 09:36:18.072895,-60.0
2023-08-09 09:36:18.080585,-86.0
2023-08-09 09:36:18.088275,-101.0
2023-08-09 09:36:18.095965,-105.0
2023-08-09 09:36:18.103654,-115.0
2023-08-09 09:36:18.111344,-127.0
2023-08-09 09:36:18.119034,-132.0
2023-08-09 09:36:18.126724,-125.0
2023-08-09 09:36:18.134414,-117.0
2023-08-09 09:36:18.142103,-120.0
2023-08-09 09:36:18.149793,-125.0
2023-08-09 09:36:18.157483,-134.0
2023-08-09 09:36:18.165173,-137.0
2023-08-09 09:36:18.172863,-31.0
2023-08-09 09:36:18.180552,276.0
2023-08-09 09:36:18.188242,673.0
2023-08-09 09:36:18.195932,829.0
2023-08-09 09:36:18.203622,485.0
2023-08-09 09:36:18.211312,-163.0
2023-08-09 09:36:18.219002,-449.0
2023-08-09 09:36:18.226691,-230.0
2023-08-09 09:36:18.234381,-96.0
2023-08-09 09:36:18.242071,-187.0
2023-08-09 09:36:18.249761,-206.0
2023-08-09 09:36:18.257451,-153.0
2023-08-09 09:36:18.265140,-156.0
2023-08-09 09:36:18.272830,-161.0
2023-08-09 09:36:18.280520,-149.0
2023-08-09 09:36:18.288210,-149.0
2023-08-09 09:36:18.295900,-141.0
2023-08-09 09:36:18.303589,-127.0
2023-08-09 09:36:18.311279,-127.0
2023-08-09 09:36:18.318969,-125.0
2023-08-09 09:36:18.326659,-103.0
2023-08-09 09:36:18.334349,-86.0
2023-08-09 09:36:18.342038,-81.0
2023-08-09 09:36:18.349728,-74.0
2023-08-09 09:36:18.357418,-64.0
2023-08-09 09:36:18.365108,-57.0
2023-08-09 09:36:18.372798,-52.0
2023-08-09 09:36:18.380488,-38.0
2023-08-09 09:36:18.388177,-21.0
2023-08-09 09:36:18.395867,-7.0
2023-08-09 09:36:18.403557,7.0
2023-08-09 09:36:18.411247,21.0
2023-08-09 09:36:18.418937,31.0
2023-08-09 09:36:18.426626,43.0
2023-08-09 09:36:18.434316,60.0
2023-08-09 09:36:18.442006,72.0
2023-08-09 09:36:18.449696,74.0
2023-08-09 09:36:18.457386,74.0
2023-08-09 09:36:18.465075,91.0
2023-08-09 09:36:18.472765,98.0
2023-08-09 09:36:18.480455,62.0
2023-08-09 09:36:18.488145,19.0
2023-08-09 09:36:18.495835,-14.0
2023-08-09 09:36:18.503524,-60.0
2023-08-09 09:36:18.511214,-101.0
2023-08-09 09:36:18.518904,-120.0
2023-08-09 09:36:18.526594,-132.0
2023-08-09 09:36:18.534284,-139.0
2023-08-09 09:36:18.541974,-139.0
2023-08-09 09:36:18.549663,-139.0
2023-08-09 09:36:18.557353,-137.0
2023-08-09 09:36:18.565043,-127.0
2023-08-09 09:36:18.572733,-122.0
2023-08-09 09:36:18.580423,-127.0
2023-08-09 09:36:18.588112,-129.0
2023-08-09 09:36:18.595802,-134.0
2023-08-09 09:36:18.603492,-139.0
2023-08-09 09:36:18.611182,-127.0
2023-08-09 09:36:18.618872,-115.0
2023-08-09 09:36:18.626561,-122.0
2023-08-09 09:36:18.634251,-122.0
2023-08-09 09:36:18.641941,-110.0
2023-08-09 09:36:18.649631,-115.0
2023-08-09 09:36:18.657321,-120.0
2023-08-09 09:36:18.665010,-108.0
2023-08-09 09:36:18.672700,-110.0
2023-08-09 09:36:18.680390,-125.0
2023-08-09 09:36:18.688080,-125.0
2023-08-09 09:36:18.695770,-120.0
2023-08-09 09:36:18.703460,-125.0
2023-08-09 09:36:18.711149,-125.0
2023-08-09 09:36:18.718839,-117.0
2023-08-09 09:36:18.726529,-115.0
2023-08-09 09:36:18.734219,-117.0
2023-08-09 09:36:18.741909,-117.0
2023-08-09 09:36:18.749598,-103.0
2023-08-09 09:36:18.757288,-93.0
2023-08-09 09:36:18.764978,-91.0
2023-08-09 09:36:18.772668,-76.0
2023-08-09 09:36:18.780358,-52.0
2023-08-09 09:36:18.788047,-43.0
2023-08-09 09:36:18.795737,-52.0
2023-08-09 09:36:18.803427,-55.0
2023-08-09 09:36:18.811117,-55.0
2023-08-09 09:36:18.818807,-81.0
2023-08-09 09:36:18.826497,-115.0
2023-08-09 09:36:18.834186,-122.0
2023-08-09 09:36:18.841876,-120.0
2023-08-09 09:36:18.849566,-122.0
2023-08-09 09:36:18.857256,-122.0
2023-08-09 09:36:18.864946,-120.0
2023-08-09 09:36:18.872635,-120.0
2023-08-09 09:36:18.880325,-125.0
2023-08-09 09:36:18.888015,-122.0
2023-08-09 09:36:18.895705,-117.0
2023-08-09 09:36:18.903395,-117.0
2023-08-09 09:36:18.911084,-88.0
2023-08-09 09:36:18.918774,81.0
2023-08-09 09:36:18.926464,454.0
2023-08-09 09:36:18.934154,824.0
2023-08-09 09:36:18.941844,805.0
2023-08-09 09:36:18.949533,257.0
2023-08-09 09:36:18.957223,-351.0
2023-08-09 09:36:18.964913,-423.0
2023-08-09 09:36:18.972603,-170.0
2023-08-09 09:36:18.980293,-108.0
2023-08-09 09:36:18.987983,-168.0
2023-08-09 09:36:18.995672,-161.0
2023-08-09 09:36:19.003362,-149.0
2023-08-09 09:36:19.011052,-158.0
2023-08-09 09:36:19.018742,-139.0
2023-08-09 09:36:19.026432,-117.0
2023-08-09 09:36:19.034121,-125.0
2023-08-09 09:36:19.041811,-129.0
2023-08-09 09:36:19.049501,-117.0
2023-08-09 09:36:19.057191,-115.0
2023-08-09 09:36:19.064881,-105.0
2023-08-09 09:36:19.072570,-88.0
2023-08-09 09:36:19.080260,-88.0
2023-08-09 09:36:19.087950,-91.0
2023-08-09 09:36:19.095640,-69.0
2023-08-09 09:36:19.103330,-57.0
2023-08-09 09:36:19.111019,-62.0
2023-08-09 09:36:19.118709,-55.0
2023-08-09 09:36:19.126399,-43.0
2023-08-09 09:36:19.134089,-38.0
2023-08-09 09:36:19.141779,-26.0
2023-08-09 09:36:19.149469,-12.0
2023-08-09 09:36:19.157158,-2.0
2023-08-09 09:36:19.164848,16.0
2023-08-09 09:36:19.172538,48.0
2023-08-09 09:36:19.180228,60.0
2023-08-09 09:36:19.187918,55.0
2023-08-09 09:36:19.195607,60.0
2023-08-09 09:36:19.203297,67.0
2023-08-09 09:36:19.210987,60.0
2023-08-09 09:36:19.218677,45.0
2023-08-09 09:36:19.226367,9.0
2023-08-09 09:36:19.234056,-40.0
2023-08-09 09:36:19.241746,-79.0
2023-08-09 09:36:19.249436,-101.0
2023-08-09 09:36:19.257126,-129.0
2023-08-09 09:36:19.264816,-151.0
2023-08-09 09:36:19.272505,-158.0
2023-08-09 09:36:19.280195,-165.0
2023-08-09 09:36:19.287885,-170.0
2023-08-09 09:36:19.295575,-165.0
2023-08-09 09:36:19.303265,-161.0
2023-08-09 09:36:19.310955,-149.0
2023-08-09 09:36:19.318644,-132.0
2023-08-09 09:36:19.326334,-139.0
2023-08-09 09:36:19.334024,-144.0
2023-08-09 09:36:19.341714,-127.0
2023-08-09 09:36:19.349404,-117.0
2023-08-09 09:36:19.357093,-120.0
2023-08-09 09:36:19.364783,-122.0
2023-08-09 09:36:19.372473,-125.0
2023-08-09 09:36:19.380163,-120.0
2023-08-09 09:36:19.387853,-113.0
2023-08-09 09:36:19.395542,-117.0
2023-08-09 09:36:19.403232,-120.0
2023-08-09 09:36:19.410922,-110.0
2023-08-09 09:36:19.418612,-105.0
2023-08-09 09:36:19.426302,-105.0
2023-08-09 09:36:19.433992,-103.0
2023-08-09 09:36:19.441681,-105.0
2023-08-09 09:36:19.449371,-105.0
2023-08-09 09:36:19.457061,-105.0
2023-08-09 09:36:19.464751,-105.0
2023-08-09 09:36:19.472441,-98.0
2023-08-09 09:36:19.480130,-93.0
2023-08-09 09:36:19.487820,-93.0
2023-08-09 09:36:19.495510,-93.0
2023-08-09 09:36:19.503200,-96.0
2023-08-09 09:36:19.510890,-88.0
2023-08-09 09:36:19.518579,-62.0
2023-08-09 09:36:19.526269,-45.0
2023-08-09 09:36:19.533959,-43.0
2023-08-09 09:36:19.541649,-36.0
2023-08-09 09:36:19.549339,-40.0
2023-08-09 09:36:19.557028,-72.0
2023-08-09 09:36:19.564718,-101.0
2023-08-09 09:36:19.572408,-105.0
2023-08-09 09:36:19.580098,-105.0
2023-08-09 09:36:19.587788,-110.0
2023-08-09 09:36:19.595478,-108.0
2023-08-09 09:36:19.603167,-105.0
2023-08-09 09:36:19.610857,-103.0
2023-08-09 09:36:19.618547,-103.0
2023-08-09 09:36:19.626237,-110.0
2023-08-09 09:36:19.633927,-120.0
2023-08-09 09:36:19.641616,-127.0
2023-08-09 09:36:19.649306,-132.0
2023-08-09 09:36:19.656996,-43.0
2023-08-09 09:36:19.664686,266.0
2023-08-09 09:36:19.672376,723.0
2023-08-09 09:36:19.680065,995.0
2023-08-09 09:36:19.687755,716.0
2023-08-09 09:36:19.695445,-36.0
2023-08-09 09:36:19.703135,-500.0
2023-08-09 09:36:19.710825,-310.0
2023-08-09 09:36:19.718514,-105.0
2023-08-09 09:36:19.726204,-185.0
2023-08-09 09:36:19.733894,-221.0
2023-08-09 09:36:19.741584,-180.0
2023-08-09 09:36:19.749274,-185.0
2023-08-09 09:36:19.756964,-185.0
2023-08-09 09:36:19.764653,-158.0
2023-08-09 09:36:19.772343,-151.0
2023-08-09 09:36:19.780033,-151.0
2023-08-09 09:36:19.787723,-144.0
2023-08-09 09:36:19.795413,-137.0
2023-08-09 09:36:19.803102,-134.0
2023-08-09 09:36:19.810792,-120.0
2023-08-09 09:36:19.818482,-110.0
2023-08-09 09:36:19.826172,-105.0
2023-08-09 09:36:19.833862,-91.0
2023-08-09 09:36:19.841551,-74.0
2023-08-09 09:36:19.849241,-69.0
2023-08-09 09:36:19.856931,-62.0
2023-08-09 09:36:19.864621,-52.0
2023-08-09 09:36:19.872311,-40.0
2023-08-09 09:36:19.880000,-26.0
2023-08-09 09:36:19.887690,-9.0
2023-08-09 09:36:19.895380,7.0
2023-08-09 09:36:19.903070,24.0
2023-08-09 09:36:19.910760,36.0
2023-08-09 09:36:19.918450,43.0
2023-08-09 09:36:19.926139,57.0
2023-08-09 09:36:19.933829,69.0
2023-08-09 09:36:19.941519,76.0
2023-08-09 09:36:19.949209,81.0
2023-08-09 09:36:19.956899,84.0
2023-08-09 09:36:19.964588,57.0
2023-08-09 09:36:19.972278,12.0
2023-08-09 09:36:19.979968,-31.0
2023-08-09 09:36:19.987658,-72.0
2023-08-09 09:36:19.995348,-108.0
2023-08-09 09:36:20.003037,-125.0
2023-08-09 09:36:20.010727,-137.0
2023-08-09 09:36:20.018417,-149.0
2023-08-09 09:36:20.026107,-153.0
2023-08-09 09:36:20.033797,-156.0
2023-08-09 09:36:20.041487,-156.0
2023-08-09 09:36:20.049176,-153.0
2023-08-09 09:36:20.056866,-151.0
2023-08-09 09:36:20.064556,-146.0
2023-08-09 09:36:20.072246,-141.0
2023-08-09 09:36:20.079936,-139.0
2023-08-09 09:36:20.087625,-139.0
2023-08-09 09:36:20.095315,-137.0
2023-08-09 09:36:20.103005,-129.0
2023-08-09 09:36:20.110695,-122.0
2023-08-09 09:36:20.118385,-127.0
2023-08-09 09:36:20.126074,-129.0
2023-08-09 09:36:20.133764,-117.0
2023-08-09 09:36:20.141454,-113.0
2023-08-09 09:36:20.149144,-120.0
2023-08-09 09:36:20.156834,-115.0
2023-08-09 09:36:20.164523,-110.0
2023-08-09 09:36:20.172213,-117.0
2023-08-09 09:36:20.179903,-120.0
2023-08-09 09:36:20.187593,-108.0
2023-08-09 09:36:20.195283,-105.0
2023-08-09 09:36:20.202973,-113.0
2023-08-09 09:36:20.210662,-115.0
2023-08-09 09:36:20.218352,-110.0
2023-08-09 09:36:20.226042,-108.0
2023-08-09 09:36:20.233732,-108.0
2023-08-09 09:36:20.241422,-110.0
2023-08-09 09:36:20.249111,-113.0
2023-08-09 09:36:20.256801,-108.0
2023-08-09 09:36:20.264491,-103.0
2023-08-09 09:36:20.272181,-101.0
2023-08-09 09:36:20.279871,-96.0
2023-08-09 09:36:20.287560,-76.0
2023-08-09 09:36:20.295250,-52.0
2023-08-09 09:36:20.302940,-52.0
2023-08-09 09:36:20.310630,-64.0
2023-08-09 09:36:20.318320,-60.0
2023-08-09 09:36:20.326009,-64.0
2023-08-09 09:36:20.333699,-101.0
2023-08-09 09:36:20.341389,-125.0
2023-08-09 09:36:20.349079,-122.0
2023-08-09 09:36:20.356769,-120.0
2023-08-09 09:36:20.364459,-122.0
2023-08-09 09:36:20.372148,-117.0
2023-08-09 09:36:20.379838,-113.0
2023-08-09 09:36:20.387528,-117.0
2023-08-09 09:36:20.395218,-120.0
2023-08-09 09:36:20.402908,-113.0
2023-08-09 09:36:20.410597,-108.0
2023-08-09 09:36:20.418287,-125.0
2023-08-09 09:36:20.425977,-110.0
2023-08-09 09:36:20.433667,67.0
2023-08-09 09:36:20.441357,464.0
2023-08-09 09:36:20.449046,868.0
2023-08-09 09:36:20.456736,901.0
2023-08-09 09:36:20.464426,372.0
2023-08-09 09:36:20.472116,-293.0
2023-08-09 09:36:20.479806,-406.0
2023-08-09 09:36:20.487495,-144.0
2023-08-09 09:36:20.495185,-103.0
2023-08-09 09:36:20.502875,-192.0
2023-08-09 09:36:20.510565,-173.0
2023-08-09 09:36:20.518255,-151.0
2023-08-09 09:36:20.525945,-173.0
2023-08-09 09:36:20.533634,-165.0
2023-08-09 09:36:20.541324,-149.0
2023-08-09 09:36:20.549014,-146.0
2023-08-09 09:36:20.556704,-137.0
2023-08-09 09:36:20.564394,-125.0
2023-08-09 09:36:20.572083,-122.0
2023-08-09 09:36:20.579773,-115.0
2023-08-09 09:36:20.587463,-96.0
2023-08-09 09:36:20.595153,-84.0
2023-08-09 09:36:20.602843,-81.0
2023-08-09 09:36:20.610532,-76.0
2023-08-09 09:36:20.618222,-67.0
2023-08-09 09:36:20.625912,-55.0
2023-08-09 09:36:20.633602,-50.0
2023-08-09 09:36:20.641292,-43.0
2023-08-09 09:36:20.648982,-31.0
2023-08-09 09:36:20.656671,-19.0
2023-08-09 09:36:20.664361,-2.0
2023-08-09 09:36:20.672051,16.0
2023-08-09 09:36:20.679741,31.0
2023-08-09 09:36:20.687431,45.0
2023-08-09 09:36:20.695120,57.0
2023-08-09 09:36:20.702810,60.0
2023-08-09 09:36:20.710500,62.0
2023-08-09 09:36:20.718190,74.0
2023-08-09 09:36:20.725880,81.0
2023-08-09 09:36:20.733569,69.0
2023-08-09 09:36:20.741259,40.0
2023-08-09 09:36:20.748949,2.0
2023-08-09 09:36:20.756639,-38.0
2023-08-09 09:36:20.764329,-79.0
2023-08-09 09:36:20.772018,-110.0
2023-08-09 09:36:20.779708,-125.0
2023-08-09 09:36:20.787398,-134.0
2023-08-09 09:36:20.795088,-141.0
2023-08-09 09:36:20.802778,-141.0
2023-08-09 09:36:20.810468,-139.0
2023-08-09 09:36:20.818157,-137.0
2023-08-09 09:36:20.825847,-134.0
2023-08-09 09:36:20.833537,-137.0
2023-08-09 09:36:20.841227,-134.0
2023-08-09 09:36:20.848917,-129.0
2023-08-09 09:36:20.856606,-134.0
2023-08-09 09:36:20.864296,-134.0
2023-08-09 09:36:20.871986,-125.0
2023-08-09 09:36:20.879676,-122.0
2023-08-09 09:36:20.887366,-115.0
2023-08-09 09:36:20.895055,-115.0
2023-08-09 09:36:20.902745,-115.0
2023-08-09 09:36:20.910435,-110.0
2023-08-09 09:36:20.918125,-108.0
2023-08-09 09:36:20.925815,-103.0
2023-08-09 09:36:20.933504,-103.0
2023-08-09 09:36:20.941194,-113.0
2023-08-09 09:36:20.948884,-110.0
2023-08-09 09:36:20.956574,-98.0
2023-08-09 09:36:20.964264,-93.0
2023-08-09 09:36:20.971954,-93.0
2023-08-09 09:36:20.979643,-93.0
2023-08-09 09:36:20.987333,-93.0
2023-08-09 09:36:20.995023,-93.0
2023-08-09 09:36:21.002713,-93.0
2023-08-09 09:36:21.010403,-88.0
2023-08-09 09:36:21.018092,-81.0
2023-08-09 09:36:21.025782,-86.0
2023-08-09 09:36:21.033472,-91.0
2023-08-09 09:36:21.041162,-91.0
2023-08-09 09:36:21.048852,-93.0
2023-08-09 09:36:21.056541,-91.0
2023-08-09 09:36:21.064231,-81.0
2023-08-09 09:36:21.071921,-84.0
2023-08-09 09:36:21.079611,-72.0
2023-08-09 09:36:21.087301,-28.0
2023-08-09 09:36:21.094990,-7.0
2023-08-09 09:36:21.102680,-12.0
2023-08-09 09:36:21.110370,-12.0
2023-08-09 09:36:21.118060,-28.0
2023-08-09 09:36:21.125750,-60.0
2023-08-09 09:36:21.133440,-69.0
2023-08-09 09:36:21.141129,-74.0
2023-08-09 09:36:21.148819,-76.0
2023-08-09 09:36:21.156509,-76.0
2023-08-09 09:36:21.164199,-86.0
2023-08-09 09:36:21.171889,-93.0
2023-08-09 09:36:21.179578,-79.0
2023-08-09 09:36:21.187268,-72.0
2023-08-09 09:36:21.194958,-81.0
2023-08-09 09:36:21.202648,-79.0
2023-08-09 09:36:21.210338,-84.0
2023-08-09 09:36:21.218027,-105.0
2023-08-09 09:36:21.225717,-84.0
2023-08-09 09:36:21.233407,88.0
2023-08-09 09:36:21.241097,449.0
2023-08-09 09:36:21.248787,795.0
2023-08-09 09:36:21.256477,764.0
2023-08-09 09:36:21.264166,240.0
2023-08-09 09:36:21.271856,-324.0
2023-08-09 09:36:21.279546,-363.0
2023-08-09 09:36:21.287236,-117.0
2023-08-09 09:36:21.294926,-88.0
2023-08-09 09:36:21.302615,-153.0
2023-08-09 09:36:21.310305,-146.0
2023-08-09 09:36:21.317995,-127.0
2023-08-09 09:36:21.325685,-120.0
2023-08-09 09:36:21.333375,-115.0
2023-08-09 09:36:21.341064,-117.0
2023-08-09 09:36:21.348754,-103.0
2023-08-09 09:36:21.356444,-74.0
2023-08-09 09:36:21.364134,-69.0
2023-08-09 09:36:21.371824,-74.0
2023-08-09 09:36:21.379513,-57.0
2023-08-09 09:36:21.387203,-48.0
2023-08-09 09:36:21.394893,-69.0
2023-08-09 09:36:21.402583,-74.0
2023-08-09 09:36:21.410273,-43.0
2023-08-09 09:36:21.417963,-28.0
2023-08-09 09:36:21.425652,-40.0
2023-08-09 09:36:21.433342,-45.0
2023-08-09 09:36:21.441032,-26.0
2023-08-09 09:36:21.448722,-12.0
2023-08-09 09:36:21.456412,-7.0
2023-08-09 09:36:21.464101,12.0
2023-08-09 09:36:21.471791,28.0
2023-08-09 09:36:21.479481,33.0
2023-08-09 09:36:21.487171,45.0
2023-08-09 09:36:21.494861,67.0
2023-08-09 09:36:21.502550,79.0
2023-08-09 09:36:21.510240,91.0
2023-08-09 09:36:21.517930,98.0
2023-08-09 09:36:21.525620,96.0
2023-08-09 09:36:21.533310,81.0
2023-08-09 09:36:21.540999,48.0
2023-08-09 09:36:21.548689,-2.0
2023-08-09 09:36:21.556379,-31.0
2023-08-09 09:36:21.564069,-50.0
2023-08-09 09:36:21.571759,-93.0
2023-08-09 09:36:21.579449,-125.0
2023-08-09 09:36:21.587138,-125.0
2023-08-09 09:36:21.594828,-129.0
2023-08-09 09:36:21.602518,-141.0
2023-08-09 09:36:21.610208,-146.0
2023-08-09 09:36:21.617898,-146.0
2023-08-09 09:36:21.625587,-139.0
2023-08-09 09:36:21.633277,-129.0
2023-08-09 09:36:21.640967,-125.0
2023-08-09 09:36:21.648657,-120.0
2023-08-09 09:36:21.656347,-120.0
2023-08-09 09:36:21.664036,-113.0
2023-08-09 09:36:21.671726,-96.0
2023-08-09 09:36:21.679416,-101.0
2023-08-09 09:36:21.687106,-122.0
2023-08-09 09:36:21.694796,-110.0
2023-08-09 09:36:21.702485,-93.0
2023-08-09 09:36:21.710175,-108.0
2023-08-09 09:36:21.717865,-113.0
2023-08-09 09:36:21.725555,-93.0
2023-08-09 09:36:21.733245,-84.0
2023-08-09 09:36:21.740935,-91.0
2023-08-09 09:36:21.748624,-91.0
2023-08-09 09:36:21.756314,-93.0
2023-08-09 09:36:21.764004,-101.0
2023-08-09 09:36:21.771694,-101.0
2023-08-09 09:36:21.779384,-96.0
2023-08-09 09:36:21.787073,-96.0
2023-08-09 09:36:21.794763,-96.0
2023-08-09 09:36:21.802453,-91.0
2023-08-09 09:36:21.810143,-84.0
2023-08-09 09:36:21.817833,-81.0
2023-08-09 09:36:21.825522,-84.0
2023-08-09 09:36:21.833212,-81.0
2023-08-09 09:36:21.840902,-69.0
2023-08-09 09:36:21.848592,-69.0
2023-08-09 09:36:21.856282,-86.0
2023-08-09 09:36:21.863972,-69.0
2023-08-09 09:36:21.871661,-21.0
2023-08-09 09:36:21.879351,-4.0
2023-08-09 09:36:21.887041,-16.0
2023-08-09 09:36:21.894731,-12.0
2023-08-09 09:36:21.902421,-4.0
2023-08-09 09:36:21.910110,-38.0
2023-08-09 09:36:21.917800,-74.0
2023-08-09 09:36:21.925490,-76.0
2023-08-09 09:36:21.933180,-67.0
2023-08-09 09:36:21.940870,-62.0
2023-08-09 09:36:21.948559,-64.0
2023-08-09 09:36:21.956249,-69.0
2023-08-09 09:36:21.963939,-74.0
2023-08-09 09:36:21.971629,-88.0
2023-08-09 09:36:21.979319,-103.0
2023-08-09 09:36:21.987008,-98.0
2023-08-09 09:36:21.994698,-91.0
2023-08-09 09:36:22.002388,-117.0
2023-08-09 09:36:22.010078,-134.0
2023-08-09 09:36:22.017768,-33.0
2023-08-09 09:36:22.025458,274.0
2023-08-09 09:36:22.033147,709.0
2023-08-09 09:36:22.040837,916.0
2023-08-09 09:36:22.048527,548.0
2023-08-09 09:36:22.056217,-165.0
2023-08-09 09:36:22.063907,-492.0
2023-08-09 09:36:22.071596,-278.0
2023-08-09 09:36:22.079286,-113.0
2023-08-09 09:36:22.086976,-165.0
2023-08-09 09:36:22.094666,-165.0
2023-08-09 09:36:22.102356,-125.0
2023-08-09 09:36:22.110045,-144.0
2023-08-09 09:36:22.117735,-153.0
2023-08-09 09:36:22.125425,-125.0
2023-08-09 09:36:22.133115,-113.0
2023-08-09 09:36:22.140805,-120.0
2023-08-09 09:36:22.148494,-105.0
2023-08-09 09:36:22.156184,-93.0
2023-08-09 09:36:22.163874,-110.0
2023-08-09 09:36:22.171564,-103.0
2023-08-09 09:36:22.179254,-69.0
2023-08-09 09:36:22.186944,-72.0
2023-08-09 09:36:22.194633,-88.0
2023-08-09 09:36:22.202323,-74.0
2023-08-09 09:36:22.210013,-52.0
2023-08-09 09:36:22.217703,-50.0
2023-08-09 09:36:22.225393,-52.0
2023-08-09 09:36:22.233082,-36.0
2023-08-09 09:36:22.240772,-7.0
2023-08-09 09:36:22.248462,-4.0
2023-08-09 09:36:22.256152,2.0
2023-08-09 09:36:22.263842,38.0
2023-08-09 09:36:22.271531,50.0
2023-08-09 09:36:22.279221,57.0
2023-08-09 09:36:22.286911,86.0
2023-08-09 09:36:22.294601,101.0
2023-08-09 09:36:22.302291,86.0
2023-08-09 09:36:22.309980,91.0
2023-08-09 09:36:22.317670,110.0
2023-08-09 09:36:22.325360,76.0
2023-08-09 09:36:22.333050,4.0
2023-08-09 09:36:22.340740,-33.0
2023-08-09 09:36:22.348430,-62.0
2023-08-09 09:36:22.356119,-117.0
2023-08-09 09:36:22.363809,-149.0
2023-08-09 09:36:22.371499,-149.0
2023-08-09 09:36:22.379189,-165.0
2023-08-09 09:36:22.386879,-173.0
2023-08-09 09:36:22.394568,-151.0
2023-08-09 09:36:22.402258,-156.0
2023-08-09 09:36:22.409948,-165.0
2023-08-09 09:36:22.417638,-156.0
2023-08-09 09:36:22.425328,-153.0
2023-08-09 09:36:22.433017,-153.0
2023-08-09 09:36:22.440707,-139.0
2023-08-09 09:36:22.448397,-137.0
2023-08-09 09:36:22.456087,-134.0
2023-08-09 09:36:22.463777,-122.0
2023-08-09 09:36:22.471467,-125.0
2023-08-09 09:36:22.479156,-129.0
2023-08-09 09:36:22.486846,-125.0
2023-08-09 09:36:22.494536,-127.0
2023-08-09 09:36:22.502226,-132.0
2023-08-09 09:36:22.509916,-132.0
2023-08-09 09:36:22.517605,-137.0
2023-08-09 09:36:22.525295,-139.0
2023-08-09 09:36:22.532985,-141.0
2023-08-09 09:36:22.540675,-137.0
2023-08-09 09:36:22.548365,-127.0
2023-08-09 09:36:22.556054,-127.0
2023-08-09 09:36:22.563744,-134.0
2023-08-09 09:36:22.571434,-129.0
2023-08-09 09:36:22.579124,-125.0
2023-08-09 09:36:22.586814,-127.0
2023-08-09 09:36:22.594503,-120.0
2023-08-09 09:36:22.602193,-113.0
2023-08-09 09:36:22.609883,-113.0
2023-08-09 09:36:22.617573,-113.0
2023-08-09 09:36:22.625263,-115.0
2023-08-09 09:36:22.632953,-115.0
2023-08-09 09:36:22.640642,-108.0
2023-08-09 09:36:22.648332,-93.0
2023-08-09 09:36:22.656022,-72.0
2023-08-09 09:36:22.663712,-52.0
2023-08-09 09:36:22.671402,-52.0
2023-08-09 09:36:22.679091,-50.0
2023-08-09 09:36:22.686781,-55.0
2023-08-09 09:36:22.694471,-76.0
2023-08-09 09:36:22.702161,-98.0
2023-08-09 09:36:22.709851,-105.0
2023-08-09 09:36:22.717540,-110.0
2023-08-09 09:36:22.725230,-113.0
2023-08-09 09:36:22.732920,-113.0
2023-08-09 09:36:22.740610,-117.0
2023-08-09 09:36:22.748300,-125.0
2023-08-09 09:36:22.755989,-117.0
2023-08-09 09:36:22.763679,-113.0
2023-08-09 09:36:22.771369,-117.0
2023-08-09 09:36:22.779059,-122.0
2023-08-09 09:36:22.786749,-141.0
2023-08-09 09:36:22.794439,-120.0
2023-08-09 09:36:22.802128,79.0
2023-08-09 09:36:22.809818,517.0
2023-08-09 09:36:22.817508,961.0
2023-08-09 09:36:22.825198,1000.0
2023-08-09 09:36:22.832888,418.0
2023-08-09 09:36:22.840577,-327.0
2023-08-09 09:36:22.848267,-471.0
2023-08-09 09:36:22.855957,-180.0
2023-08-09 09:36:22.863647,-113.0
2023-08-09 09:36:22.871337,-197.0
2023-08-09 09:36:22.879026,-177.0
2023-08-09 09:36:22.886716,-146.0
2023-08-09 09:36:22.894406,-158.0
2023-08-09 09:36:22.902096,-149.0
2023-08-09 09:36:22.909786,-134.0
2023-08-09 09:36:22.917475,-134.0
2023-08-09 09:36:22.925165,-129.0
2023-08-09 09:36:22.932855,-117.0
2023-08-09 09:36:22.940545,-110.0
2023-08-09 09:36:22.948235,-105.0
2023-08-09 09:36:22.955925,-93.0
2023-08-09 09:36:22.963614,-86.0
2023-08-09 09:36:22.971304,-81.0
2023-08-09 09:36:22.978994,-72.0
2023-08-09 09:36:22.986684,-62.0
2023-08-09 09:36:22.994374,-55.0
2023-08-09 09:36:23.002063,-45.0
2023-08-09 09:36:23.009753,-33.0
2023-08-09 09:36:23.017443,-21.0
2023-08-09 09:36:23.025133,-7.0
2023-08-09 09:36:23.032823,12.0
2023-08-09 09:36:23.040512,26.0
2023-08-09 09:36:23.048202,40.0
2023-08-09 09:36:23.055892,55.0
2023-08-09 09:36:23.063582,69.0
2023-08-09 09:36:23.071272,86.0
2023-08-09 09:36:23.078962,101.0
2023-08-09 09:36:23.086651,110.0
2023-08-09 09:36:23.094341,110.0
2023-08-09 09:36:23.102031,91.0
2023-08-09 09:36:23.109721,48.0
2023-08-09 09:36:23.117411,4.0
2023-08-09 09:36:23.125100,-36.0
2023-08-09 09:36:23.132790,-81.0
2023-08-09 09:36:23.140480,-115.0
2023-08-09 09:36:23.148170,-137.0
2023-08-09 09:36:23.155860,-153.0
2023-08-09 09:36:23.163549,-163.0
2023-08-09 09:36:23.171239,-165.0
2023-08-09 09:36:23.178929,-165.0
2023-08-09 09:36:23.186619,-165.0
2023-08-09 09:36:23.194309,-163.0
2023-08-09 09:36:23.201998,-158.0
2023-08-09 09:36:23.209688,-153.0
2023-08-09 09:36:23.217378,-149.0
2023-08-09 09:36:23.225068,-149.0
2023-08-09 09:36:23.232758,-146.0
2023-08-09 09:36:23.240448,-141.0
2023-08-09 09:36:23.248137,-137.0
2023-08-09 09:36:23.255827,-134.0
2023-08-09 09:36:23.263517,-129.0
2023-08-09 09:36:23.271207,-125.0
2023-08-09 09:36:23.278897,-122.0
2023-08-09 09:36:23.286586,-122.0
2023-08-09 09:36:23.294276,-122.0
2023-08-09 09:36:23.301966,-120.0
2023-08-09 09:36:23.309656,-115.0
2023-08-09 09:36:23.317346,-117.0
2023-08-09 09:36:23.325035,-122.0
2023-08-09 09:36:23.332725,-122.0
2023-08-09 09:36:23.340415,-117.0
2023-08-09 09:36:23.348105,-115.0
2023-08-09 09:36:23.355795,-113.0
2023-08-09 09:36:23.363484,-110.0
2023-08-09 09:36:23.371174,-110.0
2023-08-09 09:36:23.378864,-108.0
2023-08-09 09:36:23.386554,-105.0
2023-08-09 09:36:23.394244,-101.0
2023-08-09 09:36:23.401934,-101.0
2023-08-09 09:36:23.409623,-101.0
2023-08-09 09:36:23.417313,-101.0
2023-08-09 09:36:23.425003,-98.0
2023-08-09 09:36:23.432693,-101.0
2023-08-09 09:36:23.440383,-98.0
2023-08-09 09:36:23.448072,-81.0
2023-08-09 09:36:23.455762,-55.0
2023-08-09 09:36:23.463452,-40.0
2023-08-09 09:36:23.471142,-43.0
2023-08-09 09:36:23.478832,-40.0
2023-08-09 09:36:23.486521,-43.0
2023-08-09 09:36:23.494211,-67.0
2023-08-09 09:36:23.501901,-96.0
2023-08-09 09:36:23.509591,-110.0
2023-08-09 09:36:23.517281,-110.0
2023-08-09 09:36:23.524970,-110.0
2023-08-09 09:36:23.532660,-113.0
2023-08-09 09:36:23.540350,-110.0
2023-08-09 09:36:23.548040,-110.0
2023-08-09 09:36:23.555730,-110.0
2023-08-09 09:36:23.563420,-110.0
2023-08-09 09:36:23.571109,-110.0
2023-08-09 09:36:23.578799,-117.0
2023-08-09 09:36:23.586489,-129.0
2023-08-09 09:36:23.594179,-57.0
2023-08-09 09:36:23.601869,235.0
2023-08-09 09:36:23.609558,711.0
2023-08-09 09:36:23.617248,1058.0
2023-08-09 09:36:23.624938,889.0
2023-08-09 09:36:23.632628,170.0
2023-08-09 09:36:23.640318,-423.0
2023-08-09 09:36:23.648007,-336.0
2023-08-09 09:36:23.655697,-93.0
2023-08-09 09:36:23.663387,-165.0
2023-08-09 09:36:23.671077,-238.0
2023-08-09 09:36:23.678767,-182.0
2023-08-09 09:36:23.686457,-182.0
2023-08-09 09:36:23.694146,-209.0
2023-08-09 09:36:23.701836,-180.0
2023-08-09 09:36:23.709526,-163.0
2023-08-09 09:36:23.717216,-170.0
2023-08-09 09:36:23.724906,-161.0
2023-08-09 09:36:23.732595,-151.0
2023-08-09 09:36:23.740285,-151.0
2023-08-09 09:36:23.747975,-144.0
2023-08-09 09:36:23.755665,-129.0
2023-08-09 09:36:23.763355,-122.0
2023-08-09 09:36:23.771044,-113.0
2023-08-09 09:36:23.778734,-103.0
2023-08-09 09:36:23.786424,-93.0
2023-08-09 09:36:23.794114,-81.0
2023-08-09 09:36:23.801804,-72.0
2023-08-09 09:36:23.809493,-62.0
2023-08-09 09:36:23.817183,-50.0
2023-08-09 09:36:23.824873,-38.0
2023-08-09 09:36:23.832563,-24.0
2023-08-09 09:36:23.840253,-9.0
2023-08-09 09:36:23.847943,4.0
2023-08-09 09:36:23.855632,16.0
2023-08-09 09:36:23.863322,31.0
2023-08-09 09:36:23.871012,45.0
2023-08-09 09:36:23.878702,64.0
2023-08-09 09:36:23.886392,76.0
2023-08-09 09:36:23.894081,81.0
2023-08-09 09:36:23.901771,76.0
2023-08-09 09:36:23.909461,50.0
2023-08-09 09:36:23.917151,9.0
2023-08-09 09:36:23.924841,-26.0
2023-08-09 09:36:23.932530,-62.0
2023-08-09 09:36:23.940220,-93.0
2023-08-09 09:36:23.947910,-113.0
2023-08-09 09:36:23.955600,-127.0
2023-08-09 09:36:23.963290,-137.0
2023-08-09 09:36:23.970979,-139.0
2023-08-09 09:36:23.978669,-139.0
2023-08-09 09:36:23.986359,-137.0
2023-08-09 09:36:23.994049,-132.0
2023-08-09 09:36:24.001739,-132.0
2023-08-09 09:36:24.009429,-127.0
2023-08-09 09:36:24.017118,-120.0
2023-08-09 09:36:24.024808,-115.0
2023-08-09 09:36:24.032498,-117.0
2023-08-09 09:36:24.040188,-115.0
2023-08-09 09:36:24.047878,-113.0
2023-08-09 09:36:24.055567,-108.0
2023-08-09 09:36:24.063257,-105.0
2023-08-09 09:36:24.070947,-103.0
2023-08-09 09:36:24.078637,-101.0
2023-08-09 09:36:24.086327,-101.0
2023-08-09 09:36:24.094016,-103.0
2023-08-09 09:36:24.101706,-103.0
2023-08-09 09:36:24.109396,-101.0
2023-08-09 09:36:24.117086,-101.0
2023-08-09 09:36:24.124776,-101.0
2023-08-09 09:36:24.132465,-101.0
2023-08-09 09:36:24.140155,-101.0
2023-08-09 09:36:24.147845,-98.0
2023-08-09 09:36:24.155535,-93.0
2023-08-09 09:36:24.163225,-93.0
2023-08-09 09:36:24.170915,-96.0
2023-08-09 09:36:24.178604,-98.0
2023-08-09 09:36:24.186294,-98.0
2023-08-09 09:36:24.193984,-93.0
2023-08-09 09:36:24.201674,-91.0
2023-08-09 09:36:24.209364,-91.0
2023-08-09 09:36:24.217053,-93.0
2023-08-09 09:36:24.224743,-103.0
2023-08-09 09:36:24.232433,-108.0
2023-08-09 09:36:24.240123,-108.0
2023-08-09 09:36:24.247813,-108.0
2023-08-09 09:36:24.255502,-96.0
2023-08-09 09:36:24.263192,-67.0
2023-08-09 09:36:24.270882,-55.0
2023-08-09 09:36:24.278572,-57.0
2023-08-09 09:36:24.286262,-50.0
2023-08-09 09:36:24.293952,-57.0
2023-08-09 09:36:24.301641,-93.0
2023-08-09 09:36:24.309331,-115.0
2023-08-09 09:36:24.317021,-115.0
2023-08-09 09:36:24.324711,-115.0
2023-08-09 09:36:24.332401,-115.0
2023-08-09 09:36:24.340090,-113.0
2023-08-09 09:36:24.347780,-120.0
2023-08-09 09:36:24.355470,-120.0
2023-08-09 09:36:24.363160,-115.0
2023-08-09 09:36:24.370850,-113.0
2023-08-09 09:36:24.378539,-110.0
2023-08-09 09:36:24.386229,-117.0
2023-08-09 09:36:24.393919,-125.0
2023-08-09 09:36:24.401609,-43.0
2023-08-09 09:36:24.409299,242.0
2023-08-09 09:36:24.416988,678.0
2023-08-09 09:36:24.424678,942.0
2023-08-09 09:36:24.432368,702.0
2023-08-09 09:36:24.440058,19.0
2023-08-09 09:36:24.447748,-432.0
2023-08-09 09:36:24.455438,-288.0
2023-08-09 09:36:24.463127,-93.0
2023-08-09 09:36:24.470817,-168.0
2023-08-09 09:36:24.478507,-209.0
2023-08-09 09:36:24.486197,-158.0
2023-08-09 09:36:24.493887,-165.0
2023-08-09 09:36:24.501576,-180.0
2023-08-09 09:36:24.509266,-151.0
2023-08-09 09:36:24.516956,-134.0
2023-08-09 09:36:24.524646,-137.0
2023-08-09 09:36:24.532336,-127.0
2023-08-09 09:36:24.540025,-115.0
2023-08-09 09:36:24.547715,-108.0
2023-08-09 09:36:24.555405,-98.0
2023-08-09 09:36:24.563095,-86.0
2023-08-09 09:36:24.570785,-81.0
2023-08-09 09:36:24.578474,-79.0
2023-08-09 09:36:24.586164,-69.0
2023-08-09 09:36:24.593854,-57.0
2023-08-09 09:36:24.601544,-43.0
2023-08-09 09:36:24.609234,-33.0
2023-08-09 09:36:24.616924,-21.0
2023-08-09 09:36:24.624613,-9.0
2023-08-09 09:36:24.632303,-2.0
2023-08-09 09:36:24.639993,7.0
2023-08-09 09:36:24.647683,24.0
2023-08-09 09:36:24.655373,40.0
2023-08-09 09:36:24.663062,52.0
2023-08-09 09:36:24.670752,60.0
2023-08-09 09:36:24.678442,74.0
2023-08-09 09:36:24.686132,86.0
2023-08-09 09:36:24.693822,98.0
2023-08-09 09:36:24.701511,101.0
2023-08-09 09:36:24.709201,88.0
2023-08-09 09:36:24.716891,60.0
2023-08-09 09:36:24.724581,21.0
2023-08-09 09:36:24.732271,-19.0
2023-08-09 09:36:24.739960,-48.0
2023-08-09 09:36:24.747650,-79.0
2023-08-09 09:36:24.755340,-110.0
2023-08-09 09:36:24.763030,-125.0
2023-08-09 09:36:24.770720,-122.0
2023-08-09 09:36:24.778410,-125.0
2023-08-09 09:36:24.786099,-120.0
2023-08-09 09:36:24.793789,-110.0
2023-08-09 09:36:24.801479,-113.0
2023-08-09 09:36:24.809169,-125.0
2023-08-09 09:36:24.816859,-127.0
2023-08-09 09:36:24.824548,-117.0
2023-08-09 09:36:24.832238,-113.0
2023-08-09 09:36:24.839928,-115.0
2023-08-09 09:36:24.847618,-115.0
2023-08-09 09:36:24.855308,-108.0
2023-08-09 09:36:24.862997,-103.0
2023-08-09 09:36:24.870687,-103.0
2023-08-09 09:36:24.878377,-105.0
2023-08-09 09:36:24.886067,-98.0
2023-08-09 09:36:24.893757,-88.0
2023-08-09 09:36:24.901447,-93.0
2023-08-09 09:36:24.909136,-98.0
2023-08-09 09:36:24.916826,-93.0
2023-08-09 09:36:24.924516,-84.0
2023-08-09 09:36:24.932206,-81.0
2023-08-09 09:36:24.939896,-88.0
2023-08-09 09:36:24.947585,-93.0
2023-08-09 09:36:24.955275,-93.0
2023-08-09 09:36:24.962965,-93.0
2023-08-09 09:36:24.970655,-88.0
2023-08-09 09:36:24.978345,-88.0
2023-08-09 09:36:24.986034,-96.0
2023-08-09 09:36:24.993724,-86.0
2023-08-09 09:36:25.001414,-79.0
2023-08-09 09:36:25.009104,-84.0
2023-08-09 09:36:25.016794,-81.0
2023-08-09 09:36:25.024483,-76.0
2023-08-09 09:36:25.032173,-84.0
2023-08-09 09:36:25.039863,-84.0
2023-08-09 09:36:25.047553,-88.0
2023-08-09 09:36:25.055243,-86.0
2023-08-09 09:36:25.062933,-50.0
2023-08-09 09:36:25.070622,-19.0
2023-08-09 09:36:25.078312,-21.0
2023-08-09 09:36:25.086002,-19.0
2023-08-09 09:36:25.093692,-14.0
2023-08-09 09:36:25.101382,-40.0
2023-08-09 09:36:25.109071,-74.0
2023-08-09 09:36:25.116761,-88.0
2023-08-09 09:36:25.124451,-93.0
2023-08-09 09:36:25.132141,-98.0
2023-08-09 09:36:25.139831,-101.0
2023-08-09 09:36:25.147520,-98.0
2023-08-09 09:36:25.155210,-98.0
2023-08-09 09:36:25.162900,-110.0
2023-08-09 09:36:25.170590,-122.0
2023-08-09 09:36:25.178280,-117.0
2023-08-09 09:36:25.185969,-105.0
2023-08-09 09:36:25.193659,-122.0
2023-08-09 09:36:25.201349,-122.0
2023-08-09 09:36:25.209039,16.0
2023-08-09 09:36:25.216729,363.0
2023-08-09 09:36:25.224419,731.0
2023-08-09 09:36:25.232108,781.0
2023-08-09 09:36:25.239798,322.0
2023-08-09 09:36:25.247488,-307.0
2023-08-09 09:36:25.255178,-456.0
2023-08-09 09:36:25.262868,-199.0
2023-08-09 09:36:25.270557,-113.0
2023-08-09 09:36:25.278247,-192.0
2023-08-09 09:36:25.285937,-180.0
2023-08-09 09:36:25.293627,-144.0
2023-08-09 09:36:25.301317,-163.0
2023-08-09 09:36:25.309006,-168.0
2023-08-09 09:36:25.316696,-144.0
2023-08-09 09:36:25.324386,-134.0
2023-08-09 09:36:25.332076,-127.0
2023-08-09 09:36:25.339766,-117.0
2023-08-09 09:36:25.347455,-122.0
2023-08-09 09:36:25.355145,-120.0
2023-08-09 09:36:25.362835,-113.0
2023-08-09 09:36:25.370525,-105.0
2023-08-09 09:36:25.378215,-93.0
2023-08-09 09:36:25.385905,-79.0
2023-08-09 09:36:25.393594,-72.0
2023-08-09 09:36:25.401284,-69.0
2023-08-09 09:36:25.408974,-57.0
2023-08-09 09:36:25.416664,-45.0
2023-08-09 09:36:25.424354,-38.0
2023-08-09 09:36:25.432043,-24.0
2023-08-09 09:36:25.439733,2.0
2023-08-09 09:36:25.447423,16.0
2023-08-09 09:36:25.455113,26.0
2023-08-09 09:36:25.462803,43.0
2023-08-09 09:36:25.470492,64.0
2023-08-09 09:36:25.478182,76.0
2023-08-09 09:36:25.485872,74.0
2023-08-09 09:36:25.493562,79.0
2023-08-09 09:36:25.501252,96.0
2023-08-09 09:36:25.508942,96.0
2023-08-09 09:36:25.516631,76.0
2023-08-09 09:36:25.524321,40.0
2023-08-09 09:36:25.532011,-2.0
2023-08-09 09:36:25.539701,-43.0
2023-08-09 09:36:25.547391,-79.0
2023-08-09 09:36:25.555080,-108.0
2023-08-09 09:36:25.562770,-125.0
2023-08-09 09:36:25.570460,-132.0
2023-08-09 09:36:25.578150,-139.0
2023-08-09 09:36:25.585840,-132.0
2023-08-09 09:36:25.593529,-122.0
2023-08-09 09:36:25.601219,-127.0
2023-08-09 09:36:25.608909,-125.0
2023-08-09 09:36:25.616599,-120.0
2023-08-09 09:36:25.624289,-122.0
2023-08-09 09:36:25.631978,-110.0
2023-08-09 09:36:25.639668,-101.0
2023-08-09 09:36:25.647358,-117.0
2023-08-09 09:36:25.655048,-127.0
2023-08-09 09:36:25.662738,-113.0
2023-08-09 09:36:25.670428,-108.0
2023-08-09 09:36:25.678117,-113.0
2023-08-09 09:36:25.685807,-105.0
2023-08-09 09:36:25.693497,-110.0
2023-08-09 09:36:25.701187,-113.0
2023-08-09 09:36:25.708877,-105.0
2023-08-09 09:36:25.716566,-101.0
2023-08-09 09:36:25.724256,-110.0
2023-08-09 09:36:25.731946,-115.0
2023-08-09 09:36:25.739636,-108.0
2023-08-09 09:36:25.747326,-98.0
2023-08-09 09:36:25.755015,-108.0
2023-08-09 09:36:25.762705,-120.0
2023-08-09 09:36:25.770395,-115.0
2023-08-09 09:36:25.778085,-110.0
2023-08-09 09:36:25.785775,-110.0
2023-08-09 09:36:25.793464,-115.0
2023-08-09 09:36:25.801154,-120.0
2023-08-09 09:36:25.808844,-108.0
2023-08-09 09:36:25.816534,-98.0
2023-08-09 09:36:25.824224,-101.0
2023-08-09 09:36:25.831914,-101.0
2023-08-09 09:36:25.839603,-69.0
2023-08-09 09:36:25.847293,-48.0
2023-08-09 09:36:25.854983,-55.0
2023-08-09 09:36:25.862673,-57.0
2023-08-09 09:36:25.870363,-48.0
2023-08-09 09:36:25.878052,-67.0
2023-08-09 09:36:25.885742,-110.0
2023-08-09 09:36:25.893432,-139.0
2023-08-09 09:36:25.901122,-132.0
2023-08-09 09:36:25.908812,-113.0
2023-08-09 09:36:25.916501,-122.0
2023-08-09 09:36:25.924191,-141.0
2023-08-09 09:36:25.931881,-134.0
2023-08-09 09:36:25.939571,-122.0
2023-08-09 09:36:25.947261,-132.0
2023-08-09 09:36:25.954950,-134.0
2023-08-09 09:36:25.962640,-134.0
2023-08-09 09:36:25.970330,-144.0
2023-08-09 09:36:25.978020,-60.0
2023-08-09 09:36:25.985710,240.0
2023-08-09 09:36:25.993400,685.0
2023-08-09 09:36:26.001089,935.0
2023-08-09 09:36:26.008779,649.0
2023-08-09 09:36:26.016469,-64.0
2023-08-09 09:36:26.024159,-505.0
2023-08-09 09:36:26.031849,-336.0
2023-08-09 09:36:26.039538,-120.0
2023-08-09 09:36:26.047228,-158.0
2023-08-09 09:36:26.054918,-187.0
2023-08-09 09:36:26.062608,-153.0
2023-08-09 09:36:26.070298,-141.0
2023-08-09 09:36:26.077987,-137.0
2023-08-09 09:36:26.085677,-134.0
2023-08-09 09:36:26.093367,-137.0
2023-08-09 09:36:26.101057,-122.0
2023-08-09 09:36:26.108747,-101.0
2023-08-09 09:36:26.116437,-101.0
2023-08-09 09:36:26.124126,-103.0
2023-08-09 09:36:26.131816,-84.0
2023-08-09 09:36:26.139506,-62.0
2023-08-09 09:36:26.147196,-52.0
2023-08-09 09:36:26.154886,-55.0
2023-08-09 09:36:26.162575,-52.0
2023-08-09 09:36:26.170265,-40.0
2023-08-09 09:36:26.177955,-24.0
2023-08-09 09:36:26.185645,-14.0
2023-08-09 09:36:26.193335,-4.0
2023-08-09 09:36:26.201024,14.0
2023-08-09 09:36:26.208714,28.0
2023-08-09 09:36:26.216404,36.0
2023-08-09 09:36:26.224094,57.0
2023-08-09 09:36:26.231784,81.0
2023-08-09 09:36:26.239473,88.0
2023-08-09 09:36:26.247163,101.0
2023-08-09 09:36:26.254853,115.0
2023-08-09 09:36:26.262543,120.0
2023-08-09 09:36:26.270233,120.0
2023-08-09 09:36:26.277923,117.0
2023-08-09 09:36:26.285612,96.0
2023-08-09 09:36:26.293302,55.0
2023-08-09 09:36:26.300992,7.0
2023-08-09 09:36:26.308682,-40.0
2023-08-09 09:36:26.316372,-76.0
2023-08-09 09:36:26.324061,-101.0
2023-08-09 09:36:26.331751,-117.0
2023-08-09 09:36:26.339441,-134.0
2023-08-09 09:36:26.347131,-139.0
2023-08-09 09:36:26.354821,-139.0
2023-08-09 09:36:26.362510,-141.0
2023-08-09 09:36:26.370200,-137.0
2023-08-09 09:36:26.377890,-129.0
2023-08-09 09:36:26.385580,-129.0
2023-08-09 09:36:26.393270,-122.0
2023-08-09 09:36:26.400959,-110.0
2023-08-09 09:36:26.408649,-103.0
2023-08-09 09:36:26.416339,-110.0
2023-08-09 09:36:26.424029,-120.0
2023-08-09 09:36:26.431719,-115.0
2023-08-09 09:36:26.439409,-108.0
2023-08-09 09:36:26.447098,-105.0
2023-08-09 09:36:26.454788,-103.0
2023-08-09 09:36:26.462478,-103.0
2023-08-09 09:36:26.470168,-108.0
2023-08-09 09:36:26.477858,-120.0
2023-08-09 09:36:26.485547,-117.0
2023-08-09 09:36:26.493237,-105.0
2023-08-09 09:36:26.500927,-103.0
2023-08-09 09:36:26.508617,-105.0
2023-08-09 09:36:26.516307,-105.0
2023-08-09 09:36:26.523996,-105.0
2023-08-09 09:36:26.531686,-101.0
2023-08-09 09:36:26.539376,-91.0
2023-08-09 09:36:26.547066,-93.0
2023-08-09 09:36:26.554756,-98.0
2023-08-09 09:36:26.562445,-91.0
2023-08-09 09:36:26.570135,-88.0
2023-08-09 09:36:26.577825,-96.0
2023-08-09 09:36:26.585515,-96.0
2023-08-09 09:36:26.593205,-84.0
2023-08-09 09:36:26.600895,-60.0
2023-08-09 09:36:26.608584,-40.0
2023-08-09 09:36:26.616274,-40.0
2023-08-09 09:36:26.623964,-38.0
2023-08-09 09:36:26.631654,-28.0
2023-08-09 09:36:26.639344,-48.0
2023-08-09 09:36:26.647033,-81.0
2023-08-09 09:36:26.654723,-98.0
2023-08-09 09:36:26.662413,-98.0
2023-08-09 09:36:26.670103,-93.0
2023-08-09 09:36:26.677793,-98.0
2023-08-09 09:36:26.685482,-101.0
2023-08-09 09:36:26.693172,-98.0
2023-08-09 09:36:26.700862,-98.0
2023-08-09 09:36:26.708552,-103.0
2023-08-09 09:36:26.716242,-103.0
2023-08-09 09:36:26.723932,-113.0
2023-08-09 09:36:26.731621,-122.0
2023-08-09 09:36:26.739311,-36.0
2023-08-09 09:36:26.747001,274.0
2023-08-09 09:36:26.754691,750.0
2023-08-09 09:36:26.762381,1046.0
2023-08-09 09:36:26.770070,783.0
2023-08-09 09:36:26.777760,26.0
2023-08-09 09:36:26.785450,-485.0
2023-08-09 09:36:26.793140,-329.0
2023-08-09 09:36:26.800830,-105.0
2023-08-09 09:36:26.808519,-170.0
2023-08-09 09:36:26.816209,-214.0
2023-08-09 09:36:26.823899,-163.0
2023-08-09 09:36:26.831589,-165.0
2023-08-09 09:36:26.839279,-180.0
2023-08-09 09:36:26.846968,-161.0
2023-08-09 09:36:26.854658,-146.0
2023-08-09 09:36:26.862348,-141.0
2023-08-09 09:36:26.870038,-132.0
2023-08-09 09:36:26.877728,-122.0
2023-08-09 09:36:26.885418,-120.0
2023-08-09 09:36:26.893107,-110.0
2023-08-09 09:36:26.900797,-96.0
2023-08-09 09:36:26.908487,-88.0
2023-08-09 09:36:26.916177,-79.0
2023-08-09 09:36:26.923867,-69.0
2023-08-09 09:36:26.931556,-62.0
2023-08-09 09:36:26.939246,-52.0
2023-08-09 09:36:26.946936,-43.0
2023-08-09 09:36:26.954626,-28.0
2023-08-09 09:36:26.962316,-16.0
2023-08-09 09:36:26.970005,-7.0
2023-08-09 09:36:26.977695,7.0
2023-08-09 09:36:26.985385,21.0
2023-08-09 09:36:26.993075,36.0
2023-08-09 09:36:27.000765,50.0
2023-08-09 09:36:27.008454,64.0
2023-08-09 09:36:27.016144,76.0
2023-08-09 09:36:27.023834,84.0
2023-08-09 09:36:27.031524,91.0
2023-08-09 09:36:27.039214,96.0
2023-08-09 09:36:27.046904,84.0
2023-08-09 09:36:27.054593,45.0
2023-08-09 09:36:27.062283,-7.0
2023-08-09 09:36:27.069973,-55.0
2023-08-09 09:36:27.077663,-86.0
2023-08-09 09:36:27.085353,-110.0
2023-08-09 09:36:27.093042,-132.0
2023-08-09 09:36:27.100732,-144.0
2023-08-09 09:36:27.108422,-151.0
2023-08-09 09:36:27.116112,-149.0
2023-08-09 09:36:27.123802,-146.0
2023-08-09 09:36:27.131491,-144.0
2023-08-09 09:36:27.139181,-137.0
2023-08-09 09:36:27.146871,-134.0
2023-08-09 09:36:27.154561,-134.0
2023-08-09 09:36:27.162251,-129.0
2023-08-09 09:36:27.169940,-129.0
2023-08-09 09:36:27.177630,-127.0
2023-08-09 09:36:27.185320,-122.0
2023-08-09 09:36:27.193010,-122.0
2023-08-09 09:36:27.200700,-120.0
2023-08-09 09:36:27.208390,-117.0
2023-08-09 09:36:27.216079,-117.0
2023-08-09 09:36:27.223769,-115.0
2023-08-09 09:36:27.231459,-113.0
2023-08-09 09:36:27.239149,-113.0
2023-08-09 09:36:27.246839,-113.0
2023-08-09 09:36:27.254528,-113.0
2023-08-09 09:36:27.262218,-115.0
2023-08-09 09:36:27.269908,-117.0
2023-08-09 09:36:27.277598,-122.0
2023-08-09 09:36:27.285288,-120.0
2023-08-09 09:36:27.292977,-117.0
2023-08-09 09:36:27.300667,-115.0
2023-08-09 09:36:27.308357,-115.0
2023-08-09 09:36:27.316047,-113.0
2023-08-09 09:36:27.323737,-108.0
2023-08-09 09:36:27.331427,-105.0
2023-08-09 09:36:27.339116,-105.0
2023-08-09 09:36:27.346806,-105.0
2023-08-09 09:36:27.354496,-108.0
2023-08-09 09:36:27.362186,-105.0
2023-08-09 09:36:27.369876,-91.0
2023-08-09 09:36:27.377565,-64.0
2023-08-09 09:36:27.385255,-45.0
2023-08-09 09:36:27.392945,-43.0
2023-08-09 09:36:27.400635,-43.0
2023-08-09 09:36:27.408325,-48.0
2023-08-09 09:36:27.416014,-74.0
2023-08-09 09:36:27.423704,-103.0
2023-08-09 09:36:27.431394,-110.0
2023-08-09 09:36:27.439084,-110.0
2023-08-09 09:36:27.446774,-113.0
2023-08-09 09:36:27.454463,-113.0
2023-08-09 09:36:27.462153,-110.0
2023-08-09 09:36:27.469843,-110.0
2023-08-09 09:36:27.477533,-108.0
2023-08-09 09:36:27.485223,-108.0
2023-08-09 09:36:27.492913,-113.0
2023-08-09 09:36:27.500602,-127.0
2023-08-09 09:36:27.508292,-115.0
2023-08-09 09:36:27.515982,50.0
2023-08-09 09:36:27.523672,447.0
2023-08-09 09:36:27.531362,884.0
2023-08-09 09:36:27.539051,985.0
2023-08-09 09:36:27.546741,495.0
2023-08-09 09:36:27.554431,-242.0
2023-08-09 09:36:27.562121,-444.0
2023-08-09 09:36:27.569811,-163.0
2023-08-09 09:36:27.577500,-93.0
2023-08-09 09:36:27.585190,-221.0
2023-08-09 09:36:27.592880,-204.0
2023-08-09 09:36:27.600570,-163.0
2023-08-09 09:36:27.608260,-192.0
2023-08-09 09:36:27.615949,-187.0
2023-08-09 09:36:27.623639,-158.0
2023-08-09 09:36:27.631329,-156.0
2023-08-09 09:36:27.639019,-156.0
2023-08-09 09:36:27.646709,-149.0
2023-08-09 09:36:27.654399,-144.0
2023-08-09 09:36:27.662088,-137.0
2023-08-09 09:36:27.669778,-127.0
2023-08-09 09:36:27.677468,-120.0
2023-08-09 09:36:27.685158,-113.0
2023-08-09 09:36:27.692848,-110.0
2023-08-09 09:36:27.700537,-103.0
2023-08-09 09:36:27.708227,-86.0
2023-08-09 09:36:27.715917,-76.0
2023-08-09 09:36:27.723607,-69.0
2023-08-09 09:36:27.731297,-55.0
2023-08-09 09:36:27.738986,-40.0
2023-08-09 09:36:27.746676,-28.0
2023-08-09 09:36:27.754366,-16.0
2023-08-09 09:36:27.762056,-2.0
2023-08-09 09:36:27.769746,9.0
2023-08-09 09:36:27.777435,16.0
2023-08-09 09:36:27.785125,24.0
2023-08-09 09:36:27.792815,36.0
2023-08-09 09:36:27.800505,52.0
2023-08-09 09:36:27.808195,62.0
2023-08-09 09:36:27.815885,64.0
2023-08-09 09:36:27.823574,52.0
2023-08-09 09:36:27.831264,24.0
2023-08-09 09:36:27.838954,-14.0
2023-08-09 09:36:27.846644,-45.0
2023-08-09 09:36:27.854334,-76.0
2023-08-09 09:36:27.862023,-101.0
2023-08-09 09:36:27.869713,-120.0
2023-08-09 09:36:27.877403,-127.0
2023-08-09 09:36:27.885093,-127.0
2023-08-09 09:36:27.892783,-125.0
2023-08-09 09:36:27.900472,-125.0
2023-08-09 09:36:27.908162,-127.0
2023-08-09 09:36:27.915852,-127.0
2023-08-09 09:36:27.923542,-122.0
2023-08-09 09:36:27.931232,-117.0
2023-08-09 09:36:27.938922,-113.0
2023-08-09 09:36:27.946611,-113.0
2023-08-09 09:36:27.954301,-113.0
2023-08-09 09:36:27.961991,-110.0
2023-08-09 09:36:27.969681,-110.0
2023-08-09 09:36:27.977371,-105.0
2023-08-09 09:36:27.985060,-103.0
2023-08-09 09:36:27.992750,-101.0
2023-08-09 09:36:28.000440,-103.0
2023-08-09 09:36:28.008130,-101.0
2023-08-09 09:36:28.015820,-98.0
2023-08-09 09:36:28.023509,-98.0
2023-08-09 09:36:28.031199,-98.0
2023-08-09 09:36:28.038889,-93.0
2023-08-09 09:36:28.046579,-93.0
2023-08-09 09:36:28.054269,-93.0
2023-08-09 09:36:28.061958,-91.0
2023-08-09 09:36:28.069648,-86.0
2023-08-09 09:36:28.077338,-81.0
2023-08-09 09:36:28.085028,-81.0
2023-08-09 09:36:28.092718,-81.0
2023-08-09 09:36:28.100408,-79.0
2023-08-09 09:36:28.108097,-76.0
2023-08-09 09:36:28.115787,-72.0
2023-08-09 09:36:28.123477,-72.0
2023-08-09 09:36:28.131167,-76.0
2023-08-09 09:36:28.138857,-84.0
2023-08-09 09:36:28.146546,-76.0
2023-08-09 09:36:28.154236,-48.0
2023-08-09 09:36:28.161926,-33.0
2023-08-09 09:36:28.169616,-38.0
2023-08-09 09:36:28.177306,-33.0
2023-08-09 09:36:28.184995,-40.0
2023-08-09 09:36:28.192685,-72.0
2023-08-09 09:36:28.200375,-93.0
2023-08-09 09:36:28.208065,-93.0
2023-08-09 09:36:28.215755,-93.0
2023-08-09 09:36:28.223444,-98.0
2023-08-09 09:36:28.231134,-98.0
2023-08-09 09:36:28.238824,-93.0
2023-08-09 09:36:28.246514,-93.0
2023-08-09 09:36:28.254204,-91.0
2023-08-09 09:36:28.261894,-88.0
2023-08-09 09:36:28.269583,-101.0
2023-08-09 09:36:28.277273,-115.0
2023-08-09 09:36:28.284963,-101.0
2023-08-09 09:36:28.292653,55.0
2023-08-09 09:36:28.300343,425.0
2023-08-09 09:36:28.308032,815.0
2023-08-09 09:36:28.315722,863.0
2023-08-09 09:36:28.323412,370.0
2023-08-09 09:36:28.331102,-276.0
2023-08-09 09:36:28.338792,-404.0
2023-08-09 09:36:28.346481,-141.0
2023-08-09 09:36:28.354171,-93.0
2023-08-09 09:36:28.361861,-189.0
2023-08-09 09:36:28.369551,-163.0
2023-08-09 09:36:28.377241,-127.0
2023-08-09 09:36:28.384930,-158.0
2023-08-09 09:36:28.392620,-156.0
2023-08-09 09:36:28.400310,-137.0
2023-08-09 09:36:28.408000,-144.0
2023-08-09 09:36:28.415690,-137.0
2023-08-09 09:36:28.423380,-110.0
2023-08-09 09:36:28.431069,-96.0
2023-08-09 09:36:28.438759,-81.0
2023-08-09 09:36:28.446449,-76.0
2023-08-09 09:36:28.454139,-91.0
2023-08-09 09:36:28.461829,-81.0
2023-08-09 09:36:28.469518,-50.0
2023-08-09 09:36:28.477208,-36.0
2023-08-09 09:36:28.484898,-36.0
2023-08-09 09:36:28.492588,-38.0
2023-08-09 09:36:28.500278,-24.0
2023-08-09 09:36:28.507967,-4.0
2023-08-09 09:36:28.515657,0.0
2023-08-09 09:36:28.523347,4.0
2023-08-09 09:36:28.531037,24.0
2023-08-09 09:36:28.538727,40.0
2023-08-09 09:36:28.546417,52.0
2023-08-09 09:36:28.554106,57.0
2023-08-09 09:36:28.561796,60.0
2023-08-09 09:36:28.569486,72.0
2023-08-09 09:36:28.577176,91.0
2023-08-09 09:36:28.584866,108.0
2023-08-09 09:36:28.592555,113.0
2023-08-09 09:36:28.600245,86.0
2023-08-09 09:36:28.607935,36.0
2023-08-09 09:36:28.615625,-9.0
2023-08-09 09:36:28.623315,-28.0
2023-08-09 09:36:28.631004,-45.0
2023-08-09 09:36:28.638694,-79.0
2023-08-09 09:36:28.646384,-108.0
2023-08-09 09:36:28.654074,-113.0
2023-08-09 09:36:28.661764,-105.0
2023-08-09 09:36:28.669453,-103.0
2023-08-09 09:36:28.677143,-115.0
2023-08-09 09:36:28.684833,-125.0
2023-08-09 09:36:28.692523,-113.0
2023-08-09 09:36:28.700213,-96.0
2023-08-09 09:36:28.707903,-93.0
2023-08-09 09:36:28.715592,-101.0
2023-08-09 09:36:28.723282,-110.0
2023-08-09 09:36:28.730972,-113.0
2023-08-09 09:36:28.738662,-110.0
2023-08-09 09:36:28.746352,-103.0
2023-08-09 09:36:28.754041,-103.0
2023-08-09 09:36:28.761731,-110.0
2023-08-09 09:36:28.769421,-108.0
2023-08-09 09:36:28.777111,-105.0
2023-08-09 09:36:28.784801,-108.0
2023-08-09 09:36:28.792490,-103.0
2023-08-09 09:36:28.800180,-93.0
2023-08-09 09:36:28.807870,-105.0
2023-08-09 09:36:28.815560,-122.0
2023-08-09 09:36:28.823250,-108.0
2023-08-09 09:36:28.830939,-98.0
2023-08-09 09:36:28.838629,-108.0
2023-08-09 09:36:28.846319,-103.0
2023-08-09 09:36:28.854009,-93.0
2023-08-09 09:36:28.861699,-91.0
2023-08-09 09:36:28.869389,-88.0
2023-08-09 09:36:28.877078,-93.0
2023-08-09 09:36:28.884768,-105.0
2023-08-09 09:36:28.892458,-93.0
2023-08-09 09:36:28.900148,-62.0
2023-08-09 09:36:28.907838,-45.0
2023-08-09 09:36:28.915527,-33.0
2023-08-09 09:36:28.923217,-19.0
2023-08-09 09:36:28.930907,-9.0
2023-08-09 09:36:28.938597,-28.0
2023-08-09 09:36:28.946287,-72.0
2023-08-09 09:36:28.953976,-98.0
2023-08-09 09:36:28.961666,-96.0
2023-08-09 09:36:28.969356,-101.0
2023-08-09 09:36:28.977046,-113.0
2023-08-09 09:36:28.984736,-113.0
2023-08-09 09:36:28.992425,-115.0
2023-08-09 09:36:29.000115,-115.0
2023-08-09 09:36:29.007805,-105.0
2023-08-09 09:36:29.015495,-98.0
2023-08-09 09:36:29.023185,-98.0
2023-08-09 09:36:29.030875,-105.0
2023-08-09 09:36:29.038564,-120.0
2023-08-09 09:36:29.046254,-79.0
2023-08-09 09:36:29.053944,105.0
2023-08-09 09:36:29.061634,478.0
2023-08-09 09:36:29.069324,839.0
2023-08-09 09:36:29.077013,781.0
2023-08-09 09:36:29.084703,180.0
2023-08-09 09:36:29.092393,-399.0
2023-08-09 09:36:29.100083,-384.0
2023-08-09 09:36:29.107773,-141.0
2023-08-09 09:36:29.115462,-122.0
2023-08-09 09:36:29.123152,-153.0
2023-08-09 09:36:29.130842,-113.0
2023-08-09 09:36:29.138532,-115.0
2023-08-09 09:36:29.146222,-144.0
2023-08-09 09:36:29.153912,-127.0
2023-08-09 09:36:29.161601,-101.0
2023-08-09 09:36:29.169291,-101.0
2023-08-09 09:36:29.176981,-93.0
2023-08-09 09:36:29.184671,-88.0
2023-08-09 09:36:29.192361,-79.0
2023-08-09 09:36:29.200050,-50.0
2023-08-09 09:36:29.207740,-50.0
2023-08-09 09:36:29.215430,-64.0
2023-08-09 09:36:29.223120,-50.0
2023-08-09 09:36:29.230810,-43.0
2023-08-09 09:36:29.238499,-43.0
2023-08-09 09:36:29.246189,-16.0
2023-08-09 09:36:29.253879,-4.0
2023-08-09 09:36:29.261569,-9.0
2023-08-09 09:36:29.269259,2.0
2023-08-09 09:36:29.276948,9.0
2023-08-09 09:36:29.284638,14.0
2023-08-09 09:36:29.292328,36.0
2023-08-09 09:36:29.300018,50.0
2023-08-09 09:36:29.307708,43.0
2023-08-09 09:36:29.315398,55.0
2023-08-09 09:36:29.323087,91.0
2023-08-09 09:36:29.330777,91.0
2023-08-09 09:36:29.338467,79.0
2023-08-09 09:36:29.346157,93.0
2023-08-09 09:36:29.353847,86.0
2023-08-09 09:36:29.361536,38.0
2023-08-09 09:36:29.369226,-9.0
2023-08-09 09:36:29.376916,-38.0
2023-08-09 09:36:29.384606,-79.0
2023-08-09 09:36:29.392296,-127.0
2023-08-09 09:36:29.399985,-146.0
2023-08-09 09:36:29.407675,-139.0
2023-08-09 09:36:29.415365,-149.0
2023-08-09 09:36:29.423055,-151.0
2023-08-09 09:36:29.430745,-144.0
2023-08-09 09:36:29.438434,-144.0
2023-08-09 09:36:29.446124,-149.0
2023-08-09 09:36:29.453814,-146.0
2023-08-09 09:36:29.461504,-127.0
2023-08-09 09:36:29.469194,-120.0
2023-08-09 09:36:29.476884,-132.0
2023-08-09 09:36:29.484573,-132.0
2023-08-09 09:36:29.492263,-122.0
2023-08-09 09:36:29.499953,-125.0
2023-08-09 09:36:29.507643,-117.0
2023-08-09 09:36:29.515333,-105.0
2023-08-09 09:36:29.523022,-115.0
2023-08-09 09:36:29.530712,-129.0
2023-08-09 09:36:29.538402,-125.0
2023-08-09 09:36:29.546092,-117.0
2023-08-09 09:36:29.553782,-115.0
2023-08-09 09:36:29.561471,-110.0
2023-08-09 09:36:29.569161,-113.0
2023-08-09 09:36:29.576851,-117.0
2023-08-09 09:36:29.584541,-115.0
2023-08-09 09:36:29.592231,-115.0
2023-08-09 09:36:29.599920,-120.0
2023-08-09 09:36:29.607610,-113.0
2023-08-09 09:36:29.615300,-98.0
2023-08-09 09:36:29.622990,-101.0
2023-08-09 09:36:29.630680,-101.0
2023-08-09 09:36:29.638370,-69.0
2023-08-09 09:36:29.646059,-45.0
2023-08-09 09:36:29.653749,-48.0
2023-08-09 09:36:29.661439,-50.0
2023-08-09 09:36:29.669129,-43.0
2023-08-09 09:36:29.676819,-45.0
2023-08-09 09:36:29.684508,-74.0
2023-08-09 09:36:29.692198,-105.0
2023-08-09 09:36:29.699888,-98.0
2023-08-09 09:36:29.707578,-84.0
2023-08-09 09:36:29.715268,-103.0
2023-08-09 09:36:29.722957,-110.0
2023-08-09 09:36:29.730647,-91.0
2023-08-09 09:36:29.738337,-84.0
2023-08-09 09:36:29.746027,-96.0
2023-08-09 09:36:29.753717,-103.0
2023-08-09 09:36:29.761407,-101.0
2023-08-09 09:36:29.769096,-108.0
2023-08-09 09:36:29.776786,-88.0
2023-08-09 09:36:29.784476,98.0
2023-08-09 09:36:29.792166,514.0
2023-08-09 09:36:29.799856,906.0
2023-08-09 09:36:29.807545,877.0
2023-08-09 09:36:29.815235,283.0
2023-08-09 09:36:29.822925,-377.0
2023-08-09 09:36:29.830615,-440.0
2023-08-09 09:36:29.838305,-163.0
2023-08-09 09:36:29.845994,-117.0
2023-08-09 09:36:29.853684,-173.0
2023-08-09 09:36:29.861374,-134.0
2023-08-09 09:36:29.869064,-132.0
2023-08-09 09:36:29.876754,-156.0
2023-08-09 09:36:29.884443,-134.0
2023-08-09 09:36:29.892133,-132.0
2023-08-09 09:36:29.899823,-156.0
2023-08-09 09:36:29.907513,-141.0
2023-08-09 09:36:29.915203,-117.0
2023-08-09 09:36:29.922893,-115.0
2023-08-09 09:36:29.930582,-105.0
2023-08-09 09:36:29.938272,-91.0
2023-08-09 09:36:29.945962,-91.0
2023-08-09 09:36:29.953652,-91.0
2023-08-09 09:36:29.961342,-72.0
2023-08-09 09:36:29.969031,-55.0
2023-08-09 09:36:29.976721,-45.0
2023-08-09 09:36:29.984411,-40.0
2023-08-09 09:36:29.992101,-33.0
2023-08-09 09:36:29.999791,-19.0
2023-08-09 09:36:30.007480,-4.0
2023-08-09 09:36:30.015170,16.0
2023-08-09 09:36:30.022860,38.0
2023-08-09 09:36:30.030550,45.0
2023-08-09 09:36:30.038240,57.0
2023-08-09 09:36:30.045929,81.0
2023-08-09 09:36:30.053619,96.0
2023-08-09 09:36:30.061309,93.0
2023-08-09 09:36:30.068999,98.0
2023-08-09 09:36:30.076689,101.0
2023-08-09 09:36:30.084379,76.0
2023-08-09 09:36:30.092068,33.0
2023-08-09 09:36:30.099758,-7.0
2023-08-09 09:36:30.107448,-43.0
2023-08-09 09:36:30.115138,-79.0
2023-08-09 09:36:30.122828,-110.0
2023-08-09 09:36:30.130517,-139.0
2023-08-09 09:36:30.138207,-153.0
2023-08-09 09:36:30.145897,-146.0
2023-08-09 09:36:30.153587,-146.0
2023-08-09 09:36:30.161277,-156.0
2023-08-09 09:36:30.168966,-156.0
2023-08-09 09:36:30.176656,-144.0
2023-08-09 09:36:30.184346,-125.0
2023-08-09 09:36:30.192036,-127.0
2023-08-09 09:36:30.199726,-141.0
2023-08-09 09:36:30.207415,-134.0
2023-08-09 09:36:30.215105,-120.0
2023-08-09 09:36:30.222795,-120.0
2023-08-09 09:36:30.230485,-115.0
2023-08-09 09:36:30.238175,-110.0
2023-08-09 09:36:30.245865,-108.0
2023-08-09 09:36:30.253554,-105.0
2023-08-09 09:36:30.261244,-108.0
2023-08-09 09:36:30.268934,-108.0
2023-08-09 09:36:30.276624,-105.0
2023-08-09 09:36:30.284314,-103.0
2023-08-09 09:36:30.292003,-101.0
2023-08-09 09:36:30.299693,-105.0
2023-08-09 09:36:30.307383,-113.0
2023-08-09 09:36:30.315073,-115.0
2023-08-09 09:36:30.322763,-110.0
2023-08-09 09:36:30.330452,-110.0
2023-08-09 09:36:30.338142,-105.0
2023-08-09 09:36:30.345832,-103.0
2023-08-09 09:36:30.353522,-105.0
2023-08-09 09:36:30.361212,-101.0
2023-08-09 09:36:30.368901,-91.0
2023-08-09 09:36:30.376591,-79.0
2023-08-09 09:36:30.384281,-57.0
2023-08-09 09:36:30.391971,-43.0
2023-08-09 09:36:30.399661,-45.0
2023-08-09 09:36:30.407351,-45.0
2023-08-09 09:36:30.415040,-52.0
2023-08-09 09:36:30.422730,-79.0
2023-08-09 09:36:30.430420,-101.0
2023-08-09 09:36:30.438110,-108.0
2023-08-09 09:36:30.445800,-108.0
2023-08-09 09:36:30.453489,-108.0
2023-08-09 09:36:30.461179,-110.0
2023-08-09 09:36:30.468869,-110.0
2023-08-09 09:36:30.476559,-113.0
2023-08-09 09:36:30.484249,-113.0
2023-08-09 09:36:30.491938,-113.0
2023-08-09 09:36:30.499628,-115.0
2023-08-09 09:36:30.507318,-127.0
2023-08-09 09:36:30.515008,-98.0
2023-08-09 09:36:30.522698,96.0
2023-08-09 09:36:30.530388,509.0
2023-08-09 09:36:30.538077,921.0
2023-08-09 09:36:30.545767,923.0
2023-08-09 09:36:30.553457,331.0
2023-08-09 09:36:30.561147,-343.0
2023-08-09 09:36:30.568837,-413.0
2023-08-09 09:36:30.576526,-149.0
2023-08-09 09:36:30.584216,-129.0
2023-08-09 09:36:30.591906,-214.0
2023-08-09 09:36:30.599596,-187.0
2023-08-09 09:36:30.607286,-158.0
2023-08-09 09:36:30.614975,-177.0
2023-08-09 09:36:30.622665,-170.0
2023-08-09 09:36:30.630355,-151.0
2023-08-09 09:36:30.638045,-146.0
2023-08-09 09:36:30.645735,-141.0
2023-08-09 09:36:30.653424,-127.0
2023-08-09 09:36:30.661114,-120.0
2023-08-09 09:36:30.668804,-117.0
2023-08-09 09:36:30.676494,-108.0
2023-08-09 09:36:30.684184,-96.0
2023-08-09 09:36:30.691874,-88.0
2023-08-09 09:36:30.699563,-88.0
2023-08-09 09:36:30.707253,-81.0
2023-08-09 09:36:30.714943,-67.0
2023-08-09 09:36:30.722633,-60.0
2023-08-09 09:36:30.730323,-57.0
2023-08-09 09:36:30.738012,-50.0
2023-08-09 09:36:30.745702,-36.0
2023-08-09 09:36:30.753392,-16.0
2023-08-09 09:36:30.761082,-4.0
2023-08-09 09:36:30.768772,4.0
2023-08-09 09:36:30.776461,19.0
2023-08-09 09:36:30.784151,36.0
2023-08-09 09:36:30.791841,48.0
2023-08-09 09:36:30.799531,64.0
2023-08-09 09:36:30.807221,67.0
2023-08-09 09:36:30.814910,50.0
2023-08-09 09:36:30.822600,38.0
2023-08-09 09:36:30.830290,19.0
2023-08-09 09:36:30.837980,-24.0
2023-08-09 09:36:30.845670,-64.0
2023-08-09 09:36:30.853360,-96.0
2023-08-09 09:36:30.861049,-122.0
2023-08-09 09:36:30.868739,-144.0
2023-08-09 09:36:30.876429,-153.0
2023-08-09 09:36:30.884119,-158.0
2023-08-09 09:36:30.891809,-161.0
2023-08-09 09:36:30.899498,-158.0
2023-08-09 09:36:30.907188,-156.0
2023-08-09 09:36:30.914878,-146.0
2023-08-09 09:36:30.922568,-144.0
2023-08-09 09:36:30.930258,-139.0
2023-08-09 09:36:30.937947,-134.0
2023-08-09 09:36:30.945637,-132.0
2023-08-09 09:36:30.953327,-132.0
2023-08-09 09:36:30.961017,-127.0
2023-08-09 09:36:30.968707,-117.0
2023-08-09 09:36:30.976396,-125.0
2023-08-09 09:36:30.984086,-129.0
2023-08-09 09:36:30.991776,-120.0
2023-08-09 09:36:30.999466,-115.0
2023-08-09 09:36:31.007156,-115.0
2023-08-09 09:36:31.014846,-110.0
2023-08-09 09:36:31.022535,-113.0
2023-08-09 09:36:31.030225,-115.0
2023-08-09 09:36:31.037915,-113.0
2023-08-09 09:36:31.045605,-110.0
2023-08-09 09:36:31.053295,-110.0
2023-08-09 09:36:31.060984,-108.0
2023-08-09 09:36:31.068674,-108.0
2023-08-09 09:36:31.076364,-105.0
2023-08-09 09:36:31.084054,-105.0
2023-08-09 09:36:31.091744,-105.0
2023-08-09 09:36:31.099433,-105.0
2023-08-09 09:36:31.107123,-105.0
2023-08-09 09:36:31.114813,-105.0
2023-08-09 09:36:31.122503,-103.0
2023-08-09 09:36:31.130193,-96.0
2023-08-09 09:36:31.137883,-69.0
2023-08-09 09:36:31.145572,-48.0
2023-08-09 09:36:31.153262,-48.0
2023-08-09 09:36:31.160952,-50.0
2023-08-09 09:36:31.168642,-48.0
2023-08-09 09:36:31.176332,-67.0
2023-08-09 09:36:31.184021,-98.0
2023-08-09 09:36:31.191711,-115.0
2023-08-09 09:36:31.199401,-113.0
2023-08-09 09:36:31.207091,-113.0
2023-08-09 09:36:31.214781,-115.0
2023-08-09 09:36:31.222470,-115.0
2023-08-09 09:36:31.230160,-117.0
2023-08-09 09:36:31.237850,-115.0
2023-08-09 09:36:31.245540,-113.0
2023-08-09 09:36:31.253230,-113.0
2023-08-09 09:36:31.260919,-120.0
2023-08-09 09:36:31.268609,-134.0
2023-08-09 09:36:31.276299,-86.0
2023-08-09 09:36:31.283989,146.0
2023-08-09 09:36:31.291679,569.0
2023-08-09 09:36:31.299369,906.0
2023-08-09 09:36:31.307058,788.0
2023-08-09 09:36:31.314748,149.0
2023-08-09 09:36:31.322438,-418.0
2023-08-09 09:36:31.330128,-360.0
2023-08-09 09:36:31.337818,-115.0
2023-08-09 09:36:31.345507,-153.0
2023-08-09 09:36:31.353197,-223.0
2023-08-09 09:36:31.360887,-180.0
2023-08-09 09:36:31.368577,-170.0
2023-08-09 09:36:31.376267,-189.0
2023-08-09 09:36:31.383956,-170.0
2023-08-09 09:36:31.391646,-153.0
2023-08-09 09:36:31.399336,-151.0
2023-08-09 09:36:31.407026,-141.0
2023-08-09 09:36:31.414716,-129.0
2023-08-09 09:36:31.422405,-125.0
2023-08-09 09:36:31.430095,-115.0
2023-08-09 09:36:31.437785,-103.0
2023-08-09 09:36:31.445475,-93.0
2023-08-09 09:36:31.453165,-86.0
2023-08-09 09:36:31.460855,-81.0
2023-08-09 09:36:31.468544,-74.0
2023-08-09 09:36:31.476234,-64.0
2023-08-09 09:36:31.483924,-57.0
2023-08-09 09:36:31.491614,-50.0
2023-08-09 09:36:31.499304,-38.0
2023-08-09 09:36:31.506993,-31.0
2023-08-09 09:36:31.514683,-26.0
2023-08-09 09:36:31.522373,-19.0
2023-08-09 09:36:31.530063,-4.0
2023-08-09 09:36:31.537753,9.0
2023-08-09 09:36:31.545442,24.0
2023-08-09 09:36:31.553132,38.0
2023-08-09 09:36:31.560822,48.0
2023-08-09 09:36:31.568512,55.0
2023-08-09 09:36:31.576202,60.0
2023-08-09 09:36:31.583891,43.0
2023-08-09 09:36:31.591581,7.0
2023-08-09 09:36:31.599271,-31.0
2023-08-09 09:36:31.606961,-72.0
2023-08-09 09:36:31.614651,-105.0
2023-08-09 09:36:31.622341,-125.0
2023-08-09 09:36:31.630030,-137.0
2023-08-09 09:36:31.637720,-153.0
2023-08-09 09:36:31.645410,-161.0
2023-08-09 09:36:31.653100,-158.0
2023-08-09 09:36:31.660790,-156.0
2023-08-09 09:36:31.668479,-153.0
2023-08-09 09:36:31.676169,-149.0
2023-08-09 09:36:31.683859,-149.0
2023-08-09 09:36:31.691549,-149.0
2023-08-09 09:36:31.699239,-146.0
2023-08-09 09:36:31.706928,-144.0
2023-08-09 09:36:31.714618,-139.0
2023-08-09 09:36:31.722308,-132.0
2023-08-09 09:36:31.729998,-132.0
2023-08-09 09:36:31.737688,-129.0
2023-08-09 09:36:31.745378,-125.0
2023-08-09 09:36:31.753067,-125.0
2023-08-09 09:36:31.760757,-125.0
2023-08-09 09:36:31.768447,-120.0
2023-08-09 09:36:31.776137,-117.0
2023-08-09 09:36:31.783827,-122.0
2023-08-09 09:36:31.791516,-129.0
2023-08-09 09:36:31.799206,-117.0
2023-08-09 09:36:31.806896,-108.0
2023-08-09 09:36:31.814586,-113.0
2023-08-09 09:36:31.822276,-122.0
2023-08-09 09:36:31.829965,-120.0
2023-08-09 09:36:31.837655,-110.0
2023-08-09 09:36:31.845345,-108.0
2023-08-09 09:36:31.853035,-117.0
2023-08-09 09:36:31.860725,-120.0
2023-08-09 09:36:31.868414,-115.0
2023-08-09 09:36:31.876104,-115.0
2023-08-09 09:36:31.883794,-108.0
2023-08-09 09:36:31.891484,-103.0
2023-08-09 09:36:31.899174,-101.0
2023-08-09 09:36:31.906864,-74.0
2023-08-09 09:36:31.914553,-40.0
2023-08-09 09:36:31.922243,-38.0
2023-08-09 09:36:31.929933,-50.0
2023-08-09 09:36:31.937623,-48.0
2023-08-09 09:36:31.945313,-60.0
2023-08-09 09:36:31.953002,-88.0
2023-08-09 09:36:31.960692,-110.0
2023-08-09 09:36:31.968382,-113.0
2023-08-09 09:36:31.976072,-113.0
2023-08-09 09:36:31.983762,-117.0
2023-08-09 09:36:31.991451,-117.0
2023-08-09 09:36:31.999141,-113.0
2023-08-09 09:36:32.006831,-108.0
2023-08-09 09:36:32.014521,-103.0
2023-08-09 09:36:32.022211,-105.0
2023-08-09 09:36:32.029900,-113.0
2023-08-09 09:36:32.037590,-117.0
2023-08-09 09:36:32.045280,-115.0
2023-08-09 09:36:32.052970,-33.0
2023-08-09 09:36:32.060660,238.0
2023-08-09 09:36:32.068350,644.0
2023-08-09 09:36:32.076039,846.0
2023-08-09 09:36:32.083729,533.0
2023-08-09 09:36:32.091419,-120.0
2023-08-09 09:36:32.099109,-444.0
2023-08-09 09:36:32.106799,-252.0
2023-08-09 09:36:32.114488,-98.0
2023-08-09 09:36:32.122178,-163.0
2023-08-09 09:36:32.129868,-182.0
2023-08-09 09:36:32.137558,-146.0
2023-08-09 09:36:32.145248,-158.0
2023-08-09 09:36:32.152937,-170.0
2023-08-09 09:36:32.160627,-146.0
2023-08-09 09:36:32.168317,-134.0
2023-08-09 09:36:32.176007,-141.0
2023-08-09 09:36:32.183697,-134.0
2023-08-09 09:36:32.191386,-117.0
2023-08-09 09:36:32.199076,-105.0
2023-08-09 09:36:32.206766,-101.0
2023-08-09 09:36:32.214456,-93.0
2023-08-09 09:36:32.222146,-84.0
2023-08-09 09:36:32.229836,-86.0
2023-08-09 09:36:32.237525,-81.0
2023-08-09 09:36:32.245215,-67.0
2023-08-09 09:36:32.252905,-60.0
2023-08-09 09:36:32.260595,-57.0
2023-08-09 09:36:32.268285,-48.0
2023-08-09 09:36:32.275974,-31.0
2023-08-09 09:36:32.283664,-16.0
2023-08-09 09:36:32.291354,-14.0
2023-08-09 09:36:32.299044,-4.0
2023-08-09 09:36:32.306734,26.0
2023-08-09 09:36:32.314423,48.0
2023-08-09 09:36:32.322113,40.0
2023-08-09 09:36:32.329803,38.0
2023-08-09 09:36:32.337493,55.0
2023-08-09 09:36:32.345183,64.0
2023-08-09 09:36:32.352873,50.0
2023-08-09 09:36:32.360562,31.0
2023-08-09 09:36:32.368252,4.0
2023-08-09 09:36:32.375942,-48.0
2023-08-09 09:36:32.383632,-88.0
2023-08-09 09:36:32.391322,-110.0
2023-08-09 09:36:32.399011,-139.0
2023-08-09 09:36:32.406701,-161.0
2023-08-09 09:36:32.414391,-168.0
2023-08-09 09:36:32.422081,-170.0
2023-08-09 09:36:32.429771,-163.0
2023-08-09 09:36:32.437460,-156.0
2023-08-09 09:36:32.445150,-156.0
2023-08-09 09:36:32.452840,-153.0
2023-08-09 09:36:32.460530,-151.0
2023-08-09 09:36:32.468220,-149.0
2023-08-09 09:36:32.475909,-149.0
2023-08-09 09:36:32.483599,-144.0
2023-08-09 09:36:32.491289,-139.0
2023-08-09 09:36:32.498979,-139.0
2023-08-09 09:36:32.506669,-139.0
2023-08-09 09:36:32.514359,-129.0
2023-08-09 09:36:32.522048,-134.0
2023-08-09 09:36:32.529738,-144.0
2023-08-09 09:36:32.537428,-125.0
2023-08-09 09:36:32.545118,-117.0
2023-08-09 09:36:32.552808,-127.0
2023-08-09 09:36:32.560497,-125.0
2023-08-09 09:36:32.568187,-122.0
2023-08-09 09:36:32.575877,-122.0
2023-08-09 09:36:32.583567,-125.0
2023-08-09 09:36:32.591257,-132.0
2023-08-09 09:36:32.598946,-127.0
2023-08-09 09:36:32.606636,-122.0
2023-08-09 09:36:32.614326,-125.0
2023-08-09 09:36:32.622016,-117.0
2023-08-09 09:36:32.629706,-113.0
2023-08-09 09:36:32.637395,-129.0
2023-08-09 09:36:32.645085,-141.0
2023-08-09 09:36:32.652775,-125.0
2023-08-09 09:36:32.660465,-110.0
2023-08-09 09:36:32.668155,-103.0
2023-08-09 09:36:32.675845,-72.0
2023-08-09 09:36:32.683534,-52.0
2023-08-09 09:36:32.691224,-64.0
2023-08-09 09:36:32.698914,-74.0
2023-08-09 09:36:32.706604,-72.0
2023-08-09 09:36:32.714294,-91.0
2023-08-09 09:36:32.721983,-125.0
2023-08-09 09:36:32.729673,-127.0
2023-08-09 09:36:32.737363,-113.0
2023-08-09 09:36:32.745053,-115.0
2023-08-09 09:36:32.752743,-125.0
2023-08-09 09:36:32.760432,-122.0
2023-08-09 09:36:32.768122,-125.0
2023-08-09 09:36:32.775812,-120.0
2023-08-09 09:36:32.783502,-105.0
2023-08-09 09:36:32.791192,-105.0
2023-08-09 09:36:32.798881,-120.0
2023-08-09 09:36:32.806571,-125.0
2023-08-09 09:36:32.814261,-79.0
2023-08-09 09:36:32.821951,144.0
2023-08-09 09:36:32.829641,572.0
2023-08-09 09:36:32.837331,909.0
2023-08-09 09:36:32.845020,757.0
2023-08-09 09:36:32.852710,101.0
2023-08-09 09:36:32.860400,-452.0
2023-08-09 09:36:32.868090,-391.0
2023-08-09 09:36:32.875780,-139.0
2023-08-09 09:36:32.883469,-139.0
2023-08-09 09:36:32.891159,-187.0
2023-08-09 09:36:32.898849,-149.0
2023-08-09 09:36:32.906539,-139.0
2023-08-09 09:36:32.914229,-163.0
2023-08-09 09:36:32.921918,-141.0
2023-08-09 09:36:32.929608,-120.0
2023-08-09 09:36:32.937298,-137.0
2023-08-09 09:36:32.944988,-125.0
2023-08-09 09:36:32.952678,-96.0
2023-08-09 09:36:32.960368,-98.0
2023-08-09 09:36:32.968057,-103.0
2023-08-09 09:36:32.975747,-86.0
2023-08-09 09:36:32.983437,-74.0
2023-08-09 09:36:32.991127,-64.0
2023-08-09 09:36:32.998817,-57.0
2023-08-09 09:36:33.006506,-57.0
2023-08-09 09:36:33.014196,-48.0
2023-08-09 09:36:33.021886,-31.0
2023-08-09 09:36:33.029576,-26.0
2023-08-09 09:36:33.037266,-24.0
2023-08-09 09:36:33.044955,-4.0
2023-08-09 09:36:33.052645,21.0
2023-08-09 09:36:33.060335,28.0
2023-08-09 09:36:33.068025,40.0
2023-08-09 09:36:33.075715,69.0
2023-08-09 09:36:33.083404,79.0
2023-08-09 09:36:33.091094,84.0
2023-08-09 09:36:33.098784,101.0
2023-08-09 09:36:33.106474,103.0
2023-08-09 09:36:33.114164,86.0
2023-08-09 09:36:33.121854,67.0
2023-08-09 09:36:33.129543,38.0
2023-08-09 09:36:33.137233,-19.0
2023-08-09 09:36:33.144923,-79.0
2023-08-09 09:36:33.152613,-101.0
2023-08-09 09:36:33.160303,-115.0
2023-08-09 09:36:33.167992,-149.0
2023-08-09 09:36:33.175682,-168.0
2023-08-09 09:36:33.183372,-168.0
2023-08-09 09:36:33.191062,-163.0
2023-08-09 09:36:33.198752,-158.0
2023-08-09 09:36:33.206441,-158.0
2023-08-09 09:36:33.214131,-168.0
2023-08-09 09:36:33.221821,-165.0
2023-08-09 09:36:33.229511,-158.0
2023-08-09 09:36:33.237201,-146.0
2023-08-09 09:36:33.244890,-132.0
2023-08-09 09:36:33.252580,-132.0
2023-08-09 09:36:33.260270,-146.0
2023-08-09 09:36:33.267960,-146.0
2023-08-09 09:36:33.275650,-137.0
2023-08-09 09:36:33.283340,-137.0
2023-08-09 09:36:33.291029,-139.0
2023-08-09 09:36:33.298719,-137.0
2023-08-09 09:36:33.306409,-134.0
2023-08-09 09:36:33.314099,-129.0
2023-08-09 09:36:33.321789,-139.0
2023-08-09 09:36:33.329478,-151.0
2023-08-09 09:36:33.337168,-149.0
2023-08-09 09:36:33.344858,-144.0
2023-08-09 09:36:33.352548,-149.0
2023-08-09 09:36:33.360238,-146.0
2023-08-09 09:36:33.367927,-137.0
2023-08-09 09:36:33.375617,-134.0
2023-08-09 09:36:33.383307,-134.0
2023-08-09 09:36:33.390997,-127.0
2023-08-09 09:36:33.398687,-125.0
2023-08-09 09:36:33.406376,-129.0
2023-08-09 09:36:33.414066,-139.0
2023-08-09 09:36:33.421756,-127.0
2023-08-09 09:36:33.429446,-88.0
2023-08-09 09:36:33.437136,-62.0
2023-08-09 09:36:33.444826,-67.0
2023-08-09 09:36:33.452515,-72.0
2023-08-09 09:36:33.460205,-60.0
2023-08-09 09:36:33.467895,-67.0
2023-08-09 09:36:33.475585,-88.0
2023-08-09 09:36:33.483275,-110.0
2023-08-09 09:36:33.490964,-120.0
2023-08-09 09:36:33.498654,-110.0
2023-08-09 09:36:33.506344,-105.0
2023-08-09 09:36:33.514034,-115.0
2023-08-09 09:36:33.521724,-125.0
2023-08-09 09:36:33.529413,-113.0
2023-08-09 09:36:33.537103,-101.0
2023-08-09 09:36:33.544793,-108.0
2023-08-09 09:36:33.552483,-110.0
2023-08-09 09:36:33.560173,-117.0
2023-08-09 09:36:33.567863,-117.0
2023-08-09 09:36:33.575552,24.0
2023-08-09 09:36:33.583242,416.0
2023-08-09 09:36:33.590932,887.0
2023-08-09 09:36:33.598622,1043.0
2023-08-09 09:36:33.606312,586.0
2023-08-09 09:36:33.614001,-197.0
2023-08-09 09:36:33.621691,-507.0
2023-08-09 09:36:33.629381,-238.0
2023-08-09 09:36:33.637071,-91.0
2023-08-09 09:36:33.644761,-175.0
2023-08-09 09:36:33.652450,-173.0
2023-08-09 09:36:33.660140,-132.0
2023-08-09 09:36:33.667830,-153.0
2023-08-09 09:36:33.675520,-151.0
2023-08-09 09:36:33.683210,-127.0
2023-08-09 09:36:33.690899,-120.0
2023-08-09 09:36:33.698589,-115.0
2023-08-09 09:36:33.706279,-103.0
2023-08-09 09:36:33.713969,-91.0
2023-08-09 09:36:33.721659,-86.0
2023-08-09 09:36:33.729349,-79.0
2023-08-09 09:36:33.737038,-76.0
2023-08-09 09:36:33.744728,-67.0
2023-08-09 09:36:33.752418,-48.0
2023-08-09 09:36:33.760108,-43.0
2023-08-09 09:36:33.767798,-55.0
2023-08-09 09:36:33.775487,-48.0
2023-08-09 09:36:33.783177,-31.0
2023-08-09 09:36:33.790867,-26.0
2023-08-09 09:36:33.798557,-9.0
2023-08-09 09:36:33.806247,14.0
2023-08-09 09:36:33.813936,24.0
2023-08-09 09:36:33.821626,26.0
2023-08-09 09:36:33.829316,43.0
2023-08-09 09:36:33.837006,69.0
2023-08-09 09:36:33.844696,79.0
2023-08-09 09:36:33.852385,74.0
2023-08-09 09:36:33.860075,88.0
2023-08-09 09:36:33.867765,101.0
2023-08-09 09:36:33.875455,81.0
2023-08-09 09:36:33.883145,45.0
2023-08-09 09:36:33.890835,4.0
2023-08-09 09:36:33.898524,-40.0
2023-08-09 09:36:33.906214,-86.0
2023-08-09 09:36:33.913904,-115.0
2023-08-09 09:36:33.921594,-137.0
2023-08-09 09:36:33.929284,-161.0
2023-08-09 09:36:33.936973,-168.0
2023-08-09 09:36:33.944663,-165.0
2023-08-09 09:36:33.952353,-168.0
2023-08-09 09:36:33.960043,-168.0
2023-08-09 09:36:33.967733,-165.0
2023-08-09 09:36:33.975422,-158.0
2023-08-09 09:36:33.983112,-151.0
2023-08-09 09:36:33.990802,-144.0
2023-08-09 09:36:33.998492,-144.0
2023-08-09 09:36:34.006182,-144.0
2023-08-09 09:36:34.013871,-137.0
2023-08-09 09:36:34.021561,-129.0
2023-08-09 09:36:34.029251,-125.0
2023-08-09 09:36:34.036941,-117.0
2023-08-09 09:36:34.044631,-122.0
2023-08-09 09:36:34.052321,-122.0
2023-08-09 09:36:34.060010,-115.0
2023-08-09 09:36:34.067700,-113.0
2023-08-09 09:36:34.075390,-117.0
2023-08-09 09:36:34.083080,-120.0
2023-08-09 09:36:34.090770,-127.0
2023-08-09 09:36:34.098459,-125.0
2023-08-09 09:36:34.106149,-110.0
2023-08-09 09:36:34.113839,-103.0
2023-08-09 09:36:34.121529,-113.0
2023-08-09 09:36:34.129219,-113.0
2023-08-09 09:36:34.136908,-110.0
2023-08-09 09:36:34.144598,-113.0
2023-08-09 09:36:34.152288,-110.0
2023-08-09 09:36:34.159978,-101.0
2023-08-09 09:36:34.167668,-98.0
2023-08-09 09:36:34.175358,-105.0
2023-08-09 09:36:34.183047,-105.0
2023-08-09 09:36:34.190737,-103.0
2023-08-09 09:36:34.198427,-96.0
2023-08-09 09:36:34.206117,-86.0
2023-08-09 09:36:34.213807,-64.0
2023-08-09 09:36:34.221496,-36.0
2023-08-09 09:36:34.229186,-28.0
2023-08-09 09:36:34.236876,-38.0
2023-08-09 09:36:34.244566,-38.0
2023-08-09 09:36:34.252256,-45.0
2023-08-09 09:36:34.259945,-72.0
2023-08-09 09:36:34.267635,-96.0
2023-08-09 09:36:34.275325,-98.0
2023-08-09 09:36:34.283015,-84.0
2023-08-09 09:36:34.290705,-79.0
2023-08-09 09:36:34.298394,-91.0
2023-08-09 09:36:34.306084,-101.0
2023-08-09 09:36:34.313774,-88.0
2023-08-09 09:36:34.321464,-86.0
2023-08-09 09:36:34.329154,-103.0
2023-08-09 09:36:34.336844,-98.0
2023-08-09 09:36:34.344533,-103.0
2023-08-09 09:36:34.352223,-117.0
2023-08-09 09:36:34.359913,14.0
2023-08-09 09:36:34.367603,401.0
2023-08-09 09:36:34.375293,868.0
2023-08-09 09:36:34.382982,1048.0
2023-08-09 09:36:34.390672,637.0
2023-08-09 09:36:34.398362,-156.0
2023-08-09 09:36:34.406052,-509.0
2023-08-09 09:36:34.413742,-245.0
2023-08-09 09:36:34.421431,-86.0
2023-08-09 09:36:34.429121,-185.0
2023-08-09 09:36:34.436811,-189.0
2023-08-09 09:36:34.444501,-137.0
2023-08-09 09:36:34.452191,-153.0
2023-08-09 09:36:34.459880,-158.0
2023-08-09 09:36:34.467570,-132.0
2023-08-09 09:36:34.475260,-125.0
2023-08-09 09:36:34.482950,-122.0
2023-08-09 09:36:34.490640,-110.0
2023-08-09 09:36:34.498330,-105.0
2023-08-09 09:36:34.506019,-98.0
2023-08-09 09:36:34.513709,-84.0
2023-08-09 09:36:34.521399,-79.0
2023-08-09 09:36:34.529089,-74.0
2023-08-09 09:36:34.536779,-64.0
2023-08-09 09:36:34.544468,-57.0
2023-08-09 09:36:34.552158,-50.0
2023-08-09 09:36:34.559848,-45.0
2023-08-09 09:36:34.567538,-40.0
2023-08-09 09:36:34.575228,-28.0
2023-08-09 09:36:34.582917,-12.0
2023-08-09 09:36:34.590607,0.0
2023-08-09 09:36:34.598297,16.0
2023-08-09 09:36:34.605987,36.0
2023-08-09 09:36:34.613677,50.0
2023-08-09 09:36:34.621366,62.0
2023-08-09 09:36:34.629056,79.0
2023-08-09 09:36:34.636746,93.0
2023-08-09 09:36:34.644436,101.0
2023-08-09 09:36:34.652126,103.0
2023-08-09 09:36:34.659816,103.0
2023-08-09 09:36:34.667505,79.0
2023-08-09 09:36:34.675195,33.0
2023-08-09 09:36:34.682885,-12.0
2023-08-09 09:36:34.690575,-50.0
2023-08-09 09:36:34.698265,-84.0
2023-08-09 09:36:34.705954,-113.0
2023-08-09 09:36:34.713644,-129.0
2023-08-09 09:36:34.721334,-141.0
2023-08-09 09:36:34.729024,-141.0
2023-08-09 09:36:34.736714,-137.0
2023-08-09 09:36:34.744403,-134.0
2023-08-09 09:36:34.752093,-137.0
2023-08-09 09:36:34.759783,-137.0
2023-08-09 09:36:34.767473,-132.0
2023-08-09 09:36:34.775163,-125.0
2023-08-09 09:36:34.782853,-122.0
2023-08-09 09:36:34.790542,-120.0
2023-08-09 09:36:34.798232,-117.0
2023-08-09 09:36:34.805922,-117.0
2023-08-09 09:36:34.813612,-117.0
2023-08-09 09:36:34.821302,-113.0
2023-08-09 09:36:34.828991,-108.0
2023-08-09 09:36:34.836681,-105.0
2023-08-09 09:36:34.844371,-105.0
2023-08-09 09:36:34.852061,-110.0
2023-08-09 09:36:34.859751,-113.0
2023-08-09 09:36:34.867440,-108.0
2023-08-09 09:36:34.875130,-105.0
2023-08-09 09:36:34.882820,-105.0
2023-08-09 09:36:34.890510,-103.0
2023-08-09 09:36:34.898200,-101.0
2023-08-09 09:36:34.905889,-105.0
2023-08-09 09:36:34.913579,-108.0
2023-08-09 09:36:34.921269,-98.0
2023-08-09 09:36:34.928959,-101.0
2023-08-09 09:36:34.936649,-110.0
2023-08-09 09:36:34.944339,-108.0
2023-08-09 09:36:34.952028,-101.0
2023-08-09 09:36:34.959718,-101.0
2023-08-09 09:36:34.967408,-101.0
2023-08-09 09:36:34.975098,-101.0
2023-08-09 09:36:34.982788,-108.0
2023-08-09 09:36:34.990477,-110.0
2023-08-09 09:36:34.998167,-110.0
2023-08-09 09:36:35.005857,-108.0
2023-08-09 09:36:35.013547,-86.0
2023-08-09 09:36:35.021237,-60.0
2023-08-09 09:36:35.028926,-55.0
2023-08-09 09:36:35.036616,-60.0
2023-08-09 09:36:35.044306,-52.0
2023-08-09 09:36:35.051996,-64.0
2023-08-09 09:36:35.059686,-98.0
2023-08-09 09:36:35.067375,-115.0
2023-08-09 09:36:35.075065,-115.0
2023-08-09 09:36:35.082755,-115.0
2023-08-09 09:36:35.090445,-115.0
2023-08-09 09:36:35.098135,-115.0
2023-08-09 09:36:35.105825,-113.0
2023-08-09 09:36:35.113514,-117.0
2023-08-09 09:36:35.121204,-117.0
2023-08-09 09:36:35.128894,-110.0
2023-08-09 09:36:35.136584,-108.0
2023-08-09 09:36:35.144274,-120.0
2023-08-09 09:36:35.151963,-137.0
2023-08-09 09:36:35.159653,-72.0
2023-08-09 09:36:35.167343,211.0
2023-08-09 09:36:35.175033,702.0
2023-08-09 09:36:35.182723,1096.0
2023-08-09 09:36:35.190412,971.0
2023-08-09 09:36:35.198102,233.0
2023-08-09 09:36:35.205792,-428.0
2023-08-09 09:36:35.213482,-370.0
2023-08-09 09:36:35.221172,-91.0
2023-08-09 09:36:35.228861,-144.0
2023-08-09 09:36:35.236551,-235.0
2023-08-09 09:36:35.244241,-175.0
2023-08-09 09:36:35.251931,-156.0
2023-08-09 09:36:35.259621,-182.0
2023-08-09 09:36:35.267311,-163.0
2023-08-09 09:36:35.275000,-146.0
2023-08-09 09:36:35.282690,-149.0
2023-08-09 09:36:35.290380,-141.0
2023-08-09 09:36:35.298070,-132.0
2023-08-09 09:36:35.305760,-125.0
2023-08-09 09:36:35.313449,-117.0
2023-08-09 09:36:35.321139,-105.0
2023-08-09 09:36:35.328829,-98.0
2023-08-09 09:36:35.336519,-91.0
2023-08-09 09:36:35.344209,-84.0
2023-08-09 09:36:35.351898,-79.0
2023-08-09 09:36:35.359588,-76.0
2023-08-09 09:36:35.367278,-67.0
2023-08-09 09:36:35.374968,-52.0
2023-08-09 09:36:35.382658,-43.0
2023-08-09 09:36:35.390348,-36.0
2023-08-09 09:36:35.398037,-21.0
2023-08-09 09:36:35.405727,-7.0
2023-08-09 09:36:35.413417,4.0
2023-08-09 09:36:35.421107,16.0
2023-08-09 09:36:35.428797,21.0
2023-08-09 09:36:35.436486,28.0
2023-08-09 09:36:35.444176,45.0
2023-08-09 09:36:35.451866,62.0
2023-08-09 09:36:35.459556,72.0
2023-08-09 09:36:35.467246,69.0
2023-08-09 09:36:35.474935,48.0
2023-08-09 09:36:35.482625,7.0
2023-08-09 09:36:35.490315,-31.0
2023-08-09 09:36:35.498005,-67.0
2023-08-09 09:36:35.505695,-98.0
2023-08-09 09:36:35.513384,-120.0
2023-08-09 09:36:35.521074,-134.0
2023-08-09 09:36:35.528764,-141.0
2023-08-09 09:36:35.536454,-144.0
2023-08-09 09:36:35.544144,-144.0
2023-08-09 09:36:35.551834,-144.0
2023-08-09 09:36:35.559523,-141.0
2023-08-09 09:36:35.567213,-141.0
2023-08-09 09:36:35.574903,-137.0
2023-08-09 09:36:35.582593,-132.0
2023-08-09 09:36:35.590283,-127.0
2023-08-09 09:36:35.597972,-122.0
2023-08-09 09:36:35.605662,-122.0
2023-08-09 09:36:35.613352,-122.0
2023-08-09 09:36:35.621042,-120.0
2023-08-09 09:36:35.628732,-115.0
2023-08-09 09:36:35.636421,-113.0
2023-08-09 09:36:35.644111,-110.0
2023-08-09 09:36:35.651801,-108.0
2023-08-09 09:36:35.659491,-108.0
2023-08-09 09:36:35.667181,-105.0
2023-08-09 09:36:35.674870,-103.0
2023-08-09 09:36:35.682560,-103.0
2023-08-09 09:36:35.690250,-101.0
2023-08-09 09:36:35.697940,-101.0
2023-08-09 09:36:35.705630,-101.0
2023-08-09 09:36:35.713320,-98.0
2023-08-09 09:36:35.721009,-96.0
2023-08-09 09:36:35.728699,-93.0
2023-08-09 09:36:35.736389,-91.0
2023-08-09 09:36:35.744079,-91.0
2023-08-09 09:36:35.751769,-93.0
2023-08-09 09:36:35.759458,-91.0
2023-08-09 09:36:35.767148,-86.0
2023-08-09 09:36:35.774838,-86.0
2023-08-09 09:36:35.782528,-84.0
2023-08-09 09:36:35.790218,-88.0
2023-08-09 09:36:35.797907,-93.0
2023-08-09 09:36:35.805597,-93.0
2023-08-09 09:36:35.813287,-79.0
2023-08-09 09:36:35.820977,-50.0
2023-08-09 09:36:35.828667,-28.0
2023-08-09 09:36:35.836356,-28.0
2023-08-09 09:36:35.844046,-31.0
2023-08-09 09:36:35.851736,-33.0
2023-08-09 09:36:35.859426,-60.0
2023-08-09 09:36:35.867116,-91.0
2023-08-09 09:36:35.874806,-103.0
2023-08-09 09:36:35.882495,-105.0
2023-08-09 09:36:35.890185,-108.0
2023-08-09 09:36:35.897875,-105.0
2023-08-09 09:36:35.905565,-105.0
2023-08-09 09:36:35.913255,-105.0
2023-08-09 09:36:35.920944,-103.0
2023-08-09 09:36:35.928634,-103.0
2023-08-09 09:36:35.936324,-101.0
2023-08-09 09:36:35.944014,-108.0
2023-08-09 09:36:35.951704,-122.0
2023-08-09 09:36:35.959393,-67.0
2023-08-09 09:36:35.967083,199.0
2023-08-09 09:36:35.974773,685.0
2023-08-09 09:36:35.982463,1106.0
2023-08-09 09:36:35.990153,1041.0
2023-08-09 09:36:35.997843,351.0
2023-08-09 09:36:36.005532,-360.0
2023-08-09 09:36:36.013222,-370.0
2023-08-09 09:36:36.020912,-84.0
2023-08-09 09:36:36.028602,-139.0
2023-08-09 09:36:36.036292,-257.0
2023-08-09 09:36:36.043981,-189.0
2023-08-09 09:36:36.051671,-168.0
2023-08-09 09:36:36.059361,-209.0
2023-08-09 09:36:36.067051,-197.0
2023-08-09 09:36:36.074741,-170.0
2023-08-09 09:36:36.082430,-170.0
2023-08-09 09:36:36.090120,-163.0
2023-08-09 09:36:36.097810,-144.0
2023-08-09 09:36:36.105500,-139.0
2023-08-09 09:36:36.113190,-134.0
2023-08-09 09:36:36.120879,-120.0
2023-08-09 09:36:36.128569,-110.0
2023-08-09 09:36:36.136259,-103.0
2023-08-09 09:36:36.143949,-93.0
2023-08-09 09:36:36.151639,-84.0
2023-08-09 09:36:36.159329,-76.0
2023-08-09 09:36:36.167018,-67.0
2023-08-09 09:36:36.174708,-57.0
2023-08-09 09:36:36.182398,-45.0
2023-08-09 09:36:36.190088,-38.0
2023-08-09 09:36:36.197778,-26.0
2023-08-09 09:36:36.205467,-14.0
2023-08-09 09:36:36.213157,-4.0
2023-08-09 09:36:36.220847,7.0
2023-08-09 09:36:36.228537,19.0
2023-08-09 09:36:36.236227,28.0
2023-08-09 09:36:36.243916,40.0
2023-08-09 09:36:36.251606,55.0
2023-08-09 09:36:36.259296,69.0
2023-08-09 09:36:36.266986,72.0
2023-08-09 09:36:36.274676,57.0
2023-08-09 09:36:36.282365,24.0
2023-08-09 09:36:36.290055,-16.0
2023-08-09 09:36:36.297745,-52.0
2023-08-09 09:36:36.305435,-81.0
2023-08-09 09:36:36.313125,-101.0
2023-08-09 09:36:36.320815,-115.0
2023-08-09 09:36:36.328504,-122.0
2023-08-09 09:36:36.336194,-127.0
2023-08-09 09:36:36.343884,-127.0
2023-08-09 09:36:36.351574,-125.0
2023-08-09 09:36:36.359264,-129.0
2023-08-09 09:36:36.366953,-129.0
2023-08-09 09:36:36.374643,-122.0
2023-08-09 09:36:36.382333,-122.0
2023-08-09 09:36:36.390023,-120.0
2023-08-09 09:36:36.397713,-117.0
2023-08-09 09:36:36.405402,-113.0
2023-08-09 09:36:36.413092,-113.0
2023-08-09 09:36:36.420782,-110.0
2023-08-09 09:36:36.428472,-108.0
2023-08-09 09:36:36.436162,-105.0
2023-08-09 09:36:36.443851,-103.0
2023-08-09 09:36:36.451541,-101.0
2023-08-09 09:36:36.459231,-98.0
2023-08-09 09:36:36.466921,-98.0
2023-08-09 09:36:36.474611,-93.0
2023-08-09 09:36:36.482301,-93.0
2023-08-09 09:36:36.489990,-93.0
2023-08-09 09:36:36.497680,-88.0
2023-08-09 09:36:36.505370,-86.0
2023-08-09 09:36:36.513060,-86.0
2023-08-09 09:36:36.520750,-84.0
2023-08-09 09:36:36.528439,-84.0
2023-08-09 09:36:36.536129,-84.0
2023-08-09 09:36:36.543819,-84.0
2023-08-09 09:36:36.551509,-86.0
2023-08-09 09:36:36.559199,-91.0
2023-08-09 09:36:36.566888,-91.0
2023-08-09 09:36:36.574578,-86.0
2023-08-09 09:36:36.582268,-86.0
2023-08-09 09:36:36.589958,-84.0
2023-08-09 09:36:36.597648,-81.0
2023-08-09 09:36:36.605338,-84.0
2023-08-09 09:36:36.613027,-86.0
2023-08-09 09:36:36.620717,-86.0
2023-08-09 09:36:36.628407,-81.0
2023-08-09 09:36:36.636097,-57.0
2023-08-09 09:36:36.643787,-31.0
2023-08-09 09:36:36.651476,-24.0
2023-08-09 09:36:36.659166,-24.0
2023-08-09 09:36:36.666856,-21.0
2023-08-09 09:36:36.674546,-40.0
2023-08-09 09:36:36.682236,-69.0
2023-08-09 09:36:36.689925,-88.0
2023-08-09 09:36:36.697615,-91.0
2023-08-09 09:36:36.705305,-88.0
2023-08-09 09:36:36.712995,-91.0
2023-08-09 09:36:36.720685,-93.0
2023-08-09 09:36:36.728374,-93.0
2023-08-09 09:36:36.736064,-93.0
2023-08-09 09:36:36.743754,-91.0
2023-08-09 09:36:36.751444,-88.0
2023-08-09 09:36:36.759134,-93.0
2023-08-09 09:36:36.766824,-115.0
2023-08-09 09:36:36.774513,-96.0
2023-08-09 09:36:36.782203,86.0
2023-08-09 09:36:36.789893,480.0
2023-08-09 09:36:36.797583,865.0
2023-08-09 09:36:36.805273,882.0
2023-08-09 09:36:36.812962,351.0
2023-08-09 09:36:36.820652,-300.0
2023-08-09 09:36:36.828342,-387.0
2023-08-09 09:36:36.836032,-115.0
2023-08-09 09:36:36.843722,-96.0
2023-08-09 09:36:36.851411,-204.0
2023-08-09 09:36:36.859101,-177.0
2023-08-09 09:36:36.866791,-151.0
2023-08-09 09:36:36.874481,-177.0
2023-08-09 09:36:36.882171,-163.0
2023-08-09 09:36:36.889860,-139.0
2023-08-09 09:36:36.897550,-141.0
2023-08-09 09:36:36.905240,-137.0
2023-08-09 09:36:36.912930,-122.0
2023-08-09 09:36:36.920620,-115.0
2023-08-09 09:36:36.928310,-108.0
2023-08-09 09:36:36.935999,-96.0
2023-08-09 09:36:36.943689,-86.0
2023-08-09 09:36:36.951379,-79.0
2023-08-09 09:36:36.959069,-72.0
2023-08-09 09:36:36.966759,-62.0
2023-08-09 09:36:36.974448,-52.0
2023-08-09 09:36:36.982138,-43.0
2023-08-09 09:36:36.989828,-33.0
2023-08-09 09:36:36.997518,-26.0
2023-08-09 09:36:37.005208,-16.0
2023-08-09 09:36:37.012897,-7.0
2023-08-09 09:36:37.020587,2.0
2023-08-09 09:36:37.028277,9.0
2023-08-09 09:36:37.035967,19.0
2023-08-09 09:36:37.043657,31.0
2023-08-09 09:36:37.051346,36.0
2023-08-09 09:36:37.059036,43.0
2023-08-09 09:36:37.066726,55.0
2023-08-09 09:36:37.074416,69.0
2023-08-09 09:36:37.082106,72.0
2023-08-09 09:36:37.089796,57.0
2023-08-09 09:36:37.097485,31.0
2023-08-09 09:36:37.105175,-2.0
2023-08-09 09:36:37.112865,-36.0
2023-08-09 09:36:37.120555,-62.0
2023-08-09 09:36:37.128245,-84.0
2023-08-09 09:36:37.135934,-103.0
2023-08-09 09:36:37.143624,-122.0
2023-08-09 09:36:37.151314,-127.0
2023-08-09 09:36:37.159004,-122.0
2023-08-09 09:36:37.166694,-122.0
2023-08-09 09:36:37.174383,-122.0
2023-08-09 09:36:37.182073,-120.0
2023-08-09 09:36:37.189763,-117.0
2023-08-09 09:36:37.197453,-115.0
2023-08-09 09:36:37.205143,-113.0
2023-08-09 09:36:37.212833,-110.0
2023-08-09 09:36:37.220522,-110.0
2023-08-09 09:36:37.228212,-110.0
2023-08-09 09:36:37.235902,-108.0
2023-08-09 09:36:37.243592,-105.0
2023-08-09 09:36:37.251282,-103.0
2023-08-09 09:36:37.258971,-101.0
2023-08-09 09:36:37.266661,-105.0
2023-08-09 09:36:37.274351,-108.0
2023-08-09 09:36:37.282041,-103.0
2023-08-09 09:36:37.289731,-96.0
2023-08-09 09:36:37.297420,-96.0
2023-08-09 09:36:37.305110,-96.0
2023-08-09 09:36:37.312800,-93.0
2023-08-09 09:36:37.320490,-98.0
2023-08-09 09:36:37.328180,-98.0
2023-08-09 09:36:37.335869,-91.0
2023-08-09 09:36:37.343559,-88.0
2023-08-09 09:36:37.351249,-84.0
2023-08-09 09:36:37.358939,-84.0
2023-08-09 09:36:37.366629,-88.0
2023-08-09 09:36:37.374319,-86.0
2023-08-09 09:36:37.382008,-84.0
2023-08-09 09:36:37.389698,-88.0
2023-08-09 09:36:37.397388,-88.0
2023-08-09 09:36:37.405078,-86.0
2023-08-09 09:36:37.412768,-84.0
2023-08-09 09:36:37.420457,-84.0
2023-08-09 09:36:37.428147,-86.0
2023-08-09 09:36:37.435837,-88.0
2023-08-09 09:36:37.443527,-81.0
2023-08-09 09:36:37.451217,-72.0
2023-08-09 09:36:37.458906,-62.0
2023-08-09 09:36:37.466596,-40.0
2023-08-09 09:36:37.474286,-19.0
2023-08-09 09:36:37.481976,-16.0
2023-08-09 09:36:37.489666,-14.0
2023-08-09 09:36:37.497355,-16.0
2023-08-09 09:36:37.505045,-52.0
2023-08-09 09:36:37.512735,-88.0
2023-08-09 09:36:37.520425,-91.0
2023-08-09 09:36:37.528115,-84.0
2023-08-09 09:36:37.535805,-86.0
2023-08-09 09:36:37.543494,-91.0
2023-08-09 09:36:37.551184,-96.0
2023-08-09 09:36:37.558874,-98.0
2023-08-09 09:36:37.566564,-101.0
2023-08-09 09:36:37.574254,-98.0
2023-08-09 09:36:37.581943,-98.0
2023-08-09 09:36:37.589633,-110.0
2023-08-09 09:36:37.597323,-122.0
2023-08-09 09:36:37.605013,-52.0
2023-08-09 09:36:37.612703,206.0
2023-08-09 09:36:37.620392,598.0
2023-08-09 09:36:37.628082,820.0
2023-08-09 09:36:37.635772,572.0
2023-08-09 09:36:37.643462,-43.0
2023-08-09 09:36:37.651152,-408.0
2023-08-09 09:36:37.658841,-247.0
2023-08-09 09:36:37.666531,-72.0
2023-08-09 09:36:37.674221,-127.0
2023-08-09 09:36:37.681911,-163.0
2023-08-09 09:36:37.689601,-132.0
2023-08-09 09:36:37.697291,-125.0
2023-08-09 09:36:37.704980,-125.0
2023-08-09 09:36:37.712670,-110.0
2023-08-09 09:36:37.720360,-110.0
2023-08-09 09:36:37.728050,-110.0
2023-08-09 09:36:37.735740,-93.0
2023-08-09 09:36:37.743429,-79.0
2023-08-09 09:36:37.751119,-81.0
2023-08-09 09:36:37.758809,-84.0
2023-08-09 09:36:37.766499,-76.0
2023-08-09 09:36:37.774189,-74.0
2023-08-09 09:36:37.781878,-74.0
2023-08-09 09:36:37.789568,-62.0
2023-08-09 09:36:37.797258,-45.0
2023-08-09 09:36:37.804948,-40.0
2023-08-09 09:36:37.812638,-40.0
2023-08-09 09:36:37.820328,-36.0
2023-08-09 09:36:37.828017,-21.0
2023-08-09 09:36:37.835707,-2.0
2023-08-09 09:36:37.843397,9.0
2023-08-09 09:36:37.851087,24.0
2023-08-09 09:36:37.858777,36.0
2023-08-09 09:36:37.866466,31.0
2023-08-09 09:36:37.874156,28.0
2023-08-09 09:36:37.881846,43.0
2023-08-09 09:36:37.889536,50.0
2023-08-09 09:36:37.897226,57.0
2023-08-09 09:36:37.904915,67.0
2023-08-09 09:36:37.912605,62.0
2023-08-09 09:36:37.920295,38.0
2023-08-09 09:36:37.927985,-2.0
2023-08-09 09:36:37.935675,-38.0
2023-08-09 09:36:37.943364,-64.0
2023-08-09 09:36:37.951054,-81.0
2023-08-09 09:36:37.958744,-103.0
2023-08-09 09:36:37.966434,-122.0
2023-08-09 09:36:37.974124,-120.0
2023-08-09 09:36:37.981814,-117.0
2023-08-09 09:36:37.989503,-120.0
2023-08-09 09:36:37.997193,-117.0
2023-08-09 09:36:38.004883,-127.0
2023-08-09 09:36:38.012573,-139.0
2023-08-09 09:36:38.020263,-137.0
2023-08-09 09:36:38.027952,-125.0
2023-08-09 09:36:38.035642,-117.0
2023-08-09 09:36:38.043332,-117.0
2023-08-09 09:36:38.051022,-115.0
2023-08-09 09:36:38.058712,-113.0
2023-08-09 09:36:38.066401,-117.0
2023-08-09 09:36:38.074091,-110.0
2023-08-09 09:36:38.081781,-98.0
2023-08-09 09:36:38.089471,-110.0
2023-08-09 09:36:38.097161,-115.0
2023-08-09 09:36:38.104850,-105.0
2023-08-09 09:36:38.112540,-108.0
2023-08-09 09:36:38.120230,-108.0
2023-08-09 09:36:38.127920,-103.0
2023-08-09 09:36:38.135610,-105.0
2023-08-09 09:36:38.143300,-105.0
2023-08-09 09:36:38.150989,-105.0
2023-08-09 09:36:38.158679,-110.0
2023-08-09 09:36:38.166369,-103.0
2023-08-09 09:36:38.174059,-93.0
2023-08-09 09:36:38.181749,-91.0
2023-08-09 09:36:38.189438,-91.0
2023-08-09 09:36:38.197128,-91.0
2023-08-09 09:36:38.204818,-98.0
2023-08-09 09:36:38.212508,-103.0
2023-08-09 09:36:38.220198,-98.0
2023-08-09 09:36:38.227887,-96.0
2023-08-09 09:36:38.235577,-86.0
2023-08-09 09:36:38.243267,-55.0
2023-08-09 09:36:38.250957,-24.0
2023-08-09 09:36:38.258647,-40.0
2023-08-09 09:36:38.266336,-64.0
2023-08-09 09:36:38.274026,-52.0
2023-08-09 09:36:38.281716,-67.0
2023-08-09 09:36:38.289406,-110.0
2023-08-09 09:36:38.297096,-122.0
2023-08-09 09:36:38.304786,-120.0
2023-08-09 09:36:38.312475,-129.0
2023-08-09 09:36:38.320165,-134.0
2023-08-09 09:36:38.327855,-132.0
2023-08-09 09:36:38.335545,-127.0
2023-08-09 09:36:38.343235,-122.0
2023-08-09 09:36:38.350924,-129.0
2023-08-09 09:36:38.358614,-139.0
2023-08-09 09:36:38.366304,-137.0
2023-08-09 09:36:38.373994,-125.0
2023-08-09 09:36:38.381684,-14.0
2023-08-09 09:36:38.389373,319.0
2023-08-09 09:36:38.397063,745.0
2023-08-09 09:36:38.404753,882.0
2023-08-09 09:36:38.412443,471.0
2023-08-09 09:36:38.420133,-216.0
2023-08-09 09:36:38.427823,-485.0
2023-08-09 09:36:38.435512,-254.0
2023-08-09 09:36:38.443202,-105.0
2023-08-09 09:36:38.450892,-161.0
2023-08-09 09:36:38.458582,-175.0
2023-08-09 09:36:38.466272,-153.0
2023-08-09 09:36:38.473961,-151.0
2023-08-09 09:36:38.481651,-139.0
2023-08-09 09:36:38.489341,-122.0
2023-08-09 09:36:38.497031,-120.0
2023-08-09 09:36:38.504721,-122.0
2023-08-09 09:36:38.512410,-115.0
2023-08-09 09:36:38.520100,-96.0
2023-08-09 09:36:38.527790,-86.0
2023-08-09 09:36:38.535480,-86.0
2023-08-09 09:36:38.543170,-69.0
2023-08-09 09:36:38.550859,-52.0
2023-08-09 09:36:38.558549,-55.0
2023-08-09 09:36:38.566239,-48.0
2023-08-09 09:36:38.573929,-33.0
2023-08-09 09:36:38.581619,-26.0
2023-08-09 09:36:38.589309,-14.0
2023-08-09 09:36:38.596998,-2.0
2023-08-09 09:36:38.604688,2.0
2023-08-09 09:36:38.612378,14.0
2023-08-09 09:36:38.620068,33.0
2023-08-09 09:36:38.627758,48.0
2023-08-09 09:36:38.635447,55.0
2023-08-09 09:36:38.643137,67.0
2023-08-09 09:36:38.650827,79.0
2023-08-09 09:36:38.658517,79.0
2023-08-09 09:36:38.666207,86.0
2023-08-09 09:36:38.673896,98.0
2023-08-09 09:36:38.681586,96.0
2023-08-09 09:36:38.689276,69.0
2023-08-09 09:36:38.696966,33.0
2023-08-09 09:36:38.704656,0.0
2023-08-09 09:36:38.712345,-38.0
2023-08-09 09:36:38.720035,-81.0
2023-08-09 09:36:38.727725,-103.0
2023-08-09 09:36:38.735415,-108.0
2023-08-09 09:36:38.743105,-115.0
2023-08-09 09:36:38.750795,-129.0
2023-08-09 09:36:38.758484,-137.0
2023-08-09 09:36:38.766174,-127.0
2023-08-09 09:36:38.773864,-120.0
2023-08-09 09:36:38.781554,-125.0
2023-08-09 09:36:38.789244,-125.0
2023-08-09 09:36:38.796933,-113.0
2023-08-09 09:36:38.804623,-113.0
2023-08-09 09:36:38.812313,-122.0
2023-08-09 09:36:38.820003,-120.0
2023-08-09 09:36:38.827693,-110.0
2023-08-09 09:36:38.835382,-110.0
2023-08-09 09:36:38.843072,-113.0
2023-08-09 09:36:38.850762,-108.0
2023-08-09 09:36:38.858452,-105.0
2023-08-09 09:36:38.866142,-105.0
2023-08-09 09:36:38.873831,-105.0
2023-08-09 09:36:38.881521,-110.0
2023-08-09 09:36:38.889211,-115.0
2023-08-09 09:36:38.896901,-113.0
2023-08-09 09:36:38.904591,-110.0
2023-08-09 09:36:38.912281,-115.0
2023-08-09 09:36:38.919970,-113.0
2023-08-09 09:36:38.927660,-108.0
2023-08-09 09:36:38.935350,-105.0
2023-08-09 09:36:38.943040,-108.0
2023-08-09 09:36:38.950730,-103.0
2023-08-09 09:36:38.958419,-101.0
2023-08-09 09:36:38.966109,-98.0
2023-08-09 09:36:38.973799,-93.0
2023-08-09 09:36:38.981489,-96.0
2023-08-09 09:36:38.989179,-103.0
2023-08-09 09:36:38.996868,-88.0
2023-08-09 09:36:39.004558,-57.0
2023-08-09 09:36:39.012248,-40.0
2023-08-09 09:36:39.019938,-43.0
2023-08-09 09:36:39.027628,-40.0
2023-08-09 09:36:39.035318,-40.0
2023-08-09 09:36:39.043007,-67.0
2023-08-09 09:36:39.050697,-96.0
2023-08-09 09:36:39.058387,-105.0
2023-08-09 09:36:39.066077,-101.0
2023-08-09 09:36:39.073767,-103.0
2023-08-09 09:36:39.081456,-110.0
2023-08-09 09:36:39.089146,-113.0
2023-08-09 09:36:39.096836,-110.0
2023-08-09 09:36:39.104526,-108.0
2023-08-09 09:36:39.112216,-110.0
2023-08-09 09:36:39.119905,-117.0
2023-08-09 09:36:39.127595,-132.0
2023-08-09 09:36:39.135285,-108.0
2023-08-09 09:36:39.142975,74.0
2023-08-09 09:36:39.150665,476.0
2023-08-09 09:36:39.158354,884.0
2023-08-09 09:36:39.166044,913.0
2023-08-09 09:36:39.173734,367.0
2023-08-09 09:36:39.181424,-317.0
2023-08-09 09:36:39.189114,-430.0
2023-08-09 09:36:39.196804,-149.0
2023-08-09 09:36:39.204493,-98.0
2023-08-09 09:36:39.212183,-192.0
2023-08-09 09:36:39.219873,-170.0
2023-08-09 09:36:39.227563,-139.0
2023-08-09 09:36:39.235253,-161.0
2023-08-09 09:36:39.242942,-158.0
2023-08-09 09:36:39.250632,-139.0
2023-08-09 09:36:39.258322,-139.0
2023-08-09 09:36:39.266012,-134.0
2023-08-09 09:36:39.273702,-117.0
2023-08-09 09:36:39.281391,-105.0
2023-08-09 09:36:39.289081,-98.0
2023-08-09 09:36:39.296771,-88.0
2023-08-09 09:36:39.304461,-84.0
2023-08-09 09:36:39.312151,-74.0
2023-08-09 09:36:39.319840,-64.0
2023-08-09 09:36:39.327530,-57.0
2023-08-09 09:36:39.335220,-48.0
2023-08-09 09:36:39.342910,-40.0
2023-08-09 09:36:39.350600,-33.0
2023-08-09 09:36:39.358290,-21.0
2023-08-09 09:36:39.365979,-12.0
2023-08-09 09:36:39.373669,0.0
2023-08-09 09:36:39.381359,9.0
2023-08-09 09:36:39.389049,14.0
2023-08-09 09:36:39.396739,19.0
2023-08-09 09:36:39.404428,28.0
2023-08-09 09:36:39.412118,38.0
2023-08-09 09:36:39.419808,45.0
2023-08-09 09:36:39.427498,52.0
2023-08-09 09:36:39.435188,52.0
2023-08-09 09:36:39.442877,43.0
2023-08-09 09:36:39.450567,28.0
2023-08-09 09:36:39.458257,2.0
2023-08-09 09:36:39.465947,-38.0
2023-08-09 09:36:39.473637,-74.0
2023-08-09 09:36:39.481326,-101.0
2023-08-09 09:36:39.489016,-122.0
2023-08-09 09:36:39.496706,-134.0
2023-08-09 09:36:39.504396,-139.0
2023-08-09 09:36:39.512086,-141.0
2023-08-09 09:36:39.519776,-144.0
2023-08-09 09:36:39.527465,-141.0
2023-08-09 09:36:39.535155,-137.0
2023-08-09 09:36:39.542845,-132.0
2023-08-09 09:36:39.550535,-127.0
2023-08-09 09:36:39.558225,-122.0
2023-08-09 09:36:39.565914,-120.0
2023-08-09 09:36:39.573604,-115.0
2023-08-09 09:36:39.581294,-110.0
2023-08-09 09:36:39.588984,-105.0
2023-08-09 09:36:39.596674,-105.0
2023-08-09 09:36:39.604363,-101.0
2023-08-09 09:36:39.612053,-98.0
2023-08-09 09:36:39.619743,-101.0
2023-08-09 09:36:39.627433,-101.0
2023-08-09 09:36:39.635123,-96.0
2023-08-09 09:36:39.642813,-96.0
2023-08-09 09:36:39.650502,-96.0
2023-08-09 09:36:39.658192,-96.0
2023-08-09 09:36:39.665882,-96.0
2023-08-09 09:36:39.673572,-96.0
2023-08-09 09:36:39.681262,-93.0
2023-08-09 09:36:39.688951,-91.0
2023-08-09 09:36:39.696641,-93.0
2023-08-09 09:36:39.704331,-93.0
2023-08-09 09:36:39.712021,-91.0
2023-08-09 09:36:39.719711,-93.0
2023-08-09 09:36:39.727400,-96.0
2023-08-09 09:36:39.735090,-98.0
2023-08-09 09:36:39.742780,-98.0
2023-08-09 09:36:39.750470,-96.0
2023-08-09 09:36:39.758160,-79.0
2023-08-09 09:36:39.765849,-52.0
2023-08-09 09:36:39.773539,-36.0
2023-08-09 09:36:39.781229,-33.0
2023-08-09 09:36:39.788919,-33.0
2023-08-09 09:36:39.796609,-45.0
2023-08-09 09:36:39.804299,-74.0
2023-08-09 09:36:39.811988,-96.0
2023-08-09 09:36:39.819678,-103.0
2023-08-09 09:36:39.827368,-103.0
2023-08-09 09:36:39.835058,-103.0
2023-08-09 09:36:39.842748,-110.0
2023-08-09 09:36:39.850437,-115.0
2023-08-09 09:36:39.858127,-115.0
2023-08-09 09:36:39.865817,-115.0
2023-08-09 09:36:39.873507,-117.0
2023-08-09 09:36:39.881197,-125.0
2023-08-09 09:36:39.888886,-146.0
2023-08-09 09:36:39.896576,-120.0
2023-08-09 09:36:39.904266,86.0
2023-08-09 09:36:39.911956,497.0
2023-08-09 09:36:39.919646,858.0
2023-08-09 09:36:39.927335,805.0
2023-08-09 09:36:39.935025,214.0
2023-08-09 09:36:39.942715,-394.0
2023-08-09 09:36:39.950405,-391.0
2023-08-09 09:36:39.958095,-122.0
2023-08-09 09:36:39.965785,-137.0
2023-08-09 09:36:39.973474,-228.0
2023-08-09 09:36:39.981164,-187.0
2023-08-09 09:36:39.988854,-165.0
2023-08-09 09:36:39.996544,-187.0
2023-08-09 09:36:40.004234,-175.0
2023-08-09 09:36:40.011923,-151.0
2023-08-09 09:36:40.019613,-151.0
2023-08-09 09:36:40.027303,-144.0
2023-08-09 09:36:40.034993,-132.0
2023-08-09 09:36:40.042683,-125.0
2023-08-09 09:36:40.050372,-115.0
2023-08-09 09:36:40.058062,-103.0
2023-08-09 09:36:40.065752,-93.0
2023-08-09 09:36:40.073442,-86.0
2023-08-09 09:36:40.081132,-74.0
2023-08-09 09:36:40.088821,-67.0
2023-08-09 09:36:40.096511,-57.0
2023-08-09 09:36:40.104201,-48.0
2023-08-09 09:36:40.111891,-40.0
2023-08-09 09:36:40.119581,-28.0
2023-08-09 09:36:40.127271,-16.0
2023-08-09 09:36:40.134960,-9.0
2023-08-09 09:36:40.142650,0.0
2023-08-09 09:36:40.150340,12.0
2023-08-09 09:36:40.158030,19.0
2023-08-09 09:36:40.165720,26.0
2023-08-09 09:36:40.173409,33.0
2023-08-09 09:36:40.181099,40.0
2023-08-09 09:36:40.188789,50.0
2023-08-09 09:36:40.196479,60.0
2023-08-09 09:36:40.204169,57.0
2023-08-09 09:36:40.211858,40.0
2023-08-09 09:36:40.219548,7.0
2023-08-09 09:36:40.227238,-31.0
2023-08-09 09:36:40.234928,-62.0
2023-08-09 09:36:40.242618,-86.0
2023-08-09 09:36:40.250308,-108.0
2023-08-09 09:36:40.257997,-120.0
2023-08-09 09:36:40.265687,-120.0
2023-08-09 09:36:40.273377,-120.0
2023-08-09 09:36:40.281067,-122.0
2023-08-09 09:36:40.288757,-122.0
2023-08-09 09:36:40.296446,-117.0
2023-08-09 09:36:40.304136,-113.0
2023-08-09 09:36:40.311826,-115.0
2023-08-09 09:36:40.319516,-115.0
2023-08-09 09:36:40.327206,-108.0
2023-08-09 09:36:40.334895,-108.0
2023-08-09 09:36:40.342585,-110.0
2023-08-09 09:36:40.350275,-101.0
2023-08-09 09:36:40.357965,-98.0
2023-08-09 09:36:40.365655,-105.0
2023-08-09 09:36:40.373344,-105.0
2023-08-09 09:36:40.381034,-103.0
2023-08-09 09:36:40.388724,-101.0
2023-08-09 09:36:40.396414,-96.0
2023-08-09 09:36:40.404104,-96.0
2023-08-09 09:36:40.411794,-101.0
2023-08-09 09:36:40.419483,-103.0
2023-08-09 09:36:40.427173,-108.0
2023-08-09 09:36:40.434863,-101.0
2023-08-09 09:36:40.442553,-91.0
2023-08-09 09:36:40.450243,-96.0
2023-08-09 09:36:40.457932,-93.0
2023-08-09 09:36:40.465622,-84.0
2023-08-09 09:36:40.473312,-91.0
2023-08-09 09:36:40.481002,-101.0
2023-08-09 09:36:40.488692,-91.0
2023-08-09 09:36:40.496381,-72.0
2023-08-09 09:36:40.504071,-50.0
2023-08-09 09:36:40.511761,-28.0
2023-08-09 09:36:40.519451,-31.0
2023-08-09 09:36:40.527141,-48.0
2023-08-09 09:36:40.534830,-64.0
2023-08-09 09:36:40.542520,-88.0
2023-08-09 09:36:40.550210,-103.0
2023-08-09 09:36:40.557900,-101.0
2023-08-09 09:36:40.565590,-98.0
2023-08-09 09:36:40.573280,-108.0
2023-08-09 09:36:40.580969,-115.0
2023-08-09 09:36:40.588659,-108.0
2023-08-09 09:36:40.596349,-103.0
2023-08-09 09:36:40.604039,-115.0
2023-08-09 09:36:40.611729,-125.0
2023-08-09 09:36:40.619418,-129.0
2023-08-09 09:36:40.627108,-134.0
2023-08-09 09:36:40.634798,-91.0
2023-08-09 09:36:40.642488,125.0
2023-08-09 09:36:40.650178,526.0
2023-08-09 09:36:40.657867,832.0
2023-08-09 09:36:40.665557,692.0
2023-08-09 09:36:40.673247,91.0
2023-08-09 09:36:40.680937,-411.0
2023-08-09 09:36:40.688627,-351.0
2023-08-09 09:36:40.696316,-127.0
2023-08-09 09:36:40.704006,-149.0
2023-08-09 09:36:40.711696,-206.0
2023-08-09 09:36:40.719386,-170.0
2023-08-09 09:36:40.727076,-168.0
2023-08-09 09:36:40.734766,-185.0
2023-08-09 09:36:40.742455,-165.0
2023-08-09 09:36:40.750145,-144.0
2023-08-09 09:36:40.757835,-144.0
2023-08-09 09:36:40.765525,-141.0
2023-08-09 09:36:40.773215,-137.0
2023-08-09 09:36:40.780904,-127.0
2023-08-09 09:36:40.788594,-115.0
2023-08-09 09:36:40.796284,-103.0
2023-08-09 09:36:40.803974,-96.0
2023-08-09 09:36:40.811664,-86.0
2023-08-09 09:36:40.819353,-81.0
2023-08-09 09:36:40.827043,-81.0
2023-08-09 09:36:40.834733,-64.0
2023-08-09 09:36:40.842423,-45.0
2023-08-09 09:36:40.850113,-40.0
2023-08-09 09:36:40.857803,-38.0
2023-08-09 09:36:40.865492,-28.0
2023-08-09 09:36:40.873182,-9.0
2023-08-09 09:36:40.880872,12.0
2023-08-09 09:36:40.888562,21.0
2023-08-09 09:36:40.896252,21.0
2023-08-09 09:36:40.903941,28.0
2023-08-09 09:36:40.911631,50.0
2023-08-09 09:36:40.919321,57.0
2023-08-09 09:36:40.927011,50.0
2023-08-09 09:36:40.934701,55.0
2023-08-09 09:36:40.942390,55.0
2023-08-09 09:36:40.950080,19.0
2023-08-09 09:36:40.957770,-31.0
2023-08-09 09:36:40.965460,-67.0
2023-08-09 09:36:40.973150,-91.0
2023-08-09 09:36:40.980839,-113.0
2023-08-09 09:36:40.988529,-132.0
2023-08-09 09:36:40.996219,-137.0
2023-08-09 09:36:41.003909,-129.0
2023-08-09 09:36:41.011599,-134.0
2023-08-09 09:36:41.019289,-144.0
2023-08-09 09:36:41.026978,-151.0
2023-08-09 09:36:41.034668,-156.0
2023-08-09 09:36:41.042358,-149.0
2023-08-09 09:36:41.050048,-132.0
2023-08-09 09:36:41.057738,-139.0
2023-08-09 09:36:41.065427,-161.0
2023-08-09 09:36:41.073117,-158.0
2023-08-09 09:36:41.080807,-146.0
2023-08-09 09:36:41.088497,-137.0
2023-08-09 09:36:41.096187,-134.0
2023-08-09 09:36:41.103876,-153.0
2023-08-09 09:36:41.111566,-146.0
2023-08-09 09:36:41.119256,-117.0
2023-08-09 09:36:41.126946,-129.0
2023-08-09 09:36:41.134636,-144.0
2023-08-09 09:36:41.142325,-141.0
2023-08-09 09:36:41.150015,-146.0
2023-08-09 09:36:41.157705,-129.0
2023-08-09 09:36:41.165395,-113.0
2023-08-09 09:36:41.173085,-117.0
2023-08-09 09:36:41.180775,-125.0
2023-08-09 09:36:41.188464,-132.0
2023-08-09 09:36:41.196154,-127.0
2023-08-09 09:36:41.203844,-108.0
2023-08-09 09:36:41.211534,-86.0
2023-08-09 09:36:41.219224,-76.0
2023-08-09 09:36:41.226913,-76.0
2023-08-09 09:36:41.234603,-76.0
2023-08-09 09:36:41.242293,-88.0
2023-08-09 09:36:41.249983,-117.0
2023-08-09 09:36:41.257673,-137.0
2023-08-09 09:36:41.265362,-125.0
2023-08-09 09:36:41.273052,-125.0
2023-08-09 09:36:41.280742,-144.0
2023-08-09 09:36:41.288432,-141.0
2023-08-09 09:36:41.296122,-129.0
2023-08-09 09:36:41.303811,-137.0
2023-08-09 09:36:41.311501,-141.0
2023-08-09 09:36:41.319191,-146.0
2023-08-09 09:36:41.326881,-158.0
2023-08-09 09:36:41.334571,-156.0
2023-08-09 09:36:41.342261,-57.0
2023-08-09 09:36:41.349950,250.0
2023-08-09 09:36:41.357640,682.0
2023-08-09 09:36:41.365330,909.0
2023-08-09 09:36:41.373020,613.0
2023-08-09 09:36:41.380710,-93.0
2023-08-09 09:36:41.388399,-524.0
2023-08-09 09:36:41.396089,-358.0
2023-08-09 09:36:41.403779,-141.0
2023-08-09 09:36:41.411469,-175.0
2023-08-09 09:36:41.419159,-209.0
2023-08-09 09:36:41.426848,-185.0
2023-08-09 09:36:41.434538,-185.0
2023-08-09 09:36:41.442228,-189.0
2023-08-09 09:36:41.449918,-182.0
2023-08-09 09:36:41.457608,-177.0
2023-08-09 09:36:41.465298,-173.0
2023-08-09 09:36:41.472987,-165.0
2023-08-09 09:36:41.480677,-158.0
2023-08-09 09:36:41.488367,-153.0
2023-08-09 09:36:41.496057,-146.0
2023-08-09 09:36:41.503747,-132.0
2023-08-09 09:36:41.511436,-122.0
2023-08-09 09:36:41.519126,-120.0
2023-08-09 09:36:41.526816,-105.0
2023-08-09 09:36:41.534506,-86.0
2023-08-09 09:36:41.542196,-81.0
2023-08-09 09:36:41.549885,-76.0
2023-08-09 09:36:41.557575,-62.0
2023-08-09 09:36:41.565265,-50.0
2023-08-09 09:36:41.572955,-33.0
2023-08-09 09:36:41.580645,-16.0
2023-08-09 09:36:41.588334,-9.0
2023-08-09 09:36:41.596024,-4.0
2023-08-09 09:36:41.603714,14.0
2023-08-09 09:36:41.611404,24.0
2023-08-09 09:36:41.619094,21.0
2023-08-09 09:36:41.626784,24.0
2023-08-09 09:36:41.634473,26.0
2023-08-09 09:36:41.642163,9.0
2023-08-09 09:36:41.649853,-14.0
2023-08-09 09:36:41.657543,-40.0
2023-08-09 09:36:41.665233,-81.0
2023-08-09 09:36:41.672922,-115.0
2023-08-09 09:36:41.680612,-132.0
2023-08-09 09:36:41.688302,-156.0
2023-08-09 09:36:41.695992,-175.0
2023-08-09 09:36:41.703682,-173.0
2023-08-09 09:36:41.711371,-177.0
2023-08-09 09:36:41.719061,-189.0
2023-08-09 09:36:41.726751,-182.0
2023-08-09 09:36:41.734441,-175.0
2023-08-09 09:36:41.742131,-173.0
2023-08-09 09:36:41.749820,-165.0
2023-08-09 09:36:41.757510,-156.0
2023-08-09 09:36:41.765200,-158.0
2023-08-09 09:36:41.772890,-156.0
2023-08-09 09:36:41.780580,-151.0
2023-08-09 09:36:41.788270,-149.0
2023-08-09 09:36:41.795959,-146.0
2023-08-09 09:36:41.803649,-144.0
2023-08-09 09:36:41.811339,-144.0
2023-08-09 09:36:41.819029,-137.0
2023-08-09 09:36:41.826719,-134.0
2023-08-09 09:36:41.834408,-141.0
2023-08-09 09:36:41.842098,-144.0
2023-08-09 09:36:41.849788,-129.0
2023-08-09 09:36:41.857478,-127.0
2023-08-09 09:36:41.865168,-139.0
2023-08-09 09:36:41.872857,-137.0
2023-08-09 09:36:41.880547,-125.0
2023-08-09 09:36:41.888237,-125.0
2023-08-09 09:36:41.895927,-125.0
2023-08-09 09:36:41.903617,-98.0
2023-08-09 09:36:41.911306,-72.0
2023-08-09 09:36:41.918996,-67.0
2023-08-09 09:36:41.926686,-67.0
2023-08-09 09:36:41.934376,-60.0
2023-08-09 09:36:41.942066,-64.0
2023-08-09 09:36:41.949756,-93.0
2023-08-09 09:36:41.957445,-127.0
2023-08-09 09:36:41.965135,-125.0
2023-08-09 09:36:41.972825,-115.0
2023-08-09 09:36:41.980515,-122.0
2023-08-09 09:36:41.988205,-125.0
2023-08-09 09:36:41.995894,-113.0
2023-08-09 09:36:42.003584,-113.0
2023-08-09 09:36:42.011274,-110.0
2023-08-09 09:36:42.018964,-105.0
2023-08-09 09:36:42.026654,-117.0
2023-08-09 09:36:42.034343,-127.0
2023-08-09 09:36:42.042033,-38.0
2023-08-09 09:36:42.049723,269.0
2023-08-09 09:36:42.057413,726.0
2023-08-09 09:36:42.065103,1000.0
2023-08-09 09:36:42.072793,733.0
2023-08-09 09:36:42.080482,4.0
2023-08-09 09:36:42.088172,-456.0
2023-08-09 09:36:42.095862,-286.0
2023-08-09 09:36:42.103552,-86.0
2023-08-09 09:36:42.111242,-158.0
2023-08-09 09:36:42.118931,-199.0
2023-08-09 09:36:42.126621,-161.0
2023-08-09 09:36:42.134311,-161.0
2023-08-09 09:36:42.142001,-163.0
2023-08-09 09:36:42.149691,-146.0
2023-08-09 09:36:42.157380,-141.0
2023-08-09 09:36:42.165070,-139.0
2023-08-09 09:36:42.172760,-129.0
2023-08-09 09:36:42.180450,-129.0
2023-08-09 09:36:42.188140,-127.0
2023-08-09 09:36:42.195829,-113.0
2023-08-09 09:36:42.203519,-105.0
2023-08-09 09:36:42.211209,-103.0
2023-08-09 09:36:42.218899,-96.0
2023-08-09 09:36:42.226589,-91.0
2023-08-09 09:36:42.234279,-91.0
2023-08-09 09:36:42.241968,-76.0
2023-08-09 09:36:42.249658,-62.0
2023-08-09 09:36:42.257348,-60.0
2023-08-09 09:36:42.265038,-48.0
2023-08-09 09:36:42.272728,-33.0
2023-08-09 09:36:42.280417,-21.0
2023-08-09 09:36:42.288107,-16.0
2023-08-09 09:36:42.295797,-4.0
2023-08-09 09:36:42.303487,9.0
2023-08-09 09:36:42.311177,12.0
2023-08-09 09:36:42.318866,16.0
2023-08-09 09:36:42.326556,33.0
2023-08-09 09:36:42.334246,43.0
2023-08-09 09:36:42.341936,31.0
2023-08-09 09:36:42.349626,9.0
2023-08-09 09:36:42.357315,-21.0
2023-08-09 09:36:42.365005,-60.0
2023-08-09 09:36:42.372695,-93.0
2023-08-09 09:36:42.380385,-117.0
2023-08-09 09:36:42.388075,-134.0
2023-08-09 09:36:42.395765,-146.0
2023-08-09 09:36:42.403454,-156.0
2023-08-09 09:36:42.411144,-158.0
2023-08-09 09:36:42.418834,-153.0
2023-08-09 09:36:42.426524,-146.0
2023-08-09 09:36:42.434214,-144.0
2023-08-09 09:36:42.441903,-146.0
2023-08-09 09:36:42.449593,-141.0
2023-08-09 09:36:42.457283,-134.0
2023-08-09 09:36:42.464973,-134.0
2023-08-09 09:36:42.472663,-132.0
2023-08-09 09:36:42.480352,-125.0
2023-08-09 09:36:42.488042,-117.0
2023-08-09 09:36:42.495732,-120.0
2023-08-09 09:36:42.503422,-117.0
2023-08-09 09:36:42.511112,-113.0
2023-08-09 09:36:42.518801,-117.0
2023-08-09 09:36:42.526491,-120.0
2023-08-09 09:36:42.534181,-113.0
2023-08-09 09:36:42.541871,-110.0
2023-08-09 09:36:42.549561,-105.0
2023-08-09 09:36:42.557251,-103.0
2023-08-09 09:36:42.564940,-105.0
2023-08-09 09:36:42.572630,-101.0
2023-08-09 09:36:42.580320,-98.0
2023-08-09 09:36:42.588010,-96.0
2023-08-09 09:36:42.595700,-72.0
2023-08-09 09:36:42.603389,-45.0
2023-08-09 09:36:42.611079,-43.0
2023-08-09 09:36:42.618769,-45.0
2023-08-09 09:36:42.626459,-55.0
2023-08-09 09:36:42.634149,-79.0
2023-08-09 09:36:42.641838,-93.0
2023-08-09 09:36:42.649528,-101.0
2023-08-09 09:36:42.657218,-103.0
2023-08-09 09:36:42.664908,-103.0
2023-08-09 09:36:42.672598,-105.0
2023-08-09 09:36:42.680288,-108.0
2023-08-09 09:36:42.687977,-105.0
2023-08-09 09:36:42.695667,-108.0
2023-08-09 09:36:42.703357,-105.0
2023-08-09 09:36:42.711047,-108.0
2023-08-09 09:36:42.718737,-134.0
2023-08-09 09:36:42.726426,-115.0
2023-08-09 09:36:42.734116,101.0
2023-08-09 09:36:42.741806,548.0
2023-08-09 09:36:42.749496,959.0
2023-08-09 09:36:42.757186,952.0
2023-08-09 09:36:42.764875,353.0
2023-08-09 09:36:42.772565,-334.0
2023-08-09 09:36:42.780255,-406.0
2023-08-09 09:36:42.787945,-129.0
2023-08-09 09:36:42.795635,-115.0
2023-08-09 09:36:42.803324,-214.0
2023-08-09 09:36:42.811014,-180.0
2023-08-09 09:36:42.818704,-149.0
2023-08-09 09:36:42.826394,-163.0
2023-08-09 09:36:42.834084,-151.0
2023-08-09 09:36:42.841774,-132.0
2023-08-09 09:36:42.849463,-132.0
2023-08-09 09:36:42.857153,-127.0
2023-08-09 09:36:42.864843,-115.0
2023-08-09 09:36:42.872533,-105.0
2023-08-09 09:36:42.880223,-96.0
2023-08-09 09:36:42.887912,-84.0
2023-08-09 09:36:42.895602,-76.0
2023-08-09 09:36:42.903292,-72.0
2023-08-09 09:36:42.910982,-60.0
2023-08-09 09:36:42.918672,-48.0
2023-08-09 09:36:42.926361,-40.0
2023-08-09 09:36:42.934051,-36.0
2023-08-09 09:36:42.941741,-33.0
2023-08-09 09:36:42.949431,-24.0
2023-08-09 09:36:42.957121,-7.0
2023-08-09 09:36:42.964810,7.0
2023-08-09 09:36:42.972500,14.0
2023-08-09 09:36:42.980190,21.0
2023-08-09 09:36:42.987880,38.0
2023-08-09 09:36:42.995570,50.0
