time,ECG
2023-12-13 14:36:02.219750,259.0
2023-12-13 14:36:02.227439,743.0
2023-12-13 14:36:02.235128,952.0
2023-12-13 14:36:02.242817,387.0
2023-12-13 14:36:02.250506,-489.0
2023-12-13 14:36:02.258195,-679.0
2023-12-13 14:36:02.265885,-270.0
2023-12-13 14:36:02.273574,-73.0
2023-12-13 14:36:02.281263,-118.0
2023-12-13 14:36:02.288952,-80.0
2023-12-13 14:36:02.296641,-38.0
2023-12-13 14:36:02.304330,-54.0
2023-12-13 14:36:02.312020,-47.0
2023-12-13 14:36:02.319709,-26.0
2023-12-13 14:36:02.327398,-28.0
2023-12-13 14:36:02.335087,-33.0
2023-12-13 14:36:02.342776,-33.0
2023-12-13 14:36:02.350465,-30.0
2023-12-13 14:36:02.358155,-19.0
2023-12-13 14:36:02.365844,-9.0
2023-12-13 14:36:02.373533,0.0
2023-12-13 14:36:02.381222,14.0
2023-12-13 14:36:02.388911,35.0
2023-12-13 14:36:02.396600,57.0
2023-12-13 14:36:02.404290,78.0
2023-12-13 14:36:02.411979,99.0
2023-12-13 14:36:02.419668,128.0
2023-12-13 14:36:02.427357,161.0
2023-12-13 14:36:02.435046,192.0
2023-12-13 14:36:02.442735,216.0
2023-12-13 14:36:02.450425,232.0
2023-12-13 14:36:02.458114,230.0
2023-12-13 14:36:02.465803,209.0
2023-12-13 14:36:02.473492,192.0
2023-12-13 14:36:02.481181,163.0
2023-12-13 14:36:02.488870,92.0
2023-12-13 14:36:02.496560,-4.0
2023-12-13 14:36:02.504249,-92.0
2023-12-13 14:36:02.511938,-159.0
2023-12-13 14:36:02.519627,-201.0
2023-12-13 14:36:02.527316,-223.0
2023-12-13 14:36:02.535005,-232.0
2023-12-13 14:36:02.542695,-237.0
2023-12-13 14:36:02.550384,-242.0
2023-12-13 14:36:02.558073,-237.0
2023-12-13 14:36:02.565762,-228.0
2023-12-13 14:36:02.573451,-223.0
2023-12-13 14:36:02.581140,-225.0
2023-12-13 14:36:02.588830,-223.0
2023-12-13 14:36:02.596519,-218.0
2023-12-13 14:36:02.604208,-209.0
2023-12-13 14:36:02.611897,-199.0
2023-12-13 14:36:02.619586,-187.0
2023-12-13 14:36:02.627275,-180.0
2023-12-13 14:36:02.634965,-175.0
2023-12-13 14:36:02.642654,-173.0
2023-12-13 14:36:02.650343,-166.0
2023-12-13 14:36:02.658032,-154.0
2023-12-13 14:36:02.665721,-147.0
2023-12-13 14:36:02.673410,-140.0
2023-12-13 14:36:02.681100,-140.0
2023-12-13 14:36:02.688789,-140.0
2023-12-13 14:36:02.696478,-133.0
2023-12-13 14:36:02.704167,-128.0
2023-12-13 14:36:02.711856,-130.0
2023-12-13 14:36:02.719545,-130.0
2023-12-13 14:36:02.727235,-125.0
2023-12-13 14:36:02.734924,-121.0
2023-12-13 14:36:02.742613,-102.0
2023-12-13 14:36:02.750302,-76.0
2023-12-13 14:36:02.757991,-61.0
2023-12-13 14:36:02.765680,-54.0
2023-12-13 14:36:02.773370,-64.0
2023-12-13 14:36:02.781059,-87.0
2023-12-13 14:36:02.788748,-99.0
2023-12-13 14:36:02.796437,-97.0
2023-12-13 14:36:02.804126,-95.0
2023-12-13 14:36:02.811815,-90.0
2023-12-13 14:36:02.819505,-85.0
2023-12-13 14:36:02.827194,-85.0
2023-12-13 14:36:02.834883,-80.0
2023-12-13 14:36:02.842572,-73.0
2023-12-13 14:36:02.850261,19.0
2023-12-13 14:36:02.857950,373.0
2023-12-13 14:36:02.865640,860.0
2023-12-13 14:36:02.873329,855.0
2023-12-13 14:36:02.881018,90.0
2023-12-13 14:36:02.888707,-660.0
2023-12-13 14:36:02.896396,-598.0
2023-12-13 14:36:02.904085,-187.0
2023-12-13 14:36:02.911775,-102.0
2023-12-13 14:36:02.919464,-142.0
2023-12-13 14:36:02.927153,-78.0
2023-12-13 14:36:02.934842,-54.0
2023-12-13 14:36:02.942531,-73.0
2023-12-13 14:36:02.950220,-54.0
2023-12-13 14:36:02.957910,-40.0
2023-12-13 14:36:02.965599,-45.0
2023-12-13 14:36:02.973288,-33.0
2023-12-13 14:36:02.980977,-16.0
2023-12-13 14:36:02.988666,-14.0
2023-12-13 14:36:02.996355,-9.0
2023-12-13 14:36:03.004045,0.0
2023-12-13 14:36:03.011734,11.0
2023-12-13 14:36:03.019423,28.0
2023-12-13 14:36:03.027112,49.0
2023-12-13 14:36:03.034801,68.0
2023-12-13 14:36:03.042490,85.0
2023-12-13 14:36:03.050180,92.0
2023-12-13 14:36:03.057869,116.0
2023-12-13 14:36:03.065558,154.0
2023-12-13 14:36:03.073247,180.0
2023-12-13 14:36:03.080936,194.0
2023-12-13 14:36:03.088625,211.0
2023-12-13 14:36:03.096315,220.0
2023-12-13 14:36:03.104004,213.0
2023-12-13 14:36:03.111693,199.0
2023-12-13 14:36:03.119382,159.0
2023-12-13 14:36:03.127071,80.0
2023-12-13 14:36:03.134761,-11.0
2023-12-13 14:36:03.142450,-92.0
2023-12-13 14:36:03.150139,-154.0
2023-12-13 14:36:03.157828,-197.0
2023-12-13 14:36:03.165517,-218.0
2023-12-13 14:36:03.173206,-228.0
2023-12-13 14:36:03.180896,-232.0
2023-12-13 14:36:03.188585,-232.0
2023-12-13 14:36:03.196274,-228.0
2023-12-13 14:36:03.203963,-220.0
2023-12-13 14:36:03.211652,-213.0
2023-12-13 14:36:03.219341,-206.0
2023-12-13 14:36:03.227031,-204.0
2023-12-13 14:36:03.234720,-197.0
2023-12-13 14:36:03.242409,-187.0
2023-12-13 14:36:03.250098,-180.0
2023-12-13 14:36:03.257787,-171.0
2023-12-13 14:36:03.265476,-166.0
2023-12-13 14:36:03.273166,-161.0
2023-12-13 14:36:03.280855,-154.0
2023-12-13 14:36:03.288544,-149.0
2023-12-13 14:36:03.296233,-142.0
2023-12-13 14:36:03.303922,-133.0
2023-12-13 14:36:03.311611,-128.0
2023-12-13 14:36:03.319301,-133.0
2023-12-13 14:36:03.326990,-135.0
2023-12-13 14:36:03.334679,-130.0
2023-12-13 14:36:03.342368,-130.0
2023-12-13 14:36:03.350057,-140.0
2023-12-13 14:36:03.357746,-147.0
2023-12-13 14:36:03.365436,-144.0
2023-12-13 14:36:03.373125,-135.0
2023-12-13 14:36:03.380814,-125.0
2023-12-13 14:36:03.388503,-104.0
2023-12-13 14:36:03.396192,-83.0
2023-12-13 14:36:03.403881,-71.0
2023-12-13 14:36:03.411571,-66.0
2023-12-13 14:36:03.419260,-71.0
2023-12-13 14:36:03.426949,-90.0
2023-12-13 14:36:03.434638,-102.0
2023-12-13 14:36:03.442327,-104.0
2023-12-13 14:36:03.450016,-104.0
2023-12-13 14:36:03.457706,-99.0
2023-12-13 14:36:03.465395,-90.0
2023-12-13 14:36:03.473084,-80.0
2023-12-13 14:36:03.480773,-73.0
2023-12-13 14:36:03.488462,-68.0
2023-12-13 14:36:03.496151,14.0
2023-12-13 14:36:03.503841,344.0
2023-12-13 14:36:03.511530,836.0
2023-12-13 14:36:03.519219,898.0
2023-12-13 14:36:03.526908,178.0
2023-12-13 14:36:03.534597,-620.0
2023-12-13 14:36:03.542286,-627.0
2023-12-13 14:36:03.549976,-204.0
2023-12-13 14:36:03.557665,-85.0
2023-12-13 14:36:03.565354,-130.0
2023-12-13 14:36:03.573043,-80.0
2023-12-13 14:36:03.580732,-54.0
2023-12-13 14:36:03.588421,-87.0
2023-12-13 14:36:03.596111,-80.0
2023-12-13 14:36:03.603800,-49.0
2023-12-13 14:36:03.611489,-47.0
2023-12-13 14:36:03.619178,-42.0
2023-12-13 14:36:03.626867,-26.0
2023-12-13 14:36:03.634556,-21.0
2023-12-13 14:36:03.642246,-14.0
2023-12-13 14:36:03.649935,2.0
2023-12-13 14:36:03.657624,16.0
2023-12-13 14:36:03.665313,33.0
2023-12-13 14:36:03.673002,52.0
2023-12-13 14:36:03.680691,71.0
2023-12-13 14:36:03.688381,92.0
2023-12-13 14:36:03.696070,121.0
2023-12-13 14:36:03.703759,149.0
2023-12-13 14:36:03.711448,182.0
2023-12-13 14:36:03.719137,216.0
2023-12-13 14:36:03.726826,235.0
2023-12-13 14:36:03.734516,244.0
2023-12-13 14:36:03.742205,256.0
2023-12-13 14:36:03.749894,256.0
2023-12-13 14:36:03.757583,240.0
2023-12-13 14:36:03.765272,199.0
2023-12-13 14:36:03.772961,121.0
2023-12-13 14:36:03.780651,30.0
2023-12-13 14:36:03.788340,-49.0
2023-12-13 14:36:03.796029,-118.0
2023-12-13 14:36:03.803718,-166.0
2023-12-13 14:36:03.811407,-194.0
2023-12-13 14:36:03.819096,-209.0
2023-12-13 14:36:03.826786,-213.0
2023-12-13 14:36:03.834475,-211.0
2023-12-13 14:36:03.842164,-216.0
2023-12-13 14:36:03.849853,-228.0
2023-12-13 14:36:03.857542,-228.0
2023-12-13 14:36:03.865231,-213.0
2023-12-13 14:36:03.872921,-204.0
2023-12-13 14:36:03.880610,-199.0
2023-12-13 14:36:03.888299,-194.0
2023-12-13 14:36:03.895988,-185.0
2023-12-13 14:36:03.903677,-178.0
2023-12-13 14:36:03.911366,-171.0
2023-12-13 14:36:03.919056,-159.0
2023-12-13 14:36:03.926745,-152.0
2023-12-13 14:36:03.934434,-147.0
2023-12-13 14:36:03.942123,-142.0
2023-12-13 14:36:03.949812,-137.0
2023-12-13 14:36:03.957501,-133.0
2023-12-13 14:36:03.965191,-128.0
2023-12-13 14:36:03.972880,-125.0
2023-12-13 14:36:03.980569,-130.0
2023-12-13 14:36:03.988258,-133.0
2023-12-13 14:36:03.995947,-128.0
2023-12-13 14:36:04.003636,-121.0
2023-12-13 14:36:04.011326,-118.0
2023-12-13 14:36:04.019015,-123.0
2023-12-13 14:36:04.026704,-123.0
2023-12-13 14:36:04.034393,-116.0
2023-12-13 14:36:04.042082,-104.0
2023-12-13 14:36:04.049771,-85.0
2023-12-13 14:36:04.057461,-71.0
2023-12-13 14:36:04.065150,-61.0
2023-12-13 14:36:04.072839,-57.0
2023-12-13 14:36:04.080528,-71.0
2023-12-13 14:36:04.088217,-92.0
2023-12-13 14:36:04.095906,-97.0
2023-12-13 14:36:04.103596,-95.0
2023-12-13 14:36:04.111285,-97.0
2023-12-13 14:36:04.118974,-99.0
2023-12-13 14:36:04.126663,-104.0
2023-12-13 14:36:04.134352,-109.0
2023-12-13 14:36:04.142041,-97.0
2023-12-13 14:36:04.149731,-68.0
2023-12-13 14:36:04.157420,68.0
2023-12-13 14:36:04.165109,465.0
2023-12-13 14:36:04.172798,905.0
2023-12-13 14:36:04.180487,741.0
2023-12-13 14:36:04.188176,-114.0
2023-12-13 14:36:04.195866,-727.0
2023-12-13 14:36:04.203555,-525.0
2023-12-13 14:36:04.211244,-152.0
2023-12-13 14:36:04.218933,-116.0
2023-12-13 14:36:04.226622,-125.0
2023-12-13 14:36:04.234311,-59.0
2023-12-13 14:36:04.242001,-57.0
2023-12-13 14:36:04.249690,-71.0
2023-12-13 14:36:04.257379,-49.0
2023-12-13 14:36:04.265068,-40.0
2023-12-13 14:36:04.272757,-35.0
2023-12-13 14:36:04.280446,-23.0
2023-12-13 14:36:04.288136,-14.0
2023-12-13 14:36:04.295825,-7.0
2023-12-13 14:36:04.303514,0.0
2023-12-13 14:36:04.311203,7.0
2023-12-13 14:36:04.318892,23.0
2023-12-13 14:36:04.326581,40.0
2023-12-13 14:36:04.334271,54.0
2023-12-13 14:36:04.341960,73.0
2023-12-13 14:36:04.349649,99.0
2023-12-13 14:36:04.357338,116.0
2023-12-13 14:36:04.365027,137.0
2023-12-13 14:36:04.372716,175.0
2023-12-13 14:36:04.380406,206.0
2023-12-13 14:36:04.388095,223.0
2023-12-13 14:36:04.395784,230.0
2023-12-13 14:36:04.403473,237.0
2023-12-13 14:36:04.411162,235.0
2023-12-13 14:36:04.418851,216.0
2023-12-13 14:36:04.426541,166.0
2023-12-13 14:36:04.434230,85.0
2023-12-13 14:36:04.441919,-7.0
2023-12-13 14:36:04.449608,-85.0
2023-12-13 14:36:04.457297,-144.0
2023-12-13 14:36:04.464986,-182.0
2023-12-13 14:36:04.472676,-209.0
2023-12-13 14:36:04.480365,-232.0
2023-12-13 14:36:04.488054,-244.0
2023-12-13 14:36:04.495743,-237.0
2023-12-13 14:36:04.503432,-228.0
2023-12-13 14:36:04.511121,-223.0
2023-12-13 14:36:04.518811,-218.0
2023-12-13 14:36:04.526500,-216.0
2023-12-13 14:36:04.534189,-218.0
2023-12-13 14:36:04.541878,-209.0
2023-12-13 14:36:04.549567,-201.0
2023-12-13 14:36:04.557256,-201.0
2023-12-13 14:36:04.564946,-192.0
2023-12-13 14:36:04.572635,-185.0
2023-12-13 14:36:04.580324,-182.0
2023-12-13 14:36:04.588013,-175.0
2023-12-13 14:36:04.595702,-168.0
2023-12-13 14:36:04.603391,-163.0
2023-12-13 14:36:04.611081,-159.0
2023-12-13 14:36:04.618770,-154.0
2023-12-13 14:36:04.626459,-154.0
2023-12-13 14:36:04.634148,-149.0
2023-12-13 14:36:04.641837,-142.0
2023-12-13 14:36:04.649526,-140.0
2023-12-13 14:36:04.657216,-140.0
2023-12-13 14:36:04.664905,-144.0
2023-12-13 14:36:04.672594,-144.0
2023-12-13 14:36:04.680283,-135.0
2023-12-13 14:36:04.687972,-118.0
2023-12-13 14:36:04.695661,-99.0
2023-12-13 14:36:04.703351,-85.0
2023-12-13 14:36:04.711040,-73.0
2023-12-13 14:36:04.718729,-76.0
2023-12-13 14:36:04.726418,-92.0
2023-12-13 14:36:04.734107,-109.0
2023-12-13 14:36:04.741796,-114.0
2023-12-13 14:36:04.749486,-118.0
2023-12-13 14:36:04.757175,-135.0
2023-12-13 14:36:04.764864,-142.0
2023-12-13 14:36:04.772553,-128.0
2023-12-13 14:36:04.780242,-111.0
2023-12-13 14:36:04.787931,-106.0
2023-12-13 14:36:04.795621,-78.0
2023-12-13 14:36:04.803310,125.0
2023-12-13 14:36:04.810999,584.0
2023-12-13 14:36:04.818688,862.0
2023-12-13 14:36:04.826377,346.0
2023-12-13 14:36:04.834066,-567.0
2023-12-13 14:36:04.841756,-815.0
2023-12-13 14:36:04.849445,-411.0
2023-12-13 14:36:04.857134,-190.0
2023-12-13 14:36:04.864823,-211.0
2023-12-13 14:36:04.872512,-163.0
2023-12-13 14:36:04.880201,-121.0
2023-12-13 14:36:04.887891,-149.0
2023-12-13 14:36:04.895580,-156.0
2023-12-13 14:36:04.903269,-133.0
2023-12-13 14:36:04.910958,-121.0
2023-12-13 14:36:04.918647,-109.0
2023-12-13 14:36:04.926336,-95.0
2023-12-13 14:36:04.934026,-85.0
2023-12-13 14:36:04.941715,-78.0
2023-12-13 14:36:04.949404,-64.0
2023-12-13 14:36:04.957093,-42.0
2023-12-13 14:36:04.964782,-23.0
2023-12-13 14:36:04.972471,-9.0
2023-12-13 14:36:04.980161,7.0
2023-12-13 14:36:04.987850,35.0
2023-12-13 14:36:04.995539,66.0
2023-12-13 14:36:05.003228,97.0
2023-12-13 14:36:05.010917,135.0
2023-12-13 14:36:05.018606,175.0
2023-12-13 14:36:05.026296,199.0
2023-12-13 14:36:05.033985,211.0
2023-12-13 14:36:05.041674,213.0
2023-12-13 14:36:05.049363,209.0
2023-12-13 14:36:05.057052,199.0
2023-12-13 14:36:05.064741,168.0
2023-12-13 14:36:05.072431,97.0
2023-12-13 14:36:05.080120,7.0
2023-12-13 14:36:05.087809,-76.0
2023-12-13 14:36:05.095498,-142.0
2023-12-13 14:36:05.103187,-192.0
2023-12-13 14:36:05.110876,-218.0
2023-12-13 14:36:05.118566,-230.0
2023-12-13 14:36:05.126255,-237.0
2023-12-13 14:36:05.133944,-235.0
2023-12-13 14:36:05.141633,-230.0
2023-12-13 14:36:05.149322,-225.0
2023-12-13 14:36:05.157011,-223.0
2023-12-13 14:36:05.164701,-213.0
2023-12-13 14:36:05.172390,-204.0
2023-12-13 14:36:05.180079,-197.0
2023-12-13 14:36:05.187768,-185.0
2023-12-13 14:36:05.195457,-171.0
2023-12-13 14:36:05.203146,-163.0
2023-12-13 14:36:05.210836,-159.0
2023-12-13 14:36:05.218525,-149.0
2023-12-13 14:36:05.226214,-142.0
2023-12-13 14:36:05.233903,-137.0
2023-12-13 14:36:05.241592,-128.0
2023-12-13 14:36:05.249281,-121.0
2023-12-13 14:36:05.256971,-116.0
2023-12-13 14:36:05.264660,-111.0
2023-12-13 14:36:05.272349,-109.0
2023-12-13 14:36:05.280038,-109.0
2023-12-13 14:36:05.287727,-114.0
2023-12-13 14:36:05.295416,-128.0
2023-12-13 14:36:05.303106,-142.0
2023-12-13 14:36:05.310795,-144.0
2023-12-13 14:36:05.318484,-137.0
2023-12-13 14:36:05.326173,-128.0
2023-12-13 14:36:05.333862,-114.0
2023-12-13 14:36:05.341552,-97.0
2023-12-13 14:36:05.349241,-80.0
2023-12-13 14:36:05.356930,-64.0
2023-12-13 14:36:05.364619,-59.0
2023-12-13 14:36:05.372308,-80.0
2023-12-13 14:36:05.379997,-109.0
2023-12-13 14:36:05.387687,-116.0
2023-12-13 14:36:05.395376,-111.0
2023-12-13 14:36:05.403065,-106.0
2023-12-13 14:36:05.410754,-102.0
2023-12-13 14:36:05.418443,-92.0
2023-12-13 14:36:05.426132,-80.0
2023-12-13 14:36:05.433822,-73.0
2023-12-13 14:36:05.441511,-33.0
2023-12-13 14:36:05.449200,178.0
2023-12-13 14:36:05.456889,634.0
2023-12-13 14:36:05.464578,969.0
2023-12-13 14:36:05.472267,584.0
2023-12-13 14:36:05.479957,-325.0
2023-12-13 14:36:05.487646,-724.0
2023-12-13 14:36:05.495335,-380.0
2023-12-13 14:36:05.503024,-90.0
2023-12-13 14:36:05.510713,-106.0
2023-12-13 14:36:05.518402,-95.0
2023-12-13 14:36:05.526092,-42.0
2023-12-13 14:36:05.533781,-57.0
2023-12-13 14:36:05.541470,-61.0
2023-12-13 14:36:05.549159,-38.0
2023-12-13 14:36:05.556848,-30.0
2023-12-13 14:36:05.564537,-30.0
2023-12-13 14:36:05.572227,-19.0
2023-12-13 14:36:05.579916,-4.0
2023-12-13 14:36:05.587605,2.0
2023-12-13 14:36:05.595294,11.0
2023-12-13 14:36:05.602983,26.0
2023-12-13 14:36:05.610672,40.0
2023-12-13 14:36:05.618362,52.0
2023-12-13 14:36:05.626051,73.0
2023-12-13 14:36:05.633740,97.0
2023-12-13 14:36:05.641429,116.0
2023-12-13 14:36:05.649118,144.0
2023-12-13 14:36:05.656807,175.0
2023-12-13 14:36:05.664497,199.0
2023-12-13 14:36:05.672186,225.0
2023-12-13 14:36:05.679875,249.0
2023-12-13 14:36:05.687564,259.0
2023-12-13 14:36:05.695253,261.0
2023-12-13 14:36:05.702942,251.0
2023-12-13 14:36:05.710632,218.0
2023-12-13 14:36:05.718321,156.0
2023-12-13 14:36:05.726010,73.0
2023-12-13 14:36:05.733699,-16.0
2023-12-13 14:36:05.741388,-87.0
2023-12-13 14:36:05.749077,-135.0
2023-12-13 14:36:05.756767,-166.0
2023-12-13 14:36:05.764456,-182.0
2023-12-13 14:36:05.772145,-190.0
2023-12-13 14:36:05.779834,-197.0
2023-12-13 14:36:05.787523,-204.0
2023-12-13 14:36:05.795212,-199.0
2023-12-13 14:36:05.802902,-192.0
2023-12-13 14:36:05.810591,-185.0
2023-12-13 14:36:05.818280,-180.0
2023-12-13 14:36:05.825969,-175.0
2023-12-13 14:36:05.833658,-180.0
2023-12-13 14:36:05.841347,-190.0
2023-12-13 14:36:05.849037,-180.0
2023-12-13 14:36:05.856726,-166.0
2023-12-13 14:36:05.864415,-161.0
2023-12-13 14:36:05.872104,-159.0
2023-12-13 14:36:05.879793,-156.0
2023-12-13 14:36:05.887482,-159.0
2023-12-13 14:36:05.895172,-154.0
2023-12-13 14:36:05.902861,-140.0
2023-12-13 14:36:05.910550,-137.0
2023-12-13 14:36:05.918239,-140.0
2023-12-13 14:36:05.925928,-137.0
2023-12-13 14:36:05.933617,-133.0
2023-12-13 14:36:05.941307,-125.0
2023-12-13 14:36:05.948996,-121.0
2023-12-13 14:36:05.956685,-121.0
2023-12-13 14:36:05.964374,-123.0
2023-12-13 14:36:05.972063,-125.0
2023-12-13 14:36:05.979752,-125.0
2023-12-13 14:36:05.987442,-121.0
2023-12-13 14:36:05.995131,-109.0
2023-12-13 14:36:06.002820,-92.0
2023-12-13 14:36:06.010509,-76.0
2023-12-13 14:36:06.018198,-61.0
2023-12-13 14:36:06.025887,-52.0
2023-12-13 14:36:06.033577,-54.0
2023-12-13 14:36:06.041266,-71.0
2023-12-13 14:36:06.048955,-87.0
2023-12-13 14:36:06.056644,-95.0
2023-12-13 14:36:06.064333,-95.0
2023-12-13 14:36:06.072022,-90.0
2023-12-13 14:36:06.079712,-78.0
2023-12-13 14:36:06.087401,-71.0
2023-12-13 14:36:06.095090,-64.0
2023-12-13 14:36:06.102779,-57.0
2023-12-13 14:36:06.110468,2.0
2023-12-13 14:36:06.118157,273.0
2023-12-13 14:36:06.125847,760.0
2023-12-13 14:36:06.133536,969.0
2023-12-13 14:36:06.141225,406.0
2023-12-13 14:36:06.148914,-475.0
2023-12-13 14:36:06.156603,-674.0
2023-12-13 14:36:06.164292,-266.0
2023-12-13 14:36:06.171982,-61.0
2023-12-13 14:36:06.179671,-99.0
2023-12-13 14:36:06.187360,-64.0
2023-12-13 14:36:06.195049,-26.0
2023-12-13 14:36:06.202738,-45.0
2023-12-13 14:36:06.210427,-33.0
2023-12-13 14:36:06.218117,-9.0
2023-12-13 14:36:06.225806,-7.0
2023-12-13 14:36:06.233495,-4.0
2023-12-13 14:36:06.241184,4.0
2023-12-13 14:36:06.248873,9.0
2023-12-13 14:36:06.256562,21.0
2023-12-13 14:36:06.264252,35.0
2023-12-13 14:36:06.271941,40.0
2023-12-13 14:36:06.279630,42.0
2023-12-13 14:36:06.287319,54.0
2023-12-13 14:36:06.295008,68.0
2023-12-13 14:36:06.302697,90.0
2023-12-13 14:36:06.310387,116.0
2023-12-13 14:36:06.318076,144.0
2023-12-13 14:36:06.325765,173.0
2023-12-13 14:36:06.333454,201.0
2023-12-13 14:36:06.341143,223.0
2023-12-13 14:36:06.348832,240.0
2023-12-13 14:36:06.356522,249.0
2023-12-13 14:36:06.364211,244.0
2023-12-13 14:36:06.371900,228.0
2023-12-13 14:36:06.379589,194.0
2023-12-13 14:36:06.387278,123.0
2023-12-13 14:36:06.394967,33.0
2023-12-13 14:36:06.402657,-42.0
2023-12-13 14:36:06.410346,-109.0
2023-12-13 14:36:06.418035,-173.0
2023-12-13 14:36:06.425724,-223.0
2023-12-13 14:36:06.433413,-237.0
2023-12-13 14:36:06.441102,-232.0
2023-12-13 14:36:06.448792,-235.0
2023-12-13 14:36:06.456481,-240.0
2023-12-13 14:36:06.464170,-237.0
2023-12-13 14:36:06.471859,-232.0
2023-12-13 14:36:06.479548,-225.0
2023-12-13 14:36:06.487237,-213.0
2023-12-13 14:36:06.494927,-201.0
2023-12-13 14:36:06.502616,-192.0
2023-12-13 14:36:06.510305,-187.0
2023-12-13 14:36:06.517994,-187.0
2023-12-13 14:36:06.525683,-182.0
2023-12-13 14:36:06.533372,-171.0
2023-12-13 14:36:06.541062,-159.0
2023-12-13 14:36:06.548751,-154.0
2023-12-13 14:36:06.556440,-152.0
2023-12-13 14:36:06.564129,-149.0
2023-12-13 14:36:06.571818,-144.0
2023-12-13 14:36:06.579507,-133.0
2023-12-13 14:36:06.587197,-125.0
2023-12-13 14:36:06.594886,-123.0
2023-12-13 14:36:06.602575,-123.0
2023-12-13 14:36:06.610264,-125.0
2023-12-13 14:36:06.617953,-118.0
2023-12-13 14:36:06.625642,-111.0
2023-12-13 14:36:06.633332,-114.0
2023-12-13 14:36:06.641021,-118.0
2023-12-13 14:36:06.648710,-114.0
2023-12-13 14:36:06.656399,-102.0
2023-12-13 14:36:06.664088,-83.0
2023-12-13 14:36:06.671777,-61.0
2023-12-13 14:36:06.679467,-45.0
2023-12-13 14:36:06.687156,-35.0
2023-12-13 14:36:06.694845,-49.0
2023-12-13 14:36:06.702534,-73.0
2023-12-13 14:36:06.710223,-83.0
2023-12-13 14:36:06.717912,-83.0
2023-12-13 14:36:06.725602,-83.0
2023-12-13 14:36:06.733291,-83.0
2023-12-13 14:36:06.740980,-78.0
2023-12-13 14:36:06.748669,-68.0
2023-12-13 14:36:06.756358,-61.0
2023-12-13 14:36:06.764047,-52.0
2023-12-13 14:36:06.771737,66.0
2023-12-13 14:36:06.779426,446.0
2023-12-13 14:36:06.787115,900.0
2023-12-13 14:36:06.794804,810.0
2023-12-13 14:36:06.802493,2.0
2023-12-13 14:36:06.810182,-677.0
2023-12-13 14:36:06.817872,-544.0
2023-12-13 14:36:06.825561,-152.0
2023-12-13 14:36:06.833250,-92.0
2023-12-13 14:36:06.840939,-118.0
2023-12-13 14:36:06.848628,-54.0
2023-12-13 14:36:06.856317,-42.0
2023-12-13 14:36:06.864007,-57.0
2023-12-13 14:36:06.871696,-38.0
2023-12-13 14:36:06.879385,-30.0
2023-12-13 14:36:06.887074,-42.0
2023-12-13 14:36:06.894763,-40.0
2023-12-13 14:36:06.902452,-23.0
2023-12-13 14:36:06.910142,-14.0
2023-12-13 14:36:06.917831,-11.0
2023-12-13 14:36:06.925520,-4.0
2023-12-13 14:36:06.933209,2.0
2023-12-13 14:36:06.940898,16.0
2023-12-13 14:36:06.948587,35.0
2023-12-13 14:36:06.956277,47.0
2023-12-13 14:36:06.963966,49.0
2023-12-13 14:36:06.971655,64.0
2023-12-13 14:36:06.979344,95.0
2023-12-13 14:36:06.987033,125.0
2023-12-13 14:36:06.994722,154.0
2023-12-13 14:36:07.002412,178.0
2023-12-13 14:36:07.010101,190.0
2023-12-13 14:36:07.017790,192.0
2023-12-13 14:36:07.025479,190.0
2023-12-13 14:36:07.033168,175.0
2023-12-13 14:36:07.040857,133.0
2023-12-13 14:36:07.048547,54.0
2023-12-13 14:36:07.056236,-30.0
2023-12-13 14:36:07.063925,-102.0
2023-12-13 14:36:07.071614,-159.0
2023-12-13 14:36:07.079303,-199.0
2023-12-13 14:36:07.086992,-223.0
2023-12-13 14:36:07.094682,-232.0
2023-12-13 14:36:07.102371,-232.0
2023-12-13 14:36:07.110060,-230.0
2023-12-13 14:36:07.117749,-230.0
2023-12-13 14:36:07.125438,-225.0
2023-12-13 14:36:07.133127,-213.0
2023-12-13 14:36:07.140817,-204.0
2023-12-13 14:36:07.148506,-201.0
2023-12-13 14:36:07.156195,-194.0
2023-12-13 14:36:07.163884,-187.0
2023-12-13 14:36:07.171573,-178.0
2023-12-13 14:36:07.179262,-168.0
2023-12-13 14:36:07.186952,-161.0
2023-12-13 14:36:07.194641,-154.0
2023-12-13 14:36:07.202330,-149.0
2023-12-13 14:36:07.210019,-144.0
2023-12-13 14:36:07.217708,-137.0
2023-12-13 14:36:07.225397,-130.0
2023-12-13 14:36:07.233087,-130.0
2023-12-13 14:36:07.240776,-125.0
2023-12-13 14:36:07.248465,-118.0
2023-12-13 14:36:07.256154,-128.0
2023-12-13 14:36:07.263843,-137.0
2023-12-13 14:36:07.271532,-130.0
2023-12-13 14:36:07.279222,-121.0
2023-12-13 14:36:07.286911,-121.0
2023-12-13 14:36:07.294600,-123.0
2023-12-13 14:36:07.302289,-125.0
2023-12-13 14:36:07.309978,-123.0
2023-12-13 14:36:07.317667,-111.0
2023-12-13 14:36:07.325357,-92.0
2023-12-13 14:36:07.333046,-71.0
2023-12-13 14:36:07.340735,-59.0
2023-12-13 14:36:07.348424,-52.0
2023-12-13 14:36:07.356113,-59.0
2023-12-13 14:36:07.363802,-80.0
2023-12-13 14:36:07.371492,-95.0
2023-12-13 14:36:07.379181,-95.0
2023-12-13 14:36:07.386870,-95.0
2023-12-13 14:36:07.394559,-106.0
2023-12-13 14:36:07.402248,-109.0
2023-12-13 14:36:07.409937,-95.0
2023-12-13 14:36:07.417627,-85.0
2023-12-13 14:36:07.425316,-78.0
2023-12-13 14:36:07.433005,23.0
2023-12-13 14:36:07.440694,375.0
2023-12-13 14:36:07.448383,843.0
2023-12-13 14:36:07.456072,812.0
2023-12-13 14:36:07.463762,16.0
2023-12-13 14:36:07.471451,-708.0
2023-12-13 14:36:07.479140,-603.0
2023-12-13 14:36:07.486829,-190.0
2023-12-13 14:36:07.494518,-109.0
2023-12-13 14:36:07.502207,-140.0
2023-12-13 14:36:07.509897,-80.0
2023-12-13 14:36:07.517586,-61.0
2023-12-13 14:36:07.525275,-73.0
2023-12-13 14:36:07.532964,-54.0
2023-12-13 14:36:07.540653,-47.0
2023-12-13 14:36:07.548343,-68.0
2023-12-13 14:36:07.556032,-71.0
2023-12-13 14:36:07.563721,-47.0
2023-12-13 14:36:07.571410,-33.0
2023-12-13 14:36:07.579099,-38.0
2023-12-13 14:36:07.586788,-30.0
2023-12-13 14:36:07.594478,-14.0
2023-12-13 14:36:07.602167,-2.0
2023-12-13 14:36:07.609856,14.0
2023-12-13 14:36:07.617545,30.0
2023-12-13 14:36:07.625234,47.0
2023-12-13 14:36:07.632923,68.0
2023-12-13 14:36:07.640613,99.0
2023-12-13 14:36:07.648302,130.0
2023-12-13 14:36:07.655991,156.0
2023-12-13 14:36:07.663680,182.0
2023-12-13 14:36:07.671369,194.0
2023-12-13 14:36:07.679058,197.0
2023-12-13 14:36:07.686748,194.0
2023-12-13 14:36:07.694437,178.0
2023-12-13 14:36:07.702126,140.0
2023-12-13 14:36:07.709815,66.0
2023-12-13 14:36:07.717504,-21.0
2023-12-13 14:36:07.725193,-97.0
2023-12-13 14:36:07.732883,-156.0
2023-12-13 14:36:07.740572,-201.0
2023-12-13 14:36:07.748261,-228.0
2023-12-13 14:36:07.755950,-249.0
2023-12-13 14:36:07.763639,-256.0
2023-12-13 14:36:07.771328,-251.0
2023-12-13 14:36:07.779018,-247.0
2023-12-13 14:36:07.786707,-240.0
2023-12-13 14:36:07.794396,-230.0
2023-12-13 14:36:07.802085,-225.0
2023-12-13 14:36:07.809774,-220.0
2023-12-13 14:36:07.817463,-211.0
2023-12-13 14:36:07.825153,-201.0
2023-12-13 14:36:07.832842,-190.0
2023-12-13 14:36:07.840531,-178.0
2023-12-13 14:36:07.848220,-173.0
2023-12-13 14:36:07.855909,-166.0
2023-12-13 14:36:07.863598,-159.0
2023-12-13 14:36:07.871288,-152.0
2023-12-13 14:36:07.878977,-144.0
2023-12-13 14:36:07.886666,-137.0
2023-12-13 14:36:07.894355,-140.0
2023-12-13 14:36:07.902044,-152.0
2023-12-13 14:36:07.909733,-156.0
2023-12-13 14:36:07.917423,-142.0
2023-12-13 14:36:07.925112,-137.0
2023-12-13 14:36:07.932801,-144.0
2023-12-13 14:36:07.940490,-147.0
2023-12-13 14:36:07.948179,-142.0
2023-12-13 14:36:07.955868,-133.0
2023-12-13 14:36:07.963558,-114.0
2023-12-13 14:36:07.971247,-95.0
2023-12-13 14:36:07.978936,-76.0
2023-12-13 14:36:07.986625,-66.0
2023-12-13 14:36:07.994314,-78.0
2023-12-13 14:36:08.002003,-104.0
2023-12-13 14:36:08.009693,-114.0
2023-12-13 14:36:08.017382,-109.0
2023-12-13 14:36:08.025071,-104.0
2023-12-13 14:36:08.032760,-104.0
2023-12-13 14:36:08.040449,-114.0
2023-12-13 14:36:08.048138,-118.0
2023-12-13 14:36:08.055828,-104.0
2023-12-13 14:36:08.063517,-76.0
2023-12-13 14:36:08.071206,68.0
2023-12-13 14:36:08.078895,484.0
2023-12-13 14:36:08.086584,912.0
2023-12-13 14:36:08.094273,684.0
2023-12-13 14:36:08.101963,-213.0
2023-12-13 14:36:08.109652,-760.0
2023-12-13 14:36:08.117341,-477.0
2023-12-13 14:36:08.125030,-128.0
2023-12-13 14:36:08.132719,-128.0
2023-12-13 14:36:08.140408,-121.0
2023-12-13 14:36:08.148098,-47.0
2023-12-13 14:36:08.155787,-54.0
2023-12-13 14:36:08.163476,-61.0
2023-12-13 14:36:08.171165,-35.0
2023-12-13 14:36:08.178854,-33.0
2023-12-13 14:36:08.186543,-35.0
2023-12-13 14:36:08.194233,-19.0
2023-12-13 14:36:08.201922,-4.0
2023-12-13 14:36:08.209611,0.0
2023-12-13 14:36:08.217300,7.0
2023-12-13 14:36:08.224989,14.0
2023-12-13 14:36:08.232678,21.0
2023-12-13 14:36:08.240368,33.0
2023-12-13 14:36:08.248057,45.0
2023-12-13 14:36:08.255746,66.0
2023-12-13 14:36:08.263435,90.0
2023-12-13 14:36:08.271124,111.0
2023-12-13 14:36:08.278813,137.0
2023-12-13 14:36:08.286503,168.0
2023-12-13 14:36:08.294192,194.0
2023-12-13 14:36:08.301881,213.0
2023-12-13 14:36:08.309570,218.0
2023-12-13 14:36:08.317259,213.0
2023-12-13 14:36:08.324948,206.0
2023-12-13 14:36:08.332638,185.0
2023-12-13 14:36:08.340327,130.0
2023-12-13 14:36:08.348016,52.0
2023-12-13 14:36:08.355705,-33.0
2023-12-13 14:36:08.363394,-109.0
2023-12-13 14:36:08.371083,-156.0
2023-12-13 14:36:08.378773,-185.0
2023-12-13 14:36:08.386462,-201.0
2023-12-13 14:36:08.394151,-206.0
2023-12-13 14:36:08.401840,-211.0
2023-12-13 14:36:08.409529,-223.0
2023-12-13 14:36:08.417218,-223.0
2023-12-13 14:36:08.424908,-209.0
2023-12-13 14:36:08.432597,-206.0
2023-12-13 14:36:08.440286,-206.0
2023-12-13 14:36:08.447975,-201.0
2023-12-13 14:36:08.455664,-192.0
2023-12-13 14:36:08.463353,-182.0
2023-12-13 14:36:08.471043,-173.0
2023-12-13 14:36:08.478732,-163.0
2023-12-13 14:36:08.486421,-156.0
2023-12-13 14:36:08.494110,-156.0
2023-12-13 14:36:08.501799,-152.0
2023-12-13 14:36:08.509488,-140.0
2023-12-13 14:36:08.517178,-128.0
2023-12-13 14:36:08.524867,-123.0
2023-12-13 14:36:08.532556,-123.0
2023-12-13 14:36:08.540245,-123.0
2023-12-13 14:36:08.547934,-118.0
2023-12-13 14:36:08.555623,-114.0
2023-12-13 14:36:08.563313,-109.0
2023-12-13 14:36:08.571002,-104.0
2023-12-13 14:36:08.578691,-99.0
2023-12-13 14:36:08.586380,-106.0
2023-12-13 14:36:08.594069,-114.0
2023-12-13 14:36:08.601758,-104.0
2023-12-13 14:36:08.609448,-92.0
2023-12-13 14:36:08.617137,-78.0
2023-12-13 14:36:08.624826,-73.0
2023-12-13 14:36:08.632515,-76.0
2023-12-13 14:36:08.640204,-64.0
2023-12-13 14:36:08.647893,-57.0
2023-12-13 14:36:08.655583,-73.0
2023-12-13 14:36:08.663272,-92.0
2023-12-13 14:36:08.670961,-97.0
2023-12-13 14:36:08.678650,-99.0
2023-12-13 14:36:08.686339,-95.0
2023-12-13 14:36:08.694028,-83.0
2023-12-13 14:36:08.701718,-73.0
2023-12-13 14:36:08.709407,-66.0
2023-12-13 14:36:08.717096,-57.0
2023-12-13 14:36:08.724785,23.0
2023-12-13 14:36:08.732474,335.0
2023-12-13 14:36:08.740163,812.0
2023-12-13 14:36:08.747853,922.0
2023-12-13 14:36:08.755542,263.0
2023-12-13 14:36:08.763231,-567.0
2023-12-13 14:36:08.770920,-646.0
2023-12-13 14:36:08.778609,-228.0
2023-12-13 14:36:08.786298,-76.0
2023-12-13 14:36:08.793988,-118.0
2023-12-13 14:36:08.801677,-73.0
2023-12-13 14:36:08.809366,-42.0
2023-12-13 14:36:08.817055,-61.0
2023-12-13 14:36:08.824744,-52.0
2023-12-13 14:36:08.832433,-28.0
2023-12-13 14:36:08.840123,-23.0
2023-12-13 14:36:08.847812,-19.0
2023-12-13 14:36:08.855501,-9.0
2023-12-13 14:36:08.863190,-2.0
2023-12-13 14:36:08.870879,2.0
2023-12-13 14:36:08.878568,9.0
2023-12-13 14:36:08.886258,23.0
2023-12-13 14:36:08.893947,38.0
2023-12-13 14:36:08.901636,49.0
2023-12-13 14:36:08.909325,64.0
2023-12-13 14:36:08.917014,71.0
2023-12-13 14:36:08.924703,80.0
2023-12-13 14:36:08.932393,104.0
2023-12-13 14:36:08.940082,135.0
2023-12-13 14:36:08.947771,156.0
2023-12-13 14:36:08.955460,180.0
2023-12-13 14:36:08.963149,199.0
2023-12-13 14:36:08.970838,209.0
2023-12-13 14:36:08.978528,209.0
2023-12-13 14:36:08.986217,187.0
2023-12-13 14:36:08.993906,147.0
2023-12-13 14:36:09.001595,87.0
2023-12-13 14:36:09.009284,4.0
2023-12-13 14:36:09.016973,-73.0
2023-12-13 14:36:09.024663,-133.0
2023-12-13 14:36:09.032352,-180.0
2023-12-13 14:36:09.040041,-206.0
2023-12-13 14:36:09.047730,-216.0
2023-12-13 14:36:09.055419,-220.0
2023-12-13 14:36:09.063108,-218.0
2023-12-13 14:36:09.070798,-213.0
2023-12-13 14:36:09.078487,-211.0
2023-12-13 14:36:09.086176,-204.0
2023-12-13 14:36:09.093865,-192.0
2023-12-13 14:36:09.101554,-187.0
2023-12-13 14:36:09.109243,-182.0
2023-12-13 14:36:09.116933,-173.0
2023-12-13 14:36:09.124622,-168.0
2023-12-13 14:36:09.132311,-159.0
2023-12-13 14:36:09.140000,-152.0
2023-12-13 14:36:09.147689,-147.0
2023-12-13 14:36:09.155378,-140.0
2023-12-13 14:36:09.163068,-133.0
2023-12-13 14:36:09.170757,-133.0
2023-12-13 14:36:09.178446,-125.0
2023-12-13 14:36:09.186135,-118.0
2023-12-13 14:36:09.193824,-116.0
2023-12-13 14:36:09.201513,-116.0
2023-12-13 14:36:09.209203,-123.0
2023-12-13 14:36:09.216892,-137.0
2023-12-13 14:36:09.224581,-137.0
2023-12-13 14:36:09.232270,-137.0
2023-12-13 14:36:09.239959,-147.0
2023-12-13 14:36:09.247648,-142.0
2023-12-13 14:36:09.255338,-133.0
2023-12-13 14:36:09.263027,-123.0
2023-12-13 14:36:09.270716,-102.0
2023-12-13 14:36:09.278405,-80.0
2023-12-13 14:36:09.286094,-68.0
2023-12-13 14:36:09.293783,-59.0
2023-12-13 14:36:09.301473,-71.0
2023-12-13 14:36:09.309162,-95.0
2023-12-13 14:36:09.316851,-102.0
2023-12-13 14:36:09.324540,-102.0
2023-12-13 14:36:09.332229,-99.0
2023-12-13 14:36:09.339918,-92.0
2023-12-13 14:36:09.347608,-85.0
2023-12-13 14:36:09.355297,-78.0
2023-12-13 14:36:09.362986,-66.0
2023-12-13 14:36:09.370675,-42.0
2023-12-13 14:36:09.378364,116.0
2023-12-13 14:36:09.386053,546.0
2023-12-13 14:36:09.393743,955.0
2023-12-13 14:36:09.401432,708.0
2023-12-13 14:36:09.409121,-171.0
2023-12-13 14:36:09.416810,-727.0
2023-12-13 14:36:09.424499,-487.0
2023-12-13 14:36:09.432188,-140.0
2023-12-13 14:36:09.439878,-121.0
2023-12-13 14:36:09.447567,-130.0
2023-12-13 14:36:09.455256,-68.0
2023-12-13 14:36:09.462945,-66.0
2023-12-13 14:36:09.470634,-80.0
2023-12-13 14:36:09.478323,-66.0
2023-12-13 14:36:09.486013,-59.0
2023-12-13 14:36:09.493702,-54.0
2023-12-13 14:36:09.501391,-38.0
2023-12-13 14:36:09.509080,-30.0
2023-12-13 14:36:09.516769,-26.0
2023-12-13 14:36:09.524458,-21.0
2023-12-13 14:36:09.532148,-11.0
2023-12-13 14:36:09.539837,4.0
2023-12-13 14:36:09.547526,21.0
2023-12-13 14:36:09.555215,35.0
2023-12-13 14:36:09.562904,54.0
2023-12-13 14:36:09.570593,76.0
2023-12-13 14:36:09.578283,97.0
2023-12-13 14:36:09.585972,125.0
2023-12-13 14:36:09.593661,154.0
2023-12-13 14:36:09.601350,182.0
2023-12-13 14:36:09.609039,201.0
2023-12-13 14:36:09.616728,216.0
2023-12-13 14:36:09.624418,223.0
2023-12-13 14:36:09.632107,216.0
2023-12-13 14:36:09.639796,194.0
2023-12-13 14:36:09.647485,140.0
2023-12-13 14:36:09.655174,59.0
2023-12-13 14:36:09.662863,-26.0
2023-12-13 14:36:09.670553,-97.0
2023-12-13 14:36:09.678242,-149.0
2023-12-13 14:36:09.685931,-182.0
2023-12-13 14:36:09.693620,-201.0
2023-12-13 14:36:09.701309,-213.0
2023-12-13 14:36:09.708998,-218.0
2023-12-13 14:36:09.716688,-216.0
2023-12-13 14:36:09.724377,-218.0
2023-12-13 14:36:09.732066,-216.0
2023-12-13 14:36:09.739755,-211.0
2023-12-13 14:36:09.747444,-216.0
2023-12-13 14:36:09.755134,-228.0
2023-12-13 14:36:09.762823,-220.0
2023-12-13 14:36:09.770512,-201.0
2023-12-13 14:36:09.778201,-190.0
2023-12-13 14:36:09.785890,-187.0
2023-12-13 14:36:09.793579,-192.0
2023-12-13 14:36:09.801269,-199.0
2023-12-13 14:36:09.808958,-192.0
2023-12-13 14:36:09.816647,-175.0
2023-12-13 14:36:09.824336,-168.0
2023-12-13 14:36:09.832025,-161.0
2023-12-13 14:36:09.839714,-156.0
2023-12-13 14:36:09.847404,-159.0
2023-12-13 14:36:09.855093,-154.0
2023-12-13 14:36:09.862782,-144.0
2023-12-13 14:36:09.870471,-140.0
2023-12-13 14:36:09.878160,-135.0
2023-12-13 14:36:09.885849,-140.0
2023-12-13 14:36:09.893539,-144.0
2023-12-13 14:36:09.901228,-137.0
2023-12-13 14:36:09.908917,-125.0
2023-12-13 14:36:09.916606,-116.0
2023-12-13 14:36:09.924295,-114.0
2023-12-13 14:36:09.931984,-106.0
2023-12-13 14:36:09.939674,-85.0
2023-12-13 14:36:09.947363,-68.0
2023-12-13 14:36:09.955052,-85.0
2023-12-13 14:36:09.962741,-111.0
2023-12-13 14:36:09.970430,-125.0
2023-12-13 14:36:09.978119,-128.0
2023-12-13 14:36:09.985809,-123.0
2023-12-13 14:36:09.993498,-114.0
2023-12-13 14:36:10.001187,-104.0
2023-12-13 14:36:10.008876,-90.0
2023-12-13 14:36:10.016565,-83.0
2023-12-13 14:36:10.024254,-66.0
2023-12-13 14:36:10.031944,109.0
2023-12-13 14:36:10.039633,556.0
2023-12-13 14:36:10.047322,945.0
2023-12-13 14:36:10.055011,651.0
2023-12-13 14:36:10.062700,-244.0
2023-12-13 14:36:10.070389,-741.0
2023-12-13 14:36:10.078079,-449.0
2023-12-13 14:36:10.085768,-116.0
2023-12-13 14:36:10.093457,-111.0
2023-12-13 14:36:10.101146,-111.0
2023-12-13 14:36:10.108835,-54.0
2023-12-13 14:36:10.116524,-64.0
2023-12-13 14:36:10.124214,-68.0
2023-12-13 14:36:10.131903,-40.0
2023-12-13 14:36:10.139592,-33.0
2023-12-13 14:36:10.147281,-28.0
2023-12-13 14:36:10.154970,-16.0
2023-12-13 14:36:10.162659,-16.0
2023-12-13 14:36:10.170349,-9.0
2023-12-13 14:36:10.178038,4.0
2023-12-13 14:36:10.185727,14.0
2023-12-13 14:36:10.193416,21.0
2023-12-13 14:36:10.201105,35.0
2023-12-13 14:36:10.208794,45.0
2023-12-13 14:36:10.216484,57.0
2023-12-13 14:36:10.224173,83.0
2023-12-13 14:36:10.231862,116.0
2023-12-13 14:36:10.239551,142.0
2023-12-13 14:36:10.247240,166.0
2023-12-13 14:36:10.254929,190.0
2023-12-13 14:36:10.262619,209.0
2023-12-13 14:36:10.270308,218.0
2023-12-13 14:36:10.277997,223.0
2023-12-13 14:36:10.285686,218.0
2023-12-13 14:36:10.293375,187.0
2023-12-13 14:36:10.301064,123.0
2023-12-13 14:36:10.308754,40.0
2023-12-13 14:36:10.316443,-38.0
2023-12-13 14:36:10.324132,-104.0
2023-12-13 14:36:10.331821,-168.0
2023-12-13 14:36:10.339510,-230.0
2023-12-13 14:36:10.347199,-263.0
2023-12-13 14:36:10.354889,-249.0
2023-12-13 14:36:10.362578,-230.0
2023-12-13 14:36:10.370267,-237.0
2023-12-13 14:36:10.377956,-242.0
2023-12-13 14:36:10.385645,-235.0
2023-12-13 14:36:10.393334,-232.0
2023-12-13 14:36:10.401024,-225.0
2023-12-13 14:36:10.408713,-213.0
2023-12-13 14:36:10.416402,-204.0
2023-12-13 14:36:10.424091,-206.0
2023-12-13 14:36:10.431780,-216.0
2023-12-13 14:36:10.439469,-211.0
2023-12-13 14:36:10.447159,-199.0
2023-12-13 14:36:10.454848,-187.0
2023-12-13 14:36:10.462537,-171.0
2023-12-13 14:36:10.470226,-163.0
2023-12-13 14:36:10.477915,-163.0
2023-12-13 14:36:10.485604,-159.0
2023-12-13 14:36:10.493294,-156.0
2023-12-13 14:36:10.500983,-152.0
2023-12-13 14:36:10.508672,-147.0
2023-12-13 14:36:10.516361,-144.0
2023-12-13 14:36:10.524050,-149.0
2023-12-13 14:36:10.531739,-152.0
2023-12-13 14:36:10.539429,-149.0
2023-12-13 14:36:10.547118,-137.0
2023-12-13 14:36:10.554807,-123.0
2023-12-13 14:36:10.562496,-109.0
2023-12-13 14:36:10.570185,-92.0
2023-12-13 14:36:10.577874,-76.0
2023-12-13 14:36:10.585564,-68.0
2023-12-13 14:36:10.593253,-83.0
2023-12-13 14:36:10.600942,-99.0
2023-12-13 14:36:10.608631,-106.0
2023-12-13 14:36:10.616320,-109.0
2023-12-13 14:36:10.624009,-111.0
2023-12-13 14:36:10.631699,-106.0
2023-12-13 14:36:10.639388,-90.0
2023-12-13 14:36:10.647077,-80.0
2023-12-13 14:36:10.654766,-80.0
2023-12-13 14:36:10.662455,-66.0
2023-12-13 14:36:10.670144,80.0
2023-12-13 14:36:10.677834,501.0
2023-12-13 14:36:10.685523,929.0
2023-12-13 14:36:10.693212,679.0
2023-12-13 14:36:10.700901,-254.0
2023-12-13 14:36:10.708590,-800.0
2023-12-13 14:36:10.716279,-496.0
2023-12-13 14:36:10.723969,-140.0
2023-12-13 14:36:10.731658,-135.0
2023-12-13 14:36:10.739347,-123.0
2023-12-13 14:36:10.747036,-59.0
2023-12-13 14:36:10.754725,-73.0
2023-12-13 14:36:10.762414,-78.0
2023-12-13 14:36:10.770104,-45.0
2023-12-13 14:36:10.777793,-42.0
2023-12-13 14:36:10.785482,-47.0
2023-12-13 14:36:10.793171,-33.0
2023-12-13 14:36:10.800860,-23.0
2023-12-13 14:36:10.808549,-19.0
2023-12-13 14:36:10.816239,0.0
2023-12-13 14:36:10.823928,21.0
2023-12-13 14:36:10.831617,30.0
2023-12-13 14:36:10.839306,40.0
2023-12-13 14:36:10.846995,57.0
2023-12-13 14:36:10.854684,76.0
2023-12-13 14:36:10.862374,99.0
2023-12-13 14:36:10.870063,128.0
2023-12-13 14:36:10.877752,140.0
2023-12-13 14:36:10.885441,161.0
2023-12-13 14:36:10.893130,201.0
2023-12-13 14:36:10.900819,220.0
2023-12-13 14:36:10.908509,218.0
2023-12-13 14:36:10.916198,216.0
2023-12-13 14:36:10.923887,199.0
2023-12-13 14:36:10.931576,154.0
2023-12-13 14:36:10.939265,87.0
2023-12-13 14:36:10.946954,4.0
2023-12-13 14:36:10.954644,-87.0
2023-12-13 14:36:10.962333,-161.0
2023-12-13 14:36:10.970022,-206.0
2023-12-13 14:36:10.977711,-237.0
2023-12-13 14:36:10.985400,-251.0
2023-12-13 14:36:10.993089,-251.0
2023-12-13 14:36:11.000779,-251.0
2023-12-13 14:36:11.008468,-249.0
2023-12-13 14:36:11.016157,-244.0
2023-12-13 14:36:11.023846,-235.0
2023-12-13 14:36:11.031535,-225.0
2023-12-13 14:36:11.039224,-220.0
2023-12-13 14:36:11.046914,-213.0
2023-12-13 14:36:11.054603,-197.0
2023-12-13 14:36:11.062292,-187.0
2023-12-13 14:36:11.069981,-180.0
2023-12-13 14:36:11.077670,-171.0
2023-12-13 14:36:11.085359,-161.0
2023-12-13 14:36:11.093049,-147.0
2023-12-13 14:36:11.100738,-137.0
2023-12-13 14:36:11.108427,-133.0
2023-12-13 14:36:11.116116,-128.0
2023-12-13 14:36:11.123805,-121.0
2023-12-13 14:36:11.131494,-118.0
2023-12-13 14:36:11.139184,-116.0
2023-12-13 14:36:11.146873,-111.0
2023-12-13 14:36:11.154562,-109.0
2023-12-13 14:36:11.162251,-106.0
2023-12-13 14:36:11.169940,-109.0
2023-12-13 14:36:11.177629,-111.0
2023-12-13 14:36:11.185319,-104.0
2023-12-13 14:36:11.193008,-92.0
2023-12-13 14:36:11.200697,-80.0
2023-12-13 14:36:11.208386,-66.0
2023-12-13 14:36:11.216075,-52.0
2023-12-13 14:36:11.223764,-47.0
2023-12-13 14:36:11.231454,-61.0
2023-12-13 14:36:11.239143,-83.0
2023-12-13 14:36:11.246832,-92.0
2023-12-13 14:36:11.254521,-90.0
2023-12-13 14:36:11.262210,-83.0
2023-12-13 14:36:11.269899,-78.0
2023-12-13 14:36:11.277589,-73.0
2023-12-13 14:36:11.285278,-66.0
2023-12-13 14:36:11.292967,-57.0
2023-12-13 14:36:11.300656,-9.0
2023-12-13 14:36:11.308345,218.0
2023-12-13 14:36:11.316034,693.0
2023-12-13 14:36:11.323724,993.0
2023-12-13 14:36:11.331413,529.0
2023-12-13 14:36:11.339102,-382.0
2023-12-13 14:36:11.346791,-701.0
2023-12-13 14:36:11.354480,-323.0
2023-12-13 14:36:11.362169,-71.0
2023-12-13 14:36:11.369859,-104.0
2023-12-13 14:36:11.377548,-83.0
2023-12-13 14:36:11.385237,-35.0
2023-12-13 14:36:11.392926,-45.0
2023-12-13 14:36:11.400615,-42.0
2023-12-13 14:36:11.408304,-30.0
2023-12-13 14:36:11.415994,-45.0
2023-12-13 14:36:11.423683,-57.0
2023-12-13 14:36:11.431372,-45.0
2023-12-13 14:36:11.439061,-45.0
2023-12-13 14:36:11.446750,-54.0
2023-12-13 14:36:11.454439,-42.0
2023-12-13 14:36:11.462129,-23.0
2023-12-13 14:36:11.469818,-9.0
2023-12-13 14:36:11.477507,7.0
2023-12-13 14:36:11.485196,30.0
2023-12-13 14:36:11.492885,57.0
2023-12-13 14:36:11.500574,76.0
2023-12-13 14:36:11.508264,99.0
2023-12-13 14:36:11.515953,133.0
2023-12-13 14:36:11.523642,171.0
2023-12-13 14:36:11.531331,201.0
2023-12-13 14:36:11.539020,218.0
2023-12-13 14:36:11.546709,230.0
2023-12-13 14:36:11.554399,228.0
2023-12-13 14:36:11.562088,211.0
2023-12-13 14:36:11.569777,173.0
2023-12-13 14:36:11.577466,106.0
2023-12-13 14:36:11.585155,14.0
2023-12-13 14:36:11.592844,-73.0
2023-12-13 14:36:11.600534,-140.0
2023-12-13 14:36:11.608223,-180.0
2023-12-13 14:36:11.615912,-204.0
2023-12-13 14:36:11.623601,-218.0
2023-12-13 14:36:11.631290,-225.0
2023-12-13 14:36:11.638979,-225.0
2023-12-13 14:36:11.646669,-223.0
2023-12-13 14:36:11.654358,-216.0
2023-12-13 14:36:11.662047,-209.0
2023-12-13 14:36:11.669736,-199.0
2023-12-13 14:36:11.677425,-194.0
2023-12-13 14:36:11.685114,-192.0
2023-12-13 14:36:11.692804,-190.0
2023-12-13 14:36:11.700493,-182.0
2023-12-13 14:36:11.708182,-168.0
2023-12-13 14:36:11.715871,-159.0
2023-12-13 14:36:11.723560,-161.0
2023-12-13 14:36:11.731249,-159.0
2023-12-13 14:36:11.738939,-152.0
2023-12-13 14:36:11.746628,-137.0
2023-12-13 14:36:11.754317,-130.0
2023-12-13 14:36:11.762006,-125.0
2023-12-13 14:36:11.769695,-123.0
2023-12-13 14:36:11.777384,-125.0
2023-12-13 14:36:11.785074,-121.0
2023-12-13 14:36:11.792763,-114.0
2023-12-13 14:36:11.800452,-111.0
2023-12-13 14:36:11.808141,-106.0
2023-12-13 14:36:11.815830,-111.0
2023-12-13 14:36:11.823519,-121.0
2023-12-13 14:36:11.831209,-116.0
2023-12-13 14:36:11.838898,-97.0
2023-12-13 14:36:11.846587,-80.0
2023-12-13 14:36:11.854276,-61.0
2023-12-13 14:36:11.861965,-45.0
2023-12-13 14:36:11.869654,-42.0
2023-12-13 14:36:11.877344,-54.0
2023-12-13 14:36:11.885033,-66.0
2023-12-13 14:36:11.892722,-78.0
2023-12-13 14:36:11.900411,-87.0
2023-12-13 14:36:11.908100,-92.0
2023-12-13 14:36:11.915789,-92.0
2023-12-13 14:36:11.923479,-85.0
2023-12-13 14:36:11.931168,-78.0
2023-12-13 14:36:11.938857,-83.0
2023-12-13 14:36:11.946546,-76.0
2023-12-13 14:36:11.954235,26.0
2023-12-13 14:36:11.961924,375.0
2023-12-13 14:36:11.969614,860.0
2023-12-13 14:36:11.977303,881.0
2023-12-13 14:36:11.984992,130.0
2023-12-13 14:36:11.992681,-643.0
2023-12-13 14:36:12.000370,-629.0
2023-12-13 14:36:12.008060,-228.0
2023-12-13 14:36:12.015749,-118.0
2023-12-13 14:36:12.023438,-152.0
2023-12-13 14:36:12.031127,-97.0
2023-12-13 14:36:12.038816,-73.0
2023-12-13 14:36:12.046505,-92.0
2023-12-13 14:36:12.054195,-80.0
2023-12-13 14:36:12.061884,-59.0
2023-12-13 14:36:12.069573,-52.0
2023-12-13 14:36:12.077262,-40.0
2023-12-13 14:36:12.084951,-30.0
2023-12-13 14:36:12.092640,-28.0
2023-12-13 14:36:12.100330,-23.0
2023-12-13 14:36:12.108019,-4.0
2023-12-13 14:36:12.115708,11.0
2023-12-13 14:36:12.123397,26.0
2023-12-13 14:36:12.131086,47.0
2023-12-13 14:36:12.138775,64.0
2023-12-13 14:36:12.146465,76.0
2023-12-13 14:36:12.154154,99.0
2023-12-13 14:36:12.161843,135.0
2023-12-13 14:36:12.169532,173.0
2023-12-13 14:36:12.177221,206.0
2023-12-13 14:36:12.184910,225.0
2023-12-13 14:36:12.192600,230.0
2023-12-13 14:36:12.200289,235.0
2023-12-13 14:36:12.207978,237.0
2023-12-13 14:36:12.215667,213.0
2023-12-13 14:36:12.223356,156.0
2023-12-13 14:36:12.231045,78.0
2023-12-13 14:36:12.238735,-11.0
2023-12-13 14:36:12.246424,-87.0
2023-12-13 14:36:12.254113,-144.0
2023-12-13 14:36:12.261802,-185.0
2023-12-13 14:36:12.269491,-211.0
2023-12-13 14:36:12.277180,-220.0
2023-12-13 14:36:12.284870,-225.0
2023-12-13 14:36:12.292559,-223.0
2023-12-13 14:36:12.300248,-216.0
2023-12-13 14:36:12.307937,-209.0
2023-12-13 14:36:12.315626,-206.0
2023-12-13 14:36:12.323315,-204.0
2023-12-13 14:36:12.331005,-197.0
2023-12-13 14:36:12.338694,-190.0
2023-12-13 14:36:12.346383,-180.0
2023-12-13 14:36:12.354072,-168.0
2023-12-13 14:36:12.361761,-166.0
2023-12-13 14:36:12.369450,-166.0
2023-12-13 14:36:12.377140,-154.0
2023-12-13 14:36:12.384829,-144.0
2023-12-13 14:36:12.392518,-142.0
2023-12-13 14:36:12.400207,-142.0
2023-12-13 14:36:12.407896,-137.0
2023-12-13 14:36:12.415585,-133.0
2023-12-13 14:36:12.423275,-133.0
2023-12-13 14:36:12.430964,-142.0
2023-12-13 14:36:12.438653,-154.0
2023-12-13 14:36:12.446342,-156.0
2023-12-13 14:36:12.454031,-147.0
2023-12-13 14:36:12.461720,-147.0
2023-12-13 14:36:12.469410,-156.0
2023-12-13 14:36:12.477099,-152.0
2023-12-13 14:36:12.484788,-135.0
2023-12-13 14:36:12.492477,-121.0
2023-12-13 14:36:12.500166,-104.0
2023-12-13 14:36:12.507855,-83.0
2023-12-13 14:36:12.515545,-71.0
2023-12-13 14:36:12.523234,-76.0
2023-12-13 14:36:12.530923,-90.0
2023-12-13 14:36:12.538612,-102.0
2023-12-13 14:36:12.546301,-111.0
2023-12-13 14:36:12.553990,-111.0
2023-12-13 14:36:12.561680,-106.0
2023-12-13 14:36:12.569369,-97.0
2023-12-13 14:36:12.577058,-92.0
2023-12-13 14:36:12.584747,-97.0
2023-12-13 14:36:12.592436,-104.0
2023-12-13 14:36:12.600125,-54.0
2023-12-13 14:36:12.607815,211.0
2023-12-13 14:36:12.615504,703.0
2023-12-13 14:36:12.623193,943.0
2023-12-13 14:36:12.630882,387.0
2023-12-13 14:36:12.638571,-513.0
2023-12-13 14:36:12.646260,-724.0
2023-12-13 14:36:12.653950,-316.0
2023-12-13 14:36:12.661639,-106.0
2023-12-13 14:36:12.669328,-142.0
2023-12-13 14:36:12.677017,-109.0
2023-12-13 14:36:12.684706,-68.0
2023-12-13 14:36:12.692395,-83.0
2023-12-13 14:36:12.700085,-76.0
2023-12-13 14:36:12.707774,-52.0
2023-12-13 14:36:12.715463,-45.0
2023-12-13 14:36:12.723152,-42.0
2023-12-13 14:36:12.730841,-33.0
2023-12-13 14:36:12.738530,-28.0
2023-12-13 14:36:12.746220,-19.0
2023-12-13 14:36:12.753909,-4.0
2023-12-13 14:36:12.761598,11.0
2023-12-13 14:36:12.769287,21.0
2023-12-13 14:36:12.776976,38.0
2023-12-13 14:36:12.784665,61.0
2023-12-13 14:36:12.792355,80.0
2023-12-13 14:36:12.800044,102.0
2023-12-13 14:36:12.807733,130.0
2023-12-13 14:36:12.815422,163.0
2023-12-13 14:36:12.823111,199.0
2023-12-13 14:36:12.830800,228.0
2023-12-13 14:36:12.838490,242.0
2023-12-13 14:36:12.846179,254.0
2023-12-13 14:36:12.853868,254.0
2023-12-13 14:36:12.861557,235.0
2023-12-13 14:36:12.869246,190.0
2023-12-13 14:36:12.876935,114.0
2023-12-13 14:36:12.884625,19.0
2023-12-13 14:36:12.892314,-68.0
2023-12-13 14:36:12.900003,-135.0
2023-12-13 14:36:12.907692,-185.0
2023-12-13 14:36:12.915381,-213.0
2023-12-13 14:36:12.923070,-230.0
2023-12-13 14:36:12.930760,-242.0
2023-12-13 14:36:12.938449,-242.0
2023-12-13 14:36:12.946138,-242.0
2023-12-13 14:36:12.953827,-249.0
2023-12-13 14:36:12.961516,-244.0
2023-12-13 14:36:12.969205,-232.0
2023-12-13 14:36:12.976895,-228.0
2023-12-13 14:36:12.984584,-223.0
2023-12-13 14:36:12.992273,-216.0
2023-12-13 14:36:12.999962,-206.0
2023-12-13 14:36:13.007651,-192.0
2023-12-13 14:36:13.015340,-182.0
2023-12-13 14:36:13.023030,-178.0
2023-12-13 14:36:13.030719,-171.0
2023-12-13 14:36:13.038408,-168.0
2023-12-13 14:36:13.046097,-159.0
2023-12-13 14:36:13.053786,-147.0
2023-12-13 14:36:13.061475,-142.0
2023-12-13 14:36:13.069165,-142.0
2023-12-13 14:36:13.076854,-137.0
2023-12-13 14:36:13.084543,-137.0
2023-12-13 14:36:13.092232,-133.0
2023-12-13 14:36:13.099921,-128.0
2023-12-13 14:36:13.107610,-133.0
2023-12-13 14:36:13.115300,-140.0
2023-12-13 14:36:13.122989,-140.0
2023-12-13 14:36:13.130678,-144.0
2023-12-13 14:36:13.138367,-130.0
2023-12-13 14:36:13.146056,-106.0
2023-12-13 14:36:13.153745,-92.0
2023-12-13 14:36:13.161435,-87.0
2023-12-13 14:36:13.169124,-97.0
2023-12-13 14:36:13.176813,-118.0
2023-12-13 14:36:13.184502,-125.0
2023-12-13 14:36:13.192191,-123.0
2023-12-13 14:36:13.199880,-123.0
2023-12-13 14:36:13.207570,-123.0
2023-12-13 14:36:13.215259,-121.0
2023-12-13 14:36:13.222948,-109.0
2023-12-13 14:36:13.230637,-92.0
2023-12-13 14:36:13.238326,-80.0
2023-12-13 14:36:13.246015,19.0
2023-12-13 14:36:13.253705,380.0
2023-12-13 14:36:13.261394,862.0
2023-12-13 14:36:13.269083,810.0
2023-12-13 14:36:13.276772,-21.0
2023-12-13 14:36:13.284461,-736.0
2023-12-13 14:36:13.292150,-594.0
2023-12-13 14:36:13.299840,-187.0
2023-12-13 14:36:13.307529,-125.0
2023-12-13 14:36:13.315218,-133.0
2023-12-13 14:36:13.322907,-54.0
2023-12-13 14:36:13.330596,-49.0
2023-12-13 14:36:13.338285,-71.0
2023-12-13 14:36:13.345975,-45.0
2023-12-13 14:36:13.353664,-30.0
2023-12-13 14:36:13.361353,-35.0
2023-12-13 14:36:13.369042,-23.0
2023-12-13 14:36:13.376731,-9.0
2023-12-13 14:36:13.384420,-9.0
2023-12-13 14:36:13.392110,-11.0
2023-12-13 14:36:13.399799,-2.0
2023-12-13 14:36:13.407488,14.0
2023-12-13 14:36:13.415177,26.0
2023-12-13 14:36:13.422866,40.0
2023-12-13 14:36:13.430555,61.0
2023-12-13 14:36:13.438245,85.0
2023-12-13 14:36:13.445934,106.0
2023-12-13 14:36:13.453623,130.0
2023-12-13 14:36:13.461312,149.0
2023-12-13 14:36:13.469001,175.0
2023-12-13 14:36:13.476690,206.0
2023-12-13 14:36:13.484380,218.0
2023-12-13 14:36:13.492069,223.0
2023-12-13 14:36:13.499758,228.0
2023-12-13 14:36:13.507447,206.0
2023-12-13 14:36:13.515136,144.0
2023-12-13 14:36:13.522825,54.0
2023-12-13 14:36:13.530515,-42.0
2023-12-13 14:36:13.538204,-123.0
2023-12-13 14:36:13.545893,-178.0
2023-12-13 14:36:13.553582,-213.0
2023-12-13 14:36:13.561271,-235.0
2023-12-13 14:36:13.568960,-242.0
2023-12-13 14:36:13.576650,-254.0
2023-12-13 14:36:13.584339,-278.0
2023-12-13 14:36:13.592028,-289.0
2023-12-13 14:36:13.599717,-256.0
2023-12-13 14:36:13.607406,-211.0
2023-12-13 14:36:13.615095,-204.0
2023-12-13 14:36:13.622785,-206.0
2023-12-13 14:36:13.630474,-199.0
2023-12-13 14:36:13.638163,-194.0
2023-12-13 14:36:13.645852,-190.0
2023-12-13 14:36:13.653541,-178.0
2023-12-13 14:36:13.661230,-190.0
2023-12-13 14:36:13.668920,-218.0
2023-12-13 14:36:13.676609,-213.0
2023-12-13 14:36:13.684298,-190.0
2023-12-13 14:36:13.691987,-185.0
2023-12-13 14:36:13.699676,-175.0
2023-12-13 14:36:13.707365,-161.0
2023-12-13 14:36:13.715055,-168.0
2023-12-13 14:36:13.722744,-171.0
2023-12-13 14:36:13.730433,-154.0
2023-12-13 14:36:13.738122,-154.0
2023-12-13 14:36:13.745811,-163.0
2023-12-13 14:36:13.753500,-154.0
2023-12-13 14:36:13.761190,-142.0
2023-12-13 14:36:13.768879,-133.0
2023-12-13 14:36:13.776568,-111.0
2023-12-13 14:36:13.784257,-90.0
2023-12-13 14:36:13.791946,-85.0
2023-12-13 14:36:13.799635,-92.0
2023-12-13 14:36:13.807325,-106.0
2023-12-13 14:36:13.815014,-116.0
2023-12-13 14:36:13.822703,-111.0
2023-12-13 14:36:13.830392,-102.0
2023-12-13 14:36:13.838081,-102.0
2023-12-13 14:36:13.845770,-106.0
2023-12-13 14:36:13.853460,-99.0
2023-12-13 14:36:13.861149,-90.0
2023-12-13 14:36:13.868838,-85.0
2023-12-13 14:36:13.876527,-21.0
2023-12-13 14:36:13.884216,259.0
2023-12-13 14:36:13.891905,762.0
2023-12-13 14:36:13.899595,960.0
2023-12-13 14:36:13.907284,320.0
2023-12-13 14:36:13.914973,-572.0
2023-12-13 14:36:13.922662,-686.0
2023-12-13 14:36:13.930351,-259.0
2023-12-13 14:36:13.938040,-114.0
2023-12-13 14:36:13.945730,-159.0
2023-12-13 14:36:13.953419,-95.0
2023-12-13 14:36:13.961108,-61.0
2023-12-13 14:36:13.968797,-87.0
2023-12-13 14:36:13.976486,-71.0
2023-12-13 14:36:13.984175,-57.0
2023-12-13 14:36:13.991865,-71.0
2023-12-13 14:36:13.999554,-61.0
2023-12-13 14:36:14.007243,-30.0
2023-12-13 14:36:14.014932,-19.0
2023-12-13 14:36:14.022621,-16.0
2023-12-13 14:36:14.030310,-11.0
2023-12-13 14:36:14.038000,2.0
2023-12-13 14:36:14.045689,21.0
2023-12-13 14:36:14.053378,45.0
2023-12-13 14:36:14.061067,64.0
2023-12-13 14:36:14.068756,85.0
2023-12-13 14:36:14.076445,109.0
2023-12-13 14:36:14.084135,142.0
2023-12-13 14:36:14.091824,178.0
2023-12-13 14:36:14.099513,209.0
2023-12-13 14:36:14.107202,237.0
2023-12-13 14:36:14.114891,249.0
2023-12-13 14:36:14.122580,247.0
2023-12-13 14:36:14.130270,251.0
2023-12-13 14:36:14.137959,244.0
2023-12-13 14:36:14.145648,199.0
2023-12-13 14:36:14.153337,111.0
2023-12-13 14:36:14.161026,14.0
2023-12-13 14:36:14.168715,-66.0
2023-12-13 14:36:14.176405,-133.0
2023-12-13 14:36:14.184094,-185.0
2023-12-13 14:36:14.191783,-201.0
2023-12-13 14:36:14.199472,-206.0
2023-12-13 14:36:14.207161,-223.0
2023-12-13 14:36:14.214851,-228.0
2023-12-13 14:36:14.222540,-216.0
2023-12-13 14:36:14.230229,-209.0
2023-12-13 14:36:14.237918,-211.0
2023-12-13 14:36:14.245607,-206.0
2023-12-13 14:36:14.253296,-204.0
2023-12-13 14:36:14.260986,-209.0
2023-12-13 14:36:14.268675,-204.0
2023-12-13 14:36:14.276364,-190.0
2023-12-13 14:36:14.284053,-178.0
2023-12-13 14:36:14.291742,-175.0
2023-12-13 14:36:14.299431,-175.0
2023-12-13 14:36:14.307121,-168.0
2023-12-13 14:36:14.314810,-166.0
2023-12-13 14:36:14.322499,-161.0
2023-12-13 14:36:14.330188,-142.0
2023-12-13 14:36:14.337877,-125.0
2023-12-13 14:36:14.345566,-135.0
2023-12-13 14:36:14.353256,-137.0
2023-12-13 14:36:14.360945,-123.0
2023-12-13 14:36:14.368634,-121.0
2023-12-13 14:36:14.376323,-128.0
2023-12-13 14:36:14.384012,-121.0
2023-12-13 14:36:14.391701,-118.0
2023-12-13 14:36:14.399391,-135.0
2023-12-13 14:36:14.407080,-149.0
2023-12-13 14:36:14.414769,-135.0
2023-12-13 14:36:14.422458,-116.0
2023-12-13 14:36:14.430147,-102.0
2023-12-13 14:36:14.437836,-87.0
2023-12-13 14:36:14.445526,-71.0
2023-12-13 14:36:14.453215,-57.0
2023-12-13 14:36:14.460904,-54.0
2023-12-13 14:36:14.468593,-83.0
2023-12-13 14:36:14.476282,-116.0
2023-12-13 14:36:14.483971,-118.0
2023-12-13 14:36:14.491661,-106.0
2023-12-13 14:36:14.499350,-102.0
2023-12-13 14:36:14.507039,-97.0
2023-12-13 14:36:14.514728,-87.0
2023-12-13 14:36:14.522417,-80.0
2023-12-13 14:36:14.530106,-76.0
2023-12-13 14:36:14.537796,-23.0
2023-12-13 14:36:14.545485,228.0
2023-12-13 14:36:14.553174,715.0
2023-12-13 14:36:14.560863,993.0
2023-12-13 14:36:14.568552,508.0
2023-12-13 14:36:14.576241,-394.0
2023-12-13 14:36:14.583931,-693.0
2023-12-13 14:36:14.591620,-323.0
2023-12-13 14:36:14.599309,-83.0
2023-12-13 14:36:14.606998,-116.0
2023-12-13 14:36:14.614687,-104.0
2023-12-13 14:36:14.622376,-54.0
2023-12-13 14:36:14.630066,-52.0
2023-12-13 14:36:14.637755,-49.0
2023-12-13 14:36:14.645444,-40.0
2023-12-13 14:36:14.653133,-40.0
2023-12-13 14:36:14.660822,-35.0
2023-12-13 14:36:14.668511,-21.0
2023-12-13 14:36:14.676201,-11.0
2023-12-13 14:36:14.683890,-11.0
2023-12-13 14:36:14.691579,0.0
2023-12-13 14:36:14.699268,19.0
2023-12-13 14:36:14.706957,33.0
2023-12-13 14:36:14.714646,47.0
2023-12-13 14:36:14.722336,66.0
2023-12-13 14:36:14.730025,87.0
2023-12-13 14:36:14.737714,111.0
2023-12-13 14:36:14.745403,137.0
2023-12-13 14:36:14.753092,161.0
2023-12-13 14:36:14.760781,199.0
2023-12-13 14:36:14.768471,235.0
2023-12-13 14:36:14.776160,254.0
2023-12-13 14:36:14.783849,261.0
2023-12-13 14:36:14.791538,251.0
2023-12-13 14:36:14.799227,225.0
2023-12-13 14:36:14.806916,192.0
2023-12-13 14:36:14.814606,130.0
2023-12-13 14:36:14.822295,35.0
2023-12-13 14:36:14.829984,-54.0
2023-12-13 14:36:14.837673,-123.0
2023-12-13 14:36:14.845362,-175.0
2023-12-13 14:36:14.853051,-204.0
2023-12-13 14:36:14.860741,-216.0
2023-12-13 14:36:14.868430,-228.0
2023-12-13 14:36:14.876119,-235.0
2023-12-13 14:36:14.883808,-230.0
2023-12-13 14:36:14.891497,-230.0
2023-12-13 14:36:14.899186,-228.0
2023-12-13 14:36:14.906876,-218.0
2023-12-13 14:36:14.914565,-211.0
2023-12-13 14:36:14.922254,-204.0
2023-12-13 14:36:14.929943,-197.0
2023-12-13 14:36:14.937632,-190.0
2023-12-13 14:36:14.945321,-180.0
2023-12-13 14:36:14.953011,-173.0
2023-12-13 14:36:14.960700,-168.0
2023-12-13 14:36:14.968389,-166.0
2023-12-13 14:36:14.976078,-166.0
2023-12-13 14:36:14.983767,-163.0
2023-12-13 14:36:14.991456,-152.0
2023-12-13 14:36:14.999146,-144.0
2023-12-13 14:36:15.006835,-147.0
2023-12-13 14:36:15.014524,-142.0
2023-12-13 14:36:15.022213,-135.0
2023-12-13 14:36:15.029902,-133.0
2023-12-13 14:36:15.037591,-128.0
2023-12-13 14:36:15.045281,-123.0
2023-12-13 14:36:15.052970,-123.0
2023-12-13 14:36:15.060659,-121.0
2023-12-13 14:36:15.068348,-114.0
2023-12-13 14:36:15.076037,-111.0
2023-12-13 14:36:15.083726,-111.0
2023-12-13 14:36:15.091416,-109.0
2023-12-13 14:36:15.099105,-102.0
2023-12-13 14:36:15.106794,-90.0
2023-12-13 14:36:15.114483,-71.0
2023-12-13 14:36:15.122172,-49.0
2023-12-13 14:36:15.129861,-38.0
2023-12-13 14:36:15.137551,-45.0
2023-12-13 14:36:15.145240,-73.0
2023-12-13 14:36:15.152929,-87.0
2023-12-13 14:36:15.160618,-92.0
2023-12-13 14:36:15.168307,-95.0
2023-12-13 14:36:15.175996,-90.0
2023-12-13 14:36:15.183686,-80.0
2023-12-13 14:36:15.191375,-76.0
2023-12-13 14:36:15.199064,-71.0
2023-12-13 14:36:15.206753,-59.0
2023-12-13 14:36:15.214442,0.0
2023-12-13 14:36:15.222131,266.0
2023-12-13 14:36:15.229821,753.0
2023-12-13 14:36:15.237510,971.0
2023-12-13 14:36:15.245199,413.0
2023-12-13 14:36:15.252888,-463.0
2023-12-13 14:36:15.260577,-674.0
2023-12-13 14:36:15.268266,-285.0
2023-12-13 14:36:15.275956,-83.0
2023-12-13 14:36:15.283645,-118.0
2023-12-13 14:36:15.291334,-83.0
2023-12-13 14:36:15.299023,-38.0
2023-12-13 14:36:15.306712,-54.0
2023-12-13 14:36:15.314401,-47.0
2023-12-13 14:36:15.322091,-28.0
2023-12-13 14:36:15.329780,-40.0
2023-12-13 14:36:15.337469,-49.0
2023-12-13 14:36:15.345158,-35.0
2023-12-13 14:36:15.352847,-21.0
2023-12-13 14:36:15.360536,-16.0
2023-12-13 14:36:15.368226,-9.0
2023-12-13 14:36:15.375915,-4.0
2023-12-13 14:36:15.383604,0.0
2023-12-13 14:36:15.391293,9.0
2023-12-13 14:36:15.398982,30.0
2023-12-13 14:36:15.406671,59.0
2023-12-13 14:36:15.414361,83.0
2023-12-13 14:36:15.422050,104.0
2023-12-13 14:36:15.429739,133.0
2023-12-13 14:36:15.437428,166.0
2023-12-13 14:36:15.445117,197.0
2023-12-13 14:36:15.452806,220.0
2023-12-13 14:36:15.460496,230.0
2023-12-13 14:36:15.468185,223.0
2023-12-13 14:36:15.475874,204.0
2023-12-13 14:36:15.483563,163.0
2023-12-13 14:36:15.491252,99.0
2023-12-13 14:36:15.498941,19.0
2023-12-13 14:36:15.506631,-71.0
2023-12-13 14:36:15.514320,-152.0
2023-12-13 14:36:15.522009,-199.0
2023-12-13 14:36:15.529698,-223.0
2023-12-13 14:36:15.537387,-235.0
2023-12-13 14:36:15.545076,-237.0
2023-12-13 14:36:15.552766,-237.0
2023-12-13 14:36:15.560455,-240.0
2023-12-13 14:36:15.568144,-235.0
2023-12-13 14:36:15.575833,-223.0
2023-12-13 14:36:15.583522,-213.0
2023-12-13 14:36:15.591211,-201.0
2023-12-13 14:36:15.598901,-199.0
2023-12-13 14:36:15.606590,-204.0
2023-12-13 14:36:15.614279,-197.0
2023-12-13 14:36:15.621968,-182.0
2023-12-13 14:36:15.629657,-178.0
2023-12-13 14:36:15.637346,-175.0
2023-12-13 14:36:15.645036,-168.0
2023-12-13 14:36:15.652725,-168.0
2023-12-13 14:36:15.660414,-166.0
2023-12-13 14:36:15.668103,-149.0
2023-12-13 14:36:15.675792,-133.0
2023-12-13 14:36:15.683481,-133.0
2023-12-13 14:36:15.691171,-140.0
2023-12-13 14:36:15.698860,-137.0
2023-12-13 14:36:15.706549,-130.0
2023-12-13 14:36:15.714238,-121.0
2023-12-13 14:36:15.721927,-118.0
2023-12-13 14:36:15.729616,-125.0
2023-12-13 14:36:15.737306,-130.0
2023-12-13 14:36:15.744995,-123.0
2023-12-13 14:36:15.752684,-106.0
2023-12-13 14:36:15.760373,-83.0
2023-12-13 14:36:15.768062,-61.0
2023-12-13 14:36:15.775751,-49.0
2023-12-13 14:36:15.783441,-61.0
2023-12-13 14:36:15.791130,-83.0
2023-12-13 14:36:15.798819,-95.0
2023-12-13 14:36:15.806508,-97.0
2023-12-13 14:36:15.814197,-97.0
2023-12-13 14:36:15.821886,-95.0
2023-12-13 14:36:15.829576,-97.0
2023-12-13 14:36:15.837265,-92.0
2023-12-13 14:36:15.844954,-78.0
2023-12-13 14:36:15.852643,-68.0
2023-12-13 14:36:15.860332,-2.0
2023-12-13 14:36:15.868021,311.0
2023-12-13 14:36:15.875711,807.0
2023-12-13 14:36:15.883400,881.0
2023-12-13 14:36:15.891089,142.0
2023-12-13 14:36:15.898778,-670.0
2023-12-13 14:36:15.906467,-660.0
2023-12-13 14:36:15.914156,-225.0
2023-12-13 14:36:15.921846,-118.0
2023-12-13 14:36:15.929535,-154.0
2023-12-13 14:36:15.937224,-78.0
2023-12-13 14:36:15.944913,-54.0
2023-12-13 14:36:15.952602,-80.0
2023-12-13 14:36:15.960291,-73.0
2023-12-13 14:36:15.967981,-71.0
2023-12-13 14:36:15.975670,-71.0
2023-12-13 14:36:15.983359,-59.0
2023-12-13 14:36:15.991048,-59.0
2023-12-13 14:36:15.998737,-61.0
2023-12-13 14:36:16.006426,-61.0
2023-12-13 14:36:16.014116,-57.0
2023-12-13 14:36:16.021805,-47.0
2023-12-13 14:36:16.029494,-30.0
2023-12-13 14:36:16.037183,-14.0
2023-12-13 14:36:16.044872,9.0
2023-12-13 14:36:16.052561,33.0
2023-12-13 14:36:16.060251,57.0
2023-12-13 14:36:16.067940,90.0
2023-12-13 14:36:16.075629,128.0
2023-12-13 14:36:16.083318,161.0
2023-12-13 14:36:16.091007,185.0
2023-12-13 14:36:16.098696,197.0
2023-12-13 14:36:16.106386,199.0
2023-12-13 14:36:16.114075,192.0
2023-12-13 14:36:16.121764,168.0
2023-12-13 14:36:16.129453,118.0
2023-12-13 14:36:16.137142,42.0
2023-12-13 14:36:16.144831,-45.0
2023-12-13 14:36:16.152521,-125.0
2023-12-13 14:36:16.160210,-182.0
2023-12-13 14:36:16.167899,-218.0
2023-12-13 14:36:16.175588,-232.0
2023-12-13 14:36:16.183277,-240.0
2023-12-13 14:36:16.190966,-244.0
2023-12-13 14:36:16.198656,-242.0
2023-12-13 14:36:16.206345,-237.0
2023-12-13 14:36:16.214034,-232.0
2023-12-13 14:36:16.221723,-223.0
2023-12-13 14:36:16.229412,-216.0
2023-12-13 14:36:16.237101,-209.0
2023-12-13 14:36:16.244791,-201.0
2023-12-13 14:36:16.252480,-192.0
2023-12-13 14:36:16.260169,-178.0
2023-12-13 14:36:16.267858,-168.0
2023-12-13 14:36:16.275547,-161.0
2023-12-13 14:36:16.283236,-154.0
2023-12-13 14:36:16.290926,-142.0
2023-12-13 14:36:16.298615,-135.0
2023-12-13 14:36:16.306304,-130.0
2023-12-13 14:36:16.313993,-123.0
2023-12-13 14:36:16.321682,-118.0
2023-12-13 14:36:16.329371,-116.0
2023-12-13 14:36:16.337061,-114.0
2023-12-13 14:36:16.344750,-109.0
2023-12-13 14:36:16.352439,-106.0
2023-12-13 14:36:16.360128,-114.0
2023-12-13 14:36:16.367817,-121.0
2023-12-13 14:36:16.375506,-121.0
2023-12-13 14:36:16.383196,-109.0
2023-12-13 14:36:16.390885,-95.0
2023-12-13 14:36:16.398574,-73.0
2023-12-13 14:36:16.406263,-59.0
2023-12-13 14:36:16.413952,-54.0
2023-12-13 14:36:16.421642,-59.0
2023-12-13 14:36:16.429331,-71.0
2023-12-13 14:36:16.437020,-87.0
2023-12-13 14:36:16.444709,-92.0
2023-12-13 14:36:16.452398,-87.0
2023-12-13 14:36:16.460087,-85.0
2023-12-13 14:36:16.467777,-80.0
2023-12-13 14:36:16.475466,-71.0
2023-12-13 14:36:16.483155,-64.0
2023-12-13 14:36:16.490844,-52.0
2023-12-13 14:36:16.498533,42.0
2023-12-13 14:36:16.506222,380.0
2023-12-13 14:36:16.513912,841.0
2023-12-13 14:36:16.521601,810.0
2023-12-13 14:36:16.529290,26.0
2023-12-13 14:36:16.536979,-691.0
2023-12-13 14:36:16.544668,-594.0
2023-12-13 14:36:16.552357,-187.0
2023-12-13 14:36:16.560047,-109.0
2023-12-13 14:36:16.567736,-140.0
2023-12-13 14:36:16.575425,-83.0
2023-12-13 14:36:16.583114,-64.0
2023-12-13 14:36:16.590803,-78.0
2023-12-13 14:36:16.598492,-59.0
2023-12-13 14:36:16.606182,-42.0
2023-12-13 14:36:16.613871,-47.0
2023-12-13 14:36:16.621560,-47.0
2023-12-13 14:36:16.629249,-33.0
2023-12-13 14:36:16.636938,-23.0
2023-12-13 14:36:16.644627,-16.0
2023-12-13 14:36:16.652317,-2.0
2023-12-13 14:36:16.660006,14.0
2023-12-13 14:36:16.667695,26.0
2023-12-13 14:36:16.675384,42.0
2023-12-13 14:36:16.683073,57.0
2023-12-13 14:36:16.690762,76.0
2023-12-13 14:36:16.698452,106.0
2023-12-13 14:36:16.706141,137.0
2023-12-13 14:36:16.713830,166.0
2023-12-13 14:36:16.721519,197.0
2023-12-13 14:36:16.729208,218.0
2023-12-13 14:36:16.736897,225.0
2023-12-13 14:36:16.744587,230.0
2023-12-13 14:36:16.752276,223.0
2023-12-13 14:36:16.759965,194.0
2023-12-13 14:36:16.767654,142.0
2023-12-13 14:36:16.775343,66.0
2023-12-13 14:36:16.783032,-19.0
2023-12-13 14:36:16.790722,-90.0
2023-12-13 14:36:16.798411,-144.0
2023-12-13 14:36:16.806100,-182.0
2023-12-13 14:36:16.813789,-201.0
2023-12-13 14:36:16.821478,-211.0
2023-12-13 14:36:16.829167,-211.0
2023-12-13 14:36:16.836857,-206.0
2023-12-13 14:36:16.844546,-204.0
2023-12-13 14:36:16.852235,-204.0
2023-12-13 14:36:16.859924,-204.0
2023-12-13 14:36:16.867613,-201.0
2023-12-13 14:36:16.875302,-194.0
2023-12-13 14:36:16.882992,-182.0
2023-12-13 14:36:16.890681,-178.0
2023-12-13 14:36:16.898370,-175.0
2023-12-13 14:36:16.906059,-168.0
2023-12-13 14:36:16.913748,-161.0
2023-12-13 14:36:16.921437,-152.0
2023-12-13 14:36:16.929127,-142.0
2023-12-13 14:36:16.936816,-135.0
2023-12-13 14:36:16.944505,-135.0
2023-12-13 14:36:16.952194,-133.0
2023-12-13 14:36:16.959883,-128.0
2023-12-13 14:36:16.967572,-121.0
2023-12-13 14:36:16.975262,-116.0
2023-12-13 14:36:16.982951,-111.0
2023-12-13 14:36:16.990640,-111.0
2023-12-13 14:36:16.998329,-118.0
2023-12-13 14:36:17.006018,-128.0
2023-12-13 14:36:17.013707,-128.0
2023-12-13 14:36:17.021397,-111.0
2023-12-13 14:36:17.029086,-95.0
2023-12-13 14:36:17.036775,-87.0
2023-12-13 14:36:17.044464,-90.0
2023-12-13 14:36:17.052153,-87.0
2023-12-13 14:36:17.059842,-83.0
2023-12-13 14:36:17.067532,-97.0
2023-12-13 14:36:17.075221,-116.0
2023-12-13 14:36:17.082910,-121.0
2023-12-13 14:36:17.090599,-116.0
2023-12-13 14:36:17.098288,-111.0
2023-12-13 14:36:17.105977,-106.0
2023-12-13 14:36:17.113667,-102.0
2023-12-13 14:36:17.121356,-95.0
2023-12-13 14:36:17.129045,-85.0
2023-12-13 14:36:17.136734,21.0
2023-12-13 14:36:17.144423,382.0
2023-12-13 14:36:17.152112,848.0
2023-12-13 14:36:17.159802,819.0
2023-12-13 14:36:17.167491,49.0
2023-12-13 14:36:17.175180,-674.0
2023-12-13 14:36:17.182869,-594.0
2023-12-13 14:36:17.190558,-180.0
2023-12-13 14:36:17.198247,-90.0
2023-12-13 14:36:17.205937,-125.0
2023-12-13 14:36:17.213626,-71.0
2023-12-13 14:36:17.221315,-54.0
2023-12-13 14:36:17.229004,-73.0
2023-12-13 14:36:17.236693,-52.0
2023-12-13 14:36:17.244382,-33.0
2023-12-13 14:36:17.252072,-33.0
2023-12-13 14:36:17.259761,-26.0
2023-12-13 14:36:17.267450,-19.0
2023-12-13 14:36:17.275139,-11.0
2023-12-13 14:36:17.282828,2.0
2023-12-13 14:36:17.290517,16.0
2023-12-13 14:36:17.298207,28.0
2023-12-13 14:36:17.305896,40.0
2023-12-13 14:36:17.313585,54.0
2023-12-13 14:36:17.321274,68.0
2023-12-13 14:36:17.328963,90.0
2023-12-13 14:36:17.336652,116.0
2023-12-13 14:36:17.344342,142.0
2023-12-13 14:36:17.352031,166.0
2023-12-13 14:36:17.359720,192.0
2023-12-13 14:36:17.367409,216.0
2023-12-13 14:36:17.375098,230.0
2023-12-13 14:36:17.382787,230.0
2023-12-13 14:36:17.390477,225.0
2023-12-13 14:36:17.398166,199.0
2023-12-13 14:36:17.405855,142.0
2023-12-13 14:36:17.413544,66.0
2023-12-13 14:36:17.421233,-11.0
2023-12-13 14:36:17.428922,-85.0
2023-12-13 14:36:17.436612,-140.0
2023-12-13 14:36:17.444301,-180.0
2023-12-13 14:36:17.451990,-206.0
2023-12-13 14:36:17.459679,-213.0
2023-12-13 14:36:17.467368,-211.0
2023-12-13 14:36:17.475057,-209.0
2023-12-13 14:36:17.482747,-204.0
2023-12-13 14:36:17.490436,-201.0
2023-12-13 14:36:17.498125,-201.0
2023-12-13 14:36:17.505814,-199.0
2023-12-13 14:36:17.513503,-204.0
2023-12-13 14:36:17.521192,-199.0
2023-12-13 14:36:17.528882,-185.0
2023-12-13 14:36:17.536571,-180.0
2023-12-13 14:36:17.544260,-180.0
2023-12-13 14:36:17.551949,-171.0
2023-12-13 14:36:17.559638,-159.0
2023-12-13 14:36:17.567327,-154.0
2023-12-13 14:36:17.575017,-147.0
2023-12-13 14:36:17.582706,-144.0
2023-12-13 14:36:17.590395,-144.0
2023-12-13 14:36:17.598084,-142.0
2023-12-13 14:36:17.605773,-140.0
2023-12-13 14:36:17.613462,-140.0
2023-12-13 14:36:17.621152,-137.0
2023-12-13 14:36:17.628841,-152.0
2023-12-13 14:36:17.636530,-168.0
2023-12-13 14:36:17.644219,-163.0
2023-12-13 14:36:17.651908,-152.0
2023-12-13 14:36:17.659597,-142.0
2023-12-13 14:36:17.667287,-125.0
2023-12-13 14:36:17.674976,-104.0
2023-12-13 14:36:17.682665,-90.0
2023-12-13 14:36:17.690354,-78.0
2023-12-13 14:36:17.698043,-78.0
2023-12-13 14:36:17.705732,-92.0
2023-12-13 14:36:17.713422,-111.0
2023-12-13 14:36:17.721111,-121.0
2023-12-13 14:36:17.728800,-118.0
2023-12-13 14:36:17.736489,-111.0
2023-12-13 14:36:17.744178,-104.0
2023-12-13 14:36:17.751867,-95.0
2023-12-13 14:36:17.759557,-85.0
2023-12-13 14:36:17.767246,-80.0
2023-12-13 14:36:17.774935,-9.0
2023-12-13 14:36:17.782624,287.0
2023-12-13 14:36:17.790313,772.0
2023-12-13 14:36:17.798002,905.0
2023-12-13 14:36:17.805692,256.0
2023-12-13 14:36:17.813381,-586.0
2023-12-13 14:36:17.821070,-674.0
2023-12-13 14:36:17.828759,-240.0
2023-12-13 14:36:17.836448,-78.0
2023-12-13 14:36:17.844137,-125.0
2023-12-13 14:36:17.851827,-85.0
2023-12-13 14:36:17.859516,-57.0
2023-12-13 14:36:17.867205,-73.0
2023-12-13 14:36:17.874894,-59.0
2023-12-13 14:36:17.882583,-35.0
2023-12-13 14:36:17.890272,-33.0
2023-12-13 14:36:17.897962,-28.0
2023-12-13 14:36:17.905651,-16.0
2023-12-13 14:36:17.913340,-7.0
2023-12-13 14:36:17.921029,2.0
2023-12-13 14:36:17.928718,16.0
2023-12-13 14:36:17.936407,30.0
2023-12-13 14:36:17.944097,45.0
2023-12-13 14:36:17.951786,57.0
2023-12-13 14:36:17.959475,68.0
2023-12-13 14:36:17.967164,92.0
2023-12-13 14:36:17.974853,123.0
2023-12-13 14:36:17.982542,152.0
2023-12-13 14:36:17.990232,178.0
2023-12-13 14:36:17.997921,209.0
2023-12-13 14:36:18.005610,230.0
2023-12-13 14:36:18.013299,232.0
2023-12-13 14:36:18.020988,225.0
2023-12-13 14:36:18.028677,218.0
2023-12-13 14:36:18.036367,199.0
2023-12-13 14:36:18.044056,156.0
2023-12-13 14:36:18.051745,87.0
2023-12-13 14:36:18.059434,7.0
2023-12-13 14:36:18.067123,-68.0
2023-12-13 14:36:18.074812,-128.0
2023-12-13 14:36:18.082502,-173.0
2023-12-13 14:36:18.090191,-201.0
2023-12-13 14:36:18.097880,-220.0
2023-12-13 14:36:18.105569,-223.0
2023-12-13 14:36:18.113258,-216.0
2023-12-13 14:36:18.120947,-216.0
2023-12-13 14:36:18.128637,-213.0
2023-12-13 14:36:18.136326,-209.0
2023-12-13 14:36:18.144015,-199.0
2023-12-13 14:36:18.151704,-192.0
2023-12-13 14:36:18.159393,-187.0
2023-12-13 14:36:18.167082,-194.0
2023-12-13 14:36:18.174772,-199.0
2023-12-13 14:36:18.182461,-187.0
2023-12-13 14:36:18.190150,-178.0
2023-12-13 14:36:18.197839,-173.0
2023-12-13 14:36:18.205528,-163.0
2023-12-13 14:36:18.213217,-154.0
2023-12-13 14:36:18.220907,-149.0
2023-12-13 14:36:18.228596,-147.0
2023-12-13 14:36:18.236285,-142.0
2023-12-13 14:36:18.243974,-135.0
2023-12-13 14:36:18.251663,-130.0
2023-12-13 14:36:18.259352,-130.0
2023-12-13 14:36:18.267042,-125.0
2023-12-13 14:36:18.274731,-121.0
2023-12-13 14:36:18.282420,-125.0
2023-12-13 14:36:18.290109,-128.0
2023-12-13 14:36:18.297798,-121.0
2023-12-13 14:36:18.305487,-114.0
2023-12-13 14:36:18.313177,-95.0
2023-12-13 14:36:18.320866,-73.0
2023-12-13 14:36:18.328555,-59.0
2023-12-13 14:36:18.336244,-54.0
2023-12-13 14:36:18.343933,-71.0
2023-12-13 14:36:18.351622,-95.0
2023-12-13 14:36:18.359312,-102.0
2023-12-13 14:36:18.367001,-102.0
2023-12-13 14:36:18.374690,-102.0
2023-12-13 14:36:18.382379,-97.0
2023-12-13 14:36:18.390068,-92.0
2023-12-13 14:36:18.397757,-85.0
2023-12-13 14:36:18.405447,-73.0
2023-12-13 14:36:18.413136,-59.0
2023-12-13 14:36:18.420825,52.0
2023-12-13 14:36:18.428514,418.0
2023-12-13 14:36:18.436203,876.0
2023-12-13 14:36:18.443892,815.0
2023-12-13 14:36:18.451582,16.0
2023-12-13 14:36:18.459271,-681.0
2023-12-13 14:36:18.466960,-563.0
2023-12-13 14:36:18.474649,-154.0
2023-12-13 14:36:18.482338,-85.0
2023-12-13 14:36:18.490027,-116.0
2023-12-13 14:36:18.497717,-54.0
2023-12-13 14:36:18.505406,-42.0
2023-12-13 14:36:18.513095,-59.0
2023-12-13 14:36:18.520784,-49.0
2023-12-13 14:36:18.528473,-47.0
2023-12-13 14:36:18.536162,-47.0
2023-12-13 14:36:18.543852,-30.0
2023-12-13 14:36:18.551541,-21.0
2023-12-13 14:36:18.559230,-19.0
2023-12-13 14:36:18.566919,-7.0
2023-12-13 14:36:18.574608,4.0
2023-12-13 14:36:18.582297,14.0
2023-12-13 14:36:18.589987,23.0
2023-12-13 14:36:18.597676,38.0
2023-12-13 14:36:18.605365,59.0
2023-12-13 14:36:18.613054,83.0
2023-12-13 14:36:18.620743,99.0
2023-12-13 14:36:18.628433,123.0
2023-12-13 14:36:18.636122,161.0
2023-12-13 14:36:18.643811,190.0
2023-12-13 14:36:18.651500,209.0
2023-12-13 14:36:18.659189,223.0
2023-12-13 14:36:18.666878,225.0
2023-12-13 14:36:18.674568,216.0
2023-12-13 14:36:18.682257,194.0
2023-12-13 14:36:18.689946,144.0
2023-12-13 14:36:18.697635,61.0
2023-12-13 14:36:18.705324,-35.0
2023-12-13 14:36:18.713013,-121.0
2023-12-13 14:36:18.720703,-175.0
2023-12-13 14:36:18.728392,-206.0
2023-12-13 14:36:18.736081,-230.0
2023-12-13 14:36:18.743770,-244.0
2023-12-13 14:36:18.751459,-247.0
2023-12-13 14:36:18.759148,-242.0
2023-12-13 14:36:18.766838,-235.0
2023-12-13 14:36:18.774527,-230.0
2023-12-13 14:36:18.782216,-223.0
2023-12-13 14:36:18.789905,-218.0
2023-12-13 14:36:18.797594,-211.0
2023-12-13 14:36:18.805283,-201.0
2023-12-13 14:36:18.812973,-192.0
2023-12-13 14:36:18.820662,-185.0
2023-12-13 14:36:18.828351,-180.0
2023-12-13 14:36:18.836040,-182.0
2023-12-13 14:36:18.843729,-182.0
2023-12-13 14:36:18.851418,-168.0
2023-12-13 14:36:18.859108,-159.0
2023-12-13 14:36:18.866797,-154.0
2023-12-13 14:36:18.874486,-152.0
2023-12-13 14:36:18.882175,-149.0
2023-12-13 14:36:18.889864,-147.0
2023-12-13 14:36:18.897553,-142.0
2023-12-13 14:36:18.905243,-135.0
2023-12-13 14:36:18.912932,-125.0
2023-12-13 14:36:18.920621,-123.0
2023-12-13 14:36:18.928310,-135.0
2023-12-13 14:36:18.935999,-140.0
2023-12-13 14:36:18.943688,-125.0
2023-12-13 14:36:18.951378,-111.0
2023-12-13 14:36:18.959067,-97.0
2023-12-13 14:36:18.966756,-78.0
2023-12-13 14:36:18.974445,-66.0
2023-12-13 14:36:18.982134,-57.0
2023-12-13 14:36:18.989823,-59.0
2023-12-13 14:36:18.997513,-80.0
2023-12-13 14:36:19.005202,-92.0
2023-12-13 14:36:19.012891,-92.0
2023-12-13 14:36:19.020580,-97.0
2023-12-13 14:36:19.028269,-104.0
2023-12-13 14:36:19.035958,-99.0
2023-12-13 14:36:19.043648,-85.0
2023-12-13 14:36:19.051337,-78.0
2023-12-13 14:36:19.059026,-66.0
2023-12-13 14:36:19.066715,42.0
2023-12-13 14:36:19.074404,403.0
2023-12-13 14:36:19.082093,860.0
2023-12-13 14:36:19.089783,791.0
2023-12-13 14:36:19.097472,-14.0
2023-12-13 14:36:19.105161,-712.0
2023-12-13 14:36:19.112850,-584.0
2023-12-13 14:36:19.120539,-173.0
2023-12-13 14:36:19.128228,-102.0
2023-12-13 14:36:19.135918,-128.0
2023-12-13 14:36:19.143607,-64.0
2023-12-13 14:36:19.151296,-54.0
2023-12-13 14:36:19.158985,-76.0
2023-12-13 14:36:19.166674,-54.0
2023-12-13 14:36:19.174363,-38.0
2023-12-13 14:36:19.182053,-33.0
2023-12-13 14:36:19.189742,-21.0
2023-12-13 14:36:19.197431,-14.0
2023-12-13 14:36:19.205120,-11.0
2023-12-13 14:36:19.212809,-4.0
2023-12-13 14:36:19.220498,11.0
2023-12-13 14:36:19.228188,28.0
2023-12-13 14:36:19.235877,42.0
2023-12-13 14:36:19.243566,57.0
2023-12-13 14:36:19.251255,71.0
2023-12-13 14:36:19.258944,99.0
2023-12-13 14:36:19.266633,130.0
2023-12-13 14:36:19.274323,156.0
2023-12-13 14:36:19.282012,187.0
2023-12-13 14:36:19.289701,211.0
2023-12-13 14:36:19.297390,225.0
2023-12-13 14:36:19.305079,235.0
2023-12-13 14:36:19.312768,242.0
2023-12-13 14:36:19.320458,237.0
2023-12-13 14:36:19.328147,211.0
2023-12-13 14:36:19.335836,149.0
2023-12-13 14:36:19.343525,54.0
2023-12-13 14:36:19.351214,-33.0
2023-12-13 14:36:19.358903,-99.0
2023-12-13 14:36:19.366593,-159.0
2023-12-13 14:36:19.374282,-204.0
2023-12-13 14:36:19.381971,-232.0
2023-12-13 14:36:19.389660,-247.0
2023-12-13 14:36:19.397349,-249.0
2023-12-13 14:36:19.405038,-244.0
2023-12-13 14:36:19.412728,-240.0
2023-12-13 14:36:19.420417,-232.0
2023-12-13 14:36:19.428106,-228.0
2023-12-13 14:36:19.435795,-230.0
2023-12-13 14:36:19.443484,-223.0
2023-12-13 14:36:19.451173,-209.0
2023-12-13 14:36:19.458863,-199.0
2023-12-13 14:36:19.466552,-192.0
2023-12-13 14:36:19.474241,-187.0
2023-12-13 14:36:19.481930,-182.0
2023-12-13 14:36:19.489619,-178.0
2023-12-13 14:36:19.497308,-173.0
2023-12-13 14:36:19.504998,-163.0
2023-12-13 14:36:19.512687,-156.0
2023-12-13 14:36:19.520376,-161.0
2023-12-13 14:36:19.528065,-171.0
2023-12-13 14:36:19.535754,-171.0
2023-12-13 14:36:19.543443,-166.0
2023-12-13 14:36:19.551133,-159.0
2023-12-13 14:36:19.558822,-161.0
2023-12-13 14:36:19.566511,-171.0
2023-12-13 14:36:19.574200,-173.0
2023-12-13 14:36:19.581889,-163.0
2023-12-13 14:36:19.589578,-152.0
2023-12-13 14:36:19.597268,-133.0
2023-12-13 14:36:19.604957,-114.0
2023-12-13 14:36:19.612646,-99.0
2023-12-13 14:36:19.620335,-99.0
2023-12-13 14:36:19.628024,-114.0
2023-12-13 14:36:19.635713,-125.0
2023-12-13 14:36:19.643403,-133.0
2023-12-13 14:36:19.651092,-135.0
2023-12-13 14:36:19.658781,-133.0
2023-12-13 14:36:19.666470,-123.0
2023-12-13 14:36:19.674159,-111.0
2023-12-13 14:36:19.681848,-104.0
2023-12-13 14:36:19.689538,-99.0
2023-12-13 14:36:19.697227,-54.0
2023-12-13 14:36:19.704916,175.0
2023-12-13 14:36:19.712605,648.0
2023-12-13 14:36:19.720294,905.0
2023-12-13 14:36:19.727983,356.0
2023-12-13 14:36:19.735673,-558.0
2023-12-13 14:36:19.743362,-765.0
2023-12-13 14:36:19.751051,-332.0
2023-12-13 14:36:19.758740,-118.0
2023-12-13 14:36:19.766429,-152.0
2023-12-13 14:36:19.774118,-97.0
2023-12-13 14:36:19.781808,-52.0
2023-12-13 14:36:19.789497,-73.0
2023-12-13 14:36:19.797186,-68.0
2023-12-13 14:36:19.804875,-45.0
2023-12-13 14:36:19.812564,-45.0
2023-12-13 14:36:19.820253,-49.0
2023-12-13 14:36:19.827943,-49.0
2023-12-13 14:36:19.835632,-40.0
2023-12-13 14:36:19.843321,-26.0
2023-12-13 14:36:19.851010,-14.0
2023-12-13 14:36:19.858699,-2.0
2023-12-13 14:36:19.866388,14.0
2023-12-13 14:36:19.874078,21.0
2023-12-13 14:36:19.881767,23.0
2023-12-13 14:36:19.889456,42.0
2023-12-13 14:36:19.897145,78.0
2023-12-13 14:36:19.904834,109.0
2023-12-13 14:36:19.912523,140.0
2023-12-13 14:36:19.920213,171.0
2023-12-13 14:36:19.927902,197.0
2023-12-13 14:36:19.935591,216.0
2023-12-13 14:36:19.943280,218.0
2023-12-13 14:36:19.950969,211.0
2023-12-13 14:36:19.958658,199.0
2023-12-13 14:36:19.966348,163.0
2023-12-13 14:36:19.974037,92.0
2023-12-13 14:36:19.981726,7.0
2023-12-13 14:36:19.989415,-76.0
2023-12-13 14:36:19.997104,-140.0
2023-12-13 14:36:20.004793,-190.0
2023-12-13 14:36:20.012483,-223.0
2023-12-13 14:36:20.020172,-232.0
2023-12-13 14:36:20.027861,-242.0
2023-12-13 14:36:20.035550,-261.0
2023-12-13 14:36:20.043239,-261.0
2023-12-13 14:36:20.050928,-247.0
2023-12-13 14:36:20.058618,-247.0
2023-12-13 14:36:20.066307,-251.0
2023-12-13 14:36:20.073996,-242.0
2023-12-13 14:36:20.081685,-228.0
2023-12-13 14:36:20.089374,-218.0
2023-12-13 14:36:20.097063,-209.0
2023-12-13 14:36:20.104753,-201.0
2023-12-13 14:36:20.112442,-190.0
2023-12-13 14:36:20.120131,-182.0
2023-12-13 14:36:20.127820,-175.0
2023-12-13 14:36:20.135509,-166.0
2023-12-13 14:36:20.143198,-156.0
2023-12-13 14:36:20.150888,-159.0
2023-12-13 14:36:20.158577,-154.0
2023-12-13 14:36:20.166266,-144.0
2023-12-13 14:36:20.173955,-142.0
2023-12-13 14:36:20.181644,-144.0
2023-12-13 14:36:20.189333,-144.0
2023-12-13 14:36:20.197023,-142.0
2023-12-13 14:36:20.204712,-133.0
2023-12-13 14:36:20.212401,-114.0
2023-12-13 14:36:20.220090,-97.0
2023-12-13 14:36:20.227779,-80.0
2023-12-13 14:36:20.235468,-71.0
2023-12-13 14:36:20.243158,-83.0
2023-12-13 14:36:20.250847,-97.0
2023-12-13 14:36:20.258536,-109.0
2023-12-13 14:36:20.266225,-114.0
2023-12-13 14:36:20.273914,-106.0
2023-12-13 14:36:20.281603,-99.0
2023-12-13 14:36:20.289293,-95.0
2023-12-13 14:36:20.296982,-85.0
2023-12-13 14:36:20.304671,-78.0
2023-12-13 14:36:20.312360,-68.0
2023-12-13 14:36:20.320049,71.0
2023-12-13 14:36:20.327738,489.0
2023-12-13 14:36:20.335428,902.0
2023-12-13 14:36:20.343117,646.0
2023-12-13 14:36:20.350806,-263.0
2023-12-13 14:36:20.358495,-781.0
2023-12-13 14:36:20.366184,-470.0
2023-12-13 14:36:20.373873,-121.0
2023-12-13 14:36:20.381563,-118.0
2023-12-13 14:36:20.389252,-104.0
2023-12-13 14:36:20.396941,-38.0
2023-12-13 14:36:20.404630,-49.0
2023-12-13 14:36:20.412319,-64.0
2023-12-13 14:36:20.420008,-54.0
2023-12-13 14:36:20.427698,-57.0
2023-12-13 14:36:20.435387,-45.0
2023-12-13 14:36:20.443076,-28.0
2023-12-13 14:36:20.450765,-23.0
2023-12-13 14:36:20.458454,-16.0
2023-12-13 14:36:20.466143,-2.0
2023-12-13 14:36:20.473833,9.0
2023-12-13 14:36:20.481522,28.0
2023-12-13 14:36:20.489211,47.0
2023-12-13 14:36:20.496900,61.0
2023-12-13 14:36:20.504589,83.0
2023-12-13 14:36:20.512278,109.0
2023-12-13 14:36:20.519968,137.0
2023-12-13 14:36:20.527657,163.0
2023-12-13 14:36:20.535346,182.0
2023-12-13 14:36:20.543035,209.0
2023-12-13 14:36:20.550724,230.0
2023-12-13 14:36:20.558413,235.0
2023-12-13 14:36:20.566103,230.0
2023-12-13 14:36:20.573792,218.0
2023-12-13 14:36:20.581481,185.0
2023-12-13 14:36:20.589170,121.0
2023-12-13 14:36:20.596859,40.0
2023-12-13 14:36:20.604548,-40.0
2023-12-13 14:36:20.612238,-102.0
2023-12-13 14:36:20.619927,-147.0
2023-12-13 14:36:20.627616,-180.0
2023-12-13 14:36:20.635305,-204.0
2023-12-13 14:36:20.642994,-213.0
2023-12-13 14:36:20.650683,-216.0
2023-12-13 14:36:20.658373,-216.0
2023-12-13 14:36:20.666062,-211.0
2023-12-13 14:36:20.673751,-206.0
2023-12-13 14:36:20.681440,-206.0
2023-12-13 14:36:20.689129,-201.0
2023-12-13 14:36:20.696818,-192.0
2023-12-13 14:36:20.704508,-182.0
2023-12-13 14:36:20.712197,-171.0
2023-12-13 14:36:20.719886,-163.0
2023-12-13 14:36:20.727575,-161.0
2023-12-13 14:36:20.735264,-159.0
2023-12-13 14:36:20.742953,-149.0
2023-12-13 14:36:20.750643,-140.0
2023-12-13 14:36:20.758332,-135.0
2023-12-13 14:36:20.766021,-130.0
2023-12-13 14:36:20.773710,-133.0
2023-12-13 14:36:20.781399,-130.0
2023-12-13 14:36:20.789088,-121.0
2023-12-13 14:36:20.796778,-118.0
2023-12-13 14:36:20.804467,-137.0
2023-12-13 14:36:20.812156,-149.0
2023-12-13 14:36:20.819845,-147.0
2023-12-13 14:36:20.827534,-135.0
2023-12-13 14:36:20.835224,-116.0
2023-12-13 14:36:20.842913,-95.0
2023-12-13 14:36:20.850602,-78.0
2023-12-13 14:36:20.858291,-73.0
2023-12-13 14:36:20.865980,-87.0
2023-12-13 14:36:20.873669,-109.0
2023-12-13 14:36:20.881359,-116.0
2023-12-13 14:36:20.889048,-114.0
2023-12-13 14:36:20.896737,-109.0
2023-12-13 14:36:20.904426,-104.0
2023-12-13 14:36:20.912115,-102.0
2023-12-13 14:36:20.919804,-90.0
2023-12-13 14:36:20.927494,-78.0
2023-12-13 14:36:20.935183,-54.0
2023-12-13 14:36:20.942872,106.0
2023-12-13 14:36:20.950561,534.0
2023-12-13 14:36:20.958250,924.0
2023-12-13 14:36:20.965939,653.0
2023-12-13 14:36:20.973629,-225.0
2023-12-13 14:36:20.981318,-741.0
2023-12-13 14:36:20.989007,-477.0
2023-12-13 14:36:20.996696,-140.0
2023-12-13 14:36:21.004385,-144.0
2023-12-13 14:36:21.012074,-161.0
2023-12-13 14:36:21.019764,-92.0
2023-12-13 14:36:21.027453,-92.0
2023-12-13 14:36:21.035142,-116.0
2023-12-13 14:36:21.042831,-99.0
2023-12-13 14:36:21.050520,-90.0
2023-12-13 14:36:21.058209,-90.0
2023-12-13 14:36:21.065899,-71.0
2023-12-13 14:36:21.073588,-54.0
2023-12-13 14:36:21.081277,-47.0
2023-12-13 14:36:21.088966,-40.0
2023-12-13 14:36:21.096655,-30.0
2023-12-13 14:36:21.104344,-11.0
2023-12-13 14:36:21.112034,11.0
2023-12-13 14:36:21.119723,33.0
2023-12-13 14:36:21.127412,54.0
2023-12-13 14:36:21.135101,78.0
2023-12-13 14:36:21.142790,102.0
2023-12-13 14:36:21.150479,135.0
2023-12-13 14:36:21.158169,173.0
2023-12-13 14:36:21.165858,204.0
2023-12-13 14:36:21.173547,225.0
2023-12-13 14:36:21.181236,235.0
2023-12-13 14:36:21.188925,232.0
2023-12-13 14:36:21.196614,225.0
2023-12-13 14:36:21.204304,201.0
2023-12-13 14:36:21.211993,142.0
2023-12-13 14:36:21.219682,57.0
2023-12-13 14:36:21.227371,-28.0
2023-12-13 14:36:21.235060,-95.0
2023-12-13 14:36:21.242749,-140.0
2023-12-13 14:36:21.250439,-166.0
2023-12-13 14:36:21.258128,-182.0
2023-12-13 14:36:21.265817,-194.0
2023-12-13 14:36:21.273506,-204.0
2023-12-13 14:36:21.281195,-209.0
2023-12-13 14:36:21.288884,-211.0
2023-12-13 14:36:21.296574,-213.0
2023-12-13 14:36:21.304263,-213.0
2023-12-13 14:36:21.311952,-213.0
2023-12-13 14:36:21.319641,-209.0
2023-12-13 14:36:21.327330,-199.0
2023-12-13 14:36:21.335019,-190.0
2023-12-13 14:36:21.342709,-182.0
2023-12-13 14:36:21.350398,-175.0
2023-12-13 14:36:21.358087,-171.0
2023-12-13 14:36:21.365776,-168.0
2023-12-13 14:36:21.373465,-163.0
2023-12-13 14:36:21.381154,-152.0
2023-12-13 14:36:21.388844,-144.0
2023-12-13 14:36:21.396533,-140.0
2023-12-13 14:36:21.404222,-137.0
2023-12-13 14:36:21.411911,-137.0
2023-12-13 14:36:21.419600,-135.0
2023-12-13 14:36:21.427289,-128.0
2023-12-13 14:36:21.434979,-130.0
2023-12-13 14:36:21.442668,-133.0
2023-12-13 14:36:21.450357,-128.0
2023-12-13 14:36:21.458046,-121.0
2023-12-13 14:36:21.465735,-106.0
2023-12-13 14:36:21.473424,-85.0
2023-12-13 14:36:21.481114,-64.0
2023-12-13 14:36:21.488803,-54.0
2023-12-13 14:36:21.496492,-64.0
2023-12-13 14:36:21.504181,-87.0
2023-12-13 14:36:21.511870,-99.0
2023-12-13 14:36:21.519559,-99.0
2023-12-13 14:36:21.527249,-102.0
2023-12-13 14:36:21.534938,-109.0
2023-12-13 14:36:21.542627,-114.0
2023-12-13 14:36:21.550316,-109.0
2023-12-13 14:36:21.558005,-95.0
2023-12-13 14:36:21.565694,-80.0
2023-12-13 14:36:21.573384,23.0
2023-12-13 14:36:21.581073,377.0
2023-12-13 14:36:21.588762,838.0
2023-12-13 14:36:21.596451,807.0
2023-12-13 14:36:21.604140,30.0
2023-12-13 14:36:21.611829,-703.0
2023-12-13 14:36:21.619519,-620.0
2023-12-13 14:36:21.627208,-197.0
2023-12-13 14:36:21.634897,-111.0
2023-12-13 14:36:21.642586,-152.0
2023-12-13 14:36:21.650275,-90.0
2023-12-13 14:36:21.657964,-68.0
2023-12-13 14:36:21.665654,-83.0
2023-12-13 14:36:21.673343,-64.0
2023-12-13 14:36:21.681032,-47.0
2023-12-13 14:36:21.688721,-49.0
2023-12-13 14:36:21.696410,-40.0
2023-12-13 14:36:21.704099,-26.0
2023-12-13 14:36:21.711789,-14.0
2023-12-13 14:36:21.719478,-7.0
2023-12-13 14:36:21.727167,4.0
2023-12-13 14:36:21.734856,16.0
2023-12-13 14:36:21.742545,33.0
2023-12-13 14:36:21.750234,52.0
2023-12-13 14:36:21.757924,76.0
2023-12-13 14:36:21.765613,97.0
2023-12-13 14:36:21.773302,123.0
2023-12-13 14:36:21.780991,154.0
2023-12-13 14:36:21.788680,178.0
2023-12-13 14:36:21.796369,206.0
2023-12-13 14:36:21.804059,235.0
2023-12-13 14:36:21.811748,244.0
2023-12-13 14:36:21.819437,244.0
2023-12-13 14:36:21.827126,244.0
2023-12-13 14:36:21.834815,223.0
2023-12-13 14:36:21.842504,168.0
2023-12-13 14:36:21.850194,92.0
2023-12-13 14:36:21.857883,0.0
2023-12-13 14:36:21.865572,-76.0
2023-12-13 14:36:21.873261,-125.0
2023-12-13 14:36:21.880950,-161.0
2023-12-13 14:36:21.888639,-182.0
2023-12-13 14:36:21.896329,-190.0
2023-12-13 14:36:21.904018,-199.0
2023-12-13 14:36:21.911707,-201.0
2023-12-13 14:36:21.919396,-197.0
2023-12-13 14:36:21.927085,-201.0
2023-12-13 14:36:21.934774,-199.0
2023-12-13 14:36:21.942464,-190.0
2023-12-13 14:36:21.950153,-190.0
2023-12-13 14:36:21.957842,-185.0
2023-12-13 14:36:21.965531,-175.0
2023-12-13 14:36:21.973220,-168.0
2023-12-13 14:36:21.980909,-163.0
2023-12-13 14:36:21.988599,-159.0
2023-12-13 14:36:21.996288,-152.0
2023-12-13 14:36:22.003977,-147.0
2023-12-13 14:36:22.011666,-140.0
2023-12-13 14:36:22.019355,-130.0
2023-12-13 14:36:22.027044,-128.0
2023-12-13 14:36:22.034734,-137.0
2023-12-13 14:36:22.042423,-152.0
2023-12-13 14:36:22.050112,-149.0
2023-12-13 14:36:22.057801,-140.0
2023-12-13 14:36:22.065490,-142.0
2023-12-13 14:36:22.073179,-149.0
2023-12-13 14:36:22.080869,-159.0
2023-12-13 14:36:22.088558,-166.0
2023-12-13 14:36:22.096247,-149.0
2023-12-13 14:36:22.103936,-121.0
2023-12-13 14:36:22.111625,-104.0
2023-12-13 14:36:22.119314,-87.0
2023-12-13 14:36:22.127004,-87.0
2023-12-13 14:36:22.134693,-109.0
2023-12-13 14:36:22.142382,-123.0
2023-12-13 14:36:22.150071,-123.0
2023-12-13 14:36:22.157760,-121.0
2023-12-13 14:36:22.165449,-121.0
2023-12-13 14:36:22.173139,-111.0
2023-12-13 14:36:22.180828,-102.0
2023-12-13 14:36:22.188517,-92.0
2023-12-13 14:36:22.196206,-80.0
2023-12-13 14:36:22.203895,-21.0
2023-12-13 14:36:22.211584,251.0
2023-12-13 14:36:22.219274,739.0
2023-12-13 14:36:22.226963,933.0
2023-12-13 14:36:22.234652,344.0
2023-12-13 14:36:22.242341,-532.0
2023-12-13 14:36:22.250030,-693.0
2023-12-13 14:36:22.257719,-268.0
2023-12-13 14:36:22.265409,-80.0
2023-12-13 14:36:22.273098,-128.0
2023-12-13 14:36:22.280787,-90.0
2023-12-13 14:36:22.288476,-54.0
2023-12-13 14:36:22.296165,-80.0
2023-12-13 14:36:22.303854,-73.0
2023-12-13 14:36:22.311544,-49.0
2023-12-13 14:36:22.319233,-45.0
2023-12-13 14:36:22.326922,-40.0
2023-12-13 14:36:22.334611,-23.0
2023-12-13 14:36:22.342300,-16.0
2023-12-13 14:36:22.349989,-11.0
2023-12-13 14:36:22.357679,2.0
2023-12-13 14:36:22.365368,19.0
2023-12-13 14:36:22.373057,35.0
2023-12-13 14:36:22.380746,49.0
2023-12-13 14:36:22.388435,68.0
2023-12-13 14:36:22.396124,92.0
2023-12-13 14:36:22.403814,121.0
2023-12-13 14:36:22.411503,152.0
2023-12-13 14:36:22.419192,187.0
2023-12-13 14:36:22.426881,220.0
2023-12-13 14:36:22.434570,244.0
2023-12-13 14:36:22.442259,259.0
2023-12-13 14:36:22.449949,266.0
2023-12-13 14:36:22.457638,266.0
2023-12-13 14:36:22.465327,251.0
2023-12-13 14:36:22.473016,206.0
2023-12-13 14:36:22.480705,130.0
2023-12-13 14:36:22.488394,40.0
2023-12-13 14:36:22.496084,-35.0
2023-12-13 14:36:22.503773,-95.0
2023-12-13 14:36:22.511462,-137.0
2023-12-13 14:36:22.519151,-161.0
2023-12-13 14:36:22.526840,-182.0
2023-12-13 14:36:22.534529,-199.0
2023-12-13 14:36:22.542219,-209.0
2023-12-13 14:36:22.549908,-218.0
2023-12-13 14:36:22.557597,-218.0
2023-12-13 14:36:22.565286,-211.0
2023-12-13 14:36:22.572975,-216.0
2023-12-13 14:36:22.580664,-216.0
2023-12-13 14:36:22.588354,-204.0
2023-12-13 14:36:22.596043,-194.0
2023-12-13 14:36:22.603732,-190.0
2023-12-13 14:36:22.611421,-180.0
2023-12-13 14:36:22.619110,-175.0
2023-12-13 14:36:22.626799,-171.0
2023-12-13 14:36:22.634489,-163.0
2023-12-13 14:36:22.642178,-154.0
2023-12-13 14:36:22.649867,-147.0
2023-12-13 14:36:22.657556,-147.0
2023-12-13 14:36:22.665245,-161.0
2023-12-13 14:36:22.672934,-173.0
2023-12-13 14:36:22.680624,-166.0
2023-12-13 14:36:22.688313,-154.0
2023-12-13 14:36:22.696002,-154.0
2023-12-13 14:36:22.703691,-161.0
2023-12-13 14:36:22.711380,-166.0
2023-12-13 14:36:22.719069,-163.0
2023-12-13 14:36:22.726759,-149.0
2023-12-13 14:36:22.734448,-133.0
2023-12-13 14:36:22.742137,-111.0
2023-12-13 14:36:22.749826,-95.0
2023-12-13 14:36:22.757515,-90.0
2023-12-13 14:36:22.765204,-99.0
2023-12-13 14:36:22.772894,-118.0
2023-12-13 14:36:22.780583,-137.0
2023-12-13 14:36:22.788272,-144.0
2023-12-13 14:36:22.795961,-144.0
2023-12-13 14:36:22.803650,-147.0
2023-12-13 14:36:22.811339,-140.0
2023-12-13 14:36:22.819029,-123.0
2023-12-13 14:36:22.826718,-114.0
2023-12-13 14:36:22.834407,-104.0
2023-12-13 14:36:22.842096,-14.0
2023-12-13 14:36:22.849785,332.0
2023-12-13 14:36:22.857474,815.0
2023-12-13 14:36:22.865164,819.0
2023-12-13 14:36:22.872853,42.0
2023-12-13 14:36:22.880542,-705.0
2023-12-13 14:36:22.888231,-634.0
2023-12-13 14:36:22.895920,-218.0
2023-12-13 14:36:22.903609,-123.0
2023-12-13 14:36:22.911299,-149.0
2023-12-13 14:36:22.918988,-87.0
2023-12-13 14:36:22.926677,-71.0
2023-12-13 14:36:22.934366,-90.0
2023-12-13 14:36:22.942055,-71.0
2023-12-13 14:36:22.949744,-52.0
2023-12-13 14:36:22.957434,-52.0
2023-12-13 14:36:22.965123,-45.0
2023-12-13 14:36:22.972812,-33.0
2023-12-13 14:36:22.980501,-28.0
2023-12-13 14:36:22.988190,-16.0
2023-12-13 14:36:22.995879,2.0
2023-12-13 14:36:23.003569,16.0
2023-12-13 14:36:23.011258,28.0
2023-12-13 14:36:23.018947,38.0
2023-12-13 14:36:23.026636,52.0
2023-12-13 14:36:23.034325,76.0
2023-12-13 14:36:23.042015,109.0
2023-12-13 14:36:23.049704,135.0
2023-12-13 14:36:23.057393,154.0
2023-12-13 14:36:23.065082,185.0
2023-12-13 14:36:23.072771,211.0
2023-12-13 14:36:23.080460,220.0
2023-12-13 14:36:23.088150,225.0
2023-12-13 14:36:23.095839,230.0
2023-12-13 14:36:23.103528,213.0
2023-12-13 14:36:23.111217,159.0
2023-12-13 14:36:23.118906,73.0
2023-12-13 14:36:23.126595,-14.0
2023-12-13 14:36:23.134285,-80.0
2023-12-13 14:36:23.141974,-140.0
2023-12-13 14:36:23.149663,-182.0
2023-12-13 14:36:23.157352,-199.0
2023-12-13 14:36:23.165041,-209.0
2023-12-13 14:36:23.172730,-223.0
2023-12-13 14:36:23.180420,-218.0
2023-12-13 14:36:23.188109,-209.0
2023-12-13 14:36:23.195798,-213.0
2023-12-13 14:36:23.203487,-220.0
2023-12-13 14:36:23.211176,-220.0
2023-12-13 14:36:23.218865,-213.0
2023-12-13 14:36:23.226555,-209.0
2023-12-13 14:36:23.234244,-199.0
2023-12-13 14:36:23.241933,-192.0
2023-12-13 14:36:23.249622,-194.0
2023-12-13 14:36:23.257311,-209.0
2023-12-13 14:36:23.265000,-211.0
2023-12-13 14:36:23.272690,-201.0
2023-12-13 14:36:23.280379,-197.0
2023-12-13 14:36:23.288068,-197.0
2023-12-13 14:36:23.295757,-194.0
2023-12-13 14:36:23.303446,-192.0
2023-12-13 14:36:23.311135,-190.0
2023-12-13 14:36:23.318825,-185.0
2023-12-13 14:36:23.326514,-175.0
2023-12-13 14:36:23.334203,-175.0
2023-12-13 14:36:23.341892,-178.0
2023-12-13 14:36:23.349581,-175.0
2023-12-13 14:36:23.357270,-166.0
2023-12-13 14:36:23.364960,-154.0
2023-12-13 14:36:23.372649,-135.0
2023-12-13 14:36:23.380338,-114.0
2023-12-13 14:36:23.388027,-102.0
2023-12-13 14:36:23.395716,-102.0
2023-12-13 14:36:23.403405,-116.0
2023-12-13 14:36:23.411095,-128.0
2023-12-13 14:36:23.418784,-130.0
2023-12-13 14:36:23.426473,-135.0
2023-12-13 14:36:23.434162,-133.0
2023-12-13 14:36:23.441851,-123.0
2023-12-13 14:36:23.449540,-111.0
2023-12-13 14:36:23.457230,-104.0
2023-12-13 14:36:23.464919,-97.0
2023-12-13 14:36:23.472608,-54.0
2023-12-13 14:36:23.480297,175.0
2023-12-13 14:36:23.487986,655.0
2023-12-13 14:36:23.495675,926.0
2023-12-13 14:36:23.503365,392.0
2023-12-13 14:36:23.511054,-539.0
2023-12-13 14:36:23.518743,-779.0
2023-12-13 14:36:23.526432,-349.0
2023-12-13 14:36:23.534121,-121.0
2023-12-13 14:36:23.541810,-156.0
2023-12-13 14:36:23.549500,-114.0
2023-12-13 14:36:23.557189,-73.0
2023-12-13 14:36:23.564878,-92.0
2023-12-13 14:36:23.572567,-83.0
2023-12-13 14:36:23.580256,-59.0
2023-12-13 14:36:23.587945,-57.0
2023-12-13 14:36:23.595635,-52.0
2023-12-13 14:36:23.603324,-38.0
2023-12-13 14:36:23.611013,-28.0
2023-12-13 14:36:23.618702,-19.0
2023-12-13 14:36:23.626391,-2.0
2023-12-13 14:36:23.634080,11.0
2023-12-13 14:36:23.641770,26.0
2023-12-13 14:36:23.649459,47.0
2023-12-13 14:36:23.657148,71.0
2023-12-13 14:36:23.664837,90.0
2023-12-13 14:36:23.672526,118.0
2023-12-13 14:36:23.680215,152.0
2023-12-13 14:36:23.687905,185.0
2023-12-13 14:36:23.695594,220.0
2023-12-13 14:36:23.703283,249.0
2023-12-13 14:36:23.710972,266.0
2023-12-13 14:36:23.718661,270.0
2023-12-13 14:36:23.726350,268.0
2023-12-13 14:36:23.734040,251.0
2023-12-13 14:36:23.741729,206.0
2023-12-13 14:36:23.749418,130.0
2023-12-13 14:36:23.757107,35.0
2023-12-13 14:36:23.764796,-47.0
2023-12-13 14:36:23.772485,-109.0
2023-12-13 14:36:23.780175,-159.0
2023-12-13 14:36:23.787864,-197.0
2023-12-13 14:36:23.795553,-223.0
2023-12-13 14:36:23.803242,-228.0
2023-12-13 14:36:23.810931,-223.0
2023-12-13 14:36:23.818620,-223.0
2023-12-13 14:36:23.826310,-223.0
2023-12-13 14:36:23.833999,-220.0
2023-12-13 14:36:23.841688,-220.0
2023-12-13 14:36:23.849377,-218.0
2023-12-13 14:36:23.857066,-213.0
2023-12-13 14:36:23.864755,-204.0
2023-12-13 14:36:23.872445,-192.0
2023-12-13 14:36:23.880134,-187.0
2023-12-13 14:36:23.887823,-180.0
2023-12-13 14:36:23.895512,-171.0
2023-12-13 14:36:23.903201,-161.0
2023-12-13 14:36:23.910890,-156.0
2023-12-13 14:36:23.918580,-152.0
2023-12-13 14:36:23.926269,-147.0
2023-12-13 14:36:23.933958,-144.0
2023-12-13 14:36:23.941647,-137.0
2023-12-13 14:36:23.949336,-135.0
2023-12-13 14:36:23.957025,-133.0
2023-12-13 14:36:23.964715,-128.0
2023-12-13 14:36:23.972404,-133.0
2023-12-13 14:36:23.980093,-137.0
2023-12-13 14:36:23.987782,-130.0
2023-12-13 14:36:23.995471,-118.0
2023-12-13 14:36:24.003160,-114.0
2023-12-13 14:36:24.010850,-104.0
2023-12-13 14:36:24.018539,-85.0
2023-12-13 14:36:24.026228,-73.0
2023-12-13 14:36:24.033917,-78.0
2023-12-13 14:36:24.041606,-97.0
2023-12-13 14:36:24.049295,-116.0
2023-12-13 14:36:24.056985,-130.0
2023-12-13 14:36:24.064674,-133.0
2023-12-13 14:36:24.072363,-121.0
2023-12-13 14:36:24.080052,-109.0
2023-12-13 14:36:24.087741,-102.0
2023-12-13 14:36:24.095430,-95.0
2023-12-13 14:36:24.103120,-71.0
2023-12-13 14:36:24.110809,78.0
2023-12-13 14:36:24.118498,496.0
2023-12-13 14:36:24.126187,929.0
2023-12-13 14:36:24.133876,729.0
2023-12-13 14:36:24.141565,-147.0
2023-12-13 14:36:24.149255,-736.0
2023-12-13 14:36:24.156944,-506.0
2023-12-13 14:36:24.164633,-130.0
2023-12-13 14:36:24.172322,-104.0
2023-12-13 14:36:24.180011,-118.0
2023-12-13 14:36:24.187700,-57.0
2023-12-13 14:36:24.195390,-57.0
2023-12-13 14:36:24.203079,-68.0
2023-12-13 14:36:24.210768,-45.0
2023-12-13 14:36:24.218457,-30.0
2023-12-13 14:36:24.226146,-33.0
2023-12-13 14:36:24.233835,-23.0
2023-12-13 14:36:24.241525,-11.0
2023-12-13 14:36:24.249214,-11.0
2023-12-13 14:36:24.256903,-7.0
2023-12-13 14:36:24.264592,9.0
2023-12-13 14:36:24.272281,23.0
2023-12-13 14:36:24.279970,30.0
2023-12-13 14:36:24.287660,45.0
2023-12-13 14:36:24.295349,68.0
2023-12-13 14:36:24.303038,97.0
2023-12-13 14:36:24.310727,128.0
2023-12-13 14:36:24.318416,156.0
2023-12-13 14:36:24.326105,185.0
2023-12-13 14:36:24.333795,201.0
2023-12-13 14:36:24.341484,213.0
2023-12-13 14:36:24.349173,230.0
2023-12-13 14:36:24.356862,240.0
2023-12-13 14:36:24.364551,230.0
2023-12-13 14:36:24.372240,197.0
2023-12-13 14:36:24.379930,135.0
2023-12-13 14:36:24.387619,54.0
2023-12-13 14:36:24.395308,-28.0
2023-12-13 14:36:24.402997,-97.0
2023-12-13 14:36:24.410686,-147.0
2023-12-13 14:36:24.418375,-180.0
2023-12-13 14:36:24.426065,-197.0
2023-12-13 14:36:24.433754,-199.0
2023-12-13 14:36:24.441443,-199.0
2023-12-13 14:36:24.449132,-204.0
2023-12-13 14:36:24.456821,-204.0
2023-12-13 14:36:24.464510,-206.0
2023-12-13 14:36:24.472200,-206.0
2023-12-13 14:36:24.479889,-199.0
2023-12-13 14:36:24.487578,-192.0
2023-12-13 14:36:24.495267,-192.0
2023-12-13 14:36:24.502956,-194.0
2023-12-13 14:36:24.510645,-192.0
2023-12-13 14:36:24.518335,-185.0
2023-12-13 14:36:24.526024,-173.0
2023-12-13 14:36:24.533713,-163.0
2023-12-13 14:36:24.541402,-156.0
2023-12-13 14:36:24.549091,-154.0
2023-12-13 14:36:24.556780,-159.0
2023-12-13 14:36:24.564470,-163.0
2023-12-13 14:36:24.572159,-159.0
2023-12-13 14:36:24.579848,-149.0
2023-12-13 14:36:24.587537,-144.0
2023-12-13 14:36:24.595226,-147.0
2023-12-13 14:36:24.602915,-147.0
2023-12-13 14:36:24.610605,-140.0
2023-12-13 14:36:24.618294,-135.0
2023-12-13 14:36:24.625983,-137.0
2023-12-13 14:36:24.633672,-135.0
2023-12-13 14:36:24.641361,-128.0
2023-12-13 14:36:24.649050,-121.0
2023-12-13 14:36:24.656740,-102.0
2023-12-13 14:36:24.664429,-73.0
2023-12-13 14:36:24.672118,-57.0
2023-12-13 14:36:24.679807,-57.0
2023-12-13 14:36:24.687496,-78.0
2023-12-13 14:36:24.695185,-99.0
2023-12-13 14:36:24.702875,-104.0
2023-12-13 14:36:24.710564,-99.0
2023-12-13 14:36:24.718253,-95.0
2023-12-13 14:36:24.725942,-87.0
2023-12-13 14:36:24.733631,-80.0
2023-12-13 14:36:24.741320,-78.0
2023-12-13 14:36:24.749010,-76.0
2023-12-13 14:36:24.756699,-14.0
2023-12-13 14:36:24.764388,256.0
2023-12-13 14:36:24.772077,746.0
2023-12-13 14:36:24.779766,948.0
2023-12-13 14:36:24.787455,358.0
2023-12-13 14:36:24.795145,-529.0
2023-12-13 14:36:24.802834,-708.0
2023-12-13 14:36:24.810523,-287.0
2023-12-13 14:36:24.818212,-87.0
2023-12-13 14:36:24.825901,-128.0
2023-12-13 14:36:24.833590,-92.0
2023-12-13 14:36:24.841280,-49.0
2023-12-13 14:36:24.848969,-66.0
2023-12-13 14:36:24.856658,-54.0
2023-12-13 14:36:24.864347,-30.0
2023-12-13 14:36:24.872036,-33.0
2023-12-13 14:36:24.879725,-33.0
2023-12-13 14:36:24.887415,-14.0
2023-12-13 14:36:24.895104,-2.0
2023-12-13 14:36:24.902793,2.0
2023-12-13 14:36:24.910482,11.0
2023-12-13 14:36:24.918171,9.0
2023-12-13 14:36:24.925860,7.0
2023-12-13 14:36:24.933550,30.0
2023-12-13 14:36:24.941239,61.0
2023-12-13 14:36:24.948928,83.0
2023-12-13 14:36:24.956617,109.0
2023-12-13 14:36:24.964306,135.0
2023-12-13 14:36:24.971995,166.0
2023-12-13 14:36:24.979685,201.0
2023-12-13 14:36:24.987374,230.0
2023-12-13 14:36:24.995063,247.0
2023-12-13 14:36:25.002752,251.0
2023-12-13 14:36:25.010441,249.0
2023-12-13 14:36:25.018130,230.0
2023-12-13 14:36:25.025820,185.0
2023-12-13 14:36:25.033509,114.0
2023-12-13 14:36:25.041198,33.0
2023-12-13 14:36:25.048887,-45.0
2023-12-13 14:36:25.056576,-116.0
2023-12-13 14:36:25.064265,-178.0
2023-12-13 14:36:25.071955,-206.0
2023-12-13 14:36:25.079644,-213.0
2023-12-13 14:36:25.087333,-223.0
2023-12-13 14:36:25.095022,-232.0
2023-12-13 14:36:25.102711,-232.0
2023-12-13 14:36:25.110400,-228.0
2023-12-13 14:36:25.118090,-220.0
2023-12-13 14:36:25.125779,-213.0
2023-12-13 14:36:25.133468,-206.0
2023-12-13 14:36:25.141157,-201.0
2023-12-13 14:36:25.148846,-194.0
2023-12-13 14:36:25.156535,-190.0
2023-12-13 14:36:25.164225,-180.0
2023-12-13 14:36:25.171914,-171.0
2023-12-13 14:36:25.179603,-163.0
2023-12-13 14:36:25.187292,-161.0
2023-12-13 14:36:25.194981,-154.0
2023-12-13 14:36:25.202670,-147.0
2023-12-13 14:36:25.210360,-142.0
2023-12-13 14:36:25.218049,-137.0
2023-12-13 14:36:25.225738,-130.0
2023-12-13 14:36:25.233427,-130.0
2023-12-13 14:36:25.241116,-137.0
2023-12-13 14:36:25.248806,-133.0
2023-12-13 14:36:25.256495,-123.0
2023-12-13 14:36:25.264184,-125.0
2023-12-13 14:36:25.271873,-130.0
2023-12-13 14:36:25.279562,-128.0
2023-12-13 14:36:25.287251,-121.0
2023-12-13 14:36:25.294941,-123.0
2023-12-13 14:36:25.302630,-125.0
2023-12-13 14:36:25.310319,-118.0
2023-12-13 14:36:25.318008,-109.0
2023-12-13 14:36:25.325697,-95.0
2023-12-13 14:36:25.333386,-76.0
2023-12-13 14:36:25.341076,-57.0
2023-12-13 14:36:25.348765,-45.0
2023-12-13 14:36:25.356454,-42.0
2023-12-13 14:36:25.364143,-61.0
2023-12-13 14:36:25.371832,-83.0
2023-12-13 14:36:25.379521,-87.0
2023-12-13 14:36:25.387211,-85.0
2023-12-13 14:36:25.394900,-80.0
2023-12-13 14:36:25.402589,-71.0
2023-12-13 14:36:25.410278,-66.0
2023-12-13 14:36:25.417967,-59.0
2023-12-13 14:36:25.425656,-52.0
2023-12-13 14:36:25.433346,16.0
2023-12-13 14:36:25.441035,304.0
2023-12-13 14:36:25.448724,788.0
2023-12-13 14:36:25.456413,933.0
2023-12-13 14:36:25.464102,280.0
2023-12-13 14:36:25.471791,-579.0
2023-12-13 14:36:25.479481,-691.0
2023-12-13 14:36:25.487170,-275.0
2023-12-13 14:36:25.494859,-102.0
2023-12-13 14:36:25.502548,-135.0
2023-12-13 14:36:25.510237,-92.0
2023-12-13 14:36:25.517926,-57.0
2023-12-13 14:36:25.525616,-76.0
2023-12-13 14:36:25.533305,-61.0
2023-12-13 14:36:25.540994,-40.0
2023-12-13 14:36:25.548683,-40.0
2023-12-13 14:36:25.556372,-35.0
2023-12-13 14:36:25.564061,-30.0
2023-12-13 14:36:25.571751,-35.0
2023-12-13 14:36:25.579440,-23.0
2023-12-13 14:36:25.587129,0.0
2023-12-13 14:36:25.594818,9.0
2023-12-13 14:36:25.602507,19.0
2023-12-13 14:36:25.610196,38.0
2023-12-13 14:36:25.617886,61.0
2023-12-13 14:36:25.625575,83.0
2023-12-13 14:36:25.633264,109.0
2023-12-13 14:36:25.640953,140.0
2023-12-13 14:36:25.648642,171.0
2023-12-13 14:36:25.656331,199.0
2023-12-13 14:36:25.664021,225.0
2023-12-13 14:36:25.671710,247.0
2023-12-13 14:36:25.679399,256.0
2023-12-13 14:36:25.687088,254.0
2023-12-13 14:36:25.694777,240.0
2023-12-13 14:36:25.702466,199.0
2023-12-13 14:36:25.710156,125.0
2023-12-13 14:36:25.717845,35.0
2023-12-13 14:36:25.725534,-57.0
2023-12-13 14:36:25.733223,-130.0
2023-12-13 14:36:25.740912,-175.0
2023-12-13 14:36:25.748601,-201.0
2023-12-13 14:36:25.756291,-220.0
2023-12-13 14:36:25.763980,-232.0
2023-12-13 14:36:25.771669,-232.0
2023-12-13 14:36:25.779358,-228.0
2023-12-13 14:36:25.787047,-220.0
2023-12-13 14:36:25.794736,-216.0
2023-12-13 14:36:25.802426,-213.0
2023-12-13 14:36:25.810115,-206.0
2023-12-13 14:36:25.817804,-199.0
2023-12-13 14:36:25.825493,-190.0
2023-12-13 14:36:25.833182,-178.0
2023-12-13 14:36:25.840871,-173.0
2023-12-13 14:36:25.848561,-168.0
2023-12-13 14:36:25.856250,-166.0
2023-12-13 14:36:25.863939,-161.0
2023-12-13 14:36:25.871628,-152.0
2023-12-13 14:36:25.879317,-142.0
2023-12-13 14:36:25.887006,-137.0
2023-12-13 14:36:25.894696,-135.0
2023-12-13 14:36:25.902385,-135.0
2023-12-13 14:36:25.910074,-128.0
2023-12-13 14:36:25.917763,-125.0
2023-12-13 14:36:25.925452,-125.0
2023-12-13 14:36:25.933141,-123.0
2023-12-13 14:36:25.940831,-116.0
2023-12-13 14:36:25.948520,-116.0
2023-12-13 14:36:25.956209,-116.0
2023-12-13 14:36:25.963898,-111.0
2023-12-13 14:36:25.971587,-114.0
2023-12-13 14:36:25.979276,-128.0
2023-12-13 14:36:25.986966,-128.0
2023-12-13 14:36:25.994655,-111.0
2023-12-13 14:36:26.002344,-97.0
2023-12-13 14:36:26.010033,-80.0
2023-12-13 14:36:26.017722,-59.0
2023-12-13 14:36:26.025411,-47.0
2023-12-13 14:36:26.033101,-57.0
2023-12-13 14:36:26.040790,-80.0
2023-12-13 14:36:26.048479,-95.0
2023-12-13 14:36:26.056168,-92.0
2023-12-13 14:36:26.063857,-90.0
2023-12-13 14:36:26.071546,-102.0
2023-12-13 14:36:26.079236,-111.0
2023-12-13 14:36:26.086925,-116.0
2023-12-13 14:36:26.094614,-118.0
2023-12-13 14:36:26.102303,-106.0
2023-12-13 14:36:26.109992,-4.0
2023-12-13 14:36:26.117681,332.0
2023-12-13 14:36:26.125371,810.0
2023-12-13 14:36:26.133060,822.0
2023-12-13 14:36:26.140749,45.0
2023-12-13 14:36:26.148438,-727.0
2023-12-13 14:36:26.156127,-667.0
2023-12-13 14:36:26.163816,-249.0
2023-12-13 14:36:26.171506,-152.0
2023-12-13 14:36:26.179195,-175.0
2023-12-13 14:36:26.186884,-109.0
2023-12-13 14:36:26.194573,-90.0
2023-12-13 14:36:26.202262,-104.0
2023-12-13 14:36:26.209951,-83.0
2023-12-13 14:36:26.217641,-66.0
2023-12-13 14:36:26.225330,-73.0
2023-12-13 14:36:26.233019,-66.0
2023-12-13 14:36:26.240708,-47.0
2023-12-13 14:36:26.248397,-35.0
2023-12-13 14:36:26.256086,-33.0
2023-12-13 14:36:26.263776,-23.0
2023-12-13 14:36:26.271465,-7.0
2023-12-13 14:36:26.279154,2.0
2023-12-13 14:36:26.286843,14.0
2023-12-13 14:36:26.294532,38.0
2023-12-13 14:36:26.302221,71.0
2023-12-13 14:36:26.309911,92.0
2023-12-13 14:36:26.317600,114.0
2023-12-13 14:36:26.325289,152.0
2023-12-13 14:36:26.332978,187.0
2023-12-13 14:36:26.340667,211.0
2023-12-13 14:36:26.348356,225.0
2023-12-13 14:36:26.356046,225.0
2023-12-13 14:36:26.363735,216.0
2023-12-13 14:36:26.371424,197.0
2023-12-13 14:36:26.379113,159.0
2023-12-13 14:36:26.386802,87.0
2023-12-13 14:36:26.394491,-4.0
2023-12-13 14:36:26.402181,-92.0
2023-12-13 14:36:26.409870,-152.0
2023-12-13 14:36:26.417559,-185.0
2023-12-13 14:36:26.425248,-206.0
2023-12-13 14:36:26.432937,-220.0
2023-12-13 14:36:26.440626,-228.0
2023-12-13 14:36:26.448316,-228.0
2023-12-13 14:36:26.456005,-223.0
2023-12-13 14:36:26.463694,-223.0
2023-12-13 14:36:26.471383,-225.0
2023-12-13 14:36:26.479072,-223.0
2023-12-13 14:36:26.486761,-216.0
2023-12-13 14:36:26.494451,-209.0
2023-12-13 14:36:26.502140,-192.0
2023-12-13 14:36:26.509829,-180.0
2023-12-13 14:36:26.517518,-178.0
2023-12-13 14:36:26.525207,-168.0
2023-12-13 14:36:26.532896,-156.0
2023-12-13 14:36:26.540586,-156.0
2023-12-13 14:36:26.548275,-149.0
2023-12-13 14:36:26.555964,-137.0
2023-12-13 14:36:26.563653,-130.0
2023-12-13 14:36:26.571342,-133.0
2023-12-13 14:36:26.579031,-144.0
2023-12-13 14:36:26.586721,-152.0
2023-12-13 14:36:26.594410,-140.0
2023-12-13 14:36:26.602099,-130.0
2023-12-13 14:36:26.609788,-130.0
2023-12-13 14:36:26.617477,-130.0
2023-12-13 14:36:26.625166,-144.0
2023-12-13 14:36:26.632856,-163.0
2023-12-13 14:36:26.640545,-154.0
2023-12-13 14:36:26.648234,-133.0
2023-12-13 14:36:26.655923,-118.0
2023-12-13 14:36:26.663612,-99.0
2023-12-13 14:36:26.671301,-83.0
2023-12-13 14:36:26.678991,-80.0
2023-12-13 14:36:26.686680,-90.0
2023-12-13 14:36:26.694369,-104.0
2023-12-13 14:36:26.702058,-111.0
2023-12-13 14:36:26.709747,-116.0
2023-12-13 14:36:26.717436,-121.0
2023-12-13 14:36:26.725126,-118.0
2023-12-13 14:36:26.732815,-111.0
2023-12-13 14:36:26.740504,-97.0
2023-12-13 14:36:26.748193,-87.0
2023-12-13 14:36:26.755882,-73.0
2023-12-13 14:36:26.763571,71.0
2023-12-13 14:36:26.771261,491.0
2023-12-13 14:36:26.778950,917.0
2023-12-13 14:36:26.786639,670.0
2023-12-13 14:36:26.794328,-251.0
2023-12-13 14:36:26.802017,-788.0
2023-12-13 14:36:26.809706,-484.0
2023-12-13 14:36:26.817396,-133.0
2023-12-13 14:36:26.825085,-128.0
2023-12-13 14:36:26.832774,-109.0
2023-12-13 14:36:26.840463,-38.0
2023-12-13 14:36:26.848152,-47.0
2023-12-13 14:36:26.855841,-57.0
2023-12-13 14:36:26.863531,-30.0
2023-12-13 14:36:26.871220,-21.0
2023-12-13 14:36:26.878909,-19.0
2023-12-13 14:36:26.886598,-4.0
2023-12-13 14:36:26.894287,4.0
2023-12-13 14:36:26.901976,7.0
2023-12-13 14:36:26.909666,16.0
2023-12-13 14:36:26.917355,28.0
2023-12-13 14:36:26.925044,40.0
2023-12-13 14:36:26.932733,57.0
2023-12-13 14:36:26.940422,73.0
2023-12-13 14:36:26.948111,90.0
2023-12-13 14:36:26.955801,109.0
2023-12-13 14:36:26.963490,135.0
2023-12-13 14:36:26.971179,159.0
2023-12-13 14:36:26.978868,190.0
2023-12-13 14:36:26.986557,216.0
2023-12-13 14:36:26.994246,228.0
2023-12-13 14:36:27.001936,235.0
2023-12-13 14:36:27.009625,242.0
2023-12-13 14:36:27.017314,235.0
2023-12-13 14:36:27.025003,201.0
2023-12-13 14:36:27.032692,140.0
2023-12-13 14:36:27.040381,54.0
2023-12-13 14:36:27.048071,-30.0
2023-12-13 14:36:27.055760,-97.0
2023-12-13 14:36:27.063449,-147.0
2023-12-13 14:36:27.071138,-178.0
2023-12-13 14:36:27.078827,-197.0
2023-12-13 14:36:27.086516,-216.0
2023-12-13 14:36:27.094206,-225.0
2023-12-13 14:36:27.101895,-216.0
2023-12-13 14:36:27.109584,-209.0
2023-12-13 14:36:27.117273,-206.0
2023-12-13 14:36:27.124962,-204.0
2023-12-13 14:36:27.132651,-197.0
2023-12-13 14:36:27.140341,-190.0
2023-12-13 14:36:27.148030,-180.0
2023-12-13 14:36:27.155719,-168.0
2023-12-13 14:36:27.163408,-166.0
2023-12-13 14:36:27.171097,-178.0
2023-12-13 14:36:27.178786,-173.0
2023-12-13 14:36:27.186476,-156.0
2023-12-13 14:36:27.194165,-149.0
2023-12-13 14:36:27.201854,-144.0
2023-12-13 14:36:27.209543,-144.0
2023-12-13 14:36:27.217232,-144.0
2023-12-13 14:36:27.224921,-140.0
2023-12-13 14:36:27.232611,-137.0
2023-12-13 14:36:27.240300,-137.0
2023-12-13 14:36:27.247989,-137.0
2023-12-13 14:36:27.255678,-137.0
2023-12-13 14:36:27.263367,-133.0
2023-12-13 14:36:27.271056,-128.0
2023-12-13 14:36:27.278746,-125.0
2023-12-13 14:36:27.286435,-121.0
2023-12-13 14:36:27.294124,-121.0
2023-12-13 14:36:27.301813,-121.0
2023-12-13 14:36:27.309502,-111.0
2023-12-13 14:36:27.317191,-99.0
2023-12-13 14:36:27.324881,-83.0
2023-12-13 14:36:27.332570,-61.0
2023-12-13 14:36:27.340259,-45.0
2023-12-13 14:36:27.347948,-45.0
2023-12-13 14:36:27.355637,-61.0
2023-12-13 14:36:27.363326,-78.0
2023-12-13 14:36:27.371016,-87.0
2023-12-13 14:36:27.378705,-85.0
2023-12-13 14:36:27.386394,-78.0
2023-12-13 14:36:27.394083,-73.0
2023-12-13 14:36:27.401772,-64.0
2023-12-13 14:36:27.409461,-54.0
2023-12-13 14:36:27.417151,-47.0
2023-12-13 14:36:27.424840,23.0
2023-12-13 14:36:27.432529,308.0
2023-12-13 14:36:27.440218,784.0
2023-12-13 14:36:27.447907,943.0
2023-12-13 14:36:27.455597,332.0
2023-12-13 14:36:27.463286,-527.0
2023-12-13 14:36:27.470975,-667.0
2023-12-13 14:36:27.478664,-254.0
2023-12-13 14:36:27.486353,-76.0
2023-12-13 14:36:27.494042,-111.0
2023-12-13 14:36:27.501732,-68.0
2023-12-13 14:36:27.509421,-35.0
2023-12-13 14:36:27.517110,-54.0
2023-12-13 14:36:27.524799,-42.0
2023-12-13 14:36:27.532488,-26.0
2023-12-13 14:36:27.540177,-23.0
2023-12-13 14:36:27.547867,-19.0
2023-12-13 14:36:27.555556,-9.0
2023-12-13 14:36:27.563245,-7.0
2023-12-13 14:36:27.570934,2.0
2023-12-13 14:36:27.578623,9.0
2023-12-13 14:36:27.586312,14.0
2023-12-13 14:36:27.594002,16.0
2023-12-13 14:36:27.601691,26.0
2023-12-13 14:36:27.609380,42.0
2023-12-13 14:36:27.617069,59.0
2023-12-13 14:36:27.624758,78.0
2023-12-13 14:36:27.632447,104.0
2023-12-13 14:36:27.640137,135.0
2023-12-13 14:36:27.647826,166.0
2023-12-13 14:36:27.655515,194.0
2023-12-13 14:36:27.663204,213.0
2023-12-13 14:36:27.670893,220.0
2023-12-13 14:36:27.678582,223.0
2023-12-13 14:36:27.686272,211.0
2023-12-13 14:36:27.693961,171.0
2023-12-13 14:36:27.701650,92.0
2023-12-13 14:36:27.709339,-7.0
2023-12-13 14:36:27.717028,-95.0
2023-12-13 14:36:27.724717,-152.0
2023-12-13 14:36:27.732407,-197.0
2023-12-13 14:36:27.740096,-232.0
2023-12-13 14:36:27.747785,-249.0
2023-12-13 14:36:27.755474,-251.0
2023-12-13 14:36:27.763163,-249.0
2023-12-13 14:36:27.770852,-240.0
2023-12-13 14:36:27.778542,-230.0
2023-12-13 14:36:27.786231,-225.0
2023-12-13 14:36:27.793920,-218.0
2023-12-13 14:36:27.801609,-211.0
2023-12-13 14:36:27.809298,-199.0
2023-12-13 14:36:27.816987,-190.0
2023-12-13 14:36:27.824677,-180.0
2023-12-13 14:36:27.832366,-175.0
2023-12-13 14:36:27.840055,-171.0
2023-12-13 14:36:27.847744,-163.0
2023-12-13 14:36:27.855433,-154.0
2023-12-13 14:36:27.863122,-144.0
2023-12-13 14:36:27.870812,-140.0
2023-12-13 14:36:27.878501,-135.0
2023-12-13 14:36:27.886190,-133.0
2023-12-13 14:36:27.893879,-130.0
2023-12-13 14:36:27.901568,-123.0
2023-12-13 14:36:27.909257,-114.0
2023-12-13 14:36:27.916947,-111.0
2023-12-13 14:36:27.924636,-114.0
2023-12-13 14:36:27.932325,-114.0
2023-12-13 14:36:27.940014,-111.0
2023-12-13 14:36:27.947703,-111.0
2023-12-13 14:36:27.955392,-109.0
2023-12-13 14:36:27.963082,-106.0
2023-12-13 14:36:27.970771,-111.0
2023-12-13 14:36:27.978460,-114.0
2023-12-13 14:36:27.986149,-104.0
2023-12-13 14:36:27.993838,-90.0
2023-12-13 14:36:28.001527,-68.0
2023-12-13 14:36:28.009217,-47.0
2023-12-13 14:36:28.016906,-35.0
2023-12-13 14:36:28.024595,-35.0
2023-12-13 14:36:28.032284,-52.0
2023-12-13 14:36:28.039973,-68.0
2023-12-13 14:36:28.047662,-73.0
2023-12-13 14:36:28.055352,-76.0
2023-12-13 14:36:28.063041,-76.0
2023-12-13 14:36:28.070730,-71.0
2023-12-13 14:36:28.078419,-61.0
2023-12-13 14:36:28.086108,-52.0
2023-12-13 14:36:28.093797,-52.0
2023-12-13 14:36:28.101487,-19.0
2023-12-13 14:36:28.109176,213.0
2023-12-13 14:36:28.116865,689.0
2023-12-13 14:36:28.124554,960.0
2023-12-13 14:36:28.132243,470.0
2023-12-13 14:36:28.139932,-430.0
2023-12-13 14:36:28.147622,-715.0
2023-12-13 14:36:28.155311,-330.0
2023-12-13 14:36:28.163000,-85.0
2023-12-13 14:36:28.170689,-109.0
2023-12-13 14:36:28.178378,-78.0
2023-12-13 14:36:28.186067,-40.0
2023-12-13 14:36:28.193757,-68.0
2023-12-13 14:36:28.201446,-73.0
2023-12-13 14:36:28.209135,-49.0
2023-12-13 14:36:28.216824,-42.0
2023-12-13 14:36:28.224513,-40.0
2023-12-13 14:36:28.232202,-30.0
2023-12-13 14:36:28.239892,-33.0
2023-12-13 14:36:28.247581,-35.0
2023-12-13 14:36:28.255270,-28.0
2023-12-13 14:36:28.262959,-16.0
2023-12-13 14:36:28.270648,-4.0
2023-12-13 14:36:28.278337,14.0
2023-12-13 14:36:28.286027,26.0
2023-12-13 14:36:28.293716,28.0
2023-12-13 14:36:28.301405,42.0
2023-12-13 14:36:28.309094,78.0
2023-12-13 14:36:28.316783,114.0
2023-12-13 14:36:28.324472,144.0
2023-12-13 14:36:28.332162,178.0
2023-12-13 14:36:28.339851,199.0
2023-12-13 14:36:28.347540,209.0
2023-12-13 14:36:28.355229,213.0
2023-12-13 14:36:28.362918,211.0
2023-12-13 14:36:28.370607,187.0
2023-12-13 14:36:28.378297,128.0
2023-12-13 14:36:28.385986,35.0
2023-12-13 14:36:28.393675,-47.0
2023-12-13 14:36:28.401364,-106.0
2023-12-13 14:36:28.409053,-152.0
2023-12-13 14:36:28.416742,-185.0
2023-12-13 14:36:28.424432,-201.0
2023-12-13 14:36:28.432121,-216.0
2023-12-13 14:36:28.439810,-220.0
2023-12-13 14:36:28.447499,-218.0
2023-12-13 14:36:28.455188,-209.0
2023-12-13 14:36:28.462877,-201.0
2023-12-13 14:36:28.470567,-199.0
2023-12-13 14:36:28.478256,-194.0
2023-12-13 14:36:28.485945,-182.0
2023-12-13 14:36:28.493634,-171.0
2023-12-13 14:36:28.501323,-163.0
2023-12-13 14:36:28.509012,-156.0
2023-12-13 14:36:28.516702,-152.0
2023-12-13 14:36:28.524391,-147.0
2023-12-13 14:36:28.532080,-140.0
2023-12-13 14:36:28.539769,-130.0
2023-12-13 14:36:28.547458,-121.0
2023-12-13 14:36:28.555147,-118.0
2023-12-13 14:36:28.562837,-118.0
2023-12-13 14:36:28.570526,-114.0
2023-12-13 14:36:28.578215,-109.0
2023-12-13 14:36:28.585904,-106.0
2023-12-13 14:36:28.593593,-109.0
2023-12-13 14:36:28.601282,-118.0
2023-12-13 14:36:28.608972,-125.0
2023-12-13 14:36:28.616661,-123.0
2023-12-13 14:36:28.624350,-114.0
2023-12-13 14:36:28.632039,-104.0
2023-12-13 14:36:28.639728,-106.0
2023-12-13 14:36:28.647417,-111.0
2023-12-13 14:36:28.655107,-114.0
2023-12-13 14:36:28.662796,-109.0
2023-12-13 14:36:28.670485,-90.0
2023-12-13 14:36:28.678174,-73.0
2023-12-13 14:36:28.685863,-64.0
2023-12-13 14:36:28.693552,-52.0
2023-12-13 14:36:28.701242,-47.0
2023-12-13 14:36:28.708931,-66.0
2023-12-13 14:36:28.716620,-83.0
2023-12-13 14:36:28.724309,-87.0
2023-12-13 14:36:28.731998,-92.0
2023-12-13 14:36:28.739687,-97.0
2023-12-13 14:36:28.747377,-95.0
2023-12-13 14:36:28.755066,-85.0
2023-12-13 14:36:28.762755,-78.0
2023-12-13 14:36:28.770444,-66.0
2023-12-13 14:36:28.778133,-21.0
2023-12-13 14:36:28.785822,209.0
2023-12-13 14:36:28.793512,677.0
2023-12-13 14:36:28.801201,955.0
2023-12-13 14:36:28.808890,465.0
2023-12-13 14:36:28.816579,-439.0
2023-12-13 14:36:28.824268,-729.0
2023-12-13 14:36:28.831957,-354.0
2023-12-13 14:36:28.839647,-125.0
2023-12-13 14:36:28.847336,-152.0
2023-12-13 14:36:28.855025,-118.0
2023-12-13 14:36:28.862714,-73.0
2023-12-13 14:36:28.870403,-87.0
2023-12-13 14:36:28.878092,-83.0
2023-12-13 14:36:28.885782,-68.0
2023-12-13 14:36:28.893471,-71.0
2023-12-13 14:36:28.901160,-66.0
2023-12-13 14:36:28.908849,-59.0
2023-12-13 14:36:28.916538,-57.0
2023-12-13 14:36:28.924227,-49.0
2023-12-13 14:36:28.931917,-40.0
2023-12-13 14:36:28.939606,-33.0
2023-12-13 14:36:28.947295,-19.0
2023-12-13 14:36:28.954984,-2.0
2023-12-13 14:36:28.962673,14.0
2023-12-13 14:36:28.970362,30.0
2023-12-13 14:36:28.978052,54.0
2023-12-13 14:36:28.985741,87.0
2023-12-13 14:36:28.993430,121.0
2023-12-13 14:36:29.001119,154.0
2023-12-13 14:36:29.008808,185.0
2023-12-13 14:36:29.016497,204.0
2023-12-13 14:36:29.024187,218.0
2023-12-13 14:36:29.031876,223.0
2023-12-13 14:36:29.039565,213.0
2023-12-13 14:36:29.047254,182.0
2023-12-13 14:36:29.054943,128.0
2023-12-13 14:36:29.062632,47.0
2023-12-13 14:36:29.070322,-40.0
2023-12-13 14:36:29.078011,-106.0
2023-12-13 14:36:29.085700,-152.0
2023-12-13 14:36:29.093389,-192.0
2023-12-13 14:36:29.101078,-223.0
2023-12-13 14:36:29.108767,-232.0
2023-12-13 14:36:29.116457,-228.0
2023-12-13 14:36:29.124146,-225.0
2023-12-13 14:36:29.131835,-220.0
2023-12-13 14:36:29.139524,-211.0
2023-12-13 14:36:29.147213,-206.0
2023-12-13 14:36:29.154902,-204.0
2023-12-13 14:36:29.162592,-192.0
2023-12-13 14:36:29.170281,-185.0
2023-12-13 14:36:29.177970,-185.0
2023-12-13 14:36:29.185659,-180.0
2023-12-13 14:36:29.193348,-171.0
2023-12-13 14:36:29.201037,-161.0
2023-12-13 14:36:29.208727,-154.0
2023-12-13 14:36:29.216416,-144.0
2023-12-13 14:36:29.224105,-144.0
2023-12-13 14:36:29.231794,-152.0
2023-12-13 14:36:29.239483,-149.0
2023-12-13 14:36:29.247172,-133.0
2023-12-13 14:36:29.254862,-130.0
2023-12-13 14:36:29.262551,-135.0
2023-12-13 14:36:29.270240,-130.0
2023-12-13 14:36:29.277929,-121.0
2023-12-13 14:36:29.285618,-125.0
2023-12-13 14:36:29.293307,-125.0
2023-12-13 14:36:29.300997,-118.0
2023-12-13 14:36:29.308686,-118.0
2023-12-13 14:36:29.316375,-121.0
2023-12-13 14:36:29.324064,-118.0
2023-12-13 14:36:29.331753,-116.0
2023-12-13 14:36:29.339442,-102.0
2023-12-13 14:36:29.347132,-78.0
2023-12-13 14:36:29.354821,-61.0
2023-12-13 14:36:29.362510,-49.0
2023-12-13 14:36:29.370199,-49.0
2023-12-13 14:36:29.377888,-66.0
2023-12-13 14:36:29.385577,-83.0
2023-12-13 14:36:29.393267,-92.0
2023-12-13 14:36:29.400956,-92.0
2023-12-13 14:36:29.408645,-85.0
2023-12-13 14:36:29.416334,-80.0
2023-12-13 14:36:29.424023,-80.0
2023-12-13 14:36:29.431712,-78.0
2023-12-13 14:36:29.439402,-76.0
2023-12-13 14:36:29.447091,-33.0
2023-12-13 14:36:29.454780,192.0
2023-12-13 14:36:29.462469,655.0
2023-12-13 14:36:29.470158,914.0
2023-12-13 14:36:29.477847,399.0
2023-12-13 14:36:29.485537,-522.0
2023-12-13 14:36:29.493226,-779.0
2023-12-13 14:36:29.500915,-361.0
2023-12-13 14:36:29.508604,-130.0
2023-12-13 14:36:29.516293,-161.0
2023-12-13 14:36:29.523982,-111.0
2023-12-13 14:36:29.531672,-61.0
2023-12-13 14:36:29.539361,-85.0
2023-12-13 14:36:29.547050,-83.0
2023-12-13 14:36:29.554739,-64.0
2023-12-13 14:36:29.562428,-61.0
2023-12-13 14:36:29.570117,-59.0
2023-12-13 14:36:29.577807,-54.0
2023-12-13 14:36:29.585496,-54.0
2023-12-13 14:36:29.593185,-52.0
2023-12-13 14:36:29.600874,-47.0
2023-12-13 14:36:29.608563,-40.0
2023-12-13 14:36:29.616252,-26.0
2023-12-13 14:36:29.623942,-4.0
2023-12-13 14:36:29.631631,9.0
2023-12-13 14:36:29.639320,30.0
2023-12-13 14:36:29.647009,61.0
2023-12-13 14:36:29.654698,92.0
2023-12-13 14:36:29.662388,123.0
2023-12-13 14:36:29.670077,152.0
2023-12-13 14:36:29.677766,175.0
2023-12-13 14:36:29.685455,194.0
2023-12-13 14:36:29.693144,206.0
2023-12-13 14:36:29.700833,209.0
2023-12-13 14:36:29.708523,201.0
2023-12-13 14:36:29.716212,168.0
2023-12-13 14:36:29.723901,99.0
2023-12-13 14:36:29.731590,11.0
2023-12-13 14:36:29.739279,-68.0
2023-12-13 14:36:29.746968,-130.0
2023-12-13 14:36:29.754658,-171.0
2023-12-13 14:36:29.762347,-201.0
2023-12-13 14:36:29.770036,-223.0
2023-12-13 14:36:29.777725,-230.0
2023-12-13 14:36:29.785414,-223.0
2023-12-13 14:36:29.793103,-216.0
2023-12-13 14:36:29.800793,-211.0
2023-12-13 14:36:29.808482,-209.0
2023-12-13 14:36:29.816171,-204.0
2023-12-13 14:36:29.823860,-194.0
2023-12-13 14:36:29.831549,-185.0
2023-12-13 14:36:29.839238,-168.0
2023-12-13 14:36:29.846928,-156.0
2023-12-13 14:36:29.854617,-152.0
2023-12-13 14:36:29.862306,-144.0
