time,ECG
2023-12-20 14:07:21.610233,-47.0
2023-12-20 14:07:21.617922,-47.0
2023-12-20 14:07:21.625611,-21.0
2023-12-20 14:07:21.633300,9.0
2023-12-20 14:07:21.640989,16.0
2023-12-20 14:07:21.648678,16.0
2023-12-20 14:07:21.656367,7.0
2023-12-20 14:07:21.664056,-21.0
2023-12-20 14:07:21.671745,-35.0
2023-12-20 14:07:21.679434,-28.0
2023-12-20 14:07:21.687123,-23.0
2023-12-20 14:07:21.694812,-30.0
2023-12-20 14:07:21.702501,-40.0
2023-12-20 14:07:21.710190,-47.0
2023-12-20 14:07:21.717879,-52.0
2023-12-20 14:07:21.725568,-50.0
2023-12-20 14:07:21.733257,-42.0
2023-12-20 14:07:21.740946,-35.0
2023-12-20 14:07:21.748635,-38.0
2023-12-20 14:07:21.756324,-40.0
2023-12-20 14:07:21.764013,-57.0
2023-12-20 14:07:21.771702,-78.0
2023-12-20 14:07:21.779391,-73.0
2023-12-20 14:07:21.787080,-61.0
2023-12-20 14:07:21.794769,-64.0
2023-12-20 14:07:21.802458,-64.0
2023-12-20 14:07:21.810147,-61.0
2023-12-20 14:07:21.817836,-64.0
2023-12-20 14:07:21.825525,-64.0
2023-12-20 14:07:21.833214,-69.0
2023-12-20 14:07:21.840903,-78.0
2023-12-20 14:07:21.848592,-73.0
2023-12-20 14:07:21.856281,-66.0
2023-12-20 14:07:21.863970,-54.0
2023-12-20 14:07:21.871659,-38.0
2023-12-20 14:07:21.879348,-28.0
2023-12-20 14:07:21.887037,-26.0
2023-12-20 14:07:21.894725,-23.0
2023-12-20 14:07:21.902414,-26.0
2023-12-20 14:07:21.910103,-19.0
2023-12-20 14:07:21.917792,-11.0
2023-12-20 14:07:21.925481,-26.0
2023-12-20 14:07:21.933170,-109.0
2023-12-20 14:07:21.940859,-278.0
2023-12-20 14:07:21.948548,-398.0
2023-12-20 14:07:21.956237,-216.0
2023-12-20 14:07:21.963926,150.0
2023-12-20 14:07:21.971615,312.0
2023-12-20 14:07:21.979304,257.0
2023-12-20 14:07:21.986993,171.0
2023-12-20 14:07:21.994682,66.0
2023-12-20 14:07:22.002371,-28.0
2023-12-20 14:07:22.010060,-42.0
2023-12-20 14:07:22.017749,-40.0
2023-12-20 14:07:22.025438,-64.0
2023-12-20 14:07:22.033127,-66.0
2023-12-20 14:07:22.040816,-52.0
2023-12-20 14:07:22.048505,-57.0
2023-12-20 14:07:22.056194,-64.0
2023-12-20 14:07:22.063883,-69.0
2023-12-20 14:07:22.071572,-83.0
2023-12-20 14:07:22.079261,-90.0
2023-12-20 14:07:22.086950,-88.0
2023-12-20 14:07:22.094639,-85.0
2023-12-20 14:07:22.102328,-85.0
2023-12-20 14:07:22.110017,-90.0
2023-12-20 14:07:22.117706,-92.0
2023-12-20 14:07:22.125395,-92.0
2023-12-20 14:07:22.133084,-95.0
2023-12-20 14:07:22.140773,-88.0
2023-12-20 14:07:22.148462,-85.0
2023-12-20 14:07:22.156151,-102.0
2023-12-20 14:07:22.163840,-112.0
2023-12-20 14:07:22.171529,-92.0
2023-12-20 14:07:22.179218,-73.0
2023-12-20 14:07:22.186907,-66.0
2023-12-20 14:07:22.194596,-57.0
2023-12-20 14:07:22.202285,-38.0
2023-12-20 14:07:22.209974,-16.0
2023-12-20 14:07:22.217663,-14.0
2023-12-20 14:07:22.225352,-14.0
2023-12-20 14:07:22.233041,-9.0
2023-12-20 14:07:22.240730,-14.0
2023-12-20 14:07:22.248419,-28.0
2023-12-20 14:07:22.256108,-40.0
2023-12-20 14:07:22.263797,-45.0
2023-12-20 14:07:22.271486,-57.0
2023-12-20 14:07:22.279175,-59.0
2023-12-20 14:07:22.286864,-52.0
2023-12-20 14:07:22.294553,-52.0
2023-12-20 14:07:22.302242,-54.0
2023-12-20 14:07:22.309931,-52.0
2023-12-20 14:07:22.317620,-57.0
2023-12-20 14:07:22.325309,-57.0
2023-12-20 14:07:22.332998,-50.0
2023-12-20 14:07:22.340687,-52.0
2023-12-20 14:07:22.348376,-47.0
2023-12-20 14:07:22.356065,-35.0
2023-12-20 14:07:22.363754,-42.0
2023-12-20 14:07:22.371443,-45.0
2023-12-20 14:07:22.379132,-35.0
2023-12-20 14:07:22.386821,-38.0
2023-12-20 14:07:22.394510,-47.0
2023-12-20 14:07:22.402198,-52.0
2023-12-20 14:07:22.409887,-59.0
2023-12-20 14:07:22.417576,-69.0
2023-12-20 14:07:22.425265,-69.0
2023-12-20 14:07:22.432954,-52.0
2023-12-20 14:07:22.440643,-30.0
2023-12-20 14:07:22.448332,-21.0
2023-12-20 14:07:22.456021,-23.0
2023-12-20 14:07:22.463710,-21.0
2023-12-20 14:07:22.471399,-16.0
2023-12-20 14:07:22.479088,-19.0
2023-12-20 14:07:22.486777,-16.0
2023-12-20 14:07:22.494466,-9.0
2023-12-20 14:07:22.502155,-16.0
2023-12-20 14:07:22.509844,-92.0
2023-12-20 14:07:22.517533,-264.0
2023-12-20 14:07:22.525222,-381.0
2023-12-20 14:07:22.532911,-216.0
2023-12-20 14:07:22.540600,131.0
2023-12-20 14:07:22.548289,309.0
2023-12-20 14:07:22.555978,269.0
2023-12-20 14:07:22.563667,181.0
2023-12-20 14:07:22.571356,76.0
2023-12-20 14:07:22.579045,-23.0
2023-12-20 14:07:22.586734,-61.0
2023-12-20 14:07:22.594423,-52.0
2023-12-20 14:07:22.602112,-52.0
2023-12-20 14:07:22.609801,-66.0
2023-12-20 14:07:22.617490,-76.0
2023-12-20 14:07:22.625179,-69.0
2023-12-20 14:07:22.632868,-69.0
2023-12-20 14:07:22.640557,-83.0
2023-12-20 14:07:22.648246,-85.0
2023-12-20 14:07:22.655935,-81.0
2023-12-20 14:07:22.663624,-92.0
2023-12-20 14:07:22.671313,-100.0
2023-12-20 14:07:22.679002,-92.0
2023-12-20 14:07:22.686691,-90.0
2023-12-20 14:07:22.694380,-92.0
2023-12-20 14:07:22.702069,-97.0
2023-12-20 14:07:22.709758,-102.0
2023-12-20 14:07:22.717447,-95.0
2023-12-20 14:07:22.725136,-85.0
2023-12-20 14:07:22.732825,-88.0
2023-12-20 14:07:22.740514,-107.0
2023-12-20 14:07:22.748203,-119.0
2023-12-20 14:07:22.755892,-107.0
2023-12-20 14:07:22.763581,-97.0
2023-12-20 14:07:22.771270,-102.0
2023-12-20 14:07:22.778959,-104.0
2023-12-20 14:07:22.786648,-88.0
2023-12-20 14:07:22.794337,-64.0
2023-12-20 14:07:22.802026,-59.0
2023-12-20 14:07:22.809715,-61.0
2023-12-20 14:07:22.817404,-59.0
2023-12-20 14:07:22.825093,-69.0
2023-12-20 14:07:22.832782,-76.0
2023-12-20 14:07:22.840471,-69.0
2023-12-20 14:07:22.848160,-61.0
2023-12-20 14:07:22.855849,-59.0
2023-12-20 14:07:22.863538,-69.0
2023-12-20 14:07:22.871227,-81.0
2023-12-20 14:07:22.878916,-76.0
2023-12-20 14:07:22.886605,-59.0
2023-12-20 14:07:22.894294,-52.0
2023-12-20 14:07:22.901982,-57.0
2023-12-20 14:07:22.909671,-59.0
2023-12-20 14:07:22.917360,-61.0
2023-12-20 14:07:22.925049,-57.0
2023-12-20 14:07:22.932738,-50.0
2023-12-20 14:07:22.940427,-42.0
2023-12-20 14:07:22.948116,-42.0
2023-12-20 14:07:22.955805,-45.0
2023-12-20 14:07:22.963494,-57.0
2023-12-20 14:07:22.971183,-64.0
2023-12-20 14:07:22.978872,-66.0
2023-12-20 14:07:22.986561,-71.0
2023-12-20 14:07:22.994250,-66.0
2023-12-20 14:07:23.001939,-73.0
2023-12-20 14:07:23.009628,-100.0
2023-12-20 14:07:23.017317,-88.0
2023-12-20 14:07:23.025006,-47.0
2023-12-20 14:07:23.032695,-30.0
2023-12-20 14:07:23.040384,-40.0
2023-12-20 14:07:23.048073,-47.0
2023-12-20 14:07:23.055762,-42.0
2023-12-20 14:07:23.063451,-45.0
2023-12-20 14:07:23.071140,-45.0
2023-12-20 14:07:23.078829,-42.0
2023-12-20 14:07:23.086518,-104.0
2023-12-20 14:07:23.094207,-269.0
2023-12-20 14:07:23.101896,-395.0
2023-12-20 14:07:23.109585,-238.0
2023-12-20 14:07:23.117274,112.0
2023-12-20 14:07:23.124963,283.0
2023-12-20 14:07:23.132652,245.0
2023-12-20 14:07:23.140341,176.0
2023-12-20 14:07:23.148030,71.0
2023-12-20 14:07:23.155719,-42.0
2023-12-20 14:07:23.163408,-85.0
2023-12-20 14:07:23.171097,-78.0
2023-12-20 14:07:23.178786,-81.0
2023-12-20 14:07:23.186475,-102.0
2023-12-20 14:07:23.194164,-109.0
2023-12-20 14:07:23.201853,-92.0
2023-12-20 14:07:23.209542,-85.0
2023-12-20 14:07:23.217231,-100.0
2023-12-20 14:07:23.224920,-107.0
2023-12-20 14:07:23.232609,-104.0
2023-12-20 14:07:23.240298,-116.0
2023-12-20 14:07:23.247987,-128.0
2023-12-20 14:07:23.255676,-128.0
2023-12-20 14:07:23.263365,-119.0
2023-12-20 14:07:23.271054,-114.0
2023-12-20 14:07:23.278743,-131.0
2023-12-20 14:07:23.286432,-150.0
2023-12-20 14:07:23.294121,-138.0
2023-12-20 14:07:23.301810,-123.0
2023-12-20 14:07:23.309499,-123.0
2023-12-20 14:07:23.317188,-121.0
2023-12-20 14:07:23.324877,-140.0
2023-12-20 14:07:23.332566,-162.0
2023-12-20 14:07:23.340255,-143.0
2023-12-20 14:07:23.347944,-119.0
2023-12-20 14:07:23.355633,-119.0
2023-12-20 14:07:23.363322,-100.0
2023-12-20 14:07:23.371011,-78.0
2023-12-20 14:07:23.378700,-83.0
2023-12-20 14:07:23.386389,-81.0
2023-12-20 14:07:23.394078,-69.0
2023-12-20 14:07:23.401766,-69.0
2023-12-20 14:07:23.409455,-73.0
2023-12-20 14:07:23.417144,-78.0
2023-12-20 14:07:23.424833,-78.0
2023-12-20 14:07:23.432522,-78.0
2023-12-20 14:07:23.440211,-78.0
2023-12-20 14:07:23.447900,-69.0
2023-12-20 14:07:23.455589,-69.0
2023-12-20 14:07:23.463278,-76.0
2023-12-20 14:07:23.470967,-76.0
2023-12-20 14:07:23.478656,-66.0
2023-12-20 14:07:23.486345,-61.0
2023-12-20 14:07:23.494034,-64.0
2023-12-20 14:07:23.501723,-71.0
2023-12-20 14:07:23.509412,-73.0
2023-12-20 14:07:23.517101,-69.0
2023-12-20 14:07:23.524790,-66.0
2023-12-20 14:07:23.532479,-54.0
2023-12-20 14:07:23.540168,-45.0
2023-12-20 14:07:23.547857,-66.0
2023-12-20 14:07:23.555546,-88.0
2023-12-20 14:07:23.563235,-85.0
2023-12-20 14:07:23.570924,-76.0
2023-12-20 14:07:23.578613,-78.0
2023-12-20 14:07:23.586302,-76.0
2023-12-20 14:07:23.593991,-66.0
2023-12-20 14:07:23.601680,-57.0
2023-12-20 14:07:23.609369,-47.0
2023-12-20 14:07:23.617058,-40.0
2023-12-20 14:07:23.624747,-42.0
2023-12-20 14:07:23.632436,-42.0
2023-12-20 14:07:23.640125,-38.0
2023-12-20 14:07:23.647814,-40.0
2023-12-20 14:07:23.655503,-47.0
2023-12-20 14:07:23.663192,-76.0
2023-12-20 14:07:23.670881,-190.0
2023-12-20 14:07:23.678570,-379.0
2023-12-20 14:07:23.686259,-400.0
2023-12-20 14:07:23.693948,-83.0
2023-12-20 14:07:23.701637,243.0
2023-12-20 14:07:23.709326,288.0
2023-12-20 14:07:23.717015,216.0
2023-12-20 14:07:23.724704,138.0
2023-12-20 14:07:23.732393,16.0
2023-12-20 14:07:23.740082,-83.0
2023-12-20 14:07:23.747771,-102.0
2023-12-20 14:07:23.755460,-88.0
2023-12-20 14:07:23.763149,-90.0
2023-12-20 14:07:23.770838,-97.0
2023-12-20 14:07:23.778527,-102.0
2023-12-20 14:07:23.786216,-119.0
2023-12-20 14:07:23.793905,-133.0
2023-12-20 14:07:23.801594,-126.0
2023-12-20 14:07:23.809283,-121.0
2023-12-20 14:07:23.816972,-123.0
2023-12-20 14:07:23.824661,-128.0
2023-12-20 14:07:23.832350,-121.0
2023-12-20 14:07:23.840039,-116.0
2023-12-20 14:07:23.847728,-119.0
2023-12-20 14:07:23.855417,-116.0
2023-12-20 14:07:23.863106,-131.0
2023-12-20 14:07:23.870795,-157.0
2023-12-20 14:07:23.878484,-147.0
2023-12-20 14:07:23.886173,-131.0
2023-12-20 14:07:23.893862,-126.0
2023-12-20 14:07:23.901551,-121.0
2023-12-20 14:07:23.909239,-135.0
2023-12-20 14:07:23.916928,-154.0
2023-12-20 14:07:23.924617,-135.0
2023-12-20 14:07:23.932306,-104.0
2023-12-20 14:07:23.939995,-90.0
2023-12-20 14:07:23.947684,-78.0
2023-12-20 14:07:23.955373,-69.0
2023-12-20 14:07:23.963062,-59.0
2023-12-20 14:07:23.970751,-54.0
2023-12-20 14:07:23.978440,-64.0
2023-12-20 14:07:23.986129,-78.0
2023-12-20 14:07:23.993818,-81.0
2023-12-20 14:07:24.001507,-73.0
2023-12-20 14:07:24.009196,-59.0
2023-12-20 14:07:24.016885,-61.0
2023-12-20 14:07:24.024574,-66.0
2023-12-20 14:07:24.032263,-52.0
2023-12-20 14:07:24.039952,-45.0
2023-12-20 14:07:24.047641,-57.0
2023-12-20 14:07:24.055330,-61.0
2023-12-20 14:07:24.063019,-54.0
2023-12-20 14:07:24.070708,-50.0
2023-12-20 14:07:24.078397,-52.0
2023-12-20 14:07:24.086086,-57.0
2023-12-20 14:07:24.093775,-50.0
2023-12-20 14:07:24.101464,-28.0
2023-12-20 14:07:24.109153,-23.0
2023-12-20 14:07:24.116842,-38.0
2023-12-20 14:07:24.124531,-38.0
2023-12-20 14:07:24.132220,-28.0
2023-12-20 14:07:24.139909,-38.0
2023-12-20 14:07:24.147598,-50.0
2023-12-20 14:07:24.155287,-52.0
2023-12-20 14:07:24.162976,-54.0
2023-12-20 14:07:24.170665,-54.0
2023-12-20 14:07:24.178354,-42.0
2023-12-20 14:07:24.186043,-11.0
2023-12-20 14:07:24.193732,0.0
2023-12-20 14:07:24.201421,-14.0
2023-12-20 14:07:24.209110,-14.0
2023-12-20 14:07:24.216799,-11.0
2023-12-20 14:07:24.224488,-28.0
2023-12-20 14:07:24.232177,-28.0
2023-12-20 14:07:24.239866,-26.0
2023-12-20 14:07:24.247555,-81.0
2023-12-20 14:07:24.255244,-233.0
2023-12-20 14:07:24.262933,-400.0
2023-12-20 14:07:24.270622,-331.0
2023-12-20 14:07:24.278311,23.0
2023-12-20 14:07:24.286000,283.0
2023-12-20 14:07:24.293689,259.0
2023-12-20 14:07:24.301378,164.0
2023-12-20 14:07:24.309067,83.0
2023-12-20 14:07:24.316756,-30.0
2023-12-20 14:07:24.324445,-92.0
2023-12-20 14:07:24.332134,-76.0
2023-12-20 14:07:24.339823,-69.0
2023-12-20 14:07:24.347512,-83.0
2023-12-20 14:07:24.355201,-83.0
2023-12-20 14:07:24.362890,-83.0
2023-12-20 14:07:24.370579,-85.0
2023-12-20 14:07:24.378268,-81.0
2023-12-20 14:07:24.385957,-83.0
2023-12-20 14:07:24.393646,-85.0
2023-12-20 14:07:24.401335,-92.0
2023-12-20 14:07:24.409023,-104.0
2023-12-20 14:07:24.416712,-107.0
2023-12-20 14:07:24.424401,-97.0
2023-12-20 14:07:24.432090,-95.0
2023-12-20 14:07:24.439779,-100.0
2023-12-20 14:07:24.447468,-119.0
2023-12-20 14:07:24.455157,-135.0
2023-12-20 14:07:24.462846,-128.0
2023-12-20 14:07:24.470535,-114.0
2023-12-20 14:07:24.478224,-119.0
2023-12-20 14:07:24.485913,-135.0
2023-12-20 14:07:24.493602,-135.0
2023-12-20 14:07:24.501291,-121.0
2023-12-20 14:07:24.508980,-100.0
2023-12-20 14:07:24.516669,-78.0
2023-12-20 14:07:24.524358,-61.0
2023-12-20 14:07:24.532047,-50.0
2023-12-20 14:07:24.539736,-40.0
2023-12-20 14:07:24.547425,-38.0
2023-12-20 14:07:24.555114,-38.0
2023-12-20 14:07:24.562803,-33.0
2023-12-20 14:07:24.570492,-28.0
2023-12-20 14:07:24.578181,-35.0
2023-12-20 14:07:24.585870,-40.0
2023-12-20 14:07:24.593559,-33.0
2023-12-20 14:07:24.601248,-19.0
2023-12-20 14:07:24.608937,-23.0
2023-12-20 14:07:24.616626,-33.0
2023-12-20 14:07:24.624315,-35.0
2023-12-20 14:07:24.632004,-33.0
2023-12-20 14:07:24.639693,-28.0
2023-12-20 14:07:24.647382,-23.0
2023-12-20 14:07:24.655071,-26.0
2023-12-20 14:07:24.662760,-26.0
2023-12-20 14:07:24.670449,-21.0
2023-12-20 14:07:24.678138,-19.0
2023-12-20 14:07:24.685827,-16.0
2023-12-20 14:07:24.693516,-16.0
2023-12-20 14:07:24.701205,-23.0
2023-12-20 14:07:24.708894,-19.0
2023-12-20 14:07:24.716583,-7.0
2023-12-20 14:07:24.724272,-19.0
2023-12-20 14:07:24.731961,-42.0
2023-12-20 14:07:24.739650,-45.0
2023-12-20 14:07:24.747339,-42.0
2023-12-20 14:07:24.755028,-50.0
2023-12-20 14:07:24.762717,-45.0
2023-12-20 14:07:24.770406,-19.0
2023-12-20 14:07:24.778095,-2.0
2023-12-20 14:07:24.785784,-11.0
2023-12-20 14:07:24.793473,-26.0
2023-12-20 14:07:24.801162,-35.0
2023-12-20 14:07:24.808851,-42.0
2023-12-20 14:07:24.816540,-35.0
2023-12-20 14:07:24.824229,-28.0
2023-12-20 14:07:24.831918,-61.0
2023-12-20 14:07:24.839607,-190.0
2023-12-20 14:07:24.847296,-364.0
2023-12-20 14:07:24.854985,-345.0
2023-12-20 14:07:24.862674,-26.0
2023-12-20 14:07:24.870363,257.0
2023-12-20 14:07:24.878052,283.0
2023-12-20 14:07:24.885741,202.0
2023-12-20 14:07:24.893430,109.0
2023-12-20 14:07:24.901119,-9.0
2023-12-20 14:07:24.908807,-76.0
2023-12-20 14:07:24.916496,-69.0
2023-12-20 14:07:24.924185,-50.0
2023-12-20 14:07:24.931874,-61.0
2023-12-20 14:07:24.939563,-90.0
2023-12-20 14:07:24.947252,-114.0
2023-12-20 14:07:24.954941,-112.0
2023-12-20 14:07:24.962630,-100.0
2023-12-20 14:07:24.970319,-102.0
2023-12-20 14:07:24.978008,-112.0
2023-12-20 14:07:24.985697,-119.0
2023-12-20 14:07:24.993386,-121.0
2023-12-20 14:07:25.001075,-121.0
2023-12-20 14:07:25.008764,-121.0
2023-12-20 14:07:25.016453,-121.0
2023-12-20 14:07:25.024142,-121.0
2023-12-20 14:07:25.031831,-126.0
2023-12-20 14:07:25.039520,-135.0
2023-12-20 14:07:25.047209,-135.0
2023-12-20 14:07:25.054898,-119.0
2023-12-20 14:07:25.062587,-102.0
2023-12-20 14:07:25.070276,-92.0
2023-12-20 14:07:25.077965,-100.0
2023-12-20 14:07:25.085654,-104.0
2023-12-20 14:07:25.093343,-88.0
2023-12-20 14:07:25.101032,-59.0
2023-12-20 14:07:25.108721,-40.0
2023-12-20 14:07:25.116410,-28.0
2023-12-20 14:07:25.124099,-30.0
2023-12-20 14:07:25.131788,-35.0
2023-12-20 14:07:25.139477,-28.0
2023-12-20 14:07:25.147166,-19.0
2023-12-20 14:07:25.154855,-16.0
2023-12-20 14:07:25.162544,-14.0
2023-12-20 14:07:25.170233,-19.0
2023-12-20 14:07:25.177922,-28.0
2023-12-20 14:07:25.185611,-23.0
2023-12-20 14:07:25.193300,-19.0
2023-12-20 14:07:25.200989,-19.0
2023-12-20 14:07:25.208678,-14.0
2023-12-20 14:07:25.216367,-14.0
2023-12-20 14:07:25.224056,-30.0
2023-12-20 14:07:25.231745,-40.0
2023-12-20 14:07:25.239434,-26.0
2023-12-20 14:07:25.247123,-4.0
2023-12-20 14:07:25.254812,-7.0
2023-12-20 14:07:25.262501,-33.0
2023-12-20 14:07:25.270190,-35.0
2023-12-20 14:07:25.277879,-14.0
2023-12-20 14:07:25.285568,-14.0
2023-12-20 14:07:25.293257,-26.0
2023-12-20 14:07:25.300946,-38.0
2023-12-20 14:07:25.308635,-54.0
2023-12-20 14:07:25.316324,-59.0
2023-12-20 14:07:25.324013,-57.0
2023-12-20 14:07:25.331702,-59.0
2023-12-20 14:07:25.339391,-57.0
2023-12-20 14:07:25.347080,-42.0
2023-12-20 14:07:25.354769,-33.0
2023-12-20 14:07:25.362458,-23.0
2023-12-20 14:07:25.370147,-16.0
2023-12-20 14:07:25.377836,-14.0
2023-12-20 14:07:25.385525,-16.0
2023-12-20 14:07:25.393214,-21.0
2023-12-20 14:07:25.400903,-23.0
2023-12-20 14:07:25.408592,-21.0
2023-12-20 14:07:25.416280,-42.0
2023-12-20 14:07:25.423969,-154.0
2023-12-20 14:07:25.431658,-331.0
2023-12-20 14:07:25.439347,-336.0
2023-12-20 14:07:25.447036,-40.0
2023-12-20 14:07:25.454725,243.0
2023-12-20 14:07:25.462414,274.0
2023-12-20 14:07:25.470103,200.0
2023-12-20 14:07:25.477792,109.0
2023-12-20 14:07:25.485481,-19.0
2023-12-20 14:07:25.493170,-92.0
2023-12-20 14:07:25.500859,-85.0
2023-12-20 14:07:25.508548,-78.0
2023-12-20 14:07:25.516237,-81.0
2023-12-20 14:07:25.523926,-83.0
2023-12-20 14:07:25.531615,-114.0
2023-12-20 14:07:25.539304,-138.0
2023-12-20 14:07:25.546993,-126.0
2023-12-20 14:07:25.554682,-116.0
2023-12-20 14:07:25.562371,-119.0
2023-12-20 14:07:25.570060,-121.0
2023-12-20 14:07:25.577749,-126.0
2023-12-20 14:07:25.585438,-123.0
2023-12-20 14:07:25.593127,-121.0
2023-12-20 14:07:25.600816,-123.0
2023-12-20 14:07:25.608505,-128.0
2023-12-20 14:07:25.616194,-140.0
2023-12-20 14:07:25.623883,-140.0
2023-12-20 14:07:25.631572,-138.0
2023-12-20 14:07:25.639261,-135.0
2023-12-20 14:07:25.646950,-128.0
2023-12-20 14:07:25.654639,-123.0
2023-12-20 14:07:25.662328,-128.0
2023-12-20 14:07:25.670017,-126.0
2023-12-20 14:07:25.677706,-104.0
2023-12-20 14:07:25.685395,-83.0
2023-12-20 14:07:25.693084,-66.0
2023-12-20 14:07:25.700773,-42.0
2023-12-20 14:07:25.708462,-30.0
2023-12-20 14:07:25.716151,-30.0
2023-12-20 14:07:25.723840,-30.0
2023-12-20 14:07:25.731529,-33.0
2023-12-20 14:07:25.739218,-40.0
2023-12-20 14:07:25.746907,-42.0
2023-12-20 14:07:25.754596,-45.0
2023-12-20 14:07:25.762285,-42.0
2023-12-20 14:07:25.769974,-42.0
2023-12-20 14:07:25.777663,-45.0
2023-12-20 14:07:25.785352,-45.0
2023-12-20 14:07:25.793041,-33.0
2023-12-20 14:07:25.800730,-35.0
2023-12-20 14:07:25.808419,-59.0
2023-12-20 14:07:25.816108,-76.0
2023-12-20 14:07:25.823797,-71.0
2023-12-20 14:07:25.831486,-61.0
2023-12-20 14:07:25.839175,-54.0
2023-12-20 14:07:25.846864,-57.0
2023-12-20 14:07:25.854553,-52.0
2023-12-20 14:07:25.862242,-45.0
2023-12-20 14:07:25.869931,-52.0
2023-12-20 14:07:25.877620,-52.0
2023-12-20 14:07:25.885309,-57.0
2023-12-20 14:07:25.892998,-66.0
2023-12-20 14:07:25.900687,-66.0
2023-12-20 14:07:25.908376,-73.0
2023-12-20 14:07:25.916064,-76.0
2023-12-20 14:07:25.923753,-61.0
2023-12-20 14:07:25.931442,-42.0
2023-12-20 14:07:25.939131,-35.0
2023-12-20 14:07:25.946820,-30.0
2023-12-20 14:07:25.954509,-35.0
2023-12-20 14:07:25.962198,-52.0
2023-12-20 14:07:25.969887,-54.0
2023-12-20 14:07:25.977576,-47.0
2023-12-20 14:07:25.985265,-47.0
2023-12-20 14:07:25.992954,-71.0
2023-12-20 14:07:26.000643,-174.0
2023-12-20 14:07:26.008332,-352.0
2023-12-20 14:07:26.016021,-381.0
2023-12-20 14:07:26.023710,-100.0
2023-12-20 14:07:26.031399,202.0
2023-12-20 14:07:26.039088,262.0
2023-12-20 14:07:26.046777,202.0
2023-12-20 14:07:26.054466,116.0
2023-12-20 14:07:26.062155,-7.0
2023-12-20 14:07:26.069844,-92.0
2023-12-20 14:07:26.077533,-97.0
2023-12-20 14:07:26.085222,-83.0
2023-12-20 14:07:26.092911,-95.0
2023-12-20 14:07:26.100600,-109.0
2023-12-20 14:07:26.108289,-119.0
2023-12-20 14:07:26.115978,-135.0
2023-12-20 14:07:26.123667,-145.0
2023-12-20 14:07:26.131356,-131.0
2023-12-20 14:07:26.139045,-123.0
2023-12-20 14:07:26.146734,-131.0
2023-12-20 14:07:26.154423,-123.0
2023-12-20 14:07:26.162112,-123.0
2023-12-20 14:07:26.169801,-138.0
2023-12-20 14:07:26.177490,-143.0
2023-12-20 14:07:26.185179,-152.0
2023-12-20 14:07:26.192868,-166.0
2023-12-20 14:07:26.200557,-162.0
2023-12-20 14:07:26.208246,-152.0
2023-12-20 14:07:26.215935,-154.0
2023-12-20 14:07:26.223624,-152.0
2023-12-20 14:07:26.231313,-138.0
2023-12-20 14:07:26.239002,-131.0
2023-12-20 14:07:26.246691,-123.0
2023-12-20 14:07:26.254380,-107.0
2023-12-20 14:07:26.262069,-88.0
2023-12-20 14:07:26.269758,-73.0
2023-12-20 14:07:26.277447,-69.0
2023-12-20 14:07:26.285136,-61.0
2023-12-20 14:07:26.292825,-54.0
2023-12-20 14:07:26.300514,-57.0
2023-12-20 14:07:26.308203,-64.0
2023-12-20 14:07:26.315892,-64.0
2023-12-20 14:07:26.323581,-69.0
2023-12-20 14:07:26.331270,-81.0
2023-12-20 14:07:26.338959,-83.0
2023-12-20 14:07:26.346648,-78.0
2023-12-20 14:07:26.354337,-66.0
2023-12-20 14:07:26.362026,-52.0
2023-12-20 14:07:26.369715,-61.0
2023-12-20 14:07:26.377404,-81.0
2023-12-20 14:07:26.385093,-73.0
2023-12-20 14:07:26.392782,-59.0
2023-12-20 14:07:26.400471,-54.0
2023-12-20 14:07:26.408160,-52.0
2023-12-20 14:07:26.415848,-45.0
2023-12-20 14:07:26.423537,-38.0
2023-12-20 14:07:26.431226,-42.0
2023-12-20 14:07:26.438915,-50.0
2023-12-20 14:07:26.446604,-47.0
2023-12-20 14:07:26.454293,-50.0
2023-12-20 14:07:26.461982,-61.0
2023-12-20 14:07:26.469671,-66.0
2023-12-20 14:07:26.477360,-69.0
2023-12-20 14:07:26.485049,-73.0
2023-12-20 14:07:26.492738,-73.0
2023-12-20 14:07:26.500427,-71.0
2023-12-20 14:07:26.508116,-57.0
2023-12-20 14:07:26.515805,-40.0
2023-12-20 14:07:26.523494,-38.0
2023-12-20 14:07:26.531183,-40.0
2023-12-20 14:07:26.538872,-38.0
2023-12-20 14:07:26.546561,-28.0
2023-12-20 14:07:26.554250,-26.0
2023-12-20 14:07:26.561939,-28.0
2023-12-20 14:07:26.569628,-38.0
2023-12-20 14:07:26.577317,-128.0
2023-12-20 14:07:26.585006,-329.0
2023-12-20 14:07:26.592695,-450.0
2023-12-20 14:07:26.600384,-233.0
2023-12-20 14:07:26.608073,152.0
2023-12-20 14:07:26.615762,300.0
2023-12-20 14:07:26.623451,243.0
2023-12-20 14:07:26.631140,176.0
2023-12-20 14:07:26.638829,76.0
2023-12-20 14:07:26.646518,-50.0
2023-12-20 14:07:26.654207,-119.0
2023-12-20 14:07:26.661896,-119.0
2023-12-20 14:07:26.669585,-102.0
2023-12-20 14:07:26.677274,-97.0
2023-12-20 14:07:26.684963,-100.0
2023-12-20 14:07:26.692652,-104.0
2023-12-20 14:07:26.700341,-114.0
2023-12-20 14:07:26.708030,-112.0
2023-12-20 14:07:26.715719,-104.0
2023-12-20 14:07:26.723408,-102.0
2023-12-20 14:07:26.731097,-107.0
2023-12-20 14:07:26.738786,-119.0
2023-12-20 14:07:26.746475,-145.0
2023-12-20 14:07:26.754164,-154.0
2023-12-20 14:07:26.761853,-143.0
2023-12-20 14:07:26.769542,-145.0
2023-12-20 14:07:26.777231,-154.0
2023-12-20 14:07:26.784920,-150.0
2023-12-20 14:07:26.792609,-138.0
2023-12-20 14:07:26.800298,-123.0
2023-12-20 14:07:26.807987,-119.0
2023-12-20 14:07:26.815676,-133.0
2023-12-20 14:07:26.823365,-143.0
2023-12-20 14:07:26.831054,-126.0
2023-12-20 14:07:26.838743,-109.0
2023-12-20 14:07:26.846432,-97.0
2023-12-20 14:07:26.854121,-71.0
2023-12-20 14:07:26.861810,-42.0
2023-12-20 14:07:26.869499,-30.0
2023-12-20 14:07:26.877188,-38.0
2023-12-20 14:07:26.884877,-57.0
2023-12-20 14:07:26.892566,-50.0
2023-12-20 14:07:26.900255,-30.0
2023-12-20 14:07:26.907944,-38.0
2023-12-20 14:07:26.915633,-45.0
2023-12-20 14:07:26.923321,-40.0
2023-12-20 14:07:26.931010,-38.0
2023-12-20 14:07:26.938699,-42.0
2023-12-20 14:07:26.946388,-42.0
2023-12-20 14:07:26.954077,-45.0
2023-12-20 14:07:26.961766,-47.0
2023-12-20 14:07:26.969455,-45.0
2023-12-20 14:07:26.977144,-45.0
2023-12-20 14:07:26.984833,-40.0
2023-12-20 14:07:26.992522,-21.0
2023-12-20 14:07:27.000211,-16.0
2023-12-20 14:07:27.007900,-28.0
2023-12-20 14:07:27.015589,-35.0
2023-12-20 14:07:27.023278,-35.0
2023-12-20 14:07:27.030967,-26.0
2023-12-20 14:07:27.038656,-16.0
2023-12-20 14:07:27.046345,-23.0
2023-12-20 14:07:27.054034,-38.0
2023-12-20 14:07:27.061723,-42.0
2023-12-20 14:07:27.069412,-42.0
2023-12-20 14:07:27.077101,-40.0
2023-12-20 14:07:27.084790,-28.0
2023-12-20 14:07:27.092479,-2.0
2023-12-20 14:07:27.100168,0.0
2023-12-20 14:07:27.107857,-19.0
2023-12-20 14:07:27.115546,-16.0
2023-12-20 14:07:27.123235,4.0
2023-12-20 14:07:27.130924,7.0
2023-12-20 14:07:27.138613,-4.0
2023-12-20 14:07:27.146302,-2.0
2023-12-20 14:07:27.153991,-35.0
2023-12-20 14:07:27.161680,-188.0
2023-12-20 14:07:27.169369,-383.0
2023-12-20 14:07:27.177058,-333.0
2023-12-20 14:07:27.184747,23.0
2023-12-20 14:07:27.192436,290.0
2023-12-20 14:07:27.200125,293.0
2023-12-20 14:07:27.207814,214.0
2023-12-20 14:07:27.215503,121.0
2023-12-20 14:07:27.223192,9.0
2023-12-20 14:07:27.230881,-54.0
2023-12-20 14:07:27.238570,-69.0
2023-12-20 14:07:27.246259,-81.0
2023-12-20 14:07:27.253948,-95.0
2023-12-20 14:07:27.261637,-92.0
2023-12-20 14:07:27.269326,-73.0
2023-12-20 14:07:27.277015,-71.0
2023-12-20 14:07:27.284704,-90.0
2023-12-20 14:07:27.292393,-95.0
2023-12-20 14:07:27.300082,-71.0
2023-12-20 14:07:27.307771,-66.0
2023-12-20 14:07:27.315460,-92.0
2023-12-20 14:07:27.323149,-121.0
2023-12-20 14:07:27.330838,-121.0
2023-12-20 14:07:27.338527,-116.0
2023-12-20 14:07:27.346216,-128.0
2023-12-20 14:07:27.353905,-135.0
2023-12-20 14:07:27.361594,-119.0
2023-12-20 14:07:27.369283,-107.0
2023-12-20 14:07:27.376972,-109.0
2023-12-20 14:07:27.384661,-100.0
2023-12-20 14:07:27.392350,-83.0
2023-12-20 14:07:27.400039,-81.0
2023-12-20 14:07:27.407728,-83.0
2023-12-20 14:07:27.415417,-73.0
2023-12-20 14:07:27.423105,-50.0
2023-12-20 14:07:27.430794,-38.0
2023-12-20 14:07:27.438483,-33.0
2023-12-20 14:07:27.446172,-23.0
2023-12-20 14:07:27.453861,-11.0
2023-12-20 14:07:27.461550,-11.0
2023-12-20 14:07:27.469239,-19.0
2023-12-20 14:07:27.476928,-30.0
2023-12-20 14:07:27.484617,-33.0
2023-12-20 14:07:27.492306,-11.0
2023-12-20 14:07:27.499995,0.0
2023-12-20 14:07:27.507684,-16.0
2023-12-20 14:07:27.515373,-26.0
2023-12-20 14:07:27.523062,-21.0
2023-12-20 14:07:27.530751,-19.0
2023-12-20 14:07:27.538440,-14.0
2023-12-20 14:07:27.546129,-16.0
2023-12-20 14:07:27.553818,-19.0
2023-12-20 14:07:27.561507,-11.0
2023-12-20 14:07:27.569196,2.0
2023-12-20 14:07:27.576885,7.0
2023-12-20 14:07:27.584574,-2.0
2023-12-20 14:07:27.592263,-7.0
2023-12-20 14:07:27.599952,-2.0
2023-12-20 14:07:27.607641,-9.0
2023-12-20 14:07:27.615330,-19.0
2023-12-20 14:07:27.623019,-21.0
2023-12-20 14:07:27.630708,-21.0
2023-12-20 14:07:27.638397,-21.0
2023-12-20 14:07:27.646086,-30.0
2023-12-20 14:07:27.653775,-35.0
2023-12-20 14:07:27.661464,-23.0
2023-12-20 14:07:27.669153,-2.0
2023-12-20 14:07:27.676842,7.0
2023-12-20 14:07:27.684531,7.0
2023-12-20 14:07:27.692220,-2.0
2023-12-20 14:07:27.699909,-14.0
2023-12-20 14:07:27.707598,-14.0
2023-12-20 14:07:27.715287,-14.0
2023-12-20 14:07:27.722976,-4.0
2023-12-20 14:07:27.730665,-11.0
2023-12-20 14:07:27.738354,-104.0
2023-12-20 14:07:27.746043,-278.0
2023-12-20 14:07:27.753732,-352.0
2023-12-20 14:07:27.761421,-138.0
2023-12-20 14:07:27.769110,190.0
2023-12-20 14:07:27.776799,290.0
2023-12-20 14:07:27.784488,205.0
2023-12-20 14:07:27.792177,123.0
2023-12-20 14:07:27.799866,28.0
2023-12-20 14:07:27.807555,-69.0
2023-12-20 14:07:27.815244,-90.0
2023-12-20 14:07:27.822933,-73.0
2023-12-20 14:07:27.830622,-92.0
2023-12-20 14:07:27.838311,-100.0
2023-12-20 14:07:27.846000,-81.0
2023-12-20 14:07:27.853689,-78.0
2023-12-20 14:07:27.861378,-97.0
2023-12-20 14:07:27.869067,-112.0
2023-12-20 14:07:27.876756,-104.0
2023-12-20 14:07:27.884445,-92.0
2023-12-20 14:07:27.892134,-97.0
2023-12-20 14:07:27.899823,-100.0
2023-12-20 14:07:27.907512,-100.0
2023-12-20 14:07:27.915201,-109.0
2023-12-20 14:07:27.922889,-107.0
2023-12-20 14:07:27.930578,-112.0
2023-12-20 14:07:27.938267,-126.0
2023-12-20 14:07:27.945956,-119.0
2023-12-20 14:07:27.953645,-109.0
2023-12-20 14:07:27.961334,-116.0
2023-12-20 14:07:27.969023,-104.0
2023-12-20 14:07:27.976712,-95.0
2023-12-20 14:07:27.984401,-107.0
2023-12-20 14:07:27.992090,-95.0
2023-12-20 14:07:27.999779,-66.0
2023-12-20 14:07:28.007468,-54.0
2023-12-20 14:07:28.015157,-45.0
2023-12-20 14:07:28.022846,-30.0
2023-12-20 14:07:28.030535,-14.0
2023-12-20 14:07:28.038224,-11.0
2023-12-20 14:07:28.045913,-23.0
2023-12-20 14:07:28.053602,-23.0
2023-12-20 14:07:28.061291,-19.0
2023-12-20 14:07:28.068980,-21.0
2023-12-20 14:07:28.076669,-28.0
2023-12-20 14:07:28.084358,-28.0
2023-12-20 14:07:28.092047,-23.0
2023-12-20 14:07:28.099736,-28.0
2023-12-20 14:07:28.107425,-30.0
2023-12-20 14:07:28.115114,-26.0
2023-12-20 14:07:28.122803,-19.0
2023-12-20 14:07:28.130492,-14.0
2023-12-20 14:07:28.138181,-19.0
2023-12-20 14:07:28.145870,-26.0
2023-12-20 14:07:28.153559,-23.0
2023-12-20 14:07:28.161248,-19.0
2023-12-20 14:07:28.168937,-23.0
2023-12-20 14:07:28.176626,-40.0
2023-12-20 14:07:28.184315,-45.0
2023-12-20 14:07:28.192004,-42.0
2023-12-20 14:07:28.199693,-47.0
2023-12-20 14:07:28.207382,-52.0
2023-12-20 14:07:28.215071,-52.0
2023-12-20 14:07:28.222760,-52.0
2023-12-20 14:07:28.230449,-50.0
2023-12-20 14:07:28.238138,-42.0
2023-12-20 14:07:28.245827,-23.0
2023-12-20 14:07:28.253516,-19.0
2023-12-20 14:07:28.261205,-30.0
2023-12-20 14:07:28.268894,-35.0
2023-12-20 14:07:28.276583,-30.0
2023-12-20 14:07:28.284272,-21.0
2023-12-20 14:07:28.291961,-9.0
2023-12-20 14:07:28.299650,-9.0
2023-12-20 14:07:28.307339,-42.0
2023-12-20 14:07:28.315028,-140.0
2023-12-20 14:07:28.322717,-336.0
2023-12-20 14:07:28.330406,-431.0
2023-12-20 14:07:28.338095,-195.0
2023-12-20 14:07:28.345784,128.0
2023-12-20 14:07:28.353473,209.0
2023-12-20 14:07:28.361162,169.0
2023-12-20 14:07:28.368851,112.0
2023-12-20 14:07:28.376540,-9.0
2023-12-20 14:07:28.384229,-112.0
2023-12-20 14:07:28.391918,-121.0
2023-12-20 14:07:28.399607,-114.0
2023-12-20 14:07:28.407296,-121.0
2023-12-20 14:07:28.414985,-121.0
2023-12-20 14:07:28.422674,-143.0
2023-12-20 14:07:28.430362,-150.0
2023-12-20 14:07:28.438051,-123.0
2023-12-20 14:07:28.445740,-126.0
2023-12-20 14:07:28.453429,-150.0
2023-12-20 14:07:28.461118,-133.0
2023-12-20 14:07:28.468807,-123.0
2023-12-20 14:07:28.476496,-138.0
2023-12-20 14:07:28.484185,-131.0
2023-12-20 14:07:28.491874,-128.0
2023-12-20 14:07:28.499563,-145.0
2023-12-20 14:07:28.507252,-143.0
2023-12-20 14:07:28.514941,-140.0
2023-12-20 14:07:28.522630,-154.0
2023-12-20 14:07:28.530319,-145.0
2023-12-20 14:07:28.538008,-123.0
2023-12-20 14:07:28.545697,-131.0
2023-12-20 14:07:28.553386,-140.0
2023-12-20 14:07:28.561075,-123.0
2023-12-20 14:07:28.568764,-109.0
2023-12-20 14:07:28.576453,-104.0
2023-12-20 14:07:28.584142,-85.0
2023-12-20 14:07:28.591831,-73.0
2023-12-20 14:07:28.599520,-66.0
2023-12-20 14:07:28.607209,-54.0
2023-12-20 14:07:28.614898,-50.0
2023-12-20 14:07:28.622587,-47.0
2023-12-20 14:07:28.630276,-45.0
2023-12-20 14:07:28.637965,-47.0
2023-12-20 14:07:28.645654,-52.0
2023-12-20 14:07:28.653343,-54.0
2023-12-20 14:07:28.661032,-57.0
2023-12-20 14:07:28.668721,-64.0
2023-12-20 14:07:28.676410,-71.0
2023-12-20 14:07:28.684099,-71.0
2023-12-20 14:07:28.691788,-73.0
2023-12-20 14:07:28.699477,-71.0
2023-12-20 14:07:28.707166,-57.0
2023-12-20 14:07:28.714855,-52.0
2023-12-20 14:07:28.722544,-64.0
2023-12-20 14:07:28.730233,-66.0
2023-12-20 14:07:28.737922,-61.0
2023-12-20 14:07:28.745611,-54.0
2023-12-20 14:07:28.753300,-45.0
2023-12-20 14:07:28.760989,-54.0
2023-12-20 14:07:28.768678,-69.0
2023-12-20 14:07:28.776367,-78.0
2023-12-20 14:07:28.784056,-88.0
2023-12-20 14:07:28.791745,-88.0
2023-12-20 14:07:28.799434,-76.0
2023-12-20 14:07:28.807123,-66.0
2023-12-20 14:07:28.814812,-54.0
2023-12-20 14:07:28.822501,-28.0
2023-12-20 14:07:28.830190,-16.0
2023-12-20 14:07:28.837879,-47.0
2023-12-20 14:07:28.845568,-76.0
2023-12-20 14:07:28.853257,-66.0
2023-12-20 14:07:28.860946,-61.0
2023-12-20 14:07:28.868635,-83.0
2023-12-20 14:07:28.876324,-100.0
2023-12-20 14:07:28.884013,-174.0
2023-12-20 14:07:28.891702,-362.0
2023-12-20 14:07:28.899391,-462.0
2023-12-20 14:07:28.907080,-216.0
2023-12-20 14:07:28.914769,143.0
2023-12-20 14:07:28.922458,228.0
2023-12-20 14:07:28.930146,157.0
2023-12-20 14:07:28.937835,102.0
2023-12-20 14:07:28.945524,-16.0
2023-12-20 14:07:28.953213,-150.0
2023-12-20 14:07:28.960902,-171.0
2023-12-20 14:07:28.968591,-131.0
2023-12-20 14:07:28.976280,-135.0
2023-12-20 14:07:28.983969,-157.0
2023-12-20 14:07:28.991658,-154.0
2023-12-20 14:07:28.999347,-157.0
2023-12-20 14:07:29.007036,-147.0
2023-12-20 14:07:29.014725,-128.0
2023-12-20 14:07:29.022414,-135.0
2023-12-20 14:07:29.030103,-143.0
2023-12-20 14:07:29.037792,-145.0
2023-12-20 14:07:29.045481,-152.0
2023-12-20 14:07:29.053170,-150.0
2023-12-20 14:07:29.060859,-133.0
2023-12-20 14:07:29.068548,-126.0
2023-12-20 14:07:29.076237,-138.0
2023-12-20 14:07:29.083926,-150.0
2023-12-20 14:07:29.091615,-140.0
2023-12-20 14:07:29.099304,-135.0
2023-12-20 14:07:29.106993,-135.0
2023-12-20 14:07:29.114682,-121.0
2023-12-20 14:07:29.122371,-109.0
2023-12-20 14:07:29.130060,-114.0
2023-12-20 14:07:29.137749,-104.0
2023-12-20 14:07:29.145438,-83.0
2023-12-20 14:07:29.153127,-71.0
2023-12-20 14:07:29.160816,-66.0
2023-12-20 14:07:29.168505,-71.0
2023-12-20 14:07:29.176194,-61.0
2023-12-20 14:07:29.183883,-42.0
2023-12-20 14:07:29.191572,-47.0
2023-12-20 14:07:29.199261,-61.0
2023-12-20 14:07:29.206950,-47.0
2023-12-20 14:07:29.214639,-33.0
2023-12-20 14:07:29.222328,-45.0
2023-12-20 14:07:29.230017,-59.0
2023-12-20 14:07:29.237706,-52.0
2023-12-20 14:07:29.245395,-42.0
2023-12-20 14:07:29.253084,-45.0
2023-12-20 14:07:29.260773,-42.0
2023-12-20 14:07:29.268462,-35.0
2023-12-20 14:07:29.276151,-35.0
2023-12-20 14:07:29.283840,-50.0
2023-12-20 14:07:29.291529,-50.0
2023-12-20 14:07:29.299218,-28.0
2023-12-20 14:07:29.306907,-19.0
2023-12-20 14:07:29.314596,-35.0
2023-12-20 14:07:29.322285,-40.0
2023-12-20 14:07:29.329974,-35.0
2023-12-20 14:07:29.337663,-50.0
2023-12-20 14:07:29.345352,-66.0
2023-12-20 14:07:29.353041,-71.0
2023-12-20 14:07:29.360730,-66.0
2023-12-20 14:07:29.368419,-71.0
2023-12-20 14:07:29.376108,-57.0
2023-12-20 14:07:29.383797,-28.0
2023-12-20 14:07:29.391486,-28.0
2023-12-20 14:07:29.399175,-30.0
2023-12-20 14:07:29.406864,-23.0
2023-12-20 14:07:29.414553,-28.0
2023-12-20 14:07:29.422242,-40.0
2023-12-20 14:07:29.429930,-45.0
2023-12-20 14:07:29.437619,-26.0
2023-12-20 14:07:29.445308,-47.0
2023-12-20 14:07:29.452997,-195.0
2023-12-20 14:07:29.460686,-405.0
2023-12-20 14:07:29.468375,-400.0
2023-12-20 14:07:29.476064,-42.0
2023-12-20 14:07:29.483753,283.0
2023-12-20 14:07:29.491442,276.0
2023-12-20 14:07:29.499131,169.0
2023-12-20 14:07:29.506820,102.0
2023-12-20 14:07:29.514509,-4.0
2023-12-20 14:07:29.522198,-88.0
2023-12-20 14:07:29.529887,-92.0
2023-12-20 14:07:29.537576,-100.0
2023-12-20 14:07:29.545265,-121.0
2023-12-20 14:07:29.552954,-112.0
2023-12-20 14:07:29.560643,-109.0
2023-12-20 14:07:29.568332,-123.0
2023-12-20 14:07:29.576021,-123.0
2023-12-20 14:07:29.583710,-121.0
2023-12-20 14:07:29.591399,-112.0
2023-12-20 14:07:29.599088,-100.0
2023-12-20 14:07:29.606777,-107.0
2023-12-20 14:07:29.614466,-112.0
2023-12-20 14:07:29.622155,-104.0
2023-12-20 14:07:29.629844,-100.0
2023-12-20 14:07:29.637533,-104.0
2023-12-20 14:07:29.645222,-107.0
2023-12-20 14:07:29.652911,-121.0
2023-12-20 14:07:29.660600,-126.0
2023-12-20 14:07:29.668289,-114.0
2023-12-20 14:07:29.675978,-100.0
2023-12-20 14:07:29.683667,-90.0
2023-12-20 14:07:29.691356,-95.0
2023-12-20 14:07:29.699045,-102.0
2023-12-20 14:07:29.706734,-83.0
2023-12-20 14:07:29.714423,-57.0
2023-12-20 14:07:29.722112,-50.0
2023-12-20 14:07:29.729801,-38.0
2023-12-20 14:07:29.737490,-21.0
2023-12-20 14:07:29.745179,-19.0
2023-12-20 14:07:29.752868,-16.0
2023-12-20 14:07:29.760557,-14.0
2023-12-20 14:07:29.768246,-21.0
2023-12-20 14:07:29.775935,-19.0
2023-12-20 14:07:29.783624,-16.0
2023-12-20 14:07:29.791313,-26.0
2023-12-20 14:07:29.799002,-30.0
2023-12-20 14:07:29.806691,-30.0
2023-12-20 14:07:29.814380,-30.0
2023-12-20 14:07:29.822069,-21.0
2023-12-20 14:07:29.829758,-14.0
2023-12-20 14:07:29.837447,-26.0
2023-12-20 14:07:29.845136,-28.0
2023-12-20 14:07:29.852825,-28.0
2023-12-20 14:07:29.860514,-40.0
2023-12-20 14:07:29.868203,-28.0
2023-12-20 14:07:29.875892,-16.0
2023-12-20 14:07:29.883581,-33.0
2023-12-20 14:07:29.891270,-33.0
2023-12-20 14:07:29.898959,-26.0
2023-12-20 14:07:29.906648,-45.0
2023-12-20 14:07:29.914337,-47.0
2023-12-20 14:07:29.922026,-30.0
2023-12-20 14:07:29.929715,-42.0
2023-12-20 14:07:29.937403,-61.0
2023-12-20 14:07:29.945092,-50.0
2023-12-20 14:07:29.952781,-14.0
2023-12-20 14:07:29.960470,4.0
2023-12-20 14:07:29.968159,9.0
2023-12-20 14:07:29.975848,-7.0
2023-12-20 14:07:29.983537,-23.0
2023-12-20 14:07:29.991226,-2.0
2023-12-20 14:07:29.998915,11.0
2023-12-20 14:07:30.006604,-16.0
2023-12-20 14:07:30.014293,-97.0
2023-12-20 14:07:30.021982,-271.0
2023-12-20 14:07:30.029671,-426.0
2023-12-20 14:07:30.037360,-262.0
2023-12-20 14:07:30.045049,135.0
2023-12-20 14:07:30.052738,302.0
2023-12-20 14:07:30.060427,238.0
2023-12-20 14:07:30.068116,174.0
2023-12-20 14:07:30.075805,81.0
2023-12-20 14:07:30.083494,-42.0
2023-12-20 14:07:30.091183,-88.0
2023-12-20 14:07:30.098872,-71.0
2023-12-20 14:07:30.106561,-64.0
2023-12-20 14:07:30.114250,-64.0
2023-12-20 14:07:30.121939,-71.0
2023-12-20 14:07:30.129628,-85.0
2023-12-20 14:07:30.137317,-83.0
2023-12-20 14:07:30.145006,-73.0
2023-12-20 14:07:30.152695,-92.0
2023-12-20 14:07:30.160384,-112.0
2023-12-20 14:07:30.168073,-97.0
2023-12-20 14:07:30.175762,-83.0
2023-12-20 14:07:30.183451,-90.0
2023-12-20 14:07:30.191140,-95.0
2023-12-20 14:07:30.198829,-90.0
2023-12-20 14:07:30.206518,-92.0
2023-12-20 14:07:30.214207,-95.0
2023-12-20 14:07:30.221896,-83.0
2023-12-20 14:07:30.229585,-61.0
2023-12-20 14:07:30.237274,-59.0
2023-12-20 14:07:30.244963,-78.0
2023-12-20 14:07:30.252652,-90.0
2023-12-20 14:07:30.260341,-73.0
2023-12-20 14:07:30.268030,-57.0
2023-12-20 14:07:30.275719,-52.0
2023-12-20 14:07:30.283408,-42.0
2023-12-20 14:07:30.291097,-23.0
2023-12-20 14:07:30.298786,-9.0
2023-12-20 14:07:30.306475,-4.0
2023-12-20 14:07:30.314164,-2.0
2023-12-20 14:07:30.321853,-7.0
2023-12-20 14:07:30.329542,-4.0
2023-12-20 14:07:30.337231,-11.0
2023-12-20 14:07:30.344920,-30.0
2023-12-20 14:07:30.352609,-40.0
2023-12-20 14:07:30.360298,-45.0
2023-12-20 14:07:30.367987,-38.0
2023-12-20 14:07:30.375676,-26.0
2023-12-20 14:07:30.383365,-35.0
2023-12-20 14:07:30.391054,-59.0
2023-12-20 14:07:30.398743,-61.0
2023-12-20 14:07:30.406432,-38.0
2023-12-20 14:07:30.414121,-28.0
2023-12-20 14:07:30.421810,-19.0
2023-12-20 14:07:30.429499,-11.0
2023-12-20 14:07:30.437187,-26.0
2023-12-20 14:07:30.444876,-35.0
2023-12-20 14:07:30.452565,-26.0
2023-12-20 14:07:30.460254,-26.0
2023-12-20 14:07:30.467943,-40.0
2023-12-20 14:07:30.475632,-64.0
2023-12-20 14:07:30.483321,-59.0
2023-12-20 14:07:30.491010,-38.0
2023-12-20 14:07:30.498699,-40.0
2023-12-20 14:07:30.506388,-33.0
2023-12-20 14:07:30.514077,0.0
2023-12-20 14:07:30.521766,2.0
2023-12-20 14:07:30.529455,-21.0
2023-12-20 14:07:30.537144,-19.0
2023-12-20 14:07:30.544833,-4.0
2023-12-20 14:07:30.552522,-2.0
2023-12-20 14:07:30.560211,2.0
2023-12-20 14:07:30.567900,2.0
2023-12-20 14:07:30.575589,-21.0
2023-12-20 14:07:30.583278,-97.0
2023-12-20 14:07:30.590967,-259.0
2023-12-20 14:07:30.598656,-367.0
2023-12-20 14:07:30.606345,-169.0
2023-12-20 14:07:30.614034,162.0
2023-12-20 14:07:30.621723,269.0
2023-12-20 14:07:30.629412,219.0
2023-12-20 14:07:30.637101,166.0
2023-12-20 14:07:30.644790,50.0
2023-12-20 14:07:30.652479,-73.0
2023-12-20 14:07:30.660168,-100.0
2023-12-20 14:07:30.667857,-81.0
2023-12-20 14:07:30.675546,-78.0
2023-12-20 14:07:30.683235,-88.0
2023-12-20 14:07:30.690924,-92.0
2023-12-20 14:07:30.698613,-90.0
2023-12-20 14:07:30.706302,-95.0
2023-12-20 14:07:30.713991,-88.0
2023-12-20 14:07:30.721680,-73.0
2023-12-20 14:07:30.729369,-95.0
2023-12-20 14:07:30.737058,-119.0
2023-12-20 14:07:30.744747,-107.0
2023-12-20 14:07:30.752436,-95.0
2023-12-20 14:07:30.760125,-92.0
2023-12-20 14:07:30.767814,-81.0
2023-12-20 14:07:30.775503,-81.0
2023-12-20 14:07:30.783192,-90.0
2023-12-20 14:07:30.790881,-92.0
2023-12-20 14:07:30.798570,-95.0
2023-12-20 14:07:30.806259,-85.0
2023-12-20 14:07:30.813948,-73.0
2023-12-20 14:07:30.821637,-71.0
2023-12-20 14:07:30.829326,-69.0
2023-12-20 14:07:30.837015,-66.0
2023-12-20 14:07:30.844704,-61.0
2023-12-20 14:07:30.852393,-54.0
2023-12-20 14:07:30.860082,-54.0
2023-12-20 14:07:30.867771,-52.0
2023-12-20 14:07:30.875460,-28.0
2023-12-20 14:07:30.883149,-11.0
2023-12-20 14:07:30.890838,-33.0
2023-12-20 14:07:30.898527,-61.0
2023-12-20 14:07:30.906216,-69.0
2023-12-20 14:07:30.913905,-61.0
2023-12-20 14:07:30.921594,-57.0
2023-12-20 14:07:30.929283,-52.0
2023-12-20 14:07:30.936971,-47.0
2023-12-20 14:07:30.944660,-40.0
2023-12-20 14:07:30.952349,-33.0
2023-12-20 14:07:30.960038,-28.0
2023-12-20 14:07:30.967727,-40.0
2023-12-20 14:07:30.975416,-57.0
2023-12-20 14:07:30.983105,-54.0
2023-12-20 14:07:30.990794,-40.0
2023-12-20 14:07:30.998483,-28.0
2023-12-20 14:07:31.006172,-28.0
2023-12-20 14:07:31.013861,-38.0
2023-12-20 14:07:31.021550,-45.0
2023-12-20 14:07:31.029239,-42.0
2023-12-20 14:07:31.036928,-40.0
2023-12-20 14:07:31.044617,-38.0
2023-12-20 14:07:31.052306,-52.0
2023-12-20 14:07:31.059995,-71.0
2023-12-20 14:07:31.067684,-61.0
2023-12-20 14:07:31.075373,-45.0
2023-12-20 14:07:31.083062,-40.0
2023-12-20 14:07:31.090751,-28.0
2023-12-20 14:07:31.098440,-14.0
2023-12-20 14:07:31.106129,-23.0
2023-12-20 14:07:31.113818,-30.0
2023-12-20 14:07:31.121507,-21.0
2023-12-20 14:07:31.129196,-28.0
2023-12-20 14:07:31.136885,-42.0
2023-12-20 14:07:31.144574,-45.0
2023-12-20 14:07:31.152263,-112.0
2023-12-20 14:07:31.159952,-283.0
2023-12-20 14:07:31.167641,-412.0
2023-12-20 14:07:31.175330,-271.0
2023-12-20 14:07:31.183019,66.0
2023-12-20 14:07:31.190708,252.0
2023-12-20 14:07:31.198397,226.0
2023-12-20 14:07:31.206086,159.0
2023-12-20 14:07:31.213775,69.0
2023-12-20 14:07:31.221464,-38.0
2023-12-20 14:07:31.229153,-81.0
2023-12-20 14:07:31.236842,-85.0
2023-12-20 14:07:31.244531,-112.0
2023-12-20 14:07:31.252220,-131.0
2023-12-20 14:07:31.259909,-123.0
2023-12-20 14:07:31.267598,-114.0
2023-12-20 14:07:31.275287,-109.0
2023-12-20 14:07:31.282976,-109.0
2023-12-20 14:07:31.290665,-114.0
2023-12-20 14:07:31.298354,-114.0
2023-12-20 14:07:31.306043,-112.0
2023-12-20 14:07:31.313732,-116.0
2023-12-20 14:07:31.321421,-128.0
2023-12-20 14:07:31.329110,-140.0
2023-12-20 14:07:31.336799,-128.0
2023-12-20 14:07:31.344488,-102.0
2023-12-20 14:07:31.352177,-116.0
2023-12-20 14:07:31.359866,-150.0
2023-12-20 14:07:31.367555,-147.0
2023-12-20 14:07:31.375244,-128.0
2023-12-20 14:07:31.382933,-131.0
2023-12-20 14:07:31.390622,-123.0
2023-12-20 14:07:31.398311,-114.0
2023-12-20 14:07:31.406000,-123.0
2023-12-20 14:07:31.413689,-116.0
2023-12-20 14:07:31.421378,-90.0
2023-12-20 14:07:31.429067,-81.0
2023-12-20 14:07:31.436756,-69.0
2023-12-20 14:07:31.444444,-54.0
2023-12-20 14:07:31.452133,-47.0
2023-12-20 14:07:31.459822,-52.0
2023-12-20 14:07:31.467511,-57.0
2023-12-20 14:07:31.475200,-54.0
2023-12-20 14:07:31.482889,-52.0
2023-12-20 14:07:31.490578,-59.0
2023-12-20 14:07:31.498267,-66.0
2023-12-20 14:07:31.505956,-64.0
2023-12-20 14:07:31.513645,-59.0
2023-12-20 14:07:31.521334,-54.0
2023-12-20 14:07:31.529023,-57.0
2023-12-20 14:07:31.536712,-61.0
2023-12-20 14:07:31.544401,-64.0
2023-12-20 14:07:31.552090,-69.0
2023-12-20 14:07:31.559779,-64.0
2023-12-20 14:07:31.567468,-38.0
2023-12-20 14:07:31.575157,-33.0
2023-12-20 14:07:31.582846,-59.0
2023-12-20 14:07:31.590535,-69.0
2023-12-20 14:07:31.598224,-47.0
2023-12-20 14:07:31.605913,-47.0
2023-12-20 14:07:31.613602,-73.0
2023-12-20 14:07:31.621291,-90.0
2023-12-20 14:07:31.628980,-95.0
2023-12-20 14:07:31.636669,-100.0
2023-12-20 14:07:31.644358,-85.0
2023-12-20 14:07:31.652047,-66.0
2023-12-20 14:07:31.659736,-52.0
2023-12-20 14:07:31.667425,-40.0
2023-12-20 14:07:31.675114,-42.0
2023-12-20 14:07:31.682803,-42.0
2023-12-20 14:07:31.690492,-54.0
2023-12-20 14:07:31.698181,-97.0
2023-12-20 14:07:31.705870,-109.0
2023-12-20 14:07:31.713559,-66.0
2023-12-20 14:07:31.721248,-92.0
2023-12-20 14:07:31.728937,-252.0
2023-12-20 14:07:31.736626,-426.0
2023-12-20 14:07:31.744315,-371.0
2023-12-20 14:07:31.752004,-33.0
2023-12-20 14:07:31.759693,247.0
2023-12-20 14:07:31.767382,262.0
2023-12-20 14:07:31.775071,195.0
2023-12-20 14:07:31.782760,119.0
2023-12-20 14:07:31.790449,-4.0
2023-12-20 14:07:31.798138,-73.0
2023-12-20 14:07:31.805827,-76.0
2023-12-20 14:07:31.813516,-90.0
2023-12-20 14:07:31.821205,-100.0
2023-12-20 14:07:31.828894,-109.0
2023-12-20 14:07:31.836583,-131.0
2023-12-20 14:07:31.844272,-116.0
2023-12-20 14:07:31.851961,-95.0
2023-12-20 14:07:31.859650,-131.0
2023-12-20 14:07:31.867339,-176.0
2023-12-20 14:07:31.875028,-164.0
2023-12-20 14:07:31.882717,-138.0
2023-12-20 14:07:31.890406,-131.0
2023-12-20 14:07:31.898095,-128.0
2023-12-20 14:07:31.905784,-131.0
2023-12-20 14:07:31.913473,-138.0
2023-12-20 14:07:31.921162,-138.0
2023-12-20 14:07:31.928851,-133.0
2023-12-20 14:07:31.936540,-116.0
2023-12-20 14:07:31.944228,-104.0
2023-12-20 14:07:31.951917,-104.0
2023-12-20 14:07:31.959606,-95.0
2023-12-20 14:07:31.967295,-81.0
2023-12-20 14:07:31.974984,-85.0
2023-12-20 14:07:31.982673,-85.0
2023-12-20 14:07:31.990362,-64.0
2023-12-20 14:07:31.998051,-57.0
2023-12-20 14:07:32.005740,-57.0
2023-12-20 14:07:32.013429,-38.0
2023-12-20 14:07:32.021118,-14.0
2023-12-20 14:07:32.028807,-11.0
2023-12-20 14:07:32.036496,-40.0
2023-12-20 14:07:32.044185,-57.0
2023-12-20 14:07:32.051874,-40.0
2023-12-20 14:07:32.059563,-33.0
2023-12-20 14:07:32.067252,-45.0
2023-12-20 14:07:32.074941,-45.0
2023-12-20 14:07:32.082630,-38.0
2023-12-20 14:07:32.090319,-30.0
2023-12-20 14:07:32.098008,-26.0
2023-12-20 14:07:32.105697,-35.0
2023-12-20 14:07:32.113386,-52.0
2023-12-20 14:07:32.121075,-57.0
2023-12-20 14:07:32.128764,-45.0
2023-12-20 14:07:32.136453,-30.0
2023-12-20 14:07:32.144142,-28.0
2023-12-20 14:07:32.151831,-33.0
2023-12-20 14:07:32.159520,-33.0
2023-12-20 14:07:32.167209,-35.0
2023-12-20 14:07:32.174898,-47.0
2023-12-20 14:07:32.182587,-59.0
2023-12-20 14:07:32.190276,-52.0
2023-12-20 14:07:32.197965,-38.0
2023-12-20 14:07:32.205654,-47.0
2023-12-20 14:07:32.213343,-47.0
2023-12-20 14:07:32.221032,-28.0
2023-12-20 14:07:32.228721,-30.0
2023-12-20 14:07:32.236410,-54.0
2023-12-20 14:07:32.244099,-64.0
2023-12-20 14:07:32.251788,-47.0
2023-12-20 14:07:32.259477,-35.0
2023-12-20 14:07:32.267166,-42.0
2023-12-20 14:07:32.274855,-52.0
2023-12-20 14:07:32.282544,-52.0
2023-12-20 14:07:32.290233,-78.0
2023-12-20 14:07:32.297922,-214.0
2023-12-20 14:07:32.305611,-417.0
2023-12-20 14:07:32.313300,-383.0
2023-12-20 14:07:32.320989,-21.0
2023-12-20 14:07:32.328678,257.0
2023-12-20 14:07:32.336367,259.0
2023-12-20 14:07:32.344056,228.0
2023-12-20 14:07:32.351745,174.0
2023-12-20 14:07:32.359434,26.0
2023-12-20 14:07:32.367123,-81.0
2023-12-20 14:07:32.374812,-104.0
2023-12-20 14:07:32.382501,-114.0
2023-12-20 14:07:32.390190,-116.0
2023-12-20 14:07:32.397879,-104.0
2023-12-20 14:07:32.405568,-102.0
2023-12-20 14:07:32.413257,-109.0
2023-12-20 14:07:32.420946,-114.0
2023-12-20 14:07:32.428635,-116.0
2023-12-20 14:07:32.436324,-119.0
2023-12-20 14:07:32.444013,-119.0
2023-12-20 14:07:32.451701,-114.0
2023-12-20 14:07:32.459390,-114.0
2023-12-20 14:07:32.467079,-123.0
2023-12-20 14:07:32.474768,-121.0
2023-12-20 14:07:32.482457,-109.0
2023-12-20 14:07:32.490146,-97.0
2023-12-20 14:07:32.497835,-88.0
2023-12-20 14:07:32.505524,-92.0
2023-12-20 14:07:32.513213,-97.0
2023-12-20 14:07:32.520902,-83.0
2023-12-20 14:07:32.528591,-69.0
2023-12-20 14:07:32.536280,-66.0
2023-12-20 14:07:32.543969,-64.0
2023-12-20 14:07:32.551658,-64.0
2023-12-20 14:07:32.559347,-52.0
2023-12-20 14:07:32.567036,-35.0
2023-12-20 14:07:32.574725,-26.0
2023-12-20 14:07:32.582414,-23.0
2023-12-20 14:07:32.590103,-26.0
2023-12-20 14:07:32.597792,-30.0
2023-12-20 14:07:32.605481,-40.0
2023-12-20 14:07:32.613170,-59.0
2023-12-20 14:07:32.620859,-59.0
2023-12-20 14:07:32.628548,-33.0
2023-12-20 14:07:32.636237,-21.0
2023-12-20 14:07:32.643926,-42.0
2023-12-20 14:07:32.651615,-57.0
2023-12-20 14:07:32.659304,-42.0
2023-12-20 14:07:32.666993,-35.0
2023-12-20 14:07:32.674682,-45.0
2023-12-20 14:07:32.682371,-45.0
2023-12-20 14:07:32.690060,-50.0
2023-12-20 14:07:32.697749,-61.0
2023-12-20 14:07:32.705438,-42.0
2023-12-20 14:07:32.713127,-16.0
2023-12-20 14:07:32.720816,-26.0
2023-12-20 14:07:32.728505,-47.0
2023-12-20 14:07:32.736194,-50.0
2023-12-20 14:07:32.743883,-45.0
2023-12-20 14:07:32.751572,-42.0
2023-12-20 14:07:32.759261,-45.0
2023-12-20 14:07:32.766950,-45.0
2023-12-20 14:07:32.774639,-47.0
2023-12-20 14:07:32.782328,-57.0
2023-12-20 14:07:32.790017,-59.0
2023-12-20 14:07:32.797706,-38.0
2023-12-20 14:07:32.805395,-14.0
2023-12-20 14:07:32.813084,-16.0
2023-12-20 14:07:32.820773,-26.0
2023-12-20 14:07:32.828462,-21.0
2023-12-20 14:07:32.836151,-9.0
2023-12-20 14:07:32.843840,-30.0
2023-12-20 14:07:32.851529,-52.0
2023-12-20 14:07:32.859218,-52.0
2023-12-20 14:07:32.866907,-152.0
2023-12-20 14:07:32.874596,-379.0
2023-12-20 14:07:32.882285,-438.0
2023-12-20 14:07:32.889974,-121.0
2023-12-20 14:07:32.897663,236.0
2023-12-20 14:07:32.905352,276.0
2023-12-20 14:07:32.913041,174.0
2023-12-20 14:07:32.920730,92.0
2023-12-20 14:07:32.928419,-7.0
2023-12-20 14:07:32.936108,-83.0
2023-12-20 14:07:32.943797,-95.0
2023-12-20 14:07:32.951485,-104.0
2023-12-20 14:07:32.959174,-140.0
2023-12-20 14:07:32.966863,-157.0
2023-12-20 14:07:32.974552,-150.0
2023-12-20 14:07:32.982241,-133.0
2023-12-20 14:07:32.989930,-131.0
2023-12-20 14:07:32.997619,-162.0
2023-12-20 14:07:33.005308,-190.0
2023-12-20 14:07:33.012997,-181.0
2023-12-20 14:07:33.020686,-166.0
2023-12-20 14:07:33.028375,-162.0
2023-12-20 14:07:33.036064,-150.0
2023-12-20 14:07:33.043753,-147.0
2023-12-20 14:07:33.051442,-157.0
2023-12-20 14:07:33.059131,-152.0
2023-12-20 14:07:33.066820,-133.0
2023-12-20 14:07:33.074509,-128.0
2023-12-20 14:07:33.082198,-133.0
2023-12-20 14:07:33.089887,-126.0
2023-12-20 14:07:33.097576,-119.0
2023-12-20 14:07:33.105265,-123.0
2023-12-20 14:07:33.112954,-121.0
2023-12-20 14:07:33.120643,-102.0
2023-12-20 14:07:33.128332,-81.0
2023-12-20 14:07:33.136021,-66.0
2023-12-20 14:07:33.143710,-59.0
2023-12-20 14:07:33.151399,-52.0
2023-12-20 14:07:33.159088,-50.0
2023-12-20 14:07:33.166777,-45.0
2023-12-20 14:07:33.174466,-42.0
2023-12-20 14:07:33.182155,-59.0
2023-12-20 14:07:33.189844,-71.0
2023-12-20 14:07:33.197533,-61.0
2023-12-20 14:07:33.205222,-59.0
2023-12-20 14:07:33.212911,-64.0
2023-12-20 14:07:33.220600,-57.0
2023-12-20 14:07:33.228289,-45.0
2023-12-20 14:07:33.235978,-40.0
2023-12-20 14:07:33.243667,-47.0
2023-12-20 14:07:33.251356,-47.0
2023-12-20 14:07:33.259045,-30.0
2023-12-20 14:07:33.266734,-21.0
2023-12-20 14:07:33.274423,-38.0
2023-12-20 14:07:33.282112,-54.0
2023-12-20 14:07:33.289801,-47.0
2023-12-20 14:07:33.297490,-45.0
2023-12-20 14:07:33.305179,-40.0
2023-12-20 14:07:33.312868,-33.0
2023-12-20 14:07:33.320557,-45.0
2023-12-20 14:07:33.328246,-54.0
2023-12-20 14:07:33.335935,-59.0
2023-12-20 14:07:33.343624,-71.0
2023-12-20 14:07:33.351313,-69.0
2023-12-20 14:07:33.359002,-61.0
2023-12-20 14:07:33.366691,-61.0
2023-12-20 14:07:33.374380,-40.0
2023-12-20 14:07:33.382069,-30.0
2023-12-20 14:07:33.389758,-59.0
2023-12-20 14:07:33.397447,-64.0
2023-12-20 14:07:33.405136,-47.0
2023-12-20 14:07:33.412825,-52.0
2023-12-20 14:07:33.420514,-52.0
2023-12-20 14:07:33.428203,-50.0
2023-12-20 14:07:33.435892,-119.0
2023-12-20 14:07:33.443581,-298.0
2023-12-20 14:07:33.451269,-457.0
2023-12-20 14:07:33.458958,-314.0
2023-12-20 14:07:33.466647,83.0
2023-12-20 14:07:33.474336,276.0
2023-12-20 14:07:33.482025,219.0
2023-12-20 14:07:33.489714,162.0
2023-12-20 14:07:33.497403,73.0
2023-12-20 14:07:33.505092,-61.0
2023-12-20 14:07:33.512781,-112.0
2023-12-20 14:07:33.520470,-92.0
2023-12-20 14:07:33.528159,-95.0
2023-12-20 14:07:33.535848,-102.0
2023-12-20 14:07:33.543537,-97.0
2023-12-20 14:07:33.551226,-92.0
2023-12-20 14:07:33.558915,-92.0
2023-12-20 14:07:33.566604,-97.0
2023-12-20 14:07:33.574293,-97.0
2023-12-20 14:07:33.581982,-95.0
2023-12-20 14:07:33.589671,-104.0
2023-12-20 14:07:33.597360,-114.0
2023-12-20 14:07:33.605049,-119.0
2023-12-20 14:07:33.612738,-123.0
2023-12-20 14:07:33.620427,-128.0
2023-12-20 14:07:33.628116,-135.0
2023-12-20 14:07:33.635805,-126.0
2023-12-20 14:07:33.643494,-102.0
2023-12-20 14:07:33.651183,-92.0
2023-12-20 14:07:33.658872,-95.0
2023-12-20 14:07:33.666561,-92.0
2023-12-20 14:07:33.674250,-90.0
2023-12-20 14:07:33.681939,-88.0
2023-12-20 14:07:33.689628,-76.0
2023-12-20 14:07:33.697317,-61.0
2023-12-20 14:07:33.705006,-47.0
2023-12-20 14:07:33.712695,-33.0
2023-12-20 14:07:33.720384,-35.0
2023-12-20 14:07:33.728073,-45.0
2023-12-20 14:07:33.735762,-30.0
2023-12-20 14:07:33.743451,-14.0
2023-12-20 14:07:33.751140,-16.0
2023-12-20 14:07:33.758829,-21.0
2023-12-20 14:07:33.766518,-28.0
2023-12-20 14:07:33.774207,-42.0
2023-12-20 14:07:33.781896,-40.0
2023-12-20 14:07:33.789585,-21.0
2023-12-20 14:07:33.797274,-23.0
2023-12-20 14:07:33.804963,-38.0
2023-12-20 14:07:33.812652,-33.0
2023-12-20 14:07:33.820341,-26.0
2023-12-20 14:07:33.828030,-33.0
2023-12-20 14:07:33.835719,-33.0
2023-12-20 14:07:33.843408,-35.0
2023-12-20 14:07:33.851097,-47.0
2023-12-20 14:07:33.858786,-50.0
2023-12-20 14:07:33.866475,-40.0
2023-12-20 14:07:33.874164,-40.0
2023-12-20 14:07:33.881853,-50.0
2023-12-20 14:07:33.889542,-57.0
2023-12-20 14:07:33.897231,-66.0
2023-12-20 14:07:33.904920,-76.0
2023-12-20 14:07:33.912609,-83.0
2023-12-20 14:07:33.920298,-76.0
2023-12-20 14:07:33.927987,-71.0
2023-12-20 14:07:33.935676,-69.0
2023-12-20 14:07:33.943365,-73.0
2023-12-20 14:07:33.951054,-83.0
2023-12-20 14:07:33.958742,-69.0
2023-12-20 14:07:33.966431,-52.0
2023-12-20 14:07:33.974120,-59.0
2023-12-20 14:07:33.981809,-64.0
2023-12-20 14:07:33.989498,-50.0
2023-12-20 14:07:33.997187,-45.0
2023-12-20 14:07:34.004876,-61.0
2023-12-20 14:07:34.012565,-133.0
2023-12-20 14:07:34.020254,-300.0
2023-12-20 14:07:34.027943,-426.0
2023-12-20 14:07:34.035632,-245.0
2023-12-20 14:07:34.043321,123.0
2023-12-20 14:07:34.051010,274.0
2023-12-20 14:07:34.058699,226.0
2023-12-20 14:07:34.066388,181.0
2023-12-20 14:07:34.074077,73.0
2023-12-20 14:07:34.081766,-73.0
2023-12-20 14:07:34.089455,-121.0
2023-12-20 14:07:34.097144,-92.0
2023-12-20 14:07:34.104833,-85.0
2023-12-20 14:07:34.112522,-100.0
2023-12-20 14:07:34.120211,-104.0
2023-12-20 14:07:34.127900,-107.0
2023-12-20 14:07:34.135589,-119.0
2023-12-20 14:07:34.143278,-116.0
2023-12-20 14:07:34.150967,-104.0
2023-12-20 14:07:34.158656,-102.0
2023-12-20 14:07:34.166345,-114.0
2023-12-20 14:07:34.174034,-128.0
2023-12-20 14:07:34.181723,-133.0
2023-12-20 14:07:34.189412,-126.0
2023-12-20 14:07:34.197101,-112.0
2023-12-20 14:07:34.204790,-107.0
2023-12-20 14:07:34.212479,-121.0
2023-12-20 14:07:34.220168,-133.0
2023-12-20 14:07:34.227857,-121.0
2023-12-20 14:07:34.235546,-112.0
2023-12-20 14:07:34.243235,-119.0
2023-12-20 14:07:34.250924,-116.0
2023-12-20 14:07:34.258613,-109.0
2023-12-20 14:07:34.266302,-104.0
2023-12-20 14:07:34.273991,-88.0
2023-12-20 14:07:34.281680,-59.0
2023-12-20 14:07:34.289369,-47.0
2023-12-20 14:07:34.297058,-45.0
2023-12-20 14:07:34.304747,-42.0
2023-12-20 14:07:34.312436,-45.0
2023-12-20 14:07:34.320125,-52.0
2023-12-20 14:07:34.327814,-54.0
2023-12-20 14:07:34.335503,-47.0
2023-12-20 14:07:34.343192,-52.0
2023-12-20 14:07:34.350881,-66.0
2023-12-20 14:07:34.358570,-66.0
2023-12-20 14:07:34.366259,-59.0
2023-12-20 14:07:34.373948,-54.0
2023-12-20 14:07:34.381637,-50.0
2023-12-20 14:07:34.389326,-52.0
2023-12-20 14:07:34.397015,-78.0
2023-12-20 14:07:34.404704,-95.0
2023-12-20 14:07:34.412393,-73.0
2023-12-20 14:07:34.420082,-61.0
2023-12-20 14:07:34.427771,-78.0
2023-12-20 14:07:34.435460,-90.0
2023-12-20 14:07:34.443149,-83.0
2023-12-20 14:07:34.450838,-69.0
2023-12-20 14:07:34.458526,-59.0
2023-12-20 14:07:34.466215,-52.0
2023-12-20 14:07:34.473904,-57.0
2023-12-20 14:07:34.481593,-66.0
2023-12-20 14:07:34.489282,-78.0
2023-12-20 14:07:34.496971,-88.0
2023-12-20 14:07:34.504660,-90.0
2023-12-20 14:07:34.512349,-73.0
2023-12-20 14:07:34.520038,-54.0
2023-12-20 14:07:34.527727,-66.0
2023-12-20 14:07:34.535416,-90.0
2023-12-20 14:07:34.543105,-83.0
2023-12-20 14:07:34.550794,-61.0
2023-12-20 14:07:34.558483,-61.0
2023-12-20 14:07:34.566172,-64.0
2023-12-20 14:07:34.573861,-61.0
2023-12-20 14:07:34.581550,-76.0
2023-12-20 14:07:34.589239,-119.0
2023-12-20 14:07:34.596928,-226.0
2023-12-20 14:07:34.604617,-398.0
2023-12-20 14:07:34.612306,-417.0
2023-12-20 14:07:34.619995,-112.0
2023-12-20 14:07:34.627684,202.0
2023-12-20 14:07:34.635373,247.0
2023-12-20 14:07:34.643062,183.0
2023-12-20 14:07:34.650751,114.0
2023-12-20 14:07:34.658440,-14.0
2023-12-20 14:07:34.666129,-135.0
2023-12-20 14:07:34.673818,-169.0
2023-12-20 14:07:34.681507,-157.0
2023-12-20 14:07:34.689196,-154.0
2023-12-20 14:07:34.696885,-152.0
2023-12-20 14:07:34.704574,-152.0
2023-12-20 14:07:34.712263,-178.0
2023-12-20 14:07:34.719952,-195.0
2023-12-20 14:07:34.727641,-176.0
2023-12-20 14:07:34.735330,-159.0
2023-12-20 14:07:34.743019,-166.0
2023-12-20 14:07:34.750708,-174.0
2023-12-20 14:07:34.758397,-164.0
2023-12-20 14:07:34.766086,-159.0
2023-12-20 14:07:34.773775,-169.0
2023-12-20 14:07:34.781464,-166.0
2023-12-20 14:07:34.789153,-152.0
2023-12-20 14:07:34.796842,-150.0
2023-12-20 14:07:34.804531,-154.0
2023-12-20 14:07:34.812220,-147.0
2023-12-20 14:07:34.819909,-143.0
2023-12-20 14:07:34.827598,-138.0
2023-12-20 14:07:34.835287,-140.0
2023-12-20 14:07:34.842976,-143.0
2023-12-20 14:07:34.850665,-123.0
2023-12-20 14:07:34.858354,-102.0
2023-12-20 14:07:34.866043,-85.0
2023-12-20 14:07:34.873732,-69.0
2023-12-20 14:07:34.881421,-57.0
2023-12-20 14:07:34.889110,-54.0
2023-12-20 14:07:34.896799,-57.0
2023-12-20 14:07:34.904488,-71.0
2023-12-20 14:07:34.912177,-88.0
2023-12-20 14:07:34.919866,-76.0
2023-12-20 14:07:34.927555,-59.0
2023-12-20 14:07:34.935244,-66.0
2023-12-20 14:07:34.942933,-73.0
2023-12-20 14:07:34.950622,-66.0
2023-12-20 14:07:34.958310,-64.0
2023-12-20 14:07:34.965999,-64.0
2023-12-20 14:07:34.973688,-59.0
2023-12-20 14:07:34.981377,-47.0
2023-12-20 14:07:34.989066,-50.0
2023-12-20 14:07:34.996755,-54.0
2023-12-20 14:07:35.004444,-45.0
2023-12-20 14:07:35.012133,-45.0
2023-12-20 14:07:35.019822,-50.0
2023-12-20 14:07:35.027511,-38.0
2023-12-20 14:07:35.035200,-28.0
2023-12-20 14:07:35.042889,-40.0
2023-12-20 14:07:35.050578,-50.0
2023-12-20 14:07:35.058267,-40.0
2023-12-20 14:07:35.065956,-45.0
2023-12-20 14:07:35.073645,-66.0
2023-12-20 14:07:35.081334,-64.0
2023-12-20 14:07:35.089023,-50.0
2023-12-20 14:07:35.096712,-54.0
2023-12-20 14:07:35.104401,-42.0
2023-12-20 14:07:35.112090,-30.0
2023-12-20 14:07:35.119779,-54.0
2023-12-20 14:07:35.127468,-59.0
2023-12-20 14:07:35.135157,-40.0
2023-12-20 14:07:35.142846,-42.0
2023-12-20 14:07:35.150535,-52.0
2023-12-20 14:07:35.158224,-59.0
2023-12-20 14:07:35.165913,-73.0
2023-12-20 14:07:35.173602,-107.0
2023-12-20 14:07:35.181291,-216.0
2023-12-20 14:07:35.188980,-400.0
2023-12-20 14:07:35.196669,-412.0
2023-12-20 14:07:35.204358,-100.0
2023-12-20 14:07:35.212047,216.0
2023-12-20 14:07:35.219736,257.0
2023-12-20 14:07:35.227425,188.0
2023-12-20 14:07:35.235114,123.0
2023-12-20 14:07:35.242803,4.0
2023-12-20 14:07:35.250492,-97.0
2023-12-20 14:07:35.258181,-114.0
2023-12-20 14:07:35.265870,-100.0
2023-12-20 14:07:35.273559,-102.0
2023-12-20 14:07:35.281248,-100.0
2023-12-20 14:07:35.288937,-95.0
2023-12-20 14:07:35.296626,-97.0
2023-12-20 14:07:35.304315,-100.0
2023-12-20 14:07:35.312004,-109.0
2023-12-20 14:07:35.319693,-128.0
2023-12-20 14:07:35.327382,-121.0
2023-12-20 14:07:35.335071,-104.0
2023-12-20 14:07:35.342760,-112.0
2023-12-20 14:07:35.350449,-119.0
2023-12-20 14:07:35.358138,-109.0
2023-12-20 14:07:35.365827,-107.0
2023-12-20 14:07:35.373516,-109.0
2023-12-20 14:07:35.381205,-102.0
2023-12-20 14:07:35.388894,-112.0
2023-12-20 14:07:35.396583,-119.0
2023-12-20 14:07:35.404272,-109.0
2023-12-20 14:07:35.411961,-121.0
2023-12-20 14:07:35.419650,-128.0
2023-12-20 14:07:35.427339,-107.0
2023-12-20 14:07:35.435028,-88.0
2023-12-20 14:07:35.442717,-73.0
2023-12-20 14:07:35.450406,-50.0
2023-12-20 14:07:35.458095,-35.0
2023-12-20 14:07:35.465783,-33.0
2023-12-20 14:07:35.473472,-23.0
2023-12-20 14:07:35.481161,-16.0
2023-12-20 14:07:35.488850,-19.0
2023-12-20 14:07:35.496539,-19.0
2023-12-20 14:07:35.504228,-19.0
2023-12-20 14:07:35.511917,-21.0
2023-12-20 14:07:35.519606,-26.0
2023-12-20 14:07:35.527295,-23.0
2023-12-20 14:07:35.534984,-21.0
2023-12-20 14:07:35.542673,-21.0
2023-12-20 14:07:35.550362,-21.0
2023-12-20 14:07:35.558051,-19.0
2023-12-20 14:07:35.565740,-19.0
2023-12-20 14:07:35.573429,-28.0
2023-12-20 14:07:35.581118,-30.0
2023-12-20 14:07:35.588807,-16.0
2023-12-20 14:07:35.596496,-11.0
2023-12-20 14:07:35.604185,-28.0
2023-12-20 14:07:35.611874,-50.0
2023-12-20 14:07:35.619563,-54.0
2023-12-20 14:07:35.627252,-40.0
2023-12-20 14:07:35.634941,-23.0
2023-12-20 14:07:35.642630,-26.0
2023-12-20 14:07:35.650319,-38.0
2023-12-20 14:07:35.658008,-50.0
2023-12-20 14:07:35.665697,-54.0
2023-12-20 14:07:35.673386,-54.0
2023-12-20 14:07:35.681075,-50.0
2023-12-20 14:07:35.688764,-45.0
2023-12-20 14:07:35.696453,-26.0
2023-12-20 14:07:35.704142,-4.0
2023-12-20 14:07:35.711831,-7.0
2023-12-20 14:07:35.719520,-11.0
2023-12-20 14:07:35.727209,-7.0
2023-12-20 14:07:35.734898,-7.0
2023-12-20 14:07:35.742587,-9.0
2023-12-20 14:07:35.750276,-7.0
2023-12-20 14:07:35.757965,-21.0
2023-12-20 14:07:35.765654,-112.0
2023-12-20 14:07:35.773343,-288.0
2023-12-20 14:07:35.781032,-383.0
2023-12-20 14:07:35.788721,-162.0
2023-12-20 14:07:35.796410,209.0
2023-12-20 14:07:35.804099,338.0
2023-12-20 14:07:35.811788,259.0
2023-12-20 14:07:35.819477,178.0
2023-12-20 14:07:35.827166,73.0
2023-12-20 14:07:35.834855,-35.0
2023-12-20 14:07:35.842544,-69.0
2023-12-20 14:07:35.850233,-61.0
2023-12-20 14:07:35.857922,-66.0
2023-12-20 14:07:35.865611,-69.0
2023-12-20 14:07:35.873300,-64.0
2023-12-20 14:07:35.880989,-64.0
2023-12-20 14:07:35.888678,-64.0
2023-12-20 14:07:35.896367,-66.0
2023-12-20 14:07:35.904056,-71.0
2023-12-20 14:07:35.911745,-88.0
2023-12-20 14:07:35.919434,-109.0
2023-12-20 14:07:35.927123,-114.0
2023-12-20 14:07:35.934812,-107.0
2023-12-20 14:07:35.942501,-100.0
2023-12-20 14:07:35.950190,-97.0
2023-12-20 14:07:35.957879,-104.0
2023-12-20 14:07:35.965567,-109.0
2023-12-20 14:07:35.973256,-116.0
2023-12-20 14:07:35.980945,-121.0
2023-12-20 14:07:35.988634,-114.0
2023-12-20 14:07:35.996323,-102.0
2023-12-20 14:07:36.004012,-90.0
2023-12-20 14:07:36.011701,-81.0
2023-12-20 14:07:36.019390,-71.0
2023-12-20 14:07:36.027079,-52.0
2023-12-20 14:07:36.034768,-30.0
2023-12-20 14:07:36.042457,-23.0
2023-12-20 14:07:36.050146,-7.0
2023-12-20 14:07:36.057835,-4.0
2023-12-20 14:07:36.065524,-21.0
2023-12-20 14:07:36.073213,-23.0
2023-12-20 14:07:36.080902,-14.0
2023-12-20 14:07:36.088591,-14.0
2023-12-20 14:07:36.096280,-14.0
2023-12-20 14:07:36.103969,-16.0
2023-12-20 14:07:36.111658,-21.0
2023-12-20 14:07:36.119347,-16.0
2023-12-20 14:07:36.127036,-9.0
2023-12-20 14:07:36.134725,-9.0
2023-12-20 14:07:36.142414,-2.0
2023-12-20 14:07:36.150103,-9.0
2023-12-20 14:07:36.157792,-21.0
2023-12-20 14:07:36.165481,-16.0
2023-12-20 14:07:36.173170,-9.0
2023-12-20 14:07:36.180859,-9.0
2023-12-20 14:07:36.188548,-11.0
2023-12-20 14:07:36.196237,-21.0
2023-12-20 14:07:36.203926,-21.0
2023-12-20 14:07:36.211615,-7.0
2023-12-20 14:07:36.219304,0.0
2023-12-20 14:07:36.226993,-2.0
2023-12-20 14:07:36.234682,-16.0
2023-12-20 14:07:36.242371,-57.0
2023-12-20 14:07:36.250060,-76.0
2023-12-20 14:07:36.257749,-61.0
2023-12-20 14:07:36.265438,-52.0
2023-12-20 14:07:36.273127,-52.0
2023-12-20 14:07:36.280816,-50.0
2023-12-20 14:07:36.288505,-40.0
2023-12-20 14:07:36.296194,-23.0
2023-12-20 14:07:36.303883,-23.0
2023-12-20 14:07:36.311572,-35.0
2023-12-20 14:07:36.319261,-30.0
2023-12-20 14:07:36.326950,-26.0
2023-12-20 14:07:36.334639,-30.0
2023-12-20 14:07:36.342328,-28.0
2023-12-20 14:07:36.350017,-38.0
2023-12-20 14:07:36.357706,-126.0
2023-12-20 14:07:36.365395,-300.0
2023-12-20 14:07:36.373084,-405.0
2023-12-20 14:07:36.380773,-219.0
2023-12-20 14:07:36.388462,145.0
2023-12-20 14:07:36.396151,321.0
2023-12-20 14:07:36.403840,271.0
2023-12-20 14:07:36.411529,169.0
2023-12-20 14:07:36.419218,45.0
2023-12-20 14:07:36.426907,-64.0
2023-12-20 14:07:36.434596,-92.0
2023-12-20 14:07:36.442285,-81.0
2023-12-20 14:07:36.449974,-81.0
2023-12-20 14:07:36.457663,-85.0
2023-12-20 14:07:36.465351,-81.0
2023-12-20 14:07:36.473040,-83.0
2023-12-20 14:07:36.480729,-85.0
2023-12-20 14:07:36.488418,-85.0
2023-12-20 14:07:36.496107,-83.0
2023-12-20 14:07:36.503796,-85.0
2023-12-20 14:07:36.511485,-97.0
2023-12-20 14:07:36.519174,-104.0
2023-12-20 14:07:36.526863,-112.0
2023-12-20 14:07:36.534552,-116.0
2023-12-20 14:07:36.542241,-121.0
2023-12-20 14:07:36.549930,-135.0
2023-12-20 14:07:36.557619,-143.0
2023-12-20 14:07:36.565308,-135.0
2023-12-20 14:07:36.572997,-131.0
2023-12-20 14:07:36.580686,-121.0
2023-12-20 14:07:36.588375,-109.0
2023-12-20 14:07:36.596064,-109.0
2023-12-20 14:07:36.603753,-104.0
2023-12-20 14:07:36.611442,-85.0
2023-12-20 14:07:36.619131,-69.0
2023-12-20 14:07:36.626820,-54.0
2023-12-20 14:07:36.634509,-40.0
2023-12-20 14:07:36.642198,-21.0
2023-12-20 14:07:36.649887,-9.0
2023-12-20 14:07:36.657576,-14.0
2023-12-20 14:07:36.665265,-16.0
2023-12-20 14:07:36.672954,-14.0
2023-12-20 14:07:36.680643,-16.0
2023-12-20 14:07:36.688332,-16.0
2023-12-20 14:07:36.696021,-23.0
2023-12-20 14:07:36.703710,-30.0
2023-12-20 14:07:36.711399,-28.0
2023-12-20 14:07:36.719088,-19.0
2023-12-20 14:07:36.726777,-9.0
2023-12-20 14:07:36.734466,-11.0
2023-12-20 14:07:36.742155,-26.0
2023-12-20 14:07:36.749844,-28.0
2023-12-20 14:07:36.757533,-19.0
2023-12-20 14:07:36.765222,-16.0
2023-12-20 14:07:36.772911,-23.0
2023-12-20 14:07:36.780600,-21.0
2023-12-20 14:07:36.788289,-21.0
2023-12-20 14:07:36.795978,-33.0
2023-12-20 14:07:36.803667,-38.0
2023-12-20 14:07:36.811356,-28.0
2023-12-20 14:07:36.819045,-33.0
2023-12-20 14:07:36.826734,-54.0
2023-12-20 14:07:36.834423,-69.0
2023-12-20 14:07:36.842112,-66.0
2023-12-20 14:07:36.849801,-71.0
2023-12-20 14:07:36.857490,-78.0
2023-12-20 14:07:36.865179,-83.0
2023-12-20 14:07:36.872868,-85.0
2023-12-20 14:07:36.880557,-71.0
2023-12-20 14:07:36.888246,-52.0
2023-12-20 14:07:36.895935,-40.0
2023-12-20 14:07:36.903624,-35.0
2023-12-20 14:07:36.911313,-26.0
2023-12-20 14:07:36.919002,-26.0
2023-12-20 14:07:36.926691,-45.0
2023-12-20 14:07:36.934380,-66.0
2023-12-20 14:07:36.942069,-66.0
2023-12-20 14:07:36.949758,-78.0
2023-12-20 14:07:36.957447,-171.0
2023-12-20 14:07:36.965136,-345.0
2023-12-20 14:07:36.972824,-405.0
2023-12-20 14:07:36.980513,-157.0
2023-12-20 14:07:36.988202,190.0
2023-12-20 14:07:36.995891,290.0
2023-12-20 14:07:37.003580,216.0
2023-12-20 14:07:37.011269,138.0
2023-12-20 14:07:37.018958,30.0
2023-12-20 14:07:37.026647,-71.0
2023-12-20 14:07:37.034336,-95.0
2023-12-20 14:07:37.042025,-95.0
2023-12-20 14:07:37.049714,-116.0
2023-12-20 14:07:37.057403,-123.0
2023-12-20 14:07:37.065092,-109.0
2023-12-20 14:07:37.072781,-100.0
2023-12-20 14:07:37.080470,-90.0
2023-12-20 14:07:37.088159,-92.0
2023-12-20 14:07:37.095848,-109.0
2023-12-20 14:07:37.103537,-121.0
2023-12-20 14:07:37.111226,-128.0
2023-12-20 14:07:37.118915,-147.0
2023-12-20 14:07:37.126604,-157.0
2023-12-20 14:07:37.134293,-143.0
2023-12-20 14:07:37.141982,-138.0
2023-12-20 14:07:37.149671,-138.0
2023-12-20 14:07:37.157360,-131.0
2023-12-20 14:07:37.165049,-131.0
2023-12-20 14:07:37.172738,-138.0
2023-12-20 14:07:37.180427,-135.0
2023-12-20 14:07:37.188116,-128.0
2023-12-20 14:07:37.195805,-121.0
2023-12-20 14:07:37.203494,-109.0
2023-12-20 14:07:37.211183,-97.0
2023-12-20 14:07:37.218872,-81.0
2023-12-20 14:07:37.226561,-64.0
2023-12-20 14:07:37.234250,-50.0
2023-12-20 14:07:37.241939,-33.0
2023-12-20 14:07:37.249628,-21.0
2023-12-20 14:07:37.257317,-23.0
2023-12-20 14:07:37.265006,-33.0
2023-12-20 14:07:37.272695,-28.0
2023-12-20 14:07:37.280384,-23.0
2023-12-20 14:07:37.288073,-40.0
2023-12-20 14:07:37.295762,-47.0
2023-12-20 14:07:37.303451,-42.0
2023-12-20 14:07:37.311140,-50.0
2023-12-20 14:07:37.318829,-61.0
2023-12-20 14:07:37.326518,-54.0
2023-12-20 14:07:37.334207,-35.0
2023-12-20 14:07:37.341896,-35.0
2023-12-20 14:07:37.349585,-47.0
2023-12-20 14:07:37.357274,-50.0
2023-12-20 14:07:37.364963,-66.0
2023-12-20 14:07:37.372652,-81.0
2023-12-20 14:07:37.380341,-69.0
2023-12-20 14:07:37.388030,-59.0
2023-12-20 14:07:37.395719,-64.0
2023-12-20 14:07:37.403408,-66.0
2023-12-20 14:07:37.411097,-83.0
2023-12-20 14:07:37.418786,-109.0
2023-12-20 14:07:37.426475,-114.0
2023-12-20 14:07:37.434164,-102.0
2023-12-20 14:07:37.441853,-109.0
2023-12-20 14:07:37.449542,-121.0
2023-12-20 14:07:37.457231,-121.0
2023-12-20 14:07:37.464920,-116.0
2023-12-20 14:07:37.472608,-112.0
2023-12-20 14:07:37.480297,-100.0
2023-12-20 14:07:37.487986,-85.0
2023-12-20 14:07:37.495675,-78.0
2023-12-20 14:07:37.503364,-95.0
2023-12-20 14:07:37.511053,-95.0
2023-12-20 14:07:37.518742,-71.0
2023-12-20 14:07:37.526431,-64.0
2023-12-20 14:07:37.534120,-83.0
2023-12-20 14:07:37.541809,-95.0
2023-12-20 14:07:37.549498,-112.0
2023-12-20 14:07:37.557187,-200.0
2023-12-20 14:07:37.564876,-374.0
2023-12-20 14:07:37.572565,-457.0
2023-12-20 14:07:37.580254,-207.0
2023-12-20 14:07:37.587943,159.0
2023-12-20 14:07:37.595632,267.0
2023-12-20 14:07:37.603321,214.0
2023-12-20 14:07:37.611010,157.0
2023-12-20 14:07:37.618699,38.0
2023-12-20 14:07:37.626388,-83.0
2023-12-20 14:07:37.634077,-107.0
2023-12-20 14:07:37.641766,-92.0
2023-12-20 14:07:37.649455,-100.0
2023-12-20 14:07:37.657144,-114.0
2023-12-20 14:07:37.664833,-114.0
2023-12-20 14:07:37.672522,-114.0
2023-12-20 14:07:37.680211,-126.0
2023-12-20 14:07:37.687900,-135.0
2023-12-20 14:07:37.695589,-145.0
2023-12-20 14:07:37.703278,-147.0
2023-12-20 14:07:37.710967,-138.0
2023-12-20 14:07:37.718656,-143.0
2023-12-20 14:07:37.726345,-150.0
2023-12-20 14:07:37.734034,-150.0
2023-12-20 14:07:37.741723,-147.0
2023-12-20 14:07:37.749412,-150.0
2023-12-20 14:07:37.757101,-140.0
2023-12-20 14:07:37.764790,-128.0
2023-12-20 14:07:37.772479,-133.0
2023-12-20 14:07:37.780168,-140.0
2023-12-20 14:07:37.787857,-138.0
2023-12-20 14:07:37.795546,-128.0
2023-12-20 14:07:37.803235,-109.0
2023-12-20 14:07:37.810924,-92.0
2023-12-20 14:07:37.818613,-92.0
2023-12-20 14:07:37.826302,-76.0
2023-12-20 14:07:37.833991,-42.0
2023-12-20 14:07:37.841680,-30.0
2023-12-20 14:07:37.849369,-33.0
2023-12-20 14:07:37.857058,-30.0
2023-12-20 14:07:37.864747,-30.0
2023-12-20 14:07:37.872436,-38.0
2023-12-20 14:07:37.880125,-38.0
2023-12-20 14:07:37.887814,-33.0
2023-12-20 14:07:37.895503,-30.0
2023-12-20 14:07:37.903192,-45.0
2023-12-20 14:07:37.910881,-81.0
2023-12-20 14:07:37.918570,-90.0
2023-12-20 14:07:37.926259,-88.0
2023-12-20 14:07:37.933948,-85.0
2023-12-20 14:07:37.941637,-71.0
2023-12-20 14:07:37.949326,-76.0
2023-12-20 14:07:37.957015,-85.0
2023-12-20 14:07:37.964704,-73.0
2023-12-20 14:07:37.972392,-57.0
2023-12-20 14:07:37.980081,-54.0
2023-12-20 14:07:37.987770,-61.0
2023-12-20 14:07:37.995459,-61.0
2023-12-20 14:07:38.003148,-57.0
2023-12-20 14:07:38.010837,-54.0
2023-12-20 14:07:38.018526,-47.0
2023-12-20 14:07:38.026215,-50.0
2023-12-20 14:07:38.033904,-71.0
2023-12-20 14:07:38.041593,-81.0
2023-12-20 14:07:38.049282,-73.0
2023-12-20 14:07:38.056971,-78.0
2023-12-20 14:07:38.064660,-85.0
2023-12-20 14:07:38.072349,-69.0
2023-12-20 14:07:38.080038,-47.0
2023-12-20 14:07:38.087727,-45.0
2023-12-20 14:07:38.095416,-47.0
2023-12-20 14:07:38.103105,-47.0
2023-12-20 14:07:38.110794,-42.0
2023-12-20 14:07:38.118483,-40.0
2023-12-20 14:07:38.126172,-40.0
2023-12-20 14:07:38.133861,-47.0
2023-12-20 14:07:38.141550,-66.0
2023-12-20 14:07:38.149239,-143.0
2023-12-20 14:07:38.156928,-329.0
2023-12-20 14:07:38.164617,-445.0
2023-12-20 14:07:38.172306,-219.0
2023-12-20 14:07:38.179995,174.0
2023-12-20 14:07:38.187684,317.0
2023-12-20 14:07:38.195373,247.0
2023-12-20 14:07:38.203062,174.0
2023-12-20 14:07:38.210751,83.0
2023-12-20 14:07:38.218440,-28.0
2023-12-20 14:07:38.226129,-78.0
2023-12-20 14:07:38.233818,-59.0
2023-12-20 14:07:38.241507,-54.0
2023-12-20 14:07:38.249196,-85.0
2023-12-20 14:07:38.256885,-100.0
2023-12-20 14:07:38.264574,-81.0
2023-12-20 14:07:38.272263,-95.0
2023-12-20 14:07:38.279952,-126.0
2023-12-20 14:07:38.287641,-116.0
2023-12-20 14:07:38.295330,-97.0
2023-12-20 14:07:38.303019,-114.0
2023-12-20 14:07:38.310708,-133.0
2023-12-20 14:07:38.318397,-123.0
2023-12-20 14:07:38.326086,-112.0
2023-12-20 14:07:38.333775,-121.0
2023-12-20 14:07:38.341464,-126.0
2023-12-20 14:07:38.349153,-116.0
2023-12-20 14:07:38.356842,-104.0
2023-12-20 14:07:38.364531,-95.0
2023-12-20 14:07:38.372220,-97.0
2023-12-20 14:07:38.379909,-92.0
2023-12-20 14:07:38.387598,-83.0
2023-12-20 14:07:38.395287,-76.0
2023-12-20 14:07:38.402976,-64.0
2023-12-20 14:07:38.410665,-50.0
2023-12-20 14:07:38.418354,-38.0
2023-12-20 14:07:38.426043,-38.0
2023-12-20 14:07:38.433732,-45.0
2023-12-20 14:07:38.441421,-45.0
2023-12-20 14:07:38.449110,-54.0
2023-12-20 14:07:38.456799,-50.0
2023-12-20 14:07:38.464488,-21.0
2023-12-20 14:07:38.472177,-26.0
2023-12-20 14:07:38.479865,-47.0
2023-12-20 14:07:38.487554,-40.0
2023-12-20 14:07:38.495243,-35.0
2023-12-20 14:07:38.502932,-47.0
2023-12-20 14:07:38.510621,-47.0
2023-12-20 14:07:38.518310,-45.0
2023-12-20 14:07:38.525999,-42.0
2023-12-20 14:07:38.533688,-38.0
2023-12-20 14:07:38.541377,-50.0
2023-12-20 14:07:38.549066,-59.0
2023-12-20 14:07:38.556755,-38.0
2023-12-20 14:07:38.564444,-11.0
2023-12-20 14:07:38.572133,-11.0
2023-12-20 14:07:38.579822,-19.0
2023-12-20 14:07:38.587511,-21.0
2023-12-20 14:07:38.595200,-23.0
2023-12-20 14:07:38.602889,-23.0
2023-12-20 14:07:38.610578,-19.0
2023-12-20 14:07:38.618267,-19.0
2023-12-20 14:07:38.625956,-33.0
2023-12-20 14:07:38.633645,-38.0
2023-12-20 14:07:38.641334,-33.0
2023-12-20 14:07:38.649023,-38.0
2023-12-20 14:07:38.656712,-38.0
2023-12-20 14:07:38.664401,-28.0
2023-12-20 14:07:38.672090,-16.0
2023-12-20 14:07:38.679779,-9.0
2023-12-20 14:07:38.687468,-16.0
2023-12-20 14:07:38.695157,-21.0
2023-12-20 14:07:38.702846,-19.0
2023-12-20 14:07:38.710535,-16.0
2023-12-20 14:07:38.718224,-14.0
2023-12-20 14:07:38.725913,-9.0
2023-12-20 14:07:38.733602,-40.0
2023-12-20 14:07:38.741291,-176.0
2023-12-20 14:07:38.748980,-362.0
2023-12-20 14:07:38.756669,-371.0
2023-12-20 14:07:38.764358,-73.0
2023-12-20 14:07:38.772047,257.0
2023-12-20 14:07:38.779736,329.0
2023-12-20 14:07:38.787425,240.0
2023-12-20 14:07:38.795114,143.0
2023-12-20 14:07:38.802803,30.0
2023-12-20 14:07:38.810492,-45.0
2023-12-20 14:07:38.818181,-50.0
2023-12-20 14:07:38.825870,-50.0
2023-12-20 14:07:38.833559,-66.0
2023-12-20 14:07:38.841248,-73.0
2023-12-20 14:07:38.848937,-71.0
2023-12-20 14:07:38.856626,-76.0
2023-12-20 14:07:38.864315,-85.0
2023-12-20 14:07:38.872004,-90.0
2023-12-20 14:07:38.879693,-107.0
2023-12-20 14:07:38.887382,-116.0
2023-12-20 14:07:38.895071,-107.0
2023-12-20 14:07:38.902760,-102.0
2023-12-20 14:07:38.910449,-107.0
2023-12-20 14:07:38.918138,-100.0
2023-12-20 14:07:38.925827,-107.0
2023-12-20 14:07:38.933516,-143.0
2023-12-20 14:07:38.941205,-138.0
2023-12-20 14:07:38.948894,-107.0
2023-12-20 14:07:38.956583,-109.0
2023-12-20 14:07:38.964272,-119.0
2023-12-20 14:07:38.971961,-100.0
2023-12-20 14:07:38.979649,-83.0
2023-12-20 14:07:38.987338,-90.0
2023-12-20 14:07:38.995027,-95.0
2023-12-20 14:07:39.002716,-76.0
2023-12-20 14:07:39.010405,-64.0
2023-12-20 14:07:39.018094,-71.0
2023-12-20 14:07:39.025783,-66.0
2023-12-20 14:07:39.033472,-52.0
2023-12-20 14:07:39.041161,-40.0
2023-12-20 14:07:39.048850,-16.0
2023-12-20 14:07:39.056539,-4.0
2023-12-20 14:07:39.064228,-23.0
2023-12-20 14:07:39.071917,-40.0
2023-12-20 14:07:39.079606,-38.0
2023-12-20 14:07:39.087295,-28.0
2023-12-20 14:07:39.094984,-33.0
2023-12-20 14:07:39.102673,-30.0
2023-12-20 14:07:39.110362,-26.0
2023-12-20 14:07:39.118051,-38.0
2023-12-20 14:07:39.125740,-38.0
2023-12-20 14:07:39.133429,-14.0
2023-12-20 14:07:39.141118,0.0
2023-12-20 14:07:39.148807,-2.0
2023-12-20 14:07:39.156496,-14.0
2023-12-20 14:07:39.164185,-28.0
2023-12-20 14:07:39.171874,-23.0
2023-12-20 14:07:39.179563,-7.0
2023-12-20 14:07:39.187252,-16.0
2023-12-20 14:07:39.194941,-23.0
2023-12-20 14:07:39.202630,-14.0
2023-12-20 14:07:39.210319,-14.0
2023-12-20 14:07:39.218008,-28.0
2023-12-20 14:07:39.225697,-40.0
2023-12-20 14:07:39.233386,-45.0
2023-12-20 14:07:39.241075,-47.0
2023-12-20 14:07:39.248764,-38.0
2023-12-20 14:07:39.256453,-28.0
2023-12-20 14:07:39.264142,-23.0
2023-12-20 14:07:39.271831,-11.0
2023-12-20 14:07:39.279520,-2.0
2023-12-20 14:07:39.287209,-7.0
2023-12-20 14:07:39.294898,-21.0
2023-12-20 14:07:39.302587,-28.0
2023-12-20 14:07:39.310276,-30.0
2023-12-20 14:07:39.317965,-52.0
2023-12-20 14:07:39.325654,-109.0
2023-12-20 14:07:39.333343,-238.0
2023-12-20 14:07:39.341032,-376.0
2023-12-20 14:07:39.348721,-274.0
2023-12-20 14:07:39.356410,78.0
2023-12-20 14:07:39.364099,300.0
2023-12-20 14:07:39.371788,278.0
2023-12-20 14:07:39.379477,209.0
2023-12-20 14:07:39.387166,114.0
2023-12-20 14:07:39.394855,-21.0
2023-12-20 14:07:39.402544,-95.0
2023-12-20 14:07:39.410233,-69.0
2023-12-20 14:07:39.417922,-47.0
2023-12-20 14:07:39.425611,-76.0
2023-12-20 14:07:39.433300,-92.0
2023-12-20 14:07:39.440989,-95.0
2023-12-20 14:07:39.448678,-109.0
2023-12-20 14:07:39.456367,-114.0
2023-12-20 14:07:39.464056,-109.0
2023-12-20 14:07:39.471745,-119.0
2023-12-20 14:07:39.479433,-133.0
2023-12-20 14:07:39.487122,-138.0
2023-12-20 14:07:39.494811,-133.0
2023-12-20 14:07:39.502500,-131.0
2023-12-20 14:07:39.510189,-135.0
2023-12-20 14:07:39.517878,-147.0
2023-12-20 14:07:39.525567,-154.0
2023-12-20 14:07:39.533256,-145.0
2023-12-20 14:07:39.540945,-128.0
2023-12-20 14:07:39.548634,-114.0
2023-12-20 14:07:39.556323,-100.0
2023-12-20 14:07:39.564012,-107.0
2023-12-20 14:07:39.571701,-138.0
2023-12-20 14:07:39.579390,-135.0
2023-12-20 14:07:39.587079,-92.0
2023-12-20 14:07:39.594768,-69.0
2023-12-20 14:07:39.602457,-57.0
2023-12-20 14:07:39.610146,-50.0
2023-12-20 14:07:39.617835,-64.0
2023-12-20 14:07:39.625524,-66.0
2023-12-20 14:07:39.633213,-35.0
2023-12-20 14:07:39.640902,-28.0
2023-12-20 14:07:39.648591,-40.0
2023-12-20 14:07:39.656280,-38.0
2023-12-20 14:07:39.663969,-40.0
2023-12-20 14:07:39.671658,-50.0
2023-12-20 14:07:39.679347,-42.0
2023-12-20 14:07:39.687036,-33.0
2023-12-20 14:07:39.694725,-35.0
2023-12-20 14:07:39.702414,-52.0
2023-12-20 14:07:39.710103,-57.0
2023-12-20 14:07:39.717792,-40.0
2023-12-20 14:07:39.725481,-28.0
2023-12-20 14:07:39.733170,-28.0
2023-12-20 14:07:39.740859,-26.0
2023-12-20 14:07:39.748548,-28.0
2023-12-20 14:07:39.756237,-33.0
2023-12-20 14:07:39.763926,-30.0
2023-12-20 14:07:39.771615,-30.0
2023-12-20 14:07:39.779304,-38.0
2023-12-20 14:07:39.786993,-38.0
2023-12-20 14:07:39.794682,-42.0
2023-12-20 14:07:39.802371,-66.0
2023-12-20 14:07:39.810060,-73.0
2023-12-20 14:07:39.817749,-59.0
2023-12-20 14:07:39.825438,-47.0
2023-12-20 14:07:39.833127,-47.0
2023-12-20 14:07:39.840816,-59.0
2023-12-20 14:07:39.848505,-59.0
2023-12-20 14:07:39.856194,-33.0
2023-12-20 14:07:39.863883,-33.0
2023-12-20 14:07:39.871572,-57.0
2023-12-20 14:07:39.879261,-50.0
2023-12-20 14:07:39.886950,-35.0
2023-12-20 14:07:39.894639,-52.0
2023-12-20 14:07:39.902328,-52.0
2023-12-20 14:07:39.910017,-47.0
2023-12-20 14:07:39.917706,-133.0
2023-12-20 14:07:39.925395,-309.0
2023-12-20 14:07:39.933084,-405.0
2023-12-20 14:07:39.940773,-212.0
2023-12-20 14:07:39.948462,121.0
2023-12-20 14:07:39.956151,245.0
2023-12-20 14:07:39.963840,190.0
2023-12-20 14:07:39.971529,135.0
2023-12-20 14:07:39.979218,40.0
2023-12-20 14:07:39.986906,-78.0
2023-12-20 14:07:39.994595,-121.0
2023-12-20 14:07:40.002284,-131.0
2023-12-20 14:07:40.009973,-152.0
2023-12-20 14:07:40.017662,-143.0
2023-12-20 14:07:40.025351,-128.0
2023-12-20 14:07:40.033040,-135.0
2023-12-20 14:07:40.040729,-138.0
2023-12-20 14:07:40.048418,-133.0
2023-12-20 14:07:40.056107,-133.0
2023-12-20 14:07:40.063796,-140.0
2023-12-20 14:07:40.071485,-157.0
2023-12-20 14:07:40.079174,-183.0
2023-12-20 14:07:40.086863,-183.0
2023-12-20 14:07:40.094552,-154.0
2023-12-20 14:07:40.102241,-157.0
2023-12-20 14:07:40.109930,-176.0
2023-12-20 14:07:40.117619,-171.0
2023-12-20 14:07:40.125308,-147.0
2023-12-20 14:07:40.132997,-131.0
2023-12-20 14:07:40.140686,-119.0
2023-12-20 14:07:40.148375,-116.0
2023-12-20 14:07:40.156064,-140.0
2023-12-20 14:07:40.163753,-145.0
2023-12-20 14:07:40.171442,-135.0
2023-12-20 14:07:40.179131,-138.0
2023-12-20 14:07:40.186820,-112.0
2023-12-20 14:07:40.194509,-83.0
2023-12-20 14:07:40.202198,-92.0
2023-12-20 14:07:40.209887,-92.0
2023-12-20 14:07:40.217576,-76.0
2023-12-20 14:07:40.225265,-54.0
2023-12-20 14:07:40.232954,-38.0
2023-12-20 14:07:40.240643,-40.0
2023-12-20 14:07:40.248332,-50.0
2023-12-20 14:07:40.256021,-52.0
2023-12-20 14:07:40.263710,-64.0
2023-12-20 14:07:40.271399,-81.0
2023-12-20 14:07:40.279088,-83.0
2023-12-20 14:07:40.286777,-76.0
2023-12-20 14:07:40.294466,-66.0
2023-12-20 14:07:40.302155,-64.0
2023-12-20 14:07:40.309844,-64.0
2023-12-20 14:07:40.317533,-47.0
2023-12-20 14:07:40.325222,-42.0
2023-12-20 14:07:40.332911,-50.0
2023-12-20 14:07:40.340600,-42.0
2023-12-20 14:07:40.348289,-35.0
2023-12-20 14:07:40.355978,-40.0
2023-12-20 14:07:40.363667,-45.0
2023-12-20 14:07:40.371356,-61.0
2023-12-20 14:07:40.379045,-83.0
2023-12-20 14:07:40.386734,-92.0
2023-12-20 14:07:40.394423,-78.0
2023-12-20 14:07:40.402112,-57.0
2023-12-20 14:07:40.409801,-54.0
2023-12-20 14:07:40.417490,-61.0
2023-12-20 14:07:40.425179,-54.0
2023-12-20 14:07:40.432868,-40.0
2023-12-20 14:07:40.440557,-35.0
2023-12-20 14:07:40.448246,-64.0
2023-12-20 14:07:40.455935,-92.0
2023-12-20 14:07:40.463624,-71.0
2023-12-20 14:07:40.471313,-52.0
2023-12-20 14:07:40.479002,-66.0
2023-12-20 14:07:40.486690,-73.0
2023-12-20 14:07:40.494379,-109.0
2023-12-20 14:07:40.502068,-233.0
2023-12-20 14:07:40.509757,-426.0
2023-12-20 14:07:40.517446,-457.0
2023-12-20 14:07:40.525135,-133.0
2023-12-20 14:07:40.532824,205.0
2023-12-20 14:07:40.540513,243.0
2023-12-20 14:07:40.548202,195.0
2023-12-20 14:07:40.555891,145.0
2023-12-20 14:07:40.563580,2.0
2023-12-20 14:07:40.571269,-100.0
2023-12-20 14:07:40.578958,-92.0
2023-12-20 14:07:40.586647,-76.0
2023-12-20 14:07:40.594336,-95.0
2023-12-20 14:07:40.602025,-104.0
2023-12-20 14:07:40.609714,-104.0
2023-12-20 14:07:40.617403,-119.0
2023-12-20 14:07:40.625092,-131.0
2023-12-20 14:07:40.632781,-135.0
2023-12-20 14:07:40.640470,-145.0
2023-12-20 14:07:40.648159,-159.0
2023-12-20 14:07:40.655848,-152.0
2023-12-20 14:07:40.663537,-131.0
2023-12-20 14:07:40.671226,-133.0
2023-12-20 14:07:40.678915,-140.0
2023-12-20 14:07:40.686604,-138.0
2023-12-20 14:07:40.694293,-157.0
2023-12-20 14:07:40.701982,-188.0
2023-12-20 14:07:40.709671,-169.0
2023-12-20 14:07:40.717360,-135.0
2023-12-20 14:07:40.725049,-128.0
2023-12-20 14:07:40.732738,-138.0
2023-12-20 14:07:40.740427,-164.0
2023-12-20 14:07:40.748116,-174.0
2023-12-20 14:07:40.755805,-133.0
2023-12-20 14:07:40.763494,-100.0
2023-12-20 14:07:40.771183,-88.0
2023-12-20 14:07:40.778872,-71.0
2023-12-20 14:07:40.786561,-64.0
2023-12-20 14:07:40.794250,-71.0
2023-12-20 14:07:40.801939,-64.0
2023-12-20 14:07:40.809628,-52.0
2023-12-20 14:07:40.817317,-50.0
2023-12-20 14:07:40.825006,-45.0
2023-12-20 14:07:40.832695,-40.0
2023-12-20 14:07:40.840384,-54.0
2023-12-20 14:07:40.848073,-61.0
2023-12-20 14:07:40.855762,-45.0
2023-12-20 14:07:40.863451,-33.0
2023-12-20 14:07:40.871140,-40.0
2023-12-20 14:07:40.878829,-47.0
2023-12-20 14:07:40.886518,-42.0
2023-12-20 14:07:40.894207,-40.0
2023-12-20 14:07:40.901896,-38.0
2023-12-20 14:07:40.909585,-33.0
2023-12-20 14:07:40.917274,-28.0
2023-12-20 14:07:40.924963,-38.0
2023-12-20 14:07:40.932652,-33.0
2023-12-20 14:07:40.940341,-14.0
2023-12-20 14:07:40.948030,-21.0
2023-12-20 14:07:40.955719,-45.0
2023-12-20 14:07:40.963408,-64.0
2023-12-20 14:07:40.971097,-69.0
2023-12-20 14:07:40.978786,-69.0
2023-12-20 14:07:40.986474,-78.0
2023-12-20 14:07:40.994163,-90.0
2023-12-20 14:07:41.001852,-83.0
2023-12-20 14:07:41.009541,-59.0
2023-12-20 14:07:41.017230,-35.0
2023-12-20 14:07:41.024919,-33.0
2023-12-20 14:07:41.032608,-33.0
2023-12-20 14:07:41.040297,-28.0
2023-12-20 14:07:41.047986,-35.0
2023-12-20 14:07:41.055675,-45.0
2023-12-20 14:07:41.063364,-47.0
2023-12-20 14:07:41.071053,-59.0
2023-12-20 14:07:41.078742,-119.0
2023-12-20 14:07:41.086431,-288.0
2023-12-20 14:07:41.094120,-445.0
2023-12-20 14:07:41.101809,-305.0
2023-12-20 14:07:41.109498,78.0
2023-12-20 14:07:41.117187,288.0
2023-12-20 14:07:41.124876,255.0
2023-12-20 14:07:41.132565,195.0
2023-12-20 14:07:41.140254,100.0
2023-12-20 14:07:41.147943,-23.0
2023-12-20 14:07:41.155632,-69.0
2023-12-20 14:07:41.163321,-59.0
2023-12-20 14:07:41.171010,-61.0
2023-12-20 14:07:41.178699,-71.0
2023-12-20 14:07:41.186388,-71.0
2023-12-20 14:07:41.194077,-81.0
2023-12-20 14:07:41.201766,-85.0
2023-12-20 14:07:41.209455,-76.0
2023-12-20 14:07:41.217144,-73.0
2023-12-20 14:07:41.224833,-83.0
2023-12-20 14:07:41.232522,-123.0
2023-12-20 14:07:41.240211,-171.0
2023-12-20 14:07:41.247900,-169.0
2023-12-20 14:07:41.255589,-150.0
2023-12-20 14:07:41.263278,-154.0
2023-12-20 14:07:41.270967,-157.0
2023-12-20 14:07:41.278656,-150.0
2023-12-20 14:07:41.286345,-138.0
2023-12-20 14:07:41.294034,-135.0
2023-12-20 14:07:41.301723,-138.0
2023-12-20 14:07:41.309412,-114.0
2023-12-20 14:07:41.317101,-85.0
2023-12-20 14:07:41.324790,-95.0
2023-12-20 14:07:41.332479,-100.0
2023-12-20 14:07:41.340168,-66.0
2023-12-20 14:07:41.347857,-47.0
2023-12-20 14:07:41.355546,-47.0
2023-12-20 14:07:41.363235,-40.0
2023-12-20 14:07:41.370924,-26.0
2023-12-20 14:07:41.378613,-16.0
2023-12-20 14:07:41.386302,-11.0
2023-12-20 14:07:41.393991,-16.0
2023-12-20 14:07:41.401680,-14.0
2023-12-20 14:07:41.409369,-2.0
2023-12-20 14:07:41.417058,-23.0
2023-12-20 14:07:41.424747,-45.0
2023-12-20 14:07:41.432436,-28.0
2023-12-20 14:07:41.440125,-2.0
2023-12-20 14:07:41.447814,-7.0
2023-12-20 14:07:41.455503,-33.0
2023-12-20 14:07:41.463192,-47.0
2023-12-20 14:07:41.470881,-52.0
2023-12-20 14:07:41.478570,-59.0
2023-12-20 14:07:41.486259,-54.0
2023-12-20 14:07:41.493947,-30.0
2023-12-20 14:07:41.501636,-26.0
2023-12-20 14:07:41.509325,-42.0
2023-12-20 14:07:41.517014,-40.0
2023-12-20 14:07:41.524703,-28.0
2023-12-20 14:07:41.532392,-30.0
2023-12-20 14:07:41.540081,-30.0
2023-12-20 14:07:41.547770,-35.0
2023-12-20 14:07:41.555459,-50.0
2023-12-20 14:07:41.563148,-54.0
2023-12-20 14:07:41.570837,-50.0
2023-12-20 14:07:41.578526,-47.0
2023-12-20 14:07:41.586215,-47.0
2023-12-20 14:07:41.593904,-45.0
2023-12-20 14:07:41.601593,-33.0
2023-12-20 14:07:41.609282,-16.0
2023-12-20 14:07:41.616971,-14.0
2023-12-20 14:07:41.624660,-19.0
2023-12-20 14:07:41.632349,-11.0
2023-12-20 14:07:41.640038,-19.0
2023-12-20 14:07:41.647727,-35.0
2023-12-20 14:07:41.655416,-38.0
2023-12-20 14:07:41.663105,-102.0
2023-12-20 14:07:41.670794,-293.0
2023-12-20 14:07:41.678483,-431.0
2023-12-20 14:07:41.686172,-243.0
2023-12-20 14:07:41.693861,135.0
2023-12-20 14:07:41.701550,290.0
2023-12-20 14:07:41.709239,238.0
2023-12-20 14:07:41.716928,174.0
2023-12-20 14:07:41.724617,66.0
2023-12-20 14:07:41.732306,-57.0
2023-12-20 14:07:41.739995,-85.0
2023-12-20 14:07:41.747684,-71.0
2023-12-20 14:07:41.755373,-78.0
2023-12-20 14:07:41.763062,-85.0
2023-12-20 14:07:41.770751,-85.0
2023-12-20 14:07:41.778440,-92.0
2023-12-20 14:07:41.786129,-95.0
2023-12-20 14:07:41.793818,-81.0
2023-12-20 14:07:41.801507,-76.0
2023-12-20 14:07:41.809196,-97.0
2023-12-20 14:07:41.816885,-126.0
2023-12-20 14:07:41.824574,-150.0
2023-12-20 14:07:41.832263,-159.0
2023-12-20 14:07:41.839952,-154.0
2023-12-20 14:07:41.847641,-143.0
2023-12-20 14:07:41.855330,-138.0
2023-12-20 14:07:41.863019,-143.0
2023-12-20 14:07:41.870708,-147.0
2023-12-20 14:07:41.878397,-145.0
2023-12-20 14:07:41.886086,-133.0
2023-12-20 14:07:41.893775,-123.0
2023-12-20 14:07:41.901464,-109.0
2023-12-20 14:07:41.909153,-97.0
2023-12-20 14:07:41.916842,-90.0
2023-12-20 14:07:41.924531,-76.0
2023-12-20 14:07:41.932220,-64.0
2023-12-20 14:07:41.939909,-45.0
2023-12-20 14:07:41.947598,-16.0
2023-12-20 14:07:41.955287,-16.0
2023-12-20 14:07:41.962976,-38.0
2023-12-20 14:07:41.970665,-54.0
2023-12-20 14:07:41.978354,-57.0
2023-12-20 14:07:41.986043,-47.0
2023-12-20 14:07:41.993731,-40.0
2023-12-20 14:07:42.001420,-42.0
2023-12-20 14:07:42.009109,-54.0
2023-12-20 14:07:42.016798,-54.0
2023-12-20 14:07:42.024487,-40.0
2023-12-20 14:07:42.032176,-35.0
2023-12-20 14:07:42.039865,-42.0
2023-12-20 14:07:42.047554,-38.0
2023-12-20 14:07:42.055243,-26.0
2023-12-20 14:07:42.062932,-26.0
2023-12-20 14:07:42.070621,-21.0
2023-12-20 14:07:42.078310,-9.0
2023-12-20 14:07:42.085999,-9.0
2023-12-20 14:07:42.093688,-28.0
2023-12-20 14:07:42.101377,-42.0
2023-12-20 14:07:42.109066,-30.0
2023-12-20 14:07:42.116755,-16.0
2023-12-20 14:07:42.124444,-26.0
2023-12-20 14:07:42.132133,-40.0
2023-12-20 14:07:42.139822,-45.0
2023-12-20 14:07:42.147511,-45.0
2023-12-20 14:07:42.155200,-42.0
2023-12-20 14:07:42.162889,-38.0
2023-12-20 14:07:42.170578,-30.0
2023-12-20 14:07:42.178267,-21.0
2023-12-20 14:07:42.185956,-14.0
2023-12-20 14:07:42.193645,-9.0
2023-12-20 14:07:42.201334,-11.0
2023-12-20 14:07:42.209023,-21.0
2023-12-20 14:07:42.216712,-23.0
2023-12-20 14:07:42.224401,-23.0
2023-12-20 14:07:42.232090,-35.0
2023-12-20 14:07:42.239779,-69.0
2023-12-20 14:07:42.247468,-143.0
2023-12-20 14:07:42.255157,-286.0
2023-12-20 14:07:42.262846,-391.0
2023-12-20 14:07:42.270535,-228.0
2023-12-20 14:07:42.278224,123.0
2023-12-20 14:07:42.285913,302.0
2023-12-20 14:07:42.293602,262.0
2023-12-20 14:07:42.301291,178.0
2023-12-20 14:07:42.308980,64.0
2023-12-20 14:07:42.316669,-59.0
2023-12-20 14:07:42.324358,-92.0
2023-12-20 14:07:42.332047,-66.0
2023-12-20 14:07:42.339736,-71.0
2023-12-20 14:07:42.347425,-83.0
2023-12-20 14:07:42.355114,-83.0
2023-12-20 14:07:42.362803,-100.0
2023-12-20 14:07:42.370492,-112.0
2023-12-20 14:07:42.378181,-90.0
2023-12-20 14:07:42.385870,-100.0
2023-12-20 14:07:42.393559,-126.0
2023-12-20 14:07:42.401248,-123.0
2023-12-20 14:07:42.408937,-133.0
2023-12-20 14:07:42.416626,-150.0
2023-12-20 14:07:42.424315,-135.0
2023-12-20 14:07:42.432004,-126.0
2023-12-20 14:07:42.439693,-138.0
2023-12-20 14:07:42.447382,-138.0
2023-12-20 14:07:42.455071,-135.0
2023-12-20 14:07:42.462760,-145.0
2023-12-20 14:07:42.470449,-159.0
2023-12-20 14:07:42.478138,-154.0
2023-12-20 14:07:42.485827,-128.0
2023-12-20 14:07:42.493515,-121.0
2023-12-20 14:07:42.501204,-121.0
2023-12-20 14:07:42.508893,-95.0
2023-12-20 14:07:42.516582,-69.0
2023-12-20 14:07:42.524271,-69.0
2023-12-20 14:07:42.531960,-66.0
2023-12-20 14:07:42.539649,-50.0
2023-12-20 14:07:42.547338,-47.0
2023-12-20 14:07:42.555027,-54.0
2023-12-20 14:07:42.562716,-50.0
2023-12-20 14:07:42.570405,-38.0
2023-12-20 14:07:42.578094,-38.0
2023-12-20 14:07:42.585783,-50.0
2023-12-20 14:07:42.593472,-47.0
2023-12-20 14:07:42.601161,-30.0
2023-12-20 14:07:42.608850,-30.0
2023-12-20 14:07:42.616539,-35.0
2023-12-20 14:07:42.624228,-28.0
2023-12-20 14:07:42.631917,-35.0
2023-12-20 14:07:42.639606,-52.0
2023-12-20 14:07:42.647295,-50.0
2023-12-20 14:07:42.654984,-38.0
2023-12-20 14:07:42.662673,-33.0
2023-12-20 14:07:42.670362,-30.0
2023-12-20 14:07:42.678051,-28.0
2023-12-20 14:07:42.685740,-23.0
2023-12-20 14:07:42.693429,-11.0
2023-12-20 14:07:42.701118,-21.0
2023-12-20 14:07:42.708807,-50.0
2023-12-20 14:07:42.716496,-61.0
2023-12-20 14:07:42.724185,-61.0
2023-12-20 14:07:42.731874,-73.0
2023-12-20 14:07:42.739563,-73.0
2023-12-20 14:07:42.747252,-61.0
2023-12-20 14:07:42.754941,-59.0
2023-12-20 14:07:42.762630,-59.0
2023-12-20 14:07:42.770319,-40.0
2023-12-20 14:07:42.778008,-11.0
2023-12-20 14:07:42.785697,-7.0
2023-12-20 14:07:42.793386,-23.0
2023-12-20 14:07:42.801075,-33.0
2023-12-20 14:07:42.808764,-26.0
2023-12-20 14:07:42.816453,-26.0
2023-12-20 14:07:42.824142,-42.0
2023-12-20 14:07:42.831831,-88.0
2023-12-20 14:07:42.839520,-212.0
2023-12-20 14:07:42.847209,-374.0
2023-12-20 14:07:42.854898,-343.0
2023-12-20 14:07:42.862587,-21.0
2023-12-20 14:07:42.870276,257.0
2023-12-20 14:07:42.877965,276.0
2023-12-20 14:07:42.885654,214.0
2023-12-20 14:07:42.893343,126.0
2023-12-20 14:07:42.901032,-21.0
2023-12-20 14:07:42.908721,-97.0
2023-12-20 14:07:42.916410,-76.0
2023-12-20 14:07:42.924099,-61.0
2023-12-20 14:07:42.931788,-85.0
2023-12-20 14:07:42.939477,-92.0
2023-12-20 14:07:42.947166,-83.0
2023-12-20 14:07:42.954855,-100.0
2023-12-20 14:07:42.962544,-114.0
2023-12-20 14:07:42.970233,-95.0
2023-12-20 14:07:42.977922,-100.0
2023-12-20 14:07:42.985611,-147.0
2023-12-20 14:07:42.993300,-176.0
2023-12-20 14:07:43.000988,-171.0
2023-12-20 14:07:43.008677,-169.0
2023-12-20 14:07:43.016366,-176.0
2023-12-20 14:07:43.024055,-174.0
2023-12-20 14:07:43.031744,-178.0
2023-12-20 14:07:43.039433,-181.0
2023-12-20 14:07:43.047122,-157.0
2023-12-20 14:07:43.054811,-135.0
2023-12-20 14:07:43.062500,-145.0
2023-12-20 14:07:43.070189,-145.0
2023-12-20 14:07:43.077878,-131.0
2023-12-20 14:07:43.085567,-123.0
2023-12-20 14:07:43.093256,-116.0
2023-12-20 14:07:43.100945,-104.0
2023-12-20 14:07:43.108634,-83.0
2023-12-20 14:07:43.116323,-61.0
2023-12-20 14:07:43.124012,-59.0
2023-12-20 14:07:43.131701,-50.0
2023-12-20 14:07:43.139390,-38.0
2023-12-20 14:07:43.147079,-40.0
2023-12-20 14:07:43.154768,-42.0
2023-12-20 14:07:43.162457,-40.0
2023-12-20 14:07:43.170146,-47.0
2023-12-20 14:07:43.177835,-52.0
2023-12-20 14:07:43.185524,-40.0
2023-12-20 14:07:43.193213,-45.0
2023-12-20 14:07:43.200902,-61.0
2023-12-20 14:07:43.208591,-57.0
2023-12-20 14:07:43.216280,-50.0
2023-12-20 14:07:43.223969,-50.0
2023-12-20 14:07:43.231658,-38.0
2023-12-20 14:07:43.239347,-38.0
2023-12-20 14:07:43.247036,-54.0
2023-12-20 14:07:43.254725,-57.0
2023-12-20 14:07:43.262414,-40.0
2023-12-20 14:07:43.270103,-35.0
2023-12-20 14:07:43.277792,-42.0
2023-12-20 14:07:43.285481,-47.0
2023-12-20 14:07:43.293170,-50.0
2023-12-20 14:07:43.300859,-54.0
2023-12-20 14:07:43.308548,-57.0
2023-12-20 14:07:43.316237,-59.0
2023-12-20 14:07:43.323926,-64.0
2023-12-20 14:07:43.331615,-57.0
2023-12-20 14:07:43.339304,-38.0
2023-12-20 14:07:43.346993,-23.0
2023-12-20 14:07:43.354682,-19.0
2023-12-20 14:07:43.362371,-21.0
2023-12-20 14:07:43.370060,-35.0
2023-12-20 14:07:43.377749,-47.0
2023-12-20 14:07:43.385438,-38.0
2023-12-20 14:07:43.393127,-28.0
2023-12-20 14:07:43.400816,-38.0
2023-12-20 14:07:43.408505,-95.0
2023-12-20 14:07:43.416194,-245.0
2023-12-20 14:07:43.423883,-410.0
2023-12-20 14:07:43.431572,-329.0
2023-12-20 14:07:43.439261,23.0
2023-12-20 14:07:43.446950,262.0
2023-12-20 14:07:43.454639,252.0
2023-12-20 14:07:43.462328,209.0
2023-12-20 14:07:43.470017,131.0
2023-12-20 14:07:43.477706,-21.0
2023-12-20 14:07:43.485395,-109.0
2023-12-20 14:07:43.493084,-112.0
2023-12-20 14:07:43.500772,-107.0
2023-12-20 14:07:43.508461,-114.0
2023-12-20 14:07:43.516150,-116.0
2023-12-20 14:07:43.523839,-112.0
2023-12-20 14:07:43.531528,-133.0
2023-12-20 14:07:43.539217,-145.0
2023-12-20 14:07:43.546906,-128.0
2023-12-20 14:07:43.554595,-138.0
2023-12-20 14:07:43.562284,-154.0
2023-12-20 14:07:43.569973,-131.0
2023-12-20 14:07:43.577662,-131.0
2023-12-20 14:07:43.585351,-169.0
2023-12-20 14:07:43.593040,-171.0
2023-12-20 14:07:43.600729,-143.0
2023-12-20 14:07:43.608418,-140.0
2023-12-20 14:07:43.616107,-154.0
2023-12-20 14:07:43.623796,-147.0
2023-12-20 14:07:43.631485,-135.0
2023-12-20 14:07:43.639174,-138.0
2023-12-20 14:07:43.646863,-131.0
2023-12-20 14:07:43.654552,-112.0
2023-12-20 14:07:43.662241,-104.0
2023-12-20 14:07:43.669930,-104.0
2023-12-20 14:07:43.677619,-95.0
2023-12-20 14:07:43.685308,-71.0
2023-12-20 14:07:43.692997,-54.0
2023-12-20 14:07:43.700686,-59.0
2023-12-20 14:07:43.708375,-71.0
2023-12-20 14:07:43.716064,-78.0
2023-12-20 14:07:43.723753,-78.0
2023-12-20 14:07:43.731442,-69.0
2023-12-20 14:07:43.739131,-61.0
2023-12-20 14:07:43.746820,-69.0
2023-12-20 14:07:43.754509,-71.0
2023-12-20 14:07:43.762198,-64.0
2023-12-20 14:07:43.769887,-64.0
2023-12-20 14:07:43.777576,-61.0
2023-12-20 14:07:43.785265,-59.0
2023-12-20 14:07:43.792954,-54.0
2023-12-20 14:07:43.800643,-50.0
2023-12-20 14:07:43.808332,-52.0
2023-12-20 14:07:43.816021,-52.0
2023-12-20 14:07:43.823710,-52.0
2023-12-20 14:07:43.831399,-50.0
2023-12-20 14:07:43.839088,-42.0
2023-12-20 14:07:43.846777,-40.0
2023-12-20 14:07:43.854466,-45.0
2023-12-20 14:07:43.862155,-45.0
2023-12-20 14:07:43.869844,-38.0
2023-12-20 14:07:43.877533,-50.0
2023-12-20 14:07:43.885222,-66.0
2023-12-20 14:07:43.892911,-57.0
2023-12-20 14:07:43.900600,-57.0
2023-12-20 14:07:43.908289,-71.0
2023-12-20 14:07:43.915978,-47.0
2023-12-20 14:07:43.923667,-11.0
2023-12-20 14:07:43.931356,-23.0
2023-12-20 14:07:43.939045,-42.0
2023-12-20 14:07:43.946734,-38.0
2023-12-20 14:07:43.954423,-33.0
2023-12-20 14:07:43.962112,-30.0
2023-12-20 14:07:43.969801,-28.0
2023-12-20 14:07:43.977490,-35.0
2023-12-20 14:07:43.985179,-116.0
2023-12-20 14:07:43.992868,-326.0
2023-12-20 14:07:44.000556,-491.0
2023-12-20 14:07:44.008245,-300.0
2023-12-20 14:07:44.015934,112.0
2023-12-20 14:07:44.023623,295.0
2023-12-20 14:07:44.031312,259.0
2023-12-20 14:07:44.039001,200.0
2023-12-20 14:07:44.046690,83.0
2023-12-20 14:07:44.054379,-35.0
2023-12-20 14:07:44.062068,-64.0
2023-12-20 14:07:44.069757,-78.0
2023-12-20 14:07:44.077446,-121.0
2023-12-20 14:07:44.085135,-121.0
2023-12-20 14:07:44.092824,-100.0
2023-12-20 14:07:44.100513,-112.0
2023-12-20 14:07:44.108202,-116.0
2023-12-20 14:07:44.115891,-109.0
2023-12-20 14:07:44.123580,-109.0
2023-12-20 14:07:44.131269,-104.0
2023-12-20 14:07:44.138958,-102.0
2023-12-20 14:07:44.146647,-112.0
2023-12-20 14:07:44.154336,-114.0
2023-12-20 14:07:44.162025,-116.0
2023-12-20 14:07:44.169714,-128.0
2023-12-20 14:07:44.177403,-135.0
2023-12-20 14:07:44.185092,-147.0
2023-12-20 14:07:44.192781,-154.0
2023-12-20 14:07:44.200470,-152.0
2023-12-20 14:07:44.208159,-147.0
2023-12-20 14:07:44.215848,-133.0
2023-12-20 14:07:44.223537,-116.0
2023-12-20 14:07:44.231226,-114.0
2023-12-20 14:07:44.238915,-109.0
2023-12-20 14:07:44.246604,-95.0
2023-12-20 14:07:44.254293,-76.0
2023-12-20 14:07:44.261982,-66.0
2023-12-20 14:07:44.269671,-57.0
2023-12-20 14:07:44.277360,-40.0
2023-12-20 14:07:44.285049,-33.0
2023-12-20 14:07:44.292738,-35.0
2023-12-20 14:07:44.300427,-40.0
2023-12-20 14:07:44.308116,-40.0
2023-12-20 14:07:44.315805,-38.0
2023-12-20 14:07:44.323494,-40.0
2023-12-20 14:07:44.331183,-38.0
2023-12-20 14:07:44.338872,-42.0
2023-12-20 14:07:44.346561,-52.0
2023-12-20 14:07:44.354250,-40.0
2023-12-20 14:07:44.361939,-33.0
2023-12-20 14:07:44.369628,-40.0
2023-12-20 14:07:44.377317,-30.0
2023-12-20 14:07:44.385006,-23.0
2023-12-20 14:07:44.392695,-38.0
2023-12-20 14:07:44.400384,-42.0
2023-12-20 14:07:44.408073,-28.0
2023-12-20 14:07:44.415762,-21.0
2023-12-20 14:07:44.423451,-21.0
2023-12-20 14:07:44.431140,-30.0
2023-12-20 14:07:44.438829,-50.0
2023-12-20 14:07:44.446518,-54.0
2023-12-20 14:07:44.454207,-50.0
2023-12-20 14:07:44.461896,-45.0
2023-12-20 14:07:44.469585,-50.0
2023-12-20 14:07:44.477274,-54.0
2023-12-20 14:07:44.484963,-42.0
2023-12-20 14:07:44.492652,-16.0
2023-12-20 14:07:44.500341,-11.0
2023-12-20 14:07:44.508029,-16.0
2023-12-20 14:07:44.515718,-9.0
2023-12-20 14:07:44.523407,-16.0
2023-12-20 14:07:44.531096,-30.0
2023-12-20 14:07:44.538785,-26.0
2023-12-20 14:07:44.546474,-14.0
2023-12-20 14:07:44.554163,-61.0
2023-12-20 14:07:44.561852,-224.0
2023-12-20 14:07:44.569541,-419.0
2023-12-20 14:07:44.577230,-362.0
2023-12-20 14:07:44.584919,4.0
2023-12-20 14:07:44.592608,288.0
2023-12-20 14:07:44.600297,283.0
2023-12-20 14:07:44.607986,190.0
2023-12-20 14:07:44.615675,73.0
2023-12-20 14:07:44.623364,-57.0
2023-12-20 14:07:44.631053,-97.0
2023-12-20 14:07:44.638742,-78.0
2023-12-20 14:07:44.646431,-85.0
2023-12-20 14:07:44.654120,-119.0
2023-12-20 14:07:44.661809,-143.0
2023-12-20 14:07:44.669498,-138.0
2023-12-20 14:07:44.677187,-135.0
2023-12-20 14:07:44.684876,-147.0
2023-12-20 14:07:44.692565,-145.0
2023-12-20 14:07:44.700254,-143.0
2023-12-20 14:07:44.707943,-166.0
2023-12-20 14:07:44.715632,-166.0
2023-12-20 14:07:44.723321,-133.0
2023-12-20 14:07:44.731010,-133.0
2023-12-20 14:07:44.738699,-162.0
2023-12-20 14:07:44.746388,-166.0
2023-12-20 14:07:44.754077,-157.0
2023-12-20 14:07:44.761766,-154.0
2023-12-20 14:07:44.769455,-150.0
2023-12-20 14:07:44.777144,-143.0
2023-12-20 14:07:44.784833,-143.0
2023-12-20 14:07:44.792522,-143.0
2023-12-20 14:07:44.800211,-126.0
2023-12-20 14:07:44.807900,-95.0
2023-12-20 14:07:44.815589,-81.0
2023-12-20 14:07:44.823278,-71.0
2023-12-20 14:07:44.830967,-54.0
2023-12-20 14:07:44.838656,-50.0
2023-12-20 14:07:44.846345,-50.0
2023-12-20 14:07:44.854034,-30.0
2023-12-20 14:07:44.861723,-26.0
2023-12-20 14:07:44.869412,-35.0
2023-12-20 14:07:44.877101,-33.0
2023-12-20 14:07:44.884790,-26.0
2023-12-20 14:07:44.892479,-28.0
2023-12-20 14:07:44.900168,-26.0
2023-12-20 14:07:44.907857,-26.0
2023-12-20 14:07:44.915546,-35.0
2023-12-20 14:07:44.923235,-50.0
2023-12-20 14:07:44.930924,-52.0
2023-12-20 14:07:44.938613,-38.0
2023-12-20 14:07:44.946302,-30.0
2023-12-20 14:07:44.953991,-23.0
2023-12-20 14:07:44.961680,-16.0
2023-12-20 14:07:44.969369,-28.0
2023-12-20 14:07:44.977058,-40.0
2023-12-20 14:07:44.984747,-30.0
2023-12-20 14:07:44.992436,-19.0
2023-12-20 14:07:45.000125,-14.0
2023-12-20 14:07:45.007813,-26.0
2023-12-20 14:07:45.015502,-30.0
2023-12-20 14:07:45.023191,-28.0
2023-12-20 14:07:45.030880,-40.0
2023-12-20 14:07:45.038569,-47.0
2023-12-20 14:07:45.046258,-33.0
2023-12-20 14:07:45.053947,-33.0
2023-12-20 14:07:45.061636,-45.0
2023-12-20 14:07:45.069325,-28.0
2023-12-20 14:07:45.077014,2.0
2023-12-20 14:07:45.084703,2.0
2023-12-20 14:07:45.092392,-7.0
2023-12-20 14:07:45.100081,-9.0
2023-12-20 14:07:45.107770,-14.0
2023-12-20 14:07:45.115459,-19.0
2023-12-20 14:07:45.123148,-11.0
2023-12-20 14:07:45.130837,-23.0
2023-12-20 14:07:45.138526,-126.0
2023-12-20 14:07:45.146215,-333.0
2023-12-20 14:07:45.153904,-422.0
2023-12-20 14:07:45.161593,-157.0
2023-12-20 14:07:45.169282,195.0
2023-12-20 14:07:45.176971,276.0
2023-12-20 14:07:45.184660,197.0
2023-12-20 14:07:45.192349,114.0
2023-12-20 14:07:45.200038,2.0
2023-12-20 14:07:45.207727,-95.0
2023-12-20 14:07:45.215416,-123.0
2023-12-20 14:07:45.223105,-107.0
2023-12-20 14:07:45.230794,-100.0
2023-12-20 14:07:45.238483,-104.0
2023-12-20 14:07:45.246172,-109.0
2023-12-20 14:07:45.253861,-104.0
2023-12-20 14:07:45.261550,-100.0
2023-12-20 14:07:45.269239,-104.0
2023-12-20 14:07:45.276928,-102.0
2023-12-20 14:07:45.284617,-97.0
2023-12-20 14:07:45.292306,-114.0
2023-12-20 14:07:45.299995,-126.0
2023-12-20 14:07:45.307684,-112.0
2023-12-20 14:07:45.315373,-102.0
2023-12-20 14:07:45.323062,-114.0
2023-12-20 14:07:45.330751,-123.0
2023-12-20 14:07:45.338440,-123.0
2023-12-20 14:07:45.346129,-128.0
2023-12-20 14:07:45.353818,-119.0
2023-12-20 14:07:45.361507,-95.0
2023-12-20 14:07:45.369196,-90.0
2023-12-20 14:07:45.376885,-100.0
2023-12-20 14:07:45.384574,-100.0
2023-12-20 14:07:45.392263,-88.0
2023-12-20 14:07:45.399952,-73.0
2023-12-20 14:07:45.407641,-50.0
2023-12-20 14:07:45.415330,-35.0
2023-12-20 14:07:45.423019,-45.0
2023-12-20 14:07:45.430708,-50.0
2023-12-20 14:07:45.438397,-40.0
2023-12-20 14:07:45.446086,-26.0
2023-12-20 14:07:45.453775,-14.0
2023-12-20 14:07:45.461464,-19.0
2023-12-20 14:07:45.469153,-23.0
2023-12-20 14:07:45.476842,-28.0
2023-12-20 14:07:45.484531,-35.0
2023-12-20 14:07:45.492220,-38.0
2023-12-20 14:07:45.499909,-33.0
2023-12-20 14:07:45.507598,-30.0
2023-12-20 14:07:45.515286,-35.0
2023-12-20 14:07:45.522975,-30.0
2023-12-20 14:07:45.530664,-21.0
2023-12-20 14:07:45.538353,-21.0
2023-12-20 14:07:45.546042,-26.0
2023-12-20 14:07:45.553731,-23.0
2023-12-20 14:07:45.561420,-26.0
2023-12-20 14:07:45.569109,-23.0
2023-12-20 14:07:45.576798,-14.0
2023-12-20 14:07:45.584487,-11.0
2023-12-20 14:07:45.592176,-19.0
2023-12-20 14:07:45.599865,-23.0
2023-12-20 14:07:45.607554,-42.0
2023-12-20 14:07:45.615243,-52.0
2023-12-20 14:07:45.622932,-47.0
2023-12-20 14:07:45.630621,-42.0
2023-12-20 14:07:45.638310,-35.0
2023-12-20 14:07:45.645999,-23.0
2023-12-20 14:07:45.653688,-16.0
2023-12-20 14:07:45.661377,-23.0
2023-12-20 14:07:45.669066,-26.0
2023-12-20 14:07:45.676755,-16.0
2023-12-20 14:07:45.684444,-11.0
2023-12-20 14:07:45.692133,-14.0
2023-12-20 14:07:45.699822,-23.0
2023-12-20 14:07:45.707511,-42.0
2023-12-20 14:07:45.715200,-112.0
2023-12-20 14:07:45.722889,-271.0
2023-12-20 14:07:45.730578,-417.0
2023-12-20 14:07:45.738267,-302.0
2023-12-20 14:07:45.745956,40.0
2023-12-20 14:07:45.753645,245.0
2023-12-20 14:07:45.761334,207.0
2023-12-20 14:07:45.769023,126.0
2023-12-20 14:07:45.776712,35.0
2023-12-20 14:07:45.784401,-78.0
2023-12-20 14:07:45.792090,-126.0
2023-12-20 14:07:45.799779,-102.0
2023-12-20 14:07:45.807468,-97.0
2023-12-20 14:07:45.815157,-109.0
2023-12-20 14:07:45.822846,-102.0
2023-12-20 14:07:45.830535,-109.0
2023-12-20 14:07:45.838224,-119.0
2023-12-20 14:07:45.845913,-114.0
2023-12-20 14:07:45.853602,-114.0
2023-12-20 14:07:45.861291,-112.0
2023-12-20 14:07:45.868980,-109.0
2023-12-20 14:07:45.876669,-114.0
2023-12-20 14:07:45.884358,-119.0
2023-12-20 14:07:45.892047,-119.0
2023-12-20 14:07:45.899736,-112.0
2023-12-20 14:07:45.907425,-123.0
2023-12-20 14:07:45.915114,-147.0
2023-12-20 14:07:45.922803,-152.0
2023-12-20 14:07:45.930492,-147.0
2023-12-20 14:07:45.938181,-150.0
2023-12-20 14:07:45.945870,-138.0
2023-12-20 14:07:45.953559,-123.0
2023-12-20 14:07:45.961248,-119.0
2023-12-20 14:07:45.968937,-112.0
2023-12-20 14:07:45.976626,-95.0
2023-12-20 14:07:45.984315,-81.0
2023-12-20 14:07:45.992004,-66.0
2023-12-20 14:07:45.999693,-50.0
2023-12-20 14:07:46.007382,-40.0
2023-12-20 14:07:46.015070,-38.0
2023-12-20 14:07:46.022759,-35.0
2023-12-20 14:07:46.030448,-35.0
2023-12-20 14:07:46.038137,-40.0
2023-12-20 14:07:46.045826,-47.0
2023-12-20 14:07:46.053515,-54.0
2023-12-20 14:07:46.061204,-50.0
2023-12-20 14:07:46.068893,-33.0
2023-12-20 14:07:46.076582,-38.0
2023-12-20 14:07:46.084271,-50.0
2023-12-20 14:07:46.091960,-50.0
2023-12-20 14:07:46.099649,-45.0
2023-12-20 14:07:46.107338,-40.0
2023-12-20 14:07:46.115027,-33.0
2023-12-20 14:07:46.122716,-28.0
2023-12-20 14:07:46.130405,-38.0
2023-12-20 14:07:46.138094,-42.0
2023-12-20 14:07:46.145783,-50.0
2023-12-20 14:07:46.153472,-59.0
2023-12-20 14:07:46.161161,-64.0
2023-12-20 14:07:46.168850,-54.0
2023-12-20 14:07:46.176539,-50.0
2023-12-20 14:07:46.184228,-64.0
2023-12-20 14:07:46.191917,-73.0
2023-12-20 14:07:46.199606,-69.0
2023-12-20 14:07:46.207295,-73.0
2023-12-20 14:07:46.214984,-78.0
2023-12-20 14:07:46.222673,-78.0
2023-12-20 14:07:46.230362,-76.0
2023-12-20 14:07:46.238051,-59.0
2023-12-20 14:07:46.245740,-50.0
2023-12-20 14:07:46.253429,-64.0
2023-12-20 14:07:46.261118,-64.0
2023-12-20 14:07:46.268807,-47.0
2023-12-20 14:07:46.276496,-47.0
2023-12-20 14:07:46.284185,-66.0
2023-12-20 14:07:46.291874,-143.0
2023-12-20 14:07:46.299563,-319.0
2023-12-20 14:07:46.307252,-436.0
2023-12-20 14:07:46.314941,-243.0
2023-12-20 14:07:46.322630,104.0
2023-12-20 14:07:46.330319,236.0
2023-12-20 14:07:46.338008,197.0
2023-12-20 14:07:46.345697,135.0
2023-12-20 14:07:46.353386,23.0
2023-12-20 14:07:46.361075,-85.0
2023-12-20 14:07:46.368764,-116.0
2023-12-20 14:07:46.376453,-112.0
2023-12-20 14:07:46.384142,-121.0
2023-12-20 14:07:46.391831,-126.0
2023-12-20 14:07:46.399520,-123.0
2023-12-20 14:07:46.407209,-128.0
2023-12-20 14:07:46.414898,-140.0
2023-12-20 14:07:46.422587,-143.0
2023-12-20 14:07:46.430276,-135.0
2023-12-20 14:07:46.437965,-133.0
2023-12-20 14:07:46.445654,-140.0
2023-12-20 14:07:46.453343,-147.0
2023-12-20 14:07:46.461032,-138.0
2023-12-20 14:07:46.468721,-128.0
2023-12-20 14:07:46.476410,-126.0
2023-12-20 14:07:46.484099,-119.0
2023-12-20 14:07:46.491788,-121.0
2023-12-20 14:07:46.499477,-128.0
2023-12-20 14:07:46.507166,-128.0
2023-12-20 14:07:46.514854,-131.0
2023-12-20 14:07:46.522543,-133.0
2023-12-20 14:07:46.530232,-126.0
2023-12-20 14:07:46.537921,-126.0
2023-12-20 14:07:46.545610,-131.0
2023-12-20 14:07:46.553299,-104.0
2023-12-20 14:07:46.560988,-66.0
2023-12-20 14:07:46.568677,-52.0
2023-12-20 14:07:46.576366,-42.0
2023-12-20 14:07:46.584055,-38.0
2023-12-20 14:07:46.591744,-54.0
2023-12-20 14:07:46.599433,-54.0
2023-12-20 14:07:46.607122,-45.0
2023-12-20 14:07:46.614811,-57.0
2023-12-20 14:07:46.622500,-57.0
2023-12-20 14:07:46.630189,-45.0
2023-12-20 14:07:46.637878,-47.0
2023-12-20 14:07:46.645567,-59.0
2023-12-20 14:07:46.653256,-61.0
2023-12-20 14:07:46.660945,-57.0
2023-12-20 14:07:46.668634,-59.0
2023-12-20 14:07:46.676323,-64.0
2023-12-20 14:07:46.684012,-59.0
2023-12-20 14:07:46.691701,-52.0
2023-12-20 14:07:46.699390,-57.0
2023-12-20 14:07:46.707079,-54.0
2023-12-20 14:07:46.714768,-40.0
2023-12-20 14:07:46.722457,-42.0
2023-12-20 14:07:46.730146,-66.0
2023-12-20 14:07:46.737835,-64.0
2023-12-20 14:07:46.745524,-57.0
2023-12-20 14:07:46.753213,-66.0
2023-12-20 14:07:46.760902,-69.0
2023-12-20 14:07:46.768591,-78.0
2023-12-20 14:07:46.776280,-90.0
2023-12-20 14:07:46.783969,-78.0
2023-12-20 14:07:46.791658,-61.0
2023-12-20 14:07:46.799347,-42.0
2023-12-20 14:07:46.807036,-28.0
2023-12-20 14:07:46.814725,-33.0
2023-12-20 14:07:46.822414,-38.0
2023-12-20 14:07:46.830103,-30.0
2023-12-20 14:07:46.837792,-30.0
2023-12-20 14:07:46.845481,-30.0
2023-12-20 14:07:46.853170,-30.0
2023-12-20 14:07:46.860859,-114.0
2023-12-20 14:07:46.868548,-312.0
2023-12-20 14:07:46.876237,-481.0
2023-12-20 14:07:46.883926,-379.0
2023-12-20 14:07:46.891615,-2.0
2023-12-20 14:07:46.899304,255.0
2023-12-20 14:07:46.906993,247.0
2023-12-20 14:07:46.914682,181.0
2023-12-20 14:07:46.922371,85.0
2023-12-20 14:07:46.930060,-50.0
2023-12-20 14:07:46.937749,-104.0
2023-12-20 14:07:46.945438,-85.0
2023-12-20 14:07:46.953127,-90.0
2023-12-20 14:07:46.960816,-102.0
2023-12-20 14:07:46.968505,-97.0
2023-12-20 14:07:46.976194,-100.0
2023-12-20 14:07:46.983883,-92.0
2023-12-20 14:07:46.991572,-83.0
2023-12-20 14:07:46.999261,-97.0
2023-12-20 14:07:47.006950,-107.0
2023-12-20 14:07:47.014639,-92.0
2023-12-20 14:07:47.022327,-92.0
2023-12-20 14:07:47.030016,-104.0
2023-12-20 14:07:47.037705,-109.0
2023-12-20 14:07:47.045394,-109.0
2023-12-20 14:07:47.053083,-102.0
2023-12-20 14:07:47.060772,-92.0
2023-12-20 14:07:47.068461,-88.0
2023-12-20 14:07:47.076150,-92.0
2023-12-20 14:07:47.083839,-100.0
2023-12-20 14:07:47.091528,-95.0
2023-12-20 14:07:47.099217,-78.0
2023-12-20 14:07:47.106906,-78.0
2023-12-20 14:07:47.114595,-83.0
2023-12-20 14:07:47.122284,-64.0
2023-12-20 14:07:47.129973,-54.0
2023-12-20 14:07:47.137662,-59.0
2023-12-20 14:07:47.145351,-50.0
2023-12-20 14:07:47.153040,-35.0
2023-12-20 14:07:47.160729,-23.0
2023-12-20 14:07:47.168418,-14.0
2023-12-20 14:07:47.176107,-26.0
2023-12-20 14:07:47.183796,-38.0
2023-12-20 14:07:47.191485,-33.0
2023-12-20 14:07:47.199174,-28.0
2023-12-20 14:07:47.206863,-33.0
2023-12-20 14:07:47.214552,-26.0
2023-12-20 14:07:47.222241,-19.0
2023-12-20 14:07:47.229930,-38.0
2023-12-20 14:07:47.237619,-59.0
2023-12-20 14:07:47.245308,-47.0
2023-12-20 14:07:47.252997,-33.0
2023-12-20 14:07:47.260686,-38.0
2023-12-20 14:07:47.268375,-45.0
2023-12-20 14:07:47.276064,-42.0
2023-12-20 14:07:47.283753,-35.0
2023-12-20 14:07:47.291442,-30.0
2023-12-20 14:07:47.299131,-21.0
2023-12-20 14:07:47.306820,-19.0
2023-12-20 14:07:47.314509,-38.0
2023-12-20 14:07:47.322198,-47.0
2023-12-20 14:07:47.329887,-45.0
2023-12-20 14:07:47.337576,-50.0
2023-12-20 14:07:47.345265,-54.0
2023-12-20 14:07:47.352954,-45.0
2023-12-20 14:07:47.360643,-30.0
2023-12-20 14:07:47.368332,-14.0
2023-12-20 14:07:47.376021,-2.0
2023-12-20 14:07:47.383710,-16.0
2023-12-20 14:07:47.391399,-38.0
2023-12-20 14:07:47.399088,-38.0
2023-12-20 14:07:47.406777,-35.0
2023-12-20 14:07:47.414466,-30.0
2023-12-20 14:07:47.422155,-14.0
2023-12-20 14:07:47.429844,-47.0
2023-12-20 14:07:47.437533,-207.0
2023-12-20 14:07:47.445222,-405.0
2023-12-20 14:07:47.452911,-369.0
2023-12-20 14:07:47.460600,-26.0
2023-12-20 14:07:47.468289,274.0
2023-12-20 14:07:47.475978,298.0
2023-12-20 14:07:47.483667,200.0
2023-12-20 14:07:47.491356,85.0
2023-12-20 14:07:47.499045,-38.0
2023-12-20 14:07:47.506734,-102.0
2023-12-20 14:07:47.514423,-90.0
2023-12-20 14:07:47.522111,-76.0
2023-12-20 14:07:47.529800,-85.0
2023-12-20 14:07:47.537489,-95.0
2023-12-20 14:07:47.545178,-97.0
2023-12-20 14:07:47.552867,-97.0
2023-12-20 14:07:47.560556,-92.0
2023-12-20 14:07:47.568245,-90.0
2023-12-20 14:07:47.575934,-95.0
2023-12-20 14:07:47.583623,-92.0
2023-12-20 14:07:47.591312,-88.0
2023-12-20 14:07:47.599001,-95.0
2023-12-20 14:07:47.606690,-104.0
2023-12-20 14:07:47.614379,-102.0
2023-12-20 14:07:47.622068,-92.0
2023-12-20 14:07:47.629757,-95.0
2023-12-20 14:07:47.637446,-104.0
2023-12-20 14:07:47.645135,-102.0
2023-12-20 14:07:47.652824,-100.0
2023-12-20 14:07:47.660513,-104.0
2023-12-20 14:07:47.668202,-112.0
2023-12-20 14:07:47.675891,-107.0
2023-12-20 14:07:47.683580,-88.0
2023-12-20 14:07:47.691269,-73.0
2023-12-20 14:07:47.698958,-59.0
2023-12-20 14:07:47.706647,-38.0
2023-12-20 14:07:47.714336,-30.0
2023-12-20 14:07:47.722025,-28.0
2023-12-20 14:07:47.729714,-33.0
2023-12-20 14:07:47.737403,-54.0
2023-12-20 14:07:47.745092,-59.0
2023-12-20 14:07:47.752781,-40.0
2023-12-20 14:07:47.760470,-38.0
2023-12-20 14:07:47.768159,-50.0
2023-12-20 14:07:47.775848,-50.0
2023-12-20 14:07:47.783537,-42.0
2023-12-20 14:07:47.791226,-33.0
2023-12-20 14:07:47.798915,-38.0
2023-12-20 14:07:47.806604,-50.0
2023-12-20 14:07:47.814293,-42.0
2023-12-20 14:07:47.821982,-28.0
2023-12-20 14:07:47.829671,-30.0
2023-12-20 14:07:47.837360,-33.0
2023-12-20 14:07:47.845049,-33.0
2023-12-20 14:07:47.852738,-26.0
2023-12-20 14:07:47.860427,-11.0
2023-12-20 14:07:47.868116,-11.0
2023-12-20 14:07:47.875805,-35.0
2023-12-20 14:07:47.883494,-54.0
2023-12-20 14:07:47.891183,-42.0
2023-12-20 14:07:47.898872,-38.0
2023-12-20 14:07:47.906561,-50.0
2023-12-20 14:07:47.914250,-61.0
2023-12-20 14:07:47.921939,-52.0
2023-12-20 14:07:47.929628,-33.0
2023-12-20 14:07:47.937317,-42.0
2023-12-20 14:07:47.945006,-50.0
2023-12-20 14:07:47.952695,-21.0
2023-12-20 14:07:47.960384,-4.0
2023-12-20 14:07:47.968073,-16.0
2023-12-20 14:07:47.975762,-19.0
2023-12-20 14:07:47.983451,-30.0
2023-12-20 14:07:47.991140,-57.0
2023-12-20 14:07:47.998829,-45.0
2023-12-20 14:07:48.006518,-50.0
2023-12-20 14:07:48.014207,-154.0
2023-12-20 14:07:48.021895,-333.0
2023-12-20 14:07:48.029584,-388.0
2023-12-20 14:07:48.037273,-133.0
2023-12-20 14:07:48.044962,209.0
2023-12-20 14:07:48.052651,298.0
2023-12-20 14:07:48.060340,214.0
2023-12-20 14:07:48.068029,131.0
2023-12-20 14:07:48.075718,23.0
2023-12-20 14:07:48.083407,-69.0
2023-12-20 14:07:48.091096,-78.0
2023-12-20 14:07:48.098785,-61.0
2023-12-20 14:07:48.106474,-76.0
2023-12-20 14:07:48.114163,-81.0
2023-12-20 14:07:48.121852,-69.0
2023-12-20 14:07:48.129541,-81.0
2023-12-20 14:07:48.137230,-90.0
2023-12-20 14:07:48.144919,-83.0
2023-12-20 14:07:48.152608,-83.0
2023-12-20 14:07:48.160297,-85.0
2023-12-20 14:07:48.167986,-90.0
2023-12-20 14:07:48.175675,-97.0
2023-12-20 14:07:48.183364,-90.0
2023-12-20 14:07:48.191053,-81.0
2023-12-20 14:07:48.198742,-88.0
2023-12-20 14:07:48.206431,-88.0
2023-12-20 14:07:48.214120,-88.0
2023-12-20 14:07:48.221809,-97.0
2023-12-20 14:07:48.229498,-95.0
2023-12-20 14:07:48.237187,-112.0
2023-12-20 14:07:48.244876,-128.0
2023-12-20 14:07:48.252565,-102.0
2023-12-20 14:07:48.260254,-85.0
2023-12-20 14:07:48.267943,-92.0
2023-12-20 14:07:48.275632,-78.0
2023-12-20 14:07:48.283321,-54.0
2023-12-20 14:07:48.291010,-52.0
2023-12-20 14:07:48.298699,-45.0
2023-12-20 14:07:48.306388,-16.0
2023-12-20 14:07:48.314077,-4.0
2023-12-20 14:07:48.321766,-11.0
2023-12-20 14:07:48.329455,-23.0
2023-12-20 14:07:48.337144,-30.0
2023-12-20 14:07:48.344833,-38.0
2023-12-20 14:07:48.352522,-38.0
2023-12-20 14:07:48.360211,-28.0
2023-12-20 14:07:48.367900,-28.0
2023-12-20 14:07:48.375589,-47.0
2023-12-20 14:07:48.383278,-61.0
2023-12-20 14:07:48.390967,-42.0
2023-12-20 14:07:48.398656,-16.0
2023-12-20 14:07:48.406345,-21.0
2023-12-20 14:07:48.414034,-30.0
2023-12-20 14:07:48.421723,-30.0
2023-12-20 14:07:48.429412,-35.0
2023-12-20 14:07:48.437101,-40.0
2023-12-20 14:07:48.444790,-28.0
2023-12-20 14:07:48.452479,-26.0
2023-12-20 14:07:48.460168,-30.0
2023-12-20 14:07:48.467857,-28.0
2023-12-20 14:07:48.475546,-23.0
2023-12-20 14:07:48.483235,-30.0
2023-12-20 14:07:48.490924,-38.0
2023-12-20 14:07:48.498613,-42.0
2023-12-20 14:07:48.506302,-45.0
2023-12-20 14:07:48.513991,-47.0
2023-12-20 14:07:48.521680,-50.0
2023-12-20 14:07:48.529368,-59.0
2023-12-20 14:07:48.537057,-54.0
2023-12-20 14:07:48.544746,-33.0
2023-12-20 14:07:48.552435,-23.0
2023-12-20 14:07:48.560124,-26.0
2023-12-20 14:07:48.567813,-38.0
2023-12-20 14:07:48.575502,-45.0
2023-12-20 14:07:48.583191,-21.0
2023-12-20 14:07:48.590880,-38.0
2023-12-20 14:07:48.598569,-181.0
2023-12-20 14:07:48.606258,-367.0
2023-12-20 14:07:48.613947,-333.0
2023-12-20 14:07:48.621636,-23.0
2023-12-20 14:07:48.629325,243.0
2023-12-20 14:07:48.637014,271.0
2023-12-20 14:07:48.644703,205.0
2023-12-20 14:07:48.652392,109.0
2023-12-20 14:07:48.660081,-19.0
2023-12-20 14:07:48.667770,-73.0
2023-12-20 14:07:48.675459,-54.0
2023-12-20 14:07:48.683148,-69.0
2023-12-20 14:07:48.690837,-107.0
2023-12-20 14:07:48.698526,-107.0
2023-12-20 14:07:48.706215,-95.0
2023-12-20 14:07:48.713904,-95.0
2023-12-20 14:07:48.721593,-85.0
2023-12-20 14:07:48.729282,-71.0
2023-12-20 14:07:48.736971,-92.0
2023-12-20 14:07:48.744660,-119.0
2023-12-20 14:07:48.752349,-112.0
2023-12-20 14:07:48.760038,-112.0
2023-12-20 14:07:48.767727,-128.0
2023-12-20 14:07:48.775416,-135.0
2023-12-20 14:07:48.783105,-126.0
2023-12-20 14:07:48.790794,-114.0
2023-12-20 14:07:48.798483,-109.0
2023-12-20 14:07:48.806172,-109.0
2023-12-20 14:07:48.813861,-114.0
2023-12-20 14:07:48.821550,-114.0
2023-12-20 14:07:48.829239,-109.0
2023-12-20 14:07:48.836928,-107.0
2023-12-20 14:07:48.844617,-107.0
2023-12-20 14:07:48.852306,-100.0
2023-12-20 14:07:48.859995,-90.0
2023-12-20 14:07:48.867684,-81.0
2023-12-20 14:07:48.875373,-66.0
2023-12-20 14:07:48.883062,-47.0
2023-12-20 14:07:48.890751,-42.0
2023-12-20 14:07:48.898440,-33.0
2023-12-20 14:07:48.906129,-30.0
2023-12-20 14:07:48.913818,-35.0
2023-12-20 14:07:48.921507,-28.0
2023-12-20 14:07:48.929196,-33.0
2023-12-20 14:07:48.936885,-57.0
2023-12-20 14:07:48.944574,-69.0
2023-12-20 14:07:48.952263,-52.0
2023-12-20 14:07:48.959952,-42.0
2023-12-20 14:07:48.967641,-42.0
2023-12-20 14:07:48.975330,-42.0
2023-12-20 14:07:48.983019,-47.0
2023-12-20 14:07:48.990708,-45.0
2023-12-20 14:07:48.998397,-40.0
2023-12-20 14:07:49.006086,-42.0
2023-12-20 14:07:49.013775,-42.0
2023-12-20 14:07:49.021464,-35.0
2023-12-20 14:07:49.029152,-40.0
2023-12-20 14:07:49.036841,-40.0
2023-12-20 14:07:49.044530,-26.0
2023-12-20 14:07:49.052219,-26.0
2023-12-20 14:07:49.059908,-52.0
2023-12-20 14:07:49.067597,-69.0
2023-12-20 14:07:49.075286,-71.0
2023-12-20 14:07:49.082975,-71.0
2023-12-20 14:07:49.090664,-64.0
2023-12-20 14:07:49.098353,-42.0
2023-12-20 14:07:49.106042,-33.0
2023-12-20 14:07:49.113731,-54.0
2023-12-20 14:07:49.121420,-54.0
2023-12-20 14:07:49.129109,-23.0
2023-12-20 14:07:49.136798,-19.0
2023-12-20 14:07:49.144487,-28.0
2023-12-20 14:07:49.152176,-33.0
2023-12-20 14:07:49.159865,-64.0
2023-12-20 14:07:49.167554,-123.0
2023-12-20 14:07:49.175243,-233.0
2023-12-20 14:07:49.182932,-391.0
2023-12-20 14:07:49.190621,-355.0
2023-12-20 14:07:49.198310,-19.0
2023-12-20 14:07:49.205999,240.0
2023-12-20 14:07:49.213688,238.0
2023-12-20 14:07:49.221377,185.0
2023-12-20 14:07:49.229066,107.0
2023-12-20 14:07:49.236755,-38.0
2023-12-20 14:07:49.244444,-133.0
2023-12-20 14:07:49.252133,-135.0
2023-12-20 14:07:49.259822,-107.0
2023-12-20 14:07:49.267511,-107.0
2023-12-20 14:07:49.275200,-128.0
2023-12-20 14:07:49.282889,-131.0
2023-12-20 14:07:49.290578,-114.0
2023-12-20 14:07:49.298267,-107.0
2023-12-20 14:07:49.305956,-112.0
2023-12-20 14:07:49.313645,-121.0
2023-12-20 14:07:49.321334,-123.0
2023-12-20 14:07:49.329023,-116.0
2023-12-20 14:07:49.336712,-121.0
2023-12-20 14:07:49.344401,-138.0
2023-12-20 14:07:49.352090,-145.0
2023-12-20 14:07:49.359779,-140.0
