time,ECG
2023-07-31 14:06:35.605092,-19.0
2023-07-31 14:06:35.612782,-2.0
2023-07-31 14:06:35.620471,11.0
2023-07-31 14:06:35.628160,14.0
2023-07-31 14:06:35.635850,19.0
2023-07-31 14:06:35.643539,40.0
2023-07-31 14:06:35.651228,64.0
2023-07-31 14:06:35.658918,74.0
2023-07-31 14:06:35.666607,90.0
2023-07-31 14:06:35.674296,112.0
2023-07-31 14:06:35.681986,114.0
2023-07-31 14:06:35.689675,114.0
2023-07-31 14:06:35.697364,119.0
2023-07-31 14:06:35.705054,114.0
2023-07-31 14:06:35.712743,105.0
2023-07-31 14:06:35.720432,81.0
2023-07-31 14:06:35.728122,38.0
2023-07-31 14:06:35.735811,-19.0
2023-07-31 14:06:35.743500,-74.0
2023-07-31 14:06:35.751190,-117.0
2023-07-31 14:06:35.758879,-148.0
2023-07-31 14:06:35.766569,-174.0
2023-07-31 14:06:35.774258,-191.0
2023-07-31 14:06:35.781947,-191.0
2023-07-31 14:06:35.789637,-189.0
2023-07-31 14:06:35.797326,-186.0
2023-07-31 14:06:35.805015,-186.0
2023-07-31 14:06:35.812705,-179.0
2023-07-31 14:06:35.820394,-165.0
2023-07-31 14:06:35.828083,-160.0
2023-07-31 14:06:35.835773,-155.0
2023-07-31 14:06:35.843462,-148.0
2023-07-31 14:06:35.851151,-143.0
2023-07-31 14:06:35.858841,-138.0
2023-07-31 14:06:35.866530,-131.0
2023-07-31 14:06:35.874219,-124.0
2023-07-31 14:06:35.881909,-119.0
2023-07-31 14:06:35.889598,-117.0
2023-07-31 14:06:35.897287,-114.0
2023-07-31 14:06:35.904977,-114.0
2023-07-31 14:06:35.912666,-117.0
2023-07-31 14:06:35.920355,-117.0
2023-07-31 14:06:35.928045,-114.0
2023-07-31 14:06:35.935734,-112.0
2023-07-31 14:06:35.943423,-114.0
2023-07-31 14:06:35.951113,-112.0
2023-07-31 14:06:35.958802,-112.0
2023-07-31 14:06:35.966491,-117.0
2023-07-31 14:06:35.974181,-114.0
2023-07-31 14:06:35.981870,-107.0
2023-07-31 14:06:35.989559,-107.0
2023-07-31 14:06:35.997249,-112.0
2023-07-31 14:06:36.004938,-114.0
2023-07-31 14:06:36.012627,-112.0
2023-07-31 14:06:36.020317,-107.0
2023-07-31 14:06:36.028006,-100.0
2023-07-31 14:06:36.035695,-93.0
2023-07-31 14:06:36.043385,-76.0
2023-07-31 14:06:36.051074,-62.0
2023-07-31 14:06:36.058763,-66.0
2023-07-31 14:06:36.066453,-81.0
2023-07-31 14:06:36.074142,-95.0
2023-07-31 14:06:36.081831,-100.0
2023-07-31 14:06:36.089521,-98.0
2023-07-31 14:06:36.097210,-100.0
2023-07-31 14:06:36.104899,-100.0
2023-07-31 14:06:36.112589,-98.0
2023-07-31 14:06:36.120278,-95.0
2023-07-31 14:06:36.127967,-95.0
2023-07-31 14:06:36.135657,-95.0
2023-07-31 14:06:36.143346,-90.0
2023-07-31 14:06:36.151035,-86.0
2023-07-31 14:06:36.158725,-83.0
2023-07-31 14:06:36.166414,-100.0
2023-07-31 14:06:36.174103,-78.0
2023-07-31 14:06:36.181793,193.0
2023-07-31 14:06:36.189482,734.0
2023-07-31 14:06:36.197171,1055.0
2023-07-31 14:06:36.204861,538.0
2023-07-31 14:06:36.212550,-361.0
2023-07-31 14:06:36.220239,-466.0
2023-07-31 14:06:36.227929,-83.0
2023-07-31 14:06:36.235618,-110.0
2023-07-31 14:06:36.243307,-215.0
2023-07-31 14:06:36.250997,-119.0
2023-07-31 14:06:36.258686,-102.0
2023-07-31 14:06:36.266375,-145.0
2023-07-31 14:06:36.274065,-114.0
2023-07-31 14:06:36.281754,-88.0
2023-07-31 14:06:36.289443,-100.0
2023-07-31 14:06:36.297133,-98.0
2023-07-31 14:06:36.304822,-81.0
2023-07-31 14:06:36.312511,-76.0
2023-07-31 14:06:36.320201,-71.0
2023-07-31 14:06:36.327890,-64.0
2023-07-31 14:06:36.335579,-52.0
2023-07-31 14:06:36.343269,-45.0
2023-07-31 14:06:36.350958,-35.0
2023-07-31 14:06:36.358647,-26.0
2023-07-31 14:06:36.366337,-16.0
2023-07-31 14:06:36.374026,-4.0
2023-07-31 14:06:36.381715,9.0
2023-07-31 14:06:36.389405,23.0
2023-07-31 14:06:36.397094,35.0
2023-07-31 14:06:36.404783,55.0
2023-07-31 14:06:36.412473,71.0
2023-07-31 14:06:36.420162,86.0
2023-07-31 14:06:36.427851,98.0
2023-07-31 14:06:36.435541,112.0
2023-07-31 14:06:36.443230,119.0
2023-07-31 14:06:36.450919,122.0
2023-07-31 14:06:36.458609,119.0
2023-07-31 14:06:36.466298,112.0
2023-07-31 14:06:36.473987,98.0
2023-07-31 14:06:36.481677,66.0
2023-07-31 14:06:36.489366,19.0
2023-07-31 14:06:36.497055,-33.0
2023-07-31 14:06:36.504745,-81.0
2023-07-31 14:06:36.512434,-119.0
2023-07-31 14:06:36.520124,-148.0
2023-07-31 14:06:36.527813,-165.0
2023-07-31 14:06:36.535502,-169.0
2023-07-31 14:06:36.543192,-174.0
2023-07-31 14:06:36.550881,-174.0
2023-07-31 14:06:36.558570,-172.0
2023-07-31 14:06:36.566260,-169.0
2023-07-31 14:06:36.573949,-172.0
2023-07-31 14:06:36.581638,-167.0
2023-07-31 14:06:36.589328,-157.0
2023-07-31 14:06:36.597017,-153.0
2023-07-31 14:06:36.604706,-148.0
2023-07-31 14:06:36.612396,-141.0
2023-07-31 14:06:36.620085,-138.0
2023-07-31 14:06:36.627774,-131.0
2023-07-31 14:06:36.635464,-129.0
2023-07-31 14:06:36.643153,-129.0
2023-07-31 14:06:36.650842,-122.0
2023-07-31 14:06:36.658532,-119.0
2023-07-31 14:06:36.666221,-119.0
2023-07-31 14:06:36.673910,-114.0
2023-07-31 14:06:36.681600,-112.0
2023-07-31 14:06:36.689289,-114.0
2023-07-31 14:06:36.696978,-114.0
2023-07-31 14:06:36.704668,-117.0
2023-07-31 14:06:36.712357,-119.0
2023-07-31 14:06:36.720046,-119.0
2023-07-31 14:06:36.727736,-117.0
2023-07-31 14:06:36.735425,-114.0
2023-07-31 14:06:36.743114,-110.0
2023-07-31 14:06:36.750804,-107.0
2023-07-31 14:06:36.758493,-107.0
2023-07-31 14:06:36.766182,-105.0
2023-07-31 14:06:36.773872,-102.0
2023-07-31 14:06:36.781561,-107.0
2023-07-31 14:06:36.789250,-112.0
2023-07-31 14:06:36.796940,-114.0
2023-07-31 14:06:36.804629,-110.0
2023-07-31 14:06:36.812318,-98.0
2023-07-31 14:06:36.820008,-81.0
2023-07-31 14:06:36.827697,-62.0
2023-07-31 14:06:36.835386,-47.0
2023-07-31 14:06:36.843076,-47.0
2023-07-31 14:06:36.850765,-59.0
2023-07-31 14:06:36.858454,-74.0
2023-07-31 14:06:36.866144,-81.0
2023-07-31 14:06:36.873833,-78.0
2023-07-31 14:06:36.881522,-81.0
2023-07-31 14:06:36.889212,-86.0
2023-07-31 14:06:36.896901,-83.0
2023-07-31 14:06:36.904590,-76.0
2023-07-31 14:06:36.912280,-76.0
2023-07-31 14:06:36.919969,-78.0
2023-07-31 14:06:36.927658,-76.0
2023-07-31 14:06:36.935348,-74.0
2023-07-31 14:06:36.943037,-71.0
2023-07-31 14:06:36.950726,-81.0
2023-07-31 14:06:36.958416,-62.0
2023-07-31 14:06:36.966105,165.0
2023-07-31 14:06:36.973794,641.0
2023-07-31 14:06:36.981484,988.0
2023-07-31 14:06:36.989173,622.0
2023-07-31 14:06:36.996862,-236.0
2023-07-31 14:06:37.004552,-476.0
2023-07-31 14:06:37.012241,-112.0
2023-07-31 14:06:37.019930,-59.0
2023-07-31 14:06:37.027620,-186.0
2023-07-31 14:06:37.035309,-119.0
2023-07-31 14:06:37.042998,-78.0
2023-07-31 14:06:37.050688,-119.0
2023-07-31 14:06:37.058377,-107.0
2023-07-31 14:06:37.066066,-81.0
2023-07-31 14:06:37.073756,-86.0
2023-07-31 14:06:37.081445,-83.0
2023-07-31 14:06:37.089134,-69.0
2023-07-31 14:06:37.096824,-62.0
2023-07-31 14:06:37.104513,-59.0
2023-07-31 14:06:37.112202,-57.0
2023-07-31 14:06:37.119892,-50.0
2023-07-31 14:06:37.127581,-40.0
2023-07-31 14:06:37.135270,-31.0
2023-07-31 14:06:37.142960,-23.0
2023-07-31 14:06:37.150649,-19.0
2023-07-31 14:06:37.158338,-11.0
2023-07-31 14:06:37.166028,-2.0
2023-07-31 14:06:37.173717,11.0
2023-07-31 14:06:37.181406,26.0
2023-07-31 14:06:37.189096,40.0
2023-07-31 14:06:37.196785,57.0
2023-07-31 14:06:37.204474,69.0
2023-07-31 14:06:37.212164,81.0
2023-07-31 14:06:37.219853,93.0
2023-07-31 14:06:37.227542,102.0
2023-07-31 14:06:37.235232,105.0
2023-07-31 14:06:37.242921,102.0
2023-07-31 14:06:37.250610,93.0
2023-07-31 14:06:37.258300,86.0
2023-07-31 14:06:37.265989,66.0
2023-07-31 14:06:37.273679,23.0
2023-07-31 14:06:37.281368,-31.0
2023-07-31 14:06:37.289057,-78.0
2023-07-31 14:06:37.296747,-122.0
2023-07-31 14:06:37.304436,-153.0
2023-07-31 14:06:37.312125,-167.0
2023-07-31 14:06:37.319815,-177.0
2023-07-31 14:06:37.327504,-184.0
2023-07-31 14:06:37.335193,-186.0
2023-07-31 14:06:37.342883,-179.0
2023-07-31 14:06:37.350572,-174.0
2023-07-31 14:06:37.358261,-174.0
2023-07-31 14:06:37.365951,-167.0
2023-07-31 14:06:37.373640,-160.0
2023-07-31 14:06:37.381329,-157.0
2023-07-31 14:06:37.389019,-157.0
2023-07-31 14:06:37.396708,-150.0
2023-07-31 14:06:37.404397,-143.0
2023-07-31 14:06:37.412087,-138.0
2023-07-31 14:06:37.419776,-136.0
2023-07-31 14:06:37.427465,-133.0
2023-07-31 14:06:37.435155,-131.0
2023-07-31 14:06:37.442844,-129.0
2023-07-31 14:06:37.450533,-126.0
2023-07-31 14:06:37.458223,-124.0
2023-07-31 14:06:37.465912,-122.0
2023-07-31 14:06:37.473601,-122.0
2023-07-31 14:06:37.481291,-124.0
2023-07-31 14:06:37.488980,-122.0
2023-07-31 14:06:37.496669,-119.0
2023-07-31 14:06:37.504359,-114.0
2023-07-31 14:06:37.512048,-117.0
2023-07-31 14:06:37.519737,-119.0
2023-07-31 14:06:37.527427,-117.0
2023-07-31 14:06:37.535116,-110.0
2023-07-31 14:06:37.542805,-107.0
2023-07-31 14:06:37.550495,-105.0
2023-07-31 14:06:37.558184,-102.0
2023-07-31 14:06:37.565873,-105.0
2023-07-31 14:06:37.573563,-110.0
2023-07-31 14:06:37.581252,-112.0
2023-07-31 14:06:37.588941,-112.0
2023-07-31 14:06:37.596631,-110.0
2023-07-31 14:06:37.604320,-98.0
2023-07-31 14:06:37.612009,-81.0
2023-07-31 14:06:37.619699,-62.0
2023-07-31 14:06:37.627388,-47.0
2023-07-31 14:06:37.635077,-50.0
2023-07-31 14:06:37.642767,-62.0
2023-07-31 14:06:37.650456,-76.0
2023-07-31 14:06:37.658145,-83.0
2023-07-31 14:06:37.665835,-86.0
2023-07-31 14:06:37.673524,-86.0
2023-07-31 14:06:37.681213,-86.0
2023-07-31 14:06:37.688903,-86.0
2023-07-31 14:06:37.696592,-88.0
2023-07-31 14:06:37.704281,-90.0
2023-07-31 14:06:37.711971,-90.0
2023-07-31 14:06:37.719660,-90.0
2023-07-31 14:06:37.727349,-86.0
2023-07-31 14:06:37.735039,-83.0
2023-07-31 14:06:37.742728,-102.0
2023-07-31 14:06:37.750417,-71.0
2023-07-31 14:06:37.758107,196.0
2023-07-31 14:06:37.765796,686.0
2023-07-31 14:06:37.773485,959.0
2023-07-31 14:06:37.781175,476.0
2023-07-31 14:06:37.788864,-361.0
2023-07-31 14:06:37.796553,-464.0
2023-07-31 14:06:37.804243,-98.0
2023-07-31 14:06:37.811932,-102.0
2023-07-31 14:06:37.819621,-200.0
2023-07-31 14:06:37.827311,-122.0
2023-07-31 14:06:37.835000,-107.0
2023-07-31 14:06:37.842689,-150.0
2023-07-31 14:06:37.850379,-122.0
2023-07-31 14:06:37.858068,-98.0
2023-07-31 14:06:37.865757,-107.0
2023-07-31 14:06:37.873447,-102.0
2023-07-31 14:06:37.881136,-93.0
2023-07-31 14:06:37.888825,-95.0
2023-07-31 14:06:37.896515,-86.0
2023-07-31 14:06:37.904204,-74.0
2023-07-31 14:06:37.911893,-69.0
2023-07-31 14:06:37.919583,-62.0
2023-07-31 14:06:37.927272,-47.0
2023-07-31 14:06:37.934961,-40.0
2023-07-31 14:06:37.942651,-35.0
2023-07-31 14:06:37.950340,-26.0
2023-07-31 14:06:37.958029,-9.0
2023-07-31 14:06:37.965719,7.0
2023-07-31 14:06:37.973408,21.0
2023-07-31 14:06:37.981097,38.0
2023-07-31 14:06:37.988787,55.0
2023-07-31 14:06:37.996476,71.0
2023-07-31 14:06:38.004165,88.0
2023-07-31 14:06:38.011855,95.0
2023-07-31 14:06:38.019544,100.0
2023-07-31 14:06:38.027233,102.0
2023-07-31 14:06:38.034923,105.0
2023-07-31 14:06:38.042612,110.0
2023-07-31 14:06:38.050302,107.0
2023-07-31 14:06:38.057991,81.0
2023-07-31 14:06:38.065680,35.0
2023-07-31 14:06:38.073370,-16.0
2023-07-31 14:06:38.081059,-62.0
2023-07-31 14:06:38.088748,-100.0
2023-07-31 14:06:38.096438,-126.0
2023-07-31 14:06:38.104127,-148.0
2023-07-31 14:06:38.111816,-162.0
2023-07-31 14:06:38.119506,-165.0
2023-07-31 14:06:38.127195,-165.0
2023-07-31 14:06:38.134884,-160.0
2023-07-31 14:06:38.142574,-155.0
2023-07-31 14:06:38.150263,-153.0
2023-07-31 14:06:38.157952,-148.0
2023-07-31 14:06:38.165642,-138.0
2023-07-31 14:06:38.173331,-129.0
2023-07-31 14:06:38.181020,-124.0
2023-07-31 14:06:38.188710,-126.0
2023-07-31 14:06:38.196399,-129.0
2023-07-31 14:06:38.204088,-122.0
2023-07-31 14:06:38.211778,-119.0
2023-07-31 14:06:38.219467,-122.0
2023-07-31 14:06:38.227156,-119.0
2023-07-31 14:06:38.234846,-117.0
2023-07-31 14:06:38.242535,-114.0
2023-07-31 14:06:38.250224,-110.0
2023-07-31 14:06:38.257914,-107.0
2023-07-31 14:06:38.265603,-107.0
2023-07-31 14:06:38.273292,-100.0
2023-07-31 14:06:38.280982,-102.0
2023-07-31 14:06:38.288671,-112.0
2023-07-31 14:06:38.296360,-112.0
2023-07-31 14:06:38.304050,-105.0
2023-07-31 14:06:38.311739,-107.0
2023-07-31 14:06:38.319428,-102.0
2023-07-31 14:06:38.327118,-100.0
2023-07-31 14:06:38.334807,-107.0
2023-07-31 14:06:38.342496,-107.0
2023-07-31 14:06:38.350186,-100.0
2023-07-31 14:06:38.357875,-102.0
2023-07-31 14:06:38.365564,-107.0
2023-07-31 14:06:38.373254,-105.0
2023-07-31 14:06:38.380943,-105.0
2023-07-31 14:06:38.388632,-100.0
2023-07-31 14:06:38.396322,-81.0
2023-07-31 14:06:38.404011,-62.0
2023-07-31 14:06:38.411700,-52.0
2023-07-31 14:06:38.419390,-52.0
2023-07-31 14:06:38.427079,-57.0
2023-07-31 14:06:38.434768,-69.0
2023-07-31 14:06:38.442458,-86.0
2023-07-31 14:06:38.450147,-88.0
2023-07-31 14:06:38.457836,-83.0
2023-07-31 14:06:38.465526,-81.0
2023-07-31 14:06:38.473215,-78.0
2023-07-31 14:06:38.480904,-81.0
2023-07-31 14:06:38.488594,-86.0
2023-07-31 14:06:38.496283,-83.0
2023-07-31 14:06:38.503972,-78.0
2023-07-31 14:06:38.511662,-78.0
2023-07-31 14:06:38.519351,-71.0
2023-07-31 14:06:38.527040,-71.0
2023-07-31 14:06:38.534730,-66.0
2023-07-31 14:06:38.542419,136.0
2023-07-31 14:06:38.550108,634.0
2023-07-31 14:06:38.557798,1045.0
2023-07-31 14:06:38.565487,703.0
2023-07-31 14:06:38.573176,-212.0
2023-07-31 14:06:38.580866,-504.0
2023-07-31 14:06:38.588555,-122.0
2023-07-31 14:06:38.596244,-59.0
2023-07-31 14:06:38.603934,-200.0
2023-07-31 14:06:38.611623,-112.0
2023-07-31 14:06:38.619312,-57.0
2023-07-31 14:06:38.627002,-114.0
2023-07-31 14:06:38.634691,-107.0
2023-07-31 14:06:38.642380,-74.0
2023-07-31 14:06:38.650070,-81.0
2023-07-31 14:06:38.657759,-81.0
2023-07-31 14:06:38.665448,-59.0
2023-07-31 14:06:38.673138,-55.0
2023-07-31 14:06:38.680827,-59.0
2023-07-31 14:06:38.688516,-52.0
2023-07-31 14:06:38.696206,-38.0
2023-07-31 14:06:38.703895,-28.0
2023-07-31 14:06:38.711584,-23.0
2023-07-31 14:06:38.719274,-21.0
2023-07-31 14:06:38.726963,-11.0
2023-07-31 14:06:38.734652,-2.0
2023-07-31 14:06:38.742342,7.0
2023-07-31 14:06:38.750031,21.0
2023-07-31 14:06:38.757720,40.0
2023-07-31 14:06:38.765410,52.0
2023-07-31 14:06:38.773099,66.0
2023-07-31 14:06:38.780788,86.0
2023-07-31 14:06:38.788478,95.0
2023-07-31 14:06:38.796167,107.0
2023-07-31 14:06:38.803857,119.0
2023-07-31 14:06:38.811546,122.0
2023-07-31 14:06:38.819235,119.0
2023-07-31 14:06:38.826925,117.0
2023-07-31 14:06:38.834614,105.0
2023-07-31 14:06:38.842303,81.0
2023-07-31 14:06:38.849993,47.0
2023-07-31 14:06:38.857682,-2.0
2023-07-31 14:06:38.865371,-59.0
2023-07-31 14:06:38.873061,-110.0
2023-07-31 14:06:38.880750,-143.0
2023-07-31 14:06:38.888439,-165.0
2023-07-31 14:06:38.896129,-179.0
2023-07-31 14:06:38.903818,-186.0
2023-07-31 14:06:38.911507,-186.0
2023-07-31 14:06:38.919197,-184.0
2023-07-31 14:06:38.926886,-181.0
2023-07-31 14:06:38.934575,-177.0
2023-07-31 14:06:38.942265,-172.0
2023-07-31 14:06:38.949954,-165.0
2023-07-31 14:06:38.957643,-157.0
2023-07-31 14:06:38.965333,-153.0
2023-07-31 14:06:38.973022,-148.0
2023-07-31 14:06:38.980711,-136.0
2023-07-31 14:06:38.988401,-129.0
2023-07-31 14:06:38.996090,-124.0
2023-07-31 14:06:39.003779,-124.0
2023-07-31 14:06:39.011469,-124.0
2023-07-31 14:06:39.019158,-119.0
2023-07-31 14:06:39.026847,-117.0
2023-07-31 14:06:39.034537,-112.0
2023-07-31 14:06:39.042226,-117.0
2023-07-31 14:06:39.049915,-122.0
2023-07-31 14:06:39.057605,-117.0
2023-07-31 14:06:39.065294,-110.0
2023-07-31 14:06:39.072983,-112.0
2023-07-31 14:06:39.080673,-112.0
2023-07-31 14:06:39.088362,-107.0
2023-07-31 14:06:39.096051,-107.0
2023-07-31 14:06:39.103741,-110.0
2023-07-31 14:06:39.111430,-107.0
2023-07-31 14:06:39.119119,-102.0
2023-07-31 14:06:39.126809,-102.0
2023-07-31 14:06:39.134498,-100.0
2023-07-31 14:06:39.142187,-88.0
2023-07-31 14:06:39.149877,-66.0
2023-07-31 14:06:39.157566,-52.0
2023-07-31 14:06:39.165255,-50.0
2023-07-31 14:06:39.172945,-50.0
2023-07-31 14:06:39.180634,-59.0
2023-07-31 14:06:39.188323,-78.0
2023-07-31 14:06:39.196013,-88.0
2023-07-31 14:06:39.203702,-88.0
2023-07-31 14:06:39.211391,-90.0
2023-07-31 14:06:39.219081,-95.0
2023-07-31 14:06:39.226770,-98.0
2023-07-31 14:06:39.234459,-98.0
2023-07-31 14:06:39.242149,-93.0
2023-07-31 14:06:39.249838,-93.0
2023-07-31 14:06:39.257527,-93.0
2023-07-31 14:06:39.265217,-86.0
2023-07-31 14:06:39.272906,-81.0
2023-07-31 14:06:39.280595,-88.0
2023-07-31 14:06:39.288285,-105.0
2023-07-31 14:06:39.295974,-4.0
2023-07-31 14:06:39.303663,409.0
2023-07-31 14:06:39.311353,959.0
2023-07-31 14:06:39.319042,964.0
2023-07-31 14:06:39.326731,131.0
2023-07-31 14:06:39.334421,-528.0
2023-07-31 14:06:39.342110,-279.0
2023-07-31 14:06:39.349799,-28.0
2023-07-31 14:06:39.357489,-179.0
2023-07-31 14:06:39.365178,-186.0
2023-07-31 14:06:39.372867,-93.0
2023-07-31 14:06:39.380557,-124.0
2023-07-31 14:06:39.388246,-138.0
2023-07-31 14:06:39.395935,-100.0
2023-07-31 14:06:39.403625,-102.0
2023-07-31 14:06:39.411314,-112.0
2023-07-31 14:06:39.419003,-100.0
2023-07-31 14:06:39.426693,-88.0
2023-07-31 14:06:39.434382,-83.0
2023-07-31 14:06:39.442071,-76.0
2023-07-31 14:06:39.449761,-74.0
2023-07-31 14:06:39.457450,-74.0
2023-07-31 14:06:39.465139,-62.0
2023-07-31 14:06:39.472829,-47.0
2023-07-31 14:06:39.480518,-38.0
2023-07-31 14:06:39.488207,-31.0
2023-07-31 14:06:39.495897,-19.0
2023-07-31 14:06:39.503586,-11.0
2023-07-31 14:06:39.511275,0.0
2023-07-31 14:06:39.518965,26.0
2023-07-31 14:06:39.526654,43.0
2023-07-31 14:06:39.534343,52.0
2023-07-31 14:06:39.542033,62.0
2023-07-31 14:06:39.549722,71.0
2023-07-31 14:06:39.557412,81.0
2023-07-31 14:06:39.565101,90.0
2023-07-31 14:06:39.572790,95.0
2023-07-31 14:06:39.580480,93.0
2023-07-31 14:06:39.588169,78.0
2023-07-31 14:06:39.595858,57.0
2023-07-31 14:06:39.603548,26.0
2023-07-31 14:06:39.611237,-19.0
2023-07-31 14:06:39.618926,-69.0
2023-07-31 14:06:39.626616,-114.0
2023-07-31 14:06:39.634305,-153.0
2023-07-31 14:06:39.641994,-177.0
2023-07-31 14:06:39.649684,-184.0
2023-07-31 14:06:39.657373,-189.0
2023-07-31 14:06:39.665062,-191.0
2023-07-31 14:06:39.672752,-191.0
2023-07-31 14:06:39.680441,-189.0
2023-07-31 14:06:39.688130,-179.0
2023-07-31 14:06:39.695820,-169.0
2023-07-31 14:06:39.703509,-165.0
2023-07-31 14:06:39.711198,-157.0
2023-07-31 14:06:39.718888,-150.0
2023-07-31 14:06:39.726577,-150.0
2023-07-31 14:06:39.734266,-150.0
2023-07-31 14:06:39.741956,-141.0
2023-07-31 14:06:39.749645,-133.0
2023-07-31 14:06:39.757334,-131.0
2023-07-31 14:06:39.765024,-126.0
2023-07-31 14:06:39.772713,-122.0
2023-07-31 14:06:39.780402,-122.0
2023-07-31 14:06:39.788092,-122.0
2023-07-31 14:06:39.795781,-122.0
2023-07-31 14:06:39.803470,-119.0
2023-07-31 14:06:39.811160,-119.0
2023-07-31 14:06:39.818849,-119.0
2023-07-31 14:06:39.826538,-117.0
2023-07-31 14:06:39.834228,-114.0
2023-07-31 14:06:39.841917,-112.0
2023-07-31 14:06:39.849606,-110.0
2023-07-31 14:06:39.857296,-107.0
2023-07-31 14:06:39.864985,-107.0
2023-07-31 14:06:39.872674,-105.0
2023-07-31 14:06:39.880364,-100.0
2023-07-31 14:06:39.888053,-100.0
2023-07-31 14:06:39.895742,-105.0
2023-07-31 14:06:39.903432,-110.0
2023-07-31 14:06:39.911121,-110.0
2023-07-31 14:06:39.918810,-110.0
2023-07-31 14:06:39.926500,-95.0
2023-07-31 14:06:39.934189,-76.0
2023-07-31 14:06:39.941878,-57.0
2023-07-31 14:06:39.949568,-52.0
2023-07-31 14:06:39.957257,-57.0
2023-07-31 14:06:39.964946,-69.0
2023-07-31 14:06:39.972636,-83.0
2023-07-31 14:06:39.980325,-90.0
2023-07-31 14:06:39.988014,-86.0
2023-07-31 14:06:39.995704,-86.0
2023-07-31 14:06:40.003393,-88.0
2023-07-31 14:06:40.011082,-88.0
2023-07-31 14:06:40.018772,-86.0
2023-07-31 14:06:40.026461,-83.0
2023-07-31 14:06:40.034150,-81.0
2023-07-31 14:06:40.041840,-76.0
2023-07-31 14:06:40.049529,-76.0
2023-07-31 14:06:40.057218,-74.0
2023-07-31 14:06:40.064908,-81.0
2023-07-31 14:06:40.072597,-9.0
2023-07-31 14:06:40.080286,315.0
2023-07-31 14:06:40.087976,815.0
2023-07-31 14:06:40.095665,983.0
2023-07-31 14:06:40.103354,349.0
2023-07-31 14:06:40.111044,-430.0
2023-07-31 14:06:40.118733,-373.0
2023-07-31 14:06:40.126422,-38.0
2023-07-31 14:06:40.134112,-114.0
2023-07-31 14:06:40.141801,-186.0
2023-07-31 14:06:40.149490,-95.0
2023-07-31 14:06:40.157180,-98.0
2023-07-31 14:06:40.164869,-131.0
2023-07-31 14:06:40.172558,-102.0
2023-07-31 14:06:40.180248,-86.0
2023-07-31 14:06:40.187937,-93.0
2023-07-31 14:06:40.195626,-86.0
2023-07-31 14:06:40.203316,-74.0
2023-07-31 14:06:40.211005,-71.0
2023-07-31 14:06:40.218694,-64.0
2023-07-31 14:06:40.226384,-57.0
2023-07-31 14:06:40.234073,-52.0
2023-07-31 14:06:40.241762,-50.0
2023-07-31 14:06:40.249452,-45.0
2023-07-31 14:06:40.257141,-33.0
2023-07-31 14:06:40.264830,-21.0
2023-07-31 14:06:40.272520,-9.0
2023-07-31 14:06:40.280209,2.0
2023-07-31 14:06:40.287898,16.0
2023-07-31 14:06:40.295588,31.0
2023-07-31 14:06:40.303277,47.0
2023-07-31 14:06:40.310967,66.0
2023-07-31 14:06:40.318656,86.0
2023-07-31 14:06:40.326345,98.0
2023-07-31 14:06:40.334035,105.0
2023-07-31 14:06:40.341724,112.0
2023-07-31 14:06:40.349413,117.0
2023-07-31 14:06:40.357103,114.0
2023-07-31 14:06:40.364792,114.0
2023-07-31 14:06:40.372481,107.0
2023-07-31 14:06:40.380171,76.0
2023-07-31 14:06:40.387860,23.0
2023-07-31 14:06:40.395549,-31.0
2023-07-31 14:06:40.403239,-78.0
2023-07-31 14:06:40.410928,-119.0
2023-07-31 14:06:40.418617,-145.0
2023-07-31 14:06:40.426307,-160.0
2023-07-31 14:06:40.433996,-167.0
2023-07-31 14:06:40.441685,-172.0
2023-07-31 14:06:40.449375,-172.0
2023-07-31 14:06:40.457064,-167.0
2023-07-31 14:06:40.464753,-162.0
2023-07-31 14:06:40.472443,-160.0
2023-07-31 14:06:40.480132,-157.0
2023-07-31 14:06:40.487821,-153.0
2023-07-31 14:06:40.495511,-143.0
2023-07-31 14:06:40.503200,-138.0
2023-07-31 14:06:40.510889,-138.0
2023-07-31 14:06:40.518579,-133.0
2023-07-31 14:06:40.526268,-131.0
2023-07-31 14:06:40.533957,-136.0
2023-07-31 14:06:40.541647,-136.0
2023-07-31 14:06:40.549336,-124.0
2023-07-31 14:06:40.557025,-122.0
2023-07-31 14:06:40.564715,-124.0
2023-07-31 14:06:40.572404,-122.0
2023-07-31 14:06:40.580093,-119.0
2023-07-31 14:06:40.587783,-117.0
2023-07-31 14:06:40.595472,-117.0
2023-07-31 14:06:40.603161,-119.0
2023-07-31 14:06:40.610851,-114.0
2023-07-31 14:06:40.618540,-114.0
2023-07-31 14:06:40.626229,-114.0
2023-07-31 14:06:40.633919,-112.0
2023-07-31 14:06:40.641608,-107.0
2023-07-31 14:06:40.649297,-107.0
2023-07-31 14:06:40.656987,-112.0
2023-07-31 14:06:40.664676,-110.0
2023-07-31 14:06:40.672365,-112.0
2023-07-31 14:06:40.680055,-117.0
2023-07-31 14:06:40.687744,-117.0
2023-07-31 14:06:40.695433,-112.0
2023-07-31 14:06:40.703123,-100.0
2023-07-31 14:06:40.710812,-83.0
2023-07-31 14:06:40.718501,-62.0
2023-07-31 14:06:40.726191,-52.0
2023-07-31 14:06:40.733880,-55.0
2023-07-31 14:06:40.741569,-69.0
2023-07-31 14:06:40.749259,-93.0
2023-07-31 14:06:40.756948,-100.0
2023-07-31 14:06:40.764637,-95.0
2023-07-31 14:06:40.772327,-98.0
2023-07-31 14:06:40.780016,-98.0
2023-07-31 14:06:40.787705,-93.0
2023-07-31 14:06:40.795395,-90.0
2023-07-31 14:06:40.803084,-90.0
2023-07-31 14:06:40.810773,-88.0
2023-07-31 14:06:40.818463,-86.0
2023-07-31 14:06:40.826152,-83.0
2023-07-31 14:06:40.833841,-83.0
2023-07-31 14:06:40.841531,-95.0
2023-07-31 14:06:40.849220,-21.0
2023-07-31 14:06:40.856909,320.0
2023-07-31 14:06:40.864599,815.0
2023-07-31 14:06:40.872288,928.0
2023-07-31 14:06:40.879977,256.0
2023-07-31 14:06:40.887667,-464.0
2023-07-31 14:06:40.895356,-351.0
2023-07-31 14:06:40.903045,-45.0
2023-07-31 14:06:40.910735,-136.0
2023-07-31 14:06:40.918424,-181.0
2023-07-31 14:06:40.926113,-93.0
2023-07-31 14:06:40.933803,-107.0
2023-07-31 14:06:40.941492,-136.0
2023-07-31 14:06:40.949181,-100.0
2023-07-31 14:06:40.956871,-86.0
2023-07-31 14:06:40.964560,-100.0
2023-07-31 14:06:40.972249,-90.0
2023-07-31 14:06:40.979939,-76.0
2023-07-31 14:06:40.987628,-74.0
2023-07-31 14:06:40.995317,-69.0
2023-07-31 14:06:41.003007,-59.0
2023-07-31 14:06:41.010696,-50.0
2023-07-31 14:06:41.018385,-45.0
2023-07-31 14:06:41.026075,-35.0
2023-07-31 14:06:41.033764,-26.0
2023-07-31 14:06:41.041453,-16.0
2023-07-31 14:06:41.049143,-2.0
2023-07-31 14:06:41.056832,9.0
2023-07-31 14:06:41.064522,19.0
2023-07-31 14:06:41.072211,31.0
2023-07-31 14:06:41.079900,47.0
2023-07-31 14:06:41.087590,69.0
2023-07-31 14:06:41.095279,93.0
2023-07-31 14:06:41.102968,102.0
2023-07-31 14:06:41.110658,102.0
2023-07-31 14:06:41.118347,100.0
2023-07-31 14:06:41.126036,100.0
2023-07-31 14:06:41.133726,102.0
2023-07-31 14:06:41.141415,98.0
2023-07-31 14:06:41.149104,83.0
2023-07-31 14:06:41.156794,47.0
2023-07-31 14:06:41.164483,-7.0
2023-07-31 14:06:41.172172,-57.0
2023-07-31 14:06:41.179862,-98.0
2023-07-31 14:06:41.187551,-136.0
2023-07-31 14:06:41.195240,-160.0
2023-07-31 14:06:41.202930,-169.0
2023-07-31 14:06:41.210619,-179.0
2023-07-31 14:06:41.218308,-186.0
2023-07-31 14:06:41.225998,-181.0
2023-07-31 14:06:41.233687,-174.0
2023-07-31 14:06:41.241376,-172.0
2023-07-31 14:06:41.249066,-177.0
2023-07-31 14:06:41.256755,-172.0
2023-07-31 14:06:41.264444,-160.0
2023-07-31 14:06:41.272134,-148.0
2023-07-31 14:06:41.279823,-148.0
2023-07-31 14:06:41.287512,-145.0
2023-07-31 14:06:41.295202,-136.0
2023-07-31 14:06:41.302891,-133.0
2023-07-31 14:06:41.310580,-133.0
2023-07-31 14:06:41.318270,-129.0
2023-07-31 14:06:41.325959,-119.0
2023-07-31 14:06:41.333648,-114.0
2023-07-31 14:06:41.341338,-117.0
2023-07-31 14:06:41.349027,-117.0
2023-07-31 14:06:41.356716,-112.0
2023-07-31 14:06:41.364406,-107.0
2023-07-31 14:06:41.372095,-110.0
2023-07-31 14:06:41.379784,-110.0
2023-07-31 14:06:41.387474,-107.0
2023-07-31 14:06:41.395163,-110.0
2023-07-31 14:06:41.402852,-107.0
2023-07-31 14:06:41.410542,-100.0
2023-07-31 14:06:41.418231,-98.0
2023-07-31 14:06:41.425920,-100.0
2023-07-31 14:06:41.433610,-98.0
2023-07-31 14:06:41.441299,-98.0
2023-07-31 14:06:41.448988,-98.0
2023-07-31 14:06:41.456678,-98.0
2023-07-31 14:06:41.464367,-102.0
2023-07-31 14:06:41.472056,-102.0
2023-07-31 14:06:41.479746,-86.0
2023-07-31 14:06:41.487435,-62.0
2023-07-31 14:06:41.495124,-47.0
2023-07-31 14:06:41.502814,-38.0
2023-07-31 14:06:41.510503,-43.0
2023-07-31 14:06:41.518192,-59.0
2023-07-31 14:06:41.525882,-76.0
2023-07-31 14:06:41.533571,-81.0
2023-07-31 14:06:41.541260,-76.0
2023-07-31 14:06:41.548950,-71.0
2023-07-31 14:06:41.556639,-76.0
2023-07-31 14:06:41.564328,-81.0
2023-07-31 14:06:41.572018,-76.0
2023-07-31 14:06:41.579707,-71.0
2023-07-31 14:06:41.587396,-69.0
2023-07-31 14:06:41.595086,-64.0
2023-07-31 14:06:41.602775,-64.0
2023-07-31 14:06:41.610464,-71.0
2023-07-31 14:06:41.618154,-83.0
2023-07-31 14:06:41.625843,-11.0
2023-07-31 14:06:41.633532,334.0
2023-07-31 14:06:41.641222,873.0
2023-07-31 14:06:41.648911,1004.0
2023-07-31 14:06:41.656600,282.0
2023-07-31 14:06:41.664290,-492.0
2023-07-31 14:06:41.671979,-361.0
2023-07-31 14:06:41.679668,-38.0
2023-07-31 14:06:41.687358,-148.0
2023-07-31 14:06:41.695047,-191.0
2023-07-31 14:06:41.702736,-86.0
2023-07-31 14:06:41.710426,-100.0
2023-07-31 14:06:41.718115,-126.0
2023-07-31 14:06:41.725804,-88.0
2023-07-31 14:06:41.733494,-81.0
2023-07-31 14:06:41.741183,-90.0
2023-07-31 14:06:41.748872,-81.0
2023-07-31 14:06:41.756562,-74.0
2023-07-31 14:06:41.764251,-71.0
2023-07-31 14:06:41.771940,-55.0
2023-07-31 14:06:41.779630,-43.0
2023-07-31 14:06:41.787319,-40.0
2023-07-31 14:06:41.795008,-33.0
2023-07-31 14:06:41.802698,-21.0
2023-07-31 14:06:41.810387,-11.0
2023-07-31 14:06:41.818077,-4.0
2023-07-31 14:06:41.825766,14.0
2023-07-31 14:06:41.833455,31.0
2023-07-31 14:06:41.841145,40.0
2023-07-31 14:06:41.848834,57.0
2023-07-31 14:06:41.856523,71.0
2023-07-31 14:06:41.864213,88.0
2023-07-31 14:06:41.871902,107.0
2023-07-31 14:06:41.879591,122.0
2023-07-31 14:06:41.887281,129.0
2023-07-31 14:06:41.894970,133.0
2023-07-31 14:06:41.902659,133.0
2023-07-31 14:06:41.910349,141.0
2023-07-31 14:06:41.918038,138.0
2023-07-31 14:06:41.925727,122.0
2023-07-31 14:06:41.933417,90.0
2023-07-31 14:06:41.941106,43.0
2023-07-31 14:06:41.948795,-11.0
2023-07-31 14:06:41.956485,-57.0
2023-07-31 14:06:41.964174,-102.0
2023-07-31 14:06:41.971863,-141.0
2023-07-31 14:06:41.979553,-155.0
2023-07-31 14:06:41.987242,-160.0
2023-07-31 14:06:41.994931,-172.0
2023-07-31 14:06:42.002621,-177.0
2023-07-31 14:06:42.010310,-165.0
2023-07-31 14:06:42.017999,-157.0
2023-07-31 14:06:42.025689,-155.0
2023-07-31 14:06:42.033378,-143.0
2023-07-31 14:06:42.041067,-138.0
2023-07-31 14:06:42.048757,-141.0
2023-07-31 14:06:42.056446,-133.0
2023-07-31 14:06:42.064135,-122.0
2023-07-31 14:06:42.071825,-119.0
2023-07-31 14:06:42.079514,-117.0
2023-07-31 14:06:42.087203,-112.0
2023-07-31 14:06:42.094893,-105.0
2023-07-31 14:06:42.102582,-107.0
2023-07-31 14:06:42.110271,-110.0
2023-07-31 14:06:42.117961,-110.0
2023-07-31 14:06:42.125650,-110.0
2023-07-31 14:06:42.133339,-112.0
2023-07-31 14:06:42.141029,-107.0
2023-07-31 14:06:42.148718,-105.0
2023-07-31 14:06:42.156407,-107.0
2023-07-31 14:06:42.164097,-110.0
2023-07-31 14:06:42.171786,-110.0
2023-07-31 14:06:42.179475,-105.0
2023-07-31 14:06:42.187165,-102.0
2023-07-31 14:06:42.194854,-107.0
2023-07-31 14:06:42.202543,-114.0
2023-07-31 14:06:42.210233,-110.0
2023-07-31 14:06:42.217922,-88.0
2023-07-31 14:06:42.225611,-69.0
2023-07-31 14:06:42.233301,-59.0
2023-07-31 14:06:42.240990,-55.0
2023-07-31 14:06:42.248679,-52.0
2023-07-31 14:06:42.256369,-69.0
2023-07-31 14:06:42.264058,-90.0
2023-07-31 14:06:42.271747,-95.0
2023-07-31 14:06:42.279437,-95.0
2023-07-31 14:06:42.287126,-98.0
2023-07-31 14:06:42.294815,-100.0
2023-07-31 14:06:42.302505,-98.0
2023-07-31 14:06:42.310194,-93.0
2023-07-31 14:06:42.317883,-86.0
2023-07-31 14:06:42.325573,-86.0
2023-07-31 14:06:42.333262,-88.0
2023-07-31 14:06:42.340951,-83.0
2023-07-31 14:06:42.348641,-74.0
2023-07-31 14:06:42.356330,-78.0
2023-07-31 14:06:42.364019,-102.0
2023-07-31 14:06:42.371709,4.0
2023-07-31 14:06:42.379398,454.0
2023-07-31 14:06:42.387087,1019.0
2023-07-31 14:06:42.394777,971.0
2023-07-31 14:06:42.402466,74.0
2023-07-31 14:06:42.410155,-550.0
2023-07-31 14:06:42.417845,-251.0
2023-07-31 14:06:42.425534,-23.0
2023-07-31 14:06:42.433223,-189.0
2023-07-31 14:06:42.440913,-165.0
2023-07-31 14:06:42.448602,-69.0
2023-07-31 14:06:42.456291,-119.0
2023-07-31 14:06:42.463981,-133.0
2023-07-31 14:06:42.471670,-90.0
2023-07-31 14:06:42.479359,-88.0
2023-07-31 14:06:42.487049,-93.0
2023-07-31 14:06:42.494738,-78.0
2023-07-31 14:06:42.502427,-71.0
2023-07-31 14:06:42.510117,-69.0
2023-07-31 14:06:42.517806,-59.0
2023-07-31 14:06:42.525495,-50.0
2023-07-31 14:06:42.533185,-40.0
2023-07-31 14:06:42.540874,-33.0
2023-07-31 14:06:42.548563,-28.0
2023-07-31 14:06:42.556253,-16.0
2023-07-31 14:06:42.563942,0.0
2023-07-31 14:06:42.571631,9.0
2023-07-31 14:06:42.579321,21.0
2023-07-31 14:06:42.587010,38.0
2023-07-31 14:06:42.594700,52.0
2023-07-31 14:06:42.602389,66.0
2023-07-31 14:06:42.610078,81.0
2023-07-31 14:06:42.617768,93.0
2023-07-31 14:06:42.625457,102.0
2023-07-31 14:06:42.633146,110.0
2023-07-31 14:06:42.640836,114.0
2023-07-31 14:06:42.648525,112.0
2023-07-31 14:06:42.656214,110.0
2023-07-31 14:06:42.663904,105.0
2023-07-31 14:06:42.671593,83.0
2023-07-31 14:06:42.679282,40.0
2023-07-31 14:06:42.686972,-11.0
2023-07-31 14:06:42.694661,-62.0
2023-07-31 14:06:42.702350,-105.0
2023-07-31 14:06:42.710040,-138.0
2023-07-31 14:06:42.717729,-157.0
2023-07-31 14:06:42.725418,-169.0
2023-07-31 14:06:42.733108,-181.0
2023-07-31 14:06:42.740797,-191.0
2023-07-31 14:06:42.748486,-191.0
2023-07-31 14:06:42.756176,-189.0
2023-07-31 14:06:42.763865,-186.0
2023-07-31 14:06:42.771554,-181.0
2023-07-31 14:06:42.779244,-174.0
2023-07-31 14:06:42.786933,-167.0
2023-07-31 14:06:42.794622,-160.0
2023-07-31 14:06:42.802312,-155.0
2023-07-31 14:06:42.810001,-148.0
2023-07-31 14:06:42.817690,-145.0
2023-07-31 14:06:42.825380,-143.0
2023-07-31 14:06:42.833069,-141.0
2023-07-31 14:06:42.840758,-136.0
2023-07-31 14:06:42.848448,-133.0
2023-07-31 14:06:42.856137,-131.0
2023-07-31 14:06:42.863826,-131.0
2023-07-31 14:06:42.871516,-136.0
2023-07-31 14:06:42.879205,-136.0
2023-07-31 14:06:42.886894,-131.0
2023-07-31 14:06:42.894584,-129.0
2023-07-31 14:06:42.902273,-129.0
2023-07-31 14:06:42.909962,-131.0
2023-07-31 14:06:42.917652,-131.0
2023-07-31 14:06:42.925341,-126.0
2023-07-31 14:06:42.933030,-122.0
2023-07-31 14:06:42.940720,-119.0
2023-07-31 14:06:42.948409,-117.0
2023-07-31 14:06:42.956098,-114.0
2023-07-31 14:06:42.963788,-124.0
2023-07-31 14:06:42.971477,-131.0
2023-07-31 14:06:42.979166,-129.0
2023-07-31 14:06:42.986856,-124.0
2023-07-31 14:06:42.994545,-112.0
2023-07-31 14:06:43.002234,-93.0
2023-07-31 14:06:43.009924,-74.0
2023-07-31 14:06:43.017613,-62.0
2023-07-31 14:06:43.025302,-64.0
2023-07-31 14:06:43.032992,-78.0
2023-07-31 14:06:43.040681,-93.0
2023-07-31 14:06:43.048370,-98.0
2023-07-31 14:06:43.056060,-98.0
2023-07-31 14:06:43.063749,-98.0
2023-07-31 14:06:43.071438,-100.0
2023-07-31 14:06:43.079128,-98.0
2023-07-31 14:06:43.086817,-95.0
2023-07-31 14:06:43.094506,-93.0
2023-07-31 14:06:43.102196,-95.0
2023-07-31 14:06:43.109885,-95.0
2023-07-31 14:06:43.117574,-93.0
2023-07-31 14:06:43.125264,-88.0
2023-07-31 14:06:43.132953,-95.0
2023-07-31 14:06:43.140642,-9.0
2023-07-31 14:06:43.148332,339.0
2023-07-31 14:06:43.156021,837.0
2023-07-31 14:06:43.163710,940.0
2023-07-31 14:06:43.171400,246.0
2023-07-31 14:06:43.179089,-480.0
2023-07-31 14:06:43.186778,-349.0
2023-07-31 14:06:43.194468,-45.0
2023-07-31 14:06:43.202157,-145.0
2023-07-31 14:06:43.209846,-186.0
2023-07-31 14:06:43.217536,-95.0
2023-07-31 14:06:43.225225,-110.0
2023-07-31 14:06:43.232914,-136.0
2023-07-31 14:06:43.240604,-105.0
2023-07-31 14:06:43.248293,-98.0
2023-07-31 14:06:43.255982,-107.0
2023-07-31 14:06:43.263672,-95.0
2023-07-31 14:06:43.271361,-90.0
2023-07-31 14:06:43.279050,-88.0
2023-07-31 14:06:43.286740,-81.0
2023-07-31 14:06:43.294429,-74.0
2023-07-31 14:06:43.302118,-69.0
2023-07-31 14:06:43.309808,-59.0
2023-07-31 14:06:43.317497,-50.0
2023-07-31 14:06:43.325186,-40.0
2023-07-31 14:06:43.332876,-26.0
2023-07-31 14:06:43.340565,-9.0
2023-07-31 14:06:43.348255,0.0
2023-07-31 14:06:43.355944,9.0
2023-07-31 14:06:43.363633,23.0
2023-07-31 14:06:43.371323,31.0
2023-07-31 14:06:43.379012,43.0
2023-07-31 14:06:43.386701,64.0
2023-07-31 14:06:43.394391,83.0
2023-07-31 14:06:43.402080,93.0
2023-07-31 14:06:43.409769,95.0
2023-07-31 14:06:43.417459,93.0
2023-07-31 14:06:43.425148,90.0
2023-07-31 14:06:43.432837,88.0
2023-07-31 14:06:43.440527,76.0
2023-07-31 14:06:43.448216,45.0
2023-07-31 14:06:43.455905,-9.0
2023-07-31 14:06:43.463595,-66.0
2023-07-31 14:06:43.471284,-107.0
2023-07-31 14:06:43.478973,-141.0
2023-07-31 14:06:43.486663,-165.0
2023-07-31 14:06:43.494352,-181.0
2023-07-31 14:06:43.502041,-186.0
2023-07-31 14:06:43.509731,-189.0
2023-07-31 14:06:43.517420,-186.0
2023-07-31 14:06:43.525109,-181.0
2023-07-31 14:06:43.532799,-174.0
2023-07-31 14:06:43.540488,-172.0
2023-07-31 14:06:43.548177,-172.0
2023-07-31 14:06:43.555867,-167.0
2023-07-31 14:06:43.563556,-160.0
2023-07-31 14:06:43.571245,-155.0
2023-07-31 14:06:43.578935,-150.0
2023-07-31 14:06:43.586624,-143.0
2023-07-31 14:06:43.594313,-141.0
2023-07-31 14:06:43.602003,-141.0
2023-07-31 14:06:43.609692,-138.0
2023-07-31 14:06:43.617381,-133.0
2023-07-31 14:06:43.625071,-131.0
2023-07-31 14:06:43.632760,-131.0
2023-07-31 14:06:43.640449,-129.0
2023-07-31 14:06:43.648139,-124.0
2023-07-31 14:06:43.655828,-124.0
2023-07-31 14:06:43.663517,-126.0
2023-07-31 14:06:43.671207,-124.0
2023-07-31 14:06:43.678896,-119.0
2023-07-31 14:06:43.686585,-119.0
2023-07-31 14:06:43.694275,-124.0
2023-07-31 14:06:43.701964,-117.0
2023-07-31 14:06:43.709653,-107.0
2023-07-31 14:06:43.717343,-110.0
2023-07-31 14:06:43.725032,-119.0
2023-07-31 14:06:43.732721,-119.0
2023-07-31 14:06:43.740411,-117.0
2023-07-31 14:06:43.748100,-119.0
2023-07-31 14:06:43.755789,-110.0
2023-07-31 14:06:43.763479,-95.0
2023-07-31 14:06:43.771168,-81.0
2023-07-31 14:06:43.778857,-69.0
2023-07-31 14:06:43.786547,-64.0
2023-07-31 14:06:43.794236,-74.0
2023-07-31 14:06:43.801925,-90.0
2023-07-31 14:06:43.809615,-100.0
2023-07-31 14:06:43.817304,-100.0
2023-07-31 14:06:43.824993,-100.0
2023-07-31 14:06:43.832683,-100.0
2023-07-31 14:06:43.840372,-98.0
2023-07-31 14:06:43.848061,-98.0
2023-07-31 14:06:43.855751,-102.0
2023-07-31 14:06:43.863440,-98.0
2023-07-31 14:06:43.871129,-90.0
2023-07-31 14:06:43.878819,-90.0
2023-07-31 14:06:43.886508,-90.0
2023-07-31 14:06:43.894197,-98.0
2023-07-31 14:06:43.901887,-76.0
2023-07-31 14:06:43.909576,155.0
2023-07-31 14:06:43.917265,641.0
2023-07-31 14:06:43.924955,980.0
2023-07-31 14:06:43.932644,586.0
2023-07-31 14:06:43.940333,-275.0
2023-07-31 14:06:43.948023,-488.0
2023-07-31 14:06:43.955712,-129.0
2023-07-31 14:06:43.963401,-88.0
2023-07-31 14:06:43.971091,-208.0
2023-07-31 14:06:43.978780,-136.0
2023-07-31 14:06:43.986469,-98.0
2023-07-31 14:06:43.994159,-141.0
2023-07-31 14:06:44.001848,-129.0
2023-07-31 14:06:44.009537,-100.0
2023-07-31 14:06:44.017227,-102.0
2023-07-31 14:06:44.024916,-100.0
2023-07-31 14:06:44.032605,-90.0
2023-07-31 14:06:44.040295,-83.0
2023-07-31 14:06:44.047984,-76.0
2023-07-31 14:06:44.055673,-69.0
2023-07-31 14:06:44.063363,-62.0
2023-07-31 14:06:44.071052,-57.0
2023-07-31 14:06:44.078741,-47.0
2023-07-31 14:06:44.086431,-40.0
2023-07-31 14:06:44.094120,-28.0
2023-07-31 14:06:44.101810,-16.0
2023-07-31 14:06:44.109499,-9.0
2023-07-31 14:06:44.117188,4.0
2023-07-31 14:06:44.124878,23.0
2023-07-31 14:06:44.132567,40.0
2023-07-31 14:06:44.140256,55.0
2023-07-31 14:06:44.147946,71.0
2023-07-31 14:06:44.155635,86.0
2023-07-31 14:06:44.163324,95.0
2023-07-31 14:06:44.171014,102.0
2023-07-31 14:06:44.178703,107.0
2023-07-31 14:06:44.186392,107.0
2023-07-31 14:06:44.194082,105.0
2023-07-31 14:06:44.201771,98.0
2023-07-31 14:06:44.209460,71.0
2023-07-31 14:06:44.217150,26.0
2023-07-31 14:06:44.224839,-28.0
2023-07-31 14:06:44.232528,-74.0
2023-07-31 14:06:44.240218,-114.0
2023-07-31 14:06:44.247907,-145.0
2023-07-31 14:06:44.255596,-167.0
2023-07-31 14:06:44.263286,-177.0
2023-07-31 14:06:44.270975,-181.0
2023-07-31 14:06:44.278664,-184.0
2023-07-31 14:06:44.286354,-181.0
2023-07-31 14:06:44.294043,-179.0
2023-07-31 14:06:44.301732,-177.0
2023-07-31 14:06:44.309422,-174.0
2023-07-31 14:06:44.317111,-169.0
2023-07-31 14:06:44.324800,-165.0
2023-07-31 14:06:44.332490,-157.0
2023-07-31 14:06:44.340179,-153.0
2023-07-31 14:06:44.347868,-157.0
2023-07-31 14:06:44.355558,-157.0
2023-07-31 14:06:44.363247,-150.0
2023-07-31 14:06:44.370936,-143.0
2023-07-31 14:06:44.378626,-141.0
2023-07-31 14:06:44.386315,-136.0
2023-07-31 14:06:44.394004,-131.0
2023-07-31 14:06:44.401694,-133.0
2023-07-31 14:06:44.409383,-136.0
2023-07-31 14:06:44.417072,-131.0
2023-07-31 14:06:44.424762,-124.0
2023-07-31 14:06:44.432451,-124.0
2023-07-31 14:06:44.440140,-124.0
2023-07-31 14:06:44.447830,-131.0
2023-07-31 14:06:44.455519,-138.0
2023-07-31 14:06:44.463208,-131.0
2023-07-31 14:06:44.470898,-119.0
2023-07-31 14:06:44.478587,-122.0
2023-07-31 14:06:44.486276,-126.0
2023-07-31 14:06:44.493966,-126.0
2023-07-31 14:06:44.501655,-129.0
2023-07-31 14:06:44.509344,-129.0
2023-07-31 14:06:44.517034,-124.0
2023-07-31 14:06:44.524723,-112.0
2023-07-31 14:06:44.532412,-90.0
2023-07-31 14:06:44.540102,-76.0
2023-07-31 14:06:44.547791,-62.0
2023-07-31 14:06:44.555480,-55.0
2023-07-31 14:06:44.563170,-71.0
2023-07-31 14:06:44.570859,-88.0
2023-07-31 14:06:44.578548,-88.0
2023-07-31 14:06:44.586238,-88.0
2023-07-31 14:06:44.593927,-95.0
2023-07-31 14:06:44.601616,-90.0
2023-07-31 14:06:44.609306,-88.0
2023-07-31 14:06:44.616995,-93.0
2023-07-31 14:06:44.624684,-90.0
2023-07-31 14:06:44.632374,-86.0
2023-07-31 14:06:44.640063,-88.0
2023-07-31 14:06:44.647752,-81.0
2023-07-31 14:06:44.655442,-76.0
2023-07-31 14:06:44.663131,-90.0
2023-07-31 14:06:44.670820,-74.0
2023-07-31 14:06:44.678510,160.0
2023-07-31 14:06:44.686199,655.0
2023-07-31 14:06:44.693888,1016.0
2023-07-31 14:06:44.701578,631.0
2023-07-31 14:06:44.709267,-256.0
2023-07-31 14:06:44.716956,-488.0
2023-07-31 14:06:44.724646,-112.0
2023-07-31 14:06:44.732335,-69.0
2023-07-31 14:06:44.740024,-193.0
2023-07-31 14:06:44.747714,-110.0
2023-07-31 14:06:44.755403,-71.0
2023-07-31 14:06:44.763092,-124.0
2023-07-31 14:06:44.770782,-110.0
2023-07-31 14:06:44.778471,-83.0
2023-07-31 14:06:44.786160,-93.0
2023-07-31 14:06:44.793850,-86.0
2023-07-31 14:06:44.801539,-66.0
2023-07-31 14:06:44.809228,-66.0
2023-07-31 14:06:44.816918,-62.0
2023-07-31 14:06:44.824607,-52.0
2023-07-31 14:06:44.832296,-55.0
2023-07-31 14:06:44.839986,-50.0
2023-07-31 14:06:44.847675,-26.0
2023-07-31 14:06:44.855365,-21.0
2023-07-31 14:06:44.863054,-23.0
2023-07-31 14:06:44.870743,-4.0
2023-07-31 14:06:44.878433,14.0
2023-07-31 14:06:44.886122,26.0
2023-07-31 14:06:44.893811,43.0
2023-07-31 14:06:44.901501,62.0
2023-07-31 14:06:44.909190,74.0
2023-07-31 14:06:44.916879,88.0
2023-07-31 14:06:44.924569,107.0
2023-07-31 14:06:44.932258,117.0
2023-07-31 14:06:44.939947,122.0
2023-07-31 14:06:44.947637,129.0
2023-07-31 14:06:44.955326,131.0
2023-07-31 14:06:44.963015,129.0
2023-07-31 14:06:44.970705,122.0
2023-07-31 14:06:44.978394,100.0
2023-07-31 14:06:44.986083,55.0
2023-07-31 14:06:44.993773,-2.0
2023-07-31 14:06:45.001462,-57.0
2023-07-31 14:06:45.009151,-98.0
2023-07-31 14:06:45.016841,-129.0
2023-07-31 14:06:45.024530,-150.0
2023-07-31 14:06:45.032219,-172.0
2023-07-31 14:06:45.039909,-191.0
2023-07-31 14:06:45.047598,-189.0
2023-07-31 14:06:45.055287,-177.0
2023-07-31 14:06:45.062977,-174.0
2023-07-31 14:06:45.070666,-174.0
2023-07-31 14:06:45.078355,-167.0
2023-07-31 14:06:45.086045,-160.0
2023-07-31 14:06:45.093734,-155.0
2023-07-31 14:06:45.101423,-150.0
2023-07-31 14:06:45.109113,-145.0
2023-07-31 14:06:45.116802,-141.0
2023-07-31 14:06:45.124491,-136.0
2023-07-31 14:06:45.132181,-133.0
2023-07-31 14:06:45.139870,-126.0
2023-07-31 14:06:45.147559,-117.0
2023-07-31 14:06:45.155249,-117.0
2023-07-31 14:06:45.162938,-126.0
2023-07-31 14:06:45.170627,-129.0
2023-07-31 14:06:45.178317,-122.0
2023-07-31 14:06:45.186006,-122.0
2023-07-31 14:06:45.193695,-122.0
2023-07-31 14:06:45.201385,-112.0
2023-07-31 14:06:45.209074,-110.0
2023-07-31 14:06:45.216763,-119.0
2023-07-31 14:06:45.224453,-117.0
2023-07-31 14:06:45.232142,-112.0
2023-07-31 14:06:45.239831,-112.0
2023-07-31 14:06:45.247521,-112.0
2023-07-31 14:06:45.255210,-110.0
2023-07-31 14:06:45.262899,-98.0
2023-07-31 14:06:45.270589,-76.0
2023-07-31 14:06:45.278278,-64.0
2023-07-31 14:06:45.285967,-66.0
2023-07-31 14:06:45.293657,-66.0
2023-07-31 14:06:45.301346,-76.0
2023-07-31 14:06:45.309035,-98.0
2023-07-31 14:06:45.316725,-110.0
2023-07-31 14:06:45.324414,-107.0
2023-07-31 14:06:45.332103,-107.0
2023-07-31 14:06:45.339793,-110.0
2023-07-31 14:06:45.347482,-107.0
2023-07-31 14:06:45.355171,-105.0
2023-07-31 14:06:45.362861,-102.0
2023-07-31 14:06:45.370550,-100.0
2023-07-31 14:06:45.378239,-98.0
2023-07-31 14:06:45.385929,-98.0
2023-07-31 14:06:45.393618,-98.0
2023-07-31 14:06:45.401307,-93.0
2023-07-31 14:06:45.408997,-102.0
2023-07-31 14:06:45.416686,2.0
2023-07-31 14:06:45.424375,445.0
2023-07-31 14:06:45.432065,1012.0
2023-07-31 14:06:45.439754,964.0
2023-07-31 14:06:45.447443,66.0
2023-07-31 14:06:45.455133,-550.0
2023-07-31 14:06:45.462822,-248.0
2023-07-31 14:06:45.470511,-26.0
2023-07-31 14:06:45.478201,-198.0
2023-07-31 14:06:45.485890,-172.0
2023-07-31 14:06:45.493579,-74.0
2023-07-31 14:06:45.501269,-122.0
2023-07-31 14:06:45.508958,-131.0
2023-07-31 14:06:45.516647,-86.0
2023-07-31 14:06:45.524337,-90.0
2023-07-31 14:06:45.532026,-95.0
2023-07-31 14:06:45.539715,-76.0
2023-07-31 14:06:45.547405,-69.0
2023-07-31 14:06:45.555094,-69.0
2023-07-31 14:06:45.562783,-52.0
2023-07-31 14:06:45.570473,-40.0
2023-07-31 14:06:45.578162,-40.0
2023-07-31 14:06:45.585851,-35.0
2023-07-31 14:06:45.593541,-26.0
2023-07-31 14:06:45.601230,-14.0
2023-07-31 14:06:45.608920,-2.0
2023-07-31 14:06:45.616609,7.0
2023-07-31 14:06:45.624298,11.0
2023-07-31 14:06:45.631988,23.0
2023-07-31 14:06:45.639677,40.0
2023-07-31 14:06:45.647366,55.0
2023-07-31 14:06:45.655056,71.0
2023-07-31 14:06:45.662745,86.0
2023-07-31 14:06:45.670434,93.0
2023-07-31 14:06:45.678124,98.0
2023-07-31 14:06:45.685813,105.0
2023-07-31 14:06:45.693502,105.0
2023-07-31 14:06:45.701192,107.0
2023-07-31 14:06:45.708881,102.0
2023-07-31 14:06:45.716570,76.0
2023-07-31 14:06:45.724260,35.0
2023-07-31 14:06:45.731949,-11.0
2023-07-31 14:06:45.739638,-64.0
2023-07-31 14:06:45.747328,-110.0
2023-07-31 14:06:45.755017,-143.0
2023-07-31 14:06:45.762706,-162.0
2023-07-31 14:06:45.770396,-172.0
2023-07-31 14:06:45.778085,-177.0
2023-07-31 14:06:45.785774,-181.0
2023-07-31 14:06:45.793464,-186.0
2023-07-31 14:06:45.801153,-181.0
2023-07-31 14:06:45.808842,-174.0
2023-07-31 14:06:45.816532,-169.0
2023-07-31 14:06:45.824221,-167.0
2023-07-31 14:06:45.831910,-160.0
2023-07-31 14:06:45.839600,-153.0
2023-07-31 14:06:45.847289,-148.0
2023-07-31 14:06:45.854978,-141.0
2023-07-31 14:06:45.862668,-138.0
2023-07-31 14:06:45.870357,-133.0
2023-07-31 14:06:45.878046,-131.0
2023-07-31 14:06:45.885736,-126.0
2023-07-31 14:06:45.893425,-126.0
2023-07-31 14:06:45.901114,-126.0
2023-07-31 14:06:45.908804,-129.0
2023-07-31 14:06:45.916493,-129.0
2023-07-31 14:06:45.924182,-124.0
2023-07-31 14:06:45.931872,-126.0
2023-07-31 14:06:45.939561,-129.0
2023-07-31 14:06:45.947250,-122.0
2023-07-31 14:06:45.954940,-122.0
2023-07-31 14:06:45.962629,-126.0
2023-07-31 14:06:45.970318,-124.0
2023-07-31 14:06:45.978008,-117.0
2023-07-31 14:06:45.985697,-119.0
2023-07-31 14:06:45.993386,-117.0
2023-07-31 14:06:46.001076,-114.0
2023-07-31 14:06:46.008765,-117.0
2023-07-31 14:06:46.016454,-122.0
2023-07-31 14:06:46.024144,-122.0
2023-07-31 14:06:46.031833,-114.0
2023-07-31 14:06:46.039522,-98.0
2023-07-31 14:06:46.047212,-78.0
2023-07-31 14:06:46.054901,-59.0
2023-07-31 14:06:46.062590,-50.0
2023-07-31 14:06:46.070280,-62.0
2023-07-31 14:06:46.077969,-78.0
2023-07-31 14:06:46.085658,-86.0
2023-07-31 14:06:46.093348,-88.0
2023-07-31 14:06:46.101037,-88.0
2023-07-31 14:06:46.108726,-90.0
2023-07-31 14:06:46.116416,-100.0
2023-07-31 14:06:46.124105,-100.0
2023-07-31 14:06:46.131794,-95.0
2023-07-31 14:06:46.139484,-95.0
2023-07-31 14:06:46.147173,-95.0
2023-07-31 14:06:46.154862,-90.0
2023-07-31 14:06:46.162552,-88.0
2023-07-31 14:06:46.170241,-88.0
2023-07-31 14:06:46.177930,-93.0
2023-07-31 14:06:46.185620,33.0
2023-07-31 14:06:46.193309,456.0
2023-07-31 14:06:46.200998,942.0
2023-07-31 14:06:46.208688,873.0
2023-07-31 14:06:46.216377,50.0
2023-07-31 14:06:46.224066,-519.0
2023-07-31 14:06:46.231756,-248.0
2023-07-31 14:06:46.239445,-31.0
2023-07-31 14:06:46.247134,-172.0
2023-07-31 14:06:46.254824,-165.0
2023-07-31 14:06:46.262513,-83.0
2023-07-31 14:06:46.270202,-114.0
2023-07-31 14:06:46.277892,-124.0
2023-07-31 14:06:46.285581,-86.0
2023-07-31 14:06:46.293270,-86.0
2023-07-31 14:06:46.300960,-95.0
2023-07-31 14:06:46.308649,-83.0
2023-07-31 14:06:46.316338,-76.0
2023-07-31 14:06:46.324028,-74.0
2023-07-31 14:06:46.331717,-69.0
2023-07-31 14:06:46.339406,-64.0
2023-07-31 14:06:46.347096,-55.0
2023-07-31 14:06:46.354785,-40.0
2023-07-31 14:06:46.362475,-31.0
2023-07-31 14:06:46.370164,-23.0
2023-07-31 14:06:46.377853,-14.0
2023-07-31 14:06:46.385543,-2.0
2023-07-31 14:06:46.393232,9.0
2023-07-31 14:06:46.400921,26.0
2023-07-31 14:06:46.408611,47.0
2023-07-31 14:06:46.416300,64.0
2023-07-31 14:06:46.423989,74.0
2023-07-31 14:06:46.431679,88.0
2023-07-31 14:06:46.439368,107.0
2023-07-31 14:06:46.447057,117.0
2023-07-31 14:06:46.454747,122.0
2023-07-31 14:06:46.462436,126.0
2023-07-31 14:06:46.470125,126.0
2023-07-31 14:06:46.477815,122.0
2023-07-31 14:06:46.485504,105.0
2023-07-31 14:06:46.493193,69.0
2023-07-31 14:06:46.500883,14.0
2023-07-31 14:06:46.508572,-43.0
2023-07-31 14:06:46.516261,-88.0
2023-07-31 14:06:46.523951,-122.0
2023-07-31 14:06:46.531640,-145.0
2023-07-31 14:06:46.539329,-157.0
2023-07-31 14:06:46.547019,-162.0
2023-07-31 14:06:46.554708,-169.0
2023-07-31 14:06:46.562397,-169.0
2023-07-31 14:06:46.570087,-165.0
2023-07-31 14:06:46.577776,-162.0
2023-07-31 14:06:46.585465,-155.0
2023-07-31 14:06:46.593155,-148.0
2023-07-31 14:06:46.600844,-145.0
2023-07-31 14:06:46.608533,-145.0
2023-07-31 14:06:46.616223,-138.0
2023-07-31 14:06:46.623912,-131.0
2023-07-31 14:06:46.631601,-126.0
2023-07-31 14:06:46.639291,-124.0
2023-07-31 14:06:46.646980,-126.0
2023-07-31 14:06:46.654669,-129.0
2023-07-31 14:06:46.662359,-126.0
2023-07-31 14:06:46.670048,-124.0
2023-07-31 14:06:46.677737,-122.0
2023-07-31 14:06:46.685427,-122.0
2023-07-31 14:06:46.693116,-122.0
2023-07-31 14:06:46.700805,-119.0
2023-07-31 14:06:46.708495,-112.0
2023-07-31 14:06:46.716184,-112.0
2023-07-31 14:06:46.723873,-112.0
2023-07-31 14:06:46.731563,-107.0
2023-07-31 14:06:46.739252,-107.0
2023-07-31 14:06:46.746941,-110.0
2023-07-31 14:06:46.754631,-105.0
2023-07-31 14:06:46.762320,-102.0
2023-07-31 14:06:46.770009,-110.0
2023-07-31 14:06:46.777699,-112.0
2023-07-31 14:06:46.785388,-112.0
2023-07-31 14:06:46.793077,-110.0
2023-07-31 14:06:46.800767,-98.0
2023-07-31 14:06:46.808456,-78.0
2023-07-31 14:06:46.816145,-64.0
2023-07-31 14:06:46.823835,-55.0
2023-07-31 14:06:46.831524,-64.0
2023-07-31 14:06:46.839213,-86.0
2023-07-31 14:06:46.846903,-95.0
2023-07-31 14:06:46.854592,-90.0
2023-07-31 14:06:46.862281,-88.0
2023-07-31 14:06:46.869971,-90.0
2023-07-31 14:06:46.877660,-93.0
2023-07-31 14:06:46.885349,-90.0
2023-07-31 14:06:46.893039,-90.0
2023-07-31 14:06:46.900728,-88.0
2023-07-31 14:06:46.908417,-86.0
2023-07-31 14:06:46.916107,-81.0
2023-07-31 14:06:46.923796,-76.0
2023-07-31 14:06:46.931485,-78.0
2023-07-31 14:06:46.939175,-86.0
2023-07-31 14:06:46.946864,59.0
2023-07-31 14:06:46.954553,497.0
2023-07-31 14:06:46.962243,957.0
2023-07-31 14:06:46.969932,811.0
2023-07-31 14:06:46.977621,-33.0
2023-07-31 14:06:46.985311,-516.0
2023-07-31 14:06:46.993000,-205.0
2023-07-31 14:06:47.000689,-28.0
2023-07-31 14:06:47.008379,-169.0
2023-07-31 14:06:47.016068,-145.0
2023-07-31 14:06:47.023757,-76.0
2023-07-31 14:06:47.031447,-114.0
2023-07-31 14:06:47.039136,-117.0
2023-07-31 14:06:47.046825,-81.0
2023-07-31 14:06:47.054515,-83.0
2023-07-31 14:06:47.062204,-93.0
2023-07-31 14:06:47.069893,-74.0
2023-07-31 14:06:47.077583,-64.0
2023-07-31 14:06:47.085272,-64.0
2023-07-31 14:06:47.092961,-57.0
2023-07-31 14:06:47.100651,-50.0
2023-07-31 14:06:47.108340,-45.0
2023-07-31 14:06:47.116029,-38.0
2023-07-31 14:06:47.123719,-26.0
2023-07-31 14:06:47.131408,-16.0
2023-07-31 14:06:47.139098,-7.0
2023-07-31 14:06:47.146787,7.0
2023-07-31 14:06:47.154476,16.0
2023-07-31 14:06:47.162166,31.0
2023-07-31 14:06:47.169855,50.0
2023-07-31 14:06:47.177544,64.0
2023-07-31 14:06:47.185234,81.0
2023-07-31 14:06:47.192923,93.0
2023-07-31 14:06:47.200612,105.0
2023-07-31 14:06:47.208302,114.0
2023-07-31 14:06:47.215991,119.0
2023-07-31 14:06:47.223680,122.0
2023-07-31 14:06:47.231370,119.0
2023-07-31 14:06:47.239059,110.0
2023-07-31 14:06:47.246748,93.0
2023-07-31 14:06:47.254438,55.0
2023-07-31 14:06:47.262127,0.0
2023-07-31 14:06:47.269816,-50.0
2023-07-31 14:06:47.277506,-95.0
2023-07-31 14:06:47.285195,-133.0
2023-07-31 14:06:47.292884,-160.0
2023-07-31 14:06:47.300574,-177.0
2023-07-31 14:06:47.308263,-186.0
2023-07-31 14:06:47.315952,-184.0
2023-07-31 14:06:47.323642,-184.0
2023-07-31 14:06:47.331331,-186.0
2023-07-31 14:06:47.339020,-184.0
2023-07-31 14:06:47.346710,-174.0
2023-07-31 14:06:47.354399,-169.0
2023-07-31 14:06:47.362088,-165.0
2023-07-31 14:06:47.369778,-155.0
2023-07-31 14:06:47.377467,-148.0
2023-07-31 14:06:47.385156,-143.0
2023-07-31 14:06:47.392846,-141.0
2023-07-31 14:06:47.400535,-136.0
2023-07-31 14:06:47.408224,-126.0
2023-07-31 14:06:47.415914,-126.0
2023-07-31 14:06:47.423603,-126.0
2023-07-31 14:06:47.431292,-124.0
2023-07-31 14:06:47.438982,-122.0
2023-07-31 14:06:47.446671,-117.0
2023-07-31 14:06:47.454360,-110.0
2023-07-31 14:06:47.462050,-112.0
2023-07-31 14:06:47.469739,-114.0
2023-07-31 14:06:47.477428,-112.0
2023-07-31 14:06:47.485118,-107.0
2023-07-31 14:06:47.492807,-105.0
2023-07-31 14:06:47.500496,-107.0
2023-07-31 14:06:47.508186,-100.0
2023-07-31 14:06:47.515875,-95.0
2023-07-31 14:06:47.523564,-100.0
2023-07-31 14:06:47.531254,-110.0
2023-07-31 14:06:47.538943,-105.0
2023-07-31 14:06:47.546632,-98.0
2023-07-31 14:06:47.554322,-98.0
2023-07-31 14:06:47.562011,-90.0
2023-07-31 14:06:47.569700,-71.0
2023-07-31 14:06:47.577390,-47.0
2023-07-31 14:06:47.585079,-33.0
2023-07-31 14:06:47.592768,-45.0
2023-07-31 14:06:47.600458,-64.0
2023-07-31 14:06:47.608147,-66.0
2023-07-31 14:06:47.615836,-62.0
2023-07-31 14:06:47.623526,-69.0
2023-07-31 14:06:47.631215,-71.0
2023-07-31 14:06:47.638904,-66.0
2023-07-31 14:06:47.646594,-69.0
2023-07-31 14:06:47.654283,-66.0
2023-07-31 14:06:47.661972,-62.0
2023-07-31 14:06:47.669662,-64.0
2023-07-31 14:06:47.677351,-62.0
2023-07-31 14:06:47.685040,-52.0
2023-07-31 14:06:47.692730,-52.0
2023-07-31 14:06:47.700419,-64.0
2023-07-31 14:06:47.708108,26.0
2023-07-31 14:06:47.715798,411.0
2023-07-31 14:06:47.723487,925.0
2023-07-31 14:06:47.731176,952.0
2023-07-31 14:06:47.738866,177.0
2023-07-31 14:06:47.746555,-480.0
2023-07-31 14:06:47.754244,-267.0
2023-07-31 14:06:47.761934,-7.0
2023-07-31 14:06:47.769623,-136.0
2023-07-31 14:06:47.777312,-148.0
2023-07-31 14:06:47.785002,-57.0
2023-07-31 14:06:47.792691,-81.0
2023-07-31 14:06:47.800380,-102.0
2023-07-31 14:06:47.808070,-76.0
2023-07-31 14:06:47.815759,-78.0
2023-07-31 14:06:47.823448,-90.0
2023-07-31 14:06:47.831138,-81.0
2023-07-31 14:06:47.838827,-64.0
2023-07-31 14:06:47.846516,-62.0
2023-07-31 14:06:47.854206,-59.0
2023-07-31 14:06:47.861895,-50.0
2023-07-31 14:06:47.869584,-38.0
2023-07-31 14:06:47.877274,-33.0
2023-07-31 14:06:47.884963,-21.0
2023-07-31 14:06:47.892653,-9.0
2023-07-31 14:06:47.900342,-2.0
2023-07-31 14:06:47.908031,7.0
2023-07-31 14:06:47.915721,28.0
2023-07-31 14:06:47.923410,45.0
2023-07-31 14:06:47.931099,50.0
2023-07-31 14:06:47.938789,62.0
2023-07-31 14:06:47.946478,90.0
2023-07-31 14:06:47.954167,110.0
2023-07-31 14:06:47.961857,114.0
2023-07-31 14:06:47.969546,126.0
2023-07-31 14:06:47.977235,136.0
2023-07-31 14:06:47.984925,138.0
2023-07-31 14:06:47.992614,138.0
2023-07-31 14:06:48.000303,129.0
2023-07-31 14:06:48.007993,112.0
2023-07-31 14:06:48.015682,83.0
2023-07-31 14:06:48.023371,33.0
2023-07-31 14:06:48.031061,-26.0
2023-07-31 14:06:48.038750,-78.0
2023-07-31 14:06:48.046439,-117.0
2023-07-31 14:06:48.054129,-141.0
2023-07-31 14:06:48.061818,-160.0
2023-07-31 14:06:48.069507,-169.0
2023-07-31 14:06:48.077197,-169.0
2023-07-31 14:06:48.084886,-169.0
2023-07-31 14:06:48.092575,-169.0
2023-07-31 14:06:48.100265,-169.0
2023-07-31 14:06:48.107954,-162.0
2023-07-31 14:06:48.115643,-143.0
2023-07-31 14:06:48.123333,-138.0
2023-07-31 14:06:48.131022,-145.0
2023-07-31 14:06:48.138711,-143.0
2023-07-31 14:06:48.146401,-136.0
2023-07-31 14:06:48.154090,-131.0
2023-07-31 14:06:48.161779,-119.0
2023-07-31 14:06:48.169469,-110.0
2023-07-31 14:06:48.177158,-114.0
2023-07-31 14:06:48.184847,-112.0
2023-07-31 14:06:48.192537,-112.0
2023-07-31 14:06:48.200226,-114.0
2023-07-31 14:06:48.207915,-112.0
2023-07-31 14:06:48.215605,-114.0
2023-07-31 14:06:48.223294,-119.0
2023-07-31 14:06:48.230983,-110.0
2023-07-31 14:06:48.238673,-102.0
2023-07-31 14:06:48.246362,-110.0
2023-07-31 14:06:48.254051,-110.0
2023-07-31 14:06:48.261741,-110.0
2023-07-31 14:06:48.269430,-114.0
2023-07-31 14:06:48.277119,-112.0
2023-07-31 14:06:48.284809,-100.0
2023-07-31 14:06:48.292498,-86.0
2023-07-31 14:06:48.300187,-71.0
2023-07-31 14:06:48.307877,-59.0
2023-07-31 14:06:48.315566,-62.0
2023-07-31 14:06:48.323255,-69.0
2023-07-31 14:06:48.330945,-83.0
2023-07-31 14:06:48.338634,-95.0
2023-07-31 14:06:48.346323,-100.0
2023-07-31 14:06:48.354013,-102.0
2023-07-31 14:06:48.361702,-105.0
2023-07-31 14:06:48.369391,-110.0
2023-07-31 14:06:48.377081,-107.0
2023-07-31 14:06:48.384770,-102.0
2023-07-31 14:06:48.392459,-105.0
2023-07-31 14:06:48.400149,-100.0
2023-07-31 14:06:48.407838,-90.0
2023-07-31 14:06:48.415527,-93.0
2023-07-31 14:06:48.423217,-93.0
2023-07-31 14:06:48.430906,-100.0
2023-07-31 14:06:48.438595,-83.0
2023-07-31 14:06:48.446285,184.0
2023-07-31 14:06:48.453974,775.0
2023-07-31 14:06:48.461663,1129.0
2023-07-31 14:06:48.469353,555.0
2023-07-31 14:06:48.477042,-387.0
2023-07-31 14:06:48.484731,-447.0
2023-07-31 14:06:48.492421,-47.0
2023-07-31 14:06:48.500110,-110.0
2023-07-31 14:06:48.507799,-215.0
2023-07-31 14:06:48.515489,-100.0
2023-07-31 14:06:48.523178,-93.0
2023-07-31 14:06:48.530867,-138.0
2023-07-31 14:06:48.538557,-102.0
2023-07-31 14:06:48.546246,-83.0
2023-07-31 14:06:48.553935,-98.0
2023-07-31 14:06:48.561625,-86.0
2023-07-31 14:06:48.569314,-71.0
2023-07-31 14:06:48.577003,-66.0
2023-07-31 14:06:48.584693,-59.0
2023-07-31 14:06:48.592382,-52.0
2023-07-31 14:06:48.600071,-47.0
2023-07-31 14:06:48.607761,-38.0
2023-07-31 14:06:48.615450,-26.0
2023-07-31 14:06:48.623139,-14.0
2023-07-31 14:06:48.630829,-2.0
2023-07-31 14:06:48.638518,7.0
2023-07-31 14:06:48.646208,19.0
2023-07-31 14:06:48.653897,35.0
2023-07-31 14:06:48.661586,50.0
2023-07-31 14:06:48.669276,64.0
2023-07-31 14:06:48.676965,78.0
2023-07-31 14:06:48.684654,90.0
2023-07-31 14:06:48.692344,105.0
2023-07-31 14:06:48.700033,114.0
2023-07-31 14:06:48.707722,117.0
2023-07-31 14:06:48.715412,122.0
2023-07-31 14:06:48.723101,124.0
2023-07-31 14:06:48.730790,114.0
2023-07-31 14:06:48.738480,95.0
2023-07-31 14:06:48.746169,66.0
2023-07-31 14:06:48.753858,21.0
2023-07-31 14:06:48.761548,-33.0
2023-07-31 14:06:48.769237,-81.0
2023-07-31 14:06:48.776926,-122.0
2023-07-31 14:06:48.784616,-150.0
2023-07-31 14:06:48.792305,-165.0
2023-07-31 14:06:48.799994,-172.0
2023-07-31 14:06:48.807684,-177.0
2023-07-31 14:06:48.815373,-181.0
2023-07-31 14:06:48.823062,-179.0
2023-07-31 14:06:48.830752,-174.0
2023-07-31 14:06:48.838441,-172.0
2023-07-31 14:06:48.846130,-165.0
2023-07-31 14:06:48.853820,-155.0
2023-07-31 14:06:48.861509,-153.0
2023-07-31 14:06:48.869198,-148.0
2023-07-31 14:06:48.876888,-141.0
2023-07-31 14:06:48.884577,-138.0
2023-07-31 14:06:48.892266,-133.0
2023-07-31 14:06:48.899956,-129.0
2023-07-31 14:06:48.907645,-126.0
2023-07-31 14:06:48.915334,-129.0
2023-07-31 14:06:48.923024,-129.0
2023-07-31 14:06:48.930713,-126.0
2023-07-31 14:06:48.938402,-126.0
2023-07-31 14:06:48.946092,-133.0
2023-07-31 14:06:48.953781,-141.0
2023-07-31 14:06:48.961470,-136.0
2023-07-31 14:06:48.969160,-133.0
2023-07-31 14:06:48.976849,-136.0
2023-07-31 14:06:48.984538,-131.0
2023-07-31 14:06:48.992228,-129.0
2023-07-31 14:06:48.999917,-126.0
2023-07-31 14:06:49.007606,-124.0
2023-07-31 14:06:49.015296,-126.0
2023-07-31 14:06:49.022985,-136.0
2023-07-31 14:06:49.030674,-138.0
2023-07-31 14:06:49.038364,-136.0
2023-07-31 14:06:49.046053,-129.0
2023-07-31 14:06:49.053742,-114.0
2023-07-31 14:06:49.061432,-90.0
2023-07-31 14:06:49.069121,-69.0
2023-07-31 14:06:49.076810,-66.0
2023-07-31 14:06:49.084500,-78.0
2023-07-31 14:06:49.092189,-90.0
2023-07-31 14:06:49.099878,-100.0
2023-07-31 14:06:49.107568,-102.0
2023-07-31 14:06:49.115257,-98.0
2023-07-31 14:06:49.122946,-98.0
2023-07-31 14:06:49.130636,-98.0
2023-07-31 14:06:49.138325,-98.0
2023-07-31 14:06:49.146014,-98.0
2023-07-31 14:06:49.153704,-95.0
2023-07-31 14:06:49.161393,-88.0
2023-07-31 14:06:49.169082,-83.0
2023-07-31 14:06:49.176772,-81.0
2023-07-31 14:06:49.184461,-90.0
2023-07-31 14:06:49.192150,-81.0
2023-07-31 14:06:49.199840,136.0
2023-07-31 14:06:49.207529,636.0
2023-07-31 14:06:49.215218,1031.0
2023-07-31 14:06:49.222908,689.0
2023-07-31 14:06:49.230597,-208.0
2023-07-31 14:06:49.238286,-497.0
2023-07-31 14:06:49.245976,-129.0
2023-07-31 14:06:49.253665,-59.0
2023-07-31 14:06:49.261354,-193.0
2023-07-31 14:06:49.269044,-133.0
2023-07-31 14:06:49.276733,-90.0
2023-07-31 14:06:49.284422,-131.0
2023-07-31 14:06:49.292112,-114.0
2023-07-31 14:06:49.299801,-83.0
2023-07-31 14:06:49.307490,-90.0
2023-07-31 14:06:49.315180,-88.0
2023-07-31 14:06:49.322869,-76.0
2023-07-31 14:06:49.330558,-81.0
2023-07-31 14:06:49.338248,-81.0
2023-07-31 14:06:49.345937,-64.0
2023-07-31 14:06:49.353626,-57.0
2023-07-31 14:06:49.361316,-52.0
2023-07-31 14:06:49.369005,-40.0
2023-07-31 14:06:49.376694,-28.0
2023-07-31 14:06:49.384384,-19.0
2023-07-31 14:06:49.392073,-9.0
2023-07-31 14:06:49.399763,2.0
2023-07-31 14:06:49.407452,16.0
2023-07-31 14:06:49.415141,33.0
2023-07-31 14:06:49.422831,52.0
2023-07-31 14:06:49.430520,71.0
2023-07-31 14:06:49.438209,90.0
2023-07-31 14:06:49.445899,102.0
2023-07-31 14:06:49.453588,112.0
2023-07-31 14:06:49.461277,124.0
2023-07-31 14:06:49.468967,129.0
2023-07-31 14:06:49.476656,129.0
2023-07-31 14:06:49.484345,126.0
2023-07-31 14:06:49.492035,112.0
2023-07-31 14:06:49.499724,81.0
2023-07-31 14:06:49.507413,31.0
2023-07-31 14:06:49.515103,-26.0
2023-07-31 14:06:49.522792,-76.0
2023-07-31 14:06:49.530481,-119.0
2023-07-31 14:06:49.538171,-155.0
2023-07-31 14:06:49.545860,-174.0
2023-07-31 14:06:49.553549,-181.0
2023-07-31 14:06:49.561239,-186.0
2023-07-31 14:06:49.568928,-189.0
2023-07-31 14:06:49.576617,-186.0
2023-07-31 14:06:49.584307,-181.0
2023-07-31 14:06:49.591996,-177.0
2023-07-31 14:06:49.599685,-169.0
2023-07-31 14:06:49.607375,-167.0
2023-07-31 14:06:49.615064,-160.0
2023-07-31 14:06:49.622753,-155.0
2023-07-31 14:06:49.630443,-153.0
2023-07-31 14:06:49.638132,-153.0
2023-07-31 14:06:49.645821,-145.0
2023-07-31 14:06:49.653511,-141.0
2023-07-31 14:06:49.661200,-138.0
2023-07-31 14:06:49.668889,-129.0
2023-07-31 14:06:49.676579,-124.0
2023-07-31 14:06:49.684268,-126.0
2023-07-31 14:06:49.691957,-126.0
2023-07-31 14:06:49.699647,-122.0
2023-07-31 14:06:49.707336,-119.0
2023-07-31 14:06:49.715025,-122.0
2023-07-31 14:06:49.722715,-122.0
2023-07-31 14:06:49.730404,-122.0
2023-07-31 14:06:49.738093,-122.0
2023-07-31 14:06:49.745783,-117.0
2023-07-31 14:06:49.753472,-110.0
2023-07-31 14:06:49.761161,-114.0
2023-07-31 14:06:49.768851,-124.0
2023-07-31 14:06:49.776540,-126.0
2023-07-31 14:06:49.784229,-124.0
2023-07-31 14:06:49.791919,-122.0
2023-07-31 14:06:49.799608,-107.0
2023-07-31 14:06:49.807297,-86.0
2023-07-31 14:06:49.814987,-69.0
2023-07-31 14:06:49.822676,-57.0
2023-07-31 14:06:49.830365,-64.0
2023-07-31 14:06:49.838055,-90.0
2023-07-31 14:06:49.845744,-105.0
2023-07-31 14:06:49.853433,-102.0
2023-07-31 14:06:49.861123,-100.0
2023-07-31 14:06:49.868812,-102.0
2023-07-31 14:06:49.876501,-102.0
2023-07-31 14:06:49.884191,-100.0
2023-07-31 14:06:49.891880,-100.0
2023-07-31 14:06:49.899569,-93.0
2023-07-31 14:06:49.907259,-90.0
2023-07-31 14:06:49.914948,-93.0
2023-07-31 14:06:49.922637,-95.0
2023-07-31 14:06:49.930327,-95.0
2023-07-31 14:06:49.938016,-105.0
2023-07-31 14:06:49.945705,-7.0
2023-07-31 14:06:49.953395,378.0
2023-07-31 14:06:49.961084,892.0
2023-07-31 14:06:49.968773,933.0
2023-07-31 14:06:49.976463,172.0
2023-07-31 14:06:49.984152,-502.0
2023-07-31 14:06:49.991841,-313.0
2023-07-31 14:06:49.999531,-38.0
2023-07-31 14:06:50.007220,-157.0
2023-07-31 14:06:50.014909,-181.0
2023-07-31 14:06:50.022599,-95.0
2023-07-31 14:06:50.030288,-122.0
2023-07-31 14:06:50.037977,-143.0
2023-07-31 14:06:50.045667,-107.0
2023-07-31 14:06:50.053356,-105.0
2023-07-31 14:06:50.061045,-110.0
2023-07-31 14:06:50.068735,-90.0
2023-07-31 14:06:50.076424,-86.0
2023-07-31 14:06:50.084113,-83.0
2023-07-31 14:06:50.091803,-66.0
2023-07-31 14:06:50.099492,-59.0
2023-07-31 14:06:50.107181,-55.0
2023-07-31 14:06:50.114871,-45.0
2023-07-31 14:06:50.122560,-40.0
2023-07-31 14:06:50.130249,-33.0
2023-07-31 14:06:50.137939,-14.0
2023-07-31 14:06:50.145628,-2.0
2023-07-31 14:06:50.153318,7.0
2023-07-31 14:06:50.161007,19.0
2023-07-31 14:06:50.168696,38.0
2023-07-31 14:06:50.176386,59.0
2023-07-31 14:06:50.184075,74.0
2023-07-31 14:06:50.191764,88.0
2023-07-31 14:06:50.199454,107.0
2023-07-31 14:06:50.207143,117.0
2023-07-31 14:06:50.214832,119.0
2023-07-31 14:06:50.222522,122.0
2023-07-31 14:06:50.230211,126.0
2023-07-31 14:06:50.237900,122.0
2023-07-31 14:06:50.245590,100.0
2023-07-31 14:06:50.253279,55.0
2023-07-31 14:06:50.260968,2.0
2023-07-31 14:06:50.268658,-45.0
2023-07-31 14:06:50.276347,-90.0
2023-07-31 14:06:50.284036,-124.0
2023-07-31 14:06:50.291726,-148.0
2023-07-31 14:06:50.299415,-162.0
2023-07-31 14:06:50.307104,-169.0
2023-07-31 14:06:50.314794,-172.0
2023-07-31 14:06:50.322483,-169.0
2023-07-31 14:06:50.330172,-169.0
2023-07-31 14:06:50.337862,-172.0
2023-07-31 14:06:50.345551,-172.0
2023-07-31 14:06:50.353240,-165.0
2023-07-31 14:06:50.360930,-160.0
2023-07-31 14:06:50.368619,-157.0
2023-07-31 14:06:50.376308,-148.0
2023-07-31 14:06:50.383998,-143.0
2023-07-31 14:06:50.391687,-143.0
2023-07-31 14:06:50.399376,-138.0
2023-07-31 14:06:50.407066,-131.0
2023-07-31 14:06:50.414755,-126.0
2023-07-31 14:06:50.422444,-124.0
2023-07-31 14:06:50.430134,-122.0
2023-07-31 14:06:50.437823,-122.0
2023-07-31 14:06:50.445512,-122.0
2023-07-31 14:06:50.453202,-122.0
2023-07-31 14:06:50.460891,-119.0
2023-07-31 14:06:50.468580,-117.0
2023-07-31 14:06:50.476270,-117.0
2023-07-31 14:06:50.483959,-117.0
2023-07-31 14:06:50.491648,-114.0
2023-07-31 14:06:50.499338,-112.0
2023-07-31 14:06:50.507027,-114.0
2023-07-31 14:06:50.514716,-114.0
2023-07-31 14:06:50.522406,-122.0
2023-07-31 14:06:50.530095,-129.0
2023-07-31 14:06:50.537784,-126.0
2023-07-31 14:06:50.545474,-112.0
2023-07-31 14:06:50.553163,-102.0
2023-07-31 14:06:50.560852,-88.0
2023-07-31 14:06:50.568542,-69.0
2023-07-31 14:06:50.576231,-57.0
2023-07-31 14:06:50.583920,-57.0
2023-07-31 14:06:50.591610,-71.0
2023-07-31 14:06:50.599299,-83.0
2023-07-31 14:06:50.606988,-86.0
2023-07-31 14:06:50.614678,-86.0
2023-07-31 14:06:50.622367,-86.0
2023-07-31 14:06:50.630056,-81.0
2023-07-31 14:06:50.637746,-81.0
2023-07-31 14:06:50.645435,-83.0
2023-07-31 14:06:50.653124,-81.0
2023-07-31 14:06:50.660814,-86.0
2023-07-31 14:06:50.668503,-86.0
2023-07-31 14:06:50.676192,-76.0
2023-07-31 14:06:50.683882,-76.0
2023-07-31 14:06:50.691571,-95.0
2023-07-31 14:06:50.699260,-28.0
2023-07-31 14:06:50.706950,322.0
2023-07-31 14:06:50.714639,854.0
2023-07-31 14:06:50.722328,988.0
2023-07-31 14:06:50.730018,296.0
2023-07-31 14:06:50.737707,-459.0
2023-07-31 14:06:50.745396,-351.0
2023-07-31 14:06:50.753086,-35.0
2023-07-31 14:06:50.760775,-129.0
2023-07-31 14:06:50.768464,-177.0
2023-07-31 14:06:50.776154,-83.0
2023-07-31 14:06:50.783843,-95.0
2023-07-31 14:06:50.791532,-122.0
2023-07-31 14:06:50.799222,-88.0
2023-07-31 14:06:50.806911,-76.0
2023-07-31 14:06:50.814600,-81.0
2023-07-31 14:06:50.822290,-71.0
2023-07-31 14:06:50.829979,-59.0
2023-07-31 14:06:50.837668,-55.0
2023-07-31 14:06:50.845358,-50.0
2023-07-31 14:06:50.853047,-52.0
2023-07-31 14:06:50.860736,-43.0
2023-07-31 14:06:50.868426,-26.0
2023-07-31 14:06:50.876115,-23.0
2023-07-31 14:06:50.883804,-21.0
2023-07-31 14:06:50.891494,-7.0
2023-07-31 14:06:50.899183,11.0
2023-07-31 14:06:50.906872,26.0
2023-07-31 14:06:50.914562,38.0
2023-07-31 14:06:50.922251,55.0
2023-07-31 14:06:50.929941,76.0
2023-07-31 14:06:50.937630,93.0
2023-07-31 14:06:50.945319,110.0
2023-07-31 14:06:50.953009,129.0
2023-07-31 14:06:50.960698,136.0
2023-07-31 14:06:50.968387,138.0
2023-07-31 14:06:50.976077,145.0
2023-07-31 14:06:50.983766,150.0
2023-07-31 14:06:50.991455,141.0
2023-07-31 14:06:50.999145,122.0
2023-07-31 14:06:51.006834,93.0
2023-07-31 14:06:51.014523,40.0
2023-07-31 14:06:51.022213,-19.0
2023-07-31 14:06:51.029902,-71.0
2023-07-31 14:06:51.037591,-110.0
2023-07-31 14:06:51.045281,-136.0
2023-07-31 14:06:51.052970,-150.0
2023-07-31 14:06:51.060659,-157.0
2023-07-31 14:06:51.068349,-162.0
2023-07-31 14:06:51.076038,-162.0
2023-07-31 14:06:51.083727,-162.0
2023-07-31 14:06:51.091417,-155.0
2023-07-31 14:06:51.099106,-150.0
2023-07-31 14:06:51.106795,-155.0
2023-07-31 14:06:51.114485,-153.0
2023-07-31 14:06:51.122174,-141.0
2023-07-31 14:06:51.129863,-131.0
2023-07-31 14:06:51.137553,-129.0
2023-07-31 14:06:51.145242,-126.0
2023-07-31 14:06:51.152931,-122.0
2023-07-31 14:06:51.160621,-122.0
2023-07-31 14:06:51.168310,-122.0
2023-07-31 14:06:51.175999,-112.0
2023-07-31 14:06:51.183689,-105.0
2023-07-31 14:06:51.191378,-107.0
2023-07-31 14:06:51.199067,-122.0
2023-07-31 14:06:51.206757,-131.0
2023-07-31 14:06:51.214446,-124.0
2023-07-31 14:06:51.222135,-119.0
2023-07-31 14:06:51.229825,-122.0
2023-07-31 14:06:51.237514,-122.0
2023-07-31 14:06:51.245203,-122.0
2023-07-31 14:06:51.252893,-126.0
2023-07-31 14:06:51.260582,-124.0
2023-07-31 14:06:51.268271,-122.0
2023-07-31 14:06:51.275961,-107.0
2023-07-31 14:06:51.283650,-86.0
2023-07-31 14:06:51.291339,-78.0
2023-07-31 14:06:51.299029,-76.0
2023-07-31 14:06:51.306718,-66.0
2023-07-31 14:06:51.314407,-74.0
2023-07-31 14:06:51.322097,-93.0
2023-07-31 14:06:51.329786,-107.0
2023-07-31 14:06:51.337475,-110.0
2023-07-31 14:06:51.345165,-112.0
2023-07-31 14:06:51.352854,-119.0
2023-07-31 14:06:51.360543,-119.0
2023-07-31 14:06:51.368233,-110.0
2023-07-31 14:06:51.375922,-107.0
2023-07-31 14:06:51.383611,-107.0
2023-07-31 14:06:51.391301,-105.0
2023-07-31 14:06:51.398990,-105.0
2023-07-31 14:06:51.406679,-105.0
2023-07-31 14:06:51.414369,-98.0
2023-07-31 14:06:51.422058,-114.0
2023-07-31 14:06:51.429747,-59.0
2023-07-31 14:06:51.437437,318.0
2023-07-31 14:06:51.445126,925.0
2023-07-31 14:06:51.452815,1069.0
2023-07-31 14:06:51.460505,284.0
2023-07-31 14:06:51.468194,-521.0
2023-07-31 14:06:51.475883,-356.0
2023-07-31 14:06:51.483573,-35.0
2023-07-31 14:06:51.491262,-184.0
2023-07-31 14:06:51.498951,-210.0
2023-07-31 14:06:51.506641,-86.0
2023-07-31 14:06:51.514330,-119.0
2023-07-31 14:06:51.522019,-150.0
2023-07-31 14:06:51.529709,-100.0
2023-07-31 14:06:51.537398,-90.0
2023-07-31 14:06:51.545087,-100.0
2023-07-31 14:06:51.552777,-88.0
2023-07-31 14:06:51.560466,-81.0
2023-07-31 14:06:51.568155,-74.0
2023-07-31 14:06:51.575845,-59.0
2023-07-31 14:06:51.583534,-50.0
2023-07-31 14:06:51.591223,-47.0
2023-07-31 14:06:51.598913,-35.0
2023-07-31 14:06:51.606602,-21.0
2023-07-31 14:06:51.614291,-16.0
2023-07-31 14:06:51.621981,-7.0
2023-07-31 14:06:51.629670,9.0
2023-07-31 14:06:51.637359,23.0
2023-07-31 14:06:51.645049,38.0
2023-07-31 14:06:51.652738,52.0
2023-07-31 14:06:51.660427,74.0
2023-07-31 14:06:51.668117,95.0
2023-07-31 14:06:51.675806,107.0
2023-07-31 14:06:51.683496,114.0
2023-07-31 14:06:51.691185,124.0
2023-07-31 14:06:51.698874,133.0
2023-07-31 14:06:51.706564,138.0
2023-07-31 14:06:51.714253,136.0
2023-07-31 14:06:51.721942,129.0
2023-07-31 14:06:51.729632,105.0
2023-07-31 14:06:51.737321,57.0
2023-07-31 14:06:51.745010,-2.0
2023-07-31 14:06:51.752700,-50.0
2023-07-31 14:06:51.760389,-95.0
2023-07-31 14:06:51.768078,-136.0
2023-07-31 14:06:51.775768,-160.0
2023-07-31 14:06:51.783457,-169.0
2023-07-31 14:06:51.791146,-177.0
2023-07-31 14:06:51.798836,-179.0
2023-07-31 14:06:51.806525,-179.0
2023-07-31 14:06:51.814214,-177.0
2023-07-31 14:06:51.821904,-172.0
2023-07-31 14:06:51.829593,-165.0
2023-07-31 14:06:51.837282,-160.0
2023-07-31 14:06:51.844972,-155.0
2023-07-31 14:06:51.852661,-155.0
2023-07-31 14:06:51.860350,-155.0
2023-07-31 14:06:51.868040,-148.0
2023-07-31 14:06:51.875729,-141.0
2023-07-31 14:06:51.883418,-141.0
2023-07-31 14:06:51.891108,-138.0
2023-07-31 14:06:51.898797,-129.0
2023-07-31 14:06:51.906486,-126.0
2023-07-31 14:06:51.914176,-133.0
2023-07-31 14:06:51.921865,-138.0
2023-07-31 14:06:51.929554,-133.0
2023-07-31 14:06:51.937244,-129.0
2023-07-31 14:06:51.944933,-131.0
2023-07-31 14:06:51.952622,-131.0
2023-07-31 14:06:51.960312,-131.0
2023-07-31 14:06:51.968001,-131.0
2023-07-31 14:06:51.975690,-126.0
2023-07-31 14:06:51.983380,-124.0
2023-07-31 14:06:51.991069,-131.0
2023-07-31 14:06:51.998758,-136.0
2023-07-31 14:06:52.006448,-141.0
2023-07-31 14:06:52.014137,-138.0
2023-07-31 14:06:52.021826,-129.0
2023-07-31 14:06:52.029516,-112.0
2023-07-31 14:06:52.037205,-93.0
2023-07-31 14:06:52.044894,-74.0
2023-07-31 14:06:52.052584,-66.0
2023-07-31 14:06:52.060273,-74.0
2023-07-31 14:06:52.067962,-86.0
2023-07-31 14:06:52.075652,-98.0
2023-07-31 14:06:52.083341,-100.0
2023-07-31 14:06:52.091030,-98.0
2023-07-31 14:06:52.098720,-100.0
2023-07-31 14:06:52.106409,-102.0
2023-07-31 14:06:52.114098,-98.0
2023-07-31 14:06:52.121788,-93.0
2023-07-31 14:06:52.129477,-93.0
2023-07-31 14:06:52.137166,-93.0
2023-07-31 14:06:52.144856,-93.0
2023-07-31 14:06:52.152545,-88.0
2023-07-31 14:06:52.160234,-90.0
2023-07-31 14:06:52.167924,-100.0
2023-07-31 14:06:52.175613,45.0
2023-07-31 14:06:52.183302,497.0
2023-07-31 14:06:52.190992,992.0
2023-07-31 14:06:52.198681,887.0
2023-07-31 14:06:52.206370,26.0
2023-07-31 14:06:52.214060,-528.0
2023-07-31 14:06:52.221749,-236.0
2023-07-31 14:06:52.229438,-35.0
2023-07-31 14:06:52.237128,-189.0
2023-07-31 14:06:52.244817,-174.0
2023-07-31 14:06:52.252506,-90.0
2023-07-31 14:06:52.260196,-129.0
2023-07-31 14:06:52.267885,-136.0
2023-07-31 14:06:52.275574,-98.0
2023-07-31 14:06:52.283264,-100.0
2023-07-31 14:06:52.290953,-107.0
2023-07-31 14:06:52.298642,-83.0
2023-07-31 14:06:52.306332,-74.0
2023-07-31 14:06:52.314021,-76.0
2023-07-31 14:06:52.321710,-76.0
2023-07-31 14:06:52.329400,-76.0
2023-07-31 14:06:52.337089,-66.0
2023-07-31 14:06:52.344778,-52.0
2023-07-31 14:06:52.352468,-50.0
2023-07-31 14:06:52.360157,-43.0
2023-07-31 14:06:52.367846,-31.0
2023-07-31 14:06:52.375536,-16.0
2023-07-31 14:06:52.383225,-2.0
2023-07-31 14:06:52.390914,14.0
2023-07-31 14:06:52.398604,31.0
2023-07-31 14:06:52.406293,52.0
2023-07-31 14:06:52.413982,69.0
2023-07-31 14:06:52.421672,83.0
2023-07-31 14:06:52.429361,98.0
2023-07-31 14:06:52.437051,110.0
2023-07-31 14:06:52.444740,114.0
2023-07-31 14:06:52.452429,122.0
2023-07-31 14:06:52.460119,122.0
2023-07-31 14:06:52.467808,110.0
2023-07-31 14:06:52.475497,81.0
2023-07-31 14:06:52.483187,35.0
2023-07-31 14:06:52.490876,-16.0
2023-07-31 14:06:52.498565,-66.0
2023-07-31 14:06:52.506255,-110.0
2023-07-31 14:06:52.513944,-141.0
2023-07-31 14:06:52.521633,-157.0
2023-07-31 14:06:52.529323,-169.0
2023-07-31 14:06:52.537012,-179.0
2023-07-31 14:06:52.544701,-179.0
2023-07-31 14:06:52.552391,-172.0
2023-07-31 14:06:52.560080,-174.0
2023-07-31 14:06:52.567769,-174.0
2023-07-31 14:06:52.575459,-169.0
2023-07-31 14:06:52.583148,-165.0
2023-07-31 14:06:52.590837,-160.0
2023-07-31 14:06:52.598527,-157.0
2023-07-31 14:06:52.606216,-155.0
2023-07-31 14:06:52.613905,-150.0
2023-07-31 14:06:52.621595,-145.0
2023-07-31 14:06:52.629284,-141.0
2023-07-31 14:06:52.636973,-136.0
2023-07-31 14:06:52.644663,-136.0
2023-07-31 14:06:52.652352,-133.0
2023-07-31 14:06:52.660041,-129.0
2023-07-31 14:06:52.667731,-126.0
2023-07-31 14:06:52.675420,-126.0
2023-07-31 14:06:52.683109,-126.0
2023-07-31 14:06:52.690799,-124.0
2023-07-31 14:06:52.698488,-122.0
2023-07-31 14:06:52.706177,-122.0
2023-07-31 14:06:52.713867,-124.0
2023-07-31 14:06:52.721556,-124.0
2023-07-31 14:06:52.729245,-122.0
2023-07-31 14:06:52.736935,-119.0
2023-07-31 14:06:52.744624,-124.0
2023-07-31 14:06:52.752313,-131.0
2023-07-31 14:06:52.760003,-131.0
2023-07-31 14:06:52.767692,-129.0
2023-07-31 14:06:52.775381,-119.0
2023-07-31 14:06:52.783071,-102.0
2023-07-31 14:06:52.790760,-86.0
2023-07-31 14:06:52.798449,-71.0
2023-07-31 14:06:52.806139,-59.0
2023-07-31 14:06:52.813828,-64.0
2023-07-31 14:06:52.821517,-81.0
2023-07-31 14:06:52.829207,-90.0
2023-07-31 14:06:52.836896,-95.0
2023-07-31 14:06:52.844585,-98.0
2023-07-31 14:06:52.852275,-100.0
2023-07-31 14:06:52.859964,-107.0
2023-07-31 14:06:52.867653,-110.0
2023-07-31 14:06:52.875343,-110.0
2023-07-31 14:06:52.883032,-107.0
2023-07-31 14:06:52.890721,-102.0
2023-07-31 14:06:52.898411,-98.0
2023-07-31 14:06:52.906100,-95.0
2023-07-31 14:06:52.913789,-100.0
2023-07-31 14:06:52.921479,-110.0
2023-07-31 14:06:52.929168,2.0
2023-07-31 14:06:52.936857,413.0
2023-07-31 14:06:52.944547,925.0
2023-07-31 14:06:52.952236,909.0
2023-07-31 14:06:52.959925,100.0
2023-07-31 14:06:52.967615,-526.0
2023-07-31 14:06:52.975304,-289.0
2023-07-31 14:06:52.982993,-43.0
2023-07-31 14:06:52.990683,-174.0
2023-07-31 14:06:52.998372,-181.0
2023-07-31 14:06:53.006061,-93.0
2023-07-31 14:06:53.013751,-119.0
2023-07-31 14:06:53.021440,-136.0
2023-07-31 14:06:53.029129,-95.0
2023-07-31 14:06:53.036819,-88.0
2023-07-31 14:06:53.044508,-95.0
2023-07-31 14:06:53.052197,-83.0
2023-07-31 14:06:53.059887,-74.0
2023-07-31 14:06:53.067576,-71.0
2023-07-31 14:06:53.075265,-64.0
2023-07-31 14:06:53.082955,-52.0
2023-07-31 14:06:53.090644,-45.0
2023-07-31 14:06:53.098333,-38.0
2023-07-31 14:06:53.106023,-28.0
2023-07-31 14:06:53.113712,-19.0
2023-07-31 14:06:53.121401,-4.0
2023-07-31 14:06:53.129091,4.0
2023-07-31 14:06:53.136780,16.0
2023-07-31 14:06:53.144469,33.0
2023-07-31 14:06:53.152159,50.0
2023-07-31 14:06:53.159848,66.0
2023-07-31 14:06:53.167537,86.0
2023-07-31 14:06:53.175227,105.0
2023-07-31 14:06:53.182916,117.0
2023-07-31 14:06:53.190606,126.0
2023-07-31 14:06:53.198295,133.0
2023-07-31 14:06:53.205984,133.0
2023-07-31 14:06:53.213674,136.0
2023-07-31 14:06:53.221363,131.0
2023-07-31 14:06:53.229052,107.0
2023-07-31 14:06:53.236742,66.0
2023-07-31 14:06:53.244431,14.0
2023-07-31 14:06:53.252120,-40.0
2023-07-31 14:06:53.259810,-81.0
2023-07-31 14:06:53.267499,-114.0
2023-07-31 14:06:53.275188,-141.0
2023-07-31 14:06:53.282878,-153.0
2023-07-31 14:06:53.290567,-160.0
2023-07-31 14:06:53.298256,-165.0
2023-07-31 14:06:53.305946,-162.0
2023-07-31 14:06:53.313635,-160.0
2023-07-31 14:06:53.321324,-160.0
2023-07-31 14:06:53.329014,-160.0
2023-07-31 14:06:53.336703,-155.0
2023-07-31 14:06:53.344392,-148.0
2023-07-31 14:06:53.352082,-143.0
2023-07-31 14:06:53.359771,-148.0
2023-07-31 14:06:53.367460,-150.0
2023-07-31 14:06:53.375150,-143.0
2023-07-31 14:06:53.382839,-136.0
2023-07-31 14:06:53.390528,-133.0
2023-07-31 14:06:53.398218,-136.0
2023-07-31 14:06:53.405907,-141.0
2023-07-31 14:06:53.413596,-136.0
2023-07-31 14:06:53.421286,-133.0
2023-07-31 14:06:53.428975,-136.0
2023-07-31 14:06:53.436664,-136.0
2023-07-31 14:06:53.444354,-131.0
2023-07-31 14:06:53.452043,-131.0
2023-07-31 14:06:53.459732,-133.0
2023-07-31 14:06:53.467422,-131.0
2023-07-31 14:06:53.475111,-129.0
2023-07-31 14:06:53.482800,-129.0
2023-07-31 14:06:53.490490,-124.0
2023-07-31 14:06:53.498179,-122.0
2023-07-31 14:06:53.505868,-124.0
2023-07-31 14:06:53.513558,-126.0
2023-07-31 14:06:53.521247,-129.0
2023-07-31 14:06:53.528936,-129.0
2023-07-31 14:06:53.536626,-126.0
2023-07-31 14:06:53.544315,-114.0
2023-07-31 14:06:53.552004,-93.0
2023-07-31 14:06:53.559694,-74.0
2023-07-31 14:06:53.567383,-62.0
2023-07-31 14:06:53.575072,-66.0
2023-07-31 14:06:53.582762,-81.0
2023-07-31 14:06:53.590451,-93.0
2023-07-31 14:06:53.598140,-95.0
2023-07-31 14:06:53.605830,-90.0
2023-07-31 14:06:53.613519,-90.0
2023-07-31 14:06:53.621208,-98.0
2023-07-31 14:06:53.628898,-95.0
2023-07-31 14:06:53.636587,-90.0
2023-07-31 14:06:53.644276,-90.0
2023-07-31 14:06:53.651966,-90.0
2023-07-31 14:06:53.659655,-86.0
2023-07-31 14:06:53.667344,-78.0
2023-07-31 14:06:53.675034,-76.0
2023-07-31 14:06:53.682723,-90.0
2023-07-31 14:06:53.690412,-31.0
2023-07-31 14:06:53.698102,299.0
2023-07-31 14:06:53.705791,813.0
2023-07-31 14:06:53.713480,983.0
2023-07-31 14:06:53.721170,339.0
2023-07-31 14:06:53.728859,-440.0
2023-07-31 14:06:53.736548,-373.0
2023-07-31 14:06:53.744238,-38.0
2023-07-31 14:06:53.751927,-122.0
2023-07-31 14:06:53.759616,-184.0
2023-07-31 14:06:53.767306,-83.0
2023-07-31 14:06:53.774995,-86.0
2023-07-31 14:06:53.782684,-124.0
2023-07-31 14:06:53.790374,-95.0
2023-07-31 14:06:53.798063,-76.0
2023-07-31 14:06:53.805752,-86.0
2023-07-31 14:06:53.813442,-78.0
2023-07-31 14:06:53.821131,-59.0
2023-07-31 14:06:53.828820,-52.0
2023-07-31 14:06:53.836510,-47.0
2023-07-31 14:06:53.844199,-40.0
2023-07-31 14:06:53.851888,-35.0
2023-07-31 14:06:53.859578,-31.0
2023-07-31 14:06:53.867267,-26.0
2023-07-31 14:06:53.874956,-14.0
2023-07-31 14:06:53.882646,-4.0
2023-07-31 14:06:53.890335,2.0
2023-07-31 14:06:53.898024,19.0
2023-07-31 14:06:53.905714,35.0
2023-07-31 14:06:53.913403,52.0
2023-07-31 14:06:53.921092,71.0
2023-07-31 14:06:53.928782,90.0
2023-07-31 14:06:53.936471,107.0
2023-07-31 14:06:53.944161,119.0
2023-07-31 14:06:53.951850,126.0
2023-07-31 14:06:53.959539,136.0
2023-07-31 14:06:53.967229,143.0
2023-07-31 14:06:53.974918,145.0
2023-07-31 14:06:53.982607,138.0
2023-07-31 14:06:53.990297,117.0
2023-07-31 14:06:53.997986,81.0
2023-07-31 14:06:54.005675,31.0
2023-07-31 14:06:54.013365,-21.0
2023-07-31 14:06:54.021054,-69.0
2023-07-31 14:06:54.028743,-110.0
2023-07-31 14:06:54.036433,-133.0
2023-07-31 14:06:54.044122,-148.0
2023-07-31 14:06:54.051811,-157.0
2023-07-31 14:06:54.059501,-160.0
2023-07-31 14:06:54.067190,-160.0
2023-07-31 14:06:54.074879,-165.0
2023-07-31 14:06:54.082569,-169.0
2023-07-31 14:06:54.090258,-160.0
2023-07-31 14:06:54.097947,-145.0
2023-07-31 14:06:54.105637,-148.0
2023-07-31 14:06:54.113326,-148.0
2023-07-31 14:06:54.121015,-133.0
2023-07-31 14:06:54.128705,-126.0
2023-07-31 14:06:54.136394,-131.0
2023-07-31 14:06:54.144083,-129.0
2023-07-31 14:06:54.151773,-122.0
2023-07-31 14:06:54.159462,-117.0
2023-07-31 14:06:54.167151,-114.0
2023-07-31 14:06:54.174841,-119.0
2023-07-31 14:06:54.182530,-117.0
2023-07-31 14:06:54.190219,-110.0
2023-07-31 14:06:54.197909,-112.0
2023-07-31 14:06:54.205598,-117.0
2023-07-31 14:06:54.213287,-112.0
2023-07-31 14:06:54.220977,-110.0
2023-07-31 14:06:54.228666,-110.0
2023-07-31 14:06:54.236355,-110.0
2023-07-31 14:06:54.244045,-107.0
2023-07-31 14:06:54.251734,-102.0
2023-07-31 14:06:54.259423,-105.0
2023-07-31 14:06:54.267113,-110.0
2023-07-31 14:06:54.274802,-112.0
2023-07-31 14:06:54.282491,-107.0
2023-07-31 14:06:54.290181,-98.0
2023-07-31 14:06:54.297870,-81.0
2023-07-31 14:06:54.305559,-62.0
2023-07-31 14:06:54.313249,-55.0
2023-07-31 14:06:54.320938,-55.0
2023-07-31 14:06:54.328627,-57.0
2023-07-31 14:06:54.336317,-64.0
2023-07-31 14:06:54.344006,-76.0
2023-07-31 14:06:54.351695,-86.0
2023-07-31 14:06:54.359385,-86.0
2023-07-31 14:06:54.367074,-83.0
2023-07-31 14:06:54.374763,-88.0
2023-07-31 14:06:54.382453,-90.0
2023-07-31 14:06:54.390142,-90.0
2023-07-31 14:06:54.397831,-86.0
2023-07-31 14:06:54.405521,-81.0
2023-07-31 14:06:54.413210,-76.0
2023-07-31 14:06:54.420899,-71.0
2023-07-31 14:06:54.428589,-86.0
2023-07-31 14:06:54.436278,-90.0
2023-07-31 14:06:54.443967,122.0
2023-07-31 14:06:54.451657,669.0
2023-07-31 14:06:54.459346,1119.0
2023-07-31 14:06:54.467035,729.0
2023-07-31 14:06:54.474725,-239.0
2023-07-31 14:06:54.482414,-507.0
2023-07-31 14:06:54.490103,-110.0
2023-07-31 14:06:54.497793,-74.0
2023-07-31 14:06:54.505482,-205.0
2023-07-31 14:06:54.513171,-112.0
2023-07-31 14:06:54.520861,-78.0
2023-07-31 14:06:54.528550,-133.0
2023-07-31 14:06:54.536239,-107.0
2023-07-31 14:06:54.543929,-74.0
2023-07-31 14:06:54.551618,-83.0
2023-07-31 14:06:54.559307,-86.0
2023-07-31 14:06:54.566997,-74.0
2023-07-31 14:06:54.574686,-69.0
2023-07-31 14:06:54.582375,-62.0
2023-07-31 14:06:54.590065,-55.0
2023-07-31 14:06:54.597754,-52.0
2023-07-31 14:06:54.605443,-40.0
2023-07-31 14:06:54.613133,-28.0
2023-07-31 14:06:54.620822,-23.0
2023-07-31 14:06:54.628511,-16.0
2023-07-31 14:06:54.636201,-2.0
2023-07-31 14:06:54.643890,11.0
2023-07-31 14:06:54.651579,23.0
2023-07-31 14:06:54.659269,35.0
2023-07-31 14:06:54.666958,45.0
2023-07-31 14:06:54.674647,64.0
2023-07-31 14:06:54.682337,88.0
2023-07-31 14:06:54.690026,102.0
2023-07-31 14:06:54.697716,112.0
2023-07-31 14:06:54.705405,117.0
2023-07-31 14:06:54.713094,110.0
2023-07-31 14:06:54.720784,112.0
2023-07-31 14:06:54.728473,119.0
2023-07-31 14:06:54.736162,110.0
2023-07-31 14:06:54.743852,78.0
2023-07-31 14:06:54.751541,23.0
2023-07-31 14:06:54.759230,-40.0
2023-07-31 14:06:54.766920,-93.0
2023-07-31 14:06:54.774609,-129.0
2023-07-31 14:06:54.782298,-160.0
2023-07-31 14:06:54.789988,-184.0
2023-07-31 14:06:54.797677,-198.0
2023-07-31 14:06:54.805366,-205.0
2023-07-31 14:06:54.813056,-210.0
2023-07-31 14:06:54.820745,-208.0
2023-07-31 14:06:54.828434,-196.0
2023-07-31 14:06:54.836124,-191.0
2023-07-31 14:06:54.843813,-189.0
2023-07-31 14:06:54.851502,-186.0
2023-07-31 14:06:54.859192,-177.0
2023-07-31 14:06:54.866881,-174.0
2023-07-31 14:06:54.874570,-174.0
2023-07-31 14:06:54.882260,-169.0
2023-07-31 14:06:54.889949,-160.0
2023-07-31 14:06:54.897638,-157.0
2023-07-31 14:06:54.905328,-153.0
2023-07-31 14:06:54.913017,-148.0
2023-07-31 14:06:54.920706,-145.0
2023-07-31 14:06:54.928396,-148.0
2023-07-31 14:06:54.936085,-150.0
2023-07-31 14:06:54.943774,-148.0
2023-07-31 14:06:54.951464,-145.0
2023-07-31 14:06:54.959153,-145.0
2023-07-31 14:06:54.966842,-143.0
2023-07-31 14:06:54.974532,-138.0
2023-07-31 14:06:54.982221,-138.0
2023-07-31 14:06:54.989910,-138.0
2023-07-31 14:06:54.997600,-136.0
2023-07-31 14:06:55.005289,-136.0
2023-07-31 14:06:55.012978,-133.0
2023-07-31 14:06:55.020668,-129.0
2023-07-31 14:06:55.028357,-117.0
2023-07-31 14:06:55.036046,-98.0
2023-07-31 14:06:55.043736,-83.0
2023-07-31 14:06:55.051425,-83.0
2023-07-31 14:06:55.059114,-76.0
2023-07-31 14:06:55.066804,-71.0
2023-07-31 14:06:55.074493,-90.0
2023-07-31 14:06:55.082182,-107.0
2023-07-31 14:06:55.089872,-110.0
2023-07-31 14:06:55.097561,-110.0
2023-07-31 14:06:55.105250,-112.0
2023-07-31 14:06:55.112940,-114.0
2023-07-31 14:06:55.120629,-119.0
2023-07-31 14:06:55.128318,-117.0
2023-07-31 14:06:55.136008,-110.0
2023-07-31 14:06:55.143697,-110.0
2023-07-31 14:06:55.151386,-102.0
2023-07-31 14:06:55.159076,-98.0
2023-07-31 14:06:55.166765,-100.0
2023-07-31 14:06:55.174454,-117.0
2023-07-31 14:06:55.182144,-45.0
2023-07-31 14:06:55.189833,322.0
2023-07-31 14:06:55.197522,878.0
2023-07-31 14:06:55.205212,1016.0
2023-07-31 14:06:55.212901,294.0
2023-07-31 14:06:55.220590,-488.0
2023-07-31 14:06:55.228280,-366.0
2023-07-31 14:06:55.235969,-40.0
2023-07-31 14:06:55.243658,-153.0
2023-07-31 14:06:55.251348,-200.0
2023-07-31 14:06:55.259037,-100.0
2023-07-31 14:06:55.266726,-112.0
2023-07-31 14:06:55.274416,-138.0
2023-07-31 14:06:55.282105,-100.0
2023-07-31 14:06:55.289794,-93.0
2023-07-31 14:06:55.297484,-102.0
2023-07-31 14:06:55.305173,-83.0
2023-07-31 14:06:55.312862,-74.0
2023-07-31 14:06:55.320552,-74.0
2023-07-31 14:06:55.328241,-66.0
2023-07-31 14:06:55.335930,-57.0
2023-07-31 14:06:55.343620,-52.0
2023-07-31 14:06:55.351309,-40.0
2023-07-31 14:06:55.358998,-28.0
2023-07-31 14:06:55.366688,-19.0
2023-07-31 14:06:55.374377,-11.0
2023-07-31 14:06:55.382066,-4.0
2023-07-31 14:06:55.389756,7.0
2023-07-31 14:06:55.397445,23.0
2023-07-31 14:06:55.405134,43.0
2023-07-31 14:06:55.412824,59.0
2023-07-31 14:06:55.420513,74.0
2023-07-31 14:06:55.428202,86.0
2023-07-31 14:06:55.435892,100.0
2023-07-31 14:06:55.443581,112.0
2023-07-31 14:06:55.451270,119.0
2023-07-31 14:06:55.458960,122.0
2023-07-31 14:06:55.466649,122.0
2023-07-31 14:06:55.474339,117.0
2023-07-31 14:06:55.482028,105.0
2023-07-31 14:06:55.489717,69.0
2023-07-31 14:06:55.497407,14.0
2023-07-31 14:06:55.505096,-40.0
2023-07-31 14:06:55.512785,-83.0
2023-07-31 14:06:55.520475,-119.0
2023-07-31 14:06:55.528164,-143.0
2023-07-31 14:06:55.535853,-157.0
2023-07-31 14:06:55.543543,-162.0
2023-07-31 14:06:55.551232,-165.0
2023-07-31 14:06:55.558921,-167.0
2023-07-31 14:06:55.566611,-165.0
2023-07-31 14:06:55.574300,-160.0
2023-07-31 14:06:55.581989,-155.0
2023-07-31 14:06:55.589679,-148.0
2023-07-31 14:06:55.597368,-143.0
2023-07-31 14:06:55.605057,-143.0
2023-07-31 14:06:55.612747,-143.0
2023-07-31 14:06:55.620436,-136.0
2023-07-31 14:06:55.628125,-129.0
2023-07-31 14:06:55.635815,-126.0
2023-07-31 14:06:55.643504,-126.0
2023-07-31 14:06:55.651193,-129.0
2023-07-31 14:06:55.658883,-133.0
2023-07-31 14:06:55.666572,-131.0
2023-07-31 14:06:55.674261,-129.0
2023-07-31 14:06:55.681951,-131.0
2023-07-31 14:06:55.689640,-131.0
2023-07-31 14:06:55.697329,-126.0
2023-07-31 14:06:55.705019,-129.0
2023-07-31 14:06:55.712708,-129.0
2023-07-31 14:06:55.720397,-126.0
2023-07-31 14:06:55.728087,-122.0
2023-07-31 14:06:55.735776,-119.0
2023-07-31 14:06:55.743465,-119.0
2023-07-31 14:06:55.751155,-117.0
2023-07-31 14:06:55.758844,-114.0
2023-07-31 14:06:55.766533,-122.0
2023-07-31 14:06:55.774223,-129.0
2023-07-31 14:06:55.781912,-126.0
2023-07-31 14:06:55.789601,-119.0
2023-07-31 14:06:55.797291,-105.0
2023-07-31 14:06:55.804980,-86.0
2023-07-31 14:06:55.812669,-66.0
2023-07-31 14:06:55.820359,-55.0
2023-07-31 14:06:55.828048,-62.0
2023-07-31 14:06:55.835737,-83.0
2023-07-31 14:06:55.843427,-93.0
2023-07-31 14:06:55.851116,-90.0
2023-07-31 14:06:55.858805,-90.0
2023-07-31 14:06:55.866495,-90.0
2023-07-31 14:06:55.874184,-90.0
2023-07-31 14:06:55.881873,-90.0
2023-07-31 14:06:55.889563,-93.0
2023-07-31 14:06:55.897252,-90.0
2023-07-31 14:06:55.904941,-86.0
2023-07-31 14:06:55.912631,-86.0
2023-07-31 14:06:55.920320,-90.0
2023-07-31 14:06:55.928009,-100.0
2023-07-31 14:06:55.935699,-100.0
2023-07-31 14:06:55.943388,50.0
2023-07-31 14:06:55.951077,483.0
2023-07-31 14:06:55.958767,952.0
2023-07-31 14:06:55.966456,823.0
2023-07-31 14:06:55.974145,-21.0
2023-07-31 14:06:55.981835,-531.0
2023-07-31 14:06:55.989524,-229.0
2023-07-31 14:06:55.997213,-45.0
2023-07-31 14:06:56.004903,-184.0
2023-07-31 14:06:56.012592,-160.0
2023-07-31 14:06:56.020281,-88.0
2023-07-31 14:06:56.027971,-122.0
2023-07-31 14:06:56.035660,-124.0
2023-07-31 14:06:56.043349,-88.0
2023-07-31 14:06:56.051039,-90.0
2023-07-31 14:06:56.058728,-95.0
2023-07-31 14:06:56.066417,-78.0
2023-07-31 14:06:56.074107,-71.0
2023-07-31 14:06:56.081796,-69.0
2023-07-31 14:06:56.089485,-62.0
2023-07-31 14:06:56.097175,-55.0
2023-07-31 14:06:56.104864,-50.0
2023-07-31 14:06:56.112553,-43.0
2023-07-31 14:06:56.120243,-31.0
2023-07-31 14:06:56.127932,-21.0
2023-07-31 14:06:56.135621,-9.0
2023-07-31 14:06:56.143311,2.0
2023-07-31 14:06:56.151000,14.0
2023-07-31 14:06:56.158689,31.0
2023-07-31 14:06:56.166379,45.0
2023-07-31 14:06:56.174068,59.0
2023-07-31 14:06:56.181757,74.0
2023-07-31 14:06:56.189447,88.0
2023-07-31 14:06:56.197136,100.0
2023-07-31 14:06:56.204825,107.0
2023-07-31 14:06:56.212515,114.0
2023-07-31 14:06:56.220204,114.0
2023-07-31 14:06:56.227894,114.0
2023-07-31 14:06:56.235583,105.0
2023-07-31 14:06:56.243272,76.0
2023-07-31 14:06:56.250962,35.0
2023-07-31 14:06:56.258651,-11.0
2023-07-31 14:06:56.266340,-59.0
2023-07-31 14:06:56.274030,-105.0
2023-07-31 14:06:56.281719,-143.0
2023-07-31 14:06:56.289408,-172.0
2023-07-31 14:06:56.297098,-186.0
2023-07-31 14:06:56.304787,-193.0
2023-07-31 14:06:56.312476,-196.0
2023-07-31 14:06:56.320166,-191.0
2023-07-31 14:06:56.327855,-186.0
2023-07-31 14:06:56.335544,-184.0
2023-07-31 14:06:56.343234,-181.0
2023-07-31 14:06:56.350923,-174.0
2023-07-31 14:06:56.358612,-167.0
2023-07-31 14:06:56.366302,-165.0
2023-07-31 14:06:56.373991,-167.0
2023-07-31 14:06:56.381680,-167.0
2023-07-31 14:06:56.389370,-167.0
2023-07-31 14:06:56.397059,-167.0
2023-07-31 14:06:56.404748,-165.0
2023-07-31 14:06:56.412438,-157.0
2023-07-31 14:06:56.420127,-153.0
2023-07-31 14:06:56.427816,-153.0
2023-07-31 14:06:56.435506,-150.0
2023-07-31 14:06:56.443195,-148.0
2023-07-31 14:06:56.450884,-148.0
2023-07-31 14:06:56.458574,-143.0
2023-07-31 14:06:56.466263,-141.0
2023-07-31 14:06:56.473952,-141.0
2023-07-31 14:06:56.481642,-143.0
2023-07-31 14:06:56.489331,-136.0
2023-07-31 14:06:56.497020,-129.0
2023-07-31 14:06:56.504710,-129.0
2023-07-31 14:06:56.512399,-131.0
2023-07-31 14:06:56.520088,-136.0
2023-07-31 14:06:56.527778,-138.0
2023-07-31 14:06:56.535467,-138.0
2023-07-31 14:06:56.543156,-136.0
2023-07-31 14:06:56.550846,-126.0
2023-07-31 14:06:56.558535,-107.0
2023-07-31 14:06:56.566224,-88.0
2023-07-31 14:06:56.573914,-76.0
2023-07-31 14:06:56.581603,-76.0
2023-07-31 14:06:56.589292,-88.0
2023-07-31 14:06:56.596982,-102.0
2023-07-31 14:06:56.604671,-107.0
2023-07-31 14:06:56.612360,-105.0
2023-07-31 14:06:56.620050,-102.0
2023-07-31 14:06:56.627739,-105.0
2023-07-31 14:06:56.635428,-105.0
2023-07-31 14:06:56.643118,-105.0
2023-07-31 14:06:56.650807,-105.0
2023-07-31 14:06:56.658496,-102.0
2023-07-31 14:06:56.666186,-102.0
2023-07-31 14:06:56.673875,-98.0
2023-07-31 14:06:56.681564,-93.0
2023-07-31 14:06:56.689254,-110.0
2023-07-31 14:06:56.696943,-62.0
2023-07-31 14:06:56.704632,251.0
2023-07-31 14:06:56.712322,770.0
2023-07-31 14:06:56.720011,966.0
2023-07-31 14:06:56.727700,356.0
2023-07-31 14:06:56.735390,-435.0
2023-07-31 14:06:56.743079,-399.0
2023-07-31 14:06:56.750768,-57.0
2023-07-31 14:06:56.758458,-124.0
2023-07-31 14:06:56.766147,-191.0
2023-07-31 14:06:56.773836,-100.0
2023-07-31 14:06:56.781526,-105.0
2023-07-31 14:06:56.789215,-138.0
2023-07-31 14:06:56.796904,-105.0
2023-07-31 14:06:56.804594,-88.0
2023-07-31 14:06:56.812283,-98.0
2023-07-31 14:06:56.819972,-86.0
2023-07-31 14:06:56.827662,-71.0
2023-07-31 14:06:56.835351,-71.0
2023-07-31 14:06:56.843040,-64.0
2023-07-31 14:06:56.850730,-50.0
2023-07-31 14:06:56.858419,-40.0
2023-07-31 14:06:56.866108,-35.0
2023-07-31 14:06:56.873798,-31.0
2023-07-31 14:06:56.881487,-21.0
2023-07-31 14:06:56.889176,-9.0
2023-07-31 14:06:56.896866,-4.0
2023-07-31 14:06:56.904555,7.0
2023-07-31 14:06:56.912244,21.0
2023-07-31 14:06:56.919934,35.0
2023-07-31 14:06:56.927623,52.0
2023-07-31 14:06:56.935312,69.0
2023-07-31 14:06:56.943002,81.0
2023-07-31 14:06:56.950691,93.0
2023-07-31 14:06:56.958380,110.0
2023-07-31 14:06:56.966070,119.0
2023-07-31 14:06:56.973759,119.0
2023-07-31 14:06:56.981449,114.0
2023-07-31 14:06:56.989138,117.0
2023-07-31 14:06:56.996827,110.0
2023-07-31 14:06:57.004517,74.0
2023-07-31 14:06:57.012206,21.0
2023-07-31 14:06:57.019895,-26.0
2023-07-31 14:06:57.027585,-69.0
2023-07-31 14:06:57.035274,-110.0
2023-07-31 14:06:57.042963,-133.0
2023-07-31 14:06:57.050653,-148.0
2023-07-31 14:06:57.058342,-160.0
2023-07-31 14:06:57.066031,-167.0
2023-07-31 14:06:57.073721,-165.0
2023-07-31 14:06:57.081410,-160.0
2023-07-31 14:06:57.089099,-155.0
2023-07-31 14:06:57.096789,-155.0
2023-07-31 14:06:57.104478,-153.0
2023-07-31 14:06:57.112167,-143.0
2023-07-31 14:06:57.119857,-138.0
2023-07-31 14:06:57.127546,-133.0
2023-07-31 14:06:57.135235,-126.0
2023-07-31 14:06:57.142925,-131.0
2023-07-31 14:06:57.150614,-131.0
2023-07-31 14:06:57.158303,-124.0
2023-07-31 14:06:57.165993,-119.0
2023-07-31 14:06:57.173682,-122.0
2023-07-31 14:06:57.181371,-122.0
2023-07-31 14:06:57.189061,-114.0
2023-07-31 14:06:57.196750,-110.0
2023-07-31 14:06:57.204439,-112.0
2023-07-31 14:06:57.212129,-112.0
2023-07-31 14:06:57.219818,-112.0
2023-07-31 14:06:57.227507,-117.0
2023-07-31 14:06:57.235197,-119.0
2023-07-31 14:06:57.242886,-114.0
2023-07-31 14:06:57.250575,-107.0
2023-07-31 14:06:57.258265,-93.0
2023-07-31 14:06:57.265954,-98.0
2023-07-31 14:06:57.273643,-114.0
2023-07-31 14:06:57.281333,-117.0
2023-07-31 14:06:57.289022,-105.0
2023-07-31 14:06:57.296711,-98.0
2023-07-31 14:06:57.304401,-93.0
2023-07-31 14:06:57.312090,-81.0
2023-07-31 14:06:57.319779,-64.0
2023-07-31 14:06:57.327469,-45.0
2023-07-31 14:06:57.335158,-47.0
2023-07-31 14:06:57.342847,-64.0
2023-07-31 14:06:57.350537,-78.0
2023-07-31 14:06:57.358226,-86.0
2023-07-31 14:06:57.365915,-93.0
2023-07-31 14:06:57.373605,-95.0
2023-07-31 14:06:57.381294,-95.0
2023-07-31 14:06:57.388983,-93.0
2023-07-31 14:06:57.396673,-100.0
2023-07-31 14:06:57.404362,-110.0
2023-07-31 14:06:57.412051,-105.0
2023-07-31 14:06:57.419741,-93.0
2023-07-31 14:06:57.427430,-83.0
2023-07-31 14:06:57.435119,-81.0
2023-07-31 14:06:57.442809,-100.0
2023-07-31 14:06:57.450498,-43.0
2023-07-31 14:06:57.458187,313.0
2023-07-31 14:06:57.465877,866.0
2023-07-31 14:06:57.473566,995.0
2023-07-31 14:06:57.481255,260.0
2023-07-31 14:06:57.488945,-507.0
2023-07-31 14:06:57.496634,-354.0
2023-07-31 14:06:57.504323,-35.0
2023-07-31 14:06:57.512013,-160.0
2023-07-31 14:06:57.519702,-191.0
2023-07-31 14:06:57.527391,-83.0
2023-07-31 14:06:57.535081,-114.0
2023-07-31 14:06:57.542770,-145.0
2023-07-31 14:06:57.550459,-100.0
2023-07-31 14:06:57.558149,-88.0
2023-07-31 14:06:57.565838,-100.0
2023-07-31 14:06:57.573527,-88.0
2023-07-31 14:06:57.581217,-71.0
2023-07-31 14:06:57.588906,-66.0
2023-07-31 14:06:57.596595,-62.0
2023-07-31 14:06:57.604285,-57.0
2023-07-31 14:06:57.611974,-47.0
2023-07-31 14:06:57.619663,-33.0
2023-07-31 14:06:57.627353,-23.0
2023-07-31 14:06:57.635042,-19.0
2023-07-31 14:06:57.642731,-7.0
2023-07-31 14:06:57.650421,9.0
2023-07-31 14:06:57.658110,21.0
2023-07-31 14:06:57.665799,35.0
2023-07-31 14:06:57.673489,52.0
2023-07-31 14:06:57.681178,62.0
2023-07-31 14:06:57.688867,74.0
2023-07-31 14:06:57.696557,93.0
2023-07-31 14:06:57.704246,107.0
2023-07-31 14:06:57.711935,122.0
2023-07-31 14:06:57.719625,129.0
2023-07-31 14:06:57.727314,122.0
2023-07-31 14:06:57.735004,122.0
2023-07-31 14:06:57.742693,131.0
2023-07-31 14:06:57.750382,112.0
2023-07-31 14:06:57.758072,66.0
2023-07-31 14:06:57.765761,14.0
2023-07-31 14:06:57.773450,-35.0
2023-07-31 14:06:57.781140,-88.0
2023-07-31 14:06:57.788829,-126.0
2023-07-31 14:06:57.796518,-145.0
2023-07-31 14:06:57.804208,-160.0
2023-07-31 14:06:57.811897,-177.0
2023-07-31 14:06:57.819586,-181.0
2023-07-31 14:06:57.827276,-184.0
2023-07-31 14:06:57.834965,-184.0
2023-07-31 14:06:57.842654,-172.0
2023-07-31 14:06:57.850344,-162.0
2023-07-31 14:06:57.858033,-162.0
2023-07-31 14:06:57.865722,-155.0
2023-07-31 14:06:57.873412,-143.0
2023-07-31 14:06:57.881101,-143.0
2023-07-31 14:06:57.888790,-145.0
2023-07-31 14:06:57.896480,-138.0
2023-07-31 14:06:57.904169,-138.0
2023-07-31 14:06:57.911858,-138.0
2023-07-31 14:06:57.919548,-133.0
2023-07-31 14:06:57.927237,-129.0
2023-07-31 14:06:57.934926,-129.0
2023-07-31 14:06:57.942616,-131.0
2023-07-31 14:06:57.950305,-136.0
2023-07-31 14:06:57.957994,-141.0
2023-07-31 14:06:57.965684,-138.0
2023-07-31 14:06:57.973373,-136.0
2023-07-31 14:06:57.981062,-133.0
2023-07-31 14:06:57.988752,-129.0
2023-07-31 14:06:57.996441,-129.0
2023-07-31 14:06:58.004130,-126.0
2023-07-31 14:06:58.011820,-117.0
2023-07-31 14:06:58.019509,-100.0
2023-07-31 14:06:58.027198,-86.0
2023-07-31 14:06:58.034888,-81.0
2023-07-31 14:06:58.042577,-78.0
2023-07-31 14:06:58.050266,-71.0
2023-07-31 14:06:58.057956,-71.0
2023-07-31 14:06:58.065645,-90.0
2023-07-31 14:06:58.073334,-105.0
2023-07-31 14:06:58.081024,-107.0
2023-07-31 14:06:58.088713,-107.0
2023-07-31 14:06:58.096402,-105.0
2023-07-31 14:06:58.104092,-105.0
2023-07-31 14:06:58.111781,-102.0
2023-07-31 14:06:58.119470,-100.0
2023-07-31 14:06:58.127160,-95.0
2023-07-31 14:06:58.134849,-93.0
2023-07-31 14:06:58.142538,-93.0
2023-07-31 14:06:58.150228,-86.0
2023-07-31 14:06:58.157917,-98.0
2023-07-31 14:06:58.165606,-105.0
2023-07-31 14:06:58.173296,100.0
2023-07-31 14:06:58.180985,638.0
2023-07-31 14:06:58.188674,1088.0
2023-07-31 14:06:58.196364,712.0
2023-07-31 14:06:58.204053,-244.0
2023-07-31 14:06:58.211742,-509.0
2023-07-31 14:06:58.219432,-114.0
2023-07-31 14:06:58.227121,-78.0
2023-07-31 14:06:58.234810,-215.0
2023-07-31 14:06:58.242500,-117.0
2023-07-31 14:06:58.250189,-81.0
2023-07-31 14:06:58.257878,-136.0
2023-07-31 14:06:58.265568,-114.0
2023-07-31 14:06:58.273257,-83.0
2023-07-31 14:06:58.280946,-98.0
2023-07-31 14:06:58.288636,-90.0
2023-07-31 14:06:58.296325,-69.0
2023-07-31 14:06:58.304014,-66.0
2023-07-31 14:06:58.311704,-71.0
2023-07-31 14:06:58.319393,-64.0
2023-07-31 14:06:58.327082,-50.0
2023-07-31 14:06:58.334772,-38.0
2023-07-31 14:06:58.342461,-35.0
2023-07-31 14:06:58.350150,-26.0
2023-07-31 14:06:58.357840,-11.0
2023-07-31 14:06:58.365529,-4.0
2023-07-31 14:06:58.373218,7.0
2023-07-31 14:06:58.380908,19.0
2023-07-31 14:06:58.388597,31.0
2023-07-31 14:06:58.396286,47.0
2023-07-31 14:06:58.403976,59.0
2023-07-31 14:06:58.411665,71.0
2023-07-31 14:06:58.419354,90.0
2023-07-31 14:06:58.427044,102.0
2023-07-31 14:06:58.434733,105.0
2023-07-31 14:06:58.442422,107.0
2023-07-31 14:06:58.450112,110.0
2023-07-31 14:06:58.457801,107.0
2023-07-31 14:06:58.465490,90.0
2023-07-31 14:06:58.473180,59.0
2023-07-31 14:06:58.480869,14.0
2023-07-31 14:06:58.488559,-43.0
2023-07-31 14:06:58.496248,-98.0
2023-07-31 14:06:58.503937,-136.0
2023-07-31 14:06:58.511627,-157.0
2023-07-31 14:06:58.519316,-172.0
2023-07-31 14:06:58.527005,-181.0
2023-07-31 14:06:58.534695,-193.0
2023-07-31 14:06:58.542384,-196.0
2023-07-31 14:06:58.550073,-189.0
2023-07-31 14:06:58.557763,-184.0
2023-07-31 14:06:58.565452,-181.0
2023-07-31 14:06:58.573141,-177.0
2023-07-31 14:06:58.580831,-174.0
2023-07-31 14:06:58.588520,-169.0
2023-07-31 14:06:58.596209,-165.0
2023-07-31 14:06:58.603899,-160.0
2023-07-31 14:06:58.611588,-153.0
2023-07-31 14:06:58.619277,-150.0
2023-07-31 14:06:58.626967,-148.0
2023-07-31 14:06:58.634656,-145.0
2023-07-31 14:06:58.642345,-145.0
2023-07-31 14:06:58.650035,-145.0
2023-07-31 14:06:58.657724,-143.0
2023-07-31 14:06:58.665413,-141.0
2023-07-31 14:06:58.673103,-141.0
2023-07-31 14:06:58.680792,-141.0
2023-07-31 14:06:58.688481,-141.0
2023-07-31 14:06:58.696171,-138.0
2023-07-31 14:06:58.703860,-133.0
2023-07-31 14:06:58.711549,-133.0
2023-07-31 14:06:58.719239,-131.0
2023-07-31 14:06:58.726928,-126.0
2023-07-31 14:06:58.734617,-126.0
2023-07-31 14:06:58.742307,-129.0
2023-07-31 14:06:58.749996,-131.0
2023-07-31 14:06:58.757685,-138.0
2023-07-31 14:06:58.765375,-133.0
2023-07-31 14:06:58.773064,-122.0
2023-07-31 14:06:58.780753,-107.0
2023-07-31 14:06:58.788443,-95.0
2023-07-31 14:06:58.796132,-78.0
2023-07-31 14:06:58.803821,-64.0
2023-07-31 14:06:58.811511,-71.0
2023-07-31 14:06:58.819200,-93.0
2023-07-31 14:06:58.826889,-105.0
2023-07-31 14:06:58.834579,-100.0
2023-07-31 14:06:58.842268,-100.0
2023-07-31 14:06:58.849957,-105.0
2023-07-31 14:06:58.857647,-105.0
2023-07-31 14:06:58.865336,-100.0
2023-07-31 14:06:58.873025,-102.0
2023-07-31 14:06:58.880715,-102.0
2023-07-31 14:06:58.888404,-100.0
2023-07-31 14:06:58.896093,-100.0
2023-07-31 14:06:58.903783,-98.0
2023-07-31 14:06:58.911472,-105.0
2023-07-31 14:06:58.919161,-98.0
2023-07-31 14:06:58.926851,88.0
2023-07-31 14:06:58.934540,559.0
2023-07-31 14:06:58.942229,990.0
2023-07-31 14:06:58.949919,744.0
2023-07-31 14:06:58.957608,-133.0
2023-07-31 14:06:58.965297,-519.0
2023-07-31 14:06:58.972987,-177.0
2023-07-31 14:06:58.980676,-59.0
2023-07-31 14:06:58.988365,-200.0
2023-07-31 14:06:58.996055,-153.0
2023-07-31 14:06:59.003744,-90.0
2023-07-31 14:06:59.011433,-133.0
2023-07-31 14:06:59.019123,-131.0
2023-07-31 14:06:59.026812,-98.0
2023-07-31 14:06:59.034501,-98.0
2023-07-31 14:06:59.042191,-100.0
2023-07-31 14:06:59.049880,-86.0
2023-07-31 14:06:59.057569,-81.0
2023-07-31 14:06:59.065259,-78.0
2023-07-31 14:06:59.072948,-76.0
2023-07-31 14:06:59.080637,-71.0
2023-07-31 14:06:59.088327,-64.0
2023-07-31 14:06:59.096016,-52.0
2023-07-31 14:06:59.103705,-43.0
2023-07-31 14:06:59.111395,-33.0
2023-07-31 14:06:59.119084,-16.0
2023-07-31 14:06:59.126773,-2.0
2023-07-31 14:06:59.134463,9.0
2023-07-31 14:06:59.142152,28.0
2023-07-31 14:06:59.149841,45.0
2023-07-31 14:06:59.157531,64.0
2023-07-31 14:06:59.165220,81.0
2023-07-31 14:06:59.172909,98.0
2023-07-31 14:06:59.180599,112.0
2023-07-31 14:06:59.188288,124.0
2023-07-31 14:06:59.195977,129.0
2023-07-31 14:06:59.203667,133.0
2023-07-31 14:06:59.211356,133.0
2023-07-31 14:06:59.219045,119.0
2023-07-31 14:06:59.226735,95.0
2023-07-31 14:06:59.234424,52.0
2023-07-31 14:06:59.242114,-4.0
2023-07-31 14:06:59.249803,-55.0
2023-07-31 14:06:59.257492,-98.0
2023-07-31 14:06:59.265182,-129.0
2023-07-31 14:06:59.272871,-145.0
2023-07-31 14:06:59.280560,-155.0
2023-07-31 14:06:59.288250,-160.0
2023-07-31 14:06:59.295939,-162.0
2023-07-31 14:06:59.303628,-162.0
2023-07-31 14:06:59.311318,-157.0
2023-07-31 14:06:59.319007,-155.0
2023-07-31 14:06:59.326696,-155.0
2023-07-31 14:06:59.334386,-150.0
2023-07-31 14:06:59.342075,-148.0
2023-07-31 14:06:59.349764,-145.0
2023-07-31 14:06:59.357454,-141.0
2023-07-31 14:06:59.365143,-136.0
2023-07-31 14:06:59.372832,-133.0
2023-07-31 14:06:59.380522,-133.0
2023-07-31 14:06:59.388211,-133.0
2023-07-31 14:06:59.395900,-129.0
2023-07-31 14:06:59.403590,-124.0
2023-07-31 14:06:59.411279,-129.0
2023-07-31 14:06:59.418968,-131.0
2023-07-31 14:06:59.426658,-126.0
2023-07-31 14:06:59.434347,-126.0
2023-07-31 14:06:59.442036,-129.0
2023-07-31 14:06:59.449726,-126.0
2023-07-31 14:06:59.457415,-124.0
2023-07-31 14:06:59.465104,-124.0
2023-07-31 14:06:59.472794,-122.0
2023-07-31 14:06:59.480483,-119.0
2023-07-31 14:06:59.488172,-117.0
2023-07-31 14:06:59.495862,-117.0
2023-07-31 14:06:59.503551,-124.0
2023-07-31 14:06:59.511240,-126.0
2023-07-31 14:06:59.518930,-122.0
2023-07-31 14:06:59.526619,-112.0
2023-07-31 14:06:59.534308,-95.0
2023-07-31 14:06:59.541998,-76.0
2023-07-31 14:06:59.549687,-59.0
2023-07-31 14:06:59.557376,-55.0
2023-07-31 14:06:59.565066,-66.0
2023-07-31 14:06:59.572755,-83.0
2023-07-31 14:06:59.580444,-88.0
2023-07-31 14:06:59.588134,-83.0
2023-07-31 14:06:59.595823,-86.0
2023-07-31 14:06:59.603512,-88.0
2023-07-31 14:06:59.611202,-88.0
2023-07-31 14:06:59.618891,-86.0
2023-07-31 14:06:59.626580,-83.0
2023-07-31 14:06:59.634270,-78.0
2023-07-31 14:06:59.641959,-76.0
2023-07-31 14:06:59.649648,-74.0
2023-07-31 14:06:59.657338,-76.0
2023-07-31 14:06:59.665027,-93.0
2023-07-31 14:06:59.672716,-78.0
2023-07-31 14:06:59.680406,150.0
2023-07-31 14:06:59.688095,653.0
2023-07-31 14:06:59.695784,1028.0
2023-07-31 14:06:59.703474,643.0
2023-07-31 14:06:59.711163,-256.0
2023-07-31 14:06:59.718852,-495.0
2023-07-31 14:06:59.726542,-114.0
2023-07-31 14:06:59.734231,-64.0
2023-07-31 14:06:59.741920,-193.0
2023-07-31 14:06:59.749610,-124.0
2023-07-31 14:06:59.757299,-83.0
2023-07-31 14:06:59.764988,-124.0
2023-07-31 14:06:59.772678,-107.0
2023-07-31 14:06:59.780367,-81.0
2023-07-31 14:06:59.788056,-88.0
2023-07-31 14:06:59.795746,-83.0
2023-07-31 14:06:59.803435,-69.0
2023-07-31 14:06:59.811124,-66.0
2023-07-31 14:06:59.818814,-59.0
2023-07-31 14:06:59.826503,-47.0
2023-07-31 14:06:59.834192,-45.0
2023-07-31 14:06:59.841882,-43.0
2023-07-31 14:06:59.849571,-31.0
2023-07-31 14:06:59.857260,-21.0
2023-07-31 14:06:59.864950,-14.0
2023-07-31 14:06:59.872639,0.0
2023-07-31 14:06:59.880328,9.0
2023-07-31 14:06:59.888018,16.0
2023-07-31 14:06:59.895707,35.0
2023-07-31 14:06:59.903396,55.0
2023-07-31 14:06:59.911086,66.0
2023-07-31 14:06:59.918775,81.0
2023-07-31 14:06:59.926464,98.0
2023-07-31 14:06:59.934154,110.0
2023-07-31 14:06:59.941843,117.0
2023-07-31 14:06:59.949532,126.0
2023-07-31 14:06:59.957222,126.0
2023-07-31 14:06:59.964911,126.0
2023-07-31 14:06:59.972600,117.0
2023-07-31 14:06:59.980290,83.0
2023-07-31 14:06:59.987979,31.0
2023-07-31 14:06:59.995668,-19.0
2023-07-31 14:07:00.003358,-66.0
2023-07-31 14:07:00.011047,-107.0
2023-07-31 14:07:00.018737,-138.0
2023-07-31 14:07:00.026426,-160.0
2023-07-31 14:07:00.034115,-169.0
2023-07-31 14:07:00.041805,-172.0
2023-07-31 14:07:00.049494,-172.0
2023-07-31 14:07:00.057183,-169.0
2023-07-31 14:07:00.064873,-167.0
2023-07-31 14:07:00.072562,-169.0
2023-07-31 14:07:00.080251,-172.0
2023-07-31 14:07:00.087941,-162.0
2023-07-31 14:07:00.095630,-157.0
2023-07-31 14:07:00.103319,-155.0
2023-07-31 14:07:00.111009,-153.0
2023-07-31 14:07:00.118698,-148.0
2023-07-31 14:07:00.126387,-148.0
2023-07-31 14:07:00.134077,-145.0
2023-07-31 14:07:00.141766,-141.0
2023-07-31 14:07:00.149455,-136.0
2023-07-31 14:07:00.157145,-138.0
2023-07-31 14:07:00.164834,-138.0
2023-07-31 14:07:00.172523,-136.0
2023-07-31 14:07:00.180213,-138.0
2023-07-31 14:07:00.187902,-138.0
2023-07-31 14:07:00.195591,-133.0
2023-07-31 14:07:00.203281,-133.0
2023-07-31 14:07:00.210970,-136.0
2023-07-31 14:07:00.218659,-133.0
2023-07-31 14:07:00.226349,-126.0
2023-07-31 14:07:00.234038,-124.0
2023-07-31 14:07:00.241727,-122.0
2023-07-31 14:07:00.249417,-119.0
2023-07-31 14:07:00.257106,-117.0
2023-07-31 14:07:00.264795,-117.0
2023-07-31 14:07:00.272485,-124.0
2023-07-31 14:07:00.280174,-124.0
2023-07-31 14:07:00.287863,-119.0
2023-07-31 14:07:00.295553,-114.0
2023-07-31 14:07:00.303242,-98.0
2023-07-31 14:07:00.310931,-76.0
2023-07-31 14:07:00.318621,-55.0
2023-07-31 14:07:00.326310,-47.0
2023-07-31 14:07:00.333999,-59.0
2023-07-31 14:07:00.341689,-81.0
2023-07-31 14:07:00.349378,-90.0
2023-07-31 14:07:00.357067,-93.0
2023-07-31 14:07:00.364757,-90.0
2023-07-31 14:07:00.372446,-88.0
2023-07-31 14:07:00.380135,-88.0
2023-07-31 14:07:00.387825,-90.0
2023-07-31 14:07:00.395514,-88.0
2023-07-31 14:07:00.403203,-83.0
2023-07-31 14:07:00.410893,-86.0
2023-07-31 14:07:00.418582,-90.0
2023-07-31 14:07:00.426271,-86.0
2023-07-31 14:07:00.433961,-88.0
2023-07-31 14:07:00.441650,-86.0
2023-07-31 14:07:00.449339,90.0
2023-07-31 14:07:00.457029,564.0
2023-07-31 14:07:00.464718,1014.0
2023-07-31 14:07:00.472407,772.0
2023-07-31 14:07:00.480097,-126.0
2023-07-31 14:07:00.487786,-526.0
2023-07-31 14:07:00.495475,-169.0
2023-07-31 14:07:00.503165,-43.0
2023-07-31 14:07:00.510854,-184.0
2023-07-31 14:07:00.518543,-133.0
2023-07-31 14:07:00.526233,-74.0
2023-07-31 14:07:00.533922,-114.0
2023-07-31 14:07:00.541611,-112.0
2023-07-31 14:07:00.549301,-76.0
2023-07-31 14:07:00.556990,-74.0
2023-07-31 14:07:00.564679,-81.0
2023-07-31 14:07:00.572369,-74.0
2023-07-31 14:07:00.580058,-62.0
2023-07-31 14:07:00.587747,-57.0
2023-07-31 14:07:00.595437,-52.0
2023-07-31 14:07:00.603126,-47.0
2023-07-31 14:07:00.610815,-35.0
2023-07-31 14:07:00.618505,-23.0
2023-07-31 14:07:00.626194,-14.0
2023-07-31 14:07:00.633883,-4.0
2023-07-31 14:07:00.641573,0.0
2023-07-31 14:07:00.649262,7.0
2023-07-31 14:07:00.656951,28.0
2023-07-31 14:07:00.664641,52.0
2023-07-31 14:07:00.672330,66.0
2023-07-31 14:07:00.680019,83.0
2023-07-31 14:07:00.687709,100.0
2023-07-31 14:07:00.695398,114.0
2023-07-31 14:07:00.703087,126.0
2023-07-31 14:07:00.710777,138.0
2023-07-31 14:07:00.718466,143.0
2023-07-31 14:07:00.726155,145.0
2023-07-31 14:07:00.733845,143.0
2023-07-31 14:07:00.741534,133.0
2023-07-31 14:07:00.749223,110.0
2023-07-31 14:07:00.756913,66.0
2023-07-31 14:07:00.764602,4.0
2023-07-31 14:07:00.772292,-55.0
2023-07-31 14:07:00.779981,-98.0
2023-07-31 14:07:00.787670,-129.0
2023-07-31 14:07:00.795360,-157.0
2023-07-31 14:07:00.803049,-174.0
2023-07-31 14:07:00.810738,-172.0
2023-07-31 14:07:00.818428,-169.0
2023-07-31 14:07:00.826117,-179.0
2023-07-31 14:07:00.833806,-179.0
2023-07-31 14:07:00.841496,-167.0
2023-07-31 14:07:00.849185,-162.0
2023-07-31 14:07:00.856874,-169.0
2023-07-31 14:07:00.864564,-169.0
2023-07-31 14:07:00.872253,-157.0
2023-07-31 14:07:00.879942,-148.0
2023-07-31 14:07:00.887632,-145.0
2023-07-31 14:07:00.895321,-143.0
2023-07-31 14:07:00.903010,-133.0
2023-07-31 14:07:00.910700,-136.0
2023-07-31 14:07:00.918389,-138.0
2023-07-31 14:07:00.926078,-129.0
2023-07-31 14:07:00.933768,-124.0
2023-07-31 14:07:00.941457,-129.0
2023-07-31 14:07:00.949146,-126.0
2023-07-31 14:07:00.956836,-129.0
2023-07-31 14:07:00.964525,-138.0
2023-07-31 14:07:00.972214,-131.0
2023-07-31 14:07:00.979904,-119.0
2023-07-31 14:07:00.987593,-126.0
2023-07-31 14:07:00.995282,-131.0
2023-07-31 14:07:01.002972,-119.0
2023-07-31 14:07:01.010661,-114.0
2023-07-31 14:07:01.018350,-124.0
2023-07-31 14:07:01.026040,-126.0
2023-07-31 14:07:01.033729,-114.0
2023-07-31 14:07:01.041418,-112.0
2023-07-31 14:07:01.049108,-105.0
2023-07-31 14:07:01.056797,-88.0
2023-07-31 14:07:01.064486,-76.0
2023-07-31 14:07:01.072176,-59.0
2023-07-31 14:07:01.079865,-57.0
2023-07-31 14:07:01.087554,-83.0
2023-07-31 14:07:01.095244,-105.0
2023-07-31 14:07:01.102933,-100.0
2023-07-31 14:07:01.110622,-95.0
2023-07-31 14:07:01.118312,-102.0
2023-07-31 14:07:01.126001,-105.0
2023-07-31 14:07:01.133690,-102.0
2023-07-31 14:07:01.141380,-98.0
2023-07-31 14:07:01.149069,-95.0
2023-07-31 14:07:01.156758,-90.0
2023-07-31 14:07:01.164448,-81.0
2023-07-31 14:07:01.172137,-81.0
2023-07-31 14:07:01.179826,-83.0
2023-07-31 14:07:01.187516,-88.0
2023-07-31 14:07:01.195205,-78.0
2023-07-31 14:07:01.202894,143.0
2023-07-31 14:07:01.210584,691.0
2023-07-31 14:07:01.218273,1122.0
2023-07-31 14:07:01.225962,705.0
2023-07-31 14:07:01.233652,-270.0
2023-07-31 14:07:01.241341,-502.0
2023-07-31 14:07:01.249030,-90.0
2023-07-31 14:07:01.256720,-71.0
2023-07-31 14:07:01.264409,-215.0
2023-07-31 14:07:01.272098,-117.0
2023-07-31 14:07:01.279788,-83.0
2023-07-31 14:07:01.287477,-141.0
2023-07-31 14:07:01.295166,-119.0
2023-07-31 14:07:01.302856,-88.0
2023-07-31 14:07:01.310545,-102.0
2023-07-31 14:07:01.318234,-93.0
2023-07-31 14:07:01.325924,-74.0
2023-07-31 14:07:01.333613,-74.0
2023-07-31 14:07:01.341302,-71.0
2023-07-31 14:07:01.348992,-57.0
2023-07-31 14:07:01.356681,-47.0
2023-07-31 14:07:01.364370,-40.0
2023-07-31 14:07:01.372060,-35.0
2023-07-31 14:07:01.379749,-23.0
2023-07-31 14:07:01.387438,-9.0
2023-07-31 14:07:01.395128,0.0
2023-07-31 14:07:01.402817,16.0
2023-07-31 14:07:01.410506,31.0
2023-07-31 14:07:01.418196,40.0
2023-07-31 14:07:01.425885,50.0
2023-07-31 14:07:01.433574,71.0
2023-07-31 14:07:01.441264,88.0
2023-07-31 14:07:01.448953,100.0
2023-07-31 14:07:01.456642,110.0
2023-07-31 14:07:01.464332,117.0
2023-07-31 14:07:01.472021,119.0
2023-07-31 14:07:01.479710,124.0
2023-07-31 14:07:01.487400,122.0
2023-07-31 14:07:01.495089,110.0
2023-07-31 14:07:01.502778,78.0
2023-07-31 14:07:01.510468,28.0
2023-07-31 14:07:01.518157,-23.0
2023-07-31 14:07:01.525847,-74.0
2023-07-31 14:07:01.533536,-119.0
2023-07-31 14:07:01.541225,-148.0
2023-07-31 14:07:01.548915,-167.0
2023-07-31 14:07:01.556604,-181.0
2023-07-31 14:07:01.564293,-181.0
2023-07-31 14:07:01.571983,-179.0
2023-07-31 14:07:01.579672,-179.0
2023-07-31 14:07:01.587361,-181.0
2023-07-31 14:07:01.595051,-174.0
2023-07-31 14:07:01.602740,-167.0
2023-07-31 14:07:01.610429,-160.0
2023-07-31 14:07:01.618119,-153.0
2023-07-31 14:07:01.625808,-145.0
2023-07-31 14:07:01.633497,-143.0
2023-07-31 14:07:01.641187,-138.0
2023-07-31 14:07:01.648876,-131.0
2023-07-31 14:07:01.656565,-126.0
2023-07-31 14:07:01.664255,-122.0
2023-07-31 14:07:01.671944,-119.0
2023-07-31 14:07:01.679633,-119.0
2023-07-31 14:07:01.687323,-122.0
2023-07-31 14:07:01.695012,-122.0
2023-07-31 14:07:01.702701,-122.0
2023-07-31 14:07:01.710391,-122.0
2023-07-31 14:07:01.718080,-122.0
2023-07-31 14:07:01.725769,-119.0
2023-07-31 14:07:01.733459,-119.0
2023-07-31 14:07:01.741148,-122.0
2023-07-31 14:07:01.748837,-119.0
2023-07-31 14:07:01.756527,-114.0
2023-07-31 14:07:01.764216,-112.0
2023-07-31 14:07:01.771905,-110.0
2023-07-31 14:07:01.779595,-110.0
2023-07-31 14:07:01.787284,-107.0
2023-07-31 14:07:01.794973,-102.0
2023-07-31 14:07:01.802663,-112.0
2023-07-31 14:07:01.810352,-122.0
2023-07-31 14:07:01.818041,-119.0
2023-07-31 14:07:01.825731,-112.0
2023-07-31 14:07:01.833420,-102.0
2023-07-31 14:07:01.841109,-81.0
2023-07-31 14:07:01.848799,-62.0
2023-07-31 14:07:01.856488,-55.0
2023-07-31 14:07:01.864177,-62.0
2023-07-31 14:07:01.871867,-74.0
2023-07-31 14:07:01.879556,-88.0
2023-07-31 14:07:01.887245,-93.0
2023-07-31 14:07:01.894935,-90.0
2023-07-31 14:07:01.902624,-93.0
2023-07-31 14:07:01.910313,-102.0
2023-07-31 14:07:01.918003,-105.0
2023-07-31 14:07:01.925692,-105.0
2023-07-31 14:07:01.933381,-107.0
2023-07-31 14:07:01.941071,-105.0
2023-07-31 14:07:01.948760,-100.0
2023-07-31 14:07:01.956449,-95.0
2023-07-31 14:07:01.964139,-98.0
2023-07-31 14:07:01.971828,-105.0
2023-07-31 14:07:01.979517,9.0
2023-07-31 14:07:01.987207,406.0
2023-07-31 14:07:01.994896,899.0
2023-07-31 14:07:02.002585,899.0
2023-07-31 14:07:02.010275,117.0
2023-07-31 14:07:02.017964,-519.0
2023-07-31 14:07:02.025653,-294.0
2023-07-31 14:07:02.033343,-40.0
2023-07-31 14:07:02.041032,-174.0
2023-07-31 14:07:02.048721,-189.0
2023-07-31 14:07:02.056411,-98.0
2023-07-31 14:07:02.064100,-124.0
2023-07-31 14:07:02.071789,-143.0
2023-07-31 14:07:02.079479,-107.0
2023-07-31 14:07:02.087168,-102.0
2023-07-31 14:07:02.094857,-107.0
2023-07-31 14:07:02.102547,-93.0
2023-07-31 14:07:02.110236,-86.0
2023-07-31 14:07:02.117925,-83.0
2023-07-31 14:07:02.125615,-74.0
2023-07-31 14:07:02.133304,-66.0
2023-07-31 14:07:02.140993,-62.0
2023-07-31 14:07:02.148683,-52.0
2023-07-31 14:07:02.156372,-43.0
2023-07-31 14:07:02.164061,-38.0
2023-07-31 14:07:02.171751,-31.0
2023-07-31 14:07:02.179440,-16.0
2023-07-31 14:07:02.187129,0.0
2023-07-31 14:07:02.194819,16.0
2023-07-31 14:07:02.202508,35.0
2023-07-31 14:07:02.210197,55.0
2023-07-31 14:07:02.217887,74.0
2023-07-31 14:07:02.225576,90.0
2023-07-31 14:07:02.233265,105.0
2023-07-31 14:07:02.240955,114.0
2023-07-31 14:07:02.248644,119.0
2023-07-31 14:07:02.256333,122.0
2023-07-31 14:07:02.264023,124.0
2023-07-31 14:07:02.271712,122.0
2023-07-31 14:07:02.279402,102.0
2023-07-31 14:07:02.287091,59.0
2023-07-31 14:07:02.294780,4.0
2023-07-31 14:07:02.302470,-50.0
2023-07-31 14:07:02.310159,-98.0
2023-07-31 14:07:02.317848,-133.0
2023-07-31 14:07:02.325538,-157.0
2023-07-31 14:07:02.333227,-172.0
2023-07-31 14:07:02.340916,-179.0
2023-07-31 14:07:02.348606,-181.0
2023-07-31 14:07:02.356295,-179.0
2023-07-31 14:07:02.363984,-174.0
2023-07-31 14:07:02.371674,-172.0
2023-07-31 14:07:02.379363,-169.0
2023-07-31 14:07:02.387052,-160.0
2023-07-31 14:07:02.394742,-155.0
2023-07-31 14:07:02.402431,-160.0
2023-07-31 14:07:02.410120,-162.0
2023-07-31 14:07:02.417810,-157.0
2023-07-31 14:07:02.425499,-150.0
2023-07-31 14:07:02.433188,-145.0
2023-07-31 14:07:02.440878,-143.0
2023-07-31 14:07:02.448567,-145.0
2023-07-31 14:07:02.456256,-150.0
2023-07-31 14:07:02.463946,-143.0
2023-07-31 14:07:02.471635,-138.0
2023-07-31 14:07:02.479324,-138.0
2023-07-31 14:07:02.487014,-136.0
2023-07-31 14:07:02.494703,-133.0
2023-07-31 14:07:02.502392,-133.0
2023-07-31 14:07:02.510082,-133.0
2023-07-31 14:07:02.517771,-131.0
2023-07-31 14:07:02.525460,-129.0
2023-07-31 14:07:02.533150,-129.0
2023-07-31 14:07:02.540839,-126.0
2023-07-31 14:07:02.548528,-124.0
2023-07-31 14:07:02.556218,-119.0
2023-07-31 14:07:02.563907,-117.0
2023-07-31 14:07:02.571596,-122.0
2023-07-31 14:07:02.579286,-117.0
2023-07-31 14:07:02.586975,-114.0
2023-07-31 14:07:02.594664,-122.0
2023-07-31 14:07:02.602354,-126.0
2023-07-31 14:07:02.610043,-119.0
2023-07-31 14:07:02.617732,-112.0
2023-07-31 14:07:02.625422,-93.0
2023-07-31 14:07:02.633111,-71.0
2023-07-31 14:07:02.640800,-62.0
2023-07-31 14:07:02.648490,-55.0
2023-07-31 14:07:02.656179,-62.0
2023-07-31 14:07:02.663868,-81.0
2023-07-31 14:07:02.671558,-95.0
2023-07-31 14:07:02.679247,-98.0
2023-07-31 14:07:02.686936,-95.0
2023-07-31 14:07:02.694626,-93.0
2023-07-31 14:07:02.702315,-90.0
2023-07-31 14:07:02.710004,-90.0
2023-07-31 14:07:02.717694,-93.0
2023-07-31 14:07:02.725383,-90.0
2023-07-31 14:07:02.733072,-86.0
2023-07-31 14:07:02.740762,-81.0
2023-07-31 14:07:02.748451,-78.0
2023-07-31 14:07:02.756140,-86.0
2023-07-31 14:07:02.763830,-78.0
2023-07-31 14:07:02.771519,105.0
2023-07-31 14:07:02.779208,562.0
2023-07-31 14:07:02.786898,988.0
2023-07-31 14:07:02.794587,756.0
2023-07-31 14:07:02.802276,-122.0
2023-07-31 14:07:02.809966,-514.0
2023-07-31 14:07:02.817655,-169.0
2023-07-31 14:07:02.825344,-45.0
2023-07-31 14:07:02.833034,-181.0
2023-07-31 14:07:02.840723,-131.0
2023-07-31 14:07:02.848412,-76.0
2023-07-31 14:07:02.856102,-122.0
2023-07-31 14:07:02.863791,-114.0
2023-07-31 14:07:02.871480,-78.0
2023-07-31 14:07:02.879170,-81.0
2023-07-31 14:07:02.886859,-83.0
2023-07-31 14:07:02.894548,-64.0
2023-07-31 14:07:02.902238,-57.0
2023-07-31 14:07:02.909927,-59.0
2023-07-31 14:07:02.917616,-52.0
2023-07-31 14:07:02.925306,-45.0
2023-07-31 14:07:02.932995,-35.0
2023-07-31 14:07:02.940684,-31.0
2023-07-31 14:07:02.948374,-31.0
2023-07-31 14:07:02.956063,-16.0
2023-07-31 14:07:02.963752,0.0
2023-07-31 14:07:02.971442,4.0
2023-07-31 14:07:02.979131,16.0
2023-07-31 14:07:02.986820,38.0
2023-07-31 14:07:02.994510,52.0
2023-07-31 14:07:03.002199,64.0
2023-07-31 14:07:03.009888,86.0
2023-07-31 14:07:03.017578,102.0
2023-07-31 14:07:03.025267,112.0
2023-07-31 14:07:03.032957,119.0
2023-07-31 14:07:03.040646,126.0
2023-07-31 14:07:03.048335,126.0
2023-07-31 14:07:03.056025,124.0
2023-07-31 14:07:03.063714,114.0
2023-07-31 14:07:03.071403,90.0
2023-07-31 14:07:03.079093,47.0
2023-07-31 14:07:03.086782,-4.0
2023-07-31 14:07:03.094471,-55.0
2023-07-31 14:07:03.102161,-95.0
2023-07-31 14:07:03.109850,-133.0
2023-07-31 14:07:03.117539,-157.0
2023-07-31 14:07:03.125229,-167.0
2023-07-31 14:07:03.132918,-174.0
2023-07-31 14:07:03.140607,-177.0
2023-07-31 14:07:03.148297,-174.0
2023-07-31 14:07:03.155986,-169.0
2023-07-31 14:07:03.163675,-167.0
2023-07-31 14:07:03.171365,-167.0
2023-07-31 14:07:03.179054,-162.0
2023-07-31 14:07:03.186743,-157.0
2023-07-31 14:07:03.194433,-153.0
2023-07-31 14:07:03.202122,-148.0
2023-07-31 14:07:03.209811,-145.0
2023-07-31 14:07:03.217501,-148.0
2023-07-31 14:07:03.225190,-141.0
2023-07-31 14:07:03.232879,-131.0
2023-07-31 14:07:03.240569,-129.0
2023-07-31 14:07:03.248258,-129.0
2023-07-31 14:07:03.255947,-126.0
