time,ECG
2023-08-08 18:22:09.269270,123.0
2023-08-08 18:22:09.276960,118.0
2023-08-08 18:22:09.284649,111.0
2023-08-08 18:22:09.292339,108.0
2023-08-08 18:22:09.300029,103.0
2023-08-08 18:22:09.307718,91.0
2023-08-08 18:22:09.315408,84.0
2023-08-08 18:22:09.323098,74.0
2023-08-08 18:22:09.330787,62.0
2023-08-08 18:22:09.338477,53.0
2023-08-08 18:22:09.346167,55.0
2023-08-08 18:22:09.353856,53.0
2023-08-08 18:22:09.361546,48.0
2023-08-08 18:22:09.369236,45.0
2023-08-08 18:22:09.376925,48.0
2023-08-08 18:22:09.384615,50.0
2023-08-08 18:22:09.392305,48.0
2023-08-08 18:22:09.399994,48.0
2023-08-08 18:22:09.407684,43.0
2023-08-08 18:22:09.415374,33.0
2023-08-08 18:22:09.423063,29.0
2023-08-08 18:22:09.430753,29.0
2023-08-08 18:22:09.438443,29.0
2023-08-08 18:22:09.446132,24.0
2023-08-08 18:22:09.453822,21.0
2023-08-08 18:22:09.461512,14.0
2023-08-08 18:22:09.469201,9.0
2023-08-08 18:22:09.476891,4.0
2023-08-08 18:22:09.484581,-2.0
2023-08-08 18:22:09.492270,-9.0
2023-08-08 18:22:09.499960,-19.0
2023-08-08 18:22:09.507650,-26.0
2023-08-08 18:22:09.515339,-12.0
2023-08-08 18:22:09.523029,4.0
2023-08-08 18:22:09.530719,9.0
2023-08-08 18:22:09.538408,14.0
2023-08-08 18:22:09.546098,21.0
2023-08-08 18:22:09.553788,19.0
2023-08-08 18:22:09.561477,12.0
2023-08-08 18:22:09.569167,9.0
2023-08-08 18:22:09.576857,-26.0
2023-08-08 18:22:09.584546,-256.0
2023-08-08 18:22:09.592236,-722.0
2023-08-08 18:22:09.599926,-932.0
2023-08-08 18:22:09.607615,-418.0
2023-08-08 18:22:09.615305,488.0
2023-08-08 18:22:09.622995,887.0
2023-08-08 18:22:09.630684,476.0
2023-08-08 18:22:09.638374,53.0
2023-08-08 18:22:09.646064,16.0
2023-08-08 18:22:09.653753,-16.0
2023-08-08 18:22:09.661443,-91.0
2023-08-08 18:22:09.669133,-77.0
2023-08-08 18:22:09.676822,-70.0
2023-08-08 18:22:09.684512,-106.0
2023-08-08 18:22:09.692202,-116.0
2023-08-08 18:22:09.699891,-113.0
2023-08-08 18:22:09.707581,-128.0
2023-08-08 18:22:09.715271,-145.0
2023-08-08 18:22:09.722960,-159.0
2023-08-08 18:22:09.730650,-176.0
2023-08-08 18:22:09.738340,-193.0
2023-08-08 18:22:09.746029,-205.0
2023-08-08 18:22:09.753719,-217.0
2023-08-08 18:22:09.761409,-236.0
2023-08-08 18:22:09.769098,-258.0
2023-08-08 18:22:09.776788,-280.0
2023-08-08 18:22:09.784478,-297.0
2023-08-08 18:22:09.792167,-311.0
2023-08-08 18:22:09.799857,-321.0
2023-08-08 18:22:09.807547,-326.0
2023-08-08 18:22:09.815236,-321.0
2023-08-08 18:22:09.822926,-311.0
2023-08-08 18:22:09.830616,-292.0
2023-08-08 18:22:09.838305,-258.0
2023-08-08 18:22:09.845995,-212.0
2023-08-08 18:22:09.853685,-159.0
2023-08-08 18:22:09.861374,-99.0
2023-08-08 18:22:09.869064,-38.0
2023-08-08 18:22:09.876754,9.0
2023-08-08 18:22:09.884443,53.0
2023-08-08 18:22:09.892133,84.0
2023-08-08 18:22:09.899823,106.0
2023-08-08 18:22:09.907512,118.0
2023-08-08 18:22:09.915202,118.0
2023-08-08 18:22:09.922892,116.0
2023-08-08 18:22:09.930581,111.0
2023-08-08 18:22:09.938271,103.0
2023-08-08 18:22:09.945961,96.0
2023-08-08 18:22:09.953650,87.0
2023-08-08 18:22:09.961340,77.0
2023-08-08 18:22:09.969030,70.0
2023-08-08 18:22:09.976719,65.0
2023-08-08 18:22:09.984409,60.0
2023-08-08 18:22:09.992099,53.0
2023-08-08 18:22:09.999788,43.0
2023-08-08 18:22:10.007478,33.0
2023-08-08 18:22:10.015168,33.0
2023-08-08 18:22:10.022857,36.0
2023-08-08 18:22:10.030547,33.0
2023-08-08 18:22:10.038237,36.0
2023-08-08 18:22:10.045926,36.0
2023-08-08 18:22:10.053616,33.0
2023-08-08 18:22:10.061306,33.0
2023-08-08 18:22:10.068995,33.0
2023-08-08 18:22:10.076685,29.0
2023-08-08 18:22:10.084375,29.0
2023-08-08 18:22:10.092064,26.0
2023-08-08 18:22:10.099754,24.0
2023-08-08 18:22:10.107444,21.0
2023-08-08 18:22:10.115133,21.0
2023-08-08 18:22:10.122823,16.0
2023-08-08 18:22:10.130513,4.0
2023-08-08 18:22:10.138202,-4.0
2023-08-08 18:22:10.145892,-16.0
2023-08-08 18:22:10.153582,-21.0
2023-08-08 18:22:10.161271,-9.0
2023-08-08 18:22:10.168961,4.0
2023-08-08 18:22:10.176651,12.0
2023-08-08 18:22:10.184340,16.0
2023-08-08 18:22:10.192030,24.0
2023-08-08 18:22:10.199720,26.0
2023-08-08 18:22:10.207409,21.0
2023-08-08 18:22:10.215099,16.0
2023-08-08 18:22:10.222789,2.0
2023-08-08 18:22:10.230478,-135.0
2023-08-08 18:22:10.238168,-538.0
2023-08-08 18:22:10.245858,-916.0
2023-08-08 18:22:10.253547,-684.0
2023-08-08 18:22:10.261237,174.0
2023-08-08 18:22:10.268927,862.0
2023-08-08 18:22:10.276616,686.0
2023-08-08 18:22:10.284306,152.0
2023-08-08 18:22:10.291996,2.0
2023-08-08 18:22:10.299685,12.0
2023-08-08 18:22:10.307375,-72.0
2023-08-08 18:22:10.315065,-89.0
2023-08-08 18:22:10.322754,-67.0
2023-08-08 18:22:10.330444,-94.0
2023-08-08 18:22:10.338134,-113.0
2023-08-08 18:22:10.345823,-108.0
2023-08-08 18:22:10.353513,-120.0
2023-08-08 18:22:10.361203,-140.0
2023-08-08 18:22:10.368892,-147.0
2023-08-08 18:22:10.376582,-159.0
2023-08-08 18:22:10.384272,-178.0
2023-08-08 18:22:10.391961,-190.0
2023-08-08 18:22:10.399651,-205.0
2023-08-08 18:22:10.407341,-224.0
2023-08-08 18:22:10.415030,-244.0
2023-08-08 18:22:10.422720,-261.0
2023-08-08 18:22:10.430410,-280.0
2023-08-08 18:22:10.438099,-297.0
2023-08-08 18:22:10.445789,-309.0
2023-08-08 18:22:10.453479,-316.0
2023-08-08 18:22:10.461168,-316.0
2023-08-08 18:22:10.468858,-309.0
2023-08-08 18:22:10.476548,-292.0
2023-08-08 18:22:10.484237,-265.0
2023-08-08 18:22:10.491927,-229.0
2023-08-08 18:22:10.499617,-183.0
2023-08-08 18:22:10.507306,-120.0
2023-08-08 18:22:10.514996,-58.0
2023-08-08 18:22:10.522686,-2.0
2023-08-08 18:22:10.530375,43.0
2023-08-08 18:22:10.538065,72.0
2023-08-08 18:22:10.545755,91.0
2023-08-08 18:22:10.553444,108.0
2023-08-08 18:22:10.561134,113.0
2023-08-08 18:22:10.568824,106.0
2023-08-08 18:22:10.576513,101.0
2023-08-08 18:22:10.584203,96.0
2023-08-08 18:22:10.591893,89.0
2023-08-08 18:22:10.599582,82.0
2023-08-08 18:22:10.607272,72.0
2023-08-08 18:22:10.614962,60.0
2023-08-08 18:22:10.622651,50.0
2023-08-08 18:22:10.630341,45.0
2023-08-08 18:22:10.638031,43.0
2023-08-08 18:22:10.645720,36.0
2023-08-08 18:22:10.653410,33.0
2023-08-08 18:22:10.661100,33.0
2023-08-08 18:22:10.668789,36.0
2023-08-08 18:22:10.676479,36.0
2023-08-08 18:22:10.684169,36.0
2023-08-08 18:22:10.691858,38.0
2023-08-08 18:22:10.699548,41.0
2023-08-08 18:22:10.707238,38.0
2023-08-08 18:22:10.714927,38.0
2023-08-08 18:22:10.722617,33.0
2023-08-08 18:22:10.730307,29.0
2023-08-08 18:22:10.737996,26.0
2023-08-08 18:22:10.745686,29.0
2023-08-08 18:22:10.753376,26.0
2023-08-08 18:22:10.761065,19.0
2023-08-08 18:22:10.768755,14.0
2023-08-08 18:22:10.776445,12.0
2023-08-08 18:22:10.784134,2.0
2023-08-08 18:22:10.791824,-4.0
2023-08-08 18:22:10.799514,-19.0
2023-08-08 18:22:10.807203,-29.0
2023-08-08 18:22:10.814893,-21.0
2023-08-08 18:22:10.822583,-2.0
2023-08-08 18:22:10.830272,9.0
2023-08-08 18:22:10.837962,12.0
2023-08-08 18:22:10.845652,19.0
2023-08-08 18:22:10.853341,24.0
2023-08-08 18:22:10.861031,16.0
2023-08-08 18:22:10.868721,9.0
2023-08-08 18:22:10.876410,4.0
2023-08-08 18:22:10.884100,-94.0
2023-08-08 18:22:10.891790,-464.0
2023-08-08 18:22:10.899479,-896.0
2023-08-08 18:22:10.907169,-775.0
2023-08-08 18:22:10.914859,36.0
2023-08-08 18:22:10.922548,812.0
2023-08-08 18:22:10.930238,749.0
2023-08-08 18:22:10.937928,207.0
2023-08-08 18:22:10.945617,7.0
2023-08-08 18:22:10.953307,21.0
2023-08-08 18:22:10.960996,-60.0
2023-08-08 18:22:10.968686,-89.0
2023-08-08 18:22:10.976376,-60.0
2023-08-08 18:22:10.984065,-84.0
2023-08-08 18:22:10.991755,-108.0
2023-08-08 18:22:10.999445,-106.0
2023-08-08 18:22:11.007134,-116.0
2023-08-08 18:22:11.014824,-132.0
2023-08-08 18:22:11.022514,-142.0
2023-08-08 18:22:11.030203,-157.0
2023-08-08 18:22:11.037893,-174.0
2023-08-08 18:22:11.045583,-186.0
2023-08-08 18:22:11.053272,-205.0
2023-08-08 18:22:11.060962,-227.0
2023-08-08 18:22:11.068652,-246.0
2023-08-08 18:22:11.076341,-265.0
2023-08-08 18:22:11.084031,-285.0
2023-08-08 18:22:11.091721,-299.0
2023-08-08 18:22:11.099410,-311.0
2023-08-08 18:22:11.107100,-319.0
2023-08-08 18:22:11.114790,-323.0
2023-08-08 18:22:11.122479,-326.0
2023-08-08 18:22:11.130169,-321.0
2023-08-08 18:22:11.137859,-294.0
2023-08-08 18:22:11.145548,-253.0
2023-08-08 18:22:11.153238,-207.0
2023-08-08 18:22:11.160928,-152.0
2023-08-08 18:22:11.168617,-91.0
2023-08-08 18:22:11.176307,-36.0
2023-08-08 18:22:11.183997,14.0
2023-08-08 18:22:11.191686,58.0
2023-08-08 18:22:11.199376,82.0
2023-08-08 18:22:11.207066,96.0
2023-08-08 18:22:11.214755,103.0
2023-08-08 18:22:11.222445,103.0
2023-08-08 18:22:11.230135,91.0
2023-08-08 18:22:11.237824,82.0
2023-08-08 18:22:11.245514,77.0
2023-08-08 18:22:11.253204,70.0
2023-08-08 18:22:11.260893,60.0
2023-08-08 18:22:11.268583,53.0
2023-08-08 18:22:11.276273,45.0
2023-08-08 18:22:11.283962,38.0
2023-08-08 18:22:11.291652,31.0
2023-08-08 18:22:11.299342,24.0
2023-08-08 18:22:11.307031,19.0
2023-08-08 18:22:11.314721,19.0
2023-08-08 18:22:11.322411,21.0
2023-08-08 18:22:11.330100,24.0
2023-08-08 18:22:11.337790,26.0
2023-08-08 18:22:11.345480,26.0
2023-08-08 18:22:11.353169,24.0
2023-08-08 18:22:11.360859,26.0
2023-08-08 18:22:11.368549,26.0
2023-08-08 18:22:11.376238,24.0
2023-08-08 18:22:11.383928,24.0
2023-08-08 18:22:11.391618,24.0
2023-08-08 18:22:11.399307,14.0
2023-08-08 18:22:11.406997,9.0
2023-08-08 18:22:11.414687,7.0
2023-08-08 18:22:11.422376,-4.0
2023-08-08 18:22:11.430066,-19.0
2023-08-08 18:22:11.437756,-29.0
2023-08-08 18:22:11.445445,-29.0
2023-08-08 18:22:11.453135,-14.0
2023-08-08 18:22:11.460825,0.0
2023-08-08 18:22:11.468514,4.0
2023-08-08 18:22:11.476204,12.0
2023-08-08 18:22:11.483894,19.0
2023-08-08 18:22:11.491583,16.0
2023-08-08 18:22:11.499273,7.0
2023-08-08 18:22:11.506963,2.0
2023-08-08 18:22:11.514652,-14.0
2023-08-08 18:22:11.522342,-174.0
2023-08-08 18:22:11.530032,-604.0
2023-08-08 18:22:11.537721,-964.0
2023-08-08 18:22:11.545411,-671.0
2023-08-08 18:22:11.553101,222.0
2023-08-08 18:22:11.560790,841.0
2023-08-08 18:22:11.568480,592.0
2023-08-08 18:22:11.576170,123.0
2023-08-08 18:22:11.583859,26.0
2023-08-08 18:22:11.591549,-2.0
2023-08-08 18:22:11.599239,-94.0
2023-08-08 18:22:11.606928,-89.0
2023-08-08 18:22:11.614618,-72.0
2023-08-08 18:22:11.622308,-108.0
2023-08-08 18:22:11.629997,-125.0
2023-08-08 18:22:11.637687,-123.0
2023-08-08 18:22:11.645377,-137.0
2023-08-08 18:22:11.653066,-149.0
2023-08-08 18:22:11.660756,-157.0
2023-08-08 18:22:11.668446,-174.0
2023-08-08 18:22:11.676135,-193.0
2023-08-08 18:22:11.683825,-207.0
2023-08-08 18:22:11.691515,-222.0
2023-08-08 18:22:11.699204,-241.0
2023-08-08 18:22:11.706894,-268.0
2023-08-08 18:22:11.714584,-297.0
2023-08-08 18:22:11.722273,-314.0
2023-08-08 18:22:11.729963,-328.0
2023-08-08 18:22:11.737653,-345.0
2023-08-08 18:22:11.745342,-355.0
2023-08-08 18:22:11.753032,-352.0
2023-08-08 18:22:11.760722,-343.0
2023-08-08 18:22:11.768411,-323.0
2023-08-08 18:22:11.776101,-297.0
2023-08-08 18:22:11.783791,-253.0
2023-08-08 18:22:11.791480,-198.0
2023-08-08 18:22:11.799170,-135.0
2023-08-08 18:22:11.806860,-74.0
2023-08-08 18:22:11.814549,-26.0
2023-08-08 18:22:11.822239,19.0
2023-08-08 18:22:11.829929,60.0
2023-08-08 18:22:11.837618,84.0
2023-08-08 18:22:11.845308,91.0
2023-08-08 18:22:11.852998,94.0
2023-08-08 18:22:11.860687,94.0
2023-08-08 18:22:11.868377,89.0
2023-08-08 18:22:11.876067,87.0
2023-08-08 18:22:11.883756,79.0
2023-08-08 18:22:11.891446,70.0
2023-08-08 18:22:11.899136,58.0
2023-08-08 18:22:11.906825,50.0
2023-08-08 18:22:11.914515,48.0
2023-08-08 18:22:11.922205,43.0
2023-08-08 18:22:11.929894,41.0
2023-08-08 18:22:11.937584,36.0
2023-08-08 18:22:11.945274,31.0
2023-08-08 18:22:11.952963,31.0
2023-08-08 18:22:11.960653,31.0
2023-08-08 18:22:11.968343,26.0
2023-08-08 18:22:11.976032,29.0
2023-08-08 18:22:11.983722,33.0
2023-08-08 18:22:11.991412,31.0
2023-08-08 18:22:11.999101,29.0
2023-08-08 18:22:12.006791,29.0
2023-08-08 18:22:12.014481,29.0
2023-08-08 18:22:12.022170,19.0
2023-08-08 18:22:12.029860,9.0
2023-08-08 18:22:12.037550,0.0
2023-08-08 18:22:12.045239,-9.0
2023-08-08 18:22:12.052929,-21.0
2023-08-08 18:22:12.060619,-21.0
2023-08-08 18:22:12.068308,-7.0
2023-08-08 18:22:12.075998,7.0
2023-08-08 18:22:12.083688,12.0
2023-08-08 18:22:12.091377,16.0
2023-08-08 18:22:12.099067,26.0
2023-08-08 18:22:12.106757,26.0
2023-08-08 18:22:12.114446,19.0
2023-08-08 18:22:12.122136,12.0
2023-08-08 18:22:12.129826,0.0
2023-08-08 18:22:12.137515,-130.0
2023-08-08 18:22:12.145205,-536.0
2023-08-08 18:22:12.152895,-945.0
2023-08-08 18:22:12.160584,-744.0
2023-08-08 18:22:12.168274,135.0
2023-08-08 18:22:12.175964,848.0
2023-08-08 18:22:12.183653,684.0
2023-08-08 18:22:12.191343,193.0
2023-08-08 18:22:12.199033,58.0
2023-08-08 18:22:12.206722,24.0
2023-08-08 18:22:12.214412,-77.0
2023-08-08 18:22:12.222102,-82.0
2023-08-08 18:22:12.229791,-58.0
2023-08-08 18:22:12.237481,-91.0
2023-08-08 18:22:12.245171,-113.0
2023-08-08 18:22:12.252860,-111.0
2023-08-08 18:22:12.260550,-128.0
2023-08-08 18:22:12.268240,-145.0
2023-08-08 18:22:12.275929,-149.0
2023-08-08 18:22:12.283619,-164.0
2023-08-08 18:22:12.291309,-193.0
2023-08-08 18:22:12.298998,-217.0
2023-08-08 18:22:12.306688,-229.0
2023-08-08 18:22:12.314378,-244.0
2023-08-08 18:22:12.322067,-263.0
2023-08-08 18:22:12.329757,-280.0
2023-08-08 18:22:12.337447,-302.0
2023-08-08 18:22:12.345136,-323.0
2023-08-08 18:22:12.352826,-335.0
2023-08-08 18:22:12.360516,-338.0
2023-08-08 18:22:12.368205,-335.0
2023-08-08 18:22:12.375895,-326.0
2023-08-08 18:22:12.383585,-304.0
2023-08-08 18:22:12.391274,-273.0
2023-08-08 18:22:12.398964,-227.0
2023-08-08 18:22:12.406654,-171.0
2023-08-08 18:22:12.414343,-108.0
2023-08-08 18:22:12.422033,-43.0
2023-08-08 18:22:12.429723,9.0
2023-08-08 18:22:12.437412,53.0
2023-08-08 18:22:12.445102,89.0
2023-08-08 18:22:12.452792,111.0
2023-08-08 18:22:12.460481,118.0
2023-08-08 18:22:12.468171,123.0
2023-08-08 18:22:12.475861,120.0
2023-08-08 18:22:12.483550,116.0
2023-08-08 18:22:12.491240,106.0
2023-08-08 18:22:12.498930,99.0
2023-08-08 18:22:12.506619,91.0
2023-08-08 18:22:12.514309,79.0
2023-08-08 18:22:12.521999,70.0
2023-08-08 18:22:12.529688,58.0
2023-08-08 18:22:12.537378,50.0
2023-08-08 18:22:12.545068,45.0
2023-08-08 18:22:12.552757,45.0
2023-08-08 18:22:12.560447,41.0
2023-08-08 18:22:12.568137,41.0
2023-08-08 18:22:12.575826,43.0
2023-08-08 18:22:12.583516,45.0
2023-08-08 18:22:12.591206,43.0
2023-08-08 18:22:12.598895,41.0
2023-08-08 18:22:12.606585,41.0
2023-08-08 18:22:12.614275,38.0
2023-08-08 18:22:12.621964,36.0
2023-08-08 18:22:12.629654,36.0
2023-08-08 18:22:12.637344,36.0
2023-08-08 18:22:12.645033,31.0
2023-08-08 18:22:12.652723,24.0
2023-08-08 18:22:12.660413,24.0
2023-08-08 18:22:12.668102,24.0
2023-08-08 18:22:12.675792,16.0
2023-08-08 18:22:12.683482,7.0
2023-08-08 18:22:12.691171,-2.0
2023-08-08 18:22:12.698861,-16.0
2023-08-08 18:22:12.706551,-16.0
2023-08-08 18:22:12.714240,-2.0
2023-08-08 18:22:12.721930,12.0
2023-08-08 18:22:12.729620,19.0
2023-08-08 18:22:12.737309,21.0
2023-08-08 18:22:12.744999,24.0
2023-08-08 18:22:12.752689,16.0
2023-08-08 18:22:12.760378,7.0
2023-08-08 18:22:12.768068,7.0
2023-08-08 18:22:12.775758,-21.0
2023-08-08 18:22:12.783447,-244.0
2023-08-08 18:22:12.791137,-717.0
2023-08-08 18:22:12.798827,-966.0
2023-08-08 18:22:12.806516,-483.0
2023-08-08 18:22:12.814206,449.0
2023-08-08 18:22:12.821896,899.0
2023-08-08 18:22:12.829585,493.0
2023-08-08 18:22:12.837275,41.0
2023-08-08 18:22:12.844965,0.0
2023-08-08 18:22:12.852654,-24.0
2023-08-08 18:22:12.860344,-106.0
2023-08-08 18:22:12.868034,-89.0
2023-08-08 18:22:12.875723,-79.0
2023-08-08 18:22:12.883413,-118.0
2023-08-08 18:22:12.891103,-125.0
2023-08-08 18:22:12.898792,-120.0
2023-08-08 18:22:12.906482,-135.0
2023-08-08 18:22:12.914172,-152.0
2023-08-08 18:22:12.921861,-159.0
2023-08-08 18:22:12.929551,-174.0
2023-08-08 18:22:12.937241,-190.0
2023-08-08 18:22:12.944930,-205.0
2023-08-08 18:22:12.952620,-222.0
2023-08-08 18:22:12.960310,-239.0
2023-08-08 18:22:12.967999,-261.0
2023-08-08 18:22:12.975689,-280.0
2023-08-08 18:22:12.983378,-297.0
2023-08-08 18:22:12.991068,-311.0
2023-08-08 18:22:12.998758,-326.0
2023-08-08 18:22:13.006447,-331.0
2023-08-08 18:22:13.014137,-331.0
2023-08-08 18:22:13.021827,-321.0
2023-08-08 18:22:13.029516,-304.0
2023-08-08 18:22:13.037206,-270.0
2023-08-08 18:22:13.044896,-224.0
2023-08-08 18:22:13.052585,-169.0
2023-08-08 18:22:13.060275,-108.0
2023-08-08 18:22:13.067965,-43.0
2023-08-08 18:22:13.075654,14.0
2023-08-08 18:22:13.083344,55.0
2023-08-08 18:22:13.091034,84.0
2023-08-08 18:22:13.098723,103.0
2023-08-08 18:22:13.106413,116.0
2023-08-08 18:22:13.114103,120.0
2023-08-08 18:22:13.121792,120.0
2023-08-08 18:22:13.129482,116.0
2023-08-08 18:22:13.137172,108.0
2023-08-08 18:22:13.144861,96.0
2023-08-08 18:22:13.152551,87.0
2023-08-08 18:22:13.160241,79.0
2023-08-08 18:22:13.167930,72.0
2023-08-08 18:22:13.175620,65.0
2023-08-08 18:22:13.183310,58.0
2023-08-08 18:22:13.190999,53.0
2023-08-08 18:22:13.198689,48.0
2023-08-08 18:22:13.206379,45.0
2023-08-08 18:22:13.214068,45.0
2023-08-08 18:22:13.221758,45.0
2023-08-08 18:22:13.229448,43.0
2023-08-08 18:22:13.237137,38.0
2023-08-08 18:22:13.244827,38.0
2023-08-08 18:22:13.252517,36.0
2023-08-08 18:22:13.260206,31.0
2023-08-08 18:22:13.267896,29.0
2023-08-08 18:22:13.275586,26.0
2023-08-08 18:22:13.283275,24.0
2023-08-08 18:22:13.290965,21.0
2023-08-08 18:22:13.298655,19.0
2023-08-08 18:22:13.306344,19.0
2023-08-08 18:22:13.314034,19.0
2023-08-08 18:22:13.321724,14.0
2023-08-08 18:22:13.329413,7.0
2023-08-08 18:22:13.337103,2.0
2023-08-08 18:22:13.344793,-4.0
2023-08-08 18:22:13.352482,-14.0
2023-08-08 18:22:13.360172,-26.0
2023-08-08 18:22:13.367862,-29.0
2023-08-08 18:22:13.375551,-24.0
2023-08-08 18:22:13.383241,-14.0
2023-08-08 18:22:13.390931,-4.0
2023-08-08 18:22:13.398620,4.0
2023-08-08 18:22:13.406310,12.0
2023-08-08 18:22:13.414000,9.0
2023-08-08 18:22:13.421689,0.0
2023-08-08 18:22:13.429379,-2.0
2023-08-08 18:22:13.437069,-16.0
2023-08-08 18:22:13.444758,-181.0
2023-08-08 18:22:13.452448,-618.0
2023-08-08 18:22:13.460138,-954.0
2023-08-08 18:22:13.467827,-626.0
2023-08-08 18:22:13.475517,275.0
2023-08-08 18:22:13.483207,877.0
2023-08-08 18:22:13.490896,596.0
2023-08-08 18:22:13.498586,94.0
2023-08-08 18:22:13.506276,7.0
2023-08-08 18:22:13.513965,0.0
2023-08-08 18:22:13.521655,-91.0
2023-08-08 18:22:13.529345,-94.0
2023-08-08 18:22:13.537034,-70.0
2023-08-08 18:22:13.544724,-101.0
2023-08-08 18:22:13.552414,-118.0
2023-08-08 18:22:13.560103,-116.0
2023-08-08 18:22:13.567793,-130.0
2023-08-08 18:22:13.575483,-142.0
2023-08-08 18:22:13.583172,-149.0
2023-08-08 18:22:13.590862,-166.0
2023-08-08 18:22:13.598552,-183.0
2023-08-08 18:22:13.606241,-198.0
2023-08-08 18:22:13.613931,-212.0
2023-08-08 18:22:13.621621,-232.0
2023-08-08 18:22:13.629310,-248.0
2023-08-08 18:22:13.637000,-265.0
2023-08-08 18:22:13.644690,-287.0
2023-08-08 18:22:13.652379,-306.0
2023-08-08 18:22:13.660069,-321.0
2023-08-08 18:22:13.667759,-326.0
2023-08-08 18:22:13.675448,-323.0
2023-08-08 18:22:13.683138,-316.0
2023-08-08 18:22:13.690828,-299.0
2023-08-08 18:22:13.698517,-275.0
2023-08-08 18:22:13.706207,-232.0
2023-08-08 18:22:13.713897,-178.0
2023-08-08 18:22:13.721586,-118.0
2023-08-08 18:22:13.729276,-55.0
2023-08-08 18:22:13.736966,-2.0
2023-08-08 18:22:13.744655,43.0
2023-08-08 18:22:13.752345,79.0
2023-08-08 18:22:13.760035,101.0
2023-08-08 18:22:13.767724,108.0
2023-08-08 18:22:13.775414,113.0
2023-08-08 18:22:13.783104,113.0
2023-08-08 18:22:13.790793,108.0
2023-08-08 18:22:13.798483,101.0
2023-08-08 18:22:13.806173,94.0
2023-08-08 18:22:13.813862,87.0
2023-08-08 18:22:13.821552,77.0
2023-08-08 18:22:13.829242,67.0
2023-08-08 18:22:13.836931,60.0
2023-08-08 18:22:13.844621,50.0
2023-08-08 18:22:13.852311,43.0
2023-08-08 18:22:13.860000,41.0
2023-08-08 18:22:13.867690,36.0
2023-08-08 18:22:13.875380,33.0
2023-08-08 18:22:13.883069,36.0
2023-08-08 18:22:13.890759,36.0
2023-08-08 18:22:13.898449,36.0
2023-08-08 18:22:13.906138,33.0
2023-08-08 18:22:13.913828,29.0
2023-08-08 18:22:13.921518,24.0
2023-08-08 18:22:13.929207,29.0
2023-08-08 18:22:13.936897,29.0
2023-08-08 18:22:13.944587,24.0
2023-08-08 18:22:13.952276,21.0
2023-08-08 18:22:13.959966,16.0
2023-08-08 18:22:13.967656,12.0
2023-08-08 18:22:13.975345,12.0
2023-08-08 18:22:13.983035,9.0
2023-08-08 18:22:13.990725,9.0
2023-08-08 18:22:13.998414,12.0
2023-08-08 18:22:14.006104,7.0
2023-08-08 18:22:14.013794,0.0
2023-08-08 18:22:14.021483,-4.0
2023-08-08 18:22:14.029173,-7.0
2023-08-08 18:22:14.036863,-14.0
2023-08-08 18:22:14.044552,-21.0
2023-08-08 18:22:14.052242,-29.0
2023-08-08 18:22:14.059932,-38.0
2023-08-08 18:22:14.067621,-36.0
2023-08-08 18:22:14.075311,-24.0
2023-08-08 18:22:14.083001,-7.0
2023-08-08 18:22:14.090690,0.0
2023-08-08 18:22:14.098380,4.0
2023-08-08 18:22:14.106070,9.0
2023-08-08 18:22:14.113759,4.0
2023-08-08 18:22:14.121449,-2.0
2023-08-08 18:22:14.129139,-4.0
2023-08-08 18:22:14.136828,-53.0
2023-08-08 18:22:14.144518,-311.0
2023-08-08 18:22:14.152208,-778.0
2023-08-08 18:22:14.159897,-923.0
2023-08-08 18:22:14.167587,-335.0
2023-08-08 18:22:14.175277,560.0
2023-08-08 18:22:14.182966,843.0
2023-08-08 18:22:14.190656,374.0
2023-08-08 18:22:14.198346,21.0
2023-08-08 18:22:14.206035,24.0
2023-08-08 18:22:14.213725,-26.0
2023-08-08 18:22:14.221415,-96.0
2023-08-08 18:22:14.229104,-67.0
2023-08-08 18:22:14.236794,-67.0
2023-08-08 18:22:14.244484,-103.0
2023-08-08 18:22:14.252173,-111.0
2023-08-08 18:22:14.259863,-116.0
2023-08-08 18:22:14.267553,-140.0
2023-08-08 18:22:14.275242,-154.0
2023-08-08 18:22:14.282932,-159.0
2023-08-08 18:22:14.290622,-171.0
2023-08-08 18:22:14.298311,-193.0
2023-08-08 18:22:14.306001,-210.0
2023-08-08 18:22:14.313691,-219.0
2023-08-08 18:22:14.321380,-239.0
2023-08-08 18:22:14.329070,-258.0
2023-08-08 18:22:14.336760,-280.0
2023-08-08 18:22:14.344449,-299.0
2023-08-08 18:22:14.352139,-311.0
2023-08-08 18:22:14.359829,-319.0
2023-08-08 18:22:14.367518,-331.0
2023-08-08 18:22:14.375208,-335.0
2023-08-08 18:22:14.382898,-323.0
2023-08-08 18:22:14.390587,-304.0
2023-08-08 18:22:14.398277,-280.0
2023-08-08 18:22:14.405967,-241.0
2023-08-08 18:22:14.413656,-186.0
2023-08-08 18:22:14.421346,-123.0
2023-08-08 18:22:14.429036,-58.0
2023-08-08 18:22:14.436725,-2.0
2023-08-08 18:22:14.444415,43.0
2023-08-08 18:22:14.452105,74.0
2023-08-08 18:22:14.459794,96.0
2023-08-08 18:22:14.467484,113.0
2023-08-08 18:22:14.475174,120.0
2023-08-08 18:22:14.482863,111.0
2023-08-08 18:22:14.490553,103.0
2023-08-08 18:22:14.498243,99.0
2023-08-08 18:22:14.505932,82.0
2023-08-08 18:22:14.513622,70.0
2023-08-08 18:22:14.521312,60.0
2023-08-08 18:22:14.529001,48.0
2023-08-08 18:22:14.536691,43.0
2023-08-08 18:22:14.544381,38.0
2023-08-08 18:22:14.552070,21.0
2023-08-08 18:22:14.559760,12.0
2023-08-08 18:22:14.567450,14.0
2023-08-08 18:22:14.575139,19.0
2023-08-08 18:22:14.582829,21.0
2023-08-08 18:22:14.590519,16.0
2023-08-08 18:22:14.598208,16.0
2023-08-08 18:22:14.605898,24.0
2023-08-08 18:22:14.613588,24.0
2023-08-08 18:22:14.621277,16.0
2023-08-08 18:22:14.628967,16.0
2023-08-08 18:22:14.636657,19.0
2023-08-08 18:22:14.644346,19.0
2023-08-08 18:22:14.652036,16.0
2023-08-08 18:22:14.659726,14.0
2023-08-08 18:22:14.667415,4.0
2023-08-08 18:22:14.675105,0.0
2023-08-08 18:22:14.682795,-2.0
2023-08-08 18:22:14.690484,-12.0
2023-08-08 18:22:14.698174,-21.0
2023-08-08 18:22:14.705864,-24.0
2023-08-08 18:22:14.713553,-33.0
2023-08-08 18:22:14.721243,-38.0
2023-08-08 18:22:14.728933,-24.0
2023-08-08 18:22:14.736622,-4.0
2023-08-08 18:22:14.744312,-2.0
2023-08-08 18:22:14.752002,-2.0
2023-08-08 18:22:14.759691,7.0
2023-08-08 18:22:14.767381,7.0
2023-08-08 18:22:14.775071,-7.0
2023-08-08 18:22:14.782760,-14.0
2023-08-08 18:22:14.790450,-33.0
2023-08-08 18:22:14.798140,-207.0
2023-08-08 18:22:14.805829,-647.0
2023-08-08 18:22:14.813519,-995.0
2023-08-08 18:22:14.821209,-676.0
2023-08-08 18:22:14.828898,232.0
2023-08-08 18:22:14.836588,824.0
2023-08-08 18:22:14.844278,563.0
2023-08-08 18:22:14.851967,132.0
2023-08-08 18:22:14.859657,45.0
2023-08-08 18:22:14.867347,-12.0
2023-08-08 18:22:14.875036,-99.0
2023-08-08 18:22:14.882726,-87.0
2023-08-08 18:22:14.890416,-77.0
2023-08-08 18:22:14.898105,-113.0
2023-08-08 18:22:14.905795,-120.0
2023-08-08 18:22:14.913485,-123.0
2023-08-08 18:22:14.921174,-142.0
2023-08-08 18:22:14.928864,-154.0
2023-08-08 18:22:14.936554,-161.0
2023-08-08 18:22:14.944243,-181.0
2023-08-08 18:22:14.951933,-203.0
2023-08-08 18:22:14.959623,-212.0
2023-08-08 18:22:14.967312,-224.0
2023-08-08 18:22:14.975002,-244.0
2023-08-08 18:22:14.982692,-268.0
2023-08-08 18:22:14.990381,-287.0
2023-08-08 18:22:14.998071,-309.0
2023-08-08 18:22:15.005760,-328.0
2023-08-08 18:22:15.013450,-340.0
2023-08-08 18:22:15.021140,-348.0
2023-08-08 18:22:15.028829,-348.0
2023-08-08 18:22:15.036519,-340.0
2023-08-08 18:22:15.044209,-323.0
2023-08-08 18:22:15.051898,-290.0
2023-08-08 18:22:15.059588,-244.0
2023-08-08 18:22:15.067278,-190.0
2023-08-08 18:22:15.074967,-128.0
2023-08-08 18:22:15.082657,-67.0
2023-08-08 18:22:15.090347,-16.0
2023-08-08 18:22:15.098036,31.0
2023-08-08 18:22:15.105726,72.0
2023-08-08 18:22:15.113416,89.0
2023-08-08 18:22:15.121105,101.0
2023-08-08 18:22:15.128795,103.0
2023-08-08 18:22:15.136485,96.0
2023-08-08 18:22:15.144174,96.0
2023-08-08 18:22:15.151864,91.0
2023-08-08 18:22:15.159554,82.0
2023-08-08 18:22:15.167243,67.0
2023-08-08 18:22:15.174933,50.0
2023-08-08 18:22:15.182623,36.0
2023-08-08 18:22:15.190312,33.0
2023-08-08 18:22:15.198002,31.0
2023-08-08 18:22:15.205692,24.0
2023-08-08 18:22:15.213381,21.0
2023-08-08 18:22:15.221071,19.0
2023-08-08 18:22:15.228761,16.0
2023-08-08 18:22:15.236450,19.0
2023-08-08 18:22:15.244140,21.0
2023-08-08 18:22:15.251830,21.0
2023-08-08 18:22:15.259519,24.0
2023-08-08 18:22:15.267209,26.0
2023-08-08 18:22:15.274899,21.0
2023-08-08 18:22:15.282588,16.0
2023-08-08 18:22:15.290278,14.0
2023-08-08 18:22:15.297968,14.0
2023-08-08 18:22:15.305657,12.0
2023-08-08 18:22:15.313347,7.0
2023-08-08 18:22:15.321037,0.0
2023-08-08 18:22:15.328726,-4.0
2023-08-08 18:22:15.336416,-14.0
2023-08-08 18:22:15.344106,-21.0
2023-08-08 18:22:15.351795,-16.0
2023-08-08 18:22:15.359485,0.0
2023-08-08 18:22:15.367175,12.0
2023-08-08 18:22:15.374864,19.0
2023-08-08 18:22:15.382554,26.0
2023-08-08 18:22:15.390244,31.0
2023-08-08 18:22:15.397933,24.0
2023-08-08 18:22:15.405623,14.0
2023-08-08 18:22:15.413313,12.0
2023-08-08 18:22:15.421002,-26.0
2023-08-08 18:22:15.428692,-268.0
2023-08-08 18:22:15.436382,-751.0
2023-08-08 18:22:15.444071,-964.0
2023-08-08 18:22:15.451761,-420.0
2023-08-08 18:22:15.459451,512.0
2023-08-08 18:22:15.467140,874.0
2023-08-08 18:22:15.474830,464.0
2023-08-08 18:22:15.482520,103.0
2023-08-08 18:22:15.490209,65.0
2023-08-08 18:22:15.497899,-16.0
2023-08-08 18:22:15.505589,-87.0
2023-08-08 18:22:15.513278,-55.0
2023-08-08 18:22:15.520968,-62.0
2023-08-08 18:22:15.528658,-99.0
2023-08-08 18:22:15.536347,-101.0
2023-08-08 18:22:15.544037,-101.0
2023-08-08 18:22:15.551727,-120.0
2023-08-08 18:22:15.559416,-130.0
2023-08-08 18:22:15.567106,-142.0
2023-08-08 18:22:15.574796,-161.0
2023-08-08 18:22:15.582485,-178.0
2023-08-08 18:22:15.590175,-195.0
2023-08-08 18:22:15.597865,-217.0
2023-08-08 18:22:15.605554,-232.0
2023-08-08 18:22:15.613244,-248.0
2023-08-08 18:22:15.620934,-270.0
2023-08-08 18:22:15.628623,-292.0
2023-08-08 18:22:15.636313,-306.0
2023-08-08 18:22:15.644003,-321.0
2023-08-08 18:22:15.651692,-328.0
2023-08-08 18:22:15.659382,-328.0
2023-08-08 18:22:15.667072,-323.0
2023-08-08 18:22:15.674761,-304.0
2023-08-08 18:22:15.682451,-268.0
2023-08-08 18:22:15.690141,-219.0
2023-08-08 18:22:15.697830,-161.0
2023-08-08 18:22:15.705520,-94.0
2023-08-08 18:22:15.713210,-26.0
2023-08-08 18:22:15.720899,24.0
2023-08-08 18:22:15.728589,62.0
2023-08-08 18:22:15.736279,91.0
2023-08-08 18:22:15.743968,113.0
2023-08-08 18:22:15.751658,125.0
2023-08-08 18:22:15.759348,130.0
2023-08-08 18:22:15.767037,128.0
2023-08-08 18:22:15.774727,118.0
2023-08-08 18:22:15.782417,106.0
2023-08-08 18:22:15.790106,96.0
2023-08-08 18:22:15.797796,87.0
2023-08-08 18:22:15.805486,74.0
2023-08-08 18:22:15.813175,62.0
2023-08-08 18:22:15.820865,53.0
2023-08-08 18:22:15.828555,45.0
2023-08-08 18:22:15.836244,41.0
2023-08-08 18:22:15.843934,43.0
2023-08-08 18:22:15.851624,41.0
2023-08-08 18:22:15.859313,31.0
2023-08-08 18:22:15.867003,33.0
2023-08-08 18:22:15.874693,41.0
2023-08-08 18:22:15.882382,41.0
2023-08-08 18:22:15.890072,38.0
2023-08-08 18:22:15.897762,41.0
2023-08-08 18:22:15.905451,43.0
2023-08-08 18:22:15.913141,43.0
2023-08-08 18:22:15.920831,38.0
2023-08-08 18:22:15.928520,38.0
2023-08-08 18:22:15.936210,41.0
2023-08-08 18:22:15.943900,36.0
2023-08-08 18:22:15.951589,29.0
2023-08-08 18:22:15.959279,24.0
2023-08-08 18:22:15.966969,19.0
2023-08-08 18:22:15.974658,9.0
2023-08-08 18:22:15.982348,-4.0
2023-08-08 18:22:15.990038,-14.0
2023-08-08 18:22:15.997727,-4.0
2023-08-08 18:22:16.005417,14.0
2023-08-08 18:22:16.013107,21.0
2023-08-08 18:22:16.020796,24.0
2023-08-08 18:22:16.028486,29.0
2023-08-08 18:22:16.036176,36.0
2023-08-08 18:22:16.043865,31.0
2023-08-08 18:22:16.051555,24.0
2023-08-08 18:22:16.059245,21.0
2023-08-08 18:22:16.066934,-38.0
2023-08-08 18:22:16.074624,-333.0
2023-08-08 18:22:16.082314,-809.0
2023-08-08 18:22:16.090003,-913.0
2023-08-08 18:22:16.097693,-268.0
2023-08-08 18:22:16.105383,621.0
2023-08-08 18:22:16.113072,836.0
2023-08-08 18:22:16.120762,360.0
2023-08-08 18:22:16.128452,50.0
2023-08-08 18:22:16.136141,48.0
2023-08-08 18:22:16.143831,-26.0
2023-08-08 18:22:16.151521,-87.0
2023-08-08 18:22:16.159210,-60.0
2023-08-08 18:22:16.166900,-74.0
2023-08-08 18:22:16.174590,-111.0
2023-08-08 18:22:16.182279,-108.0
2023-08-08 18:22:16.189969,-111.0
2023-08-08 18:22:16.197659,-132.0
2023-08-08 18:22:16.205348,-142.0
2023-08-08 18:22:16.213038,-152.0
2023-08-08 18:22:16.220728,-171.0
2023-08-08 18:22:16.228417,-190.0
2023-08-08 18:22:16.236107,-205.0
2023-08-08 18:22:16.243797,-224.0
2023-08-08 18:22:16.251486,-246.0
2023-08-08 18:22:16.259176,-268.0
2023-08-08 18:22:16.266866,-282.0
2023-08-08 18:22:16.274555,-302.0
2023-08-08 18:22:16.282245,-328.0
2023-08-08 18:22:16.289935,-345.0
2023-08-08 18:22:16.297624,-348.0
2023-08-08 18:22:16.305314,-343.0
2023-08-08 18:22:16.313004,-331.0
2023-08-08 18:22:16.320693,-306.0
2023-08-08 18:22:16.328383,-273.0
2023-08-08 18:22:16.336073,-222.0
2023-08-08 18:22:16.343762,-164.0
2023-08-08 18:22:16.351452,-99.0
2023-08-08 18:22:16.359142,-33.0
2023-08-08 18:22:16.366831,16.0
2023-08-08 18:22:16.374521,58.0
2023-08-08 18:22:16.382211,89.0
2023-08-08 18:22:16.389900,108.0
2023-08-08 18:22:16.397590,120.0
2023-08-08 18:22:16.405280,120.0
2023-08-08 18:22:16.412969,120.0
2023-08-08 18:22:16.420659,116.0
2023-08-08 18:22:16.428349,103.0
2023-08-08 18:22:16.436038,89.0
2023-08-08 18:22:16.443728,82.0
2023-08-08 18:22:16.451418,72.0
2023-08-08 18:22:16.459107,62.0
2023-08-08 18:22:16.466797,53.0
2023-08-08 18:22:16.474487,43.0
2023-08-08 18:22:16.482176,36.0
2023-08-08 18:22:16.489866,33.0
2023-08-08 18:22:16.497556,33.0
2023-08-08 18:22:16.505245,33.0
2023-08-08 18:22:16.512935,36.0
2023-08-08 18:22:16.520625,33.0
2023-08-08 18:22:16.528314,36.0
2023-08-08 18:22:16.536004,38.0
2023-08-08 18:22:16.543694,41.0
2023-08-08 18:22:16.551383,43.0
2023-08-08 18:22:16.559073,41.0
2023-08-08 18:22:16.566763,38.0
2023-08-08 18:22:16.574452,36.0
2023-08-08 18:22:16.582142,33.0
2023-08-08 18:22:16.589832,31.0
2023-08-08 18:22:16.597521,31.0
2023-08-08 18:22:16.605211,24.0
2023-08-08 18:22:16.612901,12.0
2023-08-08 18:22:16.620590,2.0
2023-08-08 18:22:16.628280,-7.0
2023-08-08 18:22:16.635970,-9.0
2023-08-08 18:22:16.643659,4.0
2023-08-08 18:22:16.651349,19.0
2023-08-08 18:22:16.659039,24.0
2023-08-08 18:22:16.666728,26.0
2023-08-08 18:22:16.674418,33.0
2023-08-08 18:22:16.682108,36.0
2023-08-08 18:22:16.689797,29.0
2023-08-08 18:22:16.697487,21.0
2023-08-08 18:22:16.705177,2.0
2023-08-08 18:22:16.712866,-130.0
2023-08-08 18:22:16.720556,-526.0
2023-08-08 18:22:16.728246,-930.0
2023-08-08 18:22:16.735935,-749.0
2023-08-08 18:22:16.743625,84.0
2023-08-08 18:22:16.751315,795.0
2023-08-08 18:22:16.759004,667.0
2023-08-08 18:22:16.766694,164.0
2023-08-08 18:22:16.774384,16.0
2023-08-08 18:22:16.782073,9.0
2023-08-08 18:22:16.789763,-84.0
2023-08-08 18:22:16.797453,-99.0
2023-08-08 18:22:16.805142,-70.0
2023-08-08 18:22:16.812832,-99.0
2023-08-08 18:22:16.820522,-120.0
2023-08-08 18:22:16.828211,-113.0
2023-08-08 18:22:16.835901,-125.0
2023-08-08 18:22:16.843591,-145.0
2023-08-08 18:22:16.851280,-154.0
2023-08-08 18:22:16.858970,-164.0
2023-08-08 18:22:16.866660,-181.0
2023-08-08 18:22:16.874349,-195.0
2023-08-08 18:22:16.882039,-215.0
2023-08-08 18:22:16.889729,-234.0
2023-08-08 18:22:16.897418,-253.0
2023-08-08 18:22:16.905108,-270.0
2023-08-08 18:22:16.912798,-290.0
2023-08-08 18:22:16.920487,-311.0
2023-08-08 18:22:16.928177,-333.0
2023-08-08 18:22:16.935867,-348.0
2023-08-08 18:22:16.943556,-345.0
2023-08-08 18:22:16.951246,-338.0
2023-08-08 18:22:16.958936,-323.0
2023-08-08 18:22:16.966625,-299.0
2023-08-08 18:22:16.974315,-261.0
2023-08-08 18:22:16.982005,-207.0
2023-08-08 18:22:16.989694,-147.0
2023-08-08 18:22:16.997384,-82.0
2023-08-08 18:22:17.005074,-19.0
2023-08-08 18:22:17.012763,31.0
2023-08-08 18:22:17.020453,62.0
2023-08-08 18:22:17.028142,84.0
2023-08-08 18:22:17.035832,103.0
2023-08-08 18:22:17.043522,116.0
2023-08-08 18:22:17.051211,113.0
2023-08-08 18:22:17.058901,106.0
2023-08-08 18:22:17.066591,96.0
2023-08-08 18:22:17.074280,89.0
2023-08-08 18:22:17.081970,82.0
2023-08-08 18:22:17.089660,70.0
2023-08-08 18:22:17.097349,58.0
2023-08-08 18:22:17.105039,50.0
2023-08-08 18:22:17.112729,41.0
2023-08-08 18:22:17.120418,36.0
2023-08-08 18:22:17.128108,38.0
2023-08-08 18:22:17.135798,36.0
2023-08-08 18:22:17.143487,29.0
2023-08-08 18:22:17.151177,26.0
2023-08-08 18:22:17.158867,29.0
2023-08-08 18:22:17.166556,33.0
2023-08-08 18:22:17.174246,36.0
2023-08-08 18:22:17.181936,38.0
2023-08-08 18:22:17.189625,38.0
2023-08-08 18:22:17.197315,38.0
2023-08-08 18:22:17.205005,31.0
2023-08-08 18:22:17.212694,26.0
2023-08-08 18:22:17.220384,24.0
2023-08-08 18:22:17.228074,24.0
2023-08-08 18:22:17.235763,21.0
2023-08-08 18:22:17.243453,12.0
2023-08-08 18:22:17.251143,2.0
2023-08-08 18:22:17.258832,-7.0
2023-08-08 18:22:17.266522,-19.0
2023-08-08 18:22:17.274212,-24.0
2023-08-08 18:22:17.281901,-12.0
2023-08-08 18:22:17.289591,0.0
2023-08-08 18:22:17.297281,-2.0
2023-08-08 18:22:17.304970,2.0
2023-08-08 18:22:17.312660,16.0
2023-08-08 18:22:17.320350,24.0
2023-08-08 18:22:17.328039,9.0
2023-08-08 18:22:17.335729,-7.0
2023-08-08 18:22:17.343419,-14.0
2023-08-08 18:22:17.351108,-72.0
2023-08-08 18:22:17.358798,-348.0
2023-08-08 18:22:17.366488,-821.0
2023-08-08 18:22:17.374177,-954.0
2023-08-08 18:22:17.381867,-340.0
2023-08-08 18:22:17.389557,553.0
2023-08-08 18:22:17.397246,814.0
2023-08-08 18:22:17.404936,374.0
2023-08-08 18:22:17.412626,55.0
2023-08-08 18:22:17.420315,29.0
2023-08-08 18:22:17.428005,-45.0
2023-08-08 18:22:17.435695,-101.0
2023-08-08 18:22:17.443384,-74.0
2023-08-08 18:22:17.451074,-89.0
2023-08-08 18:22:17.458764,-123.0
2023-08-08 18:22:17.466453,-128.0
2023-08-08 18:22:17.474143,-132.0
2023-08-08 18:22:17.481833,-149.0
2023-08-08 18:22:17.489522,-159.0
2023-08-08 18:22:17.497212,-171.0
2023-08-08 18:22:17.504902,-188.0
2023-08-08 18:22:17.512591,-205.0
2023-08-08 18:22:17.520281,-222.0
2023-08-08 18:22:17.527971,-239.0
2023-08-08 18:22:17.535660,-253.0
2023-08-08 18:22:17.543350,-273.0
2023-08-08 18:22:17.551040,-302.0
2023-08-08 18:22:17.558729,-323.0
2023-08-08 18:22:17.566419,-340.0
2023-08-08 18:22:17.574109,-357.0
2023-08-08 18:22:17.581798,-367.0
2023-08-08 18:22:17.589488,-362.0
2023-08-08 18:22:17.597178,-348.0
2023-08-08 18:22:17.604867,-326.0
2023-08-08 18:22:17.612557,-285.0
2023-08-08 18:22:17.620247,-232.0
2023-08-08 18:22:17.627936,-176.0
2023-08-08 18:22:17.635626,-116.0
2023-08-08 18:22:17.643316,-48.0
2023-08-08 18:22:17.651005,9.0
2023-08-08 18:22:17.658695,55.0
2023-08-08 18:22:17.666385,87.0
2023-08-08 18:22:17.674074,99.0
2023-08-08 18:22:17.681764,106.0
2023-08-08 18:22:17.689454,113.0
2023-08-08 18:22:17.697143,111.0
2023-08-08 18:22:17.704833,101.0
2023-08-08 18:22:17.712523,82.0
2023-08-08 18:22:17.720212,70.0
2023-08-08 18:22:17.727902,67.0
2023-08-08 18:22:17.735592,60.0
2023-08-08 18:22:17.743281,48.0
2023-08-08 18:22:17.750971,43.0
2023-08-08 18:22:17.758661,38.0
2023-08-08 18:22:17.766350,33.0
2023-08-08 18:22:17.774040,26.0
2023-08-08 18:22:17.781730,16.0
2023-08-08 18:22:17.789419,12.0
2023-08-08 18:22:17.797109,16.0
2023-08-08 18:22:17.804799,16.0
2023-08-08 18:22:17.812488,4.0
2023-08-08 18:22:17.820178,7.0
2023-08-08 18:22:17.827868,16.0
2023-08-08 18:22:17.835557,16.0
2023-08-08 18:22:17.843247,19.0
2023-08-08 18:22:17.850937,16.0
2023-08-08 18:22:17.858626,4.0
2023-08-08 18:22:17.866316,0.0
2023-08-08 18:22:17.874006,-9.0
2023-08-08 18:22:17.881695,-31.0
2023-08-08 18:22:17.889385,-33.0
2023-08-08 18:22:17.897075,-12.0
2023-08-08 18:22:17.904764,2.0
2023-08-08 18:22:17.912454,0.0
2023-08-08 18:22:17.920144,2.0
2023-08-08 18:22:17.927833,12.0
2023-08-08 18:22:17.935523,12.0
2023-08-08 18:22:17.943213,0.0
2023-08-08 18:22:17.950902,-4.0
2023-08-08 18:22:17.958592,-4.0
2023-08-08 18:22:17.966282,-96.0
2023-08-08 18:22:17.973971,-432.0
2023-08-08 18:22:17.981661,-882.0
2023-08-08 18:22:17.989351,-889.0
2023-08-08 18:22:17.997040,-176.0
2023-08-08 18:22:18.004730,669.0
2023-08-08 18:22:18.012420,797.0
2023-08-08 18:22:18.020109,331.0
2023-08-08 18:22:18.027799,65.0
2023-08-08 18:22:18.035489,33.0
2023-08-08 18:22:18.043178,-55.0
2023-08-08 18:22:18.050868,-101.0
2023-08-08 18:22:18.058558,-74.0
2023-08-08 18:22:18.066247,-87.0
2023-08-08 18:22:18.073937,-113.0
2023-08-08 18:22:18.081627,-116.0
2023-08-08 18:22:18.089316,-128.0
2023-08-08 18:22:18.097006,-145.0
2023-08-08 18:22:18.104696,-154.0
2023-08-08 18:22:18.112385,-161.0
2023-08-08 18:22:18.120075,-174.0
2023-08-08 18:22:18.127765,-198.0
2023-08-08 18:22:18.135454,-219.0
2023-08-08 18:22:18.143144,-232.0
2023-08-08 18:22:18.150834,-248.0
2023-08-08 18:22:18.158523,-273.0
2023-08-08 18:22:18.166213,-297.0
2023-08-08 18:22:18.173903,-321.0
2023-08-08 18:22:18.181592,-338.0
2023-08-08 18:22:18.189282,-343.0
2023-08-08 18:22:18.196972,-345.0
2023-08-08 18:22:18.204661,-340.0
2023-08-08 18:22:18.212351,-321.0
2023-08-08 18:22:18.220041,-292.0
2023-08-08 18:22:18.227730,-253.0
2023-08-08 18:22:18.235420,-198.0
2023-08-08 18:22:18.243110,-132.0
2023-08-08 18:22:18.250799,-74.0
2023-08-08 18:22:18.258489,-16.0
2023-08-08 18:22:18.266179,41.0
2023-08-08 18:22:18.273868,82.0
2023-08-08 18:22:18.281558,101.0
2023-08-08 18:22:18.289248,113.0
2023-08-08 18:22:18.296937,118.0
2023-08-08 18:22:18.304627,116.0
2023-08-08 18:22:18.312317,113.0
2023-08-08 18:22:18.320006,106.0
2023-08-08 18:22:18.327696,94.0
2023-08-08 18:22:18.335386,82.0
2023-08-08 18:22:18.343075,74.0
2023-08-08 18:22:18.350765,72.0
2023-08-08 18:22:18.358455,62.0
2023-08-08 18:22:18.366144,50.0
2023-08-08 18:22:18.373834,45.0
2023-08-08 18:22:18.381524,45.0
2023-08-08 18:22:18.389213,41.0
2023-08-08 18:22:18.396903,38.0
2023-08-08 18:22:18.404593,36.0
2023-08-08 18:22:18.412282,26.0
2023-08-08 18:22:18.419972,16.0
2023-08-08 18:22:18.427662,16.0
2023-08-08 18:22:18.435351,16.0
2023-08-08 18:22:18.443041,9.0
2023-08-08 18:22:18.450731,2.0
2023-08-08 18:22:18.458420,-9.0
2023-08-08 18:22:18.466110,-21.0
2023-08-08 18:22:18.473800,-21.0
2023-08-08 18:22:18.481489,-21.0
2023-08-08 18:22:18.489179,-36.0
2023-08-08 18:22:18.496869,-50.0
2023-08-08 18:22:18.504558,-45.0
2023-08-08 18:22:18.512248,-31.0
2023-08-08 18:22:18.519938,-24.0
2023-08-08 18:22:18.527627,-19.0
2023-08-08 18:22:18.535317,-9.0
2023-08-08 18:22:18.543007,-4.0
2023-08-08 18:22:18.550696,-12.0
2023-08-08 18:22:18.558386,-19.0
2023-08-08 18:22:18.566076,-19.0
2023-08-08 18:22:18.573765,-62.0
2023-08-08 18:22:18.581455,-326.0
2023-08-08 18:22:18.589145,-804.0
2023-08-08 18:22:18.596834,-940.0
2023-08-08 18:22:18.604524,-328.0
2023-08-08 18:22:18.612214,565.0
2023-08-08 18:22:18.619903,865.0
2023-08-08 18:22:18.627593,425.0
2023-08-08 18:22:18.635283,43.0
2023-08-08 18:22:18.642972,2.0
2023-08-08 18:22:18.650662,-48.0
2023-08-08 18:22:18.658352,-108.0
2023-08-08 18:22:18.666041,-87.0
2023-08-08 18:22:18.673731,-89.0
2023-08-08 18:22:18.681421,-120.0
2023-08-08 18:22:18.689110,-125.0
2023-08-08 18:22:18.696800,-130.0
2023-08-08 18:22:18.704490,-142.0
2023-08-08 18:22:18.712179,-152.0
2023-08-08 18:22:18.719869,-161.0
2023-08-08 18:22:18.727559,-178.0
2023-08-08 18:22:18.735248,-198.0
2023-08-08 18:22:18.742938,-212.0
2023-08-08 18:22:18.750628,-229.0
2023-08-08 18:22:18.758317,-251.0
2023-08-08 18:22:18.766007,-268.0
2023-08-08 18:22:18.773697,-294.0
2023-08-08 18:22:18.781386,-319.0
2023-08-08 18:22:18.789076,-328.0
2023-08-08 18:22:18.796766,-338.0
2023-08-08 18:22:18.804455,-348.0
2023-08-08 18:22:18.812145,-348.0
2023-08-08 18:22:18.819835,-333.0
2023-08-08 18:22:18.827524,-309.0
2023-08-08 18:22:18.835214,-270.0
2023-08-08 18:22:18.842904,-215.0
2023-08-08 18:22:18.850593,-149.0
2023-08-08 18:22:18.858283,-84.0
2023-08-08 18:22:18.865973,-24.0
2023-08-08 18:22:18.873662,29.0
2023-08-08 18:22:18.881352,70.0
2023-08-08 18:22:18.889042,103.0
2023-08-08 18:22:18.896731,120.0
2023-08-08 18:22:18.904421,125.0
2023-08-08 18:22:18.912111,130.0
2023-08-08 18:22:18.919800,130.0
2023-08-08 18:22:18.927490,120.0
2023-08-08 18:22:18.935180,111.0
2023-08-08 18:22:18.942869,103.0
2023-08-08 18:22:18.950559,91.0
2023-08-08 18:22:18.958249,77.0
2023-08-08 18:22:18.965938,70.0
2023-08-08 18:22:18.973628,70.0
2023-08-08 18:22:18.981318,65.0
2023-08-08 18:22:18.989007,53.0
2023-08-08 18:22:18.996697,43.0
2023-08-08 18:22:19.004387,36.0
2023-08-08 18:22:19.012076,36.0
2023-08-08 18:22:19.019766,38.0
2023-08-08 18:22:19.027456,38.0
2023-08-08 18:22:19.035145,38.0
2023-08-08 18:22:19.042835,36.0
2023-08-08 18:22:19.050524,31.0
2023-08-08 18:22:19.058214,31.0
2023-08-08 18:22:19.065904,29.0
2023-08-08 18:22:19.073593,24.0
2023-08-08 18:22:19.081283,21.0
2023-08-08 18:22:19.088973,16.0
2023-08-08 18:22:19.096662,7.0
2023-08-08 18:22:19.104352,0.0
2023-08-08 18:22:19.112042,-2.0
2023-08-08 18:22:19.119731,-12.0
2023-08-08 18:22:19.127421,-24.0
2023-08-08 18:22:19.135111,-26.0
2023-08-08 18:22:19.142800,-14.0
2023-08-08 18:22:19.150490,0.0
2023-08-08 18:22:19.158180,4.0
2023-08-08 18:22:19.165869,7.0
2023-08-08 18:22:19.173559,16.0
2023-08-08 18:22:19.181249,19.0
2023-08-08 18:22:19.188938,7.0
2023-08-08 18:22:19.196628,2.0
2023-08-08 18:22:19.204318,-2.0
2023-08-08 18:22:19.212007,-113.0
2023-08-08 18:22:19.219697,-495.0
2023-08-08 18:22:19.227387,-916.0
2023-08-08 18:22:19.235076,-768.0
2023-08-08 18:22:19.242766,33.0
2023-08-08 18:22:19.250456,778.0
2023-08-08 18:22:19.258145,734.0
2023-08-08 18:22:19.265835,224.0
2023-08-08 18:22:19.273525,7.0
2023-08-08 18:22:19.281214,7.0
2023-08-08 18:22:19.288904,-65.0
2023-08-08 18:22:19.296594,-94.0
2023-08-08 18:22:19.304283,-72.0
2023-08-08 18:22:19.311973,-99.0
2023-08-08 18:22:19.319663,-125.0
2023-08-08 18:22:19.327352,-120.0
2023-08-08 18:22:19.335042,-130.0
2023-08-08 18:22:19.342732,-149.0
2023-08-08 18:22:19.350421,-157.0
2023-08-08 18:22:19.358111,-166.0
2023-08-08 18:22:19.365801,-183.0
2023-08-08 18:22:19.373490,-198.0
2023-08-08 18:22:19.381180,-215.0
2023-08-08 18:22:19.388870,-234.0
2023-08-08 18:22:19.396559,-253.0
2023-08-08 18:22:19.404249,-275.0
2023-08-08 18:22:19.411939,-294.0
2023-08-08 18:22:19.419628,-314.0
2023-08-08 18:22:19.427318,-333.0
2023-08-08 18:22:19.435008,-345.0
2023-08-08 18:22:19.442697,-343.0
2023-08-08 18:22:19.450387,-338.0
2023-08-08 18:22:19.458077,-321.0
2023-08-08 18:22:19.465766,-290.0
2023-08-08 18:22:19.473456,-248.0
2023-08-08 18:22:19.481146,-200.0
2023-08-08 18:22:19.488835,-140.0
2023-08-08 18:22:19.496525,-72.0
2023-08-08 18:22:19.504215,-7.0
2023-08-08 18:22:19.511904,41.0
2023-08-08 18:22:19.519594,82.0
2023-08-08 18:22:19.527284,108.0
2023-08-08 18:22:19.534973,120.0
2023-08-08 18:22:19.542663,120.0
2023-08-08 18:22:19.550353,120.0
2023-08-08 18:22:19.558042,118.0
2023-08-08 18:22:19.565732,111.0
2023-08-08 18:22:19.573422,101.0
2023-08-08 18:22:19.581111,91.0
2023-08-08 18:22:19.588801,82.0
2023-08-08 18:22:19.596491,74.0
2023-08-08 18:22:19.604180,70.0
2023-08-08 18:22:19.611870,70.0
2023-08-08 18:22:19.619560,67.0
2023-08-08 18:22:19.627249,60.0
2023-08-08 18:22:19.634939,58.0
2023-08-08 18:22:19.642629,58.0
2023-08-08 18:22:19.650318,60.0
2023-08-08 18:22:19.658008,60.0
2023-08-08 18:22:19.665698,60.0
2023-08-08 18:22:19.673387,58.0
2023-08-08 18:22:19.681077,53.0
2023-08-08 18:22:19.688767,58.0
2023-08-08 18:22:19.696456,60.0
2023-08-08 18:22:19.704146,55.0
2023-08-08 18:22:19.711836,50.0
2023-08-08 18:22:19.719525,45.0
2023-08-08 18:22:19.727215,43.0
2023-08-08 18:22:19.734905,41.0
2023-08-08 18:22:19.742594,36.0
2023-08-08 18:22:19.750284,31.0
2023-08-08 18:22:19.757974,26.0
2023-08-08 18:22:19.765663,14.0
2023-08-08 18:22:19.773353,7.0
2023-08-08 18:22:19.781043,0.0
2023-08-08 18:22:19.788732,-9.0
2023-08-08 18:22:19.796422,-12.0
2023-08-08 18:22:19.804112,0.0
2023-08-08 18:22:19.811801,9.0
2023-08-08 18:22:19.819491,12.0
2023-08-08 18:22:19.827181,14.0
2023-08-08 18:22:19.834870,24.0
2023-08-08 18:22:19.842560,21.0
2023-08-08 18:22:19.850250,12.0
2023-08-08 18:22:19.857939,9.0
2023-08-08 18:22:19.865629,-4.0
2023-08-08 18:22:19.873319,-176.0
2023-08-08 18:22:19.881008,-606.0
2023-08-08 18:22:19.888698,-932.0
2023-08-08 18:22:19.896388,-609.0
2023-08-08 18:22:19.904077,253.0
2023-08-08 18:22:19.911767,829.0
2023-08-08 18:22:19.919457,582.0
2023-08-08 18:22:19.927146,113.0
2023-08-08 18:22:19.934836,16.0
2023-08-08 18:22:19.942526,2.0
2023-08-08 18:22:19.950215,-79.0
2023-08-08 18:22:19.957905,-79.0
2023-08-08 18:22:19.965595,-62.0
2023-08-08 18:22:19.973284,-89.0
2023-08-08 18:22:19.980974,-103.0
2023-08-08 18:22:19.988664,-103.0
2023-08-08 18:22:19.996353,-116.0
2023-08-08 18:22:20.004043,-132.0
2023-08-08 18:22:20.011733,-140.0
2023-08-08 18:22:20.019422,-152.0
2023-08-08 18:22:20.027112,-171.0
2023-08-08 18:22:20.034802,-183.0
2023-08-08 18:22:20.042491,-198.0
2023-08-08 18:22:20.050181,-219.0
2023-08-08 18:22:20.057871,-236.0
2023-08-08 18:22:20.065560,-253.0
2023-08-08 18:22:20.073250,-275.0
2023-08-08 18:22:20.080940,-294.0
2023-08-08 18:22:20.088629,-304.0
2023-08-08 18:22:20.096319,-311.0
2023-08-08 18:22:20.104009,-316.0
2023-08-08 18:22:20.111698,-306.0
2023-08-08 18:22:20.119388,-294.0
2023-08-08 18:22:20.127078,-277.0
2023-08-08 18:22:20.134767,-241.0
2023-08-08 18:22:20.142457,-186.0
2023-08-08 18:22:20.150147,-128.0
2023-08-08 18:22:20.157836,-65.0
2023-08-08 18:22:20.165526,-7.0
2023-08-08 18:22:20.173216,36.0
2023-08-08 18:22:20.180905,72.0
2023-08-08 18:22:20.188595,101.0
2023-08-08 18:22:20.196285,113.0
2023-08-08 18:22:20.203974,118.0
2023-08-08 18:22:20.211664,113.0
2023-08-08 18:22:20.219354,101.0
2023-08-08 18:22:20.227043,94.0
2023-08-08 18:22:20.234733,89.0
2023-08-08 18:22:20.242423,82.0
2023-08-08 18:22:20.250112,74.0
2023-08-08 18:22:20.257802,67.0
2023-08-08 18:22:20.265492,60.0
2023-08-08 18:22:20.273181,58.0
2023-08-08 18:22:20.280871,55.0
2023-08-08 18:22:20.288561,53.0
2023-08-08 18:22:20.296250,50.0
2023-08-08 18:22:20.303940,48.0
2023-08-08 18:22:20.311630,45.0
2023-08-08 18:22:20.319319,48.0
2023-08-08 18:22:20.327009,45.0
2023-08-08 18:22:20.334699,38.0
2023-08-08 18:22:20.342388,36.0
2023-08-08 18:22:20.350078,33.0
2023-08-08 18:22:20.357768,31.0
2023-08-08 18:22:20.365457,33.0
2023-08-08 18:22:20.373147,31.0
2023-08-08 18:22:20.380837,26.0
2023-08-08 18:22:20.388526,21.0
2023-08-08 18:22:20.396216,16.0
2023-08-08 18:22:20.403906,9.0
2023-08-08 18:22:20.411595,0.0
2023-08-08 18:22:20.419285,-12.0
2023-08-08 18:22:20.426975,-19.0
2023-08-08 18:22:20.434664,-26.0
2023-08-08 18:22:20.442354,-31.0
2023-08-08 18:22:20.450044,-16.0
2023-08-08 18:22:20.457733,0.0
2023-08-08 18:22:20.465423,4.0
2023-08-08 18:22:20.473113,9.0
2023-08-08 18:22:20.480802,19.0
2023-08-08 18:22:20.488492,19.0
2023-08-08 18:22:20.496182,12.0
2023-08-08 18:22:20.503871,7.0
2023-08-08 18:22:20.511561,0.0
2023-08-08 18:22:20.519251,-125.0
2023-08-08 18:22:20.526940,-522.0
2023-08-08 18:22:20.534630,-923.0
2023-08-08 18:22:20.542320,-744.0
2023-08-08 18:22:20.550009,79.0
2023-08-08 18:22:20.557699,785.0
2023-08-08 18:22:20.565389,662.0
2023-08-08 18:22:20.573078,166.0
2023-08-08 18:22:20.580768,16.0
2023-08-08 18:22:20.588458,16.0
2023-08-08 18:22:20.596147,-67.0
2023-08-08 18:22:20.603837,-82.0
2023-08-08 18:22:20.611527,-60.0
2023-08-08 18:22:20.619216,-89.0
2023-08-08 18:22:20.626906,-111.0
2023-08-08 18:22:20.634596,-108.0
2023-08-08 18:22:20.642285,-120.0
2023-08-08 18:22:20.649975,-135.0
2023-08-08 18:22:20.657665,-147.0
2023-08-08 18:22:20.665354,-174.0
2023-08-08 18:22:20.673044,-203.0
2023-08-08 18:22:20.680734,-215.0
2023-08-08 18:22:20.688423,-224.0
2023-08-08 18:22:20.696113,-244.0
2023-08-08 18:22:20.703803,-265.0
2023-08-08 18:22:20.711492,-282.0
2023-08-08 18:22:20.719182,-304.0
2023-08-08 18:22:20.726872,-323.0
2023-08-08 18:22:20.734561,-331.0
2023-08-08 18:22:20.742251,-335.0
2023-08-08 18:22:20.749941,-345.0
2023-08-08 18:22:20.757630,-343.0
2023-08-08 18:22:20.765320,-323.0
2023-08-08 18:22:20.773010,-294.0
2023-08-08 18:22:20.780699,-256.0
2023-08-08 18:22:20.788389,-210.0
2023-08-08 18:22:20.796079,-152.0
2023-08-08 18:22:20.803768,-82.0
2023-08-08 18:22:20.811458,-19.0
2023-08-08 18:22:20.819148,29.0
2023-08-08 18:22:20.826837,62.0
2023-08-08 18:22:20.834527,79.0
2023-08-08 18:22:20.842217,99.0
2023-08-08 18:22:20.849906,108.0
2023-08-08 18:22:20.857596,103.0
2023-08-08 18:22:20.865286,96.0
2023-08-08 18:22:20.872975,94.0
2023-08-08 18:22:20.880665,89.0
2023-08-08 18:22:20.888355,77.0
2023-08-08 18:22:20.896044,67.0
2023-08-08 18:22:20.903734,60.0
2023-08-08 18:22:20.911424,50.0
2023-08-08 18:22:20.919113,43.0
2023-08-08 18:22:20.926803,43.0
2023-08-08 18:22:20.934493,43.0
2023-08-08 18:22:20.942182,43.0
2023-08-08 18:22:20.949872,45.0
2023-08-08 18:22:20.957562,45.0
2023-08-08 18:22:20.965251,43.0
2023-08-08 18:22:20.972941,43.0
2023-08-08 18:22:20.980631,43.0
2023-08-08 18:22:20.988320,38.0
2023-08-08 18:22:20.996010,31.0
2023-08-08 18:22:21.003700,24.0
2023-08-08 18:22:21.011389,19.0
2023-08-08 18:22:21.019079,14.0
2023-08-08 18:22:21.026769,7.0
2023-08-08 18:22:21.034458,-2.0
2023-08-08 18:22:21.042148,-14.0
2023-08-08 18:22:21.049838,-21.0
2023-08-08 18:22:21.057527,-4.0
2023-08-08 18:22:21.065217,14.0
2023-08-08 18:22:21.072906,19.0
2023-08-08 18:22:21.080596,16.0
2023-08-08 18:22:21.088286,26.0
2023-08-08 18:22:21.095975,31.0
2023-08-08 18:22:21.103665,19.0
2023-08-08 18:22:21.111355,16.0
2023-08-08 18:22:21.119044,12.0
2023-08-08 18:22:21.126734,-72.0
2023-08-08 18:22:21.134424,-396.0
2023-08-08 18:22:21.142113,-860.0
2023-08-08 18:22:21.149803,-906.0
2023-08-08 18:22:21.157493,-207.0
2023-08-08 18:22:21.165182,650.0
2023-08-08 18:22:21.172872,778.0
2023-08-08 18:22:21.180562,314.0
2023-08-08 18:22:21.188251,65.0
2023-08-08 18:22:21.195941,38.0
2023-08-08 18:22:21.203631,-53.0
2023-08-08 18:22:21.211320,-94.0
2023-08-08 18:22:21.219010,-70.0
2023-08-08 18:22:21.226700,-89.0
2023-08-08 18:22:21.234389,-113.0
2023-08-08 18:22:21.242079,-116.0
2023-08-08 18:22:21.249769,-135.0
2023-08-08 18:22:21.257458,-157.0
2023-08-08 18:22:21.265148,-159.0
2023-08-08 18:22:21.272838,-174.0
2023-08-08 18:22:21.280527,-195.0
2023-08-08 18:22:21.288217,-207.0
2023-08-08 18:22:21.295907,-222.0
2023-08-08 18:22:21.303596,-239.0
2023-08-08 18:22:21.311286,-258.0
2023-08-08 18:22:21.318976,-280.0
2023-08-08 18:22:21.326665,-302.0
2023-08-08 18:22:21.334355,-323.0
2023-08-08 18:22:21.342045,-343.0
2023-08-08 18:22:21.349734,-348.0
2023-08-08 18:22:21.357424,-348.0
2023-08-08 18:22:21.365114,-340.0
2023-08-08 18:22:21.372803,-323.0
2023-08-08 18:22:21.380493,-294.0
2023-08-08 18:22:21.388183,-256.0
2023-08-08 18:22:21.395872,-203.0
2023-08-08 18:22:21.403562,-145.0
2023-08-08 18:22:21.411252,-77.0
2023-08-08 18:22:21.418941,-14.0
2023-08-08 18:22:21.426631,36.0
2023-08-08 18:22:21.434321,74.0
2023-08-08 18:22:21.442010,103.0
2023-08-08 18:22:21.449700,120.0
2023-08-08 18:22:21.457390,128.0
2023-08-08 18:22:21.465079,128.0
2023-08-08 18:22:21.472769,123.0
2023-08-08 18:22:21.480459,116.0
2023-08-08 18:22:21.488148,111.0
2023-08-08 18:22:21.495838,101.0
2023-08-08 18:22:21.503528,89.0
2023-08-08 18:22:21.511217,84.0
2023-08-08 18:22:21.518907,82.0
2023-08-08 18:22:21.526597,72.0
2023-08-08 18:22:21.534286,70.0
2023-08-08 18:22:21.541976,70.0
2023-08-08 18:22:21.549666,65.0
2023-08-08 18:22:21.557355,62.0
2023-08-08 18:22:21.565045,65.0
2023-08-08 18:22:21.572735,65.0
2023-08-08 18:22:21.580424,62.0
2023-08-08 18:22:21.588114,65.0
2023-08-08 18:22:21.595804,60.0
2023-08-08 18:22:21.603493,53.0
2023-08-08 18:22:21.611183,48.0
2023-08-08 18:22:21.618873,41.0
2023-08-08 18:22:21.626562,33.0
2023-08-08 18:22:21.634252,21.0
2023-08-08 18:22:21.641942,4.0
2023-08-08 18:22:21.649631,2.0
2023-08-08 18:22:21.657321,21.0
2023-08-08 18:22:21.665011,38.0
2023-08-08 18:22:21.672700,41.0
2023-08-08 18:22:21.680390,45.0
2023-08-08 18:22:21.688080,48.0
2023-08-08 18:22:21.695769,41.0
2023-08-08 18:22:21.703459,36.0
2023-08-08 18:22:21.711149,38.0
2023-08-08 18:22:21.718838,7.0
2023-08-08 18:22:21.726528,-176.0
2023-08-08 18:22:21.734218,-618.0
2023-08-08 18:22:21.741907,-940.0
2023-08-08 18:22:21.749597,-577.0
2023-08-08 18:22:21.757287,331.0
2023-08-08 18:22:21.764976,884.0
2023-08-08 18:22:21.772666,592.0
2023-08-08 18:22:21.780356,137.0
2023-08-08 18:22:21.788045,41.0
2023-08-08 18:22:21.795735,-4.0
2023-08-08 18:22:21.803425,-82.0
2023-08-08 18:22:21.811114,-70.0
2023-08-08 18:22:21.818804,-60.0
2023-08-08 18:22:21.826494,-101.0
2023-08-08 18:22:21.834183,-118.0
2023-08-08 18:22:21.841873,-108.0
2023-08-08 18:22:21.849563,-118.0
2023-08-08 18:22:21.857252,-142.0
2023-08-08 18:22:21.864942,-152.0
2023-08-08 18:22:21.872632,-159.0
2023-08-08 18:22:21.880321,-176.0
2023-08-08 18:22:21.888011,-190.0
2023-08-08 18:22:21.895701,-210.0
2023-08-08 18:22:21.903390,-227.0
2023-08-08 18:22:21.911080,-244.0
2023-08-08 18:22:21.918770,-265.0
2023-08-08 18:22:21.926459,-285.0
2023-08-08 18:22:21.934149,-297.0
2023-08-08 18:22:21.941839,-314.0
2023-08-08 18:22:21.949528,-316.0
2023-08-08 18:22:21.957218,-306.0
2023-08-08 18:22:21.964908,-297.0
2023-08-08 18:22:21.972597,-280.0
2023-08-08 18:22:21.980287,-246.0
2023-08-08 18:22:21.987977,-203.0
2023-08-08 18:22:21.995666,-149.0
2023-08-08 18:22:22.003356,-84.0
2023-08-08 18:22:22.011046,-19.0
2023-08-08 18:22:22.018735,33.0
2023-08-08 18:22:22.026425,70.0
2023-08-08 18:22:22.034115,99.0
2023-08-08 18:22:22.041804,123.0
2023-08-08 18:22:22.049494,135.0
2023-08-08 18:22:22.057184,135.0
2023-08-08 18:22:22.064873,132.0
2023-08-08 18:22:22.072563,123.0
2023-08-08 18:22:22.080253,113.0
2023-08-08 18:22:22.087942,111.0
2023-08-08 18:22:22.095632,103.0
2023-08-08 18:22:22.103322,89.0
2023-08-08 18:22:22.111011,79.0
2023-08-08 18:22:22.118701,70.0
2023-08-08 18:22:22.126391,62.0
2023-08-08 18:22:22.134080,62.0
2023-08-08 18:22:22.141770,60.0
2023-08-08 18:22:22.149460,55.0
2023-08-08 18:22:22.157149,55.0
2023-08-08 18:22:22.164839,58.0
2023-08-08 18:22:22.172529,55.0
2023-08-08 18:22:22.180218,58.0
2023-08-08 18:22:22.187908,55.0
2023-08-08 18:22:22.195598,45.0
2023-08-08 18:22:22.203287,43.0
2023-08-08 18:22:22.210977,45.0
2023-08-08 18:22:22.218667,36.0
2023-08-08 18:22:22.226356,21.0
2023-08-08 18:22:22.234046,14.0
2023-08-08 18:22:22.241736,2.0
2023-08-08 18:22:22.249425,-2.0
2023-08-08 18:22:22.257115,9.0
2023-08-08 18:22:22.264805,24.0
2023-08-08 18:22:22.272494,31.0
2023-08-08 18:22:22.280184,31.0
2023-08-08 18:22:22.287874,36.0
2023-08-08 18:22:22.295563,41.0
2023-08-08 18:22:22.303253,31.0
2023-08-08 18:22:22.310943,24.0
2023-08-08 18:22:22.318632,19.0
2023-08-08 18:22:22.326322,-72.0
2023-08-08 18:22:22.334012,-413.0
2023-08-08 18:22:22.341701,-867.0
2023-08-08 18:22:22.349391,-858.0
2023-08-08 18:22:22.357081,-128.0
2023-08-08 18:22:22.364770,696.0
2023-08-08 18:22:22.372460,746.0
2023-08-08 18:22:22.380150,241.0
2023-08-08 18:22:22.387839,14.0
2023-08-08 18:22:22.395529,16.0
2023-08-08 18:22:22.403219,-65.0
2023-08-08 18:22:22.410908,-99.0
2023-08-08 18:22:22.418598,-79.0
2023-08-08 18:22:22.426288,-111.0
2023-08-08 18:22:22.433977,-128.0
2023-08-08 18:22:22.441667,-113.0
2023-08-08 18:22:22.449357,-125.0
2023-08-08 18:22:22.457046,-149.0
2023-08-08 18:22:22.464736,-159.0
2023-08-08 18:22:22.472426,-169.0
2023-08-08 18:22:22.480115,-188.0
2023-08-08 18:22:22.487805,-203.0
2023-08-08 18:22:22.495495,-215.0
2023-08-08 18:22:22.503184,-232.0
2023-08-08 18:22:22.510874,-253.0
2023-08-08 18:22:22.518564,-273.0
2023-08-08 18:22:22.526253,-290.0
2023-08-08 18:22:22.533943,-304.0
2023-08-08 18:22:22.541633,-316.0
2023-08-08 18:22:22.549322,-326.0
2023-08-08 18:22:22.557012,-331.0
2023-08-08 18:22:22.564702,-323.0
2023-08-08 18:22:22.572391,-306.0
2023-08-08 18:22:22.580081,-277.0
2023-08-08 18:22:22.587771,-241.0
2023-08-08 18:22:22.595460,-193.0
2023-08-08 18:22:22.603150,-135.0
2023-08-08 18:22:22.610840,-74.0
2023-08-08 18:22:22.618529,-14.0
2023-08-08 18:22:22.626219,38.0
2023-08-08 18:22:22.633909,67.0
2023-08-08 18:22:22.641598,87.0
2023-08-08 18:22:22.649288,103.0
2023-08-08 18:22:22.656978,108.0
2023-08-08 18:22:22.664667,111.0
2023-08-08 18:22:22.672357,111.0
2023-08-08 18:22:22.680047,101.0
2023-08-08 18:22:22.687736,96.0
2023-08-08 18:22:22.695426,94.0
2023-08-08 18:22:22.703116,82.0
2023-08-08 18:22:22.710805,70.0
2023-08-08 18:22:22.718495,65.0
2023-08-08 18:22:22.726185,60.0
2023-08-08 18:22:22.733874,50.0
2023-08-08 18:22:22.741564,43.0
2023-08-08 18:22:22.749254,45.0
2023-08-08 18:22:22.756943,48.0
2023-08-08 18:22:22.764633,50.0
2023-08-08 18:22:22.772323,53.0
2023-08-08 18:22:22.780012,53.0
2023-08-08 18:22:22.787702,43.0
2023-08-08 18:22:22.795392,43.0
2023-08-08 18:22:22.803081,48.0
2023-08-08 18:22:22.810771,41.0
2023-08-08 18:22:22.818461,31.0
2023-08-08 18:22:22.826150,26.0
2023-08-08 18:22:22.833840,16.0
2023-08-08 18:22:22.841530,-7.0
2023-08-08 18:22:22.849219,-16.0
2023-08-08 18:22:22.856909,0.0
2023-08-08 18:22:22.864599,14.0
2023-08-08 18:22:22.872288,12.0
2023-08-08 18:22:22.879978,12.0
2023-08-08 18:22:22.887668,21.0
2023-08-08 18:22:22.895357,24.0
2023-08-08 18:22:22.903047,19.0
2023-08-08 18:22:22.910737,7.0
2023-08-08 18:22:22.918426,-4.0
2023-08-08 18:22:22.926116,-43.0
2023-08-08 18:22:22.933806,-270.0
2023-08-08 18:22:22.941495,-732.0
2023-08-08 18:22:22.949185,-957.0
2023-08-08 18:22:22.956875,-473.0
2023-08-08 18:22:22.964564,422.0
2023-08-08 18:22:22.972254,821.0
2023-08-08 18:22:22.979944,415.0
2023-08-08 18:22:22.987633,31.0
2023-08-08 18:22:22.995323,21.0
2023-08-08 18:22:23.003013,-19.0
2023-08-08 18:22:23.010702,-99.0
2023-08-08 18:22:23.018392,-79.0
2023-08-08 18:22:23.026082,-72.0
2023-08-08 18:22:23.033771,-108.0
2023-08-08 18:22:23.041461,-116.0
2023-08-08 18:22:23.049151,-116.0
2023-08-08 18:22:23.056840,-132.0
2023-08-08 18:22:23.064530,-147.0
2023-08-08 18:22:23.072220,-157.0
2023-08-08 18:22:23.079909,-169.0
2023-08-08 18:22:23.087599,-186.0
2023-08-08 18:22:23.095288,-203.0
2023-08-08 18:22:23.102978,-217.0
2023-08-08 18:22:23.110668,-232.0
2023-08-08 18:22:23.118357,-253.0
2023-08-08 18:22:23.126047,-280.0
2023-08-08 18:22:23.133737,-299.0
2023-08-08 18:22:23.141426,-316.0
2023-08-08 18:22:23.149116,-328.0
2023-08-08 18:22:23.156806,-333.0
2023-08-08 18:22:23.164495,-326.0
2023-08-08 18:22:23.172185,-311.0
2023-08-08 18:22:23.179875,-290.0
2023-08-08 18:22:23.187564,-261.0
2023-08-08 18:22:23.195254,-215.0
2023-08-08 18:22:23.202944,-154.0
2023-08-08 18:22:23.210633,-91.0
2023-08-08 18:22:23.218323,-31.0
2023-08-08 18:22:23.226013,19.0
2023-08-08 18:22:23.233702,60.0
2023-08-08 18:22:23.241392,89.0
2023-08-08 18:22:23.249082,106.0
2023-08-08 18:22:23.256771,113.0
2023-08-08 18:22:23.264461,118.0
2023-08-08 18:22:23.272151,116.0
2023-08-08 18:22:23.279840,106.0
2023-08-08 18:22:23.287530,94.0
2023-08-08 18:22:23.295220,87.0
2023-08-08 18:22:23.302909,82.0
2023-08-08 18:22:23.310599,74.0
2023-08-08 18:22:23.318289,67.0
2023-08-08 18:22:23.325978,58.0
2023-08-08 18:22:23.333668,50.0
2023-08-08 18:22:23.341358,45.0
2023-08-08 18:22:23.349047,41.0
2023-08-08 18:22:23.356737,36.0
2023-08-08 18:22:23.364427,36.0
2023-08-08 18:22:23.372116,33.0
2023-08-08 18:22:23.379806,31.0
2023-08-08 18:22:23.387496,33.0
2023-08-08 18:22:23.395185,36.0
2023-08-08 18:22:23.402875,31.0
2023-08-08 18:22:23.410565,24.0
2023-08-08 18:22:23.418254,21.0
2023-08-08 18:22:23.425944,19.0
2023-08-08 18:22:23.433634,4.0
2023-08-08 18:22:23.441323,-2.0
2023-08-08 18:22:23.449013,-12.0
2023-08-08 18:22:23.456703,-29.0
2023-08-08 18:22:23.464392,-26.0
2023-08-08 18:22:23.472082,0.0
2023-08-08 18:22:23.479772,9.0
2023-08-08 18:22:23.487461,4.0
2023-08-08 18:22:23.495151,14.0
2023-08-08 18:22:23.502841,12.0
2023-08-08 18:22:23.510530,-9.0
2023-08-08 18:22:23.518220,-14.0
2023-08-08 18:22:23.525910,-9.0
2023-08-08 18:22:23.533599,-60.0
2023-08-08 18:22:23.541289,-328.0
2023-08-08 18:22:23.548979,-797.0
2023-08-08 18:22:23.556668,-966.0
2023-08-08 18:22:23.564358,-403.0
2023-08-08 18:22:23.572048,500.0
2023-08-08 18:22:23.579737,790.0
2023-08-08 18:22:23.587427,343.0
2023-08-08 18:22:23.595117,26.0
2023-08-08 18:22:23.602806,24.0
2023-08-08 18:22:23.610496,-50.0
2023-08-08 18:22:23.618186,-116.0
2023-08-08 18:22:23.625875,-84.0
2023-08-08 18:22:23.633565,-94.0
2023-08-08 18:22:23.641255,-130.0
2023-08-08 18:22:23.648944,-128.0
2023-08-08 18:22:23.656634,-132.0
2023-08-08 18:22:23.664324,-157.0
2023-08-08 18:22:23.672013,-166.0
2023-08-08 18:22:23.679703,-171.0
2023-08-08 18:22:23.687393,-190.0
2023-08-08 18:22:23.695082,-210.0
2023-08-08 18:22:23.702772,-219.0
2023-08-08 18:22:23.710462,-236.0
2023-08-08 18:22:23.718151,-258.0
2023-08-08 18:22:23.725841,-277.0
2023-08-08 18:22:23.733531,-299.0
2023-08-08 18:22:23.741220,-314.0
2023-08-08 18:22:23.748910,-328.0
2023-08-08 18:22:23.756600,-343.0
2023-08-08 18:22:23.764289,-348.0
2023-08-08 18:22:23.771979,-343.0
2023-08-08 18:22:23.779669,-326.0
2023-08-08 18:22:23.787358,-304.0
2023-08-08 18:22:23.795048,-270.0
2023-08-08 18:22:23.802738,-224.0
2023-08-08 18:22:23.810427,-164.0
2023-08-08 18:22:23.818117,-94.0
2023-08-08 18:22:23.825807,-31.0
2023-08-08 18:22:23.833496,19.0
2023-08-08 18:22:23.841186,58.0
2023-08-08 18:22:23.848876,79.0
2023-08-08 18:22:23.856565,91.0
2023-08-08 18:22:23.864255,99.0
2023-08-08 18:22:23.871945,99.0
2023-08-08 18:22:23.879634,99.0
2023-08-08 18:22:23.887324,99.0
2023-08-08 18:22:23.895014,89.0
2023-08-08 18:22:23.902703,77.0
2023-08-08 18:22:23.910393,65.0
2023-08-08 18:22:23.918083,58.0
2023-08-08 18:22:23.925772,58.0
2023-08-08 18:22:23.933462,58.0
2023-08-08 18:22:23.941152,53.0
2023-08-08 18:22:23.948841,41.0
2023-08-08 18:22:23.956531,36.0
2023-08-08 18:22:23.964221,41.0
2023-08-08 18:22:23.971910,43.0
2023-08-08 18:22:23.979600,43.0
2023-08-08 18:22:23.987290,41.0
2023-08-08 18:22:23.994979,31.0
2023-08-08 18:22:24.002669,21.0
2023-08-08 18:22:24.010359,21.0
2023-08-08 18:22:24.018048,19.0
2023-08-08 18:22:24.025738,12.0
2023-08-08 18:22:24.033428,2.0
2023-08-08 18:22:24.041117,-16.0
2023-08-08 18:22:24.048807,-21.0
2023-08-08 18:22:24.056497,-2.0
2023-08-08 18:22:24.064186,16.0
2023-08-08 18:22:24.071876,21.0
2023-08-08 18:22:24.079566,24.0
2023-08-08 18:22:24.087255,31.0
2023-08-08 18:22:24.094945,33.0
2023-08-08 18:22:24.102635,24.0
2023-08-08 18:22:24.110324,16.0
2023-08-08 18:22:24.118014,16.0
2023-08-08 18:22:24.125704,-33.0
2023-08-08 18:22:24.133393,-306.0
2023-08-08 18:22:24.141083,-787.0
2023-08-08 18:22:24.148773,-957.0
2023-08-08 18:22:24.156462,-372.0
2023-08-08 18:22:24.164152,541.0
2023-08-08 18:22:24.171842,836.0
2023-08-08 18:22:24.179531,398.0
2023-08-08 18:22:24.187221,70.0
2023-08-08 18:22:24.194911,45.0
2023-08-08 18:22:24.202600,-33.0
2023-08-08 18:22:24.210290,-101.0
2023-08-08 18:22:24.217980,-77.0
2023-08-08 18:22:24.225669,-84.0
2023-08-08 18:22:24.233359,-118.0
2023-08-08 18:22:24.241049,-118.0
2023-08-08 18:22:24.248738,-120.0
2023-08-08 18:22:24.256428,-140.0
2023-08-08 18:22:24.264118,-154.0
2023-08-08 18:22:24.271807,-166.0
2023-08-08 18:22:24.279497,-178.0
2023-08-08 18:22:24.287187,-193.0
2023-08-08 18:22:24.294876,-210.0
2023-08-08 18:22:24.302566,-229.0
2023-08-08 18:22:24.310256,-253.0
2023-08-08 18:22:24.317945,-275.0
2023-08-08 18:22:24.325635,-292.0
2023-08-08 18:22:24.333325,-309.0
2023-08-08 18:22:24.341014,-328.0
2023-08-08 18:22:24.348704,-345.0
2023-08-08 18:22:24.356394,-352.0
2023-08-08 18:22:24.364083,-343.0
2023-08-08 18:22:24.371773,-323.0
2023-08-08 18:22:24.379463,-297.0
2023-08-08 18:22:24.387152,-256.0
2023-08-08 18:22:24.394842,-200.0
2023-08-08 18:22:24.402532,-137.0
2023-08-08 18:22:24.410221,-72.0
2023-08-08 18:22:24.417911,-14.0
2023-08-08 18:22:24.425601,36.0
2023-08-08 18:22:24.433290,74.0
2023-08-08 18:22:24.440980,101.0
2023-08-08 18:22:24.448670,113.0
2023-08-08 18:22:24.456359,118.0
2023-08-08 18:22:24.464049,123.0
2023-08-08 18:22:24.471739,120.0
2023-08-08 18:22:24.479428,113.0
2023-08-08 18:22:24.487118,106.0
2023-08-08 18:22:24.494808,94.0
2023-08-08 18:22:24.502497,84.0
2023-08-08 18:22:24.510187,77.0
2023-08-08 18:22:24.517877,72.0
2023-08-08 18:22:24.525566,65.0
2023-08-08 18:22:24.533256,60.0
2023-08-08 18:22:24.540946,53.0
2023-08-08 18:22:24.548635,50.0
2023-08-08 18:22:24.556325,53.0
2023-08-08 18:22:24.564015,50.0
2023-08-08 18:22:24.571704,50.0
2023-08-08 18:22:24.579394,53.0
2023-08-08 18:22:24.587084,50.0
2023-08-08 18:22:24.594773,48.0
2023-08-08 18:22:24.602463,45.0
2023-08-08 18:22:24.610153,41.0
2023-08-08 18:22:24.617842,36.0
2023-08-08 18:22:24.625532,29.0
2023-08-08 18:22:24.633222,14.0
2023-08-08 18:22:24.640911,7.0
2023-08-08 18:22:24.648601,0.0
2023-08-08 18:22:24.656291,-12.0
2023-08-08 18:22:24.663980,-16.0
2023-08-08 18:22:24.671670,-2.0
2023-08-08 18:22:24.679360,12.0
2023-08-08 18:22:24.687049,14.0
2023-08-08 18:22:24.694739,16.0
2023-08-08 18:22:24.702429,26.0
2023-08-08 18:22:24.710118,21.0
2023-08-08 18:22:24.717808,14.0
2023-08-08 18:22:24.725498,12.0
2023-08-08 18:22:24.733187,0.0
2023-08-08 18:22:24.740877,-137.0
2023-08-08 18:22:24.748567,-551.0
2023-08-08 18:22:24.756256,-937.0
2023-08-08 18:22:24.763946,-700.0
2023-08-08 18:22:24.771636,166.0
2023-08-08 18:22:24.779325,843.0
2023-08-08 18:22:24.787015,664.0
2023-08-08 18:22:24.794705,152.0
2023-08-08 18:22:24.802394,12.0
2023-08-08 18:22:24.810084,2.0
2023-08-08 18:22:24.817774,-87.0
2023-08-08 18:22:24.825463,-96.0
2023-08-08 18:22:24.833153,-74.0
2023-08-08 18:22:24.840843,-106.0
2023-08-08 18:22:24.848532,-130.0
2023-08-08 18:22:24.856222,-132.0
2023-08-08 18:22:24.863912,-145.0
2023-08-08 18:22:24.871601,-161.0
2023-08-08 18:22:24.879291,-169.0
2023-08-08 18:22:24.886981,-183.0
2023-08-08 18:22:24.894670,-200.0
2023-08-08 18:22:24.902360,-217.0
2023-08-08 18:22:24.910050,-234.0
2023-08-08 18:22:24.917739,-253.0
2023-08-08 18:22:24.925429,-273.0
2023-08-08 18:22:24.933119,-292.0
2023-08-08 18:22:24.940808,-314.0
2023-08-08 18:22:24.948498,-331.0
2023-08-08 18:22:24.956188,-345.0
2023-08-08 18:22:24.963877,-352.0
2023-08-08 18:22:24.971567,-350.0
2023-08-08 18:22:24.979257,-343.0
2023-08-08 18:22:24.986946,-323.0
2023-08-08 18:22:24.994636,-290.0
2023-08-08 18:22:25.002326,-246.0
2023-08-08 18:22:25.010015,-190.0
2023-08-08 18:22:25.017705,-120.0
2023-08-08 18:22:25.025395,-50.0
2023-08-08 18:22:25.033084,4.0
2023-08-08 18:22:25.040774,48.0
2023-08-08 18:22:25.048464,79.0
2023-08-08 18:22:25.056153,101.0
2023-08-08 18:22:25.063843,116.0
2023-08-08 18:22:25.071533,123.0
2023-08-08 18:22:25.079222,120.0
2023-08-08 18:22:25.086912,113.0
2023-08-08 18:22:25.094602,103.0
2023-08-08 18:22:25.102291,94.0
2023-08-08 18:22:25.109981,87.0
2023-08-08 18:22:25.117670,77.0
2023-08-08 18:22:25.125360,70.0
2023-08-08 18:22:25.133050,62.0
2023-08-08 18:22:25.140739,60.0
2023-08-08 18:22:25.148429,53.0
2023-08-08 18:22:25.156119,48.0
2023-08-08 18:22:25.163808,41.0
2023-08-08 18:22:25.171498,31.0
2023-08-08 18:22:25.179188,33.0
2023-08-08 18:22:25.186877,36.0
2023-08-08 18:22:25.194567,36.0
2023-08-08 18:22:25.202257,36.0
2023-08-08 18:22:25.209946,38.0
2023-08-08 18:22:25.217636,38.0
2023-08-08 18:22:25.225326,38.0
2023-08-08 18:22:25.233015,38.0
2023-08-08 18:22:25.240705,38.0
2023-08-08 18:22:25.248395,33.0
2023-08-08 18:22:25.256084,29.0
2023-08-08 18:22:25.263774,26.0
2023-08-08 18:22:25.271464,16.0
2023-08-08 18:22:25.279153,4.0
2023-08-08 18:22:25.286843,-4.0
2023-08-08 18:22:25.294533,-12.0
2023-08-08 18:22:25.302222,-14.0
2023-08-08 18:22:25.309912,-2.0
2023-08-08 18:22:25.317602,12.0
2023-08-08 18:22:25.325291,16.0
2023-08-08 18:22:25.332981,16.0
2023-08-08 18:22:25.340671,21.0
2023-08-08 18:22:25.348360,16.0
2023-08-08 18:22:25.356050,4.0
2023-08-08 18:22:25.363740,0.0
2023-08-08 18:22:25.371429,-9.0
2023-08-08 18:22:25.379119,-152.0
2023-08-08 18:22:25.386809,-572.0
2023-08-08 18:22:25.394498,-957.0
2023-08-08 18:22:25.402188,-708.0
2023-08-08 18:22:25.409878,159.0
2023-08-08 18:22:25.417567,831.0
2023-08-08 18:22:25.425257,642.0
2023-08-08 18:22:25.432947,123.0
2023-08-08 18:22:25.440636,-9.0
2023-08-08 18:22:25.448326,-4.0
2023-08-08 18:22:25.456016,-94.0
2023-08-08 18:22:25.463705,-106.0
2023-08-08 18:22:25.471395,-82.0
2023-08-08 18:22:25.479085,-111.0
2023-08-08 18:22:25.486774,-130.0
2023-08-08 18:22:25.494464,-125.0
2023-08-08 18:22:25.502154,-137.0
2023-08-08 18:22:25.509843,-157.0
2023-08-08 18:22:25.517533,-166.0
2023-08-08 18:22:25.525223,-181.0
2023-08-08 18:22:25.532912,-195.0
2023-08-08 18:22:25.540602,-210.0
2023-08-08 18:22:25.548292,-227.0
2023-08-08 18:22:25.555981,-244.0
2023-08-08 18:22:25.563671,-265.0
2023-08-08 18:22:25.571361,-287.0
2023-08-08 18:22:25.579050,-306.0
2023-08-08 18:22:25.586740,-326.0
2023-08-08 18:22:25.594430,-340.0
2023-08-08 18:22:25.602119,-350.0
2023-08-08 18:22:25.609809,-352.0
2023-08-08 18:22:25.617499,-345.0
2023-08-08 18:22:25.625188,-323.0
2023-08-08 18:22:25.632878,-290.0
2023-08-08 18:22:25.640568,-246.0
2023-08-08 18:22:25.648257,-193.0
2023-08-08 18:22:25.655947,-128.0
2023-08-08 18:22:25.663637,-62.0
2023-08-08 18:22:25.671326,-2.0
2023-08-08 18:22:25.679016,45.0
2023-08-08 18:22:25.686706,79.0
2023-08-08 18:22:25.694395,103.0
2023-08-08 18:22:25.702085,111.0
2023-08-08 18:22:25.709775,111.0
2023-08-08 18:22:25.717464,111.0
2023-08-08 18:22:25.725154,108.0
2023-08-08 18:22:25.732844,103.0
2023-08-08 18:22:25.740533,96.0
2023-08-08 18:22:25.748223,84.0
2023-08-08 18:22:25.755913,77.0
2023-08-08 18:22:25.763602,72.0
2023-08-08 18:22:25.771292,67.0
2023-08-08 18:22:25.778982,60.0
2023-08-08 18:22:25.786671,55.0
2023-08-08 18:22:25.794361,50.0
2023-08-08 18:22:25.802051,48.0
2023-08-08 18:22:25.809740,50.0
2023-08-08 18:22:25.817430,53.0
2023-08-08 18:22:25.825120,53.0
2023-08-08 18:22:25.832809,50.0
2023-08-08 18:22:25.840499,45.0
2023-08-08 18:22:25.848189,48.0
2023-08-08 18:22:25.855878,45.0
2023-08-08 18:22:25.863568,38.0
2023-08-08 18:22:25.871258,36.0
2023-08-08 18:22:25.878947,36.0
2023-08-08 18:22:25.886637,31.0
2023-08-08 18:22:25.894327,26.0
2023-08-08 18:22:25.902016,26.0
2023-08-08 18:22:25.909706,21.0
2023-08-08 18:22:25.917396,19.0
2023-08-08 18:22:25.925085,12.0
2023-08-08 18:22:25.932775,2.0
2023-08-08 18:22:25.940465,-9.0
2023-08-08 18:22:25.948154,-16.0
2023-08-08 18:22:25.955844,-14.0
2023-08-08 18:22:25.963534,-2.0
2023-08-08 18:22:25.971223,9.0
2023-08-08 18:22:25.978913,12.0
2023-08-08 18:22:25.986603,16.0
2023-08-08 18:22:25.994292,21.0
2023-08-08 18:22:26.001982,19.0
2023-08-08 18:22:26.009672,9.0
2023-08-08 18:22:26.017361,2.0
2023-08-08 18:22:26.025051,-21.0
2023-08-08 18:22:26.032741,-207.0
2023-08-08 18:22:26.040430,-655.0
2023-08-08 18:22:26.048120,-959.0
2023-08-08 18:22:26.055810,-587.0
2023-08-08 18:22:26.063499,309.0
2023-08-08 18:22:26.071189,855.0
2023-08-08 18:22:26.078879,541.0
2023-08-08 18:22:26.086568,65.0
2023-08-08 18:22:26.094258,2.0
2023-08-08 18:22:26.101948,-9.0
2023-08-08 18:22:26.109637,-99.0
2023-08-08 18:22:26.117327,-96.0
2023-08-08 18:22:26.125017,-77.0
2023-08-08 18:22:26.132706,-111.0
2023-08-08 18:22:26.140396,-123.0
2023-08-08 18:22:26.148086,-120.0
2023-08-08 18:22:26.155775,-140.0
2023-08-08 18:22:26.163465,-159.0
2023-08-08 18:22:26.171155,-161.0
2023-08-08 18:22:26.178844,-174.0
2023-08-08 18:22:26.186534,-193.0
2023-08-08 18:22:26.194224,-207.0
2023-08-08 18:22:26.201913,-227.0
2023-08-08 18:22:26.209603,-248.0
2023-08-08 18:22:26.217293,-268.0
2023-08-08 18:22:26.224982,-285.0
2023-08-08 18:22:26.232672,-304.0
2023-08-08 18:22:26.240362,-323.0
2023-08-08 18:22:26.248051,-340.0
2023-08-08 18:22:26.255741,-348.0
2023-08-08 18:22:26.263431,-348.0
2023-08-08 18:22:26.271120,-338.0
2023-08-08 18:22:26.278810,-316.0
2023-08-08 18:22:26.286500,-294.0
2023-08-08 18:22:26.294189,-261.0
2023-08-08 18:22:26.301879,-203.0
2023-08-08 18:22:26.309569,-130.0
2023-08-08 18:22:26.317258,-62.0
2023-08-08 18:22:26.324948,-9.0
2023-08-08 18:22:26.332638,29.0
2023-08-08 18:22:26.340327,60.0
2023-08-08 18:22:26.348017,89.0
2023-08-08 18:22:26.355707,103.0
2023-08-08 18:22:26.363396,101.0
2023-08-08 18:22:26.371086,94.0
2023-08-08 18:22:26.378776,94.0
2023-08-08 18:22:26.386465,87.0
2023-08-08 18:22:26.394155,77.0
2023-08-08 18:22:26.401845,72.0
2023-08-08 18:22:26.409534,67.0
2023-08-08 18:22:26.417224,58.0
2023-08-08 18:22:26.424914,53.0
2023-08-08 18:22:26.432603,48.0
2023-08-08 18:22:26.440293,45.0
2023-08-08 18:22:26.447983,38.0
2023-08-08 18:22:26.455672,38.0
2023-08-08 18:22:26.463362,41.0
2023-08-08 18:22:26.471052,41.0
2023-08-08 18:22:26.478741,36.0
2023-08-08 18:22:26.486431,36.0
2023-08-08 18:22:26.494121,38.0
2023-08-08 18:22:26.501810,38.0
2023-08-08 18:22:26.509500,36.0
2023-08-08 18:22:26.517190,38.0
2023-08-08 18:22:26.524879,41.0
2023-08-08 18:22:26.532569,36.0
2023-08-08 18:22:26.540259,31.0
2023-08-08 18:22:26.547948,31.0
2023-08-08 18:22:26.555638,26.0
2023-08-08 18:22:26.563328,12.0
2023-08-08 18:22:26.571017,-2.0
2023-08-08 18:22:26.578707,-12.0
2023-08-08 18:22:26.586397,-21.0
2023-08-08 18:22:26.594086,-21.0
2023-08-08 18:22:26.601776,-9.0
2023-08-08 18:22:26.609466,0.0
2023-08-08 18:22:26.617155,2.0
2023-08-08 18:22:26.624845,2.0
2023-08-08 18:22:26.632535,7.0
2023-08-08 18:22:26.640224,7.0
2023-08-08 18:22:26.647914,0.0
2023-08-08 18:22:26.655604,-7.0
2023-08-08 18:22:26.663293,-21.0
2023-08-08 18:22:26.670983,-161.0
2023-08-08 18:22:26.678673,-570.0
2023-08-08 18:22:26.686362,-961.0
2023-08-08 18:22:26.694052,-756.0
2023-08-08 18:22:26.701742,89.0
2023-08-08 18:22:26.709431,790.0
2023-08-08 18:22:26.717121,645.0
2023-08-08 18:22:26.724811,159.0
2023-08-08 18:22:26.732500,24.0
2023-08-08 18:22:26.740190,4.0
2023-08-08 18:22:26.747880,-91.0
2023-08-08 18:22:26.755569,-103.0
2023-08-08 18:22:26.763259,-79.0
2023-08-08 18:22:26.770949,-111.0
2023-08-08 18:22:26.778638,-128.0
2023-08-08 18:22:26.786328,-125.0
2023-08-08 18:22:26.794018,-140.0
2023-08-08 18:22:26.801707,-159.0
2023-08-08 18:22:26.809397,-169.0
2023-08-08 18:22:26.817087,-183.0
2023-08-08 18:22:26.824776,-207.0
2023-08-08 18:22:26.832466,-232.0
2023-08-08 18:22:26.840156,-248.0
2023-08-08 18:22:26.847845,-265.0
2023-08-08 18:22:26.855535,-285.0
2023-08-08 18:22:26.863225,-311.0
2023-08-08 18:22:26.870914,-335.0
2023-08-08 18:22:26.878604,-352.0
2023-08-08 18:22:26.886294,-367.0
2023-08-08 18:22:26.893983,-374.0
2023-08-08 18:22:26.901673,-372.0
2023-08-08 18:22:26.909363,-362.0
2023-08-08 18:22:26.917052,-345.0
2023-08-08 18:22:26.924742,-311.0
2023-08-08 18:22:26.932432,-265.0
2023-08-08 18:22:26.940121,-207.0
2023-08-08 18:22:26.947811,-142.0
2023-08-08 18:22:26.955501,-70.0
2023-08-08 18:22:26.963190,-9.0
2023-08-08 18:22:26.970880,36.0
2023-08-08 18:22:26.978570,72.0
2023-08-08 18:22:26.986259,99.0
2023-08-08 18:22:26.993949,113.0
2023-08-08 18:22:27.001639,123.0
2023-08-08 18:22:27.009328,120.0
2023-08-08 18:22:27.017018,116.0
2023-08-08 18:22:27.024708,111.0
2023-08-08 18:22:27.032397,103.0
2023-08-08 18:22:27.040087,96.0
2023-08-08 18:22:27.047777,89.0
2023-08-08 18:22:27.055466,82.0
2023-08-08 18:22:27.063156,70.0
2023-08-08 18:22:27.070846,62.0
2023-08-08 18:22:27.078535,60.0
2023-08-08 18:22:27.086225,55.0
2023-08-08 18:22:27.093915,50.0
2023-08-08 18:22:27.101604,50.0
2023-08-08 18:22:27.109294,53.0
2023-08-08 18:22:27.116984,53.0
2023-08-08 18:22:27.124673,53.0
2023-08-08 18:22:27.132363,50.0
2023-08-08 18:22:27.140052,53.0
2023-08-08 18:22:27.147742,53.0
2023-08-08 18:22:27.155432,50.0
2023-08-08 18:22:27.163121,48.0
2023-08-08 18:22:27.170811,48.0
2023-08-08 18:22:27.178501,43.0
2023-08-08 18:22:27.186190,33.0
2023-08-08 18:22:27.193880,24.0
2023-08-08 18:22:27.201570,14.0
2023-08-08 18:22:27.209259,0.0
2023-08-08 18:22:27.216949,-4.0
2023-08-08 18:22:27.224639,2.0
2023-08-08 18:22:27.232328,16.0
2023-08-08 18:22:27.240018,21.0
2023-08-08 18:22:27.247708,21.0
2023-08-08 18:22:27.255397,31.0
2023-08-08 18:22:27.263087,33.0
2023-08-08 18:22:27.270777,21.0
2023-08-08 18:22:27.278466,14.0
2023-08-08 18:22:27.286156,12.0
2023-08-08 18:22:27.293846,-72.0
2023-08-08 18:22:27.301535,-418.0
2023-08-08 18:22:27.309225,-879.0
2023-08-08 18:22:27.316915,-860.0
2023-08-08 18:22:27.324604,-108.0
2023-08-08 18:22:27.332294,722.0
2023-08-08 18:22:27.339984,780.0
2023-08-08 18:22:27.347673,280.0
2023-08-08 18:22:27.355363,41.0
2023-08-08 18:22:27.363053,29.0
2023-08-08 18:22:27.370742,-62.0
2023-08-08 18:22:27.378432,-106.0
2023-08-08 18:22:27.386122,-74.0
2023-08-08 18:22:27.393811,-91.0
2023-08-08 18:22:27.401501,-123.0
2023-08-08 18:22:27.409191,-125.0
2023-08-08 18:22:27.416880,-140.0
2023-08-08 18:22:27.424570,-161.0
2023-08-08 18:22:27.432260,-169.0
2023-08-08 18:22:27.439949,-176.0
2023-08-08 18:22:27.447639,-190.0
2023-08-08 18:22:27.455329,-207.0
2023-08-08 18:22:27.463018,-227.0
2023-08-08 18:22:27.470708,-241.0
2023-08-08 18:22:27.478398,-256.0
2023-08-08 18:22:27.486087,-277.0
2023-08-08 18:22:27.493777,-299.0
2023-08-08 18:22:27.501467,-321.0
2023-08-08 18:22:27.509156,-338.0
2023-08-08 18:22:27.516846,-348.0
2023-08-08 18:22:27.524536,-345.0
2023-08-08 18:22:27.532225,-333.0
2023-08-08 18:22:27.539915,-314.0
2023-08-08 18:22:27.547605,-292.0
2023-08-08 18:22:27.555294,-256.0
2023-08-08 18:22:27.562984,-203.0
2023-08-08 18:22:27.570674,-135.0
2023-08-08 18:22:27.578363,-67.0
2023-08-08 18:22:27.586053,-9.0
2023-08-08 18:22:27.593743,38.0
2023-08-08 18:22:27.601432,74.0
2023-08-08 18:22:27.609122,103.0
2023-08-08 18:22:27.616812,123.0
2023-08-08 18:22:27.624501,130.0
2023-08-08 18:22:27.632191,130.0
2023-08-08 18:22:27.639881,123.0
2023-08-08 18:22:27.647570,116.0
2023-08-08 18:22:27.655260,111.0
2023-08-08 18:22:27.662950,103.0
2023-08-08 18:22:27.670639,91.0
2023-08-08 18:22:27.678329,79.0
2023-08-08 18:22:27.686019,67.0
2023-08-08 18:22:27.693708,60.0
2023-08-08 18:22:27.701398,55.0
2023-08-08 18:22:27.709088,50.0
2023-08-08 18:22:27.716777,48.0
2023-08-08 18:22:27.724467,48.0
2023-08-08 18:22:27.732157,43.0
2023-08-08 18:22:27.739846,43.0
2023-08-08 18:22:27.747536,48.0
2023-08-08 18:22:27.755226,50.0
2023-08-08 18:22:27.762915,50.0
2023-08-08 18:22:27.770605,50.0
2023-08-08 18:22:27.778295,48.0
2023-08-08 18:22:27.785984,45.0
2023-08-08 18:22:27.793674,45.0
2023-08-08 18:22:27.801364,41.0
2023-08-08 18:22:27.809053,29.0
2023-08-08 18:22:27.816743,24.0
2023-08-08 18:22:27.824433,19.0
2023-08-08 18:22:27.832122,7.0
2023-08-08 18:22:27.839812,0.0
2023-08-08 18:22:27.847502,-4.0
2023-08-08 18:22:27.855191,-14.0
2023-08-08 18:22:27.862881,-21.0
2023-08-08 18:22:27.870571,-16.0
2023-08-08 18:22:27.878260,-14.0
2023-08-08 18:22:27.885950,-12.0
2023-08-08 18:22:27.893640,0.0
2023-08-08 18:22:27.901329,7.0
2023-08-08 18:22:27.909019,4.0
2023-08-08 18:22:27.916709,0.0
2023-08-08 18:22:27.924398,-2.0
2023-08-08 18:22:27.932088,-9.0
2023-08-08 18:22:27.939778,-106.0
2023-08-08 18:22:27.947467,-471.0
2023-08-08 18:22:27.955157,-906.0
2023-08-08 18:22:27.962847,-800.0
2023-08-08 18:22:27.970536,-4.0
2023-08-08 18:22:27.978226,775.0
2023-08-08 18:22:27.985916,758.0
2023-08-08 18:22:27.993605,224.0
2023-08-08 18:22:28.001295,-12.0
2023-08-08 18:22:28.008985,-4.0
2023-08-08 18:22:28.016674,-79.0
2023-08-08 18:22:28.024364,-116.0
2023-08-08 18:22:28.032054,-89.0
2023-08-08 18:22:28.039743,-106.0
2023-08-08 18:22:28.047433,-132.0
2023-08-08 18:22:28.055123,-135.0
2023-08-08 18:22:28.062812,-142.0
2023-08-08 18:22:28.070502,-157.0
2023-08-08 18:22:28.078192,-164.0
2023-08-08 18:22:28.085881,-183.0
2023-08-08 18:22:28.093571,-207.0
2023-08-08 18:22:28.101261,-224.0
2023-08-08 18:22:28.108950,-234.0
2023-08-08 18:22:28.116640,-256.0
2023-08-08 18:22:28.124330,-275.0
2023-08-08 18:22:28.132019,-292.0
2023-08-08 18:22:28.139709,-316.0
2023-08-08 18:22:28.147399,-333.0
2023-08-08 18:22:28.155088,-343.0
2023-08-08 18:22:28.162778,-352.0
2023-08-08 18:22:28.170468,-357.0
2023-08-08 18:22:28.178157,-352.0
2023-08-08 18:22:28.185847,-335.0
2023-08-08 18:22:28.193537,-306.0
2023-08-08 18:22:28.201226,-265.0
2023-08-08 18:22:28.208916,-215.0
2023-08-08 18:22:28.216606,-152.0
2023-08-08 18:22:28.224295,-82.0
2023-08-08 18:22:28.231985,-19.0
2023-08-08 18:22:28.239675,29.0
2023-08-08 18:22:28.247364,67.0
2023-08-08 18:22:28.255054,96.0
2023-08-08 18:22:28.262744,116.0
2023-08-08 18:22:28.270433,120.0
2023-08-08 18:22:28.278123,118.0
2023-08-08 18:22:28.285813,113.0
2023-08-08 18:22:28.293502,108.0
2023-08-08 18:22:28.301192,99.0
2023-08-08 18:22:28.308882,87.0
2023-08-08 18:22:28.316571,77.0
2023-08-08 18:22:28.324261,70.0
2023-08-08 18:22:28.331951,65.0
2023-08-08 18:22:28.339640,55.0
2023-08-08 18:22:28.347330,50.0
2023-08-08 18:22:28.355020,45.0
2023-08-08 18:22:28.362709,41.0
2023-08-08 18:22:28.370399,43.0
2023-08-08 18:22:28.378089,43.0
2023-08-08 18:22:28.385778,38.0
2023-08-08 18:22:28.393468,36.0
2023-08-08 18:22:28.401158,33.0
2023-08-08 18:22:28.408847,33.0
2023-08-08 18:22:28.416537,29.0
2023-08-08 18:22:28.424227,29.0
2023-08-08 18:22:28.431916,29.0
2023-08-08 18:22:28.439606,26.0
2023-08-08 18:22:28.447296,24.0
2023-08-08 18:22:28.454985,21.0
2023-08-08 18:22:28.462675,19.0
2023-08-08 18:22:28.470365,16.0
2023-08-08 18:22:28.478054,14.0
2023-08-08 18:22:28.485744,9.0
2023-08-08 18:22:28.493434,7.0
2023-08-08 18:22:28.501123,0.0
2023-08-08 18:22:28.508813,-12.0
2023-08-08 18:22:28.516503,-21.0
2023-08-08 18:22:28.524192,-29.0
2023-08-08 18:22:28.531882,-21.0
2023-08-08 18:22:28.539572,-12.0
2023-08-08 18:22:28.547261,-4.0
2023-08-08 18:22:28.554951,0.0
2023-08-08 18:22:28.562641,4.0
2023-08-08 18:22:28.570330,14.0
2023-08-08 18:22:28.578020,9.0
2023-08-08 18:22:28.585710,-7.0
2023-08-08 18:22:28.593399,-19.0
2023-08-08 18:22:28.601089,-62.0
2023-08-08 18:22:28.608779,-326.0
2023-08-08 18:22:28.616468,-797.0
2023-08-08 18:22:28.624158,-932.0
2023-08-08 18:22:28.631848,-348.0
2023-08-08 18:22:28.639537,538.0
2023-08-08 18:22:28.647227,829.0
2023-08-08 18:22:28.654917,372.0
2023-08-08 18:22:28.662606,16.0
2023-08-08 18:22:28.670296,16.0
2023-08-08 18:22:28.677986,-36.0
2023-08-08 18:22:28.685675,-103.0
2023-08-08 18:22:28.693365,-79.0
2023-08-08 18:22:28.701055,-82.0
2023-08-08 18:22:28.708744,-116.0
2023-08-08 18:22:28.716434,-116.0
2023-08-08 18:22:28.724124,-118.0
2023-08-08 18:22:28.731813,-135.0
2023-08-08 18:22:28.739503,-149.0
2023-08-08 18:22:28.747193,-157.0
2023-08-08 18:22:28.754882,-171.0
2023-08-08 18:22:28.762572,-188.0
2023-08-08 18:22:28.770262,-205.0
2023-08-08 18:22:28.777951,-222.0
2023-08-08 18:22:28.785641,-241.0
2023-08-08 18:22:28.793331,-263.0
2023-08-08 18:22:28.801020,-282.0
2023-08-08 18:22:28.808710,-299.0
2023-08-08 18:22:28.816400,-316.0
2023-08-08 18:22:28.824089,-326.0
2023-08-08 18:22:28.831779,-331.0
2023-08-08 18:22:28.839469,-333.0
2023-08-08 18:22:28.847158,-321.0
2023-08-08 18:22:28.854848,-299.0
2023-08-08 18:22:28.862538,-270.0
2023-08-08 18:22:28.870227,-227.0
2023-08-08 18:22:28.877917,-169.0
2023-08-08 18:22:28.885607,-108.0
2023-08-08 18:22:28.893296,-53.0
2023-08-08 18:22:28.900986,0.0
2023-08-08 18:22:28.908676,45.0
2023-08-08 18:22:28.916365,79.0
2023-08-08 18:22:28.924055,96.0
2023-08-08 18:22:28.931745,106.0
2023-08-08 18:22:28.939434,111.0
2023-08-08 18:22:28.947124,106.0
2023-08-08 18:22:28.954814,101.0
2023-08-08 18:22:28.962503,99.0
2023-08-08 18:22:28.970193,91.0
2023-08-08 18:22:28.977883,79.0
2023-08-08 18:22:28.985572,70.0
2023-08-08 18:22:28.993262,62.0
2023-08-08 18:22:29.000952,58.0
2023-08-08 18:22:29.008641,50.0
2023-08-08 18:22:29.016331,43.0
2023-08-08 18:22:29.024021,38.0
2023-08-08 18:22:29.031710,33.0
2023-08-08 18:22:29.039400,26.0
2023-08-08 18:22:29.047090,29.0
2023-08-08 18:22:29.054779,31.0
2023-08-08 18:22:29.062469,31.0
2023-08-08 18:22:29.070159,31.0
2023-08-08 18:22:29.077848,24.0
2023-08-08 18:22:29.085538,16.0
2023-08-08 18:22:29.093228,16.0
2023-08-08 18:22:29.100917,16.0
2023-08-08 18:22:29.108607,16.0
2023-08-08 18:22:29.116297,12.0
2023-08-08 18:22:29.123986,7.0
2023-08-08 18:22:29.131676,4.0
2023-08-08 18:22:29.139366,7.0
2023-08-08 18:22:29.147055,2.0
2023-08-08 18:22:29.154745,-4.0
2023-08-08 18:22:29.162434,-16.0
2023-08-08 18:22:29.170124,-36.0
2023-08-08 18:22:29.177814,-53.0
2023-08-08 18:22:29.185503,-45.0
2023-08-08 18:22:29.193193,-26.0
2023-08-08 18:22:29.200883,-16.0
2023-08-08 18:22:29.208572,-16.0
2023-08-08 18:22:29.216262,-12.0
2023-08-08 18:22:29.223952,-4.0
2023-08-08 18:22:29.231641,-2.0
2023-08-08 18:22:29.239331,-7.0
2023-08-08 18:22:29.247021,-12.0
2023-08-08 18:22:29.254710,-41.0
2023-08-08 18:22:29.262400,-234.0
2023-08-08 18:22:29.270090,-681.0
2023-08-08 18:22:29.277779,-976.0
2023-08-08 18:22:29.285469,-599.0
2023-08-08 18:22:29.293159,292.0
2023-08-08 18:22:29.300848,824.0
2023-08-08 18:22:29.308538,509.0
2023-08-08 18:22:29.316228,67.0
2023-08-08 18:22:29.323917,12.0
2023-08-08 18:22:29.331607,-14.0
2023-08-08 18:22:29.339297,-108.0
2023-08-08 18:22:29.346986,-99.0
2023-08-08 18:22:29.354676,-82.0
2023-08-08 18:22:29.362366,-118.0
2023-08-08 18:22:29.370055,-132.0
2023-08-08 18:22:29.377745,-125.0
2023-08-08 18:22:29.385435,-140.0
2023-08-08 18:22:29.393124,-161.0
2023-08-08 18:22:29.400814,-174.0
2023-08-08 18:22:29.408504,-186.0
2023-08-08 18:22:29.416193,-200.0
2023-08-08 18:22:29.423883,-219.0
2023-08-08 18:22:29.431573,-234.0
2023-08-08 18:22:29.439262,-256.0
2023-08-08 18:22:29.446952,-277.0
2023-08-08 18:22:29.454642,-294.0
2023-08-08 18:22:29.462331,-309.0
2023-08-08 18:22:29.470021,-326.0
2023-08-08 18:22:29.477711,-343.0
2023-08-08 18:22:29.485400,-350.0
2023-08-08 18:22:29.493090,-350.0
2023-08-08 18:22:29.500780,-338.0
2023-08-08 18:22:29.508469,-321.0
2023-08-08 18:22:29.516159,-294.0
2023-08-08 18:22:29.523849,-251.0
2023-08-08 18:22:29.531538,-198.0
2023-08-08 18:22:29.539228,-137.0
2023-08-08 18:22:29.546918,-67.0
2023-08-08 18:22:29.554607,-7.0
2023-08-08 18:22:29.562297,36.0
2023-08-08 18:22:29.569987,70.0
2023-08-08 18:22:29.577676,99.0
2023-08-08 18:22:29.585366,111.0
2023-08-08 18:22:29.593056,111.0
2023-08-08 18:22:29.600745,113.0
2023-08-08 18:22:29.608435,111.0
2023-08-08 18:22:29.616125,103.0
2023-08-08 18:22:29.623814,91.0
2023-08-08 18:22:29.631504,82.0
2023-08-08 18:22:29.639194,74.0
2023-08-08 18:22:29.646883,67.0
2023-08-08 18:22:29.654573,58.0
2023-08-08 18:22:29.662263,48.0
2023-08-08 18:22:29.669952,33.0
2023-08-08 18:22:29.677642,24.0
2023-08-08 18:22:29.685332,26.0
2023-08-08 18:22:29.693021,31.0
2023-08-08 18:22:29.700711,33.0
2023-08-08 18:22:29.708401,29.0
2023-08-08 18:22:29.716090,31.0
2023-08-08 18:22:29.723780,33.0
2023-08-08 18:22:29.731470,36.0
2023-08-08 18:22:29.739159,36.0
2023-08-08 18:22:29.746849,33.0
2023-08-08 18:22:29.754539,26.0
2023-08-08 18:22:29.762228,19.0
2023-08-08 18:22:29.769918,16.0
2023-08-08 18:22:29.777608,9.0
2023-08-08 18:22:29.785297,-2.0
2023-08-08 18:22:29.792987,-14.0
2023-08-08 18:22:29.800677,-21.0
2023-08-08 18:22:29.808366,-9.0
2023-08-08 18:22:29.816056,4.0
2023-08-08 18:22:29.823746,12.0
2023-08-08 18:22:29.831435,19.0
2023-08-08 18:22:29.839125,29.0
2023-08-08 18:22:29.846815,29.0
2023-08-08 18:22:29.854504,19.0
2023-08-08 18:22:29.862194,14.0
2023-08-08 18:22:29.869884,12.0
2023-08-08 18:22:29.877573,-43.0
2023-08-08 18:22:29.885263,-321.0
2023-08-08 18:22:29.892953,-802.0
2023-08-08 18:22:29.900642,-954.0
2023-08-08 18:22:29.908332,-348.0
2023-08-08 18:22:29.916022,567.0
2023-08-08 18:22:29.923711,848.0
2023-08-08 18:22:29.931401,413.0
2023-08-08 18:22:29.939091,87.0
2023-08-08 18:22:29.946780,53.0
2023-08-08 18:22:29.954470,-26.0
2023-08-08 18:22:29.962160,-87.0
2023-08-08 18:22:29.969849,-60.0
2023-08-08 18:22:29.977539,-72.0
2023-08-08 18:22:29.985229,-103.0
2023-08-08 18:22:29.992918,-101.0
2023-08-08 18:22:30.000608,-106.0
2023-08-08 18:22:30.008298,-128.0
2023-08-08 18:22:30.015987,-142.0
2023-08-08 18:22:30.023677,-152.0
2023-08-08 18:22:30.031367,-171.0
2023-08-08 18:22:30.039056,-186.0
2023-08-08 18:22:30.046746,-200.0
2023-08-08 18:22:30.054436,-215.0
2023-08-08 18:22:30.062125,-236.0
2023-08-08 18:22:30.069815,-256.0
2023-08-08 18:22:30.077505,-275.0
2023-08-08 18:22:30.085194,-299.0
2023-08-08 18:22:30.092884,-314.0
2023-08-08 18:22:30.100574,-321.0
2023-08-08 18:22:30.108263,-326.0
2023-08-08 18:22:30.115953,-323.0
2023-08-08 18:22:30.123643,-309.0
2023-08-08 18:22:30.131332,-282.0
2023-08-08 18:22:30.139022,-244.0
2023-08-08 18:22:30.146712,-193.0
2023-08-08 18:22:30.154401,-130.0
2023-08-08 18:22:30.162091,-62.0
2023-08-08 18:22:30.169781,-4.0
2023-08-08 18:22:30.177470,43.0
2023-08-08 18:22:30.185160,84.0
2023-08-08 18:22:30.192850,116.0
2023-08-08 18:22:30.200539,128.0
2023-08-08 18:22:30.208229,123.0
2023-08-08 18:22:30.215919,123.0
2023-08-08 18:22:30.223608,125.0
2023-08-08 18:22:30.231298,118.0
2023-08-08 18:22:30.238988,111.0
2023-08-08 18:22:30.246677,106.0
2023-08-08 18:22:30.254367,94.0
2023-08-08 18:22:30.262057,82.0
2023-08-08 18:22:30.269746,74.0
2023-08-08 18:22:30.277436,70.0
2023-08-08 18:22:30.285126,65.0
2023-08-08 18:22:30.292815,58.0
2023-08-08 18:22:30.300505,53.0
2023-08-08 18:22:30.308195,50.0
2023-08-08 18:22:30.315884,48.0
2023-08-08 18:22:30.323574,45.0
2023-08-08 18:22:30.331264,43.0
2023-08-08 18:22:30.338953,45.0
2023-08-08 18:22:30.346643,45.0
2023-08-08 18:22:30.354333,43.0
2023-08-08 18:22:30.362022,43.0
2023-08-08 18:22:30.369712,43.0
2023-08-08 18:22:30.377402,38.0
2023-08-08 18:22:30.385091,33.0
2023-08-08 18:22:30.392781,29.0
2023-08-08 18:22:30.400471,19.0
2023-08-08 18:22:30.408160,9.0
2023-08-08 18:22:30.415850,2.0
2023-08-08 18:22:30.423540,-4.0
2023-08-08 18:22:30.431229,-16.0
2023-08-08 18:22:30.438919,-12.0
2023-08-08 18:22:30.446609,4.0
2023-08-08 18:22:30.454298,14.0
2023-08-08 18:22:30.461988,19.0
2023-08-08 18:22:30.469678,26.0
2023-08-08 18:22:30.477367,31.0
2023-08-08 18:22:30.485057,24.0
2023-08-08 18:22:30.492747,16.0
2023-08-08 18:22:30.500436,16.0
2023-08-08 18:22:30.508126,-31.0
2023-08-08 18:22:30.515816,-299.0
2023-08-08 18:22:30.523505,-771.0
2023-08-08 18:22:30.531195,-916.0
2023-08-08 18:22:30.538885,-331.0
2023-08-08 18:22:30.546574,563.0
2023-08-08 18:22:30.554264,865.0
2023-08-08 18:22:30.561954,415.0
2023-08-08 18:22:30.569643,48.0
2023-08-08 18:22:30.577333,36.0
2023-08-08 18:22:30.585023,-16.0
2023-08-08 18:22:30.592712,-87.0
2023-08-08 18:22:30.600402,-60.0
2023-08-08 18:22:30.608092,-65.0
2023-08-08 18:22:30.615781,-101.0
2023-08-08 18:22:30.623471,-101.0
2023-08-08 18:22:30.631161,-103.0
2023-08-08 18:22:30.638850,-123.0
2023-08-08 18:22:30.646540,-137.0
2023-08-08 18:22:30.654230,-145.0
2023-08-08 18:22:30.661919,-159.0
2023-08-08 18:22:30.669609,-176.0
2023-08-08 18:22:30.677299,-190.0
2023-08-08 18:22:30.684988,-210.0
2023-08-08 18:22:30.692678,-232.0
2023-08-08 18:22:30.700368,-253.0
2023-08-08 18:22:30.708057,-273.0
2023-08-08 18:22:30.715747,-287.0
2023-08-08 18:22:30.723437,-302.0
2023-08-08 18:22:30.731126,-319.0
2023-08-08 18:22:30.738816,-328.0
2023-08-08 18:22:30.746506,-333.0
2023-08-08 18:22:30.754195,-323.0
2023-08-08 18:22:30.761885,-302.0
2023-08-08 18:22:30.769575,-268.0
2023-08-08 18:22:30.777264,-222.0
2023-08-08 18:22:30.784954,-164.0
2023-08-08 18:22:30.792644,-99.0
2023-08-08 18:22:30.800333,-33.0
2023-08-08 18:22:30.808023,21.0
2023-08-08 18:22:30.815713,60.0
2023-08-08 18:22:30.823402,89.0
2023-08-08 18:22:30.831092,111.0
2023-08-08 18:22:30.838782,120.0
2023-08-08 18:22:30.846471,123.0
2023-08-08 18:22:30.854161,123.0
2023-08-08 18:22:30.861851,116.0
2023-08-08 18:22:30.869540,106.0
2023-08-08 18:22:30.877230,99.0
2023-08-08 18:22:30.884920,89.0
2023-08-08 18:22:30.892609,79.0
2023-08-08 18:22:30.900299,72.0
2023-08-08 18:22:30.907989,62.0
2023-08-08 18:22:30.915678,53.0
2023-08-08 18:22:30.923368,50.0
2023-08-08 18:22:30.931058,50.0
2023-08-08 18:22:30.938747,45.0
2023-08-08 18:22:30.946437,43.0
2023-08-08 18:22:30.954127,43.0
2023-08-08 18:22:30.961816,43.0
2023-08-08 18:22:30.969506,43.0
2023-08-08 18:22:30.977196,41.0
2023-08-08 18:22:30.984885,41.0
2023-08-08 18:22:30.992575,43.0
2023-08-08 18:22:31.000265,38.0
2023-08-08 18:22:31.007954,31.0
2023-08-08 18:22:31.015644,29.0
2023-08-08 18:22:31.023334,26.0
2023-08-08 18:22:31.031023,19.0
2023-08-08 18:22:31.038713,9.0
2023-08-08 18:22:31.046403,-2.0
2023-08-08 18:22:31.054092,-14.0
2023-08-08 18:22:31.061782,-9.0
2023-08-08 18:22:31.069472,9.0
2023-08-08 18:22:31.077161,21.0
2023-08-08 18:22:31.084851,26.0
2023-08-08 18:22:31.092541,31.0
2023-08-08 18:22:31.100230,36.0
2023-08-08 18:22:31.107920,31.0
2023-08-08 18:22:31.115610,24.0
2023-08-08 18:22:31.123299,24.0
2023-08-08 18:22:31.130989,2.0
2023-08-08 18:22:31.138679,-181.0
2023-08-08 18:22:31.146368,-628.0
2023-08-08 18:22:31.154058,-937.0
2023-08-08 18:22:31.161748,-567.0
2023-08-08 18:22:31.169437,326.0
2023-08-08 18:22:31.177127,870.0
2023-08-08 18:22:31.184816,558.0
2023-08-08 18:22:31.192506,101.0
2023-08-08 18:22:31.200196,38.0
2023-08-08 18:22:31.207885,16.0
2023-08-08 18:22:31.215575,-72.0
2023-08-08 18:22:31.223265,-62.0
2023-08-08 18:22:31.230954,-45.0
2023-08-08 18:22:31.238644,-84.0
2023-08-08 18:22:31.246334,-99.0
2023-08-08 18:22:31.254023,-96.0
2023-08-08 18:22:31.261713,-113.0
2023-08-08 18:22:31.269403,-128.0
2023-08-08 18:22:31.277092,-137.0
2023-08-08 18:22:31.284782,-152.0
2023-08-08 18:22:31.292472,-169.0
2023-08-08 18:22:31.300161,-183.0
2023-08-08 18:22:31.307851,-198.0
2023-08-08 18:22:31.315541,-217.0
2023-08-08 18:22:31.323230,-241.0
2023-08-08 18:22:31.330920,-270.0
2023-08-08 18:22:31.338610,-292.0
2023-08-08 18:22:31.346299,-304.0
2023-08-08 18:22:31.353989,-316.0
2023-08-08 18:22:31.361679,-326.0
2023-08-08 18:22:31.369368,-326.0
2023-08-08 18:22:31.377058,-319.0
2023-08-08 18:22:31.384748,-297.0
2023-08-08 18:22:31.392437,-265.0
2023-08-08 18:22:31.400127,-222.0
2023-08-08 18:22:31.407817,-164.0
2023-08-08 18:22:31.415506,-103.0
2023-08-08 18:22:31.423196,-43.0
2023-08-08 18:22:31.430886,12.0
2023-08-08 18:22:31.438575,58.0
2023-08-08 18:22:31.446265,89.0
2023-08-08 18:22:31.453955,111.0
2023-08-08 18:22:31.461644,123.0
2023-08-08 18:22:31.469334,125.0
2023-08-08 18:22:31.477024,125.0
2023-08-08 18:22:31.484713,120.0
2023-08-08 18:22:31.492403,113.0
2023-08-08 18:22:31.500093,103.0
2023-08-08 18:22:31.507782,91.0
2023-08-08 18:22:31.515472,84.0
2023-08-08 18:22:31.523162,79.0
2023-08-08 18:22:31.530851,72.0
2023-08-08 18:22:31.538541,67.0
2023-08-08 18:22:31.546231,65.0
2023-08-08 18:22:31.553920,60.0
2023-08-08 18:22:31.561610,55.0
2023-08-08 18:22:31.569300,55.0
2023-08-08 18:22:31.576989,55.0
2023-08-08 18:22:31.584679,55.0
2023-08-08 18:22:31.592369,53.0
2023-08-08 18:22:31.600058,50.0
2023-08-08 18:22:31.607748,50.0
2023-08-08 18:22:31.615438,50.0
2023-08-08 18:22:31.623127,50.0
2023-08-08 18:22:31.630817,45.0
2023-08-08 18:22:31.638507,41.0
2023-08-08 18:22:31.646196,36.0
2023-08-08 18:22:31.653886,29.0
2023-08-08 18:22:31.661576,21.0
2023-08-08 18:22:31.669265,14.0
2023-08-08 18:22:31.676955,7.0
2023-08-08 18:22:31.684645,-4.0
2023-08-08 18:22:31.692334,-2.0
2023-08-08 18:22:31.700024,12.0
2023-08-08 18:22:31.707714,24.0
2023-08-08 18:22:31.715403,29.0
2023-08-08 18:22:31.723093,36.0
2023-08-08 18:22:31.730783,43.0
2023-08-08 18:22:31.738472,38.0
2023-08-08 18:22:31.746162,29.0
2023-08-08 18:22:31.753852,24.0
2023-08-08 18:22:31.761541,2.0
2023-08-08 18:22:31.769231,-183.0
2023-08-08 18:22:31.776921,-628.0
2023-08-08 18:22:31.784610,-940.0
2023-08-08 18:22:31.792300,-577.0
2023-08-08 18:22:31.799990,319.0
2023-08-08 18:22:31.807679,860.0
2023-08-08 18:22:31.815369,538.0
2023-08-08 18:22:31.823059,94.0
2023-08-08 18:22:31.830748,50.0
2023-08-08 18:22:31.838438,24.0
2023-08-08 18:22:31.846128,-70.0
2023-08-08 18:22:31.853817,-55.0
2023-08-08 18:22:31.861507,-38.0
2023-08-08 18:22:31.869197,-77.0
2023-08-08 18:22:31.876886,-91.0
2023-08-08 18:22:31.884576,-91.0
2023-08-08 18:22:31.892266,-111.0
2023-08-08 18:22:31.899955,-123.0
2023-08-08 18:22:31.907645,-128.0
2023-08-08 18:22:31.915335,-145.0
2023-08-08 18:22:31.923024,-166.0
2023-08-08 18:22:31.930714,-186.0
2023-08-08 18:22:31.938404,-200.0
2023-08-08 18:22:31.946093,-219.0
2023-08-08 18:22:31.953783,-244.0
2023-08-08 18:22:31.961473,-270.0
2023-08-08 18:22:31.969162,-292.0
2023-08-08 18:22:31.976852,-306.0
2023-08-08 18:22:31.984542,-323.0
2023-08-08 18:22:31.992231,-335.0
2023-08-08 18:22:31.999921,-338.0
2023-08-08 18:22:32.007611,-328.0
2023-08-08 18:22:32.015300,-309.0
2023-08-08 18:22:32.022990,-277.0
2023-08-08 18:22:32.030680,-236.0
2023-08-08 18:22:32.038369,-186.0
2023-08-08 18:22:32.046059,-123.0
2023-08-08 18:22:32.053749,-55.0
2023-08-08 18:22:32.061438,2.0
2023-08-08 18:22:32.069128,45.0
2023-08-08 18:22:32.076818,77.0
2023-08-08 18:22:32.084507,99.0
2023-08-08 18:22:32.092197,111.0
2023-08-08 18:22:32.099887,116.0
2023-08-08 18:22:32.107576,113.0
2023-08-08 18:22:32.115266,106.0
2023-08-08 18:22:32.122956,99.0
2023-08-08 18:22:32.130645,96.0
2023-08-08 18:22:32.138335,87.0
2023-08-08 18:22:32.146025,77.0
2023-08-08 18:22:32.153714,67.0
2023-08-08 18:22:32.161404,58.0
2023-08-08 18:22:32.169094,53.0
2023-08-08 18:22:32.176783,50.0
2023-08-08 18:22:32.184473,48.0
2023-08-08 18:22:32.192163,48.0
2023-08-08 18:22:32.199852,53.0
2023-08-08 18:22:32.207542,50.0
2023-08-08 18:22:32.215232,45.0
2023-08-08 18:22:32.222921,48.0
2023-08-08 18:22:32.230611,43.0
2023-08-08 18:22:32.238301,38.0
2023-08-08 18:22:32.245990,38.0
2023-08-08 18:22:32.253680,36.0
2023-08-08 18:22:32.261370,31.0
2023-08-08 18:22:32.269059,29.0
2023-08-08 18:22:32.276749,26.0
2023-08-08 18:22:32.284439,19.0
2023-08-08 18:22:32.292128,7.0
2023-08-08 18:22:32.299818,0.0
2023-08-08 18:22:32.307508,-9.0
2023-08-08 18:22:32.315197,-19.0
2023-08-08 18:22:32.322887,-9.0
2023-08-08 18:22:32.330577,9.0
2023-08-08 18:22:32.338266,19.0
2023-08-08 18:22:32.345956,19.0
2023-08-08 18:22:32.353646,21.0
2023-08-08 18:22:32.361335,24.0
2023-08-08 18:22:32.369025,16.0
2023-08-08 18:22:32.376715,14.0
2023-08-08 18:22:32.384404,12.0
2023-08-08 18:22:32.392094,-53.0
2023-08-08 18:22:32.399784,-352.0
2023-08-08 18:22:32.407473,-824.0
2023-08-08 18:22:32.415163,-930.0
2023-08-08 18:22:32.422853,-294.0
2023-08-08 18:22:32.430542,584.0
2023-08-08 18:22:32.438232,795.0
2023-08-08 18:22:32.445922,343.0
2023-08-08 18:22:32.453611,48.0
2023-08-08 18:22:32.461301,19.0
2023-08-08 18:22:32.468991,-60.0
2023-08-08 18:22:32.476680,-108.0
2023-08-08 18:22:32.484370,-84.0
2023-08-08 18:22:32.492060,-103.0
2023-08-08 18:22:32.499749,-137.0
2023-08-08 18:22:32.507439,-137.0
2023-08-08 18:22:32.515129,-140.0
2023-08-08 18:22:32.522818,-157.0
2023-08-08 18:22:32.530508,-174.0
2023-08-08 18:22:32.538198,-183.0
2023-08-08 18:22:32.545887,-198.0
2023-08-08 18:22:32.553577,-215.0
2023-08-08 18:22:32.561267,-227.0
2023-08-08 18:22:32.568956,-244.0
2023-08-08 18:22:32.576646,-263.0
2023-08-08 18:22:32.584336,-285.0
2023-08-08 18:22:32.592025,-302.0
2023-08-08 18:22:32.599715,-319.0
2023-08-08 18:22:32.607405,-338.0
2023-08-08 18:22:32.615094,-350.0
2023-08-08 18:22:32.622784,-352.0
2023-08-08 18:22:32.630474,-345.0
2023-08-08 18:22:32.638163,-333.0
2023-08-08 18:22:32.645853,-309.0
2023-08-08 18:22:32.653543,-268.0
2023-08-08 18:22:32.661232,-217.0
2023-08-08 18:22:32.668922,-159.0
2023-08-08 18:22:32.676612,-89.0
2023-08-08 18:22:32.684301,-21.0
2023-08-08 18:22:32.691991,33.0
2023-08-08 18:22:32.699681,74.0
2023-08-08 18:22:32.707370,101.0
2023-08-08 18:22:32.715060,118.0
2023-08-08 18:22:32.722750,125.0
2023-08-08 18:22:32.730439,123.0
2023-08-08 18:22:32.738129,118.0
2023-08-08 18:22:32.745819,113.0
2023-08-08 18:22:32.753508,103.0
2023-08-08 18:22:32.761198,94.0
2023-08-08 18:22:32.768888,82.0
2023-08-08 18:22:32.776577,74.0
2023-08-08 18:22:32.784267,74.0
2023-08-08 18:22:32.791957,70.0
2023-08-08 18:22:32.799646,62.0
2023-08-08 18:22:32.807336,55.0
2023-08-08 18:22:32.815026,53.0
2023-08-08 18:22:32.822715,58.0
2023-08-08 18:22:32.830405,58.0
2023-08-08 18:22:32.838095,55.0
2023-08-08 18:22:32.845784,58.0
2023-08-08 18:22:32.853474,58.0
2023-08-08 18:22:32.861164,53.0
2023-08-08 18:22:32.868853,45.0
2023-08-08 18:22:32.876543,41.0
2023-08-08 18:22:32.884233,36.0
2023-08-08 18:22:32.891922,29.0
2023-08-08 18:22:32.899612,14.0
2023-08-08 18:22:32.907302,0.0
2023-08-08 18:22:32.914991,2.0
2023-08-08 18:22:32.922681,16.0
2023-08-08 18:22:32.930371,24.0
2023-08-08 18:22:32.938060,21.0
2023-08-08 18:22:32.945750,26.0
2023-08-08 18:22:32.953440,36.0
2023-08-08 18:22:32.961129,36.0
2023-08-08 18:22:32.968819,24.0
2023-08-08 18:22:32.976509,19.0
2023-08-08 18:22:32.984198,4.0
2023-08-08 18:22:32.991888,-128.0
2023-08-08 18:22:32.999578,-534.0
2023-08-08 18:22:33.007267,-957.0
2023-08-08 18:22:33.014957,-790.0
2023-08-08 18:22:33.022647,65.0
2023-08-08 18:22:33.030336,814.0
2023-08-08 18:22:33.038026,708.0
2023-08-08 18:22:33.045716,212.0
2023-08-08 18:22:33.053405,50.0
2023-08-08 18:22:33.061095,21.0
2023-08-08 18:22:33.068785,-77.0
2023-08-08 18:22:33.076474,-89.0
2023-08-08 18:22:33.084164,-67.0
2023-08-08 18:22:33.091854,-99.0
2023-08-08 18:22:33.099543,-118.0
2023-08-08 18:22:33.107233,-113.0
2023-08-08 18:22:33.114923,-125.0
2023-08-08 18:22:33.122612,-142.0
2023-08-08 18:22:33.130302,-152.0
2023-08-08 18:22:33.137992,-166.0
2023-08-08 18:22:33.145681,-181.0
2023-08-08 18:22:33.153371,-195.0
2023-08-08 18:22:33.161061,-212.0
2023-08-08 18:22:33.168750,-232.0
2023-08-08 18:22:33.176440,-253.0
2023-08-08 18:22:33.184130,-273.0
2023-08-08 18:22:33.191819,-294.0
2023-08-08 18:22:33.199509,-309.0
2023-08-08 18:22:33.207198,-323.0
2023-08-08 18:22:33.214888,-335.0
2023-08-08 18:22:33.222578,-338.0
2023-08-08 18:22:33.230267,-326.0
2023-08-08 18:22:33.237957,-304.0
2023-08-08 18:22:33.245647,-273.0
2023-08-08 18:22:33.253336,-224.0
2023-08-08 18:22:33.261026,-166.0
2023-08-08 18:22:33.268716,-101.0
2023-08-08 18:22:33.276405,-36.0
2023-08-08 18:22:33.284095,24.0
2023-08-08 18:22:33.291785,67.0
2023-08-08 18:22:33.299474,101.0
2023-08-08 18:22:33.307164,123.0
2023-08-08 18:22:33.314854,135.0
2023-08-08 18:22:33.322543,140.0
2023-08-08 18:22:33.330233,140.0
2023-08-08 18:22:33.337923,135.0
2023-08-08 18:22:33.345612,130.0
2023-08-08 18:22:33.353302,120.0
2023-08-08 18:22:33.360992,108.0
2023-08-08 18:22:33.368681,99.0
2023-08-08 18:22:33.376371,91.0
2023-08-08 18:22:33.384061,82.0
2023-08-08 18:22:33.391750,74.0
2023-08-08 18:22:33.399440,67.0
2023-08-08 18:22:33.407130,60.0
2023-08-08 18:22:33.414819,58.0
2023-08-08 18:22:33.422509,58.0
2023-08-08 18:22:33.430199,55.0
2023-08-08 18:22:33.437888,50.0
2023-08-08 18:22:33.445578,43.0
2023-08-08 18:22:33.453268,43.0
2023-08-08 18:22:33.460957,45.0
2023-08-08 18:22:33.468647,41.0
2023-08-08 18:22:33.476337,33.0
2023-08-08 18:22:33.484026,31.0
2023-08-08 18:22:33.491716,24.0
2023-08-08 18:22:33.499406,14.0
2023-08-08 18:22:33.507095,9.0
2023-08-08 18:22:33.514785,0.0
2023-08-08 18:22:33.522475,-4.0
2023-08-08 18:22:33.530164,7.0
2023-08-08 18:22:33.537854,19.0
2023-08-08 18:22:33.545544,19.0
2023-08-08 18:22:33.553233,21.0
2023-08-08 18:22:33.560923,29.0
2023-08-08 18:22:33.568613,26.0
2023-08-08 18:22:33.576302,12.0
2023-08-08 18:22:33.583992,0.0
2023-08-08 18:22:33.591682,-9.0
2023-08-08 18:22:33.599371,-147.0
2023-08-08 18:22:33.607061,-570.0
2023-08-08 18:22:33.614751,-954.0
2023-08-08 18:22:33.622440,-696.0
2023-08-08 18:22:33.630130,186.0
2023-08-08 18:22:33.637820,865.0
2023-08-08 18:22:33.645509,667.0
2023-08-08 18:22:33.653199,140.0
2023-08-08 18:22:33.660889,2.0
2023-08-08 18:22:33.668578,2.0
2023-08-08 18:22:33.676268,-87.0
2023-08-08 18:22:33.683958,-101.0
2023-08-08 18:22:33.691647,-72.0
2023-08-08 18:22:33.699337,-103.0
2023-08-08 18:22:33.707027,-125.0
2023-08-08 18:22:33.714716,-123.0
2023-08-08 18:22:33.722406,-135.0
2023-08-08 18:22:33.730096,-149.0
2023-08-08 18:22:33.737785,-159.0
2023-08-08 18:22:33.745475,-174.0
2023-08-08 18:22:33.753165,-190.0
2023-08-08 18:22:33.760854,-207.0
2023-08-08 18:22:33.768544,-224.0
2023-08-08 18:22:33.776234,-244.0
2023-08-08 18:22:33.783923,-263.0
2023-08-08 18:22:33.791613,-280.0
2023-08-08 18:22:33.799303,-302.0
2023-08-08 18:22:33.806992,-321.0
2023-08-08 18:22:33.814682,-335.0
2023-08-08 18:22:33.822372,-345.0
2023-08-08 18:22:33.830061,-343.0
2023-08-08 18:22:33.837751,-333.0
2023-08-08 18:22:33.845441,-314.0
2023-08-08 18:22:33.853130,-285.0
2023-08-08 18:22:33.860820,-239.0
2023-08-08 18:22:33.868510,-178.0
2023-08-08 18:22:33.876199,-111.0
2023-08-08 18:22:33.883889,-43.0
2023-08-08 18:22:33.891579,14.0
2023-08-08 18:22:33.899268,58.0
2023-08-08 18:22:33.906958,89.0
2023-08-08 18:22:33.914648,113.0
2023-08-08 18:22:33.922337,128.0
2023-08-08 18:22:33.930027,132.0
2023-08-08 18:22:33.937717,128.0
2023-08-08 18:22:33.945406,118.0
2023-08-08 18:22:33.953096,111.0
2023-08-08 18:22:33.960786,99.0
2023-08-08 18:22:33.968475,89.0
2023-08-08 18:22:33.976165,84.0
2023-08-08 18:22:33.983855,74.0
2023-08-08 18:22:33.991544,67.0
2023-08-08 18:22:33.999234,60.0
2023-08-08 18:22:34.006924,58.0
2023-08-08 18:22:34.014613,55.0
2023-08-08 18:22:34.022303,50.0
2023-08-08 18:22:34.029993,48.0
2023-08-08 18:22:34.037682,48.0
2023-08-08 18:22:34.045372,48.0
2023-08-08 18:22:34.053062,50.0
2023-08-08 18:22:34.060751,53.0
2023-08-08 18:22:34.068441,53.0
2023-08-08 18:22:34.076131,50.0
2023-08-08 18:22:34.083820,50.0
2023-08-08 18:22:34.091510,45.0
2023-08-08 18:22:34.099200,38.0
2023-08-08 18:22:34.106889,36.0
2023-08-08 18:22:34.114579,24.0
2023-08-08 18:22:34.122269,7.0
2023-08-08 18:22:34.129958,-9.0
2023-08-08 18:22:34.137648,-14.0
2023-08-08 18:22:34.145338,-2.0
2023-08-08 18:22:34.153027,12.0
2023-08-08 18:22:34.160717,12.0
2023-08-08 18:22:34.168407,4.0
2023-08-08 18:22:34.176096,9.0
2023-08-08 18:22:34.183786,16.0
2023-08-08 18:22:34.191476,9.0
2023-08-08 18:22:34.199165,0.0
2023-08-08 18:22:34.206855,-9.0
2023-08-08 18:22:34.214545,-77.0
2023-08-08 18:22:34.222234,-372.0
2023-08-08 18:22:34.229924,-843.0
2023-08-08 18:22:34.237614,-935.0
2023-08-08 18:22:34.245303,-280.0
2023-08-08 18:22:34.252993,623.0
2023-08-08 18:22:34.260683,843.0
2023-08-08 18:22:34.268372,328.0
2023-08-08 18:22:34.276062,-12.0
2023-08-08 18:22:34.283752,2.0
2023-08-08 18:22:34.291441,-53.0
2023-08-08 18:22:34.299131,-118.0
2023-08-08 18:22:34.306821,-89.0
2023-08-08 18:22:34.314510,-91.0
2023-08-08 18:22:34.322200,-125.0
2023-08-08 18:22:34.329890,-128.0
2023-08-08 18:22:34.337579,-130.0
2023-08-08 18:22:34.345269,-149.0
2023-08-08 18:22:34.352959,-159.0
2023-08-08 18:22:34.360648,-169.0
2023-08-08 18:22:34.368338,-186.0
2023-08-08 18:22:34.376028,-200.0
2023-08-08 18:22:34.383717,-215.0
2023-08-08 18:22:34.391407,-232.0
2023-08-08 18:22:34.399097,-251.0
2023-08-08 18:22:34.406786,-270.0
2023-08-08 18:22:34.414476,-292.0
2023-08-08 18:22:34.422166,-311.0
2023-08-08 18:22:34.429855,-328.0
2023-08-08 18:22:34.437545,-343.0
2023-08-08 18:22:34.445235,-355.0
2023-08-08 18:22:34.452924,-350.0
2023-08-08 18:22:34.460614,-333.0
2023-08-08 18:22:34.468304,-309.0
2023-08-08 18:22:34.475993,-273.0
2023-08-08 18:22:34.483683,-219.0
2023-08-08 18:22:34.491373,-157.0
2023-08-08 18:22:34.499062,-89.0
2023-08-08 18:22:34.506752,-24.0
2023-08-08 18:22:34.514442,29.0
2023-08-08 18:22:34.522131,70.0
2023-08-08 18:22:34.529821,96.0
2023-08-08 18:22:34.537511,113.0
2023-08-08 18:22:34.545200,123.0
2023-08-08 18:22:34.552890,125.0
2023-08-08 18:22:34.560580,120.0
2023-08-08 18:22:34.568269,111.0
2023-08-08 18:22:34.575959,106.0
2023-08-08 18:22:34.583649,99.0
2023-08-08 18:22:34.591338,89.0
2023-08-08 18:22:34.599028,79.0
2023-08-08 18:22:34.606718,74.0
2023-08-08 18:22:34.614407,67.0
2023-08-08 18:22:34.622097,62.0
2023-08-08 18:22:34.629787,60.0
2023-08-08 18:22:34.637476,60.0
2023-08-08 18:22:34.645166,58.0
2023-08-08 18:22:34.652856,53.0
2023-08-08 18:22:34.660545,48.0
2023-08-08 18:22:34.668235,50.0
2023-08-08 18:22:34.675925,55.0
2023-08-08 18:22:34.683614,53.0
2023-08-08 18:22:34.691304,50.0
2023-08-08 18:22:34.698994,45.0
2023-08-08 18:22:34.706683,33.0
2023-08-08 18:22:34.714373,29.0
2023-08-08 18:22:34.722063,33.0
2023-08-08 18:22:34.729752,33.0
2023-08-08 18:22:34.737442,26.0
2023-08-08 18:22:34.745132,19.0
2023-08-08 18:22:34.752821,7.0
2023-08-08 18:22:34.760511,-2.0
2023-08-08 18:22:34.768201,-7.0
2023-08-08 18:22:34.775890,-16.0
2023-08-08 18:22:34.783580,-31.0
2023-08-08 18:22:34.791270,-31.0
2023-08-08 18:22:34.798959,-16.0
2023-08-08 18:22:34.806649,-4.0
2023-08-08 18:22:34.814339,0.0
2023-08-08 18:22:34.822028,7.0
2023-08-08 18:22:34.829718,12.0
2023-08-08 18:22:34.837408,7.0
2023-08-08 18:22:34.845097,-2.0
2023-08-08 18:22:34.852787,0.0
2023-08-08 18:22:34.860477,-26.0
2023-08-08 18:22:34.868166,-239.0
2023-08-08 18:22:34.875856,-703.0
2023-08-08 18:22:34.883546,-966.0
2023-08-08 18:22:34.891235,-522.0
2023-08-08 18:22:34.898925,393.0
2023-08-08 18:22:34.906615,874.0
2023-08-08 18:22:34.914304,497.0
2023-08-08 18:22:34.921994,45.0
2023-08-08 18:22:34.929684,9.0
2023-08-08 18:22:34.937373,-16.0
2023-08-08 18:22:34.945063,-103.0
2023-08-08 18:22:34.952753,-94.0
2023-08-08 18:22:34.960442,-79.0
2023-08-08 18:22:34.968132,-113.0
2023-08-08 18:22:34.975822,-125.0
2023-08-08 18:22:34.983511,-125.0
2023-08-08 18:22:34.991201,-140.0
2023-08-08 18:22:34.998891,-152.0
2023-08-08 18:22:35.006580,-161.0
2023-08-08 18:22:35.014270,-176.0
2023-08-08 18:22:35.021960,-193.0
2023-08-08 18:22:35.029649,-207.0
2023-08-08 18:22:35.037339,-224.0
2023-08-08 18:22:35.045029,-244.0
2023-08-08 18:22:35.052718,-261.0
2023-08-08 18:22:35.060408,-280.0
2023-08-08 18:22:35.068098,-302.0
2023-08-08 18:22:35.075787,-321.0
2023-08-08 18:22:35.083477,-331.0
2023-08-08 18:22:35.091167,-340.0
2023-08-08 18:22:35.098856,-338.0
2023-08-08 18:22:35.106546,-326.0
2023-08-08 18:22:35.114236,-309.0
2023-08-08 18:22:35.121925,-280.0
2023-08-08 18:22:35.129615,-236.0
2023-08-08 18:22:35.137305,-181.0
2023-08-08 18:22:35.144994,-116.0
2023-08-08 18:22:35.152684,-48.0
2023-08-08 18:22:35.160374,7.0
2023-08-08 18:22:35.168063,53.0
2023-08-08 18:22:35.175753,87.0
2023-08-08 18:22:35.183443,106.0
2023-08-08 18:22:35.191132,116.0
2023-08-08 18:22:35.198822,118.0
2023-08-08 18:22:35.206512,118.0
2023-08-08 18:22:35.214201,113.0
2023-08-08 18:22:35.221891,103.0
2023-08-08 18:22:35.229580,96.0
2023-08-08 18:22:35.237270,89.0
2023-08-08 18:22:35.244960,82.0
2023-08-08 18:22:35.252649,72.0
2023-08-08 18:22:35.260339,65.0
2023-08-08 18:22:35.268029,65.0
2023-08-08 18:22:35.275718,60.0
2023-08-08 18:22:35.283408,50.0
2023-08-08 18:22:35.291098,38.0
2023-08-08 18:22:35.298787,29.0
2023-08-08 18:22:35.306477,33.0
2023-08-08 18:22:35.314167,38.0
2023-08-08 18:22:35.321856,41.0
2023-08-08 18:22:35.329546,43.0
2023-08-08 18:22:35.337236,41.0
2023-08-08 18:22:35.344925,41.0
2023-08-08 18:22:35.352615,41.0
2023-08-08 18:22:35.360305,38.0
2023-08-08 18:22:35.367994,33.0
2023-08-08 18:22:35.375684,31.0
2023-08-08 18:22:35.383374,24.0
2023-08-08 18:22:35.391063,16.0
2023-08-08 18:22:35.398753,12.0
2023-08-08 18:22:35.406443,2.0
2023-08-08 18:22:35.414132,-14.0
2023-08-08 18:22:35.421822,-21.0
2023-08-08 18:22:35.429512,-7.0
2023-08-08 18:22:35.437201,4.0
2023-08-08 18:22:35.444891,2.0
2023-08-08 18:22:35.452581,0.0
2023-08-08 18:22:35.460270,7.0
2023-08-08 18:22:35.467960,7.0
2023-08-08 18:22:35.475650,-2.0
2023-08-08 18:22:35.483339,-7.0
2023-08-08 18:22:35.491029,-12.0
2023-08-08 18:22:35.498719,-123.0
2023-08-08 18:22:35.506408,-500.0
2023-08-08 18:22:35.514098,-937.0
2023-08-08 18:22:35.521788,-845.0
2023-08-08 18:22:35.529477,-45.0
2023-08-08 18:22:35.537167,746.0
2023-08-08 18:22:35.544857,715.0
2023-08-08 18:22:35.552546,215.0
2023-08-08 18:22:35.560236,31.0
2023-08-08 18:22:35.567926,19.0
2023-08-08 18:22:35.575615,-77.0
2023-08-08 18:22:35.583305,-99.0
2023-08-08 18:22:35.590995,-67.0
2023-08-08 18:22:35.598684,-94.0
2023-08-08 18:22:35.606374,-118.0
2023-08-08 18:22:35.614064,-118.0
2023-08-08 18:22:35.621753,-128.0
2023-08-08 18:22:35.629443,-145.0
2023-08-08 18:22:35.637133,-157.0
2023-08-08 18:22:35.644822,-169.0
2023-08-08 18:22:35.652512,-186.0
2023-08-08 18:22:35.660202,-200.0
2023-08-08 18:22:35.667891,-219.0
2023-08-08 18:22:35.675581,-239.0
2023-08-08 18:22:35.683271,-258.0
2023-08-08 18:22:35.690960,-277.0
2023-08-08 18:22:35.698650,-297.0
2023-08-08 18:22:35.706340,-314.0
2023-08-08 18:22:35.714029,-328.0
2023-08-08 18:22:35.721719,-340.0
2023-08-08 18:22:35.729409,-340.0
2023-08-08 18:22:35.737098,-335.0
2023-08-08 18:22:35.744788,-321.0
2023-08-08 18:22:35.752478,-294.0
2023-08-08 18:22:35.760167,-251.0
2023-08-08 18:22:35.767857,-193.0
2023-08-08 18:22:35.775547,-125.0
2023-08-08 18:22:35.783236,-62.0
2023-08-08 18:22:35.790926,0.0
2023-08-08 18:22:35.798616,48.0
2023-08-08 18:22:35.806305,84.0
2023-08-08 18:22:35.813995,111.0
2023-08-08 18:22:35.821685,125.0
2023-08-08 18:22:35.829374,125.0
2023-08-08 18:22:35.837064,120.0
2023-08-08 18:22:35.844754,118.0
2023-08-08 18:22:35.852443,111.0
2023-08-08 18:22:35.860133,101.0
2023-08-08 18:22:35.867823,96.0
2023-08-08 18:22:35.875512,89.0
2023-08-08 18:22:35.883202,79.0
2023-08-08 18:22:35.890892,72.0
2023-08-08 18:22:35.898581,70.0
2023-08-08 18:22:35.906271,62.0
2023-08-08 18:22:35.913961,58.0
2023-08-08 18:22:35.921650,53.0
2023-08-08 18:22:35.929340,50.0
2023-08-08 18:22:35.937030,50.0
2023-08-08 18:22:35.944719,53.0
2023-08-08 18:22:35.952409,48.0
2023-08-08 18:22:35.960099,43.0
2023-08-08 18:22:35.967788,43.0
2023-08-08 18:22:35.975478,43.0
2023-08-08 18:22:35.983168,41.0
2023-08-08 18:22:35.990857,41.0
2023-08-08 18:22:35.998547,38.0
2023-08-08 18:22:36.006237,31.0
2023-08-08 18:22:36.013926,29.0
2023-08-08 18:22:36.021616,21.0
2023-08-08 18:22:36.029306,9.0
2023-08-08 18:22:36.036995,-2.0
2023-08-08 18:22:36.044685,-7.0
2023-08-08 18:22:36.052375,4.0
2023-08-08 18:22:36.060064,19.0
2023-08-08 18:22:36.067754,24.0
2023-08-08 18:22:36.075444,26.0
2023-08-08 18:22:36.083133,31.0
2023-08-08 18:22:36.090823,31.0
2023-08-08 18:22:36.098513,21.0
2023-08-08 18:22:36.106202,16.0
2023-08-08 18:22:36.113892,7.0
2023-08-08 18:22:36.121582,-128.0
2023-08-08 18:22:36.129271,-536.0
2023-08-08 18:22:36.136961,-942.0
2023-08-08 18:22:36.144651,-742.0
2023-08-08 18:22:36.152340,125.0
2023-08-08 18:22:36.160030,843.0
2023-08-08 18:22:36.167720,686.0
2023-08-08 18:22:36.175409,181.0
2023-08-08 18:22:36.183099,33.0
2023-08-08 18:22:36.190789,14.0
2023-08-08 18:22:36.198478,-79.0
2023-08-08 18:22:36.206168,-89.0
2023-08-08 18:22:36.213858,-65.0
2023-08-08 18:22:36.221547,-96.0
2023-08-08 18:22:36.229237,-116.0
2023-08-08 18:22:36.236927,-116.0
2023-08-08 18:22:36.244616,-125.0
2023-08-08 18:22:36.252306,-140.0
2023-08-08 18:22:36.259996,-152.0
2023-08-08 18:22:36.267685,-169.0
2023-08-08 18:22:36.275375,-183.0
2023-08-08 18:22:36.283065,-198.0
2023-08-08 18:22:36.290754,-212.0
2023-08-08 18:22:36.298444,-229.0
2023-08-08 18:22:36.306134,-248.0
2023-08-08 18:22:36.313823,-273.0
2023-08-08 18:22:36.321513,-292.0
2023-08-08 18:22:36.329203,-309.0
2023-08-08 18:22:36.336892,-321.0
2023-08-08 18:22:36.344582,-328.0
2023-08-08 18:22:36.352272,-331.0
2023-08-08 18:22:36.359961,-326.0
2023-08-08 18:22:36.367651,-314.0
2023-08-08 18:22:36.375341,-290.0
2023-08-08 18:22:36.383030,-244.0
2023-08-08 18:22:36.390720,-183.0
2023-08-08 18:22:36.398410,-118.0
2023-08-08 18:22:36.406099,-53.0
2023-08-08 18:22:36.413789,7.0
2023-08-08 18:22:36.421479,50.0
2023-08-08 18:22:36.429168,82.0
2023-08-08 18:22:36.436858,108.0
2023-08-08 18:22:36.444548,120.0
2023-08-08 18:22:36.452237,125.0
2023-08-08 18:22:36.459927,123.0
2023-08-08 18:22:36.467617,120.0
2023-08-08 18:22:36.475306,116.0
2023-08-08 18:22:36.482996,106.0
2023-08-08 18:22:36.490686,96.0
2023-08-08 18:22:36.498375,87.0
2023-08-08 18:22:36.506065,79.0
2023-08-08 18:22:36.513755,72.0
2023-08-08 18:22:36.521444,70.0
2023-08-08 18:22:36.529134,62.0
2023-08-08 18:22:36.536824,60.0
2023-08-08 18:22:36.544513,58.0
2023-08-08 18:22:36.552203,53.0
2023-08-08 18:22:36.559893,53.0
2023-08-08 18:22:36.567582,55.0
2023-08-08 18:22:36.575272,55.0
2023-08-08 18:22:36.582962,58.0
2023-08-08 18:22:36.590651,55.0
2023-08-08 18:22:36.598341,53.0
2023-08-08 18:22:36.606031,55.0
2023-08-08 18:22:36.613720,53.0
2023-08-08 18:22:36.621410,53.0
2023-08-08 18:22:36.629100,48.0
2023-08-08 18:22:36.636789,43.0
2023-08-08 18:22:36.644479,38.0
2023-08-08 18:22:36.652169,36.0
2023-08-08 18:22:36.659858,24.0
2023-08-08 18:22:36.667548,9.0
2023-08-08 18:22:36.675238,-2.0
2023-08-08 18:22:36.682927,-16.0
2023-08-08 18:22:36.690617,-19.0
2023-08-08 18:22:36.698307,-4.0
2023-08-08 18:22:36.705996,12.0
2023-08-08 18:22:36.713686,16.0
2023-08-08 18:22:36.721376,16.0
2023-08-08 18:22:36.729065,19.0
2023-08-08 18:22:36.736755,12.0
2023-08-08 18:22:36.744445,7.0
2023-08-08 18:22:36.752134,7.0
2023-08-08 18:22:36.759824,-43.0
2023-08-08 18:22:36.767514,-309.0
2023-08-08 18:22:36.775203,-787.0
2023-08-08 18:22:36.782893,-940.0
2023-08-08 18:22:36.790583,-352.0
2023-08-08 18:22:36.798272,555.0
2023-08-08 18:22:36.805962,850.0
2023-08-08 18:22:36.813652,384.0
2023-08-08 18:22:36.821341,26.0
2023-08-08 18:22:36.829031,26.0
2023-08-08 18:22:36.836721,-29.0
2023-08-08 18:22:36.844410,-94.0
2023-08-08 18:22:36.852100,-67.0
2023-08-08 18:22:36.859790,-72.0
2023-08-08 18:22:36.867479,-111.0
2023-08-08 18:22:36.875169,-111.0
2023-08-08 18:22:36.882859,-111.0
2023-08-08 18:22:36.890548,-130.0
2023-08-08 18:22:36.898238,-142.0
2023-08-08 18:22:36.905928,-152.0
2023-08-08 18:22:36.913617,-171.0
2023-08-08 18:22:36.921307,-188.0
2023-08-08 18:22:36.928997,-203.0
2023-08-08 18:22:36.936686,-219.0
2023-08-08 18:22:36.944376,-239.0
2023-08-08 18:22:36.952066,-263.0
2023-08-08 18:22:36.959755,-292.0
2023-08-08 18:22:36.967445,-311.0
2023-08-08 18:22:36.975135,-323.0
2023-08-08 18:22:36.982824,-335.0
2023-08-08 18:22:36.990514,-340.0
2023-08-08 18:22:36.998204,-338.0
2023-08-08 18:22:37.005893,-328.0
2023-08-08 18:22:37.013583,-306.0
2023-08-08 18:22:37.021273,-268.0
2023-08-08 18:22:37.028962,-222.0
2023-08-08 18:22:37.036652,-164.0
2023-08-08 18:22:37.044342,-99.0
2023-08-08 18:22:37.052031,-33.0
2023-08-08 18:22:37.059721,19.0
2023-08-08 18:22:37.067411,62.0
2023-08-08 18:22:37.075100,91.0
2023-08-08 18:22:37.082790,113.0
2023-08-08 18:22:37.090480,123.0
2023-08-08 18:22:37.098169,123.0
2023-08-08 18:22:37.105859,120.0
2023-08-08 18:22:37.113549,118.0
2023-08-08 18:22:37.121238,111.0
2023-08-08 18:22:37.128928,103.0
2023-08-08 18:22:37.136618,91.0
2023-08-08 18:22:37.144307,79.0
2023-08-08 18:22:37.151997,72.0
2023-08-08 18:22:37.159687,65.0
2023-08-08 18:22:37.167376,55.0
2023-08-08 18:22:37.175066,48.0
2023-08-08 18:22:37.182756,48.0
2023-08-08 18:22:37.190445,43.0
2023-08-08 18:22:37.198135,36.0
2023-08-08 18:22:37.205825,41.0
2023-08-08 18:22:37.213514,45.0
2023-08-08 18:22:37.221204,43.0
2023-08-08 18:22:37.228894,43.0
2023-08-08 18:22:37.236583,45.0
2023-08-08 18:22:37.244273,45.0
2023-08-08 18:22:37.251962,45.0
2023-08-08 18:22:37.259652,43.0
2023-08-08 18:22:37.267342,38.0
2023-08-08 18:22:37.275031,31.0
2023-08-08 18:22:37.282721,29.0
2023-08-08 18:22:37.290411,21.0
2023-08-08 18:22:37.298100,12.0
2023-08-08 18:22:37.305790,7.0
2023-08-08 18:22:37.313480,-2.0
2023-08-08 18:22:37.321169,-19.0
2023-08-08 18:22:37.328859,-19.0
2023-08-08 18:22:37.336549,-4.0
2023-08-08 18:22:37.344238,9.0
2023-08-08 18:22:37.351928,12.0
2023-08-08 18:22:37.359618,16.0
2023-08-08 18:22:37.367307,26.0
2023-08-08 18:22:37.374997,24.0
