time,ECG
2023-12-18 15:14:28.064848,-88.0
2023-12-18 15:14:28.072537,-81.0
2023-12-18 15:14:28.080226,-74.0
2023-12-18 15:14:28.087915,-71.0
2023-12-18 15:14:28.095604,-71.0
2023-12-18 15:14:28.103293,-71.0
2023-12-18 15:14:28.110982,-83.0
2023-12-18 15:14:28.118671,-107.0
2023-12-18 15:14:28.126360,-126.0
2023-12-18 15:14:28.134049,-143.0
2023-12-18 15:14:28.141738,-155.0
2023-12-18 15:14:28.149427,-155.0
2023-12-18 15:14:28.157116,-155.0
2023-12-18 15:14:28.164805,-179.0
2023-12-18 15:14:28.172494,-203.0
2023-12-18 15:14:28.180183,-188.0
2023-12-18 15:14:28.187872,-174.0
2023-12-18 15:14:28.195561,-181.0
2023-12-18 15:14:28.203250,-152.0
2023-12-18 15:14:28.210939,-42.0
2023-12-18 15:14:28.218628,143.0
2023-12-18 15:14:28.226317,322.0
2023-12-18 15:14:28.234006,267.0
2023-12-18 15:14:28.241695,-85.0
2023-12-18 15:14:28.249384,-303.0
2023-12-18 15:14:28.257073,-164.0
2023-12-18 15:14:28.264762,-62.0
2023-12-18 15:14:28.272451,-124.0
2023-12-18 15:14:28.280140,-124.0
2023-12-18 15:14:28.287829,-83.0
2023-12-18 15:14:28.295518,-88.0
2023-12-18 15:14:28.303207,-95.0
2023-12-18 15:14:28.310895,-69.0
2023-12-18 15:14:28.318584,-45.0
2023-12-18 15:14:28.326273,-31.0
2023-12-18 15:14:28.333962,-7.0
2023-12-18 15:14:28.341651,19.0
2023-12-18 15:14:28.349340,38.0
2023-12-18 15:14:28.357029,64.0
2023-12-18 15:14:28.364718,97.0
2023-12-18 15:14:28.372407,138.0
2023-12-18 15:14:28.380096,169.0
2023-12-18 15:14:28.387785,186.0
2023-12-18 15:14:28.395474,200.0
2023-12-18 15:14:28.403163,214.0
2023-12-18 15:14:28.410852,219.0
2023-12-18 15:14:28.418541,200.0
2023-12-18 15:14:28.426230,148.0
2023-12-18 15:14:28.433919,83.0
2023-12-18 15:14:28.441608,19.0
2023-12-18 15:14:28.449297,-50.0
2023-12-18 15:14:28.456986,-107.0
2023-12-18 15:14:28.464675,-136.0
2023-12-18 15:14:28.472364,-152.0
2023-12-18 15:14:28.480053,-171.0
2023-12-18 15:14:28.487742,-183.0
2023-12-18 15:14:28.495431,-179.0
2023-12-18 15:14:28.503120,-167.0
2023-12-18 15:14:28.510809,-157.0
2023-12-18 15:14:28.518498,-145.0
2023-12-18 15:14:28.526187,-143.0
2023-12-18 15:14:28.533876,-143.0
2023-12-18 15:14:28.541565,-133.0
2023-12-18 15:14:28.549254,-121.0
2023-12-18 15:14:28.556943,-117.0
2023-12-18 15:14:28.564632,-119.0
2023-12-18 15:14:28.572321,-121.0
2023-12-18 15:14:28.580010,-121.0
2023-12-18 15:14:28.587699,-119.0
2023-12-18 15:14:28.595388,-117.0
2023-12-18 15:14:28.603077,-112.0
2023-12-18 15:14:28.610766,-100.0
2023-12-18 15:14:28.618455,-74.0
2023-12-18 15:14:28.626144,-64.0
2023-12-18 15:14:28.633833,-78.0
2023-12-18 15:14:28.641522,-76.0
2023-12-18 15:14:28.649211,-64.0
2023-12-18 15:14:28.656900,-93.0
2023-12-18 15:14:28.664589,-131.0
2023-12-18 15:14:28.672278,-140.0
2023-12-18 15:14:28.679967,-143.0
2023-12-18 15:14:28.687656,-155.0
2023-12-18 15:14:28.695345,-160.0
2023-12-18 15:14:28.703034,-174.0
2023-12-18 15:14:28.710723,-200.0
2023-12-18 15:14:28.718412,-200.0
2023-12-18 15:14:28.726101,-183.0
2023-12-18 15:14:28.733790,-186.0
2023-12-18 15:14:28.741479,-191.0
2023-12-18 15:14:28.749168,-167.0
2023-12-18 15:14:28.756857,-54.0
2023-12-18 15:14:28.764546,169.0
2023-12-18 15:14:28.772235,353.0
2023-12-18 15:14:28.779924,226.0
2023-12-18 15:14:28.787613,-174.0
2023-12-18 15:14:28.795302,-365.0
2023-12-18 15:14:28.802991,-203.0
2023-12-18 15:14:28.810680,-109.0
2023-12-18 15:14:28.818369,-176.0
2023-12-18 15:14:28.826058,-171.0
2023-12-18 15:14:28.833747,-128.0
2023-12-18 15:14:28.841436,-136.0
2023-12-18 15:14:28.849125,-136.0
2023-12-18 15:14:28.856814,-105.0
2023-12-18 15:14:28.864503,-88.0
2023-12-18 15:14:28.872192,-83.0
2023-12-18 15:14:28.879881,-71.0
2023-12-18 15:14:28.887569,-50.0
2023-12-18 15:14:28.895258,-26.0
2023-12-18 15:14:28.902947,7.0
2023-12-18 15:14:28.910636,47.0
2023-12-18 15:14:28.918325,88.0
2023-12-18 15:14:28.926014,109.0
2023-12-18 15:14:28.933703,121.0
2023-12-18 15:14:28.941392,143.0
2023-12-18 15:14:28.949081,162.0
2023-12-18 15:14:28.956770,164.0
2023-12-18 15:14:28.964459,152.0
2023-12-18 15:14:28.972148,119.0
2023-12-18 15:14:28.979837,59.0
2023-12-18 15:14:28.987526,-7.0
2023-12-18 15:14:28.995215,-69.0
2023-12-18 15:14:29.002904,-119.0
2023-12-18 15:14:29.010593,-160.0
2023-12-18 15:14:29.018282,-186.0
2023-12-18 15:14:29.025971,-193.0
2023-12-18 15:14:29.033660,-188.0
2023-12-18 15:14:29.041349,-183.0
2023-12-18 15:14:29.049038,-181.0
2023-12-18 15:14:29.056727,-171.0
2023-12-18 15:14:29.064416,-157.0
2023-12-18 15:14:29.072105,-150.0
2023-12-18 15:14:29.079794,-148.0
2023-12-18 15:14:29.087483,-143.0
2023-12-18 15:14:29.095172,-136.0
2023-12-18 15:14:29.102861,-131.0
2023-12-18 15:14:29.110550,-128.0
2023-12-18 15:14:29.118239,-133.0
2023-12-18 15:14:29.125928,-145.0
2023-12-18 15:14:29.133617,-148.0
2023-12-18 15:14:29.141306,-140.0
2023-12-18 15:14:29.148995,-138.0
2023-12-18 15:14:29.156684,-133.0
2023-12-18 15:14:29.164373,-117.0
2023-12-18 15:14:29.172062,-97.0
2023-12-18 15:14:29.179751,-85.0
2023-12-18 15:14:29.187440,-78.0
2023-12-18 15:14:29.195129,-71.0
2023-12-18 15:14:29.202818,-88.0
2023-12-18 15:14:29.210507,-117.0
2023-12-18 15:14:29.218196,-128.0
2023-12-18 15:14:29.225885,-138.0
2023-12-18 15:14:29.233574,-155.0
2023-12-18 15:14:29.241263,-155.0
2023-12-18 15:14:29.248952,-145.0
2023-12-18 15:14:29.256641,-148.0
2023-12-18 15:14:29.264330,-148.0
2023-12-18 15:14:29.272019,-140.0
2023-12-18 15:14:29.279708,-150.0
2023-12-18 15:14:29.287397,-176.0
2023-12-18 15:14:29.295086,-150.0
2023-12-18 15:14:29.302775,16.0
2023-12-18 15:14:29.310464,293.0
2023-12-18 15:14:29.318153,506.0
2023-12-18 15:14:29.325842,384.0
2023-12-18 15:14:29.333531,-88.0
2023-12-18 15:14:29.341220,-363.0
2023-12-18 15:14:29.348909,-186.0
2023-12-18 15:14:29.356598,-59.0
2023-12-18 15:14:29.364287,-152.0
2023-12-18 15:14:29.371976,-181.0
2023-12-18 15:14:29.379665,-133.0
2023-12-18 15:14:29.387354,-131.0
2023-12-18 15:14:29.395043,-126.0
2023-12-18 15:14:29.402732,-97.0
2023-12-18 15:14:29.410421,-83.0
2023-12-18 15:14:29.418110,-66.0
2023-12-18 15:14:29.425799,-42.0
2023-12-18 15:14:29.433488,-28.0
2023-12-18 15:14:29.441177,-9.0
2023-12-18 15:14:29.448866,31.0
2023-12-18 15:14:29.456554,69.0
2023-12-18 15:14:29.464243,97.0
2023-12-18 15:14:29.471932,128.0
2023-12-18 15:14:29.479621,164.0
2023-12-18 15:14:29.487310,191.0
2023-12-18 15:14:29.494999,200.0
2023-12-18 15:14:29.502688,198.0
2023-12-18 15:14:29.510377,176.0
2023-12-18 15:14:29.518066,133.0
2023-12-18 15:14:29.525755,74.0
2023-12-18 15:14:29.533444,9.0
2023-12-18 15:14:29.541133,-50.0
2023-12-18 15:14:29.548822,-102.0
2023-12-18 15:14:29.556511,-143.0
2023-12-18 15:14:29.564200,-167.0
2023-12-18 15:14:29.571889,-167.0
2023-12-18 15:14:29.579578,-160.0
2023-12-18 15:14:29.587267,-152.0
2023-12-18 15:14:29.594956,-150.0
2023-12-18 15:14:29.602645,-150.0
2023-12-18 15:14:29.610334,-150.0
2023-12-18 15:14:29.618023,-148.0
2023-12-18 15:14:29.625712,-138.0
2023-12-18 15:14:29.633401,-124.0
2023-12-18 15:14:29.641090,-119.0
2023-12-18 15:14:29.648779,-124.0
2023-12-18 15:14:29.656468,-114.0
2023-12-18 15:14:29.664157,-97.0
2023-12-18 15:14:29.671846,-100.0
2023-12-18 15:14:29.679535,-105.0
2023-12-18 15:14:29.687224,-102.0
2023-12-18 15:14:29.694913,-100.0
2023-12-18 15:14:29.702602,-100.0
2023-12-18 15:14:29.710291,-81.0
2023-12-18 15:14:29.717980,-59.0
2023-12-18 15:14:29.725669,-52.0
2023-12-18 15:14:29.733358,-50.0
2023-12-18 15:14:29.741047,-42.0
2023-12-18 15:14:29.748736,-50.0
2023-12-18 15:14:29.756425,-76.0
2023-12-18 15:14:29.764114,-90.0
2023-12-18 15:14:29.771803,-97.0
2023-12-18 15:14:29.779492,-114.0
2023-12-18 15:14:29.787181,-131.0
2023-12-18 15:14:29.794870,-131.0
2023-12-18 15:14:29.802559,-126.0
2023-12-18 15:14:29.810248,-119.0
2023-12-18 15:14:29.817937,-114.0
2023-12-18 15:14:29.825626,-136.0
2023-12-18 15:14:29.833315,-171.0
2023-12-18 15:14:29.841004,-143.0
2023-12-18 15:14:29.848693,11.0
2023-12-18 15:14:29.856382,246.0
2023-12-18 15:14:29.864071,472.0
2023-12-18 15:14:29.871760,465.0
2023-12-18 15:14:29.879449,50.0
2023-12-18 15:14:29.887138,-312.0
2023-12-18 15:14:29.894827,-205.0
2023-12-18 15:14:29.902516,-54.0
2023-12-18 15:14:29.910205,-128.0
2023-12-18 15:14:29.917894,-160.0
2023-12-18 15:14:29.925583,-112.0
2023-12-18 15:14:29.933272,-114.0
2023-12-18 15:14:29.940961,-131.0
2023-12-18 15:14:29.948650,-112.0
2023-12-18 15:14:29.956339,-83.0
2023-12-18 15:14:29.964028,-71.0
2023-12-18 15:14:29.971717,-57.0
2023-12-18 15:14:29.979406,-23.0
2023-12-18 15:14:29.987095,16.0
2023-12-18 15:14:29.994784,47.0
2023-12-18 15:14:30.002473,78.0
2023-12-18 15:14:30.010162,114.0
2023-12-18 15:14:30.017851,150.0
2023-12-18 15:14:30.025540,188.0
2023-12-18 15:14:30.033228,219.0
2023-12-18 15:14:30.040917,231.0
2023-12-18 15:14:30.048606,226.0
2023-12-18 15:14:30.056295,210.0
2023-12-18 15:14:30.063984,164.0
2023-12-18 15:14:30.071673,102.0
2023-12-18 15:14:30.079362,35.0
2023-12-18 15:14:30.087051,-31.0
2023-12-18 15:14:30.094740,-83.0
2023-12-18 15:14:30.102429,-126.0
2023-12-18 15:14:30.110118,-160.0
2023-12-18 15:14:30.117807,-164.0
2023-12-18 15:14:30.125496,-155.0
2023-12-18 15:14:30.133185,-152.0
2023-12-18 15:14:30.140874,-157.0
2023-12-18 15:14:30.148563,-157.0
2023-12-18 15:14:30.156252,-155.0
2023-12-18 15:14:30.163941,-140.0
2023-12-18 15:14:30.171630,-128.0
2023-12-18 15:14:30.179319,-121.0
2023-12-18 15:14:30.187008,-117.0
2023-12-18 15:14:30.194697,-114.0
2023-12-18 15:14:30.202386,-109.0
2023-12-18 15:14:30.210075,-97.0
2023-12-18 15:14:30.217764,-93.0
2023-12-18 15:14:30.225453,-100.0
2023-12-18 15:14:30.233142,-107.0
2023-12-18 15:14:30.240831,-100.0
2023-12-18 15:14:30.248520,-88.0
2023-12-18 15:14:30.256209,-81.0
2023-12-18 15:14:30.263898,-66.0
2023-12-18 15:14:30.271587,-52.0
2023-12-18 15:14:30.279276,-47.0
2023-12-18 15:14:30.286965,-38.0
2023-12-18 15:14:30.294654,-45.0
2023-12-18 15:14:30.302343,-76.0
2023-12-18 15:14:30.310032,-95.0
2023-12-18 15:14:30.317721,-105.0
2023-12-18 15:14:30.325410,-124.0
2023-12-18 15:14:30.333099,-128.0
2023-12-18 15:14:30.340788,-124.0
2023-12-18 15:14:30.348477,-128.0
2023-12-18 15:14:30.356166,-143.0
2023-12-18 15:14:30.363855,-140.0
2023-12-18 15:14:30.371544,-140.0
2023-12-18 15:14:30.379233,-155.0
2023-12-18 15:14:30.386922,-143.0
2023-12-18 15:14:30.394611,-52.0
2023-12-18 15:14:30.402300,119.0
2023-12-18 15:14:30.409989,317.0
2023-12-18 15:14:30.417678,384.0
2023-12-18 15:14:30.425367,124.0
2023-12-18 15:14:30.433056,-246.0
2023-12-18 15:14:30.440745,-269.0
2023-12-18 15:14:30.448434,-109.0
2023-12-18 15:14:30.456123,-128.0
2023-12-18 15:14:30.463812,-186.0
2023-12-18 15:14:30.471501,-148.0
2023-12-18 15:14:30.479190,-126.0
2023-12-18 15:14:30.486879,-136.0
2023-12-18 15:14:30.494568,-117.0
2023-12-18 15:14:30.502257,-90.0
2023-12-18 15:14:30.509946,-76.0
2023-12-18 15:14:30.517635,-54.0
2023-12-18 15:14:30.525324,-31.0
2023-12-18 15:14:30.533013,-4.0
2023-12-18 15:14:30.540702,28.0
2023-12-18 15:14:30.548391,66.0
2023-12-18 15:14:30.556080,100.0
2023-12-18 15:14:30.563769,131.0
2023-12-18 15:14:30.571458,164.0
2023-12-18 15:14:30.579147,195.0
2023-12-18 15:14:30.586836,222.0
2023-12-18 15:14:30.594525,229.0
2023-12-18 15:14:30.602214,212.0
2023-12-18 15:14:30.609902,174.0
2023-12-18 15:14:30.617591,114.0
2023-12-18 15:14:30.625280,50.0
2023-12-18 15:14:30.632969,-14.0
2023-12-18 15:14:30.640658,-74.0
2023-12-18 15:14:30.648347,-121.0
2023-12-18 15:14:30.656036,-148.0
2023-12-18 15:14:30.663725,-160.0
2023-12-18 15:14:30.671414,-162.0
2023-12-18 15:14:30.679103,-160.0
2023-12-18 15:14:30.686792,-164.0
2023-12-18 15:14:30.694481,-167.0
2023-12-18 15:14:30.702170,-155.0
2023-12-18 15:14:30.709859,-140.0
2023-12-18 15:14:30.717548,-133.0
2023-12-18 15:14:30.725237,-131.0
2023-12-18 15:14:30.732926,-128.0
2023-12-18 15:14:30.740615,-119.0
2023-12-18 15:14:30.748304,-107.0
2023-12-18 15:14:30.755993,-107.0
2023-12-18 15:14:30.763682,-107.0
2023-12-18 15:14:30.771371,-109.0
2023-12-18 15:14:30.779060,-114.0
2023-12-18 15:14:30.786749,-114.0
2023-12-18 15:14:30.794438,-102.0
2023-12-18 15:14:30.802127,-93.0
2023-12-18 15:14:30.809816,-83.0
2023-12-18 15:14:30.817505,-69.0
2023-12-18 15:14:30.825194,-54.0
2023-12-18 15:14:30.832883,-42.0
2023-12-18 15:14:30.840572,-42.0
2023-12-18 15:14:30.848261,-64.0
2023-12-18 15:14:30.855950,-95.0
2023-12-18 15:14:30.863639,-114.0
2023-12-18 15:14:30.871328,-131.0
2023-12-18 15:14:30.879017,-143.0
2023-12-18 15:14:30.886706,-148.0
2023-12-18 15:14:30.894395,-150.0
2023-12-18 15:14:30.902084,-150.0
2023-12-18 15:14:30.909773,-145.0
2023-12-18 15:14:30.917462,-145.0
2023-12-18 15:14:30.925151,-143.0
2023-12-18 15:14:30.932840,-150.0
2023-12-18 15:14:30.940529,-157.0
2023-12-18 15:14:30.948218,-112.0
2023-12-18 15:14:30.955907,14.0
2023-12-18 15:14:30.963596,195.0
2023-12-18 15:14:30.971285,298.0
2023-12-18 15:14:30.978974,93.0
2023-12-18 15:14:30.986663,-267.0
2023-12-18 15:14:30.994352,-305.0
2023-12-18 15:14:31.002041,-124.0
2023-12-18 15:14:31.009730,-114.0
2023-12-18 15:14:31.017419,-179.0
2023-12-18 15:14:31.025108,-150.0
2023-12-18 15:14:31.032797,-124.0
2023-12-18 15:14:31.040486,-131.0
2023-12-18 15:14:31.048175,-114.0
2023-12-18 15:14:31.055864,-85.0
2023-12-18 15:14:31.063553,-74.0
2023-12-18 15:14:31.071242,-59.0
2023-12-18 15:14:31.078931,-40.0
2023-12-18 15:14:31.086620,-14.0
2023-12-18 15:14:31.094309,11.0
2023-12-18 15:14:31.101998,42.0
2023-12-18 15:14:31.109687,85.0
2023-12-18 15:14:31.117376,131.0
2023-12-18 15:14:31.125065,162.0
2023-12-18 15:14:31.132754,186.0
2023-12-18 15:14:31.140443,203.0
2023-12-18 15:14:31.148132,212.0
2023-12-18 15:14:31.155821,205.0
2023-12-18 15:14:31.163510,186.0
2023-12-18 15:14:31.171199,140.0
2023-12-18 15:14:31.178887,69.0
2023-12-18 15:14:31.186576,-9.0
2023-12-18 15:14:31.194265,-71.0
2023-12-18 15:14:31.201954,-112.0
2023-12-18 15:14:31.209643,-136.0
2023-12-18 15:14:31.217332,-160.0
2023-12-18 15:14:31.225021,-174.0
2023-12-18 15:14:31.232710,-169.0
2023-12-18 15:14:31.240399,-157.0
2023-12-18 15:14:31.248088,-152.0
2023-12-18 15:14:31.255777,-150.0
2023-12-18 15:14:31.263466,-145.0
2023-12-18 15:14:31.271155,-143.0
2023-12-18 15:14:31.278844,-140.0
2023-12-18 15:14:31.286533,-131.0
2023-12-18 15:14:31.294222,-117.0
2023-12-18 15:14:31.301911,-112.0
2023-12-18 15:14:31.309600,-117.0
2023-12-18 15:14:31.317289,-128.0
2023-12-18 15:14:31.324978,-128.0
2023-12-18 15:14:31.332667,-128.0
2023-12-18 15:14:31.340356,-133.0
2023-12-18 15:14:31.348045,-128.0
2023-12-18 15:14:31.355734,-126.0
2023-12-18 15:14:31.363423,-131.0
2023-12-18 15:14:31.371112,-117.0
2023-12-18 15:14:31.378801,-93.0
2023-12-18 15:14:31.386490,-95.0
2023-12-18 15:14:31.394179,-97.0
2023-12-18 15:14:31.401868,-88.0
2023-12-18 15:14:31.409557,-83.0
2023-12-18 15:14:31.417246,-90.0
2023-12-18 15:14:31.424935,-112.0
2023-12-18 15:14:31.432624,-131.0
2023-12-18 15:14:31.440313,-145.0
2023-12-18 15:14:31.448002,-167.0
2023-12-18 15:14:31.455691,-179.0
2023-12-18 15:14:31.463380,-176.0
2023-12-18 15:14:31.471069,-171.0
2023-12-18 15:14:31.478758,-162.0
2023-12-18 15:14:31.486447,-160.0
2023-12-18 15:14:31.494136,-188.0
2023-12-18 15:14:31.501825,-214.0
2023-12-18 15:14:31.509514,-186.0
2023-12-18 15:14:31.517203,-95.0
2023-12-18 15:14:31.524892,78.0
2023-12-18 15:14:31.532581,317.0
2023-12-18 15:14:31.540270,422.0
2023-12-18 15:14:31.547959,155.0
2023-12-18 15:14:31.555648,-260.0
2023-12-18 15:14:31.563337,-310.0
2023-12-18 15:14:31.571026,-117.0
2023-12-18 15:14:31.578715,-109.0
2023-12-18 15:14:31.586404,-188.0
2023-12-18 15:14:31.594093,-160.0
2023-12-18 15:14:31.601782,-126.0
2023-12-18 15:14:31.609471,-131.0
2023-12-18 15:14:31.617160,-102.0
2023-12-18 15:14:31.624849,-74.0
2023-12-18 15:14:31.632538,-81.0
2023-12-18 15:14:31.640227,-66.0
2023-12-18 15:14:31.647916,-28.0
2023-12-18 15:14:31.655605,2.0
2023-12-18 15:14:31.663294,33.0
2023-12-18 15:14:31.670983,62.0
2023-12-18 15:14:31.678672,88.0
2023-12-18 15:14:31.686361,124.0
2023-12-18 15:14:31.694050,160.0
2023-12-18 15:14:31.701739,188.0
2023-12-18 15:14:31.709428,214.0
2023-12-18 15:14:31.717117,224.0
2023-12-18 15:14:31.724806,207.0
2023-12-18 15:14:31.732495,181.0
2023-12-18 15:14:31.740184,150.0
2023-12-18 15:14:31.747873,88.0
2023-12-18 15:14:31.755561,7.0
2023-12-18 15:14:31.763250,-64.0
2023-12-18 15:14:31.770939,-117.0
2023-12-18 15:14:31.778628,-148.0
2023-12-18 15:14:31.786317,-157.0
2023-12-18 15:14:31.794006,-160.0
2023-12-18 15:14:31.801695,-155.0
2023-12-18 15:14:31.809384,-157.0
2023-12-18 15:14:31.817073,-160.0
2023-12-18 15:14:31.824762,-155.0
2023-12-18 15:14:31.832451,-164.0
2023-12-18 15:14:31.840140,-169.0
2023-12-18 15:14:31.847829,-152.0
2023-12-18 15:14:31.855518,-143.0
2023-12-18 15:14:31.863207,-143.0
2023-12-18 15:14:31.870896,-133.0
2023-12-18 15:14:31.878585,-128.0
2023-12-18 15:14:31.886274,-128.0
2023-12-18 15:14:31.893963,-124.0
2023-12-18 15:14:31.901652,-126.0
2023-12-18 15:14:31.909341,-131.0
2023-12-18 15:14:31.917030,-128.0
2023-12-18 15:14:31.924719,-128.0
2023-12-18 15:14:31.932408,-136.0
2023-12-18 15:14:31.940097,-133.0
2023-12-18 15:14:31.947786,-138.0
2023-12-18 15:14:31.955475,-150.0
2023-12-18 15:14:31.963164,-140.0
2023-12-18 15:14:31.970853,-121.0
2023-12-18 15:14:31.978542,-117.0
2023-12-18 15:14:31.986231,-114.0
2023-12-18 15:14:31.993920,-124.0
2023-12-18 15:14:32.001609,-145.0
2023-12-18 15:14:32.009298,-150.0
2023-12-18 15:14:32.016987,-145.0
2023-12-18 15:14:32.024676,-150.0
2023-12-18 15:14:32.032365,-155.0
2023-12-18 15:14:32.040054,-155.0
2023-12-18 15:14:32.047743,-162.0
2023-12-18 15:14:32.055432,-160.0
2023-12-18 15:14:32.063121,-140.0
2023-12-18 15:14:32.070810,-143.0
2023-12-18 15:14:32.078499,-181.0
2023-12-18 15:14:32.086188,-176.0
2023-12-18 15:14:32.093877,-38.0
2023-12-18 15:14:32.101566,210.0
2023-12-18 15:14:32.109255,468.0
2023-12-18 15:14:32.116944,511.0
2023-12-18 15:14:32.124633,128.0
2023-12-18 15:14:32.132322,-303.0
2023-12-18 15:14:32.140011,-267.0
2023-12-18 15:14:32.147700,-76.0
2023-12-18 15:14:32.155389,-124.0
2023-12-18 15:14:32.163078,-186.0
2023-12-18 15:14:32.170767,-131.0
2023-12-18 15:14:32.178456,-109.0
2023-12-18 15:14:32.186145,-121.0
2023-12-18 15:14:32.193834,-100.0
2023-12-18 15:14:32.201523,-74.0
2023-12-18 15:14:32.209212,-62.0
2023-12-18 15:14:32.216901,-47.0
2023-12-18 15:14:32.224590,-14.0
2023-12-18 15:14:32.232279,23.0
2023-12-18 15:14:32.239968,47.0
2023-12-18 15:14:32.247657,76.0
2023-12-18 15:14:32.255346,112.0
2023-12-18 15:14:32.263035,150.0
2023-12-18 15:14:32.270724,200.0
2023-12-18 15:14:32.278413,234.0
2023-12-18 15:14:32.286102,231.0
2023-12-18 15:14:32.293791,226.0
2023-12-18 15:14:32.301480,217.0
2023-12-18 15:14:32.309169,181.0
2023-12-18 15:14:32.316858,121.0
2023-12-18 15:14:32.324546,47.0
2023-12-18 15:14:32.332235,-35.0
2023-12-18 15:14:32.339924,-95.0
2023-12-18 15:14:32.347613,-126.0
2023-12-18 15:14:32.355302,-148.0
2023-12-18 15:14:32.362991,-167.0
2023-12-18 15:14:32.370680,-181.0
2023-12-18 15:14:32.378369,-183.0
2023-12-18 15:14:32.386058,-181.0
2023-12-18 15:14:32.393747,-181.0
2023-12-18 15:14:32.401436,-176.0
2023-12-18 15:14:32.409125,-167.0
2023-12-18 15:14:32.416814,-169.0
2023-12-18 15:14:32.424503,-167.0
2023-12-18 15:14:32.432192,-138.0
2023-12-18 15:14:32.439881,-128.0
2023-12-18 15:14:32.447570,-138.0
2023-12-18 15:14:32.455259,-145.0
2023-12-18 15:14:32.462948,-157.0
2023-12-18 15:14:32.470637,-169.0
2023-12-18 15:14:32.478326,-167.0
2023-12-18 15:14:32.486015,-162.0
2023-12-18 15:14:32.493704,-167.0
2023-12-18 15:14:32.501393,-171.0
2023-12-18 15:14:32.509082,-174.0
2023-12-18 15:14:32.516771,-169.0
2023-12-18 15:14:32.524460,-157.0
2023-12-18 15:14:32.532149,-157.0
2023-12-18 15:14:32.539838,-152.0
2023-12-18 15:14:32.547527,-138.0
2023-12-18 15:14:32.555216,-128.0
2023-12-18 15:14:32.562905,-117.0
2023-12-18 15:14:32.570594,-109.0
2023-12-18 15:14:32.578283,-100.0
2023-12-18 15:14:32.585972,-95.0
2023-12-18 15:14:32.593661,-109.0
2023-12-18 15:14:32.601350,-131.0
2023-12-18 15:14:32.609039,-138.0
2023-12-18 15:14:32.616728,-133.0
2023-12-18 15:14:32.624417,-136.0
2023-12-18 15:14:32.632106,-140.0
2023-12-18 15:14:32.639795,-140.0
2023-12-18 15:14:32.647484,-128.0
2023-12-18 15:14:32.655173,-119.0
2023-12-18 15:14:32.662862,-136.0
2023-12-18 15:14:32.670551,-162.0
2023-12-18 15:14:32.678240,-148.0
2023-12-18 15:14:32.685929,-62.0
2023-12-18 15:14:32.693618,97.0
2023-12-18 15:14:32.701307,305.0
2023-12-18 15:14:32.708996,446.0
2023-12-18 15:14:32.716685,272.0
2023-12-18 15:14:32.724374,-150.0
2023-12-18 15:14:32.732063,-281.0
2023-12-18 15:14:32.739752,-95.0
2023-12-18 15:14:32.747441,-52.0
2023-12-18 15:14:32.755130,-136.0
2023-12-18 15:14:32.762819,-114.0
2023-12-18 15:14:32.770508,-69.0
2023-12-18 15:14:32.778197,-78.0
2023-12-18 15:14:32.785886,-76.0
2023-12-18 15:14:32.793575,-50.0
2023-12-18 15:14:32.801264,-33.0
2023-12-18 15:14:32.808953,-23.0
2023-12-18 15:14:32.816642,-11.0
2023-12-18 15:14:32.824331,11.0
2023-12-18 15:14:32.832020,52.0
2023-12-18 15:14:32.839709,85.0
2023-12-18 15:14:32.847398,105.0
2023-12-18 15:14:32.855087,138.0
2023-12-18 15:14:32.862776,186.0
2023-12-18 15:14:32.870465,217.0
2023-12-18 15:14:32.878154,236.0
2023-12-18 15:14:32.885843,246.0
2023-12-18 15:14:32.893532,241.0
2023-12-18 15:14:32.901220,224.0
2023-12-18 15:14:32.908909,179.0
2023-12-18 15:14:32.916598,100.0
2023-12-18 15:14:32.924287,19.0
2023-12-18 15:14:32.931976,-57.0
2023-12-18 15:14:32.939665,-114.0
2023-12-18 15:14:32.947354,-138.0
2023-12-18 15:14:32.955043,-157.0
2023-12-18 15:14:32.962732,-195.0
2023-12-18 15:14:32.970421,-222.0
2023-12-18 15:14:32.978110,-214.0
2023-12-18 15:14:32.985799,-205.0
2023-12-18 15:14:32.993488,-205.0
2023-12-18 15:14:33.001177,-205.0
2023-12-18 15:14:33.008866,-205.0
2023-12-18 15:14:33.016555,-198.0
2023-12-18 15:14:33.024244,-183.0
2023-12-18 15:14:33.031933,-179.0
2023-12-18 15:14:33.039622,-188.0
2023-12-18 15:14:33.047311,-188.0
2023-12-18 15:14:33.055000,-186.0
2023-12-18 15:14:33.062689,-193.0
2023-12-18 15:14:33.070378,-191.0
2023-12-18 15:14:33.078067,-181.0
2023-12-18 15:14:33.085756,-176.0
2023-12-18 15:14:33.093445,-176.0
2023-12-18 15:14:33.101134,-167.0
2023-12-18 15:14:33.108823,-167.0
2023-12-18 15:14:33.116512,-169.0
2023-12-18 15:14:33.124201,-162.0
2023-12-18 15:14:33.131890,-157.0
2023-12-18 15:14:33.139579,-157.0
2023-12-18 15:14:33.147268,-150.0
2023-12-18 15:14:33.154957,-136.0
2023-12-18 15:14:33.162646,-119.0
2023-12-18 15:14:33.170335,-102.0
2023-12-18 15:14:33.178024,-90.0
2023-12-18 15:14:33.185713,-78.0
2023-12-18 15:14:33.193402,-59.0
2023-12-18 15:14:33.201091,-66.0
2023-12-18 15:14:33.208780,-112.0
2023-12-18 15:14:33.216469,-138.0
2023-12-18 15:14:33.224158,-128.0
2023-12-18 15:14:33.231847,-131.0
2023-12-18 15:14:33.239536,-148.0
2023-12-18 15:14:33.247225,-148.0
2023-12-18 15:14:33.254914,-133.0
2023-12-18 15:14:33.262603,-114.0
2023-12-18 15:14:33.270292,-107.0
2023-12-18 15:14:33.277981,-114.0
2023-12-18 15:14:33.285670,-117.0
2023-12-18 15:14:33.293359,-97.0
2023-12-18 15:14:33.301048,-35.0
2023-12-18 15:14:33.308737,83.0
2023-12-18 15:14:33.316426,253.0
2023-12-18 15:14:33.324115,372.0
2023-12-18 15:14:33.331804,205.0
2023-12-18 15:14:33.339493,-167.0
2023-12-18 15:14:33.347182,-253.0
2023-12-18 15:14:33.354871,-62.0
2023-12-18 15:14:33.362560,-26.0
2023-12-18 15:14:33.370249,-100.0
2023-12-18 15:14:33.377938,-78.0
2023-12-18 15:14:33.385627,-52.0
2023-12-18 15:14:33.393316,-66.0
2023-12-18 15:14:33.401005,-45.0
2023-12-18 15:14:33.408694,-9.0
2023-12-18 15:14:33.416383,4.0
2023-12-18 15:14:33.424072,19.0
2023-12-18 15:14:33.431761,31.0
2023-12-18 15:14:33.439450,45.0
2023-12-18 15:14:33.447139,76.0
2023-12-18 15:14:33.454828,112.0
2023-12-18 15:14:33.462517,140.0
2023-12-18 15:14:33.470205,160.0
2023-12-18 15:14:33.477894,167.0
2023-12-18 15:14:33.485583,183.0
2023-12-18 15:14:33.493272,210.0
2023-12-18 15:14:33.500961,229.0
2023-12-18 15:14:33.508650,236.0
2023-12-18 15:14:33.516339,226.0
2023-12-18 15:14:33.524028,174.0
2023-12-18 15:14:33.531717,105.0
2023-12-18 15:14:33.539406,33.0
2023-12-18 15:14:33.547095,-38.0
2023-12-18 15:14:33.554784,-114.0
2023-12-18 15:14:33.562473,-171.0
2023-12-18 15:14:33.570162,-191.0
2023-12-18 15:14:33.577851,-203.0
2023-12-18 15:14:33.585540,-217.0
2023-12-18 15:14:33.593229,-214.0
2023-12-18 15:14:33.600918,-205.0
2023-12-18 15:14:33.608607,-207.0
2023-12-18 15:14:33.616296,-212.0
2023-12-18 15:14:33.623985,-207.0
2023-12-18 15:14:33.631674,-193.0
2023-12-18 15:14:33.639363,-174.0
2023-12-18 15:14:33.647052,-167.0
2023-12-18 15:14:33.654741,-174.0
2023-12-18 15:14:33.662430,-176.0
2023-12-18 15:14:33.670119,-164.0
2023-12-18 15:14:33.677808,-152.0
2023-12-18 15:14:33.685497,-145.0
2023-12-18 15:14:33.693186,-136.0
2023-12-18 15:14:33.700875,-136.0
2023-12-18 15:14:33.708564,-140.0
2023-12-18 15:14:33.716253,-133.0
2023-12-18 15:14:33.723942,-131.0
2023-12-18 15:14:33.731631,-126.0
2023-12-18 15:14:33.739320,-119.0
2023-12-18 15:14:33.747009,-119.0
2023-12-18 15:14:33.754698,-121.0
2023-12-18 15:14:33.762387,-109.0
2023-12-18 15:14:33.770076,-102.0
2023-12-18 15:14:33.777765,-102.0
2023-12-18 15:14:33.785454,-102.0
2023-12-18 15:14:33.793143,-105.0
2023-12-18 15:14:33.800832,-97.0
2023-12-18 15:14:33.808521,-85.0
2023-12-18 15:14:33.816210,-74.0
2023-12-18 15:14:33.823899,-76.0
2023-12-18 15:14:33.831588,-90.0
2023-12-18 15:14:33.839277,-105.0
2023-12-18 15:14:33.846966,-112.0
2023-12-18 15:14:33.854655,-117.0
2023-12-18 15:14:33.862344,-119.0
2023-12-18 15:14:33.870033,-112.0
2023-12-18 15:14:33.877722,-109.0
2023-12-18 15:14:33.885411,-109.0
2023-12-18 15:14:33.893100,-107.0
2023-12-18 15:14:33.900789,-105.0
2023-12-18 15:14:33.908478,-93.0
2023-12-18 15:14:33.916167,-52.0
2023-12-18 15:14:33.923856,45.0
2023-12-18 15:14:33.931545,207.0
2023-12-18 15:14:33.939234,410.0
2023-12-18 15:14:33.946923,456.0
2023-12-18 15:14:33.954612,138.0
2023-12-18 15:14:33.962301,-231.0
2023-12-18 15:14:33.969990,-195.0
2023-12-18 15:14:33.977679,-28.0
2023-12-18 15:14:33.985368,-69.0
2023-12-18 15:14:33.993057,-119.0
2023-12-18 15:14:34.000746,-76.0
2023-12-18 15:14:34.008435,-62.0
2023-12-18 15:14:34.016124,-69.0
2023-12-18 15:14:34.023813,-45.0
2023-12-18 15:14:34.031502,-28.0
2023-12-18 15:14:34.039191,-28.0
2023-12-18 15:14:34.046879,-16.0
2023-12-18 15:14:34.054568,0.0
2023-12-18 15:14:34.062257,16.0
2023-12-18 15:14:34.069946,40.0
2023-12-18 15:14:34.077635,74.0
2023-12-18 15:14:34.085324,112.0
2023-12-18 15:14:34.093013,148.0
2023-12-18 15:14:34.100702,179.0
2023-12-18 15:14:34.108391,195.0
2023-12-18 15:14:34.116080,210.0
2023-12-18 15:14:34.123769,217.0
2023-12-18 15:14:34.131458,200.0
2023-12-18 15:14:34.139147,176.0
2023-12-18 15:14:34.146836,136.0
2023-12-18 15:14:34.154525,57.0
2023-12-18 15:14:34.162214,-31.0
2023-12-18 15:14:34.169903,-97.0
2023-12-18 15:14:34.177592,-143.0
2023-12-18 15:14:34.185281,-169.0
2023-12-18 15:14:34.192970,-186.0
2023-12-18 15:14:34.200659,-203.0
2023-12-18 15:14:34.208348,-205.0
2023-12-18 15:14:34.216037,-198.0
2023-12-18 15:14:34.223726,-193.0
2023-12-18 15:14:34.231415,-186.0
2023-12-18 15:14:34.239104,-176.0
2023-12-18 15:14:34.246793,-174.0
2023-12-18 15:14:34.254482,-169.0
2023-12-18 15:14:34.262171,-157.0
2023-12-18 15:14:34.269860,-145.0
2023-12-18 15:14:34.277549,-148.0
2023-12-18 15:14:34.285238,-148.0
2023-12-18 15:14:34.292927,-138.0
2023-12-18 15:14:34.300616,-133.0
2023-12-18 15:14:34.308305,-133.0
2023-12-18 15:14:34.315994,-124.0
2023-12-18 15:14:34.323683,-114.0
2023-12-18 15:14:34.331372,-114.0
2023-12-18 15:14:34.339061,-121.0
2023-12-18 15:14:34.346750,-114.0
2023-12-18 15:14:34.354439,-107.0
2023-12-18 15:14:34.362128,-105.0
2023-12-18 15:14:34.369817,-114.0
2023-12-18 15:14:34.377506,-138.0
2023-12-18 15:14:34.385195,-150.0
2023-12-18 15:14:34.392884,-136.0
2023-12-18 15:14:34.400573,-119.0
2023-12-18 15:14:34.408262,-112.0
2023-12-18 15:14:34.415951,-105.0
2023-12-18 15:14:34.423640,-109.0
2023-12-18 15:14:34.431329,-100.0
2023-12-18 15:14:34.439018,-85.0
2023-12-18 15:14:34.446707,-97.0
2023-12-18 15:14:34.454396,-114.0
2023-12-18 15:14:34.462085,-119.0
2023-12-18 15:14:34.469774,-128.0
2023-12-18 15:14:34.477463,-143.0
2023-12-18 15:14:34.485152,-150.0
2023-12-18 15:14:34.492841,-143.0
2023-12-18 15:14:34.500530,-136.0
2023-12-18 15:14:34.508219,-138.0
2023-12-18 15:14:34.515908,-138.0
2023-12-18 15:14:34.523597,-136.0
2023-12-18 15:14:34.531286,-112.0
2023-12-18 15:14:34.538975,-21.0
2023-12-18 15:14:34.546664,167.0
2023-12-18 15:14:34.554353,415.0
2023-12-18 15:14:34.562042,551.0
2023-12-18 15:14:34.569731,303.0
2023-12-18 15:14:34.577420,-186.0
2023-12-18 15:14:34.585109,-312.0
2023-12-18 15:14:34.592798,-100.0
2023-12-18 15:14:34.600487,-69.0
2023-12-18 15:14:34.608176,-162.0
2023-12-18 15:14:34.615865,-128.0
2023-12-18 15:14:34.623553,-88.0
2023-12-18 15:14:34.631242,-109.0
2023-12-18 15:14:34.638931,-95.0
2023-12-18 15:14:34.646620,-59.0
2023-12-18 15:14:34.654309,-57.0
2023-12-18 15:14:34.661998,-45.0
2023-12-18 15:14:34.669687,-19.0
2023-12-18 15:14:34.677376,-9.0
2023-12-18 15:14:34.685065,4.0
2023-12-18 15:14:34.692754,40.0
2023-12-18 15:14:34.700443,83.0
2023-12-18 15:14:34.708132,119.0
2023-12-18 15:14:34.715821,155.0
2023-12-18 15:14:34.723510,186.0
2023-12-18 15:14:34.731199,203.0
2023-12-18 15:14:34.738888,205.0
2023-12-18 15:14:34.746577,205.0
2023-12-18 15:14:34.754266,193.0
2023-12-18 15:14:34.761955,155.0
2023-12-18 15:14:34.769644,83.0
2023-12-18 15:14:34.777333,2.0
2023-12-18 15:14:34.785022,-69.0
2023-12-18 15:14:34.792711,-131.0
2023-12-18 15:14:34.800400,-169.0
2023-12-18 15:14:34.808089,-176.0
2023-12-18 15:14:34.815778,-179.0
2023-12-18 15:14:34.823467,-191.0
2023-12-18 15:14:34.831156,-193.0
2023-12-18 15:14:34.838845,-181.0
2023-12-18 15:14:34.846534,-171.0
2023-12-18 15:14:34.854223,-169.0
2023-12-18 15:14:34.861912,-167.0
2023-12-18 15:14:34.869601,-174.0
2023-12-18 15:14:34.877290,-186.0
2023-12-18 15:14:34.884979,-176.0
2023-12-18 15:14:34.892668,-157.0
2023-12-18 15:14:34.900357,-160.0
2023-12-18 15:14:34.908046,-160.0
2023-12-18 15:14:34.915735,-148.0
2023-12-18 15:14:34.923424,-133.0
2023-12-18 15:14:34.931113,-117.0
2023-12-18 15:14:34.938802,-105.0
2023-12-18 15:14:34.946491,-114.0
2023-12-18 15:14:34.954180,-121.0
2023-12-18 15:14:34.961869,-114.0
2023-12-18 15:14:34.969558,-107.0
2023-12-18 15:14:34.977247,-109.0
2023-12-18 15:14:34.984936,-119.0
2023-12-18 15:14:34.992625,-128.0
2023-12-18 15:14:35.000314,-128.0
2023-12-18 15:14:35.008003,-117.0
2023-12-18 15:14:35.015692,-100.0
2023-12-18 15:14:35.023381,-85.0
2023-12-18 15:14:35.031070,-74.0
2023-12-18 15:14:35.038759,-62.0
2023-12-18 15:14:35.046448,-42.0
2023-12-18 15:14:35.054137,-45.0
2023-12-18 15:14:35.061826,-69.0
2023-12-18 15:14:35.069515,-74.0
2023-12-18 15:14:35.077204,-66.0
2023-12-18 15:14:35.084893,-76.0
2023-12-18 15:14:35.092582,-95.0
2023-12-18 15:14:35.100271,-93.0
2023-12-18 15:14:35.107960,-74.0
2023-12-18 15:14:35.115649,-78.0
2023-12-18 15:14:35.123338,-95.0
2023-12-18 15:14:35.131027,-90.0
2023-12-18 15:14:35.138716,-88.0
2023-12-18 15:14:35.146405,-76.0
2023-12-18 15:14:35.154094,11.0
2023-12-18 15:14:35.161783,171.0
2023-12-18 15:14:35.169472,355.0
2023-12-18 15:14:35.177161,437.0
2023-12-18 15:14:35.184850,193.0
2023-12-18 15:14:35.192538,-186.0
2023-12-18 15:14:35.200227,-212.0
2023-12-18 15:14:35.207916,-33.0
2023-12-18 15:14:35.215605,-42.0
2023-12-18 15:14:35.223294,-114.0
2023-12-18 15:14:35.230983,-100.0
2023-12-18 15:14:35.238672,-90.0
2023-12-18 15:14:35.246361,-102.0
2023-12-18 15:14:35.254050,-81.0
2023-12-18 15:14:35.261739,-45.0
2023-12-18 15:14:35.269428,-35.0
2023-12-18 15:14:35.277117,-40.0
2023-12-18 15:14:35.284806,-45.0
2023-12-18 15:14:35.292495,-21.0
2023-12-18 15:14:35.300184,31.0
2023-12-18 15:14:35.307873,64.0
2023-12-18 15:14:35.315562,78.0
2023-12-18 15:14:35.323251,112.0
2023-12-18 15:14:35.330940,152.0
2023-12-18 15:14:35.338629,183.0
2023-12-18 15:14:35.346318,205.0
2023-12-18 15:14:35.354007,219.0
2023-12-18 15:14:35.361696,219.0
2023-12-18 15:14:35.369385,193.0
2023-12-18 15:14:35.377074,145.0
2023-12-18 15:14:35.384763,83.0
2023-12-18 15:14:35.392452,7.0
2023-12-18 15:14:35.400141,-62.0
2023-12-18 15:14:35.407830,-107.0
2023-12-18 15:14:35.415519,-136.0
2023-12-18 15:14:35.423208,-157.0
2023-12-18 15:14:35.430897,-160.0
2023-12-18 15:14:35.438586,-160.0
2023-12-18 15:14:35.446275,-167.0
2023-12-18 15:14:35.453964,-181.0
2023-12-18 15:14:35.461653,-195.0
2023-12-18 15:14:35.469342,-193.0
2023-12-18 15:14:35.477031,-183.0
2023-12-18 15:14:35.484720,-181.0
2023-12-18 15:14:35.492409,-181.0
2023-12-18 15:14:35.500098,-181.0
2023-12-18 15:14:35.507787,-188.0
2023-12-18 15:14:35.515476,-183.0
2023-12-18 15:14:35.523165,-169.0
2023-12-18 15:14:35.530854,-164.0
2023-12-18 15:14:35.538543,-167.0
2023-12-18 15:14:35.546232,-162.0
2023-12-18 15:14:35.553921,-148.0
2023-12-18 15:14:35.561610,-145.0
2023-12-18 15:14:35.569299,-150.0
2023-12-18 15:14:35.576988,-140.0
2023-12-18 15:14:35.584677,-131.0
2023-12-18 15:14:35.592366,-138.0
2023-12-18 15:14:35.600055,-133.0
2023-12-18 15:14:35.607744,-114.0
2023-12-18 15:14:35.615433,-105.0
2023-12-18 15:14:35.623122,-102.0
2023-12-18 15:14:35.630811,-90.0
2023-12-18 15:14:35.638500,-76.0
2023-12-18 15:14:35.646189,-62.0
2023-12-18 15:14:35.653878,-40.0
2023-12-18 15:14:35.661567,-31.0
2023-12-18 15:14:35.669256,-40.0
2023-12-18 15:14:35.676945,-57.0
2023-12-18 15:14:35.684634,-71.0
2023-12-18 15:14:35.692323,-85.0
2023-12-18 15:14:35.700012,-95.0
2023-12-18 15:14:35.707701,-93.0
2023-12-18 15:14:35.715390,-83.0
2023-12-18 15:14:35.723079,-85.0
2023-12-18 15:14:35.730768,-100.0
2023-12-18 15:14:35.738457,-100.0
2023-12-18 15:14:35.746146,-85.0
2023-12-18 15:14:35.753835,-76.0
2023-12-18 15:14:35.761524,-35.0
2023-12-18 15:14:35.769212,66.0
2023-12-18 15:14:35.776901,224.0
2023-12-18 15:14:35.784590,370.0
2023-12-18 15:14:35.792279,305.0
2023-12-18 15:14:35.799968,-57.0
2023-12-18 15:14:35.807657,-296.0
2023-12-18 15:14:35.815346,-162.0
2023-12-18 15:14:35.823035,-47.0
2023-12-18 15:14:35.830724,-117.0
2023-12-18 15:14:35.838413,-128.0
2023-12-18 15:14:35.846102,-83.0
2023-12-18 15:14:35.853791,-88.0
2023-12-18 15:14:35.861480,-95.0
2023-12-18 15:14:35.869169,-69.0
2023-12-18 15:14:35.876858,-50.0
2023-12-18 15:14:35.884547,-35.0
2023-12-18 15:14:35.892236,-23.0
2023-12-18 15:14:35.899925,-11.0
2023-12-18 15:14:35.907614,16.0
2023-12-18 15:14:35.915303,50.0
2023-12-18 15:14:35.922992,76.0
2023-12-18 15:14:35.930681,100.0
2023-12-18 15:14:35.938370,143.0
2023-12-18 15:14:35.946059,188.0
2023-12-18 15:14:35.953748,207.0
2023-12-18 15:14:35.961437,214.0
2023-12-18 15:14:35.969126,219.0
2023-12-18 15:14:35.976815,203.0
2023-12-18 15:14:35.984504,169.0
2023-12-18 15:14:35.992193,119.0
2023-12-18 15:14:35.999882,47.0
2023-12-18 15:14:36.007571,-31.0
2023-12-18 15:14:36.015260,-107.0
2023-12-18 15:14:36.022949,-167.0
2023-12-18 15:14:36.030638,-191.0
2023-12-18 15:14:36.038327,-205.0
2023-12-18 15:14:36.046016,-236.0
2023-12-18 15:14:36.053705,-248.0
2023-12-18 15:14:36.061394,-236.0
2023-12-18 15:14:36.069083,-236.0
2023-12-18 15:14:36.076772,-234.0
2023-12-18 15:14:36.084461,-212.0
2023-12-18 15:14:36.092150,-193.0
2023-12-18 15:14:36.099839,-193.0
2023-12-18 15:14:36.107528,-193.0
2023-12-18 15:14:36.115217,-181.0
2023-12-18 15:14:36.122906,-162.0
2023-12-18 15:14:36.130595,-155.0
2023-12-18 15:14:36.138284,-162.0
2023-12-18 15:14:36.145973,-164.0
2023-12-18 15:14:36.153662,-155.0
2023-12-18 15:14:36.161351,-143.0
2023-12-18 15:14:36.169040,-136.0
2023-12-18 15:14:36.176729,-131.0
2023-12-18 15:14:36.184418,-131.0
2023-12-18 15:14:36.192107,-138.0
2023-12-18 15:14:36.199796,-136.0
2023-12-18 15:14:36.207485,-117.0
2023-12-18 15:14:36.215174,-100.0
2023-12-18 15:14:36.222863,-102.0
2023-12-18 15:14:36.230552,-95.0
2023-12-18 15:14:36.238241,-81.0
2023-12-18 15:14:36.245930,-78.0
2023-12-18 15:14:36.253619,-59.0
2023-12-18 15:14:36.261308,-31.0
2023-12-18 15:14:36.268997,-57.0
2023-12-18 15:14:36.276686,-102.0
2023-12-18 15:14:36.284375,-102.0
2023-12-18 15:14:36.292064,-100.0
2023-12-18 15:14:36.299753,-121.0
2023-12-18 15:14:36.307442,-131.0
2023-12-18 15:14:36.315131,-121.0
2023-12-18 15:14:36.322820,-107.0
2023-12-18 15:14:36.330509,-105.0
2023-12-18 15:14:36.338197,-112.0
2023-12-18 15:14:36.345886,-109.0
2023-12-18 15:14:36.353575,-105.0
2023-12-18 15:14:36.361264,-74.0
2023-12-18 15:14:36.368953,54.0
2023-12-18 15:14:36.376642,277.0
2023-12-18 15:14:36.384331,460.0
2023-12-18 15:14:36.392020,351.0
2023-12-18 15:14:36.399709,-88.0
2023-12-18 15:14:36.407398,-358.0
2023-12-18 15:14:36.415087,-191.0
2023-12-18 15:14:36.422776,-52.0
2023-12-18 15:14:36.430465,-126.0
2023-12-18 15:14:36.438154,-150.0
2023-12-18 15:14:36.445843,-105.0
2023-12-18 15:14:36.453532,-105.0
2023-12-18 15:14:36.461221,-105.0
2023-12-18 15:14:36.468910,-76.0
2023-12-18 15:14:36.476599,-69.0
2023-12-18 15:14:36.484288,-69.0
2023-12-18 15:14:36.491977,-54.0
2023-12-18 15:14:36.499666,-45.0
2023-12-18 15:14:36.507355,-35.0
2023-12-18 15:14:36.515044,-21.0
2023-12-18 15:14:36.522733,33.0
2023-12-18 15:14:36.530422,95.0
2023-12-18 15:14:36.538111,112.0
2023-12-18 15:14:36.545800,126.0
2023-12-18 15:14:36.553489,167.0
2023-12-18 15:14:36.561178,181.0
2023-12-18 15:14:36.568867,174.0
2023-12-18 15:14:36.576556,174.0
2023-12-18 15:14:36.584245,148.0
2023-12-18 15:14:36.591934,83.0
2023-12-18 15:14:36.599623,23.0
2023-12-18 15:14:36.607312,-35.0
2023-12-18 15:14:36.615001,-114.0
2023-12-18 15:14:36.622690,-186.0
2023-12-18 15:14:36.630379,-217.0
2023-12-18 15:14:36.638068,-219.0
2023-12-18 15:14:36.645757,-222.0
2023-12-18 15:14:36.653446,-222.0
2023-12-18 15:14:36.661135,-222.0
2023-12-18 15:14:36.668824,-234.0
2023-12-18 15:14:36.676513,-226.0
2023-12-18 15:14:36.684202,-198.0
2023-12-18 15:14:36.691891,-188.0
2023-12-18 15:14:36.699580,-188.0
2023-12-18 15:14:36.707269,-164.0
2023-12-18 15:14:36.714958,-160.0
2023-12-18 15:14:36.722647,-174.0
2023-12-18 15:14:36.730336,-167.0
2023-12-18 15:14:36.738025,-150.0
2023-12-18 15:14:36.745714,-150.0
2023-12-18 15:14:36.753403,-148.0
2023-12-18 15:14:36.761092,-145.0
2023-12-18 15:14:36.768781,-150.0
2023-12-18 15:14:36.776470,-143.0
2023-12-18 15:14:36.784159,-133.0
2023-12-18 15:14:36.791848,-140.0
2023-12-18 15:14:36.799537,-143.0
2023-12-18 15:14:36.807226,-124.0
2023-12-18 15:14:36.814915,-109.0
2023-12-18 15:14:36.822604,-100.0
2023-12-18 15:14:36.830293,-81.0
2023-12-18 15:14:36.837982,-54.0
2023-12-18 15:14:36.845671,-50.0
2023-12-18 15:14:36.853360,-66.0
2023-12-18 15:14:36.861049,-74.0
2023-12-18 15:14:36.868738,-76.0
2023-12-18 15:14:36.876427,-90.0
2023-12-18 15:14:36.884116,-102.0
2023-12-18 15:14:36.891805,-117.0
2023-12-18 15:14:36.899494,-128.0
2023-12-18 15:14:36.907183,-114.0
2023-12-18 15:14:36.914871,-105.0
2023-12-18 15:14:36.922560,-114.0
2023-12-18 15:14:36.930249,-109.0
2023-12-18 15:14:36.937938,-93.0
2023-12-18 15:14:36.945627,-74.0
2023-12-18 15:14:36.953316,11.0
2023-12-18 15:14:36.961005,231.0
2023-12-18 15:14:36.968694,494.0
2023-12-18 15:14:36.976383,508.0
2023-12-18 15:14:36.984072,100.0
2023-12-18 15:14:36.991761,-322.0
2023-12-18 15:14:36.999450,-296.0
2023-12-18 15:14:37.007139,-114.0
2023-12-18 15:14:37.014828,-140.0
2023-12-18 15:14:37.022517,-200.0
2023-12-18 15:14:37.030206,-164.0
2023-12-18 15:14:37.037895,-133.0
2023-12-18 15:14:37.045584,-140.0
2023-12-18 15:14:37.053273,-128.0
2023-12-18 15:14:37.060962,-95.0
2023-12-18 15:14:37.068651,-71.0
2023-12-18 15:14:37.076340,-69.0
2023-12-18 15:14:37.084029,-54.0
2023-12-18 15:14:37.091718,-19.0
2023-12-18 15:14:37.099407,16.0
2023-12-18 15:14:37.107096,45.0
2023-12-18 15:14:37.114785,69.0
2023-12-18 15:14:37.122474,78.0
2023-12-18 15:14:37.130163,100.0
2023-12-18 15:14:37.137852,145.0
2023-12-18 15:14:37.145541,169.0
2023-12-18 15:14:37.153230,169.0
2023-12-18 15:14:37.160919,174.0
2023-12-18 15:14:37.168608,148.0
2023-12-18 15:14:37.176297,93.0
2023-12-18 15:14:37.183986,31.0
2023-12-18 15:14:37.191675,-40.0
2023-12-18 15:14:37.199364,-105.0
2023-12-18 15:14:37.207053,-152.0
2023-12-18 15:14:37.214742,-193.0
2023-12-18 15:14:37.222431,-205.0
2023-12-18 15:14:37.230120,-188.0
2023-12-18 15:14:37.237809,-191.0
2023-12-18 15:14:37.245498,-205.0
2023-12-18 15:14:37.253187,-207.0
2023-12-18 15:14:37.260876,-205.0
2023-12-18 15:14:37.268565,-195.0
2023-12-18 15:14:37.276254,-183.0
2023-12-18 15:14:37.283943,-181.0
2023-12-18 15:14:37.291632,-176.0
2023-12-18 15:14:37.299321,-157.0
2023-12-18 15:14:37.307010,-150.0
2023-12-18 15:14:37.314699,-157.0
2023-12-18 15:14:37.322388,-152.0
2023-12-18 15:14:37.330077,-133.0
2023-12-18 15:14:37.337766,-124.0
2023-12-18 15:14:37.345455,-133.0
2023-12-18 15:14:37.353144,-133.0
2023-12-18 15:14:37.360833,-121.0
2023-12-18 15:14:37.368522,-114.0
2023-12-18 15:14:37.376211,-112.0
2023-12-18 15:14:37.383900,-102.0
2023-12-18 15:14:37.391589,-93.0
2023-12-18 15:14:37.399278,-83.0
2023-12-18 15:14:37.406967,-62.0
2023-12-18 15:14:37.414656,-35.0
2023-12-18 15:14:37.422345,-31.0
2023-12-18 15:14:37.430034,-38.0
2023-12-18 15:14:37.437723,-62.0
2023-12-18 15:14:37.445412,-83.0
2023-12-18 15:14:37.453101,-76.0
2023-12-18 15:14:37.460790,-74.0
2023-12-18 15:14:37.468479,-83.0
2023-12-18 15:14:37.476168,-78.0
2023-12-18 15:14:37.483857,-81.0
2023-12-18 15:14:37.491545,-93.0
2023-12-18 15:14:37.499234,-107.0
2023-12-18 15:14:37.506923,-143.0
2023-12-18 15:14:37.514612,-155.0
2023-12-18 15:14:37.522301,-117.0
2023-12-18 15:14:37.529990,-50.0
2023-12-18 15:14:37.537679,76.0
2023-12-18 15:14:37.545368,269.0
2023-12-18 15:14:37.553057,391.0
2023-12-18 15:14:37.560746,207.0
2023-12-18 15:14:37.568435,-193.0
2023-12-18 15:14:37.576124,-317.0
2023-12-18 15:14:37.583813,-145.0
2023-12-18 15:14:37.591502,-109.0
2023-12-18 15:14:37.599191,-181.0
2023-12-18 15:14:37.606880,-155.0
2023-12-18 15:14:37.614569,-138.0
2023-12-18 15:14:37.622258,-174.0
2023-12-18 15:14:37.629947,-145.0
2023-12-18 15:14:37.637636,-90.0
2023-12-18 15:14:37.645325,-95.0
2023-12-18 15:14:37.653014,-102.0
2023-12-18 15:14:37.660703,-66.0
2023-12-18 15:14:37.668392,-35.0
2023-12-18 15:14:37.676081,-16.0
2023-12-18 15:14:37.683770,11.0
2023-12-18 15:14:37.691459,45.0
2023-12-18 15:14:37.699148,74.0
2023-12-18 15:14:37.706837,95.0
2023-12-18 15:14:37.714526,112.0
2023-12-18 15:14:37.722215,136.0
2023-12-18 15:14:37.729904,162.0
2023-12-18 15:14:37.737593,160.0
2023-12-18 15:14:37.745282,121.0
2023-12-18 15:14:37.752971,81.0
2023-12-18 15:14:37.760660,40.0
2023-12-18 15:14:37.768349,-33.0
2023-12-18 15:14:37.776038,-128.0
2023-12-18 15:14:37.783727,-176.0
2023-12-18 15:14:37.791416,-179.0
2023-12-18 15:14:37.799105,-193.0
2023-12-18 15:14:37.806794,-212.0
2023-12-18 15:14:37.814483,-212.0
2023-12-18 15:14:37.822172,-207.0
2023-12-18 15:14:37.829861,-205.0
2023-12-18 15:14:37.837550,-195.0
2023-12-18 15:14:37.845239,-186.0
2023-12-18 15:14:37.852928,-176.0
2023-12-18 15:14:37.860617,-171.0
2023-12-18 15:14:37.868306,-171.0
2023-12-18 15:14:37.875995,-160.0
2023-12-18 15:14:37.883684,-145.0
2023-12-18 15:14:37.891373,-138.0
2023-12-18 15:14:37.899062,-136.0
2023-12-18 15:14:37.906751,-136.0
2023-12-18 15:14:37.914440,-126.0
2023-12-18 15:14:37.922129,-117.0
2023-12-18 15:14:37.929818,-112.0
2023-12-18 15:14:37.937507,-112.0
2023-12-18 15:14:37.945196,-114.0
2023-12-18 15:14:37.952885,-100.0
2023-12-18 15:14:37.960574,-76.0
2023-12-18 15:14:37.968263,-64.0
2023-12-18 15:14:37.975952,-64.0
2023-12-18 15:14:37.983641,-59.0
2023-12-18 15:14:37.991330,-50.0
2023-12-18 15:14:37.999019,-47.0
2023-12-18 15:14:38.006708,-64.0
2023-12-18 15:14:38.014397,-97.0
2023-12-18 15:14:38.022086,-121.0
2023-12-18 15:14:38.029775,-119.0
2023-12-18 15:14:38.037464,-109.0
2023-12-18 15:14:38.045153,-109.0
2023-12-18 15:14:38.052842,-114.0
2023-12-18 15:14:38.060530,-109.0
2023-12-18 15:14:38.068219,-102.0
2023-12-18 15:14:38.075908,-93.0
2023-12-18 15:14:38.083597,-95.0
2023-12-18 15:14:38.091286,-95.0
2023-12-18 15:14:38.098975,-54.0
2023-12-18 15:14:38.106664,66.0
2023-12-18 15:14:38.114353,272.0
2023-12-18 15:14:38.122042,446.0
2023-12-18 15:14:38.129731,341.0
2023-12-18 15:14:38.137420,-57.0
2023-12-18 15:14:38.145109,-281.0
2023-12-18 15:14:38.152798,-133.0
2023-12-18 15:14:38.160487,-31.0
2023-12-18 15:14:38.168176,-97.0
2023-12-18 15:14:38.175865,-105.0
2023-12-18 15:14:38.183554,-64.0
2023-12-18 15:14:38.191243,-69.0
2023-12-18 15:14:38.198932,-88.0
2023-12-18 15:14:38.206621,-83.0
2023-12-18 15:14:38.214310,-64.0
2023-12-18 15:14:38.221999,-42.0
2023-12-18 15:14:38.229688,-31.0
2023-12-18 15:14:38.237377,-33.0
2023-12-18 15:14:38.245066,-33.0
2023-12-18 15:14:38.252755,-23.0
2023-12-18 15:14:38.260444,9.0
2023-12-18 15:14:38.268133,50.0
2023-12-18 15:14:38.275822,81.0
2023-12-18 15:14:38.283511,117.0
2023-12-18 15:14:38.291200,155.0
2023-12-18 15:14:38.298889,164.0
2023-12-18 15:14:38.306578,162.0
2023-12-18 15:14:38.314267,164.0
2023-12-18 15:14:38.321956,140.0
2023-12-18 15:14:38.329645,71.0
2023-12-18 15:14:38.337334,-4.0
2023-12-18 15:14:38.345023,-59.0
2023-12-18 15:14:38.352712,-112.0
2023-12-18 15:14:38.360401,-160.0
2023-12-18 15:14:38.368090,-183.0
2023-12-18 15:14:38.375779,-198.0
2023-12-18 15:14:38.383468,-214.0
2023-12-18 15:14:38.391157,-205.0
2023-12-18 15:14:38.398846,-183.0
2023-12-18 15:14:38.406535,-186.0
2023-12-18 15:14:38.414224,-188.0
2023-12-18 15:14:38.421913,-174.0
2023-12-18 15:14:38.429602,-169.0
2023-12-18 15:14:38.437291,-160.0
2023-12-18 15:14:38.444980,-138.0
2023-12-18 15:14:38.452669,-136.0
2023-12-18 15:14:38.460358,-143.0
2023-12-18 15:14:38.468047,-138.0
2023-12-18 15:14:38.475736,-133.0
2023-12-18 15:14:38.483425,-140.0
2023-12-18 15:14:38.491114,-133.0
2023-12-18 15:14:38.498803,-117.0
2023-12-18 15:14:38.506492,-121.0
2023-12-18 15:14:38.514181,-128.0
2023-12-18 15:14:38.521870,-131.0
2023-12-18 15:14:38.529559,-112.0
2023-12-18 15:14:38.537248,-81.0
2023-12-18 15:14:38.544937,-74.0
2023-12-18 15:14:38.552626,-81.0
2023-12-18 15:14:38.560315,-69.0
2023-12-18 15:14:38.568004,-57.0
2023-12-18 15:14:38.575693,-78.0
2023-12-18 15:14:38.583382,-95.0
2023-12-18 15:14:38.591071,-90.0
2023-12-18 15:14:38.598760,-95.0
2023-12-18 15:14:38.606449,-107.0
2023-12-18 15:14:38.614138,-102.0
2023-12-18 15:14:38.621827,-85.0
2023-12-18 15:14:38.629516,-78.0
2023-12-18 15:14:38.637204,-83.0
2023-12-18 15:14:38.644893,-88.0
2023-12-18 15:14:38.652582,-93.0
2023-12-18 15:14:38.660271,-76.0
2023-12-18 15:14:38.667960,38.0
2023-12-18 15:14:38.675649,279.0
2023-12-18 15:14:38.683338,530.0
2023-12-18 15:14:38.691027,558.0
2023-12-18 15:14:38.698716,203.0
2023-12-18 15:14:38.706405,-203.0
2023-12-18 15:14:38.714094,-198.0
2023-12-18 15:14:38.721783,-33.0
2023-12-18 15:14:38.729472,-69.0
2023-12-18 15:14:38.737161,-140.0
2023-12-18 15:14:38.744850,-105.0
2023-12-18 15:14:38.752539,-81.0
2023-12-18 15:14:38.760228,-95.0
2023-12-18 15:14:38.767917,-74.0
2023-12-18 15:14:38.775606,-42.0
2023-12-18 15:14:38.783295,-33.0
2023-12-18 15:14:38.790984,-21.0
2023-12-18 15:14:38.798673,2.0
2023-12-18 15:14:38.806362,19.0
2023-12-18 15:14:38.814051,35.0
2023-12-18 15:14:38.821740,52.0
2023-12-18 15:14:38.829429,59.0
2023-12-18 15:14:38.837118,76.0
2023-12-18 15:14:38.844807,114.0
2023-12-18 15:14:38.852496,145.0
2023-12-18 15:14:38.860185,162.0
2023-12-18 15:14:38.867874,167.0
2023-12-18 15:14:38.875563,152.0
2023-12-18 15:14:38.883252,126.0
2023-12-18 15:14:38.890941,85.0
2023-12-18 15:14:38.898630,21.0
2023-12-18 15:14:38.906319,-50.0
2023-12-18 15:14:38.914008,-112.0
2023-12-18 15:14:38.921697,-162.0
2023-12-18 15:14:38.929386,-193.0
2023-12-18 15:14:38.937075,-200.0
2023-12-18 15:14:38.944764,-207.0
2023-12-18 15:14:38.952453,-212.0
2023-12-18 15:14:38.960142,-210.0
2023-12-18 15:14:38.967831,-210.0
2023-12-18 15:14:38.975520,-210.0
2023-12-18 15:14:38.983209,-198.0
2023-12-18 15:14:38.990898,-183.0
2023-12-18 15:14:38.998587,-171.0
2023-12-18 15:14:39.006276,-160.0
2023-12-18 15:14:39.013965,-157.0
2023-12-18 15:14:39.021654,-169.0
2023-12-18 15:14:39.029343,-179.0
2023-12-18 15:14:39.037032,-169.0
2023-12-18 15:14:39.044721,-160.0
2023-12-18 15:14:39.052410,-160.0
2023-12-18 15:14:39.060099,-162.0
2023-12-18 15:14:39.067788,-155.0
2023-12-18 15:14:39.075477,-140.0
2023-12-18 15:14:39.083166,-126.0
2023-12-18 15:14:39.090855,-107.0
2023-12-18 15:14:39.098544,-95.0
2023-12-18 15:14:39.106233,-93.0
2023-12-18 15:14:39.113922,-83.0
2023-12-18 15:14:39.121611,-64.0
2023-12-18 15:14:39.129300,-54.0
2023-12-18 15:14:39.136989,-76.0
2023-12-18 15:14:39.144678,-100.0
2023-12-18 15:14:39.152367,-100.0
2023-12-18 15:14:39.160056,-95.0
2023-12-18 15:14:39.167745,-105.0
2023-12-18 15:14:39.175434,-107.0
2023-12-18 15:14:39.183123,-100.0
2023-12-18 15:14:39.190812,-95.0
2023-12-18 15:14:39.198501,-90.0
2023-12-18 15:14:39.206189,-81.0
2023-12-18 15:14:39.213878,-85.0
2023-12-18 15:14:39.221567,-74.0
2023-12-18 15:14:39.229256,16.0
2023-12-18 15:14:39.236945,203.0
2023-12-18 15:14:39.244634,415.0
2023-12-18 15:14:39.252323,492.0
2023-12-18 15:14:39.260012,222.0
2023-12-18 15:14:39.267701,-171.0
2023-12-18 15:14:39.275390,-210.0
2023-12-18 15:14:39.283079,-33.0
2023-12-18 15:14:39.290768,-33.0
2023-12-18 15:14:39.298457,-97.0
2023-12-18 15:14:39.306146,-64.0
2023-12-18 15:14:39.313835,-40.0
2023-12-18 15:14:39.321524,-54.0
2023-12-18 15:14:39.329213,-47.0
2023-12-18 15:14:39.336902,-31.0
2023-12-18 15:14:39.344591,-23.0
2023-12-18 15:14:39.352280,-7.0
2023-12-18 15:14:39.359969,11.0
2023-12-18 15:14:39.367658,31.0
2023-12-18 15:14:39.375347,54.0
2023-12-18 15:14:39.383036,83.0
2023-12-18 15:14:39.390725,121.0
2023-12-18 15:14:39.398414,162.0
2023-12-18 15:14:39.406103,193.0
2023-12-18 15:14:39.413792,200.0
2023-12-18 15:14:39.421481,188.0
2023-12-18 15:14:39.429170,188.0
2023-12-18 15:14:39.436859,176.0
2023-12-18 15:14:39.444548,138.0
2023-12-18 15:14:39.452237,100.0
2023-12-18 15:14:39.459926,40.0
2023-12-18 15:14:39.467615,-54.0
2023-12-18 15:14:39.475304,-133.0
2023-12-18 15:14:39.482993,-169.0
2023-12-18 15:14:39.490682,-193.0
2023-12-18 15:14:39.498371,-219.0
2023-12-18 15:14:39.506060,-229.0
2023-12-18 15:14:39.513749,-222.0
2023-12-18 15:14:39.521438,-219.0
2023-12-18 15:14:39.529127,-234.0
2023-12-18 15:14:39.536816,-241.0
2023-12-18 15:14:39.544505,-229.0
2023-12-18 15:14:39.552194,-214.0
2023-12-18 15:14:39.559883,-217.0
2023-12-18 15:14:39.567572,-212.0
2023-12-18 15:14:39.575261,-195.0
2023-12-18 15:14:39.582950,-183.0
2023-12-18 15:14:39.590639,-183.0
2023-12-18 15:14:39.598328,-176.0
2023-12-18 15:14:39.606017,-157.0
2023-12-18 15:14:39.613706,-143.0
2023-12-18 15:14:39.621395,-136.0
2023-12-18 15:14:39.629084,-133.0
2023-12-18 15:14:39.636773,-133.0
2023-12-18 15:14:39.644462,-117.0
2023-12-18 15:14:39.652151,-97.0
2023-12-18 15:14:39.659840,-88.0
2023-12-18 15:14:39.667529,-76.0
2023-12-18 15:14:39.675218,-64.0
2023-12-18 15:14:39.682907,-62.0
2023-12-18 15:14:39.690596,-66.0
2023-12-18 15:14:39.698285,-83.0
2023-12-18 15:14:39.705974,-100.0
2023-12-18 15:14:39.713663,-117.0
2023-12-18 15:14:39.721352,-128.0
2023-12-18 15:14:39.729041,-124.0
2023-12-18 15:14:39.736730,-117.0
2023-12-18 15:14:39.744419,-109.0
2023-12-18 15:14:39.752108,-114.0
2023-12-18 15:14:39.759797,-114.0
2023-12-18 15:14:39.767486,-100.0
2023-12-18 15:14:39.775175,-93.0
2023-12-18 15:14:39.782863,-66.0
2023-12-18 15:14:39.790552,35.0
2023-12-18 15:14:39.798241,217.0
2023-12-18 15:14:39.805930,396.0
2023-12-18 15:14:39.813619,370.0
2023-12-18 15:14:39.821308,19.0
2023-12-18 15:14:39.828997,-257.0
2023-12-18 15:14:39.836686,-150.0
2023-12-18 15:14:39.844375,-14.0
2023-12-18 15:14:39.852064,-59.0
2023-12-18 15:14:39.859753,-83.0
2023-12-18 15:14:39.867442,-47.0
2023-12-18 15:14:39.875131,-45.0
2023-12-18 15:14:39.882820,-45.0
2023-12-18 15:14:39.890509,-23.0
2023-12-18 15:14:39.898198,-9.0
2023-12-18 15:14:39.905887,0.0
2023-12-18 15:14:39.913576,19.0
2023-12-18 15:14:39.921265,42.0
2023-12-18 15:14:39.928954,64.0
2023-12-18 15:14:39.936643,88.0
2023-12-18 15:14:39.944332,119.0
2023-12-18 15:14:39.952021,155.0
2023-12-18 15:14:39.959710,186.0
2023-12-18 15:14:39.967399,210.0
2023-12-18 15:14:39.975088,231.0
2023-12-18 15:14:39.982777,246.0
2023-12-18 15:14:39.990466,246.0
2023-12-18 15:14:39.998155,219.0
2023-12-18 15:14:40.005844,167.0
2023-12-18 15:14:40.013533,107.0
2023-12-18 15:14:40.021222,33.0
2023-12-18 15:14:40.028911,-64.0
2023-12-18 15:14:40.036600,-143.0
2023-12-18 15:14:40.044289,-188.0
2023-12-18 15:14:40.051978,-217.0
2023-12-18 15:14:40.059667,-243.0
2023-12-18 15:14:40.067356,-255.0
2023-12-18 15:14:40.075045,-248.0
2023-12-18 15:14:40.082734,-238.0
2023-12-18 15:14:40.090423,-238.0
2023-12-18 15:14:40.098112,-236.0
2023-12-18 15:14:40.105801,-231.0
2023-12-18 15:14:40.113490,-224.0
2023-12-18 15:14:40.121179,-219.0
2023-12-18 15:14:40.128868,-210.0
2023-12-18 15:14:40.136557,-195.0
2023-12-18 15:14:40.144246,-188.0
2023-12-18 15:14:40.151935,-183.0
2023-12-18 15:14:40.159624,-174.0
2023-12-18 15:14:40.167313,-167.0
2023-12-18 15:14:40.175002,-169.0
2023-12-18 15:14:40.182691,-167.0
2023-12-18 15:14:40.190380,-155.0
2023-12-18 15:14:40.198069,-138.0
2023-12-18 15:14:40.205758,-131.0
2023-12-18 15:14:40.213447,-126.0
2023-12-18 15:14:40.221136,-114.0
2023-12-18 15:14:40.228825,-102.0
2023-12-18 15:14:40.236514,-93.0
2023-12-18 15:14:40.244203,-95.0
2023-12-18 15:14:40.251892,-114.0
2023-12-18 15:14:40.259581,-128.0
2023-12-18 15:14:40.267270,-133.0
2023-12-18 15:14:40.274959,-145.0
2023-12-18 15:14:40.282648,-152.0
2023-12-18 15:14:40.290337,-138.0
2023-12-18 15:14:40.298026,-128.0
2023-12-18 15:14:40.305715,-126.0
2023-12-18 15:14:40.313404,-121.0
2023-12-18 15:14:40.321093,-121.0
2023-12-18 15:14:40.328782,-128.0
2023-12-18 15:14:40.336471,-95.0
2023-12-18 15:14:40.344160,28.0
2023-12-18 15:14:40.351848,253.0
2023-12-18 15:14:40.359537,468.0
2023-12-18 15:14:40.367226,415.0
2023-12-18 15:14:40.374915,16.0
2023-12-18 15:14:40.382604,-277.0
2023-12-18 15:14:40.390293,-164.0
2023-12-18 15:14:40.397982,-45.0
2023-12-18 15:14:40.405671,-114.0
2023-12-18 15:14:40.413360,-121.0
2023-12-18 15:14:40.421049,-62.0
2023-12-18 15:14:40.428738,-62.0
2023-12-18 15:14:40.436427,-71.0
2023-12-18 15:14:40.444116,-52.0
2023-12-18 15:14:40.451805,-45.0
2023-12-18 15:14:40.459494,-47.0
2023-12-18 15:14:40.467183,-26.0
2023-12-18 15:14:40.474872,2.0
2023-12-18 15:14:40.482561,26.0
2023-12-18 15:14:40.490250,47.0
2023-12-18 15:14:40.497939,59.0
2023-12-18 15:14:40.505628,88.0
2023-12-18 15:14:40.513317,126.0
2023-12-18 15:14:40.521006,160.0
2023-12-18 15:14:40.528695,176.0
2023-12-18 15:14:40.536384,181.0
2023-12-18 15:14:40.544073,164.0
2023-12-18 15:14:40.551762,143.0
2023-12-18 15:14:40.559451,119.0
2023-12-18 15:14:40.567140,71.0
2023-12-18 15:14:40.574829,-7.0
2023-12-18 15:14:40.582518,-105.0
2023-12-18 15:14:40.590207,-183.0
2023-12-18 15:14:40.597896,-214.0
2023-12-18 15:14:40.605585,-224.0
2023-12-18 15:14:40.613274,-236.0
2023-12-18 15:14:40.620963,-253.0
2023-12-18 15:14:40.628652,-286.0
2023-12-18 15:14:40.636341,-310.0
2023-12-18 15:14:40.644030,-303.0
2023-12-18 15:14:40.651719,-291.0
2023-12-18 15:14:40.659408,-286.0
2023-12-18 15:14:40.667097,-281.0
2023-12-18 15:14:40.674786,-269.0
2023-12-18 15:14:40.682475,-253.0
2023-12-18 15:14:40.690164,-250.0
2023-12-18 15:14:40.697853,-255.0
2023-12-18 15:14:40.705542,-253.0
2023-12-18 15:14:40.713231,-248.0
2023-12-18 15:14:40.720920,-248.0
2023-12-18 15:14:40.728609,-238.0
2023-12-18 15:14:40.736298,-224.0
2023-12-18 15:14:40.743987,-207.0
2023-12-18 15:14:40.751676,-186.0
2023-12-18 15:14:40.759365,-171.0
2023-12-18 15:14:40.767054,-169.0
2023-12-18 15:14:40.774743,-155.0
2023-12-18 15:14:40.782432,-128.0
2023-12-18 15:14:40.790121,-114.0
2023-12-18 15:14:40.797810,-128.0
2023-12-18 15:14:40.805499,-148.0
2023-12-18 15:14:40.813188,-160.0
2023-12-18 15:14:40.820877,-164.0
2023-12-18 15:14:40.828566,-164.0
2023-12-18 15:14:40.836255,-162.0
2023-12-18 15:14:40.843944,-157.0
2023-12-18 15:14:40.851633,-157.0
2023-12-18 15:14:40.859322,-148.0
2023-12-18 15:14:40.867011,-136.0
2023-12-18 15:14:40.874700,-140.0
2023-12-18 15:14:40.882389,-140.0
2023-12-18 15:14:40.890078,-66.0
2023-12-18 15:14:40.897767,119.0
2023-12-18 15:14:40.905456,391.0
2023-12-18 15:14:40.913145,575.0
2023-12-18 15:14:40.920834,386.0
2023-12-18 15:14:40.928522,-107.0
2023-12-18 15:14:40.936211,-312.0
2023-12-18 15:14:40.943900,-121.0
2023-12-18 15:14:40.951589,-54.0
2023-12-18 15:14:40.959278,-148.0
2023-12-18 15:14:40.966967,-133.0
2023-12-18 15:14:40.974656,-90.0
2023-12-18 15:14:40.982345,-100.0
2023-12-18 15:14:40.990034,-85.0
2023-12-18 15:14:40.997723,-59.0
2023-12-18 15:14:41.005412,-57.0
2023-12-18 15:14:41.013101,-42.0
2023-12-18 15:14:41.020790,-9.0
2023-12-18 15:14:41.028479,16.0
2023-12-18 15:14:41.036168,35.0
2023-12-18 15:14:41.043857,52.0
2023-12-18 15:14:41.051546,71.0
2023-12-18 15:14:41.059235,112.0
2023-12-18 15:14:41.066924,155.0
2023-12-18 15:14:41.074613,174.0
2023-12-18 15:14:41.082302,164.0
2023-12-18 15:14:41.089991,155.0
2023-12-18 15:14:41.097680,167.0
2023-12-18 15:14:41.105369,157.0
2023-12-18 15:14:41.113058,105.0
2023-12-18 15:14:41.120747,38.0
2023-12-18 15:14:41.128436,-38.0
2023-12-18 15:14:41.136125,-107.0
2023-12-18 15:14:41.143814,-148.0
2023-12-18 15:14:41.151503,-179.0
2023-12-18 15:14:41.159192,-205.0
2023-12-18 15:14:41.166881,-210.0
2023-12-18 15:14:41.174570,-212.0
2023-12-18 15:14:41.182259,-219.0
2023-12-18 15:14:41.189948,-219.0
2023-12-18 15:14:41.197637,-210.0
2023-12-18 15:14:41.205326,-210.0
2023-12-18 15:14:41.213015,-207.0
2023-12-18 15:14:41.220704,-205.0
2023-12-18 15:14:41.228393,-207.0
2023-12-18 15:14:41.236082,-207.0
2023-12-18 15:14:41.243771,-195.0
2023-12-18 15:14:41.251460,-188.0
2023-12-18 15:14:41.259149,-188.0
2023-12-18 15:14:41.266838,-183.0
2023-12-18 15:14:41.274527,-179.0
2023-12-18 15:14:41.282216,-176.0
2023-12-18 15:14:41.289905,-171.0
2023-12-18 15:14:41.297594,-164.0
2023-12-18 15:14:41.305283,-152.0
2023-12-18 15:14:41.312972,-131.0
2023-12-18 15:14:41.320661,-117.0
2023-12-18 15:14:41.328350,-112.0
2023-12-18 15:14:41.336039,-102.0
2023-12-18 15:14:41.343728,-95.0
2023-12-18 15:14:41.351417,-112.0
2023-12-18 15:14:41.359106,-136.0
2023-12-18 15:14:41.366795,-138.0
2023-12-18 15:14:41.374484,-133.0
2023-12-18 15:14:41.382173,-131.0
2023-12-18 15:14:41.389862,-131.0
2023-12-18 15:14:41.397551,-133.0
2023-12-18 15:14:41.405240,-133.0
2023-12-18 15:14:41.412929,-128.0
2023-12-18 15:14:41.420618,-124.0
2023-12-18 15:14:41.428307,-131.0
2023-12-18 15:14:41.435996,-124.0
2023-12-18 15:14:41.443685,-52.0
2023-12-18 15:14:41.451374,112.0
2023-12-18 15:14:41.459063,332.0
2023-12-18 15:14:41.466752,487.0
2023-12-18 15:14:41.474441,336.0
2023-12-18 15:14:41.482130,-93.0
2023-12-18 15:14:41.489819,-274.0
2023-12-18 15:14:41.497508,-102.0
2023-12-18 15:14:41.505196,-42.0
2023-12-18 15:14:41.512885,-124.0
2023-12-18 15:14:41.520574,-112.0
2023-12-18 15:14:41.528263,-71.0
2023-12-18 15:14:41.535952,-83.0
2023-12-18 15:14:41.543641,-83.0
2023-12-18 15:14:41.551330,-64.0
2023-12-18 15:14:41.559019,-62.0
2023-12-18 15:14:41.566708,-47.0
2023-12-18 15:14:41.574397,-21.0
2023-12-18 15:14:41.582086,2.0
2023-12-18 15:14:41.589775,26.0
2023-12-18 15:14:41.597464,57.0
2023-12-18 15:14:41.605153,90.0
2023-12-18 15:14:41.612842,121.0
2023-12-18 15:14:41.620531,140.0
2023-12-18 15:14:41.628220,157.0
2023-12-18 15:14:41.635909,181.0
2023-12-18 15:14:41.643598,198.0
2023-12-18 15:14:41.651287,198.0
2023-12-18 15:14:41.658976,179.0
2023-12-18 15:14:41.666665,136.0
2023-12-18 15:14:41.674354,66.0
2023-12-18 15:14:41.682043,-11.0
2023-12-18 15:14:41.689732,-81.0
2023-12-18 15:14:41.697421,-133.0
2023-12-18 15:14:41.705110,-171.0
2023-12-18 15:14:41.712799,-195.0
2023-12-18 15:14:41.720488,-200.0
2023-12-18 15:14:41.728177,-198.0
2023-12-18 15:14:41.735866,-200.0
2023-12-18 15:14:41.743555,-195.0
2023-12-18 15:14:41.751244,-188.0
2023-12-18 15:14:41.758933,-193.0
2023-12-18 15:14:41.766622,-203.0
2023-12-18 15:14:41.774311,-205.0
2023-12-18 15:14:41.782000,-193.0
2023-12-18 15:14:41.789689,-183.0
2023-12-18 15:14:41.797378,-191.0
2023-12-18 15:14:41.805067,-195.0
2023-12-18 15:14:41.812756,-193.0
2023-12-18 15:14:41.820445,-186.0
2023-12-18 15:14:41.828134,-179.0
2023-12-18 15:14:41.835823,-179.0
2023-12-18 15:14:41.843512,-176.0
2023-12-18 15:14:41.851201,-167.0
2023-12-18 15:14:41.858890,-150.0
2023-12-18 15:14:41.866579,-136.0
2023-12-18 15:14:41.874268,-126.0
2023-12-18 15:14:41.881957,-119.0
2023-12-18 15:14:41.889646,-117.0
2023-12-18 15:14:41.897335,-105.0
2023-12-18 15:14:41.905024,-95.0
2023-12-18 15:14:41.912713,-117.0
2023-12-18 15:14:41.920402,-140.0
2023-12-18 15:14:41.928091,-150.0
2023-12-18 15:14:41.935780,-155.0
2023-12-18 15:14:41.943469,-160.0
2023-12-18 15:14:41.951158,-155.0
2023-12-18 15:14:41.958847,-143.0
2023-12-18 15:14:41.966536,-140.0
2023-12-18 15:14:41.974225,-143.0
2023-12-18 15:14:41.981914,-140.0
2023-12-18 15:14:41.989603,-136.0
2023-12-18 15:14:41.997292,-105.0
2023-12-18 15:14:42.004981,-19.0
2023-12-18 15:14:42.012670,133.0
2023-12-18 15:14:42.020359,324.0
2023-12-18 15:14:42.028048,403.0
2023-12-18 15:14:42.035737,176.0
2023-12-18 15:14:42.043426,-183.0
2023-12-18 15:14:42.051115,-229.0
2023-12-18 15:14:42.058804,-64.0
2023-12-18 15:14:42.066493,-52.0
2023-12-18 15:14:42.074181,-107.0
2023-12-18 15:14:42.081870,-76.0
2023-12-18 15:14:42.089559,-47.0
2023-12-18 15:14:42.097248,-59.0
2023-12-18 15:14:42.104937,-45.0
2023-12-18 15:14:42.112626,-16.0
2023-12-18 15:14:42.120315,-11.0
2023-12-18 15:14:42.128004,-4.0
2023-12-18 15:14:42.135693,23.0
2023-12-18 15:14:42.143382,52.0
2023-12-18 15:14:42.151071,71.0
2023-12-18 15:14:42.158760,81.0
2023-12-18 15:14:42.166449,88.0
2023-12-18 15:14:42.174138,114.0
2023-12-18 15:14:42.181827,155.0
2023-12-18 15:14:42.189516,183.0
2023-12-18 15:14:42.197205,198.0
2023-12-18 15:14:42.204894,193.0
2023-12-18 15:14:42.212583,171.0
2023-12-18 15:14:42.220272,150.0
2023-12-18 15:14:42.227961,109.0
2023-12-18 15:14:42.235650,42.0
2023-12-18 15:14:42.243339,-26.0
2023-12-18 15:14:42.251028,-88.0
2023-12-18 15:14:42.258717,-143.0
2023-12-18 15:14:42.266406,-193.0
2023-12-18 15:14:42.274095,-224.0
2023-12-18 15:14:42.281784,-224.0
2023-12-18 15:14:42.289473,-222.0
2023-12-18 15:14:42.297162,-231.0
2023-12-18 15:14:42.304851,-224.0
2023-12-18 15:14:42.312540,-212.0
2023-12-18 15:14:42.320229,-205.0
2023-12-18 15:14:42.327918,-203.0
2023-12-18 15:14:42.335607,-195.0
2023-12-18 15:14:42.343296,-183.0
2023-12-18 15:14:42.350985,-176.0
2023-12-18 15:14:42.358674,-171.0
2023-12-18 15:14:42.366363,-169.0
2023-12-18 15:14:42.374052,-171.0
2023-12-18 15:14:42.381741,-179.0
2023-12-18 15:14:42.389430,-181.0
2023-12-18 15:14:42.397119,-179.0
2023-12-18 15:14:42.404808,-171.0
2023-12-18 15:14:42.412497,-164.0
2023-12-18 15:14:42.420186,-160.0
2023-12-18 15:14:42.427875,-160.0
2023-12-18 15:14:42.435564,-150.0
2023-12-18 15:14:42.443253,-131.0
2023-12-18 15:14:42.450942,-126.0
2023-12-18 15:14:42.458631,-117.0
2023-12-18 15:14:42.466320,-109.0
2023-12-18 15:14:42.474009,-128.0
2023-12-18 15:14:42.481698,-152.0
2023-12-18 15:14:42.489387,-150.0
2023-12-18 15:14:42.497076,-148.0
2023-12-18 15:14:42.504765,-150.0
2023-12-18 15:14:42.512454,-152.0
2023-12-18 15:14:42.520143,-152.0
2023-12-18 15:14:42.527832,-145.0
2023-12-18 15:14:42.535521,-136.0
2023-12-18 15:14:42.543210,-133.0
2023-12-18 15:14:42.550899,-140.0
2023-12-18 15:14:42.558588,-128.0
2023-12-18 15:14:42.566277,-52.0
2023-12-18 15:14:42.573966,117.0
2023-12-18 15:14:42.581655,348.0
2023-12-18 15:14:42.589344,463.0
2023-12-18 15:14:42.597033,234.0
2023-12-18 15:14:42.604722,-176.0
2023-12-18 15:14:42.612411,-272.0
2023-12-18 15:14:42.620100,-88.0
2023-12-18 15:14:42.627789,-50.0
2023-12-18 15:14:42.635478,-117.0
2023-12-18 15:14:42.643167,-95.0
2023-12-18 15:14:42.650855,-71.0
2023-12-18 15:14:42.658544,-88.0
2023-12-18 15:14:42.666233,-81.0
2023-12-18 15:14:42.673922,-57.0
2023-12-18 15:14:42.681611,-45.0
2023-12-18 15:14:42.689300,-31.0
2023-12-18 15:14:42.696989,-11.0
2023-12-18 15:14:42.704678,2.0
2023-12-18 15:14:42.712367,33.0
2023-12-18 15:14:42.720056,71.0
2023-12-18 15:14:42.727745,107.0
2023-12-18 15:14:42.735434,138.0
2023-12-18 15:14:42.743123,167.0
2023-12-18 15:14:42.750812,191.0
2023-12-18 15:14:42.758501,207.0
2023-12-18 15:14:42.766190,207.0
2023-12-18 15:14:42.773879,191.0
2023-12-18 15:14:42.781568,171.0
2023-12-18 15:14:42.789257,131.0
2023-12-18 15:14:42.796946,69.0
2023-12-18 15:14:42.804635,4.0
2023-12-18 15:14:42.812324,-54.0
2023-12-18 15:14:42.820013,-102.0
2023-12-18 15:14:42.827702,-143.0
2023-12-18 15:14:42.835391,-193.0
2023-12-18 15:14:42.843080,-226.0
2023-12-18 15:14:42.850769,-224.0
2023-12-18 15:14:42.858458,-217.0
2023-12-18 15:14:42.866147,-217.0
2023-12-18 15:14:42.873836,-205.0
2023-12-18 15:14:42.881525,-200.0
2023-12-18 15:14:42.889214,-205.0
2023-12-18 15:14:42.896903,-198.0
2023-12-18 15:14:42.904592,-191.0
2023-12-18 15:14:42.912281,-195.0
2023-12-18 15:14:42.919970,-188.0
2023-12-18 15:14:42.927659,-176.0
2023-12-18 15:14:42.935348,-181.0
2023-12-18 15:14:42.943037,-183.0
2023-12-18 15:14:42.950726,-181.0
2023-12-18 15:14:42.958415,-183.0
2023-12-18 15:14:42.966104,-188.0
2023-12-18 15:14:42.973793,-188.0
2023-12-18 15:14:42.981482,-176.0
2023-12-18 15:14:42.989171,-162.0
2023-12-18 15:14:42.996860,-150.0
2023-12-18 15:14:43.004549,-138.0
2023-12-18 15:14:43.012238,-124.0
2023-12-18 15:14:43.019927,-107.0
2023-12-18 15:14:43.027616,-109.0
2023-12-18 15:14:43.035305,-126.0
2023-12-18 15:14:43.042994,-138.0
2023-12-18 15:14:43.050683,-148.0
2023-12-18 15:14:43.058372,-160.0
2023-12-18 15:14:43.066061,-157.0
2023-12-18 15:14:43.073750,-143.0
2023-12-18 15:14:43.081439,-136.0
2023-12-18 15:14:43.089128,-136.0
2023-12-18 15:14:43.096817,-128.0
2023-12-18 15:14:43.104506,-128.0
2023-12-18 15:14:43.112195,-140.0
2023-12-18 15:14:43.119884,-128.0
2023-12-18 15:14:43.127573,-33.0
2023-12-18 15:14:43.135262,179.0
2023-12-18 15:14:43.142951,458.0
2023-12-18 15:14:43.150640,592.0
2023-12-18 15:14:43.158329,322.0
2023-12-18 15:14:43.166018,-160.0
2023-12-18 15:14:43.173707,-281.0
2023-12-18 15:14:43.181396,-93.0
2023-12-18 15:14:43.189085,-66.0
2023-12-18 15:14:43.196774,-143.0
2023-12-18 15:14:43.204463,-117.0
2023-12-18 15:14:43.212152,-83.0
2023-12-18 15:14:43.219840,-93.0
2023-12-18 15:14:43.227529,-78.0
2023-12-18 15:14:43.235218,-52.0
2023-12-18 15:14:43.242907,-42.0
2023-12-18 15:14:43.250596,-28.0
2023-12-18 15:14:43.258285,-2.0
2023-12-18 15:14:43.265974,23.0
2023-12-18 15:14:43.273663,45.0
2023-12-18 15:14:43.281352,62.0
2023-12-18 15:14:43.289041,85.0
2023-12-18 15:14:43.296730,121.0
2023-12-18 15:14:43.304419,155.0
2023-12-18 15:14:43.312108,181.0
2023-12-18 15:14:43.319797,207.0
2023-12-18 15:14:43.327486,214.0
2023-12-18 15:14:43.335175,200.0
2023-12-18 15:14:43.342864,179.0
2023-12-18 15:14:43.350553,140.0
2023-12-18 15:14:43.358242,78.0
2023-12-18 15:14:43.365931,2.0
2023-12-18 15:14:43.373620,-78.0
2023-12-18 15:14:43.381309,-145.0
2023-12-18 15:14:43.388998,-179.0
2023-12-18 15:14:43.396687,-191.0
2023-12-18 15:14:43.404376,-207.0
2023-12-18 15:14:43.412065,-222.0
2023-12-18 15:14:43.419754,-222.0
2023-12-18 15:14:43.427443,-214.0
2023-12-18 15:14:43.435132,-210.0
2023-12-18 15:14:43.442821,-207.0
2023-12-18 15:14:43.450510,-195.0
2023-12-18 15:14:43.458199,-179.0
2023-12-18 15:14:43.465888,-171.0
2023-12-18 15:14:43.473577,-167.0
2023-12-18 15:14:43.481266,-160.0
2023-12-18 15:14:43.488955,-160.0
2023-12-18 15:14:43.496644,-164.0
2023-12-18 15:14:43.504333,-164.0
2023-12-18 15:14:43.512022,-167.0
2023-12-18 15:14:43.519711,-164.0
2023-12-18 15:14:43.527400,-155.0
2023-12-18 15:14:43.535089,-155.0
2023-12-18 15:14:43.542778,-152.0
2023-12-18 15:14:43.550467,-140.0
2023-12-18 15:14:43.558156,-131.0
2023-12-18 15:14:43.565845,-114.0
2023-12-18 15:14:43.573534,-100.0
2023-12-18 15:14:43.581223,-93.0
2023-12-18 15:14:43.588912,-83.0
2023-12-18 15:14:43.596601,-85.0
2023-12-18 15:14:43.604290,-112.0
2023-12-18 15:14:43.611979,-124.0
2023-12-18 15:14:43.619668,-114.0
2023-12-18 15:14:43.627357,-117.0
2023-12-18 15:14:43.635046,-126.0
2023-12-18 15:14:43.642735,-119.0
2023-12-18 15:14:43.650424,-114.0
2023-12-18 15:14:43.658113,-119.0
2023-12-18 15:14:43.665802,-117.0
2023-12-18 15:14:43.673491,-117.0
2023-12-18 15:14:43.681180,-119.0
2023-12-18 15:14:43.688869,-78.0
2023-12-18 15:14:43.696558,54.0
2023-12-18 15:14:43.704247,262.0
2023-12-18 15:14:43.711936,463.0
2023-12-18 15:14:43.719625,463.0
2023-12-18 15:14:43.727314,107.0
2023-12-18 15:14:43.735003,-236.0
2023-12-18 15:14:43.742692,-164.0
2023-12-18 15:14:43.750381,-16.0
2023-12-18 15:14:43.758070,-76.0
2023-12-18 15:14:43.765759,-114.0
2023-12-18 15:14:43.773448,-69.0
2023-12-18 15:14:43.781137,-69.0
2023-12-18 15:14:43.788826,-90.0
2023-12-18 15:14:43.796514,-66.0
2023-12-18 15:14:43.804203,-35.0
2023-12-18 15:14:43.811892,-26.0
2023-12-18 15:14:43.819581,-11.0
2023-12-18 15:14:43.827270,9.0
2023-12-18 15:14:43.834959,33.0
2023-12-18 15:14:43.842648,69.0
2023-12-18 15:14:43.850337,105.0
2023-12-18 15:14:43.858026,136.0
2023-12-18 15:14:43.865715,164.0
2023-12-18 15:14:43.873404,171.0
2023-12-18 15:14:43.881093,181.0
2023-12-18 15:14:43.888782,212.0
2023-12-18 15:14:43.896471,217.0
2023-12-18 15:14:43.904160,183.0
2023-12-18 15:14:43.911849,150.0
2023-12-18 15:14:43.919538,102.0
2023-12-18 15:14:43.927227,26.0
2023-12-18 15:14:43.934916,-45.0
2023-12-18 15:14:43.942605,-100.0
2023-12-18 15:14:43.950294,-140.0
2023-12-18 15:14:43.957983,-171.0
2023-12-18 15:14:43.965672,-188.0
2023-12-18 15:14:43.973361,-195.0
2023-12-18 15:14:43.981050,-193.0
2023-12-18 15:14:43.988739,-186.0
2023-12-18 15:14:43.996428,-186.0
2023-12-18 15:14:44.004117,-186.0
2023-12-18 15:14:44.011806,-181.0
2023-12-18 15:14:44.019495,-171.0
2023-12-18 15:14:44.027184,-162.0
2023-12-18 15:14:44.034873,-155.0
2023-12-18 15:14:44.042562,-150.0
2023-12-18 15:14:44.050251,-150.0
2023-12-18 15:14:44.057940,-152.0
2023-12-18 15:14:44.065629,-155.0
2023-12-18 15:14:44.073318,-160.0
2023-12-18 15:14:44.081007,-157.0
2023-12-18 15:14:44.088696,-150.0
2023-12-18 15:14:44.096385,-152.0
2023-12-18 15:14:44.104074,-152.0
2023-12-18 15:14:44.111763,-140.0
2023-12-18 15:14:44.119452,-128.0
2023-12-18 15:14:44.127141,-121.0
2023-12-18 15:14:44.134830,-107.0
2023-12-18 15:14:44.142519,-100.0
2023-12-18 15:14:44.150208,-97.0
2023-12-18 15:14:44.157897,-85.0
2023-12-18 15:14:44.165586,-81.0
2023-12-18 15:14:44.173275,-105.0
2023-12-18 15:14:44.180964,-128.0
2023-12-18 15:14:44.188653,-136.0
2023-12-18 15:14:44.196342,-133.0
2023-12-18 15:14:44.204031,-128.0
2023-12-18 15:14:44.211720,-124.0
2023-12-18 15:14:44.219409,-124.0
2023-12-18 15:14:44.227098,-124.0
2023-12-18 15:14:44.234787,-124.0
2023-12-18 15:14:44.242476,-119.0
2023-12-18 15:14:44.250165,-109.0
2023-12-18 15:14:44.257854,-71.0
2023-12-18 15:14:44.265543,38.0
2023-12-18 15:14:44.273232,207.0
2023-12-18 15:14:44.280921,377.0
2023-12-18 15:14:44.288610,374.0
2023-12-18 15:14:44.296299,42.0
2023-12-18 15:14:44.303988,-274.0
2023-12-18 15:14:44.311677,-198.0
2023-12-18 15:14:44.319366,-57.0
2023-12-18 15:14:44.327055,-100.0
2023-12-18 15:14:44.334744,-128.0
2023-12-18 15:14:44.342433,-90.0
2023-12-18 15:14:44.350122,-83.0
2023-12-18 15:14:44.357811,-90.0
2023-12-18 15:14:44.365500,-74.0
2023-12-18 15:14:44.373188,-57.0
2023-12-18 15:14:44.380877,-45.0
2023-12-18 15:14:44.388566,-26.0
2023-12-18 15:14:44.396255,-4.0
2023-12-18 15:14:44.403944,14.0
2023-12-18 15:14:44.411633,38.0
2023-12-18 15:14:44.419322,71.0
2023-12-18 15:14:44.427011,112.0
2023-12-18 15:14:44.434700,150.0
2023-12-18 15:14:44.442389,183.0
2023-12-18 15:14:44.450078,207.0
2023-12-18 15:14:44.457767,203.0
2023-12-18 15:14:44.465456,188.0
2023-12-18 15:14:44.473145,181.0
2023-12-18 15:14:44.480834,155.0
2023-12-18 15:14:44.488523,100.0
2023-12-18 15:14:44.496212,33.0
2023-12-18 15:14:44.503901,-42.0
2023-12-18 15:14:44.511590,-105.0
2023-12-18 15:14:44.519279,-145.0
2023-12-18 15:14:44.526968,-176.0
2023-12-18 15:14:44.534657,-200.0
2023-12-18 15:14:44.542346,-210.0
2023-12-18 15:14:44.550035,-207.0
2023-12-18 15:14:44.557724,-198.0
2023-12-18 15:14:44.565413,-198.0
2023-12-18 15:14:44.573102,-195.0
2023-12-18 15:14:44.580791,-181.0
2023-12-18 15:14:44.588480,-164.0
2023-12-18 15:14:44.596169,-169.0
2023-12-18 15:14:44.603858,-176.0
2023-12-18 15:14:44.611547,-171.0
2023-12-18 15:14:44.619236,-169.0
2023-12-18 15:14:44.626925,-171.0
2023-12-18 15:14:44.634614,-176.0
2023-12-18 15:14:44.642303,-183.0
2023-12-18 15:14:44.649992,-181.0
2023-12-18 15:14:44.657681,-171.0
2023-12-18 15:14:44.665370,-167.0
2023-12-18 15:14:44.673059,-167.0
2023-12-18 15:14:44.680748,-169.0
2023-12-18 15:14:44.688437,-164.0
2023-12-18 15:14:44.696126,-140.0
2023-12-18 15:14:44.703815,-112.0
2023-12-18 15:14:44.711504,-102.0
2023-12-18 15:14:44.719193,-100.0
2023-12-18 15:14:44.726882,-88.0
2023-12-18 15:14:44.734571,-85.0
2023-12-18 15:14:44.742260,-102.0
2023-12-18 15:14:44.749949,-117.0
2023-12-18 15:14:44.757638,-121.0
2023-12-18 15:14:44.765327,-128.0
2023-12-18 15:14:44.773016,-138.0
2023-12-18 15:14:44.780705,-138.0
2023-12-18 15:14:44.788394,-128.0
2023-12-18 15:14:44.796083,-136.0
2023-12-18 15:14:44.803772,-150.0
2023-12-18 15:14:44.811461,-145.0
2023-12-18 15:14:44.819150,-145.0
2023-12-18 15:14:44.826839,-136.0
2023-12-18 15:14:44.834528,-62.0
2023-12-18 15:14:44.842217,97.0
2023-12-18 15:14:44.849906,300.0
2023-12-18 15:14:44.857595,422.0
2023-12-18 15:14:44.865284,257.0
2023-12-18 15:14:44.872973,-131.0
2023-12-18 15:14:44.880662,-272.0
2023-12-18 15:14:44.888351,-114.0
2023-12-18 15:14:44.896040,-66.0
2023-12-18 15:14:44.903729,-140.0
2023-12-18 15:14:44.911418,-133.0
2023-12-18 15:14:44.919107,-100.0
2023-12-18 15:14:44.926796,-100.0
2023-12-18 15:14:44.934485,-90.0
2023-12-18 15:14:44.942173,-66.0
2023-12-18 15:14:44.949862,-54.0
2023-12-18 15:14:44.957551,-40.0
2023-12-18 15:14:44.965240,-16.0
2023-12-18 15:14:44.972929,7.0
2023-12-18 15:14:44.980618,33.0
2023-12-18 15:14:44.988307,54.0
2023-12-18 15:14:44.995996,66.0
2023-12-18 15:14:45.003685,83.0
2023-12-18 15:14:45.011374,119.0
2023-12-18 15:14:45.019063,152.0
2023-12-18 15:14:45.026752,176.0
2023-12-18 15:14:45.034441,193.0
2023-12-18 15:14:45.042130,195.0
2023-12-18 15:14:45.049819,176.0
2023-12-18 15:14:45.057508,140.0
2023-12-18 15:14:45.065197,81.0
2023-12-18 15:14:45.072886,2.0
2023-12-18 15:14:45.080575,-74.0
2023-12-18 15:14:45.088264,-128.0
2023-12-18 15:14:45.095953,-164.0
2023-12-18 15:14:45.103642,-188.0
2023-12-18 15:14:45.111331,-200.0
2023-12-18 15:14:45.119020,-200.0
2023-12-18 15:14:45.126709,-207.0
2023-12-18 15:14:45.134398,-207.0
2023-12-18 15:14:45.142087,-195.0
2023-12-18 15:14:45.149776,-198.0
2023-12-18 15:14:45.157465,-200.0
2023-12-18 15:14:45.165154,-188.0
2023-12-18 15:14:45.172843,-186.0
2023-12-18 15:14:45.180532,-193.0
2023-12-18 15:14:45.188221,-188.0
2023-12-18 15:14:45.195910,-181.0
2023-12-18 15:14:45.203599,-176.0
2023-12-18 15:14:45.211288,-169.0
2023-12-18 15:14:45.218977,-167.0
2023-12-18 15:14:45.226666,-167.0
2023-12-18 15:14:45.234355,-169.0
2023-12-18 15:14:45.242044,-167.0
2023-12-18 15:14:45.249733,-155.0
2023-12-18 15:14:45.257422,-148.0
2023-12-18 15:14:45.265111,-138.0
2023-12-18 15:14:45.272800,-121.0
2023-12-18 15:14:45.280489,-107.0
2023-12-18 15:14:45.288178,-105.0
2023-12-18 15:14:45.295867,-88.0
2023-12-18 15:14:45.303556,-88.0
2023-12-18 15:14:45.311245,-124.0
2023-12-18 15:14:45.318934,-148.0
2023-12-18 15:14:45.326623,-145.0
2023-12-18 15:14:45.334312,-143.0
2023-12-18 15:14:45.342001,-140.0
2023-12-18 15:14:45.349690,-136.0
2023-12-18 15:14:45.357379,-133.0
2023-12-18 15:14:45.365068,-133.0
2023-12-18 15:14:45.372757,-140.0
2023-12-18 15:14:45.380446,-148.0
2023-12-18 15:14:45.388135,-143.0
2023-12-18 15:14:45.395824,-133.0
2023-12-18 15:14:45.403513,-62.0
2023-12-18 15:14:45.411202,136.0
2023-12-18 15:14:45.418891,406.0
2023-12-18 15:14:45.426580,568.0
2023-12-18 15:14:45.434269,389.0
2023-12-18 15:14:45.441958,-76.0
2023-12-18 15:14:45.449647,-284.0
2023-12-18 15:14:45.457336,-114.0
2023-12-18 15:14:45.465025,-45.0
2023-12-18 15:14:45.472714,-131.0
2023-12-18 15:14:45.480403,-119.0
2023-12-18 15:14:45.488092,-69.0
2023-12-18 15:14:45.495781,-76.0
2023-12-18 15:14:45.503470,-74.0
2023-12-18 15:14:45.511159,-45.0
2023-12-18 15:14:45.518847,-31.0
2023-12-18 15:14:45.526536,-23.0
2023-12-18 15:14:45.534225,-21.0
2023-12-18 15:14:45.541914,-19.0
2023-12-18 15:14:45.549603,14.0
2023-12-18 15:14:45.557292,52.0
2023-12-18 15:14:45.564981,78.0
2023-12-18 15:14:45.572670,107.0
2023-12-18 15:14:45.580359,131.0
2023-12-18 15:14:45.588048,148.0
2023-12-18 15:14:45.595737,169.0
2023-12-18 15:14:45.603426,183.0
2023-12-18 15:14:45.611115,176.0
2023-12-18 15:14:45.618804,152.0
2023-12-18 15:14:45.626493,102.0
2023-12-18 15:14:45.634182,31.0
2023-12-18 15:14:45.641871,-40.0
2023-12-18 15:14:45.649560,-105.0
2023-12-18 15:14:45.657249,-155.0
2023-12-18 15:14:45.664938,-181.0
2023-12-18 15:14:45.672627,-198.0
2023-12-18 15:14:45.680316,-203.0
2023-12-18 15:14:45.688005,-200.0
2023-12-18 15:14:45.695694,-200.0
2023-12-18 15:14:45.703383,-203.0
2023-12-18 15:14:45.711072,-203.0
2023-12-18 15:14:45.718761,-203.0
2023-12-18 15:14:45.726450,-200.0
2023-12-18 15:14:45.734139,-198.0
2023-12-18 15:14:45.741828,-195.0
2023-12-18 15:14:45.749517,-186.0
2023-12-18 15:14:45.757206,-174.0
2023-12-18 15:14:45.764895,-171.0
2023-12-18 15:14:45.772584,-169.0
2023-12-18 15:14:45.780273,-162.0
2023-12-18 15:14:45.787962,-155.0
2023-12-18 15:14:45.795651,-152.0
2023-12-18 15:14:45.803340,-152.0
2023-12-18 15:14:45.811029,-155.0
2023-12-18 15:14:45.818718,-162.0
2023-12-18 15:14:45.826407,-164.0
2023-12-18 15:14:45.834096,-157.0
2023-12-18 15:14:45.841785,-140.0
2023-12-18 15:14:45.849474,-119.0
2023-12-18 15:14:45.857163,-107.0
2023-12-18 15:14:45.864852,-95.0
2023-12-18 15:14:45.872541,-83.0
2023-12-18 15:14:45.880230,-93.0
2023-12-18 15:14:45.887919,-112.0
2023-12-18 15:14:45.895608,-126.0
2023-12-18 15:14:45.903297,-136.0
2023-12-18 15:14:45.910986,-136.0
2023-12-18 15:14:45.918675,-126.0
2023-12-18 15:14:45.926364,-121.0
2023-12-18 15:14:45.934053,-121.0
2023-12-18 15:14:45.941742,-119.0
2023-12-18 15:14:45.949431,-114.0
2023-12-18 15:14:45.957120,-109.0
2023-12-18 15:14:45.964809,-107.0
2023-12-18 15:14:45.972498,-74.0
2023-12-18 15:14:45.980187,52.0
2023-12-18 15:14:45.987876,267.0
2023-12-18 15:14:45.995565,484.0
2023-12-18 15:14:46.003254,482.0
2023-12-18 15:14:46.010943,105.0
2023-12-18 15:14:46.018632,-226.0
2023-12-18 15:14:46.026321,-138.0
2023-12-18 15:14:46.034010,-7.0
2023-12-18 15:14:46.041699,-69.0
2023-12-18 15:14:46.049388,-95.0
2023-12-18 15:14:46.057077,-54.0
2023-12-18 15:14:46.064766,-62.0
2023-12-18 15:14:46.072455,-64.0
2023-12-18 15:14:46.080144,-28.0
2023-12-18 15:14:46.087832,-7.0
2023-12-18 15:14:46.095521,4.0
2023-12-18 15:14:46.103210,21.0
2023-12-18 15:14:46.110899,31.0
2023-12-18 15:14:46.118588,33.0
2023-12-18 15:14:46.126277,42.0
2023-12-18 15:14:46.133966,74.0
2023-12-18 15:14:46.141655,117.0
2023-12-18 15:14:46.149344,150.0
2023-12-18 15:14:46.157033,176.0
2023-12-18 15:14:46.164722,205.0
2023-12-18 15:14:46.172411,224.0
2023-12-18 15:14:46.180100,224.0
2023-12-18 15:14:46.187789,207.0
2023-12-18 15:14:46.195478,169.0
2023-12-18 15:14:46.203167,109.0
2023-12-18 15:14:46.210856,33.0
2023-12-18 15:14:46.218545,-40.0
2023-12-18 15:14:46.226234,-93.0
2023-12-18 15:14:46.233923,-131.0
2023-12-18 15:14:46.241612,-152.0
2023-12-18 15:14:46.249301,-167.0
2023-12-18 15:14:46.256990,-183.0
2023-12-18 15:14:46.264679,-191.0
2023-12-18 15:14:46.272368,-188.0
2023-12-18 15:14:46.280057,-188.0
2023-12-18 15:14:46.287746,-188.0
2023-12-18 15:14:46.295435,-195.0
2023-12-18 15:14:46.303124,-195.0
2023-12-18 15:14:46.310813,-188.0
2023-12-18 15:14:46.318502,-205.0
2023-12-18 15:14:46.326191,-219.0
2023-12-18 15:14:46.333880,-183.0
2023-12-18 15:14:46.341569,-155.0
2023-12-18 15:14:46.349258,-188.0
2023-12-18 15:14:46.356947,-212.0
2023-12-18 15:14:46.364636,-179.0
2023-12-18 15:14:46.372325,-152.0
2023-12-18 15:14:46.380014,-164.0
2023-12-18 15:14:46.387703,-181.0
2023-12-18 15:14:46.395392,-171.0
2023-12-18 15:14:46.403081,-145.0
2023-12-18 15:14:46.410770,-126.0
2023-12-18 15:14:46.418459,-117.0
2023-12-18 15:14:46.426148,-102.0
2023-12-18 15:14:46.433837,-90.0
2023-12-18 15:14:46.441526,-85.0
2023-12-18 15:14:46.449215,-85.0
2023-12-18 15:14:46.456904,-105.0
2023-12-18 15:14:46.464593,-112.0
2023-12-18 15:14:46.472282,-107.0
2023-12-18 15:14:46.479971,-133.0
2023-12-18 15:14:46.487660,-155.0
2023-12-18 15:14:46.495349,-124.0
2023-12-18 15:14:46.503038,-97.0
2023-12-18 15:14:46.510727,-107.0
2023-12-18 15:14:46.518416,-114.0
2023-12-18 15:14:46.526105,-107.0
2023-12-18 15:14:46.533794,-109.0
2023-12-18 15:14:46.541483,-88.0
2023-12-18 15:14:46.549172,0.0
2023-12-18 15:14:46.556861,145.0
2023-12-18 15:14:46.564550,327.0
2023-12-18 15:14:46.572239,403.0
2023-12-18 15:14:46.579928,162.0
2023-12-18 15:14:46.587617,-183.0
2023-12-18 15:14:46.595306,-186.0
2023-12-18 15:14:46.602995,-21.0
2023-12-18 15:14:46.610684,-57.0
2023-12-18 15:14:46.618373,-119.0
2023-12-18 15:14:46.626062,-59.0
2023-12-18 15:14:46.633751,-31.0
2023-12-18 15:14:46.641440,-52.0
2023-12-18 15:14:46.649129,-38.0
2023-12-18 15:14:46.656818,-19.0
2023-12-18 15:14:46.664506,-23.0
2023-12-18 15:14:46.672195,-4.0
2023-12-18 15:14:46.679884,35.0
2023-12-18 15:14:46.687573,64.0
2023-12-18 15:14:46.695262,83.0
2023-12-18 15:14:46.702951,97.0
2023-12-18 15:14:46.710640,107.0
2023-12-18 15:14:46.718329,128.0
2023-12-18 15:14:46.726018,167.0
2023-12-18 15:14:46.733707,207.0
2023-12-18 15:14:46.741396,226.0
2023-12-18 15:14:46.749085,212.0
2023-12-18 15:14:46.756774,181.0
2023-12-18 15:14:46.764463,157.0
2023-12-18 15:14:46.772152,117.0
2023-12-18 15:14:46.779841,47.0
2023-12-18 15:14:46.787530,-23.0
2023-12-18 15:14:46.795219,-93.0
2023-12-18 15:14:46.802908,-148.0
2023-12-18 15:14:46.810597,-167.0
2023-12-18 15:14:46.818286,-186.0
2023-12-18 15:14:46.825975,-226.0
2023-12-18 15:14:46.833664,-243.0
2023-12-18 15:14:46.841353,-229.0
2023-12-18 15:14:46.849042,-241.0
2023-12-18 15:14:46.856731,-260.0
2023-12-18 15:14:46.864420,-241.0
2023-12-18 15:14:46.872109,-219.0
2023-12-18 15:14:46.879798,-222.0
2023-12-18 15:14:46.887487,-222.0
2023-12-18 15:14:46.895176,-219.0
2023-12-18 15:14:46.902865,-210.0
2023-12-18 15:14:46.910554,-195.0
2023-12-18 15:14:46.918243,-183.0
2023-12-18 15:14:46.925932,-179.0
2023-12-18 15:14:46.933621,-183.0
2023-12-18 15:14:46.941310,-179.0
2023-12-18 15:14:46.948999,-167.0
2023-12-18 15:14:46.956688,-160.0
2023-12-18 15:14:46.964377,-150.0
2023-12-18 15:14:46.972066,-140.0
2023-12-18 15:14:46.979755,-126.0
2023-12-18 15:14:46.987444,-105.0
2023-12-18 15:14:46.995133,-88.0
2023-12-18 15:14:47.002822,-81.0
2023-12-18 15:14:47.010511,-76.0
2023-12-18 15:14:47.018200,-85.0
2023-12-18 15:14:47.025889,-102.0
2023-12-18 15:14:47.033578,-114.0
2023-12-18 15:14:47.041267,-121.0
2023-12-18 15:14:47.048956,-124.0
2023-12-18 15:14:47.056645,-119.0
2023-12-18 15:14:47.064334,-117.0
2023-12-18 15:14:47.072023,-109.0
2023-12-18 15:14:47.079712,-105.0
2023-12-18 15:14:47.087401,-112.0
2023-12-18 15:14:47.095090,-117.0
2023-12-18 15:14:47.102779,-126.0
2023-12-18 15:14:47.110468,-114.0
2023-12-18 15:14:47.118157,-19.0
2023-12-18 15:14:47.125846,174.0
2023-12-18 15:14:47.133535,386.0
2023-12-18 15:14:47.141224,396.0
2023-12-18 15:14:47.148913,62.0
2023-12-18 15:14:47.156602,-257.0
2023-12-18 15:14:47.164291,-188.0
2023-12-18 15:14:47.171980,-28.0
2023-12-18 15:14:47.179669,-62.0
2023-12-18 15:14:47.187358,-105.0
2023-12-18 15:14:47.195047,-76.0
2023-12-18 15:14:47.202736,-71.0
2023-12-18 15:14:47.210425,-74.0
2023-12-18 15:14:47.218114,-42.0
2023-12-18 15:14:47.225803,-19.0
2023-12-18 15:14:47.233492,-11.0
2023-12-18 15:14:47.241180,-9.0
2023-12-18 15:14:47.248869,-9.0
2023-12-18 15:14:47.256558,2.0
2023-12-18 15:14:47.264247,33.0
2023-12-18 15:14:47.271936,57.0
2023-12-18 15:14:47.279625,95.0
2023-12-18 15:14:47.287314,143.0
2023-12-18 15:14:47.295003,164.0
2023-12-18 15:14:47.302692,179.0
2023-12-18 15:14:47.310381,195.0
2023-12-18 15:14:47.318070,200.0
2023-12-18 15:14:47.325759,179.0
2023-12-18 15:14:47.333448,140.0
2023-12-18 15:14:47.341137,85.0
2023-12-18 15:14:47.348826,7.0
2023-12-18 15:14:47.356515,-71.0
2023-12-18 15:14:47.364204,-131.0
2023-12-18 15:14:47.371893,-169.0
2023-12-18 15:14:47.379582,-200.0
2023-12-18 15:14:47.387271,-214.0
2023-12-18 15:14:47.394960,-212.0
2023-12-18 15:14:47.402649,-214.0
2023-12-18 15:14:47.410338,-226.0
2023-12-18 15:14:47.418027,-226.0
2023-12-18 15:14:47.425716,-219.0
2023-12-18 15:14:47.433405,-214.0
2023-12-18 15:14:47.441094,-207.0
2023-12-18 15:14:47.448783,-200.0
2023-12-18 15:14:47.456472,-195.0
2023-12-18 15:14:47.464161,-198.0
2023-12-18 15:14:47.471850,-193.0
2023-12-18 15:14:47.479539,-181.0
2023-12-18 15:14:47.487228,-167.0
2023-12-18 15:14:47.494917,-152.0
2023-12-18 15:14:47.502606,-152.0
2023-12-18 15:14:47.510295,-155.0
2023-12-18 15:14:47.517984,-152.0
2023-12-18 15:14:47.525673,-145.0
2023-12-18 15:14:47.533362,-136.0
2023-12-18 15:14:47.541051,-124.0
2023-12-18 15:14:47.548740,-109.0
2023-12-18 15:14:47.556429,-97.0
2023-12-18 15:14:47.564118,-95.0
2023-12-18 15:14:47.571807,-85.0
2023-12-18 15:14:47.579496,-66.0
2023-12-18 15:14:47.587185,-78.0
2023-12-18 15:14:47.594874,-107.0
2023-12-18 15:14:47.602563,-119.0
2023-12-18 15:14:47.610252,-126.0
2023-12-18 15:14:47.617941,-136.0
2023-12-18 15:14:47.625630,-128.0
2023-12-18 15:14:47.633319,-107.0
2023-12-18 15:14:47.641008,-102.0
2023-12-18 15:14:47.648697,-112.0
2023-12-18 15:14:47.656386,-112.0
2023-12-18 15:14:47.664075,-105.0
2023-12-18 15:14:47.671764,-102.0
2023-12-18 15:14:47.679453,-76.0
2023-12-18 15:14:47.687142,52.0
2023-12-18 15:14:47.694831,298.0
2023-12-18 15:14:47.702520,530.0
2023-12-18 15:14:47.710209,484.0
2023-12-18 15:14:47.717898,66.0
2023-12-18 15:14:47.725587,-265.0
2023-12-18 15:14:47.733276,-171.0
2023-12-18 15:14:47.740965,-28.0
2023-12-18 15:14:47.748654,-78.0
2023-12-18 15:14:47.756343,-105.0
2023-12-18 15:14:47.764032,-64.0
2023-12-18 15:14:47.771721,-59.0
2023-12-18 15:14:47.779410,-74.0
2023-12-18 15:14:47.787099,-69.0
2023-12-18 15:14:47.794788,-64.0
2023-12-18 15:14:47.802477,-52.0
2023-12-18 15:14:47.810165,-26.0
2023-12-18 15:14:47.817854,-7.0
2023-12-18 15:14:47.825543,2.0
2023-12-18 15:14:47.833232,14.0
2023-12-18 15:14:47.840921,40.0
2023-12-18 15:14:47.848610,78.0
2023-12-18 15:14:47.856299,119.0
2023-12-18 15:14:47.863988,155.0
2023-12-18 15:14:47.871677,167.0
2023-12-18 15:14:47.879366,155.0
2023-12-18 15:14:47.887055,143.0
2023-12-18 15:14:47.894744,136.0
2023-12-18 15:14:47.902433,112.0
2023-12-18 15:14:47.910122,59.0
2023-12-18 15:14:47.917811,-16.0
2023-12-18 15:14:47.925500,-85.0
2023-12-18 15:14:47.933189,-131.0
2023-12-18 15:14:47.940878,-169.0
2023-12-18 15:14:47.948567,-205.0
2023-12-18 15:14:47.956256,-222.0
2023-12-18 15:14:47.963945,-229.0
2023-12-18 15:14:47.971634,-226.0
2023-12-18 15:14:47.979323,-226.0
2023-12-18 15:14:47.987012,-226.0
2023-12-18 15:14:47.994701,-224.0
2023-12-18 15:14:48.002390,-224.0
2023-12-18 15:14:48.010079,-217.0
2023-12-18 15:14:48.017768,-207.0
2023-12-18 15:14:48.025457,-200.0
2023-12-18 15:14:48.033146,-188.0
2023-12-18 15:14:48.040835,-176.0
2023-12-18 15:14:48.048524,-174.0
2023-12-18 15:14:48.056213,-179.0
2023-12-18 15:14:48.063902,-171.0
2023-12-18 15:14:48.071591,-160.0
2023-12-18 15:14:48.079280,-160.0
2023-12-18 15:14:48.086969,-160.0
2023-12-18 15:14:48.094658,-160.0
2023-12-18 15:14:48.102347,-162.0
2023-12-18 15:14:48.110036,-152.0
2023-12-18 15:14:48.117725,-126.0
2023-12-18 15:14:48.125414,-109.0
2023-12-18 15:14:48.133103,-100.0
2023-12-18 15:14:48.140792,-78.0
2023-12-18 15:14:48.148481,-62.0
2023-12-18 15:14:48.156170,-69.0
2023-12-18 15:14:48.163859,-90.0
2023-12-18 15:14:48.171548,-102.0
2023-12-18 15:14:48.179237,-102.0
2023-12-18 15:14:48.186926,-105.0
2023-12-18 15:14:48.194615,-114.0
2023-12-18 15:14:48.202304,-107.0
2023-12-18 15:14:48.209993,-97.0
2023-12-18 15:14:48.217682,-102.0
2023-12-18 15:14:48.225371,-102.0
2023-12-18 15:14:48.233060,-90.0
2023-12-18 15:14:48.240749,-83.0
2023-12-18 15:14:48.248438,-42.0
2023-12-18 15:14:48.256127,93.0
2023-12-18 15:14:48.263816,310.0
2023-12-18 15:14:48.271505,513.0
2023-12-18 15:14:48.279194,472.0
2023-12-18 15:14:48.286883,66.0
2023-12-18 15:14:48.294572,-243.0
2023-12-18 15:14:48.302261,-126.0
2023-12-18 15:14:48.309950,7.0
2023-12-18 15:14:48.317639,-59.0
2023-12-18 15:14:48.325328,-93.0
2023-12-18 15:14:48.333017,-64.0
2023-12-18 15:14:48.340706,-76.0
2023-12-18 15:14:48.348395,-81.0
2023-12-18 15:14:48.356084,-47.0
2023-12-18 15:14:48.363773,-33.0
2023-12-18 15:14:48.371462,-54.0
2023-12-18 15:14:48.379151,-64.0
2023-12-18 15:14:48.386839,-26.0
2023-12-18 15:14:48.394528,16.0
2023-12-18 15:14:48.402217,40.0
2023-12-18 15:14:48.409906,71.0
2023-12-18 15:14:48.417595,107.0
2023-12-18 15:14:48.425284,143.0
2023-12-18 15:14:48.432973,176.0
2023-12-18 15:14:48.440662,203.0
2023-12-18 15:14:48.448351,210.0
2023-12-18 15:14:48.456040,214.0
2023-12-18 15:14:48.463729,205.0
2023-12-18 15:14:48.471418,160.0
2023-12-18 15:14:48.479107,88.0
2023-12-18 15:14:48.486796,16.0
2023-12-18 15:14:48.494485,-47.0
2023-12-18 15:14:48.502174,-112.0
2023-12-18 15:14:48.509863,-179.0
2023-12-18 15:14:48.517552,-212.0
2023-12-18 15:14:48.525241,-214.0
2023-12-18 15:14:48.532930,-224.0
2023-12-18 15:14:48.540619,-231.0
2023-12-18 15:14:48.548308,-236.0
2023-12-18 15:14:48.555997,-241.0
2023-12-18 15:14:48.563686,-238.0
2023-12-18 15:14:48.571375,-224.0
2023-12-18 15:14:48.579064,-217.0
2023-12-18 15:14:48.586753,-219.0
2023-12-18 15:14:48.594442,-217.0
2023-12-18 15:14:48.602131,-210.0
2023-12-18 15:14:48.609820,-205.0
2023-12-18 15:14:48.617509,-193.0
2023-12-18 15:14:48.625198,-186.0
2023-12-18 15:14:48.632887,-183.0
2023-12-18 15:14:48.640576,-174.0
2023-12-18 15:14:48.648265,-164.0
2023-12-18 15:14:48.655954,-162.0
2023-12-18 15:14:48.663643,-164.0
2023-12-18 15:14:48.671332,-155.0
2023-12-18 15:14:48.679021,-138.0
2023-12-18 15:14:48.686710,-131.0
2023-12-18 15:14:48.694399,-124.0
2023-12-18 15:14:48.702088,-109.0
2023-12-18 15:14:48.709777,-97.0
2023-12-18 15:14:48.717466,-85.0
2023-12-18 15:14:48.725155,-69.0
2023-12-18 15:14:48.732844,-74.0
2023-12-18 15:14:48.740533,-95.0
2023-12-18 15:14:48.748222,-112.0
2023-12-18 15:14:48.755911,-114.0
2023-12-18 15:14:48.763600,-109.0
2023-12-18 15:14:48.771289,-102.0
2023-12-18 15:14:48.778978,-102.0
2023-12-18 15:14:48.786667,-109.0
2023-12-18 15:14:48.794356,-112.0
2023-12-18 15:14:48.802045,-102.0
2023-12-18 15:14:48.809734,-95.0
2023-12-18 15:14:48.817423,-88.0
2023-12-18 15:14:48.825112,-35.0
2023-12-18 15:14:48.832801,93.0
2023-12-18 15:14:48.840490,265.0
2023-12-18 15:14:48.848179,389.0
2023-12-18 15:14:48.855868,267.0
2023-12-18 15:14:48.863557,-100.0
2023-12-18 15:14:48.871246,-267.0
2023-12-18 15:14:48.878935,-114.0
2023-12-18 15:14:48.886624,-54.0
2023-12-18 15:14:48.894313,-124.0
2023-12-18 15:14:48.902002,-109.0
2023-12-18 15:14:48.909691,-83.0
2023-12-18 15:14:48.917380,-112.0
2023-12-18 15:14:48.925069,-109.0
2023-12-18 15:14:48.932758,-78.0
2023-12-18 15:14:48.940447,-64.0
2023-12-18 15:14:48.948136,-50.0
2023-12-18 15:14:48.955824,-42.0
2023-12-18 15:14:48.963513,-40.0
2023-12-18 15:14:48.971202,-7.0
2023-12-18 15:14:48.978891,35.0
2023-12-18 15:14:48.986580,59.0
2023-12-18 15:14:48.994269,88.0
2023-12-18 15:14:49.001958,126.0
2023-12-18 15:14:49.009647,164.0
2023-12-18 15:14:49.017336,191.0
2023-12-18 15:14:49.025025,195.0
2023-12-18 15:14:49.032714,188.0
2023-12-18 15:14:49.040403,169.0
2023-12-18 15:14:49.048092,128.0
2023-12-18 15:14:49.055781,74.0
2023-12-18 15:14:49.063470,4.0
2023-12-18 15:14:49.071159,-78.0
2023-12-18 15:14:49.078848,-148.0
2023-12-18 15:14:49.086537,-186.0
2023-12-18 15:14:49.094226,-207.0
2023-12-18 15:14:49.101915,-214.0
2023-12-18 15:14:49.109604,-214.0
2023-12-18 15:14:49.117293,-219.0
2023-12-18 15:14:49.124982,-226.0
2023-12-18 15:14:49.132671,-229.0
2023-12-18 15:14:49.140360,-222.0
2023-12-18 15:14:49.148049,-210.0
2023-12-18 15:14:49.155738,-200.0
2023-12-18 15:14:49.163427,-191.0
2023-12-18 15:14:49.171116,-179.0
2023-12-18 15:14:49.178805,-171.0
2023-12-18 15:14:49.186494,-176.0
2023-12-18 15:14:49.194183,-176.0
2023-12-18 15:14:49.201872,-167.0
2023-12-18 15:14:49.209561,-160.0
2023-12-18 15:14:49.217250,-157.0
2023-12-18 15:14:49.224939,-145.0
2023-12-18 15:14:49.232628,-136.0
2023-12-18 15:14:49.240317,-128.0
2023-12-18 15:14:49.248006,-128.0
2023-12-18 15:14:49.255695,-131.0
2023-12-18 15:14:49.263384,-114.0
2023-12-18 15:14:49.271073,-97.0
2023-12-18 15:14:49.278762,-90.0
2023-12-18 15:14:49.286451,-83.0
2023-12-18 15:14:49.294140,-66.0
2023-12-18 15:14:49.301829,-52.0
2023-12-18 15:14:49.309518,-57.0
2023-12-18 15:14:49.317207,-78.0
2023-12-18 15:14:49.324896,-88.0
2023-12-18 15:14:49.332585,-93.0
2023-12-18 15:14:49.340274,-114.0
2023-12-18 15:14:49.347963,-136.0
2023-12-18 15:14:49.355652,-133.0
2023-12-18 15:14:49.363341,-126.0
2023-12-18 15:14:49.371030,-128.0
2023-12-18 15:14:49.378719,-114.0
2023-12-18 15:14:49.386408,-105.0
2023-12-18 15:14:49.394097,-112.0
2023-12-18 15:14:49.401786,-90.0
2023-12-18 15:14:49.409475,-7.0
2023-12-18 15:14:49.417164,133.0
2023-12-18 15:14:49.424853,312.0
2023-12-18 15:14:49.432542,406.0
2023-12-18 15:14:49.440231,188.0
2023-12-18 15:14:49.447920,-174.0
2023-12-18 15:14:49.455609,-217.0
2023-12-18 15:14:49.463298,-42.0
2023-12-18 15:14:49.470987,-28.0
2023-12-18 15:14:49.478676,-90.0
2023-12-18 15:14:49.486365,-69.0
2023-12-18 15:14:49.494054,-64.0
2023-12-18 15:14:49.501743,-105.0
2023-12-18 15:14:49.509432,-93.0
2023-12-18 15:14:49.517121,-45.0
2023-12-18 15:14:49.524810,-19.0
2023-12-18 15:14:49.532498,-9.0
2023-12-18 15:14:49.540187,-2.0
2023-12-18 15:14:49.547876,19.0
2023-12-18 15:14:49.555565,52.0
2023-12-18 15:14:49.563254,78.0
2023-12-18 15:14:49.570943,102.0
2023-12-18 15:14:49.578632,131.0
2023-12-18 15:14:49.586321,143.0
2023-12-18 15:14:49.594010,148.0
2023-12-18 15:14:49.601699,171.0
2023-12-18 15:14:49.609388,198.0
2023-12-18 15:14:49.617077,198.0
2023-12-18 15:14:49.624766,169.0
2023-12-18 15:14:49.632455,114.0
2023-12-18 15:14:49.640144,47.0
2023-12-18 15:14:49.647833,-19.0
2023-12-18 15:14:49.655522,-78.0
2023-12-18 15:14:49.663211,-131.0
2023-12-18 15:14:49.670900,-176.0
2023-12-18 15:14:49.678589,-198.0
2023-12-18 15:14:49.686278,-207.0
2023-12-18 15:14:49.693967,-214.0
2023-12-18 15:14:49.701656,-210.0
2023-12-18 15:14:49.709345,-207.0
2023-12-18 15:14:49.717034,-214.0
2023-12-18 15:14:49.724723,-210.0
2023-12-18 15:14:49.732412,-195.0
2023-12-18 15:14:49.740101,-186.0
2023-12-18 15:14:49.747790,-181.0
2023-12-18 15:14:49.755479,-179.0
2023-12-18 15:14:49.763168,-181.0
2023-12-18 15:14:49.770857,-174.0
2023-12-18 15:14:49.778546,-157.0
2023-12-18 15:14:49.786235,-143.0
2023-12-18 15:14:49.793924,-140.0
2023-12-18 15:14:49.801613,-148.0
2023-12-18 15:14:49.809302,-148.0
2023-12-18 15:14:49.816991,-133.0
2023-12-18 15:14:49.824680,-128.0
2023-12-18 15:14:49.832369,-138.0
2023-12-18 15:14:49.840058,-140.0
2023-12-18 15:14:49.847747,-140.0
2023-12-18 15:14:49.855436,-155.0
2023-12-18 15:14:49.863125,-150.0
2023-12-18 15:14:49.870814,-117.0
2023-12-18 15:14:49.878503,-90.0
2023-12-18 15:14:49.886192,-81.0
2023-12-18 15:14:49.893881,-64.0
2023-12-18 15:14:49.901570,-74.0
2023-12-18 15:14:49.909259,-107.0
2023-12-18 15:14:49.916948,-119.0
2023-12-18 15:14:49.924637,-107.0
2023-12-18 15:14:49.932326,-107.0
2023-12-18 15:14:49.940015,-119.0
2023-12-18 15:14:49.947704,-114.0
2023-12-18 15:14:49.955393,-105.0
2023-12-18 15:14:49.963082,-114.0
2023-12-18 15:14:49.970771,-112.0
2023-12-18 15:14:49.978460,-90.0
2023-12-18 15:14:49.986149,-90.0
2023-12-18 15:14:49.993838,-69.0
2023-12-18 15:14:50.001527,52.0
2023-12-18 15:14:50.009216,262.0
2023-12-18 15:14:50.016905,465.0
2023-12-18 15:14:50.024594,472.0
2023-12-18 15:14:50.032283,119.0
2023-12-18 15:14:50.039972,-241.0
2023-12-18 15:14:50.047661,-179.0
2023-12-18 15:14:50.055350,-21.0
2023-12-18 15:14:50.063039,-69.0
2023-12-18 15:14:50.070728,-100.0
2023-12-18 15:14:50.078417,-69.0
2023-12-18 15:14:50.086106,-102.0
2023-12-18 15:14:50.093795,-117.0
2023-12-18 15:14:50.101483,-83.0
2023-12-18 15:14:50.109172,-66.0
2023-12-18 15:14:50.116861,-38.0
2023-12-18 15:14:50.124550,0.0
2023-12-18 15:14:50.132239,4.0
2023-12-18 15:14:50.139928,23.0
2023-12-18 15:14:50.147617,71.0
2023-12-18 15:14:50.155306,97.0
2023-12-18 15:14:50.162995,112.0
2023-12-18 15:14:50.170684,140.0
2023-12-18 15:14:50.178373,169.0
2023-12-18 15:14:50.186062,200.0
2023-12-18 15:14:50.193751,238.0
2023-12-18 15:14:50.201440,248.0
2023-12-18 15:14:50.209129,229.0
2023-12-18 15:14:50.216818,200.0
2023-12-18 15:14:50.224507,148.0
2023-12-18 15:14:50.232196,66.0
2023-12-18 15:14:50.239885,-16.0
2023-12-18 15:14:50.247574,-71.0
2023-12-18 15:14:50.255263,-121.0
2023-12-18 15:14:50.262952,-174.0
2023-12-18 15:14:50.270641,-200.0
2023-12-18 15:14:50.278330,-193.0
2023-12-18 15:14:50.286019,-193.0
2023-12-18 15:14:50.293708,-200.0
2023-12-18 15:14:50.301397,-195.0
2023-12-18 15:14:50.309086,-193.0
2023-12-18 15:14:50.316775,-203.0
2023-12-18 15:14:50.324464,-195.0
2023-12-18 15:14:50.332153,-171.0
2023-12-18 15:14:50.339842,-164.0
2023-12-18 15:14:50.347531,-179.0
2023-12-18 15:14:50.355220,-188.0
2023-12-18 15:14:50.362909,-186.0
2023-12-18 15:14:50.370598,-167.0
2023-12-18 15:14:50.378287,-152.0
2023-12-18 15:14:50.385976,-155.0
2023-12-18 15:14:50.393665,-145.0
2023-12-18 15:14:50.401354,-138.0
2023-12-18 15:14:50.409043,-152.0
2023-12-18 15:14:50.416732,-143.0
2023-12-18 15:14:50.424421,-102.0
2023-12-18 15:14:50.432110,-93.0
2023-12-18 15:14:50.439799,-121.0
2023-12-18 15:14:50.447488,-124.0
2023-12-18 15:14:50.455177,-78.0
2023-12-18 15:14:50.462866,-52.0
2023-12-18 15:14:50.470555,-66.0
2023-12-18 15:14:50.478244,-57.0
2023-12-18 15:14:50.485933,-38.0
2023-12-18 15:14:50.493622,-64.0
2023-12-18 15:14:50.501311,-105.0
2023-12-18 15:14:50.509000,-93.0
2023-12-18 15:14:50.516689,-62.0
2023-12-18 15:14:50.524378,-76.0
2023-12-18 15:14:50.532067,-95.0
2023-12-18 15:14:50.539756,-97.0
2023-12-18 15:14:50.547445,-97.0
2023-12-18 15:14:50.555134,-83.0
2023-12-18 15:14:50.562823,-74.0
2023-12-18 15:14:50.570512,-88.0
2023-12-18 15:14:50.578201,-74.0
2023-12-18 15:14:50.585890,35.0
2023-12-18 15:14:50.593579,241.0
2023-12-18 15:14:50.601268,482.0
2023-12-18 15:14:50.608957,566.0
2023-12-18 15:14:50.616646,248.0
2023-12-18 15:14:50.624335,-191.0
2023-12-18 15:14:50.632024,-210.0
2023-12-18 15:14:50.639713,-19.0
2023-12-18 15:14:50.647402,-38.0
2023-12-18 15:14:50.655091,-100.0
2023-12-18 15:14:50.662780,-69.0
2023-12-18 15:14:50.670469,-76.0
2023-12-18 15:14:50.678157,-102.0
2023-12-18 15:14:50.685846,-76.0
2023-12-18 15:14:50.693535,-40.0
2023-12-18 15:14:50.701224,-35.0
2023-12-18 15:14:50.708913,-42.0
2023-12-18 15:14:50.716602,-31.0
2023-12-18 15:14:50.724291,7.0
2023-12-18 15:14:50.731980,28.0
2023-12-18 15:14:50.739669,45.0
2023-12-18 15:14:50.747358,93.0
2023-12-18 15:14:50.755047,128.0
2023-12-18 15:14:50.762736,150.0
2023-12-18 15:14:50.770425,174.0
2023-12-18 15:14:50.778114,195.0
2023-12-18 15:14:50.785803,212.0
2023-12-18 15:14:50.793492,207.0
2023-12-18 15:14:50.801181,171.0
2023-12-18 15:14:50.808870,102.0
2023-12-18 15:14:50.816559,14.0
2023-12-18 15:14:50.824248,-62.0
2023-12-18 15:14:50.831937,-119.0
2023-12-18 15:14:50.839626,-176.0
2023-12-18 15:14:50.847315,-226.0
2023-12-18 15:14:50.855004,-257.0
2023-12-18 15:14:50.862693,-269.0
2023-12-18 15:14:50.870382,-262.0
2023-12-18 15:14:50.878071,-248.0
2023-12-18 15:14:50.885760,-238.0
2023-12-18 15:14:50.893449,-241.0
2023-12-18 15:14:50.901138,-234.0
2023-12-18 15:14:50.908827,-222.0
2023-12-18 15:14:50.916516,-214.0
2023-12-18 15:14:50.924205,-195.0
2023-12-18 15:14:50.931894,-186.0
2023-12-18 15:14:50.939583,-191.0
2023-12-18 15:14:50.947272,-183.0
2023-12-18 15:14:50.954961,-174.0
2023-12-18 15:14:50.962650,-167.0
2023-12-18 15:14:50.970339,-162.0
2023-12-18 15:14:50.978028,-162.0
2023-12-18 15:14:50.985717,-164.0
2023-12-18 15:14:50.993406,-155.0
2023-12-18 15:14:51.001095,-152.0
2023-12-18 15:14:51.008784,-145.0
2023-12-18 15:14:51.016473,-128.0
2023-12-18 15:14:51.024162,-131.0
2023-12-18 15:14:51.031851,-128.0
2023-12-18 15:14:51.039540,-109.0
2023-12-18 15:14:51.047229,-102.0
2023-12-18 15:14:51.054918,-102.0
2023-12-18 15:14:51.062607,-83.0
2023-12-18 15:14:51.070296,-71.0
2023-12-18 15:14:51.077985,-85.0
2023-12-18 15:14:51.085674,-100.0
2023-12-18 15:14:51.093363,-107.0
2023-12-18 15:14:51.101052,-117.0
2023-12-18 15:14:51.108741,-121.0
2023-12-18 15:14:51.116430,-126.0
2023-12-18 15:14:51.124119,-124.0
2023-12-18 15:14:51.131808,-97.0
2023-12-18 15:14:51.139497,-85.0
2023-12-18 15:14:51.147186,-102.0
2023-12-18 15:14:51.154875,-107.0
2023-12-18 15:14:51.162564,-105.0
2023-12-18 15:14:51.170253,-59.0
2023-12-18 15:14:51.177942,95.0
2023-12-18 15:14:51.185631,305.0
2023-12-18 15:14:51.193320,415.0
2023-12-18 15:14:51.201009,241.0
2023-12-18 15:14:51.208698,-133.0
2023-12-18 15:14:51.216387,-262.0
2023-12-18 15:14:51.224076,-95.0
2023-12-18 15:14:51.231765,-40.0
2023-12-18 15:14:51.239454,-107.0
2023-12-18 15:14:51.247143,-105.0
2023-12-18 15:14:51.254831,-76.0
2023-12-18 15:14:51.262520,-71.0
2023-12-18 15:14:51.270209,-64.0
2023-12-18 15:14:51.277898,-42.0
2023-12-18 15:14:51.285587,-28.0
2023-12-18 15:14:51.293276,-16.0
2023-12-18 15:14:51.300965,2.0
2023-12-18 15:14:51.308654,19.0
2023-12-18 15:14:51.316343,35.0
2023-12-18 15:14:51.324032,69.0
2023-12-18 15:14:51.331721,107.0
2023-12-18 15:14:51.339410,131.0
2023-12-18 15:14:51.347099,148.0
2023-12-18 15:14:51.354788,171.0
2023-12-18 15:14:51.362477,191.0
2023-12-18 15:14:51.370166,195.0
2023-12-18 15:14:51.377855,183.0
2023-12-18 15:14:51.385544,157.0
2023-12-18 15:14:51.393233,112.0
2023-12-18 15:14:51.400922,40.0
2023-12-18 15:14:51.408611,-28.0
2023-12-18 15:14:51.416300,-76.0
2023-12-18 15:14:51.423989,-124.0
2023-12-18 15:14:51.431678,-176.0
2023-12-18 15:14:51.439367,-203.0
2023-12-18 15:14:51.447056,-205.0
2023-12-18 15:14:51.454745,-207.0
2023-12-18 15:14:51.462434,-207.0
2023-12-18 15:14:51.470123,-200.0
2023-12-18 15:14:51.477812,-195.0
2023-12-18 15:14:51.485501,-198.0
2023-12-18 15:14:51.493190,-191.0
2023-12-18 15:14:51.500879,-176.0
2023-12-18 15:14:51.508568,-162.0
2023-12-18 15:14:51.516257,-162.0
2023-12-18 15:14:51.523946,-164.0
2023-12-18 15:14:51.531635,-160.0
2023-12-18 15:14:51.539324,-152.0
2023-12-18 15:14:51.547013,-143.0
2023-12-18 15:14:51.554702,-136.0
2023-12-18 15:14:51.562391,-140.0
2023-12-18 15:14:51.570080,-148.0
2023-12-18 15:14:51.577769,-136.0
2023-12-18 15:14:51.585458,-114.0
2023-12-18 15:14:51.593147,-105.0
2023-12-18 15:14:51.600836,-114.0
2023-12-18 15:14:51.608525,-119.0
2023-12-18 15:14:51.616214,-100.0
2023-12-18 15:14:51.623903,-74.0
2023-12-18 15:14:51.631592,-57.0
2023-12-18 15:14:51.639281,-40.0
2023-12-18 15:14:51.646970,-23.0
2023-12-18 15:14:51.654659,-40.0
2023-12-18 15:14:51.662348,-81.0
2023-12-18 15:14:51.670037,-97.0
2023-12-18 15:14:51.677726,-85.0
2023-12-18 15:14:51.685415,-78.0
2023-12-18 15:14:51.693104,-85.0
2023-12-18 15:14:51.700793,-105.0
2023-12-18 15:14:51.708482,-117.0
2023-12-18 15:14:51.716171,-112.0
2023-12-18 15:14:51.723860,-107.0
2023-12-18 15:14:51.731549,-100.0
2023-12-18 15:14:51.739238,-100.0
2023-12-18 15:14:51.746927,-102.0
2023-12-18 15:14:51.754616,-45.0
2023-12-18 15:14:51.762305,102.0
2023-12-18 15:14:51.769994,279.0
2023-12-18 15:14:51.777683,341.0
2023-12-18 15:14:51.785372,121.0
2023-12-18 15:14:51.793061,-229.0
2023-12-18 15:14:51.800750,-277.0
2023-12-18 15:14:51.808439,-83.0
2023-12-18 15:14:51.816128,-33.0
2023-12-18 15:14:51.823816,-97.0
2023-12-18 15:14:51.831505,-97.0
2023-12-18 15:14:51.839194,-78.0
2023-12-18 15:14:51.846883,-78.0
2023-12-18 15:14:51.854572,-69.0
2023-12-18 15:14:51.862261,-71.0
2023-12-18 15:14:51.869950,-81.0
2023-12-18 15:14:51.877639,-66.0
2023-12-18 15:14:51.885328,-40.0
2023-12-18 15:14:51.893017,-7.0
2023-12-18 15:14:51.900706,28.0
2023-12-18 15:14:51.908395,54.0
2023-12-18 15:14:51.916084,90.0
2023-12-18 15:14:51.923773,136.0
2023-12-18 15:14:51.931462,157.0
2023-12-18 15:14:51.939151,167.0
2023-12-18 15:14:51.946840,191.0
2023-12-18 15:14:51.954529,205.0
2023-12-18 15:14:51.962218,191.0
2023-12-18 15:14:51.969907,160.0
2023-12-18 15:14:51.977596,124.0
2023-12-18 15:14:51.985285,66.0
2023-12-18 15:14:51.992974,-7.0
2023-12-18 15:14:52.000663,-69.0
2023-12-18 15:14:52.008352,-119.0
2023-12-18 15:14:52.016041,-164.0
2023-12-18 15:14:52.023730,-186.0
2023-12-18 15:14:52.031419,-188.0
2023-12-18 15:14:52.039108,-198.0
2023-12-18 15:14:52.046797,-198.0
2023-12-18 15:14:52.054486,-181.0
2023-12-18 15:14:52.062175,-179.0
2023-12-18 15:14:52.069864,-198.0
2023-12-18 15:14:52.077553,-193.0
2023-12-18 15:14:52.085242,-157.0
2023-12-18 15:14:52.092931,-138.0
2023-12-18 15:14:52.100620,-140.0
2023-12-18 15:14:52.108309,-133.0
2023-12-18 15:14:52.115998,-121.0
2023-12-18 15:14:52.123687,-124.0
2023-12-18 15:14:52.131376,-124.0
2023-12-18 15:14:52.139065,-112.0
2023-12-18 15:14:52.146754,-107.0
2023-12-18 15:14:52.154443,-114.0
2023-12-18 15:14:52.162132,-112.0
2023-12-18 15:14:52.169821,-102.0
2023-12-18 15:14:52.177510,-81.0
2023-12-18 15:14:52.185199,-54.0
2023-12-18 15:14:52.192888,-54.0
2023-12-18 15:14:52.200577,-59.0
2023-12-18 15:14:52.208266,-45.0
2023-12-18 15:14:52.215955,-31.0
2023-12-18 15:14:52.223644,-21.0
2023-12-18 15:14:52.231333,-26.0
2023-12-18 15:14:52.239022,-54.0
2023-12-18 15:14:52.246711,-71.0
2023-12-18 15:14:52.254400,-57.0
2023-12-18 15:14:52.262089,-62.0
2023-12-18 15:14:52.269778,-81.0
2023-12-18 15:14:52.277467,-88.0
2023-12-18 15:14:52.285156,-88.0
2023-12-18 15:14:52.292845,-107.0
2023-12-18 15:14:52.300534,-119.0
2023-12-18 15:14:52.308223,-112.0
2023-12-18 15:14:52.315912,-105.0
2023-12-18 15:14:52.323601,-74.0
2023-12-18 15:14:52.331290,40.0
2023-12-18 15:14:52.338979,262.0
2023-12-18 15:14:52.346668,499.0
2023-12-18 15:14:52.354357,499.0
2023-12-18 15:14:52.362046,93.0
2023-12-18 15:14:52.369735,-296.0
2023-12-18 15:14:52.377424,-222.0
2023-12-18 15:14:52.385113,-42.0
2023-12-18 15:14:52.392802,-93.0
2023-12-18 15:14:52.400490,-140.0
2023-12-18 15:14:52.408179,-90.0
2023-12-18 15:14:52.415868,-76.0
2023-12-18 15:14:52.423557,-85.0
2023-12-18 15:14:52.431246,-69.0
2023-12-18 15:14:52.438935,-59.0
2023-12-18 15:14:52.446624,-52.0
2023-12-18 15:14:52.454313,-21.0
2023-12-18 15:14:52.462002,14.0
2023-12-18 15:14:52.469691,23.0
2023-12-18 15:14:52.477380,38.0
2023-12-18 15:14:52.485069,78.0
2023-12-18 15:14:52.492758,114.0
2023-12-18 15:14:52.500447,148.0
2023-12-18 15:14:52.508136,186.0
2023-12-18 15:14:52.515825,217.0
2023-12-18 15:14:52.523514,214.0
2023-12-18 15:14:52.531203,195.0
2023-12-18 15:14:52.538892,179.0
2023-12-18 15:14:52.546581,148.0
2023-12-18 15:14:52.554270,90.0
2023-12-18 15:14:52.561959,14.0
2023-12-18 15:14:52.569648,-66.0
2023-12-18 15:14:52.577337,-126.0
2023-12-18 15:14:52.585026,-167.0
2023-12-18 15:14:52.592715,-188.0
2023-12-18 15:14:52.600404,-195.0
2023-12-18 15:14:52.608093,-207.0
2023-12-18 15:14:52.615782,-217.0
2023-12-18 15:14:52.623471,-212.0
2023-12-18 15:14:52.631160,-200.0
2023-12-18 15:14:52.638849,-195.0
2023-12-18 15:14:52.646538,-186.0
2023-12-18 15:14:52.654227,-181.0
2023-12-18 15:14:52.661916,-176.0
2023-12-18 15:14:52.669605,-167.0
2023-12-18 15:14:52.677294,-155.0
2023-12-18 15:14:52.684983,-152.0
2023-12-18 15:14:52.692672,-157.0
2023-12-18 15:14:52.700361,-148.0
2023-12-18 15:14:52.708050,-133.0
2023-12-18 15:14:52.715739,-124.0
2023-12-18 15:14:52.723428,-117.0
2023-12-18 15:14:52.731117,-114.0
2023-12-18 15:14:52.738806,-126.0
2023-12-18 15:14:52.746495,-131.0
2023-12-18 15:14:52.754184,-107.0
2023-12-18 15:14:52.761873,-83.0
2023-12-18 15:14:52.769562,-85.0
2023-12-18 15:14:52.777251,-85.0
2023-12-18 15:14:52.784940,-71.0
2023-12-18 15:14:52.792629,-54.0
2023-12-18 15:14:52.800318,-57.0
2023-12-18 15:14:52.808007,-74.0
2023-12-18 15:14:52.815696,-85.0
2023-12-18 15:14:52.823385,-97.0
2023-12-18 15:14:52.831074,-102.0
2023-12-18 15:14:52.838763,-95.0
2023-12-18 15:14:52.846452,-100.0
2023-12-18 15:14:52.854141,-107.0
2023-12-18 15:14:52.861830,-90.0
2023-12-18 15:14:52.869519,-85.0
2023-12-18 15:14:52.877208,-109.0
2023-12-18 15:14:52.884897,-117.0
2023-12-18 15:14:52.892586,-95.0
2023-12-18 15:14:52.900275,-16.0
2023-12-18 15:14:52.907964,171.0
2023-12-18 15:14:52.915653,398.0
2023-12-18 15:14:52.923342,477.0
2023-12-18 15:14:52.931031,222.0
2023-12-18 15:14:52.938720,-198.0
2023-12-18 15:14:52.946409,-286.0
2023-12-18 15:14:52.954098,-100.0
2023-12-18 15:14:52.961787,-85.0
2023-12-18 15:14:52.969475,-179.0
2023-12-18 15:14:52.977164,-152.0
2023-12-18 15:14:52.984853,-107.0
2023-12-18 15:14:52.992542,-119.0
2023-12-18 15:14:53.000231,-105.0
2023-12-18 15:14:53.007920,-76.0
2023-12-18 15:14:53.015609,-76.0
2023-12-18 15:14:53.023298,-64.0
2023-12-18 15:14:53.030987,-35.0
2023-12-18 15:14:53.038676,-16.0
2023-12-18 15:14:53.046365,4.0
2023-12-18 15:14:53.054054,38.0
2023-12-18 15:14:53.061743,81.0
2023-12-18 15:14:53.069432,117.0
2023-12-18 15:14:53.077121,145.0
2023-12-18 15:14:53.084810,167.0
2023-12-18 15:14:53.092499,183.0
2023-12-18 15:14:53.100188,188.0
2023-12-18 15:14:53.107877,181.0
2023-12-18 15:14:53.115566,157.0
2023-12-18 15:14:53.123255,105.0
2023-12-18 15:14:53.130944,33.0
2023-12-18 15:14:53.138633,-52.0
2023-12-18 15:14:53.146322,-133.0
2023-12-18 15:14:53.154011,-176.0
2023-12-18 15:14:53.161700,-193.0
2023-12-18 15:14:53.169389,-200.0
2023-12-18 15:14:53.177078,-205.0
2023-12-18 15:14:53.184767,-212.0
2023-12-18 15:14:53.192456,-212.0
2023-12-18 15:14:53.200145,-203.0
2023-12-18 15:14:53.207834,-203.0
2023-12-18 15:14:53.215523,-198.0
2023-12-18 15:14:53.223212,-179.0
2023-12-18 15:14:53.230901,-169.0
2023-12-18 15:14:53.238590,-179.0
2023-12-18 15:14:53.246279,-171.0
2023-12-18 15:14:53.253968,-152.0
2023-12-18 15:14:53.261657,-155.0
2023-12-18 15:14:53.269346,-160.0
2023-12-18 15:14:53.277035,-152.0
2023-12-18 15:14:53.284724,-150.0
2023-12-18 15:14:53.292413,-143.0
2023-12-18 15:14:53.300102,-128.0
2023-12-18 15:14:53.307791,-128.0
2023-12-18 15:14:53.315480,-126.0
2023-12-18 15:14:53.323169,-109.0
2023-12-18 15:14:53.330858,-93.0
2023-12-18 15:14:53.338547,-81.0
2023-12-18 15:14:53.346236,-64.0
2023-12-18 15:14:53.353925,-47.0
2023-12-18 15:14:53.361614,-45.0
2023-12-18 15:14:53.369303,-59.0
2023-12-18 15:14:53.376992,-83.0
2023-12-18 15:14:53.384681,-95.0
2023-12-18 15:14:53.392370,-97.0
2023-12-18 15:14:53.400059,-117.0
2023-12-18 15:14:53.407748,-136.0
2023-12-18 15:14:53.415437,-140.0
2023-12-18 15:14:53.423126,-136.0
2023-12-18 15:14:53.430815,-138.0
2023-12-18 15:14:53.438504,-140.0
2023-12-18 15:14:53.446193,-136.0
2023-12-18 15:14:53.453882,-138.0
2023-12-18 15:14:53.461571,-124.0
2023-12-18 15:14:53.469260,-45.0
2023-12-18 15:14:53.476949,107.0
2023-12-18 15:14:53.484638,293.0
2023-12-18 15:14:53.492327,396.0
2023-12-18 15:14:53.500016,217.0
2023-12-18 15:14:53.507705,-160.0
2023-12-18 15:14:53.515394,-272.0
2023-12-18 15:14:53.523083,-95.0
2023-12-18 15:14:53.530772,-47.0
2023-12-18 15:14:53.538461,-109.0
2023-12-18 15:14:53.546149,-88.0
2023-12-18 15:14:53.553838,-66.0
2023-12-18 15:14:53.561527,-74.0
2023-12-18 15:14:53.569216,-45.0
2023-12-18 15:14:53.576905,-21.0
2023-12-18 15:14:53.584594,-28.0
2023-12-18 15:14:53.592283,-14.0
2023-12-18 15:14:53.599972,19.0
2023-12-18 15:14:53.607661,31.0
2023-12-18 15:14:53.615350,38.0
2023-12-18 15:14:53.623039,81.0
2023-12-18 15:14:53.630728,136.0
2023-12-18 15:14:53.638417,167.0
2023-12-18 15:14:53.646106,198.0
2023-12-18 15:14:53.653795,234.0
2023-12-18 15:14:53.661484,255.0
2023-12-18 15:14:53.669173,257.0
2023-12-18 15:14:53.676862,248.0
2023-12-18 15:14:53.684551,214.0
2023-12-18 15:14:53.692240,157.0
2023-12-18 15:14:53.699929,90.0
2023-12-18 15:14:53.707618,21.0
2023-12-18 15:14:53.715307,-47.0
2023-12-18 15:14:53.722996,-102.0
2023-12-18 15:14:53.730685,-136.0
2023-12-18 15:14:53.738374,-164.0
2023-12-18 15:14:53.746063,-195.0
2023-12-18 15:14:53.753752,-203.0
2023-12-18 15:14:53.761441,-198.0
2023-12-18 15:14:53.769130,-193.0
2023-12-18 15:14:53.776819,-191.0
2023-12-18 15:14:53.784508,-188.0
2023-12-18 15:14:53.792197,-183.0
2023-12-18 15:14:53.799886,-174.0
2023-12-18 15:14:53.807575,-167.0
2023-12-18 15:14:53.815264,-160.0
2023-12-18 15:14:53.822953,-148.0
2023-12-18 15:14:53.830642,-131.0
2023-12-18 15:14:53.838331,-121.0
2023-12-18 15:14:53.846020,-124.0
2023-12-18 15:14:53.853709,-121.0
2023-12-18 15:14:53.861398,-121.0
2023-12-18 15:14:53.869087,-124.0
2023-12-18 15:14:53.876776,-119.0
2023-12-18 15:14:53.884465,-112.0
2023-12-18 15:14:53.892154,-93.0
2023-12-18 15:14:53.899843,-78.0
2023-12-18 15:14:53.907532,-85.0
2023-12-18 15:14:53.915221,-83.0
2023-12-18 15:14:53.922910,-52.0
2023-12-18 15:14:53.930599,-33.0
2023-12-18 15:14:53.938288,-52.0
2023-12-18 15:14:53.945977,-95.0
2023-12-18 15:14:53.953666,-112.0
2023-12-18 15:14:53.961355,-102.0
2023-12-18 15:14:53.969044,-102.0
2023-12-18 15:14:53.976733,-107.0
2023-12-18 15:14:53.984422,-97.0
2023-12-18 15:14:53.992111,-97.0
2023-12-18 15:14:53.999800,-117.0
2023-12-18 15:14:54.007489,-114.0
2023-12-18 15:14:54.015178,-100.0
2023-12-18 15:14:54.022867,-90.0
2023-12-18 15:14:54.030556,-69.0
2023-12-18 15:14:54.038245,-2.0
2023-12-18 15:14:54.045934,150.0
2023-12-18 15:14:54.053623,348.0
2023-12-18 15:14:54.061312,358.0
2023-12-18 15:14:54.069001,14.0
2023-12-18 15:14:54.076690,-312.0
2023-12-18 15:14:54.084379,-229.0
2023-12-18 15:14:54.092068,-47.0
2023-12-18 15:14:54.099757,-90.0
2023-12-18 15:14:54.107446,-143.0
2023-12-18 15:14:54.115135,-93.0
2023-12-18 15:14:54.122823,-74.0
2023-12-18 15:14:54.130512,-88.0
2023-12-18 15:14:54.138201,-71.0
2023-12-18 15:14:54.145890,-52.0
2023-12-18 15:14:54.153579,-42.0
2023-12-18 15:14:54.161268,-19.0
2023-12-18 15:14:54.168957,4.0
2023-12-18 15:14:54.176646,21.0
2023-12-18 15:14:54.184335,40.0
2023-12-18 15:14:54.192024,52.0
2023-12-18 15:14:54.199713,76.0
2023-12-18 15:14:54.207402,128.0
2023-12-18 15:14:54.215091,179.0
2023-12-18 15:14:54.222780,205.0
2023-12-18 15:14:54.230469,210.0
2023-12-18 15:14:54.238158,200.0
2023-12-18 15:14:54.245847,181.0
2023-12-18 15:14:54.253536,152.0
2023-12-18 15:14:54.261225,100.0
2023-12-18 15:14:54.268914,19.0
2023-12-18 15:14:54.276603,-78.0
2023-12-18 15:14:54.284292,-160.0
2023-12-18 15:14:54.291981,-193.0
2023-12-18 15:14:54.299670,-193.0
2023-12-18 15:14:54.307359,-205.0
2023-12-18 15:14:54.315048,-229.0
2023-12-18 15:14:54.322737,-236.0
2023-12-18 15:14:54.330426,-234.0
2023-12-18 15:14:54.338115,-234.0
2023-12-18 15:14:54.345804,-234.0
2023-12-18 15:14:54.353493,-222.0
2023-12-18 15:14:54.361182,-207.0
2023-12-18 15:14:54.368871,-205.0
2023-12-18 15:14:54.376560,-203.0
2023-12-18 15:14:54.384249,-198.0
2023-12-18 15:14:54.391938,-210.0
2023-12-18 15:14:54.399627,-217.0
2023-12-18 15:14:54.407316,-198.0
2023-12-18 15:14:54.415005,-191.0
2023-12-18 15:14:54.422694,-198.0
2023-12-18 15:14:54.430383,-188.0
2023-12-18 15:14:54.438072,-179.0
2023-12-18 15:14:54.445761,-179.0
2023-12-18 15:14:54.453450,-162.0
2023-12-18 15:14:54.461139,-143.0
2023-12-18 15:14:54.468828,-131.0
2023-12-18 15:14:54.476517,-117.0
2023-12-18 15:14:54.484206,-114.0
2023-12-18 15:14:54.491895,-109.0
2023-12-18 15:14:54.499584,-102.0
2023-12-18 15:14:54.507273,-119.0
2023-12-18 15:14:54.514962,-143.0
2023-12-18 15:14:54.522651,-145.0
2023-12-18 15:14:54.530340,-155.0
2023-12-18 15:14:54.538029,-179.0
2023-12-18 15:14:54.545718,-183.0
2023-12-18 15:14:54.553407,-169.0
2023-12-18 15:14:54.561096,-160.0
2023-12-18 15:14:54.568785,-150.0
2023-12-18 15:14:54.576474,-145.0
2023-12-18 15:14:54.584163,-157.0
2023-12-18 15:14:54.591852,-143.0
2023-12-18 15:14:54.599541,-64.0
2023-12-18 15:14:54.607230,114.0
2023-12-18 15:14:54.614919,384.0
2023-12-18 15:14:54.622608,544.0
2023-12-18 15:14:54.630297,300.0
2023-12-18 15:14:54.637986,-186.0
2023-12-18 15:14:54.645675,-329.0
2023-12-18 15:14:54.653364,-124.0
2023-12-18 15:14:54.661053,-64.0
2023-12-18 15:14:54.668742,-140.0
2023-12-18 15:14:54.676431,-131.0
2023-12-18 15:14:54.684120,-97.0
2023-12-18 15:14:54.691808,-97.0
2023-12-18 15:14:54.699497,-83.0
2023-12-18 15:14:54.707186,-54.0
2023-12-18 15:14:54.714875,-38.0
2023-12-18 15:14:54.722564,-26.0
2023-12-18 15:14:54.730253,-9.0
2023-12-18 15:14:54.737942,4.0
2023-12-18 15:14:54.745631,21.0
2023-12-18 15:14:54.753320,57.0
2023-12-18 15:14:54.761009,97.0
2023-12-18 15:14:54.768698,121.0
2023-12-18 15:14:54.776387,150.0
2023-12-18 15:14:54.784076,183.0
2023-12-18 15:14:54.791765,200.0
2023-12-18 15:14:54.799454,207.0
2023-12-18 15:14:54.807143,210.0
2023-12-18 15:14:54.814832,183.0
2023-12-18 15:14:54.822521,131.0
2023-12-18 15:14:54.830210,64.0
2023-12-18 15:14:54.837899,-14.0
2023-12-18 15:14:54.845588,-88.0
2023-12-18 15:14:54.853277,-143.0
2023-12-18 15:14:54.860966,-179.0
2023-12-18 15:14:54.868655,-207.0
2023-12-18 15:14:54.876344,-214.0
2023-12-18 15:14:54.884033,-207.0
2023-12-18 15:14:54.891722,-205.0
2023-12-18 15:14:54.899411,-217.0
2023-12-18 15:14:54.907100,-229.0
2023-12-18 15:14:54.914789,-226.0
2023-12-18 15:14:54.922478,-217.0
2023-12-18 15:14:54.930167,-212.0
2023-12-18 15:14:54.937856,-205.0
2023-12-18 15:14:54.945545,-193.0
2023-12-18 15:14:54.953234,-188.0
2023-12-18 15:14:54.960923,-183.0
2023-12-18 15:14:54.968612,-179.0
2023-12-18 15:14:54.976301,-171.0
2023-12-18 15:14:54.983990,-176.0
2023-12-18 15:14:54.991679,-181.0
2023-12-18 15:14:54.999368,-171.0
2023-12-18 15:14:55.007057,-157.0
2023-12-18 15:14:55.014746,-148.0
2023-12-18 15:14:55.022435,-143.0
2023-12-18 15:14:55.030124,-126.0
2023-12-18 15:14:55.037813,-107.0
2023-12-18 15:14:55.045502,-93.0
2023-12-18 15:14:55.053191,-83.0
2023-12-18 15:14:55.060880,-76.0
2023-12-18 15:14:55.068569,-95.0
2023-12-18 15:14:55.076258,-143.0
2023-12-18 15:14:55.083947,-171.0
2023-12-18 15:14:55.091636,-160.0
2023-12-18 15:14:55.099325,-145.0
2023-12-18 15:14:55.107014,-145.0
2023-12-18 15:14:55.114703,-145.0
2023-12-18 15:14:55.122392,-148.0
2023-12-18 15:14:55.130081,-145.0
2023-12-18 15:14:55.137770,-133.0
2023-12-18 15:14:55.145459,-126.0
2023-12-18 15:14:55.153148,-124.0
2023-12-18 15:14:55.160837,-81.0
2023-12-18 15:14:55.168526,45.0
2023-12-18 15:14:55.176215,255.0
2023-12-18 15:14:55.183904,465.0
2023-12-18 15:14:55.191593,439.0
2023-12-18 15:14:55.199282,40.0
2023-12-18 15:14:55.206971,-277.0
2023-12-18 15:14:55.214660,-160.0
2023-12-18 15:14:55.222349,-28.0
2023-12-18 15:14:55.230038,-109.0
2023-12-18 15:14:55.237727,-121.0
2023-12-18 15:14:55.245416,-62.0
2023-12-18 15:14:55.253105,-76.0
2023-12-18 15:14:55.260794,-93.0
2023-12-18 15:14:55.268482,-54.0
2023-12-18 15:14:55.276171,-26.0
2023-12-18 15:14:55.283860,-14.0
2023-12-18 15:14:55.291549,2.0
2023-12-18 15:14:55.299238,23.0
2023-12-18 15:14:55.306927,47.0
2023-12-18 15:14:55.314616,78.0
2023-12-18 15:14:55.322305,112.0
2023-12-18 15:14:55.329994,145.0
2023-12-18 15:14:55.337683,183.0
2023-12-18 15:14:55.345372,214.0
2023-12-18 15:14:55.353061,236.0
2023-12-18 15:14:55.360750,248.0
2023-12-18 15:14:55.368439,246.0
2023-12-18 15:14:55.376128,229.0
2023-12-18 15:14:55.383817,193.0
2023-12-18 15:14:55.391506,119.0
2023-12-18 15:14:55.399195,31.0
2023-12-18 15:14:55.406884,-47.0
2023-12-18 15:14:55.414573,-117.0
2023-12-18 15:14:55.422262,-162.0
2023-12-18 15:14:55.429951,-188.0
2023-12-18 15:14:55.437640,-210.0
2023-12-18 15:14:55.445329,-214.0
2023-12-18 15:14:55.453018,-210.0
2023-12-18 15:14:55.460707,-212.0
2023-12-18 15:14:55.468396,-217.0
2023-12-18 15:14:55.476085,-222.0
2023-12-18 15:14:55.483774,-219.0
2023-12-18 15:14:55.491463,-207.0
2023-12-18 15:14:55.499152,-193.0
2023-12-18 15:14:55.506841,-183.0
2023-12-18 15:14:55.514530,-186.0
2023-12-18 15:14:55.522219,-188.0
2023-12-18 15:14:55.529908,-188.0
2023-12-18 15:14:55.537597,-179.0
2023-12-18 15:14:55.545286,-169.0
2023-12-18 15:14:55.552975,-162.0
2023-12-18 15:14:55.560664,-152.0
2023-12-18 15:14:55.568353,-148.0
2023-12-18 15:14:55.576042,-140.0
2023-12-18 15:14:55.583731,-126.0
2023-12-18 15:14:55.591420,-109.0
2023-12-18 15:14:55.599109,-93.0
2023-12-18 15:14:55.606798,-85.0
2023-12-18 15:14:55.614487,-88.0
2023-12-18 15:14:55.622176,-83.0
2023-12-18 15:14:55.629865,-81.0
2023-12-18 15:14:55.637554,-95.0
2023-12-18 15:14:55.645243,-107.0
