time,ECG
2023-08-09 10:00:13.352885,-76.0
2023-08-09 10:00:13.360575,-168.0
2023-08-09 10:00:13.368265,-187.0
2023-08-09 10:00:13.375955,-132.0
2023-08-09 10:00:13.383644,-144.0
2023-08-09 10:00:13.391334,-161.0
2023-08-09 10:00:13.399024,-129.0
2023-08-09 10:00:13.406714,-120.0
2023-08-09 10:00:13.414404,-139.0
2023-08-09 10:00:13.422093,-134.0
2023-08-09 10:00:13.429783,-110.0
2023-08-09 10:00:13.437473,-96.0
2023-08-09 10:00:13.445163,-91.0
2023-08-09 10:00:13.452853,-86.0
2023-08-09 10:00:13.460543,-91.0
2023-08-09 10:00:13.468232,-98.0
2023-08-09 10:00:13.475922,-88.0
2023-08-09 10:00:13.483612,-64.0
2023-08-09 10:00:13.491302,-43.0
2023-08-09 10:00:13.498992,-31.0
2023-08-09 10:00:13.506681,-31.0
2023-08-09 10:00:13.514371,-16.0
2023-08-09 10:00:13.522061,-2.0
2023-08-09 10:00:13.529751,16.0
2023-08-09 10:00:13.537441,38.0
2023-08-09 10:00:13.545130,45.0
2023-08-09 10:00:13.552820,74.0
2023-08-09 10:00:13.560510,105.0
2023-08-09 10:00:13.568200,103.0
2023-08-09 10:00:13.575890,110.0
2023-08-09 10:00:13.583580,125.0
2023-08-09 10:00:13.591269,110.0
2023-08-09 10:00:13.598959,69.0
2023-08-09 10:00:13.606649,16.0
2023-08-09 10:00:13.614339,-36.0
2023-08-09 10:00:13.622029,-91.0
2023-08-09 10:00:13.629718,-132.0
2023-08-09 10:00:13.637408,-158.0
2023-08-09 10:00:13.645098,-182.0
2023-08-09 10:00:13.652788,-177.0
2023-08-09 10:00:13.660478,-180.0
2023-08-09 10:00:13.668167,-197.0
2023-08-09 10:00:13.675857,-189.0
2023-08-09 10:00:13.683547,-187.0
2023-08-09 10:00:13.691237,-197.0
2023-08-09 10:00:13.698927,-177.0
2023-08-09 10:00:13.706616,-153.0
2023-08-09 10:00:13.714306,-151.0
2023-08-09 10:00:13.721996,-156.0
2023-08-09 10:00:13.729686,-163.0
2023-08-09 10:00:13.737376,-161.0
2023-08-09 10:00:13.745066,-144.0
2023-08-09 10:00:13.752755,-134.0
2023-08-09 10:00:13.760445,-137.0
2023-08-09 10:00:13.768135,-139.0
2023-08-09 10:00:13.775825,-141.0
2023-08-09 10:00:13.783515,-141.0
2023-08-09 10:00:13.791204,-137.0
2023-08-09 10:00:13.798894,-132.0
2023-08-09 10:00:13.806584,-134.0
2023-08-09 10:00:13.814274,-144.0
2023-08-09 10:00:13.821964,-137.0
2023-08-09 10:00:13.829653,-122.0
2023-08-09 10:00:13.837343,-129.0
2023-08-09 10:00:13.845033,-139.0
2023-08-09 10:00:13.852723,-134.0
2023-08-09 10:00:13.860413,-129.0
2023-08-09 10:00:13.868102,-127.0
2023-08-09 10:00:13.875792,-125.0
2023-08-09 10:00:13.883482,-127.0
2023-08-09 10:00:13.891172,-125.0
2023-08-09 10:00:13.898862,-110.0
2023-08-09 10:00:13.906552,-91.0
2023-08-09 10:00:13.914241,-76.0
2023-08-09 10:00:13.921931,-69.0
2023-08-09 10:00:13.929621,-64.0
2023-08-09 10:00:13.937311,-55.0
2023-08-09 10:00:13.945001,-55.0
2023-08-09 10:00:13.952690,-81.0
2023-08-09 10:00:13.960380,-115.0
2023-08-09 10:00:13.968070,-122.0
2023-08-09 10:00:13.975760,-120.0
2023-08-09 10:00:13.983450,-120.0
2023-08-09 10:00:13.991139,-115.0
2023-08-09 10:00:13.998829,-113.0
2023-08-09 10:00:14.006519,-113.0
2023-08-09 10:00:14.014209,-113.0
2023-08-09 10:00:14.021899,-110.0
2023-08-09 10:00:14.029588,-110.0
2023-08-09 10:00:14.037278,-120.0
2023-08-09 10:00:14.044968,-120.0
2023-08-09 10:00:14.052658,9.0
2023-08-09 10:00:14.060348,391.0
2023-08-09 10:00:14.068038,848.0
2023-08-09 10:00:14.075727,964.0
2023-08-09 10:00:14.083417,480.0
2023-08-09 10:00:14.091107,-266.0
2023-08-09 10:00:14.098797,-505.0
2023-08-09 10:00:14.106487,-216.0
2023-08-09 10:00:14.114176,-84.0
2023-08-09 10:00:14.121866,-180.0
2023-08-09 10:00:14.129556,-182.0
2023-08-09 10:00:14.137246,-137.0
2023-08-09 10:00:14.144936,-153.0
2023-08-09 10:00:14.152625,-163.0
2023-08-09 10:00:14.160315,-149.0
2023-08-09 10:00:14.168005,-139.0
2023-08-09 10:00:14.175695,-132.0
2023-08-09 10:00:14.183385,-125.0
2023-08-09 10:00:14.191075,-120.0
2023-08-09 10:00:14.198764,-105.0
2023-08-09 10:00:14.206454,-91.0
2023-08-09 10:00:14.214144,-86.0
2023-08-09 10:00:14.221834,-79.0
2023-08-09 10:00:14.229524,-69.0
2023-08-09 10:00:14.237213,-62.0
2023-08-09 10:00:14.244903,-52.0
2023-08-09 10:00:14.252593,-38.0
2023-08-09 10:00:14.260283,-24.0
2023-08-09 10:00:14.267973,-12.0
2023-08-09 10:00:14.275662,4.0
2023-08-09 10:00:14.283352,26.0
2023-08-09 10:00:14.291042,36.0
2023-08-09 10:00:14.298732,52.0
2023-08-09 10:00:14.306422,79.0
2023-08-09 10:00:14.314111,98.0
2023-08-09 10:00:14.321801,103.0
2023-08-09 10:00:14.329491,117.0
2023-08-09 10:00:14.337181,137.0
2023-08-09 10:00:14.344871,134.0
2023-08-09 10:00:14.352561,120.0
2023-08-09 10:00:14.360250,88.0
2023-08-09 10:00:14.367940,38.0
2023-08-09 10:00:14.375630,-14.0
2023-08-09 10:00:14.383320,-52.0
2023-08-09 10:00:14.391010,-81.0
2023-08-09 10:00:14.398699,-108.0
2023-08-09 10:00:14.406389,-125.0
2023-08-09 10:00:14.414079,-129.0
2023-08-09 10:00:14.421769,-129.0
2023-08-09 10:00:14.429459,-129.0
2023-08-09 10:00:14.437148,-127.0
2023-08-09 10:00:14.444838,-122.0
2023-08-09 10:00:14.452528,-122.0
2023-08-09 10:00:14.460218,-120.0
2023-08-09 10:00:14.467908,-113.0
2023-08-09 10:00:14.475597,-105.0
2023-08-09 10:00:14.483287,-103.0
2023-08-09 10:00:14.490977,-101.0
2023-08-09 10:00:14.498667,-96.0
2023-08-09 10:00:14.506357,-93.0
2023-08-09 10:00:14.514047,-93.0
2023-08-09 10:00:14.521736,-93.0
2023-08-09 10:00:14.529426,-91.0
2023-08-09 10:00:14.537116,-93.0
2023-08-09 10:00:14.544806,-101.0
2023-08-09 10:00:14.552496,-101.0
2023-08-09 10:00:14.560185,-93.0
2023-08-09 10:00:14.567875,-93.0
2023-08-09 10:00:14.575565,-93.0
2023-08-09 10:00:14.583255,-91.0
2023-08-09 10:00:14.590945,-88.0
2023-08-09 10:00:14.598634,-93.0
2023-08-09 10:00:14.606324,-96.0
2023-08-09 10:00:14.614014,-93.0
2023-08-09 10:00:14.621704,-86.0
2023-08-09 10:00:14.629394,-86.0
2023-08-09 10:00:14.637083,-86.0
2023-08-09 10:00:14.644773,-84.0
2023-08-09 10:00:14.652463,-84.0
2023-08-09 10:00:14.660153,-88.0
2023-08-09 10:00:14.667843,-91.0
2023-08-09 10:00:14.675533,-81.0
2023-08-09 10:00:14.683222,-57.0
2023-08-09 10:00:14.690912,-36.0
2023-08-09 10:00:14.698602,-28.0
2023-08-09 10:00:14.706292,-31.0
2023-08-09 10:00:14.713982,-36.0
2023-08-09 10:00:14.721671,-55.0
2023-08-09 10:00:14.729361,-86.0
2023-08-09 10:00:14.737051,-103.0
2023-08-09 10:00:14.744741,-101.0
2023-08-09 10:00:14.752431,-98.0
2023-08-09 10:00:14.760120,-101.0
2023-08-09 10:00:14.767810,-103.0
2023-08-09 10:00:14.775500,-103.0
2023-08-09 10:00:14.783190,-98.0
2023-08-09 10:00:14.790880,-96.0
2023-08-09 10:00:14.798570,-103.0
2023-08-09 10:00:14.806259,-117.0
2023-08-09 10:00:14.813949,-108.0
2023-08-09 10:00:14.821639,24.0
2023-08-09 10:00:14.829329,372.0
2023-08-09 10:00:14.837019,820.0
2023-08-09 10:00:14.844708,1014.0
2023-08-09 10:00:14.852398,630.0
2023-08-09 10:00:14.860088,-129.0
2023-08-09 10:00:14.867778,-447.0
2023-08-09 10:00:14.875468,-187.0
2023-08-09 10:00:14.883157,-67.0
2023-08-09 10:00:14.890847,-197.0
2023-08-09 10:00:14.898537,-199.0
2023-08-09 10:00:14.906227,-146.0
2023-08-09 10:00:14.913917,-165.0
2023-08-09 10:00:14.921606,-170.0
2023-08-09 10:00:14.929296,-151.0
2023-08-09 10:00:14.936986,-146.0
2023-08-09 10:00:14.944676,-137.0
2023-08-09 10:00:14.952366,-122.0
2023-08-09 10:00:14.960056,-120.0
2023-08-09 10:00:14.967745,-113.0
2023-08-09 10:00:14.975435,-101.0
2023-08-09 10:00:14.983125,-96.0
2023-08-09 10:00:14.990815,-96.0
2023-08-09 10:00:14.998505,-84.0
2023-08-09 10:00:15.006194,-72.0
2023-08-09 10:00:15.013884,-62.0
2023-08-09 10:00:15.021574,-45.0
2023-08-09 10:00:15.029264,-28.0
2023-08-09 10:00:15.036954,-14.0
2023-08-09 10:00:15.044643,12.0
2023-08-09 10:00:15.052333,67.0
2023-08-09 10:00:15.060023,117.0
2023-08-09 10:00:15.067713,93.0
2023-08-09 10:00:15.075403,55.0
2023-08-09 10:00:15.083092,67.0
2023-08-09 10:00:15.090782,72.0
2023-08-09 10:00:15.098472,88.0
2023-08-09 10:00:15.106162,117.0
2023-08-09 10:00:15.113852,91.0
2023-08-09 10:00:15.121542,48.0
2023-08-09 10:00:15.129231,40.0
2023-08-09 10:00:15.136921,21.0
2023-08-09 10:00:15.144611,-24.0
2023-08-09 10:00:15.152301,-62.0
2023-08-09 10:00:15.159991,-88.0
2023-08-09 10:00:15.167680,-105.0
2023-08-09 10:00:15.175370,-115.0
2023-08-09 10:00:15.183060,-125.0
2023-08-09 10:00:15.190750,-141.0
2023-08-09 10:00:15.198440,-141.0
2023-08-09 10:00:15.206129,-127.0
2023-08-09 10:00:15.213819,-129.0
2023-08-09 10:00:15.221509,-125.0
2023-08-09 10:00:15.229199,-117.0
2023-08-09 10:00:15.236889,-125.0
2023-08-09 10:00:15.244578,-120.0
2023-08-09 10:00:15.252268,-110.0
2023-08-09 10:00:15.259958,-115.0
2023-08-09 10:00:15.267648,-108.0
2023-08-09 10:00:15.275338,-96.0
2023-08-09 10:00:15.283028,-96.0
2023-08-09 10:00:15.290717,-86.0
2023-08-09 10:00:15.298407,-69.0
2023-08-09 10:00:15.306097,-74.0
2023-08-09 10:00:15.313787,-93.0
2023-08-09 10:00:15.321477,-93.0
2023-08-09 10:00:15.329166,-81.0
2023-08-09 10:00:15.336856,-81.0
2023-08-09 10:00:15.344546,-88.0
2023-08-09 10:00:15.352236,-96.0
2023-08-09 10:00:15.359926,-103.0
2023-08-09 10:00:15.367615,-103.0
2023-08-09 10:00:15.375305,-93.0
2023-08-09 10:00:15.382995,-88.0
2023-08-09 10:00:15.390685,-96.0
2023-08-09 10:00:15.398375,-98.0
2023-08-09 10:00:15.406065,-84.0
2023-08-09 10:00:15.413754,-72.0
2023-08-09 10:00:15.421444,-81.0
2023-08-09 10:00:15.429134,-96.0
2023-08-09 10:00:15.436824,-86.0
2023-08-09 10:00:15.444514,-64.0
2023-08-09 10:00:15.452203,-45.0
2023-08-09 10:00:15.459893,-24.0
2023-08-09 10:00:15.467583,-12.0
2023-08-09 10:00:15.475273,-26.0
2023-08-09 10:00:15.482963,-40.0
2023-08-09 10:00:15.490652,-64.0
2023-08-09 10:00:15.498342,-93.0
2023-08-09 10:00:15.506032,-88.0
2023-08-09 10:00:15.513722,-84.0
2023-08-09 10:00:15.521412,-101.0
2023-08-09 10:00:15.529101,-105.0
2023-08-09 10:00:15.536791,-103.0
2023-08-09 10:00:15.544481,-105.0
2023-08-09 10:00:15.552171,-101.0
2023-08-09 10:00:15.559861,-88.0
2023-08-09 10:00:15.567551,-86.0
2023-08-09 10:00:15.575240,-115.0
2023-08-09 10:00:15.582930,-132.0
2023-08-09 10:00:15.590620,-21.0
2023-08-09 10:00:15.598310,281.0
2023-08-09 10:00:15.606000,649.0
2023-08-09 10:00:15.613689,810.0
2023-08-09 10:00:15.621379,488.0
2023-08-09 10:00:15.629069,-158.0
2023-08-09 10:00:15.636759,-432.0
2023-08-09 10:00:15.644449,-187.0
2023-08-09 10:00:15.652138,-57.0
2023-08-09 10:00:15.659828,-180.0
2023-08-09 10:00:15.667518,-194.0
2023-08-09 10:00:15.675208,-129.0
2023-08-09 10:00:15.682898,-141.0
2023-08-09 10:00:15.690587,-158.0
2023-08-09 10:00:15.698277,-149.0
2023-08-09 10:00:15.705967,-151.0
2023-08-09 10:00:15.713657,-141.0
2023-08-09 10:00:15.721347,-122.0
2023-08-09 10:00:15.729037,-125.0
2023-08-09 10:00:15.736726,-129.0
2023-08-09 10:00:15.744416,-115.0
2023-08-09 10:00:15.752106,-105.0
2023-08-09 10:00:15.759796,-108.0
2023-08-09 10:00:15.767486,-96.0
2023-08-09 10:00:15.775175,-81.0
2023-08-09 10:00:15.782865,-81.0
2023-08-09 10:00:15.790555,-72.0
2023-08-09 10:00:15.798245,-52.0
2023-08-09 10:00:15.805935,-40.0
2023-08-09 10:00:15.813624,-33.0
2023-08-09 10:00:15.821314,-24.0
2023-08-09 10:00:15.829004,-12.0
2023-08-09 10:00:15.836694,7.0
2023-08-09 10:00:15.844384,26.0
2023-08-09 10:00:15.852073,38.0
2023-08-09 10:00:15.859763,40.0
2023-08-09 10:00:15.867453,57.0
2023-08-09 10:00:15.875143,69.0
2023-08-09 10:00:15.882833,67.0
2023-08-09 10:00:15.890523,62.0
2023-08-09 10:00:15.898212,48.0
2023-08-09 10:00:15.905902,12.0
2023-08-09 10:00:15.913592,-28.0
2023-08-09 10:00:15.921282,-60.0
2023-08-09 10:00:15.928972,-101.0
2023-08-09 10:00:15.936661,-132.0
2023-08-09 10:00:15.944351,-141.0
2023-08-09 10:00:15.952041,-146.0
2023-08-09 10:00:15.959731,-146.0
2023-08-09 10:00:15.967421,-144.0
2023-08-09 10:00:15.975110,-141.0
2023-08-09 10:00:15.982800,-139.0
2023-08-09 10:00:15.990490,-139.0
2023-08-09 10:00:15.998180,-139.0
2023-08-09 10:00:16.005870,-132.0
2023-08-09 10:00:16.013560,-125.0
2023-08-09 10:00:16.021249,-125.0
2023-08-09 10:00:16.028939,-120.0
2023-08-09 10:00:16.036629,-120.0
2023-08-09 10:00:16.044319,-125.0
2023-08-09 10:00:16.052009,-120.0
2023-08-09 10:00:16.059698,-113.0
2023-08-09 10:00:16.067388,-113.0
2023-08-09 10:00:16.075078,-120.0
2023-08-09 10:00:16.082768,-127.0
2023-08-09 10:00:16.090458,-132.0
2023-08-09 10:00:16.098147,-127.0
2023-08-09 10:00:16.105837,-117.0
2023-08-09 10:00:16.113527,-110.0
2023-08-09 10:00:16.121217,-96.0
2023-08-09 10:00:16.128907,-96.0
2023-08-09 10:00:16.136596,-117.0
2023-08-09 10:00:16.144286,-115.0
2023-08-09 10:00:16.151976,-98.0
2023-08-09 10:00:16.159666,-101.0
2023-08-09 10:00:16.167356,-108.0
2023-08-09 10:00:16.175046,-105.0
2023-08-09 10:00:16.182735,-108.0
2023-08-09 10:00:16.190425,-110.0
2023-08-09 10:00:16.198115,-103.0
2023-08-09 10:00:16.205805,-96.0
2023-08-09 10:00:16.213495,-74.0
2023-08-09 10:00:16.221184,-40.0
2023-08-09 10:00:16.228874,-40.0
2023-08-09 10:00:16.236564,-55.0
2023-08-09 10:00:16.244254,-33.0
2023-08-09 10:00:16.251944,-26.0
2023-08-09 10:00:16.259633,-62.0
2023-08-09 10:00:16.267323,-96.0
2023-08-09 10:00:16.275013,-105.0
2023-08-09 10:00:16.282703,-96.0
2023-08-09 10:00:16.290393,-96.0
2023-08-09 10:00:16.298082,-110.0
2023-08-09 10:00:16.305772,-108.0
2023-08-09 10:00:16.313462,-105.0
2023-08-09 10:00:16.321152,-120.0
2023-08-09 10:00:16.328842,-117.0
2023-08-09 10:00:16.336532,-103.0
2023-08-09 10:00:16.344221,-115.0
2023-08-09 10:00:16.351911,-129.0
2023-08-09 10:00:16.359601,-55.0
2023-08-09 10:00:16.367291,185.0
2023-08-09 10:00:16.374981,541.0
2023-08-09 10:00:16.382670,755.0
2023-08-09 10:00:16.390360,529.0
2023-08-09 10:00:16.398050,-57.0
2023-08-09 10:00:16.405740,-401.0
2023-08-09 10:00:16.413430,-242.0
2023-08-09 10:00:16.421119,-81.0
2023-08-09 10:00:16.428809,-144.0
2023-08-09 10:00:16.436499,-170.0
2023-08-09 10:00:16.444189,-137.0
2023-08-09 10:00:16.451879,-137.0
2023-08-09 10:00:16.459568,-132.0
2023-08-09 10:00:16.467258,-120.0
2023-08-09 10:00:16.474948,-122.0
2023-08-09 10:00:16.482638,-115.0
2023-08-09 10:00:16.490328,-105.0
2023-08-09 10:00:16.498018,-101.0
2023-08-09 10:00:16.505707,-91.0
2023-08-09 10:00:16.513397,-84.0
2023-08-09 10:00:16.521087,-72.0
2023-08-09 10:00:16.528777,-62.0
2023-08-09 10:00:16.536467,-57.0
2023-08-09 10:00:16.544156,-50.0
2023-08-09 10:00:16.551846,-36.0
2023-08-09 10:00:16.559536,-26.0
2023-08-09 10:00:16.567226,-24.0
2023-08-09 10:00:16.574916,-19.0
2023-08-09 10:00:16.582605,-9.0
2023-08-09 10:00:16.590295,12.0
2023-08-09 10:00:16.597985,33.0
2023-08-09 10:00:16.605675,45.0
2023-08-09 10:00:16.613365,55.0
2023-08-09 10:00:16.621055,72.0
2023-08-09 10:00:16.628744,93.0
2023-08-09 10:00:16.636434,108.0
2023-08-09 10:00:16.644124,113.0
2023-08-09 10:00:16.651814,115.0
2023-08-09 10:00:16.659504,108.0
2023-08-09 10:00:16.667193,81.0
2023-08-09 10:00:16.674883,33.0
2023-08-09 10:00:16.682573,-9.0
2023-08-09 10:00:16.690263,-43.0
2023-08-09 10:00:16.697953,-76.0
2023-08-09 10:00:16.705642,-108.0
2023-08-09 10:00:16.713332,-120.0
2023-08-09 10:00:16.721022,-122.0
2023-08-09 10:00:16.728712,-125.0
2023-08-09 10:00:16.736402,-125.0
2023-08-09 10:00:16.744091,-122.0
2023-08-09 10:00:16.751781,-122.0
2023-08-09 10:00:16.759471,-122.0
2023-08-09 10:00:16.767161,-122.0
2023-08-09 10:00:16.774851,-120.0
2023-08-09 10:00:16.782541,-122.0
2023-08-09 10:00:16.790230,-127.0
2023-08-09 10:00:16.797920,-122.0
2023-08-09 10:00:16.805610,-122.0
2023-08-09 10:00:16.813300,-125.0
2023-08-09 10:00:16.820990,-125.0
2023-08-09 10:00:16.828679,-122.0
2023-08-09 10:00:16.836369,-122.0
2023-08-09 10:00:16.844059,-117.0
2023-08-09 10:00:16.851749,-110.0
2023-08-09 10:00:16.859439,-110.0
2023-08-09 10:00:16.867128,-110.0
2023-08-09 10:00:16.874818,-105.0
2023-08-09 10:00:16.882508,-105.0
2023-08-09 10:00:16.890198,-105.0
2023-08-09 10:00:16.897888,-101.0
2023-08-09 10:00:16.905577,-96.0
2023-08-09 10:00:16.913267,-96.0
2023-08-09 10:00:16.920957,-98.0
2023-08-09 10:00:16.928647,-105.0
2023-08-09 10:00:16.936337,-105.0
2023-08-09 10:00:16.944027,-93.0
2023-08-09 10:00:16.951716,-86.0
2023-08-09 10:00:16.959406,-84.0
2023-08-09 10:00:16.967096,-69.0
2023-08-09 10:00:16.974786,-43.0
2023-08-09 10:00:16.982476,-36.0
2023-08-09 10:00:16.990165,-36.0
2023-08-09 10:00:16.997855,-31.0
2023-08-09 10:00:17.005545,-45.0
2023-08-09 10:00:17.013235,-76.0
2023-08-09 10:00:17.020925,-91.0
2023-08-09 10:00:17.028614,-93.0
2023-08-09 10:00:17.036304,-93.0
2023-08-09 10:00:17.043994,-96.0
2023-08-09 10:00:17.051684,-101.0
2023-08-09 10:00:17.059374,-103.0
2023-08-09 10:00:17.067063,-105.0
2023-08-09 10:00:17.074753,-101.0
2023-08-09 10:00:17.082443,-96.0
2023-08-09 10:00:17.090133,-98.0
2023-08-09 10:00:17.097823,-115.0
2023-08-09 10:00:17.105513,-96.0
2023-08-09 10:00:17.113202,79.0
2023-08-09 10:00:17.120892,452.0
2023-08-09 10:00:17.128582,791.0
2023-08-09 10:00:17.136272,747.0
2023-08-09 10:00:17.143962,206.0
2023-08-09 10:00:17.151651,-353.0
2023-08-09 10:00:17.159341,-353.0
2023-08-09 10:00:17.167031,-98.0
2023-08-09 10:00:17.174721,-96.0
2023-08-09 10:00:17.182411,-173.0
2023-08-09 10:00:17.190100,-141.0
2023-08-09 10:00:17.197790,-122.0
2023-08-09 10:00:17.205480,-141.0
2023-08-09 10:00:17.213170,-127.0
2023-08-09 10:00:17.220860,-110.0
2023-08-09 10:00:17.228550,-110.0
2023-08-09 10:00:17.236239,-108.0
2023-08-09 10:00:17.243929,-101.0
2023-08-09 10:00:17.251619,-91.0
2023-08-09 10:00:17.259309,-81.0
2023-08-09 10:00:17.266999,-79.0
2023-08-09 10:00:17.274688,-67.0
2023-08-09 10:00:17.282378,-50.0
2023-08-09 10:00:17.290068,-52.0
2023-08-09 10:00:17.297758,-52.0
2023-08-09 10:00:17.305448,-40.0
2023-08-09 10:00:17.313137,-31.0
2023-08-09 10:00:17.320827,-24.0
2023-08-09 10:00:17.328517,-14.0
2023-08-09 10:00:17.336207,-2.0
2023-08-09 10:00:17.343897,16.0
2023-08-09 10:00:17.351586,36.0
2023-08-09 10:00:17.359276,50.0
2023-08-09 10:00:17.366966,62.0
2023-08-09 10:00:17.374656,62.0
2023-08-09 10:00:17.382346,64.0
2023-08-09 10:00:17.390036,79.0
2023-08-09 10:00:17.397725,86.0
2023-08-09 10:00:17.405415,79.0
2023-08-09 10:00:17.413105,67.0
2023-08-09 10:00:17.420795,36.0
2023-08-09 10:00:17.428485,-14.0
2023-08-09 10:00:17.436174,-52.0
2023-08-09 10:00:17.443864,-76.0
2023-08-09 10:00:17.451554,-101.0
2023-08-09 10:00:17.459244,-125.0
2023-08-09 10:00:17.466934,-134.0
2023-08-09 10:00:17.474623,-134.0
2023-08-09 10:00:17.482313,-137.0
2023-08-09 10:00:17.490003,-139.0
2023-08-09 10:00:17.497693,-137.0
2023-08-09 10:00:17.505383,-129.0
2023-08-09 10:00:17.513072,-125.0
2023-08-09 10:00:17.520762,-120.0
2023-08-09 10:00:17.528452,-115.0
2023-08-09 10:00:17.536142,-113.0
2023-08-09 10:00:17.543832,-108.0
2023-08-09 10:00:17.551522,-105.0
2023-08-09 10:00:17.559211,-105.0
2023-08-09 10:00:17.566901,-105.0
2023-08-09 10:00:17.574591,-105.0
2023-08-09 10:00:17.582281,-101.0
2023-08-09 10:00:17.589971,-96.0
2023-08-09 10:00:17.597660,-96.0
2023-08-09 10:00:17.605350,-96.0
2023-08-09 10:00:17.613040,-91.0
2023-08-09 10:00:17.620730,-91.0
2023-08-09 10:00:17.628420,-88.0
2023-08-09 10:00:17.636109,-84.0
2023-08-09 10:00:17.643799,-81.0
2023-08-09 10:00:17.651489,-86.0
2023-08-09 10:00:17.659179,-88.0
2023-08-09 10:00:17.666869,-88.0
2023-08-09 10:00:17.674558,-86.0
2023-08-09 10:00:17.682248,-91.0
2023-08-09 10:00:17.689938,-96.0
2023-08-09 10:00:17.697628,-91.0
2023-08-09 10:00:17.705318,-84.0
2023-08-09 10:00:17.713008,-74.0
2023-08-09 10:00:17.720697,-52.0
2023-08-09 10:00:17.728387,-28.0
2023-08-09 10:00:17.736077,-24.0
2023-08-09 10:00:17.743767,-28.0
2023-08-09 10:00:17.751457,-26.0
2023-08-09 10:00:17.759146,-38.0
2023-08-09 10:00:17.766836,-64.0
2023-08-09 10:00:17.774526,-84.0
2023-08-09 10:00:17.782216,-86.0
2023-08-09 10:00:17.789906,-86.0
2023-08-09 10:00:17.797595,-88.0
2023-08-09 10:00:17.805285,-93.0
2023-08-09 10:00:17.812975,-93.0
2023-08-09 10:00:17.820665,-91.0
2023-08-09 10:00:17.828355,-88.0
2023-08-09 10:00:17.836045,-86.0
2023-08-09 10:00:17.843734,-93.0
2023-08-09 10:00:17.851424,-103.0
2023-08-09 10:00:17.859114,-69.0
2023-08-09 10:00:17.866804,115.0
2023-08-09 10:00:17.874494,468.0
2023-08-09 10:00:17.882183,769.0
2023-08-09 10:00:17.889873,694.0
2023-08-09 10:00:17.897563,163.0
2023-08-09 10:00:17.905253,-336.0
2023-08-09 10:00:17.912943,-305.0
2023-08-09 10:00:17.920632,-79.0
2023-08-09 10:00:17.928322,-96.0
2023-08-09 10:00:17.936012,-165.0
2023-08-09 10:00:17.943702,-132.0
2023-08-09 10:00:17.951392,-117.0
2023-08-09 10:00:17.959081,-137.0
2023-08-09 10:00:17.966771,-122.0
2023-08-09 10:00:17.974461,-101.0
2023-08-09 10:00:17.982151,-103.0
2023-08-09 10:00:17.989841,-105.0
2023-08-09 10:00:17.997531,-93.0
2023-08-09 10:00:18.005220,-84.0
2023-08-09 10:00:18.012910,-76.0
2023-08-09 10:00:18.020600,-69.0
2023-08-09 10:00:18.028290,-67.0
2023-08-09 10:00:18.035980,-60.0
2023-08-09 10:00:18.043669,-50.0
2023-08-09 10:00:18.051359,-48.0
2023-08-09 10:00:18.059049,-43.0
2023-08-09 10:00:18.066739,-28.0
2023-08-09 10:00:18.074429,-16.0
2023-08-09 10:00:18.082118,-12.0
2023-08-09 10:00:18.089808,0.0
2023-08-09 10:00:18.097498,16.0
2023-08-09 10:00:18.105188,31.0
2023-08-09 10:00:18.112878,48.0
2023-08-09 10:00:18.120567,57.0
2023-08-09 10:00:18.128257,69.0
2023-08-09 10:00:18.135947,81.0
2023-08-09 10:00:18.143637,91.0
2023-08-09 10:00:18.151327,103.0
2023-08-09 10:00:18.159017,98.0
2023-08-09 10:00:18.166706,76.0
2023-08-09 10:00:18.174396,43.0
2023-08-09 10:00:18.182086,2.0
2023-08-09 10:00:18.189776,-36.0
2023-08-09 10:00:18.197466,-72.0
2023-08-09 10:00:18.205155,-98.0
2023-08-09 10:00:18.212845,-117.0
2023-08-09 10:00:18.220535,-129.0
2023-08-09 10:00:18.228225,-132.0
2023-08-09 10:00:18.235915,-127.0
2023-08-09 10:00:18.243604,-125.0
2023-08-09 10:00:18.251294,-122.0
2023-08-09 10:00:18.258984,-120.0
2023-08-09 10:00:18.266674,-117.0
2023-08-09 10:00:18.274364,-113.0
2023-08-09 10:00:18.282053,-108.0
2023-08-09 10:00:18.289743,-110.0
2023-08-09 10:00:18.297433,-110.0
2023-08-09 10:00:18.305123,-108.0
2023-08-09 10:00:18.312813,-105.0
2023-08-09 10:00:18.320503,-105.0
2023-08-09 10:00:18.328192,-101.0
2023-08-09 10:00:18.335882,-96.0
2023-08-09 10:00:18.343572,-98.0
2023-08-09 10:00:18.351262,-98.0
2023-08-09 10:00:18.358952,-96.0
2023-08-09 10:00:18.366641,-88.0
2023-08-09 10:00:18.374331,-88.0
2023-08-09 10:00:18.382021,-93.0
2023-08-09 10:00:18.389711,-96.0
2023-08-09 10:00:18.397401,-93.0
2023-08-09 10:00:18.405090,-88.0
2023-08-09 10:00:18.412780,-86.0
2023-08-09 10:00:18.420470,-84.0
2023-08-09 10:00:18.428160,-84.0
2023-08-09 10:00:18.435850,-84.0
2023-08-09 10:00:18.443540,-84.0
2023-08-09 10:00:18.451229,-84.0
2023-08-09 10:00:18.458919,-81.0
2023-08-09 10:00:18.466609,-72.0
2023-08-09 10:00:18.474299,-55.0
2023-08-09 10:00:18.481989,-33.0
2023-08-09 10:00:18.489678,-19.0
2023-08-09 10:00:18.497368,-26.0
2023-08-09 10:00:18.505058,-28.0
2023-08-09 10:00:18.512748,-28.0
2023-08-09 10:00:18.520438,-52.0
2023-08-09 10:00:18.528127,-84.0
2023-08-09 10:00:18.535817,-98.0
2023-08-09 10:00:18.543507,-98.0
2023-08-09 10:00:18.551197,-96.0
2023-08-09 10:00:18.558887,-96.0
2023-08-09 10:00:18.566576,-96.0
2023-08-09 10:00:18.574266,-88.0
2023-08-09 10:00:18.581956,-88.0
2023-08-09 10:00:18.589646,-98.0
2023-08-09 10:00:18.597336,-93.0
2023-08-09 10:00:18.605026,-88.0
2023-08-09 10:00:18.612715,-93.0
2023-08-09 10:00:18.620405,-33.0
2023-08-09 10:00:18.628095,204.0
2023-08-09 10:00:18.635785,574.0
2023-08-09 10:00:18.643475,786.0
2023-08-09 10:00:18.651164,548.0
2023-08-09 10:00:18.658854,-45.0
2023-08-09 10:00:18.666544,-382.0
2023-08-09 10:00:18.674234,-216.0
2023-08-09 10:00:18.681924,-50.0
2023-08-09 10:00:18.689613,-115.0
2023-08-09 10:00:18.697303,-153.0
2023-08-09 10:00:18.704993,-120.0
2023-08-09 10:00:18.712683,-117.0
2023-08-09 10:00:18.720373,-125.0
2023-08-09 10:00:18.728062,-120.0
2023-08-09 10:00:18.735752,-113.0
2023-08-09 10:00:18.743442,-105.0
2023-08-09 10:00:18.751132,-96.0
2023-08-09 10:00:18.758822,-81.0
2023-08-09 10:00:18.766512,-74.0
2023-08-09 10:00:18.774201,-72.0
2023-08-09 10:00:18.781891,-64.0
2023-08-09 10:00:18.789581,-57.0
2023-08-09 10:00:18.797271,-52.0
2023-08-09 10:00:18.804961,-45.0
2023-08-09 10:00:18.812650,-38.0
2023-08-09 10:00:18.820340,-33.0
2023-08-09 10:00:18.828030,-24.0
2023-08-09 10:00:18.835720,-7.0
2023-08-09 10:00:18.843410,4.0
2023-08-09 10:00:18.851099,16.0
2023-08-09 10:00:18.858789,26.0
2023-08-09 10:00:18.866479,33.0
2023-08-09 10:00:18.874169,55.0
2023-08-09 10:00:18.881859,72.0
2023-08-09 10:00:18.889548,76.0
2023-08-09 10:00:18.897238,88.0
2023-08-09 10:00:18.904928,103.0
2023-08-09 10:00:18.912618,101.0
2023-08-09 10:00:18.920308,84.0
2023-08-09 10:00:18.927998,57.0
2023-08-09 10:00:18.935687,16.0
2023-08-09 10:00:18.943377,-24.0
2023-08-09 10:00:18.951067,-50.0
2023-08-09 10:00:18.958757,-76.0
2023-08-09 10:00:18.966447,-113.0
2023-08-09 10:00:18.974136,-134.0
2023-08-09 10:00:18.981826,-134.0
2023-08-09 10:00:18.989516,-139.0
2023-08-09 10:00:18.997206,-146.0
2023-08-09 10:00:19.004896,-139.0
2023-08-09 10:00:19.012585,-137.0
2023-08-09 10:00:19.020275,-144.0
2023-08-09 10:00:19.027965,-127.0
2023-08-09 10:00:19.035655,-120.0
2023-08-09 10:00:19.043345,-146.0
2023-08-09 10:00:19.051035,-153.0
2023-08-09 10:00:19.058724,-129.0
2023-08-09 10:00:19.066414,-120.0
2023-08-09 10:00:19.074104,-127.0
2023-08-09 10:00:19.081794,-129.0
2023-08-09 10:00:19.089484,-125.0
2023-08-09 10:00:19.097173,-127.0
2023-08-09 10:00:19.104863,-132.0
2023-08-09 10:00:19.112553,-127.0
2023-08-09 10:00:19.120243,-113.0
2023-08-09 10:00:19.127933,-113.0
2023-08-09 10:00:19.135622,-127.0
2023-08-09 10:00:19.143312,-125.0
2023-08-09 10:00:19.151002,-113.0
2023-08-09 10:00:19.158692,-108.0
2023-08-09 10:00:19.166382,-110.0
2023-08-09 10:00:19.174071,-113.0
2023-08-09 10:00:19.181761,-117.0
2023-08-09 10:00:19.189451,-120.0
2023-08-09 10:00:19.197141,-120.0
2023-08-09 10:00:19.204831,-120.0
2023-08-09 10:00:19.212521,-115.0
2023-08-09 10:00:19.220210,-110.0
2023-08-09 10:00:19.227900,-101.0
2023-08-09 10:00:19.235590,-72.0
2023-08-09 10:00:19.243280,-50.0
2023-08-09 10:00:19.250970,-50.0
2023-08-09 10:00:19.258659,-50.0
2023-08-09 10:00:19.266349,-45.0
2023-08-09 10:00:19.274039,-69.0
2023-08-09 10:00:19.281729,-103.0
2023-08-09 10:00:19.289419,-110.0
2023-08-09 10:00:19.297108,-105.0
2023-08-09 10:00:19.304798,-105.0
2023-08-09 10:00:19.312488,-108.0
2023-08-09 10:00:19.320178,-110.0
2023-08-09 10:00:19.327868,-108.0
2023-08-09 10:00:19.335557,-105.0
2023-08-09 10:00:19.343247,-103.0
2023-08-09 10:00:19.350937,-101.0
2023-08-09 10:00:19.358627,-103.0
2023-08-09 10:00:19.366317,-113.0
2023-08-09 10:00:19.374007,-76.0
2023-08-09 10:00:19.381696,125.0
2023-08-09 10:00:19.389386,512.0
2023-08-09 10:00:19.397076,822.0
2023-08-09 10:00:19.404766,692.0
2023-08-09 10:00:19.412456,91.0
2023-08-09 10:00:19.420145,-408.0
2023-08-09 10:00:19.427835,-331.0
2023-08-09 10:00:19.435525,-86.0
2023-08-09 10:00:19.443215,-93.0
2023-08-09 10:00:19.450905,-156.0
2023-08-09 10:00:19.458594,-127.0
2023-08-09 10:00:19.466284,-105.0
2023-08-09 10:00:19.473974,-113.0
2023-08-09 10:00:19.481664,-108.0
2023-08-09 10:00:19.489354,-103.0
2023-08-09 10:00:19.497043,-98.0
2023-08-09 10:00:19.504733,-88.0
2023-08-09 10:00:19.512423,-79.0
2023-08-09 10:00:19.520113,-76.0
2023-08-09 10:00:19.527803,-74.0
2023-08-09 10:00:19.535493,-62.0
2023-08-09 10:00:19.543182,-55.0
2023-08-09 10:00:19.550872,-50.0
2023-08-09 10:00:19.558562,-38.0
2023-08-09 10:00:19.566252,-28.0
2023-08-09 10:00:19.573942,-19.0
2023-08-09 10:00:19.581631,-14.0
2023-08-09 10:00:19.589321,-4.0
2023-08-09 10:00:19.597011,7.0
2023-08-09 10:00:19.604701,16.0
2023-08-09 10:00:19.612391,36.0
2023-08-09 10:00:19.620080,50.0
2023-08-09 10:00:19.627770,55.0
2023-08-09 10:00:19.635460,57.0
2023-08-09 10:00:19.643150,74.0
2023-08-09 10:00:19.650840,86.0
2023-08-09 10:00:19.658530,96.0
2023-08-09 10:00:19.666219,101.0
2023-08-09 10:00:19.673909,91.0
2023-08-09 10:00:19.681599,60.0
2023-08-09 10:00:19.689289,26.0
2023-08-09 10:00:19.696979,-9.0
2023-08-09 10:00:19.704668,-52.0
2023-08-09 10:00:19.712358,-96.0
2023-08-09 10:00:19.720048,-127.0
2023-08-09 10:00:19.727738,-139.0
2023-08-09 10:00:19.735428,-146.0
2023-08-09 10:00:19.743117,-149.0
2023-08-09 10:00:19.750807,-149.0
2023-08-09 10:00:19.758497,-149.0
2023-08-09 10:00:19.766187,-149.0
2023-08-09 10:00:19.773877,-146.0
2023-08-09 10:00:19.781566,-139.0
2023-08-09 10:00:19.789256,-132.0
2023-08-09 10:00:19.796946,-129.0
2023-08-09 10:00:19.804636,-129.0
2023-08-09 10:00:19.812326,-125.0
2023-08-09 10:00:19.820016,-122.0
2023-08-09 10:00:19.827705,-122.0
2023-08-09 10:00:19.835395,-120.0
2023-08-09 10:00:19.843085,-117.0
2023-08-09 10:00:19.850775,-115.0
2023-08-09 10:00:19.858465,-113.0
2023-08-09 10:00:19.866154,-113.0
2023-08-09 10:00:19.873844,-115.0
2023-08-09 10:00:19.881534,-113.0
2023-08-09 10:00:19.889224,-108.0
2023-08-09 10:00:19.896914,-105.0
2023-08-09 10:00:19.904603,-108.0
2023-08-09 10:00:19.912293,-103.0
2023-08-09 10:00:19.919983,-101.0
2023-08-09 10:00:19.927673,-105.0
2023-08-09 10:00:19.935363,-105.0
2023-08-09 10:00:19.943052,-103.0
2023-08-09 10:00:19.950742,-101.0
2023-08-09 10:00:19.958432,-98.0
2023-08-09 10:00:19.966122,-101.0
2023-08-09 10:00:19.973812,-103.0
2023-08-09 10:00:19.981502,-101.0
2023-08-09 10:00:19.989191,-91.0
2023-08-09 10:00:19.996881,-69.0
2023-08-09 10:00:20.004571,-43.0
2023-08-09 10:00:20.012261,-40.0
2023-08-09 10:00:20.019951,-45.0
2023-08-09 10:00:20.027640,-36.0
2023-08-09 10:00:20.035330,-48.0
2023-08-09 10:00:20.043020,-81.0
2023-08-09 10:00:20.050710,-101.0
2023-08-09 10:00:20.058400,-101.0
2023-08-09 10:00:20.066089,-101.0
2023-08-09 10:00:20.073779,-103.0
2023-08-09 10:00:20.081469,-105.0
2023-08-09 10:00:20.089159,-103.0
2023-08-09 10:00:20.096849,-103.0
2023-08-09 10:00:20.104538,-103.0
2023-08-09 10:00:20.112228,-103.0
2023-08-09 10:00:20.119918,-105.0
2023-08-09 10:00:20.127608,-115.0
2023-08-09 10:00:20.135298,-88.0
2023-08-09 10:00:20.142988,91.0
2023-08-09 10:00:20.150677,468.0
2023-08-09 10:00:20.158367,834.0
2023-08-09 10:00:20.166057,851.0
2023-08-09 10:00:20.173747,327.0
2023-08-09 10:00:20.181437,-315.0
2023-08-09 10:00:20.189126,-384.0
2023-08-09 10:00:20.196816,-105.0
2023-08-09 10:00:20.204506,-91.0
2023-08-09 10:00:20.212196,-202.0
2023-08-09 10:00:20.219886,-168.0
2023-08-09 10:00:20.227575,-139.0
2023-08-09 10:00:20.235265,-173.0
2023-08-09 10:00:20.242955,-161.0
2023-08-09 10:00:20.250645,-134.0
2023-08-09 10:00:20.258335,-139.0
2023-08-09 10:00:20.266025,-139.0
2023-08-09 10:00:20.273714,-122.0
2023-08-09 10:00:20.281404,-110.0
2023-08-09 10:00:20.289094,-108.0
2023-08-09 10:00:20.296784,-101.0
2023-08-09 10:00:20.304474,-91.0
2023-08-09 10:00:20.312163,-81.0
2023-08-09 10:00:20.319853,-69.0
2023-08-09 10:00:20.327543,-60.0
2023-08-09 10:00:20.335233,-50.0
2023-08-09 10:00:20.342923,-43.0
2023-08-09 10:00:20.350612,-33.0
2023-08-09 10:00:20.358302,-24.0
2023-08-09 10:00:20.365992,-12.0
2023-08-09 10:00:20.373682,2.0
2023-08-09 10:00:20.381372,7.0
2023-08-09 10:00:20.389061,16.0
2023-08-09 10:00:20.396751,33.0
2023-08-09 10:00:20.404441,48.0
2023-08-09 10:00:20.412131,60.0
2023-08-09 10:00:20.419821,64.0
2023-08-09 10:00:20.427511,74.0
2023-08-09 10:00:20.435200,76.0
2023-08-09 10:00:20.442890,64.0
2023-08-09 10:00:20.450580,36.0
2023-08-09 10:00:20.458270,-2.0
2023-08-09 10:00:20.465960,-45.0
2023-08-09 10:00:20.473649,-86.0
2023-08-09 10:00:20.481339,-113.0
2023-08-09 10:00:20.489029,-127.0
2023-08-09 10:00:20.496719,-141.0
2023-08-09 10:00:20.504409,-151.0
2023-08-09 10:00:20.512098,-153.0
2023-08-09 10:00:20.519788,-151.0
2023-08-09 10:00:20.527478,-149.0
2023-08-09 10:00:20.535168,-151.0
2023-08-09 10:00:20.542858,-144.0
2023-08-09 10:00:20.550547,-134.0
2023-08-09 10:00:20.558237,-132.0
2023-08-09 10:00:20.565927,-134.0
2023-08-09 10:00:20.573617,-127.0
2023-08-09 10:00:20.581307,-122.0
2023-08-09 10:00:20.588997,-120.0
2023-08-09 10:00:20.596686,-113.0
2023-08-09 10:00:20.604376,-108.0
2023-08-09 10:00:20.612066,-110.0
2023-08-09 10:00:20.619756,-110.0
2023-08-09 10:00:20.627446,-105.0
2023-08-09 10:00:20.635135,-105.0
2023-08-09 10:00:20.642825,-103.0
2023-08-09 10:00:20.650515,-101.0
2023-08-09 10:00:20.658205,-103.0
2023-08-09 10:00:20.665895,-101.0
2023-08-09 10:00:20.673584,-98.0
2023-08-09 10:00:20.681274,-101.0
2023-08-09 10:00:20.688964,-98.0
2023-08-09 10:00:20.696654,-98.0
2023-08-09 10:00:20.704344,-105.0
2023-08-09 10:00:20.712033,-113.0
2023-08-09 10:00:20.719723,-108.0
2023-08-09 10:00:20.727413,-108.0
2023-08-09 10:00:20.735103,-113.0
2023-08-09 10:00:20.742793,-105.0
2023-08-09 10:00:20.750483,-103.0
2023-08-09 10:00:20.758172,-105.0
2023-08-09 10:00:20.765862,-93.0
2023-08-09 10:00:20.773552,-62.0
2023-08-09 10:00:20.781242,-40.0
2023-08-09 10:00:20.788932,-38.0
2023-08-09 10:00:20.796621,-38.0
2023-08-09 10:00:20.804311,-40.0
2023-08-09 10:00:20.812001,-64.0
2023-08-09 10:00:20.819691,-91.0
2023-08-09 10:00:20.827381,-98.0
2023-08-09 10:00:20.835070,-96.0
2023-08-09 10:00:20.842760,-103.0
2023-08-09 10:00:20.850450,-105.0
2023-08-09 10:00:20.858140,-98.0
2023-08-09 10:00:20.865830,-98.0
2023-08-09 10:00:20.873520,-103.0
2023-08-09 10:00:20.881209,-101.0
2023-08-09 10:00:20.888899,-98.0
2023-08-09 10:00:20.896589,-101.0
2023-08-09 10:00:20.904279,-110.0
2023-08-09 10:00:20.911969,-84.0
2023-08-09 10:00:20.919658,101.0
2023-08-09 10:00:20.927348,476.0
2023-08-09 10:00:20.935038,812.0
2023-08-09 10:00:20.942728,776.0
2023-08-09 10:00:20.950418,238.0
2023-08-09 10:00:20.958107,-334.0
2023-08-09 10:00:20.965797,-334.0
2023-08-09 10:00:20.973487,-67.0
2023-08-09 10:00:20.981177,-79.0
2023-08-09 10:00:20.988867,-177.0
2023-08-09 10:00:20.996556,-141.0
2023-08-09 10:00:21.004246,-120.0
2023-08-09 10:00:21.011936,-144.0
2023-08-09 10:00:21.019626,-132.0
2023-08-09 10:00:21.027316,-115.0
2023-08-09 10:00:21.035006,-115.0
2023-08-09 10:00:21.042695,-105.0
2023-08-09 10:00:21.050385,-91.0
2023-08-09 10:00:21.058075,-88.0
2023-08-09 10:00:21.065765,-86.0
2023-08-09 10:00:21.073455,-79.0
2023-08-09 10:00:21.081144,-69.0
2023-08-09 10:00:21.088834,-60.0
2023-08-09 10:00:21.096524,-55.0
2023-08-09 10:00:21.104214,-43.0
2023-08-09 10:00:21.111904,-31.0
2023-08-09 10:00:21.119593,-26.0
2023-08-09 10:00:21.127283,-21.0
2023-08-09 10:00:21.134973,-12.0
2023-08-09 10:00:21.142663,0.0
2023-08-09 10:00:21.150353,12.0
2023-08-09 10:00:21.158042,24.0
2023-08-09 10:00:21.165732,36.0
2023-08-09 10:00:21.173422,48.0
2023-08-09 10:00:21.181112,60.0
2023-08-09 10:00:21.188802,69.0
2023-08-09 10:00:21.196492,76.0
2023-08-09 10:00:21.204181,84.0
2023-08-09 10:00:21.211871,84.0
2023-08-09 10:00:21.219561,69.0
2023-08-09 10:00:21.227251,33.0
2023-08-09 10:00:21.234941,-16.0
2023-08-09 10:00:21.242630,-57.0
2023-08-09 10:00:21.250320,-88.0
2023-08-09 10:00:21.258010,-117.0
2023-08-09 10:00:21.265700,-134.0
2023-08-09 10:00:21.273390,-144.0
2023-08-09 10:00:21.281079,-149.0
2023-08-09 10:00:21.288769,-158.0
2023-08-09 10:00:21.296459,-163.0
2023-08-09 10:00:21.304149,-161.0
2023-08-09 10:00:21.311839,-153.0
2023-08-09 10:00:21.319528,-144.0
2023-08-09 10:00:21.327218,-139.0
2023-08-09 10:00:21.334908,-139.0
2023-08-09 10:00:21.342598,-137.0
2023-08-09 10:00:21.350288,-137.0
2023-08-09 10:00:21.357978,-132.0
2023-08-09 10:00:21.365667,-125.0
2023-08-09 10:00:21.373357,-120.0
2023-08-09 10:00:21.381047,-120.0
2023-08-09 10:00:21.388737,-117.0
2023-08-09 10:00:21.396427,-115.0
2023-08-09 10:00:21.404116,-113.0
2023-08-09 10:00:21.411806,-110.0
2023-08-09 10:00:21.419496,-108.0
2023-08-09 10:00:21.427186,-110.0
2023-08-09 10:00:21.434876,-113.0
2023-08-09 10:00:21.442565,-108.0
2023-08-09 10:00:21.450255,-105.0
2023-08-09 10:00:21.457945,-105.0
2023-08-09 10:00:21.465635,-103.0
2023-08-09 10:00:21.473325,-105.0
2023-08-09 10:00:21.481015,-108.0
2023-08-09 10:00:21.488704,-105.0
2023-08-09 10:00:21.496394,-101.0
2023-08-09 10:00:21.504084,-98.0
2023-08-09 10:00:21.511774,-101.0
2023-08-09 10:00:21.519464,-103.0
2023-08-09 10:00:21.527153,-101.0
2023-08-09 10:00:21.534843,-96.0
2023-08-09 10:00:21.542533,-93.0
2023-08-09 10:00:21.550223,-86.0
2023-08-09 10:00:21.557913,-69.0
2023-08-09 10:00:21.565602,-38.0
2023-08-09 10:00:21.573292,-21.0
2023-08-09 10:00:21.580982,-21.0
2023-08-09 10:00:21.588672,-24.0
2023-08-09 10:00:21.596362,-33.0
2023-08-09 10:00:21.604051,-62.0
2023-08-09 10:00:21.611741,-84.0
2023-08-09 10:00:21.619431,-84.0
2023-08-09 10:00:21.627121,-81.0
2023-08-09 10:00:21.634811,-88.0
2023-08-09 10:00:21.642501,-93.0
2023-08-09 10:00:21.650190,-86.0
2023-08-09 10:00:21.657880,-79.0
2023-08-09 10:00:21.665570,-79.0
2023-08-09 10:00:21.673260,-79.0
2023-08-09 10:00:21.680950,-76.0
2023-08-09 10:00:21.688639,-88.0
2023-08-09 10:00:21.696329,-101.0
2023-08-09 10:00:21.704019,-24.0
2023-08-09 10:00:21.711709,240.0
2023-08-09 10:00:21.719399,622.0
2023-08-09 10:00:21.727088,836.0
2023-08-09 10:00:21.734778,569.0
2023-08-09 10:00:21.742468,-62.0
2023-08-09 10:00:21.750158,-396.0
2023-08-09 10:00:21.757848,-197.0
2023-08-09 10:00:21.765537,-36.0
2023-08-09 10:00:21.773227,-120.0
2023-08-09 10:00:21.780917,-146.0
2023-08-09 10:00:21.788607,-105.0
2023-08-09 10:00:21.796297,-115.0
2023-08-09 10:00:21.803987,-120.0
2023-08-09 10:00:21.811676,-98.0
2023-08-09 10:00:21.819366,-86.0
2023-08-09 10:00:21.827056,-88.0
2023-08-09 10:00:21.834746,-86.0
2023-08-09 10:00:21.842436,-69.0
2023-08-09 10:00:21.850125,-60.0
2023-08-09 10:00:21.857815,-60.0
2023-08-09 10:00:21.865505,-57.0
2023-08-09 10:00:21.873195,-52.0
2023-08-09 10:00:21.880885,-55.0
2023-08-09 10:00:21.888574,-50.0
2023-08-09 10:00:21.896264,-36.0
2023-08-09 10:00:21.903954,-28.0
2023-08-09 10:00:21.911644,-24.0
2023-08-09 10:00:21.919334,-9.0
2023-08-09 10:00:21.927023,-4.0
2023-08-09 10:00:21.934713,-4.0
2023-08-09 10:00:21.942403,16.0
2023-08-09 10:00:21.950093,40.0
2023-08-09 10:00:21.957783,55.0
2023-08-09 10:00:21.965473,64.0
2023-08-09 10:00:21.973162,76.0
2023-08-09 10:00:21.980852,86.0
2023-08-09 10:00:21.988542,84.0
2023-08-09 10:00:21.996232,81.0
2023-08-09 10:00:22.003922,74.0
2023-08-09 10:00:22.011611,55.0
2023-08-09 10:00:22.019301,21.0
2023-08-09 10:00:22.026991,-19.0
2023-08-09 10:00:22.034681,-64.0
2023-08-09 10:00:22.042371,-101.0
2023-08-09 10:00:22.050060,-117.0
2023-08-09 10:00:22.057750,-129.0
2023-08-09 10:00:22.065440,-132.0
2023-08-09 10:00:22.073130,-132.0
2023-08-09 10:00:22.080820,-141.0
2023-08-09 10:00:22.088510,-144.0
2023-08-09 10:00:22.096199,-134.0
2023-08-09 10:00:22.103889,-129.0
2023-08-09 10:00:22.111579,-132.0
2023-08-09 10:00:22.119269,-127.0
2023-08-09 10:00:22.126959,-117.0
2023-08-09 10:00:22.134648,-117.0
2023-08-09 10:00:22.142338,-120.0
2023-08-09 10:00:22.150028,-122.0
2023-08-09 10:00:22.157718,-115.0
2023-08-09 10:00:22.165408,-108.0
2023-08-09 10:00:22.173097,-108.0
2023-08-09 10:00:22.180787,-113.0
2023-08-09 10:00:22.188477,-117.0
2023-08-09 10:00:22.196167,-115.0
2023-08-09 10:00:22.203857,-105.0
2023-08-09 10:00:22.211546,-103.0
2023-08-09 10:00:22.219236,-103.0
2023-08-09 10:00:22.226926,-103.0
2023-08-09 10:00:22.234616,-113.0
2023-08-09 10:00:22.242306,-117.0
2023-08-09 10:00:22.249996,-110.0
2023-08-09 10:00:22.257685,-103.0
2023-08-09 10:00:22.265375,-108.0
2023-08-09 10:00:22.273065,-113.0
2023-08-09 10:00:22.280755,-105.0
2023-08-09 10:00:22.288445,-103.0
2023-08-09 10:00:22.296134,-108.0
2023-08-09 10:00:22.303824,-101.0
2023-08-09 10:00:22.311514,-96.0
2023-08-09 10:00:22.319204,-98.0
2023-08-09 10:00:22.326894,-101.0
2023-08-09 10:00:22.334583,-96.0
2023-08-09 10:00:22.342273,-76.0
2023-08-09 10:00:22.349963,-48.0
2023-08-09 10:00:22.357653,-31.0
2023-08-09 10:00:22.365343,-31.0
2023-08-09 10:00:22.373032,-33.0
2023-08-09 10:00:22.380722,-50.0
2023-08-09 10:00:22.388412,-76.0
2023-08-09 10:00:22.396102,-91.0
2023-08-09 10:00:22.403792,-93.0
2023-08-09 10:00:22.411482,-101.0
2023-08-09 10:00:22.419171,-113.0
2023-08-09 10:00:22.426861,-113.0
2023-08-09 10:00:22.434551,-108.0
2023-08-09 10:00:22.442241,-108.0
2023-08-09 10:00:22.449931,-105.0
2023-08-09 10:00:22.457620,-101.0
2023-08-09 10:00:22.465310,-103.0
2023-08-09 10:00:22.473000,-115.0
2023-08-09 10:00:22.480690,-125.0
2023-08-09 10:00:22.488380,-64.0
2023-08-09 10:00:22.496069,185.0
2023-08-09 10:00:22.503759,584.0
2023-08-09 10:00:22.511449,829.0
2023-08-09 10:00:22.519139,579.0
2023-08-09 10:00:22.526829,-67.0
2023-08-09 10:00:22.534518,-449.0
2023-08-09 10:00:22.542208,-269.0
2023-08-09 10:00:22.549898,-72.0
2023-08-09 10:00:22.557588,-127.0
2023-08-09 10:00:22.565278,-163.0
2023-08-09 10:00:22.572968,-120.0
2023-08-09 10:00:22.580657,-122.0
2023-08-09 10:00:22.588347,-134.0
2023-08-09 10:00:22.596037,-117.0
2023-08-09 10:00:22.603727,-110.0
2023-08-09 10:00:22.611417,-110.0
2023-08-09 10:00:22.619106,-98.0
2023-08-09 10:00:22.626796,-88.0
2023-08-09 10:00:22.634486,-86.0
2023-08-09 10:00:22.642176,-81.0
2023-08-09 10:00:22.649866,-74.0
2023-08-09 10:00:22.657555,-72.0
2023-08-09 10:00:22.665245,-67.0
2023-08-09 10:00:22.672935,-60.0
2023-08-09 10:00:22.680625,-50.0
2023-08-09 10:00:22.688315,-40.0
2023-08-09 10:00:22.696005,-33.0
2023-08-09 10:00:22.703694,-21.0
2023-08-09 10:00:22.711384,-7.0
2023-08-09 10:00:22.719074,4.0
2023-08-09 10:00:22.726764,14.0
2023-08-09 10:00:22.734454,24.0
2023-08-09 10:00:22.742143,33.0
2023-08-09 10:00:22.749833,43.0
2023-08-09 10:00:22.757523,57.0
2023-08-09 10:00:22.765213,67.0
2023-08-09 10:00:22.772903,69.0
2023-08-09 10:00:22.780592,72.0
2023-08-09 10:00:22.788282,69.0
2023-08-09 10:00:22.795972,45.0
2023-08-09 10:00:22.803662,9.0
2023-08-09 10:00:22.811352,-33.0
2023-08-09 10:00:22.819041,-72.0
2023-08-09 10:00:22.826731,-103.0
2023-08-09 10:00:22.834421,-125.0
2023-08-09 10:00:22.842111,-139.0
2023-08-09 10:00:22.849801,-149.0
2023-08-09 10:00:22.857491,-149.0
2023-08-09 10:00:22.865180,-149.0
2023-08-09 10:00:22.872870,-146.0
2023-08-09 10:00:22.880560,-144.0
2023-08-09 10:00:22.888250,-141.0
2023-08-09 10:00:22.895940,-137.0
2023-08-09 10:00:22.903629,-132.0
2023-08-09 10:00:22.911319,-132.0
2023-08-09 10:00:22.919009,-129.0
2023-08-09 10:00:22.926699,-117.0
2023-08-09 10:00:22.934389,-115.0
2023-08-09 10:00:22.942078,-117.0
2023-08-09 10:00:22.949768,-113.0
2023-08-09 10:00:22.957458,-110.0
2023-08-09 10:00:22.965148,-115.0
2023-08-09 10:00:22.972838,-117.0
2023-08-09 10:00:22.980527,-113.0
2023-08-09 10:00:22.988217,-113.0
2023-08-09 10:00:22.995907,-115.0
2023-08-09 10:00:23.003597,-122.0
2023-08-09 10:00:23.011287,-122.0
2023-08-09 10:00:23.018977,-117.0
2023-08-09 10:00:23.026666,-115.0
2023-08-09 10:00:23.034356,-113.0
2023-08-09 10:00:23.042046,-113.0
2023-08-09 10:00:23.049736,-113.0
2023-08-09 10:00:23.057426,-110.0
2023-08-09 10:00:23.065115,-105.0
2023-08-09 10:00:23.072805,-103.0
2023-08-09 10:00:23.080495,-103.0
2023-08-09 10:00:23.088185,-103.0
2023-08-09 10:00:23.095875,-101.0
2023-08-09 10:00:23.103564,-98.0
2023-08-09 10:00:23.111254,-98.0
2023-08-09 10:00:23.118944,-91.0
2023-08-09 10:00:23.126634,-86.0
2023-08-09 10:00:23.134324,-88.0
2023-08-09 10:00:23.142013,-91.0
2023-08-09 10:00:23.149703,-64.0
2023-08-09 10:00:23.157393,-31.0
2023-08-09 10:00:23.165083,-21.0
2023-08-09 10:00:23.172773,-26.0
2023-08-09 10:00:23.180463,-26.0
2023-08-09 10:00:23.188152,-43.0
2023-08-09 10:00:23.195842,-76.0
2023-08-09 10:00:23.203532,-91.0
2023-08-09 10:00:23.211222,-88.0
2023-08-09 10:00:23.218912,-96.0
2023-08-09 10:00:23.226601,-103.0
2023-08-09 10:00:23.234291,-103.0
2023-08-09 10:00:23.241981,-105.0
2023-08-09 10:00:23.249671,-115.0
2023-08-09 10:00:23.257361,-115.0
2023-08-09 10:00:23.265050,-110.0
2023-08-09 10:00:23.272740,-113.0
2023-08-09 10:00:23.280430,-125.0
2023-08-09 10:00:23.288120,-122.0
2023-08-09 10:00:23.295810,-14.0
2023-08-09 10:00:23.303500,303.0
2023-08-09 10:00:23.311189,707.0
2023-08-09 10:00:23.318879,858.0
2023-08-09 10:00:23.326569,490.0
2023-08-09 10:00:23.334259,-168.0
2023-08-09 10:00:23.341949,-423.0
2023-08-09 10:00:23.349638,-173.0
2023-08-09 10:00:23.357328,-52.0
2023-08-09 10:00:23.365018,-163.0
2023-08-09 10:00:23.372708,-173.0
2023-08-09 10:00:23.380398,-127.0
2023-08-09 10:00:23.388087,-146.0
2023-08-09 10:00:23.395777,-146.0
2023-08-09 10:00:23.403467,-125.0
2023-08-09 10:00:23.411157,-129.0
2023-08-09 10:00:23.418847,-129.0
2023-08-09 10:00:23.426536,-113.0
2023-08-09 10:00:23.434226,-108.0
2023-08-09 10:00:23.441916,-103.0
2023-08-09 10:00:23.449606,-93.0
2023-08-09 10:00:23.457296,-88.0
2023-08-09 10:00:23.464986,-88.0
2023-08-09 10:00:23.472675,-79.0
2023-08-09 10:00:23.480365,-67.0
2023-08-09 10:00:23.488055,-60.0
2023-08-09 10:00:23.495745,-52.0
2023-08-09 10:00:23.503435,-40.0
2023-08-09 10:00:23.511124,-28.0
2023-08-09 10:00:23.518814,-16.0
2023-08-09 10:00:23.526504,-7.0
2023-08-09 10:00:23.534194,4.0
2023-08-09 10:00:23.541884,24.0
2023-08-09 10:00:23.549573,36.0
2023-08-09 10:00:23.557263,45.0
2023-08-09 10:00:23.564953,60.0
2023-08-09 10:00:23.572643,74.0
2023-08-09 10:00:23.580333,79.0
2023-08-09 10:00:23.588022,74.0
2023-08-09 10:00:23.595712,64.0
2023-08-09 10:00:23.603402,45.0
2023-08-09 10:00:23.611092,9.0
2023-08-09 10:00:23.618782,-33.0
2023-08-09 10:00:23.626472,-69.0
2023-08-09 10:00:23.634161,-98.0
2023-08-09 10:00:23.641851,-117.0
2023-08-09 10:00:23.649541,-134.0
2023-08-09 10:00:23.657231,-141.0
2023-08-09 10:00:23.664921,-141.0
2023-08-09 10:00:23.672610,-144.0
2023-08-09 10:00:23.680300,-146.0
2023-08-09 10:00:23.687990,-141.0
2023-08-09 10:00:23.695680,-134.0
2023-08-09 10:00:23.703370,-137.0
2023-08-09 10:00:23.711059,-134.0
2023-08-09 10:00:23.718749,-129.0
2023-08-09 10:00:23.726439,-125.0
2023-08-09 10:00:23.734129,-120.0
2023-08-09 10:00:23.741819,-120.0
2023-08-09 10:00:23.749508,-120.0
2023-08-09 10:00:23.757198,-120.0
2023-08-09 10:00:23.764888,-120.0
2023-08-09 10:00:23.772578,-115.0
2023-08-09 10:00:23.780268,-113.0
2023-08-09 10:00:23.787958,-110.0
2023-08-09 10:00:23.795647,-110.0
2023-08-09 10:00:23.803337,-105.0
2023-08-09 10:00:23.811027,-103.0
2023-08-09 10:00:23.818717,-103.0
2023-08-09 10:00:23.826407,-103.0
2023-08-09 10:00:23.834096,-98.0
2023-08-09 10:00:23.841786,-98.0
2023-08-09 10:00:23.849476,-96.0
2023-08-09 10:00:23.857166,-96.0
2023-08-09 10:00:23.864856,-93.0
2023-08-09 10:00:23.872545,-88.0
2023-08-09 10:00:23.880235,-91.0
2023-08-09 10:00:23.887925,-93.0
2023-08-09 10:00:23.895615,-86.0
2023-08-09 10:00:23.903305,-81.0
2023-08-09 10:00:23.910995,-88.0
2023-08-09 10:00:23.918684,-91.0
2023-08-09 10:00:23.926374,-84.0
2023-08-09 10:00:23.934064,-76.0
2023-08-09 10:00:23.941754,-76.0
2023-08-09 10:00:23.949444,-67.0
2023-08-09 10:00:23.957133,-38.0
2023-08-09 10:00:23.964823,-19.0
2023-08-09 10:00:23.972513,-21.0
2023-08-09 10:00:23.980203,-21.0
2023-08-09 10:00:23.987893,-33.0
2023-08-09 10:00:23.995582,-67.0
2023-08-09 10:00:24.003272,-88.0
2023-08-09 10:00:24.010962,-88.0
2023-08-09 10:00:24.018652,-88.0
2023-08-09 10:00:24.026342,-98.0
2023-08-09 10:00:24.034031,-101.0
2023-08-09 10:00:24.041721,-98.0
2023-08-09 10:00:24.049411,-98.0
2023-08-09 10:00:24.057101,-96.0
2023-08-09 10:00:24.064791,-91.0
2023-08-09 10:00:24.072481,-101.0
2023-08-09 10:00:24.080170,-115.0
2023-08-09 10:00:24.087860,-122.0
2023-08-09 10:00:24.095550,-64.0
2023-08-09 10:00:24.103240,168.0
2023-08-09 10:00:24.110930,550.0
2023-08-09 10:00:24.118619,817.0
2023-08-09 10:00:24.126309,639.0
2023-08-09 10:00:24.133999,31.0
2023-08-09 10:00:24.141689,-404.0
2023-08-09 10:00:24.149379,-264.0
2023-08-09 10:00:24.157068,-55.0
2023-08-09 10:00:24.164758,-125.0
2023-08-09 10:00:24.172448,-182.0
2023-08-09 10:00:24.180138,-134.0
2023-08-09 10:00:24.187828,-134.0
2023-08-09 10:00:24.195517,-156.0
2023-08-09 10:00:24.203207,-137.0
2023-08-09 10:00:24.210897,-127.0
2023-08-09 10:00:24.218587,-132.0
2023-08-09 10:00:24.226277,-122.0
2023-08-09 10:00:24.233967,-108.0
2023-08-09 10:00:24.241656,-101.0
2023-08-09 10:00:24.249346,-96.0
2023-08-09 10:00:24.257036,-91.0
2023-08-09 10:00:24.264726,-88.0
2023-08-09 10:00:24.272416,-79.0
2023-08-09 10:00:24.280105,-64.0
2023-08-09 10:00:24.287795,-55.0
2023-08-09 10:00:24.295485,-52.0
2023-08-09 10:00:24.303175,-45.0
2023-08-09 10:00:24.310865,-31.0
2023-08-09 10:00:24.318554,-21.0
2023-08-09 10:00:24.326244,-9.0
2023-08-09 10:00:24.333934,9.0
2023-08-09 10:00:24.341624,26.0
2023-08-09 10:00:24.349314,33.0
2023-08-09 10:00:24.357003,43.0
2023-08-09 10:00:24.364693,55.0
2023-08-09 10:00:24.372383,67.0
2023-08-09 10:00:24.380073,81.0
2023-08-09 10:00:24.387763,86.0
2023-08-09 10:00:24.395453,81.0
2023-08-09 10:00:24.403142,62.0
2023-08-09 10:00:24.410832,26.0
2023-08-09 10:00:24.418522,-14.0
2023-08-09 10:00:24.426212,-50.0
2023-08-09 10:00:24.433902,-81.0
2023-08-09 10:00:24.441591,-108.0
2023-08-09 10:00:24.449281,-127.0
2023-08-09 10:00:24.456971,-139.0
2023-08-09 10:00:24.464661,-137.0
2023-08-09 10:00:24.472351,-134.0
2023-08-09 10:00:24.480040,-139.0
2023-08-09 10:00:24.487730,-141.0
2023-08-09 10:00:24.495420,-129.0
2023-08-09 10:00:24.503110,-122.0
2023-08-09 10:00:24.510800,-125.0
2023-08-09 10:00:24.518490,-120.0
2023-08-09 10:00:24.526179,-117.0
2023-08-09 10:00:24.533869,-117.0
2023-08-09 10:00:24.541559,-110.0
2023-08-09 10:00:24.549249,-101.0
2023-08-09 10:00:24.556939,-101.0
2023-08-09 10:00:24.564628,-101.0
2023-08-09 10:00:24.572318,-101.0
2023-08-09 10:00:24.580008,-103.0
2023-08-09 10:00:24.587698,-101.0
2023-08-09 10:00:24.595388,-96.0
2023-08-09 10:00:24.603077,-84.0
2023-08-09 10:00:24.610767,-79.0
2023-08-09 10:00:24.618457,-91.0
2023-08-09 10:00:24.626147,-98.0
2023-08-09 10:00:24.633837,-91.0
2023-08-09 10:00:24.641526,-84.0
2023-08-09 10:00:24.649216,-81.0
2023-08-09 10:00:24.656906,-86.0
2023-08-09 10:00:24.664596,-93.0
2023-08-09 10:00:24.672286,-98.0
2023-08-09 10:00:24.679976,-103.0
2023-08-09 10:00:24.687665,-103.0
2023-08-09 10:00:24.695355,-96.0
2023-08-09 10:00:24.703045,-96.0
2023-08-09 10:00:24.710735,-96.0
2023-08-09 10:00:24.718425,-91.0
2023-08-09 10:00:24.726114,-84.0
2023-08-09 10:00:24.733804,-72.0
2023-08-09 10:00:24.741494,-48.0
2023-08-09 10:00:24.749184,-36.0
2023-08-09 10:00:24.756874,-43.0
2023-08-09 10:00:24.764563,-48.0
2023-08-09 10:00:24.772253,-38.0
2023-08-09 10:00:24.779943,-52.0
2023-08-09 10:00:24.787633,-79.0
2023-08-09 10:00:24.795323,-98.0
2023-08-09 10:00:24.803012,-113.0
2023-08-09 10:00:24.810702,-115.0
2023-08-09 10:00:24.818392,-105.0
2023-08-09 10:00:24.826082,-101.0
2023-08-09 10:00:24.833772,-103.0
2023-08-09 10:00:24.841462,-108.0
2023-08-09 10:00:24.849151,-108.0
2023-08-09 10:00:24.856841,-108.0
2023-08-09 10:00:24.864531,-103.0
2023-08-09 10:00:24.872221,-101.0
2023-08-09 10:00:24.879911,-110.0
2023-08-09 10:00:24.887600,-50.0
2023-08-09 10:00:24.895290,187.0
2023-08-09 10:00:24.902980,543.0
2023-08-09 10:00:24.910670,745.0
2023-08-09 10:00:24.918360,500.0
2023-08-09 10:00:24.926049,-93.0
2023-08-09 10:00:24.933739,-425.0
2023-08-09 10:00:24.941429,-252.0
2023-08-09 10:00:24.949119,-76.0
2023-08-09 10:00:24.956809,-127.0
2023-08-09 10:00:24.964498,-156.0
2023-08-09 10:00:24.972188,-129.0
2023-08-09 10:00:24.979878,-137.0
2023-08-09 10:00:24.987568,-146.0
2023-08-09 10:00:24.995258,-129.0
2023-08-09 10:00:25.002948,-117.0
2023-08-09 10:00:25.010637,-115.0
2023-08-09 10:00:25.018327,-108.0
2023-08-09 10:00:25.026017,-93.0
2023-08-09 10:00:25.033707,-93.0
2023-08-09 10:00:25.041397,-93.0
2023-08-09 10:00:25.049086,-74.0
2023-08-09 10:00:25.056776,-62.0
2023-08-09 10:00:25.064466,-69.0
2023-08-09 10:00:25.072156,-62.0
2023-08-09 10:00:25.079846,-45.0
2023-08-09 10:00:25.087535,-38.0
2023-08-09 10:00:25.095225,-36.0
2023-08-09 10:00:25.102915,-24.0
2023-08-09 10:00:25.110605,-4.0
2023-08-09 10:00:25.118295,12.0
2023-08-09 10:00:25.125985,19.0
2023-08-09 10:00:25.133674,33.0
2023-08-09 10:00:25.141364,57.0
2023-08-09 10:00:25.149054,64.0
2023-08-09 10:00:25.156744,69.0
2023-08-09 10:00:25.164434,93.0
2023-08-09 10:00:25.172123,105.0
2023-08-09 10:00:25.179813,93.0
2023-08-09 10:00:25.187503,69.0
2023-08-09 10:00:25.195193,40.0
2023-08-09 10:00:25.202883,7.0
2023-08-09 10:00:25.210572,-33.0
2023-08-09 10:00:25.218262,-74.0
2023-08-09 10:00:25.225952,-103.0
2023-08-09 10:00:25.233642,-120.0
2023-08-09 10:00:25.241332,-141.0
2023-08-09 10:00:25.249021,-156.0
2023-08-09 10:00:25.256711,-161.0
2023-08-09 10:00:25.264401,-168.0
2023-08-09 10:00:25.272091,-165.0
2023-08-09 10:00:25.279781,-161.0
2023-08-09 10:00:25.287471,-158.0
2023-08-09 10:00:25.295160,-151.0
2023-08-09 10:00:25.302850,-146.0
2023-08-09 10:00:25.310540,-137.0
2023-08-09 10:00:25.318230,-132.0
2023-08-09 10:00:25.325920,-134.0
2023-08-09 10:00:25.333609,-137.0
2023-08-09 10:00:25.341299,-141.0
2023-08-09 10:00:25.348989,-134.0
2023-08-09 10:00:25.356679,-125.0
2023-08-09 10:00:25.364369,-132.0
2023-08-09 10:00:25.372058,-134.0
2023-08-09 10:00:25.379748,-120.0
2023-08-09 10:00:25.387438,-120.0
2023-08-09 10:00:25.395128,-132.0
2023-08-09 10:00:25.402818,-120.0
2023-08-09 10:00:25.410507,-110.0
2023-08-09 10:00:25.418197,-115.0
2023-08-09 10:00:25.425887,-113.0
2023-08-09 10:00:25.433577,-110.0
2023-08-09 10:00:25.441267,-125.0
2023-08-09 10:00:25.448957,-125.0
2023-08-09 10:00:25.456646,-110.0
2023-08-09 10:00:25.464336,-103.0
2023-08-09 10:00:25.472026,-103.0
2023-08-09 10:00:25.479716,-101.0
2023-08-09 10:00:25.487406,-105.0
2023-08-09 10:00:25.495095,-110.0
2023-08-09 10:00:25.502785,-98.0
2023-08-09 10:00:25.510475,-74.0
2023-08-09 10:00:25.518165,-52.0
2023-08-09 10:00:25.525855,-48.0
2023-08-09 10:00:25.533544,-50.0
2023-08-09 10:00:25.541234,-55.0
2023-08-09 10:00:25.548924,-74.0
2023-08-09 10:00:25.556614,-103.0
2023-08-09 10:00:25.564304,-113.0
2023-08-09 10:00:25.571993,-108.0
2023-08-09 10:00:25.579683,-110.0
2023-08-09 10:00:25.587373,-113.0
2023-08-09 10:00:25.595063,-110.0
2023-08-09 10:00:25.602753,-110.0
2023-08-09 10:00:25.610443,-113.0
2023-08-09 10:00:25.618132,-108.0
2023-08-09 10:00:25.625822,-103.0
2023-08-09 10:00:25.633512,-110.0
2023-08-09 10:00:25.641202,-122.0
2023-08-09 10:00:25.648892,-72.0
2023-08-09 10:00:25.656581,158.0
2023-08-09 10:00:25.664271,562.0
2023-08-09 10:00:25.671961,856.0
2023-08-09 10:00:25.679651,670.0
2023-08-09 10:00:25.687341,24.0
2023-08-09 10:00:25.695030,-456.0
2023-08-09 10:00:25.702720,-341.0
2023-08-09 10:00:25.710410,-108.0
2023-08-09 10:00:25.718100,-132.0
2023-08-09 10:00:25.725790,-175.0
2023-08-09 10:00:25.733480,-144.0
2023-08-09 10:00:25.741169,-141.0
2023-08-09 10:00:25.748859,-146.0
2023-08-09 10:00:25.756549,-129.0
2023-08-09 10:00:25.764239,-125.0
2023-08-09 10:00:25.771929,-132.0
2023-08-09 10:00:25.779618,-127.0
2023-08-09 10:00:25.787308,-120.0
2023-08-09 10:00:25.794998,-125.0
2023-08-09 10:00:25.802688,-117.0
2023-08-09 10:00:25.810378,-103.0
2023-08-09 10:00:25.818067,-93.0
2023-08-09 10:00:25.825757,-86.0
2023-08-09 10:00:25.833447,-72.0
2023-08-09 10:00:25.841137,-60.0
2023-08-09 10:00:25.848827,-52.0
2023-08-09 10:00:25.856516,-40.0
2023-08-09 10:00:25.864206,-28.0
2023-08-09 10:00:25.871896,-16.0
2023-08-09 10:00:25.879586,-4.0
2023-08-09 10:00:25.887276,12.0
2023-08-09 10:00:25.894966,31.0
2023-08-09 10:00:25.902655,48.0
2023-08-09 10:00:25.910345,62.0
2023-08-09 10:00:25.918035,69.0
2023-08-09 10:00:25.925725,76.0
2023-08-09 10:00:25.933415,91.0
2023-08-09 10:00:25.941104,96.0
2023-08-09 10:00:25.948794,79.0
2023-08-09 10:00:25.956484,50.0
2023-08-09 10:00:25.964174,9.0
2023-08-09 10:00:25.971864,-31.0
2023-08-09 10:00:25.979553,-69.0
2023-08-09 10:00:25.987243,-103.0
2023-08-09 10:00:25.994933,-125.0
2023-08-09 10:00:26.002623,-137.0
2023-08-09 10:00:26.010313,-146.0
2023-08-09 10:00:26.018002,-151.0
2023-08-09 10:00:26.025692,-151.0
2023-08-09 10:00:26.033382,-149.0
2023-08-09 10:00:26.041072,-144.0
2023-08-09 10:00:26.048762,-137.0
2023-08-09 10:00:26.056452,-137.0
2023-08-09 10:00:26.064141,-137.0
2023-08-09 10:00:26.071831,-127.0
2023-08-09 10:00:26.079521,-122.0
2023-08-09 10:00:26.087211,-125.0
2023-08-09 10:00:26.094901,-122.0
2023-08-09 10:00:26.102590,-117.0
2023-08-09 10:00:26.110280,-115.0
2023-08-09 10:00:26.117970,-113.0
2023-08-09 10:00:26.125660,-113.0
2023-08-09 10:00:26.133350,-110.0
2023-08-09 10:00:26.141039,-105.0
2023-08-09 10:00:26.148729,-105.0
2023-08-09 10:00:26.156419,-110.0
2023-08-09 10:00:26.164109,-110.0
2023-08-09 10:00:26.171799,-110.0
2023-08-09 10:00:26.179488,-110.0
2023-08-09 10:00:26.187178,-110.0
2023-08-09 10:00:26.194868,-110.0
2023-08-09 10:00:26.202558,-110.0
2023-08-09 10:00:26.210248,-108.0
2023-08-09 10:00:26.217938,-108.0
2023-08-09 10:00:26.225627,-105.0
2023-08-09 10:00:26.233317,-103.0
2023-08-09 10:00:26.241007,-105.0
2023-08-09 10:00:26.248697,-105.0
2023-08-09 10:00:26.256387,-101.0
2023-08-09 10:00:26.264076,-93.0
2023-08-09 10:00:26.271766,-81.0
2023-08-09 10:00:26.279456,-60.0
2023-08-09 10:00:26.287146,-45.0
2023-08-09 10:00:26.294836,-52.0
2023-08-09 10:00:26.302525,-48.0
2023-08-09 10:00:26.310215,-50.0
2023-08-09 10:00:26.317905,-79.0
2023-08-09 10:00:26.325595,-110.0
2023-08-09 10:00:26.333285,-125.0
2023-08-09 10:00:26.340975,-127.0
2023-08-09 10:00:26.348664,-122.0
2023-08-09 10:00:26.356354,-122.0
2023-08-09 10:00:26.364044,-127.0
2023-08-09 10:00:26.371734,-127.0
2023-08-09 10:00:26.379424,-122.0
2023-08-09 10:00:26.387113,-117.0
2023-08-09 10:00:26.394803,-117.0
2023-08-09 10:00:26.402493,-129.0
2023-08-09 10:00:26.410183,-115.0
2023-08-09 10:00:26.417873,50.0
2023-08-09 10:00:26.425562,432.0
2023-08-09 10:00:26.433252,836.0
2023-08-09 10:00:26.440942,899.0
2023-08-09 10:00:26.448632,389.0
2023-08-09 10:00:26.456322,-300.0
2023-08-09 10:00:26.464011,-425.0
2023-08-09 10:00:26.471701,-134.0
2023-08-09 10:00:26.479391,-98.0
2023-08-09 10:00:26.487081,-214.0
2023-08-09 10:00:26.494771,-182.0
2023-08-09 10:00:26.502461,-144.0
2023-08-09 10:00:26.510150,-177.0
2023-08-09 10:00:26.517840,-173.0
2023-08-09 10:00:26.525530,-149.0
2023-08-09 10:00:26.533220,-149.0
2023-08-09 10:00:26.540910,-141.0
2023-08-09 10:00:26.548599,-125.0
2023-08-09 10:00:26.556289,-120.0
2023-08-09 10:00:26.563979,-115.0
2023-08-09 10:00:26.571669,-103.0
2023-08-09 10:00:26.579359,-88.0
2023-08-09 10:00:26.587048,-79.0
2023-08-09 10:00:26.594738,-74.0
2023-08-09 10:00:26.602428,-67.0
2023-08-09 10:00:26.610118,-60.0
2023-08-09 10:00:26.617808,-50.0
2023-08-09 10:00:26.625497,-38.0
2023-08-09 10:00:26.633187,-24.0
2023-08-09 10:00:26.640877,-9.0
2023-08-09 10:00:26.648567,0.0
2023-08-09 10:00:26.656257,9.0
2023-08-09 10:00:26.663947,26.0
2023-08-09 10:00:26.671636,40.0
2023-08-09 10:00:26.679326,52.0
2023-08-09 10:00:26.687016,67.0
2023-08-09 10:00:26.694706,79.0
2023-08-09 10:00:26.702396,84.0
2023-08-09 10:00:26.710085,84.0
2023-08-09 10:00:26.717775,74.0
2023-08-09 10:00:26.725465,38.0
2023-08-09 10:00:26.733155,-7.0
2023-08-09 10:00:26.740845,-48.0
2023-08-09 10:00:26.748534,-84.0
2023-08-09 10:00:26.756224,-110.0
2023-08-09 10:00:26.763914,-122.0
2023-08-09 10:00:26.771604,-134.0
2023-08-09 10:00:26.779294,-141.0
2023-08-09 10:00:26.786983,-149.0
2023-08-09 10:00:26.794673,-153.0
2023-08-09 10:00:26.802363,-149.0
2023-08-09 10:00:26.810053,-144.0
2023-08-09 10:00:26.817743,-141.0
2023-08-09 10:00:26.825433,-141.0
2023-08-09 10:00:26.833122,-137.0
2023-08-09 10:00:26.840812,-134.0
2023-08-09 10:00:26.848502,-129.0
2023-08-09 10:00:26.856192,-122.0
2023-08-09 10:00:26.863882,-122.0
2023-08-09 10:00:26.871571,-120.0
2023-08-09 10:00:26.879261,-113.0
2023-08-09 10:00:26.886951,-110.0
2023-08-09 10:00:26.894641,-113.0
2023-08-09 10:00:26.902331,-110.0
2023-08-09 10:00:26.910020,-115.0
2023-08-09 10:00:26.917710,-127.0
2023-08-09 10:00:26.925400,-127.0
2023-08-09 10:00:26.933090,-120.0
2023-08-09 10:00:26.940780,-117.0
2023-08-09 10:00:26.948470,-117.0
2023-08-09 10:00:26.956159,-117.0
2023-08-09 10:00:26.963849,-115.0
2023-08-09 10:00:26.971539,-113.0
2023-08-09 10:00:26.979229,-110.0
2023-08-09 10:00:26.986919,-110.0
2023-08-09 10:00:26.994608,-103.0
2023-08-09 10:00:27.002298,-103.0
2023-08-09 10:00:27.009988,-105.0
2023-08-09 10:00:27.017678,-103.0
2023-08-09 10:00:27.025368,-103.0
2023-08-09 10:00:27.033057,-103.0
2023-08-09 10:00:27.040747,-96.0
2023-08-09 10:00:27.048437,-96.0
2023-08-09 10:00:27.056127,-84.0
2023-08-09 10:00:27.063817,-52.0
2023-08-09 10:00:27.071506,-31.0
2023-08-09 10:00:27.079196,-31.0
2023-08-09 10:00:27.086886,-28.0
2023-08-09 10:00:27.094576,-40.0
2023-08-09 10:00:27.102266,-69.0
2023-08-09 10:00:27.109956,-96.0
2023-08-09 10:00:27.117645,-103.0
2023-08-09 10:00:27.125335,-103.0
2023-08-09 10:00:27.133025,-103.0
2023-08-09 10:00:27.140715,-105.0
2023-08-09 10:00:27.148405,-108.0
2023-08-09 10:00:27.156094,-110.0
2023-08-09 10:00:27.163784,-113.0
2023-08-09 10:00:27.171474,-110.0
2023-08-09 10:00:27.179164,-110.0
2023-08-09 10:00:27.186854,-115.0
2023-08-09 10:00:27.194543,-127.0
2023-08-09 10:00:27.202233,-88.0
2023-08-09 10:00:27.209923,110.0
2023-08-09 10:00:27.217613,500.0
2023-08-09 10:00:27.225303,834.0
2023-08-09 10:00:27.232992,764.0
2023-08-09 10:00:27.240682,185.0
2023-08-09 10:00:27.248372,-377.0
2023-08-09 10:00:27.256062,-341.0
2023-08-09 10:00:27.263752,-81.0
2023-08-09 10:00:27.271442,-113.0
2023-08-09 10:00:27.279131,-202.0
2023-08-09 10:00:27.286821,-153.0
2023-08-09 10:00:27.294511,-139.0
2023-08-09 10:00:27.302201,-170.0
2023-08-09 10:00:27.309891,-156.0
2023-08-09 10:00:27.317580,-134.0
2023-08-09 10:00:27.325270,-141.0
2023-08-09 10:00:27.332960,-134.0
2023-08-09 10:00:27.340650,-115.0
2023-08-09 10:00:27.348340,-110.0
2023-08-09 10:00:27.356029,-105.0
2023-08-09 10:00:27.363719,-96.0
2023-08-09 10:00:27.371409,-88.0
2023-08-09 10:00:27.379099,-79.0
2023-08-09 10:00:27.386789,-67.0
2023-08-09 10:00:27.394478,-62.0
2023-08-09 10:00:27.402168,-55.0
2023-08-09 10:00:27.409858,-45.0
2023-08-09 10:00:27.417548,-38.0
2023-08-09 10:00:27.425238,-24.0
2023-08-09 10:00:27.432928,-2.0
2023-08-09 10:00:27.440617,9.0
2023-08-09 10:00:27.448307,21.0
2023-08-09 10:00:27.455997,31.0
2023-08-09 10:00:27.463687,36.0
2023-08-09 10:00:27.471377,50.0
2023-08-09 10:00:27.479066,67.0
2023-08-09 10:00:27.486756,76.0
2023-08-09 10:00:27.494446,79.0
2023-08-09 10:00:27.502136,76.0
2023-08-09 10:00:27.509826,52.0
2023-08-09 10:00:27.517515,16.0
2023-08-09 10:00:27.525205,-26.0
2023-08-09 10:00:27.532895,-67.0
2023-08-09 10:00:27.540585,-101.0
2023-08-09 10:00:27.548275,-129.0
2023-08-09 10:00:27.555965,-141.0
2023-08-09 10:00:27.563654,-144.0
2023-08-09 10:00:27.571344,-149.0
2023-08-09 10:00:27.579034,-153.0
2023-08-09 10:00:27.586724,-151.0
2023-08-09 10:00:27.594414,-144.0
2023-08-09 10:00:27.602103,-137.0
2023-08-09 10:00:27.609793,-137.0
2023-08-09 10:00:27.617483,-137.0
2023-08-09 10:00:27.625173,-132.0
2023-08-09 10:00:27.632863,-127.0
2023-08-09 10:00:27.640552,-125.0
2023-08-09 10:00:27.648242,-125.0
2023-08-09 10:00:27.655932,-120.0
2023-08-09 10:00:27.663622,-113.0
2023-08-09 10:00:27.671312,-110.0
2023-08-09 10:00:27.679001,-110.0
2023-08-09 10:00:27.686691,-108.0
2023-08-09 10:00:27.694381,-105.0
2023-08-09 10:00:27.702071,-101.0
2023-08-09 10:00:27.709761,-103.0
2023-08-09 10:00:27.717451,-105.0
2023-08-09 10:00:27.725140,-101.0
2023-08-09 10:00:27.732830,-93.0
2023-08-09 10:00:27.740520,-96.0
2023-08-09 10:00:27.748210,-96.0
2023-08-09 10:00:27.755900,-93.0
2023-08-09 10:00:27.763589,-93.0
2023-08-09 10:00:27.771279,-93.0
2023-08-09 10:00:27.778969,-93.0
2023-08-09 10:00:27.786659,-88.0
2023-08-09 10:00:27.794349,-86.0
2023-08-09 10:00:27.802038,-91.0
2023-08-09 10:00:27.809728,-96.0
2023-08-09 10:00:27.817418,-96.0
2023-08-09 10:00:27.825108,-91.0
2023-08-09 10:00:27.832798,-88.0
2023-08-09 10:00:27.840487,-84.0
2023-08-09 10:00:27.848177,-84.0
2023-08-09 10:00:27.855867,-86.0
2023-08-09 10:00:27.863557,-88.0
2023-08-09 10:00:27.871247,-88.0
2023-08-09 10:00:27.878937,-88.0
2023-08-09 10:00:27.886626,-84.0
2023-08-09 10:00:27.894316,-81.0
2023-08-09 10:00:27.902006,-76.0
2023-08-09 10:00:27.909696,-48.0
2023-08-09 10:00:27.917386,-21.0
2023-08-09 10:00:27.925075,-14.0
2023-08-09 10:00:27.932765,-16.0
2023-08-09 10:00:27.940455,-33.0
2023-08-09 10:00:27.948145,-64.0
2023-08-09 10:00:27.955835,-86.0
2023-08-09 10:00:27.963524,-88.0
2023-08-09 10:00:27.971214,-84.0
2023-08-09 10:00:27.978904,-84.0
2023-08-09 10:00:27.986594,-91.0
2023-08-09 10:00:27.994284,-103.0
2023-08-09 10:00:28.001973,-108.0
2023-08-09 10:00:28.009663,-103.0
2023-08-09 10:00:28.017353,-98.0
2023-08-09 10:00:28.025043,-93.0
2023-08-09 10:00:28.032733,-93.0
2023-08-09 10:00:28.040423,-113.0
2023-08-09 10:00:28.048112,-120.0
2023-08-09 10:00:28.055802,-12.0
2023-08-09 10:00:28.063492,295.0
2023-08-09 10:00:28.071182,670.0
2023-08-09 10:00:28.078872,791.0
2023-08-09 10:00:28.086561,408.0
2023-08-09 10:00:28.094251,-214.0
2023-08-09 10:00:28.101941,-401.0
2023-08-09 10:00:28.109631,-151.0
2023-08-09 10:00:28.117321,-52.0
2023-08-09 10:00:28.125010,-149.0
2023-08-09 10:00:28.132700,-151.0
2023-08-09 10:00:28.140390,-113.0
2023-08-09 10:00:28.148080,-120.0
2023-08-09 10:00:28.155770,-117.0
2023-08-09 10:00:28.163460,-103.0
2023-08-09 10:00:28.171149,-105.0
2023-08-09 10:00:28.178839,-105.0
2023-08-09 10:00:28.186529,-96.0
2023-08-09 10:00:28.194219,-86.0
2023-08-09 10:00:28.201909,-79.0
2023-08-09 10:00:28.209598,-69.0
2023-08-09 10:00:28.217288,-62.0
2023-08-09 10:00:28.224978,-55.0
2023-08-09 10:00:28.232668,-50.0
2023-08-09 10:00:28.240358,-40.0
2023-08-09 10:00:28.248047,-28.0
2023-08-09 10:00:28.255737,-24.0
2023-08-09 10:00:28.263427,-14.0
2023-08-09 10:00:28.271117,0.0
2023-08-09 10:00:28.278807,16.0
2023-08-09 10:00:28.286496,31.0
2023-08-09 10:00:28.294186,38.0
2023-08-09 10:00:28.301876,36.0
2023-08-09 10:00:28.309566,43.0
2023-08-09 10:00:28.317256,76.0
2023-08-09 10:00:28.324946,98.0
2023-08-09 10:00:28.332635,101.0
2023-08-09 10:00:28.340325,105.0
2023-08-09 10:00:28.348015,103.0
2023-08-09 10:00:28.355705,79.0
2023-08-09 10:00:28.363395,55.0
2023-08-09 10:00:28.371084,26.0
2023-08-09 10:00:28.378774,-28.0
2023-08-09 10:00:28.386464,-84.0
2023-08-09 10:00:28.394154,-105.0
2023-08-09 10:00:28.401844,-105.0
2023-08-09 10:00:28.409533,-125.0
2023-08-09 10:00:28.417223,-139.0
2023-08-09 10:00:28.424913,-137.0
2023-08-09 10:00:28.432603,-141.0
2023-08-09 10:00:28.440293,-149.0
2023-08-09 10:00:28.447982,-141.0
2023-08-09 10:00:28.455672,-134.0
2023-08-09 10:00:28.463362,-137.0
2023-08-09 10:00:28.471052,-137.0
2023-08-09 10:00:28.478742,-125.0
2023-08-09 10:00:28.486432,-117.0
2023-08-09 10:00:28.494121,-120.0
2023-08-09 10:00:28.501811,-122.0
2023-08-09 10:00:28.509501,-120.0
2023-08-09 10:00:28.517191,-113.0
2023-08-09 10:00:28.524881,-105.0
2023-08-09 10:00:28.532570,-103.0
2023-08-09 10:00:28.540260,-110.0
2023-08-09 10:00:28.547950,-110.0
2023-08-09 10:00:28.555640,-101.0
2023-08-09 10:00:28.563330,-103.0
2023-08-09 10:00:28.571019,-113.0
2023-08-09 10:00:28.578709,-110.0
2023-08-09 10:00:28.586399,-105.0
2023-08-09 10:00:28.594089,-110.0
2023-08-09 10:00:28.601779,-108.0
2023-08-09 10:00:28.609468,-96.0
2023-08-09 10:00:28.617158,-98.0
2023-08-09 10:00:28.624848,-103.0
2023-08-09 10:00:28.632538,-101.0
2023-08-09 10:00:28.640228,-101.0
2023-08-09 10:00:28.647918,-105.0
2023-08-09 10:00:28.655607,-98.0
2023-08-09 10:00:28.663297,-91.0
2023-08-09 10:00:28.670987,-103.0
2023-08-09 10:00:28.678677,-113.0
2023-08-09 10:00:28.686367,-101.0
2023-08-09 10:00:28.694056,-93.0
2023-08-09 10:00:28.701746,-108.0
2023-08-09 10:00:28.709436,-115.0
2023-08-09 10:00:28.717126,-105.0
2023-08-09 10:00:28.724816,-103.0
2023-08-09 10:00:28.732505,-113.0
2023-08-09 10:00:28.740195,-110.0
2023-08-09 10:00:28.747885,-91.0
2023-08-09 10:00:28.755575,-67.0
2023-08-09 10:00:28.763265,-52.0
2023-08-09 10:00:28.770955,-52.0
2023-08-09 10:00:28.778644,-48.0
2023-08-09 10:00:28.786334,-45.0
2023-08-09 10:00:28.794024,-67.0
2023-08-09 10:00:28.801714,-93.0
2023-08-09 10:00:28.809404,-98.0
2023-08-09 10:00:28.817093,-105.0
2023-08-09 10:00:28.824783,-115.0
2023-08-09 10:00:28.832473,-105.0
2023-08-09 10:00:28.840163,-103.0
2023-08-09 10:00:28.847853,-120.0
2023-08-09 10:00:28.855542,-127.0
2023-08-09 10:00:28.863232,-117.0
2023-08-09 10:00:28.870922,-113.0
2023-08-09 10:00:28.878612,-120.0
2023-08-09 10:00:28.886302,-125.0
2023-08-09 10:00:28.893991,-122.0
2023-08-09 10:00:28.901681,-110.0
2023-08-09 10:00:28.909371,9.0
2023-08-09 10:00:28.917061,360.0
2023-08-09 10:00:28.924751,767.0
2023-08-09 10:00:28.932441,841.0
2023-08-09 10:00:28.940130,360.0
2023-08-09 10:00:28.947820,-298.0
2023-08-09 10:00:28.955510,-444.0
2023-08-09 10:00:28.963200,-175.0
2023-08-09 10:00:28.970890,-86.0
2023-08-09 10:00:28.978579,-161.0
2023-08-09 10:00:28.986269,-141.0
2023-08-09 10:00:28.993959,-105.0
2023-08-09 10:00:29.001649,-125.0
2023-08-09 10:00:29.009339,-129.0
2023-08-09 10:00:29.017028,-110.0
2023-08-09 10:00:29.024718,-101.0
2023-08-09 10:00:29.032408,-96.0
2023-08-09 10:00:29.040098,-91.0
2023-08-09 10:00:29.047788,-81.0
2023-08-09 10:00:29.055477,-69.0
2023-08-09 10:00:29.063167,-62.0
2023-08-09 10:00:29.070857,-55.0
2023-08-09 10:00:29.078547,-45.0
2023-08-09 10:00:29.086237,-38.0
2023-08-09 10:00:29.093927,-21.0
2023-08-09 10:00:29.101616,-14.0
2023-08-09 10:00:29.109306,-16.0
2023-08-09 10:00:29.116996,-2.0
2023-08-09 10:00:29.124686,19.0
2023-08-09 10:00:29.132376,31.0
2023-08-09 10:00:29.140065,40.0
2023-08-09 10:00:29.147755,62.0
2023-08-09 10:00:29.155445,79.0
2023-08-09 10:00:29.163135,91.0
2023-08-09 10:00:29.170825,113.0
2023-08-09 10:00:29.178514,125.0
2023-08-09 10:00:29.186204,125.0
2023-08-09 10:00:29.193894,129.0
2023-08-09 10:00:29.201584,137.0
2023-08-09 10:00:29.209274,120.0
2023-08-09 10:00:29.216963,69.0
2023-08-09 10:00:29.224653,16.0
2023-08-09 10:00:29.232343,-28.0
2023-08-09 10:00:29.240033,-69.0
2023-08-09 10:00:29.247723,-105.0
2023-08-09 10:00:29.255413,-120.0
2023-08-09 10:00:29.263102,-127.0
2023-08-09 10:00:29.270792,-137.0
2023-08-09 10:00:29.278482,-141.0
2023-08-09 10:00:29.286172,-144.0
2023-08-09 10:00:29.293862,-146.0
2023-08-09 10:00:29.301551,-146.0
2023-08-09 10:00:29.309241,-139.0
2023-08-09 10:00:29.316931,-134.0
2023-08-09 10:00:29.324621,-134.0
2023-08-09 10:00:29.332311,-132.0
2023-08-09 10:00:29.340000,-127.0
2023-08-09 10:00:29.347690,-129.0
2023-08-09 10:00:29.355380,-122.0
2023-08-09 10:00:29.363070,-113.0
2023-08-09 10:00:29.370760,-110.0
2023-08-09 10:00:29.378450,-110.0
2023-08-09 10:00:29.386139,-108.0
2023-08-09 10:00:29.393829,-105.0
2023-08-09 10:00:29.401519,-108.0
2023-08-09 10:00:29.409209,-103.0
2023-08-09 10:00:29.416899,-96.0
2023-08-09 10:00:29.424588,-101.0
2023-08-09 10:00:29.432278,-108.0
2023-08-09 10:00:29.439968,-101.0
2023-08-09 10:00:29.447658,-98.0
2023-08-09 10:00:29.455348,-98.0
2023-08-09 10:00:29.463037,-91.0
2023-08-09 10:00:29.470727,-88.0
2023-08-09 10:00:29.478417,-101.0
2023-08-09 10:00:29.486107,-103.0
2023-08-09 10:00:29.493797,-91.0
2023-08-09 10:00:29.501486,-86.0
2023-08-09 10:00:29.509176,-91.0
2023-08-09 10:00:29.516866,-96.0
2023-08-09 10:00:29.524556,-93.0
2023-08-09 10:00:29.532246,-88.0
2023-08-09 10:00:29.539936,-79.0
2023-08-09 10:00:29.547625,-72.0
2023-08-09 10:00:29.555315,-76.0
2023-08-09 10:00:29.563005,-84.0
2023-08-09 10:00:29.570695,-86.0
2023-08-09 10:00:29.578385,-86.0
2023-08-09 10:00:29.586074,-74.0
2023-08-09 10:00:29.593764,-67.0
2023-08-09 10:00:29.601454,-79.0
2023-08-09 10:00:29.609144,-81.0
2023-08-09 10:00:29.616834,-74.0
2023-08-09 10:00:29.624523,-57.0
2023-08-09 10:00:29.632213,-33.0
2023-08-09 10:00:29.639903,-21.0
2023-08-09 10:00:29.647593,-28.0
2023-08-09 10:00:29.655283,-33.0
2023-08-09 10:00:29.662972,-43.0
2023-08-09 10:00:29.670662,-69.0
2023-08-09 10:00:29.678352,-86.0
2023-08-09 10:00:29.686042,-91.0
2023-08-09 10:00:29.693732,-91.0
2023-08-09 10:00:29.701422,-98.0
2023-08-09 10:00:29.709111,-108.0
2023-08-09 10:00:29.716801,-110.0
2023-08-09 10:00:29.724491,-105.0
2023-08-09 10:00:29.732181,-103.0
2023-08-09 10:00:29.739871,-103.0
2023-08-09 10:00:29.747560,-98.0
2023-08-09 10:00:29.755250,-101.0
2023-08-09 10:00:29.762940,-113.0
2023-08-09 10:00:29.770630,-110.0
2023-08-09 10:00:29.778320,19.0
2023-08-09 10:00:29.786009,370.0
2023-08-09 10:00:29.793699,800.0
2023-08-09 10:00:29.801389,949.0
2023-08-09 10:00:29.809079,531.0
2023-08-09 10:00:29.816769,-187.0
2023-08-09 10:00:29.824458,-454.0
2023-08-09 10:00:29.832148,-194.0
2023-08-09 10:00:29.839838,-72.0
2023-08-09 10:00:29.847528,-173.0
2023-08-09 10:00:29.855218,-175.0
2023-08-09 10:00:29.862908,-132.0
2023-08-09 10:00:29.870597,-151.0
2023-08-09 10:00:29.878287,-149.0
2023-08-09 10:00:29.885977,-125.0
2023-08-09 10:00:29.893667,-120.0
2023-08-09 10:00:29.901357,-115.0
2023-08-09 10:00:29.909046,-101.0
2023-08-09 10:00:29.916736,-93.0
2023-08-09 10:00:29.924426,-91.0
2023-08-09 10:00:29.932116,-84.0
2023-08-09 10:00:29.939806,-74.0
2023-08-09 10:00:29.947495,-67.0
2023-08-09 10:00:29.955185,-57.0
2023-08-09 10:00:29.962875,-48.0
2023-08-09 10:00:29.970565,-40.0
2023-08-09 10:00:29.978255,-31.0
2023-08-09 10:00:29.985945,-19.0
2023-08-09 10:00:29.993634,-7.0
2023-08-09 10:00:30.001324,9.0
2023-08-09 10:00:30.009014,28.0
2023-08-09 10:00:30.016704,38.0
2023-08-09 10:00:30.024394,50.0
2023-08-09 10:00:30.032083,72.0
2023-08-09 10:00:30.039773,91.0
2023-08-09 10:00:30.047463,103.0
2023-08-09 10:00:30.055153,115.0
2023-08-09 10:00:30.062843,125.0
2023-08-09 10:00:30.070532,127.0
2023-08-09 10:00:30.078222,117.0
2023-08-09 10:00:30.085912,93.0
2023-08-09 10:00:30.093602,50.0
2023-08-09 10:00:30.101292,0.0
2023-08-09 10:00:30.108981,-48.0
2023-08-09 10:00:30.116671,-81.0
2023-08-09 10:00:30.124361,-108.0
2023-08-09 10:00:30.132051,-127.0
2023-08-09 10:00:30.139741,-137.0
2023-08-09 10:00:30.147431,-139.0
2023-08-09 10:00:30.155120,-146.0
2023-08-09 10:00:30.162810,-149.0
2023-08-09 10:00:30.170500,-144.0
2023-08-09 10:00:30.178190,-139.0
2023-08-09 10:00:30.185880,-137.0
2023-08-09 10:00:30.193569,-132.0
2023-08-09 10:00:30.201259,-132.0
2023-08-09 10:00:30.208949,-129.0
2023-08-09 10:00:30.216639,-125.0
2023-08-09 10:00:30.224329,-120.0
2023-08-09 10:00:30.232018,-115.0
2023-08-09 10:00:30.239708,-110.0
2023-08-09 10:00:30.247398,-110.0
2023-08-09 10:00:30.255088,-110.0
2023-08-09 10:00:30.262778,-108.0
2023-08-09 10:00:30.270467,-108.0
2023-08-09 10:00:30.278157,-108.0
2023-08-09 10:00:30.285847,-110.0
2023-08-09 10:00:30.293537,-117.0
2023-08-09 10:00:30.301227,-120.0
2023-08-09 10:00:30.308917,-115.0
2023-08-09 10:00:30.316606,-113.0
2023-08-09 10:00:30.324296,-115.0
2023-08-09 10:00:30.331986,-120.0
2023-08-09 10:00:30.339676,-125.0
2023-08-09 10:00:30.347366,-122.0
2023-08-09 10:00:30.355055,-120.0
2023-08-09 10:00:30.362745,-122.0
2023-08-09 10:00:30.370435,-117.0
2023-08-09 10:00:30.378125,-113.0
2023-08-09 10:00:30.385815,-115.0
2023-08-09 10:00:30.393504,-120.0
2023-08-09 10:00:30.401194,-110.0
2023-08-09 10:00:30.408884,-105.0
2023-08-09 10:00:30.416574,-105.0
2023-08-09 10:00:30.424264,-108.0
2023-08-09 10:00:30.431953,-108.0
2023-08-09 10:00:30.439643,-108.0
2023-08-09 10:00:30.447333,-110.0
2023-08-09 10:00:30.455023,-103.0
2023-08-09 10:00:30.462713,-101.0
2023-08-09 10:00:30.470403,-108.0
2023-08-09 10:00:30.478092,-108.0
2023-08-09 10:00:30.485782,-105.0
2023-08-09 10:00:30.493472,-103.0
2023-08-09 10:00:30.501162,-69.0
2023-08-09 10:00:30.508852,-33.0
2023-08-09 10:00:30.516541,-36.0
2023-08-09 10:00:30.524231,-45.0
2023-08-09 10:00:30.531921,-45.0
2023-08-09 10:00:30.539611,-64.0
2023-08-09 10:00:30.547301,-91.0
2023-08-09 10:00:30.554990,-101.0
2023-08-09 10:00:30.562680,-103.0
2023-08-09 10:00:30.570370,-101.0
2023-08-09 10:00:30.578060,-103.0
2023-08-09 10:00:30.585750,-103.0
2023-08-09 10:00:30.593440,-101.0
2023-08-09 10:00:30.601129,-103.0
2023-08-09 10:00:30.608819,-105.0
2023-08-09 10:00:30.616509,-105.0
2023-08-09 10:00:30.624199,-103.0
2023-08-09 10:00:30.631889,-108.0
2023-08-09 10:00:30.639578,-117.0
2023-08-09 10:00:30.647268,-64.0
2023-08-09 10:00:30.654958,180.0
2023-08-09 10:00:30.662648,601.0
2023-08-09 10:00:30.670338,930.0
2023-08-09 10:00:30.678027,812.0
2023-08-09 10:00:30.685717,173.0
2023-08-09 10:00:30.693407,-387.0
2023-08-09 10:00:30.701097,-305.0
2023-08-09 10:00:30.708787,-60.0
2023-08-09 10:00:30.716476,-120.0
2023-08-09 10:00:30.724166,-189.0
2023-08-09 10:00:30.731856,-127.0
2023-08-09 10:00:30.739546,-122.0
2023-08-09 10:00:30.747236,-151.0
2023-08-09 10:00:30.754926,-127.0
2023-08-09 10:00:30.762615,-108.0
2023-08-09 10:00:30.770305,-110.0
2023-08-09 10:00:30.777995,-98.0
2023-08-09 10:00:30.785685,-84.0
2023-08-09 10:00:30.793375,-84.0
2023-08-09 10:00:30.801064,-79.0
2023-08-09 10:00:30.808754,-67.0
2023-08-09 10:00:30.816444,-60.0
2023-08-09 10:00:30.824134,-55.0
2023-08-09 10:00:30.831824,-45.0
2023-08-09 10:00:30.839513,-40.0
2023-08-09 10:00:30.847203,-36.0
2023-08-09 10:00:30.854893,-26.0
2023-08-09 10:00:30.862583,-12.0
2023-08-09 10:00:30.870273,-2.0
2023-08-09 10:00:30.877962,2.0
2023-08-09 10:00:30.885652,12.0
2023-08-09 10:00:30.893342,28.0
2023-08-09 10:00:30.901032,45.0
2023-08-09 10:00:30.908722,64.0
2023-08-09 10:00:30.916412,81.0
2023-08-09 10:00:30.924101,86.0
2023-08-09 10:00:30.931791,96.0
2023-08-09 10:00:30.939481,110.0
2023-08-09 10:00:30.947171,113.0
2023-08-09 10:00:30.954861,103.0
2023-08-09 10:00:30.962550,72.0
2023-08-09 10:00:30.970240,24.0
2023-08-09 10:00:30.977930,-21.0
2023-08-09 10:00:30.985620,-57.0
2023-08-09 10:00:30.993310,-88.0
2023-08-09 10:00:31.000999,-110.0
2023-08-09 10:00:31.008689,-120.0
2023-08-09 10:00:31.016379,-129.0
2023-08-09 10:00:31.024069,-134.0
2023-08-09 10:00:31.031759,-137.0
2023-08-09 10:00:31.039448,-134.0
2023-08-09 10:00:31.047138,-132.0
2023-08-09 10:00:31.054828,-129.0
2023-08-09 10:00:31.062518,-127.0
2023-08-09 10:00:31.070208,-122.0
2023-08-09 10:00:31.077898,-120.0
2023-08-09 10:00:31.085587,-120.0
2023-08-09 10:00:31.093277,-120.0
2023-08-09 10:00:31.100967,-120.0
2023-08-09 10:00:31.108657,-117.0
2023-08-09 10:00:31.116347,-113.0
2023-08-09 10:00:31.124036,-110.0
2023-08-09 10:00:31.131726,-105.0
2023-08-09 10:00:31.139416,-103.0
2023-08-09 10:00:31.147106,-103.0
2023-08-09 10:00:31.154796,-98.0
2023-08-09 10:00:31.162485,-96.0
2023-08-09 10:00:31.170175,-96.0
2023-08-09 10:00:31.177865,-93.0
2023-08-09 10:00:31.185555,-98.0
2023-08-09 10:00:31.193245,-101.0
2023-08-09 10:00:31.200935,-96.0
2023-08-09 10:00:31.208624,-91.0
2023-08-09 10:00:31.216314,-96.0
2023-08-09 10:00:31.224004,-96.0
2023-08-09 10:00:31.231694,-91.0
2023-08-09 10:00:31.239384,-93.0
2023-08-09 10:00:31.247073,-96.0
2023-08-09 10:00:31.254763,-93.0
2023-08-09 10:00:31.262453,-91.0
2023-08-09 10:00:31.270143,-93.0
2023-08-09 10:00:31.277833,-96.0
2023-08-09 10:00:31.285522,-93.0
2023-08-09 10:00:31.293212,-91.0
2023-08-09 10:00:31.300902,-88.0
2023-08-09 10:00:31.308592,-81.0
2023-08-09 10:00:31.316282,-76.0
2023-08-09 10:00:31.323971,-79.0
2023-08-09 10:00:31.331661,-81.0
2023-08-09 10:00:31.339351,-81.0
2023-08-09 10:00:31.347041,-86.0
2023-08-09 10:00:31.354731,-91.0
2023-08-09 10:00:31.362421,-86.0
2023-08-09 10:00:31.370110,-76.0
2023-08-09 10:00:31.377800,-72.0
2023-08-09 10:00:31.385490,-55.0
2023-08-09 10:00:31.393180,-24.0
2023-08-09 10:00:31.400870,-12.0
2023-08-09 10:00:31.408559,-14.0
2023-08-09 10:00:31.416249,-24.0
2023-08-09 10:00:31.423939,-50.0
2023-08-09 10:00:31.431629,-76.0
2023-08-09 10:00:31.439319,-86.0
2023-08-09 10:00:31.447008,-88.0
2023-08-09 10:00:31.454698,-86.0
2023-08-09 10:00:31.462388,-93.0
2023-08-09 10:00:31.470078,-93.0
2023-08-09 10:00:31.477768,-88.0
2023-08-09 10:00:31.485457,-86.0
2023-08-09 10:00:31.493147,-88.0
2023-08-09 10:00:31.500837,-91.0
2023-08-09 10:00:31.508527,-84.0
2023-08-09 10:00:31.516217,-79.0
2023-08-09 10:00:31.523907,-91.0
2023-08-09 10:00:31.531596,-64.0
2023-08-09 10:00:31.539286,127.0
2023-08-09 10:00:31.546976,507.0
2023-08-09 10:00:31.554666,834.0
2023-08-09 10:00:31.562356,774.0
2023-08-09 10:00:31.570045,228.0
2023-08-09 10:00:31.577735,-319.0
2023-08-09 10:00:31.585425,-307.0
2023-08-09 10:00:31.593115,-60.0
2023-08-09 10:00:31.600805,-79.0
2023-08-09 10:00:31.608494,-165.0
2023-08-09 10:00:31.616184,-127.0
2023-08-09 10:00:31.623874,-105.0
2023-08-09 10:00:31.631564,-122.0
2023-08-09 10:00:31.639254,-105.0
2023-08-09 10:00:31.646943,-86.0
2023-08-09 10:00:31.654633,-86.0
2023-08-09 10:00:31.662323,-81.0
2023-08-09 10:00:31.670013,-72.0
2023-08-09 10:00:31.677703,-72.0
2023-08-09 10:00:31.685393,-69.0
2023-08-09 10:00:31.693082,-55.0
2023-08-09 10:00:31.700772,-45.0
2023-08-09 10:00:31.708462,-43.0
2023-08-09 10:00:31.716152,-36.0
2023-08-09 10:00:31.723842,-28.0
2023-08-09 10:00:31.731531,-16.0
2023-08-09 10:00:31.739221,-2.0
2023-08-09 10:00:31.746911,7.0
2023-08-09 10:00:31.754601,9.0
2023-08-09 10:00:31.762291,26.0
2023-08-09 10:00:31.769980,48.0
2023-08-09 10:00:31.777670,57.0
2023-08-09 10:00:31.785360,67.0
2023-08-09 10:00:31.793050,81.0
2023-08-09 10:00:31.800740,98.0
2023-08-09 10:00:31.808430,117.0
2023-08-09 10:00:31.816119,129.0
2023-08-09 10:00:31.823809,125.0
2023-08-09 10:00:31.831499,120.0
2023-08-09 10:00:31.839189,108.0
2023-08-09 10:00:31.846879,76.0
2023-08-09 10:00:31.854568,31.0
2023-08-09 10:00:31.862258,-12.0
2023-08-09 10:00:31.869948,-57.0
2023-08-09 10:00:31.877638,-93.0
2023-08-09 10:00:31.885328,-108.0
2023-08-09 10:00:31.893017,-120.0
2023-08-09 10:00:31.900707,-141.0
2023-08-09 10:00:31.908397,-149.0
2023-08-09 10:00:31.916087,-144.0
2023-08-09 10:00:31.923777,-137.0
2023-08-09 10:00:31.931466,-139.0
2023-08-09 10:00:31.939156,-141.0
2023-08-09 10:00:31.946846,-132.0
2023-08-09 10:00:31.954536,-132.0
2023-08-09 10:00:31.962226,-139.0
2023-08-09 10:00:31.969916,-129.0
2023-08-09 10:00:31.977605,-122.0
2023-08-09 10:00:31.985295,-127.0
2023-08-09 10:00:31.992985,-129.0
2023-08-09 10:00:32.000675,-132.0
2023-08-09 10:00:32.008365,-137.0
2023-08-09 10:00:32.016054,-132.0
2023-08-09 10:00:32.023744,-120.0
2023-08-09 10:00:32.031434,-117.0
2023-08-09 10:00:32.039124,-125.0
2023-08-09 10:00:32.046814,-127.0
2023-08-09 10:00:32.054503,-120.0
2023-08-09 10:00:32.062193,-115.0
2023-08-09 10:00:32.069883,-122.0
2023-08-09 10:00:32.077573,-122.0
2023-08-09 10:00:32.085263,-115.0
2023-08-09 10:00:32.092952,-120.0
2023-08-09 10:00:32.100642,-122.0
2023-08-09 10:00:32.108332,-113.0
2023-08-09 10:00:32.116022,-101.0
2023-08-09 10:00:32.123712,-103.0
2023-08-09 10:00:32.131402,-113.0
2023-08-09 10:00:32.139091,-117.0
2023-08-09 10:00:32.146781,-105.0
2023-08-09 10:00:32.154471,-91.0
2023-08-09 10:00:32.162161,-91.0
2023-08-09 10:00:32.169851,-101.0
2023-08-09 10:00:32.177540,-101.0
2023-08-09 10:00:32.185230,-93.0
2023-08-09 10:00:32.192920,-96.0
2023-08-09 10:00:32.200610,-93.0
2023-08-09 10:00:32.208300,-81.0
2023-08-09 10:00:32.215989,-81.0
2023-08-09 10:00:32.223679,-96.0
2023-08-09 10:00:32.231369,-98.0
2023-08-09 10:00:32.239059,-84.0
2023-08-09 10:00:32.246749,-64.0
2023-08-09 10:00:32.254438,-45.0
2023-08-09 10:00:32.262128,-36.0
2023-08-09 10:00:32.269818,-33.0
2023-08-09 10:00:32.277508,-24.0
2023-08-09 10:00:32.285198,-31.0
2023-08-09 10:00:32.292888,-67.0
2023-08-09 10:00:32.300577,-91.0
2023-08-09 10:00:32.308267,-86.0
2023-08-09 10:00:32.315957,-84.0
2023-08-09 10:00:32.323647,-96.0
2023-08-09 10:00:32.331337,-103.0
2023-08-09 10:00:32.339026,-103.0
2023-08-09 10:00:32.346716,-96.0
2023-08-09 10:00:32.354406,-103.0
2023-08-09 10:00:32.362096,-105.0
2023-08-09 10:00:32.369786,-91.0
2023-08-09 10:00:32.377475,-86.0
2023-08-09 10:00:32.385165,-113.0
2023-08-09 10:00:32.392855,-105.0
2023-08-09 10:00:32.400545,52.0
2023-08-09 10:00:32.408235,416.0
2023-08-09 10:00:32.415925,791.0
2023-08-09 10:00:32.423614,815.0
2023-08-09 10:00:32.431304,310.0
2023-08-09 10:00:32.438994,-317.0
2023-08-09 10:00:32.446684,-413.0
2023-08-09 10:00:32.454374,-141.0
2023-08-09 10:00:32.462063,-67.0
2023-08-09 10:00:32.469753,-141.0
2023-08-09 10:00:32.477443,-134.0
2023-08-09 10:00:32.485133,-108.0
2023-08-09 10:00:32.492823,-122.0
2023-08-09 10:00:32.500512,-113.0
2023-08-09 10:00:32.508202,-91.0
2023-08-09 10:00:32.515892,-86.0
2023-08-09 10:00:32.523582,-81.0
2023-08-09 10:00:32.531272,-69.0
2023-08-09 10:00:32.538961,-72.0
2023-08-09 10:00:32.546651,-79.0
2023-08-09 10:00:32.554341,-76.0
2023-08-09 10:00:32.562031,-60.0
2023-08-09 10:00:32.569721,-50.0
2023-08-09 10:00:32.577411,-50.0
2023-08-09 10:00:32.585100,-52.0
2023-08-09 10:00:32.592790,-55.0
2023-08-09 10:00:32.600480,-40.0
2023-08-09 10:00:32.608170,-14.0
2023-08-09 10:00:32.615860,2.0
2023-08-09 10:00:32.623549,7.0
2023-08-09 10:00:32.631239,12.0
2023-08-09 10:00:32.638929,24.0
2023-08-09 10:00:32.646619,45.0
2023-08-09 10:00:32.654309,62.0
2023-08-09 10:00:32.661998,81.0
2023-08-09 10:00:32.669688,101.0
2023-08-09 10:00:32.677378,103.0
2023-08-09 10:00:32.685068,105.0
2023-08-09 10:00:32.692758,113.0
2023-08-09 10:00:32.700447,101.0
2023-08-09 10:00:32.708137,69.0
2023-08-09 10:00:32.715827,21.0
2023-08-09 10:00:32.723517,-40.0
2023-08-09 10:00:32.731207,-88.0
2023-08-09 10:00:32.738897,-122.0
2023-08-09 10:00:32.746586,-156.0
2023-08-09 10:00:32.754276,-170.0
2023-08-09 10:00:32.761966,-180.0
2023-08-09 10:00:32.769656,-197.0
2023-08-09 10:00:32.777346,-197.0
2023-08-09 10:00:32.785035,-180.0
2023-08-09 10:00:32.792725,-177.0
2023-08-09 10:00:32.800415,-185.0
2023-08-09 10:00:32.808105,-182.0
2023-08-09 10:00:32.815795,-175.0
2023-08-09 10:00:32.823484,-173.0
2023-08-09 10:00:32.831174,-163.0
2023-08-09 10:00:32.838864,-151.0
2023-08-09 10:00:32.846554,-153.0
2023-08-09 10:00:32.854244,-153.0
2023-08-09 10:00:32.861933,-149.0
2023-08-09 10:00:32.869623,-146.0
2023-08-09 10:00:32.877313,-141.0
2023-08-09 10:00:32.885003,-139.0
2023-08-09 10:00:32.892693,-134.0
2023-08-09 10:00:32.900383,-141.0
2023-08-09 10:00:32.908072,-151.0
2023-08-09 10:00:32.915762,-139.0
2023-08-09 10:00:32.923452,-120.0
2023-08-09 10:00:32.931142,-117.0
2023-08-09 10:00:32.938832,-122.0
2023-08-09 10:00:32.946521,-129.0
2023-08-09 10:00:32.954211,-127.0
2023-08-09 10:00:32.961901,-115.0
2023-08-09 10:00:32.969591,-101.0
2023-08-09 10:00:32.977281,-98.0
2023-08-09 10:00:32.984970,-108.0
2023-08-09 10:00:32.992660,-113.0
2023-08-09 10:00:33.000350,-108.0
2023-08-09 10:00:33.008040,-103.0
2023-08-09 10:00:33.015730,-96.0
2023-08-09 10:00:33.023420,-91.0
2023-08-09 10:00:33.031109,-93.0
2023-08-09 10:00:33.038799,-93.0
2023-08-09 10:00:33.046489,-81.0
2023-08-09 10:00:33.054179,-69.0
2023-08-09 10:00:33.061869,-76.0
2023-08-09 10:00:33.069558,-88.0
2023-08-09 10:00:33.077248,-91.0
2023-08-09 10:00:33.084938,-98.0
2023-08-09 10:00:33.092628,-103.0
2023-08-09 10:00:33.100318,-76.0
2023-08-09 10:00:33.108007,-36.0
2023-08-09 10:00:33.115697,-24.0
2023-08-09 10:00:33.123387,-33.0
2023-08-09 10:00:33.131077,-33.0
2023-08-09 10:00:33.138767,-38.0
2023-08-09 10:00:33.146456,-67.0
2023-08-09 10:00:33.154146,-88.0
2023-08-09 10:00:33.161836,-86.0
2023-08-09 10:00:33.169526,-81.0
2023-08-09 10:00:33.177216,-88.0
2023-08-09 10:00:33.184906,-88.0
2023-08-09 10:00:33.192595,-86.0
2023-08-09 10:00:33.200285,-88.0
2023-08-09 10:00:33.207975,-84.0
2023-08-09 10:00:33.215665,-81.0
2023-08-09 10:00:33.223355,-84.0
2023-08-09 10:00:33.231044,-84.0
2023-08-09 10:00:33.238734,-88.0
2023-08-09 10:00:33.246424,-45.0
2023-08-09 10:00:33.254114,175.0
2023-08-09 10:00:33.261804,589.0
2023-08-09 10:00:33.269493,921.0
2023-08-09 10:00:33.277183,808.0
2023-08-09 10:00:33.284873,185.0
2023-08-09 10:00:33.292563,-387.0
2023-08-09 10:00:33.300253,-341.0
2023-08-09 10:00:33.307942,-69.0
2023-08-09 10:00:33.315632,-79.0
2023-08-09 10:00:33.323322,-153.0
2023-08-09 10:00:33.331012,-117.0
2023-08-09 10:00:33.338702,-96.0
2023-08-09 10:00:33.346392,-115.0
2023-08-09 10:00:33.354081,-108.0
2023-08-09 10:00:33.361771,-93.0
2023-08-09 10:00:33.369461,-93.0
2023-08-09 10:00:33.377151,-88.0
2023-08-09 10:00:33.384841,-76.0
2023-08-09 10:00:33.392530,-69.0
2023-08-09 10:00:33.400220,-64.0
2023-08-09 10:00:33.407910,-57.0
2023-08-09 10:00:33.415600,-52.0
2023-08-09 10:00:33.423290,-43.0
2023-08-09 10:00:33.430979,-31.0
2023-08-09 10:00:33.438669,-26.0
2023-08-09 10:00:33.446359,-19.0
2023-08-09 10:00:33.454049,-4.0
2023-08-09 10:00:33.461739,9.0
2023-08-09 10:00:33.469428,19.0
2023-08-09 10:00:33.477118,26.0
2023-08-09 10:00:33.484808,36.0
2023-08-09 10:00:33.492498,55.0
2023-08-09 10:00:33.500188,79.0
2023-08-09 10:00:33.507878,93.0
2023-08-09 10:00:33.515567,110.0
2023-08-09 10:00:33.523257,122.0
2023-08-09 10:00:33.530947,132.0
2023-08-09 10:00:33.538637,141.0
2023-08-09 10:00:33.546327,139.0
2023-08-09 10:00:33.554016,127.0
2023-08-09 10:00:33.561706,103.0
2023-08-09 10:00:33.569396,55.0
2023-08-09 10:00:33.577086,-4.0
2023-08-09 10:00:33.584776,-52.0
2023-08-09 10:00:33.592465,-84.0
2023-08-09 10:00:33.600155,-108.0
2023-08-09 10:00:33.607845,-125.0
2023-08-09 10:00:33.615535,-141.0
2023-08-09 10:00:33.623225,-158.0
2023-08-09 10:00:33.630914,-161.0
2023-08-09 10:00:33.638604,-153.0
2023-08-09 10:00:33.646294,-149.0
2023-08-09 10:00:33.653984,-149.0
2023-08-09 10:00:33.661674,-151.0
2023-08-09 10:00:33.669364,-153.0
2023-08-09 10:00:33.677053,-146.0
2023-08-09 10:00:33.684743,-141.0
2023-08-09 10:00:33.692433,-139.0
2023-08-09 10:00:33.700123,-134.0
2023-08-09 10:00:33.707813,-134.0
2023-08-09 10:00:33.715502,-139.0
2023-08-09 10:00:33.723192,-137.0
2023-08-09 10:00:33.730882,-129.0
2023-08-09 10:00:33.738572,-129.0
2023-08-09 10:00:33.746262,-127.0
2023-08-09 10:00:33.753951,-122.0
2023-08-09 10:00:33.761641,-125.0
2023-08-09 10:00:33.769331,-125.0
2023-08-09 10:00:33.777021,-117.0
2023-08-09 10:00:33.784711,-115.0
2023-08-09 10:00:33.792401,-110.0
2023-08-09 10:00:33.800090,-108.0
2023-08-09 10:00:33.807780,-115.0
2023-08-09 10:00:33.815470,-110.0
2023-08-09 10:00:33.823160,-98.0
2023-08-09 10:00:33.830850,-101.0
2023-08-09 10:00:33.838539,-103.0
2023-08-09 10:00:33.846229,-101.0
2023-08-09 10:00:33.853919,-101.0
2023-08-09 10:00:33.861609,-103.0
2023-08-09 10:00:33.869299,-103.0
2023-08-09 10:00:33.876988,-98.0
2023-08-09 10:00:33.884678,-96.0
2023-08-09 10:00:33.892368,-98.0
2023-08-09 10:00:33.900058,-98.0
2023-08-09 10:00:33.907748,-91.0
2023-08-09 10:00:33.915437,-86.0
2023-08-09 10:00:33.923127,-86.0
2023-08-09 10:00:33.930817,-88.0
2023-08-09 10:00:33.938507,-72.0
2023-08-09 10:00:33.946197,-38.0
2023-08-09 10:00:33.953887,-19.0
2023-08-09 10:00:33.961576,-24.0
2023-08-09 10:00:33.969266,-21.0
2023-08-09 10:00:33.976956,-26.0
2023-08-09 10:00:33.984646,-57.0
2023-08-09 10:00:33.992336,-81.0
2023-08-09 10:00:34.000025,-81.0
2023-08-09 10:00:34.007715,-81.0
2023-08-09 10:00:34.015405,-84.0
2023-08-09 10:00:34.023095,-84.0
2023-08-09 10:00:34.030785,-84.0
2023-08-09 10:00:34.038474,-86.0
2023-08-09 10:00:34.046164,-86.0
2023-08-09 10:00:34.053854,-84.0
2023-08-09 10:00:34.061544,-81.0
2023-08-09 10:00:34.069234,-86.0
2023-08-09 10:00:34.076923,-103.0
2023-08-09 10:00:34.084613,-55.0
2023-08-09 10:00:34.092303,182.0
2023-08-09 10:00:34.099993,603.0
2023-08-09 10:00:34.107683,945.0
2023-08-09 10:00:34.115373,844.0
2023-08-09 10:00:34.123062,218.0
2023-08-09 10:00:34.130752,-372.0
2023-08-09 10:00:34.138442,-319.0
2023-08-09 10:00:34.146132,-43.0
2023-08-09 10:00:34.153822,-84.0
2023-08-09 10:00:34.161511,-173.0
2023-08-09 10:00:34.169201,-117.0
2023-08-09 10:00:34.176891,-101.0
2023-08-09 10:00:34.184581,-129.0
2023-08-09 10:00:34.192271,-110.0
2023-08-09 10:00:34.199960,-91.0
2023-08-09 10:00:34.207650,-96.0
2023-08-09 10:00:34.215340,-86.0
2023-08-09 10:00:34.223030,-74.0
2023-08-09 10:00:34.230720,-72.0
2023-08-09 10:00:34.238409,-64.0
2023-08-09 10:00:34.246099,-62.0
2023-08-09 10:00:34.253789,-62.0
2023-08-09 10:00:34.261479,-57.0
2023-08-09 10:00:34.269169,-48.0
2023-08-09 10:00:34.276859,-38.0
2023-08-09 10:00:34.284548,-31.0
2023-08-09 10:00:34.292238,-24.0
2023-08-09 10:00:34.299928,-14.0
2023-08-09 10:00:34.307618,-2.0
2023-08-09 10:00:34.315308,12.0
2023-08-09 10:00:34.322997,24.0
2023-08-09 10:00:34.330687,38.0
2023-08-09 10:00:34.338377,55.0
2023-08-09 10:00:34.346067,67.0
2023-08-09 10:00:34.353757,79.0
2023-08-09 10:00:34.361446,88.0
2023-08-09 10:00:34.369136,93.0
2023-08-09 10:00:34.376826,101.0
2023-08-09 10:00:34.384516,110.0
2023-08-09 10:00:34.392206,108.0
2023-08-09 10:00:34.399896,84.0
2023-08-09 10:00:34.407585,43.0
2023-08-09 10:00:34.415275,-2.0
2023-08-09 10:00:34.422965,-43.0
2023-08-09 10:00:34.430655,-79.0
2023-08-09 10:00:34.438345,-108.0
2023-08-09 10:00:34.446034,-127.0
2023-08-09 10:00:34.453724,-139.0
2023-08-09 10:00:34.461414,-141.0
2023-08-09 10:00:34.469104,-141.0
2023-08-09 10:00:34.476794,-139.0
2023-08-09 10:00:34.484483,-139.0
2023-08-09 10:00:34.492173,-137.0
2023-08-09 10:00:34.499863,-132.0
2023-08-09 10:00:34.507553,-127.0
2023-08-09 10:00:34.515243,-125.0
2023-08-09 10:00:34.522932,-125.0
2023-08-09 10:00:34.530622,-120.0
2023-08-09 10:00:34.538312,-115.0
2023-08-09 10:00:34.546002,-120.0
2023-08-09 10:00:34.553692,-120.0
2023-08-09 10:00:34.561382,-113.0
2023-08-09 10:00:34.569071,-110.0
2023-08-09 10:00:34.576761,-110.0
2023-08-09 10:00:34.584451,-113.0
2023-08-09 10:00:34.592141,-110.0
2023-08-09 10:00:34.599831,-108.0
2023-08-09 10:00:34.607520,-103.0
2023-08-09 10:00:34.615210,-101.0
2023-08-09 10:00:34.622900,-103.0
2023-08-09 10:00:34.630590,-101.0
2023-08-09 10:00:34.638280,-101.0
2023-08-09 10:00:34.645969,-98.0
2023-08-09 10:00:34.653659,-98.0
2023-08-09 10:00:34.661349,-98.0
2023-08-09 10:00:34.669039,-96.0
2023-08-09 10:00:34.676729,-91.0
2023-08-09 10:00:34.684418,-86.0
2023-08-09 10:00:34.692108,-86.0
2023-08-09 10:00:34.699798,-88.0
2023-08-09 10:00:34.707488,-86.0
2023-08-09 10:00:34.715178,-84.0
2023-08-09 10:00:34.722868,-84.0
2023-08-09 10:00:34.730557,-86.0
2023-08-09 10:00:34.738247,-86.0
2023-08-09 10:00:34.745937,-93.0
2023-08-09 10:00:34.753627,-96.0
2023-08-09 10:00:34.761317,-84.0
2023-08-09 10:00:34.769006,-55.0
2023-08-09 10:00:34.776696,-33.0
2023-08-09 10:00:34.784386,-33.0
2023-08-09 10:00:34.792076,-38.0
2023-08-09 10:00:34.799766,-36.0
2023-08-09 10:00:34.807455,-52.0
2023-08-09 10:00:34.815145,-84.0
2023-08-09 10:00:34.822835,-96.0
2023-08-09 10:00:34.830525,-93.0
2023-08-09 10:00:34.838215,-96.0
2023-08-09 10:00:34.845904,-101.0
2023-08-09 10:00:34.853594,-98.0
2023-08-09 10:00:34.861284,-98.0
2023-08-09 10:00:34.868974,-105.0
2023-08-09 10:00:34.876664,-108.0
2023-08-09 10:00:34.884354,-103.0
2023-08-09 10:00:34.892043,-103.0
2023-08-09 10:00:34.899733,-113.0
2023-08-09 10:00:34.907423,-76.0
2023-08-09 10:00:34.915113,129.0
2023-08-09 10:00:34.922803,521.0
2023-08-09 10:00:34.930492,853.0
2023-08-09 10:00:34.938182,791.0
2023-08-09 10:00:34.945872,216.0
2023-08-09 10:00:34.953562,-360.0
2023-08-09 10:00:34.961252,-336.0
2023-08-09 10:00:34.968941,-62.0
2023-08-09 10:00:34.976631,-93.0
2023-08-09 10:00:34.984321,-185.0
2023-08-09 10:00:34.992011,-134.0
2023-08-09 10:00:34.999701,-117.0
2023-08-09 10:00:35.007391,-141.0
2023-08-09 10:00:35.015080,-122.0
2023-08-09 10:00:35.022770,-108.0
2023-08-09 10:00:35.030460,-115.0
2023-08-09 10:00:35.038150,-108.0
2023-08-09 10:00:35.045840,-98.0
2023-08-09 10:00:35.053529,-93.0
2023-08-09 10:00:35.061219,-84.0
2023-08-09 10:00:35.068909,-74.0
2023-08-09 10:00:35.076599,-67.0
2023-08-09 10:00:35.084289,-57.0
2023-08-09 10:00:35.091978,-48.0
2023-08-09 10:00:35.099668,-43.0
2023-08-09 10:00:35.107358,-38.0
2023-08-09 10:00:35.115048,-24.0
2023-08-09 10:00:35.122738,-12.0
2023-08-09 10:00:35.130427,-2.0
2023-08-09 10:00:35.138117,7.0
2023-08-09 10:00:35.145807,19.0
2023-08-09 10:00:35.153497,31.0
2023-08-09 10:00:35.161187,40.0
2023-08-09 10:00:35.168877,57.0
2023-08-09 10:00:35.176566,72.0
2023-08-09 10:00:35.184256,81.0
2023-08-09 10:00:35.191946,88.0
2023-08-09 10:00:35.199636,96.0
2023-08-09 10:00:35.207326,103.0
2023-08-09 10:00:35.215015,98.0
2023-08-09 10:00:35.222705,72.0
2023-08-09 10:00:35.230395,36.0
2023-08-09 10:00:35.238085,-12.0
2023-08-09 10:00:35.245775,-52.0
2023-08-09 10:00:35.253464,-84.0
2023-08-09 10:00:35.261154,-108.0
2023-08-09 10:00:35.268844,-125.0
2023-08-09 10:00:35.276534,-134.0
2023-08-09 10:00:35.284224,-144.0
2023-08-09 10:00:35.291913,-146.0
2023-08-09 10:00:35.299603,-139.0
2023-08-09 10:00:35.307293,-134.0
2023-08-09 10:00:35.314983,-137.0
2023-08-09 10:00:35.322673,-137.0
2023-08-09 10:00:35.330363,-141.0
2023-08-09 10:00:35.338052,-149.0
2023-08-09 10:00:35.345742,-144.0
2023-08-09 10:00:35.353432,-134.0
2023-08-09 10:00:35.361122,-132.0
2023-08-09 10:00:35.368812,-134.0
2023-08-09 10:00:35.376501,-137.0
2023-08-09 10:00:35.384191,-139.0
2023-08-09 10:00:35.391881,-134.0
2023-08-09 10:00:35.399571,-129.0
2023-08-09 10:00:35.407261,-127.0
2023-08-09 10:00:35.414950,-127.0
2023-08-09 10:00:35.422640,-122.0
2023-08-09 10:00:35.430330,-115.0
2023-08-09 10:00:35.438020,-117.0
2023-08-09 10:00:35.445710,-117.0
2023-08-09 10:00:35.453399,-110.0
2023-08-09 10:00:35.461089,-110.0
2023-08-09 10:00:35.468779,-115.0
2023-08-09 10:00:35.476469,-110.0
2023-08-09 10:00:35.484159,-108.0
2023-08-09 10:00:35.491849,-105.0
2023-08-09 10:00:35.499538,-101.0
2023-08-09 10:00:35.507228,-98.0
2023-08-09 10:00:35.514918,-98.0
2023-08-09 10:00:35.522608,-96.0
2023-08-09 10:00:35.530298,-103.0
2023-08-09 10:00:35.537987,-105.0
2023-08-09 10:00:35.545677,-93.0
2023-08-09 10:00:35.553367,-101.0
2023-08-09 10:00:35.561057,-103.0
2023-08-09 10:00:35.568747,-86.0
2023-08-09 10:00:35.576436,-84.0
2023-08-09 10:00:35.584126,-98.0
2023-08-09 10:00:35.591816,-93.0
2023-08-09 10:00:35.599506,-69.0
2023-08-09 10:00:35.607196,-36.0
2023-08-09 10:00:35.614886,-19.0
2023-08-09 10:00:35.622575,-24.0
2023-08-09 10:00:35.630265,-24.0
2023-08-09 10:00:35.637955,-28.0
2023-08-09 10:00:35.645645,-67.0
2023-08-09 10:00:35.653335,-96.0
2023-08-09 10:00:35.661024,-93.0
2023-08-09 10:00:35.668714,-86.0
2023-08-09 10:00:35.676404,-93.0
2023-08-09 10:00:35.684094,-93.0
2023-08-09 10:00:35.691784,-91.0
2023-08-09 10:00:35.699473,-96.0
2023-08-09 10:00:35.707163,-93.0
2023-08-09 10:00:35.714853,-81.0
2023-08-09 10:00:35.722543,-81.0
2023-08-09 10:00:35.730233,-98.0
2023-08-09 10:00:35.737922,-110.0
2023-08-09 10:00:35.745612,-26.0
2023-08-09 10:00:35.753302,247.0
2023-08-09 10:00:35.760992,627.0
2023-08-09 10:00:35.768682,810.0
2023-08-09 10:00:35.776372,502.0
2023-08-09 10:00:35.784061,-125.0
2023-08-09 10:00:35.791751,-418.0
2023-08-09 10:00:35.799441,-209.0
2023-08-09 10:00:35.807131,-55.0
2023-08-09 10:00:35.814821,-129.0
2023-08-09 10:00:35.822510,-153.0
2023-08-09 10:00:35.830200,-113.0
2023-08-09 10:00:35.837890,-115.0
2023-08-09 10:00:35.845580,-125.0
2023-08-09 10:00:35.853270,-105.0
2023-08-09 10:00:35.860959,-93.0
2023-08-09 10:00:35.868649,-96.0
2023-08-09 10:00:35.876339,-96.0
2023-08-09 10:00:35.884029,-98.0
2023-08-09 10:00:35.891719,-91.0
2023-08-09 10:00:35.899408,-76.0
2023-08-09 10:00:35.907098,-64.0
2023-08-09 10:00:35.914788,-64.0
2023-08-09 10:00:35.922478,-67.0
2023-08-09 10:00:35.930168,-57.0
2023-08-09 10:00:35.937858,-45.0
2023-08-09 10:00:35.945547,-36.0
2023-08-09 10:00:35.953237,-24.0
2023-08-09 10:00:35.960927,-14.0
2023-08-09 10:00:35.968617,-4.0
2023-08-09 10:00:35.976307,7.0
2023-08-09 10:00:35.983996,28.0
2023-08-09 10:00:35.991686,48.0
2023-08-09 10:00:35.999376,57.0
2023-08-09 10:00:36.007066,69.0
2023-08-09 10:00:36.014756,81.0
2023-08-09 10:00:36.022445,86.0
2023-08-09 10:00:36.030135,91.0
2023-08-09 10:00:36.037825,98.0
2023-08-09 10:00:36.045515,96.0
2023-08-09 10:00:36.053205,79.0
2023-08-09 10:00:36.060894,36.0
2023-08-09 10:00:36.068584,-14.0
2023-08-09 10:00:36.076274,-45.0
2023-08-09 10:00:36.083964,-74.0
2023-08-09 10:00:36.091654,-110.0
2023-08-09 10:00:36.099344,-134.0
2023-08-09 10:00:36.107033,-139.0
2023-08-09 10:00:36.114723,-146.0
2023-08-09 10:00:36.122413,-149.0
2023-08-09 10:00:36.130103,-146.0
2023-08-09 10:00:36.137793,-151.0
2023-08-09 10:00:36.145482,-151.0
2023-08-09 10:00:36.153172,-141.0
2023-08-09 10:00:36.160862,-137.0
2023-08-09 10:00:36.168552,-137.0
2023-08-09 10:00:36.176242,-129.0
2023-08-09 10:00:36.183931,-132.0
2023-08-09 10:00:36.191621,-137.0
2023-08-09 10:00:36.199311,-132.0
2023-08-09 10:00:36.207001,-134.0
2023-08-09 10:00:36.214691,-139.0
2023-08-09 10:00:36.222381,-129.0
2023-08-09 10:00:36.230070,-127.0
2023-08-09 10:00:36.237760,-141.0
2023-08-09 10:00:36.245450,-141.0
2023-08-09 10:00:36.253140,-127.0
2023-08-09 10:00:36.260830,-129.0
2023-08-09 10:00:36.268519,-134.0
2023-08-09 10:00:36.276209,-134.0
2023-08-09 10:00:36.283899,-137.0
2023-08-09 10:00:36.291589,-132.0
2023-08-09 10:00:36.299279,-122.0
2023-08-09 10:00:36.306968,-127.0
2023-08-09 10:00:36.314658,-134.0
2023-08-09 10:00:36.322348,-129.0
2023-08-09 10:00:36.330038,-113.0
2023-08-09 10:00:36.337728,-110.0
2023-08-09 10:00:36.345417,-115.0
2023-08-09 10:00:36.353107,-115.0
2023-08-09 10:00:36.360797,-117.0
2023-08-09 10:00:36.368487,-117.0
2023-08-09 10:00:36.376177,-113.0
2023-08-09 10:00:36.383867,-120.0
2023-08-09 10:00:36.391556,-120.0
2023-08-09 10:00:36.399246,-84.0
2023-08-09 10:00:36.406936,-52.0
2023-08-09 10:00:36.414626,-55.0
2023-08-09 10:00:36.422316,-64.0
2023-08-09 10:00:36.430005,-55.0
2023-08-09 10:00:36.437695,-60.0
2023-08-09 10:00:36.445385,-93.0
2023-08-09 10:00:36.453075,-127.0
2023-08-09 10:00:36.460765,-132.0
2023-08-09 10:00:36.468454,-122.0
2023-08-09 10:00:36.476144,-122.0
2023-08-09 10:00:36.483834,-127.0
2023-08-09 10:00:36.491524,-117.0
2023-08-09 10:00:36.499214,-113.0
2023-08-09 10:00:36.506903,-120.0
2023-08-09 10:00:36.514593,-117.0
2023-08-09 10:00:36.522283,-115.0
2023-08-09 10:00:36.529973,-129.0
2023-08-09 10:00:36.537663,-113.0
2023-08-09 10:00:36.545353,52.0
2023-08-09 10:00:36.553042,413.0
2023-08-09 10:00:36.560732,779.0
2023-08-09 10:00:36.568422,793.0
2023-08-09 10:00:36.576112,278.0
2023-08-09 10:00:36.583802,-348.0
2023-08-09 10:00:36.591491,-432.0
2023-08-09 10:00:36.599181,-146.0
2023-08-09 10:00:36.606871,-72.0
2023-08-09 10:00:36.614561,-151.0
2023-08-09 10:00:36.622251,-141.0
2023-08-09 10:00:36.629940,-115.0
2023-08-09 10:00:36.637630,-129.0
2023-08-09 10:00:36.645320,-125.0
2023-08-09 10:00:36.653010,-103.0
2023-08-09 10:00:36.660700,-101.0
2023-08-09 10:00:36.668389,-96.0
2023-08-09 10:00:36.676079,-86.0
2023-08-09 10:00:36.683769,-79.0
2023-08-09 10:00:36.691459,-72.0
2023-08-09 10:00:36.699149,-62.0
2023-08-09 10:00:36.706839,-55.0
2023-08-09 10:00:36.714528,-45.0
2023-08-09 10:00:36.722218,-40.0
2023-08-09 10:00:36.729908,-38.0
2023-08-09 10:00:36.737598,-26.0
2023-08-09 10:00:36.745288,-7.0
2023-08-09 10:00:36.752977,2.0
2023-08-09 10:00:36.760667,7.0
2023-08-09 10:00:36.768357,21.0
2023-08-09 10:00:36.776047,38.0
2023-08-09 10:00:36.783737,52.0
2023-08-09 10:00:36.791426,69.0
2023-08-09 10:00:36.799116,86.0
2023-08-09 10:00:36.806806,98.0
2023-08-09 10:00:36.814496,110.0
2023-08-09 10:00:36.822186,120.0
2023-08-09 10:00:36.829876,129.0
2023-08-09 10:00:36.837565,129.0
2023-08-09 10:00:36.845255,115.0
2023-08-09 10:00:36.852945,86.0
2023-08-09 10:00:36.860635,43.0
2023-08-09 10:00:36.868325,-7.0
2023-08-09 10:00:36.876014,-50.0
2023-08-09 10:00:36.883704,-79.0
2023-08-09 10:00:36.891394,-105.0
2023-08-09 10:00:36.899084,-129.0
2023-08-09 10:00:36.906774,-144.0
2023-08-09 10:00:36.914463,-149.0
2023-08-09 10:00:36.922153,-151.0
2023-08-09 10:00:36.929843,-146.0
2023-08-09 10:00:36.937533,-141.0
2023-08-09 10:00:36.945223,-137.0
2023-08-09 10:00:36.952912,-132.0
2023-08-09 10:00:36.960602,-127.0
2023-08-09 10:00:36.968292,-125.0
2023-08-09 10:00:36.975982,-120.0
2023-08-09 10:00:36.983672,-117.0
2023-08-09 10:00:36.991362,-120.0
2023-08-09 10:00:36.999051,-122.0
2023-08-09 10:00:37.006741,-122.0
2023-08-09 10:00:37.014431,-117.0
2023-08-09 10:00:37.022121,-110.0
2023-08-09 10:00:37.029811,-108.0
2023-08-09 10:00:37.037500,-113.0
2023-08-09 10:00:37.045190,-113.0
2023-08-09 10:00:37.052880,-105.0
2023-08-09 10:00:37.060570,-101.0
2023-08-09 10:00:37.068260,-101.0
2023-08-09 10:00:37.075949,-103.0
2023-08-09 10:00:37.083639,-110.0
2023-08-09 10:00:37.091329,-122.0
2023-08-09 10:00:37.099019,-122.0
2023-08-09 10:00:37.106709,-117.0
2023-08-09 10:00:37.114398,-115.0
2023-08-09 10:00:37.122088,-113.0
2023-08-09 10:00:37.129778,-113.0
2023-08-09 10:00:37.137468,-117.0
2023-08-09 10:00:37.145158,-115.0
2023-08-09 10:00:37.152848,-108.0
2023-08-09 10:00:37.160537,-108.0
2023-08-09 10:00:37.168227,-110.0
2023-08-09 10:00:37.175917,-108.0
2023-08-09 10:00:37.183607,-91.0
2023-08-09 10:00:37.191297,-64.0
2023-08-09 10:00:37.198986,-48.0
2023-08-09 10:00:37.206676,-45.0
2023-08-09 10:00:37.214366,-40.0
2023-08-09 10:00:37.222056,-45.0
2023-08-09 10:00:37.229746,-69.0
2023-08-09 10:00:37.237435,-96.0
2023-08-09 10:00:37.245125,-108.0
2023-08-09 10:00:37.252815,-105.0
2023-08-09 10:00:37.260505,-108.0
2023-08-09 10:00:37.268195,-113.0
2023-08-09 10:00:37.275884,-113.0
2023-08-09 10:00:37.283574,-108.0
2023-08-09 10:00:37.291264,-101.0
2023-08-09 10:00:37.298954,-101.0
2023-08-09 10:00:37.306644,-103.0
2023-08-09 10:00:37.314334,-115.0
2023-08-09 10:00:37.322023,-113.0
2023-08-09 10:00:37.329713,0.0
2023-08-09 10:00:37.337403,327.0
2023-08-09 10:00:37.345093,757.0
2023-08-09 10:00:37.352783,952.0
2023-08-09 10:00:37.360472,606.0
2023-08-09 10:00:37.368162,-113.0
2023-08-09 10:00:37.375852,-444.0
2023-08-09 10:00:37.383542,-192.0
2023-08-09 10:00:37.391232,-38.0
2023-08-09 10:00:37.398921,-161.0
2023-08-09 10:00:37.406611,-182.0
2023-08-09 10:00:37.414301,-120.0
2023-08-09 10:00:37.421991,-134.0
2023-08-09 10:00:37.429681,-144.0
2023-08-09 10:00:37.437371,-117.0
2023-08-09 10:00:37.445060,-113.0
2023-08-09 10:00:37.452750,-115.0
2023-08-09 10:00:37.460440,-98.0
2023-08-09 10:00:37.468130,-86.0
2023-08-09 10:00:37.475820,-84.0
2023-08-09 10:00:37.483509,-76.0
2023-08-09 10:00:37.491199,-67.0
2023-08-09 10:00:37.498889,-62.0
2023-08-09 10:00:37.506579,-55.0
2023-08-09 10:00:37.514269,-43.0
2023-08-09 10:00:37.521958,-31.0
2023-08-09 10:00:37.529648,-24.0
2023-08-09 10:00:37.537338,-16.0
2023-08-09 10:00:37.545028,-7.0
2023-08-09 10:00:37.552718,4.0
2023-08-09 10:00:37.560407,19.0
2023-08-09 10:00:37.568097,36.0
2023-08-09 10:00:37.575787,45.0
2023-08-09 10:00:37.583477,48.0
2023-08-09 10:00:37.591167,57.0
2023-08-09 10:00:37.598857,76.0
2023-08-09 10:00:37.606546,91.0
2023-08-09 10:00:37.614236,101.0
2023-08-09 10:00:37.621926,108.0
2023-08-09 10:00:37.629616,105.0
2023-08-09 10:00:37.637306,86.0
2023-08-09 10:00:37.644995,52.0
2023-08-09 10:00:37.652685,12.0
2023-08-09 10:00:37.660375,-28.0
2023-08-09 10:00:37.668065,-62.0
2023-08-09 10:00:37.675755,-93.0
2023-08-09 10:00:37.683444,-115.0
2023-08-09 10:00:37.691134,-122.0
2023-08-09 10:00:37.698824,-122.0
2023-08-09 10:00:37.706514,-127.0
2023-08-09 10:00:37.714204,-125.0
2023-08-09 10:00:37.721893,-117.0
2023-08-09 10:00:37.729583,-117.0
2023-08-09 10:00:37.737273,-120.0
2023-08-09 10:00:37.744963,-115.0
2023-08-09 10:00:37.752653,-113.0
2023-08-09 10:00:37.760343,-110.0
2023-08-09 10:00:37.768032,-110.0
2023-08-09 10:00:37.775722,-110.0
2023-08-09 10:00:37.783412,-110.0
2023-08-09 10:00:37.791102,-108.0
2023-08-09 10:00:37.798792,-103.0
2023-08-09 10:00:37.806481,-103.0
2023-08-09 10:00:37.814171,-103.0
2023-08-09 10:00:37.821861,-98.0
2023-08-09 10:00:37.829551,-96.0
2023-08-09 10:00:37.837241,-96.0
2023-08-09 10:00:37.844930,-96.0
2023-08-09 10:00:37.852620,-96.0
2023-08-09 10:00:37.860310,-96.0
2023-08-09 10:00:37.868000,-93.0
2023-08-09 10:00:37.875690,-91.0
2023-08-09 10:00:37.883379,-88.0
2023-08-09 10:00:37.891069,-88.0
2023-08-09 10:00:37.898759,-91.0
2023-08-09 10:00:37.906449,-98.0
2023-08-09 10:00:37.914139,-103.0
2023-08-09 10:00:37.921829,-98.0
2023-08-09 10:00:37.929518,-98.0
2023-08-09 10:00:37.937208,-105.0
2023-08-09 10:00:37.944898,-105.0
2023-08-09 10:00:37.952588,-101.0
2023-08-09 10:00:37.960278,-103.0
2023-08-09 10:00:37.967967,-103.0
2023-08-09 10:00:37.975657,-101.0
2023-08-09 10:00:37.983347,-98.0
2023-08-09 10:00:37.991037,-86.0
2023-08-09 10:00:37.998727,-60.0
2023-08-09 10:00:38.006416,-40.0
2023-08-09 10:00:38.014106,-43.0
2023-08-09 10:00:38.021796,-38.0
2023-08-09 10:00:38.029486,-40.0
2023-08-09 10:00:38.037176,-72.0
2023-08-09 10:00:38.044866,-101.0
2023-08-09 10:00:38.052555,-108.0
2023-08-09 10:00:38.060245,-108.0
2023-08-09 10:00:38.067935,-108.0
2023-08-09 10:00:38.075625,-105.0
2023-08-09 10:00:38.083315,-103.0
2023-08-09 10:00:38.091004,-108.0
2023-08-09 10:00:38.098694,-110.0
2023-08-09 10:00:38.106384,-98.0
2023-08-09 10:00:38.114074,-91.0
2023-08-09 10:00:38.121764,-115.0
2023-08-09 10:00:38.129453,-132.0
2023-08-09 10:00:38.137143,-50.0
2023-08-09 10:00:38.144833,216.0
2023-08-09 10:00:38.152523,625.0
2023-08-09 10:00:38.160213,884.0
2023-08-09 10:00:38.167902,661.0
2023-08-09 10:00:38.175592,-2.0
2023-08-09 10:00:38.183282,-432.0
2023-08-09 10:00:38.190972,-252.0
2023-08-09 10:00:38.198662,-43.0
2023-08-09 10:00:38.206352,-137.0
2023-08-09 10:00:38.214041,-185.0
2023-08-09 10:00:38.221731,-127.0
2023-08-09 10:00:38.229421,-134.0
2023-08-09 10:00:38.237111,-158.0
2023-08-09 10:00:38.244801,-132.0
2023-08-09 10:00:38.252490,-115.0
2023-08-09 10:00:38.260180,-120.0
2023-08-09 10:00:38.267870,-110.0
2023-08-09 10:00:38.275560,-96.0
2023-08-09 10:00:38.283250,-93.0
2023-08-09 10:00:38.290939,-86.0
2023-08-09 10:00:38.298629,-74.0
2023-08-09 10:00:38.306319,-69.0
2023-08-09 10:00:38.314009,-62.0
2023-08-09 10:00:38.321699,-52.0
2023-08-09 10:00:38.329388,-43.0
2023-08-09 10:00:38.337078,-31.0
2023-08-09 10:00:38.344768,-19.0
2023-08-09 10:00:38.352458,-12.0
2023-08-09 10:00:38.360148,0.0
2023-08-09 10:00:38.367838,14.0
2023-08-09 10:00:38.375527,28.0
2023-08-09 10:00:38.383217,38.0
2023-08-09 10:00:38.390907,50.0
2023-08-09 10:00:38.398597,67.0
2023-08-09 10:00:38.406287,81.0
2023-08-09 10:00:38.413976,86.0
2023-08-09 10:00:38.421666,88.0
2023-08-09 10:00:38.429356,101.0
2023-08-09 10:00:38.437046,105.0
2023-08-09 10:00:38.444736,91.0
2023-08-09 10:00:38.452425,60.0
2023-08-09 10:00:38.460115,21.0
2023-08-09 10:00:38.467805,-24.0
2023-08-09 10:00:38.475495,-62.0
2023-08-09 10:00:38.483185,-88.0
2023-08-09 10:00:38.490874,-103.0
2023-08-09 10:00:38.498564,-113.0
2023-08-09 10:00:38.506254,-120.0
2023-08-09 10:00:38.513944,-127.0
2023-08-09 10:00:38.521634,-127.0
2023-08-09 10:00:38.529324,-122.0
2023-08-09 10:00:38.537013,-120.0
2023-08-09 10:00:38.544703,-115.0
2023-08-09 10:00:38.552393,-113.0
2023-08-09 10:00:38.560083,-108.0
2023-08-09 10:00:38.567773,-105.0
2023-08-09 10:00:38.575462,-105.0
2023-08-09 10:00:38.583152,-105.0
2023-08-09 10:00:38.590842,-93.0
2023-08-09 10:00:38.598532,-91.0
2023-08-09 10:00:38.606222,-93.0
2023-08-09 10:00:38.613911,-91.0
2023-08-09 10:00:38.621601,-88.0
2023-08-09 10:00:38.629291,-86.0
2023-08-09 10:00:38.636981,-84.0
2023-08-09 10:00:38.644671,-84.0
2023-08-09 10:00:38.652361,-86.0
2023-08-09 10:00:38.660050,-84.0
2023-08-09 10:00:38.667740,-86.0
2023-08-09 10:00:38.675430,-86.0
2023-08-09 10:00:38.683120,-79.0
2023-08-09 10:00:38.690810,-72.0
2023-08-09 10:00:38.698499,-76.0
2023-08-09 10:00:38.706189,-84.0
2023-08-09 10:00:38.713879,-88.0
2023-08-09 10:00:38.721569,-88.0
2023-08-09 10:00:38.729259,-91.0
2023-08-09 10:00:38.736948,-91.0
2023-08-09 10:00:38.744638,-86.0
2023-08-09 10:00:38.752328,-88.0
2023-08-09 10:00:38.760018,-88.0
2023-08-09 10:00:38.767708,-84.0
2023-08-09 10:00:38.775397,-81.0
2023-08-09 10:00:38.783087,-79.0
2023-08-09 10:00:38.790777,-81.0
2023-08-09 10:00:38.798467,-79.0
2023-08-09 10:00:38.806157,-57.0
2023-08-09 10:00:38.813847,-28.0
2023-08-09 10:00:38.821536,-19.0
2023-08-09 10:00:38.829226,-21.0
2023-08-09 10:00:38.836916,-26.0
2023-08-09 10:00:38.844606,-57.0
2023-08-09 10:00:38.852296,-86.0
2023-08-09 10:00:38.859985,-91.0
2023-08-09 10:00:38.867675,-81.0
2023-08-09 10:00:38.875365,-84.0
2023-08-09 10:00:38.883055,-96.0
2023-08-09 10:00:38.890745,-96.0
2023-08-09 10:00:38.898434,-86.0
2023-08-09 10:00:38.906124,-81.0
2023-08-09 10:00:38.913814,-84.0
2023-08-09 10:00:38.921504,-88.0
2023-08-09 10:00:38.929194,-98.0
2023-08-09 10:00:38.936883,-108.0
2023-08-09 10:00:38.944573,-96.0
2023-08-09 10:00:38.952263,16.0
2023-08-09 10:00:38.959953,315.0
2023-08-09 10:00:38.967643,687.0
2023-08-09 10:00:38.975333,793.0
2023-08-09 10:00:38.983022,387.0
2023-08-09 10:00:38.990712,-230.0
2023-08-09 10:00:38.998402,-394.0
2023-08-09 10:00:39.006092,-144.0
2023-08-09 10:00:39.013782,-52.0
2023-08-09 10:00:39.021471,-132.0
2023-08-09 10:00:39.029161,-127.0
2023-08-09 10:00:39.036851,-96.0
2023-08-09 10:00:39.044541,-113.0
2023-08-09 10:00:39.052231,-108.0
2023-08-09 10:00:39.059920,-86.0
2023-08-09 10:00:39.067610,-91.0
2023-08-09 10:00:39.075300,-88.0
2023-08-09 10:00:39.082990,-74.0
2023-08-09 10:00:39.090680,-67.0
2023-08-09 10:00:39.098369,-60.0
2023-08-09 10:00:39.106059,-52.0
2023-08-09 10:00:39.113749,-43.0
2023-08-09 10:00:39.121439,-36.0
2023-08-09 10:00:39.129129,-33.0
2023-08-09 10:00:39.136819,-24.0
2023-08-09 10:00:39.144508,-12.0
2023-08-09 10:00:39.152198,-14.0
2023-08-09 10:00:39.159888,-9.0
2023-08-09 10:00:39.167578,7.0
2023-08-09 10:00:39.175268,24.0
2023-08-09 10:00:39.182957,48.0
2023-08-09 10:00:39.190647,64.0
2023-08-09 10:00:39.198337,69.0
2023-08-09 10:00:39.206027,88.0
2023-08-09 10:00:39.213717,105.0
2023-08-09 10:00:39.221406,105.0
2023-08-09 10:00:39.229096,110.0
2023-08-09 10:00:39.236786,117.0
2023-08-09 10:00:39.244476,120.0
2023-08-09 10:00:39.252166,115.0
2023-08-09 10:00:39.259856,88.0
2023-08-09 10:00:39.267545,43.0
2023-08-09 10:00:39.275235,-2.0
2023-08-09 10:00:39.282925,-40.0
2023-08-09 10:00:39.290615,-69.0
2023-08-09 10:00:39.298305,-98.0
2023-08-09 10:00:39.305994,-127.0
2023-08-09 10:00:39.313684,-127.0
2023-08-09 10:00:39.321374,-120.0
2023-08-09 10:00:39.329064,-127.0
2023-08-09 10:00:39.336754,-129.0
2023-08-09 10:00:39.344443,-117.0
2023-08-09 10:00:39.352133,-115.0
2023-08-09 10:00:39.359823,-134.0
2023-08-09 10:00:39.367513,-132.0
2023-08-09 10:00:39.375203,-110.0
2023-08-09 10:00:39.382892,-110.0
2023-08-09 10:00:39.390582,-115.0
2023-08-09 10:00:39.398272,-108.0
2023-08-09 10:00:39.405962,-110.0
2023-08-09 10:00:39.413652,-117.0
2023-08-09 10:00:39.421342,-113.0
2023-08-09 10:00:39.429031,-113.0
2023-08-09 10:00:39.436721,-110.0
2023-08-09 10:00:39.444411,-101.0
2023-08-09 10:00:39.452101,-101.0
2023-08-09 10:00:39.459791,-115.0
2023-08-09 10:00:39.467480,-134.0
2023-08-09 10:00:39.475170,-137.0
2023-08-09 10:00:39.482860,-117.0
2023-08-09 10:00:39.490550,-110.0
2023-08-09 10:00:39.498240,-125.0
2023-08-09 10:00:39.505929,-122.0
2023-08-09 10:00:39.513619,-105.0
2023-08-09 10:00:39.521309,-103.0
2023-08-09 10:00:39.528999,-108.0
2023-08-09 10:00:39.536689,-101.0
2023-08-09 10:00:39.544378,-93.0
2023-08-09 10:00:39.552068,-103.0
2023-08-09 10:00:39.559758,-115.0
2023-08-09 10:00:39.567448,-103.0
2023-08-09 10:00:39.575138,-93.0
2023-08-09 10:00:39.582828,-88.0
2023-08-09 10:00:39.590517,-62.0
2023-08-09 10:00:39.598207,-38.0
2023-08-09 10:00:39.605897,-43.0
2023-08-09 10:00:39.613587,-50.0
2023-08-09 10:00:39.621277,-48.0
2023-08-09 10:00:39.628966,-64.0
2023-08-09 10:00:39.636656,-93.0
2023-08-09 10:00:39.644346,-110.0
2023-08-09 10:00:39.652036,-108.0
2023-08-09 10:00:39.659726,-103.0
2023-08-09 10:00:39.667415,-108.0
2023-08-09 10:00:39.675105,-117.0
2023-08-09 10:00:39.682795,-120.0
2023-08-09 10:00:39.690485,-108.0
2023-08-09 10:00:39.698175,-103.0
2023-08-09 10:00:39.705864,-115.0
2023-08-09 10:00:39.713554,-127.0
2023-08-09 10:00:39.721244,-129.0
2023-08-09 10:00:39.728934,-79.0
2023-08-09 10:00:39.736624,125.0
2023-08-09 10:00:39.744314,526.0
2023-08-09 10:00:39.752003,870.0
2023-08-09 10:00:39.759693,743.0
2023-08-09 10:00:39.767383,110.0
2023-08-09 10:00:39.775073,-432.0
2023-08-09 10:00:39.782763,-382.0
2023-08-09 10:00:39.790452,-132.0
2023-08-09 10:00:39.798142,-117.0
2023-08-09 10:00:39.805832,-158.0
2023-08-09 10:00:39.813522,-129.0
2023-08-09 10:00:39.821212,-125.0
2023-08-09 10:00:39.828901,-132.0
2023-08-09 10:00:39.836591,-110.0
2023-08-09 10:00:39.844281,-101.0
2023-08-09 10:00:39.851971,-98.0
2023-08-09 10:00:39.859661,-88.0
2023-08-09 10:00:39.867351,-88.0
2023-08-09 10:00:39.875040,-84.0
2023-08-09 10:00:39.882730,-67.0
2023-08-09 10:00:39.890420,-57.0
2023-08-09 10:00:39.898110,-52.0
2023-08-09 10:00:39.905800,-45.0
2023-08-09 10:00:39.913489,-38.0
2023-08-09 10:00:39.921179,-33.0
2023-08-09 10:00:39.928869,-28.0
2023-08-09 10:00:39.936559,-26.0
2023-08-09 10:00:39.944249,-19.0
2023-08-09 10:00:39.951938,2.0
2023-08-09 10:00:39.959628,19.0
2023-08-09 10:00:39.967318,31.0
2023-08-09 10:00:39.975008,50.0
2023-08-09 10:00:39.982698,72.0
2023-08-09 10:00:39.990387,88.0
2023-08-09 10:00:39.998077,103.0
2023-08-09 10:00:40.005767,113.0
2023-08-09 10:00:40.013457,120.0
2023-08-09 10:00:40.021147,127.0
2023-08-09 10:00:40.028837,122.0
2023-08-09 10:00:40.036526,98.0
2023-08-09 10:00:40.044216,60.0
2023-08-09 10:00:40.051906,9.0
2023-08-09 10:00:40.059596,-40.0
2023-08-09 10:00:40.067286,-76.0
2023-08-09 10:00:40.074975,-105.0
2023-08-09 10:00:40.082665,-132.0
2023-08-09 10:00:40.090355,-144.0
2023-08-09 10:00:40.098045,-149.0
2023-08-09 10:00:40.105735,-151.0
2023-08-09 10:00:40.113424,-146.0
2023-08-09 10:00:40.121114,-139.0
2023-08-09 10:00:40.128804,-137.0
2023-08-09 10:00:40.136494,-137.0
2023-08-09 10:00:40.144184,-129.0
2023-08-09 10:00:40.151873,-120.0
2023-08-09 10:00:40.159563,-117.0
2023-08-09 10:00:40.167253,-117.0
2023-08-09 10:00:40.174943,-115.0
2023-08-09 10:00:40.182633,-108.0
2023-08-09 10:00:40.190323,-105.0
2023-08-09 10:00:40.198012,-108.0
2023-08-09 10:00:40.205702,-108.0
2023-08-09 10:00:40.213392,-103.0
2023-08-09 10:00:40.221082,-101.0
2023-08-09 10:00:40.228772,-103.0
2023-08-09 10:00:40.236461,-103.0
2023-08-09 10:00:40.244151,-96.0
2023-08-09 10:00:40.251841,-91.0
2023-08-09 10:00:40.259531,-96.0
2023-08-09 10:00:40.267221,-96.0
2023-08-09 10:00:40.274910,-91.0
2023-08-09 10:00:40.282600,-91.0
2023-08-09 10:00:40.290290,-91.0
2023-08-09 10:00:40.297980,-93.0
2023-08-09 10:00:40.305670,-96.0
2023-08-09 10:00:40.313359,-96.0
2023-08-09 10:00:40.321049,-96.0
2023-08-09 10:00:40.328739,-93.0
2023-08-09 10:00:40.336429,-91.0
2023-08-09 10:00:40.344119,-86.0
2023-08-09 10:00:40.351809,-72.0
2023-08-09 10:00:40.359498,-48.0
2023-08-09 10:00:40.367188,-36.0
2023-08-09 10:00:40.374878,-48.0
2023-08-09 10:00:40.382568,-48.0
2023-08-09 10:00:40.390258,-43.0
2023-08-09 10:00:40.397947,-64.0
2023-08-09 10:00:40.405637,-98.0
2023-08-09 10:00:40.413327,-110.0
2023-08-09 10:00:40.421017,-113.0
2023-08-09 10:00:40.428707,-117.0
2023-08-09 10:00:40.436396,-115.0
2023-08-09 10:00:40.444086,-117.0
2023-08-09 10:00:40.451776,-125.0
2023-08-09 10:00:40.459466,-125.0
2023-08-09 10:00:40.467156,-122.0
2023-08-09 10:00:40.474846,-122.0
2023-08-09 10:00:40.482535,-132.0
2023-08-09 10:00:40.490225,-132.0
2023-08-09 10:00:40.497915,-31.0
2023-08-09 10:00:40.505605,283.0
2023-08-09 10:00:40.513295,723.0
2023-08-09 10:00:40.520984,933.0
2023-08-09 10:00:40.528674,591.0
2023-08-09 10:00:40.536364,-127.0
2023-08-09 10:00:40.544054,-483.0
2023-08-09 10:00:40.551744,-252.0
2023-08-09 10:00:40.559433,-74.0
2023-08-09 10:00:40.567123,-158.0
2023-08-09 10:00:40.574813,-177.0
2023-08-09 10:00:40.582503,-132.0
2023-08-09 10:00:40.590193,-146.0
2023-08-09 10:00:40.597882,-156.0
2023-08-09 10:00:40.605572,-134.0
2023-08-09 10:00:40.613262,-125.0
2023-08-09 10:00:40.620952,-125.0
2023-08-09 10:00:40.628642,-115.0
2023-08-09 10:00:40.636332,-115.0
2023-08-09 10:00:40.644021,-115.0
2023-08-09 10:00:40.651711,-103.0
2023-08-09 10:00:40.659401,-91.0
2023-08-09 10:00:40.667091,-84.0
2023-08-09 10:00:40.674781,-74.0
2023-08-09 10:00:40.682470,-64.0
2023-08-09 10:00:40.690160,-57.0
2023-08-09 10:00:40.697850,-48.0
2023-08-09 10:00:40.705540,-38.0
2023-08-09 10:00:40.713230,-26.0
2023-08-09 10:00:40.720919,-12.0
2023-08-09 10:00:40.728609,0.0
2023-08-09 10:00:40.736299,16.0
2023-08-09 10:00:40.743989,36.0
2023-08-09 10:00:40.751679,50.0
2023-08-09 10:00:40.759368,67.0
2023-08-09 10:00:40.767058,81.0
2023-08-09 10:00:40.774748,91.0
2023-08-09 10:00:40.782438,98.0
2023-08-09 10:00:40.790128,105.0
2023-08-09 10:00:40.797818,101.0
2023-08-09 10:00:40.805507,76.0
2023-08-09 10:00:40.813197,31.0
2023-08-09 10:00:40.820887,-16.0
2023-08-09 10:00:40.828577,-60.0
2023-08-09 10:00:40.836267,-91.0
2023-08-09 10:00:40.843956,-117.0
2023-08-09 10:00:40.851646,-132.0
2023-08-09 10:00:40.859336,-141.0
2023-08-09 10:00:40.867026,-149.0
2023-08-09 10:00:40.874716,-149.0
2023-08-09 10:00:40.882405,-146.0
2023-08-09 10:00:40.890095,-144.0
2023-08-09 10:00:40.897785,-139.0
2023-08-09 10:00:40.905475,-139.0
2023-08-09 10:00:40.913165,-144.0
2023-08-09 10:00:40.920854,-144.0
2023-08-09 10:00:40.928544,-134.0
2023-08-09 10:00:40.936234,-129.0
2023-08-09 10:00:40.943924,-129.0
2023-08-09 10:00:40.951614,-127.0
2023-08-09 10:00:40.959304,-127.0
2023-08-09 10:00:40.966993,-122.0
2023-08-09 10:00:40.974683,-120.0
2023-08-09 10:00:40.982373,-115.0
2023-08-09 10:00:40.990063,-110.0
2023-08-09 10:00:40.997753,-110.0
2023-08-09 10:00:41.005442,-110.0
2023-08-09 10:00:41.013132,-108.0
