time,ECG
2023-08-15 14:06:11.516847,-155.0
2023-08-15 14:06:11.524537,-148.0
2023-08-15 14:06:11.532226,-141.0
2023-08-15 14:06:11.539916,-136.0
2023-08-15 14:06:11.547605,-136.0
2023-08-15 14:06:11.555295,-134.0
2023-08-15 14:06:11.562985,-124.0
2023-08-15 14:06:11.570674,-119.0
2023-08-15 14:06:11.578364,-119.0
2023-08-15 14:06:11.586053,-115.0
2023-08-15 14:06:11.593743,-112.0
2023-08-15 14:06:11.601433,-112.0
2023-08-15 14:06:11.609122,-115.0
2023-08-15 14:06:11.616812,-112.0
2023-08-15 14:06:11.624501,-110.0
2023-08-15 14:06:11.632191,-115.0
2023-08-15 14:06:11.639880,-115.0
2023-08-15 14:06:11.647570,-107.0
2023-08-15 14:06:11.655260,-105.0
2023-08-15 14:06:11.662949,-110.0
2023-08-15 14:06:11.670639,-110.0
2023-08-15 14:06:11.678328,-103.0
2023-08-15 14:06:11.686018,-98.0
2023-08-15 14:06:11.693708,-105.0
2023-08-15 14:06:11.701397,-107.0
2023-08-15 14:06:11.709087,-100.0
2023-08-15 14:06:11.716776,-93.0
2023-08-15 14:06:11.724466,-95.0
2023-08-15 14:06:11.732155,-100.0
2023-08-15 14:06:11.739845,-93.0
2023-08-15 14:06:11.747535,-76.0
2023-08-15 14:06:11.755224,-62.0
2023-08-15 14:06:11.762914,-50.0
2023-08-15 14:06:11.770603,-40.0
2023-08-15 14:06:11.778293,-31.0
2023-08-15 14:06:11.785983,-35.0
2023-08-15 14:06:11.793672,-55.0
2023-08-15 14:06:11.801362,-69.0
2023-08-15 14:06:11.809051,-79.0
2023-08-15 14:06:11.816741,-86.0
2023-08-15 14:06:11.824430,-86.0
2023-08-15 14:06:11.832120,-86.0
2023-08-15 14:06:11.839810,-88.0
2023-08-15 14:06:11.847499,-83.0
2023-08-15 14:06:11.855189,-81.0
2023-08-15 14:06:11.862878,-79.0
2023-08-15 14:06:11.870568,-76.0
2023-08-15 14:06:11.878258,-69.0
2023-08-15 14:06:11.885947,-28.0
2023-08-15 14:06:11.893637,162.0
2023-08-15 14:06:11.901326,539.0
2023-08-15 14:06:11.909016,934.0
2023-08-15 14:06:11.916705,1013.0
2023-08-15 14:06:11.924395,316.0
2023-08-15 14:06:11.932085,-668.0
2023-08-15 14:06:11.939774,-718.0
2023-08-15 14:06:11.947464,-172.0
2023-08-15 14:06:11.955153,-117.0
2023-08-15 14:06:11.962843,-261.0
2023-08-15 14:06:11.970533,-167.0
2023-08-15 14:06:11.978222,-117.0
2023-08-15 14:06:11.985912,-162.0
2023-08-15 14:06:11.993601,-139.0
2023-08-15 14:06:12.001291,-100.0
2023-08-15 14:06:12.008980,-105.0
2023-08-15 14:06:12.016670,-95.0
2023-08-15 14:06:12.024360,-71.0
2023-08-15 14:06:12.032049,-64.0
2023-08-15 14:06:12.039739,-55.0
2023-08-15 14:06:12.047428,-38.0
2023-08-15 14:06:12.055118,-23.0
2023-08-15 14:06:12.062808,-9.0
2023-08-15 14:06:12.070497,7.0
2023-08-15 14:06:12.078187,26.0
2023-08-15 14:06:12.085876,45.0
2023-08-15 14:06:12.093566,67.0
2023-08-15 14:06:12.101255,88.0
2023-08-15 14:06:12.108945,107.0
2023-08-15 14:06:12.116635,127.0
2023-08-15 14:06:12.124324,136.0
2023-08-15 14:06:12.132014,136.0
2023-08-15 14:06:12.139703,129.0
2023-08-15 14:06:12.147393,119.0
2023-08-15 14:06:12.155082,100.0
2023-08-15 14:06:12.162772,76.0
2023-08-15 14:06:12.170462,52.0
2023-08-15 14:06:12.178151,23.0
2023-08-15 14:06:12.185841,-14.0
2023-08-15 14:06:12.193530,-57.0
2023-08-15 14:06:12.201220,-95.0
2023-08-15 14:06:12.208910,-127.0
2023-08-15 14:06:12.216599,-153.0
2023-08-15 14:06:12.224289,-177.0
2023-08-15 14:06:12.231978,-191.0
2023-08-15 14:06:12.239668,-196.0
2023-08-15 14:06:12.247357,-196.0
2023-08-15 14:06:12.255047,-191.0
2023-08-15 14:06:12.262737,-184.0
2023-08-15 14:06:12.270426,-179.0
2023-08-15 14:06:12.278116,-172.0
2023-08-15 14:06:12.285805,-165.0
2023-08-15 14:06:12.293495,-155.0
2023-08-15 14:06:12.301185,-148.0
2023-08-15 14:06:12.308874,-143.0
2023-08-15 14:06:12.316564,-139.0
2023-08-15 14:06:12.324253,-134.0
2023-08-15 14:06:12.331943,-131.0
2023-08-15 14:06:12.339632,-129.0
2023-08-15 14:06:12.347322,-127.0
2023-08-15 14:06:12.355012,-127.0
2023-08-15 14:06:12.362701,-129.0
2023-08-15 14:06:12.370391,-131.0
2023-08-15 14:06:12.378080,-134.0
2023-08-15 14:06:12.385770,-129.0
2023-08-15 14:06:12.393460,-129.0
2023-08-15 14:06:12.401149,-134.0
2023-08-15 14:06:12.408839,-141.0
2023-08-15 14:06:12.416528,-146.0
2023-08-15 14:06:12.424218,-143.0
2023-08-15 14:06:12.431907,-141.0
2023-08-15 14:06:12.439597,-139.0
2023-08-15 14:06:12.447287,-136.0
2023-08-15 14:06:12.454976,-136.0
2023-08-15 14:06:12.462666,-146.0
2023-08-15 14:06:12.470355,-153.0
2023-08-15 14:06:12.478045,-146.0
2023-08-15 14:06:12.485735,-136.0
2023-08-15 14:06:12.493424,-136.0
2023-08-15 14:06:12.501114,-134.0
2023-08-15 14:06:12.508803,-131.0
2023-08-15 14:06:12.516493,-129.0
2023-08-15 14:06:12.524182,-124.0
2023-08-15 14:06:12.531872,-124.0
2023-08-15 14:06:12.539562,-124.0
2023-08-15 14:06:12.547251,-127.0
2023-08-15 14:06:12.554941,-129.0
2023-08-15 14:06:12.562630,-124.0
2023-08-15 14:06:12.570320,-107.0
2023-08-15 14:06:12.578010,-88.0
2023-08-15 14:06:12.585699,-74.0
2023-08-15 14:06:12.593389,-59.0
2023-08-15 14:06:12.601078,-47.0
2023-08-15 14:06:12.608768,-57.0
2023-08-15 14:06:12.616457,-74.0
2023-08-15 14:06:12.624147,-88.0
2023-08-15 14:06:12.631837,-98.0
2023-08-15 14:06:12.639526,-110.0
2023-08-15 14:06:12.647216,-115.0
2023-08-15 14:06:12.654905,-112.0
2023-08-15 14:06:12.662595,-110.0
2023-08-15 14:06:12.670285,-107.0
2023-08-15 14:06:12.677974,-107.0
2023-08-15 14:06:12.685664,-107.0
2023-08-15 14:06:12.693353,-98.0
2023-08-15 14:06:12.701043,-79.0
2023-08-15 14:06:12.708732,9.0
2023-08-15 14:06:12.716422,246.0
2023-08-15 14:06:12.724112,608.0
2023-08-15 14:06:12.731801,977.0
2023-08-15 14:06:12.739491,860.0
2023-08-15 14:06:12.747180,-38.0
2023-08-15 14:06:12.754870,-666.0
2023-08-15 14:06:12.762560,-335.0
2023-08-15 14:06:12.770249,-52.0
2023-08-15 14:06:12.777939,-218.0
2023-08-15 14:06:12.785628,-227.0
2023-08-15 14:06:12.793318,-122.0
2023-08-15 14:06:12.801007,-150.0
2023-08-15 14:06:12.808697,-165.0
2023-08-15 14:06:12.816387,-117.0
2023-08-15 14:06:12.824076,-110.0
2023-08-15 14:06:12.831766,-112.0
2023-08-15 14:06:12.839455,-91.0
2023-08-15 14:06:12.847145,-74.0
2023-08-15 14:06:12.854835,-67.0
2023-08-15 14:06:12.862524,-52.0
2023-08-15 14:06:12.870214,-43.0
2023-08-15 14:06:12.877903,-26.0
2023-08-15 14:06:12.885593,-7.0
2023-08-15 14:06:12.893282,2.0
2023-08-15 14:06:12.900972,19.0
2023-08-15 14:06:12.908662,40.0
2023-08-15 14:06:12.916351,55.0
2023-08-15 14:06:12.924041,69.0
2023-08-15 14:06:12.931730,93.0
2023-08-15 14:06:12.939420,110.0
2023-08-15 14:06:12.947110,117.0
2023-08-15 14:06:12.954799,119.0
2023-08-15 14:06:12.962489,115.0
2023-08-15 14:06:12.970178,105.0
2023-08-15 14:06:12.977868,95.0
2023-08-15 14:06:12.985557,79.0
2023-08-15 14:06:12.993247,62.0
2023-08-15 14:06:13.000937,35.0
2023-08-15 14:06:13.008626,-2.0
2023-08-15 14:06:13.016316,-40.0
2023-08-15 14:06:13.024005,-74.0
2023-08-15 14:06:13.031695,-105.0
2023-08-15 14:06:13.039385,-131.0
2023-08-15 14:06:13.047074,-158.0
2023-08-15 14:06:13.054764,-177.0
2023-08-15 14:06:13.062453,-182.0
2023-08-15 14:06:13.070143,-177.0
2023-08-15 14:06:13.077832,-174.0
2023-08-15 14:06:13.085522,-170.0
2023-08-15 14:06:13.093212,-165.0
2023-08-15 14:06:13.100901,-160.0
2023-08-15 14:06:13.108591,-150.0
2023-08-15 14:06:13.116280,-141.0
2023-08-15 14:06:13.123970,-134.0
2023-08-15 14:06:13.131660,-127.0
2023-08-15 14:06:13.139349,-124.0
2023-08-15 14:06:13.147039,-124.0
2023-08-15 14:06:13.154728,-119.0
2023-08-15 14:06:13.162418,-115.0
2023-08-15 14:06:13.170107,-115.0
2023-08-15 14:06:13.177797,-117.0
2023-08-15 14:06:13.185487,-119.0
2023-08-15 14:06:13.193176,-124.0
2023-08-15 14:06:13.200866,-127.0
2023-08-15 14:06:13.208555,-124.0
2023-08-15 14:06:13.216245,-124.0
2023-08-15 14:06:13.223935,-124.0
2023-08-15 14:06:13.231624,-124.0
2023-08-15 14:06:13.239314,-124.0
2023-08-15 14:06:13.247003,-122.0
2023-08-15 14:06:13.254693,-119.0
2023-08-15 14:06:13.262382,-119.0
2023-08-15 14:06:13.270072,-117.0
2023-08-15 14:06:13.277762,-117.0
2023-08-15 14:06:13.285451,-115.0
2023-08-15 14:06:13.293141,-112.0
2023-08-15 14:06:13.300830,-107.0
2023-08-15 14:06:13.308520,-105.0
2023-08-15 14:06:13.316210,-103.0
2023-08-15 14:06:13.323899,-105.0
2023-08-15 14:06:13.331589,-107.0
2023-08-15 14:06:13.339278,-105.0
2023-08-15 14:06:13.346968,-103.0
2023-08-15 14:06:13.354657,-105.0
2023-08-15 14:06:13.362347,-110.0
2023-08-15 14:06:13.370037,-112.0
2023-08-15 14:06:13.377726,-112.0
2023-08-15 14:06:13.385416,-105.0
2023-08-15 14:06:13.393105,-88.0
2023-08-15 14:06:13.400795,-69.0
2023-08-15 14:06:13.408485,-55.0
2023-08-15 14:06:13.416174,-47.0
2023-08-15 14:06:13.423864,-59.0
2023-08-15 14:06:13.431553,-81.0
2023-08-15 14:06:13.439243,-93.0
2023-08-15 14:06:13.446932,-95.0
2023-08-15 14:06:13.454622,-110.0
2023-08-15 14:06:13.462312,-119.0
2023-08-15 14:06:13.470001,-112.0
2023-08-15 14:06:13.477691,-107.0
2023-08-15 14:06:13.485380,-107.0
2023-08-15 14:06:13.493070,-105.0
2023-08-15 14:06:13.500760,-105.0
2023-08-15 14:06:13.508449,-103.0
2023-08-15 14:06:13.516139,-86.0
2023-08-15 14:06:13.523828,-19.0
2023-08-15 14:06:13.531518,177.0
2023-08-15 14:06:13.539207,496.0
2023-08-15 14:06:13.546897,850.0
2023-08-15 14:06:13.554587,889.0
2023-08-15 14:06:13.562276,167.0
2023-08-15 14:06:13.569966,-606.0
2023-08-15 14:06:13.577655,-455.0
2023-08-15 14:06:13.585345,-71.0
2023-08-15 14:06:13.593034,-170.0
2023-08-15 14:06:13.600724,-246.0
2023-08-15 14:06:13.608414,-139.0
2023-08-15 14:06:13.616103,-139.0
2023-08-15 14:06:13.623793,-170.0
2023-08-15 14:06:13.631482,-131.0
2023-08-15 14:06:13.639172,-110.0
2023-08-15 14:06:13.646862,-115.0
2023-08-15 14:06:13.654551,-98.0
2023-08-15 14:06:13.662241,-79.0
2023-08-15 14:06:13.669930,-69.0
2023-08-15 14:06:13.677620,-57.0
2023-08-15 14:06:13.685309,-43.0
2023-08-15 14:06:13.692999,-28.0
2023-08-15 14:06:13.700689,-14.0
2023-08-15 14:06:13.708378,2.0
2023-08-15 14:06:13.716068,21.0
2023-08-15 14:06:13.723757,38.0
2023-08-15 14:06:13.731447,57.0
2023-08-15 14:06:13.739137,79.0
2023-08-15 14:06:13.746826,98.0
2023-08-15 14:06:13.754516,115.0
2023-08-15 14:06:13.762205,127.0
2023-08-15 14:06:13.769895,134.0
2023-08-15 14:06:13.777584,127.0
2023-08-15 14:06:13.785274,115.0
2023-08-15 14:06:13.792964,103.0
2023-08-15 14:06:13.800653,93.0
2023-08-15 14:06:13.808343,74.0
2023-08-15 14:06:13.816032,45.0
2023-08-15 14:06:13.823722,14.0
2023-08-15 14:06:13.831412,-21.0
2023-08-15 14:06:13.839101,-62.0
2023-08-15 14:06:13.846791,-93.0
2023-08-15 14:06:13.854480,-119.0
2023-08-15 14:06:13.862170,-143.0
2023-08-15 14:06:13.869859,-158.0
2023-08-15 14:06:13.877549,-172.0
2023-08-15 14:06:13.885239,-177.0
2023-08-15 14:06:13.892928,-167.0
2023-08-15 14:06:13.900618,-165.0
2023-08-15 14:06:13.908307,-167.0
2023-08-15 14:06:13.915997,-158.0
2023-08-15 14:06:13.923687,-155.0
2023-08-15 14:06:13.931376,-158.0
2023-08-15 14:06:13.939066,-155.0
2023-08-15 14:06:13.946755,-146.0
2023-08-15 14:06:13.954445,-139.0
2023-08-15 14:06:13.962134,-134.0
2023-08-15 14:06:13.969824,-131.0
2023-08-15 14:06:13.977514,-127.0
2023-08-15 14:06:13.985203,-127.0
2023-08-15 14:06:13.992893,-134.0
2023-08-15 14:06:14.000582,-139.0
2023-08-15 14:06:14.008272,-134.0
2023-08-15 14:06:14.015962,-124.0
2023-08-15 14:06:14.023651,-122.0
2023-08-15 14:06:14.031341,-127.0
2023-08-15 14:06:14.039030,-127.0
2023-08-15 14:06:14.046720,-127.0
2023-08-15 14:06:14.054409,-124.0
2023-08-15 14:06:14.062099,-119.0
2023-08-15 14:06:14.069789,-117.0
2023-08-15 14:06:14.077478,-115.0
2023-08-15 14:06:14.085168,-112.0
2023-08-15 14:06:14.092857,-110.0
2023-08-15 14:06:14.100547,-112.0
2023-08-15 14:06:14.108237,-115.0
2023-08-15 14:06:14.115926,-115.0
2023-08-15 14:06:14.123616,-112.0
2023-08-15 14:06:14.131305,-115.0
2023-08-15 14:06:14.138995,-110.0
2023-08-15 14:06:14.146684,-103.0
2023-08-15 14:06:14.154374,-103.0
2023-08-15 14:06:14.162064,-105.0
2023-08-15 14:06:14.169753,-110.0
2023-08-15 14:06:14.177443,-117.0
2023-08-15 14:06:14.185132,-110.0
2023-08-15 14:06:14.192822,-88.0
2023-08-15 14:06:14.200512,-67.0
2023-08-15 14:06:14.208201,-50.0
2023-08-15 14:06:14.215891,-43.0
2023-08-15 14:06:14.223580,-50.0
2023-08-15 14:06:14.231270,-62.0
2023-08-15 14:06:14.238959,-71.0
2023-08-15 14:06:14.246649,-83.0
2023-08-15 14:06:14.254339,-91.0
2023-08-15 14:06:14.262028,-91.0
2023-08-15 14:06:14.269718,-93.0
2023-08-15 14:06:14.277407,-91.0
2023-08-15 14:06:14.285097,-86.0
2023-08-15 14:06:14.292787,-86.0
2023-08-15 14:06:14.300476,-88.0
2023-08-15 14:06:14.308166,-83.0
2023-08-15 14:06:14.315855,-69.0
2023-08-15 14:06:14.323545,-14.0
2023-08-15 14:06:14.331234,186.0
2023-08-15 14:06:14.338924,553.0
2023-08-15 14:06:14.346614,932.0
2023-08-15 14:06:14.354303,977.0
2023-08-15 14:06:14.361993,266.0
2023-08-15 14:06:14.369682,-627.0
2023-08-15 14:06:14.377372,-596.0
2023-08-15 14:06:14.385062,-105.0
2023-08-15 14:06:14.392751,-103.0
2023-08-15 14:06:14.400441,-232.0
2023-08-15 14:06:14.408130,-134.0
2023-08-15 14:06:14.415820,-88.0
2023-08-15 14:06:14.423509,-129.0
2023-08-15 14:06:14.431199,-112.0
2023-08-15 14:06:14.438889,-86.0
2023-08-15 14:06:14.446578,-83.0
2023-08-15 14:06:14.454268,-71.0
2023-08-15 14:06:14.461957,-55.0
2023-08-15 14:06:14.469647,-45.0
2023-08-15 14:06:14.477337,-35.0
2023-08-15 14:06:14.485026,-19.0
2023-08-15 14:06:14.492716,0.0
2023-08-15 14:06:14.500405,16.0
2023-08-15 14:06:14.508095,23.0
2023-08-15 14:06:14.515784,38.0
2023-08-15 14:06:14.523474,64.0
2023-08-15 14:06:14.531164,88.0
2023-08-15 14:06:14.538853,107.0
2023-08-15 14:06:14.546543,119.0
2023-08-15 14:06:14.554232,143.0
2023-08-15 14:06:14.561922,167.0
2023-08-15 14:06:14.569612,172.0
2023-08-15 14:06:14.577301,158.0
2023-08-15 14:06:14.584991,160.0
2023-08-15 14:06:14.592680,158.0
2023-08-15 14:06:14.600370,139.0
2023-08-15 14:06:14.608059,119.0
2023-08-15 14:06:14.615749,93.0
2023-08-15 14:06:14.623439,43.0
2023-08-15 14:06:14.631128,-9.0
2023-08-15 14:06:14.638818,-38.0
2023-08-15 14:06:14.646507,-64.0
2023-08-15 14:06:14.654197,-100.0
2023-08-15 14:06:14.661887,-127.0
2023-08-15 14:06:14.669576,-153.0
2023-08-15 14:06:14.677266,-172.0
2023-08-15 14:06:14.684955,-160.0
2023-08-15 14:06:14.692645,-141.0
2023-08-15 14:06:14.700334,-141.0
2023-08-15 14:06:14.708024,-148.0
2023-08-15 14:06:14.715714,-146.0
2023-08-15 14:06:14.723403,-146.0
2023-08-15 14:06:14.731093,-134.0
2023-08-15 14:06:14.738782,-122.0
2023-08-15 14:06:14.746472,-131.0
2023-08-15 14:06:14.754162,-131.0
2023-08-15 14:06:14.761851,-110.0
2023-08-15 14:06:14.769541,-100.0
2023-08-15 14:06:14.777230,-107.0
2023-08-15 14:06:14.784920,-100.0
2023-08-15 14:06:14.792609,-93.0
2023-08-15 14:06:14.800299,-105.0
2023-08-15 14:06:14.807989,-115.0
2023-08-15 14:06:14.815678,-112.0
2023-08-15 14:06:14.823368,-112.0
2023-08-15 14:06:14.831057,-112.0
2023-08-15 14:06:14.838747,-110.0
2023-08-15 14:06:14.846437,-107.0
2023-08-15 14:06:14.854126,-105.0
2023-08-15 14:06:14.861816,-110.0
2023-08-15 14:06:14.869505,-117.0
2023-08-15 14:06:14.877195,-115.0
2023-08-15 14:06:14.884884,-103.0
2023-08-15 14:06:14.892574,-105.0
2023-08-15 14:06:14.900264,-115.0
2023-08-15 14:06:14.907953,-107.0
2023-08-15 14:06:14.915643,-103.0
2023-08-15 14:06:14.923332,-110.0
2023-08-15 14:06:14.931022,-107.0
2023-08-15 14:06:14.938711,-100.0
2023-08-15 14:06:14.946401,-88.0
2023-08-15 14:06:14.954091,-64.0
2023-08-15 14:06:14.961780,-45.0
2023-08-15 14:06:14.969470,-43.0
2023-08-15 14:06:14.977159,-40.0
2023-08-15 14:06:14.984849,-47.0
2023-08-15 14:06:14.992539,-69.0
2023-08-15 14:06:15.000228,-83.0
2023-08-15 14:06:15.007918,-91.0
2023-08-15 14:06:15.015607,-93.0
2023-08-15 14:06:15.023297,-83.0
2023-08-15 14:06:15.030986,-86.0
2023-08-15 14:06:15.038676,-93.0
2023-08-15 14:06:15.046366,-79.0
2023-08-15 14:06:15.054055,-67.0
2023-08-15 14:06:15.061745,-69.0
2023-08-15 14:06:15.069434,-69.0
2023-08-15 14:06:15.077124,-45.0
2023-08-15 14:06:15.084814,103.0
2023-08-15 14:06:15.092503,455.0
2023-08-15 14:06:15.100193,893.0
2023-08-15 14:06:15.107882,1097.0
2023-08-15 14:06:15.115572,565.0
2023-08-15 14:06:15.123261,-445.0
2023-08-15 14:06:15.130951,-702.0
2023-08-15 14:06:15.138641,-206.0
2023-08-15 14:06:15.146330,-76.0
2023-08-15 14:06:15.154020,-244.0
2023-08-15 14:06:15.161709,-182.0
2023-08-15 14:06:15.169399,-112.0
2023-08-15 14:06:15.177089,-160.0
2023-08-15 14:06:15.184778,-146.0
2023-08-15 14:06:15.192468,-91.0
2023-08-15 14:06:15.200157,-91.0
2023-08-15 14:06:15.207847,-98.0
2023-08-15 14:06:15.215536,-74.0
2023-08-15 14:06:15.223226,-62.0
2023-08-15 14:06:15.230916,-57.0
2023-08-15 14:06:15.238605,-35.0
2023-08-15 14:06:15.246295,-14.0
2023-08-15 14:06:15.253984,-9.0
2023-08-15 14:06:15.261674,2.0
2023-08-15 14:06:15.269364,23.0
2023-08-15 14:06:15.277053,45.0
2023-08-15 14:06:15.284743,69.0
2023-08-15 14:06:15.292432,86.0
2023-08-15 14:06:15.300122,91.0
2023-08-15 14:06:15.307811,105.0
2023-08-15 14:06:15.315501,136.0
2023-08-15 14:06:15.323191,146.0
2023-08-15 14:06:15.330880,131.0
2023-08-15 14:06:15.338570,127.0
2023-08-15 14:06:15.346259,112.0
2023-08-15 14:06:15.353949,83.0
2023-08-15 14:06:15.361639,57.0
2023-08-15 14:06:15.369328,33.0
2023-08-15 14:06:15.377018,-2.0
2023-08-15 14:06:15.384707,-50.0
2023-08-15 14:06:15.392397,-91.0
2023-08-15 14:06:15.400086,-122.0
2023-08-15 14:06:15.407776,-162.0
2023-08-15 14:06:15.415466,-196.0
2023-08-15 14:06:15.423155,-196.0
2023-08-15 14:06:15.430845,-194.0
2023-08-15 14:06:15.438534,-213.0
2023-08-15 14:06:15.446224,-215.0
2023-08-15 14:06:15.453914,-198.0
2023-08-15 14:06:15.461603,-191.0
2023-08-15 14:06:15.469293,-189.0
2023-08-15 14:06:15.476982,-179.0
2023-08-15 14:06:15.484672,-162.0
2023-08-15 14:06:15.492361,-155.0
2023-08-15 14:06:15.500051,-160.0
2023-08-15 14:06:15.507741,-150.0
2023-08-15 14:06:15.515430,-131.0
2023-08-15 14:06:15.523120,-134.0
2023-08-15 14:06:15.530809,-146.0
2023-08-15 14:06:15.538499,-141.0
2023-08-15 14:06:15.546189,-124.0
2023-08-15 14:06:15.553878,-117.0
2023-08-15 14:06:15.561568,-124.0
2023-08-15 14:06:15.569257,-129.0
2023-08-15 14:06:15.576947,-129.0
2023-08-15 14:06:15.584636,-134.0
2023-08-15 14:06:15.592326,-131.0
2023-08-15 14:06:15.600016,-131.0
2023-08-15 14:06:15.607705,-139.0
2023-08-15 14:06:15.615395,-139.0
2023-08-15 14:06:15.623084,-134.0
2023-08-15 14:06:15.630774,-131.0
2023-08-15 14:06:15.638464,-127.0
2023-08-15 14:06:15.646153,-127.0
2023-08-15 14:06:15.653843,-131.0
2023-08-15 14:06:15.661532,-134.0
2023-08-15 14:06:15.669222,-129.0
2023-08-15 14:06:15.676911,-129.0
2023-08-15 14:06:15.684601,-129.0
2023-08-15 14:06:15.692291,-127.0
2023-08-15 14:06:15.699980,-134.0
2023-08-15 14:06:15.707670,-131.0
2023-08-15 14:06:15.715359,-119.0
2023-08-15 14:06:15.723049,-112.0
2023-08-15 14:06:15.730739,-91.0
2023-08-15 14:06:15.738428,-59.0
2023-08-15 14:06:15.746118,-55.0
2023-08-15 14:06:15.753807,-74.0
2023-08-15 14:06:15.761497,-83.0
2023-08-15 14:06:15.769186,-79.0
2023-08-15 14:06:15.776876,-81.0
2023-08-15 14:06:15.784566,-100.0
2023-08-15 14:06:15.792255,-110.0
2023-08-15 14:06:15.799945,-100.0
2023-08-15 14:06:15.807634,-95.0
2023-08-15 14:06:15.815324,-110.0
2023-08-15 14:06:15.823014,-107.0
2023-08-15 14:06:15.830703,-86.0
2023-08-15 14:06:15.838393,-79.0
2023-08-15 14:06:15.846082,-81.0
2023-08-15 14:06:15.853772,-23.0
2023-08-15 14:06:15.861461,170.0
2023-08-15 14:06:15.869151,503.0
2023-08-15 14:06:15.876841,917.0
2023-08-15 14:06:15.884530,1035.0
2023-08-15 14:06:15.892220,318.0
2023-08-15 14:06:15.899909,-572.0
2023-08-15 14:06:15.907599,-508.0
2023-08-15 14:06:15.915289,-86.0
2023-08-15 14:06:15.922978,-153.0
2023-08-15 14:06:15.930668,-254.0
2023-08-15 14:06:15.938357,-155.0
2023-08-15 14:06:15.946047,-148.0
2023-08-15 14:06:15.953736,-186.0
2023-08-15 14:06:15.961426,-150.0
2023-08-15 14:06:15.969116,-129.0
2023-08-15 14:06:15.976805,-134.0
2023-08-15 14:06:15.984495,-107.0
2023-08-15 14:06:15.992184,-83.0
2023-08-15 14:06:15.999874,-86.0
2023-08-15 14:06:16.007564,-67.0
2023-08-15 14:06:16.015253,-35.0
2023-08-15 14:06:16.022943,-26.0
2023-08-15 14:06:16.030632,-23.0
2023-08-15 14:06:16.038322,-2.0
2023-08-15 14:06:16.046011,23.0
2023-08-15 14:06:16.053701,47.0
2023-08-15 14:06:16.061391,69.0
2023-08-15 14:06:16.069080,83.0
2023-08-15 14:06:16.076770,105.0
2023-08-15 14:06:16.084459,136.0
2023-08-15 14:06:16.092149,153.0
2023-08-15 14:06:16.099839,155.0
2023-08-15 14:06:16.107528,150.0
2023-08-15 14:06:16.115218,143.0
2023-08-15 14:06:16.122907,136.0
2023-08-15 14:06:16.130597,122.0
2023-08-15 14:06:16.138286,95.0
2023-08-15 14:06:16.145976,59.0
2023-08-15 14:06:16.153666,23.0
2023-08-15 14:06:16.161355,-14.0
2023-08-15 14:06:16.169045,-52.0
2023-08-15 14:06:16.176734,-91.0
2023-08-15 14:06:16.184424,-127.0
2023-08-15 14:06:16.192114,-150.0
2023-08-15 14:06:16.199803,-160.0
2023-08-15 14:06:16.207493,-165.0
2023-08-15 14:06:16.215182,-167.0
2023-08-15 14:06:16.222872,-167.0
2023-08-15 14:06:16.230561,-160.0
2023-08-15 14:06:16.238251,-150.0
2023-08-15 14:06:16.245941,-146.0
2023-08-15 14:06:16.253630,-139.0
2023-08-15 14:06:16.261320,-124.0
2023-08-15 14:06:16.269009,-117.0
2023-08-15 14:06:16.276699,-119.0
2023-08-15 14:06:16.284388,-117.0
2023-08-15 14:06:16.292078,-110.0
2023-08-15 14:06:16.299768,-103.0
2023-08-15 14:06:16.307457,-103.0
2023-08-15 14:06:16.315147,-107.0
2023-08-15 14:06:16.322836,-107.0
2023-08-15 14:06:16.330526,-107.0
2023-08-15 14:06:16.338216,-117.0
2023-08-15 14:06:16.345905,-122.0
2023-08-15 14:06:16.353595,-107.0
2023-08-15 14:06:16.361284,-93.0
2023-08-15 14:06:16.368974,-98.0
2023-08-15 14:06:16.376663,-107.0
2023-08-15 14:06:16.384353,-117.0
2023-08-15 14:06:16.392043,-124.0
2023-08-15 14:06:16.399732,-81.0
2023-08-15 14:06:16.407422,-35.0
2023-08-15 14:06:16.415111,-119.0
2023-08-15 14:06:16.422801,-203.0
2023-08-15 14:06:16.430491,-162.0
2023-08-15 14:06:16.438180,-119.0
2023-08-15 14:06:16.445870,-134.0
2023-08-15 14:06:16.453559,-131.0
2023-08-15 14:06:16.461249,-119.0
2023-08-15 14:06:16.468938,-112.0
2023-08-15 14:06:16.476628,-86.0
2023-08-15 14:06:16.484318,-62.0
2023-08-15 14:06:16.492007,-50.0
2023-08-15 14:06:16.499697,-38.0
2023-08-15 14:06:16.507386,-40.0
2023-08-15 14:06:16.515076,-69.0
2023-08-15 14:06:16.522766,-91.0
2023-08-15 14:06:16.530455,-86.0
2023-08-15 14:06:16.538145,-83.0
2023-08-15 14:06:16.545834,-91.0
2023-08-15 14:06:16.553524,-103.0
2023-08-15 14:06:16.561213,-115.0
2023-08-15 14:06:16.568903,-115.0
2023-08-15 14:06:16.576593,-107.0
2023-08-15 14:06:16.584282,-103.0
2023-08-15 14:06:16.591972,-98.0
2023-08-15 14:06:16.599661,-76.0
2023-08-15 14:06:16.607351,31.0
2023-08-15 14:06:16.615041,313.0
2023-08-15 14:06:16.622730,707.0
2023-08-15 14:06:16.630420,999.0
2023-08-15 14:06:16.638109,709.0
2023-08-15 14:06:16.645799,-222.0
2023-08-15 14:06:16.653488,-675.0
2023-08-15 14:06:16.661178,-261.0
2023-08-15 14:06:16.668868,-40.0
2023-08-15 14:06:16.676557,-206.0
2023-08-15 14:06:16.684247,-186.0
2023-08-15 14:06:16.691936,-98.0
2023-08-15 14:06:16.699626,-141.0
2023-08-15 14:06:16.707316,-150.0
2023-08-15 14:06:16.715005,-91.0
2023-08-15 14:06:16.722695,-76.0
2023-08-15 14:06:16.730384,-88.0
2023-08-15 14:06:16.738074,-57.0
2023-08-15 14:06:16.745763,-33.0
2023-08-15 14:06:16.753453,-33.0
2023-08-15 14:06:16.761143,-14.0
2023-08-15 14:06:16.768832,0.0
2023-08-15 14:06:16.776522,7.0
2023-08-15 14:06:16.784211,33.0
2023-08-15 14:06:16.791901,47.0
2023-08-15 14:06:16.799591,55.0
2023-08-15 14:06:16.807280,79.0
2023-08-15 14:06:16.814970,112.0
2023-08-15 14:06:16.822659,131.0
2023-08-15 14:06:16.830349,136.0
2023-08-15 14:06:16.838038,150.0
2023-08-15 14:06:16.845728,170.0
2023-08-15 14:06:16.853418,170.0
2023-08-15 14:06:16.861107,170.0
2023-08-15 14:06:16.868797,172.0
2023-08-15 14:06:16.876486,148.0
2023-08-15 14:06:16.884176,117.0
2023-08-15 14:06:16.891866,100.0
2023-08-15 14:06:16.899555,71.0
2023-08-15 14:06:16.907245,28.0
2023-08-15 14:06:16.914934,-2.0
2023-08-15 14:06:16.922624,-47.0
2023-08-15 14:06:16.930313,-93.0
2023-08-15 14:06:16.938003,-100.0
2023-08-15 14:06:16.945693,-112.0
2023-08-15 14:06:16.953382,-141.0
2023-08-15 14:06:16.961072,-146.0
2023-08-15 14:06:16.968761,-136.0
2023-08-15 14:06:16.976451,-141.0
2023-08-15 14:06:16.984141,-148.0
2023-08-15 14:06:16.991830,-153.0
2023-08-15 14:06:16.999520,-141.0
2023-08-15 14:06:17.007209,-107.0
2023-08-15 14:06:17.014899,-112.0
2023-08-15 14:06:17.022588,-122.0
2023-08-15 14:06:17.030278,-91.0
2023-08-15 14:06:17.037968,-83.0
2023-08-15 14:06:17.045657,-107.0
2023-08-15 14:06:17.053347,-107.0
2023-08-15 14:06:17.061036,-93.0
2023-08-15 14:06:17.068726,-91.0
2023-08-15 14:06:17.076416,-103.0
2023-08-15 14:06:17.084105,-107.0
2023-08-15 14:06:17.091795,-105.0
2023-08-15 14:06:17.099484,-105.0
2023-08-15 14:06:17.107174,-93.0
2023-08-15 14:06:17.114863,-86.0
2023-08-15 14:06:17.122553,-105.0
2023-08-15 14:06:17.130243,-119.0
2023-08-15 14:06:17.137932,-105.0
2023-08-15 14:06:17.145622,-100.0
2023-08-15 14:06:17.153311,-107.0
2023-08-15 14:06:17.161001,-115.0
2023-08-15 14:06:17.168691,-112.0
2023-08-15 14:06:17.176380,-93.0
2023-08-15 14:06:17.184070,-88.0
2023-08-15 14:06:17.191759,-117.0
2023-08-15 14:06:17.199449,-119.0
2023-08-15 14:06:17.207138,-76.0
2023-08-15 14:06:17.214828,-57.0
2023-08-15 14:06:17.222518,-57.0
2023-08-15 14:06:17.230207,-35.0
2023-08-15 14:06:17.237897,-26.0
2023-08-15 14:06:17.245586,-47.0
2023-08-15 14:06:17.253276,-71.0
2023-08-15 14:06:17.260966,-95.0
2023-08-15 14:06:17.268655,-100.0
2023-08-15 14:06:17.276345,-86.0
2023-08-15 14:06:17.284034,-93.0
2023-08-15 14:06:17.291724,-107.0
2023-08-15 14:06:17.299413,-98.0
2023-08-15 14:06:17.307103,-93.0
2023-08-15 14:06:17.314793,-103.0
2023-08-15 14:06:17.322482,-100.0
2023-08-15 14:06:17.330172,-98.0
2023-08-15 14:06:17.337861,-71.0
2023-08-15 14:06:17.345551,86.0
2023-08-15 14:06:17.353241,397.0
2023-08-15 14:06:17.360930,781.0
2023-08-15 14:06:17.368620,999.0
2023-08-15 14:06:17.376309,520.0
2023-08-15 14:06:17.383999,-421.0
2023-08-15 14:06:17.391688,-630.0
2023-08-15 14:06:17.399378,-165.0
2023-08-15 14:06:17.407068,-79.0
2023-08-15 14:06:17.414757,-246.0
2023-08-15 14:06:17.422447,-179.0
2023-08-15 14:06:17.430136,-107.0
2023-08-15 14:06:17.437826,-158.0
2023-08-15 14:06:17.445516,-141.0
2023-08-15 14:06:17.453205,-86.0
2023-08-15 14:06:17.460895,-103.0
2023-08-15 14:06:17.468584,-124.0
2023-08-15 14:06:17.476274,-98.0
2023-08-15 14:06:17.483963,-64.0
2023-08-15 14:06:17.491653,-52.0
2023-08-15 14:06:17.499343,-62.0
2023-08-15 14:06:17.507032,-59.0
2023-08-15 14:06:17.514722,-26.0
2023-08-15 14:06:17.522411,-4.0
2023-08-15 14:06:17.530101,0.0
2023-08-15 14:06:17.537791,31.0
2023-08-15 14:06:17.545480,59.0
2023-08-15 14:06:17.553170,55.0
2023-08-15 14:06:17.560859,71.0
2023-08-15 14:06:17.568549,105.0
2023-08-15 14:06:17.576238,110.0
2023-08-15 14:06:17.583928,112.0
2023-08-15 14:06:17.591618,122.0
2023-08-15 14:06:17.599307,115.0
2023-08-15 14:06:17.606997,110.0
2023-08-15 14:06:17.614686,98.0
2023-08-15 14:06:17.622376,71.0
2023-08-15 14:06:17.630066,52.0
2023-08-15 14:06:17.637755,23.0
2023-08-15 14:06:17.645445,-23.0
2023-08-15 14:06:17.653134,-59.0
2023-08-15 14:06:17.660824,-83.0
2023-08-15 14:06:17.668513,-119.0
2023-08-15 14:06:17.676203,-150.0
2023-08-15 14:06:17.683893,-160.0
2023-08-15 14:06:17.691582,-167.0
2023-08-15 14:06:17.699272,-177.0
2023-08-15 14:06:17.706961,-172.0
2023-08-15 14:06:17.714651,-162.0
2023-08-15 14:06:17.722340,-158.0
2023-08-15 14:06:17.730030,-150.0
2023-08-15 14:06:17.737720,-141.0
2023-08-15 14:06:17.745409,-134.0
2023-08-15 14:06:17.753099,-129.0
2023-08-15 14:06:17.760788,-127.0
2023-08-15 14:06:17.768478,-117.0
2023-08-15 14:06:17.776168,-112.0
2023-08-15 14:06:17.783857,-115.0
2023-08-15 14:06:17.791547,-117.0
2023-08-15 14:06:17.799236,-110.0
2023-08-15 14:06:17.806926,-105.0
2023-08-15 14:06:17.814615,-110.0
2023-08-15 14:06:17.822305,-117.0
2023-08-15 14:06:17.829995,-115.0
2023-08-15 14:06:17.837684,-105.0
2023-08-15 14:06:17.845374,-112.0
2023-08-15 14:06:17.853063,-119.0
2023-08-15 14:06:17.860753,-112.0
2023-08-15 14:06:17.868443,-107.0
2023-08-15 14:06:17.876132,-112.0
2023-08-15 14:06:17.883822,-115.0
2023-08-15 14:06:17.891511,-110.0
2023-08-15 14:06:17.899201,-105.0
2023-08-15 14:06:17.906890,-107.0
2023-08-15 14:06:17.914580,-103.0
2023-08-15 14:06:17.922270,-88.0
2023-08-15 14:06:17.929959,-71.0
2023-08-15 14:06:17.937649,-59.0
2023-08-15 14:06:17.945338,-52.0
2023-08-15 14:06:17.953028,-52.0
2023-08-15 14:06:17.960718,-67.0
2023-08-15 14:06:17.968407,-79.0
2023-08-15 14:06:17.976097,-86.0
2023-08-15 14:06:17.983786,-100.0
2023-08-15 14:06:17.991476,-110.0
2023-08-15 14:06:17.999165,-103.0
2023-08-15 14:06:18.006855,-103.0
2023-08-15 14:06:18.014545,-103.0
2023-08-15 14:06:18.022234,-98.0
2023-08-15 14:06:18.029924,-95.0
2023-08-15 14:06:18.037613,-95.0
2023-08-15 14:06:18.045303,-86.0
2023-08-15 14:06:18.052993,-62.0
2023-08-15 14:06:18.060682,100.0
2023-08-15 14:06:18.068372,493.0
2023-08-15 14:06:18.076061,958.0
2023-08-15 14:06:18.083751,1138.0
2023-08-15 14:06:18.091440,536.0
2023-08-15 14:06:18.099130,-529.0
2023-08-15 14:06:18.106820,-774.0
2023-08-15 14:06:18.114509,-249.0
2023-08-15 14:06:18.122199,-112.0
2023-08-15 14:06:18.129888,-280.0
2023-08-15 14:06:18.137578,-218.0
2023-08-15 14:06:18.145268,-143.0
2023-08-15 14:06:18.152957,-186.0
2023-08-15 14:06:18.160647,-172.0
2023-08-15 14:06:18.168336,-129.0
2023-08-15 14:06:18.176026,-134.0
2023-08-15 14:06:18.183715,-129.0
2023-08-15 14:06:18.191405,-107.0
2023-08-15 14:06:18.199095,-93.0
2023-08-15 14:06:18.206784,-83.0
2023-08-15 14:06:18.214474,-79.0
2023-08-15 14:06:18.222163,-69.0
2023-08-15 14:06:18.229853,-43.0
2023-08-15 14:06:18.237543,-14.0
2023-08-15 14:06:18.245232,0.0
2023-08-15 14:06:18.252922,9.0
2023-08-15 14:06:18.260611,35.0
2023-08-15 14:06:18.268301,55.0
2023-08-15 14:06:18.275990,74.0
2023-08-15 14:06:18.283680,105.0
2023-08-15 14:06:18.291370,124.0
2023-08-15 14:06:18.299059,127.0
2023-08-15 14:06:18.306749,122.0
2023-08-15 14:06:18.314438,110.0
2023-08-15 14:06:18.322128,103.0
2023-08-15 14:06:18.329818,91.0
2023-08-15 14:06:18.337507,59.0
2023-08-15 14:06:18.345197,26.0
2023-08-15 14:06:18.352886,-7.0
2023-08-15 14:06:18.360576,-50.0
2023-08-15 14:06:18.368265,-98.0
2023-08-15 14:06:18.375955,-134.0
2023-08-15 14:06:18.383645,-146.0
2023-08-15 14:06:18.391334,-153.0
2023-08-15 14:06:18.399024,-184.0
2023-08-15 14:06:18.406713,-194.0
2023-08-15 14:06:18.414403,-172.0
2023-08-15 14:06:18.422093,-186.0
2023-08-15 14:06:18.429782,-208.0
2023-08-15 14:06:18.437472,-186.0
2023-08-15 14:06:18.445161,-174.0
2023-08-15 14:06:18.452851,-174.0
2023-08-15 14:06:18.460540,-153.0
2023-08-15 14:06:18.468230,-134.0
2023-08-15 14:06:18.475920,-146.0
2023-08-15 14:06:18.483609,-158.0
2023-08-15 14:06:18.491299,-146.0
2023-08-15 14:06:18.498988,-139.0
2023-08-15 14:06:18.506678,-146.0
2023-08-15 14:06:18.514368,-141.0
2023-08-15 14:06:18.522057,-122.0
2023-08-15 14:06:18.529747,-122.0
2023-08-15 14:06:18.537436,-139.0
2023-08-15 14:06:18.545126,-143.0
2023-08-15 14:06:18.552815,-131.0
2023-08-15 14:06:18.560505,-131.0
2023-08-15 14:06:18.568195,-139.0
2023-08-15 14:06:18.575884,-141.0
2023-08-15 14:06:18.583574,-146.0
2023-08-15 14:06:18.591263,-148.0
2023-08-15 14:06:18.598953,-136.0
2023-08-15 14:06:18.606643,-124.0
2023-08-15 14:06:18.614332,-134.0
2023-08-15 14:06:18.622022,-150.0
2023-08-15 14:06:18.629711,-143.0
2023-08-15 14:06:18.637401,-119.0
2023-08-15 14:06:18.645090,-103.0
2023-08-15 14:06:18.652780,-95.0
2023-08-15 14:06:18.660470,-86.0
2023-08-15 14:06:18.668159,-69.0
2023-08-15 14:06:18.675849,-74.0
2023-08-15 14:06:18.683538,-98.0
2023-08-15 14:06:18.691228,-110.0
2023-08-15 14:06:18.698918,-112.0
2023-08-15 14:06:18.706607,-129.0
2023-08-15 14:06:18.714297,-162.0
2023-08-15 14:06:18.721986,-174.0
2023-08-15 14:06:18.729676,-162.0
2023-08-15 14:06:18.737365,-139.0
2023-08-15 14:06:18.745055,-127.0
2023-08-15 14:06:18.752745,-146.0
2023-08-15 14:06:18.760434,-146.0
2023-08-15 14:06:18.768124,-122.0
2023-08-15 14:06:18.775813,-83.0
2023-08-15 14:06:18.783503,98.0
2023-08-15 14:06:18.791193,474.0
2023-08-15 14:06:18.798882,915.0
2023-08-15 14:06:18.806572,1066.0
2023-08-15 14:06:18.814261,397.0
2023-08-15 14:06:18.821951,-575.0
2023-08-15 14:06:18.829640,-615.0
2023-08-15 14:06:18.837330,-148.0
2023-08-15 14:06:18.845020,-167.0
2023-08-15 14:06:18.852709,-301.0
2023-08-15 14:06:18.860399,-191.0
2023-08-15 14:06:18.868088,-158.0
2023-08-15 14:06:18.875778,-215.0
2023-08-15 14:06:18.883468,-184.0
2023-08-15 14:06:18.891157,-141.0
2023-08-15 14:06:18.898847,-150.0
2023-08-15 14:06:18.906536,-148.0
2023-08-15 14:06:18.914226,-122.0
2023-08-15 14:06:18.921915,-103.0
2023-08-15 14:06:18.929605,-86.0
2023-08-15 14:06:18.937295,-74.0
2023-08-15 14:06:18.944984,-57.0
2023-08-15 14:06:18.952674,-43.0
2023-08-15 14:06:18.960363,-35.0
2023-08-15 14:06:18.968053,-11.0
2023-08-15 14:06:18.975743,16.0
2023-08-15 14:06:18.983432,31.0
2023-08-15 14:06:18.991122,55.0
2023-08-15 14:06:18.998811,81.0
2023-08-15 14:06:19.006501,88.0
2023-08-15 14:06:19.014190,100.0
2023-08-15 14:06:19.021880,127.0
2023-08-15 14:06:19.029570,122.0
2023-08-15 14:06:19.037259,100.0
2023-08-15 14:06:19.044949,98.0
2023-08-15 14:06:19.052638,88.0
2023-08-15 14:06:19.060328,64.0
2023-08-15 14:06:19.068017,40.0
2023-08-15 14:06:19.075707,7.0
2023-08-15 14:06:19.083397,-40.0
2023-08-15 14:06:19.091086,-86.0
2023-08-15 14:06:19.098776,-119.0
2023-08-15 14:06:19.106465,-141.0
2023-08-15 14:06:19.114155,-158.0
2023-08-15 14:06:19.121845,-177.0
2023-08-15 14:06:19.129534,-182.0
2023-08-15 14:06:19.137224,-182.0
2023-08-15 14:06:19.144913,-186.0
2023-08-15 14:06:19.152603,-182.0
2023-08-15 14:06:19.160292,-167.0
2023-08-15 14:06:19.167982,-155.0
2023-08-15 14:06:19.175672,-148.0
2023-08-15 14:06:19.183361,-150.0
2023-08-15 14:06:19.191051,-143.0
2023-08-15 14:06:19.198740,-129.0
2023-08-15 14:06:19.206430,-129.0
2023-08-15 14:06:19.214120,-143.0
2023-08-15 14:06:19.221809,-146.0
2023-08-15 14:06:19.229499,-134.0
2023-08-15 14:06:19.237188,-127.0
2023-08-15 14:06:19.244878,-129.0
2023-08-15 14:06:19.252567,-134.0
2023-08-15 14:06:19.260257,-139.0
2023-08-15 14:06:19.267947,-139.0
2023-08-15 14:06:19.275636,-141.0
2023-08-15 14:06:19.283326,-141.0
2023-08-15 14:06:19.291015,-139.0
2023-08-15 14:06:19.298705,-143.0
2023-08-15 14:06:19.306395,-148.0
2023-08-15 14:06:19.314084,-143.0
2023-08-15 14:06:19.321774,-139.0
2023-08-15 14:06:19.329463,-136.0
2023-08-15 14:06:19.337153,-134.0
2023-08-15 14:06:19.344842,-136.0
2023-08-15 14:06:19.352532,-131.0
2023-08-15 14:06:19.360222,-110.0
2023-08-15 14:06:19.367911,-88.0
2023-08-15 14:06:19.375601,-76.0
2023-08-15 14:06:19.383290,-64.0
2023-08-15 14:06:19.390980,-67.0
2023-08-15 14:06:19.398670,-88.0
2023-08-15 14:06:19.406359,-98.0
2023-08-15 14:06:19.414049,-100.0
2023-08-15 14:06:19.421738,-110.0
2023-08-15 14:06:19.429428,-117.0
2023-08-15 14:06:19.437117,-117.0
2023-08-15 14:06:19.444807,-112.0
2023-08-15 14:06:19.452497,-115.0
2023-08-15 14:06:19.460186,-119.0
2023-08-15 14:06:19.467876,-115.0
2023-08-15 14:06:19.475565,-107.0
2023-08-15 14:06:19.483255,-110.0
2023-08-15 14:06:19.490945,-86.0
2023-08-15 14:06:19.498634,76.0
2023-08-15 14:06:19.506324,428.0
2023-08-15 14:06:19.514013,884.0
2023-08-15 14:06:19.521703,1121.0
2023-08-15 14:06:19.529392,553.0
2023-08-15 14:06:19.537082,-455.0
2023-08-15 14:06:19.544772,-618.0
2023-08-15 14:06:19.552461,-165.0
2023-08-15 14:06:19.560151,-136.0
2023-08-15 14:06:19.567840,-280.0
2023-08-15 14:06:19.575530,-194.0
2023-08-15 14:06:19.583220,-150.0
2023-08-15 14:06:19.590909,-196.0
2023-08-15 14:06:19.598599,-165.0
2023-08-15 14:06:19.606288,-127.0
2023-08-15 14:06:19.613978,-131.0
2023-08-15 14:06:19.621667,-124.0
2023-08-15 14:06:19.629357,-107.0
2023-08-15 14:06:19.637047,-103.0
2023-08-15 14:06:19.644736,-95.0
2023-08-15 14:06:19.652426,-76.0
2023-08-15 14:06:19.660115,-59.0
2023-08-15 14:06:19.667805,-47.0
2023-08-15 14:06:19.675495,-28.0
2023-08-15 14:06:19.683184,-7.0
2023-08-15 14:06:19.690874,14.0
2023-08-15 14:06:19.698563,38.0
2023-08-15 14:06:19.706253,55.0
2023-08-15 14:06:19.713942,64.0
2023-08-15 14:06:19.721632,81.0
2023-08-15 14:06:19.729322,100.0
2023-08-15 14:06:19.737011,105.0
2023-08-15 14:06:19.744701,105.0
2023-08-15 14:06:19.752390,93.0
2023-08-15 14:06:19.760080,76.0
2023-08-15 14:06:19.767770,64.0
2023-08-15 14:06:19.775459,47.0
2023-08-15 14:06:19.783149,14.0
2023-08-15 14:06:19.790838,-26.0
2023-08-15 14:06:19.798528,-69.0
2023-08-15 14:06:19.806217,-110.0
2023-08-15 14:06:19.813907,-139.0
2023-08-15 14:06:19.821597,-165.0
2023-08-15 14:06:19.829286,-184.0
2023-08-15 14:06:19.836976,-198.0
2023-08-15 14:06:19.844665,-208.0
2023-08-15 14:06:19.852355,-206.0
2023-08-15 14:06:19.860045,-194.0
2023-08-15 14:06:19.867734,-189.0
2023-08-15 14:06:19.875424,-189.0
2023-08-15 14:06:19.883113,-179.0
2023-08-15 14:06:19.890803,-167.0
2023-08-15 14:06:19.898492,-160.0
2023-08-15 14:06:19.906182,-153.0
2023-08-15 14:06:19.913872,-148.0
2023-08-15 14:06:19.921561,-146.0
2023-08-15 14:06:19.929251,-141.0
2023-08-15 14:06:19.936940,-136.0
2023-08-15 14:06:19.944630,-131.0
2023-08-15 14:06:19.952320,-129.0
2023-08-15 14:06:19.960009,-129.0
2023-08-15 14:06:19.967699,-129.0
2023-08-15 14:06:19.975388,-127.0
2023-08-15 14:06:19.983078,-127.0
2023-08-15 14:06:19.990767,-124.0
2023-08-15 14:06:19.998457,-119.0
2023-08-15 14:06:20.006147,-122.0
2023-08-15 14:06:20.013836,-127.0
2023-08-15 14:06:20.021526,-127.0
2023-08-15 14:06:20.029215,-127.0
2023-08-15 14:06:20.036905,-127.0
2023-08-15 14:06:20.044595,-127.0
2023-08-15 14:06:20.052284,-127.0
2023-08-15 14:06:20.059974,-129.0
2023-08-15 14:06:20.067663,-131.0
2023-08-15 14:06:20.075353,-117.0
2023-08-15 14:06:20.083042,-93.0
2023-08-15 14:06:20.090732,-71.0
2023-08-15 14:06:20.098422,-55.0
2023-08-15 14:06:20.106111,-50.0
2023-08-15 14:06:20.113801,-62.0
2023-08-15 14:06:20.121490,-76.0
2023-08-15 14:06:20.129180,-86.0
2023-08-15 14:06:20.136870,-95.0
2023-08-15 14:06:20.144559,-103.0
2023-08-15 14:06:20.152249,-103.0
2023-08-15 14:06:20.159938,-100.0
2023-08-15 14:06:20.167628,-103.0
2023-08-15 14:06:20.175317,-103.0
2023-08-15 14:06:20.183007,-95.0
2023-08-15 14:06:20.190697,-91.0
2023-08-15 14:06:20.198386,-86.0
2023-08-15 14:06:20.206076,-83.0
2023-08-15 14:06:20.213765,-11.0
2023-08-15 14:06:20.221455,246.0
2023-08-15 14:06:20.229145,666.0
2023-08-15 14:06:20.236834,1090.0
2023-08-15 14:06:20.244524,1025.0
2023-08-15 14:06:20.252213,95.0
2023-08-15 14:06:20.259903,-673.0
2023-08-15 14:06:20.267592,-397.0
2023-08-15 14:06:20.275282,-64.0
2023-08-15 14:06:20.282972,-225.0
2023-08-15 14:06:20.290661,-266.0
2023-08-15 14:06:20.298351,-158.0
2023-08-15 14:06:20.306040,-179.0
2023-08-15 14:06:20.313730,-201.0
2023-08-15 14:06:20.321420,-148.0
2023-08-15 14:06:20.329109,-122.0
2023-08-15 14:06:20.336799,-131.0
2023-08-15 14:06:20.344488,-119.0
2023-08-15 14:06:20.352178,-98.0
2023-08-15 14:06:20.359867,-86.0
2023-08-15 14:06:20.367557,-71.0
2023-08-15 14:06:20.375247,-57.0
2023-08-15 14:06:20.382936,-55.0
2023-08-15 14:06:20.390626,-52.0
2023-08-15 14:06:20.398315,-40.0
2023-08-15 14:06:20.406005,-9.0
2023-08-15 14:06:20.413694,23.0
2023-08-15 14:06:20.421384,43.0
2023-08-15 14:06:20.429074,57.0
2023-08-15 14:06:20.436763,67.0
2023-08-15 14:06:20.444453,83.0
2023-08-15 14:06:20.452142,103.0
2023-08-15 14:06:20.459832,112.0
2023-08-15 14:06:20.467522,105.0
2023-08-15 14:06:20.475211,91.0
2023-08-15 14:06:20.482901,83.0
2023-08-15 14:06:20.490590,79.0
2023-08-15 14:06:20.498280,55.0
2023-08-15 14:06:20.505969,19.0
2023-08-15 14:06:20.513659,-21.0
2023-08-15 14:06:20.521349,-64.0
2023-08-15 14:06:20.529038,-105.0
2023-08-15 14:06:20.536728,-134.0
2023-08-15 14:06:20.544417,-160.0
2023-08-15 14:06:20.552107,-182.0
2023-08-15 14:06:20.559797,-182.0
2023-08-15 14:06:20.567486,-179.0
2023-08-15 14:06:20.575176,-186.0
2023-08-15 14:06:20.582865,-182.0
2023-08-15 14:06:20.590555,-170.0
2023-08-15 14:06:20.598244,-160.0
2023-08-15 14:06:20.605934,-155.0
2023-08-15 14:06:20.613624,-148.0
2023-08-15 14:06:20.621313,-143.0
2023-08-15 14:06:20.629003,-146.0
2023-08-15 14:06:20.636692,-143.0
2023-08-15 14:06:20.644382,-129.0
2023-08-15 14:06:20.652072,-122.0
2023-08-15 14:06:20.659761,-129.0
2023-08-15 14:06:20.667451,-129.0
2023-08-15 14:06:20.675140,-122.0
2023-08-15 14:06:20.682830,-119.0
2023-08-15 14:06:20.690519,-119.0
2023-08-15 14:06:20.698209,-119.0
2023-08-15 14:06:20.705899,-122.0
2023-08-15 14:06:20.713588,-124.0
2023-08-15 14:06:20.721278,-129.0
2023-08-15 14:06:20.728967,-134.0
2023-08-15 14:06:20.736657,-127.0
2023-08-15 14:06:20.744347,-122.0
2023-08-15 14:06:20.752036,-134.0
2023-08-15 14:06:20.759726,-136.0
2023-08-15 14:06:20.767415,-119.0
2023-08-15 14:06:20.775105,-100.0
2023-08-15 14:06:20.782794,-86.0
2023-08-15 14:06:20.790484,-69.0
2023-08-15 14:06:20.798174,-64.0
2023-08-15 14:06:20.805863,-69.0
2023-08-15 14:06:20.813553,-74.0
2023-08-15 14:06:20.821242,-79.0
2023-08-15 14:06:20.828932,-93.0
2023-08-15 14:06:20.836622,-107.0
2023-08-15 14:06:20.844311,-110.0
2023-08-15 14:06:20.852001,-105.0
2023-08-15 14:06:20.859690,-103.0
2023-08-15 14:06:20.867380,-100.0
2023-08-15 14:06:20.875069,-98.0
2023-08-15 14:06:20.882759,-95.0
2023-08-15 14:06:20.890449,-91.0
2023-08-15 14:06:20.898138,-88.0
2023-08-15 14:06:20.905828,-59.0
2023-08-15 14:06:20.913517,115.0
2023-08-15 14:06:20.921207,512.0
2023-08-15 14:06:20.928897,994.0
2023-08-15 14:06:20.936586,1219.0
2023-08-15 14:06:20.944276,615.0
2023-08-15 14:06:20.951965,-474.0
2023-08-15 14:06:20.959655,-695.0
2023-08-15 14:06:20.967344,-186.0
2023-08-15 14:06:20.975034,-117.0
2023-08-15 14:06:20.982724,-282.0
2023-08-15 14:06:20.990413,-191.0
2023-08-15 14:06:20.998103,-134.0
2023-08-15 14:06:21.005792,-186.0
2023-08-15 14:06:21.013482,-160.0
2023-08-15 14:06:21.021172,-117.0
2023-08-15 14:06:21.028861,-124.0
2023-08-15 14:06:21.036551,-117.0
2023-08-15 14:06:21.044240,-93.0
2023-08-15 14:06:21.051930,-81.0
2023-08-15 14:06:21.059619,-71.0
2023-08-15 14:06:21.067309,-57.0
2023-08-15 14:06:21.074999,-38.0
2023-08-15 14:06:21.082688,-21.0
2023-08-15 14:06:21.090378,-7.0
2023-08-15 14:06:21.098067,9.0
2023-08-15 14:06:21.105757,33.0
2023-08-15 14:06:21.113447,57.0
2023-08-15 14:06:21.121136,74.0
2023-08-15 14:06:21.128826,88.0
2023-08-15 14:06:21.136515,110.0
2023-08-15 14:06:21.144205,124.0
2023-08-15 14:06:21.151894,129.0
2023-08-15 14:06:21.159584,124.0
2023-08-15 14:06:21.167274,117.0
2023-08-15 14:06:21.174963,100.0
2023-08-15 14:06:21.182653,83.0
2023-08-15 14:06:21.190342,59.0
2023-08-15 14:06:21.198032,28.0
2023-08-15 14:06:21.205722,-9.0
2023-08-15 14:06:21.213411,-52.0
2023-08-15 14:06:21.221101,-98.0
2023-08-15 14:06:21.228790,-139.0
2023-08-15 14:06:21.236480,-165.0
2023-08-15 14:06:21.244169,-182.0
2023-08-15 14:06:21.251859,-194.0
2023-08-15 14:06:21.259549,-203.0
2023-08-15 14:06:21.267238,-203.0
2023-08-15 14:06:21.274928,-196.0
2023-08-15 14:06:21.282617,-189.0
2023-08-15 14:06:21.290307,-186.0
2023-08-15 14:06:21.297997,-177.0
2023-08-15 14:06:21.305686,-162.0
2023-08-15 14:06:21.313376,-155.0
2023-08-15 14:06:21.321065,-155.0
2023-08-15 14:06:21.328755,-148.0
2023-08-15 14:06:21.336444,-139.0
2023-08-15 14:06:21.344134,-139.0
2023-08-15 14:06:21.351824,-134.0
2023-08-15 14:06:21.359513,-131.0
2023-08-15 14:06:21.367203,-134.0
2023-08-15 14:06:21.374892,-134.0
2023-08-15 14:06:21.382582,-124.0
2023-08-15 14:06:21.390272,-122.0
2023-08-15 14:06:21.397961,-131.0
2023-08-15 14:06:21.405651,-129.0
2023-08-15 14:06:21.413340,-124.0
2023-08-15 14:06:21.421030,-127.0
2023-08-15 14:06:21.428719,-127.0
2023-08-15 14:06:21.436409,-122.0
2023-08-15 14:06:21.444099,-124.0
2023-08-15 14:06:21.451788,-124.0
2023-08-15 14:06:21.459478,-122.0
2023-08-15 14:06:21.467167,-134.0
2023-08-15 14:06:21.474857,-143.0
2023-08-15 14:06:21.482547,-139.0
2023-08-15 14:06:21.490236,-129.0
2023-08-15 14:06:21.497926,-107.0
2023-08-15 14:06:21.505615,-86.0
2023-08-15 14:06:21.513305,-71.0
2023-08-15 14:06:21.520994,-64.0
2023-08-15 14:06:21.528684,-64.0
2023-08-15 14:06:21.536374,-76.0
2023-08-15 14:06:21.544063,-86.0
2023-08-15 14:06:21.551753,-98.0
2023-08-15 14:06:21.559442,-110.0
2023-08-15 14:06:21.567132,-112.0
2023-08-15 14:06:21.574822,-107.0
2023-08-15 14:06:21.582511,-105.0
2023-08-15 14:06:21.590201,-105.0
2023-08-15 14:06:21.597890,-107.0
2023-08-15 14:06:21.605580,-105.0
2023-08-15 14:06:21.613269,-95.0
2023-08-15 14:06:21.620959,-86.0
2023-08-15 14:06:21.628649,-43.0
2023-08-15 14:06:21.636338,143.0
2023-08-15 14:06:21.644028,498.0
2023-08-15 14:06:21.651717,956.0
2023-08-15 14:06:21.659407,1176.0
2023-08-15 14:06:21.667097,520.0
2023-08-15 14:06:21.674786,-491.0
2023-08-15 14:06:21.682476,-546.0
2023-08-15 14:06:21.690165,-98.0
2023-08-15 14:06:21.697855,-150.0
2023-08-15 14:06:21.705544,-285.0
2023-08-15 14:06:21.713234,-174.0
2023-08-15 14:06:21.720924,-155.0
2023-08-15 14:06:21.728613,-208.0
2023-08-15 14:06:21.736303,-167.0
2023-08-15 14:06:21.743992,-136.0
2023-08-15 14:06:21.751682,-146.0
2023-08-15 14:06:21.759372,-129.0
2023-08-15 14:06:21.767061,-105.0
2023-08-15 14:06:21.774751,-105.0
2023-08-15 14:06:21.782440,-95.0
2023-08-15 14:06:21.790130,-71.0
2023-08-15 14:06:21.797819,-55.0
2023-08-15 14:06:21.805509,-40.0
2023-08-15 14:06:21.813199,-19.0
2023-08-15 14:06:21.820888,0.0
2023-08-15 14:06:21.828578,11.0
2023-08-15 14:06:21.836267,31.0
2023-08-15 14:06:21.843957,55.0
2023-08-15 14:06:21.851646,76.0
2023-08-15 14:06:21.859336,88.0
2023-08-15 14:06:21.867026,95.0
2023-08-15 14:06:21.874715,100.0
2023-08-15 14:06:21.882405,103.0
2023-08-15 14:06:21.890094,98.0
2023-08-15 14:06:21.897784,86.0
2023-08-15 14:06:21.905474,71.0
2023-08-15 14:06:21.913163,52.0
2023-08-15 14:06:21.920853,23.0
2023-08-15 14:06:21.928542,-11.0
2023-08-15 14:06:21.936232,-47.0
2023-08-15 14:06:21.943921,-83.0
2023-08-15 14:06:21.951611,-119.0
2023-08-15 14:06:21.959301,-148.0
2023-08-15 14:06:21.966990,-165.0
2023-08-15 14:06:21.974680,-174.0
2023-08-15 14:06:21.982369,-177.0
2023-08-15 14:06:21.990059,-174.0
2023-08-15 14:06:21.997749,-170.0
2023-08-15 14:06:22.005438,-167.0
2023-08-15 14:06:22.013128,-160.0
2023-08-15 14:06:22.020817,-153.0
2023-08-15 14:06:22.028507,-148.0
2023-08-15 14:06:22.036196,-146.0
2023-08-15 14:06:22.043886,-146.0
2023-08-15 14:06:22.051576,-153.0
2023-08-15 14:06:22.059265,-150.0
2023-08-15 14:06:22.066955,-143.0
2023-08-15 14:06:22.074644,-139.0
2023-08-15 14:06:22.082334,-134.0
2023-08-15 14:06:22.090024,-129.0
2023-08-15 14:06:22.097713,-129.0
2023-08-15 14:06:22.105403,-131.0
2023-08-15 14:06:22.113092,-131.0
2023-08-15 14:06:22.120782,-131.0
2023-08-15 14:06:22.128471,-131.0
2023-08-15 14:06:22.136161,-134.0
2023-08-15 14:06:22.143851,-134.0
2023-08-15 14:06:22.151540,-129.0
2023-08-15 14:06:22.159230,-122.0
2023-08-15 14:06:22.166919,-117.0
2023-08-15 14:06:22.174609,-117.0
2023-08-15 14:06:22.182299,-119.0
2023-08-15 14:06:22.189988,-119.0
2023-08-15 14:06:22.197678,-115.0
2023-08-15 14:06:22.205367,-117.0
2023-08-15 14:06:22.213057,-124.0
2023-08-15 14:06:22.220746,-127.0
2023-08-15 14:06:22.228436,-119.0
2023-08-15 14:06:22.236126,-100.0
2023-08-15 14:06:22.243815,-81.0
2023-08-15 14:06:22.251505,-67.0
2023-08-15 14:06:22.259194,-55.0
2023-08-15 14:06:22.266884,-52.0
2023-08-15 14:06:22.274574,-71.0
2023-08-15 14:06:22.282263,-86.0
2023-08-15 14:06:22.289953,-93.0
2023-08-15 14:06:22.297642,-105.0
2023-08-15 14:06:22.305332,-110.0
2023-08-15 14:06:22.313021,-107.0
2023-08-15 14:06:22.320711,-103.0
2023-08-15 14:06:22.328401,-103.0
2023-08-15 14:06:22.336090,-103.0
2023-08-15 14:06:22.343780,-95.0
2023-08-15 14:06:22.351469,-88.0
2023-08-15 14:06:22.359159,-83.0
2023-08-15 14:06:22.366849,-31.0
2023-08-15 14:06:22.374538,167.0
2023-08-15 14:06:22.382228,517.0
2023-08-15 14:06:22.389917,937.0
2023-08-15 14:06:22.397607,1068.0
2023-08-15 14:06:22.405296,345.0
2023-08-15 14:06:22.412986,-572.0
2023-08-15 14:06:22.420676,-503.0
2023-08-15 14:06:22.428365,-71.0
2023-08-15 14:06:22.436055,-158.0
2023-08-15 14:06:22.443744,-266.0
2023-08-15 14:06:22.451434,-150.0
2023-08-15 14:06:22.459124,-143.0
2023-08-15 14:06:22.466813,-186.0
2023-08-15 14:06:22.474503,-143.0
2023-08-15 14:06:22.482192,-115.0
2023-08-15 14:06:22.489882,-122.0
2023-08-15 14:06:22.497571,-110.0
2023-08-15 14:06:22.505261,-91.0
2023-08-15 14:06:22.512951,-79.0
2023-08-15 14:06:22.520640,-64.0
2023-08-15 14:06:22.528330,-50.0
2023-08-15 14:06:22.536019,-38.0
2023-08-15 14:06:22.543709,-26.0
2023-08-15 14:06:22.551399,-9.0
2023-08-15 14:06:22.559088,7.0
2023-08-15 14:06:22.566778,26.0
2023-08-15 14:06:22.574467,45.0
2023-08-15 14:06:22.582157,62.0
2023-08-15 14:06:22.589846,74.0
2023-08-15 14:06:22.597536,79.0
2023-08-15 14:06:22.605226,83.0
2023-08-15 14:06:22.612915,93.0
2023-08-15 14:06:22.620605,95.0
2023-08-15 14:06:22.628294,79.0
2023-08-15 14:06:22.635984,62.0
2023-08-15 14:06:22.643674,52.0
2023-08-15 14:06:22.651363,35.0
2023-08-15 14:06:22.659053,7.0
2023-08-15 14:06:22.666742,-21.0
2023-08-15 14:06:22.674432,-55.0
2023-08-15 14:06:22.682121,-93.0
2023-08-15 14:06:22.689811,-129.0
2023-08-15 14:06:22.697501,-155.0
2023-08-15 14:06:22.705190,-167.0
2023-08-15 14:06:22.712880,-177.0
2023-08-15 14:06:22.720569,-177.0
2023-08-15 14:06:22.728259,-177.0
2023-08-15 14:06:22.735949,-184.0
2023-08-15 14:06:22.743638,-184.0
2023-08-15 14:06:22.751328,-170.0
2023-08-15 14:06:22.759017,-160.0
2023-08-15 14:06:22.766707,-160.0
2023-08-15 14:06:22.774396,-155.0
2023-08-15 14:06:22.782086,-155.0
2023-08-15 14:06:22.789776,-155.0
2023-08-15 14:06:22.797465,-143.0
2023-08-15 14:06:22.805155,-131.0
2023-08-15 14:06:22.812844,-134.0
2023-08-15 14:06:22.820534,-139.0
2023-08-15 14:06:22.828224,-139.0
2023-08-15 14:06:22.835913,-131.0
2023-08-15 14:06:22.843603,-129.0
2023-08-15 14:06:22.851292,-129.0
2023-08-15 14:06:22.858982,-129.0
2023-08-15 14:06:22.866671,-131.0
2023-08-15 14:06:22.874361,-129.0
2023-08-15 14:06:22.882051,-127.0
2023-08-15 14:06:22.889740,-124.0
2023-08-15 14:06:22.897430,-119.0
2023-08-15 14:06:22.905119,-119.0
2023-08-15 14:06:22.912809,-115.0
2023-08-15 14:06:22.920499,-115.0
2023-08-15 14:06:22.928188,-115.0
2023-08-15 14:06:22.935878,-115.0
2023-08-15 14:06:22.943567,-115.0
2023-08-15 14:06:22.951257,-115.0
2023-08-15 14:06:22.958946,-115.0
2023-08-15 14:06:22.966636,-105.0
2023-08-15 14:06:22.974326,-86.0
2023-08-15 14:06:22.982015,-67.0
2023-08-15 14:06:22.989705,-57.0
2023-08-15 14:06:22.997394,-50.0
2023-08-15 14:06:23.005084,-50.0
2023-08-15 14:06:23.012774,-64.0
2023-08-15 14:06:23.020463,-79.0
2023-08-15 14:06:23.028153,-88.0
2023-08-15 14:06:23.035842,-98.0
2023-08-15 14:06:23.043532,-103.0
2023-08-15 14:06:23.051221,-100.0
2023-08-15 14:06:23.058911,-98.0
2023-08-15 14:06:23.066601,-93.0
2023-08-15 14:06:23.074290,-91.0
2023-08-15 14:06:23.081980,-98.0
2023-08-15 14:06:23.089669,-91.0
2023-08-15 14:06:23.097359,-69.0
2023-08-15 14:06:23.105049,-9.0
2023-08-15 14:06:23.112738,196.0
2023-08-15 14:06:23.120428,556.0
2023-08-15 14:06:23.128117,939.0
2023-08-15 14:06:23.135807,961.0
2023-08-15 14:06:23.143496,182.0
2023-08-15 14:06:23.151186,-618.0
2023-08-15 14:06:23.158876,-445.0
2023-08-15 14:06:23.166565,-64.0
2023-08-15 14:06:23.174255,-182.0
2023-08-15 14:06:23.181944,-251.0
2023-08-15 14:06:23.189634,-139.0
2023-08-15 14:06:23.197323,-148.0
2023-08-15 14:06:23.205013,-184.0
2023-08-15 14:06:23.212703,-141.0
2023-08-15 14:06:23.220392,-117.0
2023-08-15 14:06:23.228082,-117.0
2023-08-15 14:06:23.235771,-105.0
2023-08-15 14:06:23.243461,-100.0
2023-08-15 14:06:23.251151,-98.0
2023-08-15 14:06:23.258840,-79.0
2023-08-15 14:06:23.266530,-64.0
2023-08-15 14:06:23.274219,-59.0
2023-08-15 14:06:23.281909,-45.0
2023-08-15 14:06:23.289598,-19.0
2023-08-15 14:06:23.297288,0.0
2023-08-15 14:06:23.304978,14.0
2023-08-15 14:06:23.312667,33.0
2023-08-15 14:06:23.320357,55.0
2023-08-15 14:06:23.328046,71.0
2023-08-15 14:06:23.335736,83.0
2023-08-15 14:06:23.343426,91.0
2023-08-15 14:06:23.351115,93.0
2023-08-15 14:06:23.358805,86.0
2023-08-15 14:06:23.366494,76.0
2023-08-15 14:06:23.374184,67.0
2023-08-15 14:06:23.381873,55.0
2023-08-15 14:06:23.389563,33.0
2023-08-15 14:06:23.397253,14.0
2023-08-15 14:06:23.404942,-14.0
2023-08-15 14:06:23.412632,-52.0
2023-08-15 14:06:23.420321,-88.0
2023-08-15 14:06:23.428011,-117.0
2023-08-15 14:06:23.435701,-139.0
2023-08-15 14:06:23.443390,-160.0
2023-08-15 14:06:23.451080,-167.0
2023-08-15 14:06:23.458769,-165.0
2023-08-15 14:06:23.466459,-165.0
2023-08-15 14:06:23.474148,-165.0
2023-08-15 14:06:23.481838,-158.0
2023-08-15 14:06:23.489528,-153.0
2023-08-15 14:06:23.497217,-150.0
2023-08-15 14:06:23.504907,-146.0
2023-08-15 14:06:23.512596,-136.0
2023-08-15 14:06:23.520286,-134.0
2023-08-15 14:06:23.527976,-134.0
2023-08-15 14:06:23.535665,-131.0
2023-08-15 14:06:23.543355,-127.0
2023-08-15 14:06:23.551044,-124.0
2023-08-15 14:06:23.558734,-127.0
2023-08-15 14:06:23.566423,-124.0
2023-08-15 14:06:23.574113,-124.0
2023-08-15 14:06:23.581803,-124.0
2023-08-15 14:06:23.589492,-127.0
2023-08-15 14:06:23.597182,-127.0
2023-08-15 14:06:23.604871,-119.0
2023-08-15 14:06:23.612561,-117.0
2023-08-15 14:06:23.620251,-119.0
2023-08-15 14:06:23.627940,-119.0
2023-08-15 14:06:23.635630,-115.0
2023-08-15 14:06:23.643319,-115.0
2023-08-15 14:06:23.651009,-115.0
2023-08-15 14:06:23.658698,-117.0
2023-08-15 14:06:23.666388,-124.0
2023-08-15 14:06:23.674078,-129.0
2023-08-15 14:06:23.681767,-129.0
2023-08-15 14:06:23.689457,-129.0
2023-08-15 14:06:23.697146,-115.0
2023-08-15 14:06:23.704836,-93.0
2023-08-15 14:06:23.712526,-86.0
2023-08-15 14:06:23.720215,-76.0
2023-08-15 14:06:23.727905,-55.0
2023-08-15 14:06:23.735594,-47.0
2023-08-15 14:06:23.743284,-67.0
2023-08-15 14:06:23.750973,-93.0
2023-08-15 14:06:23.758663,-112.0
2023-08-15 14:06:23.766353,-119.0
2023-08-15 14:06:23.774042,-117.0
2023-08-15 14:06:23.781732,-112.0
2023-08-15 14:06:23.789421,-112.0
2023-08-15 14:06:23.797111,-112.0
2023-08-15 14:06:23.804801,-115.0
2023-08-15 14:06:23.812490,-112.0
2023-08-15 14:06:23.820180,-100.0
2023-08-15 14:06:23.827869,-93.0
2023-08-15 14:06:23.835559,-50.0
2023-08-15 14:06:23.843248,139.0
2023-08-15 14:06:23.850938,496.0
2023-08-15 14:06:23.858628,889.0
2023-08-15 14:06:23.866317,982.0
2023-08-15 14:06:23.874007,318.0
2023-08-15 14:06:23.881696,-560.0
2023-08-15 14:06:23.889386,-558.0
2023-08-15 14:06:23.897076,-112.0
2023-08-15 14:06:23.904765,-124.0
2023-08-15 14:06:23.912455,-242.0
2023-08-15 14:06:23.920144,-146.0
2023-08-15 14:06:23.927834,-119.0
2023-08-15 14:06:23.935523,-162.0
2023-08-15 14:06:23.943213,-134.0
2023-08-15 14:06:23.950903,-103.0
2023-08-15 14:06:23.958592,-100.0
2023-08-15 14:06:23.966282,-83.0
2023-08-15 14:06:23.973971,-69.0
2023-08-15 14:06:23.981661,-74.0
2023-08-15 14:06:23.989351,-67.0
2023-08-15 14:06:23.997040,-47.0
2023-08-15 14:06:24.004730,-38.0
2023-08-15 14:06:24.012419,-23.0
2023-08-15 14:06:24.020109,0.0
2023-08-15 14:06:24.027798,21.0
2023-08-15 14:06:24.035488,33.0
2023-08-15 14:06:24.043178,50.0
2023-08-15 14:06:24.050867,69.0
2023-08-15 14:06:24.058557,88.0
2023-08-15 14:06:24.066246,103.0
2023-08-15 14:06:24.073936,112.0
2023-08-15 14:06:24.081626,110.0
2023-08-15 14:06:24.089315,105.0
2023-08-15 14:06:24.097005,98.0
2023-08-15 14:06:24.104694,88.0
2023-08-15 14:06:24.112384,74.0
2023-08-15 14:06:24.120073,52.0
2023-08-15 14:06:24.127763,23.0
2023-08-15 14:06:24.135453,0.0
2023-08-15 14:06:24.143142,-26.0
2023-08-15 14:06:24.150832,-59.0
2023-08-15 14:06:24.158521,-95.0
2023-08-15 14:06:24.166211,-127.0
2023-08-15 14:06:24.173901,-141.0
2023-08-15 14:06:24.181590,-146.0
2023-08-15 14:06:24.189280,-146.0
2023-08-15 14:06:24.196969,-143.0
2023-08-15 14:06:24.204659,-143.0
2023-08-15 14:06:24.212348,-146.0
2023-08-15 14:06:24.220038,-141.0
2023-08-15 14:06:24.227728,-134.0
2023-08-15 14:06:24.235417,-129.0
2023-08-15 14:06:24.243107,-124.0
2023-08-15 14:06:24.250796,-117.0
2023-08-15 14:06:24.258486,-122.0
2023-08-15 14:06:24.266176,-129.0
2023-08-15 14:06:24.273865,-124.0
2023-08-15 14:06:24.281555,-115.0
2023-08-15 14:06:24.289244,-117.0
2023-08-15 14:06:24.296934,-124.0
2023-08-15 14:06:24.304623,-131.0
2023-08-15 14:06:24.312313,-131.0
2023-08-15 14:06:24.320003,-129.0
2023-08-15 14:06:24.327692,-127.0
2023-08-15 14:06:24.335382,-122.0
2023-08-15 14:06:24.343071,-119.0
2023-08-15 14:06:24.350761,-119.0
2023-08-15 14:06:24.358451,-117.0
2023-08-15 14:06:24.366140,-112.0
2023-08-15 14:06:24.373830,-110.0
2023-08-15 14:06:24.381519,-110.0
2023-08-15 14:06:24.389209,-115.0
2023-08-15 14:06:24.396898,-115.0
2023-08-15 14:06:24.404588,-95.0
2023-08-15 14:06:24.412278,-67.0
2023-08-15 14:06:24.419967,-47.0
2023-08-15 14:06:24.427657,-40.0
2023-08-15 14:06:24.435346,-35.0
2023-08-15 14:06:24.443036,-43.0
2023-08-15 14:06:24.450726,-62.0
2023-08-15 14:06:24.458415,-76.0
2023-08-15 14:06:24.466105,-88.0
2023-08-15 14:06:24.473794,-95.0
2023-08-15 14:06:24.481484,-93.0
2023-08-15 14:06:24.489173,-91.0
2023-08-15 14:06:24.496863,-93.0
2023-08-15 14:06:24.504553,-86.0
2023-08-15 14:06:24.512242,-81.0
2023-08-15 14:06:24.519932,-81.0
2023-08-15 14:06:24.527621,-79.0
2023-08-15 14:06:24.535311,-52.0
2023-08-15 14:06:24.543000,86.0
2023-08-15 14:06:24.550690,436.0
2023-08-15 14:06:24.558380,889.0
2023-08-15 14:06:24.566069,1119.0
2023-08-15 14:06:24.573759,649.0
2023-08-15 14:06:24.581448,-373.0
2023-08-15 14:06:24.589138,-759.0
2023-08-15 14:06:24.596828,-285.0
2023-08-15 14:06:24.604517,-62.0
2023-08-15 14:06:24.612207,-215.0
2023-08-15 14:06:24.619896,-182.0
2023-08-15 14:06:24.627586,-95.0
2023-08-15 14:06:24.635275,-131.0
2023-08-15 14:06:24.642965,-129.0
2023-08-15 14:06:24.650655,-83.0
2023-08-15 14:06:24.658344,-83.0
2023-08-15 14:06:24.666034,-79.0
2023-08-15 14:06:24.673723,-57.0
2023-08-15 14:06:24.681413,-50.0
2023-08-15 14:06:24.689103,-45.0
2023-08-15 14:06:24.696792,-31.0
2023-08-15 14:06:24.704482,-21.0
2023-08-15 14:06:24.712171,-11.0
2023-08-15 14:06:24.719861,2.0
2023-08-15 14:06:24.727550,21.0
2023-08-15 14:06:24.735240,43.0
2023-08-15 14:06:24.742930,62.0
2023-08-15 14:06:24.750619,79.0
2023-08-15 14:06:24.758309,95.0
2023-08-15 14:06:24.765998,103.0
2023-08-15 14:06:24.773688,110.0
2023-08-15 14:06:24.781378,115.0
2023-08-15 14:06:24.789067,110.0
2023-08-15 14:06:24.796757,93.0
2023-08-15 14:06:24.804446,79.0
2023-08-15 14:06:24.812136,62.0
2023-08-15 14:06:24.819825,40.0
2023-08-15 14:06:24.827515,21.0
2023-08-15 14:06:24.835205,-9.0
2023-08-15 14:06:24.842894,-57.0
2023-08-15 14:06:24.850584,-93.0
2023-08-15 14:06:24.858273,-119.0
2023-08-15 14:06:24.865963,-148.0
2023-08-15 14:06:24.873653,-170.0
2023-08-15 14:06:24.881342,-186.0
2023-08-15 14:06:24.889032,-196.0
2023-08-15 14:06:24.896721,-194.0
2023-08-15 14:06:24.904411,-186.0
2023-08-15 14:06:24.912100,-182.0
2023-08-15 14:06:24.919790,-174.0
2023-08-15 14:06:24.927480,-170.0
2023-08-15 14:06:24.935169,-162.0
2023-08-15 14:06:24.942859,-155.0
2023-08-15 14:06:24.950548,-150.0
2023-08-15 14:06:24.958238,-148.0
2023-08-15 14:06:24.965928,-146.0
2023-08-15 14:06:24.973617,-143.0
2023-08-15 14:06:24.981307,-141.0
2023-08-15 14:06:24.988996,-139.0
2023-08-15 14:06:24.996686,-136.0
2023-08-15 14:06:25.004375,-136.0
2023-08-15 14:06:25.012065,-136.0
2023-08-15 14:06:25.019755,-134.0
2023-08-15 14:06:25.027444,-131.0
2023-08-15 14:06:25.035134,-129.0
2023-08-15 14:06:25.042823,-129.0
2023-08-15 14:06:25.050513,-129.0
2023-08-15 14:06:25.058203,-127.0
2023-08-15 14:06:25.065892,-127.0
2023-08-15 14:06:25.073582,-124.0
2023-08-15 14:06:25.081271,-117.0
2023-08-15 14:06:25.088961,-115.0
2023-08-15 14:06:25.096650,-122.0
2023-08-15 14:06:25.104340,-124.0
2023-08-15 14:06:25.112030,-124.0
2023-08-15 14:06:25.119719,-119.0
2023-08-15 14:06:25.127409,-100.0
2023-08-15 14:06:25.135098,-81.0
2023-08-15 14:06:25.142788,-67.0
2023-08-15 14:06:25.150478,-50.0
2023-08-15 14:06:25.158167,-43.0
2023-08-15 14:06:25.165857,-55.0
2023-08-15 14:06:25.173546,-71.0
2023-08-15 14:06:25.181236,-81.0
2023-08-15 14:06:25.188925,-91.0
2023-08-15 14:06:25.196615,-95.0
2023-08-15 14:06:25.204305,-98.0
2023-08-15 14:06:25.211994,-98.0
2023-08-15 14:06:25.219684,-95.0
2023-08-15 14:06:25.227373,-88.0
2023-08-15 14:06:25.235063,-88.0
2023-08-15 14:06:25.242753,-91.0
2023-08-15 14:06:25.250442,-83.0
2023-08-15 14:06:25.258132,-38.0
2023-08-15 14:06:25.265821,115.0
2023-08-15 14:06:25.273511,409.0
2023-08-15 14:06:25.281200,805.0
2023-08-15 14:06:25.288890,1030.0
2023-08-15 14:06:25.296580,496.0
2023-08-15 14:06:25.304269,-445.0
2023-08-15 14:06:25.311959,-568.0
2023-08-15 14:06:25.319648,-127.0
2023-08-15 14:06:25.327338,-115.0
2023-08-15 14:06:25.335028,-256.0
2023-08-15 14:06:25.342717,-167.0
2023-08-15 14:06:25.350407,-127.0
2023-08-15 14:06:25.358096,-174.0
2023-08-15 14:06:25.365786,-148.0
2023-08-15 14:06:25.373475,-117.0
2023-08-15 14:06:25.381165,-129.0
2023-08-15 14:06:25.388855,-122.0
2023-08-15 14:06:25.396544,-98.0
2023-08-15 14:06:25.404234,-91.0
2023-08-15 14:06:25.411923,-86.0
2023-08-15 14:06:25.419613,-71.0
2023-08-15 14:06:25.427303,-59.0
2023-08-15 14:06:25.434992,-45.0
2023-08-15 14:06:25.442682,-23.0
2023-08-15 14:06:25.450371,-4.0
2023-08-15 14:06:25.458061,9.0
2023-08-15 14:06:25.465750,23.0
2023-08-15 14:06:25.473440,45.0
2023-08-15 14:06:25.481130,62.0
2023-08-15 14:06:25.488819,76.0
2023-08-15 14:06:25.496509,86.0
2023-08-15 14:06:25.504198,88.0
2023-08-15 14:06:25.511888,83.0
2023-08-15 14:06:25.519578,76.0
2023-08-15 14:06:25.527267,67.0
2023-08-15 14:06:25.534957,57.0
2023-08-15 14:06:25.542646,40.0
2023-08-15 14:06:25.550336,19.0
2023-08-15 14:06:25.558025,-11.0
2023-08-15 14:06:25.565715,-45.0
2023-08-15 14:06:25.573405,-79.0
2023-08-15 14:06:25.581094,-110.0
2023-08-15 14:06:25.588784,-134.0
2023-08-15 14:06:25.596473,-153.0
2023-08-15 14:06:25.604163,-167.0
2023-08-15 14:06:25.611853,-167.0
2023-08-15 14:06:25.619542,-162.0
2023-08-15 14:06:25.627232,-158.0
2023-08-15 14:06:25.634921,-153.0
2023-08-15 14:06:25.642611,-148.0
2023-08-15 14:06:25.650300,-146.0
2023-08-15 14:06:25.657990,-143.0
2023-08-15 14:06:25.665680,-136.0
2023-08-15 14:06:25.673369,-127.0
2023-08-15 14:06:25.681059,-122.0
2023-08-15 14:06:25.688748,-124.0
2023-08-15 14:06:25.696438,-127.0
2023-08-15 14:06:25.704128,-127.0
2023-08-15 14:06:25.711817,-124.0
2023-08-15 14:06:25.719507,-122.0
2023-08-15 14:06:25.727196,-122.0
2023-08-15 14:06:25.734886,-124.0
2023-08-15 14:06:25.742575,-127.0
2023-08-15 14:06:25.750265,-127.0
2023-08-15 14:06:25.757955,-127.0
2023-08-15 14:06:25.765644,-124.0
2023-08-15 14:06:25.773334,-124.0
2023-08-15 14:06:25.781023,-131.0
2023-08-15 14:06:25.788713,-131.0
2023-08-15 14:06:25.796403,-127.0
2023-08-15 14:06:25.804092,-119.0
2023-08-15 14:06:25.811782,-119.0
2023-08-15 14:06:25.819471,-124.0
2023-08-15 14:06:25.827161,-129.0
2023-08-15 14:06:25.834850,-119.0
2023-08-15 14:06:25.842540,-98.0
2023-08-15 14:06:25.850230,-74.0
2023-08-15 14:06:25.857919,-59.0
2023-08-15 14:06:25.865609,-47.0
2023-08-15 14:06:25.873298,-43.0
2023-08-15 14:06:25.880988,-62.0
2023-08-15 14:06:25.888678,-81.0
2023-08-15 14:06:25.896367,-88.0
2023-08-15 14:06:25.904057,-98.0
2023-08-15 14:06:25.911746,-103.0
2023-08-15 14:06:25.919436,-103.0
2023-08-15 14:06:25.927125,-100.0
2023-08-15 14:06:25.934815,-98.0
2023-08-15 14:06:25.942505,-95.0
2023-08-15 14:06:25.950194,-98.0
2023-08-15 14:06:25.957884,-98.0
2023-08-15 14:06:25.965573,-88.0
2023-08-15 14:06:25.973263,-21.0
2023-08-15 14:06:25.980952,184.0
2023-08-15 14:06:25.988642,520.0
2023-08-15 14:06:25.996332,879.0
2023-08-15 14:06:26.004021,874.0
2023-08-15 14:06:26.011711,100.0
2023-08-15 14:06:26.019400,-625.0
2023-08-15 14:06:26.027090,-414.0
2023-08-15 14:06:26.034780,-62.0
2023-08-15 14:06:26.042469,-172.0
2023-08-15 14:06:26.050159,-230.0
2023-08-15 14:06:26.057848,-131.0
2023-08-15 14:06:26.065538,-143.0
2023-08-15 14:06:26.073227,-165.0
2023-08-15 14:06:26.080917,-122.0
2023-08-15 14:06:26.088607,-103.0
2023-08-15 14:06:26.096296,-107.0
2023-08-15 14:06:26.103986,-91.0
2023-08-15 14:06:26.111675,-71.0
2023-08-15 14:06:26.119365,-62.0
2023-08-15 14:06:26.127055,-50.0
2023-08-15 14:06:26.134744,-38.0
2023-08-15 14:06:26.142434,-28.0
2023-08-15 14:06:26.150123,-14.0
2023-08-15 14:06:26.157813,-2.0
2023-08-15 14:06:26.165502,19.0
2023-08-15 14:06:26.173192,40.0
2023-08-15 14:06:26.180882,57.0
2023-08-15 14:06:26.188571,71.0
2023-08-15 14:06:26.196261,86.0
2023-08-15 14:06:26.203950,95.0
2023-08-15 14:06:26.211640,100.0
2023-08-15 14:06:26.219330,105.0
2023-08-15 14:06:26.227019,95.0
2023-08-15 14:06:26.234709,81.0
2023-08-15 14:06:26.242398,69.0
2023-08-15 14:06:26.250088,52.0
2023-08-15 14:06:26.257777,33.0
2023-08-15 14:06:26.265467,11.0
2023-08-15 14:06:26.273157,-21.0
2023-08-15 14:06:26.280846,-62.0
2023-08-15 14:06:26.288536,-103.0
2023-08-15 14:06:26.296225,-131.0
2023-08-15 14:06:26.303915,-148.0
2023-08-15 14:06:26.311605,-165.0
2023-08-15 14:06:26.319294,-174.0
2023-08-15 14:06:26.326984,-172.0
2023-08-15 14:06:26.334673,-167.0
2023-08-15 14:06:26.342363,-162.0
2023-08-15 14:06:26.350052,-155.0
2023-08-15 14:06:26.357742,-148.0
2023-08-15 14:06:26.365432,-146.0
2023-08-15 14:06:26.373121,-139.0
2023-08-15 14:06:26.380811,-134.0
2023-08-15 14:06:26.388500,-131.0
2023-08-15 14:06:26.396190,-129.0
2023-08-15 14:06:26.403880,-124.0
2023-08-15 14:06:26.411569,-122.0
2023-08-15 14:06:26.419259,-122.0
2023-08-15 14:06:26.426948,-124.0
2023-08-15 14:06:26.434638,-122.0
2023-08-15 14:06:26.442327,-122.0
2023-08-15 14:06:26.450017,-122.0
2023-08-15 14:06:26.457707,-124.0
2023-08-15 14:06:26.465396,-124.0
2023-08-15 14:06:26.473086,-124.0
2023-08-15 14:06:26.480775,-122.0
2023-08-15 14:06:26.488465,-122.0
2023-08-15 14:06:26.496155,-124.0
2023-08-15 14:06:26.503844,-134.0
2023-08-15 14:06:26.511534,-136.0
2023-08-15 14:06:26.519223,-134.0
2023-08-15 14:06:26.526913,-134.0
2023-08-15 14:06:26.534602,-129.0
2023-08-15 14:06:26.542292,-112.0
2023-08-15 14:06:26.549982,-93.0
2023-08-15 14:06:26.557671,-76.0
2023-08-15 14:06:26.565361,-59.0
2023-08-15 14:06:26.573050,-55.0
2023-08-15 14:06:26.580740,-64.0
2023-08-15 14:06:26.588430,-81.0
2023-08-15 14:06:26.596119,-95.0
2023-08-15 14:06:26.603809,-103.0
2023-08-15 14:06:26.611498,-107.0
2023-08-15 14:06:26.619188,-107.0
2023-08-15 14:06:26.626877,-105.0
2023-08-15 14:06:26.634567,-105.0
2023-08-15 14:06:26.642257,-105.0
2023-08-15 14:06:26.649946,-103.0
2023-08-15 14:06:26.657636,-98.0
2023-08-15 14:06:26.665325,-91.0
2023-08-15 14:06:26.673015,-55.0
2023-08-15 14:06:26.680705,95.0
2023-08-15 14:06:26.688394,395.0
2023-08-15 14:06:26.696084,776.0
2023-08-15 14:06:26.703773,977.0
2023-08-15 14:06:26.711463,479.0
2023-08-15 14:06:26.719152,-433.0
2023-08-15 14:06:26.726842,-603.0
2023-08-15 14:06:26.734532,-165.0
2023-08-15 14:06:26.742221,-103.0
2023-08-15 14:06:26.749911,-244.0
2023-08-15 14:06:26.757600,-174.0
2023-08-15 14:06:26.765290,-129.0
2023-08-15 14:06:26.772980,-172.0
2023-08-15 14:06:26.780669,-153.0
2023-08-15 14:06:26.788359,-119.0
2023-08-15 14:06:26.796048,-127.0
2023-08-15 14:06:26.803738,-122.0
2023-08-15 14:06:26.811427,-98.0
2023-08-15 14:06:26.819117,-86.0
2023-08-15 14:06:26.826807,-76.0
2023-08-15 14:06:26.834496,-59.0
2023-08-15 14:06:26.842186,-45.0
2023-08-15 14:06:26.849875,-33.0
2023-08-15 14:06:26.857565,-16.0
2023-08-15 14:06:26.865255,0.0
2023-08-15 14:06:26.872944,16.0
2023-08-15 14:06:26.880634,38.0
2023-08-15 14:06:26.888323,55.0
2023-08-15 14:06:26.896013,67.0
2023-08-15 14:06:26.903702,79.0
2023-08-15 14:06:26.911392,88.0
2023-08-15 14:06:26.919082,86.0
2023-08-15 14:06:26.926771,83.0
2023-08-15 14:06:26.934461,71.0
2023-08-15 14:06:26.942150,59.0
2023-08-15 14:06:26.949840,47.0
2023-08-15 14:06:26.957530,31.0
2023-08-15 14:06:26.965219,9.0
2023-08-15 14:06:26.972909,-19.0
2023-08-15 14:06:26.980598,-57.0
2023-08-15 14:06:26.988288,-91.0
2023-08-15 14:06:26.995977,-117.0
2023-08-15 14:06:27.003667,-148.0
2023-08-15 14:06:27.011357,-174.0
2023-08-15 14:06:27.019046,-179.0
2023-08-15 14:06:27.026736,-177.0
2023-08-15 14:06:27.034425,-177.0
2023-08-15 14:06:27.042115,-179.0
2023-08-15 14:06:27.049805,-182.0
2023-08-15 14:06:27.057494,-174.0
2023-08-15 14:06:27.065184,-162.0
2023-08-15 14:06:27.072873,-155.0
2023-08-15 14:06:27.080563,-153.0
2023-08-15 14:06:27.088252,-150.0
2023-08-15 14:06:27.095942,-146.0
2023-08-15 14:06:27.103632,-143.0
2023-08-15 14:06:27.111321,-136.0
2023-08-15 14:06:27.119011,-131.0
2023-08-15 14:06:27.126700,-136.0
2023-08-15 14:06:27.134390,-136.0
2023-08-15 14:06:27.142080,-134.0
2023-08-15 14:06:27.149769,-129.0
2023-08-15 14:06:27.157459,-127.0
2023-08-15 14:06:27.165148,-127.0
2023-08-15 14:06:27.172838,-127.0
2023-08-15 14:06:27.180527,-131.0
2023-08-15 14:06:27.188217,-131.0
2023-08-15 14:06:27.195907,-124.0
2023-08-15 14:06:27.203596,-119.0
2023-08-15 14:06:27.211286,-127.0
2023-08-15 14:06:27.218975,-131.0
2023-08-15 14:06:27.226665,-122.0
2023-08-15 14:06:27.234355,-100.0
2023-08-15 14:06:27.242044,-79.0
2023-08-15 14:06:27.249734,-62.0
2023-08-15 14:06:27.257423,-50.0
2023-08-15 14:06:27.265113,-47.0
2023-08-15 14:06:27.272802,-59.0
2023-08-15 14:06:27.280492,-76.0
2023-08-15 14:06:27.288182,-91.0
2023-08-15 14:06:27.295871,-105.0
2023-08-15 14:06:27.303561,-110.0
2023-08-15 14:06:27.311250,-105.0
2023-08-15 14:06:27.318940,-105.0
2023-08-15 14:06:27.326629,-105.0
2023-08-15 14:06:27.334319,-98.0
2023-08-15 14:06:27.342009,-93.0
2023-08-15 14:06:27.349698,-91.0
2023-08-15 14:06:27.357388,-83.0
2023-08-15 14:06:27.365077,-43.0
2023-08-15 14:06:27.372767,124.0
2023-08-15 14:06:27.380457,484.0
2023-08-15 14:06:27.388146,898.0
2023-08-15 14:06:27.395836,1047.0
2023-08-15 14:06:27.403525,496.0
2023-08-15 14:06:27.411215,-484.0
2023-08-15 14:06:27.418904,-726.0
2023-08-15 14:06:27.426594,-232.0
2023-08-15 14:06:27.434284,-74.0
2023-08-15 14:06:27.441973,-222.0
2023-08-15 14:06:27.449663,-172.0
2023-08-15 14:06:27.457352,-105.0
2023-08-15 14:06:27.465042,-146.0
2023-08-15 14:06:27.472732,-134.0
2023-08-15 14:06:27.480421,-93.0
2023-08-15 14:06:27.488111,-95.0
2023-08-15 14:06:27.495800,-93.0
2023-08-15 14:06:27.503490,-71.0
2023-08-15 14:06:27.511179,-57.0
2023-08-15 14:06:27.518869,-50.0
2023-08-15 14:06:27.526559,-33.0
2023-08-15 14:06:27.534248,-21.0
2023-08-15 14:06:27.541938,-11.0
2023-08-15 14:06:27.549627,2.0
2023-08-15 14:06:27.557317,26.0
2023-08-15 14:06:27.565007,45.0
2023-08-15 14:06:27.572696,62.0
2023-08-15 14:06:27.580386,79.0
2023-08-15 14:06:27.588075,95.0
2023-08-15 14:06:27.595765,110.0
2023-08-15 14:06:27.603454,119.0
2023-08-15 14:06:27.611144,117.0
2023-08-15 14:06:27.618834,107.0
2023-08-15 14:06:27.626523,91.0
2023-08-15 14:06:27.634213,71.0
2023-08-15 14:06:27.641902,57.0
2023-08-15 14:06:27.649592,40.0
2023-08-15 14:06:27.657282,16.0
2023-08-15 14:06:27.664971,-19.0
2023-08-15 14:06:27.672661,-67.0
2023-08-15 14:06:27.680350,-112.0
2023-08-15 14:06:27.688040,-141.0
2023-08-15 14:06:27.695729,-162.0
2023-08-15 14:06:27.703419,-182.0
2023-08-15 14:06:27.711109,-194.0
2023-08-15 14:06:27.718798,-196.0
2023-08-15 14:06:27.726488,-196.0
2023-08-15 14:06:27.734177,-191.0
2023-08-15 14:06:27.741867,-184.0
2023-08-15 14:06:27.749557,-177.0
2023-08-15 14:06:27.757246,-170.0
2023-08-15 14:06:27.764936,-165.0
2023-08-15 14:06:27.772625,-160.0
2023-08-15 14:06:27.780315,-155.0
2023-08-15 14:06:27.788004,-148.0
2023-08-15 14:06:27.795694,-148.0
2023-08-15 14:06:27.803384,-155.0
2023-08-15 14:06:27.811073,-158.0
2023-08-15 14:06:27.818763,-155.0
2023-08-15 14:06:27.826452,-150.0
2023-08-15 14:06:27.834142,-148.0
2023-08-15 14:06:27.841832,-148.0
2023-08-15 14:06:27.849521,-148.0
2023-08-15 14:06:27.857211,-148.0
2023-08-15 14:06:27.864900,-148.0
2023-08-15 14:06:27.872590,-146.0
2023-08-15 14:06:27.880279,-146.0
2023-08-15 14:06:27.887969,-146.0
2023-08-15 14:06:27.895659,-148.0
2023-08-15 14:06:27.903348,-153.0
2023-08-15 14:06:27.911038,-150.0
2023-08-15 14:06:27.918727,-131.0
2023-08-15 14:06:27.926417,-112.0
2023-08-15 14:06:27.934107,-95.0
2023-08-15 14:06:27.941796,-79.0
2023-08-15 14:06:27.949486,-76.0
2023-08-15 14:06:27.957175,-86.0
2023-08-15 14:06:27.964865,-103.0
2023-08-15 14:06:27.972554,-112.0
2023-08-15 14:06:27.980244,-122.0
2023-08-15 14:06:27.987934,-127.0
2023-08-15 14:06:27.995623,-127.0
2023-08-15 14:06:28.003313,-124.0
2023-08-15 14:06:28.011002,-119.0
2023-08-15 14:06:28.018692,-117.0
2023-08-15 14:06:28.026382,-115.0
2023-08-15 14:06:28.034071,-112.0
2023-08-15 14:06:28.041761,-103.0
2023-08-15 14:06:28.049450,-62.0
2023-08-15 14:06:28.057140,95.0
2023-08-15 14:06:28.064829,409.0
2023-08-15 14:06:28.072519,800.0
2023-08-15 14:06:28.080209,1016.0
2023-08-15 14:06:28.087898,515.0
2023-08-15 14:06:28.095588,-443.0
2023-08-15 14:06:28.103277,-644.0
2023-08-15 14:06:28.110967,-177.0
2023-08-15 14:06:28.118657,-100.0
2023-08-15 14:06:28.126346,-258.0
2023-08-15 14:06:28.134036,-184.0
2023-08-15 14:06:28.141725,-129.0
2023-08-15 14:06:28.149415,-177.0
2023-08-15 14:06:28.157104,-160.0
2023-08-15 14:06:28.164794,-122.0
2023-08-15 14:06:28.172484,-127.0
2023-08-15 14:06:28.180173,-119.0
2023-08-15 14:06:28.187863,-98.0
2023-08-15 14:06:28.195552,-86.0
2023-08-15 14:06:28.203242,-76.0
2023-08-15 14:06:28.210932,-64.0
2023-08-15 14:06:28.218621,-59.0
2023-08-15 14:06:28.226311,-45.0
2023-08-15 14:06:28.234000,-23.0
2023-08-15 14:06:28.241690,-2.0
2023-08-15 14:06:28.249379,19.0
2023-08-15 14:06:28.257069,40.0
2023-08-15 14:06:28.264759,59.0
2023-08-15 14:06:28.272448,79.0
2023-08-15 14:06:28.280138,93.0
2023-08-15 14:06:28.287827,103.0
2023-08-15 14:06:28.295517,107.0
2023-08-15 14:06:28.303207,100.0
2023-08-15 14:06:28.310896,83.0
2023-08-15 14:06:28.318586,62.0
2023-08-15 14:06:28.326275,45.0
2023-08-15 14:06:28.333965,23.0
2023-08-15 14:06:28.341654,-2.0
2023-08-15 14:06:28.349344,-38.0
2023-08-15 14:06:28.357034,-76.0
2023-08-15 14:06:28.364723,-112.0
2023-08-15 14:06:28.372413,-143.0
2023-08-15 14:06:28.380102,-170.0
2023-08-15 14:06:28.387792,-189.0
2023-08-15 14:06:28.395482,-201.0
2023-08-15 14:06:28.403171,-206.0
2023-08-15 14:06:28.410861,-206.0
2023-08-15 14:06:28.418550,-203.0
2023-08-15 14:06:28.426240,-194.0
2023-08-15 14:06:28.433929,-186.0
2023-08-15 14:06:28.441619,-179.0
2023-08-15 14:06:28.449309,-170.0
2023-08-15 14:06:28.456998,-162.0
2023-08-15 14:06:28.464688,-158.0
2023-08-15 14:06:28.472377,-150.0
2023-08-15 14:06:28.480067,-146.0
2023-08-15 14:06:28.487757,-143.0
2023-08-15 14:06:28.495446,-139.0
2023-08-15 14:06:28.503136,-136.0
2023-08-15 14:06:28.510825,-136.0
2023-08-15 14:06:28.518515,-136.0
2023-08-15 14:06:28.526204,-136.0
2023-08-15 14:06:28.533894,-136.0
2023-08-15 14:06:28.541584,-136.0
2023-08-15 14:06:28.549273,-134.0
2023-08-15 14:06:28.556963,-134.0
2023-08-15 14:06:28.564652,-131.0
2023-08-15 14:06:28.572342,-129.0
2023-08-15 14:06:28.580032,-129.0
2023-08-15 14:06:28.587721,-129.0
2023-08-15 14:06:28.595411,-127.0
2023-08-15 14:06:28.603100,-127.0
2023-08-15 14:06:28.610790,-129.0
2023-08-15 14:06:28.618479,-129.0
2023-08-15 14:06:28.626169,-115.0
2023-08-15 14:06:28.633859,-93.0
2023-08-15 14:06:28.641548,-76.0
2023-08-15 14:06:28.649238,-64.0
2023-08-15 14:06:28.656927,-57.0
2023-08-15 14:06:28.664617,-59.0
2023-08-15 14:06:28.672306,-76.0
2023-08-15 14:06:28.679996,-88.0
2023-08-15 14:06:28.687686,-95.0
2023-08-15 14:06:28.695375,-105.0
2023-08-15 14:06:28.703065,-107.0
2023-08-15 14:06:28.710754,-105.0
2023-08-15 14:06:28.718444,-103.0
2023-08-15 14:06:28.726134,-100.0
2023-08-15 14:06:28.733823,-98.0
2023-08-15 14:06:28.741513,-95.0
2023-08-15 14:06:28.749202,-95.0
2023-08-15 14:06:28.756892,-88.0
2023-08-15 14:06:28.764581,-16.0
2023-08-15 14:06:28.772271,194.0
2023-08-15 14:06:28.779961,524.0
2023-08-15 14:06:28.787650,881.0
2023-08-15 14:06:28.795340,869.0
2023-08-15 14:06:28.803029,74.0
2023-08-15 14:06:28.810719,-668.0
2023-08-15 14:06:28.818409,-445.0
2023-08-15 14:06:28.826098,-71.0
2023-08-15 14:06:28.833788,-191.0
2023-08-15 14:06:28.841477,-249.0
2023-08-15 14:06:28.849167,-141.0
2023-08-15 14:06:28.856856,-153.0
2023-08-15 14:06:28.864546,-179.0
2023-08-15 14:06:28.872236,-136.0
2023-08-15 14:06:28.879925,-117.0
2023-08-15 14:06:28.887615,-122.0
2023-08-15 14:06:28.895304,-105.0
2023-08-15 14:06:28.902994,-91.0
2023-08-15 14:06:28.910684,-81.0
2023-08-15 14:06:28.918373,-69.0
2023-08-15 14:06:28.926063,-52.0
2023-08-15 14:06:28.933752,-38.0
2023-08-15 14:06:28.941442,-21.0
2023-08-15 14:06:28.949131,-2.0
2023-08-15 14:06:28.956821,19.0
2023-08-15 14:06:28.964511,35.0
2023-08-15 14:06:28.972200,52.0
2023-08-15 14:06:28.979890,71.0
2023-08-15 14:06:28.987579,88.0
2023-08-15 14:06:28.995269,103.0
2023-08-15 14:06:29.002959,110.0
2023-08-15 14:06:29.010648,107.0
2023-08-15 14:06:29.018338,103.0
2023-08-15 14:06:29.026027,91.0
2023-08-15 14:06:29.033717,74.0
2023-08-15 14:06:29.041406,59.0
2023-08-15 14:06:29.049096,40.0
2023-08-15 14:06:29.056786,11.0
2023-08-15 14:06:29.064475,-26.0
2023-08-15 14:06:29.072165,-64.0
2023-08-15 14:06:29.079854,-95.0
2023-08-15 14:06:29.087544,-122.0
2023-08-15 14:06:29.095234,-146.0
2023-08-15 14:06:29.102923,-162.0
2023-08-15 14:06:29.110613,-174.0
2023-08-15 14:06:29.118302,-177.0
2023-08-15 14:06:29.125992,-170.0
2023-08-15 14:06:29.133681,-162.0
2023-08-15 14:06:29.141371,-158.0
2023-08-15 14:06:29.149061,-155.0
2023-08-15 14:06:29.156750,-150.0
2023-08-15 14:06:29.164440,-146.0
2023-08-15 14:06:29.172129,-141.0
2023-08-15 14:06:29.179819,-134.0
2023-08-15 14:06:29.187509,-127.0
2023-08-15 14:06:29.195198,-122.0
2023-08-15 14:06:29.202888,-122.0
2023-08-15 14:06:29.210577,-119.0
2023-08-15 14:06:29.218267,-117.0
2023-08-15 14:06:29.225956,-117.0
2023-08-15 14:06:29.233646,-117.0
2023-08-15 14:06:29.241336,-117.0
2023-08-15 14:06:29.249025,-117.0
2023-08-15 14:06:29.256715,-117.0
2023-08-15 14:06:29.264404,-112.0
2023-08-15 14:06:29.272094,-110.0
2023-08-15 14:06:29.279784,-110.0
2023-08-15 14:06:29.287473,-115.0
2023-08-15 14:06:29.295163,-124.0
2023-08-15 14:06:29.302852,-124.0
2023-08-15 14:06:29.310542,-119.0
2023-08-15 14:06:29.318231,-122.0
2023-08-15 14:06:29.325921,-131.0
2023-08-15 14:06:29.333611,-136.0
2023-08-15 14:06:29.341300,-134.0
2023-08-15 14:06:29.348990,-119.0
2023-08-15 14:06:29.356679,-93.0
2023-08-15 14:06:29.364369,-71.0
2023-08-15 14:06:29.372059,-59.0
2023-08-15 14:06:29.379748,-50.0
2023-08-15 14:06:29.387438,-57.0
2023-08-15 14:06:29.395127,-76.0
2023-08-15 14:06:29.402817,-91.0
2023-08-15 14:06:29.410506,-95.0
2023-08-15 14:06:29.418196,-100.0
2023-08-15 14:06:29.425886,-105.0
2023-08-15 14:06:29.433575,-105.0
2023-08-15 14:06:29.441265,-103.0
2023-08-15 14:06:29.448954,-98.0
2023-08-15 14:06:29.456644,-93.0
2023-08-15 14:06:29.464334,-88.0
2023-08-15 14:06:29.472023,-83.0
2023-08-15 14:06:29.479713,-74.0
2023-08-15 14:06:29.487402,0.0
2023-08-15 14:06:29.495092,220.0
2023-08-15 14:06:29.502781,563.0
2023-08-15 14:06:29.510471,927.0
2023-08-15 14:06:29.518161,915.0
2023-08-15 14:06:29.525850,119.0
2023-08-15 14:06:29.533540,-623.0
2023-08-15 14:06:29.541229,-409.0
2023-08-15 14:06:29.548919,-43.0
2023-08-15 14:06:29.556609,-155.0
2023-08-15 14:06:29.564298,-215.0
2023-08-15 14:06:29.571988,-115.0
2023-08-15 14:06:29.579677,-124.0
2023-08-15 14:06:29.587367,-150.0
2023-08-15 14:06:29.595056,-105.0
2023-08-15 14:06:29.602746,-91.0
2023-08-15 14:06:29.610436,-100.0
2023-08-15 14:06:29.618125,-81.0
2023-08-15 14:06:29.625815,-57.0
2023-08-15 14:06:29.633504,-52.0
2023-08-15 14:06:29.641194,-43.0
2023-08-15 14:06:29.648884,-26.0
2023-08-15 14:06:29.656573,-14.0
2023-08-15 14:06:29.664263,-2.0
2023-08-15 14:06:29.671952,16.0
2023-08-15 14:06:29.679642,38.0
2023-08-15 14:06:29.687331,55.0
2023-08-15 14:06:29.695021,74.0
2023-08-15 14:06:29.702711,95.0
2023-08-15 14:06:29.710400,110.0
2023-08-15 14:06:29.718090,119.0
2023-08-15 14:06:29.725779,129.0
2023-08-15 14:06:29.733469,131.0
2023-08-15 14:06:29.741159,124.0
2023-08-15 14:06:29.748848,107.0
2023-08-15 14:06:29.756538,88.0
2023-08-15 14:06:29.764227,74.0
2023-08-15 14:06:29.771917,59.0
2023-08-15 14:06:29.779606,28.0
2023-08-15 14:06:29.787296,-11.0
2023-08-15 14:06:29.794986,-50.0
2023-08-15 14:06:29.802675,-86.0
2023-08-15 14:06:29.810365,-112.0
2023-08-15 14:06:29.818054,-143.0
2023-08-15 14:06:29.825744,-170.0
2023-08-15 14:06:29.833434,-174.0
2023-08-15 14:06:29.841123,-170.0
2023-08-15 14:06:29.848813,-170.0
2023-08-15 14:06:29.856502,-170.0
2023-08-15 14:06:29.864192,-158.0
2023-08-15 14:06:29.871881,-150.0
2023-08-15 14:06:29.879571,-146.0
2023-08-15 14:06:29.887261,-146.0
2023-08-15 14:06:29.894950,-143.0
2023-08-15 14:06:29.902640,-131.0
2023-08-15 14:06:29.910329,-127.0
2023-08-15 14:06:29.918019,-131.0
2023-08-15 14:06:29.925709,-139.0
2023-08-15 14:06:29.933398,-139.0
2023-08-15 14:06:29.941088,-134.0
2023-08-15 14:06:29.948777,-129.0
2023-08-15 14:06:29.956467,-127.0
2023-08-15 14:06:29.964156,-131.0
2023-08-15 14:06:29.971846,-139.0
2023-08-15 14:06:29.979536,-134.0
2023-08-15 14:06:29.987225,-127.0
2023-08-15 14:06:29.994915,-129.0
2023-08-15 14:06:30.002604,-131.0
2023-08-15 14:06:30.010294,-127.0
2023-08-15 14:06:30.017984,-122.0
2023-08-15 14:06:30.025673,-122.0
2023-08-15 14:06:30.033363,-117.0
2023-08-15 14:06:30.041052,-115.0
2023-08-15 14:06:30.048742,-115.0
2023-08-15 14:06:30.056431,-117.0
2023-08-15 14:06:30.064121,-110.0
2023-08-15 14:06:30.071811,-88.0
2023-08-15 14:06:30.079500,-67.0
2023-08-15 14:06:30.087190,-52.0
2023-08-15 14:06:30.094879,-43.0
2023-08-15 14:06:30.102569,-38.0
2023-08-15 14:06:30.110258,-47.0
2023-08-15 14:06:30.117948,-67.0
2023-08-15 14:06:30.125638,-76.0
2023-08-15 14:06:30.133327,-88.0
2023-08-15 14:06:30.141017,-95.0
2023-08-15 14:06:30.148706,-93.0
2023-08-15 14:06:30.156396,-88.0
2023-08-15 14:06:30.164086,-86.0
2023-08-15 14:06:30.171775,-83.0
2023-08-15 14:06:30.179465,-81.0
2023-08-15 14:06:30.187154,-79.0
2023-08-15 14:06:30.194844,-71.0
2023-08-15 14:06:30.202533,-38.0
2023-08-15 14:06:30.210223,110.0
2023-08-15 14:06:30.217913,450.0
2023-08-15 14:06:30.225602,869.0
2023-08-15 14:06:30.233292,1076.0
2023-08-15 14:06:30.240981,584.0
2023-08-15 14:06:30.248671,-428.0
2023-08-15 14:06:30.256361,-742.0
2023-08-15 14:06:30.264050,-232.0
2023-08-15 14:06:30.271740,-45.0
2023-08-15 14:06:30.279429,-213.0
2023-08-15 14:06:30.287119,-167.0
2023-08-15 14:06:30.294808,-88.0
2023-08-15 14:06:30.302498,-131.0
2023-08-15 14:06:30.310188,-127.0
2023-08-15 14:06:30.317877,-81.0
2023-08-15 14:06:30.325567,-81.0
2023-08-15 14:06:30.333256,-83.0
2023-08-15 14:06:30.340946,-62.0
2023-08-15 14:06:30.348636,-50.0
2023-08-15 14:06:30.356325,-43.0
2023-08-15 14:06:30.364015,-23.0
2023-08-15 14:06:30.371704,-11.0
2023-08-15 14:06:30.379394,-2.0
2023-08-15 14:06:30.387083,14.0
2023-08-15 14:06:30.394773,33.0
2023-08-15 14:06:30.402463,55.0
2023-08-15 14:06:30.410152,74.0
2023-08-15 14:06:30.417842,88.0
2023-08-15 14:06:30.425531,100.0
2023-08-15 14:06:30.433221,119.0
2023-08-15 14:06:30.440911,129.0
2023-08-15 14:06:30.448600,129.0
2023-08-15 14:06:30.456290,119.0
2023-08-15 14:06:30.463979,105.0
2023-08-15 14:06:30.471669,83.0
2023-08-15 14:06:30.479358,67.0
2023-08-15 14:06:30.487048,45.0
2023-08-15 14:06:30.494738,16.0
2023-08-15 14:06:30.502427,-16.0
2023-08-15 14:06:30.510117,-55.0
2023-08-15 14:06:30.517806,-91.0
2023-08-15 14:06:30.525496,-122.0
2023-08-15 14:06:30.533186,-150.0
2023-08-15 14:06:30.540875,-174.0
2023-08-15 14:06:30.548565,-189.0
2023-08-15 14:06:30.556254,-191.0
2023-08-15 14:06:30.563944,-189.0
2023-08-15 14:06:30.571633,-186.0
2023-08-15 14:06:30.579323,-179.0
2023-08-15 14:06:30.587013,-172.0
2023-08-15 14:06:30.594702,-167.0
2023-08-15 14:06:30.602392,-162.0
2023-08-15 14:06:30.610081,-153.0
2023-08-15 14:06:30.617771,-146.0
2023-08-15 14:06:30.625461,-146.0
2023-08-15 14:06:30.633150,-146.0
2023-08-15 14:06:30.640840,-139.0
2023-08-15 14:06:30.648529,-131.0
2023-08-15 14:06:30.656219,-131.0
2023-08-15 14:06:30.663908,-131.0
2023-08-15 14:06:30.671598,-131.0
2023-08-15 14:06:30.679288,-131.0
2023-08-15 14:06:30.686977,-131.0
2023-08-15 14:06:30.694667,-131.0
2023-08-15 14:06:30.702356,-129.0
2023-08-15 14:06:30.710046,-129.0
2023-08-15 14:06:30.717736,-129.0
2023-08-15 14:06:30.725425,-127.0
2023-08-15 14:06:30.733115,-124.0
2023-08-15 14:06:30.740804,-124.0
2023-08-15 14:06:30.748494,-119.0
2023-08-15 14:06:30.756183,-115.0
2023-08-15 14:06:30.763873,-117.0
2023-08-15 14:06:30.771563,-115.0
2023-08-15 14:06:30.779252,-112.0
2023-08-15 14:06:30.786942,-112.0
2023-08-15 14:06:30.794631,-112.0
2023-08-15 14:06:30.802321,-110.0
2023-08-15 14:06:30.810011,-112.0
2023-08-15 14:06:30.817700,-117.0
2023-08-15 14:06:30.825390,-107.0
2023-08-15 14:06:30.833079,-88.0
2023-08-15 14:06:30.840769,-76.0
2023-08-15 14:06:30.848458,-64.0
2023-08-15 14:06:30.856148,-43.0
2023-08-15 14:06:30.863838,-45.0
2023-08-15 14:06:30.871527,-64.0
2023-08-15 14:06:30.879217,-79.0
2023-08-15 14:06:30.886906,-83.0
2023-08-15 14:06:30.894596,-93.0
2023-08-15 14:06:30.902286,-98.0
2023-08-15 14:06:30.909975,-95.0
2023-08-15 14:06:30.917665,-95.0
2023-08-15 14:06:30.925354,-93.0
2023-08-15 14:06:30.933044,-88.0
2023-08-15 14:06:30.940733,-86.0
2023-08-15 14:06:30.948423,-81.0
2023-08-15 14:06:30.956113,-67.0
2023-08-15 14:06:30.963802,2.0
2023-08-15 14:06:30.971492,203.0
2023-08-15 14:06:30.979181,534.0
2023-08-15 14:06:30.986871,934.0
2023-08-15 14:06:30.994561,1001.0
2023-08-15 14:06:31.002250,218.0
2023-08-15 14:06:31.009940,-615.0
2023-08-15 14:06:31.017629,-445.0
2023-08-15 14:06:31.025319,-55.0
2023-08-15 14:06:31.033008,-174.0
2023-08-15 14:06:31.040698,-249.0
2023-08-15 14:06:31.048388,-136.0
2023-08-15 14:06:31.056077,-146.0
2023-08-15 14:06:31.063767,-174.0
2023-08-15 14:06:31.071456,-129.0
2023-08-15 14:06:31.079146,-107.0
2023-08-15 14:06:31.086836,-117.0
2023-08-15 14:06:31.094525,-100.0
2023-08-15 14:06:31.102215,-81.0
2023-08-15 14:06:31.109904,-71.0
2023-08-15 14:06:31.117594,-62.0
2023-08-15 14:06:31.125283,-47.0
2023-08-15 14:06:31.132973,-35.0
2023-08-15 14:06:31.140663,-23.0
2023-08-15 14:06:31.148352,-7.0
2023-08-15 14:06:31.156042,7.0
2023-08-15 14:06:31.163731,26.0
2023-08-15 14:06:31.171421,47.0
2023-08-15 14:06:31.179111,64.0
2023-08-15 14:06:31.186800,79.0
2023-08-15 14:06:31.194490,95.0
2023-08-15 14:06:31.202179,105.0
2023-08-15 14:06:31.209869,107.0
2023-08-15 14:06:31.217558,107.0
2023-08-15 14:06:31.225248,95.0
2023-08-15 14:06:31.232938,79.0
2023-08-15 14:06:31.240627,64.0
2023-08-15 14:06:31.248317,47.0
2023-08-15 14:06:31.256006,23.0
2023-08-15 14:06:31.263696,-9.0
2023-08-15 14:06:31.271386,-52.0
2023-08-15 14:06:31.279075,-88.0
2023-08-15 14:06:31.286765,-117.0
2023-08-15 14:06:31.294454,-139.0
2023-08-15 14:06:31.302144,-158.0
2023-08-15 14:06:31.309833,-167.0
2023-08-15 14:06:31.317523,-172.0
2023-08-15 14:06:31.325213,-172.0
2023-08-15 14:06:31.332902,-170.0
2023-08-15 14:06:31.340592,-170.0
2023-08-15 14:06:31.348281,-165.0
2023-08-15 14:06:31.355971,-158.0
2023-08-15 14:06:31.363661,-153.0
2023-08-15 14:06:31.371350,-150.0
2023-08-15 14:06:31.379040,-143.0
2023-08-15 14:06:31.386729,-136.0
2023-08-15 14:06:31.394419,-131.0
2023-08-15 14:06:31.402108,-127.0
2023-08-15 14:06:31.409798,-127.0
2023-08-15 14:06:31.417488,-124.0
2023-08-15 14:06:31.425177,-122.0
2023-08-15 14:06:31.432867,-119.0
2023-08-15 14:06:31.440556,-119.0
2023-08-15 14:06:31.448246,-119.0
2023-08-15 14:06:31.455935,-122.0
2023-08-15 14:06:31.463625,-122.0
2023-08-15 14:06:31.471315,-122.0
2023-08-15 14:06:31.479004,-117.0
2023-08-15 14:06:31.486694,-117.0
2023-08-15 14:06:31.494383,-115.0
2023-08-15 14:06:31.502073,-115.0
2023-08-15 14:06:31.509763,-115.0
2023-08-15 14:06:31.517452,-112.0
2023-08-15 14:06:31.525142,-105.0
2023-08-15 14:06:31.532831,-105.0
2023-08-15 14:06:31.540521,-107.0
2023-08-15 14:06:31.548210,-105.0
2023-08-15 14:06:31.555900,-103.0
2023-08-15 14:06:31.563590,-100.0
2023-08-15 14:06:31.571279,-100.0
2023-08-15 14:06:31.578969,-100.0
2023-08-15 14:06:31.586658,-103.0
2023-08-15 14:06:31.594348,-112.0
2023-08-15 14:06:31.602038,-117.0
2023-08-15 14:06:31.609727,-107.0
2023-08-15 14:06:31.617417,-88.0
2023-08-15 14:06:31.625106,-69.0
2023-08-15 14:06:31.632796,-52.0
2023-08-15 14:06:31.640485,-40.0
2023-08-15 14:06:31.648175,-43.0
2023-08-15 14:06:31.655865,-57.0
2023-08-15 14:06:31.663554,-74.0
2023-08-15 14:06:31.671244,-86.0
2023-08-15 14:06:31.678933,-95.0
2023-08-15 14:06:31.686623,-105.0
2023-08-15 14:06:31.694313,-107.0
2023-08-15 14:06:31.702002,-105.0
2023-08-15 14:06:31.709692,-100.0
2023-08-15 14:06:31.717381,-98.0
2023-08-15 14:06:31.725071,-98.0
2023-08-15 14:06:31.732760,-95.0
2023-08-15 14:06:31.740450,-83.0
2023-08-15 14:06:31.748140,-40.0
2023-08-15 14:06:31.755829,112.0
2023-08-15 14:06:31.763519,402.0
2023-08-15 14:06:31.771208,774.0
2023-08-15 14:06:31.778898,975.0
2023-08-15 14:06:31.786588,455.0
2023-08-15 14:06:31.794277,-462.0
2023-08-15 14:06:31.801967,-579.0
2023-08-15 14:06:31.809656,-122.0
2023-08-15 14:06:31.817346,-98.0
2023-08-15 14:06:31.825035,-246.0
2023-08-15 14:06:31.832725,-160.0
2023-08-15 14:06:31.840415,-122.0
2023-08-15 14:06:31.848104,-177.0
2023-08-15 14:06:31.855794,-160.0
2023-08-15 14:06:31.863483,-124.0
2023-08-15 14:06:31.871173,-124.0
2023-08-15 14:06:31.878863,-115.0
2023-08-15 14:06:31.886552,-93.0
2023-08-15 14:06:31.894242,-83.0
2023-08-15 14:06:31.901931,-76.0
2023-08-15 14:06:31.909621,-59.0
2023-08-15 14:06:31.917310,-45.0
2023-08-15 14:06:31.925000,-33.0
2023-08-15 14:06:31.932690,-14.0
2023-08-15 14:06:31.940379,4.0
2023-08-15 14:06:31.948069,21.0
2023-08-15 14:06:31.955758,38.0
2023-08-15 14:06:31.963448,62.0
2023-08-15 14:06:31.971138,79.0
2023-08-15 14:06:31.978827,91.0
2023-08-15 14:06:31.986517,103.0
2023-08-15 14:06:31.994206,107.0
2023-08-15 14:06:32.001896,103.0
2023-08-15 14:06:32.009585,98.0
2023-08-15 14:06:32.017275,86.0
2023-08-15 14:06:32.024965,69.0
2023-08-15 14:06:32.032654,55.0
2023-08-15 14:06:32.040344,33.0
2023-08-15 14:06:32.048033,4.0
2023-08-15 14:06:32.055723,-33.0
2023-08-15 14:06:32.063413,-74.0
2023-08-15 14:06:32.071102,-103.0
2023-08-15 14:06:32.078792,-129.0
2023-08-15 14:06:32.086481,-153.0
2023-08-15 14:06:32.094171,-167.0
2023-08-15 14:06:32.101860,-174.0
2023-08-15 14:06:32.109550,-177.0
2023-08-15 14:06:32.117240,-174.0
2023-08-15 14:06:32.124929,-172.0
2023-08-15 14:06:32.132619,-177.0
2023-08-15 14:06:32.140308,-170.0
2023-08-15 14:06:32.147998,-160.0
2023-08-15 14:06:32.155688,-153.0
2023-08-15 14:06:32.163377,-148.0
2023-08-15 14:06:32.171067,-143.0
2023-08-15 14:06:32.178756,-141.0
2023-08-15 14:06:32.186446,-134.0
2023-08-15 14:06:32.194135,-129.0
2023-08-15 14:06:32.201825,-129.0
2023-08-15 14:06:32.209515,-127.0
2023-08-15 14:06:32.217204,-127.0
2023-08-15 14:06:32.224894,-127.0
2023-08-15 14:06:32.232583,-127.0
2023-08-15 14:06:32.240273,-124.0
2023-08-15 14:06:32.247963,-127.0
2023-08-15 14:06:32.255652,-127.0
2023-08-15 14:06:32.263342,-124.0
2023-08-15 14:06:32.271031,-124.0
2023-08-15 14:06:32.278721,-122.0
2023-08-15 14:06:32.286410,-119.0
2023-08-15 14:06:32.294100,-119.0
2023-08-15 14:06:32.301790,-117.0
2023-08-15 14:06:32.309479,-115.0
2023-08-15 14:06:32.317169,-112.0
2023-08-15 14:06:32.324858,-110.0
2023-08-15 14:06:32.332548,-107.0
2023-08-15 14:06:32.340238,-107.0
2023-08-15 14:06:32.347927,-107.0
2023-08-15 14:06:32.355617,-110.0
2023-08-15 14:06:32.363306,-112.0
2023-08-15 14:06:32.370996,-112.0
2023-08-15 14:06:32.378685,-112.0
2023-08-15 14:06:32.386375,-112.0
2023-08-15 14:06:32.394065,-115.0
2023-08-15 14:06:32.401754,-110.0
2023-08-15 14:06:32.409444,-91.0
2023-08-15 14:06:32.417133,-69.0
2023-08-15 14:06:32.424823,-55.0
2023-08-15 14:06:32.432513,-40.0
2023-08-15 14:06:32.440202,-38.0
2023-08-15 14:06:32.447892,-55.0
2023-08-15 14:06:32.455581,-71.0
2023-08-15 14:06:32.463271,-79.0
2023-08-15 14:06:32.470960,-93.0
2023-08-15 14:06:32.478650,-103.0
2023-08-15 14:06:32.486340,-100.0
2023-08-15 14:06:32.494029,-98.0
2023-08-15 14:06:32.501719,-98.0
2023-08-15 14:06:32.509408,-95.0
2023-08-15 14:06:32.517098,-93.0
2023-08-15 14:06:32.524788,-93.0
2023-08-15 14:06:32.532477,-93.0
2023-08-15 14:06:32.540167,-71.0
2023-08-15 14:06:32.547856,31.0
2023-08-15 14:06:32.555546,285.0
2023-08-15 14:06:32.563235,644.0
2023-08-15 14:06:32.570925,941.0
2023-08-15 14:06:32.578615,690.0
2023-08-15 14:06:32.586304,-210.0
2023-08-15 14:06:32.593994,-666.0
2023-08-15 14:06:32.601683,-270.0
2023-08-15 14:06:32.609373,-62.0
2023-08-15 14:06:32.617063,-230.0
2023-08-15 14:06:32.624752,-213.0
2023-08-15 14:06:32.632442,-124.0
2023-08-15 14:06:32.640131,-160.0
2023-08-15 14:06:32.647821,-162.0
2023-08-15 14:06:32.655510,-117.0
2023-08-15 14:06:32.663200,-117.0
2023-08-15 14:06:32.670890,-127.0
2023-08-15 14:06:32.678579,-107.0
2023-08-15 14:06:32.686269,-88.0
2023-08-15 14:06:32.693958,-81.0
2023-08-15 14:06:32.701648,-67.0
2023-08-15 14:06:32.709338,-52.0
2023-08-15 14:06:32.717027,-38.0
2023-08-15 14:06:32.724717,-23.0
2023-08-15 14:06:32.732406,-4.0
2023-08-15 14:06:32.740096,16.0
2023-08-15 14:06:32.747785,35.0
2023-08-15 14:06:32.755475,52.0
2023-08-15 14:06:32.763165,69.0
2023-08-15 14:06:32.770854,86.0
2023-08-15 14:06:32.778544,100.0
2023-08-15 14:06:32.786233,107.0
2023-08-15 14:06:32.793923,107.0
2023-08-15 14:06:32.801612,103.0
2023-08-15 14:06:32.809302,91.0
2023-08-15 14:06:32.816992,76.0
2023-08-15 14:06:32.824681,62.0
2023-08-15 14:06:32.832371,43.0
2023-08-15 14:06:32.840060,11.0
2023-08-15 14:06:32.847750,-28.0
2023-08-15 14:06:32.855440,-67.0
2023-08-15 14:06:32.863129,-100.0
2023-08-15 14:06:32.870819,-127.0
2023-08-15 14:06:32.878508,-150.0
2023-08-15 14:06:32.886198,-167.0
2023-08-15 14:06:32.893887,-179.0
2023-08-15 14:06:32.901577,-179.0
2023-08-15 14:06:32.909267,-172.0
2023-08-15 14:06:32.916956,-165.0
2023-08-15 14:06:32.924646,-160.0
2023-08-15 14:06:32.932335,-155.0
2023-08-15 14:06:32.940025,-148.0
2023-08-15 14:06:32.947715,-141.0
2023-08-15 14:06:32.955404,-136.0
2023-08-15 14:06:32.963094,-131.0
2023-08-15 14:06:32.970783,-124.0
2023-08-15 14:06:32.978473,-122.0
2023-08-15 14:06:32.986162,-122.0
2023-08-15 14:06:32.993852,-119.0
2023-08-15 14:06:33.001542,-117.0
2023-08-15 14:06:33.009231,-115.0
2023-08-15 14:06:33.016921,-112.0
2023-08-15 14:06:33.024610,-115.0
2023-08-15 14:06:33.032300,-117.0
2023-08-15 14:06:33.039990,-115.0
2023-08-15 14:06:33.047679,-112.0
2023-08-15 14:06:33.055369,-110.0
2023-08-15 14:06:33.063058,-110.0
2023-08-15 14:06:33.070748,-110.0
2023-08-15 14:06:33.078437,-115.0
2023-08-15 14:06:33.086127,-119.0
2023-08-15 14:06:33.093817,-115.0
2023-08-15 14:06:33.101506,-112.0
2023-08-15 14:06:33.109196,-112.0
2023-08-15 14:06:33.116885,-112.0
2023-08-15 14:06:33.124575,-115.0
2023-08-15 14:06:33.132265,-115.0
2023-08-15 14:06:33.139954,-112.0
2023-08-15 14:06:33.147644,-110.0
2023-08-15 14:06:33.155333,-110.0
2023-08-15 14:06:33.163023,-107.0
2023-08-15 14:06:33.170712,-91.0
2023-08-15 14:06:33.178402,-69.0
2023-08-15 14:06:33.186092,-52.0
2023-08-15 14:06:33.193781,-40.0
2023-08-15 14:06:33.201471,-35.0
2023-08-15 14:06:33.209160,-50.0
2023-08-15 14:06:33.216850,-71.0
2023-08-15 14:06:33.224540,-81.0
2023-08-15 14:06:33.232229,-81.0
2023-08-15 14:06:33.239919,-91.0
2023-08-15 14:06:33.247608,-98.0
2023-08-15 14:06:33.255298,-105.0
2023-08-15 14:06:33.262987,-107.0
2023-08-15 14:06:33.270677,-107.0
2023-08-15 14:06:33.278367,-107.0
2023-08-15 14:06:33.286056,-100.0
2023-08-15 14:06:33.293746,-91.0
2023-08-15 14:06:33.301435,-57.0
2023-08-15 14:06:33.309125,95.0
2023-08-15 14:06:33.316815,414.0
2023-08-15 14:06:33.324504,786.0
2023-08-15 14:06:33.332194,939.0
2023-08-15 14:06:33.339883,421.0
2023-08-15 14:06:33.347573,-488.0
2023-08-15 14:06:33.355262,-659.0
2023-08-15 14:06:33.362952,-189.0
2023-08-15 14:06:33.370642,-93.0
2023-08-15 14:06:33.378331,-239.0
2023-08-15 14:06:33.386021,-167.0
2023-08-15 14:06:33.393710,-112.0
2023-08-15 14:06:33.401400,-162.0
2023-08-15 14:06:33.409090,-141.0
2023-08-15 14:06:33.416779,-95.0
2023-08-15 14:06:33.424469,-98.0
2023-08-15 14:06:33.432158,-91.0
2023-08-15 14:06:33.439848,-69.0
2023-08-15 14:06:33.447537,-57.0
2023-08-15 14:06:33.455227,-45.0
2023-08-15 14:06:33.462917,-26.0
2023-08-15 14:06:33.470606,-16.0
2023-08-15 14:06:33.478296,-7.0
2023-08-15 14:06:33.485985,11.0
2023-08-15 14:06:33.493675,28.0
2023-08-15 14:06:33.501365,47.0
2023-08-15 14:06:33.509054,71.0
2023-08-15 14:06:33.516744,93.0
2023-08-15 14:06:33.524433,110.0
2023-08-15 14:06:33.532123,127.0
2023-08-15 14:06:33.539812,136.0
2023-08-15 14:06:33.547502,143.0
2023-08-15 14:06:33.555192,141.0
2023-08-15 14:06:33.562881,131.0
2023-08-15 14:06:33.570571,117.0
2023-08-15 14:06:33.578260,98.0
2023-08-15 14:06:33.585950,76.0
2023-08-15 14:06:33.593640,52.0
2023-08-15 14:06:33.601329,23.0
2023-08-15 14:06:33.609019,-11.0
2023-08-15 14:06:33.616708,-50.0
2023-08-15 14:06:33.624398,-88.0
2023-08-15 14:06:33.632087,-117.0
2023-08-15 14:06:33.639777,-134.0
2023-08-15 14:06:33.647467,-146.0
2023-08-15 14:06:33.655156,-155.0
2023-08-15 14:06:33.662846,-153.0
2023-08-15 14:06:33.670535,-150.0
2023-08-15 14:06:33.678225,-146.0
2023-08-15 14:06:33.685915,-136.0
2023-08-15 14:06:33.693604,-129.0
2023-08-15 14:06:33.701294,-127.0
2023-08-15 14:06:33.708983,-119.0
2023-08-15 14:06:33.716673,-115.0
2023-08-15 14:06:33.724362,-112.0
2023-08-15 14:06:33.732052,-107.0
2023-08-15 14:06:33.739742,-103.0
2023-08-15 14:06:33.747431,-103.0
2023-08-15 14:06:33.755121,-103.0
2023-08-15 14:06:33.762810,-100.0
2023-08-15 14:06:33.770500,-100.0
2023-08-15 14:06:33.778190,-100.0
2023-08-15 14:06:33.785879,-100.0
2023-08-15 14:06:33.793569,-107.0
2023-08-15 14:06:33.801258,-112.0
2023-08-15 14:06:33.808948,-110.0
2023-08-15 14:06:33.816637,-110.0
2023-08-15 14:06:33.824327,-117.0
2023-08-15 14:06:33.832017,-117.0
2023-08-15 14:06:33.839706,-122.0
2023-08-15 14:06:33.847396,-127.0
2023-08-15 14:06:33.855085,-127.0
2023-08-15 14:06:33.862775,-129.0
2023-08-15 14:06:33.870465,-131.0
2023-08-15 14:06:33.878154,-134.0
2023-08-15 14:06:33.885844,-129.0
2023-08-15 14:06:33.893533,-115.0
2023-08-15 14:06:33.901223,-93.0
2023-08-15 14:06:33.908912,-79.0
2023-08-15 14:06:33.916602,-64.0
2023-08-15 14:06:33.924292,-52.0
2023-08-15 14:06:33.931981,-55.0
2023-08-15 14:06:33.939671,-69.0
2023-08-15 14:06:33.947360,-86.0
2023-08-15 14:06:33.955050,-95.0
2023-08-15 14:06:33.962740,-103.0
2023-08-15 14:06:33.970429,-105.0
2023-08-15 14:06:33.978119,-107.0
2023-08-15 14:06:33.985808,-105.0
2023-08-15 14:06:33.993498,-105.0
2023-08-15 14:06:34.001187,-107.0
2023-08-15 14:06:34.008877,-105.0
2023-08-15 14:06:34.016567,-98.0
2023-08-15 14:06:34.024256,-83.0
2023-08-15 14:06:34.031946,-2.0
2023-08-15 14:06:34.039635,256.0
2023-08-15 14:06:34.047325,661.0
2023-08-15 14:06:34.055015,1011.0
2023-08-15 14:06:34.062704,874.0
2023-08-15 14:06:34.070394,-33.0
2023-08-15 14:06:34.078083,-769.0
2023-08-15 14:06:34.085773,-474.0
2023-08-15 14:06:34.093462,-71.0
2023-08-15 14:06:34.101152,-184.0
2023-08-15 14:06:34.108842,-234.0
2023-08-15 14:06:34.116531,-124.0
2023-08-15 14:06:34.124221,-131.0
2023-08-15 14:06:34.131910,-158.0
2023-08-15 14:06:34.139600,-115.0
2023-08-15 14:06:34.147290,-98.0
2023-08-15 14:06:34.154979,-103.0
2023-08-15 14:06:34.162669,-83.0
2023-08-15 14:06:34.170358,-64.0
2023-08-15 14:06:34.178048,-59.0
2023-08-15 14:06:34.185737,-47.0
2023-08-15 14:06:34.193427,-31.0
2023-08-15 14:06:34.201117,-19.0
2023-08-15 14:06:34.208806,-4.0
2023-08-15 14:06:34.216496,14.0
2023-08-15 14:06:34.224185,33.0
2023-08-15 14:06:34.231875,55.0
2023-08-15 14:06:34.239564,76.0
2023-08-15 14:06:34.247254,95.0
2023-08-15 14:06:34.254944,115.0
2023-08-15 14:06:34.262633,129.0
2023-08-15 14:06:34.270323,139.0
2023-08-15 14:06:34.278012,136.0
2023-08-15 14:06:34.285702,127.0
2023-08-15 14:06:34.293392,112.0
2023-08-15 14:06:34.301081,95.0
2023-08-15 14:06:34.308771,76.0
2023-08-15 14:06:34.316460,47.0
2023-08-15 14:06:34.324150,11.0
2023-08-15 14:06:34.331839,-26.0
2023-08-15 14:06:34.339529,-64.0
2023-08-15 14:06:34.347219,-100.0
2023-08-15 14:06:34.354908,-131.0
2023-08-15 14:06:34.362598,-162.0
2023-08-15 14:06:34.370287,-191.0
2023-08-15 14:06:34.377977,-203.0
2023-08-15 14:06:34.385667,-208.0
2023-08-15 14:06:34.393356,-203.0
2023-08-15 14:06:34.401046,-194.0
2023-08-15 14:06:34.408735,-186.0
2023-08-15 14:06:34.416425,-179.0
2023-08-15 14:06:34.424114,-172.0
2023-08-15 14:06:34.431804,-162.0
2023-08-15 14:06:34.439494,-153.0
2023-08-15 14:06:34.447183,-146.0
2023-08-15 14:06:34.454873,-141.0
2023-08-15 14:06:34.462562,-136.0
2023-08-15 14:06:34.470252,-134.0
2023-08-15 14:06:34.477942,-131.0
2023-08-15 14:06:34.485631,-129.0
2023-08-15 14:06:34.493321,-127.0
2023-08-15 14:06:34.501010,-127.0
2023-08-15 14:06:34.508700,-127.0
2023-08-15 14:06:34.516389,-127.0
2023-08-15 14:06:34.524079,-127.0
2023-08-15 14:06:34.531769,-127.0
2023-08-15 14:06:34.539458,-124.0
2023-08-15 14:06:34.547148,-122.0
2023-08-15 14:06:34.554837,-122.0
2023-08-15 14:06:34.562527,-124.0
2023-08-15 14:06:34.570217,-124.0
2023-08-15 14:06:34.577906,-124.0
2023-08-15 14:06:34.585596,-122.0
2023-08-15 14:06:34.593285,-122.0
2023-08-15 14:06:34.600975,-122.0
2023-08-15 14:06:34.608664,-122.0
2023-08-15 14:06:34.616354,-119.0
2023-08-15 14:06:34.624044,-117.0
2023-08-15 14:06:34.631733,-119.0
2023-08-15 14:06:34.639423,-124.0
2023-08-15 14:06:34.647112,-122.0
2023-08-15 14:06:34.654802,-105.0
2023-08-15 14:06:34.662492,-83.0
2023-08-15 14:06:34.670181,-67.0
2023-08-15 14:06:34.677871,-50.0
2023-08-15 14:06:34.685560,-43.0
2023-08-15 14:06:34.693250,-57.0
2023-08-15 14:06:34.700939,-74.0
2023-08-15 14:06:34.708629,-83.0
2023-08-15 14:06:34.716319,-91.0
2023-08-15 14:06:34.724008,-100.0
2023-08-15 14:06:34.731698,-105.0
2023-08-15 14:06:34.739387,-105.0
2023-08-15 14:06:34.747077,-105.0
2023-08-15 14:06:34.754767,-105.0
2023-08-15 14:06:34.762456,-105.0
2023-08-15 14:06:34.770146,-100.0
2023-08-15 14:06:34.777835,-88.0
2023-08-15 14:06:34.785525,-43.0
2023-08-15 14:06:34.793214,105.0
2023-08-15 14:06:34.800904,383.0
2023-08-15 14:06:34.808594,752.0
2023-08-15 14:06:34.816283,999.0
2023-08-15 14:06:34.823973,534.0
2023-08-15 14:06:34.831662,-414.0
2023-08-15 14:06:34.839352,-606.0
2023-08-15 14:06:34.847042,-148.0
2023-08-15 14:06:34.854731,-103.0
2023-08-15 14:06:34.862421,-263.0
2023-08-15 14:06:34.870110,-186.0
2023-08-15 14:06:34.877800,-141.0
2023-08-15 14:06:34.885489,-186.0
2023-08-15 14:06:34.893179,-160.0
2023-08-15 14:06:34.900869,-122.0
2023-08-15 14:06:34.908558,-124.0
2023-08-15 14:06:34.916248,-115.0
2023-08-15 14:06:34.923937,-95.0
2023-08-15 14:06:34.931627,-86.0
2023-08-15 14:06:34.939317,-76.0
2023-08-15 14:06:34.947006,-57.0
2023-08-15 14:06:34.954696,-43.0
2023-08-15 14:06:34.962385,-38.0
2023-08-15 14:06:34.970075,-28.0
2023-08-15 14:06:34.977764,-9.0
2023-08-15 14:06:34.985454,14.0
2023-08-15 14:06:34.993144,35.0
2023-08-15 14:06:35.000833,57.0
2023-08-15 14:06:35.008523,74.0
2023-08-15 14:06:35.016212,88.0
2023-08-15 14:06:35.023902,103.0
2023-08-15 14:06:35.031592,112.0
2023-08-15 14:06:35.039281,110.0
2023-08-15 14:06:35.046971,105.0
2023-08-15 14:06:35.054660,91.0
2023-08-15 14:06:35.062350,71.0
2023-08-15 14:06:35.070039,52.0
2023-08-15 14:06:35.077729,31.0
2023-08-15 14:06:35.085419,2.0
2023-08-15 14:06:35.093108,-38.0
2023-08-15 14:06:35.100798,-76.0
2023-08-15 14:06:35.108487,-112.0
2023-08-15 14:06:35.116177,-136.0
2023-08-15 14:06:35.123867,-153.0
2023-08-15 14:06:35.131556,-167.0
2023-08-15 14:06:35.139246,-174.0
2023-08-15 14:06:35.146935,-174.0
2023-08-15 14:06:35.154625,-172.0
2023-08-15 14:06:35.162314,-165.0
2023-08-15 14:06:35.170004,-158.0
2023-08-15 14:06:35.177694,-150.0
2023-08-15 14:06:35.185383,-146.0
2023-08-15 14:06:35.193073,-141.0
2023-08-15 14:06:35.200762,-134.0
2023-08-15 14:06:35.208452,-129.0
2023-08-15 14:06:35.216142,-124.0
2023-08-15 14:06:35.223831,-122.0
2023-08-15 14:06:35.231521,-119.0
2023-08-15 14:06:35.239210,-117.0
2023-08-15 14:06:35.246900,-117.0
2023-08-15 14:06:35.254589,-115.0
2023-08-15 14:06:35.262279,-115.0
2023-08-15 14:06:35.269969,-115.0
2023-08-15 14:06:35.277658,-117.0
2023-08-15 14:06:35.285348,-117.0
2023-08-15 14:06:35.293037,-117.0
2023-08-15 14:06:35.300727,-119.0
2023-08-15 14:06:35.308417,-122.0
2023-08-15 14:06:35.316106,-119.0
2023-08-15 14:06:35.323796,-117.0
2023-08-15 14:06:35.331485,-119.0
2023-08-15 14:06:35.339175,-117.0
2023-08-15 14:06:35.346864,-115.0
2023-08-15 14:06:35.354554,-112.0
2023-08-15 14:06:35.362244,-112.0
2023-08-15 14:06:35.369933,-115.0
2023-08-15 14:06:35.377623,-122.0
2023-08-15 14:06:35.385312,-124.0
2023-08-15 14:06:35.393002,-122.0
2023-08-15 14:06:35.400692,-122.0
2023-08-15 14:06:35.408381,-124.0
2023-08-15 14:06:35.416071,-119.0
2023-08-15 14:06:35.423760,-100.0
2023-08-15 14:06:35.431450,-81.0
2023-08-15 14:06:35.439139,-67.0
2023-08-15 14:06:35.446829,-50.0
2023-08-15 14:06:35.454519,-43.0
2023-08-15 14:06:35.462208,-59.0
2023-08-15 14:06:35.469898,-79.0
2023-08-15 14:06:35.477587,-88.0
2023-08-15 14:06:35.485277,-98.0
2023-08-15 14:06:35.492967,-103.0
2023-08-15 14:06:35.500656,-107.0
2023-08-15 14:06:35.508346,-112.0
2023-08-15 14:06:35.516035,-115.0
2023-08-15 14:06:35.523725,-112.0
2023-08-15 14:06:35.531414,-115.0
2023-08-15 14:06:35.539104,-112.0
2023-08-15 14:06:35.546794,-100.0
2023-08-15 14:06:35.554483,-45.0
2023-08-15 14:06:35.562173,127.0
2023-08-15 14:06:35.569862,419.0
2023-08-15 14:06:35.577552,771.0
2023-08-15 14:06:35.585241,913.0
2023-08-15 14:06:35.592931,311.0
2023-08-15 14:06:35.600621,-553.0
2023-08-15 14:06:35.608310,-544.0
2023-08-15 14:06:35.616000,-103.0
2023-08-15 14:06:35.623689,-139.0
2023-08-15 14:06:35.631379,-256.0
2023-08-15 14:06:35.639069,-155.0
2023-08-15 14:06:35.646758,-134.0
2023-08-15 14:06:35.654448,-177.0
2023-08-15 14:06:35.662137,-143.0
2023-08-15 14:06:35.669827,-112.0
2023-08-15 14:06:35.677516,-117.0
2023-08-15 14:06:35.685206,-105.0
2023-08-15 14:06:35.692896,-83.0
2023-08-15 14:06:35.700585,-76.0
2023-08-15 14:06:35.708275,-67.0
2023-08-15 14:06:35.715964,-50.0
2023-08-15 14:06:35.723654,-35.0
2023-08-15 14:06:35.731344,-23.0
2023-08-15 14:06:35.739033,-4.0
2023-08-15 14:06:35.746723,14.0
2023-08-15 14:06:35.754412,31.0
2023-08-15 14:06:35.762102,50.0
2023-08-15 14:06:35.769791,71.0
2023-08-15 14:06:35.777481,88.0
2023-08-15 14:06:35.785171,103.0
2023-08-15 14:06:35.792860,110.0
2023-08-15 14:06:35.800550,107.0
2023-08-15 14:06:35.808239,107.0
2023-08-15 14:06:35.815929,100.0
2023-08-15 14:06:35.823619,88.0
2023-08-15 14:06:35.831308,71.0
2023-08-15 14:06:35.838998,55.0
2023-08-15 14:06:35.846687,31.0
2023-08-15 14:06:35.854377,-2.0
2023-08-15 14:06:35.862066,-40.0
2023-08-15 14:06:35.869756,-79.0
2023-08-15 14:06:35.877446,-115.0
2023-08-15 14:06:35.885135,-143.0
2023-08-15 14:06:35.892825,-162.0
2023-08-15 14:06:35.900514,-172.0
2023-08-15 14:06:35.908204,-177.0
2023-08-15 14:06:35.915894,-172.0
2023-08-15 14:06:35.923583,-167.0
2023-08-15 14:06:35.931273,-162.0
2023-08-15 14:06:35.938962,-155.0
2023-08-15 14:06:35.946652,-150.0
2023-08-15 14:06:35.954341,-148.0
2023-08-15 14:06:35.962031,-146.0
2023-08-15 14:06:35.969721,-136.0
2023-08-15 14:06:35.977410,-131.0
2023-08-15 14:06:35.985100,-129.0
2023-08-15 14:06:35.992789,-127.0
2023-08-15 14:06:36.000479,-124.0
2023-08-15 14:06:36.008169,-124.0
2023-08-15 14:06:36.015858,-119.0
2023-08-15 14:06:36.023548,-119.0
2023-08-15 14:06:36.031237,-122.0
2023-08-15 14:06:36.038927,-124.0
2023-08-15 14:06:36.046616,-124.0
2023-08-15 14:06:36.054306,-124.0
2023-08-15 14:06:36.061996,-122.0
2023-08-15 14:06:36.069685,-119.0
2023-08-15 14:06:36.077375,-119.0
2023-08-15 14:06:36.085064,-124.0
2023-08-15 14:06:36.092754,-131.0
2023-08-15 14:06:36.100444,-129.0
2023-08-15 14:06:36.108133,-122.0
2023-08-15 14:06:36.115823,-122.0
2023-08-15 14:06:36.123512,-122.0
2023-08-15 14:06:36.131202,-119.0
2023-08-15 14:06:36.138891,-117.0
2023-08-15 14:06:36.146581,-115.0
2023-08-15 14:06:36.154271,-115.0
2023-08-15 14:06:36.161960,-115.0
2023-08-15 14:06:36.169650,-112.0
2023-08-15 14:06:36.177339,-112.0
2023-08-15 14:06:36.185029,-112.0
2023-08-15 14:06:36.192719,-112.0
2023-08-15 14:06:36.200408,-110.0
2023-08-15 14:06:36.208098,-110.0
2023-08-15 14:06:36.215787,-112.0
2023-08-15 14:06:36.223477,-95.0
2023-08-15 14:06:36.231166,-71.0
2023-08-15 14:06:36.238856,-55.0
2023-08-15 14:06:36.246546,-43.0
2023-08-15 14:06:36.254235,-35.0
2023-08-15 14:06:36.261925,-45.0
2023-08-15 14:06:36.269614,-64.0
2023-08-15 14:06:36.277304,-74.0
2023-08-15 14:06:36.284994,-88.0
2023-08-15 14:06:36.292683,-105.0
2023-08-15 14:06:36.300373,-107.0
2023-08-15 14:06:36.308062,-103.0
2023-08-15 14:06:36.315752,-107.0
2023-08-15 14:06:36.323441,-107.0
2023-08-15 14:06:36.331131,-105.0
2023-08-15 14:06:36.338821,-105.0
2023-08-15 14:06:36.346510,-100.0
2023-08-15 14:06:36.354200,-74.0
2023-08-15 14:06:36.361889,26.0
2023-08-15 14:06:36.369579,263.0
2023-08-15 14:06:36.377269,589.0
2023-08-15 14:06:36.384958,877.0
2023-08-15 14:06:36.392648,678.0
2023-08-15 14:06:36.400337,-184.0
2023-08-15 14:06:36.408027,-683.0
2023-08-15 14:06:36.415716,-306.0
2023-08-15 14:06:36.423406,-59.0
2023-08-15 14:06:36.431096,-218.0
2023-08-15 14:06:36.438785,-215.0
2023-08-15 14:06:36.446475,-124.0
2023-08-15 14:06:36.454164,-160.0
2023-08-15 14:06:36.461854,-167.0
2023-08-15 14:06:36.469544,-119.0
2023-08-15 14:06:36.477233,-112.0
2023-08-15 14:06:36.484923,-112.0
2023-08-15 14:06:36.492612,-93.0
2023-08-15 14:06:36.500302,-79.0
2023-08-15 14:06:36.507991,-71.0
2023-08-15 14:06:36.515681,-57.0
2023-08-15 14:06:36.523371,-40.0
2023-08-15 14:06:36.531060,-31.0
2023-08-15 14:06:36.538750,-21.0
2023-08-15 14:06:36.546439,-4.0
2023-08-15 14:06:36.554129,14.0
2023-08-15 14:06:36.561819,33.0
2023-08-15 14:06:36.569508,55.0
2023-08-15 14:06:36.577198,69.0
2023-08-15 14:06:36.584887,74.0
2023-08-15 14:06:36.592577,81.0
2023-08-15 14:06:36.600266,93.0
2023-08-15 14:06:36.607956,95.0
2023-08-15 14:06:36.615646,88.0
2023-08-15 14:06:36.623335,79.0
2023-08-15 14:06:36.631025,67.0
2023-08-15 14:06:36.638714,50.0
2023-08-15 14:06:36.646404,35.0
2023-08-15 14:06:36.654094,14.0
2023-08-15 14:06:36.661783,-16.0
2023-08-15 14:06:36.669473,-52.0
2023-08-15 14:06:36.677162,-86.0
2023-08-15 14:06:36.684852,-115.0
2023-08-15 14:06:36.692541,-134.0
2023-08-15 14:06:36.700231,-150.0
2023-08-15 14:06:36.707921,-160.0
2023-08-15 14:06:36.715610,-162.0
2023-08-15 14:06:36.723300,-162.0
2023-08-15 14:06:36.730989,-158.0
2023-08-15 14:06:36.738679,-148.0
2023-08-15 14:06:36.746369,-143.0
2023-08-15 14:06:36.754058,-136.0
2023-08-15 14:06:36.761748,-134.0
2023-08-15 14:06:36.769437,-131.0
2023-08-15 14:06:36.777127,-129.0
2023-08-15 14:06:36.784816,-127.0
2023-08-15 14:06:36.792506,-124.0
2023-08-15 14:06:36.800196,-119.0
2023-08-15 14:06:36.807885,-119.0
2023-08-15 14:06:36.815575,-122.0
2023-08-15 14:06:36.823264,-119.0
2023-08-15 14:06:36.830954,-119.0
2023-08-15 14:06:36.838644,-117.0
2023-08-15 14:06:36.846333,-117.0
2023-08-15 14:06:36.854023,-119.0
2023-08-15 14:06:36.861712,-122.0
2023-08-15 14:06:36.869402,-119.0
2023-08-15 14:06:36.877091,-117.0
2023-08-15 14:06:36.884781,-117.0
2023-08-15 14:06:36.892471,-119.0
2023-08-15 14:06:36.900160,-124.0
2023-08-15 14:06:36.907850,-124.0
2023-08-15 14:06:36.915539,-122.0
2023-08-15 14:06:36.923229,-122.0
2023-08-15 14:06:36.930918,-119.0
2023-08-15 14:06:36.938608,-119.0
2023-08-15 14:06:36.946298,-117.0
2023-08-15 14:06:36.953987,-117.0
2023-08-15 14:06:36.961677,-115.0
2023-08-15 14:06:36.969366,-115.0
2023-08-15 14:06:36.977056,-117.0
2023-08-15 14:06:36.984746,-119.0
2023-08-15 14:06:36.992435,-110.0
2023-08-15 14:06:37.000125,-88.0
2023-08-15 14:06:37.007814,-69.0
2023-08-15 14:06:37.015504,-57.0
2023-08-15 14:06:37.023193,-43.0
2023-08-15 14:06:37.030883,-45.0
2023-08-15 14:06:37.038573,-67.0
2023-08-15 14:06:37.046262,-86.0
2023-08-15 14:06:37.053952,-93.0
2023-08-15 14:06:37.061641,-100.0
2023-08-15 14:06:37.069331,-105.0
2023-08-15 14:06:37.077021,-107.0
2023-08-15 14:06:37.084710,-107.0
2023-08-15 14:06:37.092400,-105.0
2023-08-15 14:06:37.100089,-105.0
2023-08-15 14:06:37.107779,-105.0
2023-08-15 14:06:37.115468,-98.0
2023-08-15 14:06:37.123158,-79.0
2023-08-15 14:06:37.130848,2.0
2023-08-15 14:06:37.138537,230.0
2023-08-15 14:06:37.146227,568.0
2023-08-15 14:06:37.153916,867.0
2023-08-15 14:06:37.161606,769.0
2023-08-15 14:06:37.169296,-16.0
2023-08-15 14:06:37.176985,-690.0
2023-08-15 14:06:37.184675,-445.0
2023-08-15 14:06:37.192364,-69.0
2023-08-15 14:06:37.200054,-167.0
2023-08-15 14:06:37.207743,-227.0
2023-08-15 14:06:37.215433,-127.0
2023-08-15 14:06:37.223123,-131.0
2023-08-15 14:06:37.230812,-158.0
2023-08-15 14:06:37.238502,-115.0
2023-08-15 14:06:37.246191,-95.0
2023-08-15 14:06:37.253881,-98.0
2023-08-15 14:06:37.261571,-81.0
2023-08-15 14:06:37.269260,-69.0
2023-08-15 14:06:37.276950,-64.0
2023-08-15 14:06:37.284639,-47.0
2023-08-15 14:06:37.292329,-31.0
2023-08-15 14:06:37.300018,-23.0
2023-08-15 14:06:37.307708,-14.0
2023-08-15 14:06:37.315398,9.0
2023-08-15 14:06:37.323087,28.0
2023-08-15 14:06:37.330777,45.0
2023-08-15 14:06:37.338466,64.0
2023-08-15 14:06:37.346156,83.0
2023-08-15 14:06:37.353846,98.0
2023-08-15 14:06:37.361535,115.0
2023-08-15 14:06:37.369225,122.0
2023-08-15 14:06:37.376914,122.0
2023-08-15 14:06:37.384604,119.0
2023-08-15 14:06:37.392293,105.0
2023-08-15 14:06:37.399983,83.0
2023-08-15 14:06:37.407673,64.0
2023-08-15 14:06:37.415362,52.0
2023-08-15 14:06:37.423052,28.0
2023-08-15 14:06:37.430741,-7.0
2023-08-15 14:06:37.438431,-40.0
2023-08-15 14:06:37.446121,-69.0
2023-08-15 14:06:37.453810,-100.0
2023-08-15 14:06:37.461500,-129.0
2023-08-15 14:06:37.469189,-148.0
2023-08-15 14:06:37.476879,-158.0
2023-08-15 14:06:37.484568,-155.0
2023-08-15 14:06:37.492258,-148.0
2023-08-15 14:06:37.499948,-141.0
2023-08-15 14:06:37.507637,-136.0
2023-08-15 14:06:37.515327,-134.0
2023-08-15 14:06:37.523016,-136.0
2023-08-15 14:06:37.530706,-134.0
2023-08-15 14:06:37.538396,-124.0
2023-08-15 14:06:37.546085,-117.0
2023-08-15 14:06:37.553775,-117.0
2023-08-15 14:06:37.561464,-115.0
2023-08-15 14:06:37.569154,-110.0
2023-08-15 14:06:37.576843,-110.0
2023-08-15 14:06:37.584533,-110.0
2023-08-15 14:06:37.592223,-110.0
2023-08-15 14:06:37.599912,-110.0
2023-08-15 14:06:37.607602,-107.0
2023-08-15 14:06:37.615291,-107.0
2023-08-15 14:06:37.622981,-107.0
2023-08-15 14:06:37.630671,-105.0
2023-08-15 14:06:37.638360,-105.0
2023-08-15 14:06:37.646050,-107.0
2023-08-15 14:06:37.653739,-107.0
2023-08-15 14:06:37.661429,-105.0
2023-08-15 14:06:37.669118,-105.0
2023-08-15 14:06:37.676808,-105.0
2023-08-15 14:06:37.684498,-103.0
2023-08-15 14:06:37.692187,-100.0
2023-08-15 14:06:37.699877,-100.0
2023-08-15 14:06:37.707566,-100.0
2023-08-15 14:06:37.715256,-100.0
2023-08-15 14:06:37.722946,-100.0
2023-08-15 14:06:37.730635,-98.0
2023-08-15 14:06:37.738325,-93.0
2023-08-15 14:06:37.746014,-76.0
2023-08-15 14:06:37.753704,-64.0
2023-08-15 14:06:37.761393,-59.0
2023-08-15 14:06:37.769083,-50.0
2023-08-15 14:06:37.776773,-45.0
2023-08-15 14:06:37.784462,-59.0
2023-08-15 14:06:37.792152,-81.0
2023-08-15 14:06:37.799841,-103.0
2023-08-15 14:06:37.807531,-115.0
2023-08-15 14:06:37.815221,-117.0
2023-08-15 14:06:37.822910,-117.0
2023-08-15 14:06:37.830600,-117.0
2023-08-15 14:06:37.838289,-115.0
2023-08-15 14:06:37.845979,-112.0
2023-08-15 14:06:37.853668,-112.0
2023-08-15 14:06:37.861358,-105.0
2023-08-15 14:06:37.869048,-91.0
2023-08-15 14:06:37.876737,-38.0
2023-08-15 14:06:37.884427,165.0
2023-08-15 14:06:37.892116,544.0
2023-08-15 14:06:37.899806,920.0
2023-08-15 14:06:37.907496,932.0
2023-08-15 14:06:37.915185,203.0
2023-08-15 14:06:37.922875,-685.0
2023-08-15 14:06:37.930564,-651.0
2023-08-15 14:06:37.938254,-148.0
2023-08-15 14:06:37.945943,-124.0
2023-08-15 14:06:37.953633,-244.0
2023-08-15 14:06:37.961323,-153.0
2023-08-15 14:06:37.969012,-117.0
2023-08-15 14:06:37.976702,-160.0
2023-08-15 14:06:37.984391,-127.0
2023-08-15 14:06:37.992081,-88.0
2023-08-15 14:06:37.999771,-95.0
2023-08-15 14:06:38.007460,-88.0
2023-08-15 14:06:38.015150,-67.0
2023-08-15 14:06:38.022839,-57.0
2023-08-15 14:06:38.030529,-50.0
2023-08-15 14:06:38.038218,-33.0
2023-08-15 14:06:38.045908,-16.0
2023-08-15 14:06:38.053598,-2.0
2023-08-15 14:06:38.061287,14.0
2023-08-15 14:06:38.068977,28.0
2023-08-15 14:06:38.076666,47.0
2023-08-15 14:06:38.084356,69.0
2023-08-15 14:06:38.092046,91.0
2023-08-15 14:06:38.099735,110.0
2023-08-15 14:06:38.107425,124.0
2023-08-15 14:06:38.115114,131.0
2023-08-15 14:06:38.122804,134.0
2023-08-15 14:06:38.130493,129.0
2023-08-15 14:06:38.138183,119.0
2023-08-15 14:06:38.145873,103.0
2023-08-15 14:06:38.153562,81.0
2023-08-15 14:06:38.161252,57.0
2023-08-15 14:06:38.168941,33.0
2023-08-15 14:06:38.176631,2.0
2023-08-15 14:06:38.184321,-33.0
2023-08-15 14:06:38.192010,-69.0
2023-08-15 14:06:38.199700,-103.0
2023-08-15 14:06:38.207389,-131.0
2023-08-15 14:06:38.215079,-153.0
2023-08-15 14:06:38.222768,-162.0
2023-08-15 14:06:38.230458,-165.0
2023-08-15 14:06:38.238148,-162.0
2023-08-15 14:06:38.245837,-160.0
2023-08-15 14:06:38.253527,-160.0
2023-08-15 14:06:38.261216,-158.0
2023-08-15 14:06:38.268906,-148.0
2023-08-15 14:06:38.276596,-141.0
2023-08-15 14:06:38.284285,-139.0
2023-08-15 14:06:38.291975,-136.0
2023-08-15 14:06:38.299664,-129.0
2023-08-15 14:06:38.307354,-124.0
2023-08-15 14:06:38.315043,-119.0
2023-08-15 14:06:38.322733,-115.0
2023-08-15 14:06:38.330423,-112.0
2023-08-15 14:06:38.338112,-117.0
2023-08-15 14:06:38.345802,-119.0
2023-08-15 14:06:38.353491,-119.0
2023-08-15 14:06:38.361181,-119.0
2023-08-15 14:06:38.368870,-119.0
2023-08-15 14:06:38.376560,-122.0
2023-08-15 14:06:38.384250,-131.0
2023-08-15 14:06:38.391939,-139.0
2023-08-15 14:06:38.399629,-139.0
2023-08-15 14:06:38.407318,-143.0
2023-08-15 14:06:38.415008,-146.0
2023-08-15 14:06:38.422698,-141.0
2023-08-15 14:06:38.430387,-139.0
2023-08-15 14:06:38.438077,-136.0
2023-08-15 14:06:38.445766,-134.0
2023-08-15 14:06:38.453456,-129.0
2023-08-15 14:06:38.461145,-129.0
2023-08-15 14:06:38.468835,-131.0
2023-08-15 14:06:38.476525,-136.0
2023-08-15 14:06:38.484214,-139.0
2023-08-15 14:06:38.491904,-136.0
2023-08-15 14:06:38.499593,-131.0
2023-08-15 14:06:38.507283,-115.0
2023-08-15 14:06:38.514973,-98.0
2023-08-15 14:06:38.522662,-83.0
2023-08-15 14:06:38.530352,-67.0
2023-08-15 14:06:38.538041,-57.0
2023-08-15 14:06:38.545731,-71.0
2023-08-15 14:06:38.553420,-93.0
2023-08-15 14:06:38.561110,-103.0
2023-08-15 14:06:38.568800,-115.0
2023-08-15 14:06:38.576489,-124.0
2023-08-15 14:06:38.584179,-124.0
2023-08-15 14:06:38.591868,-119.0
2023-08-15 14:06:38.599558,-119.0
2023-08-15 14:06:38.607248,-119.0
2023-08-15 14:06:38.614937,-119.0
2023-08-15 14:06:38.622627,-112.0
2023-08-15 14:06:38.630316,-98.0
2023-08-15 14:06:38.638006,-43.0
2023-08-15 14:06:38.645695,136.0
2023-08-15 14:06:38.653385,448.0
2023-08-15 14:06:38.661075,822.0
2023-08-15 14:06:38.668764,980.0
2023-08-15 14:06:38.676454,376.0
2023-08-15 14:06:38.684143,-527.0
2023-08-15 14:06:38.691833,-560.0
2023-08-15 14:06:38.699523,-112.0
2023-08-15 14:06:38.707212,-131.0
2023-08-15 14:06:38.714902,-258.0
2023-08-15 14:06:38.722591,-160.0
2023-08-15 14:06:38.730281,-134.0
2023-08-15 14:06:38.737970,-177.0
2023-08-15 14:06:38.745660,-146.0
2023-08-15 14:06:38.753350,-117.0
2023-08-15 14:06:38.761039,-122.0
2023-08-15 14:06:38.768729,-107.0
2023-08-15 14:06:38.776418,-86.0
2023-08-15 14:06:38.784108,-79.0
2023-08-15 14:06:38.791798,-69.0
2023-08-15 14:06:38.799487,-50.0
2023-08-15 14:06:38.807177,-35.0
2023-08-15 14:06:38.814866,-21.0
2023-08-15 14:06:38.822556,-2.0
2023-08-15 14:06:38.830245,14.0
2023-08-15 14:06:38.837935,33.0
2023-08-15 14:06:38.845625,52.0
2023-08-15 14:06:38.853314,71.0
2023-08-15 14:06:38.861004,93.0
2023-08-15 14:06:38.868693,107.0
2023-08-15 14:06:38.876383,112.0
2023-08-15 14:06:38.884073,107.0
2023-08-15 14:06:38.891762,103.0
2023-08-15 14:06:38.899452,95.0
2023-08-15 14:06:38.907141,76.0
2023-08-15 14:06:38.914831,57.0
2023-08-15 14:06:38.922520,40.0
2023-08-15 14:06:38.930210,14.0
2023-08-15 14:06:38.937900,-19.0
2023-08-15 14:06:38.945589,-52.0
2023-08-15 14:06:38.953279,-86.0
2023-08-15 14:06:38.960968,-119.0
2023-08-15 14:06:38.968658,-146.0
2023-08-15 14:06:38.976348,-165.0
2023-08-15 14:06:38.984037,-177.0
2023-08-15 14:06:38.991727,-182.0
2023-08-15 14:06:38.999416,-182.0
2023-08-15 14:06:39.007106,-179.0
2023-08-15 14:06:39.014795,-170.0
2023-08-15 14:06:39.022485,-162.0
2023-08-15 14:06:39.030175,-158.0
2023-08-15 14:06:39.037864,-150.0
2023-08-15 14:06:39.045554,-143.0
2023-08-15 14:06:39.053243,-139.0
2023-08-15 14:06:39.060933,-131.0
2023-08-15 14:06:39.068623,-127.0
2023-08-15 14:06:39.076312,-124.0
2023-08-15 14:06:39.084002,-124.0
2023-08-15 14:06:39.091691,-119.0
2023-08-15 14:06:39.099381,-117.0
2023-08-15 14:06:39.107070,-119.0
