time,ECG
2023-08-10 11:02:13.916561,-272.0
2023-08-10 11:02:13.924250,52.0
2023-08-10 11:02:13.931940,114.0
2023-08-10 11:02:13.939630,-4.0
2023-08-10 11:02:13.947320,-40.0
2023-08-10 11:02:13.955010,9.0
2023-08-10 11:02:13.962700,2.0
2023-08-10 11:02:13.970390,-26.0
2023-08-10 11:02:13.978080,-2.0
2023-08-10 11:02:13.985770,9.0
2023-08-10 11:02:13.993460,-23.0
2023-08-10 11:02:14.001150,-45.0
2023-08-10 11:02:14.008840,-35.0
2023-08-10 11:02:14.016530,-43.0
2023-08-10 11:02:14.024220,-55.0
2023-08-10 11:02:14.031910,-55.0
2023-08-10 11:02:14.039600,-69.0
2023-08-10 11:02:14.047289,-78.0
2023-08-10 11:02:14.054979,-74.0
2023-08-10 11:02:14.062669,-78.0
2023-08-10 11:02:14.070359,-93.0
2023-08-10 11:02:14.078049,-112.0
2023-08-10 11:02:14.085739,-133.0
2023-08-10 11:02:14.093429,-155.0
2023-08-10 11:02:14.101119,-160.0
2023-08-10 11:02:14.108809,-160.0
2023-08-10 11:02:14.116499,-177.0
2023-08-10 11:02:14.124189,-193.0
2023-08-10 11:02:14.131879,-208.0
2023-08-10 11:02:14.139569,-248.0
2023-08-10 11:02:14.147259,-270.0
2023-08-10 11:02:14.154949,-258.0
2023-08-10 11:02:14.162639,-265.0
2023-08-10 11:02:14.170329,-265.0
2023-08-10 11:02:14.178018,-217.0
2023-08-10 11:02:14.185708,-160.0
2023-08-10 11:02:14.193398,-110.0
2023-08-10 11:02:14.201088,-55.0
2023-08-10 11:02:14.208778,-19.0
2023-08-10 11:02:14.216468,-7.0
2023-08-10 11:02:14.224158,23.0
2023-08-10 11:02:14.231848,47.0
2023-08-10 11:02:14.239538,26.0
2023-08-10 11:02:14.247228,9.0
2023-08-10 11:02:14.254918,19.0
2023-08-10 11:02:14.262608,26.0
2023-08-10 11:02:14.270298,28.0
2023-08-10 11:02:14.277988,26.0
2023-08-10 11:02:14.285678,21.0
2023-08-10 11:02:14.293368,16.0
2023-08-10 11:02:14.301057,7.0
2023-08-10 11:02:14.308747,0.0
2023-08-10 11:02:14.316437,-2.0
2023-08-10 11:02:14.324127,-11.0
2023-08-10 11:02:14.331817,-9.0
2023-08-10 11:02:14.339507,-4.0
2023-08-10 11:02:14.347197,-9.0
2023-08-10 11:02:14.354887,-2.0
2023-08-10 11:02:14.362577,-4.0
2023-08-10 11:02:14.370267,-16.0
2023-08-10 11:02:14.377957,-11.0
2023-08-10 11:02:14.385647,-14.0
2023-08-10 11:02:14.393337,-23.0
2023-08-10 11:02:14.401027,-19.0
2023-08-10 11:02:14.408717,-9.0
2023-08-10 11:02:14.416407,-9.0
2023-08-10 11:02:14.424097,-16.0
2023-08-10 11:02:14.431786,-21.0
2023-08-10 11:02:14.439476,-28.0
2023-08-10 11:02:14.447166,-28.0
2023-08-10 11:02:14.454856,-14.0
2023-08-10 11:02:14.462546,-26.0
2023-08-10 11:02:14.470236,-45.0
2023-08-10 11:02:14.477926,-35.0
2023-08-10 11:02:14.485616,-23.0
2023-08-10 11:02:14.493306,-28.0
2023-08-10 11:02:14.500996,-31.0
2023-08-10 11:02:14.508686,-35.0
2023-08-10 11:02:14.516376,-40.0
2023-08-10 11:02:14.524066,-28.0
2023-08-10 11:02:14.531756,-33.0
2023-08-10 11:02:14.539446,-52.0
2023-08-10 11:02:14.547136,-45.0
2023-08-10 11:02:14.554825,-26.0
2023-08-10 11:02:14.562515,-31.0
2023-08-10 11:02:14.570205,-45.0
2023-08-10 11:02:14.577895,-43.0
2023-08-10 11:02:14.585585,-38.0
2023-08-10 11:02:14.593275,-40.0
2023-08-10 11:02:14.600965,-33.0
2023-08-10 11:02:14.608655,-26.0
2023-08-10 11:02:14.616345,-35.0
2023-08-10 11:02:14.624035,-40.0
2023-08-10 11:02:14.631725,-23.0
2023-08-10 11:02:14.639415,-11.0
2023-08-10 11:02:14.647105,-33.0
2023-08-10 11:02:14.654795,-45.0
2023-08-10 11:02:14.662485,-26.0
2023-08-10 11:02:14.670175,-21.0
2023-08-10 11:02:14.677865,-43.0
2023-08-10 11:02:14.685554,-52.0
2023-08-10 11:02:14.693244,-43.0
2023-08-10 11:02:14.700934,-43.0
2023-08-10 11:02:14.708624,-57.0
2023-08-10 11:02:14.716314,-64.0
2023-08-10 11:02:14.724004,-57.0
2023-08-10 11:02:14.731694,-40.0
2023-08-10 11:02:14.739384,-23.0
2023-08-10 11:02:14.747074,-7.0
2023-08-10 11:02:14.754764,2.0
2023-08-10 11:02:14.762454,-16.0
2023-08-10 11:02:14.770144,-43.0
2023-08-10 11:02:14.777834,-40.0
2023-08-10 11:02:14.785524,-35.0
2023-08-10 11:02:14.793214,-28.0
2023-08-10 11:02:14.800904,-4.0
2023-08-10 11:02:14.808593,-47.0
2023-08-10 11:02:14.816283,-239.0
2023-08-10 11:02:14.823973,-476.0
2023-08-10 11:02:14.831663,-634.0
2023-08-10 11:02:14.839353,-648.0
2023-08-10 11:02:14.847043,-392.0
2023-08-10 11:02:14.854733,-4.0
2023-08-10 11:02:14.862423,138.0
2023-08-10 11:02:14.870113,45.0
2023-08-10 11:02:14.877803,7.0
2023-08-10 11:02:14.885493,31.0
2023-08-10 11:02:14.893183,2.0
2023-08-10 11:02:14.900873,-2.0
2023-08-10 11:02:14.908563,21.0
2023-08-10 11:02:14.916253,14.0
2023-08-10 11:02:14.923943,4.0
2023-08-10 11:02:14.931633,0.0
2023-08-10 11:02:14.939322,-19.0
2023-08-10 11:02:14.947012,-21.0
2023-08-10 11:02:14.954702,-4.0
2023-08-10 11:02:14.962392,-14.0
2023-08-10 11:02:14.970082,-43.0
2023-08-10 11:02:14.977772,-59.0
2023-08-10 11:02:14.985462,-66.0
2023-08-10 11:02:14.993152,-83.0
2023-08-10 11:02:15.000842,-95.0
2023-08-10 11:02:15.008532,-93.0
2023-08-10 11:02:15.016222,-119.0
2023-08-10 11:02:15.023912,-157.0
2023-08-10 11:02:15.031602,-153.0
2023-08-10 11:02:15.039292,-155.0
2023-08-10 11:02:15.046982,-193.0
2023-08-10 11:02:15.054672,-215.0
2023-08-10 11:02:15.062361,-210.0
2023-08-10 11:02:15.070051,-239.0
2023-08-10 11:02:15.077741,-279.0
2023-08-10 11:02:15.085431,-282.0
2023-08-10 11:02:15.093121,-258.0
2023-08-10 11:02:15.100811,-265.0
2023-08-10 11:02:15.108501,-272.0
2023-08-10 11:02:15.116191,-208.0
2023-08-10 11:02:15.123881,-129.0
2023-08-10 11:02:15.131571,-95.0
2023-08-10 11:02:15.139261,-62.0
2023-08-10 11:02:15.146951,-9.0
2023-08-10 11:02:15.154641,14.0
2023-08-10 11:02:15.162331,14.0
2023-08-10 11:02:15.170021,23.0
2023-08-10 11:02:15.177711,35.0
2023-08-10 11:02:15.185400,35.0
2023-08-10 11:02:15.193090,31.0
2023-08-10 11:02:15.200780,19.0
2023-08-10 11:02:15.208470,21.0
2023-08-10 11:02:15.216160,26.0
2023-08-10 11:02:15.223850,9.0
2023-08-10 11:02:15.231540,4.0
2023-08-10 11:02:15.239230,19.0
2023-08-10 11:02:15.246920,21.0
2023-08-10 11:02:15.254610,19.0
2023-08-10 11:02:15.262300,14.0
2023-08-10 11:02:15.269990,-9.0
2023-08-10 11:02:15.277680,-7.0
2023-08-10 11:02:15.285370,14.0
2023-08-10 11:02:15.293060,-4.0
2023-08-10 11:02:15.300750,-26.0
2023-08-10 11:02:15.308440,-9.0
2023-08-10 11:02:15.316129,7.0
2023-08-10 11:02:15.323819,9.0
2023-08-10 11:02:15.331509,-4.0
2023-08-10 11:02:15.339199,-21.0
2023-08-10 11:02:15.346889,-2.0
2023-08-10 11:02:15.354579,4.0
2023-08-10 11:02:15.362269,-11.0
2023-08-10 11:02:15.369959,-7.0
2023-08-10 11:02:15.377649,-7.0
2023-08-10 11:02:15.385339,-11.0
2023-08-10 11:02:15.393029,4.0
2023-08-10 11:02:15.400719,7.0
2023-08-10 11:02:15.408409,-9.0
2023-08-10 11:02:15.416099,-14.0
2023-08-10 11:02:15.423789,-9.0
2023-08-10 11:02:15.431479,-2.0
2023-08-10 11:02:15.439168,-4.0
2023-08-10 11:02:15.446858,-7.0
2023-08-10 11:02:15.454548,-11.0
2023-08-10 11:02:15.462238,-11.0
2023-08-10 11:02:15.469928,7.0
2023-08-10 11:02:15.477618,9.0
2023-08-10 11:02:15.485308,-23.0
2023-08-10 11:02:15.492998,-31.0
2023-08-10 11:02:15.500688,-16.0
2023-08-10 11:02:15.508378,-26.0
2023-08-10 11:02:15.516068,-33.0
2023-08-10 11:02:15.523758,-23.0
2023-08-10 11:02:15.531448,-31.0
2023-08-10 11:02:15.539138,-33.0
2023-08-10 11:02:15.546828,-31.0
2023-08-10 11:02:15.554518,-35.0
2023-08-10 11:02:15.562208,-35.0
2023-08-10 11:02:15.569897,-28.0
2023-08-10 11:02:15.577587,-40.0
2023-08-10 11:02:15.585277,-52.0
2023-08-10 11:02:15.592967,-43.0
2023-08-10 11:02:15.600657,-50.0
2023-08-10 11:02:15.608347,-86.0
2023-08-10 11:02:15.616037,-81.0
2023-08-10 11:02:15.623727,-52.0
2023-08-10 11:02:15.631417,-50.0
2023-08-10 11:02:15.639107,-43.0
2023-08-10 11:02:15.646797,-38.0
2023-08-10 11:02:15.654487,-43.0
2023-08-10 11:02:15.662177,-14.0
2023-08-10 11:02:15.669867,-4.0
2023-08-10 11:02:15.677557,-35.0
2023-08-10 11:02:15.685247,-47.0
2023-08-10 11:02:15.692936,-40.0
2023-08-10 11:02:15.700626,-28.0
2023-08-10 11:02:15.708316,-11.0
2023-08-10 11:02:15.716006,-57.0
2023-08-10 11:02:15.723696,-229.0
2023-08-10 11:02:15.731386,-473.0
2023-08-10 11:02:15.739076,-636.0
2023-08-10 11:02:15.746766,-607.0
2023-08-10 11:02:15.754456,-344.0
2023-08-10 11:02:15.762146,7.0
2023-08-10 11:02:15.769836,136.0
2023-08-10 11:02:15.777526,38.0
2023-08-10 11:02:15.785216,-9.0
2023-08-10 11:02:15.792906,21.0
2023-08-10 11:02:15.800596,21.0
2023-08-10 11:02:15.808286,23.0
2023-08-10 11:02:15.815976,33.0
2023-08-10 11:02:15.823665,14.0
2023-08-10 11:02:15.831355,4.0
2023-08-10 11:02:15.839045,19.0
2023-08-10 11:02:15.846735,14.0
2023-08-10 11:02:15.854425,-2.0
2023-08-10 11:02:15.862115,4.0
2023-08-10 11:02:15.869805,14.0
2023-08-10 11:02:15.877495,-9.0
2023-08-10 11:02:15.885185,-35.0
2023-08-10 11:02:15.892875,-28.0
2023-08-10 11:02:15.900565,-21.0
2023-08-10 11:02:15.908255,-38.0
2023-08-10 11:02:15.915945,-59.0
2023-08-10 11:02:15.923635,-71.0
2023-08-10 11:02:15.931325,-83.0
2023-08-10 11:02:15.939015,-95.0
2023-08-10 11:02:15.946704,-110.0
2023-08-10 11:02:15.954394,-141.0
2023-08-10 11:02:15.962084,-174.0
2023-08-10 11:02:15.969774,-184.0
2023-08-10 11:02:15.977464,-191.0
2023-08-10 11:02:15.985154,-210.0
2023-08-10 11:02:15.992844,-215.0
2023-08-10 11:02:16.000534,-217.0
2023-08-10 11:02:16.008224,-234.0
2023-08-10 11:02:16.015914,-220.0
2023-08-10 11:02:16.023604,-167.0
2023-08-10 11:02:16.031294,-129.0
2023-08-10 11:02:16.038984,-78.0
2023-08-10 11:02:16.046674,-19.0
2023-08-10 11:02:16.054364,14.0
2023-08-10 11:02:16.062054,26.0
2023-08-10 11:02:16.069744,47.0
2023-08-10 11:02:16.077433,66.0
2023-08-10 11:02:16.085123,62.0
2023-08-10 11:02:16.092813,45.0
2023-08-10 11:02:16.100503,33.0
2023-08-10 11:02:16.108193,31.0
2023-08-10 11:02:16.115883,43.0
2023-08-10 11:02:16.123573,52.0
2023-08-10 11:02:16.131263,35.0
2023-08-10 11:02:16.138953,21.0
2023-08-10 11:02:16.146643,38.0
2023-08-10 11:02:16.154333,55.0
2023-08-10 11:02:16.162023,33.0
2023-08-10 11:02:16.169713,11.0
2023-08-10 11:02:16.177403,23.0
2023-08-10 11:02:16.185093,31.0
2023-08-10 11:02:16.192783,21.0
2023-08-10 11:02:16.200472,28.0
2023-08-10 11:02:16.208162,31.0
2023-08-10 11:02:16.215852,16.0
2023-08-10 11:02:16.223542,21.0
2023-08-10 11:02:16.231232,26.0
2023-08-10 11:02:16.238922,9.0
2023-08-10 11:02:16.246612,4.0
2023-08-10 11:02:16.254302,21.0
2023-08-10 11:02:16.261992,21.0
2023-08-10 11:02:16.269682,9.0
2023-08-10 11:02:16.277372,2.0
2023-08-10 11:02:16.285062,-2.0
2023-08-10 11:02:16.292752,-2.0
2023-08-10 11:02:16.300442,4.0
2023-08-10 11:02:16.308132,7.0
2023-08-10 11:02:16.315822,-2.0
2023-08-10 11:02:16.323511,-11.0
2023-08-10 11:02:16.331201,-4.0
2023-08-10 11:02:16.338891,2.0
2023-08-10 11:02:16.346581,0.0
2023-08-10 11:02:16.354271,-7.0
2023-08-10 11:02:16.361961,-14.0
2023-08-10 11:02:16.369651,-11.0
2023-08-10 11:02:16.377341,-11.0
2023-08-10 11:02:16.385031,-31.0
2023-08-10 11:02:16.392721,-40.0
2023-08-10 11:02:16.400411,-28.0
2023-08-10 11:02:16.408101,-21.0
2023-08-10 11:02:16.415791,-31.0
2023-08-10 11:02:16.423481,-40.0
2023-08-10 11:02:16.431171,-38.0
2023-08-10 11:02:16.438861,-11.0
2023-08-10 11:02:16.446551,2.0
2023-08-10 11:02:16.454240,-16.0
2023-08-10 11:02:16.461930,-26.0
2023-08-10 11:02:16.469620,-7.0
2023-08-10 11:02:16.477310,4.0
2023-08-10 11:02:16.485000,-4.0
2023-08-10 11:02:16.492690,-28.0
2023-08-10 11:02:16.500380,-26.0
2023-08-10 11:02:16.508070,-19.0
2023-08-10 11:02:16.515760,-107.0
2023-08-10 11:02:16.523450,-318.0
2023-08-10 11:02:16.531140,-543.0
2023-08-10 11:02:16.538830,-672.0
2023-08-10 11:02:16.546520,-545.0
2023-08-10 11:02:16.554210,-157.0
2023-08-10 11:02:16.561900,124.0
2023-08-10 11:02:16.569590,81.0
2023-08-10 11:02:16.577279,-19.0
2023-08-10 11:02:16.584969,9.0
2023-08-10 11:02:16.592659,21.0
2023-08-10 11:02:16.600349,-7.0
2023-08-10 11:02:16.608039,2.0
2023-08-10 11:02:16.615729,9.0
2023-08-10 11:02:16.623419,-2.0
2023-08-10 11:02:16.631109,-4.0
2023-08-10 11:02:16.638799,-7.0
2023-08-10 11:02:16.646489,-16.0
2023-08-10 11:02:16.654179,-16.0
2023-08-10 11:02:16.661869,-21.0
2023-08-10 11:02:16.669559,-43.0
2023-08-10 11:02:16.677249,-55.0
2023-08-10 11:02:16.684939,-57.0
2023-08-10 11:02:16.692629,-64.0
2023-08-10 11:02:16.700319,-78.0
2023-08-10 11:02:16.708008,-98.0
2023-08-10 11:02:16.715698,-110.0
2023-08-10 11:02:16.723388,-112.0
2023-08-10 11:02:16.731078,-126.0
2023-08-10 11:02:16.738768,-148.0
2023-08-10 11:02:16.746458,-155.0
2023-08-10 11:02:16.754148,-162.0
2023-08-10 11:02:16.761838,-177.0
2023-08-10 11:02:16.769528,-200.0
2023-08-10 11:02:16.777218,-229.0
2023-08-10 11:02:16.784908,-241.0
2023-08-10 11:02:16.792598,-224.0
2023-08-10 11:02:16.800288,-222.0
2023-08-10 11:02:16.807978,-227.0
2023-08-10 11:02:16.815668,-181.0
2023-08-10 11:02:16.823358,-102.0
2023-08-10 11:02:16.831047,-45.0
2023-08-10 11:02:16.838737,-11.0
2023-08-10 11:02:16.846427,14.0
2023-08-10 11:02:16.854117,38.0
2023-08-10 11:02:16.861807,66.0
2023-08-10 11:02:16.869497,78.0
2023-08-10 11:02:16.877187,66.0
2023-08-10 11:02:16.884877,55.0
2023-08-10 11:02:16.892567,47.0
2023-08-10 11:02:16.900257,45.0
2023-08-10 11:02:16.907947,47.0
2023-08-10 11:02:16.915637,43.0
2023-08-10 11:02:16.923327,31.0
2023-08-10 11:02:16.931017,28.0
2023-08-10 11:02:16.938707,31.0
2023-08-10 11:02:16.946397,33.0
2023-08-10 11:02:16.954087,28.0
2023-08-10 11:02:16.961776,11.0
2023-08-10 11:02:16.969466,7.0
2023-08-10 11:02:16.977156,16.0
2023-08-10 11:02:16.984846,16.0
2023-08-10 11:02:16.992536,2.0
2023-08-10 11:02:17.000226,-2.0
2023-08-10 11:02:17.007916,4.0
2023-08-10 11:02:17.015606,-2.0
2023-08-10 11:02:17.023296,-9.0
2023-08-10 11:02:17.030986,-11.0
2023-08-10 11:02:17.038676,-14.0
2023-08-10 11:02:17.046366,-26.0
2023-08-10 11:02:17.054056,-40.0
2023-08-10 11:02:17.061746,-31.0
2023-08-10 11:02:17.069436,-14.0
2023-08-10 11:02:17.077126,-26.0
2023-08-10 11:02:17.084815,-33.0
2023-08-10 11:02:17.092505,-23.0
2023-08-10 11:02:17.100195,-28.0
2023-08-10 11:02:17.107885,-31.0
2023-08-10 11:02:17.115575,-16.0
2023-08-10 11:02:17.123265,-21.0
2023-08-10 11:02:17.130955,-40.0
2023-08-10 11:02:17.138645,-31.0
2023-08-10 11:02:17.146335,-26.0
2023-08-10 11:02:17.154025,-43.0
2023-08-10 11:02:17.161715,-35.0
2023-08-10 11:02:17.169405,-23.0
2023-08-10 11:02:17.177095,-35.0
2023-08-10 11:02:17.184785,-40.0
2023-08-10 11:02:17.192475,-28.0
2023-08-10 11:02:17.200165,-19.0
2023-08-10 11:02:17.207855,-28.0
2023-08-10 11:02:17.215544,-43.0
2023-08-10 11:02:17.223234,-52.0
2023-08-10 11:02:17.230924,-55.0
2023-08-10 11:02:17.238614,-38.0
2023-08-10 11:02:17.246304,-28.0
2023-08-10 11:02:17.253994,-47.0
2023-08-10 11:02:17.261684,-57.0
2023-08-10 11:02:17.269374,-52.0
2023-08-10 11:02:17.277064,-52.0
2023-08-10 11:02:17.284754,-55.0
2023-08-10 11:02:17.292444,-55.0
2023-08-10 11:02:17.300134,-66.0
2023-08-10 11:02:17.307824,-90.0
2023-08-10 11:02:17.315514,-95.0
2023-08-10 11:02:17.323204,-78.0
2023-08-10 11:02:17.330894,-55.0
2023-08-10 11:02:17.338583,-35.0
2023-08-10 11:02:17.346273,-43.0
2023-08-10 11:02:17.353963,-52.0
2023-08-10 11:02:17.361653,-40.0
2023-08-10 11:02:17.369343,-45.0
2023-08-10 11:02:17.377033,-69.0
2023-08-10 11:02:17.384723,-57.0
2023-08-10 11:02:17.392413,-38.0
2023-08-10 11:02:17.400103,-52.0
2023-08-10 11:02:17.407793,-93.0
2023-08-10 11:02:17.415483,-224.0
2023-08-10 11:02:17.423173,-440.0
2023-08-10 11:02:17.430863,-622.0
2023-08-10 11:02:17.438553,-655.0
2023-08-10 11:02:17.446243,-418.0
2023-08-10 11:02:17.453933,-35.0
2023-08-10 11:02:17.461623,114.0
2023-08-10 11:02:17.469312,9.0
2023-08-10 11:02:17.477002,-38.0
2023-08-10 11:02:17.484692,9.0
2023-08-10 11:02:17.492382,21.0
2023-08-10 11:02:17.500072,0.0
2023-08-10 11:02:17.507762,-19.0
2023-08-10 11:02:17.515452,-21.0
2023-08-10 11:02:17.523142,-9.0
2023-08-10 11:02:17.530832,-14.0
2023-08-10 11:02:17.538522,-35.0
2023-08-10 11:02:17.546212,-38.0
2023-08-10 11:02:17.553902,-38.0
2023-08-10 11:02:17.561592,-57.0
2023-08-10 11:02:17.569282,-64.0
2023-08-10 11:02:17.576972,-55.0
2023-08-10 11:02:17.584662,-59.0
2023-08-10 11:02:17.592351,-81.0
2023-08-10 11:02:17.600041,-90.0
2023-08-10 11:02:17.607731,-83.0
2023-08-10 11:02:17.615421,-100.0
2023-08-10 11:02:17.623111,-124.0
2023-08-10 11:02:17.630801,-129.0
2023-08-10 11:02:17.638491,-141.0
2023-08-10 11:02:17.646181,-162.0
2023-08-10 11:02:17.653871,-177.0
2023-08-10 11:02:17.661561,-196.0
2023-08-10 11:02:17.669251,-215.0
2023-08-10 11:02:17.676941,-224.0
2023-08-10 11:02:17.684631,-234.0
2023-08-10 11:02:17.692321,-236.0
2023-08-10 11:02:17.700011,-222.0
2023-08-10 11:02:17.707701,-198.0
2023-08-10 11:02:17.715390,-155.0
2023-08-10 11:02:17.723080,-105.0
2023-08-10 11:02:17.730770,-62.0
2023-08-10 11:02:17.738460,-21.0
2023-08-10 11:02:17.746150,21.0
2023-08-10 11:02:17.753840,33.0
2023-08-10 11:02:17.761530,28.0
2023-08-10 11:02:17.769220,43.0
2023-08-10 11:02:17.776910,45.0
2023-08-10 11:02:17.784600,26.0
2023-08-10 11:02:17.792290,23.0
2023-08-10 11:02:17.799980,31.0
2023-08-10 11:02:17.807670,11.0
2023-08-10 11:02:17.815360,0.0
2023-08-10 11:02:17.823050,11.0
2023-08-10 11:02:17.830740,11.0
2023-08-10 11:02:17.838430,4.0
2023-08-10 11:02:17.846119,4.0
2023-08-10 11:02:17.853809,0.0
2023-08-10 11:02:17.861499,-11.0
2023-08-10 11:02:17.869189,-9.0
2023-08-10 11:02:17.876879,0.0
2023-08-10 11:02:17.884569,-11.0
2023-08-10 11:02:17.892259,-33.0
2023-08-10 11:02:17.899949,-28.0
2023-08-10 11:02:17.907639,-26.0
2023-08-10 11:02:17.915329,-31.0
2023-08-10 11:02:17.923019,-19.0
2023-08-10 11:02:17.930709,-23.0
2023-08-10 11:02:17.938399,-47.0
2023-08-10 11:02:17.946089,-33.0
2023-08-10 11:02:17.953779,-11.0
2023-08-10 11:02:17.961469,-19.0
2023-08-10 11:02:17.969158,-28.0
2023-08-10 11:02:17.976848,-38.0
2023-08-10 11:02:17.984538,-38.0
2023-08-10 11:02:17.992228,-26.0
2023-08-10 11:02:17.999918,-23.0
2023-08-10 11:02:18.007608,-26.0
2023-08-10 11:02:18.015298,-21.0
2023-08-10 11:02:18.022988,-31.0
2023-08-10 11:02:18.030678,-50.0
2023-08-10 11:02:18.038368,-52.0
2023-08-10 11:02:18.046058,-43.0
2023-08-10 11:02:18.053748,-35.0
2023-08-10 11:02:18.061438,-33.0
2023-08-10 11:02:18.069128,-33.0
2023-08-10 11:02:18.076818,-33.0
2023-08-10 11:02:18.084508,-38.0
2023-08-10 11:02:18.092198,-43.0
2023-08-10 11:02:18.099887,-35.0
2023-08-10 11:02:18.107577,-33.0
2023-08-10 11:02:18.115267,-43.0
2023-08-10 11:02:18.122957,-43.0
2023-08-10 11:02:18.130647,-35.0
2023-08-10 11:02:18.138337,-33.0
2023-08-10 11:02:18.146027,-35.0
2023-08-10 11:02:18.153717,-33.0
2023-08-10 11:02:18.161407,-26.0
2023-08-10 11:02:18.169097,-31.0
2023-08-10 11:02:18.176787,-35.0
2023-08-10 11:02:18.184477,-35.0
2023-08-10 11:02:18.192167,-38.0
2023-08-10 11:02:18.199857,-38.0
2023-08-10 11:02:18.207547,-45.0
2023-08-10 11:02:18.215237,-66.0
2023-08-10 11:02:18.222926,-76.0
2023-08-10 11:02:18.230616,-69.0
2023-08-10 11:02:18.238306,-57.0
2023-08-10 11:02:18.245996,-45.0
2023-08-10 11:02:18.253686,-38.0
2023-08-10 11:02:18.261376,-45.0
2023-08-10 11:02:18.269066,-45.0
2023-08-10 11:02:18.276756,-38.0
2023-08-10 11:02:18.284446,-38.0
2023-08-10 11:02:18.292136,-45.0
2023-08-10 11:02:18.299826,-50.0
2023-08-10 11:02:18.307516,-45.0
2023-08-10 11:02:18.315206,-45.0
2023-08-10 11:02:18.322896,-126.0
2023-08-10 11:02:18.330586,-337.0
2023-08-10 11:02:18.338276,-562.0
2023-08-10 11:02:18.345966,-679.0
2023-08-10 11:02:18.353655,-579.0
2023-08-10 11:02:18.361345,-229.0
2023-08-10 11:02:18.369035,81.0
2023-08-10 11:02:18.376725,95.0
2023-08-10 11:02:18.384415,-16.0
2023-08-10 11:02:18.392105,-28.0
2023-08-10 11:02:18.399795,0.0
2023-08-10 11:02:18.407485,-16.0
2023-08-10 11:02:18.415175,-23.0
2023-08-10 11:02:18.422865,-11.0
2023-08-10 11:02:18.430555,-9.0
2023-08-10 11:02:18.438245,-19.0
2023-08-10 11:02:18.445935,-28.0
2023-08-10 11:02:18.453625,-40.0
2023-08-10 11:02:18.461315,-55.0
2023-08-10 11:02:18.469005,-62.0
2023-08-10 11:02:18.476694,-59.0
2023-08-10 11:02:18.484384,-64.0
2023-08-10 11:02:18.492074,-76.0
2023-08-10 11:02:18.499764,-86.0
2023-08-10 11:02:18.507454,-90.0
2023-08-10 11:02:18.515144,-95.0
2023-08-10 11:02:18.522834,-112.0
2023-08-10 11:02:18.530524,-131.0
2023-08-10 11:02:18.538214,-143.0
2023-08-10 11:02:18.545904,-157.0
2023-08-10 11:02:18.553594,-177.0
2023-08-10 11:02:18.561284,-191.0
2023-08-10 11:02:18.568974,-203.0
2023-08-10 11:02:18.576664,-227.0
2023-08-10 11:02:18.584354,-248.0
2023-08-10 11:02:18.592044,-253.0
2023-08-10 11:02:18.599734,-256.0
2023-08-10 11:02:18.607423,-265.0
2023-08-10 11:02:18.615113,-251.0
2023-08-10 11:02:18.622803,-205.0
2023-08-10 11:02:18.630493,-145.0
2023-08-10 11:02:18.638183,-88.0
2023-08-10 11:02:18.645873,-35.0
2023-08-10 11:02:18.653563,2.0
2023-08-10 11:02:18.661253,19.0
2023-08-10 11:02:18.668943,28.0
2023-08-10 11:02:18.676633,47.0
2023-08-10 11:02:18.684323,62.0
2023-08-10 11:02:18.692013,57.0
2023-08-10 11:02:18.699703,45.0
2023-08-10 11:02:18.707393,43.0
2023-08-10 11:02:18.715083,38.0
2023-08-10 11:02:18.722773,33.0
2023-08-10 11:02:18.730462,26.0
2023-08-10 11:02:18.738152,19.0
2023-08-10 11:02:18.745842,19.0
2023-08-10 11:02:18.753532,23.0
2023-08-10 11:02:18.761222,21.0
2023-08-10 11:02:18.768912,14.0
2023-08-10 11:02:18.776602,14.0
2023-08-10 11:02:18.784292,14.0
2023-08-10 11:02:18.791982,4.0
2023-08-10 11:02:18.799672,-7.0
2023-08-10 11:02:18.807362,-4.0
2023-08-10 11:02:18.815052,0.0
2023-08-10 11:02:18.822742,0.0
2023-08-10 11:02:18.830432,-4.0
2023-08-10 11:02:18.838122,-2.0
2023-08-10 11:02:18.845812,-7.0
2023-08-10 11:02:18.853501,-16.0
2023-08-10 11:02:18.861191,-14.0
2023-08-10 11:02:18.868881,-9.0
2023-08-10 11:02:18.876571,-9.0
2023-08-10 11:02:18.884261,-7.0
2023-08-10 11:02:18.891951,-7.0
2023-08-10 11:02:18.899641,-4.0
2023-08-10 11:02:18.907331,-9.0
2023-08-10 11:02:18.915021,-16.0
2023-08-10 11:02:18.922711,-16.0
2023-08-10 11:02:18.930401,-23.0
2023-08-10 11:02:18.938091,-35.0
2023-08-10 11:02:18.945781,-31.0
2023-08-10 11:02:18.953471,-26.0
2023-08-10 11:02:18.961161,-26.0
2023-08-10 11:02:18.968851,-31.0
2023-08-10 11:02:18.976541,-40.0
2023-08-10 11:02:18.984230,-57.0
2023-08-10 11:02:18.991920,-64.0
2023-08-10 11:02:18.999610,-50.0
2023-08-10 11:02:19.007300,-45.0
2023-08-10 11:02:19.014990,-52.0
2023-08-10 11:02:19.022680,-55.0
2023-08-10 11:02:19.030370,-50.0
2023-08-10 11:02:19.038060,-43.0
2023-08-10 11:02:19.045750,-31.0
2023-08-10 11:02:19.053440,-31.0
2023-08-10 11:02:19.061130,-43.0
2023-08-10 11:02:19.068820,-50.0
2023-08-10 11:02:19.076510,-47.0
2023-08-10 11:02:19.084200,-50.0
2023-08-10 11:02:19.091890,-50.0
2023-08-10 11:02:19.099580,-47.0
2023-08-10 11:02:19.107269,-78.0
2023-08-10 11:02:19.114959,-222.0
2023-08-10 11:02:19.122649,-461.0
2023-08-10 11:02:19.130339,-653.0
2023-08-10 11:02:19.138029,-672.0
2023-08-10 11:02:19.145719,-423.0
2023-08-10 11:02:19.153409,-35.0
2023-08-10 11:02:19.161099,136.0
2023-08-10 11:02:19.168789,47.0
2023-08-10 11:02:19.176479,-26.0
2023-08-10 11:02:19.184169,2.0
2023-08-10 11:02:19.191859,14.0
2023-08-10 11:02:19.199549,-7.0
2023-08-10 11:02:19.207239,-2.0
2023-08-10 11:02:19.214929,0.0
2023-08-10 11:02:19.222619,-14.0
2023-08-10 11:02:19.230309,-21.0
2023-08-10 11:02:19.237998,-21.0
2023-08-10 11:02:19.245688,-28.0
2023-08-10 11:02:19.253378,-35.0
2023-08-10 11:02:19.261068,-43.0
2023-08-10 11:02:19.268758,-50.0
2023-08-10 11:02:19.276448,-59.0
2023-08-10 11:02:19.284138,-69.0
2023-08-10 11:02:19.291828,-78.0
2023-08-10 11:02:19.299518,-86.0
2023-08-10 11:02:19.307208,-88.0
2023-08-10 11:02:19.314898,-98.0
2023-08-10 11:02:19.322588,-117.0
2023-08-10 11:02:19.330278,-138.0
2023-08-10 11:02:19.337968,-155.0
2023-08-10 11:02:19.345658,-169.0
2023-08-10 11:02:19.353348,-186.0
2023-08-10 11:02:19.361037,-200.0
2023-08-10 11:02:19.368727,-208.0
2023-08-10 11:02:19.376417,-224.0
2023-08-10 11:02:19.384107,-236.0
2023-08-10 11:02:19.391797,-229.0
2023-08-10 11:02:19.399487,-212.0
2023-08-10 11:02:19.407177,-181.0
2023-08-10 11:02:19.414867,-124.0
2023-08-10 11:02:19.422557,-59.0
2023-08-10 11:02:19.430247,-21.0
2023-08-10 11:02:19.437937,11.0
2023-08-10 11:02:19.445627,50.0
2023-08-10 11:02:19.453317,64.0
2023-08-10 11:02:19.461007,59.0
2023-08-10 11:02:19.468697,62.0
2023-08-10 11:02:19.476387,64.0
2023-08-10 11:02:19.484077,55.0
2023-08-10 11:02:19.491766,55.0
2023-08-10 11:02:19.499456,59.0
2023-08-10 11:02:19.507146,50.0
2023-08-10 11:02:19.514836,45.0
2023-08-10 11:02:19.522526,50.0
2023-08-10 11:02:19.530216,50.0
2023-08-10 11:02:19.537906,43.0
2023-08-10 11:02:19.545596,33.0
2023-08-10 11:02:19.553286,26.0
2023-08-10 11:02:19.560976,9.0
2023-08-10 11:02:19.568666,-2.0
2023-08-10 11:02:19.576356,7.0
2023-08-10 11:02:19.584046,7.0
2023-08-10 11:02:19.591736,-9.0
2023-08-10 11:02:19.599426,-11.0
2023-08-10 11:02:19.607116,-9.0
2023-08-10 11:02:19.614805,-19.0
2023-08-10 11:02:19.622495,-23.0
2023-08-10 11:02:19.630185,-28.0
2023-08-10 11:02:19.637875,-31.0
2023-08-10 11:02:19.645565,-23.0
2023-08-10 11:02:19.653255,-21.0
2023-08-10 11:02:19.660945,-28.0
2023-08-10 11:02:19.668635,-26.0
2023-08-10 11:02:19.676325,-23.0
2023-08-10 11:02:19.684015,-28.0
2023-08-10 11:02:19.691705,-28.0
2023-08-10 11:02:19.699395,-28.0
2023-08-10 11:02:19.707085,-38.0
2023-08-10 11:02:19.714775,-40.0
2023-08-10 11:02:19.722465,-31.0
2023-08-10 11:02:19.730155,-31.0
2023-08-10 11:02:19.737845,-40.0
2023-08-10 11:02:19.745534,-40.0
2023-08-10 11:02:19.753224,-40.0
2023-08-10 11:02:19.760914,-43.0
2023-08-10 11:02:19.768604,-38.0
2023-08-10 11:02:19.776294,-38.0
2023-08-10 11:02:19.783984,-43.0
2023-08-10 11:02:19.791674,-40.0
2023-08-10 11:02:19.799364,-38.0
2023-08-10 11:02:19.807054,-38.0
2023-08-10 11:02:19.814744,-38.0
2023-08-10 11:02:19.822434,-35.0
2023-08-10 11:02:19.830124,-31.0
2023-08-10 11:02:19.837814,-31.0
2023-08-10 11:02:19.845504,-33.0
2023-08-10 11:02:19.853194,-31.0
2023-08-10 11:02:19.860884,-31.0
2023-08-10 11:02:19.868573,-43.0
2023-08-10 11:02:19.876263,-64.0
2023-08-10 11:02:19.883953,-71.0
2023-08-10 11:02:19.891643,-64.0
2023-08-10 11:02:19.899333,-50.0
2023-08-10 11:02:19.907023,-33.0
2023-08-10 11:02:19.914713,-31.0
2023-08-10 11:02:19.922403,-40.0
2023-08-10 11:02:19.930093,-40.0
2023-08-10 11:02:19.937783,-26.0
2023-08-10 11:02:19.945473,-28.0
2023-08-10 11:02:19.953163,-45.0
2023-08-10 11:02:19.960853,-45.0
2023-08-10 11:02:19.968543,-40.0
2023-08-10 11:02:19.976233,-62.0
2023-08-10 11:02:19.983923,-174.0
2023-08-10 11:02:19.991613,-394.0
2023-08-10 11:02:19.999302,-598.0
2023-08-10 11:02:20.006992,-677.0
2023-08-10 11:02:20.014682,-521.0
2023-08-10 11:02:20.022372,-143.0
2023-08-10 11:02:20.030062,105.0
2023-08-10 11:02:20.037752,43.0
2023-08-10 11:02:20.045442,-57.0
2023-08-10 11:02:20.053132,-23.0
2023-08-10 11:02:20.060822,0.0
2023-08-10 11:02:20.068512,-26.0
2023-08-10 11:02:20.076202,-21.0
2023-08-10 11:02:20.083892,-7.0
2023-08-10 11:02:20.091582,-11.0
2023-08-10 11:02:20.099272,-19.0
2023-08-10 11:02:20.106962,-28.0
2023-08-10 11:02:20.114652,-38.0
2023-08-10 11:02:20.122341,-35.0
2023-08-10 11:02:20.130031,-43.0
2023-08-10 11:02:20.137721,-59.0
2023-08-10 11:02:20.145411,-64.0
2023-08-10 11:02:20.153101,-62.0
2023-08-10 11:02:20.160791,-71.0
2023-08-10 11:02:20.168481,-78.0
2023-08-10 11:02:20.176171,-83.0
2023-08-10 11:02:20.183861,-95.0
2023-08-10 11:02:20.191551,-117.0
2023-08-10 11:02:20.199241,-138.0
2023-08-10 11:02:20.206931,-153.0
2023-08-10 11:02:20.214621,-169.0
2023-08-10 11:02:20.222311,-189.0
2023-08-10 11:02:20.230001,-208.0
2023-08-10 11:02:20.237691,-234.0
2023-08-10 11:02:20.245380,-253.0
2023-08-10 11:02:20.253070,-253.0
2023-08-10 11:02:20.260760,-258.0
2023-08-10 11:02:20.268450,-251.0
2023-08-10 11:02:20.276140,-215.0
2023-08-10 11:02:20.283830,-169.0
2023-08-10 11:02:20.291520,-122.0
2023-08-10 11:02:20.299210,-66.0
2023-08-10 11:02:20.306900,-21.0
2023-08-10 11:02:20.314590,4.0
2023-08-10 11:02:20.322280,26.0
2023-08-10 11:02:20.329970,38.0
2023-08-10 11:02:20.337660,40.0
2023-08-10 11:02:20.345350,40.0
2023-08-10 11:02:20.353040,50.0
2023-08-10 11:02:20.360730,50.0
2023-08-10 11:02:20.368420,31.0
2023-08-10 11:02:20.376109,23.0
2023-08-10 11:02:20.383799,26.0
2023-08-10 11:02:20.391489,19.0
2023-08-10 11:02:20.399179,16.0
2023-08-10 11:02:20.406869,23.0
2023-08-10 11:02:20.414559,16.0
2023-08-10 11:02:20.422249,0.0
2023-08-10 11:02:20.429939,-4.0
2023-08-10 11:02:20.437629,-2.0
2023-08-10 11:02:20.445319,0.0
2023-08-10 11:02:20.453009,-7.0
2023-08-10 11:02:20.460699,-11.0
2023-08-10 11:02:20.468389,-14.0
2023-08-10 11:02:20.476079,-21.0
2023-08-10 11:02:20.483769,-23.0
2023-08-10 11:02:20.491459,-26.0
2023-08-10 11:02:20.499148,-26.0
2023-08-10 11:02:20.506838,-21.0
2023-08-10 11:02:20.514528,-21.0
2023-08-10 11:02:20.522218,-26.0
2023-08-10 11:02:20.529908,-26.0
2023-08-10 11:02:20.537598,-23.0
2023-08-10 11:02:20.545288,-16.0
2023-08-10 11:02:20.552978,-23.0
2023-08-10 11:02:20.560668,-38.0
2023-08-10 11:02:20.568358,-38.0
2023-08-10 11:02:20.576048,-31.0
2023-08-10 11:02:20.583738,-31.0
2023-08-10 11:02:20.591428,-35.0
2023-08-10 11:02:20.599118,-40.0
2023-08-10 11:02:20.606808,-43.0
2023-08-10 11:02:20.614498,-45.0
2023-08-10 11:02:20.622188,-45.0
2023-08-10 11:02:20.629877,-35.0
2023-08-10 11:02:20.637567,-31.0
2023-08-10 11:02:20.645257,-38.0
2023-08-10 11:02:20.652947,-40.0
2023-08-10 11:02:20.660637,-38.0
2023-08-10 11:02:20.668327,-40.0
2023-08-10 11:02:20.676017,-40.0
2023-08-10 11:02:20.683707,-35.0
2023-08-10 11:02:20.691397,-38.0
2023-08-10 11:02:20.699087,-40.0
2023-08-10 11:02:20.706777,-33.0
2023-08-10 11:02:20.714467,-31.0
2023-08-10 11:02:20.722157,-35.0
2023-08-10 11:02:20.729847,-38.0
2023-08-10 11:02:20.737537,-40.0
2023-08-10 11:02:20.745227,-40.0
2023-08-10 11:02:20.752916,-31.0
2023-08-10 11:02:20.760606,-28.0
2023-08-10 11:02:20.768296,-38.0
2023-08-10 11:02:20.775986,-52.0
2023-08-10 11:02:20.783676,-59.0
2023-08-10 11:02:20.791366,-64.0
2023-08-10 11:02:20.799056,-64.0
2023-08-10 11:02:20.806746,-55.0
2023-08-10 11:02:20.814436,-40.0
2023-08-10 11:02:20.822126,-31.0
2023-08-10 11:02:20.829816,-31.0
2023-08-10 11:02:20.837506,-31.0
2023-08-10 11:02:20.845196,-33.0
2023-08-10 11:02:20.852886,-28.0
2023-08-10 11:02:20.860576,-26.0
2023-08-10 11:02:20.868266,-38.0
2023-08-10 11:02:20.875956,-35.0
2023-08-10 11:02:20.883645,-28.0
2023-08-10 11:02:20.891335,-100.0
2023-08-10 11:02:20.899025,-284.0
2023-08-10 11:02:20.906715,-500.0
2023-08-10 11:02:20.914405,-643.0
2023-08-10 11:02:20.922095,-581.0
2023-08-10 11:02:20.929785,-256.0
2023-08-10 11:02:20.937475,71.0
2023-08-10 11:02:20.945165,112.0
2023-08-10 11:02:20.952855,-2.0
2023-08-10 11:02:20.960545,-19.0
2023-08-10 11:02:20.968235,16.0
2023-08-10 11:02:20.975925,7.0
2023-08-10 11:02:20.983615,-2.0
2023-08-10 11:02:20.991305,9.0
2023-08-10 11:02:20.998995,4.0
2023-08-10 11:02:21.006684,-4.0
2023-08-10 11:02:21.014374,-19.0
2023-08-10 11:02:21.022064,-28.0
2023-08-10 11:02:21.029754,-21.0
2023-08-10 11:02:21.037444,-14.0
2023-08-10 11:02:21.045134,-19.0
2023-08-10 11:02:21.052824,-28.0
2023-08-10 11:02:21.060514,-40.0
2023-08-10 11:02:21.068204,-59.0
2023-08-10 11:02:21.075894,-74.0
2023-08-10 11:02:21.083584,-86.0
2023-08-10 11:02:21.091274,-100.0
2023-08-10 11:02:21.098964,-112.0
2023-08-10 11:02:21.106654,-114.0
2023-08-10 11:02:21.114344,-129.0
2023-08-10 11:02:21.122034,-145.0
2023-08-10 11:02:21.129724,-150.0
2023-08-10 11:02:21.137413,-165.0
2023-08-10 11:02:21.145103,-186.0
2023-08-10 11:02:21.152793,-205.0
2023-08-10 11:02:21.160483,-217.0
2023-08-10 11:02:21.168173,-227.0
2023-08-10 11:02:21.175863,-229.0
2023-08-10 11:02:21.183553,-215.0
2023-08-10 11:02:21.191243,-179.0
2023-08-10 11:02:21.198933,-129.0
2023-08-10 11:02:21.206623,-62.0
2023-08-10 11:02:21.214313,-14.0
2023-08-10 11:02:21.222003,-2.0
2023-08-10 11:02:21.229693,9.0
2023-08-10 11:02:21.237383,33.0
2023-08-10 11:02:21.245073,45.0
2023-08-10 11:02:21.252763,45.0
2023-08-10 11:02:21.260452,47.0
2023-08-10 11:02:21.268142,38.0
2023-08-10 11:02:21.275832,28.0
2023-08-10 11:02:21.283522,33.0
2023-08-10 11:02:21.291212,26.0
2023-08-10 11:02:21.298902,9.0
2023-08-10 11:02:21.306592,14.0
2023-08-10 11:02:21.314282,19.0
2023-08-10 11:02:21.321972,2.0
2023-08-10 11:02:21.329662,-2.0
2023-08-10 11:02:21.337352,7.0
2023-08-10 11:02:21.345042,9.0
2023-08-10 11:02:21.352732,2.0
2023-08-10 11:02:21.360422,-4.0
2023-08-10 11:02:21.368112,-11.0
2023-08-10 11:02:21.375802,-9.0
2023-08-10 11:02:21.383491,-7.0
2023-08-10 11:02:21.391181,-9.0
2023-08-10 11:02:21.398871,-2.0
2023-08-10 11:02:21.406561,-9.0
2023-08-10 11:02:21.414251,-21.0
2023-08-10 11:02:21.421941,-9.0
2023-08-10 11:02:21.429631,0.0
2023-08-10 11:02:21.437321,-16.0
2023-08-10 11:02:21.445011,-26.0
2023-08-10 11:02:21.452701,-21.0
2023-08-10 11:02:21.460391,-16.0
2023-08-10 11:02:21.468081,-14.0
2023-08-10 11:02:21.475771,-11.0
2023-08-10 11:02:21.483461,-21.0
2023-08-10 11:02:21.491151,-19.0
2023-08-10 11:02:21.498841,-4.0
2023-08-10 11:02:21.506531,-7.0
2023-08-10 11:02:21.514220,-26.0
2023-08-10 11:02:21.521910,-28.0
2023-08-10 11:02:21.529600,-14.0
2023-08-10 11:02:21.537290,-14.0
2023-08-10 11:02:21.544980,-23.0
2023-08-10 11:02:21.552670,-21.0
2023-08-10 11:02:21.560360,-14.0
2023-08-10 11:02:21.568050,-14.0
2023-08-10 11:02:21.575740,-26.0
2023-08-10 11:02:21.583430,-45.0
2023-08-10 11:02:21.591120,-35.0
2023-08-10 11:02:21.598810,-14.0
2023-08-10 11:02:21.606500,-26.0
2023-08-10 11:02:21.614190,-31.0
2023-08-10 11:02:21.621880,-16.0
2023-08-10 11:02:21.629570,-21.0
2023-08-10 11:02:21.637259,-35.0
2023-08-10 11:02:21.644949,-33.0
2023-08-10 11:02:21.652639,-38.0
2023-08-10 11:02:21.660329,-52.0
2023-08-10 11:02:21.668019,-50.0
2023-08-10 11:02:21.675709,-40.0
2023-08-10 11:02:21.683399,-40.0
2023-08-10 11:02:21.691089,-28.0
2023-08-10 11:02:21.698779,-16.0
2023-08-10 11:02:21.706469,-28.0
2023-08-10 11:02:21.714159,-26.0
2023-08-10 11:02:21.721849,-7.0
2023-08-10 11:02:21.729539,-11.0
2023-08-10 11:02:21.737229,-23.0
2023-08-10 11:02:21.744919,-19.0
2023-08-10 11:02:21.752609,-16.0
2023-08-10 11:02:21.760299,-21.0
2023-08-10 11:02:21.767988,-23.0
2023-08-10 11:02:21.775678,-40.0
2023-08-10 11:02:21.783368,-145.0
2023-08-10 11:02:21.791058,-349.0
2023-08-10 11:02:21.798748,-550.0
2023-08-10 11:02:21.806438,-657.0
2023-08-10 11:02:21.814128,-547.0
2023-08-10 11:02:21.821818,-181.0
2023-08-10 11:02:21.829508,119.0
2023-08-10 11:02:21.837198,105.0
2023-08-10 11:02:21.844888,-9.0
2023-08-10 11:02:21.852578,7.0
2023-08-10 11:02:21.860268,43.0
2023-08-10 11:02:21.867958,14.0
2023-08-10 11:02:21.875648,14.0
2023-08-10 11:02:21.883338,28.0
2023-08-10 11:02:21.891027,2.0
2023-08-10 11:02:21.898717,-14.0
2023-08-10 11:02:21.906407,-2.0
2023-08-10 11:02:21.914097,-4.0
2023-08-10 11:02:21.921787,-26.0
2023-08-10 11:02:21.929477,-23.0
2023-08-10 11:02:21.937167,-16.0
2023-08-10 11:02:21.944857,-35.0
2023-08-10 11:02:21.952547,-55.0
2023-08-10 11:02:21.960237,-55.0
2023-08-10 11:02:21.967927,-69.0
2023-08-10 11:02:21.975617,-88.0
2023-08-10 11:02:21.983307,-86.0
2023-08-10 11:02:21.990997,-88.0
2023-08-10 11:02:21.998687,-105.0
2023-08-10 11:02:22.006377,-122.0
2023-08-10 11:02:22.014067,-143.0
2023-08-10 11:02:22.021756,-167.0
2023-08-10 11:02:22.029446,-189.0
2023-08-10 11:02:22.037136,-210.0
2023-08-10 11:02:22.044826,-215.0
2023-08-10 11:02:22.052516,-217.0
2023-08-10 11:02:22.060206,-236.0
2023-08-10 11:02:22.067896,-236.0
2023-08-10 11:02:22.075586,-186.0
2023-08-10 11:02:22.083276,-117.0
2023-08-10 11:02:22.090966,-74.0
2023-08-10 11:02:22.098656,-52.0
2023-08-10 11:02:22.106346,-19.0
2023-08-10 11:02:22.114036,31.0
2023-08-10 11:02:22.121726,57.0
2023-08-10 11:02:22.129416,59.0
2023-08-10 11:02:22.137106,62.0
2023-08-10 11:02:22.144795,69.0
2023-08-10 11:02:22.152485,66.0
2023-08-10 11:02:22.160175,64.0
2023-08-10 11:02:22.167865,62.0
2023-08-10 11:02:22.175555,47.0
2023-08-10 11:02:22.183245,43.0
2023-08-10 11:02:22.190935,43.0
2023-08-10 11:02:22.198625,35.0
2023-08-10 11:02:22.206315,43.0
2023-08-10 11:02:22.214005,40.0
2023-08-10 11:02:22.221695,19.0
2023-08-10 11:02:22.229385,9.0
2023-08-10 11:02:22.237075,9.0
2023-08-10 11:02:22.244765,2.0
2023-08-10 11:02:22.252455,-2.0
2023-08-10 11:02:22.260145,-7.0
2023-08-10 11:02:22.267835,-4.0
2023-08-10 11:02:22.275524,4.0
2023-08-10 11:02:22.283214,0.0
2023-08-10 11:02:22.290904,-16.0
2023-08-10 11:02:22.298594,-14.0
2023-08-10 11:02:22.306284,-9.0
2023-08-10 11:02:22.313974,-21.0
2023-08-10 11:02:22.321664,-28.0
2023-08-10 11:02:22.329354,-35.0
2023-08-10 11:02:22.337044,-40.0
2023-08-10 11:02:22.344734,-26.0
2023-08-10 11:02:22.352424,-16.0
2023-08-10 11:02:22.360114,-28.0
2023-08-10 11:02:22.367804,-33.0
2023-08-10 11:02:22.375494,-26.0
2023-08-10 11:02:22.383184,-23.0
2023-08-10 11:02:22.390874,-38.0
2023-08-10 11:02:22.398563,-50.0
2023-08-10 11:02:22.406253,-35.0
2023-08-10 11:02:22.413943,-19.0
2023-08-10 11:02:22.421633,-31.0
2023-08-10 11:02:22.429323,-35.0
2023-08-10 11:02:22.437013,-31.0
2023-08-10 11:02:22.444703,-40.0
2023-08-10 11:02:22.452393,-47.0
2023-08-10 11:02:22.460083,-40.0
2023-08-10 11:02:22.467773,-33.0
2023-08-10 11:02:22.475463,-38.0
2023-08-10 11:02:22.483153,-45.0
2023-08-10 11:02:22.490843,-38.0
2023-08-10 11:02:22.498533,-31.0
2023-08-10 11:02:22.506223,-35.0
2023-08-10 11:02:22.513913,-40.0
2023-08-10 11:02:22.521603,-38.0
2023-08-10 11:02:22.529292,-33.0
2023-08-10 11:02:22.536982,-43.0
2023-08-10 11:02:22.544672,-55.0
2023-08-10 11:02:22.552362,-33.0
2023-08-10 11:02:22.560052,-19.0
2023-08-10 11:02:22.567742,-40.0
2023-08-10 11:02:22.575432,-45.0
2023-08-10 11:02:22.583122,-23.0
2023-08-10 11:02:22.590812,-38.0
2023-08-10 11:02:22.598502,-76.0
2023-08-10 11:02:22.606192,-76.0
2023-08-10 11:02:22.613882,-50.0
2023-08-10 11:02:22.621572,-50.0
2023-08-10 11:02:22.629262,-76.0
2023-08-10 11:02:22.636952,-83.0
2023-08-10 11:02:22.644642,-59.0
2023-08-10 11:02:22.652331,-43.0
2023-08-10 11:02:22.660021,-59.0
2023-08-10 11:02:22.667711,-57.0
2023-08-10 11:02:22.675401,-23.0
2023-08-10 11:02:22.683091,-31.0
2023-08-10 11:02:22.690781,-57.0
2023-08-10 11:02:22.698471,-43.0
2023-08-10 11:02:22.706161,-28.0
2023-08-10 11:02:22.713851,-47.0
2023-08-10 11:02:22.721541,-64.0
2023-08-10 11:02:22.729231,-129.0
2023-08-10 11:02:22.736921,-318.0
2023-08-10 11:02:22.744611,-552.0
2023-08-10 11:02:22.752301,-689.0
2023-08-10 11:02:22.759991,-598.0
2023-08-10 11:02:22.767681,-253.0
2023-08-10 11:02:22.775370,71.0
2023-08-10 11:02:22.783060,88.0
2023-08-10 11:02:22.790750,-33.0
2023-08-10 11:02:22.798440,-19.0
2023-08-10 11:02:22.806130,16.0
2023-08-10 11:02:22.813820,-11.0
2023-08-10 11:02:22.821510,-11.0
2023-08-10 11:02:22.829200,-2.0
2023-08-10 11:02:22.836890,-16.0
2023-08-10 11:02:22.844580,-23.0
2023-08-10 11:02:22.852270,-23.0
2023-08-10 11:02:22.859960,-43.0
2023-08-10 11:02:22.867650,-55.0
2023-08-10 11:02:22.875340,-45.0
2023-08-10 11:02:22.883030,-47.0
2023-08-10 11:02:22.890720,-66.0
2023-08-10 11:02:22.898410,-83.0
2023-08-10 11:02:22.906099,-95.0
2023-08-10 11:02:22.913789,-100.0
2023-08-10 11:02:22.921479,-107.0
2023-08-10 11:02:22.929169,-131.0
2023-08-10 11:02:22.936859,-145.0
2023-08-10 11:02:22.944549,-157.0
2023-08-10 11:02:22.952239,-181.0
2023-08-10 11:02:22.959929,-200.0
2023-08-10 11:02:22.967619,-217.0
2023-08-10 11:02:22.975309,-227.0
2023-08-10 11:02:22.982999,-234.0
2023-08-10 11:02:22.990689,-260.0
2023-08-10 11:02:22.998379,-294.0
2023-08-10 11:02:23.006069,-296.0
2023-08-10 11:02:23.013759,-287.0
2023-08-10 11:02:23.021449,-263.0
2023-08-10 11:02:23.029138,-215.0
2023-08-10 11:02:23.036828,-167.0
2023-08-10 11:02:23.044518,-122.0
2023-08-10 11:02:23.052208,-71.0
2023-08-10 11:02:23.059898,-45.0
2023-08-10 11:02:23.067588,-21.0
2023-08-10 11:02:23.075278,11.0
2023-08-10 11:02:23.082968,16.0
2023-08-10 11:02:23.090658,11.0
2023-08-10 11:02:23.098348,16.0
2023-08-10 11:02:23.106038,11.0
2023-08-10 11:02:23.113728,4.0
2023-08-10 11:02:23.121418,0.0
2023-08-10 11:02:23.129108,2.0
2023-08-10 11:02:23.136798,16.0
2023-08-10 11:02:23.144488,11.0
2023-08-10 11:02:23.152178,-19.0
2023-08-10 11:02:23.159867,-19.0
2023-08-10 11:02:23.167557,7.0
2023-08-10 11:02:23.175247,-7.0
2023-08-10 11:02:23.182937,-23.0
2023-08-10 11:02:23.190627,-2.0
2023-08-10 11:02:23.198317,4.0
2023-08-10 11:02:23.206007,-9.0
2023-08-10 11:02:23.213697,-14.0
2023-08-10 11:02:23.221387,-16.0
2023-08-10 11:02:23.229077,-19.0
2023-08-10 11:02:23.236767,-23.0
2023-08-10 11:02:23.244457,-16.0
2023-08-10 11:02:23.252147,-14.0
2023-08-10 11:02:23.259837,-28.0
2023-08-10 11:02:23.267527,-16.0
2023-08-10 11:02:23.275217,9.0
2023-08-10 11:02:23.282906,-2.0
2023-08-10 11:02:23.290596,-21.0
2023-08-10 11:02:23.298286,-16.0
2023-08-10 11:02:23.305976,-19.0
2023-08-10 11:02:23.313666,-26.0
2023-08-10 11:02:23.321356,-14.0
2023-08-10 11:02:23.329046,-14.0
2023-08-10 11:02:23.336736,-19.0
2023-08-10 11:02:23.344426,-7.0
2023-08-10 11:02:23.352116,-9.0
2023-08-10 11:02:23.359806,-28.0
2023-08-10 11:02:23.367496,-21.0
2023-08-10 11:02:23.375186,-11.0
2023-08-10 11:02:23.382876,-31.0
2023-08-10 11:02:23.390566,-55.0
2023-08-10 11:02:23.398256,-43.0
2023-08-10 11:02:23.405946,-14.0
2023-08-10 11:02:23.413635,-19.0
2023-08-10 11:02:23.421325,-40.0
2023-08-10 11:02:23.429015,-43.0
2023-08-10 11:02:23.436705,-33.0
2023-08-10 11:02:23.444395,-23.0
2023-08-10 11:02:23.452085,-23.0
2023-08-10 11:02:23.459775,-43.0
2023-08-10 11:02:23.467465,-47.0
2023-08-10 11:02:23.475155,-33.0
2023-08-10 11:02:23.482845,-45.0
2023-08-10 11:02:23.490535,-71.0
2023-08-10 11:02:23.498225,-64.0
2023-08-10 11:02:23.505915,-40.0
2023-08-10 11:02:23.513605,-45.0
2023-08-10 11:02:23.521295,-55.0
2023-08-10 11:02:23.528985,-55.0
2023-08-10 11:02:23.536674,-43.0
2023-08-10 11:02:23.544364,-23.0
2023-08-10 11:02:23.552054,-14.0
2023-08-10 11:02:23.559744,-16.0
2023-08-10 11:02:23.567434,-19.0
2023-08-10 11:02:23.575124,-33.0
2023-08-10 11:02:23.582814,-33.0
2023-08-10 11:02:23.590504,-14.0
2023-08-10 11:02:23.598194,-21.0
2023-08-10 11:02:23.605884,-50.0
2023-08-10 11:02:23.613574,-105.0
2023-08-10 11:02:23.621264,-275.0
2023-08-10 11:02:23.628954,-509.0
2023-08-10 11:02:23.636644,-660.0
2023-08-10 11:02:23.644334,-622.0
2023-08-10 11:02:23.652024,-325.0
2023-08-10 11:02:23.659714,43.0
2023-08-10 11:02:23.667403,148.0
2023-08-10 11:02:23.675093,26.0
2023-08-10 11:02:23.682783,-31.0
2023-08-10 11:02:23.690473,19.0
2023-08-10 11:02:23.698163,43.0
2023-08-10 11:02:23.705853,21.0
2023-08-10 11:02:23.713543,4.0
2023-08-10 11:02:23.721233,2.0
2023-08-10 11:02:23.728923,4.0
2023-08-10 11:02:23.736613,-2.0
2023-08-10 11:02:23.744303,-16.0
2023-08-10 11:02:23.751993,-23.0
2023-08-10 11:02:23.759683,-16.0
2023-08-10 11:02:23.767373,-14.0
2023-08-10 11:02:23.775063,-38.0
2023-08-10 11:02:23.782753,-52.0
2023-08-10 11:02:23.790442,-43.0
2023-08-10 11:02:23.798132,-50.0
2023-08-10 11:02:23.805822,-76.0
2023-08-10 11:02:23.813512,-83.0
2023-08-10 11:02:23.821202,-88.0
2023-08-10 11:02:23.828892,-112.0
2023-08-10 11:02:23.836582,-131.0
2023-08-10 11:02:23.844272,-143.0
2023-08-10 11:02:23.851962,-162.0
2023-08-10 11:02:23.859652,-177.0
2023-08-10 11:02:23.867342,-198.0
2023-08-10 11:02:23.875032,-229.0
2023-08-10 11:02:23.882722,-232.0
2023-08-10 11:02:23.890412,-229.0
2023-08-10 11:02:23.898102,-251.0
2023-08-10 11:02:23.905792,-239.0
2023-08-10 11:02:23.913481,-179.0
2023-08-10 11:02:23.921171,-117.0
2023-08-10 11:02:23.928861,-64.0
2023-08-10 11:02:23.936551,-11.0
2023-08-10 11:02:23.944241,33.0
2023-08-10 11:02:23.951931,59.0
2023-08-10 11:02:23.959621,76.0
2023-08-10 11:02:23.967311,78.0
2023-08-10 11:02:23.975001,69.0
2023-08-10 11:02:23.982691,66.0
2023-08-10 11:02:23.990381,78.0
2023-08-10 11:02:23.998071,86.0
2023-08-10 11:02:24.005761,69.0
2023-08-10 11:02:24.013451,50.0
2023-08-10 11:02:24.021141,57.0
2023-08-10 11:02:24.028831,71.0
2023-08-10 11:02:24.036521,66.0
2023-08-10 11:02:24.044210,55.0
2023-08-10 11:02:24.051900,52.0
2023-08-10 11:02:24.059590,45.0
2023-08-10 11:02:24.067280,38.0
2023-08-10 11:02:24.074970,35.0
2023-08-10 11:02:24.082660,31.0
2023-08-10 11:02:24.090350,26.0
2023-08-10 11:02:24.098040,26.0
2023-08-10 11:02:24.105730,19.0
2023-08-10 11:02:24.113420,9.0
2023-08-10 11:02:24.121110,9.0
2023-08-10 11:02:24.128800,16.0
2023-08-10 11:02:24.136490,11.0
2023-08-10 11:02:24.144180,7.0
2023-08-10 11:02:24.151870,9.0
2023-08-10 11:02:24.159560,4.0
2023-08-10 11:02:24.167249,0.0
2023-08-10 11:02:24.174939,2.0
2023-08-10 11:02:24.182629,2.0
2023-08-10 11:02:24.190319,-2.0
2023-08-10 11:02:24.198009,0.0
2023-08-10 11:02:24.205699,4.0
2023-08-10 11:02:24.213389,2.0
2023-08-10 11:02:24.221079,-11.0
2023-08-10 11:02:24.228769,-14.0
2023-08-10 11:02:24.236459,0.0
2023-08-10 11:02:24.244149,4.0
2023-08-10 11:02:24.251839,-7.0
2023-08-10 11:02:24.259529,-23.0
2023-08-10 11:02:24.267219,-26.0
2023-08-10 11:02:24.274909,-26.0
2023-08-10 11:02:24.282599,-38.0
2023-08-10 11:02:24.290289,-50.0
2023-08-10 11:02:24.297978,-40.0
2023-08-10 11:02:24.305668,-26.0
2023-08-10 11:02:24.313358,-43.0
2023-08-10 11:02:24.321048,-47.0
2023-08-10 11:02:24.328738,-16.0
2023-08-10 11:02:24.336428,-7.0
2023-08-10 11:02:24.344118,-11.0
2023-08-10 11:02:24.351808,-11.0
2023-08-10 11:02:24.359498,-11.0
2023-08-10 11:02:24.367188,-9.0
2023-08-10 11:02:24.374878,-21.0
2023-08-10 11:02:24.382568,-23.0
2023-08-10 11:02:24.390258,2.0
2023-08-10 11:02:24.397948,-14.0
2023-08-10 11:02:24.405638,-133.0
2023-08-10 11:02:24.413328,-346.0
2023-08-10 11:02:24.421017,-590.0
2023-08-10 11:02:24.428707,-770.0
2023-08-10 11:02:24.436397,-703.0
2023-08-10 11:02:24.444087,-299.0
2023-08-10 11:02:24.451777,110.0
2023-08-10 11:02:24.459467,150.0
2023-08-10 11:02:24.467157,11.0
2023-08-10 11:02:24.474847,7.0
2023-08-10 11:02:24.482537,47.0
2023-08-10 11:02:24.490227,23.0
2023-08-10 11:02:24.497917,11.0
2023-08-10 11:02:24.505607,19.0
2023-08-10 11:02:24.513297,9.0
2023-08-10 11:02:24.520987,7.0
2023-08-10 11:02:24.528677,9.0
2023-08-10 11:02:24.536367,4.0
2023-08-10 11:02:24.544057,2.0
2023-08-10 11:02:24.551746,-4.0
2023-08-10 11:02:24.559436,-21.0
2023-08-10 11:02:24.567126,-33.0
2023-08-10 11:02:24.574816,-43.0
2023-08-10 11:02:24.582506,-47.0
2023-08-10 11:02:24.590196,-40.0
2023-08-10 11:02:24.597886,-62.0
2023-08-10 11:02:24.605576,-93.0
2023-08-10 11:02:24.613266,-90.0
2023-08-10 11:02:24.620956,-95.0
2023-08-10 11:02:24.628646,-119.0
2023-08-10 11:02:24.636336,-143.0
2023-08-10 11:02:24.644026,-155.0
2023-08-10 11:02:24.651716,-162.0
2023-08-10 11:02:24.659406,-184.0
2023-08-10 11:02:24.667096,-212.0
2023-08-10 11:02:24.674785,-212.0
2023-08-10 11:02:24.682475,-198.0
2023-08-10 11:02:24.690165,-186.0
2023-08-10 11:02:24.697855,-145.0
2023-08-10 11:02:24.705545,-83.0
2023-08-10 11:02:24.713235,-16.0
2023-08-10 11:02:24.720925,47.0
2023-08-10 11:02:24.728615,95.0
2023-08-10 11:02:24.736305,124.0
2023-08-10 11:02:24.743995,138.0
2023-08-10 11:02:24.751685,150.0
2023-08-10 11:02:24.759375,153.0
2023-08-10 11:02:24.767065,141.0
2023-08-10 11:02:24.774755,141.0
2023-08-10 11:02:24.782445,148.0
2023-08-10 11:02:24.790135,141.0
2023-08-10 11:02:24.797825,124.0
2023-08-10 11:02:24.805514,124.0
2023-08-10 11:02:24.813204,124.0
2023-08-10 11:02:24.820894,122.0
2023-08-10 11:02:24.828584,114.0
2023-08-10 11:02:24.836274,107.0
2023-08-10 11:02:24.843964,105.0
2023-08-10 11:02:24.851654,105.0
2023-08-10 11:02:24.859344,98.0
2023-08-10 11:02:24.867034,93.0
2023-08-10 11:02:24.874724,90.0
2023-08-10 11:02:24.882414,83.0
2023-08-10 11:02:24.890104,74.0
2023-08-10 11:02:24.897794,76.0
2023-08-10 11:02:24.905484,83.0
2023-08-10 11:02:24.913174,74.0
2023-08-10 11:02:24.920864,59.0
2023-08-10 11:02:24.928553,66.0
2023-08-10 11:02:24.936243,76.0
2023-08-10 11:02:24.943933,66.0
2023-08-10 11:02:24.951623,62.0
2023-08-10 11:02:24.959313,62.0
2023-08-10 11:02:24.967003,57.0
2023-08-10 11:02:24.974693,57.0
2023-08-10 11:02:24.982383,66.0
2023-08-10 11:02:24.990073,64.0
2023-08-10 11:02:24.997763,52.0
2023-08-10 11:02:25.005453,47.0
2023-08-10 11:02:25.013143,55.0
2023-08-10 11:02:25.020833,55.0
2023-08-10 11:02:25.028523,47.0
2023-08-10 11:02:25.036213,40.0
2023-08-10 11:02:25.043903,28.0
2023-08-10 11:02:25.051592,16.0
2023-08-10 11:02:25.059282,16.0
2023-08-10 11:02:25.066972,21.0
2023-08-10 11:02:25.074662,21.0
2023-08-10 11:02:25.082352,28.0
2023-08-10 11:02:25.090042,38.0
2023-08-10 11:02:25.097732,45.0
2023-08-10 11:02:25.105422,45.0
2023-08-10 11:02:25.113112,40.0
2023-08-10 11:02:25.120802,35.0
2023-08-10 11:02:25.128492,35.0
2023-08-10 11:02:25.136182,26.0
2023-08-10 11:02:25.143872,9.0
2023-08-10 11:02:25.151562,9.0
2023-08-10 11:02:25.159252,19.0
2023-08-10 11:02:25.166942,-14.0
2023-08-10 11:02:25.174632,-181.0
2023-08-10 11:02:25.182321,-447.0
2023-08-10 11:02:25.190011,-672.0
2023-08-10 11:02:25.197701,-746.0
2023-08-10 11:02:25.205391,-535.0
2023-08-10 11:02:25.213081,-81.0
2023-08-10 11:02:25.220771,205.0
2023-08-10 11:02:25.228461,133.0
2023-08-10 11:02:25.236151,14.0
2023-08-10 11:02:25.243841,45.0
2023-08-10 11:02:25.251531,86.0
2023-08-10 11:02:25.259221,57.0
2023-08-10 11:02:25.266911,45.0
2023-08-10 11:02:25.274601,50.0
2023-08-10 11:02:25.282291,45.0
2023-08-10 11:02:25.289981,38.0
2023-08-10 11:02:25.297671,31.0
2023-08-10 11:02:25.305360,26.0
2023-08-10 11:02:25.313050,19.0
2023-08-10 11:02:25.320740,7.0
2023-08-10 11:02:25.328430,-2.0
2023-08-10 11:02:25.336120,-7.0
2023-08-10 11:02:25.343810,-14.0
2023-08-10 11:02:25.351500,-28.0
2023-08-10 11:02:25.359190,-45.0
2023-08-10 11:02:25.366880,-55.0
2023-08-10 11:02:25.374570,-62.0
2023-08-10 11:02:25.382260,-83.0
2023-08-10 11:02:25.389950,-110.0
2023-08-10 11:02:25.397640,-126.0
2023-08-10 11:02:25.405330,-143.0
2023-08-10 11:02:25.413020,-162.0
2023-08-10 11:02:25.420710,-179.0
2023-08-10 11:02:25.428400,-193.0
2023-08-10 11:02:25.436089,-212.0
2023-08-10 11:02:25.443779,-217.0
2023-08-10 11:02:25.451469,-205.0
2023-08-10 11:02:25.459159,-181.0
2023-08-10 11:02:25.466849,-133.0
2023-08-10 11:02:25.474539,-74.0
2023-08-10 11:02:25.482229,-7.0
2023-08-10 11:02:25.489919,52.0
2023-08-10 11:02:25.497609,88.0
2023-08-10 11:02:25.505299,102.0
2023-08-10 11:02:25.512989,112.0
2023-08-10 11:02:25.520679,124.0
2023-08-10 11:02:25.528369,131.0
2023-08-10 11:02:25.536059,126.0
2023-08-10 11:02:25.543749,117.0
2023-08-10 11:02:25.551439,114.0
2023-08-10 11:02:25.559128,110.0
2023-08-10 11:02:25.566818,100.0
2023-08-10 11:02:25.574508,102.0
2023-08-10 11:02:25.582198,102.0
2023-08-10 11:02:25.589888,98.0
2023-08-10 11:02:25.597578,90.0
2023-08-10 11:02:25.605268,86.0
2023-08-10 11:02:25.612958,76.0
2023-08-10 11:02:25.620648,62.0
2023-08-10 11:02:25.628338,52.0
2023-08-10 11:02:25.636028,52.0
2023-08-10 11:02:25.643718,52.0
2023-08-10 11:02:25.651408,47.0
2023-08-10 11:02:25.659098,40.0
2023-08-10 11:02:25.666788,35.0
2023-08-10 11:02:25.674478,35.0
2023-08-10 11:02:25.682168,28.0
2023-08-10 11:02:25.689857,7.0
2023-08-10 11:02:25.697547,7.0
2023-08-10 11:02:25.705237,14.0
2023-08-10 11:02:25.712927,11.0
2023-08-10 11:02:25.720617,4.0
2023-08-10 11:02:25.728307,2.0
2023-08-10 11:02:25.735997,4.0
2023-08-10 11:02:25.743687,4.0
2023-08-10 11:02:25.751377,4.0
2023-08-10 11:02:25.759067,7.0
2023-08-10 11:02:25.766757,7.0
2023-08-10 11:02:25.774447,-2.0
2023-08-10 11:02:25.782137,-4.0
2023-08-10 11:02:25.789827,2.0
2023-08-10 11:02:25.797517,2.0
2023-08-10 11:02:25.805207,-2.0
2023-08-10 11:02:25.812896,-2.0
2023-08-10 11:02:25.820586,-4.0
2023-08-10 11:02:25.828276,-2.0
2023-08-10 11:02:25.835966,0.0
2023-08-10 11:02:25.843656,-4.0
2023-08-10 11:02:25.851346,-2.0
2023-08-10 11:02:25.859036,-4.0
2023-08-10 11:02:25.866726,-11.0
2023-08-10 11:02:25.874416,-28.0
2023-08-10 11:02:25.882106,-40.0
2023-08-10 11:02:25.889796,-35.0
2023-08-10 11:02:25.897486,-28.0
2023-08-10 11:02:25.905176,-33.0
2023-08-10 11:02:25.912866,-33.0
2023-08-10 11:02:25.920556,-28.0
2023-08-10 11:02:25.928246,-26.0
2023-08-10 11:02:25.935936,-11.0
2023-08-10 11:02:25.943625,0.0
2023-08-10 11:02:25.951315,-7.0
2023-08-10 11:02:25.959005,-14.0
2023-08-10 11:02:25.966695,-14.0
2023-08-10 11:02:25.974385,-14.0
2023-08-10 11:02:25.982075,-19.0
2023-08-10 11:02:25.989765,-19.0
2023-08-10 11:02:25.997455,-35.0
2023-08-10 11:02:26.005145,-162.0
2023-08-10 11:02:26.012835,-421.0
2023-08-10 11:02:26.020525,-677.0
2023-08-10 11:02:26.028215,-818.0
2023-08-10 11:02:26.035905,-669.0
2023-08-10 11:02:26.043595,-205.0
2023-08-10 11:02:26.051285,141.0
2023-08-10 11:02:26.058975,102.0
2023-08-10 11:02:26.066664,-16.0
2023-08-10 11:02:26.074354,19.0
2023-08-10 11:02:26.082044,57.0
2023-08-10 11:02:26.089734,21.0
2023-08-10 11:02:26.097424,7.0
2023-08-10 11:02:26.105114,19.0
2023-08-10 11:02:26.112804,7.0
2023-08-10 11:02:26.120494,-7.0
2023-08-10 11:02:26.128184,-11.0
2023-08-10 11:02:26.135874,-21.0
2023-08-10 11:02:26.143564,-31.0
2023-08-10 11:02:26.151254,-33.0
2023-08-10 11:02:26.158944,-40.0
2023-08-10 11:02:26.166634,-59.0
2023-08-10 11:02:26.174324,-69.0
2023-08-10 11:02:26.182014,-74.0
2023-08-10 11:02:26.189704,-86.0
2023-08-10 11:02:26.197393,-100.0
2023-08-10 11:02:26.205083,-112.0
2023-08-10 11:02:26.212773,-124.0
2023-08-10 11:02:26.220463,-145.0
2023-08-10 11:02:26.228153,-172.0
2023-08-10 11:02:26.235843,-193.0
2023-08-10 11:02:26.243533,-212.0
2023-08-10 11:02:26.251223,-232.0
2023-08-10 11:02:26.258913,-251.0
2023-08-10 11:02:26.266603,-265.0
2023-08-10 11:02:26.274293,-272.0
2023-08-10 11:02:26.281983,-275.0
2023-08-10 11:02:26.289673,-265.0
2023-08-10 11:02:26.297363,-229.0
2023-08-10 11:02:26.305053,-167.0
2023-08-10 11:02:26.312743,-107.0
2023-08-10 11:02:26.320432,-55.0
2023-08-10 11:02:26.328122,-9.0
2023-08-10 11:02:26.335812,19.0
2023-08-10 11:02:26.343502,33.0
2023-08-10 11:02:26.351192,38.0
2023-08-10 11:02:26.358882,45.0
2023-08-10 11:02:26.366572,47.0
2023-08-10 11:02:26.374262,38.0
2023-08-10 11:02:26.381952,28.0
2023-08-10 11:02:26.389642,28.0
2023-08-10 11:02:26.397332,26.0
2023-08-10 11:02:26.405022,21.0
2023-08-10 11:02:26.412712,19.0
2023-08-10 11:02:26.420402,11.0
2023-08-10 11:02:26.428092,7.0
2023-08-10 11:02:26.435782,7.0
2023-08-10 11:02:26.443471,7.0
2023-08-10 11:02:26.451161,0.0
2023-08-10 11:02:26.458851,-9.0
2023-08-10 11:02:26.466541,-9.0
2023-08-10 11:02:26.474231,-9.0
2023-08-10 11:02:26.481921,-11.0
2023-08-10 11:02:26.489611,-11.0
2023-08-10 11:02:26.497301,-14.0
2023-08-10 11:02:26.504991,-16.0
2023-08-10 11:02:26.512681,-19.0
2023-08-10 11:02:26.520371,-21.0
2023-08-10 11:02:26.528061,-26.0
2023-08-10 11:02:26.535751,-26.0
2023-08-10 11:02:26.543441,-23.0
2023-08-10 11:02:26.551131,-26.0
2023-08-10 11:02:26.558821,-26.0
2023-08-10 11:02:26.566511,-28.0
2023-08-10 11:02:26.574200,-31.0
2023-08-10 11:02:26.581890,-38.0
2023-08-10 11:02:26.589580,-43.0
2023-08-10 11:02:26.597270,-40.0
2023-08-10 11:02:26.604960,-45.0
2023-08-10 11:02:26.612650,-55.0
2023-08-10 11:02:26.620340,-62.0
2023-08-10 11:02:26.628030,-69.0
2023-08-10 11:02:26.635720,-74.0
2023-08-10 11:02:26.643410,-76.0
2023-08-10 11:02:26.651100,-76.0
2023-08-10 11:02:26.658790,-76.0
2023-08-10 11:02:26.666480,-78.0
2023-08-10 11:02:26.674170,-83.0
2023-08-10 11:02:26.681860,-81.0
2023-08-10 11:02:26.689550,-76.0
2023-08-10 11:02:26.697239,-78.0
2023-08-10 11:02:26.704929,-81.0
2023-08-10 11:02:26.712619,-81.0
2023-08-10 11:02:26.720309,-81.0
2023-08-10 11:02:26.727999,-83.0
2023-08-10 11:02:26.735689,-83.0
2023-08-10 11:02:26.743379,-81.0
2023-08-10 11:02:26.751069,-83.0
2023-08-10 11:02:26.758759,-90.0
2023-08-10 11:02:26.766449,-98.0
2023-08-10 11:02:26.774139,-95.0
2023-08-10 11:02:26.781829,-88.0
2023-08-10 11:02:26.789519,-93.0
2023-08-10 11:02:26.797209,-98.0
2023-08-10 11:02:26.804899,-93.0
2023-08-10 11:02:26.812589,-90.0
2023-08-10 11:02:26.820279,-95.0
2023-08-10 11:02:26.827968,-98.0
2023-08-10 11:02:26.835658,-95.0
2023-08-10 11:02:26.843348,-98.0
2023-08-10 11:02:26.851038,-117.0
2023-08-10 11:02:26.858728,-131.0
2023-08-10 11:02:26.866418,-119.0
2023-08-10 11:02:26.874108,-105.0
2023-08-10 11:02:26.881798,-112.0
2023-08-10 11:02:26.889488,-112.0
2023-08-10 11:02:26.897178,-100.0
2023-08-10 11:02:26.904868,-95.0
2023-08-10 11:02:26.912558,-88.0
2023-08-10 11:02:26.920248,-78.0
2023-08-10 11:02:26.927938,-78.0
2023-08-10 11:02:26.935628,-81.0
2023-08-10 11:02:26.943318,-83.0
2023-08-10 11:02:26.951007,-86.0
2023-08-10 11:02:26.958697,-83.0
2023-08-10 11:02:26.966387,-71.0
2023-08-10 11:02:26.974077,-105.0
2023-08-10 11:02:26.981767,-267.0
2023-08-10 11:02:26.989457,-521.0
2023-08-10 11:02:26.997147,-760.0
2023-08-10 11:02:27.004837,-858.0
2023-08-10 11:02:27.012527,-600.0
2023-08-10 11:02:27.020217,-98.0
2023-08-10 11:02:27.027907,114.0
2023-08-10 11:02:27.035597,-16.0
2023-08-10 11:02:27.043287,-66.0
2023-08-10 11:02:27.050977,7.0
2023-08-10 11:02:27.058667,4.0
2023-08-10 11:02:27.066357,-23.0
2023-08-10 11:02:27.074047,-11.0
2023-08-10 11:02:27.081736,-9.0
2023-08-10 11:02:27.089426,-23.0
2023-08-10 11:02:27.097116,-28.0
2023-08-10 11:02:27.104806,-35.0
2023-08-10 11:02:27.112496,-43.0
2023-08-10 11:02:27.120186,-52.0
2023-08-10 11:02:27.127876,-66.0
2023-08-10 11:02:27.135566,-76.0
2023-08-10 11:02:27.143256,-81.0
2023-08-10 11:02:27.150946,-86.0
2023-08-10 11:02:27.158636,-95.0
2023-08-10 11:02:27.166326,-112.0
2023-08-10 11:02:27.174016,-124.0
2023-08-10 11:02:27.181706,-138.0
2023-08-10 11:02:27.189396,-150.0
2023-08-10 11:02:27.197086,-162.0
2023-08-10 11:02:27.204775,-174.0
2023-08-10 11:02:27.212465,-203.0
2023-08-10 11:02:27.220155,-227.0
2023-08-10 11:02:27.227845,-239.0
2023-08-10 11:02:27.235535,-253.0
2023-08-10 11:02:27.243225,-265.0
2023-08-10 11:02:27.250915,-272.0
2023-08-10 11:02:27.258605,-282.0
2023-08-10 11:02:27.266295,-275.0
2023-08-10 11:02:27.273985,-234.0
2023-08-10 11:02:27.281675,-181.0
2023-08-10 11:02:27.289365,-126.0
2023-08-10 11:02:27.297055,-71.0
2023-08-10 11:02:27.304745,-23.0
2023-08-10 11:02:27.312435,7.0
2023-08-10 11:02:27.320125,23.0
2023-08-10 11:02:27.327815,38.0
2023-08-10 11:02:27.335504,45.0
2023-08-10 11:02:27.343194,43.0
2023-08-10 11:02:27.350884,38.0
2023-08-10 11:02:27.358574,33.0
2023-08-10 11:02:27.366264,33.0
2023-08-10 11:02:27.373954,31.0
2023-08-10 11:02:27.381644,28.0
2023-08-10 11:02:27.389334,19.0
2023-08-10 11:02:27.397024,4.0
2023-08-10 11:02:27.404714,0.0
2023-08-10 11:02:27.412404,4.0
2023-08-10 11:02:27.420094,2.0
2023-08-10 11:02:27.427784,0.0
2023-08-10 11:02:27.435474,-4.0
2023-08-10 11:02:27.443164,-7.0
2023-08-10 11:02:27.450854,-7.0
2023-08-10 11:02:27.458543,-7.0
2023-08-10 11:02:27.466233,-11.0
2023-08-10 11:02:27.473923,-11.0
2023-08-10 11:02:27.481613,-16.0
2023-08-10 11:02:27.489303,-26.0
2023-08-10 11:02:27.496993,-26.0
2023-08-10 11:02:27.504683,-28.0
2023-08-10 11:02:27.512373,-28.0
2023-08-10 11:02:27.520063,-28.0
2023-08-10 11:02:27.527753,-35.0
2023-08-10 11:02:27.535443,-45.0
2023-08-10 11:02:27.543133,-45.0
2023-08-10 11:02:27.550823,-43.0
2023-08-10 11:02:27.558513,-45.0
2023-08-10 11:02:27.566203,-47.0
2023-08-10 11:02:27.573893,-47.0
2023-08-10 11:02:27.581582,-50.0
2023-08-10 11:02:27.589272,-55.0
2023-08-10 11:02:27.596962,-55.0
2023-08-10 11:02:27.604652,-55.0
2023-08-10 11:02:27.612342,-57.0
2023-08-10 11:02:27.620032,-57.0
2023-08-10 11:02:27.627722,-62.0
2023-08-10 11:02:27.635412,-69.0
2023-08-10 11:02:27.643102,-69.0
2023-08-10 11:02:27.650792,-66.0
2023-08-10 11:02:27.658482,-64.0
2023-08-10 11:02:27.666172,-64.0
2023-08-10 11:02:27.673862,-64.0
2023-08-10 11:02:27.681552,-64.0
2023-08-10 11:02:27.689242,-66.0
2023-08-10 11:02:27.696932,-66.0
2023-08-10 11:02:27.704622,-66.0
2023-08-10 11:02:27.712311,-64.0
2023-08-10 11:02:27.720001,-66.0
2023-08-10 11:02:27.727691,-69.0
2023-08-10 11:02:27.735381,-69.0
2023-08-10 11:02:27.743071,-66.0
2023-08-10 11:02:27.750761,-66.0
2023-08-10 11:02:27.758451,-69.0
2023-08-10 11:02:27.766141,-69.0
2023-08-10 11:02:27.773831,-69.0
2023-08-10 11:02:27.781521,-69.0
2023-08-10 11:02:27.789211,-66.0
2023-08-10 11:02:27.796901,-66.0
2023-08-10 11:02:27.804591,-66.0
2023-08-10 11:02:27.812281,-69.0
2023-08-10 11:02:27.819971,-64.0
2023-08-10 11:02:27.827661,-62.0
2023-08-10 11:02:27.835350,-62.0
2023-08-10 11:02:27.843040,-64.0
2023-08-10 11:02:27.850730,-69.0
2023-08-10 11:02:27.858420,-66.0
2023-08-10 11:02:27.866110,-66.0
2023-08-10 11:02:27.873800,-66.0
2023-08-10 11:02:27.881490,-64.0
2023-08-10 11:02:27.889180,-62.0
2023-08-10 11:02:27.896870,-66.0
2023-08-10 11:02:27.904560,-71.0
2023-08-10 11:02:27.912250,-71.0
2023-08-10 11:02:27.919940,-81.0
2023-08-10 11:02:27.927630,-95.0
2023-08-10 11:02:27.935320,-98.0
2023-08-10 11:02:27.943010,-93.0
2023-08-10 11:02:27.950700,-93.0
2023-08-10 11:02:27.958390,-93.0
2023-08-10 11:02:27.966079,-86.0
2023-08-10 11:02:27.973769,-74.0
2023-08-10 11:02:27.981459,-62.0
2023-08-10 11:02:27.989149,-57.0
2023-08-10 11:02:27.996839,-59.0
2023-08-10 11:02:28.004529,-59.0
2023-08-10 11:02:28.012219,-57.0
2023-08-10 11:02:28.019909,-59.0
2023-08-10 11:02:28.027599,-62.0
2023-08-10 11:02:28.035289,-57.0
2023-08-10 11:02:28.042979,-88.0
2023-08-10 11:02:28.050669,-244.0
2023-08-10 11:02:28.058359,-485.0
2023-08-10 11:02:28.066049,-705.0
2023-08-10 11:02:28.073739,-784.0
2023-08-10 11:02:28.081429,-535.0
2023-08-10 11:02:28.089118,-71.0
2023-08-10 11:02:28.096808,119.0
2023-08-10 11:02:28.104498,-11.0
2023-08-10 11:02:28.112188,-66.0
2023-08-10 11:02:28.119878,2.0
2023-08-10 11:02:28.127568,0.0
2023-08-10 11:02:28.135258,-38.0
2023-08-10 11:02:28.142948,-28.0
2023-08-10 11:02:28.150638,-23.0
2023-08-10 11:02:28.158328,-35.0
2023-08-10 11:02:28.166018,-40.0
2023-08-10 11:02:28.173708,-43.0
2023-08-10 11:02:28.181398,-52.0
2023-08-10 11:02:28.189088,-59.0
2023-08-10 11:02:28.196778,-64.0
2023-08-10 11:02:28.204468,-71.0
2023-08-10 11:02:28.212158,-78.0
2023-08-10 11:02:28.219847,-86.0
2023-08-10 11:02:28.227537,-95.0
2023-08-10 11:02:28.235227,-107.0
2023-08-10 11:02:28.242917,-119.0
2023-08-10 11:02:28.250607,-133.0
2023-08-10 11:02:28.258297,-153.0
2023-08-10 11:02:28.265987,-167.0
2023-08-10 11:02:28.273677,-181.0
2023-08-10 11:02:28.281367,-198.0
2023-08-10 11:02:28.289057,-215.0
2023-08-10 11:02:28.296747,-236.0
2023-08-10 11:02:28.304437,-258.0
2023-08-10 11:02:28.312127,-275.0
2023-08-10 11:02:28.319817,-289.0
2023-08-10 11:02:28.327507,-294.0
2023-08-10 11:02:28.335197,-289.0
2023-08-10 11:02:28.342886,-267.0
2023-08-10 11:02:28.350576,-222.0
2023-08-10 11:02:28.358266,-165.0
2023-08-10 11:02:28.365956,-112.0
2023-08-10 11:02:28.373646,-62.0
2023-08-10 11:02:28.381336,-23.0
2023-08-10 11:02:28.389026,0.0
2023-08-10 11:02:28.396716,11.0
2023-08-10 11:02:28.404406,19.0
2023-08-10 11:02:28.412096,23.0
2023-08-10 11:02:28.419786,26.0
2023-08-10 11:02:28.427476,23.0
2023-08-10 11:02:28.435166,21.0
2023-08-10 11:02:28.442856,21.0
2023-08-10 11:02:28.450546,21.0
2023-08-10 11:02:28.458236,16.0
2023-08-10 11:02:28.465926,9.0
2023-08-10 11:02:28.473615,-2.0
2023-08-10 11:02:28.481305,-7.0
2023-08-10 11:02:28.488995,-4.0
2023-08-10 11:02:28.496685,-4.0
2023-08-10 11:02:28.504375,-7.0
2023-08-10 11:02:28.512065,-7.0
2023-08-10 11:02:28.519755,-7.0
2023-08-10 11:02:28.527445,-11.0
2023-08-10 11:02:28.535135,-11.0
2023-08-10 11:02:28.542825,-9.0
2023-08-10 11:02:28.550515,-9.0
2023-08-10 11:02:28.558205,-9.0
2023-08-10 11:02:28.565895,-11.0
2023-08-10 11:02:28.573585,-11.0
2023-08-10 11:02:28.581275,-16.0
2023-08-10 11:02:28.588965,-19.0
2023-08-10 11:02:28.596654,-19.0
2023-08-10 11:02:28.604344,-16.0
2023-08-10 11:02:28.612034,-19.0
2023-08-10 11:02:28.619724,-19.0
2023-08-10 11:02:28.627414,-21.0
2023-08-10 11:02:28.635104,-28.0
2023-08-10 11:02:28.642794,-33.0
2023-08-10 11:02:28.650484,-31.0
2023-08-10 11:02:28.658174,-28.0
2023-08-10 11:02:28.665864,-28.0
2023-08-10 11:02:28.673554,-31.0
2023-08-10 11:02:28.681244,-31.0
2023-08-10 11:02:28.688934,-26.0
2023-08-10 11:02:28.696624,-28.0
2023-08-10 11:02:28.704314,-33.0
2023-08-10 11:02:28.712004,-28.0
2023-08-10 11:02:28.719694,-23.0
2023-08-10 11:02:28.727383,-31.0
2023-08-10 11:02:28.735073,-35.0
2023-08-10 11:02:28.742763,-31.0
2023-08-10 11:02:28.750453,-28.0
2023-08-10 11:02:28.758143,-31.0
2023-08-10 11:02:28.765833,-31.0
2023-08-10 11:02:28.773523,-31.0
2023-08-10 11:02:28.781213,-31.0
2023-08-10 11:02:28.788903,-35.0
2023-08-10 11:02:28.796593,-33.0
2023-08-10 11:02:28.804283,-28.0
2023-08-10 11:02:28.811973,-26.0
2023-08-10 11:02:28.819663,-31.0
2023-08-10 11:02:28.827353,-38.0
2023-08-10 11:02:28.835043,-40.0
2023-08-10 11:02:28.842733,-38.0
2023-08-10 11:02:28.850422,-35.0
2023-08-10 11:02:28.858112,-33.0
2023-08-10 11:02:28.865802,-35.0
2023-08-10 11:02:28.873492,-43.0
2023-08-10 11:02:28.881182,-40.0
2023-08-10 11:02:28.888872,-38.0
2023-08-10 11:02:28.896562,-38.0
2023-08-10 11:02:28.904252,-43.0
2023-08-10 11:02:28.911942,-43.0
2023-08-10 11:02:28.919632,-43.0
2023-08-10 11:02:28.927322,-45.0
2023-08-10 11:02:28.935012,-40.0
2023-08-10 11:02:28.942702,-35.0
2023-08-10 11:02:28.950392,-35.0
2023-08-10 11:02:28.958082,-43.0
2023-08-10 11:02:28.965772,-52.0
2023-08-10 11:02:28.973461,-62.0
2023-08-10 11:02:28.981151,-71.0
2023-08-10 11:02:28.988841,-71.0
2023-08-10 11:02:28.996531,-59.0
2023-08-10 11:02:29.004221,-59.0
2023-08-10 11:02:29.011911,-71.0
2023-08-10 11:02:29.019601,-74.0
2023-08-10 11:02:29.027291,-66.0
2023-08-10 11:02:29.034981,-52.0
2023-08-10 11:02:29.042671,-47.0
2023-08-10 11:02:29.050361,-45.0
2023-08-10 11:02:29.058051,-47.0
2023-08-10 11:02:29.065741,-47.0
2023-08-10 11:02:29.073431,-55.0
2023-08-10 11:02:29.081121,-66.0
2023-08-10 11:02:29.088811,-64.0
2023-08-10 11:02:29.096501,-71.0
2023-08-10 11:02:29.104190,-181.0
2023-08-10 11:02:29.111880,-406.0
2023-08-10 11:02:29.119570,-626.0
2023-08-10 11:02:29.127260,-756.0
2023-08-10 11:02:29.134950,-636.0
2023-08-10 11:02:29.142640,-224.0
2023-08-10 11:02:29.150330,86.0
2023-08-10 11:02:29.158020,43.0
2023-08-10 11:02:29.165710,-69.0
2023-08-10 11:02:29.173400,-33.0
2023-08-10 11:02:29.181090,4.0
2023-08-10 11:02:29.188780,-26.0
2023-08-10 11:02:29.196470,-33.0
2023-08-10 11:02:29.204160,-19.0
2023-08-10 11:02:29.211850,-26.0
2023-08-10 11:02:29.219540,-35.0
2023-08-10 11:02:29.227229,-35.0
2023-08-10 11:02:29.234919,-43.0
2023-08-10 11:02:29.242609,-55.0
2023-08-10 11:02:29.250299,-62.0
2023-08-10 11:02:29.257989,-62.0
2023-08-10 11:02:29.265679,-64.0
2023-08-10 11:02:29.273369,-74.0
2023-08-10 11:02:29.281059,-86.0
2023-08-10 11:02:29.288749,-98.0
2023-08-10 11:02:29.296439,-105.0
2023-08-10 11:02:29.304129,-112.0
2023-08-10 11:02:29.311819,-126.0
2023-08-10 11:02:29.319509,-141.0
2023-08-10 11:02:29.327199,-160.0
2023-08-10 11:02:29.334889,-177.0
2023-08-10 11:02:29.342579,-191.0
2023-08-10 11:02:29.350269,-210.0
2023-08-10 11:02:29.357958,-229.0
2023-08-10 11:02:29.365648,-244.0
2023-08-10 11:02:29.373338,-258.0
2023-08-10 11:02:29.381028,-270.0
2023-08-10 11:02:29.388718,-272.0
2023-08-10 11:02:29.396408,-253.0
2023-08-10 11:02:29.404098,-215.0
2023-08-10 11:02:29.411788,-165.0
2023-08-10 11:02:29.419478,-107.0
2023-08-10 11:02:29.427168,-52.0
2023-08-10 11:02:29.434858,-9.0
2023-08-10 11:02:29.442548,21.0
2023-08-10 11:02:29.450238,38.0
2023-08-10 11:02:29.457928,47.0
2023-08-10 11:02:29.465618,52.0
2023-08-10 11:02:29.473308,50.0
2023-08-10 11:02:29.480997,47.0
2023-08-10 11:02:29.488687,50.0
2023-08-10 11:02:29.496377,50.0
2023-08-10 11:02:29.504067,45.0
2023-08-10 11:02:29.511757,40.0
2023-08-10 11:02:29.519447,40.0
2023-08-10 11:02:29.527137,35.0
2023-08-10 11:02:29.534827,31.0
2023-08-10 11:02:29.542517,26.0
2023-08-10 11:02:29.550207,23.0
2023-08-10 11:02:29.557897,23.0
2023-08-10 11:02:29.565587,19.0
2023-08-10 11:02:29.573277,14.0
2023-08-10 11:02:29.580967,14.0
2023-08-10 11:02:29.588657,11.0
2023-08-10 11:02:29.596347,2.0
2023-08-10 11:02:29.604037,-9.0
2023-08-10 11:02:29.611726,-4.0
2023-08-10 11:02:29.619416,0.0
2023-08-10 11:02:29.627106,-4.0
2023-08-10 11:02:29.634796,-9.0
2023-08-10 11:02:29.642486,-9.0
2023-08-10 11:02:29.650176,-11.0
2023-08-10 11:02:29.657866,-16.0
2023-08-10 11:02:29.665556,-16.0
2023-08-10 11:02:29.673246,-14.0
2023-08-10 11:02:29.680936,-14.0
2023-08-10 11:02:29.688626,-14.0
2023-08-10 11:02:29.696316,-11.0
2023-08-10 11:02:29.704006,-11.0
2023-08-10 11:02:29.711696,-14.0
2023-08-10 11:02:29.719386,-14.0
2023-08-10 11:02:29.727076,-16.0
2023-08-10 11:02:29.734765,-16.0
2023-08-10 11:02:29.742455,-11.0
2023-08-10 11:02:29.750145,-14.0
2023-08-10 11:02:29.757835,-16.0
2023-08-10 11:02:29.765525,-14.0
2023-08-10 11:02:29.773215,-11.0
2023-08-10 11:02:29.780905,-14.0
2023-08-10 11:02:29.788595,-14.0
2023-08-10 11:02:29.796285,-11.0
2023-08-10 11:02:29.803975,-11.0
2023-08-10 11:02:29.811665,-11.0
2023-08-10 11:02:29.819355,-16.0
2023-08-10 11:02:29.827045,-23.0
2023-08-10 11:02:29.834735,-26.0
2023-08-10 11:02:29.842425,-26.0
2023-08-10 11:02:29.850115,-26.0
2023-08-10 11:02:29.857805,-28.0
2023-08-10 11:02:29.865494,-31.0
2023-08-10 11:02:29.873184,-31.0
2023-08-10 11:02:29.880874,-35.0
2023-08-10 11:02:29.888564,-40.0
2023-08-10 11:02:29.896254,-40.0
2023-08-10 11:02:29.903944,-40.0
2023-08-10 11:02:29.911634,-45.0
2023-08-10 11:02:29.919324,-50.0
2023-08-10 11:02:29.927014,-50.0
2023-08-10 11:02:29.934704,-50.0
2023-08-10 11:02:29.942394,-52.0
2023-08-10 11:02:29.950084,-52.0
2023-08-10 11:02:29.957774,-52.0
2023-08-10 11:02:29.965464,-52.0
2023-08-10 11:02:29.973154,-52.0
2023-08-10 11:02:29.980844,-55.0
2023-08-10 11:02:29.988533,-59.0
2023-08-10 11:02:29.996223,-69.0
2023-08-10 11:02:30.003913,-83.0
2023-08-10 11:02:30.011603,-86.0
2023-08-10 11:02:30.019293,-69.0
2023-08-10 11:02:30.026983,-66.0
2023-08-10 11:02:30.034673,-74.0
2023-08-10 11:02:30.042363,-69.0
2023-08-10 11:02:30.050053,-59.0
2023-08-10 11:02:30.057743,-50.0
2023-08-10 11:02:30.065433,-43.0
2023-08-10 11:02:30.073123,-47.0
2023-08-10 11:02:30.080813,-47.0
2023-08-10 11:02:30.088503,-45.0
2023-08-10 11:02:30.096193,-47.0
2023-08-10 11:02:30.103883,-52.0
2023-08-10 11:02:30.111572,-47.0
2023-08-10 11:02:30.119262,-62.0
2023-08-10 11:02:30.126952,-184.0
2023-08-10 11:02:30.134642,-413.0
2023-08-10 11:02:30.142332,-629.0
2023-08-10 11:02:30.150022,-720.0
2023-08-10 11:02:30.157712,-552.0
2023-08-10 11:02:30.165402,-150.0
2023-08-10 11:02:30.173092,107.0
2023-08-10 11:02:30.180782,40.0
2023-08-10 11:02:30.188472,-64.0
2023-08-10 11:02:30.196162,-31.0
2023-08-10 11:02:30.203852,-4.0
2023-08-10 11:02:30.211542,-31.0
2023-08-10 11:02:30.219232,-28.0
2023-08-10 11:02:30.226922,-19.0
2023-08-10 11:02:30.234612,-33.0
2023-08-10 11:02:30.242301,-40.0
2023-08-10 11:02:30.249991,-38.0
2023-08-10 11:02:30.257681,-43.0
2023-08-10 11:02:30.265371,-52.0
2023-08-10 11:02:30.273061,-62.0
2023-08-10 11:02:30.280751,-71.0
2023-08-10 11:02:30.288441,-78.0
2023-08-10 11:02:30.296131,-78.0
2023-08-10 11:02:30.303821,-86.0
2023-08-10 11:02:30.311511,-102.0
2023-08-10 11:02:30.319201,-119.0
2023-08-10 11:02:30.326891,-126.0
2023-08-10 11:02:30.334581,-133.0
2023-08-10 11:02:30.342271,-148.0
2023-08-10 11:02:30.349961,-165.0
2023-08-10 11:02:30.357651,-184.0
2023-08-10 11:02:30.365340,-203.0
2023-08-10 11:02:30.373030,-222.0
2023-08-10 11:02:30.380720,-236.0
2023-08-10 11:02:30.388410,-246.0
2023-08-10 11:02:30.396100,-260.0
2023-08-10 11:02:30.403790,-270.0
2023-08-10 11:02:30.411480,-270.0
2023-08-10 11:02:30.419170,-256.0
2023-08-10 11:02:30.426860,-222.0
2023-08-10 11:02:30.434550,-169.0
2023-08-10 11:02:30.442240,-112.0
2023-08-10 11:02:30.449930,-59.0
2023-08-10 11:02:30.457620,-16.0
2023-08-10 11:02:30.465310,9.0
2023-08-10 11:02:30.473000,26.0
2023-08-10 11:02:30.480690,43.0
2023-08-10 11:02:30.488380,55.0
2023-08-10 11:02:30.496069,55.0
2023-08-10 11:02:30.503759,50.0
2023-08-10 11:02:30.511449,50.0
2023-08-10 11:02:30.519139,50.0
2023-08-10 11:02:30.526829,47.0
2023-08-10 11:02:30.534519,45.0
2023-08-10 11:02:30.542209,40.0
2023-08-10 11:02:30.549899,35.0
2023-08-10 11:02:30.557589,31.0
2023-08-10 11:02:30.565279,31.0
2023-08-10 11:02:30.572969,31.0
2023-08-10 11:02:30.580659,28.0
2023-08-10 11:02:30.588349,23.0
2023-08-10 11:02:30.596039,23.0
2023-08-10 11:02:30.603729,21.0
2023-08-10 11:02:30.611419,16.0
2023-08-10 11:02:30.619108,19.0
2023-08-10 11:02:30.626798,16.0
2023-08-10 11:02:30.634488,9.0
2023-08-10 11:02:30.642178,7.0
2023-08-10 11:02:30.649868,7.0
2023-08-10 11:02:30.657558,7.0
2023-08-10 11:02:30.665248,2.0
2023-08-10 11:02:30.672938,-4.0
2023-08-10 11:02:30.680628,-14.0
2023-08-10 11:02:30.688318,-14.0
2023-08-10 11:02:30.696008,-9.0
2023-08-10 11:02:30.703698,-9.0
2023-08-10 11:02:30.711388,-14.0
2023-08-10 11:02:30.719078,-14.0
2023-08-10 11:02:30.726768,-9.0
2023-08-10 11:02:30.734458,-7.0
2023-08-10 11:02:30.742148,-11.0
2023-08-10 11:02:30.749837,-11.0
2023-08-10 11:02:30.757527,-7.0
2023-08-10 11:02:30.765217,-11.0
2023-08-10 11:02:30.772907,-16.0
2023-08-10 11:02:30.780597,-9.0
2023-08-10 11:02:30.788287,-4.0
2023-08-10 11:02:30.795977,-9.0
2023-08-10 11:02:30.803667,-21.0
2023-08-10 11:02:30.811357,-23.0
2023-08-10 11:02:30.819047,-19.0
2023-08-10 11:02:30.826737,-21.0
2023-08-10 11:02:30.834427,-26.0
2023-08-10 11:02:30.842117,-23.0
2023-08-10 11:02:30.849807,-23.0
2023-08-10 11:02:30.857497,-31.0
2023-08-10 11:02:30.865187,-35.0
2023-08-10 11:02:30.872876,-31.0
2023-08-10 11:02:30.880566,-33.0
2023-08-10 11:02:30.888256,-38.0
2023-08-10 11:02:30.895946,-43.0
2023-08-10 11:02:30.903636,-45.0
2023-08-10 11:02:30.911326,-62.0
2023-08-10 11:02:30.919016,-78.0
2023-08-10 11:02:30.926706,-71.0
2023-08-10 11:02:30.934396,-64.0
2023-08-10 11:02:30.942086,-66.0
2023-08-10 11:02:30.949776,-66.0
2023-08-10 11:02:30.957466,-59.0
2023-08-10 11:02:30.965156,-57.0
2023-08-10 11:02:30.972846,-40.0
2023-08-10 11:02:30.980536,-26.0
2023-08-10 11:02:30.988226,-38.0
2023-08-10 11:02:30.995916,-43.0
2023-08-10 11:02:31.003605,-38.0
2023-08-10 11:02:31.011295,-43.0
2023-08-10 11:02:31.018985,-50.0
2023-08-10 11:02:31.026675,-43.0
2023-08-10 11:02:31.034365,-64.0
2023-08-10 11:02:31.042055,-205.0
2023-08-10 11:02:31.049745,-447.0
2023-08-10 11:02:31.057435,-653.0
2023-08-10 11:02:31.065125,-701.0
2023-08-10 11:02:31.072815,-471.0
2023-08-10 11:02:31.080505,-74.0
2023-08-10 11:02:31.088195,122.0
2023-08-10 11:02:31.095885,35.0
2023-08-10 11:02:31.103575,-45.0
2023-08-10 11:02:31.111265,-9.0
2023-08-10 11:02:31.118955,11.0
2023-08-10 11:02:31.126644,-11.0
2023-08-10 11:02:31.134334,-23.0
2023-08-10 11:02:31.142024,-19.0
2023-08-10 11:02:31.149714,-21.0
2023-08-10 11:02:31.157404,-26.0
2023-08-10 11:02:31.165094,-33.0
2023-08-10 11:02:31.172784,-55.0
2023-08-10 11:02:31.180474,-71.0
2023-08-10 11:02:31.188164,-66.0
2023-08-10 11:02:31.195854,-62.0
2023-08-10 11:02:31.203544,-71.0
2023-08-10 11:02:31.211234,-78.0
2023-08-10 11:02:31.218924,-88.0
2023-08-10 11:02:31.226614,-100.0
2023-08-10 11:02:31.234304,-110.0
2023-08-10 11:02:31.241994,-119.0
2023-08-10 11:02:31.249683,-133.0
2023-08-10 11:02:31.257373,-150.0
2023-08-10 11:02:31.265063,-162.0
2023-08-10 11:02:31.272753,-179.0
2023-08-10 11:02:31.280443,-198.0
2023-08-10 11:02:31.288133,-220.0
2023-08-10 11:02:31.295823,-232.0
2023-08-10 11:02:31.303513,-248.0
2023-08-10 11:02:31.311203,-275.0
2023-08-10 11:02:31.318893,-284.0
2023-08-10 11:02:31.326583,-284.0
2023-08-10 11:02:31.334273,-260.0
2023-08-10 11:02:31.341963,-205.0
2023-08-10 11:02:31.349653,-148.0
2023-08-10 11:02:31.357343,-100.0
2023-08-10 11:02:31.365033,-45.0
2023-08-10 11:02:31.372723,-4.0
2023-08-10 11:02:31.380412,9.0
2023-08-10 11:02:31.388102,23.0
2023-08-10 11:02:31.395792,40.0
2023-08-10 11:02:31.403482,40.0
2023-08-10 11:02:31.411172,38.0
2023-08-10 11:02:31.418862,45.0
2023-08-10 11:02:31.426552,43.0
2023-08-10 11:02:31.434242,38.0
2023-08-10 11:02:31.441932,40.0
2023-08-10 11:02:31.449622,43.0
2023-08-10 11:02:31.457312,35.0
2023-08-10 11:02:31.465002,28.0
2023-08-10 11:02:31.472692,33.0
2023-08-10 11:02:31.480382,33.0
2023-08-10 11:02:31.488072,23.0
2023-08-10 11:02:31.495762,23.0
2023-08-10 11:02:31.503451,26.0
2023-08-10 11:02:31.511141,21.0
2023-08-10 11:02:31.518831,19.0
2023-08-10 11:02:31.526521,19.0
2023-08-10 11:02:31.534211,21.0
2023-08-10 11:02:31.541901,19.0
2023-08-10 11:02:31.549591,14.0
2023-08-10 11:02:31.557281,11.0
2023-08-10 11:02:31.564971,4.0
2023-08-10 11:02:31.572661,0.0
2023-08-10 11:02:31.580351,9.0
2023-08-10 11:02:31.588041,9.0
2023-08-10 11:02:31.595731,2.0
2023-08-10 11:02:31.603421,0.0
2023-08-10 11:02:31.611111,2.0
2023-08-10 11:02:31.618801,7.0
2023-08-10 11:02:31.626491,9.0
2023-08-10 11:02:31.634180,4.0
2023-08-10 11:02:31.641870,-2.0
2023-08-10 11:02:31.649560,0.0
2023-08-10 11:02:31.657250,0.0
2023-08-10 11:02:31.664940,-11.0
2023-08-10 11:02:31.672630,-14.0
2023-08-10 11:02:31.680320,-9.0
2023-08-10 11:02:31.688010,-14.0
2023-08-10 11:02:31.695700,-11.0
2023-08-10 11:02:31.703390,-4.0
2023-08-10 11:02:31.711080,-9.0
2023-08-10 11:02:31.718770,-14.0
2023-08-10 11:02:31.726460,-11.0
2023-08-10 11:02:31.734150,-9.0
2023-08-10 11:02:31.741840,-7.0
2023-08-10 11:02:31.749530,-9.0
2023-08-10 11:02:31.757219,-19.0
2023-08-10 11:02:31.764909,-19.0
2023-08-10 11:02:31.772599,-14.0
2023-08-10 11:02:31.780289,-19.0
2023-08-10 11:02:31.787979,-23.0
2023-08-10 11:02:31.795669,-21.0
2023-08-10 11:02:31.803359,-23.0
2023-08-10 11:02:31.811049,-28.0
2023-08-10 11:02:31.818739,-26.0
2023-08-10 11:02:31.826429,-23.0
2023-08-10 11:02:31.834119,-28.0
2023-08-10 11:02:31.841809,-31.0
2023-08-10 11:02:31.849499,-28.0
2023-08-10 11:02:31.857189,-40.0
2023-08-10 11:02:31.864879,-47.0
2023-08-10 11:02:31.872569,-40.0
2023-08-10 11:02:31.880259,-45.0
2023-08-10 11:02:31.887948,-66.0
2023-08-10 11:02:31.895638,-76.0
2023-08-10 11:02:31.903328,-66.0
2023-08-10 11:02:31.911018,-64.0
2023-08-10 11:02:31.918708,-69.0
2023-08-10 11:02:31.926398,-55.0
2023-08-10 11:02:31.934088,-40.0
2023-08-10 11:02:31.941778,-43.0
2023-08-10 11:02:31.949468,-43.0
2023-08-10 11:02:31.957158,-38.0
2023-08-10 11:02:31.964848,-40.0
2023-08-10 11:02:31.972538,-43.0
2023-08-10 11:02:31.980228,-50.0
2023-08-10 11:02:31.987918,-59.0
2023-08-10 11:02:31.995608,-57.0
2023-08-10 11:02:32.003298,-81.0
2023-08-10 11:02:32.010987,-227.0
2023-08-10 11:02:32.018677,-468.0
2023-08-10 11:02:32.026367,-665.0
2023-08-10 11:02:32.034057,-691.0
2023-08-10 11:02:32.041747,-440.0
2023-08-10 11:02:32.049437,-50.0
2023-08-10 11:02:32.057127,114.0
2023-08-10 11:02:32.064817,14.0
2023-08-10 11:02:32.072507,-50.0
2023-08-10 11:02:32.080197,-2.0
2023-08-10 11:02:32.087887,4.0
2023-08-10 11:02:32.095577,-19.0
2023-08-10 11:02:32.103267,-9.0
2023-08-10 11:02:32.110957,-4.0
2023-08-10 11:02:32.118647,-21.0
2023-08-10 11:02:32.126337,-23.0
2023-08-10 11:02:32.134027,-21.0
2023-08-10 11:02:32.141716,-28.0
2023-08-10 11:02:32.149406,-35.0
2023-08-10 11:02:32.157096,-43.0
2023-08-10 11:02:32.164786,-55.0
2023-08-10 11:02:32.172476,-66.0
2023-08-10 11:02:32.180166,-74.0
2023-08-10 11:02:32.187856,-78.0
2023-08-10 11:02:32.195546,-90.0
2023-08-10 11:02:32.203236,-102.0
2023-08-10 11:02:32.210926,-110.0
2023-08-10 11:02:32.218616,-114.0
2023-08-10 11:02:32.226306,-131.0
2023-08-10 11:02:32.233996,-153.0
2023-08-10 11:02:32.241686,-172.0
2023-08-10 11:02:32.249376,-186.0
2023-08-10 11:02:32.257066,-198.0
2023-08-10 11:02:32.264755,-212.0
2023-08-10 11:02:32.272445,-234.0
2023-08-10 11:02:32.280135,-253.0
2023-08-10 11:02:32.287825,-260.0
2023-08-10 11:02:32.295515,-256.0
2023-08-10 11:02:32.303205,-229.0
2023-08-10 11:02:32.310895,-184.0
2023-08-10 11:02:32.318585,-124.0
2023-08-10 11:02:32.326275,-66.0
2023-08-10 11:02:32.333965,-23.0
2023-08-10 11:02:32.341655,11.0
2023-08-10 11:02:32.349345,35.0
2023-08-10 11:02:32.357035,40.0
2023-08-10 11:02:32.364725,45.0
2023-08-10 11:02:32.372415,55.0
2023-08-10 11:02:32.380105,55.0
2023-08-10 11:02:32.387795,45.0
2023-08-10 11:02:32.395484,35.0
2023-08-10 11:02:32.403174,35.0
2023-08-10 11:02:32.410864,43.0
2023-08-10 11:02:32.418554,45.0
2023-08-10 11:02:32.426244,38.0
2023-08-10 11:02:32.433934,28.0
2023-08-10 11:02:32.441624,28.0
2023-08-10 11:02:32.449314,31.0
2023-08-10 11:02:32.457004,35.0
2023-08-10 11:02:32.464694,28.0
2023-08-10 11:02:32.472384,11.0
2023-08-10 11:02:32.480074,7.0
2023-08-10 11:02:32.487764,16.0
2023-08-10 11:02:32.495454,19.0
2023-08-10 11:02:32.503144,16.0
2023-08-10 11:02:32.510834,11.0
2023-08-10 11:02:32.518523,9.0
2023-08-10 11:02:32.526213,16.0
2023-08-10 11:02:32.533903,19.0
2023-08-10 11:02:32.541593,11.0
2023-08-10 11:02:32.549283,4.0
2023-08-10 11:02:32.556973,4.0
2023-08-10 11:02:32.564663,7.0
2023-08-10 11:02:32.572353,2.0
2023-08-10 11:02:32.580043,0.0
2023-08-10 11:02:32.587733,7.0
2023-08-10 11:02:32.595423,9.0
2023-08-10 11:02:32.603113,2.0
2023-08-10 11:02:32.610803,-2.0
2023-08-10 11:02:32.618493,-2.0
2023-08-10 11:02:32.626183,2.0
2023-08-10 11:02:32.633873,0.0
2023-08-10 11:02:32.641562,-7.0
2023-08-10 11:02:32.649252,-2.0
2023-08-10 11:02:32.656942,2.0
2023-08-10 11:02:32.664632,-9.0
2023-08-10 11:02:32.672322,-21.0
2023-08-10 11:02:32.680012,-16.0
2023-08-10 11:02:32.687702,-9.0
2023-08-10 11:02:32.695392,-11.0
2023-08-10 11:02:32.703082,-16.0
2023-08-10 11:02:32.710772,-14.0
2023-08-10 11:02:32.718462,-11.0
2023-08-10 11:02:32.726152,-14.0
2023-08-10 11:02:32.733842,-14.0
2023-08-10 11:02:32.741532,-19.0
2023-08-10 11:02:32.749222,-19.0
2023-08-10 11:02:32.756912,-19.0
2023-08-10 11:02:32.764602,-28.0
2023-08-10 11:02:32.772291,-31.0
2023-08-10 11:02:32.779981,-23.0
2023-08-10 11:02:32.787671,-21.0
2023-08-10 11:02:32.795361,-31.0
2023-08-10 11:02:32.803051,-28.0
2023-08-10 11:02:32.810741,-21.0
2023-08-10 11:02:32.818431,-33.0
2023-08-10 11:02:32.826121,-55.0
2023-08-10 11:02:32.833811,-62.0
2023-08-10 11:02:32.841501,-59.0
2023-08-10 11:02:32.849191,-55.0
2023-08-10 11:02:32.856881,-57.0
2023-08-10 11:02:32.864571,-59.0
2023-08-10 11:02:32.872261,-45.0
2023-08-10 11:02:32.879951,-31.0
2023-08-10 11:02:32.887641,-31.0
2023-08-10 11:02:32.895330,-31.0
2023-08-10 11:02:32.903020,-31.0
2023-08-10 11:02:32.910710,-35.0
2023-08-10 11:02:32.918400,-38.0
2023-08-10 11:02:32.926090,-38.0
2023-08-10 11:02:32.933780,-38.0
2023-08-10 11:02:32.941470,-38.0
2023-08-10 11:02:32.949160,-95.0
2023-08-10 11:02:32.956850,-272.0
2023-08-10 11:02:32.964540,-504.0
2023-08-10 11:02:32.972230,-674.0
2023-08-10 11:02:32.979920,-660.0
2023-08-10 11:02:32.987610,-358.0
2023-08-10 11:02:32.995300,16.0
2023-08-10 11:02:33.002990,107.0
2023-08-10 11:02:33.010680,-23.0
2023-08-10 11:02:33.018370,-59.0
2023-08-10 11:02:33.026059,-4.0
2023-08-10 11:02:33.033749,-11.0
2023-08-10 11:02:33.041439,-31.0
2023-08-10 11:02:33.049129,-16.0
2023-08-10 11:02:33.056819,-23.0
2023-08-10 11:02:33.064509,-52.0
2023-08-10 11:02:33.072199,-62.0
2023-08-10 11:02:33.079889,-52.0
2023-08-10 11:02:33.087579,-55.0
2023-08-10 11:02:33.095269,-74.0
2023-08-10 11:02:33.102959,-81.0
2023-08-10 11:02:33.110649,-86.0
2023-08-10 11:02:33.118339,-100.0
2023-08-10 11:02:33.126029,-110.0
2023-08-10 11:02:33.133719,-112.0
2023-08-10 11:02:33.141409,-117.0
2023-08-10 11:02:33.149098,-126.0
2023-08-10 11:02:33.156788,-138.0
2023-08-10 11:02:33.164478,-150.0
2023-08-10 11:02:33.172168,-165.0
2023-08-10 11:02:33.179858,-179.0
2023-08-10 11:02:33.187548,-191.0
2023-08-10 11:02:33.195238,-200.0
2023-08-10 11:02:33.202928,-217.0
2023-08-10 11:02:33.210618,-246.0
2023-08-10 11:02:33.218308,-265.0
2023-08-10 11:02:33.225998,-263.0
2023-08-10 11:02:33.233688,-263.0
2023-08-10 11:02:33.241378,-272.0
2023-08-10 11:02:33.249068,-246.0
2023-08-10 11:02:33.256758,-179.0
2023-08-10 11:02:33.264448,-117.0
2023-08-10 11:02:33.272138,-71.0
2023-08-10 11:02:33.279827,-28.0
2023-08-10 11:02:33.287517,7.0
2023-08-10 11:02:33.295207,28.0
2023-08-10 11:02:33.302897,35.0
2023-08-10 11:02:33.310587,35.0
2023-08-10 11:02:33.318277,38.0
2023-08-10 11:02:33.325967,43.0
2023-08-10 11:02:33.333657,45.0
2023-08-10 11:02:33.341347,47.0
2023-08-10 11:02:33.349037,43.0
2023-08-10 11:02:33.356727,38.0
2023-08-10 11:02:33.364417,38.0
2023-08-10 11:02:33.372107,31.0
2023-08-10 11:02:33.379797,23.0
2023-08-10 11:02:33.387487,21.0
2023-08-10 11:02:33.395177,16.0
2023-08-10 11:02:33.402866,9.0
2023-08-10 11:02:33.410556,11.0
2023-08-10 11:02:33.418246,14.0
2023-08-10 11:02:33.425936,14.0
2023-08-10 11:02:33.433626,9.0
2023-08-10 11:02:33.441316,4.0
2023-08-10 11:02:33.449006,7.0
2023-08-10 11:02:33.456696,11.0
2023-08-10 11:02:33.464386,4.0
2023-08-10 11:02:33.472076,2.0
2023-08-10 11:02:33.479766,7.0
2023-08-10 11:02:33.487456,4.0
2023-08-10 11:02:33.495146,2.0
2023-08-10 11:02:33.502836,2.0
2023-08-10 11:02:33.510526,0.0
2023-08-10 11:02:33.518216,-4.0
2023-08-10 11:02:33.525906,0.0
2023-08-10 11:02:33.533595,0.0
2023-08-10 11:02:33.541285,-4.0
2023-08-10 11:02:33.548975,-9.0
2023-08-10 11:02:33.556665,-16.0
2023-08-10 11:02:33.564355,-26.0
2023-08-10 11:02:33.572045,-21.0
2023-08-10 11:02:33.579735,-14.0
2023-08-10 11:02:33.587425,-19.0
2023-08-10 11:02:33.595115,-16.0
2023-08-10 11:02:33.602805,-9.0
2023-08-10 11:02:33.610495,-14.0
2023-08-10 11:02:33.618185,-21.0
2023-08-10 11:02:33.625875,-19.0
2023-08-10 11:02:33.633565,-11.0
2023-08-10 11:02:33.641255,-14.0
2023-08-10 11:02:33.648945,-21.0
2023-08-10 11:02:33.656634,-16.0
2023-08-10 11:02:33.664324,-11.0
2023-08-10 11:02:33.672014,-16.0
2023-08-10 11:02:33.679704,-19.0
2023-08-10 11:02:33.687394,-11.0
2023-08-10 11:02:33.695084,-16.0
2023-08-10 11:02:33.702774,-28.0
2023-08-10 11:02:33.710464,-28.0
2023-08-10 11:02:33.718154,-40.0
2023-08-10 11:02:33.725844,-62.0
2023-08-10 11:02:33.733534,-59.0
2023-08-10 11:02:33.741224,-43.0
2023-08-10 11:02:33.748914,-35.0
2023-08-10 11:02:33.756604,-33.0
2023-08-10 11:02:33.764294,-26.0
2023-08-10 11:02:33.771984,-21.0
2023-08-10 11:02:33.779673,-19.0
2023-08-10 11:02:33.787363,-16.0
2023-08-10 11:02:33.795053,-19.0
2023-08-10 11:02:33.802743,-28.0
2023-08-10 11:02:33.810433,-28.0
2023-08-10 11:02:33.818123,-19.0
2023-08-10 11:02:33.825813,-28.0
2023-08-10 11:02:33.833503,-105.0
2023-08-10 11:02:33.841193,-296.0
2023-08-10 11:02:33.848883,-526.0
2023-08-10 11:02:33.856573,-662.0
2023-08-10 11:02:33.864263,-583.0
2023-08-10 11:02:33.871953,-253.0
2023-08-10 11:02:33.879643,71.0
2023-08-10 11:02:33.887333,107.0
2023-08-10 11:02:33.895023,-4.0
2023-08-10 11:02:33.902713,-14.0
2023-08-10 11:02:33.910402,28.0
2023-08-10 11:02:33.918092,7.0
2023-08-10 11:02:33.925782,-19.0
2023-08-10 11:02:33.933472,-7.0
2023-08-10 11:02:33.941162,-11.0
2023-08-10 11:02:33.948852,-28.0
2023-08-10 11:02:33.956542,-33.0
2023-08-10 11:02:33.964232,-45.0
2023-08-10 11:02:33.971922,-62.0
2023-08-10 11:02:33.979612,-57.0
2023-08-10 11:02:33.987302,-57.0
2023-08-10 11:02:33.994992,-69.0
2023-08-10 11:02:34.002682,-81.0
2023-08-10 11:02:34.010372,-90.0
2023-08-10 11:02:34.018062,-100.0
2023-08-10 11:02:34.025752,-110.0
2023-08-10 11:02:34.033441,-124.0
2023-08-10 11:02:34.041131,-138.0
2023-08-10 11:02:34.048821,-157.0
2023-08-10 11:02:34.056511,-179.0
2023-08-10 11:02:34.064201,-196.0
2023-08-10 11:02:34.071891,-210.0
2023-08-10 11:02:34.079581,-224.0
2023-08-10 11:02:34.087271,-246.0
2023-08-10 11:02:34.094961,-263.0
2023-08-10 11:02:34.102651,-272.0
2023-08-10 11:02:34.110341,-275.0
2023-08-10 11:02:34.118031,-270.0
2023-08-10 11:02:34.125721,-253.0
2023-08-10 11:02:34.133411,-224.0
2023-08-10 11:02:34.141101,-167.0
2023-08-10 11:02:34.148791,-98.0
2023-08-10 11:02:34.156481,-47.0
2023-08-10 11:02:34.164170,-9.0
2023-08-10 11:02:34.171860,26.0
2023-08-10 11:02:34.179550,38.0
2023-08-10 11:02:34.187240,26.0
2023-08-10 11:02:34.194930,28.0
2023-08-10 11:02:34.202620,50.0
2023-08-10 11:02:34.210310,50.0
2023-08-10 11:02:34.218000,38.0
2023-08-10 11:02:34.225690,35.0
2023-08-10 11:02:34.233380,38.0
2023-08-10 11:02:34.241070,40.0
2023-08-10 11:02:34.248760,33.0
2023-08-10 11:02:34.256450,26.0
2023-08-10 11:02:34.264140,19.0
2023-08-10 11:02:34.271830,19.0
2023-08-10 11:02:34.279520,19.0
2023-08-10 11:02:34.287209,19.0
2023-08-10 11:02:34.294899,19.0
2023-08-10 11:02:34.302589,19.0
2023-08-10 11:02:34.310279,21.0
2023-08-10 11:02:34.317969,16.0
2023-08-10 11:02:34.325659,9.0
2023-08-10 11:02:34.333349,4.0
2023-08-10 11:02:34.341039,2.0
2023-08-10 11:02:34.348729,9.0
2023-08-10 11:02:34.356419,9.0
2023-08-10 11:02:34.364109,2.0
2023-08-10 11:02:34.371799,0.0
2023-08-10 11:02:34.379489,-4.0
2023-08-10 11:02:34.387179,-7.0
2023-08-10 11:02:34.394869,-2.0
2023-08-10 11:02:34.402559,2.0
2023-08-10 11:02:34.410249,-2.0
2023-08-10 11:02:34.417938,-7.0
2023-08-10 11:02:34.425628,2.0
2023-08-10 11:02:34.433318,2.0
2023-08-10 11:02:34.441008,-11.0
2023-08-10 11:02:34.448698,-14.0
2023-08-10 11:02:34.456388,-9.0
2023-08-10 11:02:34.464078,-9.0
2023-08-10 11:02:34.471768,-7.0
2023-08-10 11:02:34.479458,-4.0
2023-08-10 11:02:34.487148,-7.0
2023-08-10 11:02:34.494838,-9.0
2023-08-10 11:02:34.502528,-11.0
2023-08-10 11:02:34.510218,-9.0
2023-08-10 11:02:34.517908,-9.0
2023-08-10 11:02:34.525598,-14.0
2023-08-10 11:02:34.533288,-19.0
2023-08-10 11:02:34.540977,-14.0
2023-08-10 11:02:34.548667,-14.0
2023-08-10 11:02:34.556357,-19.0
2023-08-10 11:02:34.564047,-21.0
2023-08-10 11:02:34.571737,-19.0
2023-08-10 11:02:34.579427,-11.0
2023-08-10 11:02:34.587117,-11.0
2023-08-10 11:02:34.594807,-11.0
2023-08-10 11:02:34.602497,-14.0
2023-08-10 11:02:34.610187,-16.0
2023-08-10 11:02:34.617877,-16.0
2023-08-10 11:02:34.625567,-26.0
2023-08-10 11:02:34.633257,-50.0
2023-08-10 11:02:34.640947,-64.0
2023-08-10 11:02:34.648637,-62.0
2023-08-10 11:02:34.656327,-50.0
2023-08-10 11:02:34.664017,-40.0
2023-08-10 11:02:34.671706,-31.0
2023-08-10 11:02:34.679396,-23.0
2023-08-10 11:02:34.687086,-19.0
2023-08-10 11:02:34.694776,-14.0
2023-08-10 11:02:34.702466,-11.0
2023-08-10 11:02:34.710156,-19.0
2023-08-10 11:02:34.717846,-33.0
2023-08-10 11:02:34.725536,-43.0
2023-08-10 11:02:34.733226,-33.0
2023-08-10 11:02:34.740916,-50.0
2023-08-10 11:02:34.748606,-179.0
2023-08-10 11:02:34.756296,-409.0
2023-08-10 11:02:34.763986,-610.0
2023-08-10 11:02:34.771676,-679.0
2023-08-10 11:02:34.779366,-492.0
2023-08-10 11:02:34.787056,-95.0
2023-08-10 11:02:34.794745,129.0
2023-08-10 11:02:34.802435,50.0
2023-08-10 11:02:34.810125,-31.0
2023-08-10 11:02:34.817815,9.0
2023-08-10 11:02:34.825505,26.0
2023-08-10 11:02:34.833195,4.0
2023-08-10 11:02:34.840885,9.0
2023-08-10 11:02:34.848575,11.0
2023-08-10 11:02:34.856265,-4.0
2023-08-10 11:02:34.863955,-7.0
2023-08-10 11:02:34.871645,-4.0
2023-08-10 11:02:34.879335,-14.0
2023-08-10 11:02:34.887025,-28.0
2023-08-10 11:02:34.894715,-40.0
2023-08-10 11:02:34.902405,-47.0
2023-08-10 11:02:34.910095,-59.0
2023-08-10 11:02:34.917785,-64.0
2023-08-10 11:02:34.925474,-69.0
2023-08-10 11:02:34.933164,-81.0
2023-08-10 11:02:34.940854,-100.0
2023-08-10 11:02:34.948544,-117.0
2023-08-10 11:02:34.956234,-129.0
2023-08-10 11:02:34.963924,-141.0
2023-08-10 11:02:34.971614,-160.0
2023-08-10 11:02:34.979304,-179.0
2023-08-10 11:02:34.986994,-203.0
2023-08-10 11:02:34.994684,-220.0
2023-08-10 11:02:35.002374,-232.0
2023-08-10 11:02:35.010064,-253.0
2023-08-10 11:02:35.017754,-265.0
2023-08-10 11:02:35.025444,-260.0
2023-08-10 11:02:35.033134,-251.0
2023-08-10 11:02:35.040824,-232.0
2023-08-10 11:02:35.048513,-179.0
2023-08-10 11:02:35.056203,-119.0
2023-08-10 11:02:35.063893,-78.0
2023-08-10 11:02:35.071583,-33.0
2023-08-10 11:02:35.079273,11.0
2023-08-10 11:02:35.086963,31.0
2023-08-10 11:02:35.094653,40.0
2023-08-10 11:02:35.102343,47.0
2023-08-10 11:02:35.110033,50.0
2023-08-10 11:02:35.117723,52.0
2023-08-10 11:02:35.125413,55.0
2023-08-10 11:02:35.133103,50.0
2023-08-10 11:02:35.140793,47.0
2023-08-10 11:02:35.148483,43.0
2023-08-10 11:02:35.156173,43.0
2023-08-10 11:02:35.163863,43.0
2023-08-10 11:02:35.171552,38.0
2023-08-10 11:02:35.179242,28.0
2023-08-10 11:02:35.186932,23.0
2023-08-10 11:02:35.194622,21.0
2023-08-10 11:02:35.202312,23.0
2023-08-10 11:02:35.210002,26.0
2023-08-10 11:02:35.217692,16.0
2023-08-10 11:02:35.225382,2.0
2023-08-10 11:02:35.233072,2.0
2023-08-10 11:02:35.240762,4.0
2023-08-10 11:02:35.248452,2.0
2023-08-10 11:02:35.256142,2.0
2023-08-10 11:02:35.263832,0.0
2023-08-10 11:02:35.271522,-9.0
2023-08-10 11:02:35.279212,-11.0
2023-08-10 11:02:35.286902,-4.0
2023-08-10 11:02:35.294592,-2.0
2023-08-10 11:02:35.302281,-4.0
2023-08-10 11:02:35.309971,-9.0
2023-08-10 11:02:35.317661,-14.0
2023-08-10 11:02:35.325351,-9.0
2023-08-10 11:02:35.333041,-7.0
2023-08-10 11:02:35.340731,-9.0
2023-08-10 11:02:35.348421,-7.0
2023-08-10 11:02:35.356111,-4.0
2023-08-10 11:02:35.363801,-7.0
2023-08-10 11:02:35.371491,-7.0
2023-08-10 11:02:35.379181,-11.0
2023-08-10 11:02:35.386871,-21.0
2023-08-10 11:02:35.394561,-23.0
2023-08-10 11:02:35.402251,-19.0
2023-08-10 11:02:35.409941,-14.0
2023-08-10 11:02:35.417631,-11.0
2023-08-10 11:02:35.425320,-21.0
2023-08-10 11:02:35.433010,-23.0
2023-08-10 11:02:35.440700,-16.0
2023-08-10 11:02:35.448390,-19.0
2023-08-10 11:02:35.456080,-21.0
2023-08-10 11:02:35.463770,-14.0
2023-08-10 11:02:35.471460,-16.0
2023-08-10 11:02:35.479150,-31.0
2023-08-10 11:02:35.486840,-31.0
2023-08-10 11:02:35.494530,-21.0
2023-08-10 11:02:35.502220,-21.0
2023-08-10 11:02:35.509910,-28.0
2023-08-10 11:02:35.517600,-28.0
2023-08-10 11:02:35.525290,-26.0
2023-08-10 11:02:35.532980,-26.0
2023-08-10 11:02:35.540670,-26.0
2023-08-10 11:02:35.548360,-19.0
2023-08-10 11:02:35.556049,-21.0
2023-08-10 11:02:35.563739,-31.0
2023-08-10 11:02:35.571429,-26.0
2023-08-10 11:02:35.579119,-21.0
2023-08-10 11:02:35.586809,-28.0
2023-08-10 11:02:35.594499,-33.0
2023-08-10 11:02:35.602189,-35.0
2023-08-10 11:02:35.609879,-45.0
2023-08-10 11:02:35.617569,-57.0
2023-08-10 11:02:35.625259,-59.0
2023-08-10 11:02:35.632949,-52.0
2023-08-10 11:02:35.640639,-43.0
2023-08-10 11:02:35.648329,-26.0
2023-08-10 11:02:35.656019,-21.0
2023-08-10 11:02:35.663709,-21.0
2023-08-10 11:02:35.671399,-14.0
2023-08-10 11:02:35.679088,-16.0
2023-08-10 11:02:35.686778,-26.0
2023-08-10 11:02:35.694468,-23.0
2023-08-10 11:02:35.702158,-23.0
2023-08-10 11:02:35.709848,-31.0
2023-08-10 11:02:35.717538,-28.0
2023-08-10 11:02:35.725228,-57.0
2023-08-10 11:02:35.732918,-208.0
2023-08-10 11:02:35.740608,-454.0
2023-08-10 11:02:35.748298,-645.0
2023-08-10 11:02:35.755988,-669.0
2023-08-10 11:02:35.763678,-425.0
2023-08-10 11:02:35.771368,-38.0
2023-08-10 11:02:35.779058,119.0
2023-08-10 11:02:35.786748,16.0
2023-08-10 11:02:35.794438,-38.0
2023-08-10 11:02:35.802128,14.0
2023-08-10 11:02:35.809817,21.0
2023-08-10 11:02:35.817507,-7.0
2023-08-10 11:02:35.825197,0.0
2023-08-10 11:02:35.832887,2.0
2023-08-10 11:02:35.840577,-7.0
2023-08-10 11:02:35.848267,-9.0
2023-08-10 11:02:35.855957,-14.0
2023-08-10 11:02:35.863647,-26.0
2023-08-10 11:02:35.871337,-31.0
2023-08-10 11:02:35.879027,-40.0
2023-08-10 11:02:35.886717,-59.0
2023-08-10 11:02:35.894407,-71.0
2023-08-10 11:02:35.902097,-78.0
2023-08-10 11:02:35.909787,-90.0
2023-08-10 11:02:35.917477,-100.0
2023-08-10 11:02:35.925167,-110.0
2023-08-10 11:02:35.932856,-122.0
2023-08-10 11:02:35.940546,-133.0
2023-08-10 11:02:35.948236,-150.0
2023-08-10 11:02:35.955926,-169.0
2023-08-10 11:02:35.963616,-184.0
2023-08-10 11:02:35.971306,-203.0
2023-08-10 11:02:35.978996,-229.0
2023-08-10 11:02:35.986686,-246.0
2023-08-10 11:02:35.994376,-256.0
2023-08-10 11:02:36.002066,-265.0
2023-08-10 11:02:36.009756,-270.0
2023-08-10 11:02:36.017446,-260.0
2023-08-10 11:02:36.025136,-227.0
2023-08-10 11:02:36.032826,-174.0
2023-08-10 11:02:36.040516,-114.0
2023-08-10 11:02:36.048206,-64.0
2023-08-10 11:02:36.055896,-21.0
2023-08-10 11:02:36.063585,11.0
2023-08-10 11:02:36.071275,33.0
2023-08-10 11:02:36.078965,47.0
2023-08-10 11:02:36.086655,50.0
2023-08-10 11:02:36.094345,50.0
2023-08-10 11:02:36.102035,55.0
2023-08-10 11:02:36.109725,59.0
2023-08-10 11:02:36.117415,52.0
2023-08-10 11:02:36.125105,43.0
2023-08-10 11:02:36.132795,43.0
2023-08-10 11:02:36.140485,47.0
2023-08-10 11:02:36.148175,50.0
2023-08-10 11:02:36.155865,43.0
2023-08-10 11:02:36.163555,28.0
2023-08-10 11:02:36.171245,21.0
2023-08-10 11:02:36.178935,26.0
2023-08-10 11:02:36.186624,28.0
2023-08-10 11:02:36.194314,31.0
2023-08-10 11:02:36.202004,26.0
2023-08-10 11:02:36.209694,26.0
2023-08-10 11:02:36.217384,23.0
2023-08-10 11:02:36.225074,14.0
2023-08-10 11:02:36.232764,9.0
2023-08-10 11:02:36.240454,16.0
2023-08-10 11:02:36.248144,16.0
2023-08-10 11:02:36.255834,14.0
2023-08-10 11:02:36.263524,14.0
2023-08-10 11:02:36.271214,9.0
2023-08-10 11:02:36.278904,7.0
2023-08-10 11:02:36.286594,7.0
2023-08-10 11:02:36.294284,7.0
2023-08-10 11:02:36.301974,-4.0
2023-08-10 11:02:36.309663,-9.0
2023-08-10 11:02:36.317353,-4.0
2023-08-10 11:02:36.325043,-4.0
2023-08-10 11:02:36.332733,-9.0
2023-08-10 11:02:36.340423,-4.0
2023-08-10 11:02:36.348113,-4.0
2023-08-10 11:02:36.355803,-11.0
2023-08-10 11:02:36.363493,-14.0
2023-08-10 11:02:36.371183,-9.0
2023-08-10 11:02:36.378873,-9.0
2023-08-10 11:02:36.386563,-16.0
2023-08-10 11:02:36.394253,-19.0
2023-08-10 11:02:36.401943,-14.0
2023-08-10 11:02:36.409633,-14.0
2023-08-10 11:02:36.417323,-19.0
2023-08-10 11:02:36.425013,-19.0
2023-08-10 11:02:36.432703,-14.0
2023-08-10 11:02:36.440392,-11.0
2023-08-10 11:02:36.448082,-4.0
2023-08-10 11:02:36.455772,-14.0
2023-08-10 11:02:36.463462,-31.0
2023-08-10 11:02:36.471152,-33.0
2023-08-10 11:02:36.478842,-28.0
2023-08-10 11:02:36.486532,-33.0
2023-08-10 11:02:36.494222,-28.0
2023-08-10 11:02:36.501912,-21.0
2023-08-10 11:02:36.509602,-26.0
2023-08-10 11:02:36.517292,-26.0
2023-08-10 11:02:36.524982,-23.0
2023-08-10 11:02:36.532672,-31.0
2023-08-10 11:02:36.540362,-33.0
2023-08-10 11:02:36.548052,-33.0
2023-08-10 11:02:36.555742,-45.0
2023-08-10 11:02:36.563431,-57.0
2023-08-10 11:02:36.571121,-55.0
2023-08-10 11:02:36.578811,-50.0
2023-08-10 11:02:36.586501,-50.0
2023-08-10 11:02:36.594191,-43.0
2023-08-10 11:02:36.601881,-28.0
2023-08-10 11:02:36.609571,-19.0
2023-08-10 11:02:36.617261,-21.0
2023-08-10 11:02:36.624951,-21.0
2023-08-10 11:02:36.632641,-11.0
2023-08-10 11:02:36.640331,-16.0
2023-08-10 11:02:36.648021,-21.0
2023-08-10 11:02:36.655711,-16.0
2023-08-10 11:02:36.663401,-19.0
2023-08-10 11:02:36.671091,-26.0
2023-08-10 11:02:36.678781,-69.0
2023-08-10 11:02:36.686471,-229.0
2023-08-10 11:02:36.694160,-466.0
2023-08-10 11:02:36.701850,-643.0
2023-08-10 11:02:36.709540,-650.0
2023-08-10 11:02:36.717230,-378.0
2023-08-10 11:02:36.724920,14.0
2023-08-10 11:02:36.732610,145.0
2023-08-10 11:02:36.740300,26.0
2023-08-10 11:02:36.747990,-21.0
2023-08-10 11:02:36.755680,31.0
2023-08-10 11:02:36.763370,33.0
2023-08-10 11:02:36.771060,11.0
2023-08-10 11:02:36.778750,19.0
2023-08-10 11:02:36.786440,11.0
2023-08-10 11:02:36.794130,-7.0
2023-08-10 11:02:36.801820,-9.0
2023-08-10 11:02:36.809510,-11.0
2023-08-10 11:02:36.817199,-26.0
2023-08-10 11:02:36.824889,-28.0
2023-08-10 11:02:36.832579,-31.0
2023-08-10 11:02:36.840269,-40.0
2023-08-10 11:02:36.847959,-55.0
2023-08-10 11:02:36.855649,-66.0
2023-08-10 11:02:36.863339,-74.0
2023-08-10 11:02:36.871029,-81.0
2023-08-10 11:02:36.878719,-93.0
2023-08-10 11:02:36.886409,-112.0
2023-08-10 11:02:36.894099,-129.0
2023-08-10 11:02:36.901789,-143.0
2023-08-10 11:02:36.909479,-167.0
2023-08-10 11:02:36.917169,-189.0
2023-08-10 11:02:36.924859,-205.0
2023-08-10 11:02:36.932549,-222.0
2023-08-10 11:02:36.940239,-236.0
2023-08-10 11:02:36.947928,-251.0
2023-08-10 11:02:36.955618,-265.0
2023-08-10 11:02:36.963308,-270.0
2023-08-10 11:02:36.970998,-253.0
2023-08-10 11:02:36.978688,-220.0
2023-08-10 11:02:36.986378,-174.0
2023-08-10 11:02:36.994068,-114.0
2023-08-10 11:02:37.001758,-57.0
2023-08-10 11:02:37.009448,-21.0
2023-08-10 11:02:37.017138,-2.0
2023-08-10 11:02:37.024828,16.0
2023-08-10 11:02:37.032518,35.0
2023-08-10 11:02:37.040208,43.0
2023-08-10 11:02:37.047898,38.0
2023-08-10 11:02:37.055588,38.0
2023-08-10 11:02:37.063278,40.0
2023-08-10 11:02:37.070967,43.0
2023-08-10 11:02:37.078657,40.0
2023-08-10 11:02:37.086347,35.0
2023-08-10 11:02:37.094037,35.0
2023-08-10 11:02:37.101727,33.0
2023-08-10 11:02:37.109417,26.0
2023-08-10 11:02:37.117107,23.0
2023-08-10 11:02:37.124797,28.0
2023-08-10 11:02:37.132487,26.0
2023-08-10 11:02:37.140177,23.0
2023-08-10 11:02:37.147867,21.0
2023-08-10 11:02:37.155557,16.0
2023-08-10 11:02:37.163247,16.0
2023-08-10 11:02:37.170937,19.0
2023-08-10 11:02:37.178627,9.0
2023-08-10 11:02:37.186317,9.0
2023-08-10 11:02:37.194007,9.0
2023-08-10 11:02:37.201696,4.0
2023-08-10 11:02:37.209386,0.0
2023-08-10 11:02:37.217076,4.0
2023-08-10 11:02:37.224766,7.0
2023-08-10 11:02:37.232456,0.0
2023-08-10 11:02:37.240146,-2.0
2023-08-10 11:02:37.247836,0.0
2023-08-10 11:02:37.255526,0.0
2023-08-10 11:02:37.263216,-2.0
2023-08-10 11:02:37.270906,0.0
2023-08-10 11:02:37.278596,2.0
2023-08-10 11:02:37.286286,-2.0
2023-08-10 11:02:37.293976,-7.0
2023-08-10 11:02:37.301666,-7.0
2023-08-10 11:02:37.309356,-2.0
2023-08-10 11:02:37.317046,0.0
2023-08-10 11:02:37.324735,4.0
2023-08-10 11:02:37.332425,0.0
2023-08-10 11:02:37.340115,-14.0
2023-08-10 11:02:37.347805,-19.0
2023-08-10 11:02:37.355495,-9.0
2023-08-10 11:02:37.363185,-7.0
2023-08-10 11:02:37.370875,-7.0
2023-08-10 11:02:37.378565,-9.0
2023-08-10 11:02:37.386255,-9.0
2023-08-10 11:02:37.393945,-9.0
2023-08-10 11:02:37.401635,-11.0
2023-08-10 11:02:37.409325,-21.0
2023-08-10 11:02:37.417015,-23.0
2023-08-10 11:02:37.424705,-23.0
2023-08-10 11:02:37.432395,-28.0
2023-08-10 11:02:37.440085,-33.0
2023-08-10 11:02:37.447774,-35.0
2023-08-10 11:02:37.455464,-40.0
2023-08-10 11:02:37.463154,-43.0
2023-08-10 11:02:37.470844,-47.0
2023-08-10 11:02:37.478534,-52.0
2023-08-10 11:02:37.486224,-43.0
2023-08-10 11:02:37.493914,-38.0
2023-08-10 11:02:37.501604,-50.0
2023-08-10 11:02:37.509294,-59.0
2023-08-10 11:02:37.516984,-71.0
2023-08-10 11:02:37.524674,-90.0
2023-08-10 11:02:37.532364,-81.0
2023-08-10 11:02:37.540054,-64.0
2023-08-10 11:02:37.547744,-71.0
2023-08-10 11:02:37.555434,-78.0
2023-08-10 11:02:37.563124,-71.0
2023-08-10 11:02:37.570814,-64.0
2023-08-10 11:02:37.578503,-52.0
2023-08-10 11:02:37.586193,-38.0
2023-08-10 11:02:37.593883,-40.0
2023-08-10 11:02:37.601573,-47.0
2023-08-10 11:02:37.609263,-47.0
2023-08-10 11:02:37.616953,-45.0
2023-08-10 11:02:37.624643,-43.0
2023-08-10 11:02:37.632333,-35.0
2023-08-10 11:02:37.640023,-57.0
2023-08-10 11:02:37.647713,-189.0
2023-08-10 11:02:37.655403,-425.0
2023-08-10 11:02:37.663093,-626.0
2023-08-10 11:02:37.670783,-686.0
2023-08-10 11:02:37.678473,-492.0
2023-08-10 11:02:37.686163,-102.0
2023-08-10 11:02:37.693853,126.0
2023-08-10 11:02:37.701542,50.0
2023-08-10 11:02:37.709232,-43.0
2023-08-10 11:02:37.716922,-9.0
2023-08-10 11:02:37.724612,11.0
2023-08-10 11:02:37.732302,-16.0
2023-08-10 11:02:37.739992,-16.0
2023-08-10 11:02:37.747682,-9.0
2023-08-10 11:02:37.755372,-23.0
2023-08-10 11:02:37.763062,-26.0
2023-08-10 11:02:37.770752,-28.0
2023-08-10 11:02:37.778442,-38.0
2023-08-10 11:02:37.786132,-43.0
2023-08-10 11:02:37.793822,-47.0
2023-08-10 11:02:37.801512,-57.0
2023-08-10 11:02:37.809202,-64.0
2023-08-10 11:02:37.816892,-71.0
2023-08-10 11:02:37.824582,-81.0
2023-08-10 11:02:37.832271,-90.0
2023-08-10 11:02:37.839961,-107.0
2023-08-10 11:02:37.847651,-117.0
2023-08-10 11:02:37.855341,-124.0
2023-08-10 11:02:37.863031,-136.0
2023-08-10 11:02:37.870721,-155.0
2023-08-10 11:02:37.878411,-172.0
2023-08-10 11:02:37.886101,-189.0
2023-08-10 11:02:37.893791,-208.0
2023-08-10 11:02:37.901481,-232.0
2023-08-10 11:02:37.909171,-251.0
2023-08-10 11:02:37.916861,-260.0
2023-08-10 11:02:37.924551,-265.0
2023-08-10 11:02:37.932241,-263.0
2023-08-10 11:02:37.939931,-234.0
2023-08-10 11:02:37.947621,-181.0
2023-08-10 11:02:37.955310,-122.0
2023-08-10 11:02:37.963000,-69.0
2023-08-10 11:02:37.970690,-21.0
2023-08-10 11:02:37.978380,14.0
2023-08-10 11:02:37.986070,35.0
2023-08-10 11:02:37.993760,47.0
2023-08-10 11:02:38.001450,57.0
2023-08-10 11:02:38.009140,57.0
2023-08-10 11:02:38.016830,45.0
2023-08-10 11:02:38.024520,43.0
2023-08-10 11:02:38.032210,40.0
2023-08-10 11:02:38.039900,33.0
2023-08-10 11:02:38.047590,33.0
2023-08-10 11:02:38.055280,33.0
2023-08-10 11:02:38.062970,19.0
2023-08-10 11:02:38.070660,14.0
2023-08-10 11:02:38.078350,21.0
2023-08-10 11:02:38.086039,21.0
2023-08-10 11:02:38.093729,14.0
2023-08-10 11:02:38.101419,11.0
2023-08-10 11:02:38.109109,16.0
2023-08-10 11:02:38.116799,16.0
2023-08-10 11:02:38.124489,11.0
2023-08-10 11:02:38.132179,7.0
2023-08-10 11:02:38.139869,7.0
2023-08-10 11:02:38.147559,4.0
2023-08-10 11:02:38.155249,0.0
2023-08-10 11:02:38.162939,0.0
2023-08-10 11:02:38.170629,4.0
2023-08-10 11:02:38.178319,2.0
2023-08-10 11:02:38.186009,-2.0
2023-08-10 11:02:38.193699,-2.0
2023-08-10 11:02:38.201389,-2.0
2023-08-10 11:02:38.209078,0.0
2023-08-10 11:02:38.216768,-2.0
2023-08-10 11:02:38.224458,-7.0
2023-08-10 11:02:38.232148,-2.0
2023-08-10 11:02:38.239838,-2.0
2023-08-10 11:02:38.247528,-4.0
2023-08-10 11:02:38.255218,-4.0
2023-08-10 11:02:38.262908,-2.0
2023-08-10 11:02:38.270598,-9.0
2023-08-10 11:02:38.278288,-11.0
2023-08-10 11:02:38.285978,-4.0
2023-08-10 11:02:38.293668,-2.0
2023-08-10 11:02:38.301358,-7.0
2023-08-10 11:02:38.309048,-9.0
2023-08-10 11:02:38.316738,-7.0
2023-08-10 11:02:38.324428,-7.0
2023-08-10 11:02:38.332118,-9.0
2023-08-10 11:02:38.339807,-7.0
2023-08-10 11:02:38.347497,-9.0
2023-08-10 11:02:38.355187,-11.0
2023-08-10 11:02:38.362877,-9.0
2023-08-10 11:02:38.370567,-11.0
2023-08-10 11:02:38.378257,-21.0
2023-08-10 11:02:38.385947,-21.0
2023-08-10 11:02:38.393637,-11.0
2023-08-10 11:02:38.401327,-9.0
2023-08-10 11:02:38.409017,-16.0
2023-08-10 11:02:38.416707,-23.0
2023-08-10 11:02:38.424397,-28.0
2023-08-10 11:02:38.432087,-26.0
2023-08-10 11:02:38.439777,-26.0
2023-08-10 11:02:38.447467,-31.0
2023-08-10 11:02:38.455157,-33.0
2023-08-10 11:02:38.462846,-28.0
2023-08-10 11:02:38.470536,-35.0
2023-08-10 11:02:38.478226,-40.0
2023-08-10 11:02:38.485916,-31.0
2023-08-10 11:02:38.493606,-31.0
2023-08-10 11:02:38.501296,-33.0
2023-08-10 11:02:38.508986,-33.0
2023-08-10 11:02:38.516676,-31.0
2023-08-10 11:02:38.524366,-31.0
2023-08-10 11:02:38.532056,-38.0
2023-08-10 11:02:38.539746,-43.0
2023-08-10 11:02:38.547436,-40.0
2023-08-10 11:02:38.555126,-50.0
2023-08-10 11:02:38.562816,-69.0
2023-08-10 11:02:38.570506,-66.0
2023-08-10 11:02:38.578196,-50.0
2023-08-10 11:02:38.585886,-47.0
2023-08-10 11:02:38.593575,-57.0
2023-08-10 11:02:38.601265,-66.0
2023-08-10 11:02:38.608955,-69.0
2023-08-10 11:02:38.616645,-52.0
2023-08-10 11:02:38.624335,-35.0
2023-08-10 11:02:38.632025,-40.0
2023-08-10 11:02:38.639715,-52.0
2023-08-10 11:02:38.647405,-59.0
2023-08-10 11:02:38.655095,-57.0
2023-08-10 11:02:38.662785,-55.0
2023-08-10 11:02:38.670475,-47.0
2023-08-10 11:02:38.678165,-59.0
2023-08-10 11:02:38.685855,-165.0
2023-08-10 11:02:38.693545,-382.0
2023-08-10 11:02:38.701235,-598.0
2023-08-10 11:02:38.708925,-708.0
2023-08-10 11:02:38.716614,-590.0
2023-08-10 11:02:38.724304,-212.0
2023-08-10 11:02:38.731994,86.0
2023-08-10 11:02:38.739684,52.0
2023-08-10 11:02:38.747374,-57.0
2023-08-10 11:02:38.755064,-26.0
2023-08-10 11:02:38.762754,9.0
2023-08-10 11:02:38.770444,-16.0
2023-08-10 11:02:38.778134,-16.0
2023-08-10 11:02:38.785824,-4.0
2023-08-10 11:02:38.793514,-23.0
2023-08-10 11:02:38.801204,-38.0
2023-08-10 11:02:38.808894,-33.0
2023-08-10 11:02:38.816584,-38.0
2023-08-10 11:02:38.824274,-45.0
2023-08-10 11:02:38.831964,-52.0
2023-08-10 11:02:38.839653,-57.0
2023-08-10 11:02:38.847343,-62.0
2023-08-10 11:02:38.855033,-66.0
2023-08-10 11:02:38.862723,-74.0
2023-08-10 11:02:38.870413,-83.0
2023-08-10 11:02:38.878103,-93.0
2023-08-10 11:02:38.885793,-112.0
2023-08-10 11:02:38.893483,-124.0
2023-08-10 11:02:38.901173,-129.0
2023-08-10 11:02:38.908863,-148.0
2023-08-10 11:02:38.916553,-177.0
2023-08-10 11:02:38.924243,-203.0
2023-08-10 11:02:38.931933,-222.0
2023-08-10 11:02:38.939623,-234.0
2023-08-10 11:02:38.947313,-244.0
2023-08-10 11:02:38.955003,-260.0
2023-08-10 11:02:38.962693,-267.0
2023-08-10 11:02:38.970382,-263.0
2023-08-10 11:02:38.978072,-244.0
2023-08-10 11:02:38.985762,-200.0
2023-08-10 11:02:38.993452,-150.0
2023-08-10 11:02:39.001142,-102.0
2023-08-10 11:02:39.008832,-45.0
2023-08-10 11:02:39.016522,-2.0
2023-08-10 11:02:39.024212,23.0
2023-08-10 11:02:39.031902,45.0
2023-08-10 11:02:39.039592,57.0
2023-08-10 11:02:39.047282,52.0
2023-08-10 11:02:39.054972,57.0
2023-08-10 11:02:39.062662,59.0
2023-08-10 11:02:39.070352,57.0
2023-08-10 11:02:39.078042,57.0
2023-08-10 11:02:39.085732,45.0
2023-08-10 11:02:39.093421,35.0
2023-08-10 11:02:39.101111,45.0
2023-08-10 11:02:39.108801,45.0
2023-08-10 11:02:39.116491,35.0
2023-08-10 11:02:39.124181,33.0
2023-08-10 11:02:39.131871,33.0
2023-08-10 11:02:39.139561,26.0
2023-08-10 11:02:39.147251,14.0
2023-08-10 11:02:39.154941,9.0
2023-08-10 11:02:39.162631,16.0
2023-08-10 11:02:39.170321,19.0
2023-08-10 11:02:39.178011,-2.0
2023-08-10 11:02:39.185701,-19.0
2023-08-10 11:02:39.193391,-14.0
2023-08-10 11:02:39.201081,-7.0
2023-08-10 11:02:39.208771,-9.0
2023-08-10 11:02:39.216461,-14.0
2023-08-10 11:02:39.224150,-9.0
2023-08-10 11:02:39.231840,0.0
2023-08-10 11:02:39.239530,-7.0
2023-08-10 11:02:39.247220,-23.0
2023-08-10 11:02:39.254910,-21.0
2023-08-10 11:02:39.262600,-11.0
2023-08-10 11:02:39.270290,-9.0
2023-08-10 11:02:39.277980,-16.0
2023-08-10 11:02:39.285670,-16.0
2023-08-10 11:02:39.293360,-14.0
2023-08-10 11:02:39.301050,-14.0
2023-08-10 11:02:39.308740,-19.0
2023-08-10 11:02:39.316430,-21.0
2023-08-10 11:02:39.324120,-14.0
2023-08-10 11:02:39.331810,-4.0
2023-08-10 11:02:39.339500,-7.0
2023-08-10 11:02:39.347189,-19.0
2023-08-10 11:02:39.354879,-16.0
2023-08-10 11:02:39.362569,-14.0
2023-08-10 11:02:39.370259,-28.0
2023-08-10 11:02:39.377949,-31.0
2023-08-10 11:02:39.385639,-19.0
2023-08-10 11:02:39.393329,-21.0
2023-08-10 11:02:39.401019,-28.0
2023-08-10 11:02:39.408709,-23.0
2023-08-10 11:02:39.416399,-23.0
2023-08-10 11:02:39.424089,-33.0
2023-08-10 11:02:39.431779,-40.0
2023-08-10 11:02:39.439469,-40.0
2023-08-10 11:02:39.447159,-33.0
2023-08-10 11:02:39.454849,-31.0
2023-08-10 11:02:39.462539,-47.0
2023-08-10 11:02:39.470229,-59.0
2023-08-10 11:02:39.477918,-50.0
2023-08-10 11:02:39.485608,-40.0
2023-08-10 11:02:39.493298,-43.0
2023-08-10 11:02:39.500988,-40.0
2023-08-10 11:02:39.508678,-38.0
2023-08-10 11:02:39.516368,-38.0
2023-08-10 11:02:39.524058,-43.0
2023-08-10 11:02:39.531748,-45.0
2023-08-10 11:02:39.539438,-52.0
2023-08-10 11:02:39.547128,-59.0
2023-08-10 11:02:39.554818,-50.0
2023-08-10 11:02:39.562508,-55.0
2023-08-10 11:02:39.570198,-78.0
2023-08-10 11:02:39.577888,-76.0
2023-08-10 11:02:39.585578,-57.0
2023-08-10 11:02:39.593268,-64.0
2023-08-10 11:02:39.600957,-69.0
2023-08-10 11:02:39.608647,-62.0
2023-08-10 11:02:39.616337,-59.0
2023-08-10 11:02:39.624027,-52.0
2023-08-10 11:02:39.631717,-40.0
2023-08-10 11:02:39.639407,-40.0
2023-08-10 11:02:39.647097,-45.0
2023-08-10 11:02:39.654787,-43.0
2023-08-10 11:02:39.662477,-45.0
2023-08-10 11:02:39.670167,-59.0
2023-08-10 11:02:39.677857,-74.0
2023-08-10 11:02:39.685547,-105.0
2023-08-10 11:02:39.693237,-248.0
2023-08-10 11:02:39.700927,-497.0
2023-08-10 11:02:39.708617,-696.0
2023-08-10 11:02:39.716307,-712.0
2023-08-10 11:02:39.723997,-459.0
2023-08-10 11:02:39.731686,-66.0
2023-08-10 11:02:39.739376,117.0
2023-08-10 11:02:39.747066,23.0
2023-08-10 11:02:39.754756,-57.0
2023-08-10 11:02:39.762446,-19.0
2023-08-10 11:02:39.770136,0.0
2023-08-10 11:02:39.777826,-28.0
2023-08-10 11:02:39.785516,-31.0
2023-08-10 11:02:39.793206,-16.0
2023-08-10 11:02:39.800896,-19.0
2023-08-10 11:02:39.808586,-26.0
2023-08-10 11:02:39.816276,-28.0
2023-08-10 11:02:39.823966,-47.0
2023-08-10 11:02:39.831656,-64.0
2023-08-10 11:02:39.839346,-59.0
2023-08-10 11:02:39.847036,-52.0
2023-08-10 11:02:39.854725,-62.0
2023-08-10 11:02:39.862415,-83.0
2023-08-10 11:02:39.870105,-93.0
2023-08-10 11:02:39.877795,-86.0
2023-08-10 11:02:39.885485,-86.0
2023-08-10 11:02:39.893175,-117.0
2023-08-10 11:02:39.900865,-143.0
2023-08-10 11:02:39.908555,-153.0
2023-08-10 11:02:39.916245,-162.0
2023-08-10 11:02:39.923935,-177.0
2023-08-10 11:02:39.931625,-196.0
2023-08-10 11:02:39.939315,-229.0
2023-08-10 11:02:39.947005,-256.0
2023-08-10 11:02:39.954695,-260.0
2023-08-10 11:02:39.962385,-267.0
2023-08-10 11:02:39.970075,-277.0
2023-08-10 11:02:39.977764,-265.0
2023-08-10 11:02:39.985454,-236.0
2023-08-10 11:02:39.993144,-186.0
2023-08-10 11:02:40.000834,-119.0
2023-08-10 11:02:40.008524,-57.0
2023-08-10 11:02:40.016214,-9.0
2023-08-10 11:02:40.023904,16.0
2023-08-10 11:02:40.031594,28.0
2023-08-10 11:02:40.039284,50.0
2023-08-10 11:02:40.046974,74.0
2023-08-10 11:02:40.054664,64.0
2023-08-10 11:02:40.062354,55.0
2023-08-10 11:02:40.070044,66.0
2023-08-10 11:02:40.077734,71.0
2023-08-10 11:02:40.085424,57.0
2023-08-10 11:02:40.093114,57.0
2023-08-10 11:02:40.100804,62.0
2023-08-10 11:02:40.108493,50.0
2023-08-10 11:02:40.116183,45.0
2023-08-10 11:02:40.123873,50.0
2023-08-10 11:02:40.131563,40.0
2023-08-10 11:02:40.139253,40.0
2023-08-10 11:02:40.146943,47.0
2023-08-10 11:02:40.154633,35.0
2023-08-10 11:02:40.162323,19.0
2023-08-10 11:02:40.170013,23.0
2023-08-10 11:02:40.177703,33.0
2023-08-10 11:02:40.185393,31.0
2023-08-10 11:02:40.193083,16.0
2023-08-10 11:02:40.200773,9.0
2023-08-10 11:02:40.208463,19.0
2023-08-10 11:02:40.216153,19.0
2023-08-10 11:02:40.223843,11.0
2023-08-10 11:02:40.231532,16.0
2023-08-10 11:02:40.239222,21.0
2023-08-10 11:02:40.246912,9.0
2023-08-10 11:02:40.254602,7.0
2023-08-10 11:02:40.262292,9.0
2023-08-10 11:02:40.269982,-7.0
2023-08-10 11:02:40.277672,-16.0
2023-08-10 11:02:40.285362,-4.0
2023-08-10 11:02:40.293052,0.0
2023-08-10 11:02:40.300742,-7.0
2023-08-10 11:02:40.308432,-7.0
2023-08-10 11:02:40.316122,-2.0
2023-08-10 11:02:40.323812,-2.0
2023-08-10 11:02:40.331502,-7.0
2023-08-10 11:02:40.339192,-9.0
2023-08-10 11:02:40.346882,-11.0
2023-08-10 11:02:40.354572,-7.0
2023-08-10 11:02:40.362261,-4.0
2023-08-10 11:02:40.369951,-14.0
2023-08-10 11:02:40.377641,-21.0
2023-08-10 11:02:40.385331,-11.0
2023-08-10 11:02:40.393021,-7.0
2023-08-10 11:02:40.400711,-7.0
2023-08-10 11:02:40.408401,-14.0
2023-08-10 11:02:40.416091,-19.0
2023-08-10 11:02:40.423781,-16.0
2023-08-10 11:02:40.431471,-19.0
2023-08-10 11:02:40.439161,-28.0
2023-08-10 11:02:40.446851,-31.0
2023-08-10 11:02:40.454541,-28.0
2023-08-10 11:02:40.462231,-28.0
2023-08-10 11:02:40.469921,-28.0
2023-08-10 11:02:40.477611,-33.0
2023-08-10 11:02:40.485300,-33.0
2023-08-10 11:02:40.492990,-28.0
2023-08-10 11:02:40.500680,-28.0
2023-08-10 11:02:40.508370,-33.0
2023-08-10 11:02:40.516060,-38.0
2023-08-10 11:02:40.523750,-50.0
2023-08-10 11:02:40.531440,-66.0
2023-08-10 11:02:40.539130,-71.0
2023-08-10 11:02:40.546820,-55.0
2023-08-10 11:02:40.554510,-55.0
2023-08-10 11:02:40.562200,-69.0
2023-08-10 11:02:40.569890,-62.0
2023-08-10 11:02:40.577580,-50.0
2023-08-10 11:02:40.585270,-47.0
2023-08-10 11:02:40.592960,-35.0
2023-08-10 11:02:40.600650,-31.0
2023-08-10 11:02:40.608340,-52.0
2023-08-10 11:02:40.616029,-57.0
2023-08-10 11:02:40.623719,-40.0
2023-08-10 11:02:40.631409,-45.0
2023-08-10 11:02:40.639099,-50.0
2023-08-10 11:02:40.646789,-52.0
2023-08-10 11:02:40.654479,-145.0
2023-08-10 11:02:40.662169,-358.0
2023-08-10 11:02:40.669859,-581.0
2023-08-10 11:02:40.677549,-720.0
2023-08-10 11:02:40.685239,-636.0
2023-08-10 11:02:40.692929,-256.0
2023-08-10 11:02:40.700619,88.0
2023-08-10 11:02:40.708309,83.0
2023-08-10 11:02:40.715999,-40.0
2023-08-10 11:02:40.723689,-23.0
2023-08-10 11:02:40.731379,21.0
2023-08-10 11:02:40.739068,0.0
2023-08-10 11:02:40.746758,-7.0
2023-08-10 11:02:40.754448,2.0
2023-08-10 11:02:40.762138,-11.0
2023-08-10 11:02:40.769828,-16.0
2023-08-10 11:02:40.777518,-11.0
2023-08-10 11:02:40.785208,-19.0
2023-08-10 11:02:40.792898,-31.0
2023-08-10 11:02:40.800588,-40.0
2023-08-10 11:02:40.808278,-55.0
2023-08-10 11:02:40.815968,-64.0
2023-08-10 11:02:40.823658,-71.0
2023-08-10 11:02:40.831348,-78.0
2023-08-10 11:02:40.839038,-90.0
2023-08-10 11:02:40.846728,-98.0
2023-08-10 11:02:40.854418,-107.0
2023-08-10 11:02:40.862108,-122.0
2023-08-10 11:02:40.869797,-131.0
2023-08-10 11:02:40.877487,-138.0
2023-08-10 11:02:40.885177,-157.0
2023-08-10 11:02:40.892867,-181.0
2023-08-10 11:02:40.900557,-208.0
2023-08-10 11:02:40.908247,-227.0
2023-08-10 11:02:40.915937,-239.0
2023-08-10 11:02:40.923627,-248.0
2023-08-10 11:02:40.931317,-260.0
2023-08-10 11:02:40.939007,-265.0
2023-08-10 11:02:40.946697,-251.0
2023-08-10 11:02:40.954387,-205.0
2023-08-10 11:02:40.962077,-143.0
2023-08-10 11:02:40.969767,-88.0
2023-08-10 11:02:40.977457,-43.0
2023-08-10 11:02:40.985147,0.0
2023-08-10 11:02:40.992836,33.0
2023-08-10 11:02:41.000526,52.0
2023-08-10 11:02:41.008216,59.0
2023-08-10 11:02:41.015906,52.0
2023-08-10 11:02:41.023596,45.0
2023-08-10 11:02:41.031286,50.0
2023-08-10 11:02:41.038976,57.0
2023-08-10 11:02:41.046666,55.0
2023-08-10 11:02:41.054356,45.0
2023-08-10 11:02:41.062046,43.0
2023-08-10 11:02:41.069736,45.0
2023-08-10 11:02:41.077426,40.0
2023-08-10 11:02:41.085116,33.0
2023-08-10 11:02:41.092806,31.0
2023-08-10 11:02:41.100496,35.0
2023-08-10 11:02:41.108186,35.0
2023-08-10 11:02:41.115876,23.0
2023-08-10 11:02:41.123565,14.0
2023-08-10 11:02:41.131255,16.0
2023-08-10 11:02:41.138945,19.0
2023-08-10 11:02:41.146635,9.0
2023-08-10 11:02:41.154325,11.0
2023-08-10 11:02:41.162015,14.0
2023-08-10 11:02:41.169705,9.0
2023-08-10 11:02:41.177395,4.0
2023-08-10 11:02:41.185085,0.0
2023-08-10 11:02:41.192775,-2.0
2023-08-10 11:02:41.200465,0.0
2023-08-10 11:02:41.208155,0.0
2023-08-10 11:02:41.215845,-2.0
2023-08-10 11:02:41.223535,4.0
2023-08-10 11:02:41.231225,4.0
2023-08-10 11:02:41.238915,-2.0
2023-08-10 11:02:41.246604,-9.0
2023-08-10 11:02:41.254294,-11.0
2023-08-10 11:02:41.261984,-16.0
2023-08-10 11:02:41.269674,-16.0
2023-08-10 11:02:41.277364,-9.0
2023-08-10 11:02:41.285054,-7.0
2023-08-10 11:02:41.292744,-7.0
2023-08-10 11:02:41.300434,-7.0
2023-08-10 11:02:41.308124,-11.0
2023-08-10 11:02:41.315814,-21.0
2023-08-10 11:02:41.323504,-16.0
2023-08-10 11:02:41.331194,-14.0
2023-08-10 11:02:41.338884,-21.0
2023-08-10 11:02:41.346574,-21.0
2023-08-10 11:02:41.354264,-11.0
2023-08-10 11:02:41.361954,-14.0
2023-08-10 11:02:41.369643,-21.0
2023-08-10 11:02:41.377333,-23.0
2023-08-10 11:02:41.385023,-23.0
2023-08-10 11:02:41.392713,-26.0
2023-08-10 11:02:41.400403,-26.0
2023-08-10 11:02:41.408093,-23.0
2023-08-10 11:02:41.415783,-21.0
2023-08-10 11:02:41.423473,-14.0
2023-08-10 11:02:41.431163,-23.0
2023-08-10 11:02:41.438853,-45.0
2023-08-10 11:02:41.446543,-50.0
2023-08-10 11:02:41.454233,-45.0
2023-08-10 11:02:41.461923,-45.0
2023-08-10 11:02:41.469613,-47.0
2023-08-10 11:02:41.477303,-50.0
2023-08-10 11:02:41.484993,-55.0
2023-08-10 11:02:41.492683,-55.0
2023-08-10 11:02:41.500372,-47.0
2023-08-10 11:02:41.508062,-47.0
2023-08-10 11:02:41.515752,-62.0
2023-08-10 11:02:41.523442,-76.0
2023-08-10 11:02:41.531132,-83.0
2023-08-10 11:02:41.538822,-90.0
2023-08-10 11:02:41.546512,-81.0
2023-08-10 11:02:41.554202,-74.0
2023-08-10 11:02:41.561892,-83.0
2023-08-10 11:02:41.569582,-83.0
2023-08-10 11:02:41.577272,-71.0
2023-08-10 11:02:41.584962,-59.0
2023-08-10 11:02:41.592652,-47.0
2023-08-10 11:02:41.600342,-47.0
2023-08-10 11:02:41.608032,-47.0
2023-08-10 11:02:41.615722,-47.0
2023-08-10 11:02:41.623411,-59.0
2023-08-10 11:02:41.631101,-62.0
2023-08-10 11:02:41.638791,-55.0
2023-08-10 11:02:41.646481,-62.0
2023-08-10 11:02:41.654171,-133.0
2023-08-10 11:02:41.661861,-325.0
2023-08-10 11:02:41.669551,-557.0
2023-08-10 11:02:41.677241,-705.0
2023-08-10 11:02:41.684931,-631.0
2023-08-10 11:02:41.692621,-282.0
2023-08-10 11:02:41.700311,55.0
2023-08-10 11:02:41.708001,83.0
2023-08-10 11:02:41.715691,-28.0
2023-08-10 11:02:41.723381,-23.0
2023-08-10 11:02:41.731071,16.0
2023-08-10 11:02:41.738761,-7.0
2023-08-10 11:02:41.746451,-23.0
2023-08-10 11:02:41.754140,-9.0
2023-08-10 11:02:41.761830,-7.0
2023-08-10 11:02:41.769520,-19.0
2023-08-10 11:02:41.777210,-23.0
2023-08-10 11:02:41.784900,-21.0
2023-08-10 11:02:41.792590,-28.0
2023-08-10 11:02:41.800280,-47.0
2023-08-10 11:02:41.807970,-55.0
2023-08-10 11:02:41.815660,-47.0
2023-08-10 11:02:41.823350,-50.0
2023-08-10 11:02:41.831040,-69.0
2023-08-10 11:02:41.838730,-83.0
2023-08-10 11:02:41.846420,-86.0
2023-08-10 11:02:41.854110,-95.0
2023-08-10 11:02:41.861800,-110.0
2023-08-10 11:02:41.869490,-119.0
2023-08-10 11:02:41.877179,-136.0
2023-08-10 11:02:41.884869,-157.0
2023-08-10 11:02:41.892559,-177.0
2023-08-10 11:02:41.900249,-191.0
2023-08-10 11:02:41.907939,-208.0
2023-08-10 11:02:41.915629,-224.0
2023-08-10 11:02:41.923319,-241.0
2023-08-10 11:02:41.931009,-258.0
2023-08-10 11:02:41.938699,-263.0
2023-08-10 11:02:41.946389,-246.0
2023-08-10 11:02:41.954079,-217.0
2023-08-10 11:02:41.961769,-172.0
2023-08-10 11:02:41.969459,-112.0
2023-08-10 11:02:41.977149,-59.0
2023-08-10 11:02:41.984839,-16.0
2023-08-10 11:02:41.992529,11.0
2023-08-10 11:02:42.000219,31.0
2023-08-10 11:02:42.007908,47.0
2023-08-10 11:02:42.015598,59.0
2023-08-10 11:02:42.023288,57.0
2023-08-10 11:02:42.030978,50.0
2023-08-10 11:02:42.038668,50.0
2023-08-10 11:02:42.046358,52.0
2023-08-10 11:02:42.054048,50.0
