time,ECG
2023-08-10 11:36:02.771287,-33.0
2023-08-10 11:36:02.778977,-23.0
2023-08-10 11:36:02.786666,-19.0
2023-08-10 11:36:02.794356,-19.0
2023-08-10 11:36:02.802046,-21.0
2023-08-10 11:36:02.809736,-35.0
2023-08-10 11:36:02.817425,-38.0
2023-08-10 11:36:02.825115,-31.0
2023-08-10 11:36:02.832805,-33.0
2023-08-10 11:36:02.840494,-31.0
2023-08-10 11:36:02.848184,-23.0
2023-08-10 11:36:02.855874,-28.0
2023-08-10 11:36:02.863564,-45.0
2023-08-10 11:36:02.871253,-55.0
2023-08-10 11:36:02.878943,-59.0
2023-08-10 11:36:02.886633,-66.0
2023-08-10 11:36:02.894322,-62.0
2023-08-10 11:36:02.902012,-57.0
2023-08-10 11:36:02.909702,-57.0
2023-08-10 11:36:02.917392,-50.0
2023-08-10 11:36:02.925081,-50.0
2023-08-10 11:36:02.932771,-43.0
2023-08-10 11:36:02.940461,-23.0
2023-08-10 11:36:02.948150,-19.0
2023-08-10 11:36:02.955840,-38.0
2023-08-10 11:36:02.963530,-45.0
2023-08-10 11:36:02.971220,-35.0
2023-08-10 11:36:02.978909,-33.0
2023-08-10 11:36:02.986599,-35.0
2023-08-10 11:36:02.994289,-31.0
2023-08-10 11:36:03.001978,-57.0
2023-08-10 11:36:03.009668,-193.0
2023-08-10 11:36:03.017358,-423.0
2023-08-10 11:36:03.025048,-641.0
2023-08-10 11:36:03.032737,-722.0
2023-08-10 11:36:03.040427,-502.0
2023-08-10 11:36:03.048117,-74.0
2023-08-10 11:36:03.055806,124.0
2023-08-10 11:36:03.063496,21.0
2023-08-10 11:36:03.071186,-33.0
2023-08-10 11:36:03.078876,19.0
2023-08-10 11:36:03.086565,14.0
2023-08-10 11:36:03.094255,-9.0
2023-08-10 11:36:03.101945,2.0
2023-08-10 11:36:03.109634,-4.0
2023-08-10 11:36:03.117324,-23.0
2023-08-10 11:36:03.125014,-16.0
2023-08-10 11:36:03.132704,-19.0
2023-08-10 11:36:03.140393,-38.0
2023-08-10 11:36:03.148083,-50.0
2023-08-10 11:36:03.155773,-55.0
2023-08-10 11:36:03.163462,-64.0
2023-08-10 11:36:03.171152,-66.0
2023-08-10 11:36:03.178842,-71.0
2023-08-10 11:36:03.186532,-88.0
2023-08-10 11:36:03.194221,-112.0
2023-08-10 11:36:03.201911,-131.0
2023-08-10 11:36:03.209601,-133.0
2023-08-10 11:36:03.217290,-143.0
2023-08-10 11:36:03.224980,-162.0
2023-08-10 11:36:03.232670,-177.0
2023-08-10 11:36:03.240360,-186.0
2023-08-10 11:36:03.248049,-208.0
2023-08-10 11:36:03.255739,-222.0
2023-08-10 11:36:03.263429,-234.0
2023-08-10 11:36:03.271118,-253.0
2023-08-10 11:36:03.278808,-272.0
2023-08-10 11:36:03.286498,-287.0
2023-08-10 11:36:03.294187,-294.0
2023-08-10 11:36:03.301877,-289.0
2023-08-10 11:36:03.309567,-265.0
2023-08-10 11:36:03.317257,-222.0
2023-08-10 11:36:03.324946,-157.0
2023-08-10 11:36:03.332636,-90.0
2023-08-10 11:36:03.340326,-40.0
2023-08-10 11:36:03.348015,-9.0
2023-08-10 11:36:03.355705,11.0
2023-08-10 11:36:03.363395,31.0
2023-08-10 11:36:03.371085,43.0
2023-08-10 11:36:03.378774,43.0
2023-08-10 11:36:03.386464,40.0
2023-08-10 11:36:03.394154,40.0
2023-08-10 11:36:03.401843,43.0
2023-08-10 11:36:03.409533,43.0
2023-08-10 11:36:03.417223,31.0
2023-08-10 11:36:03.424913,19.0
2023-08-10 11:36:03.432602,26.0
2023-08-10 11:36:03.440292,26.0
2023-08-10 11:36:03.447982,14.0
2023-08-10 11:36:03.455671,14.0
2023-08-10 11:36:03.463361,19.0
2023-08-10 11:36:03.471051,19.0
2023-08-10 11:36:03.478741,16.0
2023-08-10 11:36:03.486430,14.0
2023-08-10 11:36:03.494120,4.0
2023-08-10 11:36:03.501810,7.0
2023-08-10 11:36:03.509499,9.0
2023-08-10 11:36:03.517189,11.0
2023-08-10 11:36:03.524879,16.0
2023-08-10 11:36:03.532569,11.0
2023-08-10 11:36:03.540258,2.0
2023-08-10 11:36:03.547948,-7.0
2023-08-10 11:36:03.555638,-11.0
2023-08-10 11:36:03.563327,-4.0
2023-08-10 11:36:03.571017,7.0
2023-08-10 11:36:03.578707,19.0
2023-08-10 11:36:03.586397,7.0
2023-08-10 11:36:03.594086,-16.0
2023-08-10 11:36:03.601776,-19.0
2023-08-10 11:36:03.609466,-9.0
2023-08-10 11:36:03.617155,-7.0
2023-08-10 11:36:03.624845,-4.0
2023-08-10 11:36:03.632535,-9.0
2023-08-10 11:36:03.640225,-14.0
2023-08-10 11:36:03.647914,-11.0
2023-08-10 11:36:03.655604,-11.0
2023-08-10 11:36:03.663294,-9.0
2023-08-10 11:36:03.670983,-4.0
2023-08-10 11:36:03.678673,-9.0
2023-08-10 11:36:03.686363,-16.0
2023-08-10 11:36:03.694053,-16.0
2023-08-10 11:36:03.701742,-11.0
2023-08-10 11:36:03.709432,-7.0
2023-08-10 11:36:03.717122,-11.0
2023-08-10 11:36:03.724811,-21.0
2023-08-10 11:36:03.732501,-16.0
2023-08-10 11:36:03.740191,-11.0
2023-08-10 11:36:03.747881,-11.0
2023-08-10 11:36:03.755570,-16.0
2023-08-10 11:36:03.763260,-14.0
2023-08-10 11:36:03.770950,-9.0
2023-08-10 11:36:03.778639,-11.0
2023-08-10 11:36:03.786329,-19.0
2023-08-10 11:36:03.794019,-26.0
2023-08-10 11:36:03.801709,-26.0
2023-08-10 11:36:03.809398,-23.0
2023-08-10 11:36:03.817088,-38.0
2023-08-10 11:36:03.824778,-52.0
2023-08-10 11:36:03.832467,-45.0
2023-08-10 11:36:03.840157,-33.0
2023-08-10 11:36:03.847847,-38.0
2023-08-10 11:36:03.855537,-38.0
2023-08-10 11:36:03.863226,-31.0
2023-08-10 11:36:03.870916,-31.0
2023-08-10 11:36:03.878606,-28.0
2023-08-10 11:36:03.886295,-16.0
2023-08-10 11:36:03.893985,-19.0
2023-08-10 11:36:03.901675,-23.0
2023-08-10 11:36:03.909365,-19.0
2023-08-10 11:36:03.917054,-21.0
2023-08-10 11:36:03.924744,-26.0
2023-08-10 11:36:03.932434,-19.0
2023-08-10 11:36:03.940123,-23.0
2023-08-10 11:36:03.947813,-126.0
2023-08-10 11:36:03.955503,-351.0
2023-08-10 11:36:03.963192,-588.0
2023-08-10 11:36:03.970882,-717.0
2023-08-10 11:36:03.978572,-588.0
2023-08-10 11:36:03.986262,-189.0
2023-08-10 11:36:03.993951,119.0
2023-08-10 11:36:04.001641,100.0
2023-08-10 11:36:04.009331,-7.0
2023-08-10 11:36:04.017020,7.0
2023-08-10 11:36:04.024710,40.0
2023-08-10 11:36:04.032400,21.0
2023-08-10 11:36:04.040090,16.0
2023-08-10 11:36:04.047779,23.0
2023-08-10 11:36:04.055469,16.0
2023-08-10 11:36:04.063159,11.0
2023-08-10 11:36:04.070848,2.0
2023-08-10 11:36:04.078538,-9.0
2023-08-10 11:36:04.086228,-11.0
2023-08-10 11:36:04.093918,-19.0
2023-08-10 11:36:04.101607,-33.0
2023-08-10 11:36:04.109297,-40.0
2023-08-10 11:36:04.116987,-43.0
2023-08-10 11:36:04.124676,-57.0
2023-08-10 11:36:04.132366,-76.0
2023-08-10 11:36:04.140056,-86.0
2023-08-10 11:36:04.147746,-90.0
2023-08-10 11:36:04.155435,-102.0
2023-08-10 11:36:04.163125,-119.0
2023-08-10 11:36:04.170815,-138.0
2023-08-10 11:36:04.178504,-150.0
2023-08-10 11:36:04.186194,-165.0
2023-08-10 11:36:04.193884,-189.0
2023-08-10 11:36:04.201574,-212.0
2023-08-10 11:36:04.209263,-227.0
2023-08-10 11:36:04.216953,-236.0
2023-08-10 11:36:04.224643,-251.0
2023-08-10 11:36:04.232332,-263.0
2023-08-10 11:36:04.240022,-265.0
2023-08-10 11:36:04.247712,-246.0
2023-08-10 11:36:04.255402,-208.0
2023-08-10 11:36:04.263091,-148.0
2023-08-10 11:36:04.270781,-71.0
2023-08-10 11:36:04.278471,-16.0
2023-08-10 11:36:04.286160,19.0
2023-08-10 11:36:04.293850,52.0
2023-08-10 11:36:04.301540,71.0
2023-08-10 11:36:04.309230,74.0
2023-08-10 11:36:04.316919,83.0
2023-08-10 11:36:04.324609,86.0
2023-08-10 11:36:04.332299,69.0
2023-08-10 11:36:04.339988,62.0
2023-08-10 11:36:04.347678,71.0
2023-08-10 11:36:04.355368,69.0
2023-08-10 11:36:04.363058,57.0
2023-08-10 11:36:04.370747,57.0
2023-08-10 11:36:04.378437,55.0
2023-08-10 11:36:04.386127,43.0
2023-08-10 11:36:04.393816,31.0
2023-08-10 11:36:04.401506,31.0
2023-08-10 11:36:04.409196,38.0
2023-08-10 11:36:04.416886,38.0
2023-08-10 11:36:04.424575,26.0
2023-08-10 11:36:04.432265,28.0
2023-08-10 11:36:04.439955,33.0
2023-08-10 11:36:04.447644,26.0
2023-08-10 11:36:04.455334,16.0
2023-08-10 11:36:04.463024,19.0
2023-08-10 11:36:04.470714,21.0
2023-08-10 11:36:04.478403,19.0
2023-08-10 11:36:04.486093,19.0
2023-08-10 11:36:04.493783,16.0
2023-08-10 11:36:04.501472,14.0
2023-08-10 11:36:04.509162,14.0
2023-08-10 11:36:04.516852,19.0
2023-08-10 11:36:04.524542,21.0
2023-08-10 11:36:04.532231,14.0
2023-08-10 11:36:04.539921,11.0
2023-08-10 11:36:04.547611,14.0
2023-08-10 11:36:04.555300,14.0
2023-08-10 11:36:04.562990,7.0
2023-08-10 11:36:04.570680,11.0
2023-08-10 11:36:04.578370,14.0
2023-08-10 11:36:04.586059,7.0
2023-08-10 11:36:04.593749,4.0
2023-08-10 11:36:04.601439,9.0
2023-08-10 11:36:04.609128,4.0
2023-08-10 11:36:04.616818,-2.0
2023-08-10 11:36:04.624508,2.0
2023-08-10 11:36:04.632198,0.0
2023-08-10 11:36:04.639887,-9.0
2023-08-10 11:36:04.647577,-11.0
2023-08-10 11:36:04.655267,-7.0
2023-08-10 11:36:04.662956,-4.0
2023-08-10 11:36:04.670646,-7.0
2023-08-10 11:36:04.678336,-7.0
2023-08-10 11:36:04.686025,-7.0
2023-08-10 11:36:04.693715,-7.0
2023-08-10 11:36:04.701405,-4.0
2023-08-10 11:36:04.709095,0.0
2023-08-10 11:36:04.716784,-7.0
2023-08-10 11:36:04.724474,-14.0
2023-08-10 11:36:04.732164,-4.0
2023-08-10 11:36:04.739853,-2.0
2023-08-10 11:36:04.747543,-14.0
2023-08-10 11:36:04.755233,-21.0
2023-08-10 11:36:04.762923,-16.0
2023-08-10 11:36:04.770612,-14.0
2023-08-10 11:36:04.778302,-19.0
2023-08-10 11:36:04.785992,-33.0
2023-08-10 11:36:04.793681,-47.0
2023-08-10 11:36:04.801371,-35.0
2023-08-10 11:36:04.809061,-28.0
2023-08-10 11:36:04.816751,-45.0
2023-08-10 11:36:04.824440,-43.0
2023-08-10 11:36:04.832130,-23.0
2023-08-10 11:36:04.839820,-14.0
2023-08-10 11:36:04.847509,-7.0
2023-08-10 11:36:04.855199,-2.0
2023-08-10 11:36:04.862889,-11.0
2023-08-10 11:36:04.870579,-26.0
2023-08-10 11:36:04.878268,-23.0
2023-08-10 11:36:04.885958,-14.0
2023-08-10 11:36:04.893648,-21.0
2023-08-10 11:36:04.901337,-28.0
2023-08-10 11:36:04.909027,-66.0
2023-08-10 11:36:04.916717,-234.0
2023-08-10 11:36:04.924407,-478.0
2023-08-10 11:36:04.932096,-669.0
2023-08-10 11:36:04.939786,-696.0
2023-08-10 11:36:04.947476,-418.0
2023-08-10 11:36:04.955165,2.0
2023-08-10 11:36:04.962855,131.0
2023-08-10 11:36:04.970545,-4.0
2023-08-10 11:36:04.978235,-38.0
2023-08-10 11:36:04.985924,26.0
2023-08-10 11:36:04.993614,16.0
2023-08-10 11:36:05.001304,-7.0
2023-08-10 11:36:05.008993,11.0
2023-08-10 11:36:05.016683,11.0
2023-08-10 11:36:05.024373,-7.0
2023-08-10 11:36:05.032063,-11.0
2023-08-10 11:36:05.039752,-21.0
2023-08-10 11:36:05.047442,-33.0
2023-08-10 11:36:05.055132,-35.0
2023-08-10 11:36:05.062821,-43.0
2023-08-10 11:36:05.070511,-47.0
2023-08-10 11:36:05.078201,-45.0
2023-08-10 11:36:05.085891,-66.0
2023-08-10 11:36:05.093580,-86.0
2023-08-10 11:36:05.101270,-81.0
2023-08-10 11:36:05.108960,-93.0
2023-08-10 11:36:05.116649,-114.0
2023-08-10 11:36:05.124339,-114.0
2023-08-10 11:36:05.132029,-124.0
2023-08-10 11:36:05.139719,-160.0
2023-08-10 11:36:05.147408,-174.0
2023-08-10 11:36:05.155098,-177.0
2023-08-10 11:36:05.162788,-203.0
2023-08-10 11:36:05.170477,-224.0
2023-08-10 11:36:05.178167,-232.0
2023-08-10 11:36:05.185857,-251.0
2023-08-10 11:36:05.193547,-260.0
2023-08-10 11:36:05.201236,-260.0
2023-08-10 11:36:05.208926,-260.0
2023-08-10 11:36:05.216616,-232.0
2023-08-10 11:36:05.224305,-169.0
2023-08-10 11:36:05.231995,-112.0
2023-08-10 11:36:05.239685,-64.0
2023-08-10 11:36:05.247375,-9.0
2023-08-10 11:36:05.255064,31.0
2023-08-10 11:36:05.262754,47.0
2023-08-10 11:36:05.270444,55.0
2023-08-10 11:36:05.278133,66.0
2023-08-10 11:36:05.285823,76.0
2023-08-10 11:36:05.293513,69.0
2023-08-10 11:36:05.301203,59.0
2023-08-10 11:36:05.308892,64.0
2023-08-10 11:36:05.316582,69.0
2023-08-10 11:36:05.324272,55.0
2023-08-10 11:36:05.331961,47.0
2023-08-10 11:36:05.339651,59.0
2023-08-10 11:36:05.347341,52.0
2023-08-10 11:36:05.355030,33.0
2023-08-10 11:36:05.362720,28.0
2023-08-10 11:36:05.370410,28.0
2023-08-10 11:36:05.378100,31.0
2023-08-10 11:36:05.385789,31.0
2023-08-10 11:36:05.393479,28.0
2023-08-10 11:36:05.401169,16.0
2023-08-10 11:36:05.408858,9.0
2023-08-10 11:36:05.416548,19.0
2023-08-10 11:36:05.424238,23.0
2023-08-10 11:36:05.431928,11.0
2023-08-10 11:36:05.439617,4.0
2023-08-10 11:36:05.447307,9.0
2023-08-10 11:36:05.454997,7.0
2023-08-10 11:36:05.462686,4.0
2023-08-10 11:36:05.470376,9.0
2023-08-10 11:36:05.478066,11.0
2023-08-10 11:36:05.485756,9.0
2023-08-10 11:36:05.493445,4.0
2023-08-10 11:36:05.501135,-16.0
2023-08-10 11:36:05.508825,-16.0
2023-08-10 11:36:05.516514,2.0
2023-08-10 11:36:05.524204,-2.0
2023-08-10 11:36:05.531894,-16.0
2023-08-10 11:36:05.539584,-19.0
2023-08-10 11:36:05.547273,-14.0
2023-08-10 11:36:05.554963,-9.0
2023-08-10 11:36:05.562653,-11.0
2023-08-10 11:36:05.570342,-16.0
2023-08-10 11:36:05.578032,-21.0
2023-08-10 11:36:05.585722,-21.0
2023-08-10 11:36:05.593412,-21.0
2023-08-10 11:36:05.601101,-23.0
2023-08-10 11:36:05.608791,-26.0
2023-08-10 11:36:05.616481,-26.0
2023-08-10 11:36:05.624170,-31.0
2023-08-10 11:36:05.631860,-35.0
2023-08-10 11:36:05.639550,-28.0
2023-08-10 11:36:05.647240,-21.0
2023-08-10 11:36:05.654929,-28.0
2023-08-10 11:36:05.662619,-33.0
2023-08-10 11:36:05.670309,-26.0
2023-08-10 11:36:05.677998,-23.0
2023-08-10 11:36:05.685688,-31.0
2023-08-10 11:36:05.693378,-31.0
2023-08-10 11:36:05.701068,-19.0
2023-08-10 11:36:05.708757,-23.0
2023-08-10 11:36:05.716447,-33.0
2023-08-10 11:36:05.724137,-33.0
2023-08-10 11:36:05.731826,-28.0
2023-08-10 11:36:05.739516,-26.0
2023-08-10 11:36:05.747206,-28.0
2023-08-10 11:36:05.754896,-33.0
2023-08-10 11:36:05.762585,-33.0
2023-08-10 11:36:05.770275,-35.0
2023-08-10 11:36:05.777965,-45.0
2023-08-10 11:36:05.785654,-57.0
2023-08-10 11:36:05.793344,-57.0
2023-08-10 11:36:05.801034,-45.0
2023-08-10 11:36:05.808724,-47.0
2023-08-10 11:36:05.816413,-52.0
2023-08-10 11:36:05.824103,-50.0
2023-08-10 11:36:05.831793,-45.0
2023-08-10 11:36:05.839482,-31.0
2023-08-10 11:36:05.847172,-19.0
2023-08-10 11:36:05.854862,-23.0
2023-08-10 11:36:05.862552,-31.0
2023-08-10 11:36:05.870241,-28.0
2023-08-10 11:36:05.877931,-28.0
2023-08-10 11:36:05.885621,-28.0
2023-08-10 11:36:05.893310,-33.0
2023-08-10 11:36:05.901000,-43.0
2023-08-10 11:36:05.908690,-78.0
2023-08-10 11:36:05.916380,-227.0
2023-08-10 11:36:05.924069,-466.0
2023-08-10 11:36:05.931759,-657.0
2023-08-10 11:36:05.939449,-681.0
2023-08-10 11:36:05.947138,-423.0
2023-08-10 11:36:05.954828,-31.0
2023-08-10 11:36:05.962518,112.0
2023-08-10 11:36:05.970208,2.0
2023-08-10 11:36:05.977897,-50.0
2023-08-10 11:36:05.985587,-7.0
2023-08-10 11:36:05.993277,-4.0
2023-08-10 11:36:06.000966,-26.0
2023-08-10 11:36:06.008656,-19.0
2023-08-10 11:36:06.016346,-19.0
2023-08-10 11:36:06.024036,-31.0
2023-08-10 11:36:06.031725,-35.0
2023-08-10 11:36:06.039415,-47.0
2023-08-10 11:36:06.047105,-59.0
2023-08-10 11:36:06.054794,-64.0
2023-08-10 11:36:06.062484,-71.0
2023-08-10 11:36:06.070174,-76.0
2023-08-10 11:36:06.077863,-76.0
2023-08-10 11:36:06.085553,-78.0
2023-08-10 11:36:06.093243,-93.0
2023-08-10 11:36:06.100933,-110.0
2023-08-10 11:36:06.108622,-119.0
2023-08-10 11:36:06.116312,-126.0
2023-08-10 11:36:06.124002,-133.0
2023-08-10 11:36:06.131691,-141.0
2023-08-10 11:36:06.139381,-153.0
2023-08-10 11:36:06.147071,-174.0
2023-08-10 11:36:06.154761,-193.0
2023-08-10 11:36:06.162450,-210.0
2023-08-10 11:36:06.170140,-229.0
2023-08-10 11:36:06.177830,-248.0
2023-08-10 11:36:06.185519,-263.0
2023-08-10 11:36:06.193209,-272.0
2023-08-10 11:36:06.200899,-282.0
2023-08-10 11:36:06.208589,-279.0
2023-08-10 11:36:06.216278,-256.0
2023-08-10 11:36:06.223968,-208.0
2023-08-10 11:36:06.231658,-143.0
2023-08-10 11:36:06.239347,-81.0
2023-08-10 11:36:06.247037,-35.0
2023-08-10 11:36:06.254727,0.0
2023-08-10 11:36:06.262417,28.0
2023-08-10 11:36:06.270106,45.0
2023-08-10 11:36:06.277796,57.0
2023-08-10 11:36:06.285486,62.0
2023-08-10 11:36:06.293175,57.0
2023-08-10 11:36:06.300865,57.0
2023-08-10 11:36:06.308555,59.0
2023-08-10 11:36:06.316245,52.0
2023-08-10 11:36:06.323934,47.0
2023-08-10 11:36:06.331624,47.0
2023-08-10 11:36:06.339314,43.0
2023-08-10 11:36:06.347003,33.0
2023-08-10 11:36:06.354693,31.0
2023-08-10 11:36:06.362383,31.0
2023-08-10 11:36:06.370073,23.0
2023-08-10 11:36:06.377762,28.0
2023-08-10 11:36:06.385452,31.0
2023-08-10 11:36:06.393142,19.0
2023-08-10 11:36:06.400831,11.0
2023-08-10 11:36:06.408521,11.0
2023-08-10 11:36:06.416211,14.0
2023-08-10 11:36:06.423901,11.0
2023-08-10 11:36:06.431590,7.0
2023-08-10 11:36:06.439280,4.0
2023-08-10 11:36:06.446970,2.0
2023-08-10 11:36:06.454659,4.0
2023-08-10 11:36:06.462349,4.0
2023-08-10 11:36:06.470039,2.0
2023-08-10 11:36:06.477729,-2.0
2023-08-10 11:36:06.485418,0.0
2023-08-10 11:36:06.493108,2.0
2023-08-10 11:36:06.500798,2.0
2023-08-10 11:36:06.508487,-2.0
2023-08-10 11:36:06.516177,-4.0
2023-08-10 11:36:06.523867,-2.0
2023-08-10 11:36:06.531557,-2.0
2023-08-10 11:36:06.539246,-4.0
2023-08-10 11:36:06.546936,-4.0
2023-08-10 11:36:06.554626,-7.0
2023-08-10 11:36:06.562315,-7.0
2023-08-10 11:36:06.570005,-9.0
2023-08-10 11:36:06.577695,-16.0
2023-08-10 11:36:06.585385,-19.0
2023-08-10 11:36:06.593074,-21.0
2023-08-10 11:36:06.600764,-26.0
2023-08-10 11:36:06.608454,-26.0
2023-08-10 11:36:06.616143,-23.0
2023-08-10 11:36:06.623833,-26.0
2023-08-10 11:36:06.631523,-26.0
2023-08-10 11:36:06.639213,-26.0
2023-08-10 11:36:06.646902,-31.0
2023-08-10 11:36:06.654592,-33.0
2023-08-10 11:36:06.662282,-38.0
2023-08-10 11:36:06.669971,-55.0
2023-08-10 11:36:06.677661,-57.0
2023-08-10 11:36:06.685351,-45.0
2023-08-10 11:36:06.693041,-47.0
2023-08-10 11:36:06.700730,-52.0
2023-08-10 11:36:06.708420,-47.0
2023-08-10 11:36:06.716110,-40.0
2023-08-10 11:36:06.723799,-26.0
2023-08-10 11:36:06.731489,-14.0
2023-08-10 11:36:06.739179,-16.0
2023-08-10 11:36:06.746868,-19.0
2023-08-10 11:36:06.754558,-16.0
2023-08-10 11:36:06.762248,-16.0
2023-08-10 11:36:06.769938,-21.0
2023-08-10 11:36:06.777627,-21.0
2023-08-10 11:36:06.785317,-16.0
2023-08-10 11:36:06.793007,-74.0
2023-08-10 11:36:06.800696,-260.0
2023-08-10 11:36:06.808386,-500.0
2023-08-10 11:36:06.816076,-669.0
2023-08-10 11:36:06.823766,-636.0
2023-08-10 11:36:06.831455,-311.0
2023-08-10 11:36:06.839145,52.0
2023-08-10 11:36:06.846835,122.0
2023-08-10 11:36:06.854524,9.0
2023-08-10 11:36:06.862214,-11.0
2023-08-10 11:36:06.869904,28.0
2023-08-10 11:36:06.877594,23.0
2023-08-10 11:36:06.885283,9.0
2023-08-10 11:36:06.892973,11.0
2023-08-10 11:36:06.900663,4.0
2023-08-10 11:36:06.908352,-7.0
2023-08-10 11:36:06.916042,-14.0
2023-08-10 11:36:06.923732,-23.0
2023-08-10 11:36:06.931422,-31.0
2023-08-10 11:36:06.939111,-33.0
2023-08-10 11:36:06.946801,-43.0
2023-08-10 11:36:06.954491,-55.0
2023-08-10 11:36:06.962180,-62.0
2023-08-10 11:36:06.969870,-66.0
2023-08-10 11:36:06.977560,-78.0
2023-08-10 11:36:06.985250,-93.0
2023-08-10 11:36:06.992939,-100.0
2023-08-10 11:36:07.000629,-107.0
2023-08-10 11:36:07.008319,-124.0
2023-08-10 11:36:07.016008,-138.0
2023-08-10 11:36:07.023698,-153.0
2023-08-10 11:36:07.031388,-179.0
2023-08-10 11:36:07.039078,-198.0
2023-08-10 11:36:07.046767,-208.0
2023-08-10 11:36:07.054457,-220.0
2023-08-10 11:36:07.062147,-239.0
2023-08-10 11:36:07.069836,-256.0
2023-08-10 11:36:07.077526,-265.0
2023-08-10 11:36:07.085216,-270.0
2023-08-10 11:36:07.092906,-256.0
2023-08-10 11:36:07.100595,-215.0
2023-08-10 11:36:07.108285,-160.0
2023-08-10 11:36:07.115975,-105.0
2023-08-10 11:36:07.123664,-50.0
2023-08-10 11:36:07.131354,-4.0
2023-08-10 11:36:07.139044,26.0
2023-08-10 11:36:07.146734,45.0
2023-08-10 11:36:07.154423,57.0
2023-08-10 11:36:07.162113,55.0
2023-08-10 11:36:07.169803,52.0
2023-08-10 11:36:07.177492,52.0
2023-08-10 11:36:07.185182,55.0
2023-08-10 11:36:07.192872,50.0
2023-08-10 11:36:07.200562,45.0
2023-08-10 11:36:07.208251,45.0
2023-08-10 11:36:07.215941,43.0
2023-08-10 11:36:07.223631,38.0
2023-08-10 11:36:07.231320,33.0
2023-08-10 11:36:07.239010,33.0
2023-08-10 11:36:07.246700,33.0
2023-08-10 11:36:07.254390,23.0
2023-08-10 11:36:07.262079,16.0
2023-08-10 11:36:07.269769,16.0
2023-08-10 11:36:07.277459,21.0
2023-08-10 11:36:07.285148,19.0
2023-08-10 11:36:07.292838,21.0
2023-08-10 11:36:07.300528,21.0
2023-08-10 11:36:07.308218,7.0
2023-08-10 11:36:07.315907,7.0
2023-08-10 11:36:07.323597,16.0
2023-08-10 11:36:07.331287,14.0
2023-08-10 11:36:07.338976,4.0
2023-08-10 11:36:07.346666,0.0
2023-08-10 11:36:07.354356,2.0
2023-08-10 11:36:07.362046,7.0
2023-08-10 11:36:07.369735,7.0
2023-08-10 11:36:07.377425,2.0
2023-08-10 11:36:07.385115,2.0
2023-08-10 11:36:07.392804,0.0
2023-08-10 11:36:07.400494,2.0
2023-08-10 11:36:07.408184,7.0
2023-08-10 11:36:07.415874,-2.0
2023-08-10 11:36:07.423563,-14.0
2023-08-10 11:36:07.431253,-16.0
2023-08-10 11:36:07.438943,-11.0
2023-08-10 11:36:07.446632,-14.0
2023-08-10 11:36:07.454322,-16.0
2023-08-10 11:36:07.462012,-14.0
2023-08-10 11:36:07.469701,-9.0
2023-08-10 11:36:07.477391,-14.0
2023-08-10 11:36:07.485081,-21.0
2023-08-10 11:36:07.492771,-21.0
2023-08-10 11:36:07.500460,-19.0
2023-08-10 11:36:07.508150,-19.0
2023-08-10 11:36:07.515840,-16.0
2023-08-10 11:36:07.523529,-23.0
2023-08-10 11:36:07.531219,-28.0
2023-08-10 11:36:07.538909,-23.0
2023-08-10 11:36:07.546599,-16.0
2023-08-10 11:36:07.554288,-14.0
2023-08-10 11:36:07.561978,-23.0
2023-08-10 11:36:07.569668,-28.0
2023-08-10 11:36:07.577357,-23.0
2023-08-10 11:36:07.585047,-26.0
2023-08-10 11:36:07.592737,-35.0
2023-08-10 11:36:07.600427,-40.0
2023-08-10 11:36:07.608116,-47.0
2023-08-10 11:36:07.615806,-66.0
2023-08-10 11:36:07.623496,-76.0
2023-08-10 11:36:07.631185,-62.0
2023-08-10 11:36:07.638875,-55.0
2023-08-10 11:36:07.646565,-62.0
2023-08-10 11:36:07.654255,-59.0
2023-08-10 11:36:07.661944,-50.0
2023-08-10 11:36:07.669634,-40.0
2023-08-10 11:36:07.677324,-33.0
2023-08-10 11:36:07.685013,-33.0
2023-08-10 11:36:07.692703,-35.0
2023-08-10 11:36:07.700393,-38.0
2023-08-10 11:36:07.708083,-40.0
2023-08-10 11:36:07.715772,-40.0
2023-08-10 11:36:07.723462,-43.0
2023-08-10 11:36:07.731152,-43.0
2023-08-10 11:36:07.738841,-71.0
2023-08-10 11:36:07.746531,-217.0
2023-08-10 11:36:07.754221,-452.0
2023-08-10 11:36:07.761911,-648.0
2023-08-10 11:36:07.769600,-689.0
2023-08-10 11:36:07.777290,-445.0
2023-08-10 11:36:07.784980,-40.0
2023-08-10 11:36:07.792669,124.0
2023-08-10 11:36:07.800359,11.0
2023-08-10 11:36:07.808049,-43.0
2023-08-10 11:36:07.815739,9.0
2023-08-10 11:36:07.823428,14.0
2023-08-10 11:36:07.831118,-9.0
2023-08-10 11:36:07.838808,0.0
2023-08-10 11:36:07.846497,-2.0
2023-08-10 11:36:07.854187,-16.0
2023-08-10 11:36:07.861877,-23.0
2023-08-10 11:36:07.869567,-26.0
2023-08-10 11:36:07.877256,-33.0
2023-08-10 11:36:07.884946,-38.0
2023-08-10 11:36:07.892636,-40.0
2023-08-10 11:36:07.900325,-50.0
2023-08-10 11:36:07.908015,-66.0
2023-08-10 11:36:07.915705,-81.0
2023-08-10 11:36:07.923395,-83.0
2023-08-10 11:36:07.931084,-90.0
2023-08-10 11:36:07.938774,-105.0
2023-08-10 11:36:07.946464,-114.0
2023-08-10 11:36:07.954153,-126.0
2023-08-10 11:36:07.961843,-141.0
2023-08-10 11:36:07.969533,-153.0
2023-08-10 11:36:07.977223,-169.0
2023-08-10 11:36:07.984912,-191.0
2023-08-10 11:36:07.992602,-205.0
2023-08-10 11:36:08.000292,-215.0
2023-08-10 11:36:08.007981,-232.0
2023-08-10 11:36:08.015671,-253.0
2023-08-10 11:36:08.023361,-270.0
2023-08-10 11:36:08.031051,-272.0
2023-08-10 11:36:08.038740,-265.0
2023-08-10 11:36:08.046430,-241.0
2023-08-10 11:36:08.054120,-193.0
2023-08-10 11:36:08.061809,-133.0
2023-08-10 11:36:08.069499,-78.0
2023-08-10 11:36:08.077189,-31.0
2023-08-10 11:36:08.084879,7.0
2023-08-10 11:36:08.092568,31.0
2023-08-10 11:36:08.100258,45.0
2023-08-10 11:36:08.107948,50.0
2023-08-10 11:36:08.115637,50.0
2023-08-10 11:36:08.123327,52.0
2023-08-10 11:36:08.131017,50.0
2023-08-10 11:36:08.138706,43.0
2023-08-10 11:36:08.146396,43.0
2023-08-10 11:36:08.154086,40.0
2023-08-10 11:36:08.161776,38.0
2023-08-10 11:36:08.169465,35.0
2023-08-10 11:36:08.177155,33.0
2023-08-10 11:36:08.184845,28.0
2023-08-10 11:36:08.192534,26.0
2023-08-10 11:36:08.200224,21.0
2023-08-10 11:36:08.207914,21.0
2023-08-10 11:36:08.215604,21.0
2023-08-10 11:36:08.223293,19.0
2023-08-10 11:36:08.230983,16.0
2023-08-10 11:36:08.238673,9.0
2023-08-10 11:36:08.246362,0.0
2023-08-10 11:36:08.254052,-4.0
2023-08-10 11:36:08.261742,-4.0
2023-08-10 11:36:08.269432,-7.0
2023-08-10 11:36:08.277121,-7.0
2023-08-10 11:36:08.284811,-4.0
2023-08-10 11:36:08.292501,-4.0
2023-08-10 11:36:08.300190,-9.0
2023-08-10 11:36:08.307880,-11.0
2023-08-10 11:36:08.315570,-14.0
2023-08-10 11:36:08.323260,-14.0
2023-08-10 11:36:08.330949,-19.0
2023-08-10 11:36:08.338639,-19.0
2023-08-10 11:36:08.346329,-14.0
2023-08-10 11:36:08.354018,-14.0
2023-08-10 11:36:08.361708,-19.0
2023-08-10 11:36:08.369398,-19.0
2023-08-10 11:36:08.377088,-19.0
2023-08-10 11:36:08.384777,-19.0
2023-08-10 11:36:08.392467,-19.0
2023-08-10 11:36:08.400157,-16.0
2023-08-10 11:36:08.407846,-16.0
2023-08-10 11:36:08.415536,-21.0
2023-08-10 11:36:08.423226,-23.0
2023-08-10 11:36:08.430916,-23.0
2023-08-10 11:36:08.438605,-21.0
2023-08-10 11:36:08.446295,-21.0
2023-08-10 11:36:08.453985,-23.0
2023-08-10 11:36:08.461674,-21.0
2023-08-10 11:36:08.469364,-21.0
2023-08-10 11:36:08.477054,-26.0
2023-08-10 11:36:08.484744,-26.0
2023-08-10 11:36:08.492433,-23.0
2023-08-10 11:36:08.500123,-23.0
2023-08-10 11:36:08.507813,-26.0
2023-08-10 11:36:08.515502,-26.0
2023-08-10 11:36:08.523192,-26.0
2023-08-10 11:36:08.530882,-26.0
2023-08-10 11:36:08.538572,-26.0
2023-08-10 11:36:08.546261,-26.0
2023-08-10 11:36:08.553951,-31.0
2023-08-10 11:36:08.561641,-33.0
2023-08-10 11:36:08.569330,-33.0
2023-08-10 11:36:08.577020,-33.0
2023-08-10 11:36:08.584710,-45.0
2023-08-10 11:36:08.592400,-62.0
2023-08-10 11:36:08.600089,-59.0
2023-08-10 11:36:08.607779,-52.0
2023-08-10 11:36:08.615469,-55.0
2023-08-10 11:36:08.623158,-57.0
2023-08-10 11:36:08.630848,-52.0
2023-08-10 11:36:08.638538,-45.0
2023-08-10 11:36:08.646228,-38.0
2023-08-10 11:36:08.653917,-31.0
2023-08-10 11:36:08.661607,-28.0
2023-08-10 11:36:08.669297,-31.0
2023-08-10 11:36:08.676986,-33.0
2023-08-10 11:36:08.684676,-35.0
2023-08-10 11:36:08.692366,-38.0
2023-08-10 11:36:08.700056,-33.0
2023-08-10 11:36:08.707745,-40.0
2023-08-10 11:36:08.715435,-126.0
2023-08-10 11:36:08.723125,-337.0
2023-08-10 11:36:08.730814,-571.0
2023-08-10 11:36:08.738504,-710.0
2023-08-10 11:36:08.746194,-607.0
2023-08-10 11:36:08.753884,-227.0
2023-08-10 11:36:08.761573,93.0
2023-08-10 11:36:08.769263,95.0
2023-08-10 11:36:08.776953,-16.0
2023-08-10 11:36:08.784642,-11.0
2023-08-10 11:36:08.792332,19.0
2023-08-10 11:36:08.800022,2.0
2023-08-10 11:36:08.807712,-2.0
2023-08-10 11:36:08.815401,4.0
2023-08-10 11:36:08.823091,-9.0
2023-08-10 11:36:08.830781,-21.0
2023-08-10 11:36:08.838470,-19.0
2023-08-10 11:36:08.846160,-26.0
2023-08-10 11:36:08.853850,-35.0
2023-08-10 11:36:08.861539,-43.0
2023-08-10 11:36:08.869229,-55.0
2023-08-10 11:36:08.876919,-71.0
2023-08-10 11:36:08.884609,-78.0
2023-08-10 11:36:08.892298,-81.0
2023-08-10 11:36:08.899988,-90.0
2023-08-10 11:36:08.907678,-102.0
2023-08-10 11:36:08.915367,-117.0
2023-08-10 11:36:08.923057,-129.0
2023-08-10 11:36:08.930747,-136.0
2023-08-10 11:36:08.938437,-145.0
2023-08-10 11:36:08.946126,-157.0
2023-08-10 11:36:08.953816,-172.0
2023-08-10 11:36:08.961506,-193.0
2023-08-10 11:36:08.969195,-217.0
2023-08-10 11:36:08.976885,-234.0
2023-08-10 11:36:08.984575,-246.0
2023-08-10 11:36:08.992265,-258.0
2023-08-10 11:36:08.999954,-270.0
2023-08-10 11:36:09.007644,-275.0
2023-08-10 11:36:09.015334,-258.0
2023-08-10 11:36:09.023023,-215.0
2023-08-10 11:36:09.030713,-160.0
2023-08-10 11:36:09.038403,-100.0
2023-08-10 11:36:09.046093,-43.0
2023-08-10 11:36:09.053782,-2.0
2023-08-10 11:36:09.061472,28.0
2023-08-10 11:36:09.069162,55.0
2023-08-10 11:36:09.076851,69.0
2023-08-10 11:36:09.084541,71.0
2023-08-10 11:36:09.092231,71.0
2023-08-10 11:36:09.099921,69.0
2023-08-10 11:36:09.107610,64.0
2023-08-10 11:36:09.115300,57.0
2023-08-10 11:36:09.122990,55.0
2023-08-10 11:36:09.130679,57.0
2023-08-10 11:36:09.138369,50.0
2023-08-10 11:36:09.146059,43.0
2023-08-10 11:36:09.153749,45.0
2023-08-10 11:36:09.161438,40.0
2023-08-10 11:36:09.169128,35.0
2023-08-10 11:36:09.176818,35.0
2023-08-10 11:36:09.184507,35.0
2023-08-10 11:36:09.192197,28.0
2023-08-10 11:36:09.199887,23.0
2023-08-10 11:36:09.207577,28.0
2023-08-10 11:36:09.215266,33.0
2023-08-10 11:36:09.222956,28.0
2023-08-10 11:36:09.230646,21.0
2023-08-10 11:36:09.238335,19.0
2023-08-10 11:36:09.246025,19.0
2023-08-10 11:36:09.253715,19.0
2023-08-10 11:36:09.261405,16.0
2023-08-10 11:36:09.269094,16.0
2023-08-10 11:36:09.276784,14.0
2023-08-10 11:36:09.284474,11.0
2023-08-10 11:36:09.292163,7.0
2023-08-10 11:36:09.299853,2.0
2023-08-10 11:36:09.307543,4.0
2023-08-10 11:36:09.315233,9.0
2023-08-10 11:36:09.322922,4.0
2023-08-10 11:36:09.330612,0.0
2023-08-10 11:36:09.338302,0.0
2023-08-10 11:36:09.345991,2.0
2023-08-10 11:36:09.353681,2.0
2023-08-10 11:36:09.361371,0.0
2023-08-10 11:36:09.369061,-4.0
2023-08-10 11:36:09.376750,-2.0
2023-08-10 11:36:09.384440,-2.0
2023-08-10 11:36:09.392130,-4.0
2023-08-10 11:36:09.399819,-4.0
2023-08-10 11:36:09.407509,-9.0
2023-08-10 11:36:09.415199,-19.0
2023-08-10 11:36:09.422889,-21.0
2023-08-10 11:36:09.430578,-19.0
2023-08-10 11:36:09.438268,-23.0
2023-08-10 11:36:09.445958,-21.0
2023-08-10 11:36:09.453647,-16.0
2023-08-10 11:36:09.461337,-21.0
2023-08-10 11:36:09.469027,-31.0
2023-08-10 11:36:09.476717,-33.0
2023-08-10 11:36:09.484406,-40.0
2023-08-10 11:36:09.492096,-52.0
2023-08-10 11:36:09.499786,-52.0
2023-08-10 11:36:09.507475,-43.0
2023-08-10 11:36:09.515165,-47.0
2023-08-10 11:36:09.522855,-55.0
2023-08-10 11:36:09.530544,-43.0
2023-08-10 11:36:09.538234,-28.0
2023-08-10 11:36:09.545924,-23.0
2023-08-10 11:36:09.553614,-21.0
2023-08-10 11:36:09.561303,-21.0
2023-08-10 11:36:09.568993,-23.0
2023-08-10 11:36:09.576683,-21.0
2023-08-10 11:36:09.584372,-23.0
2023-08-10 11:36:09.592062,-31.0
2023-08-10 11:36:09.599752,-31.0
2023-08-10 11:36:09.607442,-31.0
2023-08-10 11:36:09.615131,-107.0
2023-08-10 11:36:09.622821,-311.0
2023-08-10 11:36:09.630511,-545.0
2023-08-10 11:36:09.638200,-705.0
2023-08-10 11:36:09.645890,-643.0
2023-08-10 11:36:09.653580,-277.0
2023-08-10 11:36:09.661270,81.0
2023-08-10 11:36:09.668959,102.0
2023-08-10 11:36:09.676649,-23.0
2023-08-10 11:36:09.684339,-16.0
2023-08-10 11:36:09.692028,31.0
2023-08-10 11:36:09.699718,11.0
2023-08-10 11:36:09.707408,2.0
2023-08-10 11:36:09.715098,14.0
2023-08-10 11:36:09.722787,0.0
2023-08-10 11:36:09.730477,-14.0
2023-08-10 11:36:09.738167,-9.0
2023-08-10 11:36:09.745856,-11.0
2023-08-10 11:36:09.753546,-23.0
2023-08-10 11:36:09.761236,-26.0
2023-08-10 11:36:09.768926,-28.0
2023-08-10 11:36:09.776615,-43.0
2023-08-10 11:36:09.784305,-57.0
2023-08-10 11:36:09.791995,-69.0
2023-08-10 11:36:09.799684,-74.0
2023-08-10 11:36:09.807374,-78.0
2023-08-10 11:36:09.815064,-93.0
2023-08-10 11:36:09.822754,-110.0
2023-08-10 11:36:09.830443,-119.0
2023-08-10 11:36:09.838133,-129.0
2023-08-10 11:36:09.845823,-148.0
2023-08-10 11:36:09.853512,-167.0
2023-08-10 11:36:09.861202,-186.0
2023-08-10 11:36:09.868892,-208.0
2023-08-10 11:36:09.876582,-229.0
2023-08-10 11:36:09.884271,-244.0
2023-08-10 11:36:09.891961,-260.0
2023-08-10 11:36:09.899651,-270.0
2023-08-10 11:36:09.907340,-267.0
2023-08-10 11:36:09.915030,-253.0
2023-08-10 11:36:09.922720,-215.0
2023-08-10 11:36:09.930410,-155.0
2023-08-10 11:36:09.938099,-95.0
2023-08-10 11:36:09.945789,-52.0
2023-08-10 11:36:09.953479,-19.0
2023-08-10 11:36:09.961168,11.0
2023-08-10 11:36:09.968858,33.0
2023-08-10 11:36:09.976548,43.0
2023-08-10 11:36:09.984238,45.0
2023-08-10 11:36:09.991927,43.0
2023-08-10 11:36:09.999617,40.0
2023-08-10 11:36:10.007307,45.0
2023-08-10 11:36:10.014996,43.0
2023-08-10 11:36:10.022686,38.0
2023-08-10 11:36:10.030376,38.0
2023-08-10 11:36:10.038066,28.0
2023-08-10 11:36:10.045755,16.0
2023-08-10 11:36:10.053445,19.0
2023-08-10 11:36:10.061135,28.0
2023-08-10 11:36:10.068824,31.0
2023-08-10 11:36:10.076514,19.0
2023-08-10 11:36:10.084204,7.0
2023-08-10 11:36:10.091894,11.0
2023-08-10 11:36:10.099583,21.0
2023-08-10 11:36:10.107273,16.0
2023-08-10 11:36:10.114963,4.0
2023-08-10 11:36:10.122652,-4.0
2023-08-10 11:36:10.130342,-4.0
2023-08-10 11:36:10.138032,2.0
2023-08-10 11:36:10.145722,0.0
2023-08-10 11:36:10.153411,-7.0
2023-08-10 11:36:10.161101,-2.0
2023-08-10 11:36:10.168791,4.0
2023-08-10 11:36:10.176480,-2.0
2023-08-10 11:36:10.184170,-14.0
2023-08-10 11:36:10.191860,-16.0
2023-08-10 11:36:10.199550,-4.0
2023-08-10 11:36:10.207239,-4.0
2023-08-10 11:36:10.214929,-16.0
2023-08-10 11:36:10.222619,-11.0
2023-08-10 11:36:10.230308,-2.0
2023-08-10 11:36:10.237998,-2.0
2023-08-10 11:36:10.245688,-4.0
2023-08-10 11:36:10.253377,-9.0
2023-08-10 11:36:10.261067,-16.0
2023-08-10 11:36:10.268757,-16.0
2023-08-10 11:36:10.276447,-21.0
2023-08-10 11:36:10.284136,-11.0
2023-08-10 11:36:10.291826,2.0
2023-08-10 11:36:10.299516,-4.0
2023-08-10 11:36:10.307205,-23.0
2023-08-10 11:36:10.314895,-26.0
2023-08-10 11:36:10.322585,-21.0
2023-08-10 11:36:10.330275,-21.0
2023-08-10 11:36:10.337964,-23.0
2023-08-10 11:36:10.345654,-26.0
2023-08-10 11:36:10.353344,-31.0
2023-08-10 11:36:10.361033,-31.0
2023-08-10 11:36:10.368723,-23.0
2023-08-10 11:36:10.376413,-21.0
2023-08-10 11:36:10.384103,-31.0
2023-08-10 11:36:10.391792,-33.0
2023-08-10 11:36:10.399482,-23.0
2023-08-10 11:36:10.407172,-16.0
2023-08-10 11:36:10.414861,-21.0
2023-08-10 11:36:10.422551,-28.0
2023-08-10 11:36:10.430241,-28.0
2023-08-10 11:36:10.437931,-33.0
2023-08-10 11:36:10.445620,-45.0
2023-08-10 11:36:10.453310,-31.0
2023-08-10 11:36:10.461000,-19.0
2023-08-10 11:36:10.468689,-45.0
2023-08-10 11:36:10.476379,-62.0
2023-08-10 11:36:10.484069,-47.0
2023-08-10 11:36:10.491759,-47.0
2023-08-10 11:36:10.499448,-66.0
2023-08-10 11:36:10.507138,-66.0
2023-08-10 11:36:10.514828,-47.0
2023-08-10 11:36:10.522517,-35.0
2023-08-10 11:36:10.530207,-33.0
2023-08-10 11:36:10.537897,-31.0
2023-08-10 11:36:10.545587,-31.0
2023-08-10 11:36:10.553276,-35.0
2023-08-10 11:36:10.560966,-38.0
2023-08-10 11:36:10.568656,-33.0
2023-08-10 11:36:10.576345,-35.0
2023-08-10 11:36:10.584035,-35.0
2023-08-10 11:36:10.591725,-45.0
2023-08-10 11:36:10.599415,-138.0
2023-08-10 11:36:10.607104,-354.0
2023-08-10 11:36:10.614794,-581.0
2023-08-10 11:36:10.622484,-705.0
2023-08-10 11:36:10.630173,-583.0
2023-08-10 11:36:10.637863,-196.0
2023-08-10 11:36:10.645553,98.0
2023-08-10 11:36:10.653243,69.0
2023-08-10 11:36:10.660932,-35.0
2023-08-10 11:36:10.668622,-11.0
2023-08-10 11:36:10.676312,19.0
2023-08-10 11:36:10.684001,-7.0
2023-08-10 11:36:10.691691,-4.0
2023-08-10 11:36:10.699381,14.0
2023-08-10 11:36:10.707071,-7.0
2023-08-10 11:36:10.714760,-33.0
2023-08-10 11:36:10.722450,-23.0
2023-08-10 11:36:10.730140,-7.0
2023-08-10 11:36:10.737829,-19.0
2023-08-10 11:36:10.745519,-43.0
2023-08-10 11:36:10.753209,-47.0
2023-08-10 11:36:10.760899,-52.0
2023-08-10 11:36:10.768588,-66.0
2023-08-10 11:36:10.776278,-76.0
2023-08-10 11:36:10.783968,-81.0
2023-08-10 11:36:10.791657,-95.0
2023-08-10 11:36:10.799347,-112.0
2023-08-10 11:36:10.807037,-119.0
2023-08-10 11:36:10.814727,-119.0
2023-08-10 11:36:10.822416,-136.0
2023-08-10 11:36:10.830106,-162.0
2023-08-10 11:36:10.837796,-174.0
2023-08-10 11:36:10.845485,-186.0
2023-08-10 11:36:10.853175,-208.0
2023-08-10 11:36:10.860865,-227.0
2023-08-10 11:36:10.868555,-246.0
2023-08-10 11:36:10.876244,-258.0
2023-08-10 11:36:10.883934,-265.0
2023-08-10 11:36:10.891624,-275.0
2023-08-10 11:36:10.899313,-258.0
2023-08-10 11:36:10.907003,-198.0
2023-08-10 11:36:10.914693,-141.0
2023-08-10 11:36:10.922382,-95.0
2023-08-10 11:36:10.930072,-38.0
2023-08-10 11:36:10.937762,14.0
2023-08-10 11:36:10.945452,31.0
2023-08-10 11:36:10.953141,45.0
2023-08-10 11:36:10.960831,74.0
2023-08-10 11:36:10.968521,76.0
2023-08-10 11:36:10.976210,59.0
2023-08-10 11:36:10.983900,69.0
2023-08-10 11:36:10.991590,78.0
2023-08-10 11:36:10.999280,64.0
2023-08-10 11:36:11.006969,59.0
2023-08-10 11:36:11.014659,59.0
2023-08-10 11:36:11.022349,47.0
2023-08-10 11:36:11.030038,43.0
2023-08-10 11:36:11.037728,47.0
2023-08-10 11:36:11.045418,43.0
2023-08-10 11:36:11.053108,40.0
2023-08-10 11:36:11.060797,40.0
2023-08-10 11:36:11.068487,38.0
2023-08-10 11:36:11.076177,31.0
2023-08-10 11:36:11.083866,16.0
2023-08-10 11:36:11.091556,4.0
2023-08-10 11:36:11.099246,9.0
2023-08-10 11:36:11.106936,21.0
2023-08-10 11:36:11.114625,19.0
2023-08-10 11:36:11.122315,9.0
2023-08-10 11:36:11.130005,4.0
2023-08-10 11:36:11.137694,2.0
2023-08-10 11:36:11.145384,4.0
2023-08-10 11:36:11.153074,4.0
2023-08-10 11:36:11.160764,-2.0
2023-08-10 11:36:11.168453,-7.0
2023-08-10 11:36:11.176143,-7.0
2023-08-10 11:36:11.183833,-4.0
2023-08-10 11:36:11.191522,-7.0
2023-08-10 11:36:11.199212,-2.0
2023-08-10 11:36:11.206902,4.0
2023-08-10 11:36:11.214592,2.0
2023-08-10 11:36:11.222281,-4.0
2023-08-10 11:36:11.229971,-9.0
2023-08-10 11:36:11.237661,-11.0
2023-08-10 11:36:11.245350,-14.0
2023-08-10 11:36:11.253040,-9.0
2023-08-10 11:36:11.260730,-2.0
2023-08-10 11:36:11.268420,-9.0
2023-08-10 11:36:11.276109,-21.0
2023-08-10 11:36:11.283799,-16.0
2023-08-10 11:36:11.291489,-11.0
2023-08-10 11:36:11.299178,-19.0
2023-08-10 11:36:11.306868,-26.0
2023-08-10 11:36:11.314558,-23.0
2023-08-10 11:36:11.322248,-11.0
2023-08-10 11:36:11.329937,-14.0
2023-08-10 11:36:11.337627,-21.0
2023-08-10 11:36:11.345317,-19.0
2023-08-10 11:36:11.353006,-19.0
2023-08-10 11:36:11.360696,-23.0
2023-08-10 11:36:11.368386,-21.0
2023-08-10 11:36:11.376076,-14.0
2023-08-10 11:36:11.383765,-19.0
2023-08-10 11:36:11.391455,-28.0
2023-08-10 11:36:11.399145,-31.0
2023-08-10 11:36:11.406834,-38.0
2023-08-10 11:36:11.414524,-55.0
2023-08-10 11:36:11.422214,-55.0
2023-08-10 11:36:11.429904,-43.0
2023-08-10 11:36:11.437593,-47.0
2023-08-10 11:36:11.445283,-47.0
2023-08-10 11:36:11.452973,-33.0
2023-08-10 11:36:11.460662,-26.0
2023-08-10 11:36:11.468352,-21.0
2023-08-10 11:36:11.476042,-11.0
2023-08-10 11:36:11.483732,-11.0
2023-08-10 11:36:11.491421,-19.0
2023-08-10 11:36:11.499111,-21.0
2023-08-10 11:36:11.506801,-23.0
2023-08-10 11:36:11.514490,-21.0
2023-08-10 11:36:11.522180,-16.0
2023-08-10 11:36:11.529870,-23.0
2023-08-10 11:36:11.537560,-112.0
2023-08-10 11:36:11.545249,-322.0
2023-08-10 11:36:11.552939,-557.0
2023-08-10 11:36:11.560629,-705.0
2023-08-10 11:36:11.568318,-607.0
2023-08-10 11:36:11.576008,-220.0
2023-08-10 11:36:11.583698,107.0
2023-08-10 11:36:11.591388,98.0
2023-08-10 11:36:11.599077,-28.0
2023-08-10 11:36:11.606767,-21.0
2023-08-10 11:36:11.614457,31.0
2023-08-10 11:36:11.622146,14.0
2023-08-10 11:36:11.629836,0.0
2023-08-10 11:36:11.637526,14.0
2023-08-10 11:36:11.645215,11.0
2023-08-10 11:36:11.652905,-14.0
2023-08-10 11:36:11.660595,-31.0
2023-08-10 11:36:11.668285,-33.0
2023-08-10 11:36:11.675974,-31.0
2023-08-10 11:36:11.683664,-47.0
2023-08-10 11:36:11.691354,-62.0
2023-08-10 11:36:11.699043,-62.0
2023-08-10 11:36:11.706733,-71.0
2023-08-10 11:36:11.714423,-83.0
2023-08-10 11:36:11.722113,-90.0
2023-08-10 11:36:11.729802,-102.0
2023-08-10 11:36:11.737492,-119.0
2023-08-10 11:36:11.745182,-129.0
2023-08-10 11:36:11.752871,-131.0
2023-08-10 11:36:11.760561,-148.0
2023-08-10 11:36:11.768251,-169.0
2023-08-10 11:36:11.775941,-179.0
2023-08-10 11:36:11.783630,-196.0
2023-08-10 11:36:11.791320,-220.0
2023-08-10 11:36:11.799010,-239.0
2023-08-10 11:36:11.806699,-256.0
2023-08-10 11:36:11.814389,-272.0
2023-08-10 11:36:11.822079,-282.0
2023-08-10 11:36:11.829769,-272.0
2023-08-10 11:36:11.837458,-253.0
2023-08-10 11:36:11.845148,-224.0
2023-08-10 11:36:11.852838,-162.0
2023-08-10 11:36:11.860527,-90.0
2023-08-10 11:36:11.868217,-40.0
2023-08-10 11:36:11.875907,-2.0
2023-08-10 11:36:11.883597,28.0
2023-08-10 11:36:11.891286,38.0
2023-08-10 11:36:11.898976,47.0
2023-08-10 11:36:11.906666,59.0
2023-08-10 11:36:11.914355,57.0
2023-08-10 11:36:11.922045,40.0
2023-08-10 11:36:11.929735,47.0
2023-08-10 11:36:11.937425,64.0
2023-08-10 11:36:11.945114,57.0
2023-08-10 11:36:11.952804,38.0
2023-08-10 11:36:11.960494,33.0
2023-08-10 11:36:11.968183,33.0
2023-08-10 11:36:11.975873,35.0
2023-08-10 11:36:11.983563,28.0
2023-08-10 11:36:11.991253,19.0
2023-08-10 11:36:11.998942,23.0
2023-08-10 11:36:12.006632,26.0
2023-08-10 11:36:12.014322,23.0
2023-08-10 11:36:12.022011,14.0
2023-08-10 11:36:12.029701,11.0
2023-08-10 11:36:12.037391,16.0
2023-08-10 11:36:12.045081,11.0
2023-08-10 11:36:12.052770,-2.0
2023-08-10 11:36:12.060460,4.0
2023-08-10 11:36:12.068150,14.0
2023-08-10 11:36:12.075839,9.0
2023-08-10 11:36:12.083529,7.0
2023-08-10 11:36:12.091219,2.0
2023-08-10 11:36:12.098909,-7.0
2023-08-10 11:36:12.106598,2.0
2023-08-10 11:36:12.114288,7.0
2023-08-10 11:36:12.121978,-7.0
2023-08-10 11:36:12.129667,-11.0
2023-08-10 11:36:12.137357,-9.0
2023-08-10 11:36:12.145047,-4.0
2023-08-10 11:36:12.152737,0.0
2023-08-10 11:36:12.160426,-9.0
2023-08-10 11:36:12.168116,-16.0
2023-08-10 11:36:12.175806,-11.0
2023-08-10 11:36:12.183495,-16.0
2023-08-10 11:36:12.191185,-23.0
2023-08-10 11:36:12.198875,-21.0
2023-08-10 11:36:12.206565,-23.0
2023-08-10 11:36:12.214254,-31.0
2023-08-10 11:36:12.221944,-28.0
2023-08-10 11:36:12.229634,-31.0
2023-08-10 11:36:12.237323,-28.0
2023-08-10 11:36:12.245013,-23.0
2023-08-10 11:36:12.252703,-28.0
2023-08-10 11:36:12.260393,-31.0
2023-08-10 11:36:12.268082,-28.0
2023-08-10 11:36:12.275772,-33.0
2023-08-10 11:36:12.283462,-40.0
2023-08-10 11:36:12.291151,-33.0
2023-08-10 11:36:12.298841,-23.0
2023-08-10 11:36:12.306531,-26.0
2023-08-10 11:36:12.314220,-35.0
2023-08-10 11:36:12.321910,-35.0
2023-08-10 11:36:12.329600,-26.0
2023-08-10 11:36:12.337290,-23.0
2023-08-10 11:36:12.344979,-28.0
2023-08-10 11:36:12.352669,-40.0
2023-08-10 11:36:12.360359,-35.0
2023-08-10 11:36:12.368048,-26.0
2023-08-10 11:36:12.375738,-31.0
2023-08-10 11:36:12.383428,-35.0
2023-08-10 11:36:12.391118,-33.0
2023-08-10 11:36:12.398807,-31.0
2023-08-10 11:36:12.406497,-31.0
2023-08-10 11:36:12.414187,-31.0
2023-08-10 11:36:12.421876,-28.0
2023-08-10 11:36:12.429566,-33.0
2023-08-10 11:36:12.437256,-40.0
2023-08-10 11:36:12.444946,-43.0
2023-08-10 11:36:12.452635,-47.0
2023-08-10 11:36:12.460325,-64.0
2023-08-10 11:36:12.468015,-62.0
2023-08-10 11:36:12.475704,-52.0
2023-08-10 11:36:12.483394,-52.0
2023-08-10 11:36:12.491084,-59.0
2023-08-10 11:36:12.498774,-57.0
2023-08-10 11:36:12.506463,-52.0
2023-08-10 11:36:12.514153,-45.0
2023-08-10 11:36:12.521843,-35.0
2023-08-10 11:36:12.529532,-28.0
2023-08-10 11:36:12.537222,-33.0
2023-08-10 11:36:12.544912,-33.0
2023-08-10 11:36:12.552602,-28.0
2023-08-10 11:36:12.560291,-31.0
2023-08-10 11:36:12.567981,-40.0
2023-08-10 11:36:12.575671,-35.0
2023-08-10 11:36:12.583360,-81.0
2023-08-10 11:36:12.591050,-256.0
2023-08-10 11:36:12.598740,-490.0
2023-08-10 11:36:12.606430,-657.0
2023-08-10 11:36:12.614119,-638.0
2023-08-10 11:36:12.621809,-342.0
2023-08-10 11:36:12.629499,23.0
2023-08-10 11:36:12.637188,112.0
2023-08-10 11:36:12.644878,-7.0
2023-08-10 11:36:12.652568,-45.0
2023-08-10 11:36:12.660258,-2.0
2023-08-10 11:36:12.667947,0.0
2023-08-10 11:36:12.675637,-14.0
2023-08-10 11:36:12.683327,-16.0
2023-08-10 11:36:12.691016,-21.0
2023-08-10 11:36:12.698706,-31.0
2023-08-10 11:36:12.706396,-31.0
2023-08-10 11:36:12.714086,-31.0
2023-08-10 11:36:12.721775,-40.0
2023-08-10 11:36:12.729465,-52.0
2023-08-10 11:36:12.737155,-57.0
2023-08-10 11:36:12.744844,-62.0
2023-08-10 11:36:12.752534,-66.0
2023-08-10 11:36:12.760224,-76.0
2023-08-10 11:36:12.767914,-90.0
2023-08-10 11:36:12.775603,-100.0
2023-08-10 11:36:12.783293,-114.0
2023-08-10 11:36:12.790983,-136.0
2023-08-10 11:36:12.798672,-150.0
2023-08-10 11:36:12.806362,-155.0
2023-08-10 11:36:12.814052,-167.0
2023-08-10 11:36:12.821742,-181.0
2023-08-10 11:36:12.829431,-198.0
2023-08-10 11:36:12.837121,-220.0
2023-08-10 11:36:12.844811,-236.0
2023-08-10 11:36:12.852500,-251.0
2023-08-10 11:36:12.860190,-270.0
2023-08-10 11:36:12.867880,-279.0
2023-08-10 11:36:12.875570,-277.0
2023-08-10 11:36:12.883259,-270.0
2023-08-10 11:36:12.890949,-246.0
2023-08-10 11:36:12.898639,-200.0
2023-08-10 11:36:12.906328,-138.0
2023-08-10 11:36:12.914018,-74.0
2023-08-10 11:36:12.921708,-28.0
2023-08-10 11:36:12.929398,0.0
2023-08-10 11:36:12.937087,21.0
2023-08-10 11:36:12.944777,40.0
2023-08-10 11:36:12.952467,47.0
2023-08-10 11:36:12.960156,47.0
2023-08-10 11:36:12.967846,47.0
2023-08-10 11:36:12.975536,43.0
2023-08-10 11:36:12.983226,40.0
2023-08-10 11:36:12.990915,38.0
2023-08-10 11:36:12.998605,33.0
2023-08-10 11:36:13.006295,23.0
2023-08-10 11:36:13.013984,21.0
2023-08-10 11:36:13.021674,23.0
2023-08-10 11:36:13.029364,21.0
2023-08-10 11:36:13.037053,14.0
2023-08-10 11:36:13.044743,11.0
2023-08-10 11:36:13.052433,7.0
2023-08-10 11:36:13.060123,4.0
2023-08-10 11:36:13.067812,0.0
2023-08-10 11:36:13.075502,0.0
2023-08-10 11:36:13.083192,0.0
2023-08-10 11:36:13.090881,-2.0
2023-08-10 11:36:13.098571,-4.0
2023-08-10 11:36:13.106261,-9.0
2023-08-10 11:36:13.113951,-14.0
2023-08-10 11:36:13.121640,-19.0
2023-08-10 11:36:13.129330,-19.0
2023-08-10 11:36:13.137020,-16.0
2023-08-10 11:36:13.144709,-16.0
2023-08-10 11:36:13.152399,-21.0
2023-08-10 11:36:13.160089,-28.0
2023-08-10 11:36:13.167779,-35.0
2023-08-10 11:36:13.175468,-38.0
2023-08-10 11:36:13.183158,-35.0
2023-08-10 11:36:13.190848,-35.0
2023-08-10 11:36:13.198537,-40.0
2023-08-10 11:36:13.206227,-43.0
2023-08-10 11:36:13.213917,-45.0
2023-08-10 11:36:13.221607,-45.0
2023-08-10 11:36:13.229296,-45.0
2023-08-10 11:36:13.236986,-50.0
2023-08-10 11:36:13.244676,-59.0
2023-08-10 11:36:13.252365,-57.0
2023-08-10 11:36:13.260055,-57.0
2023-08-10 11:36:13.267745,-64.0
2023-08-10 11:36:13.275435,-66.0
2023-08-10 11:36:13.283124,-64.0
2023-08-10 11:36:13.290814,-62.0
2023-08-10 11:36:13.298504,-66.0
2023-08-10 11:36:13.306193,-69.0
2023-08-10 11:36:13.313883,-66.0
2023-08-10 11:36:13.321573,-71.0
2023-08-10 11:36:13.329263,-78.0
2023-08-10 11:36:13.336952,-83.0
2023-08-10 11:36:13.344642,-81.0
2023-08-10 11:36:13.352332,-78.0
2023-08-10 11:36:13.360021,-78.0
2023-08-10 11:36:13.367711,-81.0
2023-08-10 11:36:13.375401,-83.0
2023-08-10 11:36:13.383091,-83.0
2023-08-10 11:36:13.390780,-86.0
2023-08-10 11:36:13.398470,-88.0
2023-08-10 11:36:13.406160,-93.0
2023-08-10 11:36:13.413849,-90.0
2023-08-10 11:36:13.421539,-86.0
2023-08-10 11:36:13.429229,-86.0
2023-08-10 11:36:13.436919,-90.0
2023-08-10 11:36:13.444608,-93.0
2023-08-10 11:36:13.452298,-93.0
2023-08-10 11:36:13.459988,-95.0
2023-08-10 11:36:13.467677,-98.0
2023-08-10 11:36:13.475367,-95.0
2023-08-10 11:36:13.483057,-98.0
2023-08-10 11:36:13.490747,-117.0
2023-08-10 11:36:13.498436,-129.0
2023-08-10 11:36:13.506126,-122.0
2023-08-10 11:36:13.513816,-114.0
2023-08-10 11:36:13.521505,-114.0
2023-08-10 11:36:13.529195,-117.0
2023-08-10 11:36:13.536885,-114.0
2023-08-10 11:36:13.544575,-98.0
2023-08-10 11:36:13.552264,-88.0
2023-08-10 11:36:13.559954,-90.0
2023-08-10 11:36:13.567644,-90.0
2023-08-10 11:36:13.575333,-83.0
2023-08-10 11:36:13.583023,-83.0
2023-08-10 11:36:13.590713,-93.0
2023-08-10 11:36:13.598403,-100.0
2023-08-10 11:36:13.606092,-93.0
2023-08-10 11:36:13.613782,-150.0
2023-08-10 11:36:13.621472,-349.0
2023-08-10 11:36:13.629161,-600.0
2023-08-10 11:36:13.636851,-772.0
2023-08-10 11:36:13.644541,-720.0
2023-08-10 11:36:13.652231,-368.0
2023-08-10 11:36:13.659920,4.0
2023-08-10 11:36:13.667610,78.0
2023-08-10 11:36:13.675300,-38.0
2023-08-10 11:36:13.682989,-71.0
2023-08-10 11:36:13.690679,-28.0
2023-08-10 11:36:13.698369,-28.0
2023-08-10 11:36:13.706058,-43.0
2023-08-10 11:36:13.713748,-35.0
2023-08-10 11:36:13.721438,-31.0
2023-08-10 11:36:13.729128,-40.0
2023-08-10 11:36:13.736817,-45.0
2023-08-10 11:36:13.744507,-55.0
2023-08-10 11:36:13.752197,-64.0
2023-08-10 11:36:13.759886,-64.0
2023-08-10 11:36:13.767576,-69.0
2023-08-10 11:36:13.775266,-78.0
2023-08-10 11:36:13.782956,-83.0
2023-08-10 11:36:13.790645,-88.0
2023-08-10 11:36:13.798335,-93.0
2023-08-10 11:36:13.806025,-100.0
2023-08-10 11:36:13.813714,-107.0
2023-08-10 11:36:13.821404,-117.0
2023-08-10 11:36:13.829094,-133.0
2023-08-10 11:36:13.836784,-148.0
2023-08-10 11:36:13.844473,-155.0
2023-08-10 11:36:13.852163,-169.0
2023-08-10 11:36:13.859853,-193.0
2023-08-10 11:36:13.867542,-217.0
2023-08-10 11:36:13.875232,-234.0
2023-08-10 11:36:13.882922,-256.0
2023-08-10 11:36:13.890612,-270.0
2023-08-10 11:36:13.898301,-277.0
2023-08-10 11:36:13.905991,-284.0
2023-08-10 11:36:13.913681,-277.0
2023-08-10 11:36:13.921370,-241.0
2023-08-10 11:36:13.929060,-184.0
2023-08-10 11:36:13.936750,-117.0
2023-08-10 11:36:13.944440,-55.0
2023-08-10 11:36:13.952129,-2.0
2023-08-10 11:36:13.959819,26.0
2023-08-10 11:36:13.967509,43.0
2023-08-10 11:36:13.975198,57.0
2023-08-10 11:36:13.982888,64.0
2023-08-10 11:36:13.990578,66.0
2023-08-10 11:36:13.998268,64.0
2023-08-10 11:36:14.005957,66.0
2023-08-10 11:36:14.013647,71.0
2023-08-10 11:36:14.021337,62.0
2023-08-10 11:36:14.029026,50.0
2023-08-10 11:36:14.036716,52.0
2023-08-10 11:36:14.044406,57.0
2023-08-10 11:36:14.052096,47.0
2023-08-10 11:36:14.059785,40.0
2023-08-10 11:36:14.067475,43.0
2023-08-10 11:36:14.075165,43.0
2023-08-10 11:36:14.082854,35.0
2023-08-10 11:36:14.090544,31.0
2023-08-10 11:36:14.098234,33.0
2023-08-10 11:36:14.105924,31.0
2023-08-10 11:36:14.113613,33.0
2023-08-10 11:36:14.121303,33.0
2023-08-10 11:36:14.128993,19.0
2023-08-10 11:36:14.136682,11.0
2023-08-10 11:36:14.144372,19.0
2023-08-10 11:36:14.152062,19.0
2023-08-10 11:36:14.159752,14.0
2023-08-10 11:36:14.167441,19.0
2023-08-10 11:36:14.175131,14.0
2023-08-10 11:36:14.182821,4.0
2023-08-10 11:36:14.190510,7.0
2023-08-10 11:36:14.198200,4.0
2023-08-10 11:36:14.205890,4.0
2023-08-10 11:36:14.213580,4.0
2023-08-10 11:36:14.221269,-7.0
2023-08-10 11:36:14.228959,-14.0
2023-08-10 11:36:14.236649,-7.0
2023-08-10 11:36:14.244338,0.0
2023-08-10 11:36:14.252028,0.0
2023-08-10 11:36:14.259718,-4.0
2023-08-10 11:36:14.267408,-14.0
2023-08-10 11:36:14.275097,-16.0
2023-08-10 11:36:14.282787,-11.0
2023-08-10 11:36:14.290477,-7.0
2023-08-10 11:36:14.298166,-7.0
2023-08-10 11:36:14.305856,-7.0
2023-08-10 11:36:14.313546,-14.0
2023-08-10 11:36:14.321236,-16.0
2023-08-10 11:36:14.328925,-11.0
2023-08-10 11:36:14.336615,-11.0
2023-08-10 11:36:14.344305,-19.0
2023-08-10 11:36:14.351994,-26.0
2023-08-10 11:36:14.359684,-40.0
2023-08-10 11:36:14.367374,-47.0
2023-08-10 11:36:14.375064,-40.0
2023-08-10 11:36:14.382753,-38.0
2023-08-10 11:36:14.390443,-43.0
2023-08-10 11:36:14.398133,-40.0
2023-08-10 11:36:14.405822,-28.0
2023-08-10 11:36:14.413512,-23.0
2023-08-10 11:36:14.421202,-14.0
2023-08-10 11:36:14.428891,-11.0
2023-08-10 11:36:14.436581,-16.0
2023-08-10 11:36:14.444271,-11.0
2023-08-10 11:36:14.451961,-16.0
2023-08-10 11:36:14.459650,-31.0
2023-08-10 11:36:14.467340,-35.0
2023-08-10 11:36:14.475030,-28.0
2023-08-10 11:36:14.482719,-47.0
2023-08-10 11:36:14.490409,-186.0
2023-08-10 11:36:14.498099,-428.0
2023-08-10 11:36:14.505789,-645.0
2023-08-10 11:36:14.513478,-727.0
2023-08-10 11:36:14.521168,-519.0
2023-08-10 11:36:14.528858,-95.0
2023-08-10 11:36:14.536547,122.0
2023-08-10 11:36:14.544237,33.0
2023-08-10 11:36:14.551927,-38.0
2023-08-10 11:36:14.559617,0.0
2023-08-10 11:36:14.567306,9.0
2023-08-10 11:36:14.574996,-16.0
2023-08-10 11:36:14.582686,-19.0
2023-08-10 11:36:14.590375,-14.0
2023-08-10 11:36:14.598065,-19.0
2023-08-10 11:36:14.605755,-26.0
2023-08-10 11:36:14.613445,-28.0
2023-08-10 11:36:14.621134,-31.0
2023-08-10 11:36:14.628824,-38.0
2023-08-10 11:36:14.636514,-47.0
2023-08-10 11:36:14.644203,-52.0
2023-08-10 11:36:14.651893,-55.0
2023-08-10 11:36:14.659583,-64.0
2023-08-10 11:36:14.667273,-76.0
2023-08-10 11:36:14.674962,-86.0
2023-08-10 11:36:14.682652,-93.0
2023-08-10 11:36:14.690342,-112.0
2023-08-10 11:36:14.698031,-133.0
2023-08-10 11:36:14.705721,-136.0
2023-08-10 11:36:14.713411,-143.0
2023-08-10 11:36:14.721101,-165.0
2023-08-10 11:36:14.728790,-191.0
2023-08-10 11:36:14.736480,-205.0
2023-08-10 11:36:14.744170,-222.0
2023-08-10 11:36:14.751859,-244.0
2023-08-10 11:36:14.759549,-256.0
2023-08-10 11:36:14.767239,-263.0
2023-08-10 11:36:14.774929,-272.0
2023-08-10 11:36:14.782618,-277.0
2023-08-10 11:36:14.790308,-239.0
2023-08-10 11:36:14.797998,-174.0
2023-08-10 11:36:14.805687,-124.0
2023-08-10 11:36:14.813377,-76.0
2023-08-10 11:36:14.821067,-14.0
2023-08-10 11:36:14.828757,31.0
2023-08-10 11:36:14.836446,47.0
2023-08-10 11:36:14.844136,59.0
2023-08-10 11:36:14.851826,69.0
2023-08-10 11:36:14.859515,66.0
2023-08-10 11:36:14.867205,66.0
2023-08-10 11:36:14.874895,71.0
2023-08-10 11:36:14.882585,74.0
2023-08-10 11:36:14.890274,66.0
2023-08-10 11:36:14.897964,62.0
2023-08-10 11:36:14.905654,62.0
2023-08-10 11:36:14.913343,57.0
2023-08-10 11:36:14.921033,50.0
2023-08-10 11:36:14.928723,47.0
2023-08-10 11:36:14.936413,50.0
2023-08-10 11:36:14.944102,50.0
2023-08-10 11:36:14.951792,43.0
2023-08-10 11:36:14.959482,35.0
2023-08-10 11:36:14.967171,33.0
2023-08-10 11:36:14.974861,35.0
2023-08-10 11:36:14.982551,31.0
2023-08-10 11:36:14.990241,23.0
2023-08-10 11:36:14.997930,19.0
2023-08-10 11:36:15.005620,14.0
2023-08-10 11:36:15.013310,11.0
2023-08-10 11:36:15.020999,9.0
2023-08-10 11:36:15.028689,11.0
2023-08-10 11:36:15.036379,11.0
2023-08-10 11:36:15.044069,7.0
2023-08-10 11:36:15.051758,7.0
2023-08-10 11:36:15.059448,7.0
2023-08-10 11:36:15.067138,9.0
2023-08-10 11:36:15.074827,9.0
2023-08-10 11:36:15.082517,0.0
2023-08-10 11:36:15.090207,-4.0
2023-08-10 11:36:15.097896,0.0
2023-08-10 11:36:15.105586,2.0
2023-08-10 11:36:15.113276,-2.0
2023-08-10 11:36:15.120966,-2.0
2023-08-10 11:36:15.128655,2.0
2023-08-10 11:36:15.136345,-2.0
2023-08-10 11:36:15.144035,-11.0
2023-08-10 11:36:15.151724,-9.0
2023-08-10 11:36:15.159414,-2.0
2023-08-10 11:36:15.167104,-4.0
2023-08-10 11:36:15.174794,-11.0
2023-08-10 11:36:15.182483,-16.0
2023-08-10 11:36:15.190173,-21.0
2023-08-10 11:36:15.197863,-21.0
2023-08-10 11:36:15.205552,-19.0
2023-08-10 11:36:15.213242,-21.0
2023-08-10 11:36:15.220932,-26.0
2023-08-10 11:36:15.228622,-23.0
2023-08-10 11:36:15.236311,-21.0
2023-08-10 11:36:15.244001,-19.0
2023-08-10 11:36:15.251691,-19.0
2023-08-10 11:36:15.259380,-21.0
2023-08-10 11:36:15.267070,-26.0
2023-08-10 11:36:15.274760,-28.0
2023-08-10 11:36:15.282450,-23.0
2023-08-10 11:36:15.290139,-21.0
2023-08-10 11:36:15.297829,-23.0
2023-08-10 11:36:15.305519,-31.0
2023-08-10 11:36:15.313208,-40.0
2023-08-10 11:36:15.320898,-47.0
2023-08-10 11:36:15.328588,-47.0
2023-08-10 11:36:15.336278,-40.0
2023-08-10 11:36:15.343967,-35.0
2023-08-10 11:36:15.351657,-45.0
2023-08-10 11:36:15.359347,-47.0
2023-08-10 11:36:15.367036,-28.0
2023-08-10 11:36:15.374726,-11.0
2023-08-10 11:36:15.382416,-16.0
2023-08-10 11:36:15.390106,-16.0
2023-08-10 11:36:15.397795,-14.0
2023-08-10 11:36:15.405485,-19.0
2023-08-10 11:36:15.413175,-21.0
2023-08-10 11:36:15.420864,-19.0
2023-08-10 11:36:15.428554,-16.0
2023-08-10 11:36:15.436244,-31.0
2023-08-10 11:36:15.443934,-141.0
2023-08-10 11:36:15.451623,-368.0
2023-08-10 11:36:15.459313,-607.0
2023-08-10 11:36:15.467003,-741.0
2023-08-10 11:36:15.474692,-590.0
2023-08-10 11:36:15.482382,-160.0
2023-08-10 11:36:15.490072,119.0
2023-08-10 11:36:15.497762,50.0
2023-08-10 11:36:15.505451,-45.0
2023-08-10 11:36:15.513141,-4.0
2023-08-10 11:36:15.520831,19.0
2023-08-10 11:36:15.528520,-11.0
2023-08-10 11:36:15.536210,-11.0
2023-08-10 11:36:15.543900,2.0
2023-08-10 11:36:15.551590,-7.0
2023-08-10 11:36:15.559279,-19.0
2023-08-10 11:36:15.566969,-19.0
2023-08-10 11:36:15.574659,-26.0
2023-08-10 11:36:15.582348,-45.0
2023-08-10 11:36:15.590038,-55.0
2023-08-10 11:36:15.597728,-50.0
2023-08-10 11:36:15.605418,-50.0
2023-08-10 11:36:15.613107,-64.0
2023-08-10 11:36:15.620797,-74.0
2023-08-10 11:36:15.628487,-86.0
2023-08-10 11:36:15.636176,-90.0
2023-08-10 11:36:15.643866,-90.0
2023-08-10 11:36:15.651556,-100.0
2023-08-10 11:36:15.659246,-122.0
2023-08-10 11:36:15.666935,-136.0
2023-08-10 11:36:15.674625,-150.0
2023-08-10 11:36:15.682315,-174.0
2023-08-10 11:36:15.690004,-191.0
2023-08-10 11:36:15.697694,-203.0
2023-08-10 11:36:15.705384,-227.0
2023-08-10 11:36:15.713074,-248.0
2023-08-10 11:36:15.720763,-260.0
2023-08-10 11:36:15.728453,-270.0
2023-08-10 11:36:15.736143,-270.0
2023-08-10 11:36:15.743832,-246.0
2023-08-10 11:36:15.751522,-200.0
2023-08-10 11:36:15.759212,-148.0
2023-08-10 11:36:15.766902,-88.0
2023-08-10 11:36:15.774591,-26.0
2023-08-10 11:36:15.782281,16.0
2023-08-10 11:36:15.789971,43.0
2023-08-10 11:36:15.797660,62.0
2023-08-10 11:36:15.805350,69.0
2023-08-10 11:36:15.813040,69.0
2023-08-10 11:36:15.820729,66.0
2023-08-10 11:36:15.828419,66.0
2023-08-10 11:36:15.836109,66.0
2023-08-10 11:36:15.843799,64.0
2023-08-10 11:36:15.851488,66.0
2023-08-10 11:36:15.859178,66.0
2023-08-10 11:36:15.866868,64.0
2023-08-10 11:36:15.874557,52.0
2023-08-10 11:36:15.882247,45.0
2023-08-10 11:36:15.889937,43.0
2023-08-10 11:36:15.897627,40.0
2023-08-10 11:36:15.905316,43.0
2023-08-10 11:36:15.913006,43.0
2023-08-10 11:36:15.920696,40.0
2023-08-10 11:36:15.928385,38.0
2023-08-10 11:36:15.936075,33.0
2023-08-10 11:36:15.943765,31.0
2023-08-10 11:36:15.951455,33.0
2023-08-10 11:36:15.959144,31.0
2023-08-10 11:36:15.966834,23.0
2023-08-10 11:36:15.974524,19.0
2023-08-10 11:36:15.982213,14.0
2023-08-10 11:36:15.989903,9.0
2023-08-10 11:36:15.997593,16.0
2023-08-10 11:36:16.005283,23.0
2023-08-10 11:36:16.012972,19.0
2023-08-10 11:36:16.020662,9.0
2023-08-10 11:36:16.028352,7.0
2023-08-10 11:36:16.036041,9.0
2023-08-10 11:36:16.043731,11.0
2023-08-10 11:36:16.051421,11.0
2023-08-10 11:36:16.059111,14.0
2023-08-10 11:36:16.066800,11.0
2023-08-10 11:36:16.074490,4.0
2023-08-10 11:36:16.082180,0.0
2023-08-10 11:36:16.089869,-2.0
2023-08-10 11:36:16.097559,0.0
2023-08-10 11:36:16.105249,2.0
2023-08-10 11:36:16.112939,2.0
2023-08-10 11:36:16.120628,0.0
2023-08-10 11:36:16.128318,-4.0
2023-08-10 11:36:16.136008,-7.0
2023-08-10 11:36:16.143697,-7.0
2023-08-10 11:36:16.151387,-7.0
2023-08-10 11:36:16.159077,-16.0
2023-08-10 11:36:16.166767,-21.0
2023-08-10 11:36:16.174456,-21.0
2023-08-10 11:36:16.182146,-21.0
2023-08-10 11:36:16.189836,-23.0
2023-08-10 11:36:16.197525,-26.0
2023-08-10 11:36:16.205215,-26.0
2023-08-10 11:36:16.212905,-31.0
2023-08-10 11:36:16.220595,-28.0
2023-08-10 11:36:16.228284,-26.0
2023-08-10 11:36:16.235974,-26.0
2023-08-10 11:36:16.243664,-28.0
2023-08-10 11:36:16.251353,-33.0
2023-08-10 11:36:16.259043,-33.0
2023-08-10 11:36:16.266733,-28.0
2023-08-10 11:36:16.274423,-28.0
2023-08-10 11:36:16.282112,-28.0
2023-08-10 11:36:16.289802,-26.0
2023-08-10 11:36:16.297492,-31.0
2023-08-10 11:36:16.305181,-38.0
2023-08-10 11:36:16.312871,-47.0
2023-08-10 11:36:16.320561,-57.0
2023-08-10 11:36:16.328251,-57.0
2023-08-10 11:36:16.335940,-52.0
2023-08-10 11:36:16.343630,-52.0
2023-08-10 11:36:16.351320,-50.0
2023-08-10 11:36:16.359009,-43.0
2023-08-10 11:36:16.366699,-38.0
2023-08-10 11:36:16.374389,-28.0
2023-08-10 11:36:16.382079,-19.0
2023-08-10 11:36:16.389768,-28.0
2023-08-10 11:36:16.397458,-31.0
2023-08-10 11:36:16.405148,-26.0
2023-08-10 11:36:16.412837,-28.0
2023-08-10 11:36:16.420527,-28.0
2023-08-10 11:36:16.428217,-21.0
2023-08-10 11:36:16.435907,-31.0
2023-08-10 11:36:16.443596,-126.0
2023-08-10 11:36:16.451286,-334.0
2023-08-10 11:36:16.458976,-559.0
2023-08-10 11:36:16.466665,-705.0
2023-08-10 11:36:16.474355,-612.0
2023-08-10 11:36:16.482045,-220.0
2023-08-10 11:36:16.489734,100.0
2023-08-10 11:36:16.497424,74.0
2023-08-10 11:36:16.505114,-35.0
2023-08-10 11:36:16.512804,-9.0
2023-08-10 11:36:16.520493,19.0
2023-08-10 11:36:16.528183,-7.0
2023-08-10 11:36:16.535873,-4.0
2023-08-10 11:36:16.543562,2.0
2023-08-10 11:36:16.551252,-14.0
2023-08-10 11:36:16.558942,-19.0
2023-08-10 11:36:16.566632,-16.0
2023-08-10 11:36:16.574321,-31.0
2023-08-10 11:36:16.582011,-45.0
2023-08-10 11:36:16.589701,-43.0
2023-08-10 11:36:16.597390,-45.0
2023-08-10 11:36:16.605080,-57.0
2023-08-10 11:36:16.612770,-64.0
2023-08-10 11:36:16.620460,-69.0
2023-08-10 11:36:16.628149,-81.0
2023-08-10 11:36:16.635839,-90.0
2023-08-10 11:36:16.643529,-102.0
2023-08-10 11:36:16.651218,-114.0
2023-08-10 11:36:16.658908,-126.0
2023-08-10 11:36:16.666598,-141.0
2023-08-10 11:36:16.674288,-155.0
2023-08-10 11:36:16.681977,-172.0
2023-08-10 11:36:16.689667,-198.0
2023-08-10 11:36:16.697357,-229.0
2023-08-10 11:36:16.705046,-251.0
2023-08-10 11:36:16.712736,-265.0
2023-08-10 11:36:16.720426,-279.0
2023-08-10 11:36:16.728116,-289.0
2023-08-10 11:36:16.735805,-287.0
2023-08-10 11:36:16.743495,-267.0
2023-08-10 11:36:16.751185,-234.0
2023-08-10 11:36:16.758874,-191.0
2023-08-10 11:36:16.766564,-124.0
2023-08-10 11:36:16.774254,-57.0
2023-08-10 11:36:16.781944,-16.0
2023-08-10 11:36:16.789633,7.0
2023-08-10 11:36:16.797323,31.0
2023-08-10 11:36:16.805013,47.0
2023-08-10 11:36:16.812702,52.0
2023-08-10 11:36:16.820392,55.0
2023-08-10 11:36:16.828082,57.0
2023-08-10 11:36:16.835772,52.0
2023-08-10 11:36:16.843461,45.0
2023-08-10 11:36:16.851151,47.0
2023-08-10 11:36:16.858841,43.0
2023-08-10 11:36:16.866530,40.0
2023-08-10 11:36:16.874220,43.0
2023-08-10 11:36:16.881910,38.0
2023-08-10 11:36:16.889600,31.0
2023-08-10 11:36:16.897289,33.0
2023-08-10 11:36:16.904979,31.0
2023-08-10 11:36:16.912669,26.0
2023-08-10 11:36:16.920358,31.0
2023-08-10 11:36:16.928048,26.0
2023-08-10 11:36:16.935738,16.0
2023-08-10 11:36:16.943428,19.0
2023-08-10 11:36:16.951117,23.0
2023-08-10 11:36:16.958807,19.0
2023-08-10 11:36:16.966497,14.0
2023-08-10 11:36:16.974186,11.0
2023-08-10 11:36:16.981876,9.0
2023-08-10 11:36:16.989566,9.0
2023-08-10 11:36:16.997256,11.0
2023-08-10 11:36:17.004945,14.0
2023-08-10 11:36:17.012635,14.0
2023-08-10 11:36:17.020325,7.0
2023-08-10 11:36:17.028014,0.0
2023-08-10 11:36:17.035704,2.0
2023-08-10 11:36:17.043394,2.0
2023-08-10 11:36:17.051084,4.0
2023-08-10 11:36:17.058773,7.0
2023-08-10 11:36:17.066463,2.0
2023-08-10 11:36:17.074153,-4.0
2023-08-10 11:36:17.081842,-7.0
2023-08-10 11:36:17.089532,-4.0
2023-08-10 11:36:17.097222,-2.0
2023-08-10 11:36:17.104912,-4.0
2023-08-10 11:36:17.112601,-7.0
2023-08-10 11:36:17.120291,-9.0
2023-08-10 11:36:17.127981,-7.0
2023-08-10 11:36:17.135670,-4.0
2023-08-10 11:36:17.143360,-9.0
2023-08-10 11:36:17.151050,-14.0
2023-08-10 11:36:17.158740,-11.0
2023-08-10 11:36:17.166429,-14.0
2023-08-10 11:36:17.174119,-16.0
2023-08-10 11:36:17.181809,-21.0
2023-08-10 11:36:17.189498,-26.0
2023-08-10 11:36:17.197188,-28.0
2023-08-10 11:36:17.204878,-31.0
2023-08-10 11:36:17.212567,-33.0
2023-08-10 11:36:17.220257,-31.0
2023-08-10 11:36:17.227947,-28.0
2023-08-10 11:36:17.235637,-28.0
2023-08-10 11:36:17.243326,-33.0
2023-08-10 11:36:17.251016,-43.0
2023-08-10 11:36:17.258706,-47.0
2023-08-10 11:36:17.266395,-45.0
2023-08-10 11:36:17.274085,-45.0
2023-08-10 11:36:17.281775,-50.0
2023-08-10 11:36:17.289465,-59.0
2023-08-10 11:36:17.297154,-64.0
2023-08-10 11:36:17.304844,-59.0
2023-08-10 11:36:17.312534,-55.0
2023-08-10 11:36:17.320223,-55.0
2023-08-10 11:36:17.327913,-50.0
2023-08-10 11:36:17.335603,-35.0
2023-08-10 11:36:17.343293,-19.0
2023-08-10 11:36:17.350982,-19.0
2023-08-10 11:36:17.358672,-26.0
2023-08-10 11:36:17.366362,-23.0
2023-08-10 11:36:17.374051,-19.0
2023-08-10 11:36:17.381741,-21.0
2023-08-10 11:36:17.389431,-19.0
2023-08-10 11:36:17.397121,-14.0
2023-08-10 11:36:17.404810,-28.0
2023-08-10 11:36:17.412500,-124.0
2023-08-10 11:36:17.420190,-334.0
2023-08-10 11:36:17.427879,-571.0
2023-08-10 11:36:17.435569,-710.0
2023-08-10 11:36:17.443259,-588.0
2023-08-10 11:36:17.450949,-198.0
2023-08-10 11:36:17.458638,102.0
2023-08-10 11:36:17.466328,90.0
2023-08-10 11:36:17.474018,-9.0
2023-08-10 11:36:17.481707,4.0
2023-08-10 11:36:17.489397,38.0
2023-08-10 11:36:17.497087,16.0
2023-08-10 11:36:17.504777,11.0
2023-08-10 11:36:17.512466,21.0
2023-08-10 11:36:17.520156,11.0
2023-08-10 11:36:17.527846,2.0
2023-08-10 11:36:17.535535,2.0
2023-08-10 11:36:17.543225,-2.0
2023-08-10 11:36:17.550915,-11.0
2023-08-10 11:36:17.558605,-28.0
2023-08-10 11:36:17.566294,-40.0
2023-08-10 11:36:17.573984,-40.0
2023-08-10 11:36:17.581674,-45.0
2023-08-10 11:36:17.589363,-59.0
2023-08-10 11:36:17.597053,-76.0
2023-08-10 11:36:17.604743,-86.0
2023-08-10 11:36:17.612433,-88.0
2023-08-10 11:36:17.620122,-102.0
2023-08-10 11:36:17.627812,-119.0
2023-08-10 11:36:17.635502,-131.0
2023-08-10 11:36:17.643191,-145.0
2023-08-10 11:36:17.650881,-169.0
2023-08-10 11:36:17.658571,-186.0
2023-08-10 11:36:17.666261,-203.0
2023-08-10 11:36:17.673950,-224.0
2023-08-10 11:36:17.681640,-246.0
2023-08-10 11:36:17.689330,-256.0
2023-08-10 11:36:17.697019,-270.0
2023-08-10 11:36:17.704709,-282.0
2023-08-10 11:36:17.712399,-263.0
2023-08-10 11:36:17.720089,-220.0
2023-08-10 11:36:17.727778,-162.0
2023-08-10 11:36:17.735468,-98.0
2023-08-10 11:36:17.743158,-43.0
2023-08-10 11:36:17.750847,-4.0
2023-08-10 11:36:17.758537,28.0
2023-08-10 11:36:17.766227,52.0
2023-08-10 11:36:17.773917,62.0
2023-08-10 11:36:17.781606,62.0
2023-08-10 11:36:17.789296,62.0
2023-08-10 11:36:17.796986,64.0
2023-08-10 11:36:17.804675,64.0
2023-08-10 11:36:17.812365,62.0
2023-08-10 11:36:17.820055,59.0
2023-08-10 11:36:17.827745,47.0
2023-08-10 11:36:17.835434,33.0
2023-08-10 11:36:17.843124,31.0
2023-08-10 11:36:17.850814,35.0
2023-08-10 11:36:17.858503,38.0
2023-08-10 11:36:17.866193,33.0
2023-08-10 11:36:17.873883,28.0
2023-08-10 11:36:17.881572,23.0
2023-08-10 11:36:17.889262,23.0
2023-08-10 11:36:17.896952,23.0
2023-08-10 11:36:17.904642,23.0
2023-08-10 11:36:17.912331,19.0
2023-08-10 11:36:17.920021,19.0
2023-08-10 11:36:17.927711,16.0
2023-08-10 11:36:17.935400,14.0
2023-08-10 11:36:17.943090,11.0
2023-08-10 11:36:17.950780,11.0
2023-08-10 11:36:17.958470,14.0
2023-08-10 11:36:17.966159,11.0
2023-08-10 11:36:17.973849,9.0
2023-08-10 11:36:17.981539,9.0
2023-08-10 11:36:17.989228,9.0
2023-08-10 11:36:17.996918,7.0
2023-08-10 11:36:18.004608,4.0
2023-08-10 11:36:18.012298,2.0
2023-08-10 11:36:18.019987,0.0
2023-08-10 11:36:18.027677,2.0
2023-08-10 11:36:18.035367,2.0
2023-08-10 11:36:18.043056,2.0
2023-08-10 11:36:18.050746,0.0
2023-08-10 11:36:18.058436,-2.0
2023-08-10 11:36:18.066126,-7.0
2023-08-10 11:36:18.073815,-7.0
2023-08-10 11:36:18.081505,-4.0
2023-08-10 11:36:18.089195,-7.0
2023-08-10 11:36:18.096884,-11.0
2023-08-10 11:36:18.104574,-14.0
2023-08-10 11:36:18.112264,-7.0
2023-08-10 11:36:18.119954,-7.0
2023-08-10 11:36:18.127643,-11.0
2023-08-10 11:36:18.135333,-11.0
2023-08-10 11:36:18.143023,-11.0
2023-08-10 11:36:18.150712,-14.0
2023-08-10 11:36:18.158402,-14.0
2023-08-10 11:36:18.166092,-14.0
2023-08-10 11:36:18.173782,-16.0
2023-08-10 11:36:18.181471,-19.0
2023-08-10 11:36:18.189161,-19.0
2023-08-10 11:36:18.196851,-23.0
2023-08-10 11:36:18.204540,-28.0
2023-08-10 11:36:18.212230,-28.0
2023-08-10 11:36:18.219920,-21.0
2023-08-10 11:36:18.227610,-19.0
2023-08-10 11:36:18.235299,-33.0
2023-08-10 11:36:18.242989,-33.0
2023-08-10 11:36:18.250679,-28.0
2023-08-10 11:36:18.258368,-40.0
2023-08-10 11:36:18.266058,-52.0
2023-08-10 11:36:18.273748,-47.0
2023-08-10 11:36:18.281438,-43.0
2023-08-10 11:36:18.289127,-45.0
2023-08-10 11:36:18.296817,-43.0
2023-08-10 11:36:18.304507,-35.0
2023-08-10 11:36:18.312196,-28.0
2023-08-10 11:36:18.319886,-21.0
2023-08-10 11:36:18.327576,-14.0
2023-08-10 11:36:18.335266,-7.0
2023-08-10 11:36:18.342955,-9.0
2023-08-10 11:36:18.350645,-16.0
2023-08-10 11:36:18.358335,-19.0
2023-08-10 11:36:18.366024,-14.0
2023-08-10 11:36:18.373714,-16.0
2023-08-10 11:36:18.381404,-23.0
2023-08-10 11:36:18.389094,-98.0
2023-08-10 11:36:18.396783,-303.0
2023-08-10 11:36:18.404473,-550.0
2023-08-10 11:36:18.412163,-710.0
2023-08-10 11:36:18.419852,-634.0
2023-08-10 11:36:18.427542,-258.0
2023-08-10 11:36:18.435232,88.0
2023-08-10 11:36:18.442922,95.0
2023-08-10 11:36:18.450611,-28.0
2023-08-10 11:36:18.458301,-23.0
2023-08-10 11:36:18.465991,19.0
2023-08-10 11:36:18.473680,0.0
2023-08-10 11:36:18.481370,-11.0
2023-08-10 11:36:18.489060,-2.0
2023-08-10 11:36:18.496750,-9.0
2023-08-10 11:36:18.504439,-19.0
2023-08-10 11:36:18.512129,-16.0
2023-08-10 11:36:18.519819,-21.0
2023-08-10 11:36:18.527508,-31.0
2023-08-10 11:36:18.535198,-38.0
2023-08-10 11:36:18.542888,-43.0
2023-08-10 11:36:18.550578,-47.0
2023-08-10 11:36:18.558267,-50.0
2023-08-10 11:36:18.565957,-57.0
2023-08-10 11:36:18.573647,-69.0
2023-08-10 11:36:18.581336,-78.0
2023-08-10 11:36:18.589026,-90.0
2023-08-10 11:36:18.596716,-100.0
2023-08-10 11:36:18.604405,-112.0
2023-08-10 11:36:18.612095,-129.0
2023-08-10 11:36:18.619785,-145.0
2023-08-10 11:36:18.627475,-157.0
2023-08-10 11:36:18.635164,-172.0
2023-08-10 11:36:18.642854,-189.0
2023-08-10 11:36:18.650544,-208.0
2023-08-10 11:36:18.658233,-232.0
2023-08-10 11:36:18.665923,-244.0
2023-08-10 11:36:18.673613,-248.0
2023-08-10 11:36:18.681303,-253.0
2023-08-10 11:36:18.688992,-241.0
2023-08-10 11:36:18.696682,-208.0
2023-08-10 11:36:18.704372,-160.0
2023-08-10 11:36:18.712061,-100.0
2023-08-10 11:36:18.719751,-40.0
2023-08-10 11:36:18.727441,9.0
2023-08-10 11:36:18.735131,45.0
2023-08-10 11:36:18.742820,66.0
2023-08-10 11:36:18.750510,78.0
2023-08-10 11:36:18.758200,81.0
2023-08-10 11:36:18.765889,81.0
2023-08-10 11:36:18.773579,81.0
2023-08-10 11:36:18.781269,81.0
2023-08-10 11:36:18.788959,78.0
2023-08-10 11:36:18.796648,74.0
2023-08-10 11:36:18.804338,69.0
2023-08-10 11:36:18.812028,62.0
2023-08-10 11:36:18.819717,64.0
2023-08-10 11:36:18.827407,69.0
2023-08-10 11:36:18.835097,64.0
2023-08-10 11:36:18.842787,57.0
2023-08-10 11:36:18.850476,55.0
2023-08-10 11:36:18.858166,52.0
2023-08-10 11:36:18.865856,47.0
2023-08-10 11:36:18.873545,45.0
2023-08-10 11:36:18.881235,43.0
2023-08-10 11:36:18.888925,40.0
2023-08-10 11:36:18.896615,38.0
2023-08-10 11:36:18.904304,31.0
2023-08-10 11:36:18.911994,28.0
2023-08-10 11:36:18.919684,35.0
2023-08-10 11:36:18.927373,33.0
2023-08-10 11:36:18.935063,26.0
2023-08-10 11:36:18.942753,19.0
2023-08-10 11:36:18.950443,14.0
2023-08-10 11:36:18.958132,9.0
2023-08-10 11:36:18.965822,9.0
2023-08-10 11:36:18.973512,9.0
2023-08-10 11:36:18.981201,7.0
2023-08-10 11:36:18.988891,2.0
2023-08-10 11:36:18.996581,4.0
2023-08-10 11:36:19.004271,7.0
2023-08-10 11:36:19.011960,2.0
2023-08-10 11:36:19.019650,-2.0
2023-08-10 11:36:19.027340,0.0
2023-08-10 11:36:19.035029,4.0
2023-08-10 11:36:19.042719,2.0
2023-08-10 11:36:19.050409,-2.0
2023-08-10 11:36:19.058099,-2.0
2023-08-10 11:36:19.065788,-2.0
2023-08-10 11:36:19.073478,-7.0
2023-08-10 11:36:19.081168,-9.0
2023-08-10 11:36:19.088857,-9.0
2023-08-10 11:36:19.096547,-11.0
2023-08-10 11:36:19.104237,-11.0
2023-08-10 11:36:19.111927,-16.0
2023-08-10 11:36:19.119616,-16.0
2023-08-10 11:36:19.127306,-11.0
2023-08-10 11:36:19.134996,-11.0
2023-08-10 11:36:19.142685,-19.0
2023-08-10 11:36:19.150375,-21.0
2023-08-10 11:36:19.158065,-23.0
2023-08-10 11:36:19.165755,-23.0
2023-08-10 11:36:19.173444,-26.0
2023-08-10 11:36:19.181134,-23.0
2023-08-10 11:36:19.188824,-19.0
2023-08-10 11:36:19.196513,-19.0
2023-08-10 11:36:19.204203,-21.0
2023-08-10 11:36:19.211893,-26.0
2023-08-10 11:36:19.219583,-35.0
2023-08-10 11:36:19.227272,-38.0
2023-08-10 11:36:19.234962,-28.0
2023-08-10 11:36:19.242652,-26.0
2023-08-10 11:36:19.250341,-35.0
2023-08-10 11:36:19.258031,-40.0
2023-08-10 11:36:19.265721,-43.0
2023-08-10 11:36:19.273410,-50.0
2023-08-10 11:36:19.281100,-59.0
2023-08-10 11:36:19.288790,-55.0
2023-08-10 11:36:19.296480,-47.0
2023-08-10 11:36:19.304169,-52.0
2023-08-10 11:36:19.311859,-55.0
2023-08-10 11:36:19.319549,-45.0
2023-08-10 11:36:19.327238,-33.0
2023-08-10 11:36:19.334928,-26.0
2023-08-10 11:36:19.342618,-21.0
2023-08-10 11:36:19.350308,-23.0
2023-08-10 11:36:19.357997,-31.0
2023-08-10 11:36:19.365687,-28.0
2023-08-10 11:36:19.373377,-28.0
2023-08-10 11:36:19.381066,-31.0
2023-08-10 11:36:19.388756,-31.0
2023-08-10 11:36:19.396446,-57.0
2023-08-10 11:36:19.404136,-189.0
2023-08-10 11:36:19.411825,-423.0
2023-08-10 11:36:19.419515,-634.0
2023-08-10 11:36:19.427205,-712.0
2023-08-10 11:36:19.434894,-523.0
2023-08-10 11:36:19.442584,-119.0
2023-08-10 11:36:19.450274,107.0
2023-08-10 11:36:19.457964,35.0
2023-08-10 11:36:19.465653,-47.0
2023-08-10 11:36:19.473343,-11.0
2023-08-10 11:36:19.481033,14.0
2023-08-10 11:36:19.488722,-7.0
2023-08-10 11:36:19.496412,-16.0
2023-08-10 11:36:19.504102,-16.0
2023-08-10 11:36:19.511792,-21.0
2023-08-10 11:36:19.519481,-28.0
2023-08-10 11:36:19.527171,-31.0
2023-08-10 11:36:19.534861,-31.0
2023-08-10 11:36:19.542550,-38.0
2023-08-10 11:36:19.550240,-47.0
2023-08-10 11:36:19.557930,-52.0
2023-08-10 11:36:19.565620,-52.0
2023-08-10 11:36:19.573309,-62.0
2023-08-10 11:36:19.580999,-74.0
2023-08-10 11:36:19.588689,-81.0
2023-08-10 11:36:19.596378,-86.0
2023-08-10 11:36:19.604068,-98.0
2023-08-10 11:36:19.611758,-105.0
2023-08-10 11:36:19.619448,-117.0
2023-08-10 11:36:19.627137,-136.0
2023-08-10 11:36:19.634827,-155.0
2023-08-10 11:36:19.642517,-169.0
2023-08-10 11:36:19.650206,-186.0
2023-08-10 11:36:19.657896,-205.0
2023-08-10 11:36:19.665586,-224.0
2023-08-10 11:36:19.673276,-239.0
2023-08-10 11:36:19.680965,-251.0
2023-08-10 11:36:19.688655,-263.0
2023-08-10 11:36:19.696345,-267.0
2023-08-10 11:36:19.704034,-251.0
2023-08-10 11:36:19.711724,-208.0
2023-08-10 11:36:19.719414,-153.0
2023-08-10 11:36:19.727104,-93.0
2023-08-10 11:36:19.734793,-35.0
2023-08-10 11:36:19.742483,11.0
2023-08-10 11:36:19.750173,43.0
2023-08-10 11:36:19.757862,57.0
2023-08-10 11:36:19.765552,64.0
2023-08-10 11:36:19.773242,74.0
2023-08-10 11:36:19.780932,78.0
2023-08-10 11:36:19.788621,76.0
2023-08-10 11:36:19.796311,71.0
2023-08-10 11:36:19.804001,69.0
2023-08-10 11:36:19.811690,71.0
2023-08-10 11:36:19.819380,69.0
2023-08-10 11:36:19.827070,59.0
2023-08-10 11:36:19.834760,55.0
2023-08-10 11:36:19.842449,57.0
2023-08-10 11:36:19.850139,55.0
2023-08-10 11:36:19.857829,47.0
2023-08-10 11:36:19.865518,45.0
2023-08-10 11:36:19.873208,45.0
2023-08-10 11:36:19.880898,40.0
2023-08-10 11:36:19.888588,31.0
2023-08-10 11:36:19.896277,31.0
2023-08-10 11:36:19.903967,33.0
2023-08-10 11:36:19.911657,33.0
2023-08-10 11:36:19.919346,31.0
2023-08-10 11:36:19.927036,28.0
2023-08-10 11:36:19.934726,26.0
2023-08-10 11:36:19.942416,21.0
2023-08-10 11:36:19.950105,21.0
2023-08-10 11:36:19.957795,23.0
2023-08-10 11:36:19.965485,21.0
2023-08-10 11:36:19.973174,16.0
2023-08-10 11:36:19.980864,16.0
2023-08-10 11:36:19.988554,21.0
2023-08-10 11:36:19.996243,19.0
2023-08-10 11:36:20.003933,14.0
2023-08-10 11:36:20.011623,16.0
2023-08-10 11:36:20.019313,16.0
2023-08-10 11:36:20.027002,11.0
2023-08-10 11:36:20.034692,9.0
2023-08-10 11:36:20.042382,9.0
2023-08-10 11:36:20.050071,7.0
2023-08-10 11:36:20.057761,7.0
2023-08-10 11:36:20.065451,9.0
2023-08-10 11:36:20.073141,2.0
2023-08-10 11:36:20.080830,-14.0
2023-08-10 11:36:20.088520,-16.0
2023-08-10 11:36:20.096210,-11.0
2023-08-10 11:36:20.103899,-11.0
2023-08-10 11:36:20.111589,-9.0
2023-08-10 11:36:20.119279,-9.0
2023-08-10 11:36:20.126969,-14.0
2023-08-10 11:36:20.134658,-19.0
2023-08-10 11:36:20.142348,-23.0
2023-08-10 11:36:20.150038,-19.0
2023-08-10 11:36:20.157727,-14.0
2023-08-10 11:36:20.165417,-21.0
2023-08-10 11:36:20.173107,-28.0
2023-08-10 11:36:20.180797,-26.0
2023-08-10 11:36:20.188486,-28.0
2023-08-10 11:36:20.196176,-50.0
2023-08-10 11:36:20.203866,-55.0
2023-08-10 11:36:20.211555,-40.0
2023-08-10 11:36:20.219245,-38.0
2023-08-10 11:36:20.226935,-57.0
2023-08-10 11:36:20.234625,-57.0
2023-08-10 11:36:20.242314,-43.0
2023-08-10 11:36:20.250004,-31.0
2023-08-10 11:36:20.257694,-26.0
2023-08-10 11:36:20.265383,-26.0
2023-08-10 11:36:20.273073,-26.0
2023-08-10 11:36:20.280763,-23.0
2023-08-10 11:36:20.288453,-26.0
2023-08-10 11:36:20.296142,-26.0
2023-08-10 11:36:20.303832,-28.0
2023-08-10 11:36:20.311522,-31.0
2023-08-10 11:36:20.319211,-64.0
2023-08-10 11:36:20.326901,-215.0
2023-08-10 11:36:20.334591,-459.0
2023-08-10 11:36:20.342281,-655.0
2023-08-10 11:36:20.349970,-681.0
2023-08-10 11:36:20.357660,-418.0
2023-08-10 11:36:20.365350,-21.0
2023-08-10 11:36:20.373039,119.0
2023-08-10 11:36:20.380729,4.0
2023-08-10 11:36:20.388419,-40.0
2023-08-10 11:36:20.396109,11.0
2023-08-10 11:36:20.403798,4.0
2023-08-10 11:36:20.411488,-21.0
2023-08-10 11:36:20.419178,-4.0
2023-08-10 11:36:20.426867,-4.0
2023-08-10 11:36:20.434557,-23.0
2023-08-10 11:36:20.442247,-28.0
2023-08-10 11:36:20.449937,-28.0
2023-08-10 11:36:20.457626,-38.0
2023-08-10 11:36:20.465316,-47.0
2023-08-10 11:36:20.473006,-45.0
2023-08-10 11:36:20.480695,-45.0
2023-08-10 11:36:20.488385,-57.0
2023-08-10 11:36:20.496075,-71.0
2023-08-10 11:36:20.503765,-76.0
2023-08-10 11:36:20.511454,-86.0
2023-08-10 11:36:20.519144,-102.0
2023-08-10 11:36:20.526834,-110.0
2023-08-10 11:36:20.534523,-112.0
2023-08-10 11:36:20.542213,-129.0
2023-08-10 11:36:20.549903,-150.0
2023-08-10 11:36:20.557593,-157.0
2023-08-10 11:36:20.565282,-174.0
2023-08-10 11:36:20.572972,-196.0
2023-08-10 11:36:20.580662,-210.0
2023-08-10 11:36:20.588351,-222.0
2023-08-10 11:36:20.596041,-246.0
2023-08-10 11:36:20.603731,-267.0
2023-08-10 11:36:20.611421,-265.0
2023-08-10 11:36:20.619110,-256.0
2023-08-10 11:36:20.626800,-232.0
2023-08-10 11:36:20.634490,-184.0
2023-08-10 11:36:20.642179,-124.0
2023-08-10 11:36:20.649869,-64.0
2023-08-10 11:36:20.657559,-19.0
2023-08-10 11:36:20.665248,9.0
2023-08-10 11:36:20.672938,35.0
2023-08-10 11:36:20.680628,50.0
2023-08-10 11:36:20.688318,45.0
2023-08-10 11:36:20.696007,55.0
2023-08-10 11:36:20.703697,69.0
2023-08-10 11:36:20.711387,62.0
2023-08-10 11:36:20.719076,47.0
2023-08-10 11:36:20.726766,40.0
2023-08-10 11:36:20.734456,43.0
2023-08-10 11:36:20.742146,52.0
2023-08-10 11:36:20.749835,45.0
2023-08-10 11:36:20.757525,28.0
2023-08-10 11:36:20.765215,26.0
2023-08-10 11:36:20.772904,35.0
2023-08-10 11:36:20.780594,31.0
2023-08-10 11:36:20.788284,19.0
2023-08-10 11:36:20.795974,21.0
2023-08-10 11:36:20.803663,23.0
2023-08-10 11:36:20.811353,23.0
2023-08-10 11:36:20.819043,23.0
2023-08-10 11:36:20.826732,21.0
2023-08-10 11:36:20.834422,14.0
2023-08-10 11:36:20.842112,11.0
2023-08-10 11:36:20.849802,16.0
2023-08-10 11:36:20.857491,11.0
2023-08-10 11:36:20.865181,4.0
2023-08-10 11:36:20.872871,7.0
2023-08-10 11:36:20.880560,7.0
2023-08-10 11:36:20.888250,7.0
2023-08-10 11:36:20.895940,4.0
2023-08-10 11:36:20.903630,-2.0
2023-08-10 11:36:20.911319,0.0
2023-08-10 11:36:20.919009,0.0
2023-08-10 11:36:20.926699,0.0
2023-08-10 11:36:20.934388,2.0
2023-08-10 11:36:20.942078,-2.0
2023-08-10 11:36:20.949768,-7.0
2023-08-10 11:36:20.957458,-4.0
2023-08-10 11:36:20.965147,-7.0
2023-08-10 11:36:20.972837,-9.0
2023-08-10 11:36:20.980527,-7.0
2023-08-10 11:36:20.988216,-2.0
2023-08-10 11:36:20.995906,-7.0
2023-08-10 11:36:21.003596,-14.0
2023-08-10 11:36:21.011286,-11.0
2023-08-10 11:36:21.018975,-7.0
2023-08-10 11:36:21.026665,-9.0
2023-08-10 11:36:21.034355,-14.0
2023-08-10 11:36:21.042044,-16.0
2023-08-10 11:36:21.049734,-16.0
2023-08-10 11:36:21.057424,-16.0
2023-08-10 11:36:21.065114,-19.0
2023-08-10 11:36:21.072803,-19.0
2023-08-10 11:36:21.080493,-14.0
2023-08-10 11:36:21.088183,-14.0
2023-08-10 11:36:21.095872,-21.0
2023-08-10 11:36:21.103562,-21.0
2023-08-10 11:36:21.111252,-23.0
2023-08-10 11:36:21.118942,-28.0
2023-08-10 11:36:21.126631,-31.0
2023-08-10 11:36:21.134321,-26.0
2023-08-10 11:36:21.142011,-23.0
2023-08-10 11:36:21.149700,-26.0
2023-08-10 11:36:21.157390,-35.0
2023-08-10 11:36:21.165080,-52.0
2023-08-10 11:36:21.172770,-62.0
2023-08-10 11:36:21.180459,-55.0
2023-08-10 11:36:21.188149,-50.0
2023-08-10 11:36:21.195839,-55.0
2023-08-10 11:36:21.203528,-52.0
2023-08-10 11:36:21.211218,-47.0
2023-08-10 11:36:21.218908,-40.0
2023-08-10 11:36:21.226598,-23.0
2023-08-10 11:36:21.234287,-14.0
2023-08-10 11:36:21.241977,-26.0
2023-08-10 11:36:21.249667,-31.0
2023-08-10 11:36:21.257356,-23.0
2023-08-10 11:36:21.265046,-26.0
2023-08-10 11:36:21.272736,-28.0
2023-08-10 11:36:21.280426,-26.0
2023-08-10 11:36:21.288115,-35.0
2023-08-10 11:36:21.295805,-129.0
2023-08-10 11:36:21.303495,-334.0
2023-08-10 11:36:21.311184,-555.0
2023-08-10 11:36:21.318874,-679.0
2023-08-10 11:36:21.326564,-562.0
2023-08-10 11:36:21.334254,-181.0
2023-08-10 11:36:21.341943,102.0
2023-08-10 11:36:21.349633,69.0
2023-08-10 11:36:21.357323,-38.0
2023-08-10 11:36:21.365012,-16.0
2023-08-10 11:36:21.372702,16.0
2023-08-10 11:36:21.380392,-4.0
2023-08-10 11:36:21.388081,-11.0
2023-08-10 11:36:21.395771,-2.0
2023-08-10 11:36:21.403461,-11.0
2023-08-10 11:36:21.411151,-19.0
2023-08-10 11:36:21.418840,-19.0
2023-08-10 11:36:21.426530,-23.0
2023-08-10 11:36:21.434220,-35.0
2023-08-10 11:36:21.441909,-43.0
2023-08-10 11:36:21.449599,-47.0
2023-08-10 11:36:21.457289,-52.0
2023-08-10 11:36:21.464979,-59.0
2023-08-10 11:36:21.472668,-66.0
2023-08-10 11:36:21.480358,-76.0
2023-08-10 11:36:21.488048,-86.0
2023-08-10 11:36:21.495737,-93.0
2023-08-10 11:36:21.503427,-102.0
2023-08-10 11:36:21.511117,-117.0
2023-08-10 11:36:21.518807,-131.0
2023-08-10 11:36:21.526496,-148.0
2023-08-10 11:36:21.534186,-162.0
2023-08-10 11:36:21.541876,-177.0
2023-08-10 11:36:21.549565,-193.0
2023-08-10 11:36:21.557255,-212.0
2023-08-10 11:36:21.564945,-232.0
2023-08-10 11:36:21.572635,-241.0
2023-08-10 11:36:21.580324,-251.0
2023-08-10 11:36:21.588014,-256.0
2023-08-10 11:36:21.595704,-239.0
2023-08-10 11:36:21.603393,-200.0
2023-08-10 11:36:21.611083,-153.0
2023-08-10 11:36:21.618773,-93.0
2023-08-10 11:36:21.626463,-33.0
2023-08-10 11:36:21.634152,11.0
2023-08-10 11:36:21.641842,40.0
2023-08-10 11:36:21.649532,59.0
2023-08-10 11:36:21.657221,69.0
2023-08-10 11:36:21.664911,74.0
2023-08-10 11:36:21.672601,76.0
2023-08-10 11:36:21.680291,76.0
2023-08-10 11:36:21.687980,74.0
2023-08-10 11:36:21.695670,66.0
2023-08-10 11:36:21.703360,62.0
2023-08-10 11:36:21.711049,59.0
2023-08-10 11:36:21.718739,57.0
2023-08-10 11:36:21.726429,55.0
2023-08-10 11:36:21.734119,55.0
2023-08-10 11:36:21.741808,43.0
2023-08-10 11:36:21.749498,35.0
2023-08-10 11:36:21.757188,35.0
2023-08-10 11:36:21.764877,33.0
2023-08-10 11:36:21.772567,28.0
2023-08-10 11:36:21.780257,26.0
2023-08-10 11:36:21.787947,16.0
2023-08-10 11:36:21.795636,7.0
2023-08-10 11:36:21.803326,7.0
2023-08-10 11:36:21.811016,9.0
2023-08-10 11:36:21.818705,9.0
2023-08-10 11:36:21.826395,4.0
2023-08-10 11:36:21.834085,-4.0
2023-08-10 11:36:21.841775,-9.0
2023-08-10 11:36:21.849464,-9.0
2023-08-10 11:36:21.857154,-9.0
2023-08-10 11:36:21.864844,-14.0
2023-08-10 11:36:21.872533,-14.0
2023-08-10 11:36:21.880223,-14.0
2023-08-10 11:36:21.887913,-14.0
2023-08-10 11:36:21.895603,-11.0
2023-08-10 11:36:21.903292,-11.0
2023-08-10 11:36:21.910982,-14.0
2023-08-10 11:36:21.918672,-14.0
2023-08-10 11:36:21.926361,-14.0
2023-08-10 11:36:21.934051,-16.0
2023-08-10 11:36:21.941741,-16.0
2023-08-10 11:36:21.949431,-19.0
2023-08-10 11:36:21.957120,-21.0
2023-08-10 11:36:21.964810,-19.0
2023-08-10 11:36:21.972500,-19.0
2023-08-10 11:36:21.980189,-21.0
2023-08-10 11:36:21.987879,-21.0
2023-08-10 11:36:21.995569,-19.0
2023-08-10 11:36:22.003259,-19.0
2023-08-10 11:36:22.010948,-23.0
2023-08-10 11:36:22.018638,-23.0
2023-08-10 11:36:22.026328,-23.0
2023-08-10 11:36:22.034017,-23.0
2023-08-10 11:36:22.041707,-23.0
2023-08-10 11:36:22.049397,-23.0
2023-08-10 11:36:22.057086,-23.0
2023-08-10 11:36:22.064776,-26.0
2023-08-10 11:36:22.072466,-23.0
2023-08-10 11:36:22.080156,-23.0
2023-08-10 11:36:22.087845,-26.0
2023-08-10 11:36:22.095535,-28.0
2023-08-10 11:36:22.103225,-23.0
2023-08-10 11:36:22.110914,-23.0
2023-08-10 11:36:22.118604,-31.0
2023-08-10 11:36:22.126294,-38.0
2023-08-10 11:36:22.133984,-35.0
2023-08-10 11:36:22.141673,-40.0
2023-08-10 11:36:22.149363,-59.0
2023-08-10 11:36:22.157053,-62.0
2023-08-10 11:36:22.164742,-50.0
2023-08-10 11:36:22.172432,-45.0
2023-08-10 11:36:22.180122,-50.0
2023-08-10 11:36:22.187812,-45.0
2023-08-10 11:36:22.195501,-35.0
2023-08-10 11:36:22.203191,-28.0
2023-08-10 11:36:22.210881,-23.0
2023-08-10 11:36:22.218570,-23.0
2023-08-10 11:36:22.226260,-21.0
2023-08-10 11:36:22.233950,-21.0
2023-08-10 11:36:22.241640,-28.0
2023-08-10 11:36:22.249329,-35.0
2023-08-10 11:36:22.257019,-35.0
2023-08-10 11:36:22.264709,-35.0
2023-08-10 11:36:22.272398,-112.0
2023-08-10 11:36:22.280088,-318.0
2023-08-10 11:36:22.287778,-557.0
2023-08-10 11:36:22.295468,-708.0
2023-08-10 11:36:22.303157,-645.0
2023-08-10 11:36:22.310847,-294.0
2023-08-10 11:36:22.318537,59.0
2023-08-10 11:36:22.326226,98.0
2023-08-10 11:36:22.333916,-28.0
2023-08-10 11:36:22.341606,-45.0
2023-08-10 11:36:22.349296,-4.0
2023-08-10 11:36:22.356985,-16.0
2023-08-10 11:36:22.364675,-33.0
2023-08-10 11:36:22.372365,-26.0
2023-08-10 11:36:22.380054,-31.0
2023-08-10 11:36:22.387744,-38.0
2023-08-10 11:36:22.395434,-43.0
2023-08-10 11:36:22.403124,-50.0
2023-08-10 11:36:22.410813,-57.0
2023-08-10 11:36:22.418503,-62.0
2023-08-10 11:36:22.426193,-69.0
2023-08-10 11:36:22.433882,-76.0
2023-08-10 11:36:22.441572,-86.0
2023-08-10 11:36:22.449262,-93.0
2023-08-10 11:36:22.456952,-100.0
2023-08-10 11:36:22.464641,-110.0
2023-08-10 11:36:22.472331,-117.0
2023-08-10 11:36:22.480021,-124.0
2023-08-10 11:36:22.487710,-141.0
2023-08-10 11:36:22.495400,-155.0
2023-08-10 11:36:22.503090,-167.0
2023-08-10 11:36:22.510780,-184.0
2023-08-10 11:36:22.518469,-203.0
2023-08-10 11:36:22.526159,-220.0
2023-08-10 11:36:22.533849,-236.0
2023-08-10 11:36:22.541538,-256.0
2023-08-10 11:36:22.549228,-267.0
2023-08-10 11:36:22.556918,-275.0
2023-08-10 11:36:22.564608,-277.0
2023-08-10 11:36:22.572297,-270.0
2023-08-10 11:36:22.579987,-236.0
2023-08-10 11:36:22.587677,-177.0
2023-08-10 11:36:22.595366,-114.0
2023-08-10 11:36:22.603056,-57.0
2023-08-10 11:36:22.610746,-7.0
2023-08-10 11:36:22.618436,28.0
2023-08-10 11:36:22.626125,50.0
2023-08-10 11:36:22.633815,64.0
2023-08-10 11:36:22.641505,69.0
2023-08-10 11:36:22.649194,71.0
2023-08-10 11:36:22.656884,76.0
2023-08-10 11:36:22.664574,76.0
2023-08-10 11:36:22.672264,71.0
2023-08-10 11:36:22.679953,69.0
2023-08-10 11:36:22.687643,64.0
2023-08-10 11:36:22.695333,62.0
2023-08-10 11:36:22.703022,62.0
2023-08-10 11:36:22.710712,62.0
2023-08-10 11:36:22.718402,57.0
2023-08-10 11:36:22.726092,52.0
2023-08-10 11:36:22.733781,50.0
2023-08-10 11:36:22.741471,47.0
2023-08-10 11:36:22.749161,43.0
2023-08-10 11:36:22.756850,35.0
2023-08-10 11:36:22.764540,31.0
2023-08-10 11:36:22.772230,28.0
2023-08-10 11:36:22.779919,28.0
2023-08-10 11:36:22.787609,28.0
2023-08-10 11:36:22.795299,28.0
2023-08-10 11:36:22.802989,28.0
2023-08-10 11:36:22.810678,26.0
2023-08-10 11:36:22.818368,19.0
2023-08-10 11:36:22.826058,19.0
2023-08-10 11:36:22.833747,21.0
2023-08-10 11:36:22.841437,16.0
2023-08-10 11:36:22.849127,14.0
2023-08-10 11:36:22.856817,14.0
2023-08-10 11:36:22.864506,7.0
2023-08-10 11:36:22.872196,-2.0
2023-08-10 11:36:22.879886,-2.0
2023-08-10 11:36:22.887575,0.0
2023-08-10 11:36:22.895265,-2.0
2023-08-10 11:36:22.902955,-2.0
2023-08-10 11:36:22.910645,-7.0
2023-08-10 11:36:22.918334,-14.0
2023-08-10 11:36:22.926024,-14.0
2023-08-10 11:36:22.933714,-9.0
2023-08-10 11:36:22.941403,-11.0
2023-08-10 11:36:22.949093,-11.0
2023-08-10 11:36:22.956783,-11.0
2023-08-10 11:36:22.964473,-11.0
2023-08-10 11:36:22.972162,-7.0
2023-08-10 11:36:22.979852,-7.0
2023-08-10 11:36:22.987542,-14.0
2023-08-10 11:36:22.995231,-19.0
2023-08-10 11:36:23.002921,-23.0
2023-08-10 11:36:23.010611,-38.0
2023-08-10 11:36:23.018301,-43.0
2023-08-10 11:36:23.025990,-33.0
2023-08-10 11:36:23.033680,-31.0
2023-08-10 11:36:23.041370,-38.0
2023-08-10 11:36:23.049059,-33.0
2023-08-10 11:36:23.056749,-23.0
2023-08-10 11:36:23.064439,-11.0
2023-08-10 11:36:23.072129,-2.0
2023-08-10 11:36:23.079818,-2.0
2023-08-10 11:36:23.087508,-9.0
2023-08-10 11:36:23.095198,-11.0
2023-08-10 11:36:23.102887,-11.0
2023-08-10 11:36:23.110577,-14.0
2023-08-10 11:36:23.118267,-11.0
2023-08-10 11:36:23.125957,-9.0
2023-08-10 11:36:23.133646,-57.0
2023-08-10 11:36:23.141336,-229.0
2023-08-10 11:36:23.149026,-476.0
2023-08-10 11:36:23.156715,-662.0
2023-08-10 11:36:23.164405,-662.0
2023-08-10 11:36:23.172095,-361.0
2023-08-10 11:36:23.179785,35.0
2023-08-10 11:36:23.187474,148.0
2023-08-10 11:36:23.195164,28.0
2023-08-10 11:36:23.202854,-7.0
2023-08-10 11:36:23.210543,45.0
2023-08-10 11:36:23.218233,43.0
2023-08-10 11:36:23.225923,19.0
2023-08-10 11:36:23.233613,26.0
2023-08-10 11:36:23.241302,26.0
2023-08-10 11:36:23.248992,16.0
2023-08-10 11:36:23.256682,9.0
2023-08-10 11:36:23.264371,-2.0
2023-08-10 11:36:23.272061,-14.0
2023-08-10 11:36:23.279751,-16.0
2023-08-10 11:36:23.287441,-21.0
2023-08-10 11:36:23.295130,-28.0
2023-08-10 11:36:23.302820,-35.0
2023-08-10 11:36:23.310510,-47.0
2023-08-10 11:36:23.318199,-59.0
2023-08-10 11:36:23.325889,-71.0
2023-08-10 11:36:23.333579,-78.0
2023-08-10 11:36:23.341269,-95.0
2023-08-10 11:36:23.348958,-110.0
2023-08-10 11:36:23.356648,-126.0
2023-08-10 11:36:23.364338,-145.0
2023-08-10 11:36:23.372027,-167.0
2023-08-10 11:36:23.379717,-184.0
2023-08-10 11:36:23.387407,-203.0
2023-08-10 11:36:23.395097,-220.0
2023-08-10 11:36:23.402786,-241.0
2023-08-10 11:36:23.410476,-265.0
2023-08-10 11:36:23.418166,-277.0
2023-08-10 11:36:23.425855,-277.0
2023-08-10 11:36:23.433545,-267.0
2023-08-10 11:36:23.441235,-232.0
2023-08-10 11:36:23.448924,-174.0
2023-08-10 11:36:23.456614,-110.0
2023-08-10 11:36:23.464304,-52.0
2023-08-10 11:36:23.471994,-7.0
2023-08-10 11:36:23.479683,26.0
2023-08-10 11:36:23.487373,47.0
2023-08-10 11:36:23.495063,59.0
2023-08-10 11:36:23.502752,59.0
2023-08-10 11:36:23.510442,62.0
2023-08-10 11:36:23.518132,62.0
2023-08-10 11:36:23.525822,59.0
2023-08-10 11:36:23.533511,59.0
2023-08-10 11:36:23.541201,55.0
2023-08-10 11:36:23.548891,52.0
2023-08-10 11:36:23.556580,50.0
2023-08-10 11:36:23.564270,47.0
2023-08-10 11:36:23.571960,45.0
2023-08-10 11:36:23.579650,38.0
2023-08-10 11:36:23.587339,31.0
2023-08-10 11:36:23.595029,31.0
2023-08-10 11:36:23.602719,28.0
2023-08-10 11:36:23.610408,23.0
2023-08-10 11:36:23.618098,26.0
2023-08-10 11:36:23.625788,23.0
2023-08-10 11:36:23.633478,21.0
2023-08-10 11:36:23.641167,19.0
2023-08-10 11:36:23.648857,16.0
2023-08-10 11:36:23.656547,14.0
2023-08-10 11:36:23.664236,14.0
2023-08-10 11:36:23.671926,11.0
2023-08-10 11:36:23.679616,9.0
2023-08-10 11:36:23.687306,7.0
2023-08-10 11:36:23.694995,9.0
2023-08-10 11:36:23.702685,9.0
2023-08-10 11:36:23.710375,7.0
2023-08-10 11:36:23.718064,4.0
2023-08-10 11:36:23.725754,4.0
2023-08-10 11:36:23.733444,2.0
2023-08-10 11:36:23.741134,0.0
2023-08-10 11:36:23.748823,0.0
2023-08-10 11:36:23.756513,0.0
2023-08-10 11:36:23.764203,-4.0
2023-08-10 11:36:23.771892,-11.0
2023-08-10 11:36:23.779582,-14.0
2023-08-10 11:36:23.787272,-11.0
2023-08-10 11:36:23.794962,-11.0
2023-08-10 11:36:23.802651,-14.0
2023-08-10 11:36:23.810341,-14.0
2023-08-10 11:36:23.818031,-14.0
2023-08-10 11:36:23.825720,-19.0
2023-08-10 11:36:23.833410,-21.0
2023-08-10 11:36:23.841100,-21.0
2023-08-10 11:36:23.848790,-21.0
2023-08-10 11:36:23.856479,-23.0
2023-08-10 11:36:23.864169,-26.0
2023-08-10 11:36:23.871859,-26.0
2023-08-10 11:36:23.879548,-23.0
2023-08-10 11:36:23.887238,-23.0
2023-08-10 11:36:23.894928,-23.0
2023-08-10 11:36:23.902618,-26.0
2023-08-10 11:36:23.910307,-26.0
2023-08-10 11:36:23.917997,-23.0
2023-08-10 11:36:23.925687,-23.0
2023-08-10 11:36:23.933376,-28.0
2023-08-10 11:36:23.941066,-31.0
2023-08-10 11:36:23.948756,-28.0
2023-08-10 11:36:23.956446,-38.0
2023-08-10 11:36:23.964135,-55.0
2023-08-10 11:36:23.971825,-57.0
2023-08-10 11:36:23.979515,-47.0
2023-08-10 11:36:23.987204,-50.0
2023-08-10 11:36:23.994894,-64.0
2023-08-10 11:36:24.002584,-64.0
2023-08-10 11:36:24.010274,-52.0
2023-08-10 11:36:24.017963,-40.0
2023-08-10 11:36:24.025653,-31.0
2023-08-10 11:36:24.033343,-28.0
2023-08-10 11:36:24.041032,-31.0
2023-08-10 11:36:24.048722,-31.0
2023-08-10 11:36:24.056412,-31.0
2023-08-10 11:36:24.064102,-35.0
2023-08-10 11:36:24.071791,-35.0
2023-08-10 11:36:24.079481,-33.0
2023-08-10 11:36:24.087171,-81.0
2023-08-10 11:36:24.094860,-246.0
2023-08-10 11:36:24.102550,-485.0
2023-08-10 11:36:24.110240,-684.0
2023-08-10 11:36:24.117930,-710.0
2023-08-10 11:36:24.125619,-413.0
2023-08-10 11:36:24.133309,7.0
2023-08-10 11:36:24.140999,124.0
2023-08-10 11:36:24.148688,-7.0
2023-08-10 11:36:24.156378,-31.0
2023-08-10 11:36:24.164068,31.0
2023-08-10 11:36:24.171757,19.0
2023-08-10 11:36:24.179447,-4.0
2023-08-10 11:36:24.187137,9.0
2023-08-10 11:36:24.194827,7.0
2023-08-10 11:36:24.202516,-4.0
2023-08-10 11:36:24.210206,-4.0
2023-08-10 11:36:24.217896,-9.0
2023-08-10 11:36:24.225585,-21.0
2023-08-10 11:36:24.233275,-28.0
2023-08-10 11:36:24.240965,-35.0
2023-08-10 11:36:24.248655,-43.0
2023-08-10 11:36:24.256344,-47.0
2023-08-10 11:36:24.264034,-59.0
2023-08-10 11:36:24.271724,-78.0
2023-08-10 11:36:24.279413,-95.0
2023-08-10 11:36:24.287103,-107.0
2023-08-10 11:36:24.294793,-119.0
2023-08-10 11:36:24.302483,-131.0
2023-08-10 11:36:24.310172,-148.0
2023-08-10 11:36:24.317862,-165.0
2023-08-10 11:36:24.325552,-184.0
2023-08-10 11:36:24.333241,-203.0
2023-08-10 11:36:24.340931,-220.0
2023-08-10 11:36:24.348621,-239.0
2023-08-10 11:36:24.356311,-258.0
2023-08-10 11:36:24.364000,-270.0
2023-08-10 11:36:24.371690,-279.0
2023-08-10 11:36:24.379380,-284.0
2023-08-10 11:36:24.387069,-279.0
2023-08-10 11:36:24.394759,-251.0
2023-08-10 11:36:24.402449,-196.0
2023-08-10 11:36:24.410139,-131.0
2023-08-10 11:36:24.417828,-74.0
2023-08-10 11:36:24.425518,-26.0
2023-08-10 11:36:24.433208,9.0
2023-08-10 11:36:24.440897,35.0
2023-08-10 11:36:24.448587,45.0
2023-08-10 11:36:24.456277,52.0
2023-08-10 11:36:24.463967,57.0
2023-08-10 11:36:24.471656,55.0
2023-08-10 11:36:24.479346,52.0
2023-08-10 11:36:24.487036,52.0
2023-08-10 11:36:24.494725,47.0
2023-08-10 11:36:24.502415,43.0
2023-08-10 11:36:24.510105,40.0
2023-08-10 11:36:24.517795,38.0
2023-08-10 11:36:24.525484,33.0
2023-08-10 11:36:24.533174,26.0
2023-08-10 11:36:24.540864,16.0
2023-08-10 11:36:24.548553,16.0
2023-08-10 11:36:24.556243,16.0
2023-08-10 11:36:24.563933,9.0
2023-08-10 11:36:24.571623,4.0
2023-08-10 11:36:24.579312,4.0
2023-08-10 11:36:24.587002,4.0
2023-08-10 11:36:24.594692,2.0
2023-08-10 11:36:24.602381,0.0
2023-08-10 11:36:24.610071,0.0
2023-08-10 11:36:24.617761,0.0
2023-08-10 11:36:24.625451,-2.0
2023-08-10 11:36:24.633140,-2.0
2023-08-10 11:36:24.640830,-2.0
2023-08-10 11:36:24.648520,-4.0
2023-08-10 11:36:24.656209,-7.0
2023-08-10 11:36:24.663899,-7.0
2023-08-10 11:36:24.671589,-7.0
2023-08-10 11:36:24.679279,-4.0
2023-08-10 11:36:24.686968,-7.0
2023-08-10 11:36:24.694658,-7.0
2023-08-10 11:36:24.702348,-7.0
2023-08-10 11:36:24.710037,-9.0
2023-08-10 11:36:24.717727,-14.0
2023-08-10 11:36:24.725417,-14.0
2023-08-10 11:36:24.733107,-11.0
2023-08-10 11:36:24.740796,-11.0
2023-08-10 11:36:24.748486,-14.0
2023-08-10 11:36:24.756176,-14.0
2023-08-10 11:36:24.763865,-16.0
2023-08-10 11:36:24.771555,-19.0
2023-08-10 11:36:24.779245,-26.0
2023-08-10 11:36:24.786935,-28.0
2023-08-10 11:36:24.794624,-28.0
2023-08-10 11:36:24.802314,-28.0
2023-08-10 11:36:24.810004,-33.0
2023-08-10 11:36:24.817693,-35.0
2023-08-10 11:36:24.825383,-35.0
2023-08-10 11:36:24.833073,-33.0
2023-08-10 11:36:24.840762,-33.0
2023-08-10 11:36:24.848452,-35.0
2023-08-10 11:36:24.856142,-38.0
2023-08-10 11:36:24.863832,-38.0
2023-08-10 11:36:24.871521,-35.0
2023-08-10 11:36:24.879211,-35.0
2023-08-10 11:36:24.886901,-38.0
2023-08-10 11:36:24.894590,-35.0
2023-08-10 11:36:24.902280,-33.0
2023-08-10 11:36:24.909970,-35.0
2023-08-10 11:36:24.917660,-33.0
2023-08-10 11:36:24.925349,-31.0
2023-08-10 11:36:24.933039,-31.0
2023-08-10 11:36:24.940729,-35.0
2023-08-10 11:36:24.948418,-38.0
2023-08-10 11:36:24.956108,-40.0
2023-08-10 11:36:24.963798,-50.0
2023-08-10 11:36:24.971488,-62.0
2023-08-10 11:36:24.979177,-59.0
2023-08-10 11:36:24.986867,-50.0
2023-08-10 11:36:24.994557,-55.0
2023-08-10 11:36:25.002246,-57.0
2023-08-10 11:36:25.009936,-47.0
2023-08-10 11:36:25.017626,-38.0
2023-08-10 11:36:25.025316,-33.0
2023-08-10 11:36:25.033005,-26.0
2023-08-10 11:36:25.040695,-23.0
2023-08-10 11:36:25.048385,-26.0
2023-08-10 11:36:25.056074,-26.0
2023-08-10 11:36:25.063764,-33.0
2023-08-10 11:36:25.071454,-45.0
2023-08-10 11:36:25.079144,-47.0
2023-08-10 11:36:25.086833,-47.0
2023-08-10 11:36:25.094523,-129.0
2023-08-10 11:36:25.102213,-339.0
2023-08-10 11:36:25.109902,-574.0
2023-08-10 11:36:25.117592,-724.0
2023-08-10 11:36:25.125282,-643.0
2023-08-10 11:36:25.132972,-263.0
2023-08-10 11:36:25.140661,78.0
2023-08-10 11:36:25.148351,86.0
2023-08-10 11:36:25.156041,-33.0
2023-08-10 11:36:25.163730,-19.0
2023-08-10 11:36:25.171420,26.0
2023-08-10 11:36:25.179110,4.0
2023-08-10 11:36:25.186800,-4.0
2023-08-10 11:36:25.194489,7.0
2023-08-10 11:36:25.202179,-4.0
2023-08-10 11:36:25.209869,-19.0
2023-08-10 11:36:25.217558,-19.0
2023-08-10 11:36:25.225248,-21.0
2023-08-10 11:36:25.232938,-31.0
2023-08-10 11:36:25.240628,-33.0
2023-08-10 11:36:25.248317,-40.0
2023-08-10 11:36:25.256007,-55.0
2023-08-10 11:36:25.263697,-64.0
2023-08-10 11:36:25.271386,-74.0
2023-08-10 11:36:25.279076,-86.0
2023-08-10 11:36:25.286766,-100.0
2023-08-10 11:36:25.294456,-112.0
2023-08-10 11:36:25.302145,-124.0
2023-08-10 11:36:25.309835,-136.0
2023-08-10 11:36:25.317525,-150.0
2023-08-10 11:36:25.325214,-167.0
2023-08-10 11:36:25.332904,-186.0
2023-08-10 11:36:25.340594,-203.0
2023-08-10 11:36:25.348284,-222.0
2023-08-10 11:36:25.355973,-239.0
2023-08-10 11:36:25.363663,-253.0
2023-08-10 11:36:25.371353,-267.0
2023-08-10 11:36:25.379042,-279.0
2023-08-10 11:36:25.386732,-284.0
2023-08-10 11:36:25.394422,-275.0
2023-08-10 11:36:25.402112,-239.0
2023-08-10 11:36:25.409801,-181.0
2023-08-10 11:36:25.417491,-117.0
2023-08-10 11:36:25.425181,-57.0
2023-08-10 11:36:25.432870,-11.0
2023-08-10 11:36:25.440560,19.0
2023-08-10 11:36:25.448250,38.0
2023-08-10 11:36:25.455940,52.0
2023-08-10 11:36:25.463629,59.0
2023-08-10 11:36:25.471319,64.0
2023-08-10 11:36:25.479009,62.0
2023-08-10 11:36:25.486698,59.0
2023-08-10 11:36:25.494388,57.0
2023-08-10 11:36:25.502078,57.0
2023-08-10 11:36:25.509768,52.0
2023-08-10 11:36:25.517457,47.0
2023-08-10 11:36:25.525147,45.0
2023-08-10 11:36:25.532837,40.0
2023-08-10 11:36:25.540526,38.0
2023-08-10 11:36:25.548216,33.0
2023-08-10 11:36:25.555906,33.0
2023-08-10 11:36:25.563595,31.0
2023-08-10 11:36:25.571285,26.0
2023-08-10 11:36:25.578975,23.0
2023-08-10 11:36:25.586665,21.0
2023-08-10 11:36:25.594354,21.0
2023-08-10 11:36:25.602044,21.0
2023-08-10 11:36:25.609734,21.0
2023-08-10 11:36:25.617423,16.0
2023-08-10 11:36:25.625113,16.0
2023-08-10 11:36:25.632803,16.0
2023-08-10 11:36:25.640493,16.0
2023-08-10 11:36:25.648182,14.0
2023-08-10 11:36:25.655872,14.0
2023-08-10 11:36:25.663562,11.0
2023-08-10 11:36:25.671251,9.0
2023-08-10 11:36:25.678941,9.0
2023-08-10 11:36:25.686631,9.0
2023-08-10 11:36:25.694321,7.0
2023-08-10 11:36:25.702010,0.0
2023-08-10 11:36:25.709700,-7.0
2023-08-10 11:36:25.717390,-7.0
2023-08-10 11:36:25.725079,-7.0
2023-08-10 11:36:25.732769,-7.0
2023-08-10 11:36:25.740459,-7.0
2023-08-10 11:36:25.748149,-9.0
2023-08-10 11:36:25.755838,-14.0
2023-08-10 11:36:25.763528,-11.0
2023-08-10 11:36:25.771218,-9.0
2023-08-10 11:36:25.778907,-14.0
2023-08-10 11:36:25.786597,-19.0
2023-08-10 11:36:25.794287,-23.0
2023-08-10 11:36:25.801977,-26.0
2023-08-10 11:36:25.809666,-26.0
2023-08-10 11:36:25.817356,-26.0
2023-08-10 11:36:25.825046,-23.0
2023-08-10 11:36:25.832735,-23.0
2023-08-10 11:36:25.840425,-26.0
2023-08-10 11:36:25.848115,-26.0
2023-08-10 11:36:25.855805,-21.0
2023-08-10 11:36:25.863494,-23.0
2023-08-10 11:36:25.871184,-28.0
2023-08-10 11:36:25.878874,-31.0
2023-08-10 11:36:25.886563,-43.0
2023-08-10 11:36:25.894253,-57.0
2023-08-10 11:36:25.901943,-55.0
2023-08-10 11:36:25.909633,-45.0
2023-08-10 11:36:25.917322,-45.0
2023-08-10 11:36:25.925012,-45.0
2023-08-10 11:36:25.932702,-40.0
2023-08-10 11:36:25.940391,-33.0
2023-08-10 11:36:25.948081,-21.0
2023-08-10 11:36:25.955771,-11.0
2023-08-10 11:36:25.963461,-14.0
2023-08-10 11:36:25.971150,-16.0
2023-08-10 11:36:25.978840,-16.0
2023-08-10 11:36:25.986530,-16.0
2023-08-10 11:36:25.994219,-21.0
2023-08-10 11:36:26.001909,-21.0
2023-08-10 11:36:26.009599,-19.0
2023-08-10 11:36:26.017289,-95.0
2023-08-10 11:36:26.024978,-301.0
2023-08-10 11:36:26.032668,-543.0
2023-08-10 11:36:26.040358,-701.0
2023-08-10 11:36:26.048047,-629.0
2023-08-10 11:36:26.055737,-260.0
2023-08-10 11:36:26.063427,88.0
2023-08-10 11:36:26.071117,107.0
2023-08-10 11:36:26.078806,-11.0
2023-08-10 11:36:26.086496,-9.0
2023-08-10 11:36:26.094186,33.0
2023-08-10 11:36:26.101875,16.0
2023-08-10 11:36:26.109565,4.0
2023-08-10 11:36:26.117255,14.0
2023-08-10 11:36:26.124945,7.0
2023-08-10 11:36:26.132634,-2.0
2023-08-10 11:36:26.140324,-2.0
2023-08-10 11:36:26.148014,-7.0
2023-08-10 11:36:26.155703,-16.0
2023-08-10 11:36:26.163393,-21.0
2023-08-10 11:36:26.171083,-28.0
2023-08-10 11:36:26.178773,-38.0
2023-08-10 11:36:26.186462,-47.0
2023-08-10 11:36:26.194152,-57.0
2023-08-10 11:36:26.201842,-64.0
2023-08-10 11:36:26.209531,-74.0
2023-08-10 11:36:26.217221,-88.0
2023-08-10 11:36:26.224911,-102.0
2023-08-10 11:36:26.232600,-117.0
2023-08-10 11:36:26.240290,-138.0
2023-08-10 11:36:26.247980,-162.0
2023-08-10 11:36:26.255670,-179.0
2023-08-10 11:36:26.263359,-196.0
2023-08-10 11:36:26.271049,-217.0
2023-08-10 11:36:26.278739,-239.0
2023-08-10 11:36:26.286428,-258.0
2023-08-10 11:36:26.294118,-275.0
2023-08-10 11:36:26.301808,-284.0
2023-08-10 11:36:26.309498,-287.0
2023-08-10 11:36:26.317187,-270.0
2023-08-10 11:36:26.324877,-229.0
2023-08-10 11:36:26.332567,-169.0
2023-08-10 11:36:26.340256,-107.0
2023-08-10 11:36:26.347946,-50.0
2023-08-10 11:36:26.355636,-7.0
2023-08-10 11:36:26.363326,21.0
2023-08-10 11:36:26.371015,43.0
2023-08-10 11:36:26.378705,55.0
2023-08-10 11:36:26.386395,57.0
2023-08-10 11:36:26.394084,57.0
2023-08-10 11:36:26.401774,57.0
2023-08-10 11:36:26.409464,55.0
2023-08-10 11:36:26.417154,52.0
2023-08-10 11:36:26.424843,50.0
2023-08-10 11:36:26.432533,47.0
2023-08-10 11:36:26.440223,45.0
2023-08-10 11:36:26.447912,45.0
2023-08-10 11:36:26.455602,40.0
2023-08-10 11:36:26.463292,35.0
2023-08-10 11:36:26.470982,35.0
2023-08-10 11:36:26.478671,31.0
2023-08-10 11:36:26.486361,28.0
2023-08-10 11:36:26.494051,26.0
2023-08-10 11:36:26.501740,26.0
2023-08-10 11:36:26.509430,23.0
2023-08-10 11:36:26.517120,19.0
2023-08-10 11:36:26.524810,19.0
2023-08-10 11:36:26.532499,16.0
2023-08-10 11:36:26.540189,11.0
2023-08-10 11:36:26.547879,9.0
2023-08-10 11:36:26.555568,7.0
2023-08-10 11:36:26.563258,7.0
2023-08-10 11:36:26.570948,7.0
2023-08-10 11:36:26.578638,4.0
2023-08-10 11:36:26.586327,4.0
2023-08-10 11:36:26.594017,2.0
2023-08-10 11:36:26.601707,2.0
2023-08-10 11:36:26.609396,0.0
2023-08-10 11:36:26.617086,0.0
2023-08-10 11:36:26.624776,0.0
2023-08-10 11:36:26.632466,0.0
2023-08-10 11:36:26.640155,-2.0
2023-08-10 11:36:26.647845,-2.0
2023-08-10 11:36:26.655535,-4.0
2023-08-10 11:36:26.663224,-4.0
2023-08-10 11:36:26.670914,-4.0
2023-08-10 11:36:26.678604,-7.0
2023-08-10 11:36:26.686294,-9.0
2023-08-10 11:36:26.693983,-11.0
2023-08-10 11:36:26.701673,-9.0
2023-08-10 11:36:26.709363,-9.0
2023-08-10 11:36:26.717052,-11.0
2023-08-10 11:36:26.724742,-11.0
2023-08-10 11:36:26.732432,-14.0
2023-08-10 11:36:26.740122,-16.0
2023-08-10 11:36:26.747811,-16.0
2023-08-10 11:36:26.755501,-16.0
2023-08-10 11:36:26.763191,-16.0
2023-08-10 11:36:26.770880,-19.0
2023-08-10 11:36:26.778570,-21.0
2023-08-10 11:36:26.786260,-28.0
2023-08-10 11:36:26.793950,-33.0
2023-08-10 11:36:26.801639,-31.0
2023-08-10 11:36:26.809329,-28.0
2023-08-10 11:36:26.817019,-31.0
2023-08-10 11:36:26.824708,-38.0
2023-08-10 11:36:26.832398,-43.0
2023-08-10 11:36:26.840088,-40.0
2023-08-10 11:36:26.847778,-38.0
2023-08-10 11:36:26.855467,-43.0
2023-08-10 11:36:26.863157,-45.0
2023-08-10 11:36:26.870847,-55.0
2023-08-10 11:36:26.878536,-69.0
2023-08-10 11:36:26.886226,-69.0
2023-08-10 11:36:26.893916,-57.0
2023-08-10 11:36:26.901605,-59.0
2023-08-10 11:36:26.909295,-62.0
2023-08-10 11:36:26.916985,-55.0
2023-08-10 11:36:26.924675,-47.0
2023-08-10 11:36:26.932364,-35.0
2023-08-10 11:36:26.940054,-26.0
2023-08-10 11:36:26.947744,-26.0
2023-08-10 11:36:26.955433,-28.0
2023-08-10 11:36:26.963123,-28.0
2023-08-10 11:36:26.970813,-31.0
2023-08-10 11:36:26.978503,-33.0
2023-08-10 11:36:26.986192,-31.0
2023-08-10 11:36:26.993882,-28.0
2023-08-10 11:36:27.001572,-90.0
2023-08-10 11:36:27.009261,-282.0
2023-08-10 11:36:27.016951,-526.0
2023-08-10 11:36:27.024641,-708.0
2023-08-10 11:36:27.032331,-686.0
2023-08-10 11:36:27.040020,-342.0
2023-08-10 11:36:27.047710,47.0
2023-08-10 11:36:27.055400,105.0
2023-08-10 11:36:27.063089,-26.0
2023-08-10 11:36:27.070779,-26.0
2023-08-10 11:36:27.078469,26.0
2023-08-10 11:36:27.086159,4.0
2023-08-10 11:36:27.093848,-11.0
2023-08-10 11:36:27.101538,-2.0
2023-08-10 11:36:27.109228,-9.0
2023-08-10 11:36:27.116917,-19.0
2023-08-10 11:36:27.124607,-21.0
2023-08-10 11:36:27.132297,-26.0
2023-08-10 11:36:27.139987,-38.0
2023-08-10 11:36:27.147676,-43.0
2023-08-10 11:36:27.155366,-45.0
2023-08-10 11:36:27.163056,-55.0
2023-08-10 11:36:27.170745,-62.0
2023-08-10 11:36:27.178435,-69.0
2023-08-10 11:36:27.186125,-81.0
2023-08-10 11:36:27.193815,-93.0
2023-08-10 11:36:27.201504,-100.0
2023-08-10 11:36:27.209194,-110.0
2023-08-10 11:36:27.216884,-124.0
2023-08-10 11:36:27.224573,-138.0
2023-08-10 11:36:27.232263,-155.0
2023-08-10 11:36:27.239953,-172.0
2023-08-10 11:36:27.247643,-191.0
2023-08-10 11:36:27.255332,-208.0
2023-08-10 11:36:27.263022,-227.0
2023-08-10 11:36:27.270712,-246.0
2023-08-10 11:36:27.278401,-260.0
2023-08-10 11:36:27.286091,-275.0
2023-08-10 11:36:27.293781,-284.0
2023-08-10 11:36:27.301471,-275.0
2023-08-10 11:36:27.309160,-236.0
2023-08-10 11:36:27.316850,-179.0
2023-08-10 11:36:27.324540,-117.0
2023-08-10 11:36:27.332229,-62.0
2023-08-10 11:36:27.339919,-11.0
2023-08-10 11:36:27.347609,21.0
2023-08-10 11:36:27.355299,40.0
2023-08-10 11:36:27.362988,55.0
2023-08-10 11:36:27.370678,59.0
2023-08-10 11:36:27.378368,62.0
2023-08-10 11:36:27.386057,64.0
2023-08-10 11:36:27.393747,64.0
2023-08-10 11:36:27.401437,59.0
2023-08-10 11:36:27.409127,50.0
2023-08-10 11:36:27.416816,38.0
2023-08-10 11:36:27.424506,35.0
2023-08-10 11:36:27.432196,35.0
2023-08-10 11:36:27.439885,35.0
2023-08-10 11:36:27.447575,33.0
2023-08-10 11:36:27.455265,31.0
2023-08-10 11:36:27.462955,26.0
2023-08-10 11:36:27.470644,23.0
2023-08-10 11:36:27.478334,23.0
2023-08-10 11:36:27.486024,21.0
2023-08-10 11:36:27.493713,19.0
2023-08-10 11:36:27.501403,19.0
2023-08-10 11:36:27.509093,14.0
2023-08-10 11:36:27.516783,11.0
2023-08-10 11:36:27.524472,7.0
2023-08-10 11:36:27.532162,7.0
2023-08-10 11:36:27.539852,7.0
2023-08-10 11:36:27.547541,4.0
2023-08-10 11:36:27.555231,2.0
2023-08-10 11:36:27.562921,2.0
2023-08-10 11:36:27.570611,2.0
2023-08-10 11:36:27.578300,2.0
2023-08-10 11:36:27.585990,0.0
2023-08-10 11:36:27.593680,0.0
2023-08-10 11:36:27.601369,-2.0
2023-08-10 11:36:27.609059,-2.0
2023-08-10 11:36:27.616749,-2.0
2023-08-10 11:36:27.624438,-2.0
2023-08-10 11:36:27.632128,-2.0
2023-08-10 11:36:27.639818,-4.0
2023-08-10 11:36:27.647508,-7.0
2023-08-10 11:36:27.655197,-9.0
2023-08-10 11:36:27.662887,-7.0
2023-08-10 11:36:27.670577,-7.0
2023-08-10 11:36:27.678266,-9.0
2023-08-10 11:36:27.685956,-9.0
2023-08-10 11:36:27.693646,-11.0
2023-08-10 11:36:27.701336,-11.0
2023-08-10 11:36:27.709025,-11.0
2023-08-10 11:36:27.716715,-14.0
2023-08-10 11:36:27.724405,-14.0
2023-08-10 11:36:27.732094,-16.0
2023-08-10 11:36:27.739784,-19.0
2023-08-10 11:36:27.747474,-19.0
2023-08-10 11:36:27.755164,-16.0
2023-08-10 11:36:27.762853,-16.0
2023-08-10 11:36:27.770543,-21.0
2023-08-10 11:36:27.778233,-23.0
2023-08-10 11:36:27.785922,-23.0
2023-08-10 11:36:27.793612,-31.0
2023-08-10 11:36:27.801302,-35.0
2023-08-10 11:36:27.808992,-33.0
2023-08-10 11:36:27.816681,-33.0
2023-08-10 11:36:27.824371,-35.0
2023-08-10 11:36:27.832061,-35.0
2023-08-10 11:36:27.839750,-35.0
2023-08-10 11:36:27.847440,-35.0
2023-08-10 11:36:27.855130,-35.0
2023-08-10 11:36:27.862820,-35.0
2023-08-10 11:36:27.870509,-35.0
2023-08-10 11:36:27.878199,-35.0
2023-08-10 11:36:27.885889,-38.0
2023-08-10 11:36:27.893578,-43.0
2023-08-10 11:36:27.901268,-57.0
2023-08-10 11:36:27.908958,-76.0
2023-08-10 11:36:27.916648,-76.0
2023-08-10 11:36:27.924337,-66.0
2023-08-10 11:36:27.932027,-69.0
2023-08-10 11:36:27.939717,-71.0
2023-08-10 11:36:27.947406,-62.0
2023-08-10 11:36:27.955096,-55.0
2023-08-10 11:36:27.962786,-45.0
2023-08-10 11:36:27.970476,-35.0
2023-08-10 11:36:27.978165,-35.0
2023-08-10 11:36:27.985855,-38.0
2023-08-10 11:36:27.993545,-38.0
2023-08-10 11:36:28.001234,-40.0
2023-08-10 11:36:28.008924,-45.0
2023-08-10 11:36:28.016614,-47.0
2023-08-10 11:36:28.024304,-52.0
2023-08-10 11:36:28.031993,-138.0
2023-08-10 11:36:28.039683,-351.0
2023-08-10 11:36:28.047373,-593.0
2023-08-10 11:36:28.055062,-744.0
2023-08-10 11:36:28.062752,-653.0
2023-08-10 11:36:28.070442,-263.0
2023-08-10 11:36:28.078132,74.0
2023-08-10 11:36:28.085821,62.0
2023-08-10 11:36:28.093511,-55.0
2023-08-10 11:36:28.101201,-31.0
2023-08-10 11:36:28.108890,11.0
2023-08-10 11:36:28.116580,-16.0
2023-08-10 11:36:28.124270,-23.0
2023-08-10 11:36:28.131960,-11.0
2023-08-10 11:36:28.139649,-21.0
2023-08-10 11:36:28.147339,-28.0
2023-08-10 11:36:28.155029,-28.0
2023-08-10 11:36:28.162718,-35.0
2023-08-10 11:36:28.170408,-45.0
2023-08-10 11:36:28.178098,-47.0
2023-08-10 11:36:28.185788,-52.0
2023-08-10 11:36:28.193477,-62.0
2023-08-10 11:36:28.201167,-66.0
2023-08-10 11:36:28.208857,-74.0
2023-08-10 11:36:28.216546,-86.0
2023-08-10 11:36:28.224236,-95.0
2023-08-10 11:36:28.231926,-105.0
2023-08-10 11:36:28.239616,-114.0
2023-08-10 11:36:28.247305,-126.0
2023-08-10 11:36:28.254995,-141.0
2023-08-10 11:36:28.262685,-162.0
2023-08-10 11:36:28.270374,-179.0
2023-08-10 11:36:28.278064,-196.0
2023-08-10 11:36:28.285754,-215.0
2023-08-10 11:36:28.293443,-236.0
2023-08-10 11:36:28.301133,-258.0
2023-08-10 11:36:28.308823,-275.0
2023-08-10 11:36:28.316513,-282.0
2023-08-10 11:36:28.324202,-284.0
2023-08-10 11:36:28.331892,-272.0
2023-08-10 11:36:28.339582,-234.0
2023-08-10 11:36:28.347271,-177.0
2023-08-10 11:36:28.354961,-110.0
2023-08-10 11:36:28.362651,-52.0
2023-08-10 11:36:28.370341,-9.0
2023-08-10 11:36:28.378030,16.0
2023-08-10 11:36:28.385720,38.0
2023-08-10 11:36:28.393410,52.0
2023-08-10 11:36:28.401099,55.0
2023-08-10 11:36:28.408789,55.0
2023-08-10 11:36:28.416479,59.0
2023-08-10 11:36:28.424169,59.0
2023-08-10 11:36:28.431858,55.0
2023-08-10 11:36:28.439548,47.0
2023-08-10 11:36:28.447238,38.0
2023-08-10 11:36:28.454927,31.0
2023-08-10 11:36:28.462617,31.0
2023-08-10 11:36:28.470307,26.0
2023-08-10 11:36:28.477997,26.0
2023-08-10 11:36:28.485686,23.0
2023-08-10 11:36:28.493376,19.0
2023-08-10 11:36:28.501066,14.0
2023-08-10 11:36:28.508755,11.0
2023-08-10 11:36:28.516445,7.0
2023-08-10 11:36:28.524135,4.0
2023-08-10 11:36:28.531825,4.0
2023-08-10 11:36:28.539514,4.0
2023-08-10 11:36:28.547204,0.0
2023-08-10 11:36:28.554894,0.0
2023-08-10 11:36:28.562583,2.0
2023-08-10 11:36:28.570273,0.0
2023-08-10 11:36:28.577963,-4.0
2023-08-10 11:36:28.585653,-4.0
2023-08-10 11:36:28.593342,-4.0
2023-08-10 11:36:28.601032,-2.0
2023-08-10 11:36:28.608722,-4.0
2023-08-10 11:36:28.616411,-9.0
2023-08-10 11:36:28.624101,-9.0
2023-08-10 11:36:28.631791,-7.0
2023-08-10 11:36:28.639481,-7.0
2023-08-10 11:36:28.647170,-11.0
2023-08-10 11:36:28.654860,-9.0
2023-08-10 11:36:28.662550,-7.0
2023-08-10 11:36:28.670239,-11.0
2023-08-10 11:36:28.677929,-14.0
2023-08-10 11:36:28.685619,-16.0
2023-08-10 11:36:28.693309,-19.0
2023-08-10 11:36:28.700998,-19.0
2023-08-10 11:36:28.708688,-19.0
2023-08-10 11:36:28.716378,-21.0
2023-08-10 11:36:28.724067,-23.0
2023-08-10 11:36:28.731757,-21.0
2023-08-10 11:36:28.739447,-21.0
2023-08-10 11:36:28.747137,-21.0
2023-08-10 11:36:28.754826,-23.0
2023-08-10 11:36:28.762516,-31.0
2023-08-10 11:36:28.770206,-33.0
2023-08-10 11:36:28.777895,-28.0
2023-08-10 11:36:28.785585,-26.0
2023-08-10 11:36:28.793275,-31.0
2023-08-10 11:36:28.800965,-38.0
2023-08-10 11:36:28.808654,-43.0
2023-08-10 11:36:28.816344,-40.0
2023-08-10 11:36:28.824034,-40.0
2023-08-10 11:36:28.831723,-40.0
2023-08-10 11:36:28.839413,-40.0
2023-08-10 11:36:28.847103,-40.0
2023-08-10 11:36:28.854793,-43.0
2023-08-10 11:36:28.862482,-45.0
2023-08-10 11:36:28.870172,-45.0
2023-08-10 11:36:28.877862,-50.0
2023-08-10 11:36:28.885551,-64.0
2023-08-10 11:36:28.893241,-71.0
2023-08-10 11:36:28.900931,-62.0
2023-08-10 11:36:28.908621,-59.0
2023-08-10 11:36:28.916310,-62.0
2023-08-10 11:36:28.924000,-57.0
2023-08-10 11:36:28.931690,-45.0
2023-08-10 11:36:28.939379,-38.0
2023-08-10 11:36:28.947069,-31.0
2023-08-10 11:36:28.954759,-26.0
2023-08-10 11:36:28.962449,-26.0
2023-08-10 11:36:28.970138,-26.0
2023-08-10 11:36:28.977828,-26.0
2023-08-10 11:36:28.985518,-31.0
2023-08-10 11:36:28.993207,-35.0
2023-08-10 11:36:29.000897,-33.0
2023-08-10 11:36:29.008587,-66.0
2023-08-10 11:36:29.016276,-224.0
2023-08-10 11:36:29.023966,-476.0
2023-08-10 11:36:29.031656,-681.0
2023-08-10 11:36:29.039346,-712.0
2023-08-10 11:36:29.047035,-449.0
2023-08-10 11:36:29.054725,-38.0
2023-08-10 11:36:29.062415,119.0
2023-08-10 11:36:29.070104,9.0
2023-08-10 11:36:29.077794,-52.0
2023-08-10 11:36:29.085484,-14.0
2023-08-10 11:36:29.093174,-7.0
2023-08-10 11:36:29.100863,-26.0
2023-08-10 11:36:29.108553,-21.0
2023-08-10 11:36:29.116243,-21.0
2023-08-10 11:36:29.123932,-40.0
2023-08-10 11:36:29.131622,-47.0
2023-08-10 11:36:29.139312,-45.0
2023-08-10 11:36:29.147002,-50.0
2023-08-10 11:36:29.154691,-57.0
2023-08-10 11:36:29.162381,-59.0
2023-08-10 11:36:29.170071,-69.0
2023-08-10 11:36:29.177760,-78.0
2023-08-10 11:36:29.185450,-83.0
2023-08-10 11:36:29.193140,-88.0
2023-08-10 11:36:29.200830,-95.0
2023-08-10 11:36:29.208519,-102.0
2023-08-10 11:36:29.216209,-114.0
2023-08-10 11:36:29.223899,-129.0
2023-08-10 11:36:29.231588,-141.0
2023-08-10 11:36:29.239278,-155.0
2023-08-10 11:36:29.246968,-174.0
2023-08-10 11:36:29.254658,-191.0
2023-08-10 11:36:29.262347,-208.0
2023-08-10 11:36:29.270037,-227.0
2023-08-10 11:36:29.277727,-246.0
2023-08-10 11:36:29.285416,-258.0
2023-08-10 11:36:29.293106,-270.0
2023-08-10 11:36:29.300796,-277.0
2023-08-10 11:36:29.308486,-279.0
2023-08-10 11:36:29.316175,-253.0
2023-08-10 11:36:29.323865,-196.0
2023-08-10 11:36:29.331555,-131.0
2023-08-10 11:36:29.339244,-71.0
2023-08-10 11:36:29.346934,-21.0
2023-08-10 11:36:29.354624,16.0
2023-08-10 11:36:29.362314,38.0
2023-08-10 11:36:29.370003,52.0
2023-08-10 11:36:29.377693,62.0
2023-08-10 11:36:29.385383,66.0
2023-08-10 11:36:29.393072,66.0
2023-08-10 11:36:29.400762,66.0
2023-08-10 11:36:29.408452,64.0
2023-08-10 11:36:29.416142,62.0
2023-08-10 11:36:29.423831,57.0
2023-08-10 11:36:29.431521,55.0
2023-08-10 11:36:29.439211,50.0
2023-08-10 11:36:29.446900,47.0
2023-08-10 11:36:29.454590,43.0
2023-08-10 11:36:29.462280,43.0
2023-08-10 11:36:29.469970,43.0
2023-08-10 11:36:29.477659,38.0
2023-08-10 11:36:29.485349,33.0
2023-08-10 11:36:29.493039,28.0
2023-08-10 11:36:29.500728,23.0
2023-08-10 11:36:29.508418,21.0
2023-08-10 11:36:29.516108,21.0
2023-08-10 11:36:29.523798,19.0
2023-08-10 11:36:29.531487,16.0
2023-08-10 11:36:29.539177,16.0
2023-08-10 11:36:29.546867,16.0
2023-08-10 11:36:29.554556,14.0
2023-08-10 11:36:29.562246,11.0
2023-08-10 11:36:29.569936,11.0
2023-08-10 11:36:29.577626,11.0
2023-08-10 11:36:29.585315,9.0
2023-08-10 11:36:29.593005,7.0
2023-08-10 11:36:29.600695,7.0
2023-08-10 11:36:29.608384,7.0
2023-08-10 11:36:29.616074,9.0
2023-08-10 11:36:29.623764,7.0
2023-08-10 11:36:29.631454,4.0
2023-08-10 11:36:29.639143,7.0
2023-08-10 11:36:29.646833,7.0
2023-08-10 11:36:29.654523,4.0
2023-08-10 11:36:29.662212,-2.0
2023-08-10 11:36:29.669902,-9.0
2023-08-10 11:36:29.677592,-9.0
2023-08-10 11:36:29.685281,-9.0
2023-08-10 11:36:29.692971,-11.0
2023-08-10 11:36:29.700661,-14.0
2023-08-10 11:36:29.708351,-21.0
2023-08-10 11:36:29.716040,-26.0
2023-08-10 11:36:29.723730,-26.0
2023-08-10 11:36:29.731420,-26.0
2023-08-10 11:36:29.739109,-28.0
2023-08-10 11:36:29.746799,-31.0
2023-08-10 11:36:29.754489,-31.0
2023-08-10 11:36:29.762179,-31.0
2023-08-10 11:36:29.769868,-31.0
2023-08-10 11:36:29.777558,-33.0
2023-08-10 11:36:29.785248,-33.0
2023-08-10 11:36:29.792937,-33.0
2023-08-10 11:36:29.800627,-31.0
2023-08-10 11:36:29.808317,-33.0
2023-08-10 11:36:29.816007,-38.0
2023-08-10 11:36:29.823696,-40.0
2023-08-10 11:36:29.831386,-38.0
2023-08-10 11:36:29.839076,-40.0
2023-08-10 11:36:29.846765,-40.0
2023-08-10 11:36:29.854455,-38.0
2023-08-10 11:36:29.862145,-38.0
2023-08-10 11:36:29.869835,-35.0
2023-08-10 11:36:29.877524,-38.0
2023-08-10 11:36:29.885214,-40.0
2023-08-10 11:36:29.892904,-45.0
2023-08-10 11:36:29.900593,-50.0
2023-08-10 11:36:29.908283,-62.0
2023-08-10 11:36:29.915973,-64.0
2023-08-10 11:36:29.923663,-55.0
2023-08-10 11:36:29.931352,-57.0
2023-08-10 11:36:29.939042,-62.0
2023-08-10 11:36:29.946732,-52.0
2023-08-10 11:36:29.954421,-45.0
2023-08-10 11:36:29.962111,-40.0
2023-08-10 11:36:29.969801,-31.0
2023-08-10 11:36:29.977491,-33.0
2023-08-10 11:36:29.985180,-40.0
2023-08-10 11:36:29.992870,-43.0
2023-08-10 11:36:30.000560,-45.0
2023-08-10 11:36:30.008249,-47.0
2023-08-10 11:36:30.015939,-47.0
2023-08-10 11:36:30.023629,-52.0
2023-08-10 11:36:30.031319,-119.0
2023-08-10 11:36:30.039008,-315.0
2023-08-10 11:36:30.046698,-562.0
2023-08-10 11:36:30.054388,-736.0
2023-08-10 11:36:30.062077,-679.0
2023-08-10 11:36:30.069767,-306.0
2023-08-10 11:36:30.077457,64.0
2023-08-10 11:36:30.085147,90.0
2023-08-10 11:36:30.092836,-38.0
2023-08-10 11:36:30.100526,-28.0
2023-08-10 11:36:30.108216,23.0
2023-08-10 11:36:30.115905,2.0
2023-08-10 11:36:30.123595,-9.0
2023-08-10 11:36:30.131285,4.0
2023-08-10 11:36:30.138975,-2.0
2023-08-10 11:36:30.146664,-16.0
2023-08-10 11:36:30.154354,-19.0
2023-08-10 11:36:30.162044,-28.0
2023-08-10 11:36:30.169733,-40.0
2023-08-10 11:36:30.177423,-40.0
2023-08-10 11:36:30.185113,-45.0
2023-08-10 11:36:30.192803,-55.0
2023-08-10 11:36:30.200492,-64.0
2023-08-10 11:36:30.208182,-71.0
2023-08-10 11:36:30.215872,-78.0
2023-08-10 11:36:30.223561,-86.0
2023-08-10 11:36:30.231251,-98.0
2023-08-10 11:36:30.238941,-112.0
2023-08-10 11:36:30.246631,-126.0
2023-08-10 11:36:30.254320,-138.0
2023-08-10 11:36:30.262010,-153.0
2023-08-10 11:36:30.269700,-169.0
2023-08-10 11:36:30.277389,-186.0
2023-08-10 11:36:30.285079,-205.0
2023-08-10 11:36:30.292769,-227.0
2023-08-10 11:36:30.300459,-239.0
2023-08-10 11:36:30.308148,-253.0
2023-08-10 11:36:30.315838,-275.0
2023-08-10 11:36:30.323528,-282.0
2023-08-10 11:36:30.331217,-267.0
2023-08-10 11:36:30.338907,-232.0
2023-08-10 11:36:30.346597,-174.0
2023-08-10 11:36:30.354287,-112.0
2023-08-10 11:36:30.361976,-55.0
2023-08-10 11:36:30.369666,-4.0
2023-08-10 11:36:30.377356,28.0
2023-08-10 11:36:30.385045,43.0
2023-08-10 11:36:30.392735,52.0
2023-08-10 11:36:30.400425,59.0
2023-08-10 11:36:30.408114,62.0
2023-08-10 11:36:30.415804,66.0
2023-08-10 11:36:30.423494,64.0
2023-08-10 11:36:30.431184,57.0
2023-08-10 11:36:30.438873,52.0
2023-08-10 11:36:30.446563,55.0
2023-08-10 11:36:30.454253,52.0
2023-08-10 11:36:30.461942,47.0
2023-08-10 11:36:30.469632,40.0
2023-08-10 11:36:30.477322,38.0
2023-08-10 11:36:30.485012,35.0
2023-08-10 11:36:30.492701,33.0
2023-08-10 11:36:30.500391,28.0
2023-08-10 11:36:30.508081,28.0
2023-08-10 11:36:30.515770,26.0
2023-08-10 11:36:30.523460,21.0
2023-08-10 11:36:30.531150,19.0
2023-08-10 11:36:30.538840,16.0
2023-08-10 11:36:30.546529,14.0
2023-08-10 11:36:30.554219,14.0
2023-08-10 11:36:30.561909,11.0
2023-08-10 11:36:30.569598,9.0
2023-08-10 11:36:30.577288,7.0
2023-08-10 11:36:30.584978,7.0
2023-08-10 11:36:30.592668,7.0
2023-08-10 11:36:30.600357,2.0
2023-08-10 11:36:30.608047,0.0
2023-08-10 11:36:30.615737,0.0
2023-08-10 11:36:30.623426,0.0
2023-08-10 11:36:30.631116,2.0
2023-08-10 11:36:30.638806,2.0
2023-08-10 11:36:30.646496,0.0
2023-08-10 11:36:30.654185,-4.0
2023-08-10 11:36:30.661875,-2.0
2023-08-10 11:36:30.669565,-4.0
2023-08-10 11:36:30.677254,-7.0
2023-08-10 11:36:30.684944,-7.0
2023-08-10 11:36:30.692634,-11.0
2023-08-10 11:36:30.700324,-21.0
2023-08-10 11:36:30.708013,-26.0
2023-08-10 11:36:30.715703,-21.0
2023-08-10 11:36:30.723393,-26.0
2023-08-10 11:36:30.731082,-31.0
2023-08-10 11:36:30.738772,-28.0
2023-08-10 11:36:30.746462,-31.0
2023-08-10 11:36:30.754152,-35.0
2023-08-10 11:36:30.761841,-33.0
2023-08-10 11:36:30.769531,-31.0
2023-08-10 11:36:30.777221,-31.0
2023-08-10 11:36:30.784910,-35.0
2023-08-10 11:36:30.792600,-35.0
2023-08-10 11:36:30.800290,-33.0
2023-08-10 11:36:30.807980,-38.0
2023-08-10 11:36:30.815669,-43.0
2023-08-10 11:36:30.823359,-47.0
2023-08-10 11:36:30.831049,-47.0
2023-08-10 11:36:30.838738,-47.0
2023-08-10 11:36:30.846428,-47.0
2023-08-10 11:36:30.854118,-47.0
2023-08-10 11:36:30.861808,-47.0
2023-08-10 11:36:30.869497,-45.0
2023-08-10 11:36:30.877187,-45.0
2023-08-10 11:36:30.884877,-47.0
2023-08-10 11:36:30.892566,-45.0
2023-08-10 11:36:30.900256,-43.0
2023-08-10 11:36:30.907946,-45.0
2023-08-10 11:36:30.915636,-50.0
2023-08-10 11:36:30.923325,-50.0
2023-08-10 11:36:30.931015,-50.0
2023-08-10 11:36:30.938705,-52.0
2023-08-10 11:36:30.946394,-57.0
2023-08-10 11:36:30.954084,-59.0
2023-08-10 11:36:30.961774,-69.0
