time,ECG
2023-12-13 14:26:26.593311,14.0
2023-12-13 14:26:26.601000,-61.0
2023-12-13 14:26:26.608689,-133.0
2023-12-13 14:26:26.616379,-182.0
2023-12-13 14:26:26.624068,-213.0
2023-12-13 14:26:26.631757,-235.0
2023-12-13 14:26:26.639446,-242.0
2023-12-13 14:26:26.647135,-237.0
2023-12-13 14:26:26.654824,-232.0
2023-12-13 14:26:26.662514,-228.0
2023-12-13 14:26:26.670203,-223.0
2023-12-13 14:26:26.677892,-218.0
2023-12-13 14:26:26.685581,-213.0
2023-12-13 14:26:26.693270,-201.0
2023-12-13 14:26:26.700959,-182.0
2023-12-13 14:26:26.708649,-175.0
2023-12-13 14:26:26.716338,-175.0
2023-12-13 14:26:26.724027,-166.0
2023-12-13 14:26:26.731716,-159.0
2023-12-13 14:26:26.739405,-152.0
2023-12-13 14:26:26.747094,-144.0
2023-12-13 14:26:26.754784,-137.0
2023-12-13 14:26:26.762473,-133.0
2023-12-13 14:26:26.770162,-128.0
2023-12-13 14:26:26.777851,-133.0
2023-12-13 14:26:26.785540,-137.0
2023-12-13 14:26:26.793229,-133.0
2023-12-13 14:26:26.800919,-128.0
2023-12-13 14:26:26.808608,-133.0
2023-12-13 14:26:26.816297,-133.0
2023-12-13 14:26:26.823986,-123.0
2023-12-13 14:26:26.831675,-123.0
2023-12-13 14:26:26.839364,-128.0
2023-12-13 14:26:26.847054,-125.0
2023-12-13 14:26:26.854743,-121.0
2023-12-13 14:26:26.862432,-109.0
2023-12-13 14:26:26.870121,-97.0
2023-12-13 14:26:26.877810,-78.0
2023-12-13 14:26:26.885500,-61.0
2023-12-13 14:26:26.893189,-52.0
2023-12-13 14:26:26.900878,-54.0
2023-12-13 14:26:26.908567,-68.0
2023-12-13 14:26:26.916256,-85.0
2023-12-13 14:26:26.923945,-95.0
2023-12-13 14:26:26.931635,-90.0
2023-12-13 14:26:26.939324,-87.0
2023-12-13 14:26:26.947013,-83.0
2023-12-13 14:26:26.954702,-73.0
2023-12-13 14:26:26.962391,-64.0
2023-12-13 14:26:26.970080,-54.0
2023-12-13 14:26:26.977770,7.0
2023-12-13 14:26:26.985459,280.0
2023-12-13 14:26:26.993148,769.0
2023-12-13 14:26:27.000837,950.0
2023-12-13 14:26:27.008526,320.0
2023-12-13 14:26:27.016215,-579.0
2023-12-13 14:26:27.023905,-729.0
2023-12-13 14:26:27.031594,-297.0
2023-12-13 14:26:27.039283,-118.0
2023-12-13 14:26:27.046972,-156.0
2023-12-13 14:26:27.054661,-99.0
2023-12-13 14:26:27.062350,-71.0
2023-12-13 14:26:27.070040,-118.0
2023-12-13 14:26:27.077729,-116.0
2023-12-13 14:26:27.085418,-87.0
2023-12-13 14:26:27.093107,-87.0
2023-12-13 14:26:27.100796,-85.0
2023-12-13 14:26:27.108485,-71.0
2023-12-13 14:26:27.116175,-61.0
2023-12-13 14:26:27.123864,-57.0
2023-12-13 14:26:27.131553,-42.0
2023-12-13 14:26:27.139242,-26.0
2023-12-13 14:26:27.146931,-14.0
2023-12-13 14:26:27.154620,2.0
2023-12-13 14:26:27.162310,14.0
2023-12-13 14:26:27.169999,19.0
2023-12-13 14:26:27.177688,47.0
2023-12-13 14:26:27.185377,85.0
2023-12-13 14:26:27.193066,116.0
2023-12-13 14:26:27.200755,147.0
2023-12-13 14:26:27.208445,175.0
2023-12-13 14:26:27.216134,192.0
2023-12-13 14:26:27.223823,199.0
2023-12-13 14:26:27.231512,204.0
2023-12-13 14:26:27.239201,190.0
2023-12-13 14:26:27.246890,149.0
2023-12-13 14:26:27.254580,85.0
2023-12-13 14:26:27.262269,9.0
2023-12-13 14:26:27.269958,-66.0
2023-12-13 14:26:27.277647,-133.0
2023-12-13 14:26:27.285336,-180.0
2023-12-13 14:26:27.293025,-209.0
2023-12-13 14:26:27.300715,-223.0
2023-12-13 14:26:27.308404,-223.0
2023-12-13 14:26:27.316093,-216.0
2023-12-13 14:26:27.323782,-211.0
2023-12-13 14:26:27.331471,-206.0
2023-12-13 14:26:27.339160,-201.0
2023-12-13 14:26:27.346850,-199.0
2023-12-13 14:26:27.354539,-190.0
2023-12-13 14:26:27.362228,-178.0
2023-12-13 14:26:27.369917,-168.0
2023-12-13 14:26:27.377606,-159.0
2023-12-13 14:26:27.385295,-152.0
2023-12-13 14:26:27.392985,-147.0
2023-12-13 14:26:27.400674,-135.0
2023-12-13 14:26:27.408363,-123.0
2023-12-13 14:26:27.416052,-118.0
2023-12-13 14:26:27.423741,-114.0
2023-12-13 14:26:27.431430,-111.0
2023-12-13 14:26:27.439120,-109.0
2023-12-13 14:26:27.446809,-102.0
2023-12-13 14:26:27.454498,-97.0
2023-12-13 14:26:27.462187,-95.0
2023-12-13 14:26:27.469876,-92.0
2023-12-13 14:26:27.477565,-97.0
2023-12-13 14:26:27.485255,-97.0
2023-12-13 14:26:27.492944,-92.0
2023-12-13 14:26:27.500633,-87.0
2023-12-13 14:26:27.508322,-83.0
2023-12-13 14:26:27.516011,-87.0
2023-12-13 14:26:27.523700,-104.0
2023-12-13 14:26:27.531390,-106.0
2023-12-13 14:26:27.539079,-95.0
2023-12-13 14:26:27.546768,-80.0
2023-12-13 14:26:27.554457,-66.0
2023-12-13 14:26:27.562146,-52.0
2023-12-13 14:26:27.569835,-42.0
2023-12-13 14:26:27.577525,-42.0
2023-12-13 14:26:27.585214,-61.0
2023-12-13 14:26:27.592903,-78.0
2023-12-13 14:26:27.600592,-85.0
2023-12-13 14:26:27.608281,-90.0
2023-12-13 14:26:27.615970,-95.0
2023-12-13 14:26:27.623660,-90.0
2023-12-13 14:26:27.631349,-76.0
2023-12-13 14:26:27.639038,-68.0
2023-12-13 14:26:27.646727,-68.0
2023-12-13 14:26:27.654416,-45.0
2023-12-13 14:26:27.662105,109.0
2023-12-13 14:26:27.669795,515.0
2023-12-13 14:26:27.677484,941.0
2023-12-13 14:26:27.685173,786.0
2023-12-13 14:26:27.692862,-40.0
2023-12-13 14:26:27.700551,-686.0
2023-12-13 14:26:27.708240,-546.0
2023-12-13 14:26:27.715930,-175.0
2023-12-13 14:26:27.723619,-125.0
2023-12-13 14:26:27.731308,-156.0
2023-12-13 14:26:27.738997,-104.0
2023-12-13 14:26:27.746686,-109.0
2023-12-13 14:26:27.754375,-142.0
2023-12-13 14:26:27.762065,-125.0
2023-12-13 14:26:27.769754,-106.0
2023-12-13 14:26:27.777443,-111.0
2023-12-13 14:26:27.785132,-109.0
2023-12-13 14:26:27.792821,-111.0
2023-12-13 14:26:27.800510,-121.0
2023-12-13 14:26:27.808200,-104.0
2023-12-13 14:26:27.815889,-78.0
2023-12-13 14:26:27.823578,-66.0
2023-12-13 14:26:27.831267,-52.0
2023-12-13 14:26:27.838956,-47.0
2023-12-13 14:26:27.846645,-42.0
2023-12-13 14:26:27.854335,-11.0
2023-12-13 14:26:27.862024,26.0
2023-12-13 14:26:27.869713,54.0
2023-12-13 14:26:27.877402,90.0
2023-12-13 14:26:27.885091,121.0
2023-12-13 14:26:27.892780,144.0
2023-12-13 14:26:27.900470,163.0
2023-12-13 14:26:27.908159,175.0
2023-12-13 14:26:27.915848,173.0
2023-12-13 14:26:27.923537,156.0
2023-12-13 14:26:27.931226,118.0
2023-12-13 14:26:27.938915,52.0
2023-12-13 14:26:27.946605,-21.0
2023-12-13 14:26:27.954294,-85.0
2023-12-13 14:26:27.961983,-135.0
2023-12-13 14:26:27.969672,-175.0
2023-12-13 14:26:27.977361,-201.0
2023-12-13 14:26:27.985050,-211.0
2023-12-13 14:26:27.992740,-209.0
2023-12-13 14:26:28.000429,-204.0
2023-12-13 14:26:28.008118,-199.0
2023-12-13 14:26:28.015807,-204.0
2023-12-13 14:26:28.023496,-201.0
2023-12-13 14:26:28.031185,-192.0
2023-12-13 14:26:28.038875,-182.0
2023-12-13 14:26:28.046564,-173.0
2023-12-13 14:26:28.054253,-161.0
2023-12-13 14:26:28.061942,-156.0
2023-12-13 14:26:28.069631,-154.0
2023-12-13 14:26:28.077320,-154.0
2023-12-13 14:26:28.085010,-156.0
2023-12-13 14:26:28.092699,-154.0
2023-12-13 14:26:28.100388,-142.0
2023-12-13 14:26:28.108077,-140.0
2023-12-13 14:26:28.115766,-140.0
2023-12-13 14:26:28.123455,-133.0
2023-12-13 14:26:28.131145,-123.0
2023-12-13 14:26:28.138834,-116.0
2023-12-13 14:26:28.146523,-114.0
2023-12-13 14:26:28.154212,-111.0
2023-12-13 14:26:28.161901,-111.0
2023-12-13 14:26:28.169590,-109.0
2023-12-13 14:26:28.177280,-102.0
2023-12-13 14:26:28.184969,-95.0
2023-12-13 14:26:28.192658,-92.0
2023-12-13 14:26:28.200347,-92.0
2023-12-13 14:26:28.208036,-95.0
2023-12-13 14:26:28.215725,-97.0
2023-12-13 14:26:28.223415,-90.0
2023-12-13 14:26:28.231104,-78.0
2023-12-13 14:26:28.238793,-71.0
2023-12-13 14:26:28.246482,-73.0
2023-12-13 14:26:28.254171,-71.0
2023-12-13 14:26:28.261860,-57.0
2023-12-13 14:26:28.269550,-59.0
2023-12-13 14:26:28.277239,-80.0
2023-12-13 14:26:28.284928,-102.0
2023-12-13 14:26:28.292617,-106.0
2023-12-13 14:26:28.300306,-104.0
2023-12-13 14:26:28.307995,-102.0
2023-12-13 14:26:28.315685,-97.0
2023-12-13 14:26:28.323374,-92.0
2023-12-13 14:26:28.331063,-87.0
2023-12-13 14:26:28.338752,-78.0
2023-12-13 14:26:28.346441,-19.0
2023-12-13 14:26:28.354130,242.0
2023-12-13 14:26:28.361820,722.0
2023-12-13 14:26:28.369509,964.0
2023-12-13 14:26:28.377198,451.0
2023-12-13 14:26:28.384887,-444.0
2023-12-13 14:26:28.392576,-731.0
2023-12-13 14:26:28.400265,-365.0
2023-12-13 14:26:28.407955,-125.0
2023-12-13 14:26:28.415644,-154.0
2023-12-13 14:26:28.423333,-135.0
2023-12-13 14:26:28.431022,-87.0
2023-12-13 14:26:28.438711,-99.0
2023-12-13 14:26:28.446400,-99.0
2023-12-13 14:26:28.454090,-73.0
2023-12-13 14:26:28.461779,-66.0
2023-12-13 14:26:28.469468,-66.0
2023-12-13 14:26:28.477157,-54.0
2023-12-13 14:26:28.484846,-42.0
2023-12-13 14:26:28.492535,-35.0
2023-12-13 14:26:28.500225,-28.0
2023-12-13 14:26:28.507914,-21.0
2023-12-13 14:26:28.515603,-9.0
2023-12-13 14:26:28.523292,9.0
2023-12-13 14:26:28.530981,30.0
2023-12-13 14:26:28.538670,52.0
2023-12-13 14:26:28.546360,78.0
2023-12-13 14:26:28.554049,109.0
2023-12-13 14:26:28.561738,137.0
2023-12-13 14:26:28.569427,171.0
2023-12-13 14:26:28.577116,199.0
2023-12-13 14:26:28.584805,206.0
2023-12-13 14:26:28.592495,209.0
2023-12-13 14:26:28.600184,213.0
2023-12-13 14:26:28.607873,206.0
2023-12-13 14:26:28.615562,180.0
2023-12-13 14:26:28.623251,128.0
2023-12-13 14:26:28.630940,54.0
2023-12-13 14:26:28.638630,-21.0
2023-12-13 14:26:28.646319,-87.0
2023-12-13 14:26:28.654008,-137.0
2023-12-13 14:26:28.661697,-168.0
2023-12-13 14:26:28.669386,-182.0
2023-12-13 14:26:28.677075,-192.0
2023-12-13 14:26:28.684765,-194.0
2023-12-13 14:26:28.692454,-190.0
2023-12-13 14:26:28.700143,-182.0
2023-12-13 14:26:28.707832,-175.0
2023-12-13 14:26:28.715521,-171.0
2023-12-13 14:26:28.723210,-163.0
2023-12-13 14:26:28.730900,-159.0
2023-12-13 14:26:28.738589,-156.0
2023-12-13 14:26:28.746278,-154.0
2023-12-13 14:26:28.753967,-152.0
2023-12-13 14:26:28.761656,-147.0
2023-12-13 14:26:28.769345,-144.0
2023-12-13 14:26:28.777035,-147.0
2023-12-13 14:26:28.784724,-163.0
2023-12-13 14:26:28.792413,-168.0
2023-12-13 14:26:28.800102,-152.0
2023-12-13 14:26:28.807791,-140.0
2023-12-13 14:26:28.815480,-144.0
2023-12-13 14:26:28.823170,-140.0
2023-12-13 14:26:28.830859,-133.0
2023-12-13 14:26:28.838548,-130.0
2023-12-13 14:26:28.846237,-125.0
2023-12-13 14:26:28.853926,-121.0
2023-12-13 14:26:28.861615,-118.0
2023-12-13 14:26:28.869305,-118.0
2023-12-13 14:26:28.876994,-114.0
2023-12-13 14:26:28.884683,-111.0
2023-12-13 14:26:28.892372,-114.0
2023-12-13 14:26:28.900061,-111.0
2023-12-13 14:26:28.907750,-104.0
2023-12-13 14:26:28.915440,-92.0
2023-12-13 14:26:28.923129,-78.0
2023-12-13 14:26:28.930818,-61.0
2023-12-13 14:26:28.938507,-45.0
2023-12-13 14:26:28.946196,-35.0
2023-12-13 14:26:28.953885,-45.0
2023-12-13 14:26:28.961575,-66.0
2023-12-13 14:26:28.969264,-83.0
2023-12-13 14:26:28.976953,-87.0
2023-12-13 14:26:28.984642,-80.0
2023-12-13 14:26:28.992331,-73.0
2023-12-13 14:26:29.000020,-83.0
2023-12-13 14:26:29.007710,-87.0
2023-12-13 14:26:29.015399,-80.0
2023-12-13 14:26:29.023088,-64.0
2023-12-13 14:26:29.030777,35.0
2023-12-13 14:26:29.038466,384.0
2023-12-13 14:26:29.046155,862.0
2023-12-13 14:26:29.053845,853.0
2023-12-13 14:26:29.061534,76.0
2023-12-13 14:26:29.069223,-684.0
2023-12-13 14:26:29.076912,-639.0
2023-12-13 14:26:29.084601,-242.0
2023-12-13 14:26:29.092291,-159.0
2023-12-13 14:26:29.099980,-192.0
2023-12-13 14:26:29.107669,-128.0
2023-12-13 14:26:29.115358,-109.0
2023-12-13 14:26:29.123047,-123.0
2023-12-13 14:26:29.130736,-99.0
2023-12-13 14:26:29.138426,-85.0
2023-12-13 14:26:29.146115,-95.0
2023-12-13 14:26:29.153804,-85.0
2023-12-13 14:26:29.161493,-66.0
2023-12-13 14:26:29.169182,-54.0
2023-12-13 14:26:29.176871,-47.0
2023-12-13 14:26:29.184561,-38.0
2023-12-13 14:26:29.192250,-30.0
2023-12-13 14:26:29.199939,-14.0
2023-12-13 14:26:29.207628,16.0
2023-12-13 14:26:29.215317,42.0
2023-12-13 14:26:29.223006,61.0
2023-12-13 14:26:29.230696,78.0
2023-12-13 14:26:29.238385,106.0
2023-12-13 14:26:29.246074,137.0
2023-12-13 14:26:29.253763,168.0
2023-12-13 14:26:29.261452,194.0
2023-12-13 14:26:29.269141,209.0
2023-12-13 14:26:29.276831,213.0
2023-12-13 14:26:29.284520,206.0
2023-12-13 14:26:29.292209,187.0
2023-12-13 14:26:29.299898,152.0
2023-12-13 14:26:29.307587,90.0
2023-12-13 14:26:29.315276,4.0
2023-12-13 14:26:29.322966,-85.0
2023-12-13 14:26:29.330655,-161.0
2023-12-13 14:26:29.338344,-197.0
2023-12-13 14:26:29.346033,-211.0
2023-12-13 14:26:29.353722,-220.0
2023-12-13 14:26:29.361411,-223.0
2023-12-13 14:26:29.369101,-225.0
2023-12-13 14:26:29.376790,-225.0
2023-12-13 14:26:29.384479,-220.0
2023-12-13 14:26:29.392168,-213.0
2023-12-13 14:26:29.399857,-204.0
2023-12-13 14:26:29.407546,-194.0
2023-12-13 14:26:29.415236,-190.0
2023-12-13 14:26:29.422925,-182.0
2023-12-13 14:26:29.430614,-168.0
2023-12-13 14:26:29.438303,-156.0
2023-12-13 14:26:29.445992,-152.0
2023-12-13 14:26:29.453681,-144.0
2023-12-13 14:26:29.461371,-140.0
2023-12-13 14:26:29.469060,-135.0
2023-12-13 14:26:29.476749,-128.0
2023-12-13 14:26:29.484438,-121.0
2023-12-13 14:26:29.492127,-123.0
2023-12-13 14:26:29.499816,-128.0
2023-12-13 14:26:29.507506,-125.0
2023-12-13 14:26:29.515195,-121.0
2023-12-13 14:26:29.522884,-116.0
2023-12-13 14:26:29.530573,-111.0
2023-12-13 14:26:29.538262,-104.0
2023-12-13 14:26:29.545951,-109.0
2023-12-13 14:26:29.553641,-118.0
2023-12-13 14:26:29.561330,-114.0
2023-12-13 14:26:29.569019,-102.0
2023-12-13 14:26:29.576708,-87.0
2023-12-13 14:26:29.584397,-66.0
2023-12-13 14:26:29.592086,-57.0
2023-12-13 14:26:29.599776,-61.0
2023-12-13 14:26:29.607465,-61.0
2023-12-13 14:26:29.615154,-64.0
2023-12-13 14:26:29.622843,-83.0
2023-12-13 14:26:29.630532,-95.0
2023-12-13 14:26:29.638221,-92.0
2023-12-13 14:26:29.645911,-92.0
2023-12-13 14:26:29.653600,-85.0
2023-12-13 14:26:29.661289,-76.0
2023-12-13 14:26:29.668978,-64.0
2023-12-13 14:26:29.676667,-54.0
2023-12-13 14:26:29.684356,-16.0
2023-12-13 14:26:29.692046,201.0
2023-12-13 14:26:29.699735,674.0
2023-12-13 14:26:29.707424,971.0
2023-12-13 14:26:29.715113,503.0
2023-12-13 14:26:29.722802,-420.0
2023-12-13 14:26:29.730491,-753.0
2023-12-13 14:26:29.738181,-377.0
2023-12-13 14:26:29.745870,-118.0
2023-12-13 14:26:29.753559,-147.0
2023-12-13 14:26:29.761248,-121.0
2023-12-13 14:26:29.768937,-76.0
2023-12-13 14:26:29.776626,-102.0
2023-12-13 14:26:29.784316,-104.0
2023-12-13 14:26:29.792005,-76.0
2023-12-13 14:26:29.799694,-73.0
2023-12-13 14:26:29.807383,-73.0
2023-12-13 14:26:29.815072,-57.0
2023-12-13 14:26:29.822761,-49.0
2023-12-13 14:26:29.830451,-47.0
2023-12-13 14:26:29.838140,-35.0
2023-12-13 14:26:29.845829,-19.0
2023-12-13 14:26:29.853518,-2.0
2023-12-13 14:26:29.861207,16.0
2023-12-13 14:26:29.868896,30.0
2023-12-13 14:26:29.876586,49.0
2023-12-13 14:26:29.884275,78.0
2023-12-13 14:26:29.891964,109.0
2023-12-13 14:26:29.899653,144.0
2023-12-13 14:26:29.907342,173.0
2023-12-13 14:26:29.915031,197.0
2023-12-13 14:26:29.922721,213.0
2023-12-13 14:26:29.930410,225.0
2023-12-13 14:26:29.938099,228.0
2023-12-13 14:26:29.945788,213.0
2023-12-13 14:26:29.953477,166.0
2023-12-13 14:26:29.961166,87.0
2023-12-13 14:26:29.968856,11.0
2023-12-13 14:26:29.976545,-59.0
2023-12-13 14:26:29.984234,-128.0
2023-12-13 14:26:29.991923,-178.0
2023-12-13 14:26:29.999612,-201.0
2023-12-13 14:26:30.007301,-213.0
2023-12-13 14:26:30.014991,-216.0
2023-12-13 14:26:30.022680,-211.0
2023-12-13 14:26:30.030369,-206.0
2023-12-13 14:26:30.038058,-204.0
2023-12-13 14:26:30.045747,-199.0
2023-12-13 14:26:30.053436,-194.0
2023-12-13 14:26:30.061126,-187.0
2023-12-13 14:26:30.068815,-178.0
2023-12-13 14:26:30.076504,-168.0
2023-12-13 14:26:30.084193,-156.0
2023-12-13 14:26:30.091882,-152.0
2023-12-13 14:26:30.099571,-152.0
2023-12-13 14:26:30.107261,-156.0
2023-12-13 14:26:30.114950,-152.0
2023-12-13 14:26:30.122639,-135.0
2023-12-13 14:26:30.130328,-130.0
2023-12-13 14:26:30.138017,-130.0
2023-12-13 14:26:30.145706,-123.0
2023-12-13 14:26:30.153396,-118.0
2023-12-13 14:26:30.161085,-116.0
2023-12-13 14:26:30.168774,-111.0
2023-12-13 14:26:30.176463,-109.0
2023-12-13 14:26:30.184152,-109.0
2023-12-13 14:26:30.191841,-109.0
2023-12-13 14:26:30.199531,-104.0
2023-12-13 14:26:30.207220,-97.0
2023-12-13 14:26:30.214909,-92.0
2023-12-13 14:26:30.222598,-97.0
2023-12-13 14:26:30.230287,-109.0
2023-12-13 14:26:30.237976,-111.0
2023-12-13 14:26:30.245666,-99.0
2023-12-13 14:26:30.253355,-85.0
2023-12-13 14:26:30.261044,-73.0
2023-12-13 14:26:30.268733,-61.0
2023-12-13 14:26:30.276422,-45.0
2023-12-13 14:26:30.284111,-40.0
2023-12-13 14:26:30.291801,-59.0
2023-12-13 14:26:30.299490,-76.0
2023-12-13 14:26:30.307179,-83.0
2023-12-13 14:26:30.314868,-85.0
2023-12-13 14:26:30.322557,-83.0
2023-12-13 14:26:30.330246,-73.0
2023-12-13 14:26:30.337936,-66.0
2023-12-13 14:26:30.345625,-57.0
2023-12-13 14:26:30.353314,-49.0
2023-12-13 14:26:30.361003,11.0
2023-12-13 14:26:30.368692,275.0
2023-12-13 14:26:30.376381,750.0
2023-12-13 14:26:30.384071,988.0
2023-12-13 14:26:30.391760,491.0
2023-12-13 14:26:30.399449,-394.0
2023-12-13 14:26:30.407138,-689.0
2023-12-13 14:26:30.414827,-325.0
2023-12-13 14:26:30.422516,-87.0
2023-12-13 14:26:30.430206,-121.0
2023-12-13 14:26:30.437895,-104.0
2023-12-13 14:26:30.445584,-64.0
2023-12-13 14:26:30.453273,-85.0
2023-12-13 14:26:30.460962,-87.0
2023-12-13 14:26:30.468651,-73.0
2023-12-13 14:26:30.476341,-80.0
2023-12-13 14:26:30.484030,-80.0
2023-12-13 14:26:30.491719,-66.0
2023-12-13 14:26:30.499408,-59.0
2023-12-13 14:26:30.507097,-52.0
2023-12-13 14:26:30.514786,-38.0
2023-12-13 14:26:30.522476,-28.0
2023-12-13 14:26:30.530165,-16.0
2023-12-13 14:26:30.537854,-11.0
2023-12-13 14:26:30.545543,-11.0
2023-12-13 14:26:30.553232,11.0
2023-12-13 14:26:30.560921,45.0
2023-12-13 14:26:30.568611,71.0
2023-12-13 14:26:30.576300,99.0
2023-12-13 14:26:30.583989,135.0
2023-12-13 14:26:30.591678,163.0
2023-12-13 14:26:30.599367,180.0
2023-12-13 14:26:30.607056,180.0
2023-12-13 14:26:30.614746,171.0
2023-12-13 14:26:30.622435,166.0
2023-12-13 14:26:30.630124,142.0
2023-12-13 14:26:30.637813,87.0
2023-12-13 14:26:30.645502,16.0
2023-12-13 14:26:30.653191,-57.0
2023-12-13 14:26:30.660881,-121.0
2023-12-13 14:26:30.668570,-168.0
2023-12-13 14:26:30.676259,-194.0
2023-12-13 14:26:30.683948,-209.0
2023-12-13 14:26:30.691637,-211.0
2023-12-13 14:26:30.699326,-209.0
2023-12-13 14:26:30.707016,-206.0
2023-12-13 14:26:30.714705,-201.0
2023-12-13 14:26:30.722394,-201.0
2023-12-13 14:26:30.730083,-201.0
2023-12-13 14:26:30.737772,-187.0
2023-12-13 14:26:30.745461,-175.0
2023-12-13 14:26:30.753151,-180.0
2023-12-13 14:26:30.760840,-178.0
2023-12-13 14:26:30.768529,-168.0
2023-12-13 14:26:30.776218,-156.0
2023-12-13 14:26:30.783907,-149.0
2023-12-13 14:26:30.791596,-144.0
2023-12-13 14:26:30.799286,-137.0
2023-12-13 14:26:30.806975,-133.0
2023-12-13 14:26:30.814664,-128.0
2023-12-13 14:26:30.822353,-121.0
2023-12-13 14:26:30.830042,-114.0
2023-12-13 14:26:30.837731,-109.0
2023-12-13 14:26:30.845421,-111.0
2023-12-13 14:26:30.853110,-109.0
2023-12-13 14:26:30.860799,-104.0
2023-12-13 14:26:30.868488,-99.0
2023-12-13 14:26:30.876177,-97.0
2023-12-13 14:26:30.883866,-95.0
2023-12-13 14:26:30.891556,-90.0
2023-12-13 14:26:30.899245,-95.0
2023-12-13 14:26:30.906934,-99.0
2023-12-13 14:26:30.914623,-95.0
2023-12-13 14:26:30.922312,-85.0
2023-12-13 14:26:30.930001,-73.0
2023-12-13 14:26:30.937691,-59.0
2023-12-13 14:26:30.945380,-42.0
2023-12-13 14:26:30.953069,-30.0
2023-12-13 14:26:30.960758,-23.0
2023-12-13 14:26:30.968447,-42.0
2023-12-13 14:26:30.976136,-71.0
2023-12-13 14:26:30.983826,-80.0
2023-12-13 14:26:30.991515,-80.0
2023-12-13 14:26:30.999204,-78.0
2023-12-13 14:26:31.006893,-71.0
2023-12-13 14:26:31.014582,-64.0
2023-12-13 14:26:31.022271,-57.0
2023-12-13 14:26:31.029961,-64.0
2023-12-13 14:26:31.037650,-59.0
2023-12-13 14:26:31.045339,92.0
2023-12-13 14:26:31.053028,513.0
2023-12-13 14:26:31.060717,938.0
2023-12-13 14:26:31.068406,758.0
2023-12-13 14:26:31.076096,-90.0
2023-12-13 14:26:31.083785,-715.0
2023-12-13 14:26:31.091474,-539.0
2023-12-13 14:26:31.099163,-163.0
2023-12-13 14:26:31.106852,-128.0
2023-12-13 14:26:31.114541,-168.0
2023-12-13 14:26:31.122231,-123.0
2023-12-13 14:26:31.129920,-116.0
2023-12-13 14:26:31.137609,-130.0
2023-12-13 14:26:31.145298,-106.0
2023-12-13 14:26:31.152987,-92.0
2023-12-13 14:26:31.160676,-95.0
2023-12-13 14:26:31.168366,-87.0
2023-12-13 14:26:31.176055,-78.0
2023-12-13 14:26:31.183744,-68.0
2023-12-13 14:26:31.191433,-57.0
2023-12-13 14:26:31.199122,-40.0
2023-12-13 14:26:31.206811,-28.0
2023-12-13 14:26:31.214501,-21.0
2023-12-13 14:26:31.222190,-4.0
2023-12-13 14:26:31.229879,23.0
2023-12-13 14:26:31.237568,49.0
2023-12-13 14:26:31.245257,73.0
2023-12-13 14:26:31.252946,97.0
2023-12-13 14:26:31.260636,128.0
2023-12-13 14:26:31.268325,159.0
2023-12-13 14:26:31.276014,187.0
2023-12-13 14:26:31.283703,204.0
2023-12-13 14:26:31.291392,209.0
2023-12-13 14:26:31.299082,204.0
2023-12-13 14:26:31.306771,185.0
2023-12-13 14:26:31.314460,140.0
2023-12-13 14:26:31.322149,73.0
2023-12-13 14:26:31.329838,-2.0
2023-12-13 14:26:31.337527,-71.0
2023-12-13 14:26:31.345217,-130.0
2023-12-13 14:26:31.352906,-173.0
2023-12-13 14:26:31.360595,-194.0
2023-12-13 14:26:31.368284,-199.0
2023-12-13 14:26:31.375973,-199.0
2023-12-13 14:26:31.383662,-199.0
2023-12-13 14:26:31.391352,-197.0
2023-12-13 14:26:31.399041,-194.0
2023-12-13 14:26:31.406730,-187.0
2023-12-13 14:26:31.414419,-180.0
2023-12-13 14:26:31.422108,-171.0
2023-12-13 14:26:31.429797,-161.0
2023-12-13 14:26:31.437487,-159.0
2023-12-13 14:26:31.445176,-161.0
2023-12-13 14:26:31.452865,-152.0
2023-12-13 14:26:31.460554,-144.0
2023-12-13 14:26:31.468243,-140.0
2023-12-13 14:26:31.475932,-130.0
2023-12-13 14:26:31.483622,-128.0
2023-12-13 14:26:31.491311,-130.0
2023-12-13 14:26:31.499000,-123.0
2023-12-13 14:26:31.506689,-111.0
2023-12-13 14:26:31.514378,-109.0
2023-12-13 14:26:31.522067,-106.0
2023-12-13 14:26:31.529757,-109.0
2023-12-13 14:26:31.537446,-111.0
2023-12-13 14:26:31.545135,-106.0
2023-12-13 14:26:31.552824,-97.0
2023-12-13 14:26:31.560513,-97.0
2023-12-13 14:26:31.568202,-95.0
2023-12-13 14:26:31.575892,-97.0
2023-12-13 14:26:31.583581,-104.0
2023-12-13 14:26:31.591270,-102.0
2023-12-13 14:26:31.598959,-90.0
2023-12-13 14:26:31.606648,-85.0
2023-12-13 14:26:31.614337,-87.0
2023-12-13 14:26:31.622027,-97.0
2023-12-13 14:26:31.629716,-87.0
2023-12-13 14:26:31.637405,-71.0
2023-12-13 14:26:31.645094,-85.0
2023-12-13 14:26:31.652783,-106.0
2023-12-13 14:26:31.660472,-111.0
2023-12-13 14:26:31.668162,-116.0
2023-12-13 14:26:31.675851,-118.0
2023-12-13 14:26:31.683540,-109.0
2023-12-13 14:26:31.691229,-95.0
2023-12-13 14:26:31.698918,-90.0
2023-12-13 14:26:31.706607,-87.0
2023-12-13 14:26:31.714297,-76.0
2023-12-13 14:26:31.721986,54.0
2023-12-13 14:26:31.729675,449.0
2023-12-13 14:26:31.737364,898.0
2023-12-13 14:26:31.745053,762.0
2023-12-13 14:26:31.752742,-87.0
2023-12-13 14:26:31.760432,-748.0
2023-12-13 14:26:31.768121,-589.0
2023-12-13 14:26:31.775810,-204.0
2023-12-13 14:26:31.783499,-147.0
2023-12-13 14:26:31.791188,-166.0
2023-12-13 14:26:31.798877,-106.0
2023-12-13 14:26:31.806567,-106.0
2023-12-13 14:26:31.814256,-128.0
2023-12-13 14:26:31.821945,-106.0
2023-12-13 14:26:31.829634,-92.0
2023-12-13 14:26:31.837323,-97.0
2023-12-13 14:26:31.845012,-87.0
2023-12-13 14:26:31.852702,-73.0
2023-12-13 14:26:31.860391,-66.0
2023-12-13 14:26:31.868080,-54.0
2023-12-13 14:26:31.875769,-38.0
2023-12-13 14:26:31.883458,-26.0
2023-12-13 14:26:31.891147,-19.0
2023-12-13 14:26:31.898837,2.0
2023-12-13 14:26:31.906526,28.0
2023-12-13 14:26:31.914215,49.0
2023-12-13 14:26:31.921904,78.0
2023-12-13 14:26:31.929593,111.0
2023-12-13 14:26:31.937282,142.0
2023-12-13 14:26:31.944972,171.0
2023-12-13 14:26:31.952661,192.0
2023-12-13 14:26:31.960350,204.0
2023-12-13 14:26:31.968039,206.0
2023-12-13 14:26:31.975728,201.0
2023-12-13 14:26:31.983417,185.0
2023-12-13 14:26:31.991107,142.0
2023-12-13 14:26:31.998796,71.0
2023-12-13 14:26:32.006485,-11.0
2023-12-13 14:26:32.014174,-80.0
2023-12-13 14:26:32.021863,-135.0
2023-12-13 14:26:32.029552,-178.0
2023-12-13 14:26:32.037242,-201.0
2023-12-13 14:26:32.044931,-209.0
2023-12-13 14:26:32.052620,-206.0
2023-12-13 14:26:32.060309,-206.0
2023-12-13 14:26:32.067998,-206.0
2023-12-13 14:26:32.075687,-201.0
2023-12-13 14:26:32.083377,-199.0
2023-12-13 14:26:32.091066,-197.0
2023-12-13 14:26:32.098755,-182.0
2023-12-13 14:26:32.106444,-171.0
2023-12-13 14:26:32.114133,-168.0
2023-12-13 14:26:32.121822,-166.0
2023-12-13 14:26:32.129512,-171.0
2023-12-13 14:26:32.137201,-168.0
2023-12-13 14:26:32.144890,-154.0
2023-12-13 14:26:32.152579,-149.0
2023-12-13 14:26:32.160268,-161.0
2023-12-13 14:26:32.167957,-166.0
2023-12-13 14:26:32.175647,-156.0
2023-12-13 14:26:32.183336,-149.0
2023-12-13 14:26:32.191025,-149.0
2023-12-13 14:26:32.198714,-149.0
2023-12-13 14:26:32.206403,-156.0
2023-12-13 14:26:32.214092,-152.0
2023-12-13 14:26:32.221782,-142.0
2023-12-13 14:26:32.229471,-149.0
2023-12-13 14:26:32.237160,-149.0
2023-12-13 14:26:32.244849,-142.0
2023-12-13 14:26:32.252538,-140.0
2023-12-13 14:26:32.260227,-125.0
2023-12-13 14:26:32.267917,-102.0
2023-12-13 14:26:32.275606,-85.0
2023-12-13 14:26:32.283295,-73.0
2023-12-13 14:26:32.290984,-73.0
2023-12-13 14:26:32.298673,-97.0
2023-12-13 14:26:32.306362,-114.0
2023-12-13 14:26:32.314052,-111.0
2023-12-13 14:26:32.321741,-111.0
2023-12-13 14:26:32.329430,-106.0
2023-12-13 14:26:32.337119,-99.0
2023-12-13 14:26:32.344808,-92.0
2023-12-13 14:26:32.352497,-83.0
2023-12-13 14:26:32.360187,-66.0
2023-12-13 14:26:32.367876,28.0
2023-12-13 14:26:32.375565,377.0
2023-12-13 14:26:32.383254,862.0
2023-12-13 14:26:32.390943,850.0
2023-12-13 14:26:32.398632,49.0
2023-12-13 14:26:32.406322,-710.0
2023-12-13 14:26:32.414011,-620.0
2023-12-13 14:26:32.421700,-192.0
2023-12-13 14:26:32.429389,-116.0
2023-12-13 14:26:32.437078,-142.0
2023-12-13 14:26:32.444767,-68.0
2023-12-13 14:26:32.452457,-61.0
2023-12-13 14:26:32.460146,-87.0
2023-12-13 14:26:32.467835,-64.0
2023-12-13 14:26:32.475524,-49.0
2023-12-13 14:26:32.483213,-61.0
2023-12-13 14:26:32.490902,-57.0
2023-12-13 14:26:32.498592,-47.0
2023-12-13 14:26:32.506281,-49.0
2023-12-13 14:26:32.513970,-42.0
2023-12-13 14:26:32.521659,-28.0
2023-12-13 14:26:32.529348,-14.0
2023-12-13 14:26:32.537037,0.0
2023-12-13 14:26:32.544727,21.0
2023-12-13 14:26:32.552416,40.0
2023-12-13 14:26:32.560105,59.0
2023-12-13 14:26:32.567794,87.0
2023-12-13 14:26:32.575483,121.0
2023-12-13 14:26:32.583172,156.0
2023-12-13 14:26:32.590862,187.0
2023-12-13 14:26:32.598551,206.0
2023-12-13 14:26:32.606240,218.0
2023-12-13 14:26:32.613929,220.0
2023-12-13 14:26:32.621618,213.0
2023-12-13 14:26:32.629307,185.0
2023-12-13 14:26:32.636997,125.0
2023-12-13 14:26:32.644686,49.0
2023-12-13 14:26:32.652375,-28.0
2023-12-13 14:26:32.660064,-97.0
2023-12-13 14:26:32.667753,-149.0
2023-12-13 14:26:32.675442,-182.0
2023-12-13 14:26:32.683132,-204.0
2023-12-13 14:26:32.690821,-225.0
2023-12-13 14:26:32.698510,-249.0
2023-12-13 14:26:32.706199,-256.0
2023-12-13 14:26:32.713888,-244.0
2023-12-13 14:26:32.721577,-235.0
2023-12-13 14:26:32.729267,-237.0
2023-12-13 14:26:32.736956,-237.0
2023-12-13 14:26:32.744645,-230.0
2023-12-13 14:26:32.752334,-220.0
2023-12-13 14:26:32.760023,-206.0
2023-12-13 14:26:32.767712,-194.0
2023-12-13 14:26:32.775402,-182.0
2023-12-13 14:26:32.783091,-173.0
2023-12-13 14:26:32.790780,-166.0
2023-12-13 14:26:32.798469,-156.0
2023-12-13 14:26:32.806158,-144.0
2023-12-13 14:26:32.813847,-135.0
2023-12-13 14:26:32.821537,-128.0
2023-12-13 14:26:32.829226,-128.0
2023-12-13 14:26:32.836915,-128.0
2023-12-13 14:26:32.844604,-123.0
2023-12-13 14:26:32.852293,-116.0
2023-12-13 14:26:32.859982,-111.0
2023-12-13 14:26:32.867672,-106.0
2023-12-13 14:26:32.875361,-109.0
2023-12-13 14:26:32.883050,-116.0
2023-12-13 14:26:32.890739,-116.0
2023-12-13 14:26:32.898428,-104.0
2023-12-13 14:26:32.906117,-95.0
2023-12-13 14:26:32.913807,-83.0
2023-12-13 14:26:32.921496,-68.0
2023-12-13 14:26:32.929185,-54.0
2023-12-13 14:26:32.936874,-47.0
2023-12-13 14:26:32.944563,-57.0
2023-12-13 14:26:32.952252,-73.0
2023-12-13 14:26:32.959942,-87.0
2023-12-13 14:26:32.967631,-97.0
2023-12-13 14:26:32.975320,-97.0
2023-12-13 14:26:32.983009,-85.0
2023-12-13 14:26:32.990698,-76.0
2023-12-13 14:26:32.998387,-66.0
2023-12-13 14:26:33.006077,-59.0
2023-12-13 14:26:33.013766,-49.0
2023-12-13 14:26:33.021455,59.0
2023-12-13 14:26:33.029144,413.0
2023-12-13 14:26:33.036833,886.0
2023-12-13 14:26:33.044522,914.0
2023-12-13 14:26:33.052212,199.0
2023-12-13 14:26:33.059901,-584.0
2023-12-13 14:26:33.067590,-605.0
2023-12-13 14:26:33.075279,-194.0
2023-12-13 14:26:33.082968,-68.0
2023-12-13 14:26:33.090657,-114.0
2023-12-13 14:26:33.098347,-68.0
2023-12-13 14:26:33.106036,-49.0
2023-12-13 14:26:33.113725,-73.0
2023-12-13 14:26:33.121414,-59.0
2023-12-13 14:26:33.129103,-42.0
2023-12-13 14:26:33.136792,-57.0
2023-12-13 14:26:33.144482,-61.0
2023-12-13 14:26:33.152171,-47.0
2023-12-13 14:26:33.159860,-45.0
2023-12-13 14:26:33.167549,-42.0
2023-12-13 14:26:33.175238,-30.0
2023-12-13 14:26:33.182927,-28.0
2023-12-13 14:26:33.190617,-28.0
2023-12-13 14:26:33.198306,-16.0
2023-12-13 14:26:33.205995,9.0
2023-12-13 14:26:33.213684,30.0
2023-12-13 14:26:33.221373,57.0
2023-12-13 14:26:33.229062,85.0
2023-12-13 14:26:33.236752,109.0
2023-12-13 14:26:33.244441,135.0
2023-12-13 14:26:33.252130,166.0
2023-12-13 14:26:33.259819,182.0
2023-12-13 14:26:33.267508,190.0
2023-12-13 14:26:33.275197,187.0
2023-12-13 14:26:33.282887,171.0
2023-12-13 14:26:33.290576,125.0
2023-12-13 14:26:33.298265,64.0
2023-12-13 14:26:33.305954,-7.0
2023-12-13 14:26:33.313643,-78.0
2023-12-13 14:26:33.321332,-133.0
2023-12-13 14:26:33.329022,-175.0
2023-12-13 14:26:33.336711,-201.0
2023-12-13 14:26:33.344400,-209.0
2023-12-13 14:26:33.352089,-209.0
2023-12-13 14:26:33.359778,-204.0
2023-12-13 14:26:33.367467,-206.0
2023-12-13 14:26:33.375157,-218.0
2023-12-13 14:26:33.382846,-225.0
2023-12-13 14:26:33.390535,-209.0
2023-12-13 14:26:33.398224,-197.0
2023-12-13 14:26:33.405913,-190.0
2023-12-13 14:26:33.413602,-182.0
2023-12-13 14:26:33.421292,-178.0
2023-12-13 14:26:33.428981,-182.0
2023-12-13 14:26:33.436670,-178.0
2023-12-13 14:26:33.444359,-168.0
2023-12-13 14:26:33.452048,-159.0
2023-12-13 14:26:33.459737,-154.0
2023-12-13 14:26:33.467427,-149.0
2023-12-13 14:26:33.475116,-147.0
2023-12-13 14:26:33.482805,-137.0
2023-12-13 14:26:33.490494,-130.0
2023-12-13 14:26:33.498183,-125.0
2023-12-13 14:26:33.505873,-125.0
2023-12-13 14:26:33.513562,-125.0
2023-12-13 14:26:33.521251,-121.0
2023-12-13 14:26:33.528940,-116.0
2023-12-13 14:26:33.536629,-106.0
2023-12-13 14:26:33.544318,-102.0
2023-12-13 14:26:33.552008,-106.0
2023-12-13 14:26:33.559697,-114.0
2023-12-13 14:26:33.567386,-111.0
2023-12-13 14:26:33.575075,-97.0
2023-12-13 14:26:33.582764,-83.0
2023-12-13 14:26:33.590453,-66.0
2023-12-13 14:26:33.598143,-49.0
2023-12-13 14:26:33.605832,-38.0
2023-12-13 14:26:33.613521,-40.0
2023-12-13 14:26:33.621210,-54.0
2023-12-13 14:26:33.628899,-71.0
2023-12-13 14:26:33.636588,-87.0
2023-12-13 14:26:33.644278,-102.0
2023-12-13 14:26:33.651967,-97.0
2023-12-13 14:26:33.659656,-87.0
2023-12-13 14:26:33.667345,-83.0
2023-12-13 14:26:33.675034,-78.0
2023-12-13 14:26:33.682723,-73.0
2023-12-13 14:26:33.690413,-30.0
2023-12-13 14:26:33.698102,204.0
2023-12-13 14:26:33.705791,679.0
2023-12-13 14:26:33.713480,976.0
2023-12-13 14:26:33.721169,539.0
2023-12-13 14:26:33.728858,-358.0
2023-12-13 14:26:33.736548,-715.0
2023-12-13 14:26:33.744237,-370.0
2023-12-13 14:26:33.751926,-104.0
2023-12-13 14:26:33.759615,-125.0
2023-12-13 14:26:33.767304,-114.0
2023-12-13 14:26:33.774993,-71.0
2023-12-13 14:26:33.782683,-83.0
2023-12-13 14:26:33.790372,-80.0
2023-12-13 14:26:33.798061,-57.0
2023-12-13 14:26:33.805750,-54.0
2023-12-13 14:26:33.813439,-54.0
2023-12-13 14:26:33.821128,-47.0
2023-12-13 14:26:33.828818,-45.0
2023-12-13 14:26:33.836507,-42.0
2023-12-13 14:26:33.844196,-38.0
2023-12-13 14:26:33.851885,-26.0
2023-12-13 14:26:33.859574,-11.0
2023-12-13 14:26:33.867263,-9.0
2023-12-13 14:26:33.874953,-9.0
2023-12-13 14:26:33.882642,14.0
2023-12-13 14:26:33.890331,42.0
2023-12-13 14:26:33.898020,66.0
2023-12-13 14:26:33.905709,102.0
2023-12-13 14:26:33.913398,140.0
2023-12-13 14:26:33.921088,163.0
2023-12-13 14:26:33.928777,175.0
2023-12-13 14:26:33.936466,187.0
2023-12-13 14:26:33.944155,192.0
2023-12-13 14:26:33.951844,185.0
2023-12-13 14:26:33.959533,154.0
2023-12-13 14:26:33.967223,99.0
2023-12-13 14:26:33.974912,26.0
2023-12-13 14:26:33.982601,-52.0
2023-12-13 14:26:33.990290,-114.0
2023-12-13 14:26:33.997979,-159.0
2023-12-13 14:26:34.005668,-192.0
2023-12-13 14:26:34.013358,-209.0
2023-12-13 14:26:34.021047,-213.0
2023-12-13 14:26:34.028736,-213.0
2023-12-13 14:26:34.036425,-209.0
2023-12-13 14:26:34.044114,-201.0
2023-12-13 14:26:34.051803,-199.0
2023-12-13 14:26:34.059493,-190.0
2023-12-13 14:26:34.067182,-180.0
2023-12-13 14:26:34.074871,-175.0
2023-12-13 14:26:34.082560,-168.0
2023-12-13 14:26:34.090249,-159.0
2023-12-13 14:26:34.097938,-154.0
2023-12-13 14:26:34.105628,-149.0
2023-12-13 14:26:34.113317,-142.0
2023-12-13 14:26:34.121006,-135.0
2023-12-13 14:26:34.128695,-130.0
2023-12-13 14:26:34.136384,-133.0
2023-12-13 14:26:34.144073,-137.0
2023-12-13 14:26:34.151763,-130.0
2023-12-13 14:26:34.159452,-123.0
2023-12-13 14:26:34.167141,-130.0
2023-12-13 14:26:34.174830,-135.0
2023-12-13 14:26:34.182519,-128.0
2023-12-13 14:26:34.190208,-125.0
2023-12-13 14:26:34.197898,-123.0
2023-12-13 14:26:34.205587,-118.0
2023-12-13 14:26:34.213276,-116.0
2023-12-13 14:26:34.220965,-116.0
2023-12-13 14:26:34.228654,-118.0
2023-12-13 14:26:34.236343,-121.0
2023-12-13 14:26:34.244033,-118.0
2023-12-13 14:26:34.251722,-114.0
2023-12-13 14:26:34.259411,-104.0
2023-12-13 14:26:34.267100,-90.0
2023-12-13 14:26:34.274789,-73.0
2023-12-13 14:26:34.282478,-54.0
2023-12-13 14:26:34.290168,-38.0
2023-12-13 14:26:34.297857,-45.0
2023-12-13 14:26:34.305546,-66.0
2023-12-13 14:26:34.313235,-80.0
2023-12-13 14:26:34.320924,-83.0
2023-12-13 14:26:34.328613,-85.0
2023-12-13 14:26:34.336303,-80.0
2023-12-13 14:26:34.343992,-73.0
2023-12-13 14:26:34.351681,-66.0
2023-12-13 14:26:34.359370,-59.0
2023-12-13 14:26:34.367059,-47.0
2023-12-13 14:26:34.374748,30.0
2023-12-13 14:26:34.382438,342.0
2023-12-13 14:26:34.390127,829.0
2023-12-13 14:26:34.397816,945.0
2023-12-13 14:26:34.405505,289.0
2023-12-13 14:26:34.413194,-546.0
2023-12-13 14:26:34.420883,-655.0
2023-12-13 14:26:34.428573,-251.0
2023-12-13 14:26:34.436262,-87.0
2023-12-13 14:26:34.443951,-135.0
2023-12-13 14:26:34.451640,-109.0
2023-12-13 14:26:34.459329,-90.0
2023-12-13 14:26:34.467018,-102.0
2023-12-13 14:26:34.474708,-85.0
2023-12-13 14:26:34.482397,-68.0
2023-12-13 14:26:34.490086,-73.0
2023-12-13 14:26:34.497775,-76.0
2023-12-13 14:26:34.505464,-71.0
2023-12-13 14:26:34.513153,-66.0
2023-12-13 14:26:34.520843,-61.0
2023-12-13 14:26:34.528532,-52.0
2023-12-13 14:26:34.536221,-38.0
2023-12-13 14:26:34.543910,-19.0
2023-12-13 14:26:34.551599,-4.0
2023-12-13 14:26:34.559288,14.0
2023-12-13 14:26:34.566978,42.0
2023-12-13 14:26:34.574667,64.0
2023-12-13 14:26:34.582356,85.0
2023-12-13 14:26:34.590045,118.0
2023-12-13 14:26:34.597734,152.0
2023-12-13 14:26:34.605423,180.0
2023-12-13 14:26:34.613113,206.0
2023-12-13 14:26:34.620802,211.0
2023-12-13 14:26:34.628491,206.0
2023-12-13 14:26:34.636180,192.0
2023-12-13 14:26:34.643869,144.0
2023-12-13 14:26:34.651558,73.0
2023-12-13 14:26:34.659248,0.0
2023-12-13 14:26:34.666937,-76.0
2023-12-13 14:26:34.674626,-144.0
2023-12-13 14:26:34.682315,-190.0
2023-12-13 14:26:34.690004,-213.0
2023-12-13 14:26:34.697693,-225.0
2023-12-13 14:26:34.705383,-232.0
2023-12-13 14:26:34.713072,-237.0
2023-12-13 14:26:34.720761,-237.0
2023-12-13 14:26:34.728450,-232.0
2023-12-13 14:26:34.736139,-220.0
2023-12-13 14:26:34.743828,-211.0
2023-12-13 14:26:34.751518,-201.0
2023-12-13 14:26:34.759207,-199.0
2023-12-13 14:26:34.766896,-199.0
2023-12-13 14:26:34.774585,-190.0
2023-12-13 14:26:34.782274,-175.0
2023-12-13 14:26:34.789963,-166.0
2023-12-13 14:26:34.797653,-156.0
2023-12-13 14:26:34.805342,-149.0
2023-12-13 14:26:34.813031,-149.0
2023-12-13 14:26:34.820720,-142.0
2023-12-13 14:26:34.828409,-133.0
2023-12-13 14:26:34.836098,-128.0
2023-12-13 14:26:34.843788,-123.0
2023-12-13 14:26:34.851477,-125.0
2023-12-13 14:26:34.859166,-128.0
2023-12-13 14:26:34.866855,-125.0
2023-12-13 14:26:34.874544,-118.0
2023-12-13 14:26:34.882233,-106.0
2023-12-13 14:26:34.889923,-99.0
2023-12-13 14:26:34.897612,-109.0
2023-12-13 14:26:34.905301,-125.0
2023-12-13 14:26:34.912990,-123.0
2023-12-13 14:26:34.920679,-106.0
2023-12-13 14:26:34.928368,-92.0
2023-12-13 14:26:34.936058,-78.0
2023-12-13 14:26:34.943747,-68.0
2023-12-13 14:26:34.951436,-78.0
2023-12-13 14:26:34.959125,-92.0
2023-12-13 14:26:34.966814,-97.0
2023-12-13 14:26:34.974503,-99.0
2023-12-13 14:26:34.982193,-109.0
2023-12-13 14:26:34.989882,-116.0
2023-12-13 14:26:34.997571,-114.0
2023-12-13 14:26:35.005260,-104.0
2023-12-13 14:26:35.012949,-92.0
2023-12-13 14:26:35.020638,-87.0
2023-12-13 14:26:35.028328,-80.0
2023-12-13 14:26:35.036017,-35.0
2023-12-13 14:26:35.043706,187.0
2023-12-13 14:26:35.051395,662.0
2023-12-13 14:26:35.059084,955.0
2023-12-13 14:26:35.066773,458.0
2023-12-13 14:26:35.074463,-477.0
2023-12-13 14:26:35.082152,-767.0
2023-12-13 14:26:35.089841,-356.0
2023-12-13 14:26:35.097530,-102.0
2023-12-13 14:26:35.105219,-133.0
2023-12-13 14:26:35.112908,-90.0
2023-12-13 14:26:35.120598,-42.0
2023-12-13 14:26:35.128287,-78.0
2023-12-13 14:26:35.135976,-73.0
2023-12-13 14:26:35.143665,-47.0
2023-12-13 14:26:35.151354,-64.0
2023-12-13 14:26:35.159043,-78.0
2023-12-13 14:26:35.166733,-61.0
2023-12-13 14:26:35.174422,-57.0
2023-12-13 14:26:35.182111,-64.0
2023-12-13 14:26:35.189800,-49.0
2023-12-13 14:26:35.197489,-38.0
2023-12-13 14:26:35.205178,-30.0
2023-12-13 14:26:35.212868,-16.0
2023-12-13 14:26:35.220557,-2.0
2023-12-13 14:26:35.228246,16.0
2023-12-13 14:26:35.235935,49.0
2023-12-13 14:26:35.243624,85.0
2023-12-13 14:26:35.251313,118.0
2023-12-13 14:26:35.259003,149.0
2023-12-13 14:26:35.266692,175.0
2023-12-13 14:26:35.274381,192.0
2023-12-13 14:26:35.282070,201.0
2023-12-13 14:26:35.289759,201.0
2023-12-13 14:26:35.297448,190.0
2023-12-13 14:26:35.305138,159.0
2023-12-13 14:26:35.312827,92.0
2023-12-13 14:26:35.320516,11.0
2023-12-13 14:26:35.328205,-57.0
2023-12-13 14:26:35.335894,-116.0
2023-12-13 14:26:35.343583,-163.0
2023-12-13 14:26:35.351273,-192.0
2023-12-13 14:26:35.358962,-206.0
2023-12-13 14:26:35.366651,-211.0
2023-12-13 14:26:35.374340,-209.0
2023-12-13 14:26:35.382029,-204.0
2023-12-13 14:26:35.389718,-197.0
2023-12-13 14:26:35.397408,-199.0
2023-12-13 14:26:35.405097,-201.0
2023-12-13 14:26:35.412786,-194.0
2023-12-13 14:26:35.420475,-180.0
2023-12-13 14:26:35.428164,-173.0
2023-12-13 14:26:35.435853,-166.0
2023-12-13 14:26:35.443543,-156.0
2023-12-13 14:26:35.451232,-147.0
2023-12-13 14:26:35.458921,-140.0
2023-12-13 14:26:35.466610,-130.0
2023-12-13 14:26:35.474299,-118.0
2023-12-13 14:26:35.481988,-114.0
2023-12-13 14:26:35.489678,-109.0
2023-12-13 14:26:35.497367,-106.0
2023-12-13 14:26:35.505056,-104.0
2023-12-13 14:26:35.512745,-102.0
2023-12-13 14:26:35.520434,-97.0
2023-12-13 14:26:35.528123,-99.0
2023-12-13 14:26:35.535813,-116.0
2023-12-13 14:26:35.543502,-125.0
2023-12-13 14:26:35.551191,-116.0
2023-12-13 14:26:35.558880,-116.0
2023-12-13 14:26:35.566569,-121.0
2023-12-13 14:26:35.574258,-111.0
2023-12-13 14:26:35.581948,-102.0
2023-12-13 14:26:35.589637,-87.0
2023-12-13 14:26:35.597326,-71.0
2023-12-13 14:26:35.605015,-54.0
2023-12-13 14:26:35.612704,-45.0
2023-12-13 14:26:35.620393,-57.0
2023-12-13 14:26:35.628083,-76.0
2023-12-13 14:26:35.635772,-87.0
2023-12-13 14:26:35.643461,-97.0
2023-12-13 14:26:35.651150,-109.0
2023-12-13 14:26:35.658839,-116.0
2023-12-13 14:26:35.666528,-109.0
2023-12-13 14:26:35.674218,-97.0
2023-12-13 14:26:35.681907,-87.0
2023-12-13 14:26:35.689596,-61.0
2023-12-13 14:26:35.697285,102.0
2023-12-13 14:26:35.704974,520.0
2023-12-13 14:26:35.712664,936.0
2023-12-13 14:26:35.720353,746.0
2023-12-13 14:26:35.728042,-102.0
2023-12-13 14:26:35.735731,-710.0
2023-12-13 14:26:35.743420,-520.0
2023-12-13 14:26:35.751109,-149.0
2023-12-13 14:26:35.758799,-116.0
2023-12-13 14:26:35.766488,-140.0
2023-12-13 14:26:35.774177,-78.0
2023-12-13 14:26:35.781866,-71.0
2023-12-13 14:26:35.789555,-83.0
2023-12-13 14:26:35.797244,-64.0
2023-12-13 14:26:35.804934,-57.0
2023-12-13 14:26:35.812623,-59.0
2023-12-13 14:26:35.820312,-49.0
2023-12-13 14:26:35.828001,-40.0
2023-12-13 14:26:35.835690,-30.0
2023-12-13 14:26:35.843379,-19.0
2023-12-13 14:26:35.851069,-16.0
2023-12-13 14:26:35.858758,-9.0
2023-12-13 14:26:35.866447,4.0
2023-12-13 14:26:35.874136,16.0
2023-12-13 14:26:35.881825,33.0
2023-12-13 14:26:35.889514,54.0
2023-12-13 14:26:35.897204,73.0
2023-12-13 14:26:35.904893,99.0
2023-12-13 14:26:35.912582,135.0
2023-12-13 14:26:35.920271,161.0
2023-12-13 14:26:35.927960,182.0
2023-12-13 14:26:35.935649,197.0
2023-12-13 14:26:35.943339,197.0
2023-12-13 14:26:35.951028,190.0
2023-12-13 14:26:35.958717,171.0
2023-12-13 14:26:35.966406,123.0
2023-12-13 14:26:35.974095,52.0
2023-12-13 14:26:35.981784,-23.0
2023-12-13 14:26:35.989474,-92.0
2023-12-13 14:26:35.997163,-144.0
2023-12-13 14:26:36.004852,-178.0
2023-12-13 14:26:36.012541,-197.0
2023-12-13 14:26:36.020230,-204.0
2023-12-13 14:26:36.027919,-204.0
2023-12-13 14:26:36.035609,-201.0
2023-12-13 14:26:36.043298,-197.0
2023-12-13 14:26:36.050987,-192.0
2023-12-13 14:26:36.058676,-185.0
2023-12-13 14:26:36.066365,-182.0
2023-12-13 14:26:36.074054,-192.0
2023-12-13 14:26:36.081744,-199.0
2023-12-13 14:26:36.089433,-187.0
2023-12-13 14:26:36.097122,-173.0
2023-12-13 14:26:36.104811,-171.0
2023-12-13 14:26:36.112500,-163.0
2023-12-13 14:26:36.120189,-156.0
2023-12-13 14:26:36.127879,-154.0
2023-12-13 14:26:36.135568,-149.0
2023-12-13 14:26:36.143257,-152.0
2023-12-13 14:26:36.150946,-159.0
2023-12-13 14:26:36.158635,-163.0
2023-12-13 14:26:36.166324,-159.0
2023-12-13 14:26:36.174014,-149.0
2023-12-13 14:26:36.181703,-147.0
2023-12-13 14:26:36.189392,-144.0
2023-12-13 14:26:36.197081,-144.0
2023-12-13 14:26:36.204770,-147.0
2023-12-13 14:26:36.212459,-142.0
2023-12-13 14:26:36.220149,-133.0
2023-12-13 14:26:36.227838,-130.0
2023-12-13 14:26:36.235527,-133.0
2023-12-13 14:26:36.243216,-133.0
2023-12-13 14:26:36.250905,-125.0
2023-12-13 14:26:36.258594,-111.0
2023-12-13 14:26:36.266284,-92.0
2023-12-13 14:26:36.273973,-73.0
2023-12-13 14:26:36.281662,-52.0
2023-12-13 14:26:36.289351,-49.0
2023-12-13 14:26:36.297040,-66.0
2023-12-13 14:26:36.304729,-83.0
2023-12-13 14:26:36.312419,-90.0
2023-12-13 14:26:36.320108,-90.0
2023-12-13 14:26:36.327797,-85.0
2023-12-13 14:26:36.335486,-80.0
2023-12-13 14:26:36.343175,-78.0
2023-12-13 14:26:36.350864,-71.0
2023-12-13 14:26:36.358554,-59.0
2023-12-13 14:26:36.366243,-28.0
2023-12-13 14:26:36.373932,142.0
2023-12-13 14:26:36.381621,570.0
2023-12-13 14:26:36.389310,964.0
2023-12-13 14:26:36.396999,722.0
2023-12-13 14:26:36.404689,-140.0
2023-12-13 14:26:36.412378,-693.0
2023-12-13 14:26:36.420067,-468.0
2023-12-13 14:26:36.427756,-123.0
2023-12-13 14:26:36.435445,-102.0
2023-12-13 14:26:36.443134,-116.0
2023-12-13 14:26:36.450824,-61.0
2023-12-13 14:26:36.458513,-61.0
2023-12-13 14:26:36.466202,-73.0
2023-12-13 14:26:36.473891,-57.0
2023-12-13 14:26:36.481580,-47.0
2023-12-13 14:26:36.489269,-49.0
2023-12-13 14:26:36.496959,-38.0
2023-12-13 14:26:36.504648,-33.0
2023-12-13 14:26:36.512337,-33.0
2023-12-13 14:26:36.520026,-33.0
2023-12-13 14:26:36.527715,-23.0
2023-12-13 14:26:36.535404,-9.0
2023-12-13 14:26:36.543094,7.0
2023-12-13 14:26:36.550783,23.0
2023-12-13 14:26:36.558472,42.0
2023-12-13 14:26:36.566161,61.0
2023-12-13 14:26:36.573850,83.0
2023-12-13 14:26:36.581539,116.0
2023-12-13 14:26:36.589229,152.0
2023-12-13 14:26:36.596918,180.0
2023-12-13 14:26:36.604607,201.0
2023-12-13 14:26:36.612296,211.0
2023-12-13 14:26:36.619985,211.0
2023-12-13 14:26:36.627674,201.0
2023-12-13 14:26:36.635364,180.0
2023-12-13 14:26:36.643053,133.0
2023-12-13 14:26:36.650742,61.0
2023-12-13 14:26:36.658431,-28.0
2023-12-13 14:26:36.666120,-106.0
2023-12-13 14:26:36.673809,-156.0
2023-12-13 14:26:36.681499,-185.0
2023-12-13 14:26:36.689188,-209.0
2023-12-13 14:26:36.696877,-232.0
2023-12-13 14:26:36.704566,-256.0
2023-12-13 14:26:36.712255,-261.0
2023-12-13 14:26:36.719944,-244.0
2023-12-13 14:26:36.727634,-235.0
2023-12-13 14:26:36.735323,-232.0
2023-12-13 14:26:36.743012,-230.0
2023-12-13 14:26:36.750701,-240.0
2023-12-13 14:26:36.758390,-244.0
2023-12-13 14:26:36.766079,-225.0
2023-12-13 14:26:36.773769,-209.0
2023-12-13 14:26:36.781458,-201.0
2023-12-13 14:26:36.789147,-197.0
2023-12-13 14:26:36.796836,-192.0
2023-12-13 14:26:36.804525,-182.0
2023-12-13 14:26:36.812214,-171.0
2023-12-13 14:26:36.819904,-161.0
2023-12-13 14:26:36.827593,-156.0
2023-12-13 14:26:36.835282,-152.0
2023-12-13 14:26:36.842971,-152.0
2023-12-13 14:26:36.850660,-144.0
2023-12-13 14:26:36.858349,-137.0
2023-12-13 14:26:36.866039,-133.0
2023-12-13 14:26:36.873728,-133.0
2023-12-13 14:26:36.881417,-140.0
2023-12-13 14:26:36.889106,-142.0
2023-12-13 14:26:36.896795,-133.0
2023-12-13 14:26:36.904484,-125.0
2023-12-13 14:26:36.912174,-128.0
2023-12-13 14:26:36.919863,-125.0
2023-12-13 14:26:36.927552,-121.0
2023-12-13 14:26:36.935241,-114.0
2023-12-13 14:26:36.942930,-95.0
2023-12-13 14:26:36.950619,-71.0
2023-12-13 14:26:36.958309,-52.0
2023-12-13 14:26:36.965998,-42.0
2023-12-13 14:26:36.973687,-57.0
2023-12-13 14:26:36.981376,-83.0
2023-12-13 14:26:36.989065,-87.0
2023-12-13 14:26:36.996754,-85.0
2023-12-13 14:26:37.004444,-85.0
2023-12-13 14:26:37.012133,-80.0
2023-12-13 14:26:37.019822,-76.0
2023-12-13 14:26:37.027511,-71.0
2023-12-13 14:26:37.035200,-61.0
2023-12-13 14:26:37.042889,-38.0
2023-12-13 14:26:37.050579,87.0
2023-12-13 14:26:37.058268,470.0
2023-12-13 14:26:37.065957,917.0
2023-12-13 14:26:37.073646,822.0
2023-12-13 14:26:37.081335,19.0
2023-12-13 14:26:37.089024,-665.0
2023-12-13 14:26:37.096714,-558.0
2023-12-13 14:26:37.104403,-168.0
2023-12-13 14:26:37.112092,-97.0
2023-12-13 14:26:37.119781,-128.0
2023-12-13 14:26:37.127470,-78.0
2023-12-13 14:26:37.135159,-68.0
2023-12-13 14:26:37.142849,-83.0
2023-12-13 14:26:37.150538,-68.0
2023-12-13 14:26:37.158227,-68.0
2023-12-13 14:26:37.165916,-83.0
2023-12-13 14:26:37.173605,-85.0
2023-12-13 14:26:37.181294,-73.0
2023-12-13 14:26:37.188984,-71.0
2023-12-13 14:26:37.196673,-73.0
2023-12-13 14:26:37.204362,-61.0
2023-12-13 14:26:37.212051,-45.0
2023-12-13 14:26:37.219740,-28.0
2023-12-13 14:26:37.227429,-7.0
2023-12-13 14:26:37.235119,14.0
2023-12-13 14:26:37.242808,23.0
2023-12-13 14:26:37.250497,28.0
2023-12-13 14:26:37.258186,59.0
2023-12-13 14:26:37.265875,102.0
2023-12-13 14:26:37.273564,137.0
2023-12-13 14:26:37.281254,159.0
2023-12-13 14:26:37.288943,173.0
2023-12-13 14:26:37.296632,175.0
2023-12-13 14:26:37.304321,173.0
2023-12-13 14:26:37.312010,159.0
2023-12-13 14:26:37.319699,121.0
2023-12-13 14:26:37.327389,59.0
2023-12-13 14:26:37.335078,-16.0
2023-12-13 14:26:37.342767,-92.0
2023-12-13 14:26:37.350456,-147.0
2023-12-13 14:26:37.358145,-182.0
2023-12-13 14:26:37.365834,-206.0
2023-12-13 14:26:37.373524,-225.0
2023-12-13 14:26:37.381213,-232.0
2023-12-13 14:26:37.388902,-228.0
2023-12-13 14:26:37.396591,-228.0
2023-12-13 14:26:37.404280,-225.0
2023-12-13 14:26:37.411969,-211.0
2023-12-13 14:26:37.419659,-201.0
2023-12-13 14:26:37.427348,-194.0
2023-12-13 14:26:37.435037,-185.0
2023-12-13 14:26:37.442726,-178.0
2023-12-13 14:26:37.450415,-173.0
2023-12-13 14:26:37.458104,-163.0
2023-12-13 14:26:37.465794,-154.0
2023-12-13 14:26:37.473483,-152.0
2023-12-13 14:26:37.481172,-147.0
2023-12-13 14:26:37.488861,-133.0
2023-12-13 14:26:37.496550,-125.0
2023-12-13 14:26:37.504239,-121.0
2023-12-13 14:26:37.511929,-118.0
2023-12-13 14:26:37.519618,-116.0
2023-12-13 14:26:37.527307,-114.0
2023-12-13 14:26:37.534996,-111.0
2023-12-13 14:26:37.542685,-111.0
2023-12-13 14:26:37.550374,-111.0
2023-12-13 14:26:37.558064,-104.0
2023-12-13 14:26:37.565753,-99.0
2023-12-13 14:26:37.573442,-106.0
2023-12-13 14:26:37.581131,-114.0
2023-12-13 14:26:37.588820,-104.0
2023-12-13 14:26:37.596509,-90.0
2023-12-13 14:26:37.604199,-80.0
2023-12-13 14:26:37.611888,-73.0
2023-12-13 14:26:37.619577,-64.0
2023-12-13 14:26:37.627266,-49.0
2023-12-13 14:26:37.634955,-40.0
2023-12-13 14:26:37.642644,-64.0
2023-12-13 14:26:37.650334,-87.0
2023-12-13 14:26:37.658023,-87.0
2023-12-13 14:26:37.665712,-92.0
2023-12-13 14:26:37.673401,-109.0
2023-12-13 14:26:37.681090,-111.0
2023-12-13 14:26:37.688779,-102.0
2023-12-13 14:26:37.696469,-99.0
2023-12-13 14:26:37.704158,-90.0
2023-12-13 14:26:37.711847,-52.0
2023-12-13 14:26:37.719536,128.0
2023-12-13 14:26:37.727225,565.0
2023-12-13 14:26:37.734914,933.0
2023-12-13 14:26:37.742604,582.0
2023-12-13 14:26:37.750293,-351.0
2023-12-13 14:26:37.757982,-796.0
2023-12-13 14:26:37.765671,-451.0
2023-12-13 14:26:37.773360,-142.0
2023-12-13 14:26:37.781049,-163.0
2023-12-13 14:26:37.788739,-149.0
2023-12-13 14:26:37.796428,-83.0
2023-12-13 14:26:37.804117,-97.0
2023-12-13 14:26:37.811806,-104.0
2023-12-13 14:26:37.819495,-83.0
2023-12-13 14:26:37.827184,-85.0
2023-12-13 14:26:37.834874,-90.0
2023-12-13 14:26:37.842563,-78.0
2023-12-13 14:26:37.850252,-76.0
2023-12-13 14:26:37.857941,-76.0
2023-12-13 14:26:37.865630,-61.0
2023-12-13 14:26:37.873319,-49.0
2023-12-13 14:26:37.881009,-40.0
2023-12-13 14:26:37.888698,-23.0
2023-12-13 14:26:37.896387,0.0
2023-12-13 14:26:37.904076,23.0
2023-12-13 14:26:37.911765,47.0
2023-12-13 14:26:37.919455,78.0
2023-12-13 14:26:37.927144,111.0
2023-12-13 14:26:37.934833,144.0
2023-12-13 14:26:37.942522,171.0
2023-12-13 14:26:37.950211,190.0
2023-12-13 14:26:37.957900,199.0
2023-12-13 14:26:37.965590,199.0
2023-12-13 14:26:37.973279,192.0
2023-12-13 14:26:37.980968,171.0
2023-12-13 14:26:37.988657,118.0
2023-12-13 14:26:37.996346,40.0
2023-12-13 14:26:38.004035,-40.0
2023-12-13 14:26:38.011725,-106.0
2023-12-13 14:26:38.019414,-154.0
2023-12-13 14:26:38.027103,-182.0
2023-12-13 14:26:38.034792,-201.0
2023-12-13 14:26:38.042481,-209.0
2023-12-13 14:26:38.050170,-209.0
2023-12-13 14:26:38.057860,-206.0
2023-12-13 14:26:38.065549,-204.0
2023-12-13 14:26:38.073238,-197.0
2023-12-13 14:26:38.080927,-190.0
2023-12-13 14:26:38.088616,-182.0
2023-12-13 14:26:38.096305,-175.0
2023-12-13 14:26:38.103995,-171.0
2023-12-13 14:26:38.111684,-168.0
2023-12-13 14:26:38.119373,-156.0
2023-12-13 14:26:38.127062,-144.0
2023-12-13 14:26:38.134751,-140.0
2023-12-13 14:26:38.142440,-137.0
2023-12-13 14:26:38.150130,-128.0
2023-12-13 14:26:38.157819,-114.0
2023-12-13 14:26:38.165508,-109.0
2023-12-13 14:26:38.173197,-111.0
2023-12-13 14:26:38.180886,-118.0
2023-12-13 14:26:38.188575,-128.0
2023-12-13 14:26:38.196265,-125.0
2023-12-13 14:26:38.203954,-118.0
2023-12-13 14:26:38.211643,-114.0
2023-12-13 14:26:38.219332,-106.0
2023-12-13 14:26:38.227021,-109.0
2023-12-13 14:26:38.234710,-118.0
2023-12-13 14:26:38.242400,-116.0
2023-12-13 14:26:38.250089,-102.0
2023-12-13 14:26:38.257778,-87.0
2023-12-13 14:26:38.265467,-73.0
2023-12-13 14:26:38.273156,-57.0
2023-12-13 14:26:38.280845,-45.0
2023-12-13 14:26:38.288535,-42.0
2023-12-13 14:26:38.296224,-52.0
2023-12-13 14:26:38.303913,-68.0
2023-12-13 14:26:38.311602,-80.0
2023-12-13 14:26:38.319291,-90.0
2023-12-13 14:26:38.326980,-102.0
2023-12-13 14:26:38.334670,-104.0
2023-12-13 14:26:38.342359,-90.0
2023-12-13 14:26:38.350048,-78.0
2023-12-13 14:26:38.357737,-80.0
2023-12-13 14:26:38.365426,-45.0
2023-12-13 14:26:38.373115,173.0
2023-12-13 14:26:38.380805,641.0
2023-12-13 14:26:38.388494,962.0
2023-12-13 14:26:38.396183,546.0
2023-12-13 14:26:38.403872,-361.0
2023-12-13 14:26:38.411561,-734.0
2023-12-13 14:26:38.419250,-384.0
2023-12-13 14:26:38.426940,-104.0
2023-12-13 14:26:38.434629,-123.0
2023-12-13 14:26:38.442318,-102.0
2023-12-13 14:26:38.450007,-54.0
2023-12-13 14:26:38.457696,-76.0
2023-12-13 14:26:38.465385,-80.0
2023-12-13 14:26:38.473075,-52.0
2023-12-13 14:26:38.480764,-45.0
2023-12-13 14:26:38.488453,-45.0
2023-12-13 14:26:38.496142,-35.0
2023-12-13 14:26:38.503831,-35.0
2023-12-13 14:26:38.511520,-35.0
2023-12-13 14:26:38.519210,-26.0
2023-12-13 14:26:38.526899,-14.0
2023-12-13 14:26:38.534588,-2.0
2023-12-13 14:26:38.542277,9.0
2023-12-13 14:26:38.549966,21.0
2023-12-13 14:26:38.557655,40.0
2023-12-13 14:26:38.565345,66.0
2023-12-13 14:26:38.573034,95.0
2023-12-13 14:26:38.580723,128.0
2023-12-13 14:26:38.588412,159.0
2023-12-13 14:26:38.596101,180.0
2023-12-13 14:26:38.603790,190.0
2023-12-13 14:26:38.611480,194.0
2023-12-13 14:26:38.619169,199.0
2023-12-13 14:26:38.626858,192.0
2023-12-13 14:26:38.634547,159.0
2023-12-13 14:26:38.642236,99.0
2023-12-13 14:26:38.649925,26.0
2023-12-13 14:26:38.657615,-45.0
2023-12-13 14:26:38.665304,-104.0
2023-12-13 14:26:38.672993,-149.0
2023-12-13 14:26:38.680682,-185.0
2023-12-13 14:26:38.688371,-216.0
2023-12-13 14:26:38.696060,-218.0
2023-12-13 14:26:38.703750,-206.0
2023-12-13 14:26:38.711439,-206.0
2023-12-13 14:26:38.719128,-201.0
2023-12-13 14:26:38.726817,-197.0
2023-12-13 14:26:38.734506,-197.0
2023-12-13 14:26:38.742195,-190.0
2023-12-13 14:26:38.749885,-175.0
2023-12-13 14:26:38.757574,-166.0
2023-12-13 14:26:38.765263,-159.0
2023-12-13 14:26:38.772952,-154.0
2023-12-13 14:26:38.780641,-152.0
2023-12-13 14:26:38.788330,-142.0
2023-12-13 14:26:38.796020,-133.0
2023-12-13 14:26:38.803709,-128.0
2023-12-13 14:26:38.811398,-121.0
2023-12-13 14:26:38.819087,-121.0
2023-12-13 14:26:38.826776,-121.0
2023-12-13 14:26:38.834465,-114.0
2023-12-13 14:26:38.842155,-109.0
2023-12-13 14:26:38.849844,-114.0
2023-12-13 14:26:38.857533,-118.0
2023-12-13 14:26:38.865222,-116.0
2023-12-13 14:26:38.872911,-116.0
2023-12-13 14:26:38.880600,-111.0
2023-12-13 14:26:38.888290,-102.0
2023-12-13 14:26:38.895979,-104.0
2023-12-13 14:26:38.903668,-111.0
2023-12-13 14:26:38.911357,-111.0
2023-12-13 14:26:38.919046,-102.0
2023-12-13 14:26:38.926735,-87.0
2023-12-13 14:26:38.934425,-68.0
2023-12-13 14:26:38.942114,-49.0
2023-12-13 14:26:38.949803,-45.0
2023-12-13 14:26:38.957492,-64.0
2023-12-13 14:26:38.965181,-90.0
2023-12-13 14:26:38.972870,-99.0
2023-12-13 14:26:38.980560,-104.0
2023-12-13 14:26:38.988249,-106.0
2023-12-13 14:26:38.995938,-102.0
2023-12-13 14:26:39.003627,-95.0
2023-12-13 14:26:39.011316,-87.0
2023-12-13 14:26:39.019005,-78.0
2023-12-13 14:26:39.026695,-66.0
2023-12-13 14:26:39.034384,-16.0
2023-12-13 14:26:39.042073,218.0
2023-12-13 14:26:39.049762,681.0
2023-12-13 14:26:39.057451,974.0
2023-12-13 14:26:39.065140,544.0
2023-12-13 14:26:39.072830,-342.0
2023-12-13 14:26:39.080519,-698.0
2023-12-13 14:26:39.088208,-358.0
2023-12-13 14:26:39.095897,-99.0
2023-12-13 14:26:39.103586,-128.0
2023-12-13 14:26:39.111275,-116.0
2023-12-13 14:26:39.118965,-66.0
2023-12-13 14:26:39.126654,-80.0
2023-12-13 14:26:39.134343,-85.0
2023-12-13 14:26:39.142032,-64.0
2023-12-13 14:26:39.149721,-57.0
2023-12-13 14:26:39.157410,-57.0
2023-12-13 14:26:39.165100,-49.0
2023-12-13 14:26:39.172789,-57.0
2023-12-13 14:26:39.180478,-61.0
2023-12-13 14:26:39.188167,-61.0
2023-12-13 14:26:39.195856,-64.0
2023-12-13 14:26:39.203545,-52.0
2023-12-13 14:26:39.211235,-26.0
2023-12-13 14:26:39.218924,-9.0
2023-12-13 14:26:39.226613,4.0
2023-12-13 14:26:39.234302,30.0
2023-12-13 14:26:39.241991,61.0
2023-12-13 14:26:39.249680,92.0
2023-12-13 14:26:39.257370,125.0
2023-12-13 14:26:39.265059,154.0
2023-12-13 14:26:39.272748,171.0
2023-12-13 14:26:39.280437,180.0
2023-12-13 14:26:39.288126,182.0
2023-12-13 14:26:39.295815,175.0
2023-12-13 14:26:39.303505,152.0
2023-12-13 14:26:39.311194,102.0
2023-12-13 14:26:39.318883,26.0
2023-12-13 14:26:39.326572,-49.0
2023-12-13 14:26:39.334261,-114.0
2023-12-13 14:26:39.341950,-168.0
2023-12-13 14:26:39.349640,-204.0
2023-12-13 14:26:39.357329,-218.0
2023-12-13 14:26:39.365018,-223.0
2023-12-13 14:26:39.372707,-225.0
2023-12-13 14:26:39.380396,-218.0
2023-12-13 14:26:39.388085,-211.0
2023-12-13 14:26:39.395775,-206.0
2023-12-13 14:26:39.403464,-201.0
2023-12-13 14:26:39.411153,-192.0
2023-12-13 14:26:39.418842,-185.0
2023-12-13 14:26:39.426531,-180.0
2023-12-13 14:26:39.434220,-168.0
2023-12-13 14:26:39.441910,-161.0
2023-12-13 14:26:39.449599,-173.0
2023-12-13 14:26:39.457288,-180.0
2023-12-13 14:26:39.464977,-168.0
2023-12-13 14:26:39.472666,-159.0
2023-12-13 14:26:39.480355,-154.0
2023-12-13 14:26:39.488045,-149.0
2023-12-13 14:26:39.495734,-144.0
2023-12-13 14:26:39.503423,-140.0
2023-12-13 14:26:39.511112,-135.0
2023-12-13 14:26:39.518801,-130.0
2023-12-13 14:26:39.526490,-128.0
2023-12-13 14:26:39.534180,-123.0
2023-12-13 14:26:39.541869,-121.0
2023-12-13 14:26:39.549558,-116.0
2023-12-13 14:26:39.557247,-114.0
2023-12-13 14:26:39.564936,-118.0
2023-12-13 14:26:39.572625,-118.0
2023-12-13 14:26:39.580315,-109.0
2023-12-13 14:26:39.588004,-102.0
2023-12-13 14:26:39.595693,-87.0
2023-12-13 14:26:39.603382,-66.0
2023-12-13 14:26:39.611071,-52.0
2023-12-13 14:26:39.618760,-45.0
2023-12-13 14:26:39.626450,-59.0
2023-12-13 14:26:39.634139,-83.0
2023-12-13 14:26:39.641828,-87.0
2023-12-13 14:26:39.649517,-87.0
2023-12-13 14:26:39.657206,-90.0
2023-12-13 14:26:39.664895,-90.0
2023-12-13 14:26:39.672585,-85.0
2023-12-13 14:26:39.680274,-76.0
2023-12-13 14:26:39.687963,-66.0
2023-12-13 14:26:39.695652,-52.0
2023-12-13 14:26:39.703341,85.0
2023-12-13 14:26:39.711030,499.0
2023-12-13 14:26:39.718720,931.0
2023-12-13 14:26:39.726409,741.0
2023-12-13 14:26:39.734098,-116.0
2023-12-13 14:26:39.741787,-712.0
2023-12-13 14:26:39.749476,-515.0
2023-12-13 14:26:39.757165,-152.0
2023-12-13 14:26:39.764855,-118.0
2023-12-13 14:26:39.772544,-140.0
2023-12-13 14:26:39.780233,-85.0
2023-12-13 14:26:39.787922,-83.0
2023-12-13 14:26:39.795611,-95.0
2023-12-13 14:26:39.803300,-73.0
2023-12-13 14:26:39.810990,-64.0
2023-12-13 14:26:39.818679,-68.0
2023-12-13 14:26:39.826368,-59.0
2023-12-13 14:26:39.834057,-59.0
2023-12-13 14:26:39.841746,-68.0
2023-12-13 14:26:39.849435,-61.0
2023-12-13 14:26:39.857125,-45.0
2023-12-13 14:26:39.864814,-35.0
2023-12-13 14:26:39.872503,-19.0
2023-12-13 14:26:39.880192,0.0
2023-12-13 14:26:39.887881,16.0
2023-12-13 14:26:39.895570,40.0
2023-12-13 14:26:39.903260,71.0
2023-12-13 14:26:39.910949,102.0
2023-12-13 14:26:39.918638,135.0
2023-12-13 14:26:39.926327,163.0
2023-12-13 14:26:39.934016,185.0
2023-12-13 14:26:39.941705,199.0
2023-12-13 14:26:39.949395,197.0
2023-12-13 14:26:39.957084,192.0
2023-12-13 14:26:39.964773,175.0
2023-12-13 14:26:39.972462,133.0
2023-12-13 14:26:39.980151,59.0
2023-12-13 14:26:39.987840,-23.0
2023-12-13 14:26:39.995530,-92.0
2023-12-13 14:26:40.003219,-140.0
2023-12-13 14:26:40.010908,-175.0
2023-12-13 14:26:40.018597,-194.0
2023-12-13 14:26:40.026286,-209.0
2023-12-13 14:26:40.033975,-225.0
2023-12-13 14:26:40.041665,-240.0
2023-12-13 14:26:40.049354,-235.0
2023-12-13 14:26:40.057043,-220.0
2023-12-13 14:26:40.064732,-216.0
2023-12-13 14:26:40.072421,-213.0
2023-12-13 14:26:40.080110,-209.0
2023-12-13 14:26:40.087800,-201.0
2023-12-13 14:26:40.095489,-192.0
2023-12-13 14:26:40.103178,-182.0
2023-12-13 14:26:40.110867,-173.0
2023-12-13 14:26:40.118556,-166.0
2023-12-13 14:26:40.126246,-163.0
2023-12-13 14:26:40.133935,-156.0
2023-12-13 14:26:40.141624,-142.0
2023-12-13 14:26:40.149313,-135.0
2023-12-13 14:26:40.157002,-137.0
2023-12-13 14:26:40.164691,-147.0
2023-12-13 14:26:40.172381,-144.0
2023-12-13 14:26:40.180070,-133.0
2023-12-13 14:26:40.187759,-125.0
2023-12-13 14:26:40.195448,-125.0
2023-12-13 14:26:40.203137,-128.0
2023-12-13 14:26:40.210826,-144.0
2023-12-13 14:26:40.218516,-154.0
2023-12-13 14:26:40.226205,-140.0
2023-12-13 14:26:40.233894,-118.0
2023-12-13 14:26:40.241583,-102.0
2023-12-13 14:26:40.249272,-87.0
2023-12-13 14:26:40.256961,-76.0
2023-12-13 14:26:40.264651,-73.0
2023-12-13 14:26:40.272340,-83.0
2023-12-13 14:26:40.280029,-97.0
2023-12-13 14:26:40.287718,-109.0
2023-12-13 14:26:40.295407,-111.0
2023-12-13 14:26:40.303096,-106.0
2023-12-13 14:26:40.310786,-99.0
2023-12-13 14:26:40.318475,-92.0
2023-12-13 14:26:40.326164,-92.0
2023-12-13 14:26:40.333853,-92.0
2023-12-13 14:26:40.341542,-57.0
2023-12-13 14:26:40.349231,133.0
2023-12-13 14:26:40.356921,582.0
2023-12-13 14:26:40.364610,941.0
2023-12-13 14:26:40.372299,553.0
2023-12-13 14:26:40.379988,-380.0
2023-12-13 14:26:40.387677,-777.0
2023-12-13 14:26:40.395366,-413.0
2023-12-13 14:26:40.403056,-118.0
2023-12-13 14:26:40.410745,-130.0
2023-12-13 14:26:40.418434,-104.0
2023-12-13 14:26:40.426123,-42.0
2023-12-13 14:26:40.433812,-57.0
2023-12-13 14:26:40.441501,-66.0
2023-12-13 14:26:40.449191,-42.0
2023-12-13 14:26:40.456880,-40.0
2023-12-13 14:26:40.464569,-42.0
2023-12-13 14:26:40.472258,-26.0
2023-12-13 14:26:40.479947,-19.0
2023-12-13 14:26:40.487636,-19.0
2023-12-13 14:26:40.495326,-9.0
2023-12-13 14:26:40.503015,0.0
2023-12-13 14:26:40.510704,7.0
2023-12-13 14:26:40.518393,21.0
2023-12-13 14:26:40.526082,38.0
2023-12-13 14:26:40.533771,52.0
2023-12-13 14:26:40.541461,78.0
2023-12-13 14:26:40.549150,109.0
2023-12-13 14:26:40.556839,135.0
2023-12-13 14:26:40.564528,166.0
2023-12-13 14:26:40.572217,190.0
2023-12-13 14:26:40.579906,197.0
2023-12-13 14:26:40.587596,204.0
2023-12-13 14:26:40.595285,206.0
2023-12-13 14:26:40.602974,194.0
2023-12-13 14:26:40.610663,161.0
2023-12-13 14:26:40.618352,87.0
2023-12-13 14:26:40.626041,-9.0
2023-12-13 14:26:40.633731,-83.0
2023-12-13 14:26:40.641420,-137.0
2023-12-13 14:26:40.649109,-185.0
2023-12-13 14:26:40.656798,-223.0
2023-12-13 14:26:40.664487,-254.0
2023-12-13 14:26:40.672176,-270.0
2023-12-13 14:26:40.679866,-263.0
2023-12-13 14:26:40.687555,-251.0
2023-12-13 14:26:40.695244,-247.0
2023-12-13 14:26:40.702933,-240.0
2023-12-13 14:26:40.710622,-242.0
2023-12-13 14:26:40.718311,-247.0
2023-12-13 14:26:40.726001,-235.0
2023-12-13 14:26:40.733690,-216.0
2023-12-13 14:26:40.741379,-206.0
2023-12-13 14:26:40.749068,-197.0
2023-12-13 14:26:40.756757,-187.0
2023-12-13 14:26:40.764446,-180.0
2023-12-13 14:26:40.772136,-168.0
2023-12-13 14:26:40.779825,-154.0
2023-12-13 14:26:40.787514,-147.0
2023-12-13 14:26:40.795203,-142.0
2023-12-13 14:26:40.802892,-137.0
2023-12-13 14:26:40.810581,-135.0
2023-12-13 14:26:40.818271,-137.0
2023-12-13 14:26:40.825960,-137.0
2023-12-13 14:26:40.833649,-130.0
2023-12-13 14:26:40.841338,-125.0
2023-12-13 14:26:40.849027,-130.0
2023-12-13 14:26:40.856716,-135.0
2023-12-13 14:26:40.864406,-128.0
2023-12-13 14:26:40.872095,-116.0
2023-12-13 14:26:40.879784,-104.0
2023-12-13 14:26:40.887473,-87.0
2023-12-13 14:26:40.895162,-71.0
2023-12-13 14:26:40.902851,-57.0
2023-12-13 14:26:40.910541,-47.0
2023-12-13 14:26:40.918230,-59.0
2023-12-13 14:26:40.925919,-78.0
2023-12-13 14:26:40.933608,-87.0
2023-12-13 14:26:40.941297,-92.0
2023-12-13 14:26:40.948986,-87.0
2023-12-13 14:26:40.956676,-76.0
2023-12-13 14:26:40.964365,-68.0
2023-12-13 14:26:40.972054,-61.0
2023-12-13 14:26:40.979743,-54.0
2023-12-13 14:26:40.987432,-16.0
2023-12-13 14:26:40.995121,194.0
2023-12-13 14:26:41.002811,662.0
2023-12-13 14:26:41.010500,1002.0
2023-12-13 14:26:41.018189,617.0
2023-12-13 14:26:41.025878,-292.0
2023-12-13 14:26:41.033567,-705.0
2023-12-13 14:26:41.041256,-375.0
2023-12-13 14:26:41.048946,-83.0
2023-12-13 14:26:41.056635,-97.0
2023-12-13 14:26:41.064324,-95.0
2023-12-13 14:26:41.072013,-49.0
2023-12-13 14:26:41.079702,-59.0
2023-12-13 14:26:41.087391,-57.0
2023-12-13 14:26:41.095081,-33.0
2023-12-13 14:26:41.102770,-28.0
2023-12-13 14:26:41.110459,-28.0
2023-12-13 14:26:41.118148,-19.0
2023-12-13 14:26:41.125837,-14.0
2023-12-13 14:26:41.133526,-14.0
2023-12-13 14:26:41.141216,-2.0
2023-12-13 14:26:41.148905,7.0
2023-12-13 14:26:41.156594,4.0
2023-12-13 14:26:41.164283,2.0
2023-12-13 14:26:41.171972,19.0
2023-12-13 14:26:41.179661,38.0
2023-12-13 14:26:41.187351,59.0
2023-12-13 14:26:41.195040,83.0
2023-12-13 14:26:41.202729,106.0
2023-12-13 14:26:41.210418,125.0
2023-12-13 14:26:41.218107,140.0
2023-12-13 14:26:41.225796,154.0
2023-12-13 14:26:41.233486,166.0
2023-12-13 14:26:41.241175,168.0
2023-12-13 14:26:41.248864,154.0
2023-12-13 14:26:41.256553,123.0
2023-12-13 14:26:41.264242,71.0
2023-12-13 14:26:41.271931,-2.0
2023-12-13 14:26:41.279621,-76.0
2023-12-13 14:26:41.287310,-133.0
2023-12-13 14:26:41.294999,-180.0
2023-12-13 14:26:41.302688,-211.0
2023-12-13 14:26:41.310377,-228.0
2023-12-13 14:26:41.318066,-240.0
2023-12-13 14:26:41.325756,-237.0
2023-12-13 14:26:41.333445,-230.0
2023-12-13 14:26:41.341134,-225.0
2023-12-13 14:26:41.348823,-218.0
2023-12-13 14:26:41.356512,-209.0
2023-12-13 14:26:41.364201,-199.0
2023-12-13 14:26:41.371891,-190.0
2023-12-13 14:26:41.379580,-182.0
2023-12-13 14:26:41.387269,-175.0
2023-12-13 14:26:41.394958,-168.0
2023-12-13 14:26:41.402647,-159.0
2023-12-13 14:26:41.410336,-152.0
2023-12-13 14:26:41.418026,-144.0
2023-12-13 14:26:41.425715,-137.0
2023-12-13 14:26:41.433404,-135.0
2023-12-13 14:26:41.441093,-130.0
2023-12-13 14:26:41.448782,-121.0
2023-12-13 14:26:41.456471,-121.0
2023-12-13 14:26:41.464161,-116.0
2023-12-13 14:26:41.471850,-111.0
2023-12-13 14:26:41.479539,-111.0
2023-12-13 14:26:41.487228,-106.0
2023-12-13 14:26:41.494917,-99.0
2023-12-13 14:26:41.502606,-104.0
2023-12-13 14:26:41.510296,-111.0
2023-12-13 14:26:41.517985,-109.0
2023-12-13 14:26:41.525674,-99.0
2023-12-13 14:26:41.533363,-85.0
2023-12-13 14:26:41.541052,-68.0
2023-12-13 14:26:41.548741,-52.0
2023-12-13 14:26:41.556431,-42.0
2023-12-13 14:26:41.564120,-49.0
2023-12-13 14:26:41.571809,-68.0
2023-12-13 14:26:41.579498,-80.0
2023-12-13 14:26:41.587187,-85.0
2023-12-13 14:26:41.594876,-90.0
2023-12-13 14:26:41.602566,-87.0
2023-12-13 14:26:41.610255,-80.0
2023-12-13 14:26:41.617944,-73.0
2023-12-13 14:26:41.625633,-61.0
2023-12-13 14:26:41.633322,-54.0
2023-12-13 14:26:41.641011,-11.0
2023-12-13 14:26:41.648701,225.0
2023-12-13 14:26:41.656390,705.0
2023-12-13 14:26:41.664079,986.0
2023-12-13 14:26:41.671768,515.0
2023-12-13 14:26:41.679457,-382.0
2023-12-13 14:26:41.687146,-705.0
2023-12-13 14:26:41.694836,-351.0
2023-12-13 14:26:41.702525,-118.0
2023-12-13 14:26:41.710214,-152.0
2023-12-13 14:26:41.717903,-135.0
2023-12-13 14:26:41.725592,-97.0
2023-12-13 14:26:41.733281,-111.0
2023-12-13 14:26:41.740971,-102.0
2023-12-13 14:26:41.748660,-80.0
2023-12-13 14:26:41.756349,-76.0
2023-12-13 14:26:41.764038,-66.0
2023-12-13 14:26:41.771727,-52.0
2023-12-13 14:26:41.779416,-45.0
2023-12-13 14:26:41.787106,-38.0
2023-12-13 14:26:41.794795,-33.0
2023-12-13 14:26:41.802484,-28.0
2023-12-13 14:26:41.810173,-16.0
2023-12-13 14:26:41.817862,2.0
2023-12-13 14:26:41.825551,21.0
2023-12-13 14:26:41.833241,40.0
2023-12-13 14:26:41.840930,59.0
2023-12-13 14:26:41.848619,87.0
2023-12-13 14:26:41.856308,118.0
2023-12-13 14:26:41.863997,142.0
2023-12-13 14:26:41.871686,161.0
2023-12-13 14:26:41.879376,178.0
2023-12-13 14:26:41.887065,185.0
2023-12-13 14:26:41.894754,187.0
2023-12-13 14:26:41.902443,175.0
2023-12-13 14:26:41.910132,142.0
2023-12-13 14:26:41.917821,83.0
2023-12-13 14:26:41.925511,4.0
2023-12-13 14:26:41.933200,-68.0
2023-12-13 14:26:41.940889,-128.0
2023-12-13 14:26:41.948578,-171.0
2023-12-13 14:26:41.956267,-199.0
2023-12-13 14:26:41.963956,-218.0
2023-12-13 14:26:41.971646,-225.0
2023-12-13 14:26:41.979335,-220.0
2023-12-13 14:26:41.987024,-213.0
2023-12-13 14:26:41.994713,-209.0
2023-12-13 14:26:42.002402,-204.0
2023-12-13 14:26:42.010091,-201.0
2023-12-13 14:26:42.017781,-194.0
2023-12-13 14:26:42.025470,-185.0
2023-12-13 14:26:42.033159,-175.0
2023-12-13 14:26:42.040848,-171.0
2023-12-13 14:26:42.048537,-168.0
2023-12-13 14:26:42.056226,-171.0
2023-12-13 14:26:42.063916,-163.0
2023-12-13 14:26:42.071605,-152.0
2023-12-13 14:26:42.079294,-144.0
2023-12-13 14:26:42.086983,-137.0
2023-12-13 14:26:42.094672,-130.0
2023-12-13 14:26:42.102361,-128.0
2023-12-13 14:26:42.110051,-128.0
2023-12-13 14:26:42.117740,-123.0
2023-12-13 14:26:42.125429,-118.0
2023-12-13 14:26:42.133118,-116.0
2023-12-13 14:26:42.140807,-121.0
2023-12-13 14:26:42.148496,-123.0
2023-12-13 14:26:42.156186,-123.0
2023-12-13 14:26:42.163875,-128.0
2023-12-13 14:26:42.171564,-123.0
2023-12-13 14:26:42.179253,-109.0
2023-12-13 14:26:42.186942,-95.0
2023-12-13 14:26:42.194631,-80.0
2023-12-13 14:26:42.202321,-66.0
2023-12-13 14:26:42.210010,-52.0
2023-12-13 14:26:42.217699,-52.0
2023-12-13 14:26:42.225388,-78.0
2023-12-13 14:26:42.233077,-114.0
2023-12-13 14:26:42.240766,-140.0
2023-12-13 14:26:42.248456,-144.0
2023-12-13 14:26:42.256145,-133.0
2023-12-13 14:26:42.263834,-118.0
2023-12-13 14:26:42.271523,-111.0
2023-12-13 14:26:42.279212,-106.0
2023-12-13 14:26:42.286901,-102.0
2023-12-13 14:26:42.294591,-47.0
2023-12-13 14:26:42.302280,216.0
2023-12-13 14:26:42.309969,708.0
2023-12-13 14:26:42.317658,938.0
2023-12-13 14:26:42.325347,387.0
2023-12-13 14:26:42.333037,-499.0
2023-12-13 14:26:42.340726,-724.0
2023-12-13 14:26:42.348415,-330.0
2023-12-13 14:26:42.356104,-118.0
2023-12-13 14:26:42.363793,-149.0
2023-12-13 14:26:42.371482,-111.0
2023-12-13 14:26:42.379172,-73.0
2023-12-13 14:26:42.386861,-92.0
2023-12-13 14:26:42.394550,-78.0
2023-12-13 14:26:42.402239,-49.0
2023-12-13 14:26:42.409928,-45.0
2023-12-13 14:26:42.417617,-47.0
2023-12-13 14:26:42.425307,-35.0
2023-12-13 14:26:42.432996,-23.0
2023-12-13 14:26:42.440685,-19.0
2023-12-13 14:26:42.448374,-14.0
2023-12-13 14:26:42.456063,-4.0
2023-12-13 14:26:42.463752,9.0
2023-12-13 14:26:42.471442,26.0
2023-12-13 14:26:42.479131,47.0
2023-12-13 14:26:42.486820,68.0
2023-12-13 14:26:42.494509,87.0
2023-12-13 14:26:42.502198,116.0
2023-12-13 14:26:42.509887,144.0
2023-12-13 14:26:42.517577,166.0
2023-12-13 14:26:42.525266,185.0
2023-12-13 14:26:42.532955,201.0
2023-12-13 14:26:42.540644,204.0
2023-12-13 14:26:42.548333,194.0
2023-12-13 14:26:42.556022,175.0
2023-12-13 14:26:42.563712,135.0
2023-12-13 14:26:42.571401,68.0
2023-12-13 14:26:42.579090,-2.0
2023-12-13 14:26:42.586779,-68.0
2023-12-13 14:26:42.594468,-133.0
2023-12-13 14:26:42.602157,-187.0
2023-12-13 14:26:42.609847,-213.0
2023-12-13 14:26:42.617536,-220.0
2023-12-13 14:26:42.625225,-225.0
2023-12-13 14:26:42.632914,-232.0
2023-12-13 14:26:42.640603,-232.0
2023-12-13 14:26:42.648292,-228.0
2023-12-13 14:26:42.655982,-220.0
2023-12-13 14:26:42.663671,-213.0
2023-12-13 14:26:42.671360,-204.0
2023-12-13 14:26:42.679049,-199.0
2023-12-13 14:26:42.686738,-194.0
2023-12-13 14:26:42.694427,-182.0
2023-12-13 14:26:42.702117,-173.0
2023-12-13 14:26:42.709806,-163.0
2023-12-13 14:26:42.717495,-154.0
2023-12-13 14:26:42.725184,-154.0
2023-12-13 14:26:42.732873,-161.0
2023-12-13 14:26:42.740562,-163.0
2023-12-13 14:26:42.748252,-152.0
2023-12-13 14:26:42.755941,-142.0
2023-12-13 14:26:42.763630,-144.0
2023-12-13 14:26:42.771319,-140.0
2023-12-13 14:26:42.779008,-130.0
2023-12-13 14:26:42.786697,-137.0
2023-12-13 14:26:42.794387,-149.0
2023-12-13 14:26:42.802076,-152.0
2023-12-13 14:26:42.809765,-142.0
2023-12-13 14:26:42.817454,-137.0
2023-12-13 14:26:42.825143,-144.0
2023-12-13 14:26:42.832832,-135.0
2023-12-13 14:26:42.840522,-109.0
2023-12-13 14:26:42.848211,-97.0
2023-12-13 14:26:42.855900,-95.0
2023-12-13 14:26:42.863589,-106.0
2023-12-13 14:26:42.871278,-125.0
2023-12-13 14:26:42.878967,-137.0
2023-12-13 14:26:42.886657,-135.0
2023-12-13 14:26:42.894346,-125.0
2023-12-13 14:26:42.902035,-116.0
2023-12-13 14:26:42.909724,-106.0
2023-12-13 14:26:42.917413,-95.0
2023-12-13 14:26:42.925102,-90.0
2023-12-13 14:26:42.932792,-33.0
2023-12-13 14:26:42.940481,251.0
2023-12-13 14:26:42.948170,753.0
2023-12-13 14:26:42.955859,922.0
2023-12-13 14:26:42.963548,263.0
2023-12-13 14:26:42.971237,-617.0
2023-12-13 14:26:42.978927,-722.0
2023-12-13 14:26:42.986616,-275.0
2023-12-13 14:26:42.994305,-99.0
2023-12-13 14:26:43.001994,-137.0
2023-12-13 14:26:43.009683,-80.0
2023-12-13 14:26:43.017372,-42.0
2023-12-13 14:26:43.025062,-68.0
2023-12-13 14:26:43.032751,-59.0
2023-12-13 14:26:43.040440,-40.0
2023-12-13 14:26:43.048129,-49.0
2023-12-13 14:26:43.055818,-42.0
2023-12-13 14:26:43.063507,-26.0
2023-12-13 14:26:43.071197,-21.0
2023-12-13 14:26:43.078886,-11.0
2023-12-13 14:26:43.086575,4.0
2023-12-13 14:26:43.094264,14.0
2023-12-13 14:26:43.101953,28.0
2023-12-13 14:26:43.109642,47.0
2023-12-13 14:26:43.117332,61.0
2023-12-13 14:26:43.125021,78.0
2023-12-13 14:26:43.132710,104.0
2023-12-13 14:26:43.140399,133.0
2023-12-13 14:26:43.148088,166.0
2023-12-13 14:26:43.155777,197.0
2023-12-13 14:26:43.163467,216.0
2023-12-13 14:26:43.171156,223.0
2023-12-13 14:26:43.178845,223.0
2023-12-13 14:26:43.186534,211.0
2023-12-13 14:26:43.194223,182.0
2023-12-13 14:26:43.201912,137.0
2023-12-13 14:26:43.209602,64.0
2023-12-13 14:26:43.217291,-21.0
2023-12-13 14:26:43.224980,-97.0
2023-12-13 14:26:43.232669,-159.0
2023-12-13 14:26:43.240358,-204.0
2023-12-13 14:26:43.248047,-223.0
2023-12-13 14:26:43.255737,-232.0
2023-12-13 14:26:43.263426,-235.0
2023-12-13 14:26:43.271115,-230.0
2023-12-13 14:26:43.278804,-230.0
2023-12-13 14:26:43.286493,-230.0
2023-12-13 14:26:43.294182,-225.0
2023-12-13 14:26:43.301872,-218.0
2023-12-13 14:26:43.309561,-211.0
2023-12-13 14:26:43.317250,-201.0
2023-12-13 14:26:43.324939,-192.0
2023-12-13 14:26:43.332628,-182.0
2023-12-13 14:26:43.340317,-171.0
2023-12-13 14:26:43.348007,-161.0
2023-12-13 14:26:43.355696,-154.0
2023-12-13 14:26:43.363385,-147.0
2023-12-13 14:26:43.371074,-142.0
2023-12-13 14:26:43.378763,-133.0
2023-12-13 14:26:43.386452,-125.0
2023-12-13 14:26:43.394142,-121.0
2023-12-13 14:26:43.401831,-123.0
2023-12-13 14:26:43.409520,-135.0
2023-12-13 14:26:43.417209,-142.0
2023-12-13 14:26:43.424898,-135.0
2023-12-13 14:26:43.432587,-135.0
2023-12-13 14:26:43.440277,-144.0
2023-12-13 14:26:43.447966,-140.0
2023-12-13 14:26:43.455655,-125.0
2023-12-13 14:26:43.463344,-109.0
2023-12-13 14:26:43.471033,-87.0
2023-12-13 14:26:43.478722,-73.0
2023-12-13 14:26:43.486412,-68.0
2023-12-13 14:26:43.494101,-71.0
2023-12-13 14:26:43.501790,-87.0
2023-12-13 14:26:43.509479,-104.0
2023-12-13 14:26:43.517168,-106.0
2023-12-13 14:26:43.524857,-109.0
2023-12-13 14:26:43.532547,-111.0
2023-12-13 14:26:43.540236,-104.0
2023-12-13 14:26:43.547925,-92.0
2023-12-13 14:26:43.555614,-83.0
2023-12-13 14:26:43.563303,-64.0
2023-12-13 14:26:43.570992,45.0
2023-12-13 14:26:43.578682,406.0
2023-12-13 14:26:43.586371,891.0
2023-12-13 14:26:43.594060,898.0
2023-12-13 14:26:43.601749,137.0
2023-12-13 14:26:43.609438,-629.0
2023-12-13 14:26:43.617127,-601.0
2023-12-13 14:26:43.624817,-194.0
2023-12-13 14:26:43.632506,-97.0
2023-12-13 14:26:43.640195,-137.0
2023-12-13 14:26:43.647884,-78.0
2023-12-13 14:26:43.655573,-54.0
2023-12-13 14:26:43.663262,-71.0
2023-12-13 14:26:43.670952,-57.0
2023-12-13 14:26:43.678641,-40.0
2023-12-13 14:26:43.686330,-40.0
2023-12-13 14:26:43.694019,-30.0
2023-12-13 14:26:43.701708,-16.0
2023-12-13 14:26:43.709397,-7.0
2023-12-13 14:26:43.717087,0.0
2023-12-13 14:26:43.724776,7.0
2023-12-13 14:26:43.732465,19.0
2023-12-13 14:26:43.740154,28.0
2023-12-13 14:26:43.747843,38.0
2023-12-13 14:26:43.755532,54.0
2023-12-13 14:26:43.763222,78.0
2023-12-13 14:26:43.770911,102.0
2023-12-13 14:26:43.778600,121.0
2023-12-13 14:26:43.786289,152.0
2023-12-13 14:26:43.793978,185.0
2023-12-13 14:26:43.801667,206.0
2023-12-13 14:26:43.809357,213.0
2023-12-13 14:26:43.817046,211.0
2023-12-13 14:26:43.824735,199.0
2023-12-13 14:26:43.832424,175.0
2023-12-13 14:26:43.840113,125.0
2023-12-13 14:26:43.847802,47.0
2023-12-13 14:26:43.855492,-42.0
2023-12-13 14:26:43.863181,-114.0
2023-12-13 14:26:43.870870,-161.0
2023-12-13 14:26:43.878559,-194.0
2023-12-13 14:26:43.886248,-216.0
2023-12-13 14:26:43.893937,-223.0
2023-12-13 14:26:43.901627,-230.0
2023-12-13 14:26:43.909316,-230.0
2023-12-13 14:26:43.917005,-220.0
2023-12-13 14:26:43.924694,-211.0
2023-12-13 14:26:43.932383,-206.0
2023-12-13 14:26:43.940072,-204.0
2023-12-13 14:26:43.947762,-213.0
2023-12-13 14:26:43.955451,-223.0
2023-12-13 14:26:43.963140,-211.0
2023-12-13 14:26:43.970829,-194.0
2023-12-13 14:26:43.978518,-190.0
2023-12-13 14:26:43.986207,-187.0
2023-12-13 14:26:43.993897,-197.0
2023-12-13 14:26:44.001586,-204.0
2023-12-13 14:26:44.009275,-190.0
2023-12-13 14:26:44.016964,-180.0
2023-12-13 14:26:44.024653,-185.0
2023-12-13 14:26:44.032342,-180.0
2023-12-13 14:26:44.040032,-175.0
2023-12-13 14:26:44.047721,-173.0
2023-12-13 14:26:44.055410,-166.0
2023-12-13 14:26:44.063099,-159.0
2023-12-13 14:26:44.070788,-152.0
2023-12-13 14:26:44.078477,-152.0
2023-12-13 14:26:44.086167,-159.0
2023-12-13 14:26:44.093856,-156.0
2023-12-13 14:26:44.101545,-140.0
2023-12-13 14:26:44.109234,-123.0
2023-12-13 14:26:44.116923,-109.0
2023-12-13 14:26:44.124612,-95.0
2023-12-13 14:26:44.132302,-83.0
2023-12-13 14:26:44.139991,-78.0
2023-12-13 14:26:44.147680,-90.0
2023-12-13 14:26:44.155369,-104.0
2023-12-13 14:26:44.163058,-111.0
2023-12-13 14:26:44.170747,-111.0
2023-12-13 14:26:44.178437,-111.0
2023-12-13 14:26:44.186126,-102.0
2023-12-13 14:26:44.193815,-90.0
2023-12-13 14:26:44.201504,-78.0
2023-12-13 14:26:44.209193,-68.0
2023-12-13 14:26:44.216882,-28.0
2023-12-13 14:26:44.224572,182.0
2023-12-13 14:26:44.232261,648.0
2023-12-13 14:26:44.239950,986.0
2023-12-13 14:26:44.247639,605.0
2023-12-13 14:26:44.255328,-301.0
2023-12-13 14:26:44.263017,-736.0
2023-12-13 14:26:44.270707,-425.0
2023-12-13 14:26:44.278396,-125.0
2023-12-13 14:26:44.286085,-133.0
2023-12-13 14:26:44.293774,-125.0
2023-12-13 14:26:44.301463,-71.0
2023-12-13 14:26:44.309152,-78.0
2023-12-13 14:26:44.316842,-85.0
2023-12-13 14:26:44.324531,-59.0
2023-12-13 14:26:44.332220,-45.0
2023-12-13 14:26:44.339909,-42.0
2023-12-13 14:26:44.347598,-30.0
2023-12-13 14:26:44.355287,-21.0
2023-12-13 14:26:44.362977,-16.0
2023-12-13 14:26:44.370666,-2.0
2023-12-13 14:26:44.378355,14.0
2023-12-13 14:26:44.386044,28.0
2023-12-13 14:26:44.393733,45.0
2023-12-13 14:26:44.401422,61.0
2023-12-13 14:26:44.409112,80.0
2023-12-13 14:26:44.416801,106.0
2023-12-13 14:26:44.424490,130.0
2023-12-13 14:26:44.432179,159.0
2023-12-13 14:26:44.439868,192.0
2023-12-13 14:26:44.447557,218.0
2023-12-13 14:26:44.455247,230.0
2023-12-13 14:26:44.462936,240.0
2023-12-13 14:26:44.470625,240.0
2023-12-13 14:26:44.478314,223.0
2023-12-13 14:26:44.486003,182.0
2023-12-13 14:26:44.493692,114.0
2023-12-13 14:26:44.501382,28.0
2023-12-13 14:26:44.509071,-52.0
2023-12-13 14:26:44.516760,-121.0
2023-12-13 14:26:44.524449,-173.0
2023-12-13 14:26:44.532138,-216.0
2023-12-13 14:26:44.539828,-249.0
2023-12-13 14:26:44.547517,-256.0
2023-12-13 14:26:44.555206,-247.0
2023-12-13 14:26:44.562895,-240.0
2023-12-13 14:26:44.570584,-237.0
2023-12-13 14:26:44.578273,-232.0
2023-12-13 14:26:44.585963,-228.0
2023-12-13 14:26:44.593652,-220.0
2023-12-13 14:26:44.601341,-209.0
2023-12-13 14:26:44.609030,-201.0
2023-12-13 14:26:44.616719,-199.0
2023-12-13 14:26:44.624408,-194.0
2023-12-13 14:26:44.632098,-187.0
2023-12-13 14:26:44.639787,-180.0
2023-12-13 14:26:44.647476,-171.0
2023-12-13 14:26:44.655165,-161.0
2023-12-13 14:26:44.662854,-154.0
2023-12-13 14:26:44.670543,-152.0
2023-12-13 14:26:44.678233,-147.0
2023-12-13 14:26:44.685922,-142.0
2023-12-13 14:26:44.693611,-133.0
2023-12-13 14:26:44.701300,-125.0
2023-12-13 14:26:44.708989,-125.0
2023-12-13 14:26:44.716678,-123.0
2023-12-13 14:26:44.724368,-121.0
2023-12-13 14:26:44.732057,-123.0
2023-12-13 14:26:44.739746,-125.0
2023-12-13 14:26:44.747435,-118.0
2023-12-13 14:26:44.755124,-116.0
2023-12-13 14:26:44.762813,-114.0
2023-12-13 14:26:44.770503,-99.0
2023-12-13 14:26:44.778192,-76.0
2023-12-13 14:26:44.785881,-61.0
2023-12-13 14:26:44.793570,-59.0
2023-12-13 14:26:44.801259,-73.0
2023-12-13 14:26:44.808948,-95.0
2023-12-13 14:26:44.816638,-102.0
2023-12-13 14:26:44.824327,-99.0
2023-12-13 14:26:44.832016,-95.0
2023-12-13 14:26:44.839705,-85.0
2023-12-13 14:26:44.847394,-80.0
2023-12-13 14:26:44.855083,-76.0
2023-12-13 14:26:44.862773,-64.0
2023-12-13 14:26:44.870462,-19.0
2023-12-13 14:26:44.878151,206.0
2023-12-13 14:26:44.885840,681.0
2023-12-13 14:26:44.893529,986.0
2023-12-13 14:26:44.901218,551.0
2023-12-13 14:26:44.908908,-346.0
2023-12-13 14:26:44.916597,-705.0
2023-12-13 14:26:44.924286,-361.0
2023-12-13 14:26:44.931975,-87.0
2023-12-13 14:26:44.939664,-106.0
2023-12-13 14:26:44.947353,-92.0
2023-12-13 14:26:44.955043,-40.0
2023-12-13 14:26:44.962732,-52.0
2023-12-13 14:26:44.970421,-52.0
2023-12-13 14:26:44.978110,-28.0
2023-12-13 14:26:44.985799,-21.0
2023-12-13 14:26:44.993488,-21.0
2023-12-13 14:26:45.001178,-14.0
2023-12-13 14:26:45.008867,-11.0
2023-12-13 14:26:45.016556,-4.0
2023-12-13 14:26:45.024245,7.0
2023-12-13 14:26:45.031934,16.0
2023-12-13 14:26:45.039623,30.0
2023-12-13 14:26:45.047313,52.0
2023-12-13 14:26:45.055002,68.0
2023-12-13 14:26:45.062691,85.0
2023-12-13 14:26:45.070380,97.0
2023-12-13 14:26:45.078069,106.0
2023-12-13 14:26:45.085758,130.0
2023-12-13 14:26:45.093448,171.0
2023-12-13 14:26:45.101137,197.0
2023-12-13 14:26:45.108826,209.0
2023-12-13 14:26:45.116515,211.0
2023-12-13 14:26:45.124204,204.0
2023-12-13 14:26:45.131893,190.0
2023-12-13 14:26:45.139583,152.0
2023-12-13 14:26:45.147272,87.0
2023-12-13 14:26:45.154961,9.0
2023-12-13 14:26:45.162650,-68.0
2023-12-13 14:26:45.170339,-133.0
2023-12-13 14:26:45.178028,-178.0
2023-12-13 14:26:45.185718,-206.0
2023-12-13 14:26:45.193407,-225.0
2023-12-13 14:26:45.201096,-230.0
2023-12-13 14:26:45.208785,-230.0
2023-12-13 14:26:45.216474,-228.0
2023-12-13 14:26:45.224163,-223.0
2023-12-13 14:26:45.231853,-218.0
2023-12-13 14:26:45.239542,-213.0
2023-12-13 14:26:45.247231,-206.0
2023-12-13 14:26:45.254920,-206.0
2023-12-13 14:26:45.262609,-213.0
2023-12-13 14:26:45.270298,-211.0
2023-12-13 14:26:45.277988,-201.0
2023-12-13 14:26:45.285677,-190.0
2023-12-13 14:26:45.293366,-182.0
2023-12-13 14:26:45.301055,-175.0
2023-12-13 14:26:45.308744,-171.0
2023-12-13 14:26:45.316433,-163.0
2023-12-13 14:26:45.324123,-156.0
2023-12-13 14:26:45.331812,-149.0
2023-12-13 14:26:45.339501,-147.0
2023-12-13 14:26:45.347190,-144.0
2023-12-13 14:26:45.354879,-137.0
2023-12-13 14:26:45.362568,-130.0
2023-12-13 14:26:45.370258,-130.0
2023-12-13 14:26:45.377947,-130.0
2023-12-13 14:26:45.385636,-130.0
2023-12-13 14:26:45.393325,-128.0
2023-12-13 14:26:45.401014,-118.0
2023-12-13 14:26:45.408703,-114.0
2023-12-13 14:26:45.416393,-118.0
2023-12-13 14:26:45.424082,-121.0
2023-12-13 14:26:45.431771,-111.0
2023-12-13 14:26:45.439460,-99.0
2023-12-13 14:26:45.447149,-80.0
2023-12-13 14:26:45.454838,-61.0
2023-12-13 14:26:45.462528,-42.0
2023-12-13 14:26:45.470217,-38.0
2023-12-13 14:26:45.477906,-59.0
2023-12-13 14:26:45.485595,-80.0
2023-12-13 14:26:45.493284,-90.0
2023-12-13 14:26:45.500973,-97.0
2023-12-13 14:26:45.508663,-99.0
2023-12-13 14:26:45.516352,-92.0
2023-12-13 14:26:45.524041,-85.0
2023-12-13 14:26:45.531730,-78.0
2023-12-13 14:26:45.539419,-68.0
2023-12-13 14:26:45.547108,-33.0
2023-12-13 14:26:45.554798,168.0
2023-12-13 14:26:45.562487,629.0
2023-12-13 14:26:45.570176,974.0
2023-12-13 14:26:45.577865,584.0
2023-12-13 14:26:45.585554,-327.0
2023-12-13 14:26:45.593243,-731.0
2023-12-13 14:26:45.600933,-401.0
2023-12-13 14:26:45.608622,-116.0
2023-12-13 14:26:45.616311,-128.0
2023-12-13 14:26:45.624000,-104.0
2023-12-13 14:26:45.631689,-47.0
2023-12-13 14:26:45.639378,-59.0
2023-12-13 14:26:45.647068,-57.0
2023-12-13 14:26:45.654757,-42.0
2023-12-13 14:26:45.662446,-64.0
2023-12-13 14:26:45.670135,-68.0
2023-12-13 14:26:45.677824,-40.0
2023-12-13 14:26:45.685513,-28.0
2023-12-13 14:26:45.693203,-23.0
2023-12-13 14:26:45.700892,-11.0
2023-12-13 14:26:45.708581,-2.0
2023-12-13 14:26:45.716270,4.0
2023-12-13 14:26:45.723959,16.0
2023-12-13 14:26:45.731648,33.0
2023-12-13 14:26:45.739338,52.0
2023-12-13 14:26:45.747027,71.0
2023-12-13 14:26:45.754716,97.0
2023-12-13 14:26:45.762405,123.0
2023-12-13 14:26:45.770094,144.0
2023-12-13 14:26:45.777783,163.0
2023-12-13 14:26:45.785473,182.0
2023-12-13 14:26:45.793162,182.0
2023-12-13 14:26:45.800851,175.0
2023-12-13 14:26:45.808540,171.0
2023-12-13 14:26:45.816229,147.0
2023-12-13 14:26:45.823918,90.0
2023-12-13 14:26:45.831608,14.0
2023-12-13 14:26:45.839297,-68.0
2023-12-13 14:26:45.846986,-135.0
2023-12-13 14:26:45.854675,-178.0
2023-12-13 14:26:45.862364,-209.0
2023-12-13 14:26:45.870053,-230.0
2023-12-13 14:26:45.877743,-237.0
2023-12-13 14:26:45.885432,-244.0
2023-12-13 14:26:45.893121,-242.0
2023-12-13 14:26:45.900810,-232.0
2023-12-13 14:26:45.908499,-225.0
2023-12-13 14:26:45.916188,-220.0
2023-12-13 14:26:45.923878,-211.0
2023-12-13 14:26:45.931567,-206.0
2023-12-13 14:26:45.939256,-194.0
2023-12-13 14:26:45.946945,-185.0
2023-12-13 14:26:45.954634,-185.0
2023-12-13 14:26:45.962323,-175.0
2023-12-13 14:26:45.970013,-161.0
2023-12-13 14:26:45.977702,-156.0
2023-12-13 14:26:45.985391,-154.0
2023-12-13 14:26:45.993080,-156.0
2023-12-13 14:26:46.000769,-154.0
2023-12-13 14:26:46.008458,-144.0
2023-12-13 14:26:46.016148,-142.0
2023-12-13 14:26:46.023837,-137.0
2023-12-13 14:26:46.031526,-135.0
2023-12-13 14:26:46.039215,-137.0
2023-12-13 14:26:46.046904,-128.0
2023-12-13 14:26:46.054593,-116.0
2023-12-13 14:26:46.062283,-128.0
2023-12-13 14:26:46.069972,-135.0
2023-12-13 14:26:46.077661,-118.0
2023-12-13 14:26:46.085350,-106.0
2023-12-13 14:26:46.093039,-97.0
2023-12-13 14:26:46.100728,-80.0
2023-12-13 14:26:46.108418,-71.0
2023-12-13 14:26:46.116107,-68.0
2023-12-13 14:26:46.123796,-73.0
2023-12-13 14:26:46.131485,-85.0
2023-12-13 14:26:46.139174,-99.0
2023-12-13 14:26:46.146863,-104.0
2023-12-13 14:26:46.154553,-104.0
2023-12-13 14:26:46.162242,-102.0
2023-12-13 14:26:46.169931,-92.0
2023-12-13 14:26:46.177620,-76.0
2023-12-13 14:26:46.185309,-71.0
2023-12-13 14:26:46.192998,-57.0
2023-12-13 14:26:46.200688,71.0
2023-12-13 14:26:46.208377,465.0
2023-12-13 14:26:46.216066,898.0
2023-12-13 14:26:46.223755,689.0
2023-12-13 14:26:46.231444,-225.0
2023-12-13 14:26:46.239133,-819.0
2023-12-13 14:26:46.246823,-546.0
2023-12-13 14:26:46.254512,-168.0
2023-12-13 14:26:46.262201,-152.0
2023-12-13 14:26:46.269890,-144.0
2023-12-13 14:26:46.277579,-76.0
2023-12-13 14:26:46.285268,-92.0
2023-12-13 14:26:46.292958,-104.0
2023-12-13 14:26:46.300647,-73.0
2023-12-13 14:26:46.308336,-61.0
2023-12-13 14:26:46.316025,-61.0
2023-12-13 14:26:46.323714,-42.0
2023-12-13 14:26:46.331403,-33.0
2023-12-13 14:26:46.339093,-28.0
2023-12-13 14:26:46.346782,-14.0
2023-12-13 14:26:46.354471,2.0
2023-12-13 14:26:46.362160,16.0
2023-12-13 14:26:46.369849,33.0
2023-12-13 14:26:46.377538,45.0
2023-12-13 14:26:46.385228,59.0
2023-12-13 14:26:46.392917,85.0
2023-12-13 14:26:46.400606,118.0
2023-12-13 14:26:46.408295,152.0
2023-12-13 14:26:46.415984,182.0
2023-12-13 14:26:46.423673,206.0
2023-12-13 14:26:46.431363,220.0
2023-12-13 14:26:46.439052,225.0
2023-12-13 14:26:46.446741,218.0
2023-12-13 14:26:46.454430,204.0
2023-12-13 14:26:46.462119,175.0
2023-12-13 14:26:46.469808,116.0
2023-12-13 14:26:46.477498,28.0
2023-12-13 14:26:46.485187,-59.0
2023-12-13 14:26:46.492876,-123.0
2023-12-13 14:26:46.500565,-166.0
2023-12-13 14:26:46.508254,-199.0
2023-12-13 14:26:46.515943,-218.0
2023-12-13 14:26:46.523633,-223.0
2023-12-13 14:26:46.531322,-223.0
2023-12-13 14:26:46.539011,-218.0
2023-12-13 14:26:46.546700,-211.0
2023-12-13 14:26:46.554389,-206.0
2023-12-13 14:26:46.562078,-204.0
2023-12-13 14:26:46.569768,-199.0
2023-12-13 14:26:46.577457,-190.0
2023-12-13 14:26:46.585146,-180.0
2023-12-13 14:26:46.592835,-171.0
2023-12-13 14:26:46.600524,-168.0
2023-12-13 14:26:46.608213,-161.0
2023-12-13 14:26:46.615903,-152.0
2023-12-13 14:26:46.623592,-144.0
2023-12-13 14:26:46.631281,-135.0
2023-12-13 14:26:46.638970,-123.0
2023-12-13 14:26:46.646659,-118.0
2023-12-13 14:26:46.654348,-118.0
2023-12-13 14:26:46.662038,-114.0
2023-12-13 14:26:46.669727,-109.0
2023-12-13 14:26:46.677416,-106.0
2023-12-13 14:26:46.685105,-104.0
2023-12-13 14:26:46.692794,-99.0
2023-12-13 14:26:46.700483,-102.0
2023-12-13 14:26:46.708173,-106.0
2023-12-13 14:26:46.715862,-109.0
2023-12-13 14:26:46.723551,-106.0
2023-12-13 14:26:46.731240,-102.0
2023-12-13 14:26:46.738929,-90.0
2023-12-13 14:26:46.746619,-71.0
2023-12-13 14:26:46.754308,-57.0
2023-12-13 14:26:46.761997,-54.0
2023-12-13 14:26:46.769686,-64.0
2023-12-13 14:26:46.777375,-78.0
2023-12-13 14:26:46.785064,-102.0
2023-12-13 14:26:46.792754,-114.0
2023-12-13 14:26:46.800443,-106.0
2023-12-13 14:26:46.808132,-97.0
2023-12-13 14:26:46.815821,-92.0
2023-12-13 14:26:46.823510,-90.0
2023-12-13 14:26:46.831199,-102.0
2023-12-13 14:26:46.838889,-83.0
2023-12-13 14:26:46.846578,99.0
2023-12-13 14:26:46.854267,532.0
2023-12-13 14:26:46.861956,933.0
2023-12-13 14:26:46.869645,705.0
2023-12-13 14:26:46.877334,-156.0
2023-12-13 14:26:46.885024,-722.0
2023-12-13 14:26:46.892713,-496.0
2023-12-13 14:26:46.900402,-147.0
2023-12-13 14:26:46.908091,-121.0
2023-12-13 14:26:46.915780,-137.0
2023-12-13 14:26:46.923469,-80.0
2023-12-13 14:26:46.931159,-76.0
2023-12-13 14:26:46.938848,-80.0
2023-12-13 14:26:46.946537,-57.0
2023-12-13 14:26:46.954226,-47.0
2023-12-13 14:26:46.961915,-49.0
2023-12-13 14:26:46.969604,-40.0
2023-12-13 14:26:46.977294,-33.0
2023-12-13 14:26:46.984983,-30.0
2023-12-13 14:26:46.992672,-19.0
2023-12-13 14:26:47.000361,-2.0
2023-12-13 14:26:47.008050,4.0
2023-12-13 14:26:47.015739,14.0
2023-12-13 14:26:47.023429,33.0
2023-12-13 14:26:47.031118,57.0
2023-12-13 14:26:47.038807,76.0
2023-12-13 14:26:47.046496,104.0
2023-12-13 14:26:47.054185,133.0
2023-12-13 14:26:47.061874,156.0
2023-12-13 14:26:47.069564,180.0
2023-12-13 14:26:47.077253,201.0
2023-12-13 14:26:47.084942,204.0
2023-12-13 14:26:47.092631,192.0
2023-12-13 14:26:47.100320,180.0
2023-12-13 14:26:47.108009,156.0
2023-12-13 14:26:47.115699,106.0
2023-12-13 14:26:47.123388,33.0
2023-12-13 14:26:47.131077,-45.0
2023-12-13 14:26:47.138766,-109.0
2023-12-13 14:26:47.146455,-161.0
2023-12-13 14:26:47.154144,-194.0
2023-12-13 14:26:47.161834,-206.0
2023-12-13 14:26:47.169523,-216.0
2023-12-13 14:26:47.177212,-220.0
2023-12-13 14:26:47.184901,-218.0
2023-12-13 14:26:47.192590,-213.0
2023-12-13 14:26:47.200279,-204.0
2023-12-13 14:26:47.207969,-194.0
2023-12-13 14:26:47.215658,-192.0
2023-12-13 14:26:47.223347,-194.0
2023-12-13 14:26:47.231036,-192.0
2023-12-13 14:26:47.238725,-182.0
2023-12-13 14:26:47.246414,-173.0
2023-12-13 14:26:47.254104,-163.0
2023-12-13 14:26:47.261793,-156.0
2023-12-13 14:26:47.269482,-154.0
2023-12-13 14:26:47.277171,-149.0
2023-12-13 14:26:47.284860,-149.0
2023-12-13 14:26:47.292549,-156.0
2023-12-13 14:26:47.300239,-154.0
2023-12-13 14:26:47.307928,-144.0
2023-12-13 14:26:47.315617,-147.0
2023-12-13 14:26:47.323306,-161.0
2023-12-13 14:26:47.330995,-168.0
2023-12-13 14:26:47.338684,-156.0
2023-12-13 14:26:47.346374,-147.0
2023-12-13 14:26:47.354063,-152.0
2023-12-13 14:26:47.361752,-156.0
2023-12-13 14:26:47.369441,-152.0
2023-12-13 14:26:47.377130,-140.0
2023-12-13 14:26:47.384819,-121.0
2023-12-13 14:26:47.392509,-99.0
2023-12-13 14:26:47.400198,-83.0
2023-12-13 14:26:47.407887,-71.0
2023-12-13 14:26:47.415576,-73.0
2023-12-13 14:26:47.423265,-90.0
2023-12-13 14:26:47.430954,-102.0
2023-12-13 14:26:47.438644,-104.0
2023-12-13 14:26:47.446333,-104.0
2023-12-13 14:26:47.454022,-99.0
2023-12-13 14:26:47.461711,-92.0
2023-12-13 14:26:47.469400,-90.0
2023-12-13 14:26:47.477089,-85.0
2023-12-13 14:26:47.484779,-71.0
2023-12-13 14:26:47.492468,0.0
2023-12-13 14:26:47.500157,282.0
2023-12-13 14:26:47.507846,769.0
2023-12-13 14:26:47.515535,955.0
2023-12-13 14:26:47.523224,363.0
2023-12-13 14:26:47.530914,-499.0
2023-12-13 14:26:47.538603,-670.0
2023-12-13 14:26:47.546292,-275.0
2023-12-13 14:26:47.553981,-92.0
2023-12-13 14:26:47.561670,-128.0
2023-12-13 14:26:47.569359,-85.0
2023-12-13 14:26:47.577049,-49.0
2023-12-13 14:26:47.584738,-71.0
2023-12-13 14:26:47.592427,-68.0
2023-12-13 14:26:47.600116,-47.0
2023-12-13 14:26:47.607805,-40.0
2023-12-13 14:26:47.615494,-33.0
2023-12-13 14:26:47.623184,-21.0
2023-12-13 14:26:47.630873,-14.0
2023-12-13 14:26:47.638562,-11.0
2023-12-13 14:26:47.646251,-4.0
2023-12-13 14:26:47.653940,4.0
2023-12-13 14:26:47.661629,19.0
2023-12-13 14:26:47.669319,38.0
2023-12-13 14:26:47.677008,57.0
2023-12-13 14:26:47.684697,76.0
2023-12-13 14:26:47.692386,97.0
2023-12-13 14:26:47.700075,121.0
2023-12-13 14:26:47.707764,147.0
2023-12-13 14:26:47.715454,168.0
2023-12-13 14:26:47.723143,182.0
2023-12-13 14:26:47.730832,190.0
2023-12-13 14:26:47.738521,197.0
2023-12-13 14:26:47.746210,197.0
2023-12-13 14:26:47.753899,182.0
2023-12-13 14:26:47.761589,147.0
2023-12-13 14:26:47.769278,85.0
2023-12-13 14:26:47.776967,0.0
2023-12-13 14:26:47.784656,-76.0
2023-12-13 14:26:47.792345,-135.0
2023-12-13 14:26:47.800034,-190.0
2023-12-13 14:26:47.807724,-225.0
2023-12-13 14:26:47.815413,-235.0
2023-12-13 14:26:47.823102,-240.0
2023-12-13 14:26:47.830791,-240.0
2023-12-13 14:26:47.838480,-230.0
2023-12-13 14:26:47.846169,-223.0
2023-12-13 14:26:47.853859,-218.0
2023-12-13 14:26:47.861548,-211.0
2023-12-13 14:26:47.869237,-206.0
2023-12-13 14:26:47.876926,-199.0
2023-12-13 14:26:47.884615,-187.0
2023-12-13 14:26:47.892304,-178.0
2023-12-13 14:26:47.899994,-173.0
2023-12-13 14:26:47.907683,-180.0
2023-12-13 14:26:47.915372,-192.0
2023-12-13 14:26:47.923061,-182.0
2023-12-13 14:26:47.930750,-166.0
2023-12-13 14:26:47.938439,-159.0
2023-12-13 14:26:47.946129,-152.0
2023-12-13 14:26:47.953818,-147.0
2023-12-13 14:26:47.961507,-152.0
2023-12-13 14:26:47.969196,-154.0
2023-12-13 14:26:47.976885,-144.0
2023-12-13 14:26:47.984574,-137.0
2023-12-13 14:26:47.992264,-133.0
2023-12-13 14:26:47.999953,-133.0
2023-12-13 14:26:48.007642,-135.0
2023-12-13 14:26:48.015331,-137.0
2023-12-13 14:26:48.023020,-130.0
2023-12-13 14:26:48.030709,-118.0
2023-12-13 14:26:48.038399,-104.0
2023-12-13 14:26:48.046088,-90.0
2023-12-13 14:26:48.053777,-78.0
2023-12-13 14:26:48.061466,-57.0
2023-12-13 14:26:48.069155,-47.0
2023-12-13 14:26:48.076844,-68.0
2023-12-13 14:26:48.084534,-97.0
2023-12-13 14:26:48.092223,-106.0
2023-12-13 14:26:48.099912,-106.0
2023-12-13 14:26:48.107601,-99.0
2023-12-13 14:26:48.115290,-90.0
2023-12-13 14:26:48.122979,-85.0
2023-12-13 14:26:48.130669,-78.0
2023-12-13 14:26:48.138358,-71.0
2023-12-13 14:26:48.146047,-38.0
2023-12-13 14:26:48.153736,171.0
2023-12-13 14:26:48.161425,639.0
2023-12-13 14:26:48.169114,976.0
2023-12-13 14:26:48.176804,589.0
2023-12-13 14:26:48.184493,-313.0
2023-12-13 14:26:48.192182,-715.0
2023-12-13 14:26:48.199871,-387.0
2023-12-13 14:26:48.207560,-109.0
2023-12-13 14:26:48.215249,-128.0
2023-12-13 14:26:48.222939,-114.0
2023-12-13 14:26:48.230628,-61.0
2023-12-13 14:26:48.238317,-73.0
2023-12-13 14:26:48.246006,-71.0
2023-12-13 14:26:48.253695,-45.0
2023-12-13 14:26:48.261384,-42.0
2023-12-13 14:26:48.269074,-42.0
2023-12-13 14:26:48.276763,-26.0
2023-12-13 14:26:48.284452,-19.0
2023-12-13 14:26:48.292141,-19.0
2023-12-13 14:26:48.299830,-21.0
2023-12-13 14:26:48.307519,-14.0
2023-12-13 14:26:48.315209,0.0
2023-12-13 14:26:48.322898,11.0
2023-12-13 14:26:48.330587,26.0
2023-12-13 14:26:48.338276,52.0
2023-12-13 14:26:48.345965,78.0
2023-12-13 14:26:48.353654,97.0
2023-12-13 14:26:48.361344,121.0
2023-12-13 14:26:48.369033,147.0
2023-12-13 14:26:48.376722,168.0
2023-12-13 14:26:48.384411,187.0
2023-12-13 14:26:48.392100,206.0
2023-12-13 14:26:48.399789,204.0
2023-12-13 14:26:48.407479,182.0
2023-12-13 14:26:48.415168,152.0
2023-12-13 14:26:48.422857,97.0
2023-12-13 14:26:48.430546,26.0
2023-12-13 14:26:48.438235,-47.0
2023-12-13 14:26:48.445924,-116.0
2023-12-13 14:26:48.453614,-173.0
2023-12-13 14:26:48.461303,-209.0
2023-12-13 14:26:48.468992,-223.0
2023-12-13 14:26:48.476681,-228.0
2023-12-13 14:26:48.484370,-232.0
2023-12-13 14:26:48.492059,-237.0
2023-12-13 14:26:48.499749,-247.0
2023-12-13 14:26:48.507438,-244.0
2023-12-13 14:26:48.515127,-235.0
2023-12-13 14:26:48.522816,-228.0
2023-12-13 14:26:48.530505,-218.0
2023-12-13 14:26:48.538194,-209.0
2023-12-13 14:26:48.545884,-201.0
2023-12-13 14:26:48.553573,-197.0
2023-12-13 14:26:48.561262,-190.0
2023-12-13 14:26:48.568951,-180.0
2023-12-13 14:26:48.576640,-175.0
2023-12-13 14:26:48.584329,-173.0
2023-12-13 14:26:48.592019,-163.0
2023-12-13 14:26:48.599708,-156.0
2023-12-13 14:26:48.607397,-154.0
2023-12-13 14:26:48.615086,-152.0
2023-12-13 14:26:48.622775,-142.0
2023-12-13 14:26:48.630464,-135.0
2023-12-13 14:26:48.638154,-135.0
2023-12-13 14:26:48.645843,-140.0
2023-12-13 14:26:48.653532,-144.0
2023-12-13 14:26:48.661221,-140.0
2023-12-13 14:26:48.668910,-123.0
2023-12-13 14:26:48.676599,-109.0
2023-12-13 14:26:48.684289,-90.0
2023-12-13 14:26:48.691978,-73.0
2023-12-13 14:26:48.699667,-76.0
2023-12-13 14:26:48.707356,-90.0
2023-12-13 14:26:48.715045,-104.0
2023-12-13 14:26:48.722734,-114.0
2023-12-13 14:26:48.730424,-118.0
2023-12-13 14:26:48.738113,-114.0
2023-12-13 14:26:48.745802,-109.0
2023-12-13 14:26:48.753491,-104.0
2023-12-13 14:26:48.761180,-99.0
2023-12-13 14:26:48.768869,-92.0
2023-12-13 14:26:48.776559,-78.0
2023-12-13 14:26:48.784248,2.0
2023-12-13 14:26:48.791937,308.0
2023-12-13 14:26:48.799626,793.0
2023-12-13 14:26:48.807315,857.0
2023-12-13 14:26:48.815004,106.0
2023-12-13 14:26:48.822694,-698.0
2023-12-13 14:26:48.830383,-674.0
2023-12-13 14:26:48.838072,-237.0
2023-12-13 14:26:48.845761,-125.0
2023-12-13 14:26:48.853450,-152.0
2023-12-13 14:26:48.861139,-80.0
2023-12-13 14:26:48.868829,-57.0
2023-12-13 14:26:48.876518,-78.0
2023-12-13 14:26:48.884207,-54.0
2023-12-13 14:26:48.891896,-40.0
2023-12-13 14:26:48.899585,-47.0
2023-12-13 14:26:48.907274,-38.0
2023-12-13 14:26:48.914964,-21.0
2023-12-13 14:26:48.922653,-16.0
2023-12-13 14:26:48.930342,-4.0
2023-12-13 14:26:48.938031,9.0
2023-12-13 14:26:48.945720,16.0
2023-12-13 14:26:48.953410,21.0
2023-12-13 14:26:48.961099,40.0
2023-12-13 14:26:48.968788,61.0
2023-12-13 14:26:48.976477,80.0
2023-12-13 14:26:48.984166,99.0
2023-12-13 14:26:48.991855,116.0
2023-12-13 14:26:48.999545,135.0
2023-12-13 14:26:49.007234,163.0
2023-12-13 14:26:49.014923,182.0
2023-12-13 14:26:49.022612,182.0
2023-12-13 14:26:49.030301,178.0
2023-12-13 14:26:49.037990,175.0
2023-12-13 14:26:49.045680,159.0
2023-12-13 14:26:49.053369,111.0
2023-12-13 14:26:49.061058,38.0
2023-12-13 14:26:49.068747,-45.0
2023-12-13 14:26:49.076436,-123.0
2023-12-13 14:26:49.084125,-178.0
2023-12-13 14:26:49.091815,-209.0
2023-12-13 14:26:49.099504,-223.0
2023-12-13 14:26:49.107193,-232.0
2023-12-13 14:26:49.114882,-242.0
2023-12-13 14:26:49.122571,-240.0
2023-12-13 14:26:49.130260,-230.0
2023-12-13 14:26:49.137950,-223.0
2023-12-13 14:26:49.145639,-218.0
2023-12-13 14:26:49.153328,-213.0
2023-12-13 14:26:49.161017,-206.0
2023-12-13 14:26:49.168706,-201.0
2023-12-13 14:26:49.176395,-199.0
2023-12-13 14:26:49.184085,-190.0
2023-12-13 14:26:49.191774,-180.0
2023-12-13 14:26:49.199463,-178.0
2023-12-13 14:26:49.207152,-173.0
2023-12-13 14:26:49.214841,-166.0
2023-12-13 14:26:49.222530,-161.0
2023-12-13 14:26:49.230220,-147.0
2023-12-13 14:26:49.237909,-135.0
2023-12-13 14:26:49.245598,-137.0
2023-12-13 14:26:49.253287,-135.0
2023-12-13 14:26:49.260976,-128.0
2023-12-13 14:26:49.268665,-125.0
2023-12-13 14:26:49.276355,-128.0
2023-12-13 14:26:49.284044,-130.0
2023-12-13 14:26:49.291733,-123.0
2023-12-13 14:26:49.299422,-114.0
2023-12-13 14:26:49.307111,-106.0
2023-12-13 14:26:49.314800,-99.0
2023-12-13 14:26:49.322490,-83.0
2023-12-13 14:26:49.330179,-66.0
2023-12-13 14:26:49.337868,-71.0
2023-12-13 14:26:49.345557,-92.0
2023-12-13 14:26:49.353246,-111.0
2023-12-13 14:26:49.360935,-111.0
2023-12-13 14:26:49.368625,-106.0
2023-12-13 14:26:49.376314,-99.0
2023-12-13 14:26:49.384003,-92.0
2023-12-13 14:26:49.391692,-85.0
2023-12-13 14:26:49.399381,-78.0
2023-12-13 14:26:49.407070,-57.0
2023-12-13 14:26:49.414760,66.0
2023-12-13 14:26:49.422449,434.0
2023-12-13 14:26:49.430138,895.0
2023-12-13 14:26:49.437827,834.0
2023-12-13 14:26:49.445516,35.0
2023-12-13 14:26:49.453205,-670.0
2023-12-13 14:26:49.460895,-560.0
2023-12-13 14:26:49.468584,-156.0
2023-12-13 14:26:49.476273,-90.0
2023-12-13 14:26:49.483962,-128.0
2023-12-13 14:26:49.491651,-66.0
2023-12-13 14:26:49.499340,-49.0
2023-12-13 14:26:49.507030,-66.0
2023-12-13 14:26:49.514719,-42.0
2023-12-13 14:26:49.522408,-30.0
2023-12-13 14:26:49.530097,-57.0
2023-12-13 14:26:49.537786,-61.0
2023-12-13 14:26:49.545475,-38.0
2023-12-13 14:26:49.553165,-23.0
2023-12-13 14:26:49.560854,-19.0
2023-12-13 14:26:49.568543,-11.0
2023-12-13 14:26:49.576232,-2.0
2023-12-13 14:26:49.583921,11.0
2023-12-13 14:26:49.591610,35.0
2023-12-13 14:26:49.599300,59.0
2023-12-13 14:26:49.606989,83.0
2023-12-13 14:26:49.614678,109.0
2023-12-13 14:26:49.622367,130.0
2023-12-13 14:26:49.630056,154.0
2023-12-13 14:26:49.637745,182.0
2023-12-13 14:26:49.645435,206.0
2023-12-13 14:26:49.653124,213.0
2023-12-13 14:26:49.660813,211.0
2023-12-13 14:26:49.668502,201.0
2023-12-13 14:26:49.676191,173.0
2023-12-13 14:26:49.683880,116.0
2023-12-13 14:26:49.691570,35.0
2023-12-13 14:26:49.699259,-42.0
2023-12-13 14:26:49.706948,-114.0
2023-12-13 14:26:49.714637,-171.0
2023-12-13 14:26:49.722326,-204.0
2023-12-13 14:26:49.730015,-216.0
2023-12-13 14:26:49.737705,-223.0
2023-12-13 14:26:49.745394,-225.0
2023-12-13 14:26:49.753083,-225.0
2023-12-13 14:26:49.760772,-225.0
2023-12-13 14:26:49.768461,-216.0
2023-12-13 14:26:49.776150,-209.0
2023-12-13 14:26:49.783840,-199.0
2023-12-13 14:26:49.791529,-190.0
2023-12-13 14:26:49.799218,-187.0
2023-12-13 14:26:49.806907,-187.0
2023-12-13 14:26:49.814596,-190.0
2023-12-13 14:26:49.822285,-187.0
2023-12-13 14:26:49.829975,-175.0
2023-12-13 14:26:49.837664,-166.0
2023-12-13 14:26:49.845353,-166.0
2023-12-13 14:26:49.853042,-163.0
2023-12-13 14:26:49.860731,-154.0
2023-12-13 14:26:49.868420,-147.0
2023-12-13 14:26:49.876110,-142.0
2023-12-13 14:26:49.883799,-137.0
2023-12-13 14:26:49.891488,-135.0
2023-12-13 14:26:49.899177,-135.0
2023-12-13 14:26:49.906866,-137.0
2023-12-13 14:26:49.914555,-137.0
2023-12-13 14:26:49.922245,-128.0
2023-12-13 14:26:49.929934,-118.0
2023-12-13 14:26:49.937623,-106.0
2023-12-13 14:26:49.945312,-90.0
2023-12-13 14:26:49.953001,-73.0
2023-12-13 14:26:49.960690,-61.0
2023-12-13 14:26:49.968380,-68.0
2023-12-13 14:26:49.976069,-90.0
2023-12-13 14:26:49.983758,-104.0
2023-12-13 14:26:49.991447,-106.0
2023-12-13 14:26:49.999136,-102.0
2023-12-13 14:26:50.006825,-92.0
2023-12-13 14:26:50.014515,-85.0
2023-12-13 14:26:50.022204,-80.0
2023-12-13 14:26:50.029893,-76.0
2023-12-13 14:26:50.037582,-52.0
2023-12-13 14:26:50.045271,90.0
2023-12-13 14:26:50.052960,484.0
2023-12-13 14:26:50.060650,922.0
2023-12-13 14:26:50.068339,796.0
2023-12-13 14:26:50.076028,-21.0
2023-12-13 14:26:50.083717,-672.0
2023-12-13 14:26:50.091406,-525.0
2023-12-13 14:26:50.099095,-142.0
2023-12-13 14:26:50.106785,-92.0
2023-12-13 14:26:50.114474,-128.0
2023-12-13 14:26:50.122163,-73.0
2023-12-13 14:26:50.129852,-59.0
2023-12-13 14:26:50.137541,-73.0
2023-12-13 14:26:50.145230,-52.0
2023-12-13 14:26:50.152920,-40.0
2023-12-13 14:26:50.160609,-61.0
2023-12-13 14:26:50.168298,-66.0
2023-12-13 14:26:50.175987,-54.0
2023-12-13 14:26:50.183676,-47.0
2023-12-13 14:26:50.191365,-38.0
2023-12-13 14:26:50.199055,-21.0
2023-12-13 14:26:50.206744,-9.0
2023-12-13 14:26:50.214433,4.0
2023-12-13 14:26:50.222122,26.0
2023-12-13 14:26:50.229811,47.0
2023-12-13 14:26:50.237500,73.0
2023-12-13 14:26:50.245190,102.0
2023-12-13 14:26:50.252879,130.0
2023-12-13 14:26:50.260568,159.0
2023-12-13 14:26:50.268257,187.0
2023-12-13 14:26:50.275946,201.0
2023-12-13 14:26:50.283635,209.0
2023-12-13 14:26:50.291325,211.0
2023-12-13 14:26:50.299014,201.0
2023-12-13 14:26:50.306703,175.0
2023-12-13 14:26:50.314392,118.0
2023-12-13 14:26:50.322081,30.0
2023-12-13 14:26:50.329770,-54.0
2023-12-13 14:26:50.337460,-118.0
2023-12-13 14:26:50.345149,-173.0
2023-12-13 14:26:50.352838,-213.0
2023-12-13 14:26:50.360527,-230.0
2023-12-13 14:26:50.368216,-235.0
2023-12-13 14:26:50.375905,-235.0
2023-12-13 14:26:50.383595,-237.0
2023-12-13 14:26:50.391284,-232.0
2023-12-13 14:26:50.398973,-225.0
2023-12-13 14:26:50.406662,-218.0
2023-12-13 14:26:50.414351,-211.0
2023-12-13 14:26:50.422040,-211.0
2023-12-13 14:26:50.429730,-211.0
2023-12-13 14:26:50.437419,-199.0
2023-12-13 14:26:50.445108,-190.0
2023-12-13 14:26:50.452797,-187.0
2023-12-13 14:26:50.460486,-182.0
2023-12-13 14:26:50.468175,-171.0
2023-12-13 14:26:50.475865,-166.0
2023-12-13 14:26:50.483554,-161.0
2023-12-13 14:26:50.491243,-154.0
2023-12-13 14:26:50.498932,-152.0
2023-12-13 14:26:50.506621,-144.0
2023-12-13 14:26:50.514310,-137.0
2023-12-13 14:26:50.522000,-135.0
2023-12-13 14:26:50.529689,-135.0
2023-12-13 14:26:50.537378,-140.0
2023-12-13 14:26:50.545067,-140.0
2023-12-13 14:26:50.552756,-130.0
2023-12-13 14:26:50.560445,-118.0
2023-12-13 14:26:50.568135,-102.0
2023-12-13 14:26:50.575824,-83.0
2023-12-13 14:26:50.583513,-71.0
2023-12-13 14:26:50.591202,-66.0
2023-12-13 14:26:50.598891,-76.0
2023-12-13 14:26:50.606580,-95.0
2023-12-13 14:26:50.614270,-109.0
2023-12-13 14:26:50.621959,-106.0
2023-12-13 14:26:50.629648,-102.0
2023-12-13 14:26:50.637337,-97.0
2023-12-13 14:26:50.645026,-87.0
2023-12-13 14:26:50.652715,-80.0
2023-12-13 14:26:50.660405,-73.0
2023-12-13 14:26:50.668094,-52.0
2023-12-13 14:26:50.675783,111.0
2023-12-13 14:26:50.683472,537.0
2023-12-13 14:26:50.691161,936.0
2023-12-13 14:26:50.698850,674.0
2023-12-13 14:26:50.706540,-216.0
2023-12-13 14:26:50.714229,-746.0
2023-12-13 14:26:50.721918,-482.0
2023-12-13 14:26:50.729607,-144.0
2023-12-13 14:26:50.737296,-137.0
2023-12-13 14:26:50.744985,-144.0
2023-12-13 14:26:50.752675,-85.0
2023-12-13 14:26:50.760364,-83.0
2023-12-13 14:26:50.768053,-90.0
2023-12-13 14:26:50.775742,-66.0
2023-12-13 14:26:50.783431,-57.0
2023-12-13 14:26:50.791120,-54.0
2023-12-13 14:26:50.798810,-42.0
2023-12-13 14:26:50.806499,-30.0
2023-12-13 14:26:50.814188,-23.0
2023-12-13 14:26:50.821877,-21.0
2023-12-13 14:26:50.829566,-21.0
2023-12-13 14:26:50.837255,-7.0
2023-12-13 14:26:50.844945,16.0
2023-12-13 14:26:50.852634,38.0
2023-12-13 14:26:50.860323,57.0
2023-12-13 14:26:50.868012,83.0
2023-12-13 14:26:50.875701,111.0
2023-12-13 14:26:50.883390,140.0
2023-12-13 14:26:50.891080,175.0
2023-12-13 14:26:50.898769,204.0
2023-12-13 14:26:50.906458,223.0
2023-12-13 14:26:50.914147,223.0
2023-12-13 14:26:50.921836,206.0
2023-12-13 14:26:50.929525,190.0
2023-12-13 14:26:50.937215,166.0
2023-12-13 14:26:50.944904,114.0
2023-12-13 14:26:50.952593,38.0
2023-12-13 14:26:50.960282,-38.0
2023-12-13 14:26:50.967971,-104.0
2023-12-13 14:26:50.975660,-159.0
2023-12-13 14:26:50.983350,-190.0
2023-12-13 14:26:50.991039,-209.0
2023-12-13 14:26:50.998728,-220.0
2023-12-13 14:26:51.006417,-225.0
2023-12-13 14:26:51.014106,-225.0
2023-12-13 14:26:51.021795,-220.0
2023-12-13 14:26:51.029485,-213.0
2023-12-13 14:26:51.037174,-206.0
2023-12-13 14:26:51.044863,-204.0
2023-12-13 14:26:51.052552,-204.0
2023-12-13 14:26:51.060241,-199.0
2023-12-13 14:26:51.067930,-190.0
2023-12-13 14:26:51.075620,-180.0
2023-12-13 14:26:51.083309,-175.0
2023-12-13 14:26:51.090998,-168.0
2023-12-13 14:26:51.098687,-163.0
2023-12-13 14:26:51.106376,-159.0
2023-12-13 14:26:51.114065,-152.0
2023-12-13 14:26:51.121755,-142.0
2023-12-13 14:26:51.129444,-137.0
2023-12-13 14:26:51.137133,-137.0
2023-12-13 14:26:51.144822,-135.0
2023-12-13 14:26:51.152511,-130.0
2023-12-13 14:26:51.160201,-137.0
2023-12-13 14:26:51.167890,-147.0
2023-12-13 14:26:51.175579,-142.0
2023-12-13 14:26:51.183268,-128.0
2023-12-13 14:26:51.190957,-116.0
2023-12-13 14:26:51.198646,-102.0
2023-12-13 14:26:51.206336,-85.0
2023-12-13 14:26:51.214025,-71.0
2023-12-13 14:26:51.221714,-68.0
2023-12-13 14:26:51.229403,-83.0
2023-12-13 14:26:51.237092,-121.0
2023-12-13 14:26:51.244781,-144.0
2023-12-13 14:26:51.252471,-137.0
2023-12-13 14:26:51.260160,-125.0
2023-12-13 14:26:51.267849,-123.0
2023-12-13 14:26:51.275538,-116.0
2023-12-13 14:26:51.283227,-104.0
2023-12-13 14:26:51.290916,-99.0
2023-12-13 14:26:51.298606,-61.0
2023-12-13 14:26:51.306295,156.0
2023-12-13 14:26:51.313984,624.0
2023-12-13 14:26:51.321673,941.0
2023-12-13 14:26:51.329362,508.0
2023-12-13 14:26:51.337051,-403.0
2023-12-13 14:26:51.344741,-755.0
2023-12-13 14:26:51.352430,-392.0
2023-12-13 14:26:51.360119,-118.0
2023-12-13 14:26:51.367808,-144.0
2023-12-13 14:26:51.375497,-128.0
2023-12-13 14:26:51.383186,-73.0
2023-12-13 14:26:51.390876,-80.0
2023-12-13 14:26:51.398565,-80.0
2023-12-13 14:26:51.406254,-64.0
2023-12-13 14:26:51.413943,-66.0
2023-12-13 14:26:51.421632,-66.0
2023-12-13 14:26:51.429321,-49.0
2023-12-13 14:26:51.437011,-38.0
2023-12-13 14:26:51.444700,-28.0
2023-12-13 14:26:51.452389,-11.0
2023-12-13 14:26:51.460078,4.0
2023-12-13 14:26:51.467767,14.0
2023-12-13 14:26:51.475456,28.0
2023-12-13 14:26:51.483146,52.0
2023-12-13 14:26:51.490835,73.0
2023-12-13 14:26:51.498524,106.0
2023-12-13 14:26:51.506213,133.0
2023-12-13 14:26:51.513902,156.0
2023-12-13 14:26:51.521591,190.0
2023-12-13 14:26:51.529281,223.0
2023-12-13 14:26:51.536970,237.0
2023-12-13 14:26:51.544659,240.0
2023-12-13 14:26:51.552348,232.0
2023-12-13 14:26:51.560037,206.0
2023-12-13 14:26:51.567726,171.0
2023-12-13 14:26:51.575416,111.0
2023-12-13 14:26:51.583105,33.0
2023-12-13 14:26:51.590794,-45.0
2023-12-13 14:26:51.598483,-109.0
2023-12-13 14:26:51.606172,-154.0
2023-12-13 14:26:51.613861,-178.0
2023-12-13 14:26:51.621551,-197.0
2023-12-13 14:26:51.629240,-206.0
2023-12-13 14:26:51.636929,-213.0
2023-12-13 14:26:51.644618,-220.0
2023-12-13 14:26:51.652307,-228.0
2023-12-13 14:26:51.659996,-228.0
2023-12-13 14:26:51.667686,-220.0
2023-12-13 14:26:51.675375,-211.0
2023-12-13 14:26:51.683064,-206.0
2023-12-13 14:26:51.690753,-201.0
2023-12-13 14:26:51.698442,-201.0
2023-12-13 14:26:51.706131,-192.0
2023-12-13 14:26:51.713821,-173.0
2023-12-13 14:26:51.721510,-168.0
2023-12-13 14:26:51.729199,-171.0
2023-12-13 14:26:51.736888,-163.0
2023-12-13 14:26:51.744577,-161.0
2023-12-13 14:26:51.752266,-159.0
2023-12-13 14:26:51.759956,-149.0
2023-12-13 14:26:51.767645,-137.0
2023-12-13 14:26:51.775334,-142.0
2023-12-13 14:26:51.783023,-156.0
2023-12-13 14:26:51.790712,-154.0
2023-12-13 14:26:51.798401,-140.0
2023-12-13 14:26:51.806091,-125.0
2023-12-13 14:26:51.813780,-109.0
2023-12-13 14:26:51.821469,-95.0
2023-12-13 14:26:51.829158,-90.0
2023-12-13 14:26:51.836847,-95.0
2023-12-13 14:26:51.844536,-104.0
2023-12-13 14:26:51.852226,-118.0
2023-12-13 14:26:51.859915,-133.0
2023-12-13 14:26:51.867604,-149.0
2023-12-13 14:26:51.875293,-161.0
2023-12-13 14:26:51.882982,-154.0
2023-12-13 14:26:51.890671,-142.0
2023-12-13 14:26:51.898361,-135.0
2023-12-13 14:26:51.906050,-133.0
2023-12-13 14:26:51.913739,-111.0
2023-12-13 14:26:51.921428,35.0
2023-12-13 14:26:51.929117,453.0
2023-12-13 14:26:51.936806,874.0
2023-12-13 14:26:51.944496,622.0
2023-12-13 14:26:51.952185,-292.0
2023-12-13 14:26:51.959874,-819.0
2023-12-13 14:26:51.967563,-510.0
2023-12-13 14:26:51.975252,-159.0
2023-12-13 14:26:51.982941,-152.0
2023-12-13 14:26:51.990631,-137.0
2023-12-13 14:26:51.998320,-66.0
2023-12-13 14:26:52.006009,-78.0
2023-12-13 14:26:52.013698,-85.0
2023-12-13 14:26:52.021387,-59.0
2023-12-13 14:26:52.029076,-52.0
2023-12-13 14:26:52.036766,-52.0
2023-12-13 14:26:52.044455,-42.0
2023-12-13 14:26:52.052144,-35.0
2023-12-13 14:26:52.059833,-26.0
2023-12-13 14:26:52.067522,-11.0
2023-12-13 14:26:52.075211,0.0
2023-12-13 14:26:52.082901,16.0
2023-12-13 14:26:52.090590,38.0
2023-12-13 14:26:52.098279,59.0
2023-12-13 14:26:52.105968,76.0
2023-12-13 14:26:52.113657,102.0
2023-12-13 14:26:52.121346,135.0
2023-12-13 14:26:52.129036,168.0
2023-12-13 14:26:52.136725,199.0
2023-12-13 14:26:52.144414,225.0
2023-12-13 14:26:52.152103,237.0
2023-12-13 14:26:52.159792,237.0
2023-12-13 14:26:52.167481,235.0
2023-12-13 14:26:52.175171,223.0
2023-12-13 14:26:52.182860,185.0
2023-12-13 14:26:52.190549,118.0
2023-12-13 14:26:52.198238,42.0
2023-12-13 14:26:52.205927,-26.0
2023-12-13 14:26:52.213616,-85.0
2023-12-13 14:26:52.221306,-133.0
2023-12-13 14:26:52.228995,-168.0
2023-12-13 14:26:52.236684,-182.0
2023-12-13 14:26:52.244373,-185.0
2023-12-13 14:26:52.252062,-190.0
2023-12-13 14:26:52.259751,-187.0
2023-12-13 14:26:52.267441,-182.0
2023-12-13 14:26:52.275130,-187.0
2023-12-13 14:26:52.282819,-190.0
2023-12-13 14:26:52.290508,-182.0
2023-12-13 14:26:52.298197,-180.0
2023-12-13 14:26:52.305886,-180.0
2023-12-13 14:26:52.313576,-171.0
2023-12-13 14:26:52.321265,-168.0
2023-12-13 14:26:52.328954,-173.0
2023-12-13 14:26:52.336643,-175.0
2023-12-13 14:26:52.344332,-171.0
2023-12-13 14:26:52.352021,-161.0
2023-12-13 14:26:52.359711,-163.0
2023-12-13 14:26:52.367400,-180.0
2023-12-13 14:26:52.375089,-182.0
2023-12-13 14:26:52.382778,-168.0
2023-12-13 14:26:52.390467,-171.0
2023-12-13 14:26:52.398156,-180.0
2023-12-13 14:26:52.405846,-187.0
2023-12-13 14:26:52.413535,-182.0
2023-12-13 14:26:52.421224,-168.0
2023-12-13 14:26:52.428913,-152.0
2023-12-13 14:26:52.436602,-135.0
2023-12-13 14:26:52.444291,-116.0
2023-12-13 14:26:52.451981,-104.0
2023-12-13 14:26:52.459670,-104.0
2023-12-13 14:26:52.467359,-111.0
2023-12-13 14:26:52.475048,-128.0
2023-12-13 14:26:52.482737,-142.0
2023-12-13 14:26:52.490426,-137.0
2023-12-13 14:26:52.498116,-128.0
2023-12-13 14:26:52.505805,-123.0
2023-12-13 14:26:52.513494,-109.0
2023-12-13 14:26:52.521183,-99.0
2023-12-13 14:26:52.528872,-95.0
2023-12-13 14:26:52.536561,-38.0
2023-12-13 14:26:52.544251,240.0
2023-12-13 14:26:52.551940,734.0
2023-12-13 14:26:52.559629,924.0
2023-12-13 14:26:52.567318,320.0
2023-12-13 14:26:52.575007,-556.0
2023-12-13 14:26:52.582696,-708.0
2023-12-13 14:26:52.590386,-287.0
2023-12-13 14:26:52.598075,-104.0
2023-12-13 14:26:52.605764,-142.0
2023-12-13 14:26:52.613453,-95.0
2023-12-13 14:26:52.621142,-57.0
2023-12-13 14:26:52.628831,-73.0
2023-12-13 14:26:52.636521,-64.0
2023-12-13 14:26:52.644210,-47.0
2023-12-13 14:26:52.651899,-45.0
2023-12-13 14:26:52.659588,-38.0
2023-12-13 14:26:52.667277,-26.0
2023-12-13 14:26:52.674966,-19.0
2023-12-13 14:26:52.682656,-9.0
2023-12-13 14:26:52.690345,7.0
2023-12-13 14:26:52.698034,21.0
2023-12-13 14:26:52.705723,35.0
2023-12-13 14:26:52.713412,52.0
2023-12-13 14:26:52.721101,71.0
2023-12-13 14:26:52.728791,90.0
2023-12-13 14:26:52.736480,116.0
2023-12-13 14:26:52.744169,149.0
2023-12-13 14:26:52.751858,182.0
2023-12-13 14:26:52.759547,209.0
2023-12-13 14:26:52.767236,230.0
2023-12-13 14:26:52.774926,240.0
2023-12-13 14:26:52.782615,244.0
2023-12-13 14:26:52.790304,242.0
2023-12-13 14:26:52.797993,218.0
2023-12-13 14:26:52.805682,173.0
2023-12-13 14:26:52.813371,102.0
2023-12-13 14:26:52.821061,23.0
2023-12-13 14:26:52.828750,-47.0
2023-12-13 14:26:52.836439,-109.0
2023-12-13 14:26:52.844128,-156.0
2023-12-13 14:26:52.851817,-173.0
2023-12-13 14:26:52.859506,-185.0
2023-12-13 14:26:52.867196,-197.0
2023-12-13 14:26:52.874885,-194.0
2023-12-13 14:26:52.882574,-190.0
2023-12-13 14:26:52.890263,-197.0
2023-12-13 14:26:52.897952,-201.0
2023-12-13 14:26:52.905641,-211.0
2023-12-13 14:26:52.913331,-220.0
2023-12-13 14:26:52.921020,-211.0
2023-12-13 14:26:52.928709,-199.0
2023-12-13 14:26:52.936398,-201.0
2023-12-13 14:26:52.944087,-201.0
2023-12-13 14:26:52.951776,-192.0
2023-12-13 14:26:52.959466,-185.0
2023-12-13 14:26:52.967155,-175.0
2023-12-13 14:26:52.974844,-168.0
2023-12-13 14:26:52.982533,-166.0
2023-12-13 14:26:52.990222,-166.0
2023-12-13 14:26:52.997911,-161.0
2023-12-13 14:26:53.005601,-154.0
2023-12-13 14:26:53.013290,-147.0
2023-12-13 14:26:53.020979,-142.0
2023-12-13 14:26:53.028668,-144.0
2023-12-13 14:26:53.036357,-156.0
2023-12-13 14:26:53.044046,-161.0
2023-12-13 14:26:53.051736,-152.0
2023-12-13 14:26:53.059425,-137.0
2023-12-13 14:26:53.067114,-121.0
2023-12-13 14:26:53.074803,-99.0
2023-12-13 14:26:53.082492,-85.0
2023-12-13 14:26:53.090181,-80.0
2023-12-13 14:26:53.097871,-78.0
2023-12-13 14:26:53.105560,-92.0
2023-12-13 14:26:53.113249,-106.0
2023-12-13 14:26:53.120938,-109.0
2023-12-13 14:26:53.128627,-114.0
2023-12-13 14:26:53.136316,-114.0
2023-12-13 14:26:53.144006,-104.0
2023-12-13 14:26:53.151695,-92.0
2023-12-13 14:26:53.159384,-83.0
2023-12-13 14:26:53.167073,-71.0
2023-12-13 14:26:53.174762,19.0
2023-12-13 14:26:53.182451,351.0
2023-12-13 14:26:53.190141,841.0
2023-12-13 14:26:53.197830,919.0
2023-12-13 14:26:53.205519,232.0
2023-12-13 14:26:53.213208,-582.0
2023-12-13 14:26:53.220897,-641.0
2023-12-13 14:26:53.228586,-225.0
2023-12-13 14:26:53.236276,-85.0
2023-12-13 14:26:53.243965,-128.0
2023-12-13 14:26:53.251654,-78.0
2023-12-13 14:26:53.259343,-49.0
2023-12-13 14:26:53.267032,-71.0
2023-12-13 14:26:53.274721,-57.0
2023-12-13 14:26:53.282411,-33.0
2023-12-13 14:26:53.290100,-30.0
2023-12-13 14:26:53.297789,-23.0
2023-12-13 14:26:53.305478,-11.0
2023-12-13 14:26:53.313167,-9.0
2023-12-13 14:26:53.320856,0.0
2023-12-13 14:26:53.328546,16.0
2023-12-13 14:26:53.336235,19.0
2023-12-13 14:26:53.343924,23.0
2023-12-13 14:26:53.351613,40.0
2023-12-13 14:26:53.359302,61.0
2023-12-13 14:26:53.366992,83.0
2023-12-13 14:26:53.374681,109.0
2023-12-13 14:26:53.382370,135.0
2023-12-13 14:26:53.390059,166.0
2023-12-13 14:26:53.397748,194.0
2023-12-13 14:26:53.405437,216.0
2023-12-13 14:26:53.413127,225.0
2023-12-13 14:26:53.420816,235.0
2023-12-13 14:26:53.428505,232.0
2023-12-13 14:26:53.436194,213.0
2023-12-13 14:26:53.443883,168.0
2023-12-13 14:26:53.451572,92.0
2023-12-13 14:26:53.459262,14.0
2023-12-13 14:26:53.466951,-47.0
2023-12-13 14:26:53.474640,-102.0
2023-12-13 14:26:53.482329,-144.0
2023-12-13 14:26:53.490018,-175.0
2023-12-13 14:26:53.497707,-190.0
2023-12-13 14:26:53.505397,-190.0
2023-12-13 14:26:53.513086,-187.0
2023-12-13 14:26:53.520775,-185.0
2023-12-13 14:26:53.528464,-194.0
2023-12-13 14:26:53.536153,-218.0
2023-12-13 14:26:53.543842,-225.0
2023-12-13 14:26:53.551532,-211.0
2023-12-13 14:26:53.559221,-204.0
2023-12-13 14:26:53.566910,-206.0
2023-12-13 14:26:53.574599,-199.0
2023-12-13 14:26:53.582288,-197.0
2023-12-13 14:26:53.589977,-197.0
2023-12-13 14:26:53.597667,-187.0
2023-12-13 14:26:53.605356,-175.0
2023-12-13 14:26:53.613045,-168.0
2023-12-13 14:26:53.620734,-168.0
2023-12-13 14:26:53.628423,-168.0
2023-12-13 14:26:53.636112,-168.0
2023-12-13 14:26:53.643802,-163.0
2023-12-13 14:26:53.651491,-154.0
2023-12-13 14:26:53.659180,-149.0
2023-12-13 14:26:53.666869,-152.0
2023-12-13 14:26:53.674558,-159.0
2023-12-13 14:26:53.682247,-159.0
2023-12-13 14:26:53.689937,-147.0
2023-12-13 14:26:53.697626,-128.0
2023-12-13 14:26:53.705315,-106.0
2023-12-13 14:26:53.713004,-92.0
2023-12-13 14:26:53.720693,-83.0
2023-12-13 14:26:53.728382,-78.0
2023-12-13 14:26:53.736072,-87.0
2023-12-13 14:26:53.743761,-104.0
2023-12-13 14:26:53.751450,-114.0
2023-12-13 14:26:53.759139,-116.0
2023-12-13 14:26:53.766828,-114.0
2023-12-13 14:26:53.774517,-109.0
2023-12-13 14:26:53.782207,-99.0
2023-12-13 14:26:53.789896,-90.0
2023-12-13 14:26:53.797585,-83.0
2023-12-13 14:26:53.805274,-61.0
2023-12-13 14:26:53.812963,87.0
2023-12-13 14:26:53.820652,503.0
2023-12-13 14:26:53.828342,926.0
2023-12-13 14:26:53.836031,734.0
2023-12-13 14:26:53.843720,-128.0
2023-12-13 14:26:53.851409,-727.0
2023-12-13 14:26:53.859098,-520.0
2023-12-13 14:26:53.866787,-161.0
2023-12-13 14:26:53.874477,-140.0
2023-12-13 14:26:53.882166,-154.0
2023-12-13 14:26:53.889855,-90.0
2023-12-13 14:26:53.897544,-85.0
2023-12-13 14:26:53.905233,-97.0
2023-12-13 14:26:53.912922,-73.0
2023-12-13 14:26:53.920612,-57.0
2023-12-13 14:26:53.928301,-52.0
2023-12-13 14:26:53.935990,-45.0
2023-12-13 14:26:53.943679,-38.0
2023-12-13 14:26:53.951368,-33.0
2023-12-13 14:26:53.959057,-19.0
2023-12-13 14:26:53.966747,-2.0
2023-12-13 14:26:53.974436,14.0
2023-12-13 14:26:53.982125,28.0
2023-12-13 14:26:53.989814,47.0
2023-12-13 14:26:53.997503,71.0
2023-12-13 14:26:54.005192,95.0
2023-12-13 14:26:54.012882,121.0
2023-12-13 14:26:54.020571,152.0
2023-12-13 14:26:54.028260,178.0
2023-12-13 14:26:54.035949,204.0
2023-12-13 14:26:54.043638,225.0
2023-12-13 14:26:54.051327,235.0
2023-12-13 14:26:54.059017,240.0
2023-12-13 14:26:54.066706,228.0
2023-12-13 14:26:54.074395,178.0
2023-12-13 14:26:54.082084,106.0
2023-12-13 14:26:54.089773,35.0
2023-12-13 14:26:54.097462,-35.0
2023-12-13 14:26:54.105152,-102.0
2023-12-13 14:26:54.112841,-154.0
2023-12-13 14:26:54.120530,-199.0
2023-12-13 14:26:54.128219,-220.0
2023-12-13 14:26:54.135908,-218.0
2023-12-13 14:26:54.143597,-223.0
2023-12-13 14:26:54.151287,-225.0
2023-12-13 14:26:54.158976,-218.0
2023-12-13 14:26:54.166665,-218.0
2023-12-13 14:26:54.174354,-220.0
2023-12-13 14:26:54.182043,-213.0
2023-12-13 14:26:54.189732,-213.0
2023-12-13 14:26:54.197422,-213.0
2023-12-13 14:26:54.205111,-201.0
2023-12-13 14:26:54.212800,-201.0
2023-12-13 14:26:54.220489,-201.0
