time,ECG
2023-08-12 16:36:17.469401,-45.0
2023-08-12 16:36:17.477091,-42.0
2023-08-12 16:36:17.484781,-49.0
2023-08-12 16:36:17.492471,-49.0
2023-08-12 16:36:17.500160,-47.0
2023-08-12 16:36:17.507850,-49.0
2023-08-12 16:36:17.515540,-49.0
2023-08-12 16:36:17.523230,-49.0
2023-08-12 16:36:17.530920,-47.0
2023-08-12 16:36:17.538609,-42.0
2023-08-12 16:36:17.546299,-40.0
2023-08-12 16:36:17.553989,-40.0
2023-08-12 16:36:17.561679,-42.0
2023-08-12 16:36:17.569369,-40.0
2023-08-12 16:36:17.577058,-40.0
2023-08-12 16:36:17.584748,-38.0
2023-08-12 16:36:17.592438,-28.0
2023-08-12 16:36:17.600128,-30.0
2023-08-12 16:36:17.607818,-35.0
2023-08-12 16:36:17.615507,-30.0
2023-08-12 16:36:17.623197,-38.0
2023-08-12 16:36:17.630887,-47.0
2023-08-12 16:36:17.638577,-35.0
2023-08-12 16:36:17.646267,-28.0
2023-08-12 16:36:17.653956,-40.0
2023-08-12 16:36:17.661646,-45.0
2023-08-12 16:36:17.669336,-35.0
2023-08-12 16:36:17.677026,-33.0
2023-08-12 16:36:17.684715,-40.0
2023-08-12 16:36:17.692405,-42.0
2023-08-12 16:36:17.700095,-38.0
2023-08-12 16:36:17.707785,-45.0
2023-08-12 16:36:17.715475,-49.0
2023-08-12 16:36:17.723164,-42.0
2023-08-12 16:36:17.730854,-45.0
2023-08-12 16:36:17.738544,-45.0
2023-08-12 16:36:17.746234,-42.0
2023-08-12 16:36:17.753924,-45.0
2023-08-12 16:36:17.761613,-45.0
2023-08-12 16:36:17.769303,-42.0
2023-08-12 16:36:17.776993,-49.0
2023-08-12 16:36:17.784683,-52.0
2023-08-12 16:36:17.792373,-49.0
2023-08-12 16:36:17.800062,-57.0
2023-08-12 16:36:17.807752,-61.0
2023-08-12 16:36:17.815442,-69.0
2023-08-12 16:36:17.823132,-85.0
2023-08-12 16:36:17.830822,-92.0
2023-08-12 16:36:17.838511,-99.0
2023-08-12 16:36:17.846201,-111.0
2023-08-12 16:36:17.853891,-104.0
2023-08-12 16:36:17.861581,-85.0
2023-08-12 16:36:17.869271,-71.0
2023-08-12 16:36:17.876960,-71.0
2023-08-12 16:36:17.884650,-69.0
2023-08-12 16:36:17.892340,-59.0
2023-08-12 16:36:17.900030,-64.0
2023-08-12 16:36:17.907719,-78.0
2023-08-12 16:36:17.915409,-71.0
2023-08-12 16:36:17.923099,-59.0
2023-08-12 16:36:17.930789,-66.0
2023-08-12 16:36:17.938479,-69.0
2023-08-12 16:36:17.946168,-83.0
2023-08-12 16:36:17.953858,-190.0
2023-08-12 16:36:17.961548,-442.0
2023-08-12 16:36:17.969238,-685.0
2023-08-12 16:36:17.976928,-461.0
2023-08-12 16:36:17.984617,73.0
2023-08-12 16:36:17.992307,109.0
2023-08-12 16:36:17.999997,-142.0
2023-08-12 16:36:18.007687,-76.0
2023-08-12 16:36:18.015377,14.0
2023-08-12 16:36:18.023066,-64.0
2023-08-12 16:36:18.030756,-73.0
2023-08-12 16:36:18.038446,-38.0
2023-08-12 16:36:18.046136,-57.0
2023-08-12 16:36:18.053826,-64.0
2023-08-12 16:36:18.061515,-52.0
2023-08-12 16:36:18.069205,-61.0
2023-08-12 16:36:18.076895,-69.0
2023-08-12 16:36:18.084585,-66.0
2023-08-12 16:36:18.092274,-64.0
2023-08-12 16:36:18.099964,-69.0
2023-08-12 16:36:18.107654,-73.0
2023-08-12 16:36:18.115344,-80.0
2023-08-12 16:36:18.123034,-85.0
2023-08-12 16:36:18.130723,-85.0
2023-08-12 16:36:18.138413,-92.0
2023-08-12 16:36:18.146103,-102.0
2023-08-12 16:36:18.153793,-104.0
2023-08-12 16:36:18.161483,-107.0
2023-08-12 16:36:18.169172,-114.0
2023-08-12 16:36:18.176862,-121.0
2023-08-12 16:36:18.184552,-130.0
2023-08-12 16:36:18.192242,-138.0
2023-08-12 16:36:18.199932,-147.0
2023-08-12 16:36:18.207621,-159.0
2023-08-12 16:36:18.215311,-169.0
2023-08-12 16:36:18.223001,-166.0
2023-08-12 16:36:18.230691,-164.0
2023-08-12 16:36:18.238381,-161.0
2023-08-12 16:36:18.246070,-154.0
2023-08-12 16:36:18.253760,-140.0
2023-08-12 16:36:18.261450,-119.0
2023-08-12 16:36:18.269140,-95.0
2023-08-12 16:36:18.276830,-69.0
2023-08-12 16:36:18.284519,-47.0
2023-08-12 16:36:18.292209,-28.0
2023-08-12 16:36:18.299899,-23.0
2023-08-12 16:36:18.307589,-28.0
2023-08-12 16:36:18.315278,-19.0
2023-08-12 16:36:18.322968,-9.0
2023-08-12 16:36:18.330658,-14.0
2023-08-12 16:36:18.338348,-23.0
2023-08-12 16:36:18.346038,-26.0
2023-08-12 16:36:18.353727,-28.0
2023-08-12 16:36:18.361417,-33.0
2023-08-12 16:36:18.369107,-30.0
2023-08-12 16:36:18.376797,-30.0
2023-08-12 16:36:18.384487,-33.0
2023-08-12 16:36:18.392176,-42.0
2023-08-12 16:36:18.399866,-52.0
2023-08-12 16:36:18.407556,-52.0
2023-08-12 16:36:18.415246,-42.0
2023-08-12 16:36:18.422936,-42.0
2023-08-12 16:36:18.430625,-45.0
2023-08-12 16:36:18.438315,-45.0
2023-08-12 16:36:18.446005,-49.0
2023-08-12 16:36:18.453695,-52.0
2023-08-12 16:36:18.461385,-45.0
2023-08-12 16:36:18.469074,-42.0
2023-08-12 16:36:18.476764,-49.0
2023-08-12 16:36:18.484454,-54.0
2023-08-12 16:36:18.492144,-52.0
2023-08-12 16:36:18.499833,-49.0
2023-08-12 16:36:18.507523,-49.0
2023-08-12 16:36:18.515213,-45.0
2023-08-12 16:36:18.522903,-47.0
2023-08-12 16:36:18.530593,-54.0
2023-08-12 16:36:18.538282,-49.0
2023-08-12 16:36:18.545972,-49.0
2023-08-12 16:36:18.553662,-54.0
2023-08-12 16:36:18.561352,-52.0
2023-08-12 16:36:18.569042,-47.0
2023-08-12 16:36:18.576731,-47.0
2023-08-12 16:36:18.584421,-49.0
2023-08-12 16:36:18.592111,-54.0
2023-08-12 16:36:18.599801,-61.0
2023-08-12 16:36:18.607491,-54.0
2023-08-12 16:36:18.615180,-49.0
2023-08-12 16:36:18.622870,-57.0
2023-08-12 16:36:18.630560,-57.0
2023-08-12 16:36:18.638250,-57.0
2023-08-12 16:36:18.645940,-59.0
2023-08-12 16:36:18.653629,-54.0
2023-08-12 16:36:18.661319,-54.0
2023-08-12 16:36:18.669009,-59.0
2023-08-12 16:36:18.676699,-57.0
2023-08-12 16:36:18.684389,-61.0
2023-08-12 16:36:18.692078,-69.0
2023-08-12 16:36:18.699768,-66.0
2023-08-12 16:36:18.707458,-64.0
2023-08-12 16:36:18.715148,-66.0
2023-08-12 16:36:18.722837,-64.0
2023-08-12 16:36:18.730527,-69.0
2023-08-12 16:36:18.738217,-71.0
2023-08-12 16:36:18.745907,-61.0
2023-08-12 16:36:18.753597,-66.0
2023-08-12 16:36:18.761286,-83.0
2023-08-12 16:36:18.768976,-88.0
2023-08-12 16:36:18.776666,-90.0
2023-08-12 16:36:18.784356,-99.0
2023-08-12 16:36:18.792046,-97.0
2023-08-12 16:36:18.799735,-83.0
2023-08-12 16:36:18.807425,-64.0
2023-08-12 16:36:18.815115,-52.0
2023-08-12 16:36:18.822805,-54.0
2023-08-12 16:36:18.830495,-54.0
2023-08-12 16:36:18.838184,-45.0
2023-08-12 16:36:18.845874,-47.0
2023-08-12 16:36:18.853564,-54.0
2023-08-12 16:36:18.861254,-49.0
2023-08-12 16:36:18.868944,-47.0
2023-08-12 16:36:18.876633,-61.0
2023-08-12 16:36:18.884323,-69.0
2023-08-12 16:36:18.892013,-114.0
2023-08-12 16:36:18.899703,-295.0
2023-08-12 16:36:18.907392,-585.0
2023-08-12 16:36:18.915082,-585.0
2023-08-12 16:36:18.922772,-90.0
2023-08-12 16:36:18.930462,183.0
2023-08-12 16:36:18.938152,-52.0
2023-08-12 16:36:18.945841,-121.0
2023-08-12 16:36:18.953531,9.0
2023-08-12 16:36:18.961221,-19.0
2023-08-12 16:36:18.968911,-64.0
2023-08-12 16:36:18.976601,-26.0
2023-08-12 16:36:18.984290,-33.0
2023-08-12 16:36:18.991980,-61.0
2023-08-12 16:36:18.999670,-54.0
2023-08-12 16:36:19.007360,-54.0
2023-08-12 16:36:19.015050,-69.0
2023-08-12 16:36:19.022739,-64.0
2023-08-12 16:36:19.030429,-52.0
2023-08-12 16:36:19.038119,-64.0
2023-08-12 16:36:19.045809,-83.0
2023-08-12 16:36:19.053499,-80.0
2023-08-12 16:36:19.061188,-76.0
2023-08-12 16:36:19.068878,-85.0
2023-08-12 16:36:19.076568,-92.0
2023-08-12 16:36:19.084258,-92.0
2023-08-12 16:36:19.091948,-99.0
2023-08-12 16:36:19.099637,-109.0
2023-08-12 16:36:19.107327,-111.0
2023-08-12 16:36:19.115017,-111.0
2023-08-12 16:36:19.122707,-121.0
2023-08-12 16:36:19.130396,-138.0
2023-08-12 16:36:19.138086,-145.0
2023-08-12 16:36:19.145776,-147.0
2023-08-12 16:36:19.153466,-149.0
2023-08-12 16:36:19.161156,-159.0
2023-08-12 16:36:19.168845,-166.0
2023-08-12 16:36:19.176535,-159.0
2023-08-12 16:36:19.184225,-157.0
2023-08-12 16:36:19.191915,-161.0
2023-08-12 16:36:19.199605,-140.0
2023-08-12 16:36:19.207294,-99.0
2023-08-12 16:36:19.214984,-73.0
2023-08-12 16:36:19.222674,-54.0
2023-08-12 16:36:19.230364,-38.0
2023-08-12 16:36:19.238054,-28.0
2023-08-12 16:36:19.245743,-23.0
2023-08-12 16:36:19.253433,-14.0
2023-08-12 16:36:19.261123,-7.0
2023-08-12 16:36:19.268813,-11.0
2023-08-12 16:36:19.276503,-16.0
2023-08-12 16:36:19.284192,-11.0
2023-08-12 16:36:19.291882,-4.0
2023-08-12 16:36:19.299572,-11.0
2023-08-12 16:36:19.307262,-21.0
2023-08-12 16:36:19.314951,-16.0
2023-08-12 16:36:19.322641,-11.0
2023-08-12 16:36:19.330331,-14.0
2023-08-12 16:36:19.338021,-21.0
2023-08-12 16:36:19.345711,-26.0
2023-08-12 16:36:19.353400,-19.0
2023-08-12 16:36:19.361090,-14.0
2023-08-12 16:36:19.368780,-19.0
2023-08-12 16:36:19.376470,-21.0
2023-08-12 16:36:19.384160,-23.0
2023-08-12 16:36:19.391849,-23.0
2023-08-12 16:36:19.399539,-16.0
2023-08-12 16:36:19.407229,-11.0
2023-08-12 16:36:19.414919,-23.0
2023-08-12 16:36:19.422609,-30.0
2023-08-12 16:36:19.430298,-19.0
2023-08-12 16:36:19.437988,-11.0
2023-08-12 16:36:19.445678,-16.0
2023-08-12 16:36:19.453368,-23.0
2023-08-12 16:36:19.461058,-30.0
2023-08-12 16:36:19.468747,-26.0
2023-08-12 16:36:19.476437,-23.0
2023-08-12 16:36:19.484127,-30.0
2023-08-12 16:36:19.491817,-38.0
2023-08-12 16:36:19.499507,-33.0
2023-08-12 16:36:19.507196,-33.0
2023-08-12 16:36:19.514886,-38.0
2023-08-12 16:36:19.522576,-38.0
2023-08-12 16:36:19.530266,-33.0
2023-08-12 16:36:19.537955,-33.0
2023-08-12 16:36:19.545645,-38.0
2023-08-12 16:36:19.553335,-30.0
2023-08-12 16:36:19.561025,-30.0
2023-08-12 16:36:19.568715,-35.0
2023-08-12 16:36:19.576404,-30.0
2023-08-12 16:36:19.584094,-21.0
2023-08-12 16:36:19.591784,-26.0
2023-08-12 16:36:19.599474,-33.0
2023-08-12 16:36:19.607164,-28.0
2023-08-12 16:36:19.614853,-30.0
2023-08-12 16:36:19.622543,-38.0
2023-08-12 16:36:19.630233,-30.0
2023-08-12 16:36:19.637923,-23.0
2023-08-12 16:36:19.645613,-26.0
2023-08-12 16:36:19.653302,-33.0
2023-08-12 16:36:19.660992,-54.0
2023-08-12 16:36:19.668682,-71.0
2023-08-12 16:36:19.676372,-66.0
2023-08-12 16:36:19.684062,-69.0
2023-08-12 16:36:19.691751,-66.0
2023-08-12 16:36:19.699441,-40.0
2023-08-12 16:36:19.707131,-21.0
2023-08-12 16:36:19.714821,-23.0
2023-08-12 16:36:19.722510,-30.0
2023-08-12 16:36:19.730200,-28.0
2023-08-12 16:36:19.737890,-23.0
2023-08-12 16:36:19.745580,-16.0
2023-08-12 16:36:19.753270,-28.0
2023-08-12 16:36:19.760959,-35.0
2023-08-12 16:36:19.768649,-26.0
2023-08-12 16:36:19.776339,-30.0
2023-08-12 16:36:19.784029,-61.0
2023-08-12 16:36:19.791719,-159.0
2023-08-12 16:36:19.799408,-392.0
2023-08-12 16:36:19.807098,-590.0
2023-08-12 16:36:19.814788,-302.0
2023-08-12 16:36:19.822478,192.0
2023-08-12 16:36:19.830168,142.0
2023-08-12 16:36:19.837857,-107.0
2023-08-12 16:36:19.845547,-26.0
2023-08-12 16:36:19.853237,40.0
2023-08-12 16:36:19.860927,-38.0
2023-08-12 16:36:19.868617,-33.0
2023-08-12 16:36:19.876306,-7.0
2023-08-12 16:36:19.883996,-28.0
2023-08-12 16:36:19.891686,-30.0
2023-08-12 16:36:19.899376,-28.0
2023-08-12 16:36:19.907065,-45.0
2023-08-12 16:36:19.914755,-42.0
2023-08-12 16:36:19.922445,-42.0
2023-08-12 16:36:19.930135,-54.0
2023-08-12 16:36:19.937825,-54.0
2023-08-12 16:36:19.945514,-57.0
2023-08-12 16:36:19.953204,-64.0
2023-08-12 16:36:19.960894,-64.0
2023-08-12 16:36:19.968584,-69.0
2023-08-12 16:36:19.976274,-71.0
2023-08-12 16:36:19.983963,-73.0
2023-08-12 16:36:19.991653,-99.0
2023-08-12 16:36:19.999343,-114.0
2023-08-12 16:36:20.007033,-107.0
2023-08-12 16:36:20.014723,-111.0
2023-08-12 16:36:20.022412,-130.0
2023-08-12 16:36:20.030102,-138.0
2023-08-12 16:36:20.037792,-138.0
2023-08-12 16:36:20.045482,-145.0
2023-08-12 16:36:20.053172,-157.0
2023-08-12 16:36:20.060861,-164.0
2023-08-12 16:36:20.068551,-164.0
2023-08-12 16:36:20.076241,-159.0
2023-08-12 16:36:20.083931,-152.0
2023-08-12 16:36:20.091621,-142.0
2023-08-12 16:36:20.099310,-119.0
2023-08-12 16:36:20.107000,-90.0
2023-08-12 16:36:20.114690,-64.0
2023-08-12 16:36:20.122380,-40.0
2023-08-12 16:36:20.130069,-30.0
2023-08-12 16:36:20.137759,-26.0
2023-08-12 16:36:20.145449,-14.0
2023-08-12 16:36:20.153139,-9.0
2023-08-12 16:36:20.160829,-21.0
2023-08-12 16:36:20.168518,-23.0
2023-08-12 16:36:20.176208,-19.0
2023-08-12 16:36:20.183898,-28.0
2023-08-12 16:36:20.191588,-30.0
2023-08-12 16:36:20.199278,-26.0
2023-08-12 16:36:20.206967,-26.0
2023-08-12 16:36:20.214657,-30.0
2023-08-12 16:36:20.222347,-40.0
2023-08-12 16:36:20.230037,-42.0
2023-08-12 16:36:20.237727,-42.0
2023-08-12 16:36:20.245416,-42.0
2023-08-12 16:36:20.253106,-42.0
2023-08-12 16:36:20.260796,-40.0
2023-08-12 16:36:20.268486,-45.0
2023-08-12 16:36:20.276176,-47.0
2023-08-12 16:36:20.283865,-38.0
2023-08-12 16:36:20.291555,-42.0
2023-08-12 16:36:20.299245,-52.0
2023-08-12 16:36:20.306935,-40.0
2023-08-12 16:36:20.314624,-38.0
2023-08-12 16:36:20.322314,-47.0
2023-08-12 16:36:20.330004,-45.0
2023-08-12 16:36:20.337694,-42.0
2023-08-12 16:36:20.345384,-45.0
2023-08-12 16:36:20.353073,-49.0
2023-08-12 16:36:20.360763,-47.0
2023-08-12 16:36:20.368453,-42.0
2023-08-12 16:36:20.376143,-49.0
2023-08-12 16:36:20.383833,-57.0
2023-08-12 16:36:20.391522,-49.0
2023-08-12 16:36:20.399212,-42.0
2023-08-12 16:36:20.406902,-52.0
2023-08-12 16:36:20.414592,-66.0
2023-08-12 16:36:20.422282,-78.0
2023-08-12 16:36:20.429971,-92.0
2023-08-12 16:36:20.437661,-102.0
2023-08-12 16:36:20.445351,-97.0
2023-08-12 16:36:20.453041,-85.0
2023-08-12 16:36:20.460731,-71.0
2023-08-12 16:36:20.468420,-57.0
2023-08-12 16:36:20.476110,-61.0
2023-08-12 16:36:20.483800,-66.0
2023-08-12 16:36:20.491490,-61.0
2023-08-12 16:36:20.499180,-59.0
2023-08-12 16:36:20.506869,-64.0
2023-08-12 16:36:20.514559,-76.0
2023-08-12 16:36:20.522249,-83.0
2023-08-12 16:36:20.529939,-73.0
2023-08-12 16:36:20.537628,-71.0
2023-08-12 16:36:20.545318,-85.0
2023-08-12 16:36:20.553008,-161.0
2023-08-12 16:36:20.560698,-390.0
2023-08-12 16:36:20.568388,-671.0
2023-08-12 16:36:20.576077,-537.0
2023-08-12 16:36:20.583767,14.0
2023-08-12 16:36:20.591457,157.0
2023-08-12 16:36:20.599147,-121.0
2023-08-12 16:36:20.606837,-135.0
2023-08-12 16:36:20.614526,-23.0
2023-08-12 16:36:20.622216,-76.0
2023-08-12 16:36:20.629906,-104.0
2023-08-12 16:36:20.637596,-71.0
2023-08-12 16:36:20.645286,-85.0
2023-08-12 16:36:20.652975,-104.0
2023-08-12 16:36:20.660665,-90.0
2023-08-12 16:36:20.668355,-90.0
2023-08-12 16:36:20.676045,-109.0
2023-08-12 16:36:20.683735,-109.0
2023-08-12 16:36:20.691424,-111.0
2023-08-12 16:36:20.699114,-121.0
2023-08-12 16:36:20.706804,-119.0
2023-08-12 16:36:20.714494,-116.0
2023-08-12 16:36:20.722183,-123.0
2023-08-12 16:36:20.729873,-128.0
2023-08-12 16:36:20.737563,-128.0
2023-08-12 16:36:20.745253,-138.0
2023-08-12 16:36:20.752943,-152.0
2023-08-12 16:36:20.760632,-159.0
2023-08-12 16:36:20.768322,-164.0
2023-08-12 16:36:20.776012,-171.0
2023-08-12 16:36:20.783702,-178.0
2023-08-12 16:36:20.791392,-183.0
2023-08-12 16:36:20.799081,-195.0
2023-08-12 16:36:20.806771,-204.0
2023-08-12 16:36:20.814461,-209.0
2023-08-12 16:36:20.822151,-214.0
2023-08-12 16:36:20.829841,-214.0
2023-08-12 16:36:20.837530,-209.0
2023-08-12 16:36:20.845220,-204.0
2023-08-12 16:36:20.852910,-192.0
2023-08-12 16:36:20.860600,-161.0
2023-08-12 16:36:20.868290,-128.0
2023-08-12 16:36:20.875979,-99.0
2023-08-12 16:36:20.883669,-78.0
2023-08-12 16:36:20.891359,-64.0
2023-08-12 16:36:20.899049,-64.0
2023-08-12 16:36:20.906739,-61.0
2023-08-12 16:36:20.914428,-49.0
2023-08-12 16:36:20.922118,-47.0
2023-08-12 16:36:20.929808,-57.0
2023-08-12 16:36:20.937498,-47.0
2023-08-12 16:36:20.945187,-45.0
2023-08-12 16:36:20.952877,-59.0
2023-08-12 16:36:20.960567,-57.0
2023-08-12 16:36:20.968257,-54.0
2023-08-12 16:36:20.975947,-64.0
2023-08-12 16:36:20.983636,-64.0
2023-08-12 16:36:20.991326,-57.0
2023-08-12 16:36:20.999016,-66.0
2023-08-12 16:36:21.006706,-78.0
2023-08-12 16:36:21.014396,-78.0
2023-08-12 16:36:21.022085,-73.0
2023-08-12 16:36:21.029775,-78.0
2023-08-12 16:36:21.037465,-85.0
2023-08-12 16:36:21.045155,-78.0
2023-08-12 16:36:21.052845,-71.0
2023-08-12 16:36:21.060534,-71.0
2023-08-12 16:36:21.068224,-66.0
2023-08-12 16:36:21.075914,-64.0
2023-08-12 16:36:21.083604,-66.0
2023-08-12 16:36:21.091294,-61.0
2023-08-12 16:36:21.098983,-57.0
2023-08-12 16:36:21.106673,-61.0
2023-08-12 16:36:21.114363,-64.0
2023-08-12 16:36:21.122053,-57.0
2023-08-12 16:36:21.129742,-57.0
2023-08-12 16:36:21.137432,-61.0
2023-08-12 16:36:21.145122,-57.0
2023-08-12 16:36:21.152812,-57.0
2023-08-12 16:36:21.160502,-59.0
2023-08-12 16:36:21.168191,-64.0
2023-08-12 16:36:21.175881,-71.0
2023-08-12 16:36:21.183571,-71.0
2023-08-12 16:36:21.191261,-69.0
2023-08-12 16:36:21.198951,-64.0
2023-08-12 16:36:21.206640,-66.0
2023-08-12 16:36:21.214330,-71.0
2023-08-12 16:36:21.222020,-66.0
2023-08-12 16:36:21.229710,-61.0
2023-08-12 16:36:21.237400,-61.0
2023-08-12 16:36:21.245089,-59.0
2023-08-12 16:36:21.252779,-57.0
2023-08-12 16:36:21.260469,-61.0
2023-08-12 16:36:21.268159,-61.0
2023-08-12 16:36:21.275849,-59.0
2023-08-12 16:36:21.283538,-61.0
2023-08-12 16:36:21.291228,-64.0
2023-08-12 16:36:21.298918,-54.0
2023-08-12 16:36:21.306608,-52.0
2023-08-12 16:36:21.314298,-61.0
2023-08-12 16:36:21.321987,-66.0
2023-08-12 16:36:21.329677,-61.0
2023-08-12 16:36:21.337367,-61.0
2023-08-12 16:36:21.345057,-57.0
2023-08-12 16:36:21.352746,-49.0
2023-08-12 16:36:21.360436,-59.0
2023-08-12 16:36:21.368126,-76.0
2023-08-12 16:36:21.375816,-80.0
2023-08-12 16:36:21.383506,-85.0
2023-08-12 16:36:21.391195,-97.0
2023-08-12 16:36:21.398885,-99.0
2023-08-12 16:36:21.406575,-83.0
2023-08-12 16:36:21.414265,-66.0
2023-08-12 16:36:21.421955,-59.0
2023-08-12 16:36:21.429644,-54.0
2023-08-12 16:36:21.437334,-47.0
2023-08-12 16:36:21.445024,-45.0
2023-08-12 16:36:21.452714,-49.0
2023-08-12 16:36:21.460404,-52.0
2023-08-12 16:36:21.468093,-47.0
2023-08-12 16:36:21.475783,-52.0
2023-08-12 16:36:21.483473,-59.0
2023-08-12 16:36:21.491163,-59.0
2023-08-12 16:36:21.498853,-95.0
2023-08-12 16:36:21.506542,-249.0
2023-08-12 16:36:21.514232,-547.0
2023-08-12 16:36:21.521922,-666.0
2023-08-12 16:36:21.529612,-238.0
2023-08-12 16:36:21.537301,173.0
2023-08-12 16:36:21.544991,9.0
2023-08-12 16:36:21.552681,-152.0
2023-08-12 16:36:21.560371,-30.0
2023-08-12 16:36:21.568061,-7.0
2023-08-12 16:36:21.575750,-69.0
2023-08-12 16:36:21.583440,-52.0
2023-08-12 16:36:21.591130,-33.0
2023-08-12 16:36:21.598820,-52.0
2023-08-12 16:36:21.606510,-52.0
2023-08-12 16:36:21.614199,-45.0
2023-08-12 16:36:21.621889,-61.0
2023-08-12 16:36:21.629579,-78.0
2023-08-12 16:36:21.637269,-76.0
2023-08-12 16:36:21.644959,-69.0
2023-08-12 16:36:21.652648,-73.0
2023-08-12 16:36:21.660338,-80.0
2023-08-12 16:36:21.668028,-80.0
2023-08-12 16:36:21.675718,-88.0
2023-08-12 16:36:21.683408,-90.0
2023-08-12 16:36:21.691097,-92.0
2023-08-12 16:36:21.698787,-104.0
2023-08-12 16:36:21.706477,-119.0
2023-08-12 16:36:21.714167,-126.0
2023-08-12 16:36:21.721857,-138.0
2023-08-12 16:36:21.729546,-145.0
2023-08-12 16:36:21.737236,-149.0
2023-08-12 16:36:21.744926,-157.0
2023-08-12 16:36:21.752616,-164.0
2023-08-12 16:36:21.760305,-169.0
2023-08-12 16:36:21.767995,-171.0
2023-08-12 16:36:21.775685,-169.0
2023-08-12 16:36:21.783375,-178.0
2023-08-12 16:36:21.791065,-183.0
2023-08-12 16:36:21.798754,-166.0
2023-08-12 16:36:21.806444,-149.0
2023-08-12 16:36:21.814134,-128.0
2023-08-12 16:36:21.821824,-99.0
2023-08-12 16:36:21.829514,-78.0
2023-08-12 16:36:21.837203,-64.0
2023-08-12 16:36:21.844893,-45.0
2023-08-12 16:36:21.852583,-28.0
2023-08-12 16:36:21.860273,-21.0
2023-08-12 16:36:21.867963,-26.0
2023-08-12 16:36:21.875652,-30.0
2023-08-12 16:36:21.883342,-33.0
2023-08-12 16:36:21.891032,-35.0
2023-08-12 16:36:21.898722,-40.0
2023-08-12 16:36:21.906412,-33.0
2023-08-12 16:36:21.914101,-23.0
2023-08-12 16:36:21.921791,-33.0
2023-08-12 16:36:21.929481,-47.0
2023-08-12 16:36:21.937171,-42.0
2023-08-12 16:36:21.944860,-30.0
2023-08-12 16:36:21.952550,-35.0
2023-08-12 16:36:21.960240,-45.0
2023-08-12 16:36:21.967930,-40.0
2023-08-12 16:36:21.975620,-30.0
2023-08-12 16:36:21.983309,-30.0
2023-08-12 16:36:21.990999,-47.0
2023-08-12 16:36:21.998689,-54.0
2023-08-12 16:36:22.006379,-42.0
2023-08-12 16:36:22.014069,-35.0
2023-08-12 16:36:22.021758,-42.0
2023-08-12 16:36:22.029448,-49.0
2023-08-12 16:36:22.037138,-40.0
2023-08-12 16:36:22.044828,-35.0
2023-08-12 16:36:22.052518,-40.0
2023-08-12 16:36:22.060207,-40.0
2023-08-12 16:36:22.067897,-35.0
2023-08-12 16:36:22.075587,-30.0
2023-08-12 16:36:22.083277,-35.0
2023-08-12 16:36:22.090967,-38.0
2023-08-12 16:36:22.098656,-33.0
2023-08-12 16:36:22.106346,-30.0
2023-08-12 16:36:22.114036,-35.0
2023-08-12 16:36:22.121726,-28.0
2023-08-12 16:36:22.129416,-28.0
2023-08-12 16:36:22.137105,-40.0
2023-08-12 16:36:22.144795,-40.0
2023-08-12 16:36:22.152485,-35.0
2023-08-12 16:36:22.160175,-35.0
2023-08-12 16:36:22.167864,-30.0
2023-08-12 16:36:22.175554,-26.0
2023-08-12 16:36:22.183244,-35.0
2023-08-12 16:36:22.190934,-35.0
2023-08-12 16:36:22.198624,-23.0
2023-08-12 16:36:22.206313,-26.0
2023-08-12 16:36:22.214003,-30.0
2023-08-12 16:36:22.221693,-28.0
2023-08-12 16:36:22.229383,-23.0
2023-08-12 16:36:22.237073,-28.0
2023-08-12 16:36:22.244762,-30.0
2023-08-12 16:36:22.252452,-33.0
2023-08-12 16:36:22.260142,-42.0
2023-08-12 16:36:22.267832,-38.0
2023-08-12 16:36:22.275522,-26.0
2023-08-12 16:36:22.283211,-30.0
2023-08-12 16:36:22.290901,-42.0
2023-08-12 16:36:22.298591,-38.0
2023-08-12 16:36:22.306281,-30.0
2023-08-12 16:36:22.313971,-35.0
2023-08-12 16:36:22.321660,-35.0
2023-08-12 16:36:22.329350,-28.0
2023-08-12 16:36:22.337040,-33.0
2023-08-12 16:36:22.344730,-33.0
2023-08-12 16:36:22.352419,-30.0
2023-08-12 16:36:22.360109,-54.0
2023-08-12 16:36:22.367799,-69.0
2023-08-12 16:36:22.375489,-64.0
2023-08-12 16:36:22.383179,-64.0
2023-08-12 16:36:22.390868,-66.0
2023-08-12 16:36:22.398558,-54.0
2023-08-12 16:36:22.406248,-35.0
2023-08-12 16:36:22.413938,-21.0
2023-08-12 16:36:22.421628,-21.0
2023-08-12 16:36:22.429317,-26.0
2023-08-12 16:36:22.437007,-23.0
2023-08-12 16:36:22.444697,-23.0
2023-08-12 16:36:22.452387,-28.0
2023-08-12 16:36:22.460077,-23.0
2023-08-12 16:36:22.467766,-21.0
2023-08-12 16:36:22.475456,-30.0
2023-08-12 16:36:22.483146,-47.0
2023-08-12 16:36:22.490836,-111.0
2023-08-12 16:36:22.498526,-307.0
2023-08-12 16:36:22.506215,-576.0
2023-08-12 16:36:22.513905,-492.0
2023-08-12 16:36:22.521595,28.0
2023-08-12 16:36:22.529285,207.0
2023-08-12 16:36:22.536975,-61.0
2023-08-12 16:36:22.544664,-83.0
2023-08-12 16:36:22.552354,38.0
2023-08-12 16:36:22.560044,-21.0
2023-08-12 16:36:22.567734,-49.0
2023-08-12 16:36:22.575423,0.0
2023-08-12 16:36:22.583113,-14.0
2023-08-12 16:36:22.590803,-38.0
2023-08-12 16:36:22.598493,-21.0
2023-08-12 16:36:22.606183,-16.0
2023-08-12 16:36:22.613872,-30.0
2023-08-12 16:36:22.621562,-30.0
2023-08-12 16:36:22.629252,-30.0
2023-08-12 16:36:22.636942,-40.0
2023-08-12 16:36:22.644632,-47.0
2023-08-12 16:36:22.652321,-42.0
2023-08-12 16:36:22.660011,-42.0
2023-08-12 16:36:22.667701,-54.0
2023-08-12 16:36:22.675391,-57.0
2023-08-12 16:36:22.683081,-52.0
2023-08-12 16:36:22.690770,-61.0
2023-08-12 16:36:22.698460,-69.0
2023-08-12 16:36:22.706150,-76.0
2023-08-12 16:36:22.713840,-83.0
2023-08-12 16:36:22.721530,-85.0
2023-08-12 16:36:22.729219,-90.0
2023-08-12 16:36:22.736909,-102.0
2023-08-12 16:36:22.744599,-114.0
2023-08-12 16:36:22.752289,-121.0
2023-08-12 16:36:22.759978,-119.0
2023-08-12 16:36:22.767668,-116.0
2023-08-12 16:36:22.775358,-119.0
2023-08-12 16:36:22.783048,-116.0
2023-08-12 16:36:22.790738,-107.0
2023-08-12 16:36:22.798427,-92.0
2023-08-12 16:36:22.806117,-66.0
2023-08-12 16:36:22.813807,-35.0
2023-08-12 16:36:22.821497,-11.0
2023-08-12 16:36:22.829187,-2.0
2023-08-12 16:36:22.836876,2.0
2023-08-12 16:36:22.844566,9.0
2023-08-12 16:36:22.852256,14.0
2023-08-12 16:36:22.859946,26.0
2023-08-12 16:36:22.867636,26.0
2023-08-12 16:36:22.875325,14.0
2023-08-12 16:36:22.883015,11.0
2023-08-12 16:36:22.890705,16.0
2023-08-12 16:36:22.898395,9.0
2023-08-12 16:36:22.906085,-4.0
2023-08-12 16:36:22.913774,0.0
2023-08-12 16:36:22.921464,11.0
2023-08-12 16:36:22.929154,4.0
2023-08-12 16:36:22.936844,-4.0
2023-08-12 16:36:22.944534,-2.0
2023-08-12 16:36:22.952223,0.0
2023-08-12 16:36:22.959913,-2.0
2023-08-12 16:36:22.967603,2.0
2023-08-12 16:36:22.975293,7.0
2023-08-12 16:36:22.982982,-2.0
2023-08-12 16:36:22.990672,-7.0
2023-08-12 16:36:22.998362,-2.0
2023-08-12 16:36:23.006052,-4.0
2023-08-12 16:36:23.013742,-4.0
2023-08-12 16:36:23.021431,4.0
2023-08-12 16:36:23.029121,0.0
2023-08-12 16:36:23.036811,-14.0
2023-08-12 16:36:23.044501,-9.0
2023-08-12 16:36:23.052191,-2.0
2023-08-12 16:36:23.059880,-7.0
2023-08-12 16:36:23.067570,-7.0
2023-08-12 16:36:23.075260,-2.0
2023-08-12 16:36:23.082950,-7.0
2023-08-12 16:36:23.090640,-11.0
2023-08-12 16:36:23.098329,-11.0
2023-08-12 16:36:23.106019,-19.0
2023-08-12 16:36:23.113709,-21.0
2023-08-12 16:36:23.121399,-19.0
2023-08-12 16:36:23.129089,-16.0
2023-08-12 16:36:23.136778,-26.0
2023-08-12 16:36:23.144468,-47.0
2023-08-12 16:36:23.152158,-59.0
2023-08-12 16:36:23.159848,-64.0
2023-08-12 16:36:23.167537,-64.0
2023-08-12 16:36:23.175227,-49.0
2023-08-12 16:36:23.182917,-28.0
2023-08-12 16:36:23.190607,-21.0
2023-08-12 16:36:23.198297,-28.0
2023-08-12 16:36:23.205986,-33.0
2023-08-12 16:36:23.213676,-33.0
2023-08-12 16:36:23.221366,-30.0
2023-08-12 16:36:23.229056,-30.0
2023-08-12 16:36:23.236746,-28.0
2023-08-12 16:36:23.244435,-30.0
2023-08-12 16:36:23.252125,-38.0
2023-08-12 16:36:23.259815,-40.0
2023-08-12 16:36:23.267505,-49.0
2023-08-12 16:36:23.275195,-123.0
2023-08-12 16:36:23.282884,-347.0
2023-08-12 16:36:23.290574,-626.0
2023-08-12 16:36:23.298264,-497.0
2023-08-12 16:36:23.305954,52.0
2023-08-12 16:36:23.313644,199.0
2023-08-12 16:36:23.321333,-78.0
2023-08-12 16:36:23.329023,-92.0
2023-08-12 16:36:23.336713,21.0
2023-08-12 16:36:23.344403,-23.0
2023-08-12 16:36:23.352093,-52.0
2023-08-12 16:36:23.359782,-30.0
2023-08-12 16:36:23.367472,-45.0
2023-08-12 16:36:23.375162,-57.0
2023-08-12 16:36:23.382852,-64.0
2023-08-12 16:36:23.390541,-85.0
2023-08-12 16:36:23.398231,-85.0
2023-08-12 16:36:23.405921,-78.0
2023-08-12 16:36:23.413611,-92.0
2023-08-12 16:36:23.421301,-104.0
2023-08-12 16:36:23.428990,-107.0
2023-08-12 16:36:23.436680,-116.0
2023-08-12 16:36:23.444370,-121.0
2023-08-12 16:36:23.452060,-128.0
2023-08-12 16:36:23.459750,-142.0
2023-08-12 16:36:23.467439,-149.0
2023-08-12 16:36:23.475129,-149.0
2023-08-12 16:36:23.482819,-157.0
2023-08-12 16:36:23.490509,-173.0
2023-08-12 16:36:23.498199,-188.0
2023-08-12 16:36:23.505888,-199.0
2023-08-12 16:36:23.513578,-226.0
2023-08-12 16:36:23.521268,-230.0
2023-08-12 16:36:23.528958,-223.0
2023-08-12 16:36:23.536648,-235.0
2023-08-12 16:36:23.544337,-242.0
2023-08-12 16:36:23.552027,-233.0
2023-08-12 16:36:23.559717,-235.0
2023-08-12 16:36:23.567407,-235.0
2023-08-12 16:36:23.575096,-211.0
2023-08-12 16:36:23.582786,-173.0
2023-08-12 16:36:23.590476,-149.0
2023-08-12 16:36:23.598166,-130.0
2023-08-12 16:36:23.605856,-107.0
2023-08-12 16:36:23.613545,-102.0
2023-08-12 16:36:23.621235,-95.0
2023-08-12 16:36:23.628925,-73.0
2023-08-12 16:36:23.636615,-57.0
2023-08-12 16:36:23.644305,-64.0
2023-08-12 16:36:23.651994,-76.0
2023-08-12 16:36:23.659684,-69.0
2023-08-12 16:36:23.667374,-54.0
2023-08-12 16:36:23.675064,-59.0
2023-08-12 16:36:23.682754,-76.0
2023-08-12 16:36:23.690443,-76.0
2023-08-12 16:36:23.698133,-73.0
2023-08-12 16:36:23.705823,-71.0
2023-08-12 16:36:23.713513,-71.0
2023-08-12 16:36:23.721203,-76.0
2023-08-12 16:36:23.728892,-73.0
2023-08-12 16:36:23.736582,-71.0
2023-08-12 16:36:23.744272,-80.0
2023-08-12 16:36:23.751962,-78.0
2023-08-12 16:36:23.759651,-61.0
2023-08-12 16:36:23.767341,-57.0
2023-08-12 16:36:23.775031,-69.0
2023-08-12 16:36:23.782721,-73.0
2023-08-12 16:36:23.790411,-66.0
2023-08-12 16:36:23.798100,-57.0
2023-08-12 16:36:23.805790,-61.0
2023-08-12 16:36:23.813480,-59.0
2023-08-12 16:36:23.821170,-45.0
2023-08-12 16:36:23.828860,-47.0
2023-08-12 16:36:23.836549,-59.0
2023-08-12 16:36:23.844239,-54.0
2023-08-12 16:36:23.851929,-49.0
2023-08-12 16:36:23.859619,-59.0
2023-08-12 16:36:23.867309,-59.0
2023-08-12 16:36:23.874998,-52.0
2023-08-12 16:36:23.882688,-47.0
2023-08-12 16:36:23.890378,-49.0
2023-08-12 16:36:23.898068,-54.0
2023-08-12 16:36:23.905758,-47.0
2023-08-12 16:36:23.913447,-45.0
2023-08-12 16:36:23.921137,-57.0
2023-08-12 16:36:23.928827,-52.0
2023-08-12 16:36:23.936517,-35.0
2023-08-12 16:36:23.944207,-42.0
2023-08-12 16:36:23.951896,-54.0
2023-08-12 16:36:23.959586,-57.0
2023-08-12 16:36:23.967276,-64.0
2023-08-12 16:36:23.974966,-61.0
2023-08-12 16:36:23.982655,-52.0
2023-08-12 16:36:23.990345,-52.0
2023-08-12 16:36:23.998035,-59.0
2023-08-12 16:36:24.005725,-57.0
2023-08-12 16:36:24.013415,-52.0
2023-08-12 16:36:24.021104,-66.0
2023-08-12 16:36:24.028794,-80.0
2023-08-12 16:36:24.036484,-83.0
2023-08-12 16:36:24.044174,-104.0
2023-08-12 16:36:24.051864,-114.0
2023-08-12 16:36:24.059553,-90.0
2023-08-12 16:36:24.067243,-64.0
2023-08-12 16:36:24.074933,-59.0
2023-08-12 16:36:24.082623,-61.0
2023-08-12 16:36:24.090313,-52.0
2023-08-12 16:36:24.098002,-42.0
2023-08-12 16:36:24.105692,-47.0
2023-08-12 16:36:24.113382,-57.0
2023-08-12 16:36:24.121072,-66.0
2023-08-12 16:36:24.128762,-61.0
2023-08-12 16:36:24.136451,-57.0
2023-08-12 16:36:24.144141,-57.0
2023-08-12 16:36:24.151831,-69.0
2023-08-12 16:36:24.159521,-178.0
2023-08-12 16:36:24.167210,-454.0
2023-08-12 16:36:24.174900,-685.0
2023-08-12 16:36:24.182590,-411.0
2023-08-12 16:36:24.190280,99.0
2023-08-12 16:36:24.197970,88.0
2023-08-12 16:36:24.205659,-133.0
2023-08-12 16:36:24.213349,-49.0
2023-08-12 16:36:24.221039,16.0
2023-08-12 16:36:24.228729,-54.0
2023-08-12 16:36:24.236419,-49.0
2023-08-12 16:36:24.244108,-21.0
2023-08-12 16:36:24.251798,-42.0
2023-08-12 16:36:24.259488,-45.0
2023-08-12 16:36:24.267178,-28.0
2023-08-12 16:36:24.274868,-42.0
2023-08-12 16:36:24.282557,-52.0
2023-08-12 16:36:24.290247,-45.0
2023-08-12 16:36:24.297937,-45.0
2023-08-12 16:36:24.305627,-47.0
2023-08-12 16:36:24.313317,-59.0
2023-08-12 16:36:24.321006,-69.0
2023-08-12 16:36:24.328696,-59.0
2023-08-12 16:36:24.336386,-52.0
2023-08-12 16:36:24.344076,-61.0
2023-08-12 16:36:24.351766,-78.0
2023-08-12 16:36:24.359455,-88.0
2023-08-12 16:36:24.367145,-88.0
2023-08-12 16:36:24.374835,-88.0
2023-08-12 16:36:24.382525,-107.0
2023-08-12 16:36:24.390214,-123.0
2023-08-12 16:36:24.397904,-123.0
2023-08-12 16:36:24.405594,-121.0
2023-08-12 16:36:24.413284,-130.0
2023-08-12 16:36:24.420974,-138.0
2023-08-12 16:36:24.428663,-140.0
2023-08-12 16:36:24.436353,-147.0
2023-08-12 16:36:24.444043,-152.0
2023-08-12 16:36:24.451733,-138.0
2023-08-12 16:36:24.459423,-121.0
2023-08-12 16:36:24.467112,-102.0
2023-08-12 16:36:24.474802,-71.0
2023-08-12 16:36:24.482492,-35.0
2023-08-12 16:36:24.490182,-16.0
2023-08-12 16:36:24.497872,-14.0
2023-08-12 16:36:24.505561,-2.0
2023-08-12 16:36:24.513251,4.0
2023-08-12 16:36:24.520941,0.0
2023-08-12 16:36:24.528631,2.0
2023-08-12 16:36:24.536321,14.0
2023-08-12 16:36:24.544010,0.0
2023-08-12 16:36:24.551700,-14.0
2023-08-12 16:36:24.559390,-9.0
2023-08-12 16:36:24.567080,-4.0
2023-08-12 16:36:24.574769,0.0
2023-08-12 16:36:24.582459,-7.0
2023-08-12 16:36:24.590149,-14.0
2023-08-12 16:36:24.597839,-9.0
2023-08-12 16:36:24.605529,-14.0
2023-08-12 16:36:24.613218,-23.0
2023-08-12 16:36:24.620908,-19.0
2023-08-12 16:36:24.628598,-14.0
2023-08-12 16:36:24.636288,-19.0
2023-08-12 16:36:24.643978,-19.0
2023-08-12 16:36:24.651667,-16.0
2023-08-12 16:36:24.659357,-14.0
2023-08-12 16:36:24.667047,-16.0
2023-08-12 16:36:24.674737,-23.0
2023-08-12 16:36:24.682427,-21.0
2023-08-12 16:36:24.690116,-11.0
2023-08-12 16:36:24.697806,-21.0
2023-08-12 16:36:24.705496,-38.0
2023-08-12 16:36:24.713186,-30.0
2023-08-12 16:36:24.720876,-16.0
2023-08-12 16:36:24.728565,-14.0
2023-08-12 16:36:24.736255,-14.0
2023-08-12 16:36:24.743945,-14.0
2023-08-12 16:36:24.751635,-16.0
2023-08-12 16:36:24.759325,-9.0
2023-08-12 16:36:24.767014,-9.0
2023-08-12 16:36:24.774704,-11.0
2023-08-12 16:36:24.782394,0.0
2023-08-12 16:36:24.790084,4.0
2023-08-12 16:36:24.797773,-14.0
2023-08-12 16:36:24.805463,-21.0
2023-08-12 16:36:24.813153,-4.0
2023-08-12 16:36:24.820843,-4.0
2023-08-12 16:36:24.828533,-2.0
2023-08-12 16:36:24.836222,7.0
2023-08-12 16:36:24.843912,2.0
2023-08-12 16:36:24.851602,-7.0
2023-08-12 16:36:24.859292,0.0
2023-08-12 16:36:24.866982,2.0
2023-08-12 16:36:24.874671,0.0
2023-08-12 16:36:24.882361,4.0
2023-08-12 16:36:24.890051,2.0
2023-08-12 16:36:24.897741,0.0
2023-08-12 16:36:24.905431,11.0
2023-08-12 16:36:24.913120,11.0
2023-08-12 16:36:24.920810,-11.0
2023-08-12 16:36:24.928500,-11.0
2023-08-12 16:36:24.936190,14.0
2023-08-12 16:36:24.943880,21.0
2023-08-12 16:36:24.951569,2.0
2023-08-12 16:36:24.959259,-4.0
2023-08-12 16:36:24.966949,2.0
2023-08-12 16:36:24.974639,4.0
2023-08-12 16:36:24.982328,-7.0
2023-08-12 16:36:24.990018,-16.0
2023-08-12 16:36:24.997708,-19.0
2023-08-12 16:36:25.005398,-38.0
2023-08-12 16:36:25.013088,-38.0
2023-08-12 16:36:25.020777,0.0
2023-08-12 16:36:25.028467,21.0
2023-08-12 16:36:25.036157,4.0
2023-08-12 16:36:25.043847,-9.0
2023-08-12 16:36:25.051537,0.0
2023-08-12 16:36:25.059226,11.0
2023-08-12 16:36:25.066916,4.0
2023-08-12 16:36:25.074606,0.0
2023-08-12 16:36:25.082296,7.0
2023-08-12 16:36:25.089986,4.0
2023-08-12 16:36:25.097675,-2.0
2023-08-12 16:36:25.105365,-7.0
2023-08-12 16:36:25.113055,-95.0
2023-08-12 16:36:25.120745,-314.0
2023-08-12 16:36:25.128435,-578.0
2023-08-12 16:36:25.136124,-466.0
2023-08-12 16:36:25.143814,54.0
2023-08-12 16:36:25.151504,207.0
2023-08-12 16:36:25.159194,-47.0
2023-08-12 16:36:25.166884,-61.0
2023-08-12 16:36:25.174573,38.0
2023-08-12 16:36:25.182263,-2.0
2023-08-12 16:36:25.189953,-16.0
2023-08-12 16:36:25.197643,19.0
2023-08-12 16:36:25.205332,9.0
2023-08-12 16:36:25.213022,-11.0
2023-08-12 16:36:25.220712,-14.0
2023-08-12 16:36:25.228402,-14.0
2023-08-12 16:36:25.236092,-19.0
2023-08-12 16:36:25.243781,-21.0
2023-08-12 16:36:25.251471,-19.0
2023-08-12 16:36:25.259161,-21.0
2023-08-12 16:36:25.266851,-35.0
2023-08-12 16:36:25.274541,-38.0
2023-08-12 16:36:25.282230,-28.0
2023-08-12 16:36:25.289920,-38.0
2023-08-12 16:36:25.297610,-42.0
2023-08-12 16:36:25.305300,-33.0
2023-08-12 16:36:25.312990,-47.0
2023-08-12 16:36:25.320679,-73.0
2023-08-12 16:36:25.328369,-69.0
2023-08-12 16:36:25.336059,-69.0
2023-08-12 16:36:25.343749,-83.0
2023-08-12 16:36:25.351439,-88.0
2023-08-12 16:36:25.359128,-90.0
2023-08-12 16:36:25.366818,-99.0
2023-08-12 16:36:25.374508,-104.0
2023-08-12 16:36:25.382198,-104.0
2023-08-12 16:36:25.389887,-107.0
2023-08-12 16:36:25.397577,-102.0
2023-08-12 16:36:25.405267,-95.0
2023-08-12 16:36:25.412957,-92.0
2023-08-12 16:36:25.420647,-78.0
2023-08-12 16:36:25.428336,-47.0
2023-08-12 16:36:25.436026,-28.0
2023-08-12 16:36:25.443716,-11.0
2023-08-12 16:36:25.451406,14.0
2023-08-12 16:36:25.459096,26.0
2023-08-12 16:36:25.466785,38.0
2023-08-12 16:36:25.474475,42.0
2023-08-12 16:36:25.482165,38.0
2023-08-12 16:36:25.489855,47.0
2023-08-12 16:36:25.497545,54.0
2023-08-12 16:36:25.505234,38.0
2023-08-12 16:36:25.512924,30.0
2023-08-12 16:36:25.520614,33.0
2023-08-12 16:36:25.528304,33.0
2023-08-12 16:36:25.535994,35.0
2023-08-12 16:36:25.543683,40.0
2023-08-12 16:36:25.551373,21.0
2023-08-12 16:36:25.559063,2.0
2023-08-12 16:36:25.566753,9.0
2023-08-12 16:36:25.574443,9.0
2023-08-12 16:36:25.582132,2.0
2023-08-12 16:36:25.589822,9.0
2023-08-12 16:36:25.597512,16.0
2023-08-12 16:36:25.605202,11.0
2023-08-12 16:36:25.612891,4.0
2023-08-12 16:36:25.620581,14.0
2023-08-12 16:36:25.628271,19.0
2023-08-12 16:36:25.635961,16.0
2023-08-12 16:36:25.643651,21.0
2023-08-12 16:36:25.651340,23.0
2023-08-12 16:36:25.659030,21.0
2023-08-12 16:36:25.666720,21.0
2023-08-12 16:36:25.674410,23.0
2023-08-12 16:36:25.682100,23.0
2023-08-12 16:36:25.689789,23.0
2023-08-12 16:36:25.697479,23.0
2023-08-12 16:36:25.705169,21.0
2023-08-12 16:36:25.712859,21.0
2023-08-12 16:36:25.720549,19.0
2023-08-12 16:36:25.728238,21.0
2023-08-12 16:36:25.735928,30.0
2023-08-12 16:36:25.743618,23.0
2023-08-12 16:36:25.751308,7.0
2023-08-12 16:36:25.758998,-2.0
2023-08-12 16:36:25.766687,-9.0
2023-08-12 16:36:25.774377,-19.0
2023-08-12 16:36:25.782067,-19.0
2023-08-12 16:36:25.789757,-2.0
2023-08-12 16:36:25.797446,9.0
2023-08-12 16:36:25.805136,16.0
2023-08-12 16:36:25.812826,21.0
2023-08-12 16:36:25.820516,19.0
2023-08-12 16:36:25.828206,11.0
2023-08-12 16:36:25.835895,2.0
2023-08-12 16:36:25.843585,0.0
2023-08-12 16:36:25.851275,4.0
2023-08-12 16:36:25.858965,2.0
2023-08-12 16:36:25.866655,-9.0
2023-08-12 16:36:25.874344,-21.0
2023-08-12 16:36:25.882034,-88.0
2023-08-12 16:36:25.889724,-292.0
2023-08-12 16:36:25.897414,-573.0
2023-08-12 16:36:25.905104,-485.0
2023-08-12 16:36:25.912793,57.0
2023-08-12 16:36:25.920483,249.0
2023-08-12 16:36:25.928173,-30.0
2023-08-12 16:36:25.935863,-71.0
2023-08-12 16:36:25.943553,54.0
2023-08-12 16:36:25.951242,4.0
2023-08-12 16:36:25.958932,-40.0
2023-08-12 16:36:25.966622,0.0
2023-08-12 16:36:25.974312,-2.0
2023-08-12 16:36:25.982002,-21.0
2023-08-12 16:36:25.989691,-21.0
2023-08-12 16:36:25.997381,-19.0
2023-08-12 16:36:26.005071,-19.0
2023-08-12 16:36:26.012761,-21.0
2023-08-12 16:36:26.020450,-26.0
2023-08-12 16:36:26.028140,-30.0
2023-08-12 16:36:26.035830,-38.0
2023-08-12 16:36:26.043520,-38.0
2023-08-12 16:36:26.051210,-45.0
2023-08-12 16:36:26.058899,-69.0
2023-08-12 16:36:26.066589,-73.0
2023-08-12 16:36:26.074279,-73.0
2023-08-12 16:36:26.081969,-85.0
2023-08-12 16:36:26.089659,-97.0
2023-08-12 16:36:26.097348,-111.0
2023-08-12 16:36:26.105038,-116.0
2023-08-12 16:36:26.112728,-121.0
2023-08-12 16:36:26.120418,-138.0
2023-08-12 16:36:26.128108,-152.0
2023-08-12 16:36:26.135797,-161.0
2023-08-12 16:36:26.143487,-166.0
2023-08-12 16:36:26.151177,-166.0
2023-08-12 16:36:26.158867,-171.0
2023-08-12 16:36:26.166557,-173.0
2023-08-12 16:36:26.174246,-164.0
2023-08-12 16:36:26.181936,-145.0
2023-08-12 16:36:26.189626,-121.0
2023-08-12 16:36:26.197316,-99.0
2023-08-12 16:36:26.205005,-85.0
2023-08-12 16:36:26.212695,-71.0
2023-08-12 16:36:26.220385,-54.0
2023-08-12 16:36:26.228075,-38.0
2023-08-12 16:36:26.235765,-26.0
2023-08-12 16:36:26.243454,-28.0
2023-08-12 16:36:26.251144,-33.0
2023-08-12 16:36:26.258834,-33.0
2023-08-12 16:36:26.266524,-33.0
2023-08-12 16:36:26.274214,-28.0
2023-08-12 16:36:26.281903,-33.0
2023-08-12 16:36:26.289593,-47.0
2023-08-12 16:36:26.297283,-49.0
2023-08-12 16:36:26.304973,-45.0
2023-08-12 16:36:26.312663,-47.0
2023-08-12 16:36:26.320352,-54.0
2023-08-12 16:36:26.328042,-52.0
2023-08-12 16:36:26.335732,-54.0
2023-08-12 16:36:26.343422,-69.0
2023-08-12 16:36:26.351112,-71.0
2023-08-12 16:36:26.358801,-61.0
2023-08-12 16:36:26.366491,-57.0
2023-08-12 16:36:26.374181,-54.0
2023-08-12 16:36:26.381871,-54.0
2023-08-12 16:36:26.389561,-59.0
2023-08-12 16:36:26.397250,-59.0
2023-08-12 16:36:26.404940,-54.0
2023-08-12 16:36:26.412630,-52.0
2023-08-12 16:36:26.420320,-54.0
2023-08-12 16:36:26.428009,-59.0
2023-08-12 16:36:26.435699,-54.0
2023-08-12 16:36:26.443389,-52.0
2023-08-12 16:36:26.451079,-52.0
2023-08-12 16:36:26.458769,-52.0
2023-08-12 16:36:26.466458,-49.0
2023-08-12 16:36:26.474148,-49.0
2023-08-12 16:36:26.481838,-54.0
2023-08-12 16:36:26.489528,-54.0
2023-08-12 16:36:26.497218,-52.0
2023-08-12 16:36:26.504907,-45.0
2023-08-12 16:36:26.512597,-40.0
2023-08-12 16:36:26.520287,-52.0
2023-08-12 16:36:26.527977,-59.0
2023-08-12 16:36:26.535667,-49.0
2023-08-12 16:36:26.543356,-47.0
2023-08-12 16:36:26.551046,-57.0
2023-08-12 16:36:26.558736,-61.0
2023-08-12 16:36:26.566426,-57.0
2023-08-12 16:36:26.574116,-54.0
2023-08-12 16:36:26.581805,-64.0
2023-08-12 16:36:26.589495,-83.0
2023-08-12 16:36:26.597185,-92.0
2023-08-12 16:36:26.604875,-97.0
2023-08-12 16:36:26.612564,-104.0
2023-08-12 16:36:26.620254,-85.0
2023-08-12 16:36:26.627944,-54.0
2023-08-12 16:36:26.635634,-49.0
2023-08-12 16:36:26.643324,-59.0
2023-08-12 16:36:26.651013,-57.0
2023-08-12 16:36:26.658703,-47.0
2023-08-12 16:36:26.666393,-47.0
2023-08-12 16:36:26.674083,-49.0
2023-08-12 16:36:26.681773,-49.0
2023-08-12 16:36:26.689462,-47.0
2023-08-12 16:36:26.697152,-47.0
2023-08-12 16:36:26.704842,-47.0
2023-08-12 16:36:26.712532,-69.0
2023-08-12 16:36:26.720222,-188.0
2023-08-12 16:36:26.727911,-461.0
2023-08-12 16:36:26.735601,-678.0
2023-08-12 16:36:26.743291,-383.0
2023-08-12 16:36:26.750981,133.0
2023-08-12 16:36:26.758671,107.0
2023-08-12 16:36:26.766360,-119.0
2023-08-12 16:36:26.774050,-33.0
2023-08-12 16:36:26.781740,30.0
2023-08-12 16:36:26.789430,-40.0
2023-08-12 16:36:26.797120,-33.0
2023-08-12 16:36:26.804809,-7.0
2023-08-12 16:36:26.812499,-38.0
2023-08-12 16:36:26.820189,-42.0
2023-08-12 16:36:26.827879,-23.0
2023-08-12 16:36:26.835568,-35.0
2023-08-12 16:36:26.843258,-47.0
2023-08-12 16:36:26.850948,-40.0
2023-08-12 16:36:26.858638,-45.0
2023-08-12 16:36:26.866328,-49.0
2023-08-12 16:36:26.874017,-45.0
2023-08-12 16:36:26.881707,-52.0
2023-08-12 16:36:26.889397,-66.0
2023-08-12 16:36:26.897087,-73.0
2023-08-12 16:36:26.904777,-78.0
2023-08-12 16:36:26.912466,-83.0
2023-08-12 16:36:26.920156,-85.0
2023-08-12 16:36:26.927846,-92.0
2023-08-12 16:36:26.935536,-107.0
2023-08-12 16:36:26.943226,-121.0
2023-08-12 16:36:26.950915,-126.0
2023-08-12 16:36:26.958605,-130.0
2023-08-12 16:36:26.966295,-135.0
2023-08-12 16:36:26.973985,-142.0
2023-08-12 16:36:26.981675,-154.0
2023-08-12 16:36:26.989364,-164.0
2023-08-12 16:36:26.997054,-157.0
2023-08-12 16:36:27.004744,-147.0
2023-08-12 16:36:27.012434,-147.0
2023-08-12 16:36:27.020123,-142.0
2023-08-12 16:36:27.027813,-119.0
2023-08-12 16:36:27.035503,-83.0
2023-08-12 16:36:27.043193,-49.0
2023-08-12 16:36:27.050883,-35.0
2023-08-12 16:36:27.058572,-40.0
2023-08-12 16:36:27.066262,-35.0
2023-08-12 16:36:27.073952,-16.0
2023-08-12 16:36:27.081642,-14.0
2023-08-12 16:36:27.089332,-21.0
2023-08-12 16:36:27.097021,-19.0
2023-08-12 16:36:27.104711,-16.0
2023-08-12 16:36:27.112401,-21.0
2023-08-12 16:36:27.120091,-23.0
2023-08-12 16:36:27.127781,-23.0
2023-08-12 16:36:27.135470,-23.0
2023-08-12 16:36:27.143160,-30.0
2023-08-12 16:36:27.150850,-33.0
2023-08-12 16:36:27.158540,-30.0
2023-08-12 16:36:27.166230,-28.0
2023-08-12 16:36:27.173919,-28.0
2023-08-12 16:36:27.181609,-33.0
2023-08-12 16:36:27.189299,-33.0
2023-08-12 16:36:27.196989,-33.0
2023-08-12 16:36:27.204679,-38.0
2023-08-12 16:36:27.212368,-42.0
2023-08-12 16:36:27.220058,-42.0
2023-08-12 16:36:27.227748,-33.0
2023-08-12 16:36:27.235438,-28.0
2023-08-12 16:36:27.243127,-28.0
2023-08-12 16:36:27.250817,-30.0
2023-08-12 16:36:27.258507,-28.0
2023-08-12 16:36:27.266197,-30.0
2023-08-12 16:36:27.273887,-33.0
2023-08-12 16:36:27.281576,-30.0
2023-08-12 16:36:27.289266,-26.0
2023-08-12 16:36:27.296956,-26.0
2023-08-12 16:36:27.304646,-28.0
2023-08-12 16:36:27.312336,-33.0
2023-08-12 16:36:27.320025,-33.0
2023-08-12 16:36:27.327715,-38.0
2023-08-12 16:36:27.335405,-42.0
2023-08-12 16:36:27.343095,-38.0
2023-08-12 16:36:27.350785,-35.0
2023-08-12 16:36:27.358474,-38.0
2023-08-12 16:36:27.366164,-40.0
2023-08-12 16:36:27.373854,-45.0
2023-08-12 16:36:27.381544,-45.0
2023-08-12 16:36:27.389234,-45.0
2023-08-12 16:36:27.396923,-45.0
2023-08-12 16:36:27.404613,-45.0
2023-08-12 16:36:27.412303,-45.0
2023-08-12 16:36:27.419993,-49.0
2023-08-12 16:36:27.427682,-57.0
2023-08-12 16:36:27.435372,-54.0
2023-08-12 16:36:27.443062,-47.0
2023-08-12 16:36:27.450752,-49.0
2023-08-12 16:36:27.458442,-64.0
2023-08-12 16:36:27.466131,-78.0
2023-08-12 16:36:27.473821,-83.0
2023-08-12 16:36:27.481511,-88.0
2023-08-12 16:36:27.489201,-85.0
2023-08-12 16:36:27.496891,-69.0
2023-08-12 16:36:27.504580,-45.0
2023-08-12 16:36:27.512270,-38.0
2023-08-12 16:36:27.519960,-38.0
2023-08-12 16:36:27.527650,-33.0
2023-08-12 16:36:27.535340,-28.0
2023-08-12 16:36:27.543029,-30.0
2023-08-12 16:36:27.550719,-33.0
2023-08-12 16:36:27.558409,-33.0
2023-08-12 16:36:27.566099,-30.0
2023-08-12 16:36:27.573789,-30.0
2023-08-12 16:36:27.581478,-38.0
2023-08-12 16:36:27.589168,-80.0
2023-08-12 16:36:27.596858,-235.0
2023-08-12 16:36:27.604548,-523.0
2023-08-12 16:36:27.612237,-599.0
2023-08-12 16:36:27.619927,-140.0
2023-08-12 16:36:27.627617,226.0
2023-08-12 16:36:27.635307,28.0
2023-08-12 16:36:27.642997,-97.0
2023-08-12 16:36:27.650686,38.0
2023-08-12 16:36:27.658376,40.0
2023-08-12 16:36:27.666066,-16.0
2023-08-12 16:36:27.673756,14.0
2023-08-12 16:36:27.681446,23.0
2023-08-12 16:36:27.689135,-2.0
2023-08-12 16:36:27.696825,0.0
2023-08-12 16:36:27.704515,7.0
2023-08-12 16:36:27.712205,4.0
2023-08-12 16:36:27.719895,-2.0
2023-08-12 16:36:27.727584,-4.0
2023-08-12 16:36:27.735274,-7.0
2023-08-12 16:36:27.742964,-9.0
2023-08-12 16:36:27.750654,-14.0
2023-08-12 16:36:27.758344,-19.0
2023-08-12 16:36:27.766033,-28.0
2023-08-12 16:36:27.773723,-33.0
2023-08-12 16:36:27.781413,-40.0
2023-08-12 16:36:27.789103,-49.0
2023-08-12 16:36:27.796793,-57.0
2023-08-12 16:36:27.804482,-66.0
2023-08-12 16:36:27.812172,-73.0
2023-08-12 16:36:27.819862,-73.0
2023-08-12 16:36:27.827552,-88.0
2023-08-12 16:36:27.835241,-102.0
2023-08-12 16:36:27.842931,-104.0
2023-08-12 16:36:27.850621,-109.0
2023-08-12 16:36:27.858311,-123.0
2023-08-12 16:36:27.866001,-128.0
2023-08-12 16:36:27.873690,-130.0
2023-08-12 16:36:27.881380,-135.0
2023-08-12 16:36:27.889070,-128.0
2023-08-12 16:36:27.896760,-107.0
2023-08-12 16:36:27.904450,-80.0
2023-08-12 16:36:27.912139,-59.0
2023-08-12 16:36:27.919829,-40.0
2023-08-12 16:36:27.927519,-23.0
2023-08-12 16:36:27.935209,-7.0
2023-08-12 16:36:27.942899,2.0
2023-08-12 16:36:27.950588,4.0
2023-08-12 16:36:27.958278,7.0
2023-08-12 16:36:27.965968,11.0
2023-08-12 16:36:27.973658,4.0
2023-08-12 16:36:27.981348,4.0
2023-08-12 16:36:27.989037,14.0
2023-08-12 16:36:27.996727,11.0
2023-08-12 16:36:28.004417,2.0
2023-08-12 16:36:28.012107,0.0
2023-08-12 16:36:28.019796,4.0
2023-08-12 16:36:28.027486,7.0
2023-08-12 16:36:28.035176,0.0
2023-08-12 16:36:28.042866,-7.0
2023-08-12 16:36:28.050556,-9.0
2023-08-12 16:36:28.058245,-9.0
2023-08-12 16:36:28.065935,-14.0
2023-08-12 16:36:28.073625,-11.0
2023-08-12 16:36:28.081315,-4.0
2023-08-12 16:36:28.089005,-4.0
2023-08-12 16:36:28.096694,-4.0
2023-08-12 16:36:28.104384,-2.0
2023-08-12 16:36:28.112074,-2.0
2023-08-12 16:36:28.119764,0.0
2023-08-12 16:36:28.127454,7.0
2023-08-12 16:36:28.135143,7.0
2023-08-12 16:36:28.142833,4.0
2023-08-12 16:36:28.150523,9.0
2023-08-12 16:36:28.158213,14.0
2023-08-12 16:36:28.165903,11.0
2023-08-12 16:36:28.173592,14.0
2023-08-12 16:36:28.181282,16.0
2023-08-12 16:36:28.188972,16.0
2023-08-12 16:36:28.196662,21.0
2023-08-12 16:36:28.204352,14.0
2023-08-12 16:36:28.212041,-4.0
2023-08-12 16:36:28.219731,-14.0
2023-08-12 16:36:28.227421,-14.0
2023-08-12 16:36:28.235111,-16.0
2023-08-12 16:36:28.242800,-7.0
2023-08-12 16:36:28.250490,19.0
2023-08-12 16:36:28.258180,28.0
2023-08-12 16:36:28.265870,23.0
2023-08-12 16:36:28.273560,28.0
2023-08-12 16:36:28.281249,28.0
2023-08-12 16:36:28.288939,23.0
2023-08-12 16:36:28.296629,23.0
2023-08-12 16:36:28.304319,23.0
2023-08-12 16:36:28.312009,28.0
2023-08-12 16:36:28.319698,26.0
2023-08-12 16:36:28.327388,19.0
2023-08-12 16:36:28.335078,0.0
2023-08-12 16:36:28.342768,-97.0
2023-08-12 16:36:28.350458,-338.0
2023-08-12 16:36:28.358147,-542.0
2023-08-12 16:36:28.365837,-273.0
2023-08-12 16:36:28.373527,233.0
2023-08-12 16:36:28.381217,209.0
2023-08-12 16:36:28.388907,-45.0
2023-08-12 16:36:28.396596,26.0
2023-08-12 16:36:28.404286,92.0
2023-08-12 16:36:28.411976,11.0
2023-08-12 16:36:28.419666,14.0
2023-08-12 16:36:28.427355,54.0
2023-08-12 16:36:28.435045,30.0
2023-08-12 16:36:28.442735,16.0
2023-08-12 16:36:28.450425,26.0
2023-08-12 16:36:28.458115,16.0
2023-08-12 16:36:28.465804,0.0
2023-08-12 16:36:28.473494,4.0
2023-08-12 16:36:28.481184,2.0
2023-08-12 16:36:28.488874,-4.0
2023-08-12 16:36:28.496564,-7.0
2023-08-12 16:36:28.504253,-16.0
2023-08-12 16:36:28.511943,-28.0
2023-08-12 16:36:28.519633,-30.0
2023-08-12 16:36:28.527323,-35.0
2023-08-12 16:36:28.535013,-49.0
2023-08-12 16:36:28.542702,-57.0
2023-08-12 16:36:28.550392,-61.0
2023-08-12 16:36:28.558082,-69.0
2023-08-12 16:36:28.565772,-78.0
2023-08-12 16:36:28.573462,-90.0
2023-08-12 16:36:28.581151,-104.0
2023-08-12 16:36:28.588841,-111.0
2023-08-12 16:36:28.596531,-119.0
2023-08-12 16:36:28.604221,-121.0
2023-08-12 16:36:28.611911,-121.0
2023-08-12 16:36:28.619600,-123.0
2023-08-12 16:36:28.627290,-126.0
2023-08-12 16:36:28.634980,-114.0
2023-08-12 16:36:28.642670,-90.0
2023-08-12 16:36:28.650359,-69.0
2023-08-12 16:36:28.658049,-49.0
2023-08-12 16:36:28.665739,-26.0
2023-08-12 16:36:28.673429,-9.0
2023-08-12 16:36:28.681119,0.0
2023-08-12 16:36:28.688808,7.0
2023-08-12 16:36:28.696498,11.0
2023-08-12 16:36:28.704188,11.0
2023-08-12 16:36:28.711878,7.0
2023-08-12 16:36:28.719568,2.0
2023-08-12 16:36:28.727257,0.0
2023-08-12 16:36:28.734947,-7.0
2023-08-12 16:36:28.742637,-14.0
2023-08-12 16:36:28.750327,-16.0
2023-08-12 16:36:28.758017,-16.0
2023-08-12 16:36:28.765706,-21.0
2023-08-12 16:36:28.773396,-26.0
2023-08-12 16:36:28.781086,-30.0
2023-08-12 16:36:28.788776,-33.0
2023-08-12 16:36:28.796466,-38.0
2023-08-12 16:36:28.804155,-38.0
2023-08-12 16:36:28.811845,-35.0
2023-08-12 16:36:28.819535,-35.0
2023-08-12 16:36:28.827225,-35.0
2023-08-12 16:36:28.834914,-38.0
2023-08-12 16:36:28.842604,-38.0
2023-08-12 16:36:28.850294,-35.0
2023-08-12 16:36:28.857984,-33.0
2023-08-12 16:36:28.865674,-30.0
2023-08-12 16:36:28.873363,-30.0
2023-08-12 16:36:28.881053,-33.0
2023-08-12 16:36:28.888743,-30.0
2023-08-12 16:36:28.896433,-30.0
2023-08-12 16:36:28.904123,-30.0
2023-08-12 16:36:28.911812,-30.0
2023-08-12 16:36:28.919502,-30.0
2023-08-12 16:36:28.927192,-30.0
2023-08-12 16:36:28.934882,-42.0
2023-08-12 16:36:28.942572,-59.0
2023-08-12 16:36:28.950261,-66.0
2023-08-12 16:36:28.957951,-69.0
2023-08-12 16:36:28.965641,-69.0
2023-08-12 16:36:28.973331,-47.0
2023-08-12 16:36:28.981021,-26.0
2023-08-12 16:36:28.988710,-26.0
2023-08-12 16:36:28.996400,-35.0
2023-08-12 16:36:29.004090,-38.0
2023-08-12 16:36:29.011780,-33.0
2023-08-12 16:36:29.019470,-33.0
2023-08-12 16:36:29.027159,-35.0
2023-08-12 16:36:29.034849,-40.0
2023-08-12 16:36:29.042539,-40.0
2023-08-12 16:36:29.050229,-35.0
2023-08-12 16:36:29.057918,-38.0
2023-08-12 16:36:29.065608,-78.0
2023-08-12 16:36:29.073298,-226.0
2023-08-12 16:36:29.080988,-521.0
2023-08-12 16:36:29.088678,-668.0
2023-08-12 16:36:29.096367,-259.0
2023-08-12 16:36:29.104057,207.0
2023-08-12 16:36:29.111747,66.0
2023-08-12 16:36:29.119437,-130.0
2023-08-12 16:36:29.127127,-7.0
2023-08-12 16:36:29.134816,21.0
2023-08-12 16:36:29.142506,-49.0
2023-08-12 16:36:29.150196,-23.0
2023-08-12 16:36:29.157886,0.0
2023-08-12 16:36:29.165576,-26.0
2023-08-12 16:36:29.173265,-28.0
2023-08-12 16:36:29.180955,-19.0
2023-08-12 16:36:29.188645,-28.0
2023-08-12 16:36:29.196335,-33.0
2023-08-12 16:36:29.204025,-28.0
2023-08-12 16:36:29.211714,-33.0
2023-08-12 16:36:29.219404,-40.0
2023-08-12 16:36:29.227094,-42.0
2023-08-12 16:36:29.234784,-45.0
2023-08-12 16:36:29.242473,-52.0
2023-08-12 16:36:29.250163,-57.0
2023-08-12 16:36:29.257853,-61.0
2023-08-12 16:36:29.265543,-69.0
2023-08-12 16:36:29.273233,-78.0
2023-08-12 16:36:29.280922,-88.0
2023-08-12 16:36:29.288612,-95.0
2023-08-12 16:36:29.296302,-102.0
2023-08-12 16:36:29.303992,-114.0
2023-08-12 16:36:29.311682,-126.0
2023-08-12 16:36:29.319371,-133.0
2023-08-12 16:36:29.327061,-135.0
2023-08-12 16:36:29.334751,-140.0
2023-08-12 16:36:29.342441,-145.0
2023-08-12 16:36:29.350131,-145.0
2023-08-12 16:36:29.357820,-138.0
2023-08-12 16:36:29.365510,-123.0
2023-08-12 16:36:29.373200,-102.0
2023-08-12 16:36:29.380890,-76.0
2023-08-12 16:36:29.388580,-52.0
2023-08-12 16:36:29.396269,-30.0
2023-08-12 16:36:29.403959,-14.0
2023-08-12 16:36:29.411649,-2.0
2023-08-12 16:36:29.419339,4.0
2023-08-12 16:36:29.427029,2.0
2023-08-12 16:36:29.434718,2.0
2023-08-12 16:36:29.442408,2.0
2023-08-12 16:36:29.450098,0.0
2023-08-12 16:36:29.457788,-2.0
2023-08-12 16:36:29.465477,-4.0
2023-08-12 16:36:29.473167,-9.0
2023-08-12 16:36:29.480857,-16.0
2023-08-12 16:36:29.488547,-21.0
2023-08-12 16:36:29.496237,-21.0
2023-08-12 16:36:29.503926,-26.0
2023-08-12 16:36:29.511616,-30.0
2023-08-12 16:36:29.519306,-35.0
2023-08-12 16:36:29.526996,-40.0
2023-08-12 16:36:29.534686,-47.0
2023-08-12 16:36:29.542375,-54.0
2023-08-12 16:36:29.550065,-54.0
2023-08-12 16:36:29.557755,-49.0
2023-08-12 16:36:29.565445,-49.0
2023-08-12 16:36:29.573135,-54.0
2023-08-12 16:36:29.580824,-59.0
2023-08-12 16:36:29.588514,-57.0
2023-08-12 16:36:29.596204,-49.0
2023-08-12 16:36:29.603894,-47.0
2023-08-12 16:36:29.611584,-49.0
2023-08-12 16:36:29.619273,-49.0
2023-08-12 16:36:29.626963,-47.0
2023-08-12 16:36:29.634653,-49.0
2023-08-12 16:36:29.642343,-47.0
2023-08-12 16:36:29.650032,-45.0
2023-08-12 16:36:29.657722,-45.0
2023-08-12 16:36:29.665412,-47.0
2023-08-12 16:36:29.673102,-45.0
2023-08-12 16:36:29.680792,-42.0
2023-08-12 16:36:29.688481,-45.0
2023-08-12 16:36:29.696171,-40.0
2023-08-12 16:36:29.703861,-38.0
2023-08-12 16:36:29.711551,-42.0
2023-08-12 16:36:29.719241,-47.0
2023-08-12 16:36:29.726930,-40.0
2023-08-12 16:36:29.734620,-38.0
2023-08-12 16:36:29.742310,-40.0
2023-08-12 16:36:29.750000,-42.0
2023-08-12 16:36:29.757690,-40.0
2023-08-12 16:36:29.765379,-38.0
2023-08-12 16:36:29.773069,-40.0
2023-08-12 16:36:29.780759,-47.0
2023-08-12 16:36:29.788449,-61.0
2023-08-12 16:36:29.796139,-73.0
2023-08-12 16:36:29.803828,-78.0
2023-08-12 16:36:29.811518,-83.0
2023-08-12 16:36:29.819208,-73.0
2023-08-12 16:36:29.826898,-49.0
2023-08-12 16:36:29.834588,-38.0
2023-08-12 16:36:29.842277,-38.0
2023-08-12 16:36:29.849967,-38.0
2023-08-12 16:36:29.857657,-35.0
2023-08-12 16:36:29.865347,-33.0
2023-08-12 16:36:29.873036,-33.0
2023-08-12 16:36:29.880726,-35.0
2023-08-12 16:36:29.888416,-38.0
2023-08-12 16:36:29.896106,-35.0
2023-08-12 16:36:29.903796,-33.0
2023-08-12 16:36:29.911485,-33.0
2023-08-12 16:36:29.919175,-95.0
2023-08-12 16:36:29.926865,-299.0
2023-08-12 16:36:29.934555,-606.0
2023-08-12 16:36:29.942245,-597.0
2023-08-12 16:36:29.949934,-66.0
2023-08-12 16:36:29.957624,214.0
2023-08-12 16:36:29.965314,-26.0
2023-08-12 16:36:29.973004,-90.0
2023-08-12 16:36:29.980694,38.0
2023-08-12 16:36:29.988383,4.0
2023-08-12 16:36:29.996073,-40.0
2023-08-12 16:36:30.003763,0.0
2023-08-12 16:36:30.011453,2.0
2023-08-12 16:36:30.019143,-23.0
2023-08-12 16:36:30.026832,-19.0
2023-08-12 16:36:30.034522,-16.0
2023-08-12 16:36:30.042212,-26.0
2023-08-12 16:36:30.049902,-28.0
2023-08-12 16:36:30.057591,-26.0
2023-08-12 16:36:30.065281,-33.0
2023-08-12 16:36:30.072971,-38.0
2023-08-12 16:36:30.080661,-40.0
2023-08-12 16:36:30.088351,-47.0
2023-08-12 16:36:30.096040,-54.0
2023-08-12 16:36:30.103730,-59.0
2023-08-12 16:36:30.111420,-64.0
2023-08-12 16:36:30.119110,-73.0
2023-08-12 16:36:30.126800,-90.0
2023-08-12 16:36:30.134489,-97.0
2023-08-12 16:36:30.142179,-95.0
2023-08-12 16:36:30.149869,-104.0
2023-08-12 16:36:30.157559,-119.0
2023-08-12 16:36:30.165249,-126.0
2023-08-12 16:36:30.172938,-128.0
2023-08-12 16:36:30.180628,-135.0
2023-08-12 16:36:30.188318,-140.0
2023-08-12 16:36:30.196008,-140.0
2023-08-12 16:36:30.203698,-140.0
2023-08-12 16:36:30.211387,-138.0
2023-08-12 16:36:30.219077,-126.0
2023-08-12 16:36:30.226767,-107.0
2023-08-12 16:36:30.234457,-80.0
2023-08-12 16:36:30.242147,-57.0
2023-08-12 16:36:30.249836,-38.0
2023-08-12 16:36:30.257526,-23.0
2023-08-12 16:36:30.265216,-11.0
2023-08-12 16:36:30.272906,-4.0
2023-08-12 16:36:30.280595,-2.0
2023-08-12 16:36:30.288285,-7.0
2023-08-12 16:36:30.295975,-7.0
2023-08-12 16:36:30.303665,-4.0
2023-08-12 16:36:30.311355,-11.0
2023-08-12 16:36:30.319044,-16.0
2023-08-12 16:36:30.326734,-16.0
2023-08-12 16:36:30.334424,-21.0
2023-08-12 16:36:30.342114,-26.0
2023-08-12 16:36:30.349804,-28.0
2023-08-12 16:36:30.357493,-28.0
2023-08-12 16:36:30.365183,-30.0
2023-08-12 16:36:30.372873,-30.0
2023-08-12 16:36:30.380563,-33.0
2023-08-12 16:36:30.388253,-35.0
2023-08-12 16:36:30.395942,-35.0
2023-08-12 16:36:30.403632,-35.0
2023-08-12 16:36:30.411322,-33.0
2023-08-12 16:36:30.419012,-35.0
2023-08-12 16:36:30.426702,-38.0
2023-08-12 16:36:30.434391,-33.0
2023-08-12 16:36:30.442081,-30.0
2023-08-12 16:36:30.449771,-30.0
2023-08-12 16:36:30.457461,-28.0
2023-08-12 16:36:30.465150,-26.0
2023-08-12 16:36:30.472840,-26.0
2023-08-12 16:36:30.480530,-26.0
2023-08-12 16:36:30.488220,-23.0
2023-08-12 16:36:30.495910,-23.0
2023-08-12 16:36:30.503599,-28.0
2023-08-12 16:36:30.511289,-33.0
2023-08-12 16:36:30.518979,-28.0
2023-08-12 16:36:30.526669,-26.0
2023-08-12 16:36:30.534359,-28.0
2023-08-12 16:36:30.542048,-28.0
2023-08-12 16:36:30.549738,-28.0
2023-08-12 16:36:30.557428,-28.0
2023-08-12 16:36:30.565118,-28.0
2023-08-12 16:36:30.572808,-26.0
2023-08-12 16:36:30.580497,-30.0
2023-08-12 16:36:30.588187,-33.0
2023-08-12 16:36:30.595877,-35.0
2023-08-12 16:36:30.603567,-30.0
2023-08-12 16:36:30.611257,-33.0
2023-08-12 16:36:30.618946,-40.0
2023-08-12 16:36:30.626636,-38.0
2023-08-12 16:36:30.634326,-35.0
2023-08-12 16:36:30.642016,-38.0
2023-08-12 16:36:30.649706,-35.0
2023-08-12 16:36:30.657395,-35.0
2023-08-12 16:36:30.665085,-35.0
2023-08-12 16:36:30.672775,-30.0
2023-08-12 16:36:30.680465,-30.0
2023-08-12 16:36:30.688154,-33.0
2023-08-12 16:36:30.695844,-33.0
2023-08-12 16:36:30.703534,-30.0
2023-08-12 16:36:30.711224,-33.0
2023-08-12 16:36:30.718914,-40.0
2023-08-12 16:36:30.726603,-45.0
2023-08-12 16:36:30.734293,-57.0
2023-08-12 16:36:30.741983,-71.0
2023-08-12 16:36:30.749673,-76.0
2023-08-12 16:36:30.757363,-71.0
2023-08-12 16:36:30.765052,-52.0
2023-08-12 16:36:30.772742,-38.0
2023-08-12 16:36:30.780432,-33.0
2023-08-12 16:36:30.788122,-23.0
2023-08-12 16:36:30.795812,-16.0
2023-08-12 16:36:30.803501,-21.0
2023-08-12 16:36:30.811191,-23.0
2023-08-12 16:36:30.818881,-19.0
2023-08-12 16:36:30.826571,-9.0
2023-08-12 16:36:30.834261,-9.0
2023-08-12 16:36:30.841950,-19.0
2023-08-12 16:36:30.849640,-26.0
2023-08-12 16:36:30.857330,-54.0
2023-08-12 16:36:30.865020,-188.0
2023-08-12 16:36:30.872709,-473.0
2023-08-12 16:36:30.880399,-614.0
2023-08-12 16:36:30.888089,-211.0
2023-08-12 16:36:30.895779,218.0
2023-08-12 16:36:30.903469,71.0
2023-08-12 16:36:30.911158,-95.0
2023-08-12 16:36:30.918848,35.0
2023-08-12 16:36:30.926538,57.0
2023-08-12 16:36:30.934228,-11.0
2023-08-12 16:36:30.941918,19.0
2023-08-12 16:36:30.949607,30.0
2023-08-12 16:36:30.957297,0.0
2023-08-12 16:36:30.964987,9.0
2023-08-12 16:36:30.972677,21.0
2023-08-12 16:36:30.980367,4.0
2023-08-12 16:36:30.988056,0.0
2023-08-12 16:36:30.995746,9.0
2023-08-12 16:36:31.003436,7.0
2023-08-12 16:36:31.011126,-4.0
2023-08-12 16:36:31.018816,-14.0
2023-08-12 16:36:31.026505,-9.0
2023-08-12 16:36:31.034195,-11.0
2023-08-12 16:36:31.041885,-26.0
2023-08-12 16:36:31.049575,-28.0
2023-08-12 16:36:31.057265,-26.0
2023-08-12 16:36:31.064954,-33.0
2023-08-12 16:36:31.072644,-40.0
2023-08-12 16:36:31.080334,-45.0
2023-08-12 16:36:31.088024,-52.0
2023-08-12 16:36:31.095713,-64.0
2023-08-12 16:36:31.103403,-76.0
2023-08-12 16:36:31.111093,-80.0
2023-08-12 16:36:31.118783,-83.0
2023-08-12 16:36:31.126473,-88.0
2023-08-12 16:36:31.134162,-88.0
2023-08-12 16:36:31.141852,-85.0
2023-08-12 16:36:31.149542,-83.0
2023-08-12 16:36:31.157232,-83.0
2023-08-12 16:36:31.164922,-80.0
2023-08-12 16:36:31.172611,-57.0
2023-08-12 16:36:31.180301,-26.0
2023-08-12 16:36:31.187991,-9.0
2023-08-12 16:36:31.195681,0.0
2023-08-12 16:36:31.203371,16.0
2023-08-12 16:36:31.211060,33.0
2023-08-12 16:36:31.218750,33.0
2023-08-12 16:36:31.226440,30.0
2023-08-12 16:36:31.234130,23.0
2023-08-12 16:36:31.241820,11.0
2023-08-12 16:36:31.249509,16.0
2023-08-12 16:36:31.257199,28.0
2023-08-12 16:36:31.264889,19.0
2023-08-12 16:36:31.272579,9.0
2023-08-12 16:36:31.280268,14.0
2023-08-12 16:36:31.287958,7.0
2023-08-12 16:36:31.295648,-7.0
2023-08-12 16:36:31.303338,2.0
2023-08-12 16:36:31.311028,14.0
2023-08-12 16:36:31.318717,-4.0
2023-08-12 16:36:31.326407,-11.0
2023-08-12 16:36:31.334097,2.0
2023-08-12 16:36:31.341787,-4.0
2023-08-12 16:36:31.349477,-14.0
2023-08-12 16:36:31.357166,-2.0
2023-08-12 16:36:31.364856,2.0
2023-08-12 16:36:31.372546,0.0
2023-08-12 16:36:31.380236,2.0
2023-08-12 16:36:31.387926,2.0
2023-08-12 16:36:31.395615,7.0
2023-08-12 16:36:31.403305,9.0
2023-08-12 16:36:31.410995,9.0
2023-08-12 16:36:31.418685,19.0
2023-08-12 16:36:31.426375,21.0
2023-08-12 16:36:31.434064,4.0
2023-08-12 16:36:31.441754,-2.0
2023-08-12 16:36:31.449444,7.0
2023-08-12 16:36:31.457134,33.0
2023-08-12 16:36:31.464823,47.0
2023-08-12 16:36:31.472513,16.0
2023-08-12 16:36:31.480203,-16.0
2023-08-12 16:36:31.487893,-11.0
2023-08-12 16:36:31.495583,4.0
2023-08-12 16:36:31.503272,2.0
2023-08-12 16:36:31.510962,-9.0
2023-08-12 16:36:31.518652,-14.0
2023-08-12 16:36:31.526342,-19.0
2023-08-12 16:36:31.534032,-42.0
2023-08-12 16:36:31.541721,-52.0
2023-08-12 16:36:31.549411,-40.0
2023-08-12 16:36:31.557101,-30.0
2023-08-12 16:36:31.564791,-16.0
2023-08-12 16:36:31.572481,-2.0
2023-08-12 16:36:31.580170,-2.0
2023-08-12 16:36:31.587860,-9.0
2023-08-12 16:36:31.595550,-7.0
2023-08-12 16:36:31.603240,-14.0
2023-08-12 16:36:31.610930,-26.0
2023-08-12 16:36:31.618619,-21.0
2023-08-12 16:36:31.626309,-21.0
2023-08-12 16:36:31.633999,-42.0
2023-08-12 16:36:31.641689,-40.0
2023-08-12 16:36:31.649379,-66.0
2023-08-12 16:36:31.657068,-240.0
2023-08-12 16:36:31.664758,-537.0
2023-08-12 16:36:31.672448,-566.0
2023-08-12 16:36:31.680138,-78.0
2023-08-12 16:36:31.687827,242.0
2023-08-12 16:36:31.695517,0.0
2023-08-12 16:36:31.703207,-135.0
2023-08-12 16:36:31.710897,4.0
2023-08-12 16:36:31.718587,19.0
2023-08-12 16:36:31.726276,-42.0
2023-08-12 16:36:31.733966,-42.0
2023-08-12 16:36:31.741656,-40.0
2023-08-12 16:36:31.749346,-40.0
2023-08-12 16:36:31.757036,-40.0
2023-08-12 16:36:31.764725,-54.0
2023-08-12 16:36:31.772415,-57.0
2023-08-12 16:36:31.780105,-47.0
2023-08-12 16:36:31.787795,-59.0
2023-08-12 16:36:31.795485,-73.0
2023-08-12 16:36:31.803174,-66.0
2023-08-12 16:36:31.810864,-71.0
2023-08-12 16:36:31.818554,-92.0
2023-08-12 16:36:31.826244,-95.0
2023-08-12 16:36:31.833934,-97.0
2023-08-12 16:36:31.841623,-99.0
2023-08-12 16:36:31.849313,-99.0
2023-08-12 16:36:31.857003,-114.0
2023-08-12 16:36:31.864693,-130.0
2023-08-12 16:36:31.872382,-133.0
2023-08-12 16:36:31.880072,-130.0
2023-08-12 16:36:31.887762,-140.0
2023-08-12 16:36:31.895452,-147.0
2023-08-12 16:36:31.903142,-149.0
2023-08-12 16:36:31.910831,-154.0
2023-08-12 16:36:31.918521,-164.0
2023-08-12 16:36:31.926211,-176.0
2023-08-12 16:36:31.933901,-171.0
2023-08-12 16:36:31.941591,-161.0
2023-08-12 16:36:31.949280,-149.0
2023-08-12 16:36:31.956970,-128.0
2023-08-12 16:36:31.964660,-119.0
2023-08-12 16:36:31.972350,-109.0
2023-08-12 16:36:31.980040,-76.0
2023-08-12 16:36:31.987729,-49.0
2023-08-12 16:36:31.995419,-54.0
2023-08-12 16:36:32.003109,-54.0
2023-08-12 16:36:32.010799,-40.0
2023-08-12 16:36:32.018489,-49.0
2023-08-12 16:36:32.026178,-66.0
2023-08-12 16:36:32.033868,-54.0
2023-08-12 16:36:32.041558,-54.0
2023-08-12 16:36:32.049248,-59.0
2023-08-12 16:36:32.056938,-45.0
2023-08-12 16:36:32.064627,-59.0
2023-08-12 16:36:32.072317,-71.0
2023-08-12 16:36:32.080007,-59.0
2023-08-12 16:36:32.087697,-71.0
2023-08-12 16:36:32.095386,-92.0
2023-08-12 16:36:32.103076,-88.0
2023-08-12 16:36:32.110766,-71.0
2023-08-12 16:36:32.118456,-78.0
2023-08-12 16:36:32.126146,-90.0
2023-08-12 16:36:32.133835,-71.0
2023-08-12 16:36:32.141525,-64.0
2023-08-12 16:36:32.149215,-85.0
2023-08-12 16:36:32.156905,-90.0
2023-08-12 16:36:32.164595,-69.0
2023-08-12 16:36:32.172284,-73.0
2023-08-12 16:36:32.179974,-85.0
2023-08-12 16:36:32.187664,-69.0
2023-08-12 16:36:32.195354,-57.0
2023-08-12 16:36:32.203044,-64.0
2023-08-12 16:36:32.210733,-73.0
2023-08-12 16:36:32.218423,-71.0
2023-08-12 16:36:32.226113,-66.0
2023-08-12 16:36:32.233803,-66.0
2023-08-12 16:36:32.241493,-59.0
2023-08-12 16:36:32.249182,-49.0
2023-08-12 16:36:32.256872,-52.0
2023-08-12 16:36:32.264562,-64.0
2023-08-12 16:36:32.272252,-71.0
2023-08-12 16:36:32.279941,-59.0
2023-08-12 16:36:32.287631,-61.0
2023-08-12 16:36:32.295321,-69.0
2023-08-12 16:36:32.303011,-59.0
2023-08-12 16:36:32.310701,-49.0
2023-08-12 16:36:32.318390,-59.0
2023-08-12 16:36:32.326080,-52.0
2023-08-12 16:36:32.333770,-45.0
2023-08-12 16:36:32.341460,-73.0
2023-08-12 16:36:32.349150,-97.0
2023-08-12 16:36:32.356839,-92.0
2023-08-12 16:36:32.364529,-102.0
2023-08-12 16:36:32.372219,-97.0
2023-08-12 16:36:32.379909,-69.0
2023-08-12 16:36:32.387599,-57.0
2023-08-12 16:36:32.395288,-61.0
2023-08-12 16:36:32.402978,-59.0
2023-08-12 16:36:32.410668,-45.0
2023-08-12 16:36:32.418358,-42.0
2023-08-12 16:36:32.426048,-64.0
2023-08-12 16:36:32.433737,-64.0
2023-08-12 16:36:32.441427,-42.0
2023-08-12 16:36:32.449117,-42.0
2023-08-12 16:36:32.456807,-52.0
2023-08-12 16:36:32.464497,-52.0
2023-08-12 16:36:32.472186,-119.0
2023-08-12 16:36:32.479876,-342.0
2023-08-12 16:36:32.487566,-635.0
2023-08-12 16:36:32.495256,-547.0
2023-08-12 16:36:32.502945,-2.0
2023-08-12 16:36:32.510635,183.0
2023-08-12 16:36:32.518325,-83.0
2023-08-12 16:36:32.526015,-92.0
2023-08-12 16:36:32.533705,40.0
2023-08-12 16:36:32.541394,-11.0
2023-08-12 16:36:32.549084,-54.0
2023-08-12 16:36:32.556774,-9.0
2023-08-12 16:36:32.564464,-2.0
2023-08-12 16:36:32.572154,-23.0
2023-08-12 16:36:32.579843,-26.0
2023-08-12 16:36:32.587533,-26.0
2023-08-12 16:36:32.595223,-28.0
2023-08-12 16:36:32.602913,-28.0
2023-08-12 16:36:32.610603,-42.0
2023-08-12 16:36:32.618292,-47.0
2023-08-12 16:36:32.625982,-45.0
2023-08-12 16:36:32.633672,-52.0
2023-08-12 16:36:32.641362,-52.0
2023-08-12 16:36:32.649052,-49.0
2023-08-12 16:36:32.656741,-66.0
2023-08-12 16:36:32.664431,-80.0
2023-08-12 16:36:32.672121,-80.0
2023-08-12 16:36:32.679811,-80.0
2023-08-12 16:36:32.687500,-83.0
2023-08-12 16:36:32.695190,-104.0
2023-08-12 16:36:32.702880,-126.0
2023-08-12 16:36:32.710570,-119.0
2023-08-12 16:36:32.718260,-116.0
2023-08-12 16:36:32.725949,-138.0
2023-08-12 16:36:32.733639,-152.0
2023-08-12 16:36:32.741329,-147.0
2023-08-12 16:36:32.749019,-149.0
2023-08-12 16:36:32.756709,-159.0
2023-08-12 16:36:32.764398,-154.0
2023-08-12 16:36:32.772088,-130.0
2023-08-12 16:36:32.779778,-102.0
2023-08-12 16:36:32.787468,-73.0
2023-08-12 16:36:32.795158,-54.0
2023-08-12 16:36:32.802847,-45.0
2023-08-12 16:36:32.810537,-21.0
2023-08-12 16:36:32.818227,-7.0
2023-08-12 16:36:32.825917,-19.0
2023-08-12 16:36:32.833607,-11.0
2023-08-12 16:36:32.841296,7.0
2023-08-12 16:36:32.848986,-9.0
2023-08-12 16:36:32.856676,-21.0
2023-08-12 16:36:32.864366,-2.0
2023-08-12 16:36:32.872056,2.0
2023-08-12 16:36:32.879745,-21.0
2023-08-12 16:36:32.887435,-23.0
2023-08-12 16:36:32.895125,-4.0
2023-08-12 16:36:32.902815,-7.0
2023-08-12 16:36:32.910504,-30.0
2023-08-12 16:36:32.918194,-42.0
2023-08-12 16:36:32.925884,-30.0
2023-08-12 16:36:32.933574,-16.0
2023-08-12 16:36:32.941264,-21.0
2023-08-12 16:36:32.948953,-30.0
2023-08-12 16:36:32.956643,-33.0
2023-08-12 16:36:32.964333,-35.0
2023-08-12 16:36:32.972023,-38.0
2023-08-12 16:36:32.979713,-35.0
2023-08-12 16:36:32.987402,-30.0
2023-08-12 16:36:32.995092,-23.0
2023-08-12 16:36:33.002782,-16.0
2023-08-12 16:36:33.010472,-9.0
2023-08-12 16:36:33.018162,-16.0
2023-08-12 16:36:33.025851,-30.0
2023-08-12 16:36:33.033541,-26.0
2023-08-12 16:36:33.041231,-9.0
2023-08-12 16:36:33.048921,-19.0
2023-08-12 16:36:33.056611,-30.0
2023-08-12 16:36:33.064300,-19.0
2023-08-12 16:36:33.071990,-11.0
2023-08-12 16:36:33.079680,-19.0
2023-08-12 16:36:33.087370,-21.0
2023-08-12 16:36:33.095059,-14.0
2023-08-12 16:36:33.102749,-14.0
2023-08-12 16:36:33.110439,-28.0
2023-08-12 16:36:33.118129,-33.0
2023-08-12 16:36:33.125819,-23.0
2023-08-12 16:36:33.133508,-21.0
2023-08-12 16:36:33.141198,-28.0
2023-08-12 16:36:33.148888,-26.0
2023-08-12 16:36:33.156578,-21.0
2023-08-12 16:36:33.164268,-21.0
2023-08-12 16:36:33.171957,-23.0
2023-08-12 16:36:33.179647,-26.0
2023-08-12 16:36:33.187337,-21.0
2023-08-12 16:36:33.195027,-26.0
2023-08-12 16:36:33.202717,-28.0
2023-08-12 16:36:33.210406,-21.0
2023-08-12 16:36:33.218096,-33.0
2023-08-12 16:36:33.225786,-49.0
2023-08-12 16:36:33.233476,-49.0
2023-08-12 16:36:33.241166,-52.0
2023-08-12 16:36:33.248855,-64.0
2023-08-12 16:36:33.256545,-52.0
2023-08-12 16:36:33.264235,-23.0
2023-08-12 16:36:33.271925,-16.0
2023-08-12 16:36:33.279615,-9.0
2023-08-12 16:36:33.287304,0.0
2023-08-12 16:36:33.294994,-4.0
2023-08-12 16:36:33.302684,-11.0
2023-08-12 16:36:33.310374,-7.0
2023-08-12 16:36:33.318063,-7.0
2023-08-12 16:36:33.325753,-9.0
2023-08-12 16:36:33.333443,-7.0
2023-08-12 16:36:33.341133,-9.0
2023-08-12 16:36:33.348823,-57.0
2023-08-12 16:36:33.356512,-230.0
2023-08-12 16:36:33.364202,-518.0
2023-08-12 16:36:33.371892,-549.0
2023-08-12 16:36:33.379582,-69.0
2023-08-12 16:36:33.387272,257.0
2023-08-12 16:36:33.394961,35.0
2023-08-12 16:36:33.402651,-80.0
2023-08-12 16:36:33.410341,45.0
2023-08-12 16:36:33.418031,42.0
2023-08-12 16:36:33.425721,-2.0
2023-08-12 16:36:33.433410,28.0
2023-08-12 16:36:33.441100,35.0
2023-08-12 16:36:33.448790,14.0
2023-08-12 16:36:33.456480,11.0
2023-08-12 16:36:33.464170,14.0
2023-08-12 16:36:33.471859,14.0
2023-08-12 16:36:33.479549,16.0
2023-08-12 16:36:33.487239,7.0
2023-08-12 16:36:33.494929,-14.0
2023-08-12 16:36:33.502618,-21.0
2023-08-12 16:36:33.510308,-14.0
2023-08-12 16:36:33.517998,-16.0
2023-08-12 16:36:33.525688,-19.0
2023-08-12 16:36:33.533378,-23.0
2023-08-12 16:36:33.541067,-35.0
2023-08-12 16:36:33.548757,-49.0
2023-08-12 16:36:33.556447,-57.0
2023-08-12 16:36:33.564137,-54.0
2023-08-12 16:36:33.571827,-59.0
2023-08-12 16:36:33.579516,-76.0
2023-08-12 16:36:33.587206,-85.0
2023-08-12 16:36:33.594896,-78.0
2023-08-12 16:36:33.602586,-83.0
2023-08-12 16:36:33.610276,-102.0
2023-08-12 16:36:33.617965,-102.0
2023-08-12 16:36:33.625655,-95.0
2023-08-12 16:36:33.633345,-109.0
2023-08-12 16:36:33.641035,-111.0
2023-08-12 16:36:33.648725,-90.0
2023-08-12 16:36:33.656414,-71.0
2023-08-12 16:36:33.664104,-54.0
2023-08-12 16:36:33.671794,-23.0
2023-08-12 16:36:33.679484,2.0
2023-08-12 16:36:33.687174,9.0
2023-08-12 16:36:33.694863,23.0
2023-08-12 16:36:33.702553,40.0
2023-08-12 16:36:33.710243,40.0
2023-08-12 16:36:33.717933,35.0
2023-08-12 16:36:33.725622,45.0
2023-08-12 16:36:33.733312,40.0
2023-08-12 16:36:33.741002,33.0
2023-08-12 16:36:33.748692,42.0
2023-08-12 16:36:33.756382,47.0
2023-08-12 16:36:33.764071,45.0
2023-08-12 16:36:33.771761,38.0
2023-08-12 16:36:33.779451,23.0
2023-08-12 16:36:33.787141,21.0
2023-08-12 16:36:33.794831,35.0
2023-08-12 16:36:33.802520,40.0
2023-08-12 16:36:33.810210,30.0
2023-08-12 16:36:33.817900,23.0
2023-08-12 16:36:33.825590,28.0
2023-08-12 16:36:33.833280,35.0
2023-08-12 16:36:33.840969,38.0
2023-08-12 16:36:33.848659,38.0
2023-08-12 16:36:33.856349,40.0
2023-08-12 16:36:33.864039,40.0
2023-08-12 16:36:33.871729,42.0
2023-08-12 16:36:33.879418,54.0
2023-08-12 16:36:33.887108,52.0
2023-08-12 16:36:33.894798,38.0
2023-08-12 16:36:33.902488,42.0
2023-08-12 16:36:33.910177,54.0
2023-08-12 16:36:33.917867,42.0
2023-08-12 16:36:33.925557,38.0
2023-08-12 16:36:33.933247,52.0
2023-08-12 16:36:33.940937,52.0
2023-08-12 16:36:33.948626,49.0
2023-08-12 16:36:33.956316,57.0
2023-08-12 16:36:33.964006,45.0
2023-08-12 16:36:33.971696,23.0
2023-08-12 16:36:33.979386,16.0
2023-08-12 16:36:33.987075,9.0
2023-08-12 16:36:33.994765,-2.0
2023-08-12 16:36:34.002455,2.0
2023-08-12 16:36:34.010145,28.0
2023-08-12 16:36:34.017835,42.0
2023-08-12 16:36:34.025524,38.0
2023-08-12 16:36:34.033214,35.0
2023-08-12 16:36:34.040904,42.0
2023-08-12 16:36:34.048594,42.0
2023-08-12 16:36:34.056284,33.0
2023-08-12 16:36:34.063973,35.0
2023-08-12 16:36:34.071663,35.0
2023-08-12 16:36:34.079353,26.0
2023-08-12 16:36:34.087043,19.0
2023-08-12 16:36:34.094733,14.0
2023-08-12 16:36:34.102422,-47.0
2023-08-12 16:36:34.110112,-221.0
2023-08-12 16:36:34.117802,-490.0
2023-08-12 16:36:34.125492,-502.0
2023-08-12 16:36:34.133181,-26.0
2023-08-12 16:36:34.140871,268.0
2023-08-12 16:36:34.148561,35.0
2023-08-12 16:36:34.156251,-66.0
2023-08-12 16:36:34.163941,54.0
2023-08-12 16:36:34.171630,14.0
2023-08-12 16:36:34.179320,-42.0
2023-08-12 16:36:34.187010,4.0
2023-08-12 16:36:34.194700,4.0
2023-08-12 16:36:34.202390,-38.0
2023-08-12 16:36:34.210079,-26.0
2023-08-12 16:36:34.217769,-14.0
2023-08-12 16:36:34.225459,-40.0
2023-08-12 16:36:34.233149,-54.0
2023-08-12 16:36:34.240839,-40.0
2023-08-12 16:36:34.248528,-42.0
2023-08-12 16:36:34.256218,-54.0
2023-08-12 16:36:34.263908,-52.0
2023-08-12 16:36:34.271598,-54.0
2023-08-12 16:36:34.279288,-66.0
2023-08-12 16:36:34.286977,-71.0
2023-08-12 16:36:34.294667,-73.0
2023-08-12 16:36:34.302357,-76.0
2023-08-12 16:36:34.310047,-80.0
2023-08-12 16:36:34.317736,-95.0
2023-08-12 16:36:34.325426,-104.0
2023-08-12 16:36:34.333116,-104.0
2023-08-12 16:36:34.340806,-109.0
2023-08-12 16:36:34.348496,-119.0
2023-08-12 16:36:34.356185,-128.0
2023-08-12 16:36:34.363875,-130.0
2023-08-12 16:36:34.371565,-140.0
2023-08-12 16:36:34.379255,-145.0
2023-08-12 16:36:34.386945,-135.0
2023-08-12 16:36:34.394634,-126.0
2023-08-12 16:36:34.402324,-114.0
2023-08-12 16:36:34.410014,-97.0
2023-08-12 16:36:34.417704,-78.0
2023-08-12 16:36:34.425394,-59.0
2023-08-12 16:36:34.433083,-35.0
2023-08-12 16:36:34.440773,-21.0
2023-08-12 16:36:34.448463,-16.0
2023-08-12 16:36:34.456153,-14.0
2023-08-12 16:36:34.463843,-11.0
2023-08-12 16:36:34.471532,-7.0
2023-08-12 16:36:34.479222,-11.0
2023-08-12 16:36:34.486912,-33.0
2023-08-12 16:36:34.494602,-38.0
2023-08-12 16:36:34.502292,-30.0
2023-08-12 16:36:34.509981,-38.0
2023-08-12 16:36:34.517671,-42.0
2023-08-12 16:36:34.525361,-35.0
2023-08-12 16:36:34.533051,-45.0
2023-08-12 16:36:34.540740,-57.0
2023-08-12 16:36:34.548430,-47.0
2023-08-12 16:36:34.556120,-40.0
2023-08-12 16:36:34.563810,-42.0
2023-08-12 16:36:34.571500,-54.0
2023-08-12 16:36:34.579189,-57.0
2023-08-12 16:36:34.586879,-49.0
2023-08-12 16:36:34.594569,-47.0
2023-08-12 16:36:34.602259,-54.0
2023-08-12 16:36:34.609949,-57.0
2023-08-12 16:36:34.617638,-49.0
2023-08-12 16:36:34.625328,-49.0
2023-08-12 16:36:34.633018,-52.0
2023-08-12 16:36:34.640708,-47.0
2023-08-12 16:36:34.648398,-47.0
2023-08-12 16:36:34.656087,-52.0
2023-08-12 16:36:34.663777,-49.0
2023-08-12 16:36:34.671467,-54.0
2023-08-12 16:36:34.679157,-61.0
2023-08-12 16:36:34.686847,-61.0
2023-08-12 16:36:34.694536,-54.0
2023-08-12 16:36:34.702226,-54.0
2023-08-12 16:36:34.709916,-59.0
2023-08-12 16:36:34.717606,-57.0
2023-08-12 16:36:34.725295,-61.0
2023-08-12 16:36:34.732985,-78.0
2023-08-12 16:36:34.740675,-85.0
2023-08-12 16:36:34.748365,-88.0
2023-08-12 16:36:34.756055,-102.0
2023-08-12 16:36:34.763744,-107.0
2023-08-12 16:36:34.771434,-78.0
2023-08-12 16:36:34.779124,-54.0
2023-08-12 16:36:34.786814,-54.0
2023-08-12 16:36:34.794504,-49.0
2023-08-12 16:36:34.802193,-49.0
2023-08-12 16:36:34.809883,-54.0
2023-08-12 16:36:34.817573,-42.0
2023-08-12 16:36:34.825263,-40.0
2023-08-12 16:36:34.832953,-57.0
2023-08-12 16:36:34.840642,-59.0
2023-08-12 16:36:34.848332,-52.0
2023-08-12 16:36:34.856022,-54.0
2023-08-12 16:36:34.863712,-92.0
2023-08-12 16:36:34.871402,-223.0
2023-08-12 16:36:34.879091,-507.0
2023-08-12 16:36:34.886781,-673.0
2023-08-12 16:36:34.894471,-292.0
2023-08-12 16:36:34.902161,178.0
2023-08-12 16:36:34.909851,61.0
2023-08-12 16:36:34.917540,-135.0
2023-08-12 16:36:34.925230,-11.0
2023-08-12 16:36:34.932920,28.0
2023-08-12 16:36:34.940610,-52.0
2023-08-12 16:36:34.948299,-35.0
2023-08-12 16:36:34.955989,0.0
2023-08-12 16:36:34.963679,-30.0
2023-08-12 16:36:34.971369,-45.0
2023-08-12 16:36:34.979059,-28.0
2023-08-12 16:36:34.986748,-38.0
2023-08-12 16:36:34.994438,-40.0
2023-08-12 16:36:35.002128,-26.0
2023-08-12 16:36:35.009818,-30.0
2023-08-12 16:36:35.017508,-52.0
2023-08-12 16:36:35.025197,-57.0
2023-08-12 16:36:35.032887,-54.0
2023-08-12 16:36:35.040577,-57.0
2023-08-12 16:36:35.048267,-59.0
2023-08-12 16:36:35.055957,-64.0
2023-08-12 16:36:35.063646,-69.0
2023-08-12 16:36:35.071336,-78.0
2023-08-12 16:36:35.079026,-90.0
2023-08-12 16:36:35.086716,-92.0
2023-08-12 16:36:35.094406,-99.0
2023-08-12 16:36:35.102095,-109.0
2023-08-12 16:36:35.109785,-119.0
2023-08-12 16:36:35.117475,-130.0
2023-08-12 16:36:35.125165,-126.0
2023-08-12 16:36:35.132854,-128.0
2023-08-12 16:36:35.140544,-147.0
2023-08-12 16:36:35.148234,-147.0
2023-08-12 16:36:35.155924,-138.0
2023-08-12 16:36:35.163614,-135.0
2023-08-12 16:36:35.171303,-123.0
2023-08-12 16:36:35.178993,-90.0
2023-08-12 16:36:35.186683,-57.0
2023-08-12 16:36:35.194373,-45.0
2023-08-12 16:36:35.202063,-45.0
2023-08-12 16:36:35.209752,-33.0
2023-08-12 16:36:35.217442,-16.0
2023-08-12 16:36:35.225132,-16.0
2023-08-12 16:36:35.232822,-21.0
2023-08-12 16:36:35.240512,-16.0
2023-08-12 16:36:35.248201,-19.0
2023-08-12 16:36:35.255891,-33.0
2023-08-12 16:36:35.263581,-33.0
2023-08-12 16:36:35.271271,-28.0
2023-08-12 16:36:35.278961,-38.0
2023-08-12 16:36:35.286650,-42.0
2023-08-12 16:36:35.294340,-35.0
2023-08-12 16:36:35.302030,-38.0
2023-08-12 16:36:35.309720,-45.0
2023-08-12 16:36:35.317409,-47.0
2023-08-12 16:36:35.325099,-54.0
2023-08-12 16:36:35.332789,-49.0
2023-08-12 16:36:35.340479,-52.0
2023-08-12 16:36:35.348169,-59.0
2023-08-12 16:36:35.355858,-52.0
2023-08-12 16:36:35.363548,-45.0
2023-08-12 16:36:35.371238,-52.0
2023-08-12 16:36:35.378928,-59.0
2023-08-12 16:36:35.386618,-52.0
2023-08-12 16:36:35.394307,-47.0
2023-08-12 16:36:35.401997,-45.0
2023-08-12 16:36:35.409687,-42.0
2023-08-12 16:36:35.417377,-45.0
2023-08-12 16:36:35.425067,-49.0
2023-08-12 16:36:35.432756,-42.0
2023-08-12 16:36:35.440446,-35.0
2023-08-12 16:36:35.448136,-45.0
2023-08-12 16:36:35.455826,-49.0
2023-08-12 16:36:35.463516,-47.0
2023-08-12 16:36:35.471205,-45.0
2023-08-12 16:36:35.478895,-42.0
2023-08-12 16:36:35.486585,-42.0
2023-08-12 16:36:35.494275,-45.0
2023-08-12 16:36:35.501965,-45.0
2023-08-12 16:36:35.509654,-40.0
2023-08-12 16:36:35.517344,-38.0
2023-08-12 16:36:35.525034,-40.0
2023-08-12 16:36:35.532724,-33.0
2023-08-12 16:36:35.540413,-35.0
2023-08-12 16:36:35.548103,-42.0
2023-08-12 16:36:35.555793,-38.0
2023-08-12 16:36:35.563483,-38.0
2023-08-12 16:36:35.571173,-47.0
2023-08-12 16:36:35.578862,-45.0
2023-08-12 16:36:35.586552,-40.0
2023-08-12 16:36:35.594242,-38.0
2023-08-12 16:36:35.601932,-38.0
2023-08-12 16:36:35.609622,-40.0
2023-08-12 16:36:35.617311,-45.0
2023-08-12 16:36:35.625001,-57.0
2023-08-12 16:36:35.632691,-73.0
2023-08-12 16:36:35.640381,-78.0
2023-08-12 16:36:35.648071,-76.0
2023-08-12 16:36:35.655760,-76.0
2023-08-12 16:36:35.663450,-73.0
2023-08-12 16:36:35.671140,-59.0
2023-08-12 16:36:35.678830,-45.0
2023-08-12 16:36:35.686520,-38.0
2023-08-12 16:36:35.694209,-42.0
2023-08-12 16:36:35.701899,-42.0
2023-08-12 16:36:35.709589,-35.0
2023-08-12 16:36:35.717279,-30.0
2023-08-12 16:36:35.724968,-33.0
2023-08-12 16:36:35.732658,-35.0
2023-08-12 16:36:35.740348,-40.0
2023-08-12 16:36:35.748038,-45.0
2023-08-12 16:36:35.755728,-59.0
2023-08-12 16:36:35.763417,-126.0
2023-08-12 16:36:35.771107,-330.0
2023-08-12 16:36:35.778797,-618.0
2023-08-12 16:36:35.786487,-537.0
2023-08-12 16:36:35.794177,2.0
2023-08-12 16:36:35.801866,180.0
2023-08-12 16:36:35.809556,-83.0
2023-08-12 16:36:35.817246,-88.0
2023-08-12 16:36:35.824936,40.0
2023-08-12 16:36:35.832626,-11.0
2023-08-12 16:36:35.840315,-47.0
2023-08-12 16:36:35.848005,-7.0
2023-08-12 16:36:35.855695,-21.0
2023-08-12 16:36:35.863385,-42.0
2023-08-12 16:36:35.871075,-26.0
2023-08-12 16:36:35.878764,-28.0
2023-08-12 16:36:35.886454,-45.0
2023-08-12 16:36:35.894144,-38.0
2023-08-12 16:36:35.901834,-30.0
2023-08-12 16:36:35.909524,-42.0
2023-08-12 16:36:35.917213,-47.0
2023-08-12 16:36:35.924903,-47.0
2023-08-12 16:36:35.932593,-49.0
2023-08-12 16:36:35.940283,-52.0
2023-08-12 16:36:35.947972,-71.0
2023-08-12 16:36:35.955662,-83.0
2023-08-12 16:36:35.963352,-69.0
2023-08-12 16:36:35.971042,-66.0
2023-08-12 16:36:35.978732,-92.0
2023-08-12 16:36:35.986421,-102.0
2023-08-12 16:36:35.994111,-95.0
2023-08-12 16:36:36.001801,-107.0
2023-08-12 16:36:36.009491,-116.0
2023-08-12 16:36:36.017181,-111.0
2023-08-12 16:36:36.024870,-121.0
2023-08-12 16:36:36.032560,-135.0
2023-08-12 16:36:36.040250,-130.0
2023-08-12 16:36:36.047940,-121.0
2023-08-12 16:36:36.055630,-123.0
2023-08-12 16:36:36.063319,-114.0
2023-08-12 16:36:36.071009,-90.0
2023-08-12 16:36:36.078699,-71.0
2023-08-12 16:36:36.086389,-45.0
2023-08-12 16:36:36.094079,-19.0
2023-08-12 16:36:36.101768,-11.0
2023-08-12 16:36:36.109458,-11.0
2023-08-12 16:36:36.117148,0.0
2023-08-12 16:36:36.124838,7.0
2023-08-12 16:36:36.132527,2.0
2023-08-12 16:36:36.140217,2.0
2023-08-12 16:36:36.147907,7.0
2023-08-12 16:36:36.155597,7.0
2023-08-12 16:36:36.163287,0.0
2023-08-12 16:36:36.170976,-2.0
2023-08-12 16:36:36.178666,2.0
2023-08-12 16:36:36.186356,0.0
2023-08-12 16:36:36.194046,-9.0
2023-08-12 16:36:36.201736,-2.0
2023-08-12 16:36:36.209425,4.0
2023-08-12 16:36:36.217115,-7.0
2023-08-12 16:36:36.224805,-9.0
2023-08-12 16:36:36.232495,2.0
2023-08-12 16:36:36.240185,0.0
2023-08-12 16:36:36.247874,-9.0
2023-08-12 16:36:36.255564,-4.0
2023-08-12 16:36:36.263254,4.0
2023-08-12 16:36:36.270944,9.0
2023-08-12 16:36:36.278634,7.0
2023-08-12 16:36:36.286323,7.0
2023-08-12 16:36:36.294013,11.0
2023-08-12 16:36:36.301703,14.0
2023-08-12 16:36:36.309393,0.0
2023-08-12 16:36:36.317083,2.0
2023-08-12 16:36:36.324772,16.0
2023-08-12 16:36:36.332462,16.0
2023-08-12 16:36:36.340152,9.0
2023-08-12 16:36:36.347842,11.0
2023-08-12 16:36:36.355531,16.0
2023-08-12 16:36:36.363221,14.0
2023-08-12 16:36:36.370911,11.0
2023-08-12 16:36:36.378601,14.0
2023-08-12 16:36:36.386291,23.0
2023-08-12 16:36:36.393980,28.0
2023-08-12 16:36:36.401670,11.0
2023-08-12 16:36:36.409360,2.0
2023-08-12 16:36:36.417050,16.0
2023-08-12 16:36:36.424740,21.0
2023-08-12 16:36:36.432429,11.0
2023-08-12 16:36:36.440119,7.0
2023-08-12 16:36:36.447809,9.0
2023-08-12 16:36:36.455499,21.0
2023-08-12 16:36:36.463189,28.0
2023-08-12 16:36:36.470878,14.0
2023-08-12 16:36:36.478568,-2.0
2023-08-12 16:36:36.486258,-9.0
2023-08-12 16:36:36.493948,-16.0
2023-08-12 16:36:36.501638,-16.0
2023-08-12 16:36:36.509327,-4.0
2023-08-12 16:36:36.517017,11.0
2023-08-12 16:36:36.524707,26.0
2023-08-12 16:36:36.532397,28.0
2023-08-12 16:36:36.540086,19.0
2023-08-12 16:36:36.547776,19.0
2023-08-12 16:36:36.555466,33.0
2023-08-12 16:36:36.563156,33.0
2023-08-12 16:36:36.570846,21.0
2023-08-12 16:36:36.578535,23.0
2023-08-12 16:36:36.586225,33.0
2023-08-12 16:36:36.593915,33.0
2023-08-12 16:36:36.601605,16.0
2023-08-12 16:36:36.609295,-80.0
2023-08-12 16:36:36.616984,-304.0
2023-08-12 16:36:36.624674,-526.0
2023-08-12 16:36:36.632364,-318.0
2023-08-12 16:36:36.640054,192.0
2023-08-12 16:36:36.647744,238.0
2023-08-12 16:36:36.655433,-19.0
2023-08-12 16:36:36.663123,21.0
2023-08-12 16:36:36.670813,92.0
2023-08-12 16:36:36.678503,11.0
2023-08-12 16:36:36.686193,16.0
2023-08-12 16:36:36.693882,64.0
2023-08-12 16:36:36.701572,35.0
2023-08-12 16:36:36.709262,14.0
2023-08-12 16:36:36.716952,33.0
2023-08-12 16:36:36.724642,30.0
2023-08-12 16:36:36.732331,16.0
2023-08-12 16:36:36.740021,21.0
2023-08-12 16:36:36.747711,19.0
2023-08-12 16:36:36.755401,0.0
2023-08-12 16:36:36.763090,-4.0
2023-08-12 16:36:36.770780,11.0
2023-08-12 16:36:36.778470,11.0
2023-08-12 16:36:36.786160,-14.0
2023-08-12 16:36:36.793850,-28.0
2023-08-12 16:36:36.801539,-19.0
2023-08-12 16:36:36.809229,-19.0
2023-08-12 16:36:36.816919,-38.0
2023-08-12 16:36:36.824609,-47.0
2023-08-12 16:36:36.832299,-47.0
2023-08-12 16:36:36.839988,-57.0
2023-08-12 16:36:36.847678,-61.0
2023-08-12 16:36:36.855368,-69.0
2023-08-12 16:36:36.863058,-88.0
2023-08-12 16:36:36.870748,-99.0
2023-08-12 16:36:36.878437,-102.0
2023-08-12 16:36:36.886127,-114.0
2023-08-12 16:36:36.893817,-119.0
2023-08-12 16:36:36.901507,-102.0
2023-08-12 16:36:36.909197,-92.0
2023-08-12 16:36:36.916886,-78.0
2023-08-12 16:36:36.924576,-52.0
2023-08-12 16:36:36.932266,-21.0
2023-08-12 16:36:36.939956,-11.0
2023-08-12 16:36:36.947645,-11.0
2023-08-12 16:36:36.955335,4.0
2023-08-12 16:36:36.963025,9.0
2023-08-12 16:36:36.970715,-4.0
2023-08-12 16:36:36.978405,-2.0
2023-08-12 16:36:36.986094,7.0
2023-08-12 16:36:36.993784,-7.0
2023-08-12 16:36:37.001474,-21.0
2023-08-12 16:36:37.009164,-16.0
2023-08-12 16:36:37.016854,-14.0
2023-08-12 16:36:37.024543,-9.0
2023-08-12 16:36:37.032233,-11.0
2023-08-12 16:36:37.039923,-28.0
2023-08-12 16:36:37.047613,-35.0
2023-08-12 16:36:37.055303,-35.0
2023-08-12 16:36:37.062992,-42.0
2023-08-12 16:36:37.070682,-42.0
2023-08-12 16:36:37.078372,-38.0
2023-08-12 16:36:37.086062,-42.0
2023-08-12 16:36:37.093752,-45.0
2023-08-12 16:36:37.101441,-33.0
2023-08-12 16:36:37.109131,-26.0
2023-08-12 16:36:37.116821,-28.0
2023-08-12 16:36:37.124511,-30.0
2023-08-12 16:36:37.132201,-38.0
2023-08-12 16:36:37.139890,-42.0
2023-08-12 16:36:37.147580,-40.0
2023-08-12 16:36:37.155270,-35.0
2023-08-12 16:36:37.162960,-33.0
2023-08-12 16:36:37.170649,-35.0
2023-08-12 16:36:37.178339,-42.0
2023-08-12 16:36:37.186029,-38.0
2023-08-12 16:36:37.193719,-38.0
2023-08-12 16:36:37.201409,-42.0
2023-08-12 16:36:37.209098,-33.0
2023-08-12 16:36:37.216788,-30.0
2023-08-12 16:36:37.224478,-45.0
2023-08-12 16:36:37.232168,-61.0
2023-08-12 16:36:37.239858,-71.0
2023-08-12 16:36:37.247547,-78.0
2023-08-12 16:36:37.255237,-78.0
2023-08-12 16:36:37.262927,-64.0
2023-08-12 16:36:37.270617,-42.0
2023-08-12 16:36:37.278307,-33.0
2023-08-12 16:36:37.285996,-33.0
2023-08-12 16:36:37.293686,-33.0
2023-08-12 16:36:37.301376,-40.0
2023-08-12 16:36:37.309066,-42.0
2023-08-12 16:36:37.316756,-33.0
2023-08-12 16:36:37.324445,-26.0
2023-08-12 16:36:37.332135,-33.0
2023-08-12 16:36:37.339825,-40.0
2023-08-12 16:36:37.347515,-38.0
2023-08-12 16:36:37.355204,-45.0
2023-08-12 16:36:37.362894,-133.0
2023-08-12 16:36:37.370584,-371.0
2023-08-12 16:36:37.378274,-649.0
2023-08-12 16:36:37.385964,-495.0
2023-08-12 16:36:37.393653,73.0
2023-08-12 16:36:37.401343,190.0
2023-08-12 16:36:37.409033,-92.0
2023-08-12 16:36:37.416723,-83.0
2023-08-12 16:36:37.424413,26.0
2023-08-12 16:36:37.432102,-35.0
2023-08-12 16:36:37.439792,-54.0
2023-08-12 16:36:37.447482,-14.0
2023-08-12 16:36:37.455172,-23.0
2023-08-12 16:36:37.462862,-35.0
2023-08-12 16:36:37.470551,-30.0
2023-08-12 16:36:37.478241,-38.0
2023-08-12 16:36:37.485931,-42.0
2023-08-12 16:36:37.493621,-40.0
2023-08-12 16:36:37.501311,-42.0
2023-08-12 16:36:37.509000,-54.0
2023-08-12 16:36:37.516690,-59.0
2023-08-12 16:36:37.524380,-57.0
2023-08-12 16:36:37.532070,-61.0
2023-08-12 16:36:37.539760,-64.0
2023-08-12 16:36:37.547449,-66.0
2023-08-12 16:36:37.555139,-78.0
2023-08-12 16:36:37.562829,-80.0
2023-08-12 16:36:37.570519,-83.0
2023-08-12 16:36:37.578208,-92.0
2023-08-12 16:36:37.585898,-107.0
2023-08-12 16:36:37.593588,-111.0
2023-08-12 16:36:37.601278,-114.0
2023-08-12 16:36:37.608968,-126.0
2023-08-12 16:36:37.616657,-140.0
2023-08-12 16:36:37.624347,-140.0
2023-08-12 16:36:37.632037,-145.0
2023-08-12 16:36:37.639727,-152.0
2023-08-12 16:36:37.647417,-140.0
2023-08-12 16:36:37.655106,-128.0
2023-08-12 16:36:37.662796,-116.0
2023-08-12 16:36:37.670486,-92.0
2023-08-12 16:36:37.678176,-61.0
2023-08-12 16:36:37.685866,-40.0
2023-08-12 16:36:37.693555,-23.0
2023-08-12 16:36:37.701245,-4.0
2023-08-12 16:36:37.708935,2.0
2023-08-12 16:36:37.716625,-2.0
2023-08-12 16:36:37.724315,-2.0
2023-08-12 16:36:37.732004,-2.0
2023-08-12 16:36:37.739694,-9.0
2023-08-12 16:36:37.747384,-9.0
2023-08-12 16:36:37.755074,-7.0
2023-08-12 16:36:37.762763,-11.0
2023-08-12 16:36:37.770453,-11.0
2023-08-12 16:36:37.778143,-16.0
2023-08-12 16:36:37.785833,-19.0
2023-08-12 16:36:37.793523,-19.0
2023-08-12 16:36:37.801212,-19.0
2023-08-12 16:36:37.808902,-26.0
2023-08-12 16:36:37.816592,-38.0
2023-08-12 16:36:37.824282,-38.0
2023-08-12 16:36:37.831972,-30.0
2023-08-12 16:36:37.839661,-33.0
2023-08-12 16:36:37.847351,-33.0
2023-08-12 16:36:37.855041,-26.0
2023-08-12 16:36:37.862731,-26.0
2023-08-12 16:36:37.870421,-28.0
2023-08-12 16:36:37.878110,-30.0
2023-08-12 16:36:37.885800,-35.0
2023-08-12 16:36:37.893490,-33.0
2023-08-12 16:36:37.901180,-35.0
2023-08-12 16:36:37.908870,-42.0
2023-08-12 16:36:37.916559,-40.0
2023-08-12 16:36:37.924249,-30.0
2023-08-12 16:36:37.931939,-38.0
2023-08-12 16:36:37.939629,-42.0
2023-08-12 16:36:37.947319,-33.0
2023-08-12 16:36:37.955008,-26.0
2023-08-12 16:36:37.962698,-30.0
2023-08-12 16:36:37.970388,-38.0
2023-08-12 16:36:37.978078,-38.0
2023-08-12 16:36:37.985767,-38.0
2023-08-12 16:36:37.993457,-40.0
2023-08-12 16:36:38.001147,-42.0
2023-08-12 16:36:38.008837,-40.0
2023-08-12 16:36:38.016527,-40.0
2023-08-12 16:36:38.024216,-40.0
2023-08-12 16:36:38.031906,-40.0
2023-08-12 16:36:38.039596,-42.0
2023-08-12 16:36:38.047286,-45.0
2023-08-12 16:36:38.054976,-42.0
2023-08-12 16:36:38.062665,-45.0
2023-08-12 16:36:38.070355,-45.0
2023-08-12 16:36:38.078045,-45.0
2023-08-12 16:36:38.085735,-42.0
2023-08-12 16:36:38.093425,-40.0
2023-08-12 16:36:38.101114,-52.0
2023-08-12 16:36:38.108804,-66.0
2023-08-12 16:36:38.116494,-73.0
2023-08-12 16:36:38.124184,-78.0
2023-08-12 16:36:38.131874,-85.0
2023-08-12 16:36:38.139563,-71.0
2023-08-12 16:36:38.147253,-49.0
2023-08-12 16:36:38.154943,-40.0
2023-08-12 16:36:38.162633,-40.0
2023-08-12 16:36:38.170322,-38.0
2023-08-12 16:36:38.178012,-38.0
2023-08-12 16:36:38.185702,-38.0
2023-08-12 16:36:38.193392,-33.0
2023-08-12 16:36:38.201082,-33.0
2023-08-12 16:36:38.208771,-38.0
2023-08-12 16:36:38.216461,-38.0
2023-08-12 16:36:38.224151,-38.0
2023-08-12 16:36:38.231841,-59.0
2023-08-12 16:36:38.239531,-183.0
2023-08-12 16:36:38.247220,-464.0
2023-08-12 16:36:38.254910,-652.0
2023-08-12 16:36:38.262600,-314.0
2023-08-12 16:36:38.270290,169.0
2023-08-12 16:36:38.277980,95.0
2023-08-12 16:36:38.285669,-116.0
2023-08-12 16:36:38.293359,-14.0
2023-08-12 16:36:38.301049,40.0
2023-08-12 16:36:38.308739,-33.0
2023-08-12 16:36:38.316429,-28.0
2023-08-12 16:36:38.324118,0.0
2023-08-12 16:36:38.331808,-16.0
2023-08-12 16:36:38.339498,-21.0
2023-08-12 16:36:38.347188,-11.0
2023-08-12 16:36:38.354878,-28.0
2023-08-12 16:36:38.362567,-40.0
2023-08-12 16:36:38.370257,-26.0
2023-08-12 16:36:38.377947,-28.0
2023-08-12 16:36:38.385637,-45.0
2023-08-12 16:36:38.393326,-49.0
2023-08-12 16:36:38.401016,-42.0
2023-08-12 16:36:38.408706,-40.0
2023-08-12 16:36:38.416396,-61.0
2023-08-12 16:36:38.424086,-90.0
2023-08-12 16:36:38.431775,-80.0
2023-08-12 16:36:38.439465,-83.0
2023-08-12 16:36:38.447155,-109.0
2023-08-12 16:36:38.454845,-99.0
2023-08-12 16:36:38.462535,-90.0
2023-08-12 16:36:38.470224,-111.0
2023-08-12 16:36:38.477914,-123.0
2023-08-12 16:36:38.485604,-121.0
2023-08-12 16:36:38.493294,-128.0
2023-08-12 16:36:38.500984,-138.0
2023-08-12 16:36:38.508673,-140.0
2023-08-12 16:36:38.516363,-140.0
2023-08-12 16:36:38.524053,-135.0
2023-08-12 16:36:38.531743,-133.0
2023-08-12 16:36:38.539433,-130.0
2023-08-12 16:36:38.547122,-107.0
2023-08-12 16:36:38.554812,-69.0
2023-08-12 16:36:38.562502,-45.0
2023-08-12 16:36:38.570192,-28.0
2023-08-12 16:36:38.577881,-14.0
2023-08-12 16:36:38.585571,-9.0
2023-08-12 16:36:38.593261,-7.0
2023-08-12 16:36:38.600951,0.0
2023-08-12 16:36:38.608641,2.0
2023-08-12 16:36:38.616330,2.0
2023-08-12 16:36:38.624020,-2.0
2023-08-12 16:36:38.631710,-14.0
2023-08-12 16:36:38.639400,-16.0
2023-08-12 16:36:38.647090,-9.0
2023-08-12 16:36:38.654779,-9.0
2023-08-12 16:36:38.662469,-11.0
2023-08-12 16:36:38.670159,-7.0
2023-08-12 16:36:38.677849,-4.0
2023-08-12 16:36:38.685539,-9.0
2023-08-12 16:36:38.693228,-14.0
2023-08-12 16:36:38.700918,-9.0
2023-08-12 16:36:38.708608,-9.0
2023-08-12 16:36:38.716298,-9.0
2023-08-12 16:36:38.723988,-2.0
2023-08-12 16:36:38.731677,0.0
2023-08-12 16:36:38.739367,-7.0
2023-08-12 16:36:38.747057,-4.0
2023-08-12 16:36:38.754747,-2.0
2023-08-12 16:36:38.762437,2.0
2023-08-12 16:36:38.770126,4.0
2023-08-12 16:36:38.777816,9.0
2023-08-12 16:36:38.785506,7.0
2023-08-12 16:36:38.793196,0.0
2023-08-12 16:36:38.800885,9.0
2023-08-12 16:36:38.808575,16.0
2023-08-12 16:36:38.816265,11.0
2023-08-12 16:36:38.823955,16.0
2023-08-12 16:36:38.831645,14.0
2023-08-12 16:36:38.839334,0.0
2023-08-12 16:36:38.847024,9.0
2023-08-12 16:36:38.854714,19.0
2023-08-12 16:36:38.862404,14.0
2023-08-12 16:36:38.870094,14.0
2023-08-12 16:36:38.877783,4.0
2023-08-12 16:36:38.885473,-9.0
2023-08-12 16:36:38.893163,-4.0
2023-08-12 16:36:38.900853,2.0
2023-08-12 16:36:38.908543,2.0
2023-08-12 16:36:38.916232,-4.0
2023-08-12 16:36:38.923922,0.0
2023-08-12 16:36:38.931612,11.0
2023-08-12 16:36:38.939302,0.0
2023-08-12 16:36:38.946992,-23.0
2023-08-12 16:36:38.954681,-23.0
2023-08-12 16:36:38.962371,-23.0
2023-08-12 16:36:38.970061,-45.0
2023-08-12 16:36:38.977751,-47.0
2023-08-12 16:36:38.985440,-16.0
2023-08-12 16:36:38.993130,7.0
2023-08-12 16:36:39.000820,2.0
2023-08-12 16:36:39.008510,2.0
2023-08-12 16:36:39.016200,11.0
2023-08-12 16:36:39.023889,9.0
2023-08-12 16:36:39.031579,2.0
2023-08-12 16:36:39.039269,11.0
2023-08-12 16:36:39.046959,9.0
2023-08-12 16:36:39.054649,-7.0
2023-08-12 16:36:39.062338,-2.0
2023-08-12 16:36:39.070028,0.0
2023-08-12 16:36:39.077718,-52.0
2023-08-12 16:36:39.085408,-195.0
2023-08-12 16:36:39.093098,-452.0
2023-08-12 16:36:39.100787,-549.0
2023-08-12 16:36:39.108477,-145.0
2023-08-12 16:36:39.116167,252.0
2023-08-12 16:36:39.123857,90.0
2023-08-12 16:36:39.131547,-88.0
2023-08-12 16:36:39.139236,21.0
2023-08-12 16:36:39.146926,33.0
2023-08-12 16:36:39.154616,-33.0
2023-08-12 16:36:39.162306,-9.0
2023-08-12 16:36:39.169995,7.0
2023-08-12 16:36:39.177685,-21.0
2023-08-12 16:36:39.185375,-23.0
2023-08-12 16:36:39.193065,-19.0
2023-08-12 16:36:39.200755,-30.0
2023-08-12 16:36:39.208444,-30.0
2023-08-12 16:36:39.216134,-28.0
2023-08-12 16:36:39.223824,-28.0
2023-08-12 16:36:39.231514,-33.0
2023-08-12 16:36:39.239204,-45.0
2023-08-12 16:36:39.246893,-47.0
2023-08-12 16:36:39.254583,-40.0
2023-08-12 16:36:39.262273,-52.0
2023-08-12 16:36:39.269963,-64.0
2023-08-12 16:36:39.277653,-57.0
2023-08-12 16:36:39.285342,-61.0
2023-08-12 16:36:39.293032,-78.0
2023-08-12 16:36:39.300722,-80.0
2023-08-12 16:36:39.308412,-80.0
2023-08-12 16:36:39.316102,-97.0
2023-08-12 16:36:39.323791,-111.0
2023-08-12 16:36:39.331481,-109.0
2023-08-12 16:36:39.339171,-109.0
2023-08-12 16:36:39.346861,-121.0
2023-08-12 16:36:39.354551,-128.0
2023-08-12 16:36:39.362240,-133.0
2023-08-12 16:36:39.369930,-133.0
2023-08-12 16:36:39.377620,-121.0
2023-08-12 16:36:39.385310,-111.0
2023-08-12 16:36:39.392999,-99.0
2023-08-12 16:36:39.400689,-78.0
2023-08-12 16:36:39.408379,-57.0
2023-08-12 16:36:39.416069,-49.0
2023-08-12 16:36:39.423759,-33.0
2023-08-12 16:36:39.431448,-16.0
2023-08-12 16:36:39.439138,-16.0
2023-08-12 16:36:39.446828,-19.0
2023-08-12 16:36:39.454518,-23.0
2023-08-12 16:36:39.462208,-30.0
2023-08-12 16:36:39.469897,-28.0
2023-08-12 16:36:39.477587,-28.0
2023-08-12 16:36:39.485277,-33.0
2023-08-12 16:36:39.492967,-33.0
2023-08-12 16:36:39.500657,-40.0
2023-08-12 16:36:39.508346,-47.0
2023-08-12 16:36:39.516036,-47.0
2023-08-12 16:36:39.523726,-47.0
2023-08-12 16:36:39.531416,-47.0
2023-08-12 16:36:39.539106,-47.0
2023-08-12 16:36:39.546795,-49.0
2023-08-12 16:36:39.554485,-49.0
2023-08-12 16:36:39.562175,-47.0
2023-08-12 16:36:39.569865,-52.0
2023-08-12 16:36:39.577554,-57.0
2023-08-12 16:36:39.585244,-47.0
2023-08-12 16:36:39.592934,-40.0
2023-08-12 16:36:39.600624,-45.0
2023-08-12 16:36:39.608314,-45.0
2023-08-12 16:36:39.616003,-42.0
2023-08-12 16:36:39.623693,-45.0
2023-08-12 16:36:39.631383,-49.0
2023-08-12 16:36:39.639073,-47.0
2023-08-12 16:36:39.646763,-35.0
2023-08-12 16:36:39.654452,-45.0
2023-08-12 16:36:39.662142,-59.0
2023-08-12 16:36:39.669832,-57.0
2023-08-12 16:36:39.677522,-52.0
2023-08-12 16:36:39.685212,-49.0
2023-08-12 16:36:39.692901,-49.0
2023-08-12 16:36:39.700591,-54.0
2023-08-12 16:36:39.708281,-57.0
2023-08-12 16:36:39.715971,-49.0
2023-08-12 16:36:39.723661,-52.0
2023-08-12 16:36:39.731350,-57.0
2023-08-12 16:36:39.739040,-49.0
2023-08-12 16:36:39.746730,-49.0
2023-08-12 16:36:39.754420,-64.0
2023-08-12 16:36:39.762110,-78.0
2023-08-12 16:36:39.769799,-90.0
2023-08-12 16:36:39.777489,-95.0
2023-08-12 16:36:39.785179,-97.0
2023-08-12 16:36:39.792869,-90.0
2023-08-12 16:36:39.800558,-66.0
2023-08-12 16:36:39.808248,-54.0
2023-08-12 16:36:39.815938,-57.0
2023-08-12 16:36:39.823628,-54.0
2023-08-12 16:36:39.831318,-57.0
2023-08-12 16:36:39.839007,-57.0
2023-08-12 16:36:39.846697,-52.0
2023-08-12 16:36:39.854387,-54.0
2023-08-12 16:36:39.862077,-59.0
2023-08-12 16:36:39.869767,-61.0
2023-08-12 16:36:39.877456,-54.0
2023-08-12 16:36:39.885146,-61.0
2023-08-12 16:36:39.892836,-149.0
2023-08-12 16:36:39.900526,-378.0
2023-08-12 16:36:39.908216,-659.0
2023-08-12 16:36:39.915905,-557.0
2023-08-12 16:36:39.923595,-2.0
2023-08-12 16:36:39.931285,171.0
2023-08-12 16:36:39.938975,-102.0
2023-08-12 16:36:39.946665,-114.0
2023-08-12 16:36:39.954354,11.0
2023-08-12 16:36:39.962044,-35.0
2023-08-12 16:36:39.969734,-66.0
2023-08-12 16:36:39.977424,-30.0
2023-08-12 16:36:39.985113,-40.0
2023-08-12 16:36:39.992803,-59.0
2023-08-12 16:36:40.000493,-49.0
2023-08-12 16:36:40.008183,-49.0
2023-08-12 16:36:40.015873,-66.0
2023-08-12 16:36:40.023562,-64.0
2023-08-12 16:36:40.031252,-61.0
2023-08-12 16:36:40.038942,-69.0
2023-08-12 16:36:40.046632,-71.0
2023-08-12 16:36:40.054322,-76.0
2023-08-12 16:36:40.062011,-76.0
2023-08-12 16:36:40.069701,-80.0
2023-08-12 16:36:40.077391,-88.0
2023-08-12 16:36:40.085081,-97.0
2023-08-12 16:36:40.092771,-111.0
2023-08-12 16:36:40.100460,-114.0
2023-08-12 16:36:40.108150,-111.0
2023-08-12 16:36:40.115840,-123.0
2023-08-12 16:36:40.123530,-135.0
2023-08-12 16:36:40.131220,-142.0
2023-08-12 16:36:40.138909,-152.0
2023-08-12 16:36:40.146599,-154.0
2023-08-12 16:36:40.154289,-161.0
2023-08-12 16:36:40.161979,-178.0
2023-08-12 16:36:40.169669,-185.0
2023-08-12 16:36:40.177358,-180.0
2023-08-12 16:36:40.185048,-169.0
2023-08-12 16:36:40.192738,-152.0
2023-08-12 16:36:40.200428,-130.0
2023-08-12 16:36:40.208117,-107.0
2023-08-12 16:36:40.215807,-83.0
2023-08-12 16:36:40.223497,-64.0
2023-08-12 16:36:40.231187,-54.0
2023-08-12 16:36:40.238877,-52.0
2023-08-12 16:36:40.246566,-47.0
2023-08-12 16:36:40.254256,-49.0
2023-08-12 16:36:40.261946,-52.0
2023-08-12 16:36:40.269636,-49.0
2023-08-12 16:36:40.277326,-49.0
2023-08-12 16:36:40.285015,-57.0
2023-08-12 16:36:40.292705,-59.0
2023-08-12 16:36:40.300395,-59.0
2023-08-12 16:36:40.308085,-57.0
2023-08-12 16:36:40.315775,-64.0
2023-08-12 16:36:40.323464,-66.0
2023-08-12 16:36:40.331154,-64.0
2023-08-12 16:36:40.338844,-64.0
2023-08-12 16:36:40.346534,-69.0
2023-08-12 16:36:40.354224,-71.0
2023-08-12 16:36:40.361913,-73.0
2023-08-12 16:36:40.369603,-69.0
2023-08-12 16:36:40.377293,-78.0
2023-08-12 16:36:40.384983,-78.0
2023-08-12 16:36:40.392672,-61.0
2023-08-12 16:36:40.400362,-69.0
2023-08-12 16:36:40.408052,-88.0
2023-08-12 16:36:40.415742,-71.0
2023-08-12 16:36:40.423432,-59.0
2023-08-12 16:36:40.431121,-76.0
2023-08-12 16:36:40.438811,-76.0
2023-08-12 16:36:40.446501,-61.0
2023-08-12 16:36:40.454191,-61.0
2023-08-12 16:36:40.461881,-71.0
2023-08-12 16:36:40.469570,-61.0
2023-08-12 16:36:40.477260,-54.0
2023-08-12 16:36:40.484950,-71.0
2023-08-12 16:36:40.492640,-73.0
2023-08-12 16:36:40.500330,-59.0
2023-08-12 16:36:40.508019,-61.0
2023-08-12 16:36:40.515709,-64.0
2023-08-12 16:36:40.523399,-61.0
2023-08-12 16:36:40.531089,-61.0
2023-08-12 16:36:40.538779,-59.0
2023-08-12 16:36:40.546468,-57.0
2023-08-12 16:36:40.554158,-64.0
2023-08-12 16:36:40.561848,-61.0
2023-08-12 16:36:40.569538,-59.0
2023-08-12 16:36:40.577228,-69.0
2023-08-12 16:36:40.584917,-66.0
2023-08-12 16:36:40.592607,-57.0
2023-08-12 16:36:40.600297,-61.0
2023-08-12 16:36:40.607987,-69.0
2023-08-12 16:36:40.615676,-69.0
2023-08-12 16:36:40.623366,-66.0
2023-08-12 16:36:40.631056,-69.0
2023-08-12 16:36:40.638746,-71.0
2023-08-12 16:36:40.646436,-73.0
2023-08-12 16:36:40.654125,-73.0
2023-08-12 16:36:40.661815,-71.0
2023-08-12 16:36:40.669505,-71.0
2023-08-12 16:36:40.677195,-66.0
2023-08-12 16:36:40.684885,-59.0
2023-08-12 16:36:40.692574,-71.0
2023-08-12 16:36:40.700264,-97.0
2023-08-12 16:36:40.707954,-116.0
2023-08-12 16:36:40.715644,-114.0
2023-08-12 16:36:40.723334,-104.0
2023-08-12 16:36:40.731023,-90.0
2023-08-12 16:36:40.738713,-71.0
2023-08-12 16:36:40.746403,-61.0
2023-08-12 16:36:40.754093,-64.0
2023-08-12 16:36:40.761783,-64.0
2023-08-12 16:36:40.769472,-59.0
2023-08-12 16:36:40.777162,-57.0
2023-08-12 16:36:40.784852,-59.0
2023-08-12 16:36:40.792542,-64.0
2023-08-12 16:36:40.800231,-64.0
2023-08-12 16:36:40.807921,-61.0
2023-08-12 16:36:40.815611,-61.0
2023-08-12 16:36:40.823301,-104.0
2023-08-12 16:36:40.830991,-264.0
2023-08-12 16:36:40.838680,-549.0
2023-08-12 16:36:40.846370,-647.0
2023-08-12 16:36:40.854060,-211.0
2023-08-12 16:36:40.861750,171.0
2023-08-12 16:36:40.869440,-19.0
2023-08-12 16:36:40.877129,-164.0
2023-08-12 16:36:40.884819,-21.0
2023-08-12 16:36:40.892509,-4.0
2023-08-12 16:36:40.900199,-83.0
2023-08-12 16:36:40.907889,-71.0
2023-08-12 16:36:40.915578,-45.0
2023-08-12 16:36:40.923268,-52.0
2023-08-12 16:36:40.930958,-52.0
2023-08-12 16:36:40.938648,-40.0
2023-08-12 16:36:40.946338,-40.0
2023-08-12 16:36:40.954027,-49.0
2023-08-12 16:36:40.961717,-54.0
2023-08-12 16:36:40.969407,-59.0
2023-08-12 16:36:40.977097,-64.0
2023-08-12 16:36:40.984787,-66.0
2023-08-12 16:36:40.992476,-66.0
2023-08-12 16:36:41.000166,-69.0
2023-08-12 16:36:41.007856,-83.0
2023-08-12 16:36:41.015546,-92.0
2023-08-12 16:36:41.023235,-85.0
2023-08-12 16:36:41.030925,-88.0
2023-08-12 16:36:41.038615,-111.0
2023-08-12 16:36:41.046305,-123.0
2023-08-12 16:36:41.053995,-116.0
2023-08-12 16:36:41.061684,-123.0
2023-08-12 16:36:41.069374,-140.0
2023-08-12 16:36:41.077064,-152.0
2023-08-12 16:36:41.084754,-154.0
2023-08-12 16:36:41.092444,-154.0
2023-08-12 16:36:41.100133,-154.0
2023-08-12 16:36:41.107823,-159.0
2023-08-12 16:36:41.115513,-159.0
2023-08-12 16:36:41.123203,-138.0
2023-08-12 16:36:41.130893,-126.0
2023-08-12 16:36:41.138582,-121.0
2023-08-12 16:36:41.146272,-90.0
2023-08-12 16:36:41.153962,-54.0
2023-08-12 16:36:41.161652,-45.0
2023-08-12 16:36:41.169342,-35.0
2023-08-12 16:36:41.177031,-19.0
2023-08-12 16:36:41.184721,-21.0
2023-08-12 16:36:41.192411,-33.0
2023-08-12 16:36:41.200101,-30.0
2023-08-12 16:36:41.207790,-19.0
2023-08-12 16:36:41.215480,-9.0
2023-08-12 16:36:41.223170,-11.0
2023-08-12 16:36:41.230860,-30.0
2023-08-12 16:36:41.238550,-26.0
2023-08-12 16:36:41.246239,-16.0
2023-08-12 16:36:41.253929,-28.0
2023-08-12 16:36:41.261619,-23.0
2023-08-12 16:36:41.269309,-7.0
2023-08-12 16:36:41.276999,-16.0
2023-08-12 16:36:41.284688,-28.0
2023-08-12 16:36:41.292378,-19.0
2023-08-12 16:36:41.300068,-16.0
2023-08-12 16:36:41.307758,-21.0
2023-08-12 16:36:41.315448,-14.0
2023-08-12 16:36:41.323137,-11.0
2023-08-12 16:36:41.330827,-14.0
2023-08-12 16:36:41.338517,-9.0
2023-08-12 16:36:41.346207,-11.0
2023-08-12 16:36:41.353897,-9.0
2023-08-12 16:36:41.361586,-2.0
2023-08-12 16:36:41.369276,-11.0
2023-08-12 16:36:41.376966,-21.0
2023-08-12 16:36:41.384656,-16.0
2023-08-12 16:36:41.392346,-9.0
2023-08-12 16:36:41.400035,-9.0
2023-08-12 16:36:41.407725,-16.0
2023-08-12 16:36:41.415415,-23.0
2023-08-12 16:36:41.423105,-23.0
2023-08-12 16:36:41.430794,-14.0
2023-08-12 16:36:41.438484,-14.0
2023-08-12 16:36:41.446174,-21.0
2023-08-12 16:36:41.453864,-23.0
2023-08-12 16:36:41.461554,-26.0
2023-08-12 16:36:41.469243,-40.0
2023-08-12 16:36:41.476933,-47.0
2023-08-12 16:36:41.484623,-47.0
2023-08-12 16:36:41.492313,-49.0
2023-08-12 16:36:41.500003,-45.0
2023-08-12 16:36:41.507692,-26.0
2023-08-12 16:36:41.515382,-14.0
2023-08-12 16:36:41.523072,-9.0
2023-08-12 16:36:41.530762,-2.0
2023-08-12 16:36:41.538452,-2.0
2023-08-12 16:36:41.546141,-9.0
2023-08-12 16:36:41.553831,-14.0
2023-08-12 16:36:41.561521,-14.0
2023-08-12 16:36:41.569211,-16.0
2023-08-12 16:36:41.576901,-16.0
2023-08-12 16:36:41.584590,-19.0
2023-08-12 16:36:41.592280,-49.0
2023-08-12 16:36:41.599970,-152.0
2023-08-12 16:36:41.607660,-380.0
2023-08-12 16:36:41.615349,-585.0
2023-08-12 16:36:41.623039,-321.0
2023-08-12 16:36:41.630729,185.0
2023-08-12 16:36:41.638419,157.0
2023-08-12 16:36:41.646109,-104.0
2023-08-12 16:36:41.653798,-40.0
2023-08-12 16:36:41.661488,33.0
2023-08-12 16:36:41.669178,-38.0
2023-08-12 16:36:41.676868,-42.0
2023-08-12 16:36:41.684558,-7.0
2023-08-12 16:36:41.692247,-26.0
2023-08-12 16:36:41.699937,-45.0
2023-08-12 16:36:41.707627,-38.0
2023-08-12 16:36:41.715317,-42.0
2023-08-12 16:36:41.723007,-52.0
2023-08-12 16:36:41.730696,-49.0
2023-08-12 16:36:41.738386,-47.0
2023-08-12 16:36:41.746076,-61.0
2023-08-12 16:36:41.753766,-71.0
2023-08-12 16:36:41.761456,-61.0
2023-08-12 16:36:41.769145,-66.0
2023-08-12 16:36:41.776835,-80.0
2023-08-12 16:36:41.784525,-83.0
2023-08-12 16:36:41.792215,-88.0
2023-08-12 16:36:41.799905,-99.0
2023-08-12 16:36:41.807594,-111.0
2023-08-12 16:36:41.815284,-126.0
2023-08-12 16:36:41.822974,-128.0
2023-08-12 16:36:41.830664,-130.0
2023-08-12 16:36:41.838353,-152.0
2023-08-12 16:36:41.846043,-171.0
2023-08-12 16:36:41.853733,-171.0
2023-08-12 16:36:41.861423,-173.0
2023-08-12 16:36:41.869113,-180.0
2023-08-12 16:36:41.876802,-180.0
2023-08-12 16:36:41.884492,-183.0
2023-08-12 16:36:41.892182,-176.0
2023-08-12 16:36:41.899872,-152.0
2023-08-12 16:36:41.907562,-133.0
2023-08-12 16:36:41.915251,-111.0
2023-08-12 16:36:41.922941,-83.0
2023-08-12 16:36:41.930631,-73.0
2023-08-12 16:36:41.938321,-64.0
2023-08-12 16:36:41.946011,-52.0
2023-08-12 16:36:41.953700,-52.0
2023-08-12 16:36:41.961390,-57.0
2023-08-12 16:36:41.969080,-59.0
2023-08-12 16:36:41.976770,-66.0
2023-08-12 16:36:41.984460,-69.0
2023-08-12 16:36:41.992149,-57.0
2023-08-12 16:36:41.999839,-59.0
2023-08-12 16:36:42.007529,-78.0
2023-08-12 16:36:42.015219,-71.0
2023-08-12 16:36:42.022908,-64.0
2023-08-12 16:36:42.030598,-76.0
2023-08-12 16:36:42.038288,-76.0
2023-08-12 16:36:42.045978,-83.0
2023-08-12 16:36:42.053668,-92.0
2023-08-12 16:36:42.061357,-88.0
2023-08-12 16:36:42.069047,-85.0
2023-08-12 16:36:42.076737,-88.0
2023-08-12 16:36:42.084427,-92.0
2023-08-12 16:36:42.092117,-97.0
2023-08-12 16:36:42.099806,-90.0
2023-08-12 16:36:42.107496,-80.0
2023-08-12 16:36:42.115186,-80.0
2023-08-12 16:36:42.122876,-80.0
2023-08-12 16:36:42.130566,-73.0
2023-08-12 16:36:42.138255,-76.0
2023-08-12 16:36:42.145945,-80.0
2023-08-12 16:36:42.153635,-80.0
2023-08-12 16:36:42.161325,-83.0
2023-08-12 16:36:42.169015,-83.0
2023-08-12 16:36:42.176704,-78.0
2023-08-12 16:36:42.184394,-76.0
2023-08-12 16:36:42.192084,-80.0
2023-08-12 16:36:42.199774,-83.0
2023-08-12 16:36:42.207464,-80.0
2023-08-12 16:36:42.215153,-80.0
2023-08-12 16:36:42.222843,-83.0
2023-08-12 16:36:42.230533,-80.0
2023-08-12 16:36:42.238223,-80.0
2023-08-12 16:36:42.245912,-92.0
2023-08-12 16:36:42.253602,-107.0
2023-08-12 16:36:42.261292,-121.0
2023-08-12 16:36:42.268982,-133.0
2023-08-12 16:36:42.276672,-128.0
2023-08-12 16:36:42.284361,-102.0
2023-08-12 16:36:42.292051,-80.0
2023-08-12 16:36:42.299741,-85.0
2023-08-12 16:36:42.307431,-90.0
2023-08-12 16:36:42.315121,-83.0
2023-08-12 16:36:42.322810,-80.0
2023-08-12 16:36:42.330500,-88.0
2023-08-12 16:36:42.338190,-92.0
2023-08-12 16:36:42.345880,-85.0
2023-08-12 16:36:42.353570,-80.0
2023-08-12 16:36:42.361259,-88.0
2023-08-12 16:36:42.368949,-95.0
2023-08-12 16:36:42.376639,-128.0
2023-08-12 16:36:42.384329,-273.0
2023-08-12 16:36:42.392019,-576.0
2023-08-12 16:36:42.399708,-721.0
2023-08-12 16:36:42.407398,-302.0
2023-08-12 16:36:42.415088,142.0
2023-08-12 16:36:42.422778,-9.0
2023-08-12 16:36:42.430467,-180.0
2023-08-12 16:36:42.438157,-57.0
2023-08-12 16:36:42.445847,-38.0
2023-08-12 16:36:42.453537,-104.0
2023-08-12 16:36:42.461227,-83.0
2023-08-12 16:36:42.468916,-69.0
2023-08-12 16:36:42.476606,-97.0
2023-08-12 16:36:42.484296,-92.0
2023-08-12 16:36:42.491986,-80.0
2023-08-12 16:36:42.499676,-95.0
2023-08-12 16:36:42.507365,-102.0
2023-08-12 16:36:42.515055,-99.0
2023-08-12 16:36:42.522745,-102.0
2023-08-12 16:36:42.530435,-99.0
2023-08-12 16:36:42.538125,-102.0
2023-08-12 16:36:42.545814,-123.0
2023-08-12 16:36:42.553504,-138.0
2023-08-12 16:36:42.561194,-121.0
2023-08-12 16:36:42.568884,-121.0
2023-08-12 16:36:42.576574,-140.0
2023-08-12 16:36:42.584263,-149.0
2023-08-12 16:36:42.591953,-157.0
2023-08-12 16:36:42.599643,-171.0
2023-08-12 16:36:42.607333,-176.0
2023-08-12 16:36:42.615023,-185.0
2023-08-12 16:36:42.622712,-195.0
2023-08-12 16:36:42.630402,-195.0
2023-08-12 16:36:42.638092,-197.0
2023-08-12 16:36:42.645782,-202.0
2023-08-12 16:36:42.653471,-207.0
2023-08-12 16:36:42.661161,-204.0
2023-08-12 16:36:42.668851,-199.0
2023-08-12 16:36:42.676541,-199.0
2023-08-12 16:36:42.684231,-180.0
2023-08-12 16:36:42.691920,-140.0
2023-08-12 16:36:42.699610,-116.0
2023-08-12 16:36:42.707300,-104.0
2023-08-12 16:36:42.714990,-80.0
2023-08-12 16:36:42.722680,-66.0
2023-08-12 16:36:42.730369,-61.0
2023-08-12 16:36:42.738059,-47.0
2023-08-12 16:36:42.745749,-47.0
2023-08-12 16:36:42.753439,-64.0
2023-08-12 16:36:42.761129,-64.0
2023-08-12 16:36:42.768818,-57.0
2023-08-12 16:36:42.776508,-57.0
2023-08-12 16:36:42.784198,-64.0
2023-08-12 16:36:42.791888,-64.0
2023-08-12 16:36:42.799578,-52.0
2023-08-12 16:36:42.807267,-49.0
2023-08-12 16:36:42.814957,-61.0
2023-08-12 16:36:42.822647,-66.0
2023-08-12 16:36:42.830337,-61.0
2023-08-12 16:36:42.838026,-66.0
2023-08-12 16:36:42.845716,-73.0
2023-08-12 16:36:42.853406,-66.0
2023-08-12 16:36:42.861096,-59.0
2023-08-12 16:36:42.868786,-69.0
2023-08-12 16:36:42.876475,-69.0
2023-08-12 16:36:42.884165,-64.0
2023-08-12 16:36:42.891855,-64.0
2023-08-12 16:36:42.899545,-57.0
2023-08-12 16:36:42.907235,-52.0
2023-08-12 16:36:42.914924,-52.0
2023-08-12 16:36:42.922614,-54.0
2023-08-12 16:36:42.930304,-61.0
2023-08-12 16:36:42.937994,-61.0
2023-08-12 16:36:42.945684,-61.0
2023-08-12 16:36:42.953373,-59.0
2023-08-12 16:36:42.961063,-54.0
2023-08-12 16:36:42.968753,-57.0
2023-08-12 16:36:42.976443,-54.0
2023-08-12 16:36:42.984133,-49.0
2023-08-12 16:36:42.991822,-49.0
2023-08-12 16:36:42.999512,-52.0
2023-08-12 16:36:43.007202,-59.0
2023-08-12 16:36:43.014892,-61.0
2023-08-12 16:36:43.022581,-52.0
2023-08-12 16:36:43.030271,-52.0
2023-08-12 16:36:43.037961,-61.0
2023-08-12 16:36:43.045651,-66.0
2023-08-12 16:36:43.053341,-64.0
2023-08-12 16:36:43.061030,-66.0
2023-08-12 16:36:43.068720,-59.0
2023-08-12 16:36:43.076410,-49.0
2023-08-12 16:36:43.084100,-61.0
2023-08-12 16:36:43.091790,-76.0
2023-08-12 16:36:43.099479,-69.0
2023-08-12 16:36:43.107169,-59.0
2023-08-12 16:36:43.114859,-59.0
2023-08-12 16:36:43.122549,-59.0
2023-08-12 16:36:43.130239,-57.0
2023-08-12 16:36:43.137928,-59.0
2023-08-12 16:36:43.145618,-59.0
2023-08-12 16:36:43.153308,-59.0
2023-08-12 16:36:43.160998,-59.0
2023-08-12 16:36:43.168688,-54.0
2023-08-12 16:36:43.176377,-52.0
2023-08-12 16:36:43.184067,-54.0
2023-08-12 16:36:43.191757,-57.0
2023-08-12 16:36:43.199447,-52.0
2023-08-12 16:36:43.207137,-47.0
2023-08-12 16:36:43.214826,-52.0
2023-08-12 16:36:43.222516,-64.0
2023-08-12 16:36:43.230206,-61.0
2023-08-12 16:36:43.237896,-47.0
2023-08-12 16:36:43.245585,-47.0
2023-08-12 16:36:43.253275,-61.0
2023-08-12 16:36:43.260965,-78.0
2023-08-12 16:36:43.268655,-80.0
2023-08-12 16:36:43.276345,-78.0
2023-08-12 16:36:43.284034,-71.0
2023-08-12 16:36:43.291724,-54.0
2023-08-12 16:36:43.299414,-38.0
2023-08-12 16:36:43.307104,-35.0
2023-08-12 16:36:43.314794,-38.0
2023-08-12 16:36:43.322483,-30.0
2023-08-12 16:36:43.330173,-23.0
2023-08-12 16:36:43.337863,-28.0
2023-08-12 16:36:43.345553,-33.0
2023-08-12 16:36:43.353243,-30.0
2023-08-12 16:36:43.360932,-26.0
2023-08-12 16:36:43.368622,-19.0
2023-08-12 16:36:43.376312,-33.0
2023-08-12 16:36:43.384002,-130.0
2023-08-12 16:36:43.391692,-376.0
2023-08-12 16:36:43.399381,-611.0
2023-08-12 16:36:43.407071,-376.0
2023-08-12 16:36:43.414761,138.0
2023-08-12 16:36:43.422451,149.0
2023-08-12 16:36:43.430140,-88.0
2023-08-12 16:36:43.437830,-16.0
2023-08-12 16:36:43.445520,59.0
2023-08-12 16:36:43.453210,-14.0
2023-08-12 16:36:43.460900,-11.0
2023-08-12 16:36:43.468589,26.0
2023-08-12 16:36:43.476279,2.0
2023-08-12 16:36:43.483969,-14.0
2023-08-12 16:36:43.491659,-2.0
2023-08-12 16:36:43.499349,0.0
2023-08-12 16:36:43.507038,-7.0
2023-08-12 16:36:43.514728,-14.0
2023-08-12 16:36:43.522418,-14.0
2023-08-12 16:36:43.530108,-21.0
2023-08-12 16:36:43.537798,-35.0
2023-08-12 16:36:43.545487,-35.0
2023-08-12 16:36:43.553177,-26.0
2023-08-12 16:36:43.560867,-30.0
2023-08-12 16:36:43.568557,-47.0
2023-08-12 16:36:43.576247,-52.0
2023-08-12 16:36:43.583936,-54.0
2023-08-12 16:36:43.591626,-59.0
2023-08-12 16:36:43.599316,-69.0
2023-08-12 16:36:43.607006,-76.0
2023-08-12 16:36:43.614696,-78.0
2023-08-12 16:36:43.622385,-92.0
2023-08-12 16:36:43.630075,-119.0
2023-08-12 16:36:43.637765,-116.0
2023-08-12 16:36:43.645455,-107.0
2023-08-12 16:36:43.653144,-119.0
2023-08-12 16:36:43.660834,-128.0
2023-08-12 16:36:43.668524,-126.0
2023-08-12 16:36:43.676214,-121.0
2023-08-12 16:36:43.683904,-107.0
2023-08-12 16:36:43.691593,-88.0
2023-08-12 16:36:43.699283,-66.0
2023-08-12 16:36:43.706973,-38.0
2023-08-12 16:36:43.714663,-19.0
2023-08-12 16:36:43.722353,-11.0
2023-08-12 16:36:43.730042,-2.0
2023-08-12 16:36:43.737732,9.0
2023-08-12 16:36:43.745422,16.0
2023-08-12 16:36:43.753112,26.0
2023-08-12 16:36:43.760802,26.0
2023-08-12 16:36:43.768491,14.0
2023-08-12 16:36:43.776181,16.0
2023-08-12 16:36:43.783871,21.0
2023-08-12 16:36:43.791561,11.0
2023-08-12 16:36:43.799251,2.0
2023-08-12 16:36:43.806940,4.0
2023-08-12 16:36:43.814630,9.0
2023-08-12 16:36:43.822320,11.0
2023-08-12 16:36:43.830010,9.0
2023-08-12 16:36:43.837699,4.0
2023-08-12 16:36:43.845389,11.0
2023-08-12 16:36:43.853079,19.0
2023-08-12 16:36:43.860769,11.0
2023-08-12 16:36:43.868459,7.0
2023-08-12 16:36:43.876148,16.0
2023-08-12 16:36:43.883838,26.0
2023-08-12 16:36:43.891528,23.0
2023-08-12 16:36:43.899218,19.0
2023-08-12 16:36:43.906908,21.0
2023-08-12 16:36:43.914597,23.0
2023-08-12 16:36:43.922287,21.0
2023-08-12 16:36:43.929977,21.0
2023-08-12 16:36:43.937667,28.0
2023-08-12 16:36:43.945357,30.0
2023-08-12 16:36:43.953046,21.0
2023-08-12 16:36:43.960736,14.0
2023-08-12 16:36:43.968426,28.0
2023-08-12 16:36:43.976116,35.0
2023-08-12 16:36:43.983806,23.0
2023-08-12 16:36:43.991495,23.0
2023-08-12 16:36:43.999185,33.0
2023-08-12 16:36:44.006875,30.0
2023-08-12 16:36:44.014565,28.0
2023-08-12 16:36:44.022255,38.0
2023-08-12 16:36:44.029944,28.0
2023-08-12 16:36:44.037634,19.0
2023-08-12 16:36:44.045324,30.0
2023-08-12 16:36:44.053014,33.0
2023-08-12 16:36:44.060703,21.0
2023-08-12 16:36:44.068393,21.0
2023-08-12 16:36:44.076083,30.0
2023-08-12 16:36:44.083773,23.0
2023-08-12 16:36:44.091463,7.0
2023-08-12 16:36:44.099152,-2.0
2023-08-12 16:36:44.106842,-7.0
2023-08-12 16:36:44.114532,-11.0
2023-08-12 16:36:44.122222,-9.0
2023-08-12 16:36:44.129912,9.0
2023-08-12 16:36:44.137601,28.0
2023-08-12 16:36:44.145291,28.0
2023-08-12 16:36:44.152981,16.0
2023-08-12 16:36:44.160671,16.0
2023-08-12 16:36:44.168361,19.0
2023-08-12 16:36:44.176050,14.0
2023-08-12 16:36:44.183740,16.0
2023-08-12 16:36:44.191430,19.0
2023-08-12 16:36:44.199120,14.0
2023-08-12 16:36:44.206810,16.0
2023-08-12 16:36:44.214499,11.0
2023-08-12 16:36:44.222189,-52.0
2023-08-12 16:36:44.229879,-226.0
2023-08-12 16:36:44.237569,-485.0
2023-08-12 16:36:44.245258,-492.0
2023-08-12 16:36:44.252948,-21.0
2023-08-12 16:36:44.260638,273.0
2023-08-12 16:36:44.268328,49.0
2023-08-12 16:36:44.276018,-59.0
2023-08-12 16:36:44.283707,49.0
2023-08-12 16:36:44.291397,28.0
2023-08-12 16:36:44.299087,-19.0
2023-08-12 16:36:44.306777,14.0
2023-08-12 16:36:44.314467,26.0
2023-08-12 16:36:44.322156,0.0
2023-08-12 16:36:44.329846,-7.0
2023-08-12 16:36:44.337536,-4.0
2023-08-12 16:36:44.345226,-14.0
2023-08-12 16:36:44.352916,-21.0
2023-08-12 16:36:44.360605,-21.0
2023-08-12 16:36:44.368295,-26.0
2023-08-12 16:36:44.375985,-30.0
2023-08-12 16:36:44.383675,-30.0
2023-08-12 16:36:44.391365,-45.0
2023-08-12 16:36:44.399054,-57.0
2023-08-12 16:36:44.406744,-47.0
2023-08-12 16:36:44.414434,-52.0
2023-08-12 16:36:44.422124,-78.0
2023-08-12 16:36:44.429814,-88.0
2023-08-12 16:36:44.437503,-90.0
2023-08-12 16:36:44.445193,-107.0
2023-08-12 16:36:44.452883,-119.0
2023-08-12 16:36:44.460573,-123.0
2023-08-12 16:36:44.468262,-133.0
2023-08-12 16:36:44.475952,-147.0
2023-08-12 16:36:44.483642,-154.0
2023-08-12 16:36:44.491332,-154.0
2023-08-12 16:36:44.499022,-152.0
2023-08-12 16:36:44.506711,-157.0
2023-08-12 16:36:44.514401,-157.0
2023-08-12 16:36:44.522091,-142.0
2023-08-12 16:36:44.529781,-119.0
2023-08-12 16:36:44.537471,-102.0
2023-08-12 16:36:44.545160,-80.0
2023-08-12 16:36:44.552850,-52.0
2023-08-12 16:36:44.560540,-40.0
2023-08-12 16:36:44.568230,-40.0
2023-08-12 16:36:44.575920,-30.0
2023-08-12 16:36:44.583609,-19.0
2023-08-12 16:36:44.591299,-21.0
2023-08-12 16:36:44.598989,-26.0
2023-08-12 16:36:44.606679,-28.0
2023-08-12 16:36:44.614369,-30.0
2023-08-12 16:36:44.622058,-33.0
2023-08-12 16:36:44.629748,-38.0
2023-08-12 16:36:44.637438,-40.0
2023-08-12 16:36:44.645128,-40.0
2023-08-12 16:36:44.652817,-42.0
2023-08-12 16:36:44.660507,-45.0
2023-08-12 16:36:44.668197,-47.0
2023-08-12 16:36:44.675887,-54.0
2023-08-12 16:36:44.683577,-57.0
2023-08-12 16:36:44.691266,-54.0
2023-08-12 16:36:44.698956,-57.0
2023-08-12 16:36:44.706646,-66.0
2023-08-12 16:36:44.714336,-66.0
2023-08-12 16:36:44.722026,-57.0
2023-08-12 16:36:44.729715,-57.0
2023-08-12 16:36:44.737405,-57.0
2023-08-12 16:36:44.745095,-52.0
2023-08-12 16:36:44.752785,-57.0
2023-08-12 16:36:44.760475,-57.0
2023-08-12 16:36:44.768164,-52.0
2023-08-12 16:36:44.775854,-52.0
2023-08-12 16:36:44.783544,-54.0
2023-08-12 16:36:44.791234,-57.0
2023-08-12 16:36:44.798924,-59.0
2023-08-12 16:36:44.806613,-59.0
2023-08-12 16:36:44.814303,-57.0
2023-08-12 16:36:44.821993,-49.0
2023-08-12 16:36:44.829683,-52.0
2023-08-12 16:36:44.837373,-66.0
2023-08-12 16:36:44.845062,-69.0
2023-08-12 16:36:44.852752,-57.0
2023-08-12 16:36:44.860442,-54.0
2023-08-12 16:36:44.868132,-59.0
2023-08-12 16:36:44.875821,-59.0
2023-08-12 16:36:44.883511,-59.0
2023-08-12 16:36:44.891201,-61.0
2023-08-12 16:36:44.898891,-61.0
2023-08-12 16:36:44.906581,-54.0
2023-08-12 16:36:44.914270,-61.0
2023-08-12 16:36:44.921960,-76.0
2023-08-12 16:36:44.929650,-85.0
2023-08-12 16:36:44.937340,-107.0
2023-08-12 16:36:44.945030,-121.0
2023-08-12 16:36:44.952719,-107.0
2023-08-12 16:36:44.960409,-78.0
2023-08-12 16:36:44.968099,-71.0
2023-08-12 16:36:44.975789,-73.0
2023-08-12 16:36:44.983479,-61.0
2023-08-12 16:36:44.991168,-59.0
2023-08-12 16:36:44.998858,-64.0
2023-08-12 16:36:45.006548,-61.0
2023-08-12 16:36:45.014238,-59.0
2023-08-12 16:36:45.021928,-61.0
2023-08-12 16:36:45.029617,-57.0
2023-08-12 16:36:45.037307,-57.0
2023-08-12 16:36:45.044997,-69.0
2023-08-12 16:36:45.052687,-109.0
2023-08-12 16:36:45.060376,-268.0
2023-08-12 16:36:45.068066,-578.0
2023-08-12 16:36:45.075756,-664.0
2023-08-12 16:36:45.083446,-199.0
2023-08-12 16:36:45.091136,183.0
2023-08-12 16:36:45.098825,2.0
2023-08-12 16:36:45.106515,-133.0
2023-08-12 16:36:45.114205,-9.0
2023-08-12 16:36:45.121895,-2.0
2023-08-12 16:36:45.129585,-57.0
2023-08-12 16:36:45.137274,-28.0
2023-08-12 16:36:45.144964,-16.0
2023-08-12 16:36:45.152654,-42.0
2023-08-12 16:36:45.160344,-40.0
2023-08-12 16:36:45.168034,-33.0
2023-08-12 16:36:45.175723,-47.0
2023-08-12 16:36:45.183413,-49.0
2023-08-12 16:36:45.191103,-42.0
2023-08-12 16:36:45.198793,-52.0
2023-08-12 16:36:45.206483,-69.0
2023-08-12 16:36:45.214172,-69.0
2023-08-12 16:36:45.221862,-66.0
2023-08-12 16:36:45.229552,-73.0
2023-08-12 16:36:45.237242,-78.0
2023-08-12 16:36:45.244932,-88.0
2023-08-12 16:36:45.252621,-99.0
2023-08-12 16:36:45.260311,-102.0
2023-08-12 16:36:45.268001,-107.0
2023-08-12 16:36:45.275691,-119.0
2023-08-12 16:36:45.283380,-130.0
2023-08-12 16:36:45.291070,-145.0
2023-08-12 16:36:45.298760,-161.0
2023-08-12 16:36:45.306450,-169.0
2023-08-12 16:36:45.314140,-166.0
2023-08-12 16:36:45.321829,-171.0
2023-08-12 16:36:45.329519,-180.0
2023-08-12 16:36:45.337209,-178.0
2023-08-12 16:36:45.344899,-173.0
2023-08-12 16:36:45.352589,-164.0
2023-08-12 16:36:45.360278,-138.0
2023-08-12 16:36:45.367968,-104.0
2023-08-12 16:36:45.375658,-83.0
2023-08-12 16:36:45.383348,-64.0
2023-08-12 16:36:45.391038,-42.0
2023-08-12 16:36:45.398727,-30.0
2023-08-12 16:36:45.406417,-28.0
2023-08-12 16:36:45.414107,-26.0
2023-08-12 16:36:45.421797,-21.0
2023-08-12 16:36:45.429487,-19.0
2023-08-12 16:36:45.437176,-21.0
2023-08-12 16:36:45.444866,-28.0
2023-08-12 16:36:45.452556,-33.0
2023-08-12 16:36:45.460246,-33.0
2023-08-12 16:36:45.467935,-33.0
2023-08-12 16:36:45.475625,-40.0
2023-08-12 16:36:45.483315,-40.0
2023-08-12 16:36:45.491005,-38.0
