time,ECG
2023-08-12 10:37:17.114986,-108.0
2023-08-12 10:37:17.122676,-101.0
2023-08-12 10:37:17.130366,-89.0
2023-08-12 10:37:17.138056,-91.0
2023-08-12 10:37:17.145745,-86.0
2023-08-12 10:37:17.153435,-77.0
2023-08-12 10:37:17.161125,-74.0
2023-08-12 10:37:17.168815,-72.0
2023-08-12 10:37:17.176505,-69.0
2023-08-12 10:37:17.184194,-62.0
2023-08-12 10:37:17.191884,-57.0
2023-08-12 10:37:17.199574,-50.0
2023-08-12 10:37:17.207264,-48.0
2023-08-12 10:37:17.214954,-45.0
2023-08-12 10:37:17.222643,-43.0
2023-08-12 10:37:17.230333,-41.0
2023-08-12 10:37:17.238023,-33.0
2023-08-12 10:37:17.245713,-31.0
2023-08-12 10:37:17.253403,-31.0
2023-08-12 10:37:17.261092,-38.0
2023-08-12 10:37:17.268782,-41.0
2023-08-12 10:37:17.276472,-43.0
2023-08-12 10:37:17.284162,-48.0
2023-08-12 10:37:17.291851,-55.0
2023-08-12 10:37:17.299541,-55.0
2023-08-12 10:37:17.307231,-62.0
2023-08-12 10:37:17.314921,-74.0
2023-08-12 10:37:17.322611,-77.0
2023-08-12 10:37:17.330300,-82.0
2023-08-12 10:37:17.337990,-86.0
2023-08-12 10:37:17.345680,-91.0
2023-08-12 10:37:17.353370,-94.0
2023-08-12 10:37:17.361060,-98.0
2023-08-12 10:37:17.368749,-101.0
2023-08-12 10:37:17.376439,-101.0
2023-08-12 10:37:17.384129,-96.0
2023-08-12 10:37:17.391819,-96.0
2023-08-12 10:37:17.399509,-98.0
2023-08-12 10:37:17.407198,-96.0
2023-08-12 10:37:17.414888,-94.0
2023-08-12 10:37:17.422578,-91.0
2023-08-12 10:37:17.430268,-86.0
2023-08-12 10:37:17.437958,-86.0
2023-08-12 10:37:17.445647,-86.0
2023-08-12 10:37:17.453337,-82.0
2023-08-12 10:37:17.461027,-77.0
2023-08-12 10:37:17.468717,-77.0
2023-08-12 10:37:17.476406,-72.0
2023-08-12 10:37:17.484096,-69.0
2023-08-12 10:37:17.491786,-69.0
2023-08-12 10:37:17.499476,-69.0
2023-08-12 10:37:17.507166,-65.0
2023-08-12 10:37:17.514855,-62.0
2023-08-12 10:37:17.522545,-65.0
2023-08-12 10:37:17.530235,-69.0
2023-08-12 10:37:17.537925,-77.0
2023-08-12 10:37:17.545615,-74.0
2023-08-12 10:37:17.553304,-72.0
2023-08-12 10:37:17.560994,-77.0
2023-08-12 10:37:17.568684,-77.0
2023-08-12 10:37:17.576374,-77.0
2023-08-12 10:37:17.584064,-77.0
2023-08-12 10:37:17.591753,-72.0
2023-08-12 10:37:17.599443,-67.0
2023-08-12 10:37:17.607133,-67.0
2023-08-12 10:37:17.614823,-65.0
2023-08-12 10:37:17.622512,-65.0
2023-08-12 10:37:17.630202,-69.0
2023-08-12 10:37:17.637892,-67.0
2023-08-12 10:37:17.645582,-65.0
2023-08-12 10:37:17.653272,-60.0
2023-08-12 10:37:17.660961,-53.0
2023-08-12 10:37:17.668651,-38.0
2023-08-12 10:37:17.676341,-7.0
2023-08-12 10:37:17.684031,16.0
2023-08-12 10:37:17.691721,4.0
2023-08-12 10:37:17.699410,-14.0
2023-08-12 10:37:17.707100,-26.0
2023-08-12 10:37:17.714790,-48.0
2023-08-12 10:37:17.722480,-65.0
2023-08-12 10:37:17.730170,-69.0
2023-08-12 10:37:17.737859,-69.0
2023-08-12 10:37:17.745549,-67.0
2023-08-12 10:37:17.753239,-67.0
2023-08-12 10:37:17.760929,-67.0
2023-08-12 10:37:17.768619,-67.0
2023-08-12 10:37:17.776308,-65.0
2023-08-12 10:37:17.783998,-69.0
2023-08-12 10:37:17.791688,-84.0
2023-08-12 10:37:17.799378,-69.0
2023-08-12 10:37:17.807067,69.0
2023-08-12 10:37:17.814757,412.0
2023-08-12 10:37:17.822447,694.0
2023-08-12 10:37:17.830137,323.0
2023-08-12 10:37:17.837827,-291.0
2023-08-12 10:37:17.845516,-197.0
2023-08-12 10:37:17.853206,108.0
2023-08-12 10:37:17.860896,-53.0
2023-08-12 10:37:17.868586,-195.0
2023-08-12 10:37:17.876276,-101.0
2023-08-12 10:37:17.883965,-94.0
2023-08-12 10:37:17.891655,-144.0
2023-08-12 10:37:17.899345,-118.0
2023-08-12 10:37:17.907035,-98.0
2023-08-12 10:37:17.914725,-113.0
2023-08-12 10:37:17.922414,-103.0
2023-08-12 10:37:17.930104,-89.0
2023-08-12 10:37:17.937794,-94.0
2023-08-12 10:37:17.945484,-91.0
2023-08-12 10:37:17.953174,-84.0
2023-08-12 10:37:17.960863,-79.0
2023-08-12 10:37:17.968553,-74.0
2023-08-12 10:37:17.976243,-67.0
2023-08-12 10:37:17.983933,-65.0
2023-08-12 10:37:17.991622,-62.0
2023-08-12 10:37:17.999312,-55.0
2023-08-12 10:37:18.007002,-50.0
2023-08-12 10:37:18.014692,-48.0
2023-08-12 10:37:18.022382,-41.0
2023-08-12 10:37:18.030071,-38.0
2023-08-12 10:37:18.037761,-38.0
2023-08-12 10:37:18.045451,-38.0
2023-08-12 10:37:18.053141,-41.0
2023-08-12 10:37:18.060831,-43.0
2023-08-12 10:37:18.068520,-50.0
2023-08-12 10:37:18.076210,-62.0
2023-08-12 10:37:18.083900,-67.0
2023-08-12 10:37:18.091590,-69.0
2023-08-12 10:37:18.099280,-72.0
2023-08-12 10:37:18.106969,-77.0
2023-08-12 10:37:18.114659,-82.0
2023-08-12 10:37:18.122349,-86.0
2023-08-12 10:37:18.130039,-94.0
2023-08-12 10:37:18.137729,-98.0
2023-08-12 10:37:18.145418,-98.0
2023-08-12 10:37:18.153108,-98.0
2023-08-12 10:37:18.160798,-98.0
2023-08-12 10:37:18.168488,-98.0
2023-08-12 10:37:18.176177,-98.0
2023-08-12 10:37:18.183867,-96.0
2023-08-12 10:37:18.191557,-91.0
2023-08-12 10:37:18.199247,-89.0
2023-08-12 10:37:18.206937,-89.0
2023-08-12 10:37:18.214626,-89.0
2023-08-12 10:37:18.222316,-86.0
2023-08-12 10:37:18.230006,-84.0
2023-08-12 10:37:18.237696,-82.0
2023-08-12 10:37:18.245386,-79.0
2023-08-12 10:37:18.253075,-77.0
2023-08-12 10:37:18.260765,-74.0
2023-08-12 10:37:18.268455,-72.0
2023-08-12 10:37:18.276145,-69.0
2023-08-12 10:37:18.283835,-65.0
2023-08-12 10:37:18.291524,-65.0
2023-08-12 10:37:18.299214,-67.0
2023-08-12 10:37:18.306904,-67.0
2023-08-12 10:37:18.314594,-62.0
2023-08-12 10:37:18.322284,-62.0
2023-08-12 10:37:18.329973,-62.0
2023-08-12 10:37:18.337663,-60.0
2023-08-12 10:37:18.345353,-60.0
2023-08-12 10:37:18.353043,-57.0
2023-08-12 10:37:18.360732,-57.0
2023-08-12 10:37:18.368422,-60.0
2023-08-12 10:37:18.376112,-67.0
2023-08-12 10:37:18.383802,-69.0
2023-08-12 10:37:18.391492,-65.0
2023-08-12 10:37:18.399181,-62.0
2023-08-12 10:37:18.406871,-62.0
2023-08-12 10:37:18.414561,-62.0
2023-08-12 10:37:18.422251,-60.0
2023-08-12 10:37:18.429941,-57.0
2023-08-12 10:37:18.437630,-57.0
2023-08-12 10:37:18.445320,-57.0
2023-08-12 10:37:18.453010,-60.0
2023-08-12 10:37:18.460700,-60.0
2023-08-12 10:37:18.468390,-57.0
2023-08-12 10:37:18.476079,-53.0
2023-08-12 10:37:18.483769,-48.0
2023-08-12 10:37:18.491459,-41.0
2023-08-12 10:37:18.499149,-19.0
2023-08-12 10:37:18.506839,14.0
2023-08-12 10:37:18.514528,19.0
2023-08-12 10:37:18.522218,-7.0
2023-08-12 10:37:18.529908,-21.0
2023-08-12 10:37:18.537598,-26.0
2023-08-12 10:37:18.545287,-48.0
2023-08-12 10:37:18.552977,-67.0
2023-08-12 10:37:18.560667,-69.0
2023-08-12 10:37:18.568357,-72.0
2023-08-12 10:37:18.576047,-72.0
2023-08-12 10:37:18.583736,-69.0
2023-08-12 10:37:18.591426,-69.0
2023-08-12 10:37:18.599116,-69.0
2023-08-12 10:37:18.606806,-72.0
2023-08-12 10:37:18.614496,-86.0
2023-08-12 10:37:18.622185,-103.0
2023-08-12 10:37:18.629875,-57.0
2023-08-12 10:37:18.637565,137.0
2023-08-12 10:37:18.645255,513.0
2023-08-12 10:37:18.652945,641.0
2023-08-12 10:37:18.660634,89.0
2023-08-12 10:37:18.668324,-357.0
2023-08-12 10:37:18.676014,-82.0
2023-08-12 10:37:18.683704,91.0
2023-08-12 10:37:18.691394,-132.0
2023-08-12 10:37:18.699083,-176.0
2023-08-12 10:37:18.706773,-77.0
2023-08-12 10:37:18.714463,-113.0
2023-08-12 10:37:18.722153,-142.0
2023-08-12 10:37:18.729842,-103.0
2023-08-12 10:37:18.737532,-101.0
2023-08-12 10:37:18.745222,-113.0
2023-08-12 10:37:18.752912,-98.0
2023-08-12 10:37:18.760602,-91.0
2023-08-12 10:37:18.768291,-91.0
2023-08-12 10:37:18.775981,-86.0
2023-08-12 10:37:18.783671,-79.0
2023-08-12 10:37:18.791361,-79.0
2023-08-12 10:37:18.799051,-74.0
2023-08-12 10:37:18.806740,-67.0
2023-08-12 10:37:18.814430,-60.0
2023-08-12 10:37:18.822120,-57.0
2023-08-12 10:37:18.829810,-53.0
2023-08-12 10:37:18.837500,-50.0
2023-08-12 10:37:18.845189,-45.0
2023-08-12 10:37:18.852879,-41.0
2023-08-12 10:37:18.860569,-38.0
2023-08-12 10:37:18.868259,-36.0
2023-08-12 10:37:18.875949,-36.0
2023-08-12 10:37:18.883638,-43.0
2023-08-12 10:37:18.891328,-45.0
2023-08-12 10:37:18.899018,-45.0
2023-08-12 10:37:18.906708,-50.0
2023-08-12 10:37:18.914397,-57.0
2023-08-12 10:37:18.922087,-65.0
2023-08-12 10:37:18.929777,-67.0
2023-08-12 10:37:18.937467,-72.0
2023-08-12 10:37:18.945157,-77.0
2023-08-12 10:37:18.952846,-82.0
2023-08-12 10:37:18.960536,-86.0
2023-08-12 10:37:18.968226,-94.0
2023-08-12 10:37:18.975916,-98.0
2023-08-12 10:37:18.983606,-98.0
2023-08-12 10:37:18.991295,-96.0
2023-08-12 10:37:18.998985,-94.0
2023-08-12 10:37:19.006675,-94.0
2023-08-12 10:37:19.014365,-94.0
2023-08-12 10:37:19.022055,-91.0
2023-08-12 10:37:19.029744,-89.0
2023-08-12 10:37:19.037434,-89.0
2023-08-12 10:37:19.045124,-91.0
2023-08-12 10:37:19.052814,-89.0
2023-08-12 10:37:19.060504,-89.0
2023-08-12 10:37:19.068193,-86.0
2023-08-12 10:37:19.075883,-82.0
2023-08-12 10:37:19.083573,-77.0
2023-08-12 10:37:19.091263,-72.0
2023-08-12 10:37:19.098952,-72.0
2023-08-12 10:37:19.106642,-72.0
2023-08-12 10:37:19.114332,-72.0
2023-08-12 10:37:19.122022,-67.0
2023-08-12 10:37:19.129712,-65.0
2023-08-12 10:37:19.137401,-62.0
2023-08-12 10:37:19.145091,-65.0
2023-08-12 10:37:19.152781,-72.0
2023-08-12 10:37:19.160471,-77.0
2023-08-12 10:37:19.168161,-72.0
2023-08-12 10:37:19.175850,-69.0
2023-08-12 10:37:19.183540,-67.0
2023-08-12 10:37:19.191230,-67.0
2023-08-12 10:37:19.198920,-69.0
2023-08-12 10:37:19.206610,-67.0
2023-08-12 10:37:19.214299,-62.0
2023-08-12 10:37:19.221989,-62.0
2023-08-12 10:37:19.229679,-62.0
2023-08-12 10:37:19.237369,-62.0
2023-08-12 10:37:19.245059,-62.0
2023-08-12 10:37:19.252748,-60.0
2023-08-12 10:37:19.260438,-60.0
2023-08-12 10:37:19.268128,-60.0
2023-08-12 10:37:19.275818,-57.0
2023-08-12 10:37:19.283507,-60.0
2023-08-12 10:37:19.291197,-65.0
2023-08-12 10:37:19.298887,-62.0
2023-08-12 10:37:19.306577,-60.0
2023-08-12 10:37:19.314267,-60.0
2023-08-12 10:37:19.321956,-62.0
2023-08-12 10:37:19.329646,-62.0
2023-08-12 10:37:19.337336,-62.0
2023-08-12 10:37:19.345026,-55.0
2023-08-12 10:37:19.352716,-48.0
2023-08-12 10:37:19.360405,-36.0
2023-08-12 10:37:19.368095,-4.0
2023-08-12 10:37:19.375785,14.0
2023-08-12 10:37:19.383475,-12.0
2023-08-12 10:37:19.391165,-36.0
2023-08-12 10:37:19.398854,-36.0
2023-08-12 10:37:19.406544,-48.0
2023-08-12 10:37:19.414234,-67.0
2023-08-12 10:37:19.421924,-79.0
2023-08-12 10:37:19.429614,-84.0
2023-08-12 10:37:19.437303,-84.0
2023-08-12 10:37:19.444993,-82.0
2023-08-12 10:37:19.452683,-82.0
2023-08-12 10:37:19.460373,-79.0
2023-08-12 10:37:19.468062,-82.0
2023-08-12 10:37:19.475752,-84.0
2023-08-12 10:37:19.483442,-96.0
2023-08-12 10:37:19.491132,-89.0
2023-08-12 10:37:19.498822,26.0
2023-08-12 10:37:19.506511,335.0
2023-08-12 10:37:19.514201,651.0
2023-08-12 10:37:19.521891,383.0
2023-08-12 10:37:19.529581,-258.0
2023-08-12 10:37:19.537271,-263.0
2023-08-12 10:37:19.544960,89.0
2023-08-12 10:37:19.552650,-7.0
2023-08-12 10:37:19.560340,-185.0
2023-08-12 10:37:19.568030,-103.0
2023-08-12 10:37:19.575720,-72.0
2023-08-12 10:37:19.583409,-127.0
2023-08-12 10:37:19.591099,-110.0
2023-08-12 10:37:19.598789,-86.0
2023-08-12 10:37:19.606479,-98.0
2023-08-12 10:37:19.614169,-94.0
2023-08-12 10:37:19.621858,-79.0
2023-08-12 10:37:19.629548,-77.0
2023-08-12 10:37:19.637238,-74.0
2023-08-12 10:37:19.644928,-67.0
2023-08-12 10:37:19.652617,-67.0
2023-08-12 10:37:19.660307,-65.0
2023-08-12 10:37:19.667997,-57.0
2023-08-12 10:37:19.675687,-50.0
2023-08-12 10:37:19.683377,-45.0
2023-08-12 10:37:19.691066,-45.0
2023-08-12 10:37:19.698756,-45.0
2023-08-12 10:37:19.706446,-41.0
2023-08-12 10:37:19.714136,-31.0
2023-08-12 10:37:19.721826,-28.0
2023-08-12 10:37:19.729515,-31.0
2023-08-12 10:37:19.737205,-36.0
2023-08-12 10:37:19.744895,-41.0
2023-08-12 10:37:19.752585,-43.0
2023-08-12 10:37:19.760275,-43.0
2023-08-12 10:37:19.767964,-50.0
2023-08-12 10:37:19.775654,-60.0
2023-08-12 10:37:19.783344,-74.0
2023-08-12 10:37:19.791034,-84.0
2023-08-12 10:37:19.798724,-84.0
2023-08-12 10:37:19.806413,-89.0
2023-08-12 10:37:19.814103,-91.0
2023-08-12 10:37:19.821793,-94.0
2023-08-12 10:37:19.829483,-103.0
2023-08-12 10:37:19.837172,-110.0
2023-08-12 10:37:19.844862,-110.0
2023-08-12 10:37:19.852552,-110.0
2023-08-12 10:37:19.860242,-108.0
2023-08-12 10:37:19.867932,-101.0
2023-08-12 10:37:19.875621,-106.0
2023-08-12 10:37:19.883311,-113.0
2023-08-12 10:37:19.891001,-115.0
2023-08-12 10:37:19.898691,-108.0
2023-08-12 10:37:19.906381,-101.0
2023-08-12 10:37:19.914070,-98.0
2023-08-12 10:37:19.921760,-96.0
2023-08-12 10:37:19.929450,-96.0
2023-08-12 10:37:19.937140,-96.0
2023-08-12 10:37:19.944830,-94.0
2023-08-12 10:37:19.952519,-84.0
2023-08-12 10:37:19.960209,-82.0
2023-08-12 10:37:19.967899,-82.0
2023-08-12 10:37:19.975589,-77.0
2023-08-12 10:37:19.983279,-72.0
2023-08-12 10:37:19.990968,-69.0
2023-08-12 10:37:19.998658,-62.0
2023-08-12 10:37:20.006348,-62.0
2023-08-12 10:37:20.014038,-69.0
2023-08-12 10:37:20.021727,-72.0
2023-08-12 10:37:20.029417,-69.0
2023-08-12 10:37:20.037107,-72.0
2023-08-12 10:37:20.044797,-72.0
2023-08-12 10:37:20.052487,-69.0
2023-08-12 10:37:20.060176,-65.0
2023-08-12 10:37:20.067866,-65.0
2023-08-12 10:37:20.075556,-62.0
2023-08-12 10:37:20.083246,-57.0
2023-08-12 10:37:20.090936,-62.0
2023-08-12 10:37:20.098625,-62.0
2023-08-12 10:37:20.106315,-60.0
2023-08-12 10:37:20.114005,-65.0
2023-08-12 10:37:20.121695,-67.0
2023-08-12 10:37:20.129385,-62.0
2023-08-12 10:37:20.137074,-53.0
2023-08-12 10:37:20.144764,-55.0
2023-08-12 10:37:20.152454,-65.0
2023-08-12 10:37:20.160144,-65.0
2023-08-12 10:37:20.167833,-62.0
2023-08-12 10:37:20.175523,-60.0
2023-08-12 10:37:20.183213,-60.0
2023-08-12 10:37:20.190903,-62.0
2023-08-12 10:37:20.198593,-53.0
2023-08-12 10:37:20.206282,-24.0
2023-08-12 10:37:20.213972,4.0
2023-08-12 10:37:20.221662,2.0
2023-08-12 10:37:20.229352,-24.0
2023-08-12 10:37:20.237042,-33.0
2023-08-12 10:37:20.244731,-43.0
2023-08-12 10:37:20.252421,-62.0
2023-08-12 10:37:20.260111,-74.0
2023-08-12 10:37:20.267801,-77.0
2023-08-12 10:37:20.275491,-79.0
2023-08-12 10:37:20.283180,-82.0
2023-08-12 10:37:20.290870,-79.0
2023-08-12 10:37:20.298560,-77.0
2023-08-12 10:37:20.306250,-74.0
2023-08-12 10:37:20.313940,-77.0
2023-08-12 10:37:20.321629,-86.0
2023-08-12 10:37:20.329319,-86.0
2023-08-12 10:37:20.337009,0.0
2023-08-12 10:37:20.344699,258.0
2023-08-12 10:37:20.352388,612.0
2023-08-12 10:37:20.360078,497.0
2023-08-12 10:37:20.367768,-217.0
2023-08-12 10:37:20.375458,-441.0
2023-08-12 10:37:20.383148,9.0
2023-08-12 10:37:20.390837,89.0
2023-08-12 10:37:20.398527,-159.0
2023-08-12 10:37:20.406217,-137.0
2023-08-12 10:37:20.413907,-57.0
2023-08-12 10:37:20.421597,-115.0
2023-08-12 10:37:20.429286,-125.0
2023-08-12 10:37:20.436976,-89.0
2023-08-12 10:37:20.444666,-94.0
2023-08-12 10:37:20.452356,-96.0
2023-08-12 10:37:20.460046,-79.0
2023-08-12 10:37:20.467735,-72.0
2023-08-12 10:37:20.475425,-72.0
2023-08-12 10:37:20.483115,-65.0
2023-08-12 10:37:20.490805,-57.0
2023-08-12 10:37:20.498495,-55.0
2023-08-12 10:37:20.506184,-50.0
2023-08-12 10:37:20.513874,-53.0
2023-08-12 10:37:20.521564,-55.0
2023-08-12 10:37:20.529254,-48.0
2023-08-12 10:37:20.536943,-36.0
2023-08-12 10:37:20.544633,-26.0
2023-08-12 10:37:20.552323,-21.0
2023-08-12 10:37:20.560013,-16.0
2023-08-12 10:37:20.567703,-7.0
2023-08-12 10:37:20.575392,-2.0
2023-08-12 10:37:20.583082,-4.0
2023-08-12 10:37:20.590772,-4.0
2023-08-12 10:37:20.598462,-7.0
2023-08-12 10:37:20.606152,-14.0
2023-08-12 10:37:20.613841,-16.0
2023-08-12 10:37:20.621531,-24.0
2023-08-12 10:37:20.629221,-33.0
2023-08-12 10:37:20.636911,-45.0
2023-08-12 10:37:20.644601,-55.0
2023-08-12 10:37:20.652290,-65.0
2023-08-12 10:37:20.659980,-79.0
2023-08-12 10:37:20.667670,-84.0
2023-08-12 10:37:20.675360,-89.0
2023-08-12 10:37:20.683050,-98.0
2023-08-12 10:37:20.690739,-98.0
2023-08-12 10:37:20.698429,-91.0
2023-08-12 10:37:20.706119,-94.0
2023-08-12 10:37:20.713809,-101.0
2023-08-12 10:37:20.721498,-98.0
2023-08-12 10:37:20.729188,-94.0
2023-08-12 10:37:20.736878,-94.0
2023-08-12 10:37:20.744568,-89.0
2023-08-12 10:37:20.752258,-79.0
2023-08-12 10:37:20.759947,-84.0
2023-08-12 10:37:20.767637,-89.0
2023-08-12 10:37:20.775327,-84.0
2023-08-12 10:37:20.783017,-77.0
2023-08-12 10:37:20.790707,-77.0
2023-08-12 10:37:20.798396,-72.0
2023-08-12 10:37:20.806086,-67.0
2023-08-12 10:37:20.813776,-67.0
2023-08-12 10:37:20.821466,-72.0
2023-08-12 10:37:20.829156,-67.0
2023-08-12 10:37:20.836845,-62.0
2023-08-12 10:37:20.844535,-67.0
2023-08-12 10:37:20.852225,-67.0
2023-08-12 10:37:20.859915,-65.0
2023-08-12 10:37:20.867605,-74.0
2023-08-12 10:37:20.875294,-77.0
2023-08-12 10:37:20.882984,-74.0
2023-08-12 10:37:20.890674,-82.0
2023-08-12 10:37:20.898364,-91.0
2023-08-12 10:37:20.906053,-91.0
2023-08-12 10:37:20.913743,-96.0
2023-08-12 10:37:20.921433,-96.0
2023-08-12 10:37:20.929123,-84.0
2023-08-12 10:37:20.936813,-77.0
2023-08-12 10:37:20.944502,-84.0
2023-08-12 10:37:20.952192,-94.0
2023-08-12 10:37:20.959882,-96.0
2023-08-12 10:37:20.967572,-98.0
2023-08-12 10:37:20.975262,-96.0
2023-08-12 10:37:20.982951,-84.0
2023-08-12 10:37:20.990641,-82.0
2023-08-12 10:37:20.998331,-82.0
2023-08-12 10:37:21.006021,-48.0
2023-08-12 10:37:21.013711,-12.0
2023-08-12 10:37:21.021400,-16.0
2023-08-12 10:37:21.029090,-41.0
2023-08-12 10:37:21.036780,-55.0
2023-08-12 10:37:21.044470,-72.0
2023-08-12 10:37:21.052160,-89.0
2023-08-12 10:37:21.059849,-91.0
2023-08-12 10:37:21.067539,-84.0
2023-08-12 10:37:21.075229,-84.0
2023-08-12 10:37:21.082919,-89.0
2023-08-12 10:37:21.090608,-89.0
2023-08-12 10:37:21.098298,-86.0
2023-08-12 10:37:21.105988,-82.0
2023-08-12 10:37:21.113678,-82.0
2023-08-12 10:37:21.121368,-84.0
2023-08-12 10:37:21.129057,-38.0
2023-08-12 10:37:21.136747,137.0
2023-08-12 10:37:21.144437,497.0
2023-08-12 10:37:21.152127,661.0
2023-08-12 10:37:21.159817,94.0
2023-08-12 10:37:21.167506,-463.0
2023-08-12 10:37:21.175196,-149.0
2023-08-12 10:37:21.182886,171.0
2023-08-12 10:37:21.190576,-62.0
2023-08-12 10:37:21.198266,-173.0
2023-08-12 10:37:21.205955,-57.0
2023-08-12 10:37:21.213645,-82.0
2023-08-12 10:37:21.221335,-132.0
2023-08-12 10:37:21.229025,-89.0
2023-08-12 10:37:21.236715,-79.0
2023-08-12 10:37:21.244404,-101.0
2023-08-12 10:37:21.252094,-84.0
2023-08-12 10:37:21.259784,-72.0
2023-08-12 10:37:21.267474,-84.0
2023-08-12 10:37:21.275163,-82.0
2023-08-12 10:37:21.282853,-65.0
2023-08-12 10:37:21.290543,-53.0
2023-08-12 10:37:21.298233,-50.0
2023-08-12 10:37:21.305923,-48.0
2023-08-12 10:37:21.313612,-48.0
2023-08-12 10:37:21.321302,-43.0
2023-08-12 10:37:21.328992,-33.0
2023-08-12 10:37:21.336682,-28.0
2023-08-12 10:37:21.344372,-24.0
2023-08-12 10:37:21.352061,-14.0
2023-08-12 10:37:21.359751,-12.0
2023-08-12 10:37:21.367441,-19.0
2023-08-12 10:37:21.375131,-16.0
2023-08-12 10:37:21.382821,-9.0
2023-08-12 10:37:21.390510,-12.0
2023-08-12 10:37:21.398200,-19.0
2023-08-12 10:37:21.405890,-33.0
2023-08-12 10:37:21.413580,-41.0
2023-08-12 10:37:21.421270,-41.0
2023-08-12 10:37:21.428959,-45.0
2023-08-12 10:37:21.436649,-57.0
2023-08-12 10:37:21.444339,-74.0
2023-08-12 10:37:21.452029,-86.0
2023-08-12 10:37:21.459718,-91.0
2023-08-12 10:37:21.467408,-96.0
2023-08-12 10:37:21.475098,-103.0
2023-08-12 10:37:21.482788,-103.0
2023-08-12 10:37:21.490478,-96.0
2023-08-12 10:37:21.498167,-101.0
2023-08-12 10:37:21.505857,-108.0
2023-08-12 10:37:21.513547,-106.0
2023-08-12 10:37:21.521237,-103.0
2023-08-12 10:37:21.528927,-96.0
2023-08-12 10:37:21.536616,-91.0
2023-08-12 10:37:21.544306,-94.0
2023-08-12 10:37:21.551996,-91.0
2023-08-12 10:37:21.559686,-84.0
2023-08-12 10:37:21.567376,-82.0
2023-08-12 10:37:21.575065,-77.0
2023-08-12 10:37:21.582755,-74.0
2023-08-12 10:37:21.590445,-72.0
2023-08-12 10:37:21.598135,-69.0
2023-08-12 10:37:21.605825,-67.0
2023-08-12 10:37:21.613514,-65.0
2023-08-12 10:37:21.621204,-60.0
2023-08-12 10:37:21.628894,-57.0
2023-08-12 10:37:21.636584,-65.0
2023-08-12 10:37:21.644273,-62.0
2023-08-12 10:37:21.651963,-57.0
2023-08-12 10:37:21.659653,-60.0
2023-08-12 10:37:21.667343,-60.0
2023-08-12 10:37:21.675033,-57.0
2023-08-12 10:37:21.682722,-60.0
2023-08-12 10:37:21.690412,-65.0
2023-08-12 10:37:21.698102,-60.0
2023-08-12 10:37:21.705792,-60.0
2023-08-12 10:37:21.713482,-65.0
2023-08-12 10:37:21.721171,-65.0
2023-08-12 10:37:21.728861,-60.0
2023-08-12 10:37:21.736551,-67.0
2023-08-12 10:37:21.744241,-74.0
2023-08-12 10:37:21.751931,-77.0
2023-08-12 10:37:21.759620,-72.0
2023-08-12 10:37:21.767310,-65.0
2023-08-12 10:37:21.775000,-45.0
2023-08-12 10:37:21.782690,-12.0
2023-08-12 10:37:21.790380,4.0
2023-08-12 10:37:21.798069,-12.0
2023-08-12 10:37:21.805759,-31.0
2023-08-12 10:37:21.813449,-41.0
2023-08-12 10:37:21.821139,-60.0
2023-08-12 10:37:21.828828,-77.0
2023-08-12 10:37:21.836518,-77.0
2023-08-12 10:37:21.844208,-77.0
2023-08-12 10:37:21.851898,-79.0
2023-08-12 10:37:21.859588,-77.0
2023-08-12 10:37:21.867277,-74.0
2023-08-12 10:37:21.874967,-74.0
2023-08-12 10:37:21.882657,-74.0
2023-08-12 10:37:21.890347,-82.0
2023-08-12 10:37:21.898037,-89.0
2023-08-12 10:37:21.905726,-36.0
2023-08-12 10:37:21.913416,185.0
2023-08-12 10:37:21.921106,593.0
2023-08-12 10:37:21.928796,639.0
2023-08-12 10:37:21.936486,-41.0
2023-08-12 10:37:21.944175,-419.0
2023-08-12 10:37:21.951865,-9.0
2023-08-12 10:37:21.959555,142.0
2023-08-12 10:37:21.967245,-132.0
2023-08-12 10:37:21.974935,-149.0
2023-08-12 10:37:21.982624,-45.0
2023-08-12 10:37:21.990314,-106.0
2023-08-12 10:37:21.998004,-137.0
2023-08-12 10:37:22.005694,-89.0
2023-08-12 10:37:22.013383,-89.0
2023-08-12 10:37:22.021073,-101.0
2023-08-12 10:37:22.028763,-91.0
2023-08-12 10:37:22.036453,-96.0
2023-08-12 10:37:22.044143,-98.0
2023-08-12 10:37:22.051832,-84.0
2023-08-12 10:37:22.059522,-79.0
2023-08-12 10:37:22.067212,-77.0
2023-08-12 10:37:22.074902,-72.0
2023-08-12 10:37:22.082592,-69.0
2023-08-12 10:37:22.090281,-65.0
2023-08-12 10:37:22.097971,-55.0
2023-08-12 10:37:22.105661,-50.0
2023-08-12 10:37:22.113351,-48.0
2023-08-12 10:37:22.121041,-41.0
2023-08-12 10:37:22.128730,-33.0
2023-08-12 10:37:22.136420,-28.0
2023-08-12 10:37:22.144110,-26.0
2023-08-12 10:37:22.151800,-26.0
2023-08-12 10:37:22.159490,-24.0
2023-08-12 10:37:22.167179,-26.0
2023-08-12 10:37:22.174869,-31.0
2023-08-12 10:37:22.182559,-31.0
2023-08-12 10:37:22.190249,-33.0
2023-08-12 10:37:22.197938,-45.0
2023-08-12 10:37:22.205628,-55.0
2023-08-12 10:37:22.213318,-60.0
2023-08-12 10:37:22.221008,-67.0
2023-08-12 10:37:22.228698,-77.0
2023-08-12 10:37:22.236387,-82.0
2023-08-12 10:37:22.244077,-91.0
2023-08-12 10:37:22.251767,-96.0
2023-08-12 10:37:22.259457,-94.0
2023-08-12 10:37:22.267147,-94.0
2023-08-12 10:37:22.274836,-94.0
2023-08-12 10:37:22.282526,-91.0
2023-08-12 10:37:22.290216,-91.0
2023-08-12 10:37:22.297906,-91.0
2023-08-12 10:37:22.305596,-91.0
2023-08-12 10:37:22.313285,-91.0
2023-08-12 10:37:22.320975,-89.0
2023-08-12 10:37:22.328665,-84.0
2023-08-12 10:37:22.336355,-79.0
2023-08-12 10:37:22.344045,-82.0
2023-08-12 10:37:22.351734,-79.0
2023-08-12 10:37:22.359424,-74.0
2023-08-12 10:37:22.367114,-69.0
2023-08-12 10:37:22.374804,-65.0
2023-08-12 10:37:22.382493,-62.0
2023-08-12 10:37:22.390183,-60.0
2023-08-12 10:37:22.397873,-60.0
2023-08-12 10:37:22.405563,-60.0
2023-08-12 10:37:22.413253,-65.0
2023-08-12 10:37:22.420942,-67.0
2023-08-12 10:37:22.428632,-65.0
2023-08-12 10:37:22.436322,-67.0
2023-08-12 10:37:22.444012,-67.0
2023-08-12 10:37:22.451702,-62.0
2023-08-12 10:37:22.459391,-57.0
2023-08-12 10:37:22.467081,-62.0
2023-08-12 10:37:22.474771,-62.0
2023-08-12 10:37:22.482461,-62.0
2023-08-12 10:37:22.490151,-62.0
2023-08-12 10:37:22.497840,-62.0
2023-08-12 10:37:22.505530,-60.0
2023-08-12 10:37:22.513220,-65.0
2023-08-12 10:37:22.520910,-69.0
2023-08-12 10:37:22.528600,-77.0
2023-08-12 10:37:22.536289,-84.0
2023-08-12 10:37:22.543979,-82.0
2023-08-12 10:37:22.551669,-77.0
2023-08-12 10:37:22.559359,-72.0
2023-08-12 10:37:22.567048,-72.0
2023-08-12 10:37:22.574738,-60.0
2023-08-12 10:37:22.582428,-24.0
2023-08-12 10:37:22.590118,-4.0
2023-08-12 10:37:22.597808,-26.0
2023-08-12 10:37:22.605497,-48.0
2023-08-12 10:37:22.613187,-65.0
2023-08-12 10:37:22.620877,-89.0
2023-08-12 10:37:22.628567,-101.0
2023-08-12 10:37:22.636257,-101.0
2023-08-12 10:37:22.643946,-101.0
2023-08-12 10:37:22.651636,-103.0
2023-08-12 10:37:22.659326,-106.0
2023-08-12 10:37:22.667016,-110.0
2023-08-12 10:37:22.674706,-106.0
2023-08-12 10:37:22.682395,-103.0
2023-08-12 10:37:22.690085,-113.0
2023-08-12 10:37:22.697775,-125.0
2023-08-12 10:37:22.705465,-84.0
2023-08-12 10:37:22.713154,110.0
2023-08-12 10:37:22.720844,506.0
2023-08-12 10:37:22.728534,620.0
2023-08-12 10:37:22.736224,12.0
2023-08-12 10:37:22.743914,-429.0
2023-08-12 10:37:22.751603,-96.0
2023-08-12 10:37:22.759293,89.0
2023-08-12 10:37:22.766983,-154.0
2023-08-12 10:37:22.774673,-197.0
2023-08-12 10:37:22.782363,-91.0
2023-08-12 10:37:22.790052,-127.0
2023-08-12 10:37:22.797742,-161.0
2023-08-12 10:37:22.805432,-118.0
2023-08-12 10:37:22.813122,-108.0
2023-08-12 10:37:22.820812,-123.0
2023-08-12 10:37:22.828501,-108.0
2023-08-12 10:37:22.836191,-98.0
2023-08-12 10:37:22.843881,-101.0
2023-08-12 10:37:22.851571,-96.0
2023-08-12 10:37:22.859261,-89.0
2023-08-12 10:37:22.866950,-86.0
2023-08-12 10:37:22.874640,-79.0
2023-08-12 10:37:22.882330,-72.0
2023-08-12 10:37:22.890020,-67.0
2023-08-12 10:37:22.897709,-62.0
2023-08-12 10:37:22.905399,-55.0
2023-08-12 10:37:22.913089,-53.0
2023-08-12 10:37:22.920779,-53.0
2023-08-12 10:37:22.928469,-48.0
2023-08-12 10:37:22.936158,-45.0
2023-08-12 10:37:22.943848,-43.0
2023-08-12 10:37:22.951538,-38.0
2023-08-12 10:37:22.959228,-33.0
2023-08-12 10:37:22.966918,-36.0
2023-08-12 10:37:22.974607,-43.0
2023-08-12 10:37:22.982297,-50.0
2023-08-12 10:37:22.989987,-53.0
2023-08-12 10:37:22.997677,-57.0
2023-08-12 10:37:23.005367,-60.0
2023-08-12 10:37:23.013056,-67.0
2023-08-12 10:37:23.020746,-74.0
2023-08-12 10:37:23.028436,-82.0
2023-08-12 10:37:23.036126,-89.0
2023-08-12 10:37:23.043816,-94.0
2023-08-12 10:37:23.051505,-91.0
2023-08-12 10:37:23.059195,-91.0
2023-08-12 10:37:23.066885,-96.0
2023-08-12 10:37:23.074575,-96.0
2023-08-12 10:37:23.082264,-91.0
2023-08-12 10:37:23.089954,-89.0
2023-08-12 10:37:23.097644,-86.0
2023-08-12 10:37:23.105334,-89.0
2023-08-12 10:37:23.113024,-96.0
2023-08-12 10:37:23.120713,-98.0
2023-08-12 10:37:23.128403,-91.0
2023-08-12 10:37:23.136093,-84.0
2023-08-12 10:37:23.143783,-86.0
2023-08-12 10:37:23.151473,-86.0
2023-08-12 10:37:23.159162,-89.0
2023-08-12 10:37:23.166852,-91.0
2023-08-12 10:37:23.174542,-82.0
2023-08-12 10:37:23.182232,-74.0
2023-08-12 10:37:23.189922,-77.0
2023-08-12 10:37:23.197611,-79.0
2023-08-12 10:37:23.205301,-84.0
2023-08-12 10:37:23.212991,-86.0
2023-08-12 10:37:23.220681,-82.0
2023-08-12 10:37:23.228371,-79.0
2023-08-12 10:37:23.236060,-79.0
2023-08-12 10:37:23.243750,-77.0
2023-08-12 10:37:23.251440,-77.0
2023-08-12 10:37:23.259130,-77.0
2023-08-12 10:37:23.266819,-69.0
2023-08-12 10:37:23.274509,-67.0
2023-08-12 10:37:23.282199,-67.0
2023-08-12 10:37:23.289889,-67.0
2023-08-12 10:37:23.297579,-65.0
2023-08-12 10:37:23.305268,-62.0
2023-08-12 10:37:23.312958,-60.0
2023-08-12 10:37:23.320648,-60.0
2023-08-12 10:37:23.328338,-57.0
2023-08-12 10:37:23.336028,-55.0
2023-08-12 10:37:23.343717,-55.0
2023-08-12 10:37:23.351407,-55.0
2023-08-12 10:37:23.359097,-55.0
2023-08-12 10:37:23.366787,-55.0
2023-08-12 10:37:23.374477,-60.0
2023-08-12 10:37:23.382166,-62.0
2023-08-12 10:37:23.389856,-57.0
2023-08-12 10:37:23.397546,-53.0
2023-08-12 10:37:23.405236,-48.0
2023-08-12 10:37:23.412926,-31.0
2023-08-12 10:37:23.420615,4.0
2023-08-12 10:37:23.428305,14.0
2023-08-12 10:37:23.435995,-9.0
2023-08-12 10:37:23.443685,-26.0
2023-08-12 10:37:23.451374,-31.0
2023-08-12 10:37:23.459064,-48.0
2023-08-12 10:37:23.466754,-67.0
2023-08-12 10:37:23.474444,-74.0
2023-08-12 10:37:23.482134,-79.0
2023-08-12 10:37:23.489823,-79.0
2023-08-12 10:37:23.497513,-74.0
2023-08-12 10:37:23.505203,-74.0
2023-08-12 10:37:23.512893,-77.0
2023-08-12 10:37:23.520583,-74.0
2023-08-12 10:37:23.528272,-77.0
2023-08-12 10:37:23.535962,-94.0
2023-08-12 10:37:23.543652,-74.0
2023-08-12 10:37:23.551342,72.0
2023-08-12 10:37:23.559032,427.0
2023-08-12 10:37:23.566721,704.0
2023-08-12 10:37:23.574411,313.0
2023-08-12 10:37:23.582101,-287.0
2023-08-12 10:37:23.589791,-173.0
2023-08-12 10:37:23.597481,120.0
2023-08-12 10:37:23.605170,-48.0
2023-08-12 10:37:23.612860,-180.0
2023-08-12 10:37:23.620550,-84.0
2023-08-12 10:37:23.628240,-82.0
2023-08-12 10:37:23.635929,-132.0
2023-08-12 10:37:23.643619,-101.0
2023-08-12 10:37:23.651309,-82.0
2023-08-12 10:37:23.658999,-98.0
2023-08-12 10:37:23.666689,-91.0
2023-08-12 10:37:23.674378,-77.0
2023-08-12 10:37:23.682068,-77.0
2023-08-12 10:37:23.689758,-77.0
2023-08-12 10:37:23.697448,-77.0
2023-08-12 10:37:23.705138,-79.0
2023-08-12 10:37:23.712827,-74.0
2023-08-12 10:37:23.720517,-69.0
2023-08-12 10:37:23.728207,-67.0
2023-08-12 10:37:23.735897,-65.0
2023-08-12 10:37:23.743587,-67.0
2023-08-12 10:37:23.751276,-67.0
2023-08-12 10:37:23.758966,-57.0
2023-08-12 10:37:23.766656,-53.0
2023-08-12 10:37:23.774346,-53.0
2023-08-12 10:37:23.782036,-50.0
2023-08-12 10:37:23.789725,-57.0
2023-08-12 10:37:23.797415,-57.0
2023-08-12 10:37:23.805105,-53.0
2023-08-12 10:37:23.812795,-57.0
2023-08-12 10:37:23.820484,-62.0
2023-08-12 10:37:23.828174,-67.0
2023-08-12 10:37:23.835864,-79.0
2023-08-12 10:37:23.843554,-84.0
2023-08-12 10:37:23.851244,-84.0
2023-08-12 10:37:23.858933,-89.0
2023-08-12 10:37:23.866623,-94.0
2023-08-12 10:37:23.874313,-98.0
2023-08-12 10:37:23.882003,-103.0
2023-08-12 10:37:23.889693,-106.0
2023-08-12 10:37:23.897382,-103.0
2023-08-12 10:37:23.905072,-103.0
2023-08-12 10:37:23.912762,-103.0
2023-08-12 10:37:23.920452,-101.0
2023-08-12 10:37:23.928142,-106.0
2023-08-12 10:37:23.935831,-106.0
2023-08-12 10:37:23.943521,-101.0
2023-08-12 10:37:23.951211,-98.0
2023-08-12 10:37:23.958901,-101.0
2023-08-12 10:37:23.966591,-108.0
2023-08-12 10:37:23.974280,-113.0
2023-08-12 10:37:23.981970,-108.0
2023-08-12 10:37:23.989660,-98.0
2023-08-12 10:37:23.997350,-96.0
2023-08-12 10:37:24.005039,-96.0
2023-08-12 10:37:24.012729,-98.0
2023-08-12 10:37:24.020419,-101.0
2023-08-12 10:37:24.028109,-94.0
2023-08-12 10:37:24.035799,-89.0
2023-08-12 10:37:24.043488,-86.0
2023-08-12 10:37:24.051178,-89.0
2023-08-12 10:37:24.058868,-94.0
2023-08-12 10:37:24.066558,-96.0
2023-08-12 10:37:24.074248,-89.0
2023-08-12 10:37:24.081937,-84.0
2023-08-12 10:37:24.089627,-84.0
2023-08-12 10:37:24.097317,-82.0
2023-08-12 10:37:24.105007,-79.0
2023-08-12 10:37:24.112697,-79.0
2023-08-12 10:37:24.120386,-74.0
2023-08-12 10:37:24.128076,-72.0
2023-08-12 10:37:24.135766,-72.0
2023-08-12 10:37:24.143456,-69.0
2023-08-12 10:37:24.151146,-67.0
2023-08-12 10:37:24.158835,-65.0
2023-08-12 10:37:24.166525,-62.0
2023-08-12 10:37:24.174215,-60.0
2023-08-12 10:37:24.181905,-60.0
2023-08-12 10:37:24.189594,-57.0
2023-08-12 10:37:24.197284,-57.0
2023-08-12 10:37:24.204974,-60.0
2023-08-12 10:37:24.212664,-65.0
2023-08-12 10:37:24.220354,-65.0
2023-08-12 10:37:24.228043,-62.0
2023-08-12 10:37:24.235733,-69.0
2023-08-12 10:37:24.243423,-79.0
2023-08-12 10:37:24.251113,-74.0
2023-08-12 10:37:24.258803,-67.0
2023-08-12 10:37:24.266492,-62.0
2023-08-12 10:37:24.274182,-57.0
2023-08-12 10:37:24.281872,-31.0
2023-08-12 10:37:24.289562,0.0
2023-08-12 10:37:24.297252,-2.0
2023-08-12 10:37:24.304941,-26.0
2023-08-12 10:37:24.312631,-36.0
2023-08-12 10:37:24.320321,-45.0
2023-08-12 10:37:24.328011,-65.0
2023-08-12 10:37:24.335701,-77.0
2023-08-12 10:37:24.343390,-82.0
2023-08-12 10:37:24.351080,-82.0
2023-08-12 10:37:24.358770,-77.0
2023-08-12 10:37:24.366460,-74.0
2023-08-12 10:37:24.374149,-77.0
2023-08-12 10:37:24.381839,-77.0
2023-08-12 10:37:24.389529,-69.0
2023-08-12 10:37:24.397219,-77.0
2023-08-12 10:37:24.404909,-94.0
2023-08-12 10:37:24.412598,-53.0
2023-08-12 10:37:24.420288,149.0
2023-08-12 10:37:24.427978,535.0
2023-08-12 10:37:24.435668,658.0
2023-08-12 10:37:24.443358,106.0
2023-08-12 10:37:24.451047,-332.0
2023-08-12 10:37:24.458737,-69.0
2023-08-12 10:37:24.466427,91.0
2023-08-12 10:37:24.474117,-125.0
2023-08-12 10:37:24.481807,-164.0
2023-08-12 10:37:24.489496,-69.0
2023-08-12 10:37:24.497186,-106.0
2023-08-12 10:37:24.504876,-135.0
2023-08-12 10:37:24.512566,-96.0
2023-08-12 10:37:24.520256,-91.0
2023-08-12 10:37:24.527945,-98.0
2023-08-12 10:37:24.535635,-84.0
2023-08-12 10:37:24.543325,-77.0
2023-08-12 10:37:24.551015,-79.0
2023-08-12 10:37:24.558704,-74.0
2023-08-12 10:37:24.566394,-65.0
2023-08-12 10:37:24.574084,-60.0
2023-08-12 10:37:24.581774,-57.0
2023-08-12 10:37:24.589464,-53.0
2023-08-12 10:37:24.597153,-50.0
2023-08-12 10:37:24.604843,-43.0
2023-08-12 10:37:24.612533,-36.0
2023-08-12 10:37:24.620223,-36.0
2023-08-12 10:37:24.627913,-31.0
2023-08-12 10:37:24.635602,-26.0
2023-08-12 10:37:24.643292,-26.0
2023-08-12 10:37:24.650982,-24.0
2023-08-12 10:37:24.658672,-21.0
2023-08-12 10:37:24.666362,-21.0
2023-08-12 10:37:24.674051,-24.0
2023-08-12 10:37:24.681741,-26.0
2023-08-12 10:37:24.689431,-33.0
2023-08-12 10:37:24.697121,-38.0
2023-08-12 10:37:24.704811,-45.0
2023-08-12 10:37:24.712500,-53.0
2023-08-12 10:37:24.720190,-57.0
2023-08-12 10:37:24.727880,-65.0
2023-08-12 10:37:24.735570,-72.0
2023-08-12 10:37:24.743259,-77.0
2023-08-12 10:37:24.750949,-82.0
2023-08-12 10:37:24.758639,-86.0
2023-08-12 10:37:24.766329,-84.0
2023-08-12 10:37:24.774019,-84.0
2023-08-12 10:37:24.781708,-84.0
2023-08-12 10:37:24.789398,-84.0
2023-08-12 10:37:24.797088,-82.0
2023-08-12 10:37:24.804778,-82.0
2023-08-12 10:37:24.812468,-82.0
2023-08-12 10:37:24.820157,-86.0
2023-08-12 10:37:24.827847,-94.0
2023-08-12 10:37:24.835537,-89.0
2023-08-12 10:37:24.843227,-86.0
2023-08-12 10:37:24.850917,-84.0
2023-08-12 10:37:24.858606,-79.0
2023-08-12 10:37:24.866296,-77.0
2023-08-12 10:37:24.873986,-79.0
2023-08-12 10:37:24.881676,-74.0
2023-08-12 10:37:24.889366,-67.0
2023-08-12 10:37:24.897055,-65.0
2023-08-12 10:37:24.904745,-65.0
2023-08-12 10:37:24.912435,-62.0
2023-08-12 10:37:24.920125,-60.0
2023-08-12 10:37:24.927814,-60.0
2023-08-12 10:37:24.935504,-62.0
2023-08-12 10:37:24.943194,-72.0
2023-08-12 10:37:24.950884,-72.0
2023-08-12 10:37:24.958574,-69.0
2023-08-12 10:37:24.966263,-69.0
2023-08-12 10:37:24.973953,-69.0
2023-08-12 10:37:24.981643,-65.0
2023-08-12 10:37:24.989333,-65.0
2023-08-12 10:37:24.997023,-65.0
2023-08-12 10:37:25.004712,-67.0
2023-08-12 10:37:25.012402,-72.0
2023-08-12 10:37:25.020092,-69.0
2023-08-12 10:37:25.027782,-62.0
2023-08-12 10:37:25.035472,-62.0
2023-08-12 10:37:25.043161,-65.0
2023-08-12 10:37:25.050851,-65.0
2023-08-12 10:37:25.058541,-62.0
2023-08-12 10:37:25.066231,-60.0
2023-08-12 10:37:25.073921,-57.0
2023-08-12 10:37:25.081610,-57.0
2023-08-12 10:37:25.089300,-60.0
2023-08-12 10:37:25.096990,-62.0
2023-08-12 10:37:25.104680,-62.0
2023-08-12 10:37:25.112369,-65.0
2023-08-12 10:37:25.120059,-65.0
2023-08-12 10:37:25.127749,-62.0
2023-08-12 10:37:25.135439,-65.0
2023-08-12 10:37:25.143129,-69.0
2023-08-12 10:37:25.150818,-67.0
2023-08-12 10:37:25.158508,-62.0
2023-08-12 10:37:25.166198,-57.0
2023-08-12 10:37:25.173888,-50.0
2023-08-12 10:37:25.181578,-24.0
2023-08-12 10:37:25.189267,2.0
2023-08-12 10:37:25.196957,-4.0
2023-08-12 10:37:25.204647,-28.0
2023-08-12 10:37:25.212337,-36.0
2023-08-12 10:37:25.220027,-45.0
2023-08-12 10:37:25.227716,-62.0
2023-08-12 10:37:25.235406,-74.0
2023-08-12 10:37:25.243096,-79.0
2023-08-12 10:37:25.250786,-79.0
2023-08-12 10:37:25.258475,-72.0
2023-08-12 10:37:25.266165,-72.0
2023-08-12 10:37:25.273855,-74.0
2023-08-12 10:37:25.281545,-69.0
2023-08-12 10:37:25.289235,-67.0
2023-08-12 10:37:25.296924,-77.0
2023-08-12 10:37:25.304614,-79.0
2023-08-12 10:37:25.312304,-16.0
2023-08-12 10:37:25.319994,214.0
2023-08-12 10:37:25.327684,595.0
2023-08-12 10:37:25.335373,605.0
2023-08-12 10:37:25.343063,-41.0
2023-08-12 10:37:25.350753,-376.0
2023-08-12 10:37:25.358443,-4.0
2023-08-12 10:37:25.366133,103.0
2023-08-12 10:37:25.373822,-147.0
2023-08-12 10:37:25.381512,-149.0
2023-08-12 10:37:25.389202,-57.0
2023-08-12 10:37:25.396892,-108.0
2023-08-12 10:37:25.404582,-125.0
2023-08-12 10:37:25.412271,-84.0
2023-08-12 10:37:25.419961,-91.0
2023-08-12 10:37:25.427651,-101.0
2023-08-12 10:37:25.435341,-84.0
2023-08-12 10:37:25.443030,-84.0
2023-08-12 10:37:25.450720,-91.0
2023-08-12 10:37:25.458410,-82.0
2023-08-12 10:37:25.466100,-69.0
2023-08-12 10:37:25.473790,-69.0
2023-08-12 10:37:25.481479,-67.0
2023-08-12 10:37:25.489169,-60.0
2023-08-12 10:37:25.496859,-55.0
2023-08-12 10:37:25.504549,-53.0
2023-08-12 10:37:25.512239,-43.0
2023-08-12 10:37:25.519928,-36.0
2023-08-12 10:37:25.527618,-36.0
2023-08-12 10:37:25.535308,-28.0
2023-08-12 10:37:25.542998,-24.0
2023-08-12 10:37:25.550688,-21.0
2023-08-12 10:37:25.558377,-21.0
2023-08-12 10:37:25.566067,-24.0
2023-08-12 10:37:25.573757,-21.0
2023-08-12 10:37:25.581447,-26.0
2023-08-12 10:37:25.589137,-33.0
2023-08-12 10:37:25.596826,-41.0
2023-08-12 10:37:25.604516,-48.0
2023-08-12 10:37:25.612206,-55.0
2023-08-12 10:37:25.619896,-60.0
2023-08-12 10:37:25.627585,-65.0
2023-08-12 10:37:25.635275,-72.0
2023-08-12 10:37:25.642965,-84.0
2023-08-12 10:37:25.650655,-89.0
2023-08-12 10:37:25.658345,-89.0
2023-08-12 10:37:25.666034,-91.0
2023-08-12 10:37:25.673724,-96.0
2023-08-12 10:37:25.681414,-98.0
2023-08-12 10:37:25.689104,-101.0
2023-08-12 10:37:25.696794,-98.0
2023-08-12 10:37:25.704483,-94.0
2023-08-12 10:37:25.712173,-91.0
2023-08-12 10:37:25.719863,-86.0
2023-08-12 10:37:25.727553,-84.0
2023-08-12 10:37:25.735243,-86.0
2023-08-12 10:37:25.742932,-82.0
2023-08-12 10:37:25.750622,-79.0
2023-08-12 10:37:25.758312,-77.0
2023-08-12 10:37:25.766002,-69.0
2023-08-12 10:37:25.773692,-67.0
2023-08-12 10:37:25.781381,-69.0
2023-08-12 10:37:25.789071,-72.0
2023-08-12 10:37:25.796761,-69.0
2023-08-12 10:37:25.804451,-62.0
2023-08-12 10:37:25.812140,-57.0
2023-08-12 10:37:25.819830,-65.0
2023-08-12 10:37:25.827520,-67.0
2023-08-12 10:37:25.835210,-60.0
2023-08-12 10:37:25.842900,-60.0
2023-08-12 10:37:25.850589,-62.0
2023-08-12 10:37:25.858279,-62.0
2023-08-12 10:37:25.865969,-65.0
2023-08-12 10:37:25.873659,-69.0
2023-08-12 10:37:25.881349,-72.0
2023-08-12 10:37:25.889038,-69.0
2023-08-12 10:37:25.896728,-69.0
2023-08-12 10:37:25.904418,-72.0
2023-08-12 10:37:25.912108,-67.0
2023-08-12 10:37:25.919798,-60.0
2023-08-12 10:37:25.927487,-65.0
2023-08-12 10:37:25.935177,-77.0
2023-08-12 10:37:25.942867,-79.0
2023-08-12 10:37:25.950557,-82.0
2023-08-12 10:37:25.958247,-77.0
2023-08-12 10:37:25.965936,-77.0
2023-08-12 10:37:25.973626,-77.0
2023-08-12 10:37:25.981316,-72.0
2023-08-12 10:37:25.989006,-72.0
2023-08-12 10:37:25.996695,-86.0
2023-08-12 10:37:26.004385,-94.0
2023-08-12 10:37:26.012075,-89.0
2023-08-12 10:37:26.019765,-86.0
2023-08-12 10:37:26.027455,-82.0
2023-08-12 10:37:26.035144,-79.0
2023-08-12 10:37:26.042834,-62.0
2023-08-12 10:37:26.050524,-26.0
2023-08-12 10:37:26.058214,-2.0
2023-08-12 10:37:26.065904,-12.0
2023-08-12 10:37:26.073593,-28.0
2023-08-12 10:37:26.081283,-41.0
2023-08-12 10:37:26.088973,-65.0
2023-08-12 10:37:26.096663,-77.0
2023-08-12 10:37:26.104353,-74.0
2023-08-12 10:37:26.112042,-72.0
2023-08-12 10:37:26.119732,-74.0
2023-08-12 10:37:26.127422,-74.0
2023-08-12 10:37:26.135112,-72.0
2023-08-12 10:37:26.142802,-67.0
2023-08-12 10:37:26.150491,-57.0
2023-08-12 10:37:26.158181,-60.0
2023-08-12 10:37:26.165871,-79.0
2023-08-12 10:37:26.173561,-41.0
2023-08-12 10:37:26.181250,142.0
2023-08-12 10:37:26.188940,497.0
2023-08-12 10:37:26.196630,658.0
2023-08-12 10:37:26.204320,108.0
2023-08-12 10:37:26.212010,-468.0
2023-08-12 10:37:26.219699,-185.0
2023-08-12 10:37:26.227389,171.0
2023-08-12 10:37:26.235079,-28.0
2023-08-12 10:37:26.242769,-159.0
2023-08-12 10:37:26.250459,-53.0
2023-08-12 10:37:26.258148,-65.0
2023-08-12 10:37:26.265838,-118.0
2023-08-12 10:37:26.273528,-86.0
2023-08-12 10:37:26.281218,-72.0
2023-08-12 10:37:26.288908,-86.0
2023-08-12 10:37:26.296597,-72.0
2023-08-12 10:37:26.304287,-57.0
2023-08-12 10:37:26.311977,-65.0
2023-08-12 10:37:26.319667,-65.0
2023-08-12 10:37:26.327357,-53.0
2023-08-12 10:37:26.335046,-50.0
2023-08-12 10:37:26.342736,-45.0
2023-08-12 10:37:26.350426,-38.0
2023-08-12 10:37:26.358116,-33.0
2023-08-12 10:37:26.365805,-28.0
2023-08-12 10:37:26.373495,-24.0
2023-08-12 10:37:26.381185,-21.0
2023-08-12 10:37:26.388875,-19.0
2023-08-12 10:37:26.396565,-16.0
2023-08-12 10:37:26.404254,-9.0
2023-08-12 10:37:26.411944,-4.0
2023-08-12 10:37:26.419634,-4.0
2023-08-12 10:37:26.427324,-7.0
2023-08-12 10:37:26.435014,-14.0
2023-08-12 10:37:26.442703,-26.0
2023-08-12 10:37:26.450393,-36.0
2023-08-12 10:37:26.458083,-41.0
2023-08-12 10:37:26.465773,-53.0
2023-08-12 10:37:26.473463,-62.0
2023-08-12 10:37:26.481152,-67.0
2023-08-12 10:37:26.488842,-77.0
2023-08-12 10:37:26.496532,-89.0
2023-08-12 10:37:26.504222,-98.0
2023-08-12 10:37:26.511912,-103.0
2023-08-12 10:37:26.519601,-101.0
2023-08-12 10:37:26.527291,-103.0
2023-08-12 10:37:26.534981,-115.0
2023-08-12 10:37:26.542671,-118.0
2023-08-12 10:37:26.550360,-110.0
2023-08-12 10:37:26.558050,-103.0
2023-08-12 10:37:26.565740,-103.0
2023-08-12 10:37:26.573430,-103.0
2023-08-12 10:37:26.581120,-103.0
2023-08-12 10:37:26.588809,-96.0
2023-08-12 10:37:26.596499,-89.0
2023-08-12 10:37:26.604189,-94.0
2023-08-12 10:37:26.611879,-94.0
2023-08-12 10:37:26.619569,-86.0
2023-08-12 10:37:26.627258,-84.0
2023-08-12 10:37:26.634948,-82.0
2023-08-12 10:37:26.642638,-79.0
2023-08-12 10:37:26.650328,-74.0
2023-08-12 10:37:26.658018,-72.0
2023-08-12 10:37:26.665707,-74.0
2023-08-12 10:37:26.673397,-79.0
2023-08-12 10:37:26.681087,-79.0
2023-08-12 10:37:26.688777,-79.0
2023-08-12 10:37:26.696467,-86.0
2023-08-12 10:37:26.704156,-86.0
2023-08-12 10:37:26.711846,-79.0
2023-08-12 10:37:26.719536,-77.0
2023-08-12 10:37:26.727226,-84.0
2023-08-12 10:37:26.734915,-84.0
2023-08-12 10:37:26.742605,-74.0
2023-08-12 10:37:26.750295,-74.0
2023-08-12 10:37:26.757985,-84.0
2023-08-12 10:37:26.765675,-82.0
2023-08-12 10:37:26.773364,-77.0
2023-08-12 10:37:26.781054,-77.0
2023-08-12 10:37:26.788744,-74.0
2023-08-12 10:37:26.796434,-69.0
2023-08-12 10:37:26.804124,-69.0
2023-08-12 10:37:26.811813,-69.0
2023-08-12 10:37:26.819503,-69.0
2023-08-12 10:37:26.827193,-69.0
2023-08-12 10:37:26.834883,-62.0
2023-08-12 10:37:26.842573,-62.0
2023-08-12 10:37:26.850262,-67.0
2023-08-12 10:37:26.857952,-67.0
2023-08-12 10:37:26.865642,-69.0
2023-08-12 10:37:26.873332,-72.0
2023-08-12 10:37:26.881022,-72.0
2023-08-12 10:37:26.888711,-65.0
2023-08-12 10:37:26.896401,-57.0
2023-08-12 10:37:26.904091,-38.0
2023-08-12 10:37:26.911781,-4.0
2023-08-12 10:37:26.919470,9.0
2023-08-12 10:37:26.927160,-4.0
2023-08-12 10:37:26.934850,-19.0
2023-08-12 10:37:26.942540,-33.0
2023-08-12 10:37:26.950230,-50.0
2023-08-12 10:37:26.957919,-65.0
2023-08-12 10:37:26.965609,-72.0
2023-08-12 10:37:26.973299,-74.0
2023-08-12 10:37:26.980989,-72.0
2023-08-12 10:37:26.988679,-72.0
2023-08-12 10:37:26.996368,-69.0
2023-08-12 10:37:27.004058,-65.0
2023-08-12 10:37:27.011748,-65.0
2023-08-12 10:37:27.019438,-72.0
2023-08-12 10:37:27.027128,-84.0
2023-08-12 10:37:27.034817,-38.0
2023-08-12 10:37:27.042507,173.0
2023-08-12 10:37:27.050197,571.0
2023-08-12 10:37:27.057887,663.0
2023-08-12 10:37:27.065577,12.0
2023-08-12 10:37:27.073266,-453.0
2023-08-12 10:37:27.080956,-77.0
2023-08-12 10:37:27.088646,154.0
2023-08-12 10:37:27.096336,-103.0
2023-08-12 10:37:27.104025,-164.0
2023-08-12 10:37:27.111715,-53.0
2023-08-12 10:37:27.119405,-94.0
2023-08-12 10:37:27.127095,-132.0
2023-08-12 10:37:27.134785,-91.0
2023-08-12 10:37:27.142474,-84.0
2023-08-12 10:37:27.150164,-94.0
2023-08-12 10:37:27.157854,-84.0
2023-08-12 10:37:27.165544,-82.0
2023-08-12 10:37:27.173234,-82.0
2023-08-12 10:37:27.180923,-72.0
2023-08-12 10:37:27.188613,-65.0
2023-08-12 10:37:27.196303,-65.0
2023-08-12 10:37:27.203993,-60.0
2023-08-12 10:37:27.211683,-53.0
2023-08-12 10:37:27.219372,-50.0
2023-08-12 10:37:27.227062,-45.0
2023-08-12 10:37:27.234752,-41.0
2023-08-12 10:37:27.242442,-36.0
2023-08-12 10:37:27.250132,-31.0
2023-08-12 10:37:27.257821,-28.0
2023-08-12 10:37:27.265511,-26.0
2023-08-12 10:37:27.273201,-26.0
2023-08-12 10:37:27.280891,-24.0
2023-08-12 10:37:27.288580,-24.0
2023-08-12 10:37:27.296270,-26.0
2023-08-12 10:37:27.303960,-31.0
2023-08-12 10:37:27.311650,-38.0
2023-08-12 10:37:27.319340,-43.0
2023-08-12 10:37:27.327029,-43.0
2023-08-12 10:37:27.334719,-45.0
2023-08-12 10:37:27.342409,-55.0
2023-08-12 10:37:27.350099,-62.0
2023-08-12 10:37:27.357789,-67.0
2023-08-12 10:37:27.365478,-72.0
2023-08-12 10:37:27.373168,-77.0
2023-08-12 10:37:27.380858,-79.0
2023-08-12 10:37:27.388548,-84.0
2023-08-12 10:37:27.396238,-84.0
2023-08-12 10:37:27.403927,-84.0
2023-08-12 10:37:27.411617,-89.0
2023-08-12 10:37:27.419307,-91.0
2023-08-12 10:37:27.426997,-94.0
2023-08-12 10:37:27.434687,-91.0
2023-08-12 10:37:27.442376,-89.0
2023-08-12 10:37:27.450066,-89.0
2023-08-12 10:37:27.457756,-91.0
2023-08-12 10:37:27.465446,-94.0
2023-08-12 10:37:27.473135,-91.0
2023-08-12 10:37:27.480825,-86.0
2023-08-12 10:37:27.488515,-86.0
2023-08-12 10:37:27.496205,-84.0
2023-08-12 10:37:27.503895,-79.0
2023-08-12 10:37:27.511584,-79.0
2023-08-12 10:37:27.519274,-82.0
2023-08-12 10:37:27.526964,-82.0
2023-08-12 10:37:27.534654,-79.0
2023-08-12 10:37:27.542344,-77.0
2023-08-12 10:37:27.550033,-79.0
2023-08-12 10:37:27.557723,-82.0
2023-08-12 10:37:27.565413,-82.0
2023-08-12 10:37:27.573103,-79.0
2023-08-12 10:37:27.580793,-79.0
2023-08-12 10:37:27.588482,-79.0
2023-08-12 10:37:27.596172,-79.0
2023-08-12 10:37:27.603862,-79.0
2023-08-12 10:37:27.611552,-77.0
2023-08-12 10:37:27.619242,-74.0
2023-08-12 10:37:27.626931,-74.0
2023-08-12 10:37:27.634621,-74.0
2023-08-12 10:37:27.642311,-72.0
2023-08-12 10:37:27.650001,-72.0
2023-08-12 10:37:27.657690,-74.0
2023-08-12 10:37:27.665380,-72.0
2023-08-12 10:37:27.673070,-72.0
2023-08-12 10:37:27.680760,-69.0
2023-08-12 10:37:27.688450,-69.0
2023-08-12 10:37:27.696139,-69.0
2023-08-12 10:37:27.703829,-67.0
2023-08-12 10:37:27.711519,-67.0
2023-08-12 10:37:27.719209,-62.0
2023-08-12 10:37:27.726899,-62.0
2023-08-12 10:37:27.734588,-67.0
2023-08-12 10:37:27.742278,-74.0
2023-08-12 10:37:27.749968,-82.0
2023-08-12 10:37:27.757658,-77.0
2023-08-12 10:37:27.765348,-69.0
2023-08-12 10:37:27.773037,-62.0
2023-08-12 10:37:27.780727,-38.0
2023-08-12 10:37:27.788417,-4.0
2023-08-12 10:37:27.796107,-2.0
2023-08-12 10:37:27.803796,-24.0
2023-08-12 10:37:27.811486,-33.0
2023-08-12 10:37:27.819176,-41.0
2023-08-12 10:37:27.826866,-60.0
2023-08-12 10:37:27.834556,-72.0
2023-08-12 10:37:27.842245,-74.0
2023-08-12 10:37:27.849935,-72.0
2023-08-12 10:37:27.857625,-67.0
2023-08-12 10:37:27.865315,-67.0
2023-08-12 10:37:27.873005,-67.0
2023-08-12 10:37:27.880694,-65.0
2023-08-12 10:37:27.888384,-67.0
2023-08-12 10:37:27.896074,-82.0
2023-08-12 10:37:27.903764,-86.0
2023-08-12 10:37:27.911454,-2.0
2023-08-12 10:37:27.919143,265.0
2023-08-12 10:37:27.926833,646.0
2023-08-12 10:37:27.934523,552.0
2023-08-12 10:37:27.942213,-132.0
2023-08-12 10:37:27.949903,-342.0
2023-08-12 10:37:27.957592,50.0
2023-08-12 10:37:27.965282,67.0
2023-08-12 10:37:27.972972,-176.0
2023-08-12 10:37:27.980662,-135.0
2023-08-12 10:37:27.988351,-62.0
2023-08-12 10:37:27.996041,-123.0
2023-08-12 10:37:28.003731,-123.0
2023-08-12 10:37:28.011421,-86.0
2023-08-12 10:37:28.019111,-98.0
2023-08-12 10:37:28.026800,-103.0
2023-08-12 10:37:28.034490,-86.0
2023-08-12 10:37:28.042180,-82.0
2023-08-12 10:37:28.049870,-82.0
2023-08-12 10:37:28.057560,-74.0
2023-08-12 10:37:28.065249,-69.0
2023-08-12 10:37:28.072939,-67.0
2023-08-12 10:37:28.080629,-62.0
2023-08-12 10:37:28.088319,-55.0
2023-08-12 10:37:28.096009,-53.0
2023-08-12 10:37:28.103698,-48.0
2023-08-12 10:37:28.111388,-45.0
2023-08-12 10:37:28.119078,-43.0
2023-08-12 10:37:28.126768,-38.0
2023-08-12 10:37:28.134458,-33.0
2023-08-12 10:37:28.142147,-33.0
2023-08-12 10:37:28.149837,-38.0
2023-08-12 10:37:28.157527,-36.0
2023-08-12 10:37:28.165217,-36.0
2023-08-12 10:37:28.172906,-38.0
2023-08-12 10:37:28.180596,-41.0
2023-08-12 10:37:28.188286,-48.0
2023-08-12 10:37:28.195976,-62.0
2023-08-12 10:37:28.203666,-74.0
2023-08-12 10:37:28.211355,-74.0
2023-08-12 10:37:28.219045,-72.0
2023-08-12 10:37:28.226735,-79.0
2023-08-12 10:37:28.234425,-86.0
2023-08-12 10:37:28.242115,-98.0
2023-08-12 10:37:28.249804,-106.0
2023-08-12 10:37:28.257494,-103.0
2023-08-12 10:37:28.265184,-103.0
2023-08-12 10:37:28.272874,-106.0
2023-08-12 10:37:28.280564,-106.0
2023-08-12 10:37:28.288253,-113.0
2023-08-12 10:37:28.295943,-120.0
2023-08-12 10:37:28.303633,-118.0
2023-08-12 10:37:28.311323,-113.0
2023-08-12 10:37:28.319013,-113.0
2023-08-12 10:37:28.326702,-110.0
2023-08-12 10:37:28.334392,-106.0
2023-08-12 10:37:28.342082,-103.0
2023-08-12 10:37:28.349772,-101.0
2023-08-12 10:37:28.357461,-96.0
2023-08-12 10:37:28.365151,-94.0
2023-08-12 10:37:28.372841,-91.0
2023-08-12 10:37:28.380531,-94.0
2023-08-12 10:37:28.388221,-91.0
2023-08-12 10:37:28.395910,-91.0
2023-08-12 10:37:28.403600,-91.0
2023-08-12 10:37:28.411290,-91.0
2023-08-12 10:37:28.418980,-89.0
2023-08-12 10:37:28.426670,-91.0
2023-08-12 10:37:28.434359,-91.0
2023-08-12 10:37:28.442049,-86.0
2023-08-12 10:37:28.449739,-84.0
2023-08-12 10:37:28.457429,-84.0
2023-08-12 10:37:28.465119,-86.0
2023-08-12 10:37:28.472808,-94.0
2023-08-12 10:37:28.480498,-91.0
2023-08-12 10:37:28.488188,-84.0
2023-08-12 10:37:28.495878,-84.0
2023-08-12 10:37:28.503568,-82.0
2023-08-12 10:37:28.511257,-82.0
2023-08-12 10:37:28.518947,-82.0
2023-08-12 10:37:28.526637,-79.0
2023-08-12 10:37:28.534327,-74.0
2023-08-12 10:37:28.542016,-72.0
2023-08-12 10:37:28.549706,-72.0
2023-08-12 10:37:28.557396,-72.0
2023-08-12 10:37:28.565086,-72.0
2023-08-12 10:37:28.572776,-69.0
2023-08-12 10:37:28.580465,-67.0
2023-08-12 10:37:28.588155,-65.0
2023-08-12 10:37:28.595845,-62.0
2023-08-12 10:37:28.603535,-67.0
2023-08-12 10:37:28.611225,-69.0
2023-08-12 10:37:28.618914,-65.0
2023-08-12 10:37:28.626604,-57.0
2023-08-12 10:37:28.634294,-55.0
2023-08-12 10:37:28.641984,-50.0
2023-08-12 10:37:28.649674,-24.0
2023-08-12 10:37:28.657363,7.0
2023-08-12 10:37:28.665053,2.0
2023-08-12 10:37:28.672743,-19.0
2023-08-12 10:37:28.680433,-28.0
2023-08-12 10:37:28.688123,-41.0
2023-08-12 10:37:28.695812,-57.0
2023-08-12 10:37:28.703502,-67.0
2023-08-12 10:37:28.711192,-65.0
2023-08-12 10:37:28.718882,-62.0
2023-08-12 10:37:28.726571,-60.0
2023-08-12 10:37:28.734261,-65.0
2023-08-12 10:37:28.741951,-74.0
2023-08-12 10:37:28.749641,-74.0
2023-08-12 10:37:28.757331,-69.0
2023-08-12 10:37:28.765020,-84.0
2023-08-12 10:37:28.772710,-82.0
2023-08-12 10:37:28.780400,16.0
2023-08-12 10:37:28.788090,306.0
2023-08-12 10:37:28.795780,670.0
2023-08-12 10:37:28.803469,506.0
2023-08-12 10:37:28.811159,-164.0
2023-08-12 10:37:28.818849,-289.0
2023-08-12 10:37:28.826539,79.0
2023-08-12 10:37:28.834229,41.0
2023-08-12 10:37:28.841918,-168.0
2023-08-12 10:37:28.849608,-108.0
2023-08-12 10:37:28.857298,-55.0
2023-08-12 10:37:28.864988,-115.0
2023-08-12 10:37:28.872678,-108.0
2023-08-12 10:37:28.880367,-77.0
2023-08-12 10:37:28.888057,-94.0
2023-08-12 10:37:28.895747,-94.0
2023-08-12 10:37:28.903437,-74.0
2023-08-12 10:37:28.911126,-74.0
2023-08-12 10:37:28.918816,-77.0
2023-08-12 10:37:28.926506,-69.0
2023-08-12 10:37:28.934196,-65.0
2023-08-12 10:37:28.941886,-60.0
2023-08-12 10:37:28.949575,-50.0
2023-08-12 10:37:28.957265,-48.0
2023-08-12 10:37:28.964955,-48.0
2023-08-12 10:37:28.972645,-50.0
2023-08-12 10:37:28.980335,-50.0
2023-08-12 10:37:28.988024,-43.0
2023-08-12 10:37:28.995714,-38.0
2023-08-12 10:37:29.003404,-38.0
2023-08-12 10:37:29.011094,-36.0
2023-08-12 10:37:29.018784,-31.0
2023-08-12 10:37:29.026473,-33.0
2023-08-12 10:37:29.034163,-36.0
2023-08-12 10:37:29.041853,-36.0
2023-08-12 10:37:29.049543,-38.0
2023-08-12 10:37:29.057233,-48.0
2023-08-12 10:37:29.064922,-53.0
2023-08-12 10:37:29.072612,-55.0
2023-08-12 10:37:29.080302,-60.0
2023-08-12 10:37:29.087992,-65.0
2023-08-12 10:37:29.095681,-69.0
2023-08-12 10:37:29.103371,-72.0
2023-08-12 10:37:29.111061,-77.0
2023-08-12 10:37:29.118751,-82.0
2023-08-12 10:37:29.126441,-86.0
2023-08-12 10:37:29.134130,-91.0
2023-08-12 10:37:29.141820,-91.0
2023-08-12 10:37:29.149510,-91.0
2023-08-12 10:37:29.157200,-89.0
2023-08-12 10:37:29.164890,-86.0
2023-08-12 10:37:29.172579,-84.0
2023-08-12 10:37:29.180269,-84.0
2023-08-12 10:37:29.187959,-84.0
2023-08-12 10:37:29.195649,-86.0
2023-08-12 10:37:29.203339,-84.0
2023-08-12 10:37:29.211028,-84.0
2023-08-12 10:37:29.218718,-82.0
2023-08-12 10:37:29.226408,-79.0
2023-08-12 10:37:29.234098,-77.0
2023-08-12 10:37:29.241788,-74.0
2023-08-12 10:37:29.249477,-72.0
2023-08-12 10:37:29.257167,-72.0
2023-08-12 10:37:29.264857,-67.0
2023-08-12 10:37:29.272547,-69.0
2023-08-12 10:37:29.280236,-79.0
2023-08-12 10:37:29.287926,-82.0
2023-08-12 10:37:29.295616,-79.0
2023-08-12 10:37:29.303306,-82.0
2023-08-12 10:37:29.310996,-84.0
2023-08-12 10:37:29.318685,-84.0
2023-08-12 10:37:29.326375,-94.0
2023-08-12 10:37:29.334065,-96.0
2023-08-12 10:37:29.341755,-89.0
2023-08-12 10:37:29.349445,-89.0
2023-08-12 10:37:29.357134,-89.0
2023-08-12 10:37:29.364824,-86.0
2023-08-12 10:37:29.372514,-86.0
2023-08-12 10:37:29.380204,-91.0
2023-08-12 10:37:29.387894,-89.0
2023-08-12 10:37:29.395583,-86.0
2023-08-12 10:37:29.403273,-84.0
2023-08-12 10:37:29.410963,-84.0
2023-08-12 10:37:29.418653,-84.0
2023-08-12 10:37:29.426343,-79.0
2023-08-12 10:37:29.434032,-79.0
2023-08-12 10:37:29.441722,-77.0
2023-08-12 10:37:29.449412,-77.0
2023-08-12 10:37:29.457102,-74.0
2023-08-12 10:37:29.464791,-74.0
2023-08-12 10:37:29.472481,-77.0
2023-08-12 10:37:29.480171,-84.0
2023-08-12 10:37:29.487861,-84.0
2023-08-12 10:37:29.495551,-77.0
2023-08-12 10:37:29.503240,-69.0
2023-08-12 10:37:29.510930,-57.0
2023-08-12 10:37:29.518620,-24.0
2023-08-12 10:37:29.526310,2.0
2023-08-12 10:37:29.534000,-7.0
2023-08-12 10:37:29.541689,-28.0
2023-08-12 10:37:29.549379,-38.0
2023-08-12 10:37:29.557069,-50.0
2023-08-12 10:37:29.564759,-67.0
2023-08-12 10:37:29.572449,-72.0
2023-08-12 10:37:29.580138,-74.0
2023-08-12 10:37:29.587828,-72.0
2023-08-12 10:37:29.595518,-69.0
2023-08-12 10:37:29.603208,-69.0
2023-08-12 10:37:29.610898,-67.0
2023-08-12 10:37:29.618587,-65.0
2023-08-12 10:37:29.626277,-72.0
2023-08-12 10:37:29.633967,-89.0
2023-08-12 10:37:29.641657,-77.0
2023-08-12 10:37:29.649346,45.0
2023-08-12 10:37:29.657036,364.0
2023-08-12 10:37:29.664726,685.0
2023-08-12 10:37:29.672416,402.0
2023-08-12 10:37:29.680106,-238.0
2023-08-12 10:37:29.687795,-234.0
2023-08-12 10:37:29.695485,106.0
2023-08-12 10:37:29.703175,0.0
2023-08-12 10:37:29.710865,-171.0
2023-08-12 10:37:29.718555,-86.0
2023-08-12 10:37:29.726244,-62.0
2023-08-12 10:37:29.733934,-123.0
2023-08-12 10:37:29.741624,-101.0
2023-08-12 10:37:29.749314,-72.0
2023-08-12 10:37:29.757004,-86.0
2023-08-12 10:37:29.764693,-86.0
2023-08-12 10:37:29.772383,-72.0
2023-08-12 10:37:29.780073,-69.0
2023-08-12 10:37:29.787763,-65.0
2023-08-12 10:37:29.795453,-60.0
2023-08-12 10:37:29.803142,-60.0
2023-08-12 10:37:29.810832,-57.0
2023-08-12 10:37:29.818522,-55.0
2023-08-12 10:37:29.826212,-55.0
2023-08-12 10:37:29.833901,-50.0
2023-08-12 10:37:29.841591,-43.0
2023-08-12 10:37:29.849281,-41.0
2023-08-12 10:37:29.856971,-43.0
2023-08-12 10:37:29.864661,-48.0
2023-08-12 10:37:29.872350,-50.0
2023-08-12 10:37:29.880040,-45.0
2023-08-12 10:37:29.887730,-43.0
2023-08-12 10:37:29.895420,-43.0
2023-08-12 10:37:29.903110,-48.0
2023-08-12 10:37:29.910799,-60.0
2023-08-12 10:37:29.918489,-67.0
2023-08-12 10:37:29.926179,-65.0
2023-08-12 10:37:29.933869,-69.0
2023-08-12 10:37:29.941559,-77.0
2023-08-12 10:37:29.949248,-84.0
2023-08-12 10:37:29.956938,-94.0
2023-08-12 10:37:29.964628,-103.0
2023-08-12 10:37:29.972318,-103.0
2023-08-12 10:37:29.980008,-110.0
2023-08-12 10:37:29.987697,-120.0
2023-08-12 10:37:29.995387,-123.0
2023-08-12 10:37:30.003077,-115.0
2023-08-12 10:37:30.010767,-113.0
2023-08-12 10:37:30.018456,-118.0
2023-08-12 10:37:30.026146,-115.0
2023-08-12 10:37:30.033836,-115.0
2023-08-12 10:37:30.041526,-113.0
2023-08-12 10:37:30.049216,-108.0
2023-08-12 10:37:30.056905,-106.0
2023-08-12 10:37:30.064595,-103.0
2023-08-12 10:37:30.072285,-101.0
2023-08-12 10:37:30.079975,-98.0
2023-08-12 10:37:30.087665,-98.0
2023-08-12 10:37:30.095354,-96.0
2023-08-12 10:37:30.103044,-91.0
2023-08-12 10:37:30.110734,-86.0
2023-08-12 10:37:30.118424,-84.0
2023-08-12 10:37:30.126114,-86.0
2023-08-12 10:37:30.133803,-91.0
2023-08-12 10:37:30.141493,-94.0
2023-08-12 10:37:30.149183,-86.0
2023-08-12 10:37:30.156873,-84.0
2023-08-12 10:37:30.164563,-86.0
2023-08-12 10:37:30.172252,-86.0
2023-08-12 10:37:30.179942,-86.0
2023-08-12 10:37:30.187632,-82.0
2023-08-12 10:37:30.195322,-79.0
2023-08-12 10:37:30.203011,-79.0
2023-08-12 10:37:30.210701,-82.0
2023-08-12 10:37:30.218391,-82.0
2023-08-12 10:37:30.226081,-86.0
2023-08-12 10:37:30.233771,-82.0
2023-08-12 10:37:30.241460,-74.0
2023-08-12 10:37:30.249150,-69.0
2023-08-12 10:37:30.256840,-72.0
2023-08-12 10:37:30.264530,-72.0
2023-08-12 10:37:30.272220,-67.0
2023-08-12 10:37:30.279909,-67.0
2023-08-12 10:37:30.287599,-69.0
2023-08-12 10:37:30.295289,-69.0
2023-08-12 10:37:30.302979,-67.0
2023-08-12 10:37:30.310669,-67.0
2023-08-12 10:37:30.318358,-69.0
2023-08-12 10:37:30.326048,-72.0
2023-08-12 10:37:30.333738,-74.0
2023-08-12 10:37:30.341428,-62.0
2023-08-12 10:37:30.349117,-45.0
2023-08-12 10:37:30.356807,-38.0
2023-08-12 10:37:30.364497,-7.0
2023-08-12 10:37:30.372187,19.0
2023-08-12 10:37:30.379877,0.0
2023-08-12 10:37:30.387566,-26.0
2023-08-12 10:37:30.395256,-28.0
2023-08-12 10:37:30.402946,-45.0
2023-08-12 10:37:30.410636,-72.0
2023-08-12 10:37:30.418326,-72.0
2023-08-12 10:37:30.426015,-62.0
2023-08-12 10:37:30.433705,-57.0
2023-08-12 10:37:30.441395,-57.0
2023-08-12 10:37:30.449085,-60.0
2023-08-12 10:37:30.456775,-65.0
2023-08-12 10:37:30.464464,-65.0
2023-08-12 10:37:30.472154,-67.0
2023-08-12 10:37:30.479844,-69.0
2023-08-12 10:37:30.487534,-19.0
2023-08-12 10:37:30.495224,180.0
2023-08-12 10:37:30.502913,557.0
2023-08-12 10:37:30.510603,634.0
2023-08-12 10:37:30.518293,-2.0
2023-08-12 10:37:30.525983,-448.0
2023-08-12 10:37:30.533672,-74.0
2023-08-12 10:37:30.541362,156.0
2023-08-12 10:37:30.549052,-91.0
2023-08-12 10:37:30.556742,-144.0
2023-08-12 10:37:30.564432,-36.0
2023-08-12 10:37:30.572121,-79.0
2023-08-12 10:37:30.579811,-115.0
2023-08-12 10:37:30.587501,-72.0
2023-08-12 10:37:30.595191,-72.0
2023-08-12 10:37:30.602881,-84.0
2023-08-12 10:37:30.610570,-69.0
2023-08-12 10:37:30.618260,-62.0
2023-08-12 10:37:30.625950,-74.0
2023-08-12 10:37:30.633640,-79.0
2023-08-12 10:37:30.641330,-69.0
2023-08-12 10:37:30.649019,-55.0
2023-08-12 10:37:30.656709,-53.0
2023-08-12 10:37:30.664399,-53.0
2023-08-12 10:37:30.672089,-45.0
2023-08-12 10:37:30.679779,-41.0
2023-08-12 10:37:30.687468,-41.0
2023-08-12 10:37:30.695158,-33.0
2023-08-12 10:37:30.702848,-28.0
2023-08-12 10:37:30.710538,-28.0
2023-08-12 10:37:30.718227,-21.0
2023-08-12 10:37:30.725917,-12.0
2023-08-12 10:37:30.733607,-16.0
2023-08-12 10:37:30.741297,-26.0
2023-08-12 10:37:30.748987,-16.0
2023-08-12 10:37:30.756676,-7.0
2023-08-12 10:37:30.764366,-24.0
2023-08-12 10:37:30.772056,-41.0
2023-08-12 10:37:30.779746,-41.0
2023-08-12 10:37:30.787436,-45.0
2023-08-12 10:37:30.795125,-55.0
2023-08-12 10:37:30.802815,-65.0
2023-08-12 10:37:30.810505,-77.0
2023-08-12 10:37:30.818195,-86.0
2023-08-12 10:37:30.825885,-94.0
2023-08-12 10:37:30.833574,-103.0
2023-08-12 10:37:30.841264,-101.0
2023-08-12 10:37:30.848954,-98.0
2023-08-12 10:37:30.856644,-101.0
2023-08-12 10:37:30.864334,-103.0
2023-08-12 10:37:30.872023,-101.0
2023-08-12 10:37:30.879713,-96.0
2023-08-12 10:37:30.887403,-96.0
2023-08-12 10:37:30.895093,-94.0
2023-08-12 10:37:30.902782,-91.0
2023-08-12 10:37:30.910472,-89.0
2023-08-12 10:37:30.918162,-84.0
2023-08-12 10:37:30.925852,-84.0
2023-08-12 10:37:30.933542,-86.0
2023-08-12 10:37:30.941231,-86.0
2023-08-12 10:37:30.948921,-82.0
2023-08-12 10:37:30.956611,-72.0
2023-08-12 10:37:30.964301,-69.0
2023-08-12 10:37:30.971991,-72.0
2023-08-12 10:37:30.979680,-69.0
2023-08-12 10:37:30.987370,-77.0
2023-08-12 10:37:30.995060,-89.0
2023-08-12 10:37:31.002750,-84.0
2023-08-12 10:37:31.010440,-82.0
2023-08-12 10:37:31.018129,-86.0
2023-08-12 10:37:31.025819,-89.0
2023-08-12 10:37:31.033509,-84.0
2023-08-12 10:37:31.041199,-82.0
2023-08-12 10:37:31.048889,-84.0
2023-08-12 10:37:31.056578,-86.0
2023-08-12 10:37:31.064268,-86.0
2023-08-12 10:37:31.071958,-84.0
2023-08-12 10:37:31.079648,-79.0
2023-08-12 10:37:31.087337,-79.0
2023-08-12 10:37:31.095027,-82.0
2023-08-12 10:37:31.102717,-84.0
2023-08-12 10:37:31.110407,-89.0
2023-08-12 10:37:31.118097,-91.0
2023-08-12 10:37:31.125786,-94.0
2023-08-12 10:37:31.133476,-86.0
2023-08-12 10:37:31.141166,-72.0
2023-08-12 10:37:31.148856,-53.0
2023-08-12 10:37:31.156546,-24.0
2023-08-12 10:37:31.164235,0.0
2023-08-12 10:37:31.171925,-9.0
2023-08-12 10:37:31.179615,-31.0
2023-08-12 10:37:31.187305,-43.0
2023-08-12 10:37:31.194995,-60.0
2023-08-12 10:37:31.202684,-77.0
2023-08-12 10:37:31.210374,-84.0
2023-08-12 10:37:31.218064,-84.0
2023-08-12 10:37:31.225754,-79.0
2023-08-12 10:37:31.233444,-77.0
2023-08-12 10:37:31.241133,-77.0
2023-08-12 10:37:31.248823,-79.0
2023-08-12 10:37:31.256513,-74.0
2023-08-12 10:37:31.264203,-77.0
2023-08-12 10:37:31.271892,-84.0
2023-08-12 10:37:31.279582,-24.0
2023-08-12 10:37:31.287272,202.0
2023-08-12 10:37:31.294962,593.0
2023-08-12 10:37:31.302652,651.0
2023-08-12 10:37:31.310341,-19.0
2023-08-12 10:37:31.318031,-458.0
2023-08-12 10:37:31.325721,-57.0
2023-08-12 10:37:31.333411,164.0
2023-08-12 10:37:31.341101,-98.0
2023-08-12 10:37:31.348790,-154.0
2023-08-12 10:37:31.356480,-48.0
2023-08-12 10:37:31.364170,-89.0
2023-08-12 10:37:31.371860,-118.0
2023-08-12 10:37:31.379550,-74.0
2023-08-12 10:37:31.387239,-74.0
2023-08-12 10:37:31.394929,-94.0
2023-08-12 10:37:31.402619,-77.0
2023-08-12 10:37:31.410309,-65.0
2023-08-12 10:37:31.417999,-74.0
2023-08-12 10:37:31.425688,-67.0
2023-08-12 10:37:31.433378,-57.0
2023-08-12 10:37:31.441068,-55.0
2023-08-12 10:37:31.448758,-50.0
2023-08-12 10:37:31.456447,-41.0
2023-08-12 10:37:31.464137,-41.0
2023-08-12 10:37:31.471827,-33.0
2023-08-12 10:37:31.479517,-26.0
2023-08-12 10:37:31.487207,-26.0
2023-08-12 10:37:31.494896,-21.0
2023-08-12 10:37:31.502586,-14.0
2023-08-12 10:37:31.510276,-14.0
2023-08-12 10:37:31.517966,-16.0
2023-08-12 10:37:31.525656,-16.0
2023-08-12 10:37:31.533345,-19.0
2023-08-12 10:37:31.541035,-19.0
2023-08-12 10:37:31.548725,-21.0
2023-08-12 10:37:31.556415,-33.0
2023-08-12 10:37:31.564105,-38.0
2023-08-12 10:37:31.571794,-36.0
2023-08-12 10:37:31.579484,-45.0
2023-08-12 10:37:31.587174,-60.0
2023-08-12 10:37:31.594864,-72.0
2023-08-12 10:37:31.602554,-77.0
2023-08-12 10:37:31.610243,-82.0
2023-08-12 10:37:31.617933,-86.0
2023-08-12 10:37:31.625623,-94.0
2023-08-12 10:37:31.633313,-98.0
2023-08-12 10:37:31.641002,-96.0
2023-08-12 10:37:31.648692,-94.0
2023-08-12 10:37:31.656382,-96.0
2023-08-12 10:37:31.664072,-98.0
2023-08-12 10:37:31.671762,-94.0
2023-08-12 10:37:31.679451,-91.0
2023-08-12 10:37:31.687141,-89.0
2023-08-12 10:37:31.694831,-84.0
2023-08-12 10:37:31.702521,-82.0
2023-08-12 10:37:31.710211,-82.0
2023-08-12 10:37:31.717900,-82.0
2023-08-12 10:37:31.725590,-79.0
2023-08-12 10:37:31.733280,-77.0
2023-08-12 10:37:31.740970,-69.0
2023-08-12 10:37:31.748660,-69.0
2023-08-12 10:37:31.756349,-69.0
2023-08-12 10:37:31.764039,-67.0
2023-08-12 10:37:31.771729,-65.0
2023-08-12 10:37:31.779419,-62.0
2023-08-12 10:37:31.787109,-62.0
2023-08-12 10:37:31.794798,-67.0
2023-08-12 10:37:31.802488,-69.0
2023-08-12 10:37:31.810178,-65.0
2023-08-12 10:37:31.817868,-60.0
2023-08-12 10:37:31.825557,-62.0
2023-08-12 10:37:31.833247,-65.0
2023-08-12 10:37:31.840937,-67.0
2023-08-12 10:37:31.848627,-69.0
2023-08-12 10:37:31.856317,-65.0
2023-08-12 10:37:31.864006,-62.0
2023-08-12 10:37:31.871696,-65.0
2023-08-12 10:37:31.879386,-72.0
2023-08-12 10:37:31.887076,-74.0
2023-08-12 10:37:31.894766,-79.0
2023-08-12 10:37:31.902455,-82.0
2023-08-12 10:37:31.910145,-74.0
2023-08-12 10:37:31.917835,-65.0
2023-08-12 10:37:31.925525,-50.0
2023-08-12 10:37:31.933215,-19.0
2023-08-12 10:37:31.940904,4.0
2023-08-12 10:37:31.948594,-7.0
2023-08-12 10:37:31.956284,-28.0
2023-08-12 10:37:31.963974,-38.0
2023-08-12 10:37:31.971664,-55.0
2023-08-12 10:37:31.979353,-74.0
2023-08-12 10:37:31.987043,-77.0
2023-08-12 10:37:31.994733,-74.0
2023-08-12 10:37:32.002423,-72.0
2023-08-12 10:37:32.010112,-67.0
2023-08-12 10:37:32.017802,-69.0
2023-08-12 10:37:32.025492,-72.0
2023-08-12 10:37:32.033182,-69.0
2023-08-12 10:37:32.040872,-79.0
2023-08-12 10:37:32.048561,-94.0
2023-08-12 10:37:32.056251,-38.0
2023-08-12 10:37:32.063941,166.0
2023-08-12 10:37:32.071631,557.0
2023-08-12 10:37:32.079321,675.0
2023-08-12 10:37:32.087010,48.0
2023-08-12 10:37:32.094700,-427.0
2023-08-12 10:37:32.102390,-65.0
2023-08-12 10:37:32.110080,154.0
2023-08-12 10:37:32.117770,-120.0
2023-08-12 10:37:32.125459,-178.0
2023-08-12 10:37:32.133149,-57.0
2023-08-12 10:37:32.140839,-96.0
2023-08-12 10:37:32.148529,-137.0
2023-08-12 10:37:32.156219,-96.0
2023-08-12 10:37:32.163908,-91.0
2023-08-12 10:37:32.171598,-103.0
2023-08-12 10:37:32.179288,-86.0
2023-08-12 10:37:32.186978,-77.0
2023-08-12 10:37:32.194667,-82.0
2023-08-12 10:37:32.202357,-77.0
2023-08-12 10:37:32.210047,-69.0
2023-08-12 10:37:32.217737,-69.0
2023-08-12 10:37:32.225427,-69.0
2023-08-12 10:37:32.233116,-65.0
2023-08-12 10:37:32.240806,-57.0
2023-08-12 10:37:32.248496,-57.0
2023-08-12 10:37:32.256186,-53.0
2023-08-12 10:37:32.263876,-43.0
2023-08-12 10:37:32.271565,-36.0
2023-08-12 10:37:32.279255,-36.0
2023-08-12 10:37:32.286945,-31.0
2023-08-12 10:37:32.294635,-26.0
2023-08-12 10:37:32.302325,-26.0
2023-08-12 10:37:32.310014,-26.0
2023-08-12 10:37:32.317704,-24.0
2023-08-12 10:37:32.325394,-26.0
2023-08-12 10:37:32.333084,-33.0
2023-08-12 10:37:32.340774,-43.0
2023-08-12 10:37:32.348463,-48.0
2023-08-12 10:37:32.356153,-55.0
2023-08-12 10:37:32.363843,-60.0
2023-08-12 10:37:32.371533,-65.0
2023-08-12 10:37:32.379222,-69.0
2023-08-12 10:37:32.386912,-79.0
2023-08-12 10:37:32.394602,-86.0
2023-08-12 10:37:32.402292,-91.0
2023-08-12 10:37:32.409982,-91.0
2023-08-12 10:37:32.417671,-86.0
2023-08-12 10:37:32.425361,-89.0
2023-08-12 10:37:32.433051,-91.0
2023-08-12 10:37:32.440741,-86.0
2023-08-12 10:37:32.448431,-86.0
2023-08-12 10:37:32.456120,-86.0
2023-08-12 10:37:32.463810,-84.0
2023-08-12 10:37:32.471500,-82.0
2023-08-12 10:37:32.479190,-82.0
2023-08-12 10:37:32.486880,-79.0
2023-08-12 10:37:32.494569,-72.0
2023-08-12 10:37:32.502259,-72.0
2023-08-12 10:37:32.509949,-69.0
2023-08-12 10:37:32.517639,-67.0
2023-08-12 10:37:32.525329,-67.0
2023-08-12 10:37:32.533018,-65.0
2023-08-12 10:37:32.540708,-62.0
2023-08-12 10:37:32.548398,-57.0
2023-08-12 10:37:32.556088,-57.0
2023-08-12 10:37:32.563777,-57.0
2023-08-12 10:37:32.571467,-55.0
2023-08-12 10:37:32.579157,-57.0
2023-08-12 10:37:32.586847,-60.0
2023-08-12 10:37:32.594537,-55.0
2023-08-12 10:37:32.602226,-55.0
2023-08-12 10:37:32.609916,-57.0
2023-08-12 10:37:32.617606,-60.0
2023-08-12 10:37:32.625296,-57.0
2023-08-12 10:37:32.632986,-53.0
2023-08-12 10:37:32.640675,-50.0
2023-08-12 10:37:32.648365,-60.0
2023-08-12 10:37:32.656055,-72.0
2023-08-12 10:37:32.663745,-72.0
2023-08-12 10:37:32.671435,-67.0
2023-08-12 10:37:32.679124,-69.0
2023-08-12 10:37:32.686814,-77.0
2023-08-12 10:37:32.694504,-74.0
2023-08-12 10:37:32.702194,-67.0
2023-08-12 10:37:32.709884,-62.0
2023-08-12 10:37:32.717573,-41.0
2023-08-12 10:37:32.725263,-4.0
2023-08-12 10:37:32.732953,4.0
2023-08-12 10:37:32.740643,-19.0
2023-08-12 10:37:32.748332,-41.0
2023-08-12 10:37:32.756022,-53.0
2023-08-12 10:37:32.763712,-72.0
2023-08-12 10:37:32.771402,-86.0
2023-08-12 10:37:32.779092,-89.0
2023-08-12 10:37:32.786781,-86.0
2023-08-12 10:37:32.794471,-84.0
2023-08-12 10:37:32.802161,-84.0
2023-08-12 10:37:32.809851,-84.0
2023-08-12 10:37:32.817541,-84.0
2023-08-12 10:37:32.825230,-82.0
2023-08-12 10:37:32.832920,-96.0
2023-08-12 10:37:32.840610,-108.0
2023-08-12 10:37:32.848300,-48.0
2023-08-12 10:37:32.855990,176.0
2023-08-12 10:37:32.863679,569.0
2023-08-12 10:37:32.871369,615.0
2023-08-12 10:37:32.879059,-26.0
2023-08-12 10:37:32.886749,-393.0
2023-08-12 10:37:32.894438,-21.0
2023-08-12 10:37:32.902128,108.0
2023-08-12 10:37:32.909818,-144.0
2023-08-12 10:37:32.917508,-156.0
2023-08-12 10:37:32.925198,-62.0
2023-08-12 10:37:32.932887,-113.0
2023-08-12 10:37:32.940577,-130.0
2023-08-12 10:37:32.948267,-89.0
2023-08-12 10:37:32.955957,-89.0
2023-08-12 10:37:32.963647,-98.0
2023-08-12 10:37:32.971336,-86.0
2023-08-12 10:37:32.979026,-79.0
2023-08-12 10:37:32.986716,-79.0
2023-08-12 10:37:32.994406,-74.0
2023-08-12 10:37:33.002096,-69.0
2023-08-12 10:37:33.009785,-67.0
2023-08-12 10:37:33.017475,-60.0
2023-08-12 10:37:33.025165,-53.0
2023-08-12 10:37:33.032855,-53.0
2023-08-12 10:37:33.040545,-50.0
2023-08-12 10:37:33.048234,-43.0
2023-08-12 10:37:33.055924,-41.0
2023-08-12 10:37:33.063614,-38.0
2023-08-12 10:37:33.071304,-36.0
2023-08-12 10:37:33.078993,-33.0
2023-08-12 10:37:33.086683,-28.0
2023-08-12 10:37:33.094373,-26.0
2023-08-12 10:37:33.102063,-26.0
2023-08-12 10:37:33.109753,-31.0
2023-08-12 10:37:33.117442,-33.0
2023-08-12 10:37:33.125132,-36.0
2023-08-12 10:37:33.132822,-45.0
2023-08-12 10:37:33.140512,-50.0
2023-08-12 10:37:33.148202,-55.0
2023-08-12 10:37:33.155891,-62.0
2023-08-12 10:37:33.163581,-72.0
2023-08-12 10:37:33.171271,-79.0
2023-08-12 10:37:33.178961,-84.0
2023-08-12 10:37:33.186651,-91.0
2023-08-12 10:37:33.194340,-101.0
2023-08-12 10:37:33.202030,-108.0
2023-08-12 10:37:33.209720,-103.0
2023-08-12 10:37:33.217410,-101.0
2023-08-12 10:37:33.225100,-106.0
2023-08-12 10:37:33.232789,-108.0
2023-08-12 10:37:33.240479,-110.0
2023-08-12 10:37:33.248169,-106.0
2023-08-12 10:37:33.255859,-101.0
2023-08-12 10:37:33.263548,-103.0
2023-08-12 10:37:33.271238,-101.0
2023-08-12 10:37:33.278928,-96.0
2023-08-12 10:37:33.286618,-96.0
2023-08-12 10:37:33.294308,-91.0
2023-08-12 10:37:33.301997,-86.0
2023-08-12 10:37:33.309687,-84.0
2023-08-12 10:37:33.317377,-84.0
2023-08-12 10:37:33.325067,-84.0
2023-08-12 10:37:33.332757,-84.0
2023-08-12 10:37:33.340446,-79.0
2023-08-12 10:37:33.348136,-74.0
2023-08-12 10:37:33.355826,-74.0
2023-08-12 10:37:33.363516,-74.0
2023-08-12 10:37:33.371206,-74.0
2023-08-12 10:37:33.378895,-72.0
2023-08-12 10:37:33.386585,-69.0
2023-08-12 10:37:33.394275,-65.0
2023-08-12 10:37:33.401965,-67.0
2023-08-12 10:37:33.409655,-69.0
2023-08-12 10:37:33.417344,-69.0
2023-08-12 10:37:33.425034,-65.0
2023-08-12 10:37:33.432724,-62.0
2023-08-12 10:37:33.440414,-62.0
2023-08-12 10:37:33.448103,-60.0
2023-08-12 10:37:33.455793,-60.0
2023-08-12 10:37:33.463483,-60.0
2023-08-12 10:37:33.471173,-57.0
2023-08-12 10:37:33.478863,-57.0
2023-08-12 10:37:33.486552,-57.0
2023-08-12 10:37:33.494242,-57.0
2023-08-12 10:37:33.501932,-57.0
2023-08-12 10:37:33.509622,-60.0
2023-08-12 10:37:33.517312,-62.0
2023-08-12 10:37:33.525001,-60.0
2023-08-12 10:37:33.532691,-57.0
2023-08-12 10:37:33.540381,-53.0
2023-08-12 10:37:33.548071,-33.0
2023-08-12 10:37:33.555761,0.0
2023-08-12 10:37:33.563450,9.0
2023-08-12 10:37:33.571140,-12.0
2023-08-12 10:37:33.578830,-28.0
2023-08-12 10:37:33.586520,-38.0
2023-08-12 10:37:33.594210,-55.0
2023-08-12 10:37:33.601899,-72.0
2023-08-12 10:37:33.609589,-77.0
2023-08-12 10:37:33.617279,-77.0
2023-08-12 10:37:33.624969,-77.0
2023-08-12 10:37:33.632658,-79.0
2023-08-12 10:37:33.640348,-84.0
2023-08-12 10:37:33.648038,-84.0
2023-08-12 10:37:33.655728,-79.0
2023-08-12 10:37:33.663418,-84.0
2023-08-12 10:37:33.671107,-101.0
2023-08-12 10:37:33.678797,-72.0
2023-08-12 10:37:33.686487,94.0
2023-08-12 10:37:33.694177,463.0
2023-08-12 10:37:33.701867,685.0
2023-08-12 10:37:33.709556,217.0
2023-08-12 10:37:33.717246,-328.0
2023-08-12 10:37:33.724936,-135.0
2023-08-12 10:37:33.732626,110.0
2023-08-12 10:37:33.740316,-96.0
2023-08-12 10:37:33.748005,-190.0
2023-08-12 10:37:33.755695,-84.0
2023-08-12 10:37:33.763385,-101.0
2023-08-12 10:37:33.771075,-149.0
2023-08-12 10:37:33.778765,-123.0
2023-08-12 10:37:33.786454,-113.0
2023-08-12 10:37:33.794144,-123.0
2023-08-12 10:37:33.801834,-108.0
2023-08-12 10:37:33.809524,-101.0
2023-08-12 10:37:33.817213,-108.0
2023-08-12 10:37:33.824903,-113.0
2023-08-12 10:37:33.832593,-108.0
2023-08-12 10:37:33.840283,-98.0
2023-08-12 10:37:33.847973,-94.0
2023-08-12 10:37:33.855662,-89.0
2023-08-12 10:37:33.863352,-84.0
2023-08-12 10:37:33.871042,-79.0
2023-08-12 10:37:33.878732,-72.0
2023-08-12 10:37:33.886422,-67.0
2023-08-12 10:37:33.894111,-62.0
2023-08-12 10:37:33.901801,-57.0
2023-08-12 10:37:33.909491,-53.0
2023-08-12 10:37:33.917181,-50.0
2023-08-12 10:37:33.924871,-48.0
2023-08-12 10:37:33.932560,-43.0
2023-08-12 10:37:33.940250,-43.0
2023-08-12 10:37:33.947940,-45.0
2023-08-12 10:37:33.955630,-53.0
2023-08-12 10:37:33.963320,-57.0
2023-08-12 10:37:33.971009,-60.0
2023-08-12 10:37:33.978699,-65.0
2023-08-12 10:37:33.986389,-69.0
2023-08-12 10:37:33.994079,-74.0
2023-08-12 10:37:34.001768,-84.0
2023-08-12 10:37:34.009458,-91.0
2023-08-12 10:37:34.017148,-94.0
2023-08-12 10:37:34.024838,-96.0
2023-08-12 10:37:34.032528,-98.0
2023-08-12 10:37:34.040217,-96.0
2023-08-12 10:37:34.047907,-98.0
2023-08-12 10:37:34.055597,-101.0
2023-08-12 10:37:34.063287,-101.0
2023-08-12 10:37:34.070977,-96.0
2023-08-12 10:37:34.078666,-94.0
2023-08-12 10:37:34.086356,-96.0
2023-08-12 10:37:34.094046,-96.0
2023-08-12 10:37:34.101736,-94.0
2023-08-12 10:37:34.109426,-89.0
2023-08-12 10:37:34.117115,-86.0
2023-08-12 10:37:34.124805,-84.0
2023-08-12 10:37:34.132495,-82.0
2023-08-12 10:37:34.140185,-82.0
2023-08-12 10:37:34.147875,-79.0
2023-08-12 10:37:34.155564,-74.0
2023-08-12 10:37:34.163254,-69.0
2023-08-12 10:37:34.170944,-67.0
2023-08-12 10:37:34.178634,-65.0
2023-08-12 10:37:34.186323,-67.0
2023-08-12 10:37:34.194013,-67.0
2023-08-12 10:37:34.201703,-65.0
2023-08-12 10:37:34.209393,-60.0
2023-08-12 10:37:34.217083,-60.0
2023-08-12 10:37:34.224772,-62.0
2023-08-12 10:37:34.232462,-65.0
2023-08-12 10:37:34.240152,-67.0
2023-08-12 10:37:34.247842,-69.0
2023-08-12 10:37:34.255532,-67.0
2023-08-12 10:37:34.263221,-62.0
2023-08-12 10:37:34.270911,-65.0
2023-08-12 10:37:34.278601,-67.0
2023-08-12 10:37:34.286291,-65.0
2023-08-12 10:37:34.293981,-62.0
2023-08-12 10:37:34.301670,-65.0
2023-08-12 10:37:34.309360,-65.0
2023-08-12 10:37:34.317050,-65.0
2023-08-12 10:37:34.324740,-62.0
2023-08-12 10:37:34.332430,-62.0
2023-08-12 10:37:34.340119,-62.0
2023-08-12 10:37:34.347809,-62.0
2023-08-12 10:37:34.355499,-62.0
2023-08-12 10:37:34.363189,-69.0
2023-08-12 10:37:34.370878,-79.0
2023-08-12 10:37:34.378568,-79.0
2023-08-12 10:37:34.386258,-74.0
2023-08-12 10:37:34.393948,-72.0
2023-08-12 10:37:34.401638,-69.0
2023-08-12 10:37:34.409327,-62.0
2023-08-12 10:37:34.417017,-41.0
2023-08-12 10:37:34.424707,-9.0
2023-08-12 10:37:34.432397,-4.0
2023-08-12 10:37:34.440087,-26.0
2023-08-12 10:37:34.447776,-41.0
2023-08-12 10:37:34.455466,-48.0
2023-08-12 10:37:34.463156,-67.0
2023-08-12 10:37:34.470846,-84.0
2023-08-12 10:37:34.478536,-91.0
2023-08-12 10:37:34.486225,-91.0
2023-08-12 10:37:34.493915,-91.0
2023-08-12 10:37:34.501605,-89.0
2023-08-12 10:37:34.509295,-89.0
2023-08-12 10:37:34.516985,-89.0
2023-08-12 10:37:34.524674,-84.0
2023-08-12 10:37:34.532364,-89.0
2023-08-12 10:37:34.540054,-103.0
2023-08-12 10:37:34.547744,-77.0
2023-08-12 10:37:34.555433,84.0
2023-08-12 10:37:34.563123,448.0
2023-08-12 10:37:34.570813,673.0
2023-08-12 10:37:34.578503,217.0
2023-08-12 10:37:34.586193,-320.0
2023-08-12 10:37:34.593882,-139.0
2023-08-12 10:37:34.601572,103.0
2023-08-12 10:37:34.609262,-89.0
2023-08-12 10:37:34.616952,-180.0
2023-08-12 10:37:34.624642,-82.0
2023-08-12 10:37:34.632331,-96.0
2023-08-12 10:37:34.640021,-139.0
2023-08-12 10:37:34.647711,-106.0
2023-08-12 10:37:34.655401,-91.0
2023-08-12 10:37:34.663091,-103.0
2023-08-12 10:37:34.670780,-94.0
2023-08-12 10:37:34.678470,-82.0
2023-08-12 10:37:34.686160,-84.0
2023-08-12 10:37:34.693850,-82.0
2023-08-12 10:37:34.701540,-72.0
2023-08-12 10:37:34.709229,-67.0
2023-08-12 10:37:34.716919,-62.0
2023-08-12 10:37:34.724609,-60.0
2023-08-12 10:37:34.732299,-60.0
2023-08-12 10:37:34.739988,-60.0
2023-08-12 10:37:34.747678,-60.0
2023-08-12 10:37:34.755368,-50.0
2023-08-12 10:37:34.763058,-45.0
2023-08-12 10:37:34.770748,-45.0
2023-08-12 10:37:34.778437,-41.0
2023-08-12 10:37:34.786127,-36.0
2023-08-12 10:37:34.793817,-36.0
2023-08-12 10:37:34.801507,-41.0
2023-08-12 10:37:34.809197,-41.0
2023-08-12 10:37:34.816886,-41.0
2023-08-12 10:37:34.824576,-45.0
2023-08-12 10:37:34.832266,-53.0
2023-08-12 10:37:34.839956,-57.0
2023-08-12 10:37:34.847646,-62.0
2023-08-12 10:37:34.855335,-69.0
2023-08-12 10:37:34.863025,-74.0
2023-08-12 10:37:34.870715,-79.0
2023-08-12 10:37:34.878405,-84.0
2023-08-12 10:37:34.886095,-89.0
2023-08-12 10:37:34.893784,-94.0
2023-08-12 10:37:34.901474,-103.0
2023-08-12 10:37:34.909164,-110.0
2023-08-12 10:37:34.916854,-106.0
2023-08-12 10:37:34.924543,-101.0
2023-08-12 10:37:34.932233,-103.0
2023-08-12 10:37:34.939923,-106.0
2023-08-12 10:37:34.947613,-110.0
2023-08-12 10:37:34.955303,-113.0
2023-08-12 10:37:34.962992,-108.0
2023-08-12 10:37:34.970682,-103.0
2023-08-12 10:37:34.978372,-103.0
2023-08-12 10:37:34.986062,-103.0
2023-08-12 10:37:34.993752,-108.0
2023-08-12 10:37:35.001441,-110.0
2023-08-12 10:37:35.009131,-101.0
2023-08-12 10:37:35.016821,-96.0
2023-08-12 10:37:35.024511,-94.0
2023-08-12 10:37:35.032201,-89.0
2023-08-12 10:37:35.039890,-84.0
2023-08-12 10:37:35.047580,-86.0
2023-08-12 10:37:35.055270,-84.0
2023-08-12 10:37:35.062960,-82.0
2023-08-12 10:37:35.070650,-79.0
2023-08-12 10:37:35.078339,-82.0
2023-08-12 10:37:35.086029,-89.0
2023-08-12 10:37:35.093719,-89.0
2023-08-12 10:37:35.101409,-84.0
2023-08-12 10:37:35.109098,-82.0
2023-08-12 10:37:35.116788,-84.0
2023-08-12 10:37:35.124478,-86.0
2023-08-12 10:37:35.132168,-91.0
2023-08-12 10:37:35.139858,-89.0
2023-08-12 10:37:35.147547,-84.0
2023-08-12 10:37:35.155237,-84.0
2023-08-12 10:37:35.162927,-86.0
2023-08-12 10:37:35.170617,-84.0
2023-08-12 10:37:35.178307,-84.0
2023-08-12 10:37:35.185996,-84.0
2023-08-12 10:37:35.193686,-79.0
2023-08-12 10:37:35.201376,-74.0
2023-08-12 10:37:35.209066,-74.0
2023-08-12 10:37:35.216756,-77.0
2023-08-12 10:37:35.224445,-74.0
2023-08-12 10:37:35.232135,-69.0
2023-08-12 10:37:35.239825,-72.0
2023-08-12 10:37:35.247515,-79.0
2023-08-12 10:37:35.255205,-86.0
2023-08-12 10:37:35.262894,-86.0
2023-08-12 10:37:35.270584,-86.0
2023-08-12 10:37:35.278274,-82.0
2023-08-12 10:37:35.285964,-77.0
2023-08-12 10:37:35.293653,-77.0
2023-08-12 10:37:35.301343,-62.0
2023-08-12 10:37:35.309033,-28.0
2023-08-12 10:37:35.316723,-12.0
2023-08-12 10:37:35.324413,-31.0
2023-08-12 10:37:35.332102,-48.0
2023-08-12 10:37:35.339792,-50.0
2023-08-12 10:37:35.347482,-65.0
2023-08-12 10:37:35.355172,-82.0
2023-08-12 10:37:35.362862,-89.0
2023-08-12 10:37:35.370551,-86.0
2023-08-12 10:37:35.378241,-84.0
2023-08-12 10:37:35.385931,-84.0
2023-08-12 10:37:35.393621,-84.0
2023-08-12 10:37:35.401311,-84.0
2023-08-12 10:37:35.409000,-79.0
2023-08-12 10:37:35.416690,-79.0
2023-08-12 10:37:35.424380,-94.0
2023-08-12 10:37:35.432070,-84.0
2023-08-12 10:37:35.439759,31.0
2023-08-12 10:37:35.447449,345.0
2023-08-12 10:37:35.455139,649.0
2023-08-12 10:37:35.462829,347.0
2023-08-12 10:37:35.470519,-270.0
2023-08-12 10:37:35.478208,-231.0
2023-08-12 10:37:35.485898,89.0
2023-08-12 10:37:35.493588,-41.0
2023-08-12 10:37:35.501278,-197.0
2023-08-12 10:37:35.508968,-106.0
2023-08-12 10:37:35.516657,-86.0
2023-08-12 10:37:35.524347,-142.0
2023-08-12 10:37:35.532037,-120.0
2023-08-12 10:37:35.539727,-96.0
2023-08-12 10:37:35.547417,-108.0
2023-08-12 10:37:35.555106,-101.0
2023-08-12 10:37:35.562796,-86.0
2023-08-12 10:37:35.570486,-89.0
2023-08-12 10:37:35.578176,-89.0
2023-08-12 10:37:35.585866,-77.0
2023-08-12 10:37:35.593555,-69.0
2023-08-12 10:37:35.601245,-65.0
2023-08-12 10:37:35.608935,-57.0
2023-08-12 10:37:35.616625,-53.0
2023-08-12 10:37:35.624314,-53.0
2023-08-12 10:37:35.632004,-50.0
2023-08-12 10:37:35.639694,-43.0
2023-08-12 10:37:35.647384,-36.0
2023-08-12 10:37:35.655074,-31.0
2023-08-12 10:37:35.662763,-26.0
2023-08-12 10:37:35.670453,-26.0
2023-08-12 10:37:35.678143,-26.0
2023-08-12 10:37:35.685833,-24.0
2023-08-12 10:37:35.693523,-21.0
2023-08-12 10:37:35.701212,-24.0
2023-08-12 10:37:35.708902,-28.0
2023-08-12 10:37:35.716592,-36.0
2023-08-12 10:37:35.724282,-38.0
2023-08-12 10:37:35.731972,-41.0
2023-08-12 10:37:35.739661,-53.0
2023-08-12 10:37:35.747351,-62.0
2023-08-12 10:37:35.755041,-72.0
2023-08-12 10:37:35.762731,-86.0
2023-08-12 10:37:35.770421,-91.0
2023-08-12 10:37:35.778110,-96.0
2023-08-12 10:37:35.785800,-101.0
2023-08-12 10:37:35.793490,-98.0
2023-08-12 10:37:35.801180,-98.0
2023-08-12 10:37:35.808869,-98.0
2023-08-12 10:37:35.816559,-94.0
2023-08-12 10:37:35.824249,-94.0
2023-08-12 10:37:35.831939,-91.0
2023-08-12 10:37:35.839629,-86.0
2023-08-12 10:37:35.847318,-86.0
2023-08-12 10:37:35.855008,-94.0
2023-08-12 10:37:35.862698,-91.0
2023-08-12 10:37:35.870388,-82.0
2023-08-12 10:37:35.878078,-77.0
2023-08-12 10:37:35.885767,-82.0
2023-08-12 10:37:35.893457,-79.0
2023-08-12 10:37:35.901147,-74.0
2023-08-12 10:37:35.908837,-69.0
2023-08-12 10:37:35.916527,-65.0
2023-08-12 10:37:35.924216,-65.0
2023-08-12 10:37:35.931906,-69.0
2023-08-12 10:37:35.939596,-67.0
2023-08-12 10:37:35.947286,-65.0
2023-08-12 10:37:35.954976,-62.0
2023-08-12 10:37:35.962665,-60.0
2023-08-12 10:37:35.970355,-62.0
2023-08-12 10:37:35.978045,-65.0
2023-08-12 10:37:35.985735,-65.0
2023-08-12 10:37:35.993424,-60.0
2023-08-12 10:37:36.001114,-60.0
2023-08-12 10:37:36.008804,-60.0
2023-08-12 10:37:36.016494,-62.0
2023-08-12 10:37:36.024184,-62.0
2023-08-12 10:37:36.031873,-67.0
2023-08-12 10:37:36.039563,-74.0
2023-08-12 10:37:36.047253,-72.0
2023-08-12 10:37:36.054943,-69.0
2023-08-12 10:37:36.062633,-69.0
2023-08-12 10:37:36.070322,-72.0
2023-08-12 10:37:36.078012,-82.0
2023-08-12 10:37:36.085702,-84.0
2023-08-12 10:37:36.093392,-79.0
2023-08-12 10:37:36.101082,-79.0
2023-08-12 10:37:36.108771,-82.0
2023-08-12 10:37:36.116461,-84.0
2023-08-12 10:37:36.124151,-91.0
2023-08-12 10:37:36.131841,-94.0
2023-08-12 10:37:36.139531,-89.0
2023-08-12 10:37:36.147220,-86.0
2023-08-12 10:37:36.154910,-77.0
2023-08-12 10:37:36.162600,-65.0
2023-08-12 10:37:36.170290,-38.0
2023-08-12 10:37:36.177979,-4.0
2023-08-12 10:37:36.185669,-9.0
2023-08-12 10:37:36.193359,-36.0
2023-08-12 10:37:36.201049,-48.0
2023-08-12 10:37:36.208739,-57.0
2023-08-12 10:37:36.216428,-84.0
2023-08-12 10:37:36.224118,-96.0
2023-08-12 10:37:36.231808,-91.0
2023-08-12 10:37:36.239498,-89.0
2023-08-12 10:37:36.247188,-86.0
2023-08-12 10:37:36.254877,-82.0
2023-08-12 10:37:36.262567,-86.0
2023-08-12 10:37:36.270257,-89.0
2023-08-12 10:37:36.277947,-86.0
2023-08-12 10:37:36.285637,-94.0
2023-08-12 10:37:36.293326,-91.0
2023-08-12 10:37:36.301016,9.0
2023-08-12 10:37:36.308706,313.0
2023-08-12 10:37:36.316396,651.0
2023-08-12 10:37:36.324086,386.0
2023-08-12 10:37:36.331775,-342.0
2023-08-12 10:37:36.339465,-390.0
2023-08-12 10:37:36.347155,77.0
2023-08-12 10:37:36.354845,48.0
2023-08-12 10:37:36.362534,-176.0
2023-08-12 10:37:36.370224,-108.0
2023-08-12 10:37:36.377914,-57.0
2023-08-12 10:37:36.385604,-123.0
2023-08-12 10:37:36.393294,-113.0
2023-08-12 10:37:36.400983,-77.0
2023-08-12 10:37:36.408673,-96.0
2023-08-12 10:37:36.416363,-98.0
2023-08-12 10:37:36.424053,-77.0
2023-08-12 10:37:36.431743,-69.0
2023-08-12 10:37:36.439432,-69.0
2023-08-12 10:37:36.447122,-62.0
2023-08-12 10:37:36.454812,-57.0
2023-08-12 10:37:36.462502,-53.0
2023-08-12 10:37:36.470192,-45.0
2023-08-12 10:37:36.477881,-38.0
2023-08-12 10:37:36.485571,-36.0
2023-08-12 10:37:36.493261,-36.0
2023-08-12 10:37:36.500951,-28.0
2023-08-12 10:37:36.508641,-16.0
2023-08-12 10:37:36.516330,-12.0
2023-08-12 10:37:36.524020,-12.0
2023-08-12 10:37:36.531710,-7.0
2023-08-12 10:37:36.539400,-2.0
2023-08-12 10:37:36.547089,0.0
2023-08-12 10:37:36.554779,4.0
2023-08-12 10:37:36.562469,-2.0
2023-08-12 10:37:36.570159,-21.0
2023-08-12 10:37:36.577849,-28.0
2023-08-12 10:37:36.585538,-31.0
2023-08-12 10:37:36.593228,-43.0
2023-08-12 10:37:36.600918,-55.0
2023-08-12 10:37:36.608608,-60.0
2023-08-12 10:37:36.616298,-72.0
2023-08-12 10:37:36.623987,-86.0
2023-08-12 10:37:36.631677,-96.0
2023-08-12 10:37:36.639367,-101.0
2023-08-12 10:37:36.647057,-106.0
2023-08-12 10:37:36.654747,-106.0
2023-08-12 10:37:36.662436,-103.0
2023-08-12 10:37:36.670126,-103.0
2023-08-12 10:37:36.677816,-98.0
2023-08-12 10:37:36.685506,-98.0
2023-08-12 10:37:36.693196,-106.0
2023-08-12 10:37:36.700885,-96.0
2023-08-12 10:37:36.708575,-86.0
2023-08-12 10:37:36.716265,-91.0
2023-08-12 10:37:36.723955,-91.0
2023-08-12 10:37:36.731644,-74.0
2023-08-12 10:37:36.739334,-74.0
2023-08-12 10:37:36.747024,-84.0
2023-08-12 10:37:36.754714,-77.0
2023-08-12 10:37:36.762404,-74.0
2023-08-12 10:37:36.770093,-77.0
2023-08-12 10:37:36.777783,-77.0
2023-08-12 10:37:36.785473,-79.0
2023-08-12 10:37:36.793163,-79.0
2023-08-12 10:37:36.800853,-74.0
2023-08-12 10:37:36.808542,-72.0
2023-08-12 10:37:36.816232,-77.0
2023-08-12 10:37:36.823922,-79.0
2023-08-12 10:37:36.831612,-77.0
2023-08-12 10:37:36.839302,-79.0
2023-08-12 10:37:36.846991,-77.0
2023-08-12 10:37:36.854681,-79.0
2023-08-12 10:37:36.862371,-82.0
2023-08-12 10:37:36.870061,-77.0
2023-08-12 10:37:36.877751,-74.0
2023-08-12 10:37:36.885440,-79.0
2023-08-12 10:37:36.893130,-77.0
2023-08-12 10:37:36.900820,-69.0
2023-08-12 10:37:36.908510,-72.0
2023-08-12 10:37:36.916199,-77.0
2023-08-12 10:37:36.923889,-69.0
2023-08-12 10:37:36.931579,-65.0
2023-08-12 10:37:36.939269,-67.0
2023-08-12 10:37:36.946959,-69.0
2023-08-12 10:37:36.954648,-67.0
2023-08-12 10:37:36.962338,-67.0
2023-08-12 10:37:36.970028,-72.0
2023-08-12 10:37:36.977718,-79.0
2023-08-12 10:37:36.985408,-77.0
2023-08-12 10:37:36.993097,-60.0
2023-08-12 10:37:37.000787,-38.0
2023-08-12 10:37:37.008477,-7.0
2023-08-12 10:37:37.016167,9.0
2023-08-12 10:37:37.023857,-7.0
2023-08-12 10:37:37.031546,-24.0
2023-08-12 10:37:37.039236,-31.0
2023-08-12 10:37:37.046926,-45.0
2023-08-12 10:37:37.054616,-60.0
2023-08-12 10:37:37.062306,-67.0
2023-08-12 10:37:37.069995,-69.0
2023-08-12 10:37:37.077685,-65.0
2023-08-12 10:37:37.085375,-62.0
2023-08-12 10:37:37.093065,-67.0
2023-08-12 10:37:37.100754,-62.0
2023-08-12 10:37:37.108444,-55.0
2023-08-12 10:37:37.116134,-67.0
2023-08-12 10:37:37.123824,-79.0
2023-08-12 10:37:37.131514,-28.0
2023-08-12 10:37:37.139203,166.0
2023-08-12 10:37:37.146893,547.0
2023-08-12 10:37:37.154583,692.0
2023-08-12 10:37:37.162273,84.0
2023-08-12 10:37:37.169963,-463.0
2023-08-12 10:37:37.177652,-135.0
2023-08-12 10:37:37.185342,171.0
2023-08-12 10:37:37.193032,-67.0
2023-08-12 10:37:37.200722,-171.0
2023-08-12 10:37:37.208412,-53.0
2023-08-12 10:37:37.216101,-74.0
2023-08-12 10:37:37.223791,-123.0
2023-08-12 10:37:37.231481,-84.0
2023-08-12 10:37:37.239171,-74.0
2023-08-12 10:37:37.246861,-94.0
2023-08-12 10:37:37.254550,-84.0
2023-08-12 10:37:37.262240,-74.0
2023-08-12 10:37:37.269930,-79.0
2023-08-12 10:37:37.277620,-82.0
2023-08-12 10:37:37.285309,-79.0
2023-08-12 10:37:37.292999,-72.0
2023-08-12 10:37:37.300689,-62.0
2023-08-12 10:37:37.308379,-57.0
2023-08-12 10:37:37.316069,-53.0
2023-08-12 10:37:37.323758,-45.0
2023-08-12 10:37:37.331448,-43.0
2023-08-12 10:37:37.339138,-41.0
2023-08-12 10:37:37.346828,-36.0
2023-08-12 10:37:37.354518,-26.0
2023-08-12 10:37:37.362207,-19.0
2023-08-12 10:37:37.369897,-19.0
2023-08-12 10:37:37.377587,-21.0
2023-08-12 10:37:37.385277,-21.0
2023-08-12 10:37:37.392967,-19.0
2023-08-12 10:37:37.400656,-16.0
2023-08-12 10:37:37.408346,-21.0
2023-08-12 10:37:37.416036,-28.0
2023-08-12 10:37:37.423726,-36.0
2023-08-12 10:37:37.431416,-45.0
2023-08-12 10:37:37.439105,-55.0
2023-08-12 10:37:37.446795,-62.0
2023-08-12 10:37:37.454485,-67.0
2023-08-12 10:37:37.462175,-79.0
2023-08-12 10:37:37.469864,-86.0
2023-08-12 10:37:37.477554,-91.0
2023-08-12 10:37:37.485244,-94.0
2023-08-12 10:37:37.492934,-94.0
2023-08-12 10:37:37.500624,-94.0
2023-08-12 10:37:37.508313,-98.0
2023-08-12 10:37:37.516003,-101.0
2023-08-12 10:37:37.523693,-96.0
2023-08-12 10:37:37.531383,-96.0
2023-08-12 10:37:37.539073,-98.0
2023-08-12 10:37:37.546762,-94.0
2023-08-12 10:37:37.554452,-89.0
2023-08-12 10:37:37.562142,-89.0
2023-08-12 10:37:37.569832,-86.0
2023-08-12 10:37:37.577522,-79.0
2023-08-12 10:37:37.585211,-79.0
2023-08-12 10:37:37.592901,-82.0
2023-08-12 10:37:37.600591,-79.0
2023-08-12 10:37:37.608281,-74.0
2023-08-12 10:37:37.615971,-69.0
2023-08-12 10:37:37.623660,-62.0
2023-08-12 10:37:37.631350,-62.0
2023-08-12 10:37:37.639040,-67.0
2023-08-12 10:37:37.646730,-72.0
2023-08-12 10:37:37.654419,-69.0
2023-08-12 10:37:37.662109,-69.0
2023-08-12 10:37:37.669799,-72.0
2023-08-12 10:37:37.677489,-74.0
2023-08-12 10:37:37.685179,-72.0
2023-08-12 10:37:37.692868,-72.0
2023-08-12 10:37:37.700558,-72.0
2023-08-12 10:37:37.708248,-72.0
2023-08-12 10:37:37.715938,-72.0
2023-08-12 10:37:37.723628,-69.0
2023-08-12 10:37:37.731317,-69.0
2023-08-12 10:37:37.739007,-82.0
2023-08-12 10:37:37.746697,-91.0
2023-08-12 10:37:37.754387,-86.0
2023-08-12 10:37:37.762077,-79.0
2023-08-12 10:37:37.769766,-82.0
2023-08-12 10:37:37.777456,-89.0
2023-08-12 10:37:37.785146,-94.0
2023-08-12 10:37:37.792836,-96.0
2023-08-12 10:37:37.800526,-91.0
2023-08-12 10:37:37.808215,-82.0
2023-08-12 10:37:37.815905,-65.0
2023-08-12 10:37:37.823595,-36.0
2023-08-12 10:37:37.831285,-4.0
2023-08-12 10:37:37.838974,-9.0
2023-08-12 10:37:37.846664,-28.0
2023-08-12 10:37:37.854354,-41.0
2023-08-12 10:37:37.862044,-55.0
2023-08-12 10:37:37.869734,-69.0
2023-08-12 10:37:37.877423,-74.0
2023-08-12 10:37:37.885113,-74.0
2023-08-12 10:37:37.892803,-74.0
2023-08-12 10:37:37.900493,-74.0
2023-08-12 10:37:37.908183,-69.0
2023-08-12 10:37:37.915872,-69.0
2023-08-12 10:37:37.923562,-72.0
2023-08-12 10:37:37.931252,-74.0
2023-08-12 10:37:37.938942,-82.0
2023-08-12 10:37:37.946632,-65.0
2023-08-12 10:37:37.954321,57.0
2023-08-12 10:37:37.962011,378.0
2023-08-12 10:37:37.969701,706.0
2023-08-12 10:37:37.977391,393.0
2023-08-12 10:37:37.985080,-318.0
2023-08-12 10:37:37.992770,-291.0
2023-08-12 10:37:38.000460,139.0
2023-08-12 10:37:38.008150,28.0
2023-08-12 10:37:38.015840,-180.0
2023-08-12 10:37:38.023529,-86.0
2023-08-12 10:37:38.031219,-53.0
2023-08-12 10:37:38.038909,-120.0
2023-08-12 10:37:38.046599,-98.0
2023-08-12 10:37:38.054289,-69.0
2023-08-12 10:37:38.061978,-89.0
2023-08-12 10:37:38.069668,-86.0
2023-08-12 10:37:38.077358,-69.0
2023-08-12 10:37:38.085048,-72.0
2023-08-12 10:37:38.092738,-72.0
2023-08-12 10:37:38.100427,-62.0
2023-08-12 10:37:38.108117,-57.0
2023-08-12 10:37:38.115807,-53.0
2023-08-12 10:37:38.123497,-48.0
2023-08-12 10:37:38.131187,-45.0
2023-08-12 10:37:38.138876,-41.0
2023-08-12 10:37:38.146566,-36.0
2023-08-12 10:37:38.154256,-31.0
2023-08-12 10:37:38.161946,-26.0
2023-08-12 10:37:38.169635,-21.0
2023-08-12 10:37:38.177325,-16.0
2023-08-12 10:37:38.185015,-14.0
2023-08-12 10:37:38.192705,-9.0
2023-08-12 10:37:38.200395,-7.0
2023-08-12 10:37:38.208084,-9.0
2023-08-12 10:37:38.215774,-12.0
2023-08-12 10:37:38.223464,-16.0
2023-08-12 10:37:38.231154,-21.0
2023-08-12 10:37:38.238844,-26.0
2023-08-12 10:37:38.246533,-36.0
2023-08-12 10:37:38.254223,-53.0
2023-08-12 10:37:38.261913,-62.0
2023-08-12 10:37:38.269603,-67.0
2023-08-12 10:37:38.277293,-77.0
2023-08-12 10:37:38.284982,-89.0
2023-08-12 10:37:38.292672,-94.0
2023-08-12 10:37:38.300362,-94.0
2023-08-12 10:37:38.308052,-94.0
2023-08-12 10:37:38.315742,-98.0
2023-08-12 10:37:38.323431,-106.0
2023-08-12 10:37:38.331121,-108.0
2023-08-12 10:37:38.338811,-101.0
2023-08-12 10:37:38.346501,-103.0
2023-08-12 10:37:38.354190,-106.0
2023-08-12 10:37:38.361880,-101.0
2023-08-12 10:37:38.369570,-96.0
2023-08-12 10:37:38.377260,-96.0
2023-08-12 10:37:38.384950,-89.0
2023-08-12 10:37:38.392639,-86.0
2023-08-12 10:37:38.400329,-86.0
2023-08-12 10:37:38.408019,-86.0
2023-08-12 10:37:38.415709,-84.0
2023-08-12 10:37:38.423399,-77.0
2023-08-12 10:37:38.431088,-72.0
2023-08-12 10:37:38.438778,-72.0
2023-08-12 10:37:38.446468,-74.0
2023-08-12 10:37:38.454158,-72.0
2023-08-12 10:37:38.461848,-67.0
2023-08-12 10:37:38.469537,-67.0
2023-08-12 10:37:38.477227,-69.0
2023-08-12 10:37:38.484917,-69.0
2023-08-12 10:37:38.492607,-72.0
2023-08-12 10:37:38.500297,-74.0
2023-08-12 10:37:38.507986,-72.0
2023-08-12 10:37:38.515676,-74.0
2023-08-12 10:37:38.523366,-77.0
2023-08-12 10:37:38.531056,-74.0
2023-08-12 10:37:38.538745,-74.0
2023-08-12 10:37:38.546435,-74.0
2023-08-12 10:37:38.554125,-74.0
2023-08-12 10:37:38.561815,-74.0
2023-08-12 10:37:38.569505,-74.0
2023-08-12 10:37:38.577194,-74.0
2023-08-12 10:37:38.584884,-72.0
2023-08-12 10:37:38.592574,-74.0
2023-08-12 10:37:38.600264,-72.0
2023-08-12 10:37:38.607954,-69.0
2023-08-12 10:37:38.615643,-67.0
2023-08-12 10:37:38.623333,-69.0
2023-08-12 10:37:38.631023,-72.0
2023-08-12 10:37:38.638713,-77.0
2023-08-12 10:37:38.646403,-72.0
2023-08-12 10:37:38.654092,-65.0
2023-08-12 10:37:38.661782,-57.0
2023-08-12 10:37:38.669472,-38.0
2023-08-12 10:37:38.677162,-4.0
2023-08-12 10:37:38.684852,4.0
2023-08-12 10:37:38.692541,-14.0
2023-08-12 10:37:38.700231,-28.0
2023-08-12 10:37:38.707921,-38.0
2023-08-12 10:37:38.715611,-55.0
2023-08-12 10:37:38.723300,-65.0
2023-08-12 10:37:38.730990,-72.0
2023-08-12 10:37:38.738680,-77.0
2023-08-12 10:37:38.746370,-72.0
2023-08-12 10:37:38.754060,-67.0
2023-08-12 10:37:38.761749,-69.0
2023-08-12 10:37:38.769439,-72.0
2023-08-12 10:37:38.777129,-72.0
2023-08-12 10:37:38.784819,-82.0
2023-08-12 10:37:38.792509,-94.0
2023-08-12 10:37:38.800198,-43.0
2023-08-12 10:37:38.807888,164.0
2023-08-12 10:37:38.815578,547.0
2023-08-12 10:37:38.823268,644.0
2023-08-12 10:37:38.830958,28.0
2023-08-12 10:37:38.838647,-415.0
2023-08-12 10:37:38.846337,-69.0
2023-08-12 10:37:38.854027,123.0
2023-08-12 10:37:38.861717,-130.0
2023-08-12 10:37:38.869407,-183.0
2023-08-12 10:37:38.877096,-74.0
2023-08-12 10:37:38.884786,-108.0
2023-08-12 10:37:38.892476,-142.0
2023-08-12 10:37:38.900166,-103.0
2023-08-12 10:37:38.907855,-106.0
2023-08-12 10:37:38.915545,-123.0
2023-08-12 10:37:38.923235,-106.0
2023-08-12 10:37:38.930925,-94.0
2023-08-12 10:37:38.938615,-98.0
2023-08-12 10:37:38.946304,-91.0
2023-08-12 10:37:38.953994,-84.0
2023-08-12 10:37:38.961684,-82.0
2023-08-12 10:37:38.969374,-74.0
2023-08-12 10:37:38.977064,-69.0
2023-08-12 10:37:38.984753,-69.0
2023-08-12 10:37:38.992443,-69.0
2023-08-12 10:37:39.000133,-60.0
2023-08-12 10:37:39.007823,-50.0
2023-08-12 10:37:39.015513,-48.0
2023-08-12 10:37:39.023202,-43.0
2023-08-12 10:37:39.030892,-38.0
2023-08-12 10:37:39.038582,-38.0
2023-08-12 10:37:39.046272,-36.0
2023-08-12 10:37:39.053962,-31.0
2023-08-12 10:37:39.061651,-26.0
2023-08-12 10:37:39.069341,-31.0
2023-08-12 10:37:39.077031,-38.0
2023-08-12 10:37:39.084721,-43.0
2023-08-12 10:37:39.092410,-48.0
2023-08-12 10:37:39.100100,-55.0
2023-08-12 10:37:39.107790,-65.0
2023-08-12 10:37:39.115480,-72.0
2023-08-12 10:37:39.123170,-74.0
2023-08-12 10:37:39.130859,-82.0
2023-08-12 10:37:39.138549,-89.0
2023-08-12 10:37:39.146239,-89.0
2023-08-12 10:37:39.153929,-91.0
2023-08-12 10:37:39.161619,-91.0
2023-08-12 10:37:39.169308,-91.0
2023-08-12 10:37:39.176998,-89.0
2023-08-12 10:37:39.184688,-89.0
2023-08-12 10:37:39.192378,-89.0
2023-08-12 10:37:39.200068,-86.0
2023-08-12 10:37:39.207757,-84.0
2023-08-12 10:37:39.215447,-82.0
2023-08-12 10:37:39.223137,-82.0
2023-08-12 10:37:39.230827,-84.0
2023-08-12 10:37:39.238517,-84.0
2023-08-12 10:37:39.246206,-79.0
2023-08-12 10:37:39.253896,-74.0
2023-08-12 10:37:39.261586,-72.0
2023-08-12 10:37:39.269276,-74.0
2023-08-12 10:37:39.276965,-72.0
2023-08-12 10:37:39.284655,-69.0
2023-08-12 10:37:39.292345,-72.0
2023-08-12 10:37:39.300035,-72.0
2023-08-12 10:37:39.307725,-69.0
2023-08-12 10:37:39.315414,-72.0
2023-08-12 10:37:39.323104,-74.0
2023-08-12 10:37:39.330794,-72.0
2023-08-12 10:37:39.338484,-69.0
2023-08-12 10:37:39.346174,-69.0
2023-08-12 10:37:39.353863,-74.0
2023-08-12 10:37:39.361553,-82.0
2023-08-12 10:37:39.369243,-82.0
2023-08-12 10:37:39.376933,-77.0
2023-08-12 10:37:39.384623,-74.0
2023-08-12 10:37:39.392312,-77.0
2023-08-12 10:37:39.400002,-77.0
2023-08-12 10:37:39.407692,-79.0
2023-08-12 10:37:39.415382,-79.0
2023-08-12 10:37:39.423072,-79.0
2023-08-12 10:37:39.430761,-77.0
2023-08-12 10:37:39.438451,-77.0
2023-08-12 10:37:39.446141,-79.0
2023-08-12 10:37:39.453831,-82.0
2023-08-12 10:37:39.461520,-77.0
2023-08-12 10:37:39.469210,-74.0
2023-08-12 10:37:39.476900,-77.0
2023-08-12 10:37:39.484590,-79.0
2023-08-12 10:37:39.492280,-79.0
2023-08-12 10:37:39.499969,-77.0
2023-08-12 10:37:39.507659,-77.0
2023-08-12 10:37:39.515349,-77.0
2023-08-12 10:37:39.523039,-77.0
2023-08-12 10:37:39.530729,-74.0
2023-08-12 10:37:39.538418,-69.0
2023-08-12 10:37:39.546108,-65.0
2023-08-12 10:37:39.553798,-41.0
2023-08-12 10:37:39.561488,-4.0
2023-08-12 10:37:39.569178,0.0
2023-08-12 10:37:39.576867,-24.0
2023-08-12 10:37:39.584557,-41.0
2023-08-12 10:37:39.592247,-48.0
2023-08-12 10:37:39.599937,-60.0
2023-08-12 10:37:39.607627,-69.0
2023-08-12 10:37:39.615316,-74.0
2023-08-12 10:37:39.623006,-74.0
2023-08-12 10:37:39.630696,-72.0
2023-08-12 10:37:39.638386,-69.0
2023-08-12 10:37:39.646075,-72.0
2023-08-12 10:37:39.653765,-72.0
2023-08-12 10:37:39.661455,-67.0
2023-08-12 10:37:39.669145,-72.0
2023-08-12 10:37:39.676835,-89.0
2023-08-12 10:37:39.684524,-53.0
2023-08-12 10:37:39.692214,135.0
2023-08-12 10:37:39.699904,521.0
2023-08-12 10:37:39.707594,706.0
2023-08-12 10:37:39.715284,183.0
2023-08-12 10:37:39.722973,-340.0
2023-08-12 10:37:39.730663,-103.0
2023-08-12 10:37:39.738353,127.0
2023-08-12 10:37:39.746043,-89.0
2023-08-12 10:37:39.753733,-168.0
2023-08-12 10:37:39.761422,-65.0
2023-08-12 10:37:39.769112,-89.0
2023-08-12 10:37:39.776802,-130.0
2023-08-12 10:37:39.784492,-94.0
2023-08-12 10:37:39.792182,-86.0
2023-08-12 10:37:39.799871,-106.0
2023-08-12 10:37:39.807561,-94.0
2023-08-12 10:37:39.815251,-84.0
2023-08-12 10:37:39.822941,-86.0
2023-08-12 10:37:39.830630,-79.0
2023-08-12 10:37:39.838320,-69.0
2023-08-12 10:37:39.846010,-67.0
2023-08-12 10:37:39.853700,-67.0
2023-08-12 10:37:39.861390,-60.0
2023-08-12 10:37:39.869079,-55.0
2023-08-12 10:37:39.876769,-50.0
2023-08-12 10:37:39.884459,-45.0
2023-08-12 10:37:39.892149,-41.0
2023-08-12 10:37:39.899839,-38.0
2023-08-12 10:37:39.907528,-38.0
2023-08-12 10:37:39.915218,-33.0
2023-08-12 10:37:39.922908,-28.0
2023-08-12 10:37:39.930598,-26.0
2023-08-12 10:37:39.938288,-26.0
2023-08-12 10:37:39.945977,-28.0
2023-08-12 10:37:39.953667,-31.0
2023-08-12 10:37:39.961357,-36.0
2023-08-12 10:37:39.969047,-43.0
2023-08-12 10:37:39.976737,-53.0
2023-08-12 10:37:39.984426,-60.0
2023-08-12 10:37:39.992116,-72.0
2023-08-12 10:37:39.999806,-82.0
2023-08-12 10:37:40.007496,-82.0
2023-08-12 10:37:40.015185,-89.0
2023-08-12 10:37:40.022875,-94.0
2023-08-12 10:37:40.030565,-101.0
2023-08-12 10:37:40.038255,-110.0
2023-08-12 10:37:40.045945,-110.0
2023-08-12 10:37:40.053634,-108.0
2023-08-12 10:37:40.061324,-106.0
2023-08-12 10:37:40.069014,-103.0
2023-08-12 10:37:40.076704,-103.0
2023-08-12 10:37:40.084394,-101.0
2023-08-12 10:37:40.092083,-101.0
2023-08-12 10:37:40.099773,-98.0
2023-08-12 10:37:40.107463,-94.0
2023-08-12 10:37:40.115153,-91.0
2023-08-12 10:37:40.122843,-91.0
2023-08-12 10:37:40.130532,-89.0
2023-08-12 10:37:40.138222,-84.0
2023-08-12 10:37:40.145912,-82.0
2023-08-12 10:37:40.153602,-79.0
2023-08-12 10:37:40.161292,-74.0
2023-08-12 10:37:40.168981,-69.0
2023-08-12 10:37:40.176671,-72.0
2023-08-12 10:37:40.184361,-74.0
2023-08-12 10:37:40.192051,-72.0
2023-08-12 10:37:40.199740,-69.0
2023-08-12 10:37:40.207430,-67.0
2023-08-12 10:37:40.215120,-69.0
2023-08-12 10:37:40.222810,-69.0
2023-08-12 10:37:40.230500,-67.0
2023-08-12 10:37:40.238189,-69.0
2023-08-12 10:37:40.245879,-67.0
2023-08-12 10:37:40.253569,-67.0
2023-08-12 10:37:40.261259,-72.0
2023-08-12 10:37:40.268949,-72.0
2023-08-12 10:37:40.276638,-67.0
2023-08-12 10:37:40.284328,-72.0
2023-08-12 10:37:40.292018,-72.0
2023-08-12 10:37:40.299708,-74.0
2023-08-12 10:37:40.307398,-79.0
2023-08-12 10:37:40.315087,-79.0
2023-08-12 10:37:40.322777,-77.0
2023-08-12 10:37:40.330467,-74.0
2023-08-12 10:37:40.338157,-74.0
2023-08-12 10:37:40.345847,-74.0
2023-08-12 10:37:40.353536,-74.0
2023-08-12 10:37:40.361226,-72.0
2023-08-12 10:37:40.368916,-72.0
2023-08-12 10:37:40.376606,-72.0
2023-08-12 10:37:40.384295,-69.0
2023-08-12 10:37:40.391985,-67.0
2023-08-12 10:37:40.399675,-67.0
2023-08-12 10:37:40.407365,-67.0
2023-08-12 10:37:40.415055,-65.0
2023-08-12 10:37:40.422744,-65.0
2023-08-12 10:37:40.430434,-65.0
2023-08-12 10:37:40.438124,-62.0
2023-08-12 10:37:40.445814,-57.0
2023-08-12 10:37:40.453504,-55.0
2023-08-12 10:37:40.461193,-55.0
2023-08-12 10:37:40.468883,-38.0
2023-08-12 10:37:40.476573,-2.0
2023-08-12 10:37:40.484263,4.0
2023-08-12 10:37:40.491953,-21.0
2023-08-12 10:37:40.499642,-33.0
2023-08-12 10:37:40.507332,-36.0
2023-08-12 10:37:40.515022,-53.0
2023-08-12 10:37:40.522712,-72.0
2023-08-12 10:37:40.530401,-84.0
2023-08-12 10:37:40.538091,-84.0
2023-08-12 10:37:40.545781,-79.0
2023-08-12 10:37:40.553471,-77.0
2023-08-12 10:37:40.561161,-77.0
2023-08-12 10:37:40.568850,-79.0
2023-08-12 10:37:40.576540,-84.0
2023-08-12 10:37:40.584230,-91.0
2023-08-12 10:37:40.591920,-101.0
2023-08-12 10:37:40.599610,-77.0
2023-08-12 10:37:40.607299,86.0
2023-08-12 10:37:40.614989,456.0
2023-08-12 10:37:40.622679,687.0
2023-08-12 10:37:40.630369,236.0
2023-08-12 10:37:40.638059,-318.0
2023-08-12 10:37:40.645748,-149.0
2023-08-12 10:37:40.653438,98.0
2023-08-12 10:37:40.661128,-96.0
2023-08-12 10:37:40.668818,-202.0
2023-08-12 10:37:40.676508,-98.0
2023-08-12 10:37:40.684197,-108.0
2023-08-12 10:37:40.691887,-152.0
2023-08-12 10:37:40.699577,-115.0
2023-08-12 10:37:40.707267,-103.0
2023-08-12 10:37:40.714956,-118.0
2023-08-12 10:37:40.722646,-106.0
2023-08-12 10:37:40.730336,-91.0
2023-08-12 10:37:40.738026,-94.0
2023-08-12 10:37:40.745716,-91.0
2023-08-12 10:37:40.753405,-84.0
2023-08-12 10:37:40.761095,-79.0
2023-08-12 10:37:40.768785,-74.0
2023-08-12 10:37:40.776475,-67.0
2023-08-12 10:37:40.784165,-60.0
2023-08-12 10:37:40.791854,-57.0
2023-08-12 10:37:40.799544,-57.0
2023-08-12 10:37:40.807234,-57.0
2023-08-12 10:37:40.814924,-55.0
2023-08-12 10:37:40.822614,-50.0
2023-08-12 10:37:40.830303,-43.0
2023-08-12 10:37:40.837993,-43.0
2023-08-12 10:37:40.845683,-45.0
2023-08-12 10:37:40.853373,-41.0
2023-08-12 10:37:40.861063,-36.0
2023-08-12 10:37:40.868752,-38.0
2023-08-12 10:37:40.876442,-43.0
2023-08-12 10:37:40.884132,-48.0
2023-08-12 10:37:40.891822,-55.0
2023-08-12 10:37:40.899511,-60.0
2023-08-12 10:37:40.907201,-62.0
2023-08-12 10:37:40.914891,-67.0
2023-08-12 10:37:40.922581,-74.0
2023-08-12 10:37:40.930271,-82.0
2023-08-12 10:37:40.937960,-89.0
2023-08-12 10:37:40.945650,-91.0
2023-08-12 10:37:40.953340,-96.0
2023-08-12 10:37:40.961030,-96.0
2023-08-12 10:37:40.968720,-96.0
2023-08-12 10:37:40.976409,-96.0
2023-08-12 10:37:40.984099,-96.0
2023-08-12 10:37:40.991789,-91.0
2023-08-12 10:37:40.999479,-89.0
2023-08-12 10:37:41.007169,-89.0
2023-08-12 10:37:41.014858,-91.0
2023-08-12 10:37:41.022548,-94.0
2023-08-12 10:37:41.030238,-91.0
2023-08-12 10:37:41.037928,-86.0
2023-08-12 10:37:41.045618,-84.0
2023-08-12 10:37:41.053307,-82.0
2023-08-12 10:37:41.060997,-82.0
2023-08-12 10:37:41.068687,-91.0
2023-08-12 10:37:41.076377,-94.0
2023-08-12 10:37:41.084066,-86.0
2023-08-12 10:37:41.091756,-79.0
2023-08-12 10:37:41.099446,-79.0
2023-08-12 10:37:41.107136,-84.0
2023-08-12 10:37:41.114826,-94.0
2023-08-12 10:37:41.122515,-96.0
2023-08-12 10:37:41.130205,-89.0
2023-08-12 10:37:41.137895,-86.0
2023-08-12 10:37:41.145585,-89.0
2023-08-12 10:37:41.153275,-89.0
2023-08-12 10:37:41.160964,-89.0
2023-08-12 10:37:41.168654,-89.0
2023-08-12 10:37:41.176344,-84.0
2023-08-12 10:37:41.184034,-82.0
2023-08-12 10:37:41.191724,-82.0
2023-08-12 10:37:41.199413,-82.0
2023-08-12 10:37:41.207103,-84.0
2023-08-12 10:37:41.214793,-82.0
2023-08-12 10:37:41.222483,-77.0
2023-08-12 10:37:41.230173,-77.0
2023-08-12 10:37:41.237862,-77.0
2023-08-12 10:37:41.245552,-72.0
2023-08-12 10:37:41.253242,-74.0
2023-08-12 10:37:41.260932,-72.0
2023-08-12 10:37:41.268621,-67.0
2023-08-12 10:37:41.276311,-65.0
2023-08-12 10:37:41.284001,-69.0
2023-08-12 10:37:41.291691,-69.0
2023-08-12 10:37:41.299381,-67.0
2023-08-12 10:37:41.307070,-67.0
2023-08-12 10:37:41.314760,-72.0
2023-08-12 10:37:41.322450,-74.0
2023-08-12 10:37:41.330140,-67.0
2023-08-12 10:37:41.337830,-67.0
2023-08-12 10:37:41.345519,-67.0
2023-08-12 10:37:41.353209,-62.0
2023-08-12 10:37:41.360899,-62.0
2023-08-12 10:37:41.368589,-62.0
2023-08-12 10:37:41.376279,-60.0
2023-08-12 10:37:41.383968,-53.0
2023-08-12 10:37:41.391658,-48.0
2023-08-12 10:37:41.399348,-24.0
2023-08-12 10:37:41.407038,12.0
2023-08-12 10:37:41.414728,14.0
2023-08-12 10:37:41.422417,-12.0
2023-08-12 10:37:41.430107,-28.0
2023-08-12 10:37:41.437797,-36.0
2023-08-12 10:37:41.445487,-50.0
2023-08-12 10:37:41.453176,-65.0
2023-08-12 10:37:41.460866,-65.0
2023-08-12 10:37:41.468556,-62.0
2023-08-12 10:37:41.476246,-65.0
2023-08-12 10:37:41.483936,-67.0
2023-08-12 10:37:41.491625,-67.0
2023-08-12 10:37:41.499315,-65.0
2023-08-12 10:37:41.507005,-60.0
2023-08-12 10:37:41.514695,-67.0
2023-08-12 10:37:41.522385,-77.0
2023-08-12 10:37:41.530074,-24.0
2023-08-12 10:37:41.537764,193.0
2023-08-12 10:37:41.545454,581.0
2023-08-12 10:37:41.553144,651.0
2023-08-12 10:37:41.560834,26.0
2023-08-12 10:37:41.568523,-388.0
2023-08-12 10:37:41.576213,-36.0
2023-08-12 10:37:41.583903,135.0
2023-08-12 10:37:41.591593,-110.0
2023-08-12 10:37:41.599283,-142.0
2023-08-12 10:37:41.606972,-43.0
2023-08-12 10:37:41.614662,-89.0
2023-08-12 10:37:41.622352,-118.0
2023-08-12 10:37:41.630042,-77.0
2023-08-12 10:37:41.637731,-74.0
2023-08-12 10:37:41.645421,-84.0
2023-08-12 10:37:41.653111,-77.0
2023-08-12 10:37:41.660801,-79.0
2023-08-12 10:37:41.668491,-79.0
2023-08-12 10:37:41.676180,-65.0
2023-08-12 10:37:41.683870,-62.0
2023-08-12 10:37:41.691560,-67.0
2023-08-12 10:37:41.699250,-65.0
2023-08-12 10:37:41.706940,-57.0
2023-08-12 10:37:41.714629,-53.0
2023-08-12 10:37:41.722319,-48.0
2023-08-12 10:37:41.730009,-36.0
2023-08-12 10:37:41.737699,-31.0
2023-08-12 10:37:41.745389,-33.0
2023-08-12 10:37:41.753078,-31.0
2023-08-12 10:37:41.760768,-26.0
2023-08-12 10:37:41.768458,-21.0
2023-08-12 10:37:41.776148,-14.0
2023-08-12 10:37:41.783838,-16.0
2023-08-12 10:37:41.791527,-19.0
2023-08-12 10:37:41.799217,-16.0
2023-08-12 10:37:41.806907,-24.0
2023-08-12 10:37:41.814597,-38.0
2023-08-12 10:37:41.822286,-45.0
2023-08-12 10:37:41.829976,-55.0
2023-08-12 10:37:41.837666,-69.0
2023-08-12 10:37:41.845356,-74.0
2023-08-12 10:37:41.853046,-79.0
2023-08-12 10:37:41.860735,-89.0
2023-08-12 10:37:41.868425,-98.0
2023-08-12 10:37:41.876115,-98.0
2023-08-12 10:37:41.883805,-98.0
2023-08-12 10:37:41.891495,-106.0
2023-08-12 10:37:41.899184,-108.0
2023-08-12 10:37:41.906874,-101.0
2023-08-12 10:37:41.914564,-98.0
2023-08-12 10:37:41.922254,-108.0
2023-08-12 10:37:41.929944,-108.0
2023-08-12 10:37:41.937633,-106.0
2023-08-12 10:37:41.945323,-113.0
2023-08-12 10:37:41.953013,-110.0
2023-08-12 10:37:41.960703,-101.0
2023-08-12 10:37:41.968393,-101.0
2023-08-12 10:37:41.976082,-106.0
2023-08-12 10:37:41.983772,-94.0
2023-08-12 10:37:41.991462,-89.0
2023-08-12 10:37:41.999152,-91.0
2023-08-12 10:37:42.006841,-84.0
2023-08-12 10:37:42.014531,-82.0
2023-08-12 10:37:42.022221,-86.0
2023-08-12 10:37:42.029911,-86.0
2023-08-12 10:37:42.037601,-82.0
2023-08-12 10:37:42.045290,-74.0
2023-08-12 10:37:42.052980,-77.0
2023-08-12 10:37:42.060670,-77.0
2023-08-12 10:37:42.068360,-69.0
2023-08-12 10:37:42.076050,-69.0
2023-08-12 10:37:42.083739,-74.0
2023-08-12 10:37:42.091429,-69.0
2023-08-12 10:37:42.099119,-67.0
2023-08-12 10:37:42.106809,-69.0
2023-08-12 10:37:42.114499,-69.0
2023-08-12 10:37:42.122188,-74.0
2023-08-12 10:37:42.129878,-72.0
2023-08-12 10:37:42.137568,-62.0
2023-08-12 10:37:42.145258,-60.0
2023-08-12 10:37:42.152948,-65.0
2023-08-12 10:37:42.160637,-60.0
2023-08-12 10:37:42.168327,-53.0
2023-08-12 10:37:42.176017,-62.0
2023-08-12 10:37:42.183707,-72.0
2023-08-12 10:37:42.191396,-72.0
2023-08-12 10:37:42.199086,-72.0
2023-08-12 10:37:42.206776,-74.0
2023-08-12 10:37:42.214466,-72.0
2023-08-12 10:37:42.222156,-72.0
2023-08-12 10:37:42.229845,-74.0
2023-08-12 10:37:42.237535,-77.0
2023-08-12 10:37:42.245225,-79.0
2023-08-12 10:37:42.252915,-77.0
2023-08-12 10:37:42.260605,-69.0
2023-08-12 10:37:42.268294,-41.0
2023-08-12 10:37:42.275984,-2.0
2023-08-12 10:37:42.283674,-2.0
2023-08-12 10:37:42.291364,-28.0
2023-08-12 10:37:42.299054,-36.0
2023-08-12 10:37:42.306743,-41.0
2023-08-12 10:37:42.314433,-62.0
2023-08-12 10:37:42.322123,-72.0
2023-08-12 10:37:42.329813,-72.0
2023-08-12 10:37:42.337503,-79.0
2023-08-12 10:37:42.345192,-77.0
2023-08-12 10:37:42.352882,-69.0
2023-08-12 10:37:42.360572,-67.0
2023-08-12 10:37:42.368262,-69.0
2023-08-12 10:37:42.375951,-69.0
2023-08-12 10:37:42.383641,-74.0
2023-08-12 10:37:42.391331,-65.0
2023-08-12 10:37:42.399021,31.0
2023-08-12 10:37:42.406711,308.0
2023-08-12 10:37:42.414400,665.0
2023-08-12 10:37:42.422090,487.0
2023-08-12 10:37:42.429780,-260.0
2023-08-12 10:37:42.437470,-415.0
2023-08-12 10:37:42.445160,72.0
2023-08-12 10:37:42.452849,103.0
2023-08-12 10:37:42.460539,-159.0
2023-08-12 10:37:42.468229,-115.0
2023-08-12 10:37:42.475919,-41.0
2023-08-12 10:37:42.483609,-110.0
2023-08-12 10:37:42.491298,-110.0
2023-08-12 10:37:42.498988,-67.0
2023-08-12 10:37:42.506678,-82.0
2023-08-12 10:37:42.514368,-91.0
2023-08-12 10:37:42.522058,-72.0
2023-08-12 10:37:42.529747,-65.0
2023-08-12 10:37:42.537437,-67.0
2023-08-12 10:37:42.545127,-65.0
2023-08-12 10:37:42.552817,-53.0
2023-08-12 10:37:42.560506,-48.0
2023-08-12 10:37:42.568196,-43.0
2023-08-12 10:37:42.575886,-36.0
2023-08-12 10:37:42.583576,-31.0
2023-08-12 10:37:42.591266,-33.0
2023-08-12 10:37:42.598955,-28.0
2023-08-12 10:37:42.606645,-19.0
2023-08-12 10:37:42.614335,-16.0
2023-08-12 10:37:42.622025,-14.0
2023-08-12 10:37:42.629715,-7.0
2023-08-12 10:37:42.637404,-7.0
2023-08-12 10:37:42.645094,-2.0
2023-08-12 10:37:42.652784,2.0
2023-08-12 10:37:42.660474,0.0
2023-08-12 10:37:42.668164,-7.0
2023-08-12 10:37:42.675853,-16.0
2023-08-12 10:37:42.683543,-28.0
2023-08-12 10:37:42.691233,-38.0
2023-08-12 10:37:42.698923,-48.0
2023-08-12 10:37:42.706613,-57.0
2023-08-12 10:37:42.714302,-65.0
2023-08-12 10:37:42.721992,-74.0
2023-08-12 10:37:42.729682,-89.0
2023-08-12 10:37:42.737372,-106.0
2023-08-12 10:37:42.745061,-110.0
2023-08-12 10:37:42.752751,-106.0
2023-08-12 10:37:42.760441,-108.0
2023-08-12 10:37:42.768131,-118.0
2023-08-12 10:37:42.775821,-123.0
2023-08-12 10:37:42.783510,-127.0
2023-08-12 10:37:42.791200,-132.0
2023-08-12 10:37:42.798890,-123.0
2023-08-12 10:37:42.806580,-115.0
2023-08-12 10:37:42.814270,-118.0
2023-08-12 10:37:42.821959,-125.0
2023-08-12 10:37:42.829649,-123.0
2023-08-12 10:37:42.837339,-113.0
2023-08-12 10:37:42.845029,-123.0
2023-08-12 10:37:42.852719,-127.0
2023-08-12 10:37:42.860408,-118.0
2023-08-12 10:37:42.868098,-118.0
2023-08-12 10:37:42.875788,-123.0
2023-08-12 10:37:42.883478,-113.0
2023-08-12 10:37:42.891168,-106.0
2023-08-12 10:37:42.898857,-106.0
2023-08-12 10:37:42.906547,-110.0
2023-08-12 10:37:42.914237,-115.0
2023-08-12 10:37:42.921927,-120.0
2023-08-12 10:37:42.929616,-115.0
2023-08-12 10:37:42.937306,-106.0
2023-08-12 10:37:42.944996,-106.0
2023-08-12 10:37:42.952686,-113.0
2023-08-12 10:37:42.960376,-118.0
2023-08-12 10:37:42.968065,-113.0
2023-08-12 10:37:42.975755,-103.0
2023-08-12 10:37:42.983445,-106.0
2023-08-12 10:37:42.991135,-106.0
2023-08-12 10:37:42.998825,-106.0
2023-08-12 10:37:43.006514,-120.0
2023-08-12 10:37:43.014204,-120.0
2023-08-12 10:37:43.021894,-101.0
2023-08-12 10:37:43.029584,-96.0
2023-08-12 10:37:43.037274,-101.0
2023-08-12 10:37:43.044963,-101.0
2023-08-12 10:37:43.052653,-96.0
2023-08-12 10:37:43.060343,-89.0
2023-08-12 10:37:43.068033,-89.0
2023-08-12 10:37:43.075722,-94.0
2023-08-12 10:37:43.083412,-94.0
2023-08-12 10:37:43.091102,-91.0
2023-08-12 10:37:43.098792,-82.0
2023-08-12 10:37:43.106482,-57.0
2023-08-12 10:37:43.114171,-16.0
2023-08-12 10:37:43.121861,2.0
2023-08-12 10:37:43.129551,-12.0
2023-08-12 10:37:43.137241,-33.0
2023-08-12 10:37:43.144931,-43.0
2023-08-12 10:37:43.152620,-53.0
2023-08-12 10:37:43.160310,-62.0
2023-08-12 10:37:43.168000,-74.0
2023-08-12 10:37:43.175690,-74.0
2023-08-12 10:37:43.183380,-69.0
2023-08-12 10:37:43.191069,-72.0
2023-08-12 10:37:43.198759,-69.0
2023-08-12 10:37:43.206449,-65.0
2023-08-12 10:37:43.214139,-62.0
2023-08-12 10:37:43.221829,-72.0
2023-08-12 10:37:43.229518,-82.0
2023-08-12 10:37:43.237208,-33.0
2023-08-12 10:37:43.244898,161.0
2023-08-12 10:37:43.252588,550.0
2023-08-12 10:37:43.260277,697.0
2023-08-12 10:37:43.267967,94.0
2023-08-12 10:37:43.275657,-434.0
2023-08-12 10:37:43.283347,-96.0
2023-08-12 10:37:43.291037,180.0
2023-08-12 10:37:43.298726,-69.0
2023-08-12 10:37:43.306416,-159.0
2023-08-12 10:37:43.314106,-43.0
2023-08-12 10:37:43.321796,-69.0
2023-08-12 10:37:43.329486,-113.0
2023-08-12 10:37:43.337175,-77.0
2023-08-12 10:37:43.344865,-77.0
2023-08-12 10:37:43.352555,-98.0
2023-08-12 10:37:43.360245,-89.0
2023-08-12 10:37:43.367935,-82.0
2023-08-12 10:37:43.375624,-89.0
2023-08-12 10:37:43.383314,-82.0
2023-08-12 10:37:43.391004,-67.0
2023-08-12 10:37:43.398694,-65.0
2023-08-12 10:37:43.406384,-72.0
2023-08-12 10:37:43.414073,-72.0
2023-08-12 10:37:43.421763,-67.0
2023-08-12 10:37:43.429453,-65.0
2023-08-12 10:37:43.437143,-60.0
2023-08-12 10:37:43.444832,-50.0
2023-08-12 10:37:43.452522,-48.0
2023-08-12 10:37:43.460212,-43.0
2023-08-12 10:37:43.467902,-38.0
2023-08-12 10:37:43.475592,-36.0
2023-08-12 10:37:43.483281,-28.0
2023-08-12 10:37:43.490971,-24.0
2023-08-12 10:37:43.498661,-24.0
2023-08-12 10:37:43.506351,-31.0
2023-08-12 10:37:43.514041,-36.0
2023-08-12 10:37:43.521730,-41.0
2023-08-12 10:37:43.529420,-43.0
2023-08-12 10:37:43.537110,-48.0
2023-08-12 10:37:43.544800,-57.0
2023-08-12 10:37:43.552490,-62.0
2023-08-12 10:37:43.560179,-67.0
2023-08-12 10:37:43.567869,-82.0
2023-08-12 10:37:43.575559,-94.0
2023-08-12 10:37:43.583249,-91.0
2023-08-12 10:37:43.590939,-94.0
2023-08-12 10:37:43.598628,-101.0
2023-08-12 10:37:43.606318,-96.0
2023-08-12 10:37:43.614008,-89.0
2023-08-12 10:37:43.621698,-91.0
2023-08-12 10:37:43.629387,-91.0
2023-08-12 10:37:43.637077,-91.0
2023-08-12 10:37:43.644767,-94.0
2023-08-12 10:37:43.652457,-96.0
2023-08-12 10:37:43.660147,-96.0
2023-08-12 10:37:43.667836,-96.0
2023-08-12 10:37:43.675526,-91.0
2023-08-12 10:37:43.683216,-91.0
2023-08-12 10:37:43.690906,-94.0
2023-08-12 10:37:43.698596,-89.0
2023-08-12 10:37:43.706285,-84.0
2023-08-12 10:37:43.713975,-79.0
2023-08-12 10:37:43.721665,-77.0
2023-08-12 10:37:43.729355,-77.0
2023-08-12 10:37:43.737045,-72.0
2023-08-12 10:37:43.744734,-72.0
2023-08-12 10:37:43.752424,-69.0
2023-08-12 10:37:43.760114,-67.0
2023-08-12 10:37:43.767804,-67.0
2023-08-12 10:37:43.775494,-69.0
2023-08-12 10:37:43.783183,-67.0
2023-08-12 10:37:43.790873,-65.0
2023-08-12 10:37:43.798563,-65.0
2023-08-12 10:37:43.806253,-62.0
2023-08-12 10:37:43.813942,-62.0
2023-08-12 10:37:43.821632,-62.0
2023-08-12 10:37:43.829322,-62.0
2023-08-12 10:37:43.837012,-60.0
2023-08-12 10:37:43.844702,-62.0
2023-08-12 10:37:43.852391,-67.0
2023-08-12 10:37:43.860081,-72.0
2023-08-12 10:37:43.867771,-67.0
2023-08-12 10:37:43.875461,-62.0
2023-08-12 10:37:43.883151,-60.0
2023-08-12 10:37:43.890840,-60.0
2023-08-12 10:37:43.898530,-60.0
2023-08-12 10:37:43.906220,-62.0
2023-08-12 10:37:43.913910,-69.0
2023-08-12 10:37:43.921600,-69.0
2023-08-12 10:37:43.929289,-67.0
2023-08-12 10:37:43.936979,-65.0
2023-08-12 10:37:43.944669,-65.0
2023-08-12 10:37:43.952359,-60.0
2023-08-12 10:37:43.960049,-31.0
2023-08-12 10:37:43.967738,2.0
2023-08-12 10:37:43.975428,-2.0
2023-08-12 10:37:43.983118,-26.0
2023-08-12 10:37:43.990808,-33.0
2023-08-12 10:37:43.998497,-41.0
2023-08-12 10:37:44.006187,-57.0
2023-08-12 10:37:44.013877,-67.0
2023-08-12 10:37:44.021567,-72.0
2023-08-12 10:37:44.029257,-69.0
2023-08-12 10:37:44.036946,-62.0
2023-08-12 10:37:44.044636,-62.0
2023-08-12 10:37:44.052326,-62.0
2023-08-12 10:37:44.060016,-57.0
2023-08-12 10:37:44.067706,-62.0
2023-08-12 10:37:44.075395,-74.0
2023-08-12 10:37:44.083085,-67.0
2023-08-12 10:37:44.090775,36.0
2023-08-12 10:37:44.098465,335.0
2023-08-12 10:37:44.106155,690.0
2023-08-12 10:37:44.113844,463.0
2023-08-12 10:37:44.121534,-258.0
2023-08-12 10:37:44.129224,-328.0
2023-08-12 10:37:44.136914,118.0
2023-08-12 10:37:44.144604,69.0
2023-08-12 10:37:44.152293,-166.0
2023-08-12 10:37:44.159983,-96.0
2023-08-12 10:37:44.167673,-45.0
2023-08-12 10:37:44.175363,-113.0
2023-08-12 10:37:44.183052,-98.0
2023-08-12 10:37:44.190742,-62.0
2023-08-12 10:37:44.198432,-79.0
2023-08-12 10:37:44.206122,-82.0
2023-08-12 10:37:44.213812,-67.0
2023-08-12 10:37:44.221501,-69.0
2023-08-12 10:37:44.229191,-67.0
2023-08-12 10:37:44.236881,-55.0
2023-08-12 10:37:44.244571,-55.0
2023-08-12 10:37:44.252261,-53.0
2023-08-12 10:37:44.259950,-45.0
2023-08-12 10:37:44.267640,-41.0
2023-08-12 10:37:44.275330,-36.0
2023-08-12 10:37:44.283020,-33.0
2023-08-12 10:37:44.290710,-31.0
2023-08-12 10:37:44.298399,-26.0
2023-08-12 10:37:44.306089,-21.0
2023-08-12 10:37:44.313779,-21.0
2023-08-12 10:37:44.321469,-19.0
2023-08-12 10:37:44.329159,-14.0
2023-08-12 10:37:44.336848,-14.0
2023-08-12 10:37:44.344538,-16.0
2023-08-12 10:37:44.352228,-24.0
2023-08-12 10:37:44.359918,-31.0
2023-08-12 10:37:44.367607,-33.0
2023-08-12 10:37:44.375297,-38.0
2023-08-12 10:37:44.382987,-43.0
2023-08-12 10:37:44.390677,-50.0
2023-08-12 10:37:44.398367,-60.0
2023-08-12 10:37:44.406056,-67.0
2023-08-12 10:37:44.413746,-74.0
2023-08-12 10:37:44.421436,-77.0
2023-08-12 10:37:44.429126,-79.0
2023-08-12 10:37:44.436816,-91.0
2023-08-12 10:37:44.444505,-103.0
2023-08-12 10:37:44.452195,-103.0
2023-08-12 10:37:44.459885,-96.0
2023-08-12 10:37:44.467575,-96.0
2023-08-12 10:37:44.475265,-98.0
2023-08-12 10:37:44.482954,-101.0
2023-08-12 10:37:44.490644,-101.0
2023-08-12 10:37:44.498334,-96.0
2023-08-12 10:37:44.506024,-94.0
2023-08-12 10:37:44.513714,-94.0
2023-08-12 10:37:44.521403,-94.0
2023-08-12 10:37:44.529093,-91.0
2023-08-12 10:37:44.536783,-86.0
2023-08-12 10:37:44.544473,-84.0
2023-08-12 10:37:44.552162,-82.0
2023-08-12 10:37:44.559852,-77.0
2023-08-12 10:37:44.567542,-79.0
2023-08-12 10:37:44.575232,-79.0
2023-08-12 10:37:44.582922,-77.0
2023-08-12 10:37:44.590611,-79.0
2023-08-12 10:37:44.598301,-79.0
2023-08-12 10:37:44.605991,-77.0
2023-08-12 10:37:44.613681,-74.0
2023-08-12 10:37:44.621371,-77.0
2023-08-12 10:37:44.629060,-77.0
2023-08-12 10:37:44.636750,-74.0
2023-08-12 10:37:44.644440,-77.0
2023-08-12 10:37:44.652130,-79.0
2023-08-12 10:37:44.659820,-79.0
2023-08-12 10:37:44.667509,-79.0
2023-08-12 10:37:44.675199,-79.0
2023-08-12 10:37:44.682889,-77.0
2023-08-12 10:37:44.690579,-72.0
2023-08-12 10:37:44.698269,-72.0
2023-08-12 10:37:44.705958,-74.0
2023-08-12 10:37:44.713648,-74.0
2023-08-12 10:37:44.721338,-72.0
2023-08-12 10:37:44.729028,-69.0
2023-08-12 10:37:44.736717,-67.0
2023-08-12 10:37:44.744407,-65.0
2023-08-12 10:37:44.752097,-65.0
2023-08-12 10:37:44.759787,-67.0
2023-08-12 10:37:44.767477,-67.0
2023-08-12 10:37:44.775166,-67.0
2023-08-12 10:37:44.782856,-67.0
2023-08-12 10:37:44.790546,-65.0
2023-08-12 10:37:44.798236,-60.0
2023-08-12 10:37:44.805926,-57.0
2023-08-12 10:37:44.813615,-41.0
2023-08-12 10:37:44.821305,-4.0
2023-08-12 10:37:44.828995,16.0
2023-08-12 10:37:44.836685,-2.0
2023-08-12 10:37:44.844375,-19.0
2023-08-12 10:37:44.852064,-28.0
2023-08-12 10:37:44.859754,-45.0
2023-08-12 10:37:44.867444,-62.0
2023-08-12 10:37:44.875134,-67.0
2023-08-12 10:37:44.882824,-67.0
2023-08-12 10:37:44.890513,-67.0
2023-08-12 10:37:44.898203,-69.0
2023-08-12 10:37:44.905893,-69.0
2023-08-12 10:37:44.913583,-65.0
2023-08-12 10:37:44.921272,-62.0
2023-08-12 10:37:44.928962,-67.0
2023-08-12 10:37:44.936652,-86.0
2023-08-12 10:37:44.944342,-72.0
2023-08-12 10:37:44.952032,67.0
2023-08-12 10:37:44.959721,412.0
2023-08-12 10:37:44.967411,709.0
2023-08-12 10:37:44.975101,347.0
2023-08-12 10:37:44.982791,-299.0
2023-08-12 10:37:44.990481,-217.0
2023-08-12 10:37:44.998170,130.0
2023-08-12 10:37:45.005860,-16.0
2023-08-12 10:37:45.013550,-178.0
