time,ECG
2023-12-20 14:01:25.079702,23.0
2023-12-20 14:01:25.087391,-61.0
2023-12-20 14:01:25.095080,-71.0
2023-12-20 14:01:25.102769,-57.0
2023-12-20 14:01:25.110458,-69.0
2023-12-20 14:01:25.118147,-78.0
2023-12-20 14:01:25.125836,-73.0
2023-12-20 14:01:25.133525,-66.0
2023-12-20 14:01:25.141214,-66.0
2023-12-20 14:01:25.148903,-76.0
2023-12-20 14:01:25.156592,-83.0
2023-12-20 14:01:25.164280,-81.0
2023-12-20 14:01:25.171969,-81.0
2023-12-20 14:01:25.179658,-83.0
2023-12-20 14:01:25.187347,-85.0
2023-12-20 14:01:25.195036,-92.0
2023-12-20 14:01:25.202725,-109.0
2023-12-20 14:01:25.210414,-121.0
2023-12-20 14:01:25.218103,-102.0
2023-12-20 14:01:25.225792,-78.0
2023-12-20 14:01:25.233481,-85.0
2023-12-20 14:01:25.241170,-100.0
2023-12-20 14:01:25.248859,-100.0
2023-12-20 14:01:25.256548,-95.0
2023-12-20 14:01:25.264237,-90.0
2023-12-20 14:01:25.271926,-73.0
2023-12-20 14:01:25.279615,-61.0
2023-12-20 14:01:25.287304,-61.0
2023-12-20 14:01:25.294993,-57.0
2023-12-20 14:01:25.302682,-40.0
2023-12-20 14:01:25.310371,-30.0
2023-12-20 14:01:25.318060,-26.0
2023-12-20 14:01:25.325749,-21.0
2023-12-20 14:01:25.333438,-28.0
2023-12-20 14:01:25.341127,-33.0
2023-12-20 14:01:25.348816,-30.0
2023-12-20 14:01:25.356505,-28.0
2023-12-20 14:01:25.364194,-21.0
2023-12-20 14:01:25.371883,-19.0
2023-12-20 14:01:25.379572,-26.0
2023-12-20 14:01:25.387261,-30.0
2023-12-20 14:01:25.394950,-26.0
2023-12-20 14:01:25.402639,-26.0
2023-12-20 14:01:25.410328,-38.0
2023-12-20 14:01:25.418017,-47.0
2023-12-20 14:01:25.425706,-54.0
2023-12-20 14:01:25.433395,-61.0
2023-12-20 14:01:25.441084,-59.0
2023-12-20 14:01:25.448773,-54.0
2023-12-20 14:01:25.456462,-57.0
2023-12-20 14:01:25.464151,-59.0
2023-12-20 14:01:25.471840,-66.0
2023-12-20 14:01:25.479529,-73.0
2023-12-20 14:01:25.487218,-78.0
2023-12-20 14:01:25.494907,-83.0
2023-12-20 14:01:25.502596,-78.0
2023-12-20 14:01:25.510285,-61.0
2023-12-20 14:01:25.517974,-45.0
2023-12-20 14:01:25.525663,-33.0
2023-12-20 14:01:25.533352,-33.0
2023-12-20 14:01:25.541041,-38.0
2023-12-20 14:01:25.548730,-33.0
2023-12-20 14:01:25.556419,-33.0
2023-12-20 14:01:25.564108,-40.0
2023-12-20 14:01:25.571797,-40.0
2023-12-20 14:01:25.579486,-76.0
2023-12-20 14:01:25.587175,-221.0
2023-12-20 14:01:25.594864,-362.0
2023-12-20 14:01:25.602553,-247.0
2023-12-20 14:01:25.610242,78.0
2023-12-20 14:01:25.617931,269.0
2023-12-20 14:01:25.625620,257.0
2023-12-20 14:01:25.633309,188.0
2023-12-20 14:01:25.640998,83.0
2023-12-20 14:01:25.648687,-35.0
2023-12-20 14:01:25.656376,-85.0
2023-12-20 14:01:25.664065,-73.0
2023-12-20 14:01:25.671753,-64.0
2023-12-20 14:01:25.679442,-71.0
2023-12-20 14:01:25.687131,-78.0
2023-12-20 14:01:25.694820,-81.0
2023-12-20 14:01:25.702509,-83.0
2023-12-20 14:01:25.710198,-78.0
2023-12-20 14:01:25.717887,-69.0
2023-12-20 14:01:25.725576,-73.0
2023-12-20 14:01:25.733265,-83.0
2023-12-20 14:01:25.740954,-88.0
2023-12-20 14:01:25.748643,-88.0
2023-12-20 14:01:25.756332,-78.0
2023-12-20 14:01:25.764021,-76.0
2023-12-20 14:01:25.771710,-81.0
2023-12-20 14:01:25.779399,-83.0
2023-12-20 14:01:25.787088,-88.0
2023-12-20 14:01:25.794777,-102.0
2023-12-20 14:01:25.802466,-104.0
2023-12-20 14:01:25.810155,-92.0
2023-12-20 14:01:25.817844,-88.0
2023-12-20 14:01:25.825533,-92.0
2023-12-20 14:01:25.833222,-116.0
2023-12-20 14:01:25.840911,-126.0
2023-12-20 14:01:25.848600,-95.0
2023-12-20 14:01:25.856289,-64.0
2023-12-20 14:01:25.863978,-52.0
2023-12-20 14:01:25.871667,-40.0
2023-12-20 14:01:25.879356,-54.0
2023-12-20 14:01:25.887045,-78.0
2023-12-20 14:01:25.894734,-69.0
2023-12-20 14:01:25.902423,-64.0
2023-12-20 14:01:25.910112,-73.0
2023-12-20 14:01:25.917801,-69.0
2023-12-20 14:01:25.925490,-69.0
2023-12-20 14:01:25.933179,-76.0
2023-12-20 14:01:25.940868,-76.0
2023-12-20 14:01:25.948557,-76.0
2023-12-20 14:01:25.956246,-83.0
2023-12-20 14:01:25.963935,-83.0
2023-12-20 14:01:25.971624,-78.0
2023-12-20 14:01:25.979313,-81.0
2023-12-20 14:01:25.987002,-78.0
2023-12-20 14:01:25.994691,-66.0
2023-12-20 14:01:26.002380,-61.0
2023-12-20 14:01:26.010069,-71.0
2023-12-20 14:01:26.017758,-81.0
2023-12-20 14:01:26.025447,-81.0
2023-12-20 14:01:26.033136,-73.0
2023-12-20 14:01:26.040825,-73.0
2023-12-20 14:01:26.048514,-78.0
2023-12-20 14:01:26.056203,-85.0
2023-12-20 14:01:26.063892,-90.0
2023-12-20 14:01:26.071581,-88.0
2023-12-20 14:01:26.079270,-76.0
2023-12-20 14:01:26.086959,-61.0
2023-12-20 14:01:26.094648,-50.0
2023-12-20 14:01:26.102337,-47.0
2023-12-20 14:01:26.110026,-52.0
2023-12-20 14:01:26.117715,-50.0
2023-12-20 14:01:26.125404,-45.0
2023-12-20 14:01:26.133093,-45.0
2023-12-20 14:01:26.140782,-38.0
2023-12-20 14:01:26.148471,-57.0
2023-12-20 14:01:26.156160,-154.0
2023-12-20 14:01:26.163849,-317.0
2023-12-20 14:01:26.171537,-343.0
2023-12-20 14:01:26.179226,-88.0
2023-12-20 14:01:26.186915,207.0
2023-12-20 14:01:26.194604,276.0
2023-12-20 14:01:26.202293,212.0
2023-12-20 14:01:26.209982,123.0
2023-12-20 14:01:26.217671,9.0
2023-12-20 14:01:26.225360,-71.0
2023-12-20 14:01:26.233049,-85.0
2023-12-20 14:01:26.240738,-73.0
2023-12-20 14:01:26.248427,-73.0
2023-12-20 14:01:26.256116,-78.0
2023-12-20 14:01:26.263805,-78.0
2023-12-20 14:01:26.271494,-73.0
2023-12-20 14:01:26.279183,-83.0
2023-12-20 14:01:26.286872,-104.0
2023-12-20 14:01:26.294561,-128.0
2023-12-20 14:01:26.302250,-140.0
2023-12-20 14:01:26.309939,-131.0
2023-12-20 14:01:26.317628,-131.0
2023-12-20 14:01:26.325317,-159.0
2023-12-20 14:01:26.333006,-181.0
2023-12-20 14:01:26.340695,-164.0
2023-12-20 14:01:26.348384,-150.0
2023-12-20 14:01:26.356073,-145.0
2023-12-20 14:01:26.363762,-131.0
2023-12-20 14:01:26.371451,-126.0
2023-12-20 14:01:26.379140,-123.0
2023-12-20 14:01:26.386829,-121.0
2023-12-20 14:01:26.394518,-135.0
2023-12-20 14:01:26.402207,-140.0
2023-12-20 14:01:26.409896,-116.0
2023-12-20 14:01:26.417585,-97.0
2023-12-20 14:01:26.425274,-83.0
2023-12-20 14:01:26.432963,-64.0
2023-12-20 14:01:26.440652,-52.0
2023-12-20 14:01:26.448341,-42.0
2023-12-20 14:01:26.456030,-33.0
2023-12-20 14:01:26.463719,-35.0
2023-12-20 14:01:26.471408,-50.0
2023-12-20 14:01:26.479097,-57.0
2023-12-20 14:01:26.486786,-57.0
2023-12-20 14:01:26.494475,-66.0
2023-12-20 14:01:26.502164,-78.0
2023-12-20 14:01:26.509853,-73.0
2023-12-20 14:01:26.517542,-64.0
2023-12-20 14:01:26.525231,-66.0
2023-12-20 14:01:26.532920,-71.0
2023-12-20 14:01:26.540609,-66.0
2023-12-20 14:01:26.548298,-59.0
2023-12-20 14:01:26.555987,-61.0
2023-12-20 14:01:26.563676,-64.0
2023-12-20 14:01:26.571365,-69.0
2023-12-20 14:01:26.579054,-66.0
2023-12-20 14:01:26.586743,-57.0
2023-12-20 14:01:26.594432,-59.0
2023-12-20 14:01:26.602121,-66.0
2023-12-20 14:01:26.609810,-71.0
2023-12-20 14:01:26.617499,-76.0
2023-12-20 14:01:26.625188,-81.0
2023-12-20 14:01:26.632877,-88.0
2023-12-20 14:01:26.640566,-102.0
2023-12-20 14:01:26.648255,-100.0
2023-12-20 14:01:26.655944,-78.0
2023-12-20 14:01:26.663633,-61.0
2023-12-20 14:01:26.671321,-57.0
2023-12-20 14:01:26.679010,-52.0
2023-12-20 14:01:26.686699,-50.0
2023-12-20 14:01:26.694388,-50.0
2023-12-20 14:01:26.702077,-47.0
2023-12-20 14:01:26.709766,-47.0
2023-12-20 14:01:26.717455,-52.0
2023-12-20 14:01:26.725144,-76.0
2023-12-20 14:01:26.732833,-166.0
2023-12-20 14:01:26.740522,-324.0
2023-12-20 14:01:26.748211,-374.0
2023-12-20 14:01:26.755900,-133.0
2023-12-20 14:01:26.763589,185.0
2023-12-20 14:01:26.771278,278.0
2023-12-20 14:01:26.778967,228.0
2023-12-20 14:01:26.786656,150.0
2023-12-20 14:01:26.794345,16.0
2023-12-20 14:01:26.802034,-104.0
2023-12-20 14:01:26.809723,-119.0
2023-12-20 14:01:26.817412,-97.0
2023-12-20 14:01:26.825101,-104.0
2023-12-20 14:01:26.832790,-107.0
2023-12-20 14:01:26.840479,-100.0
2023-12-20 14:01:26.848168,-116.0
2023-12-20 14:01:26.855857,-128.0
2023-12-20 14:01:26.863546,-114.0
2023-12-20 14:01:26.871235,-114.0
2023-12-20 14:01:26.878924,-131.0
2023-12-20 14:01:26.886613,-133.0
2023-12-20 14:01:26.894302,-131.0
2023-12-20 14:01:26.901991,-133.0
2023-12-20 14:01:26.909680,-150.0
2023-12-20 14:01:26.917369,-171.0
2023-12-20 14:01:26.925058,-166.0
2023-12-20 14:01:26.932747,-147.0
2023-12-20 14:01:26.940436,-138.0
2023-12-20 14:01:26.948125,-140.0
2023-12-20 14:01:26.955814,-138.0
2023-12-20 14:01:26.963503,-128.0
2023-12-20 14:01:26.971192,-119.0
2023-12-20 14:01:26.978881,-114.0
2023-12-20 14:01:26.986570,-104.0
2023-12-20 14:01:26.994259,-85.0
2023-12-20 14:01:27.001948,-81.0
2023-12-20 14:01:27.009637,-78.0
2023-12-20 14:01:27.017326,-61.0
2023-12-20 14:01:27.025015,-50.0
2023-12-20 14:01:27.032704,-54.0
2023-12-20 14:01:27.040393,-69.0
2023-12-20 14:01:27.048082,-71.0
2023-12-20 14:01:27.055771,-69.0
2023-12-20 14:01:27.063460,-71.0
2023-12-20 14:01:27.071149,-73.0
2023-12-20 14:01:27.078838,-69.0
2023-12-20 14:01:27.086527,-71.0
2023-12-20 14:01:27.094216,-71.0
2023-12-20 14:01:27.101905,-73.0
2023-12-20 14:01:27.109594,-81.0
2023-12-20 14:01:27.117283,-78.0
2023-12-20 14:01:27.124972,-71.0
2023-12-20 14:01:27.132661,-83.0
2023-12-20 14:01:27.140350,-92.0
2023-12-20 14:01:27.148039,-81.0
2023-12-20 14:01:27.155728,-66.0
2023-12-20 14:01:27.163417,-61.0
2023-12-20 14:01:27.171106,-64.0
2023-12-20 14:01:27.178794,-69.0
2023-12-20 14:01:27.186483,-64.0
2023-12-20 14:01:27.194172,-61.0
2023-12-20 14:01:27.201861,-78.0
2023-12-20 14:01:27.209550,-90.0
2023-12-20 14:01:27.217239,-88.0
2023-12-20 14:01:27.224928,-85.0
2023-12-20 14:01:27.232617,-83.0
2023-12-20 14:01:27.240306,-73.0
2023-12-20 14:01:27.247995,-57.0
2023-12-20 14:01:27.255684,-40.0
2023-12-20 14:01:27.263373,-40.0
2023-12-20 14:01:27.271062,-50.0
2023-12-20 14:01:27.278751,-54.0
2023-12-20 14:01:27.286440,-47.0
2023-12-20 14:01:27.294129,-54.0
2023-12-20 14:01:27.301818,-83.0
2023-12-20 14:01:27.309507,-166.0
2023-12-20 14:01:27.317196,-343.0
2023-12-20 14:01:27.324885,-474.0
2023-12-20 14:01:27.332574,-281.0
2023-12-20 14:01:27.340263,112.0
2023-12-20 14:01:27.347952,295.0
2023-12-20 14:01:27.355641,252.0
2023-12-20 14:01:27.363330,164.0
2023-12-20 14:01:27.371019,50.0
2023-12-20 14:01:27.378708,-69.0
2023-12-20 14:01:27.386397,-116.0
2023-12-20 14:01:27.394086,-114.0
2023-12-20 14:01:27.401775,-114.0
2023-12-20 14:01:27.409464,-121.0
2023-12-20 14:01:27.417153,-123.0
2023-12-20 14:01:27.424842,-121.0
2023-12-20 14:01:27.432531,-114.0
2023-12-20 14:01:27.440220,-119.0
2023-12-20 14:01:27.447909,-138.0
2023-12-20 14:01:27.455598,-166.0
2023-12-20 14:01:27.463287,-166.0
2023-12-20 14:01:27.470976,-145.0
2023-12-20 14:01:27.478665,-138.0
2023-12-20 14:01:27.486354,-135.0
2023-12-20 14:01:27.494043,-138.0
2023-12-20 14:01:27.501732,-140.0
2023-12-20 14:01:27.509421,-128.0
2023-12-20 14:01:27.517110,-121.0
2023-12-20 14:01:27.524799,-114.0
2023-12-20 14:01:27.532488,-102.0
2023-12-20 14:01:27.540177,-116.0
2023-12-20 14:01:27.547866,-145.0
2023-12-20 14:01:27.555555,-131.0
2023-12-20 14:01:27.563244,-104.0
2023-12-20 14:01:27.570933,-102.0
2023-12-20 14:01:27.578622,-102.0
2023-12-20 14:01:27.586311,-109.0
2023-12-20 14:01:27.594000,-116.0
2023-12-20 14:01:27.601689,-95.0
2023-12-20 14:01:27.609378,-69.0
2023-12-20 14:01:27.617067,-76.0
2023-12-20 14:01:27.624756,-88.0
2023-12-20 14:01:27.632445,-92.0
2023-12-20 14:01:27.640134,-97.0
2023-12-20 14:01:27.647823,-95.0
2023-12-20 14:01:27.655512,-85.0
2023-12-20 14:01:27.663201,-78.0
2023-12-20 14:01:27.670890,-81.0
2023-12-20 14:01:27.678578,-83.0
2023-12-20 14:01:27.686267,-83.0
2023-12-20 14:01:27.693956,-81.0
2023-12-20 14:01:27.701645,-71.0
2023-12-20 14:01:27.709334,-52.0
2023-12-20 14:01:27.717023,-50.0
2023-12-20 14:01:27.724712,-66.0
2023-12-20 14:01:27.732401,-69.0
2023-12-20 14:01:27.740090,-50.0
2023-12-20 14:01:27.747779,-35.0
2023-12-20 14:01:27.755468,-33.0
2023-12-20 14:01:27.763157,-45.0
2023-12-20 14:01:27.770846,-52.0
2023-12-20 14:01:27.778535,-47.0
2023-12-20 14:01:27.786224,-42.0
2023-12-20 14:01:27.793913,-54.0
2023-12-20 14:01:27.801602,-85.0
2023-12-20 14:01:27.809291,-107.0
2023-12-20 14:01:27.816980,-100.0
2023-12-20 14:01:27.824669,-76.0
2023-12-20 14:01:27.832358,-52.0
2023-12-20 14:01:27.840047,-35.0
2023-12-20 14:01:27.847736,-35.0
2023-12-20 14:01:27.855425,-35.0
2023-12-20 14:01:27.863114,-40.0
2023-12-20 14:01:27.870803,-52.0
2023-12-20 14:01:27.878492,-54.0
2023-12-20 14:01:27.886181,-47.0
2023-12-20 14:01:27.893870,-76.0
2023-12-20 14:01:27.901559,-214.0
2023-12-20 14:01:27.909248,-400.0
2023-12-20 14:01:27.916937,-350.0
2023-12-20 14:01:27.924626,0.0
2023-12-20 14:01:27.932315,278.0
2023-12-20 14:01:27.940004,281.0
2023-12-20 14:01:27.947693,193.0
2023-12-20 14:01:27.955382,97.0
2023-12-20 14:01:27.963071,-14.0
2023-12-20 14:01:27.970760,-73.0
2023-12-20 14:01:27.978449,-66.0
2023-12-20 14:01:27.986138,-71.0
2023-12-20 14:01:27.993827,-109.0
2023-12-20 14:01:28.001516,-121.0
2023-12-20 14:01:28.009205,-102.0
2023-12-20 14:01:28.016894,-95.0
2023-12-20 14:01:28.024583,-102.0
2023-12-20 14:01:28.032272,-104.0
2023-12-20 14:01:28.039961,-102.0
2023-12-20 14:01:28.047650,-100.0
2023-12-20 14:01:28.055339,-104.0
2023-12-20 14:01:28.063028,-104.0
2023-12-20 14:01:28.070717,-100.0
2023-12-20 14:01:28.078406,-102.0
2023-12-20 14:01:28.086095,-97.0
2023-12-20 14:01:28.093784,-85.0
2023-12-20 14:01:28.101473,-90.0
2023-12-20 14:01:28.109162,-90.0
2023-12-20 14:01:28.116851,-85.0
2023-12-20 14:01:28.124540,-102.0
2023-12-20 14:01:28.132229,-119.0
2023-12-20 14:01:28.139918,-109.0
2023-12-20 14:01:28.147607,-88.0
2023-12-20 14:01:28.155296,-83.0
2023-12-20 14:01:28.162985,-83.0
2023-12-20 14:01:28.170674,-61.0
2023-12-20 14:01:28.178362,-40.0
2023-12-20 14:01:28.186051,-30.0
2023-12-20 14:01:28.193740,-21.0
2023-12-20 14:01:28.201429,-11.0
2023-12-20 14:01:28.209118,-14.0
2023-12-20 14:01:28.216807,-23.0
2023-12-20 14:01:28.224496,-28.0
2023-12-20 14:01:28.232185,-28.0
2023-12-20 14:01:28.239874,-35.0
2023-12-20 14:01:28.247563,-30.0
2023-12-20 14:01:28.255252,-19.0
2023-12-20 14:01:28.262941,-23.0
2023-12-20 14:01:28.270630,-30.0
2023-12-20 14:01:28.278319,-21.0
2023-12-20 14:01:28.286008,-19.0
2023-12-20 14:01:28.293697,-23.0
2023-12-20 14:01:28.301386,-30.0
2023-12-20 14:01:28.309075,-45.0
2023-12-20 14:01:28.316764,-42.0
2023-12-20 14:01:28.324453,-30.0
2023-12-20 14:01:28.332142,-28.0
2023-12-20 14:01:28.339831,-26.0
2023-12-20 14:01:28.347520,-21.0
2023-12-20 14:01:28.355209,-28.0
2023-12-20 14:01:28.362898,-42.0
2023-12-20 14:01:28.370587,-42.0
2023-12-20 14:01:28.378276,-42.0
2023-12-20 14:01:28.385965,-54.0
2023-12-20 14:01:28.393654,-66.0
2023-12-20 14:01:28.401343,-78.0
2023-12-20 14:01:28.409032,-69.0
2023-12-20 14:01:28.416721,-47.0
2023-12-20 14:01:28.424410,-30.0
2023-12-20 14:01:28.432099,-21.0
2023-12-20 14:01:28.439788,-19.0
2023-12-20 14:01:28.447477,-11.0
2023-12-20 14:01:28.455166,-2.0
2023-12-20 14:01:28.462855,-7.0
2023-12-20 14:01:28.470544,-19.0
2023-12-20 14:01:28.478233,-21.0
2023-12-20 14:01:28.485922,-45.0
2023-12-20 14:01:28.493611,-164.0
2023-12-20 14:01:28.501300,-336.0
2023-12-20 14:01:28.508989,-326.0
2023-12-20 14:01:28.516678,-26.0
2023-12-20 14:01:28.524367,252.0
2023-12-20 14:01:28.532056,267.0
2023-12-20 14:01:28.539745,174.0
2023-12-20 14:01:28.547434,95.0
2023-12-20 14:01:28.555123,-14.0
2023-12-20 14:01:28.562812,-95.0
2023-12-20 14:01:28.570501,-97.0
2023-12-20 14:01:28.578190,-85.0
2023-12-20 14:01:28.585879,-92.0
2023-12-20 14:01:28.593568,-95.0
2023-12-20 14:01:28.601257,-97.0
2023-12-20 14:01:28.608946,-107.0
2023-12-20 14:01:28.616635,-112.0
2023-12-20 14:01:28.624324,-107.0
2023-12-20 14:01:28.632013,-107.0
2023-12-20 14:01:28.639702,-107.0
2023-12-20 14:01:28.647391,-104.0
2023-12-20 14:01:28.655080,-102.0
2023-12-20 14:01:28.662769,-107.0
2023-12-20 14:01:28.670458,-116.0
2023-12-20 14:01:28.678147,-114.0
2023-12-20 14:01:28.685835,-114.0
2023-12-20 14:01:28.693524,-119.0
2023-12-20 14:01:28.701213,-116.0
2023-12-20 14:01:28.708902,-109.0
2023-12-20 14:01:28.716591,-104.0
2023-12-20 14:01:28.724280,-97.0
2023-12-20 14:01:28.731969,-100.0
2023-12-20 14:01:28.739658,-102.0
2023-12-20 14:01:28.747347,-95.0
2023-12-20 14:01:28.755036,-78.0
2023-12-20 14:01:28.762725,-54.0
2023-12-20 14:01:28.770414,-30.0
2023-12-20 14:01:28.778103,-9.0
2023-12-20 14:01:28.785792,-11.0
2023-12-20 14:01:28.793481,-28.0
2023-12-20 14:01:28.801170,-28.0
2023-12-20 14:01:28.808859,-30.0
2023-12-20 14:01:28.816548,-52.0
2023-12-20 14:01:28.824237,-54.0
2023-12-20 14:01:28.831926,-40.0
2023-12-20 14:01:28.839615,-42.0
2023-12-20 14:01:28.847304,-47.0
2023-12-20 14:01:28.854993,-47.0
2023-12-20 14:01:28.862682,-59.0
2023-12-20 14:01:28.870371,-64.0
2023-12-20 14:01:28.878060,-47.0
2023-12-20 14:01:28.885749,-40.0
2023-12-20 14:01:28.893438,-47.0
2023-12-20 14:01:28.901127,-42.0
2023-12-20 14:01:28.908816,-23.0
2023-12-20 14:01:28.916505,-19.0
2023-12-20 14:01:28.924194,-23.0
2023-12-20 14:01:28.931883,-26.0
2023-12-20 14:01:28.939572,-35.0
2023-12-20 14:01:28.947261,-38.0
2023-12-20 14:01:28.954950,-30.0
2023-12-20 14:01:28.962639,-23.0
2023-12-20 14:01:28.970328,-33.0
2023-12-20 14:01:28.978017,-52.0
2023-12-20 14:01:28.985706,-61.0
2023-12-20 14:01:28.993395,-61.0
2023-12-20 14:01:29.001084,-57.0
2023-12-20 14:01:29.008773,-42.0
2023-12-20 14:01:29.016462,-21.0
2023-12-20 14:01:29.024151,-14.0
2023-12-20 14:01:29.031840,-16.0
2023-12-20 14:01:29.039529,-21.0
2023-12-20 14:01:29.047218,-19.0
2023-12-20 14:01:29.054907,-9.0
2023-12-20 14:01:29.062596,-14.0
2023-12-20 14:01:29.070285,-28.0
2023-12-20 14:01:29.077974,-38.0
2023-12-20 14:01:29.085663,-88.0
2023-12-20 14:01:29.093352,-231.0
2023-12-20 14:01:29.101041,-364.0
2023-12-20 14:01:29.108730,-247.0
2023-12-20 14:01:29.116419,64.0
2023-12-20 14:01:29.124108,228.0
2023-12-20 14:01:29.131797,207.0
2023-12-20 14:01:29.139486,147.0
2023-12-20 14:01:29.147175,45.0
2023-12-20 14:01:29.154864,-69.0
2023-12-20 14:01:29.162553,-114.0
2023-12-20 14:01:29.170242,-109.0
2023-12-20 14:01:29.177931,-107.0
2023-12-20 14:01:29.185619,-104.0
2023-12-20 14:01:29.193308,-97.0
2023-12-20 14:01:29.200997,-104.0
2023-12-20 14:01:29.208686,-114.0
2023-12-20 14:01:29.216375,-104.0
2023-12-20 14:01:29.224064,-92.0
2023-12-20 14:01:29.231753,-112.0
2023-12-20 14:01:29.239442,-133.0
2023-12-20 14:01:29.247131,-133.0
2023-12-20 14:01:29.254820,-133.0
2023-12-20 14:01:29.262509,-150.0
2023-12-20 14:01:29.270198,-150.0
2023-12-20 14:01:29.277887,-126.0
2023-12-20 14:01:29.285576,-119.0
2023-12-20 14:01:29.293265,-126.0
2023-12-20 14:01:29.300954,-131.0
2023-12-20 14:01:29.308643,-128.0
2023-12-20 14:01:29.316332,-133.0
2023-12-20 14:01:29.324021,-138.0
2023-12-20 14:01:29.331710,-138.0
2023-12-20 14:01:29.339399,-133.0
2023-12-20 14:01:29.347088,-131.0
2023-12-20 14:01:29.354777,-116.0
2023-12-20 14:01:29.362466,-95.0
2023-12-20 14:01:29.370155,-71.0
2023-12-20 14:01:29.377844,-52.0
2023-12-20 14:01:29.385533,-47.0
2023-12-20 14:01:29.393222,-54.0
2023-12-20 14:01:29.400911,-57.0
2023-12-20 14:01:29.408600,-47.0
2023-12-20 14:01:29.416289,-47.0
2023-12-20 14:01:29.423978,-52.0
2023-12-20 14:01:29.431667,-59.0
2023-12-20 14:01:29.439356,-59.0
2023-12-20 14:01:29.447045,-52.0
2023-12-20 14:01:29.454734,-47.0
2023-12-20 14:01:29.462423,-45.0
2023-12-20 14:01:29.470112,-42.0
2023-12-20 14:01:29.477801,-45.0
2023-12-20 14:01:29.485490,-50.0
2023-12-20 14:01:29.493179,-52.0
2023-12-20 14:01:29.500868,-47.0
2023-12-20 14:01:29.508557,-40.0
2023-12-20 14:01:29.516246,-35.0
2023-12-20 14:01:29.523935,-40.0
2023-12-20 14:01:29.531624,-47.0
2023-12-20 14:01:29.539313,-42.0
2023-12-20 14:01:29.547002,-38.0
2023-12-20 14:01:29.554691,-40.0
2023-12-20 14:01:29.562380,-47.0
2023-12-20 14:01:29.570069,-66.0
2023-12-20 14:01:29.577758,-76.0
2023-12-20 14:01:29.585447,-71.0
2023-12-20 14:01:29.593136,-69.0
2023-12-20 14:01:29.600825,-64.0
2023-12-20 14:01:29.608514,-54.0
2023-12-20 14:01:29.616203,-47.0
2023-12-20 14:01:29.623892,-50.0
2023-12-20 14:01:29.631581,-54.0
2023-12-20 14:01:29.639270,-47.0
2023-12-20 14:01:29.646959,-35.0
2023-12-20 14:01:29.654648,-42.0
2023-12-20 14:01:29.662337,-64.0
2023-12-20 14:01:29.670026,-100.0
2023-12-20 14:01:29.677715,-183.0
2023-12-20 14:01:29.685403,-338.0
2023-12-20 14:01:29.693092,-393.0
2023-12-20 14:01:29.700781,-152.0
2023-12-20 14:01:29.708470,162.0
2023-12-20 14:01:29.716159,252.0
2023-12-20 14:01:29.723848,197.0
2023-12-20 14:01:29.731537,116.0
2023-12-20 14:01:29.739226,-7.0
2023-12-20 14:01:29.746915,-126.0
2023-12-20 14:01:29.754604,-164.0
2023-12-20 14:01:29.762293,-143.0
2023-12-20 14:01:29.769982,-131.0
2023-12-20 14:01:29.777671,-138.0
2023-12-20 14:01:29.785360,-138.0
2023-12-20 14:01:29.793049,-135.0
2023-12-20 14:01:29.800738,-135.0
2023-12-20 14:01:29.808427,-135.0
2023-12-20 14:01:29.816116,-143.0
2023-12-20 14:01:29.823805,-164.0
2023-12-20 14:01:29.831494,-188.0
2023-12-20 14:01:29.839183,-197.0
2023-12-20 14:01:29.846872,-200.0
2023-12-20 14:01:29.854561,-195.0
2023-12-20 14:01:29.862250,-176.0
2023-12-20 14:01:29.869939,-166.0
2023-12-20 14:01:29.877628,-169.0
2023-12-20 14:01:29.885317,-166.0
2023-12-20 14:01:29.893006,-154.0
2023-12-20 14:01:29.900695,-154.0
2023-12-20 14:01:29.908384,-147.0
2023-12-20 14:01:29.916073,-131.0
2023-12-20 14:01:29.923762,-126.0
2023-12-20 14:01:29.931451,-126.0
2023-12-20 14:01:29.939140,-112.0
2023-12-20 14:01:29.946829,-90.0
2023-12-20 14:01:29.954518,-69.0
2023-12-20 14:01:29.962207,-59.0
2023-12-20 14:01:29.969896,-57.0
2023-12-20 14:01:29.977585,-50.0
2023-12-20 14:01:29.985274,-45.0
2023-12-20 14:01:29.992963,-45.0
2023-12-20 14:01:30.000652,-47.0
2023-12-20 14:01:30.008341,-54.0
2023-12-20 14:01:30.016030,-59.0
2023-12-20 14:01:30.023719,-57.0
2023-12-20 14:01:30.031408,-52.0
2023-12-20 14:01:30.039097,-42.0
2023-12-20 14:01:30.046786,-38.0
2023-12-20 14:01:30.054475,-40.0
2023-12-20 14:01:30.062164,-42.0
2023-12-20 14:01:30.069853,-47.0
2023-12-20 14:01:30.077542,-52.0
2023-12-20 14:01:30.085231,-52.0
2023-12-20 14:01:30.092920,-61.0
2023-12-20 14:01:30.100609,-61.0
2023-12-20 14:01:30.108298,-42.0
2023-12-20 14:01:30.115987,-35.0
2023-12-20 14:01:30.123676,-42.0
2023-12-20 14:01:30.131365,-54.0
2023-12-20 14:01:30.139054,-54.0
2023-12-20 14:01:30.146743,-45.0
2023-12-20 14:01:30.154432,-47.0
2023-12-20 14:01:30.162121,-57.0
2023-12-20 14:01:30.169810,-59.0
2023-12-20 14:01:30.177499,-66.0
2023-12-20 14:01:30.185188,-64.0
2023-12-20 14:01:30.192876,-45.0
2023-12-20 14:01:30.200565,-23.0
2023-12-20 14:01:30.208254,-11.0
2023-12-20 14:01:30.215943,-23.0
2023-12-20 14:01:30.223632,-40.0
2023-12-20 14:01:30.231321,-38.0
2023-12-20 14:01:30.239010,-30.0
2023-12-20 14:01:30.246699,-30.0
2023-12-20 14:01:30.254388,-30.0
2023-12-20 14:01:30.262077,-76.0
2023-12-20 14:01:30.269766,-233.0
2023-12-20 14:01:30.277455,-412.0
2023-12-20 14:01:30.285144,-360.0
2023-12-20 14:01:30.292833,-26.0
2023-12-20 14:01:30.300522,255.0
2023-12-20 14:01:30.308211,274.0
2023-12-20 14:01:30.315900,188.0
2023-12-20 14:01:30.323589,100.0
2023-12-20 14:01:30.331278,-28.0
2023-12-20 14:01:30.338967,-119.0
2023-12-20 14:01:30.346656,-109.0
2023-12-20 14:01:30.354345,-85.0
2023-12-20 14:01:30.362034,-102.0
2023-12-20 14:01:30.369723,-104.0
2023-12-20 14:01:30.377412,-97.0
2023-12-20 14:01:30.385101,-112.0
2023-12-20 14:01:30.392790,-116.0
2023-12-20 14:01:30.400479,-112.0
2023-12-20 14:01:30.408168,-121.0
2023-12-20 14:01:30.415857,-131.0
2023-12-20 14:01:30.423546,-128.0
2023-12-20 14:01:30.431235,-135.0
2023-12-20 14:01:30.438924,-135.0
2023-12-20 14:01:30.446613,-123.0
2023-12-20 14:01:30.454302,-119.0
2023-12-20 14:01:30.461991,-123.0
2023-12-20 14:01:30.469680,-126.0
2023-12-20 14:01:30.477369,-114.0
2023-12-20 14:01:30.485058,-102.0
2023-12-20 14:01:30.492747,-90.0
2023-12-20 14:01:30.500436,-85.0
2023-12-20 14:01:30.508125,-90.0
2023-12-20 14:01:30.515814,-95.0
2023-12-20 14:01:30.523503,-73.0
2023-12-20 14:01:30.531192,-50.0
2023-12-20 14:01:30.538881,-42.0
2023-12-20 14:01:30.546570,-30.0
2023-12-20 14:01:30.554259,-11.0
2023-12-20 14:01:30.561948,-7.0
2023-12-20 14:01:30.569637,-4.0
2023-12-20 14:01:30.577326,-4.0
2023-12-20 14:01:30.585015,-19.0
2023-12-20 14:01:30.592704,-30.0
2023-12-20 14:01:30.600393,-26.0
2023-12-20 14:01:30.608082,-19.0
2023-12-20 14:01:30.615771,-26.0
2023-12-20 14:01:30.623460,-30.0
2023-12-20 14:01:30.631149,-28.0
2023-12-20 14:01:30.638838,-33.0
2023-12-20 14:01:30.646527,-30.0
2023-12-20 14:01:30.654216,-23.0
2023-12-20 14:01:30.661905,-14.0
2023-12-20 14:01:30.669594,-7.0
2023-12-20 14:01:30.677283,-4.0
2023-12-20 14:01:30.684972,-14.0
2023-12-20 14:01:30.692660,-21.0
2023-12-20 14:01:30.700349,-11.0
2023-12-20 14:01:30.708038,0.0
2023-12-20 14:01:30.715727,-2.0
2023-12-20 14:01:30.723416,-11.0
2023-12-20 14:01:30.731105,-14.0
2023-12-20 14:01:30.738794,-21.0
2023-12-20 14:01:30.746483,-26.0
2023-12-20 14:01:30.754172,-23.0
2023-12-20 14:01:30.761861,-28.0
2023-12-20 14:01:30.769550,-40.0
2023-12-20 14:01:30.777239,-47.0
2023-12-20 14:01:30.784928,-57.0
2023-12-20 14:01:30.792617,-52.0
2023-12-20 14:01:30.800306,-38.0
2023-12-20 14:01:30.807995,-35.0
2023-12-20 14:01:30.815684,-38.0
2023-12-20 14:01:30.823373,-42.0
2023-12-20 14:01:30.831062,-66.0
2023-12-20 14:01:30.838751,-76.0
2023-12-20 14:01:30.846440,-64.0
2023-12-20 14:01:30.854129,-116.0
2023-12-20 14:01:30.861818,-276.0
2023-12-20 14:01:30.869507,-422.0
2023-12-20 14:01:30.877196,-300.0
2023-12-20 14:01:30.884885,57.0
2023-12-20 14:01:30.892574,274.0
2023-12-20 14:01:30.900263,255.0
2023-12-20 14:01:30.907952,176.0
2023-12-20 14:01:30.915641,47.0
2023-12-20 14:01:30.923330,-92.0
2023-12-20 14:01:30.931019,-119.0
2023-12-20 14:01:30.938708,-85.0
2023-12-20 14:01:30.946397,-92.0
2023-12-20 14:01:30.954086,-109.0
2023-12-20 14:01:30.961775,-114.0
2023-12-20 14:01:30.969464,-112.0
2023-12-20 14:01:30.977153,-121.0
2023-12-20 14:01:30.984842,-138.0
2023-12-20 14:01:30.992531,-133.0
2023-12-20 14:01:31.000220,-114.0
2023-12-20 14:01:31.007909,-121.0
2023-12-20 14:01:31.015598,-140.0
2023-12-20 14:01:31.023287,-140.0
2023-12-20 14:01:31.030976,-135.0
2023-12-20 14:01:31.038665,-131.0
2023-12-20 14:01:31.046354,-126.0
2023-12-20 14:01:31.054043,-123.0
2023-12-20 14:01:31.061732,-119.0
2023-12-20 14:01:31.069421,-116.0
2023-12-20 14:01:31.077110,-121.0
2023-12-20 14:01:31.084799,-116.0
2023-12-20 14:01:31.092488,-109.0
2023-12-20 14:01:31.100177,-109.0
2023-12-20 14:01:31.107866,-100.0
2023-12-20 14:01:31.115555,-73.0
2023-12-20 14:01:31.123244,-59.0
2023-12-20 14:01:31.130933,-47.0
2023-12-20 14:01:31.138622,-33.0
2023-12-20 14:01:31.146311,-23.0
2023-12-20 14:01:31.154000,-19.0
2023-12-20 14:01:31.161689,-14.0
2023-12-20 14:01:31.169378,-11.0
2023-12-20 14:01:31.177067,-11.0
2023-12-20 14:01:31.184756,-14.0
2023-12-20 14:01:31.192444,-21.0
2023-12-20 14:01:31.200133,-23.0
2023-12-20 14:01:31.207822,-21.0
2023-12-20 14:01:31.215511,-19.0
2023-12-20 14:01:31.223200,-16.0
2023-12-20 14:01:31.230889,-19.0
2023-12-20 14:01:31.238578,-30.0
2023-12-20 14:01:31.246267,-26.0
2023-12-20 14:01:31.253956,-9.0
2023-12-20 14:01:31.261645,-7.0
2023-12-20 14:01:31.269334,-11.0
2023-12-20 14:01:31.277023,-19.0
2023-12-20 14:01:31.284712,-19.0
2023-12-20 14:01:31.292401,-4.0
2023-12-20 14:01:31.300090,-2.0
2023-12-20 14:01:31.307779,-9.0
2023-12-20 14:01:31.315468,-19.0
2023-12-20 14:01:31.323157,-40.0
2023-12-20 14:01:31.330846,-50.0
2023-12-20 14:01:31.338535,-54.0
2023-12-20 14:01:31.346224,-71.0
2023-12-20 14:01:31.353913,-81.0
2023-12-20 14:01:31.361602,-83.0
2023-12-20 14:01:31.369291,-100.0
2023-12-20 14:01:31.376980,-95.0
2023-12-20 14:01:31.384669,-66.0
2023-12-20 14:01:31.392358,-59.0
2023-12-20 14:01:31.400047,-66.0
2023-12-20 14:01:31.407736,-64.0
2023-12-20 14:01:31.415425,-64.0
2023-12-20 14:01:31.423114,-64.0
2023-12-20 14:01:31.430803,-66.0
2023-12-20 14:01:31.438492,-88.0
2023-12-20 14:01:31.446181,-176.0
2023-12-20 14:01:31.453870,-340.0
2023-12-20 14:01:31.461559,-374.0
2023-12-20 14:01:31.469248,-97.0
2023-12-20 14:01:31.476937,219.0
2023-12-20 14:01:31.484626,283.0
2023-12-20 14:01:31.492315,209.0
2023-12-20 14:01:31.500004,116.0
2023-12-20 14:01:31.507693,-11.0
2023-12-20 14:01:31.515382,-97.0
2023-12-20 14:01:31.523071,-88.0
2023-12-20 14:01:31.530760,-71.0
2023-12-20 14:01:31.538449,-90.0
2023-12-20 14:01:31.546138,-102.0
2023-12-20 14:01:31.553827,-104.0
2023-12-20 14:01:31.561516,-116.0
2023-12-20 14:01:31.569205,-131.0
2023-12-20 14:01:31.576894,-135.0
2023-12-20 14:01:31.584583,-135.0
2023-12-20 14:01:31.592272,-131.0
2023-12-20 14:01:31.599961,-138.0
2023-12-20 14:01:31.607650,-154.0
2023-12-20 14:01:31.615339,-152.0
2023-12-20 14:01:31.623028,-138.0
2023-12-20 14:01:31.630717,-138.0
2023-12-20 14:01:31.638406,-140.0
2023-12-20 14:01:31.646095,-138.0
2023-12-20 14:01:31.653784,-133.0
2023-12-20 14:01:31.661473,-126.0
2023-12-20 14:01:31.669162,-119.0
2023-12-20 14:01:31.676851,-116.0
2023-12-20 14:01:31.684540,-119.0
2023-12-20 14:01:31.692229,-112.0
2023-12-20 14:01:31.699917,-92.0
2023-12-20 14:01:31.707606,-78.0
2023-12-20 14:01:31.715295,-54.0
2023-12-20 14:01:31.722984,-30.0
2023-12-20 14:01:31.730673,-30.0
2023-12-20 14:01:31.738362,-38.0
2023-12-20 14:01:31.746051,-28.0
2023-12-20 14:01:31.753740,-26.0
2023-12-20 14:01:31.761429,-28.0
2023-12-20 14:01:31.769118,-21.0
2023-12-20 14:01:31.776807,-26.0
2023-12-20 14:01:31.784496,-35.0
2023-12-20 14:01:31.792185,-35.0
2023-12-20 14:01:31.799874,-33.0
2023-12-20 14:01:31.807563,-45.0
2023-12-20 14:01:31.815252,-57.0
2023-12-20 14:01:31.822941,-61.0
2023-12-20 14:01:31.830630,-59.0
2023-12-20 14:01:31.838319,-64.0
2023-12-20 14:01:31.846008,-78.0
2023-12-20 14:01:31.853697,-76.0
2023-12-20 14:01:31.861386,-57.0
2023-12-20 14:01:31.869075,-59.0
2023-12-20 14:01:31.876764,-69.0
2023-12-20 14:01:31.884453,-57.0
2023-12-20 14:01:31.892142,-47.0
2023-12-20 14:01:31.899831,-57.0
2023-12-20 14:01:31.907520,-85.0
2023-12-20 14:01:31.915209,-107.0
2023-12-20 14:01:31.922898,-104.0
2023-12-20 14:01:31.930587,-104.0
2023-12-20 14:01:31.938276,-119.0
2023-12-20 14:01:31.945965,-116.0
2023-12-20 14:01:31.953654,-100.0
2023-12-20 14:01:31.961343,-85.0
2023-12-20 14:01:31.969032,-69.0
2023-12-20 14:01:31.976721,-61.0
2023-12-20 14:01:31.984410,-69.0
2023-12-20 14:01:31.992099,-71.0
2023-12-20 14:01:31.999788,-71.0
2023-12-20 14:01:32.007477,-71.0
2023-12-20 14:01:32.015166,-73.0
2023-12-20 14:01:32.022855,-81.0
2023-12-20 14:01:32.030544,-121.0
2023-12-20 14:01:32.038233,-243.0
2023-12-20 14:01:32.045922,-393.0
2023-12-20 14:01:32.053611,-317.0
2023-12-20 14:01:32.061300,11.0
2023-12-20 14:01:32.068989,236.0
2023-12-20 14:01:32.076678,226.0
2023-12-20 14:01:32.084367,159.0
2023-12-20 14:01:32.092056,69.0
2023-12-20 14:01:32.099745,-50.0
2023-12-20 14:01:32.107434,-112.0
2023-12-20 14:01:32.115123,-109.0
2023-12-20 14:01:32.122812,-97.0
2023-12-20 14:01:32.130501,-100.0
2023-12-20 14:01:32.138190,-112.0
2023-12-20 14:01:32.145879,-121.0
2023-12-20 14:01:32.153568,-119.0
2023-12-20 14:01:32.161257,-133.0
2023-12-20 14:01:32.168946,-154.0
2023-12-20 14:01:32.176635,-154.0
2023-12-20 14:01:32.184324,-145.0
2023-12-20 14:01:32.192013,-143.0
2023-12-20 14:01:32.199701,-145.0
2023-12-20 14:01:32.207390,-147.0
2023-12-20 14:01:32.215079,-152.0
2023-12-20 14:01:32.222768,-157.0
2023-12-20 14:01:32.230457,-147.0
2023-12-20 14:01:32.238146,-123.0
2023-12-20 14:01:32.245835,-114.0
2023-12-20 14:01:32.253524,-128.0
2023-12-20 14:01:32.261213,-126.0
2023-12-20 14:01:32.268902,-112.0
2023-12-20 14:01:32.276591,-112.0
2023-12-20 14:01:32.284280,-116.0
2023-12-20 14:01:32.291969,-104.0
2023-12-20 14:01:32.299658,-88.0
2023-12-20 14:01:32.307347,-90.0
2023-12-20 14:01:32.315036,-81.0
2023-12-20 14:01:32.322725,-54.0
2023-12-20 14:01:32.330414,-42.0
2023-12-20 14:01:32.338103,-52.0
2023-12-20 14:01:32.345792,-73.0
2023-12-20 14:01:32.353481,-83.0
2023-12-20 14:01:32.361170,-76.0
2023-12-20 14:01:32.368859,-73.0
2023-12-20 14:01:32.376548,-73.0
2023-12-20 14:01:32.384237,-69.0
2023-12-20 14:01:32.391926,-59.0
2023-12-20 14:01:32.399615,-57.0
2023-12-20 14:01:32.407304,-69.0
2023-12-20 14:01:32.414993,-69.0
2023-12-20 14:01:32.422682,-57.0
2023-12-20 14:01:32.430371,-61.0
2023-12-20 14:01:32.438060,-71.0
2023-12-20 14:01:32.445749,-66.0
2023-12-20 14:01:32.453438,-54.0
2023-12-20 14:01:32.461127,-42.0
2023-12-20 14:01:32.468816,-35.0
2023-12-20 14:01:32.476505,-38.0
2023-12-20 14:01:32.484194,-54.0
2023-12-20 14:01:32.491883,-81.0
2023-12-20 14:01:32.499572,-97.0
2023-12-20 14:01:32.507261,-92.0
2023-12-20 14:01:32.514950,-85.0
2023-12-20 14:01:32.522639,-95.0
2023-12-20 14:01:32.530328,-104.0
2023-12-20 14:01:32.538017,-104.0
2023-12-20 14:01:32.545706,-95.0
2023-12-20 14:01:32.553395,-78.0
2023-12-20 14:01:32.561084,-61.0
2023-12-20 14:01:32.568773,-57.0
2023-12-20 14:01:32.576462,-73.0
2023-12-20 14:01:32.584151,-83.0
2023-12-20 14:01:32.591840,-73.0
2023-12-20 14:01:32.599529,-64.0
2023-12-20 14:01:32.607218,-73.0
2023-12-20 14:01:32.614907,-123.0
2023-12-20 14:01:32.622596,-257.0
2023-12-20 14:01:32.630285,-436.0
2023-12-20 14:01:32.637974,-398.0
2023-12-20 14:01:32.645663,-42.0
2023-12-20 14:01:32.653352,245.0
2023-12-20 14:01:32.661041,257.0
2023-12-20 14:01:32.668730,207.0
2023-12-20 14:01:32.676419,133.0
2023-12-20 14:01:32.684108,-4.0
2023-12-20 14:01:32.691797,-92.0
2023-12-20 14:01:32.699485,-95.0
2023-12-20 14:01:32.707174,-83.0
2023-12-20 14:01:32.714863,-85.0
2023-12-20 14:01:32.722552,-90.0
2023-12-20 14:01:32.730241,-95.0
2023-12-20 14:01:32.737930,-104.0
2023-12-20 14:01:32.745619,-114.0
2023-12-20 14:01:32.753308,-116.0
2023-12-20 14:01:32.760997,-119.0
2023-12-20 14:01:32.768686,-121.0
2023-12-20 14:01:32.776375,-126.0
2023-12-20 14:01:32.784064,-126.0
2023-12-20 14:01:32.791753,-133.0
2023-12-20 14:01:32.799442,-152.0
2023-12-20 14:01:32.807131,-159.0
2023-12-20 14:01:32.814820,-150.0
2023-12-20 14:01:32.822509,-138.0
2023-12-20 14:01:32.830198,-128.0
2023-12-20 14:01:32.837887,-116.0
2023-12-20 14:01:32.845576,-116.0
2023-12-20 14:01:32.853265,-123.0
2023-12-20 14:01:32.860954,-119.0
2023-12-20 14:01:32.868643,-109.0
2023-12-20 14:01:32.876332,-95.0
2023-12-20 14:01:32.884021,-66.0
2023-12-20 14:01:32.891710,-54.0
2023-12-20 14:01:32.899399,-59.0
2023-12-20 14:01:32.907088,-42.0
2023-12-20 14:01:32.914777,-21.0
2023-12-20 14:01:32.922466,-19.0
2023-12-20 14:01:32.930155,-19.0
2023-12-20 14:01:32.937844,-19.0
2023-12-20 14:01:32.945533,-33.0
2023-12-20 14:01:32.953222,-30.0
2023-12-20 14:01:32.960911,-21.0
2023-12-20 14:01:32.968600,-23.0
2023-12-20 14:01:32.976289,-28.0
2023-12-20 14:01:32.983978,-23.0
2023-12-20 14:01:32.991667,-23.0
2023-12-20 14:01:32.999356,-33.0
2023-12-20 14:01:33.007045,-23.0
2023-12-20 14:01:33.014734,-9.0
2023-12-20 14:01:33.022423,-11.0
2023-12-20 14:01:33.030112,-21.0
2023-12-20 14:01:33.037801,-33.0
2023-12-20 14:01:33.045490,-38.0
2023-12-20 14:01:33.053179,-38.0
2023-12-20 14:01:33.060868,-28.0
2023-12-20 14:01:33.068557,-21.0
2023-12-20 14:01:33.076246,-47.0
2023-12-20 14:01:33.083935,-81.0
2023-12-20 14:01:33.091624,-71.0
2023-12-20 14:01:33.099313,-50.0
2023-12-20 14:01:33.107002,-61.0
2023-12-20 14:01:33.114691,-81.0
2023-12-20 14:01:33.122380,-90.0
2023-12-20 14:01:33.130069,-90.0
2023-12-20 14:01:33.137758,-66.0
2023-12-20 14:01:33.145447,-40.0
2023-12-20 14:01:33.153136,-42.0
2023-12-20 14:01:33.160825,-50.0
2023-12-20 14:01:33.168514,-54.0
2023-12-20 14:01:33.176203,-59.0
2023-12-20 14:01:33.183892,-59.0
2023-12-20 14:01:33.191581,-71.0
2023-12-20 14:01:33.199270,-154.0
2023-12-20 14:01:33.206958,-331.0
2023-12-20 14:01:33.214647,-436.0
2023-12-20 14:01:33.222336,-219.0
2023-12-20 14:01:33.230025,154.0
2023-12-20 14:01:33.237714,293.0
2023-12-20 14:01:33.245403,236.0
2023-12-20 14:01:33.253092,159.0
2023-12-20 14:01:33.260781,45.0
2023-12-20 14:01:33.268470,-61.0
2023-12-20 14:01:33.276159,-78.0
2023-12-20 14:01:33.283848,-64.0
2023-12-20 14:01:33.291537,-85.0
2023-12-20 14:01:33.299226,-104.0
2023-12-20 14:01:33.306915,-102.0
2023-12-20 14:01:33.314604,-97.0
2023-12-20 14:01:33.322293,-95.0
2023-12-20 14:01:33.329982,-90.0
2023-12-20 14:01:33.337671,-85.0
2023-12-20 14:01:33.345360,-102.0
2023-12-20 14:01:33.353049,-135.0
2023-12-20 14:01:33.360738,-157.0
2023-12-20 14:01:33.368427,-152.0
2023-12-20 14:01:33.376116,-152.0
2023-12-20 14:01:33.383805,-157.0
2023-12-20 14:01:33.391494,-145.0
2023-12-20 14:01:33.399183,-131.0
2023-12-20 14:01:33.406872,-126.0
2023-12-20 14:01:33.414561,-119.0
2023-12-20 14:01:33.422250,-112.0
2023-12-20 14:01:33.429939,-107.0
2023-12-20 14:01:33.437628,-102.0
2023-12-20 14:01:33.445317,-102.0
2023-12-20 14:01:33.453006,-92.0
2023-12-20 14:01:33.460695,-66.0
2023-12-20 14:01:33.468384,-40.0
2023-12-20 14:01:33.476073,-28.0
2023-12-20 14:01:33.483762,-19.0
2023-12-20 14:01:33.491451,-7.0
2023-12-20 14:01:33.499140,-7.0
2023-12-20 14:01:33.506829,-9.0
2023-12-20 14:01:33.514518,-7.0
2023-12-20 14:01:33.522207,0.0
2023-12-20 14:01:33.529896,-9.0
2023-12-20 14:01:33.537585,-26.0
2023-12-20 14:01:33.545274,-28.0
2023-12-20 14:01:33.552963,-21.0
2023-12-20 14:01:33.560652,-19.0
2023-12-20 14:01:33.568341,-21.0
2023-12-20 14:01:33.576030,-21.0
2023-12-20 14:01:33.583719,-14.0
2023-12-20 14:01:33.591408,-11.0
2023-12-20 14:01:33.599097,-14.0
2023-12-20 14:01:33.606786,-14.0
2023-12-20 14:01:33.614475,-30.0
2023-12-20 14:01:33.622164,-54.0
2023-12-20 14:01:33.629853,-52.0
2023-12-20 14:01:33.637542,-38.0
2023-12-20 14:01:33.645231,-33.0
2023-12-20 14:01:33.652920,-28.0
2023-12-20 14:01:33.660609,-28.0
2023-12-20 14:01:33.668298,-40.0
2023-12-20 14:01:33.675987,-52.0
2023-12-20 14:01:33.683676,-59.0
2023-12-20 14:01:33.691365,-52.0
2023-12-20 14:01:33.699054,-50.0
2023-12-20 14:01:33.706742,-42.0
2023-12-20 14:01:33.714431,-14.0
2023-12-20 14:01:33.722120,-7.0
2023-12-20 14:01:33.729809,-19.0
2023-12-20 14:01:33.737498,-9.0
2023-12-20 14:01:33.745187,2.0
2023-12-20 14:01:33.752876,-11.0
2023-12-20 14:01:33.760565,-28.0
2023-12-20 14:01:33.768254,-26.0
2023-12-20 14:01:33.775943,-45.0
2023-12-20 14:01:33.783632,-154.0
2023-12-20 14:01:33.791321,-343.0
2023-12-20 14:01:33.799010,-393.0
2023-12-20 14:01:33.806699,-126.0
2023-12-20 14:01:33.814388,202.0
2023-12-20 14:01:33.822077,293.0
2023-12-20 14:01:33.829766,236.0
2023-12-20 14:01:33.837455,157.0
2023-12-20 14:01:33.845144,33.0
2023-12-20 14:01:33.852833,-64.0
2023-12-20 14:01:33.860522,-92.0
2023-12-20 14:01:33.868211,-97.0
2023-12-20 14:01:33.875900,-90.0
2023-12-20 14:01:33.883589,-85.0
2023-12-20 14:01:33.891278,-88.0
2023-12-20 14:01:33.898967,-83.0
2023-12-20 14:01:33.906656,-81.0
2023-12-20 14:01:33.914345,-102.0
2023-12-20 14:01:33.922034,-107.0
2023-12-20 14:01:33.929723,-102.0
2023-12-20 14:01:33.937412,-119.0
2023-12-20 14:01:33.945101,-131.0
2023-12-20 14:01:33.952790,-126.0
2023-12-20 14:01:33.960479,-128.0
2023-12-20 14:01:33.968168,-133.0
2023-12-20 14:01:33.975857,-128.0
2023-12-20 14:01:33.983546,-123.0
2023-12-20 14:01:33.991235,-116.0
2023-12-20 14:01:33.998924,-104.0
2023-12-20 14:01:34.006613,-102.0
2023-12-20 14:01:34.014302,-104.0
2023-12-20 14:01:34.021991,-100.0
2023-12-20 14:01:34.029680,-100.0
2023-12-20 14:01:34.037369,-85.0
2023-12-20 14:01:34.045058,-64.0
2023-12-20 14:01:34.052747,-47.0
2023-12-20 14:01:34.060436,-26.0
2023-12-20 14:01:34.068125,-14.0
2023-12-20 14:01:34.075814,-16.0
2023-12-20 14:01:34.083503,-11.0
2023-12-20 14:01:34.091192,-4.0
2023-12-20 14:01:34.098881,-14.0
2023-12-20 14:01:34.106570,-19.0
2023-12-20 14:01:34.114259,-19.0
2023-12-20 14:01:34.121948,-21.0
2023-12-20 14:01:34.129637,-21.0
2023-12-20 14:01:34.137326,-14.0
2023-12-20 14:01:34.145015,-14.0
2023-12-20 14:01:34.152704,-28.0
2023-12-20 14:01:34.160393,-50.0
2023-12-20 14:01:34.168082,-57.0
2023-12-20 14:01:34.175771,-50.0
2023-12-20 14:01:34.183460,-45.0
2023-12-20 14:01:34.191149,-42.0
2023-12-20 14:01:34.198838,-50.0
2023-12-20 14:01:34.206526,-69.0
2023-12-20 14:01:34.214215,-71.0
2023-12-20 14:01:34.221904,-50.0
2023-12-20 14:01:34.229593,-45.0
2023-12-20 14:01:34.237282,-61.0
2023-12-20 14:01:34.244971,-59.0
2023-12-20 14:01:34.252660,-54.0
2023-12-20 14:01:34.260349,-69.0
2023-12-20 14:01:34.268038,-85.0
2023-12-20 14:01:34.275727,-92.0
2023-12-20 14:01:34.283416,-92.0
2023-12-20 14:01:34.291105,-81.0
2023-12-20 14:01:34.298794,-64.0
2023-12-20 14:01:34.306483,-47.0
2023-12-20 14:01:34.314172,-33.0
2023-12-20 14:01:34.321861,-26.0
2023-12-20 14:01:34.329550,-30.0
2023-12-20 14:01:34.337239,-42.0
2023-12-20 14:01:34.344928,-52.0
2023-12-20 14:01:34.352617,-45.0
2023-12-20 14:01:34.360306,-50.0
2023-12-20 14:01:34.367995,-140.0
2023-12-20 14:01:34.375684,-307.0
2023-12-20 14:01:34.383373,-422.0
2023-12-20 14:01:34.391062,-278.0
2023-12-20 14:01:34.398751,69.0
2023-12-20 14:01:34.406440,267.0
2023-12-20 14:01:34.414129,236.0
2023-12-20 14:01:34.421818,152.0
2023-12-20 14:01:34.429507,47.0
2023-12-20 14:01:34.437196,-69.0
2023-12-20 14:01:34.444885,-112.0
2023-12-20 14:01:34.452574,-88.0
2023-12-20 14:01:34.460263,-85.0
2023-12-20 14:01:34.467952,-97.0
2023-12-20 14:01:34.475641,-95.0
2023-12-20 14:01:34.483330,-92.0
2023-12-20 14:01:34.491019,-90.0
2023-12-20 14:01:34.498708,-88.0
2023-12-20 14:01:34.506397,-100.0
2023-12-20 14:01:34.514086,-121.0
2023-12-20 14:01:34.521775,-135.0
2023-12-20 14:01:34.529464,-147.0
2023-12-20 14:01:34.537153,-150.0
2023-12-20 14:01:34.544842,-138.0
2023-12-20 14:01:34.552531,-138.0
2023-12-20 14:01:34.560220,-157.0
2023-12-20 14:01:34.567909,-159.0
2023-12-20 14:01:34.575598,-143.0
2023-12-20 14:01:34.583287,-140.0
2023-12-20 14:01:34.590976,-133.0
2023-12-20 14:01:34.598665,-121.0
2023-12-20 14:01:34.606354,-121.0
2023-12-20 14:01:34.614043,-119.0
2023-12-20 14:01:34.621732,-104.0
2023-12-20 14:01:34.629421,-83.0
2023-12-20 14:01:34.637110,-64.0
2023-12-20 14:01:34.644799,-54.0
2023-12-20 14:01:34.652488,-50.0
2023-12-20 14:01:34.660177,-40.0
2023-12-20 14:01:34.667866,-26.0
2023-12-20 14:01:34.675555,-14.0
2023-12-20 14:01:34.683244,-9.0
2023-12-20 14:01:34.690933,-28.0
2023-12-20 14:01:34.698622,-66.0
2023-12-20 14:01:34.706311,-76.0
2023-12-20 14:01:34.713999,-59.0
2023-12-20 14:01:34.721688,-57.0
2023-12-20 14:01:34.729377,-71.0
2023-12-20 14:01:34.737066,-69.0
2023-12-20 14:01:34.744755,-57.0
2023-12-20 14:01:34.752444,-50.0
2023-12-20 14:01:34.760133,-50.0
2023-12-20 14:01:34.767822,-57.0
2023-12-20 14:01:34.775511,-57.0
2023-12-20 14:01:34.783200,-57.0
2023-12-20 14:01:34.790889,-71.0
2023-12-20 14:01:34.798578,-73.0
2023-12-20 14:01:34.806267,-61.0
2023-12-20 14:01:34.813956,-54.0
2023-12-20 14:01:34.821645,-52.0
2023-12-20 14:01:34.829334,-57.0
2023-12-20 14:01:34.837023,-66.0
2023-12-20 14:01:34.844712,-61.0
2023-12-20 14:01:34.852401,-57.0
2023-12-20 14:01:34.860090,-69.0
2023-12-20 14:01:34.867779,-95.0
2023-12-20 14:01:34.875468,-102.0
2023-12-20 14:01:34.883157,-81.0
2023-12-20 14:01:34.890846,-59.0
2023-12-20 14:01:34.898535,-54.0
2023-12-20 14:01:34.906224,-57.0
2023-12-20 14:01:34.913913,-52.0
2023-12-20 14:01:34.921602,-50.0
2023-12-20 14:01:34.929291,-50.0
2023-12-20 14:01:34.936980,-52.0
2023-12-20 14:01:34.944669,-59.0
2023-12-20 14:01:34.952358,-102.0
2023-12-20 14:01:34.960047,-240.0
2023-12-20 14:01:34.967736,-424.0
2023-12-20 14:01:34.975425,-350.0
2023-12-20 14:01:34.983114,26.0
2023-12-20 14:01:34.990803,269.0
2023-12-20 14:01:34.998492,243.0
2023-12-20 14:01:35.006181,185.0
2023-12-20 14:01:35.013870,104.0
2023-12-20 14:01:35.021559,-28.0
2023-12-20 14:01:35.029248,-97.0
2023-12-20 14:01:35.036937,-92.0
2023-12-20 14:01:35.044626,-88.0
2023-12-20 14:01:35.052315,-90.0
2023-12-20 14:01:35.060004,-100.0
2023-12-20 14:01:35.067693,-107.0
2023-12-20 14:01:35.075382,-100.0
2023-12-20 14:01:35.083071,-97.0
2023-12-20 14:01:35.090760,-107.0
2023-12-20 14:01:35.098449,-112.0
2023-12-20 14:01:35.106138,-126.0
2023-12-20 14:01:35.113827,-133.0
2023-12-20 14:01:35.121516,-138.0
2023-12-20 14:01:35.129205,-138.0
2023-12-20 14:01:35.136894,-138.0
2023-12-20 14:01:35.144583,-140.0
2023-12-20 14:01:35.152272,-140.0
2023-12-20 14:01:35.159961,-123.0
2023-12-20 14:01:35.167650,-109.0
2023-12-20 14:01:35.175339,-112.0
2023-12-20 14:01:35.183028,-116.0
2023-12-20 14:01:35.190717,-116.0
2023-12-20 14:01:35.198406,-114.0
2023-12-20 14:01:35.206095,-100.0
2023-12-20 14:01:35.213783,-78.0
2023-12-20 14:01:35.221472,-61.0
2023-12-20 14:01:35.229161,-50.0
2023-12-20 14:01:35.236850,-38.0
2023-12-20 14:01:35.244539,-26.0
2023-12-20 14:01:35.252228,-21.0
2023-12-20 14:01:35.259917,-30.0
2023-12-20 14:01:35.267606,-50.0
2023-12-20 14:01:35.275295,-50.0
2023-12-20 14:01:35.282984,-61.0
2023-12-20 14:01:35.290673,-90.0
2023-12-20 14:01:35.298362,-88.0
2023-12-20 14:01:35.306051,-64.0
2023-12-20 14:01:35.313740,-52.0
2023-12-20 14:01:35.321429,-59.0
2023-12-20 14:01:35.329118,-64.0
2023-12-20 14:01:35.336807,-64.0
2023-12-20 14:01:35.344496,-61.0
2023-12-20 14:01:35.352185,-57.0
2023-12-20 14:01:35.359874,-52.0
2023-12-20 14:01:35.367563,-61.0
2023-12-20 14:01:35.375252,-69.0
2023-12-20 14:01:35.382941,-57.0
2023-12-20 14:01:35.390630,-52.0
2023-12-20 14:01:35.398319,-57.0
2023-12-20 14:01:35.406008,-47.0
2023-12-20 14:01:35.413697,-42.0
2023-12-20 14:01:35.421386,-57.0
2023-12-20 14:01:35.429075,-76.0
2023-12-20 14:01:35.436764,-78.0
2023-12-20 14:01:35.444453,-66.0
2023-12-20 14:01:35.452142,-59.0
2023-12-20 14:01:35.459831,-54.0
2023-12-20 14:01:35.467520,-47.0
2023-12-20 14:01:35.475209,-38.0
2023-12-20 14:01:35.482898,-33.0
2023-12-20 14:01:35.490587,-30.0
2023-12-20 14:01:35.498276,-21.0
2023-12-20 14:01:35.505965,-28.0
2023-12-20 14:01:35.513654,-40.0
2023-12-20 14:01:35.521343,-42.0
2023-12-20 14:01:35.529032,-52.0
2023-12-20 14:01:35.536721,-126.0
2023-12-20 14:01:35.544410,-317.0
2023-12-20 14:01:35.552099,-472.0
2023-12-20 14:01:35.559788,-290.0
2023-12-20 14:01:35.567477,107.0
2023-12-20 14:01:35.575166,290.0
2023-12-20 14:01:35.582855,257.0
2023-12-20 14:01:35.590544,202.0
2023-12-20 14:01:35.598233,95.0
2023-12-20 14:01:35.605922,-40.0
2023-12-20 14:01:35.613611,-88.0
2023-12-20 14:01:35.621300,-71.0
2023-12-20 14:01:35.628989,-73.0
2023-12-20 14:01:35.636678,-81.0
2023-12-20 14:01:35.644367,-73.0
2023-12-20 14:01:35.652056,-64.0
2023-12-20 14:01:35.659745,-69.0
2023-12-20 14:01:35.667434,-71.0
2023-12-20 14:01:35.675123,-71.0
2023-12-20 14:01:35.682812,-81.0
2023-12-20 14:01:35.690501,-102.0
2023-12-20 14:01:35.698190,-109.0
2023-12-20 14:01:35.705879,-112.0
2023-12-20 14:01:35.713568,-121.0
2023-12-20 14:01:35.721256,-114.0
2023-12-20 14:01:35.728945,-109.0
2023-12-20 14:01:35.736634,-116.0
2023-12-20 14:01:35.744323,-116.0
2023-12-20 14:01:35.752012,-116.0
2023-12-20 14:01:35.759701,-121.0
2023-12-20 14:01:35.767390,-114.0
2023-12-20 14:01:35.775079,-107.0
2023-12-20 14:01:35.782768,-104.0
2023-12-20 14:01:35.790457,-88.0
2023-12-20 14:01:35.798146,-59.0
2023-12-20 14:01:35.805835,-42.0
2023-12-20 14:01:35.813524,-30.0
2023-12-20 14:01:35.821213,-23.0
2023-12-20 14:01:35.828902,-16.0
2023-12-20 14:01:35.836591,-4.0
2023-12-20 14:01:35.844280,-7.0
2023-12-20 14:01:35.851969,-19.0
2023-12-20 14:01:35.859658,-16.0
2023-12-20 14:01:35.867347,-11.0
2023-12-20 14:01:35.875036,-33.0
2023-12-20 14:01:35.882725,-54.0
2023-12-20 14:01:35.890414,-50.0
2023-12-20 14:01:35.898103,-35.0
2023-12-20 14:01:35.905792,-40.0
2023-12-20 14:01:35.913481,-64.0
2023-12-20 14:01:35.921170,-73.0
2023-12-20 14:01:35.928859,-61.0
2023-12-20 14:01:35.936548,-59.0
2023-12-20 14:01:35.944237,-64.0
2023-12-20 14:01:35.951926,-50.0
2023-12-20 14:01:35.959615,-45.0
2023-12-20 14:01:35.967304,-50.0
2023-12-20 14:01:35.974993,-45.0
2023-12-20 14:01:35.982682,-42.0
2023-12-20 14:01:35.990371,-50.0
2023-12-20 14:01:35.998060,-64.0
2023-12-20 14:01:36.005749,-73.0
2023-12-20 14:01:36.013438,-73.0
2023-12-20 14:01:36.021127,-66.0
2023-12-20 14:01:36.028816,-57.0
2023-12-20 14:01:36.036505,-40.0
2023-12-20 14:01:36.044194,-30.0
2023-12-20 14:01:36.051883,-33.0
2023-12-20 14:01:36.059572,-33.0
2023-12-20 14:01:36.067261,-26.0
2023-12-20 14:01:36.074950,-23.0
2023-12-20 14:01:36.082639,-30.0
2023-12-20 14:01:36.090328,-28.0
2023-12-20 14:01:36.098017,-21.0
2023-12-20 14:01:36.105706,-71.0
2023-12-20 14:01:36.113395,-240.0
2023-12-20 14:01:36.121084,-431.0
2023-12-20 14:01:36.128773,-371.0
2023-12-20 14:01:36.136462,-9.0
2023-12-20 14:01:36.144151,274.0
2023-12-20 14:01:36.151840,278.0
2023-12-20 14:01:36.159529,195.0
2023-12-20 14:01:36.167218,100.0
2023-12-20 14:01:36.174907,-14.0
2023-12-20 14:01:36.182596,-66.0
2023-12-20 14:01:36.190285,-59.0
2023-12-20 14:01:36.197974,-59.0
2023-12-20 14:01:36.205663,-71.0
2023-12-20 14:01:36.213352,-69.0
2023-12-20 14:01:36.221040,-69.0
2023-12-20 14:01:36.228729,-81.0
2023-12-20 14:01:36.236418,-88.0
2023-12-20 14:01:36.244107,-88.0
2023-12-20 14:01:36.251796,-95.0
2023-12-20 14:01:36.259485,-97.0
2023-12-20 14:01:36.267174,-100.0
2023-12-20 14:01:36.274863,-114.0
2023-12-20 14:01:36.282552,-121.0
2023-12-20 14:01:36.290241,-123.0
2023-12-20 14:01:36.297930,-133.0
2023-12-20 14:01:36.305619,-128.0
2023-12-20 14:01:36.313308,-126.0
2023-12-20 14:01:36.320997,-133.0
2023-12-20 14:01:36.328686,-123.0
2023-12-20 14:01:36.336375,-107.0
2023-12-20 14:01:36.344064,-104.0
2023-12-20 14:01:36.351753,-97.0
2023-12-20 14:01:36.359442,-85.0
2023-12-20 14:01:36.367131,-73.0
2023-12-20 14:01:36.374820,-54.0
2023-12-20 14:01:36.382509,-45.0
2023-12-20 14:01:36.390198,-54.0
2023-12-20 14:01:36.397887,-59.0
2023-12-20 14:01:36.405576,-61.0
2023-12-20 14:01:36.413265,-76.0
2023-12-20 14:01:36.420954,-69.0
2023-12-20 14:01:36.428643,-61.0
2023-12-20 14:01:36.436332,-66.0
2023-12-20 14:01:36.444021,-57.0
2023-12-20 14:01:36.451710,-54.0
2023-12-20 14:01:36.459399,-57.0
2023-12-20 14:01:36.467088,-54.0
2023-12-20 14:01:36.474777,-52.0
2023-12-20 14:01:36.482466,-50.0
2023-12-20 14:01:36.490155,-59.0
2023-12-20 14:01:36.497844,-76.0
2023-12-20 14:01:36.505533,-78.0
2023-12-20 14:01:36.513222,-59.0
2023-12-20 14:01:36.520911,-45.0
2023-12-20 14:01:36.528600,-42.0
2023-12-20 14:01:36.536289,-52.0
2023-12-20 14:01:36.543978,-57.0
2023-12-20 14:01:36.551667,-52.0
2023-12-20 14:01:36.559356,-42.0
2023-12-20 14:01:36.567045,-33.0
2023-12-20 14:01:36.574734,-35.0
2023-12-20 14:01:36.582423,-52.0
2023-12-20 14:01:36.590112,-66.0
2023-12-20 14:01:36.597801,-61.0
2023-12-20 14:01:36.605490,-52.0
2023-12-20 14:01:36.613179,-42.0
2023-12-20 14:01:36.620868,-30.0
2023-12-20 14:01:36.628557,-23.0
2023-12-20 14:01:36.636246,-19.0
2023-12-20 14:01:36.643935,-19.0
2023-12-20 14:01:36.651624,-23.0
2023-12-20 14:01:36.659313,-21.0
2023-12-20 14:01:36.667002,-16.0
2023-12-20 14:01:36.674691,-23.0
2023-12-20 14:01:36.682380,-78.0
2023-12-20 14:01:36.690069,-226.0
2023-12-20 14:01:36.697758,-393.0
2023-12-20 14:01:36.705447,-317.0
2023-12-20 14:01:36.713136,33.0
2023-12-20 14:01:36.720824,278.0
2023-12-20 14:01:36.728513,262.0
2023-12-20 14:01:36.736202,181.0
2023-12-20 14:01:36.743891,90.0
2023-12-20 14:01:36.751580,-26.0
2023-12-20 14:01:36.759269,-88.0
2023-12-20 14:01:36.766958,-81.0
2023-12-20 14:01:36.774647,-76.0
2023-12-20 14:01:36.782336,-83.0
2023-12-20 14:01:36.790025,-76.0
2023-12-20 14:01:36.797714,-69.0
2023-12-20 14:01:36.805403,-76.0
2023-12-20 14:01:36.813092,-83.0
2023-12-20 14:01:36.820781,-81.0
2023-12-20 14:01:36.828470,-81.0
2023-12-20 14:01:36.836159,-90.0
2023-12-20 14:01:36.843848,-100.0
2023-12-20 14:01:36.851537,-100.0
2023-12-20 14:01:36.859226,-104.0
2023-12-20 14:01:36.866915,-119.0
2023-12-20 14:01:36.874604,-123.0
2023-12-20 14:01:36.882293,-133.0
2023-12-20 14:01:36.889982,-150.0
2023-12-20 14:01:36.897671,-150.0
2023-12-20 14:01:36.905360,-135.0
2023-12-20 14:01:36.913049,-128.0
2023-12-20 14:01:36.920738,-121.0
2023-12-20 14:01:36.928427,-104.0
2023-12-20 14:01:36.936116,-95.0
2023-12-20 14:01:36.943805,-90.0
2023-12-20 14:01:36.951494,-73.0
2023-12-20 14:01:36.959183,-52.0
2023-12-20 14:01:36.966872,-35.0
2023-12-20 14:01:36.974561,-28.0
2023-12-20 14:01:36.982250,-30.0
2023-12-20 14:01:36.989939,-59.0
2023-12-20 14:01:36.997628,-88.0
2023-12-20 14:01:37.005317,-78.0
2023-12-20 14:01:37.013006,-57.0
2023-12-20 14:01:37.020695,-57.0
2023-12-20 14:01:37.028384,-66.0
2023-12-20 14:01:37.036073,-85.0
2023-12-20 14:01:37.043762,-102.0
2023-12-20 14:01:37.051451,-85.0
2023-12-20 14:01:37.059140,-71.0
2023-12-20 14:01:37.066829,-76.0
2023-12-20 14:01:37.074518,-78.0
2023-12-20 14:01:37.082207,-88.0
2023-12-20 14:01:37.089896,-107.0
2023-12-20 14:01:37.097585,-107.0
2023-12-20 14:01:37.105274,-90.0
2023-12-20 14:01:37.112963,-73.0
2023-12-20 14:01:37.120652,-69.0
2023-12-20 14:01:37.128341,-71.0
2023-12-20 14:01:37.136030,-71.0
2023-12-20 14:01:37.143719,-64.0
2023-12-20 14:01:37.151408,-61.0
2023-12-20 14:01:37.159097,-61.0
2023-12-20 14:01:37.166786,-69.0
2023-12-20 14:01:37.174475,-83.0
2023-12-20 14:01:37.182164,-95.0
2023-12-20 14:01:37.189853,-83.0
2023-12-20 14:01:37.197542,-66.0
2023-12-20 14:01:37.205231,-52.0
2023-12-20 14:01:37.212920,-33.0
2023-12-20 14:01:37.220609,-33.0
2023-12-20 14:01:37.228297,-52.0
2023-12-20 14:01:37.235986,-54.0
2023-12-20 14:01:37.243675,-40.0
2023-12-20 14:01:37.251364,-35.0
2023-12-20 14:01:37.259053,-40.0
2023-12-20 14:01:37.266742,-61.0
2023-12-20 14:01:37.274431,-147.0
2023-12-20 14:01:37.282120,-319.0
2023-12-20 14:01:37.289809,-400.0
2023-12-20 14:01:37.297498,-174.0
2023-12-20 14:01:37.305187,166.0
2023-12-20 14:01:37.312876,278.0
2023-12-20 14:01:37.320565,219.0
2023-12-20 14:01:37.328254,135.0
2023-12-20 14:01:37.335943,23.0
2023-12-20 14:01:37.343632,-66.0
2023-12-20 14:01:37.351321,-90.0
2023-12-20 14:01:37.359010,-81.0
2023-12-20 14:01:37.366699,-76.0
2023-12-20 14:01:37.374388,-85.0
2023-12-20 14:01:37.382077,-90.0
2023-12-20 14:01:37.389766,-97.0
2023-12-20 14:01:37.397455,-121.0
2023-12-20 14:01:37.405144,-126.0
2023-12-20 14:01:37.412833,-114.0
2023-12-20 14:01:37.420522,-109.0
2023-12-20 14:01:37.428211,-114.0
2023-12-20 14:01:37.435900,-126.0
2023-12-20 14:01:37.443589,-140.0
2023-12-20 14:01:37.451278,-143.0
2023-12-20 14:01:37.458967,-143.0
2023-12-20 14:01:37.466656,-150.0
2023-12-20 14:01:37.474345,-162.0
2023-12-20 14:01:37.482034,-154.0
2023-12-20 14:01:37.489723,-143.0
2023-12-20 14:01:37.497412,-147.0
2023-12-20 14:01:37.505101,-143.0
2023-12-20 14:01:37.512790,-131.0
2023-12-20 14:01:37.520479,-121.0
2023-12-20 14:01:37.528168,-123.0
2023-12-20 14:01:37.535857,-131.0
2023-12-20 14:01:37.543546,-119.0
2023-12-20 14:01:37.551235,-83.0
2023-12-20 14:01:37.558924,-69.0
2023-12-20 14:01:37.566613,-64.0
2023-12-20 14:01:37.574302,-71.0
2023-12-20 14:01:37.581991,-104.0
2023-12-20 14:01:37.589680,-102.0
2023-12-20 14:01:37.597369,-71.0
2023-12-20 14:01:37.605058,-76.0
2023-12-20 14:01:37.612747,-90.0
2023-12-20 14:01:37.620436,-76.0
2023-12-20 14:01:37.628125,-71.0
2023-12-20 14:01:37.635814,-73.0
2023-12-20 14:01:37.643503,-69.0
2023-12-20 14:01:37.651192,-69.0
2023-12-20 14:01:37.658881,-66.0
2023-12-20 14:01:37.666570,-64.0
2023-12-20 14:01:37.674259,-69.0
2023-12-20 14:01:37.681948,-66.0
2023-12-20 14:01:37.689637,-52.0
2023-12-20 14:01:37.697326,-54.0
2023-12-20 14:01:37.705015,-61.0
2023-12-20 14:01:37.712704,-54.0
2023-12-20 14:01:37.720393,-52.0
2023-12-20 14:01:37.728081,-61.0
2023-12-20 14:01:37.735770,-57.0
2023-12-20 14:01:37.743459,-59.0
2023-12-20 14:01:37.751148,-85.0
2023-12-20 14:01:37.758837,-92.0
2023-12-20 14:01:37.766526,-78.0
2023-12-20 14:01:37.774215,-66.0
2023-12-20 14:01:37.781904,-59.0
2023-12-20 14:01:37.789593,-52.0
2023-12-20 14:01:37.797282,-40.0
2023-12-20 14:01:37.804971,-38.0
2023-12-20 14:01:37.812660,-42.0
2023-12-20 14:01:37.820349,-35.0
2023-12-20 14:01:37.828038,-30.0
2023-12-20 14:01:37.835727,-28.0
2023-12-20 14:01:37.843416,-23.0
2023-12-20 14:01:37.851105,-57.0
2023-12-20 14:01:37.858794,-171.0
2023-12-20 14:01:37.866483,-345.0
2023-12-20 14:01:37.874172,-393.0
2023-12-20 14:01:37.881861,-140.0
2023-12-20 14:01:37.889550,181.0
2023-12-20 14:01:37.897239,252.0
2023-12-20 14:01:37.904928,197.0
2023-12-20 14:01:37.912617,140.0
2023-12-20 14:01:37.920306,14.0
2023-12-20 14:01:37.927995,-92.0
2023-12-20 14:01:37.935684,-97.0
2023-12-20 14:01:37.943373,-85.0
2023-12-20 14:01:37.951062,-102.0
2023-12-20 14:01:37.958751,-102.0
2023-12-20 14:01:37.966440,-90.0
2023-12-20 14:01:37.974129,-112.0
2023-12-20 14:01:37.981818,-131.0
2023-12-20 14:01:37.989507,-119.0
2023-12-20 14:01:37.997196,-112.0
2023-12-20 14:01:38.004885,-114.0
2023-12-20 14:01:38.012574,-114.0
2023-12-20 14:01:38.020263,-128.0
2023-12-20 14:01:38.027952,-145.0
2023-12-20 14:01:38.035641,-140.0
2023-12-20 14:01:38.043330,-133.0
2023-12-20 14:01:38.051019,-133.0
2023-12-20 14:01:38.058708,-133.0
2023-12-20 14:01:38.066397,-147.0
2023-12-20 14:01:38.074086,-166.0
2023-12-20 14:01:38.081775,-164.0
2023-12-20 14:01:38.089464,-154.0
2023-12-20 14:01:38.097153,-150.0
2023-12-20 14:01:38.104842,-145.0
2023-12-20 14:01:38.112531,-140.0
2023-12-20 14:01:38.120220,-140.0
2023-12-20 14:01:38.127909,-119.0
2023-12-20 14:01:38.135598,-92.0
2023-12-20 14:01:38.143287,-81.0
2023-12-20 14:01:38.150976,-76.0
2023-12-20 14:01:38.158665,-73.0
2023-12-20 14:01:38.166354,-71.0
2023-12-20 14:01:38.174043,-61.0
2023-12-20 14:01:38.181732,-57.0
2023-12-20 14:01:38.189421,-57.0
2023-12-20 14:01:38.197110,-64.0
2023-12-20 14:01:38.204799,-69.0
2023-12-20 14:01:38.212488,-69.0
2023-12-20 14:01:38.220177,-76.0
2023-12-20 14:01:38.227865,-71.0
2023-12-20 14:01:38.235554,-57.0
2023-12-20 14:01:38.243243,-57.0
2023-12-20 14:01:38.250932,-64.0
2023-12-20 14:01:38.258621,-61.0
2023-12-20 14:01:38.266310,-57.0
2023-12-20 14:01:38.273999,-50.0
2023-12-20 14:01:38.281688,-42.0
2023-12-20 14:01:38.289377,-42.0
2023-12-20 14:01:38.297066,-45.0
2023-12-20 14:01:38.304755,-47.0
2023-12-20 14:01:38.312444,-47.0
2023-12-20 14:01:38.320133,-40.0
2023-12-20 14:01:38.327822,-40.0
2023-12-20 14:01:38.335511,-57.0
2023-12-20 14:01:38.343200,-71.0
2023-12-20 14:01:38.350889,-66.0
2023-12-20 14:01:38.358578,-54.0
2023-12-20 14:01:38.366267,-47.0
2023-12-20 14:01:38.373956,-40.0
2023-12-20 14:01:38.381645,-33.0
2023-12-20 14:01:38.389334,-47.0
2023-12-20 14:01:38.397023,-57.0
2023-12-20 14:01:38.404712,-45.0
2023-12-20 14:01:38.412401,-35.0
2023-12-20 14:01:38.420090,-33.0
2023-12-20 14:01:38.427779,-33.0
2023-12-20 14:01:38.435468,-47.0
2023-12-20 14:01:38.443157,-114.0
2023-12-20 14:01:38.450846,-269.0
2023-12-20 14:01:38.458535,-445.0
2023-12-20 14:01:38.466224,-352.0
2023-12-20 14:01:38.473913,35.0
2023-12-20 14:01:38.481602,276.0
2023-12-20 14:01:38.489291,250.0
2023-12-20 14:01:38.496980,188.0
2023-12-20 14:01:38.504669,97.0
2023-12-20 14:01:38.512358,-28.0
2023-12-20 14:01:38.520047,-85.0
2023-12-20 14:01:38.527736,-85.0
2023-12-20 14:01:38.535425,-81.0
2023-12-20 14:01:38.543114,-81.0
2023-12-20 14:01:38.550803,-78.0
2023-12-20 14:01:38.558492,-76.0
2023-12-20 14:01:38.566181,-83.0
2023-12-20 14:01:38.573870,-85.0
2023-12-20 14:01:38.581559,-85.0
2023-12-20 14:01:38.589248,-88.0
2023-12-20 14:01:38.596937,-90.0
2023-12-20 14:01:38.604626,-92.0
2023-12-20 14:01:38.612315,-95.0
2023-12-20 14:01:38.620004,-107.0
2023-12-20 14:01:38.627693,-126.0
2023-12-20 14:01:38.635382,-135.0
2023-12-20 14:01:38.643071,-121.0
2023-12-20 14:01:38.650760,-114.0
2023-12-20 14:01:38.658449,-135.0
2023-12-20 14:01:38.666138,-145.0
2023-12-20 14:01:38.673827,-126.0
2023-12-20 14:01:38.681516,-114.0
2023-12-20 14:01:38.689205,-107.0
2023-12-20 14:01:38.696894,-90.0
2023-12-20 14:01:38.704583,-95.0
2023-12-20 14:01:38.712272,-92.0
2023-12-20 14:01:38.719961,-57.0
2023-12-20 14:01:38.727650,-30.0
2023-12-20 14:01:38.735338,-38.0
2023-12-20 14:01:38.743027,-33.0
2023-12-20 14:01:38.750716,-23.0
2023-12-20 14:01:38.758405,-33.0
2023-12-20 14:01:38.766094,-30.0
2023-12-20 14:01:38.773783,-19.0
2023-12-20 14:01:38.781472,-23.0
2023-12-20 14:01:38.789161,-28.0
2023-12-20 14:01:38.796850,-33.0
2023-12-20 14:01:38.804539,-30.0
2023-12-20 14:01:38.812228,-28.0
2023-12-20 14:01:38.819917,-30.0
2023-12-20 14:01:38.827606,-19.0
2023-12-20 14:01:38.835295,-14.0
2023-12-20 14:01:38.842984,-28.0
2023-12-20 14:01:38.850673,-30.0
2023-12-20 14:01:38.858362,-23.0
2023-12-20 14:01:38.866051,-16.0
2023-12-20 14:01:38.873740,-4.0
2023-12-20 14:01:38.881429,-4.0
2023-12-20 14:01:38.889118,-26.0
2023-12-20 14:01:38.896807,-42.0
2023-12-20 14:01:38.904496,-50.0
2023-12-20 14:01:38.912185,-50.0
2023-12-20 14:01:38.919874,-45.0
2023-12-20 14:01:38.927563,-54.0
2023-12-20 14:01:38.935252,-71.0
2023-12-20 14:01:38.942941,-69.0
2023-12-20 14:01:38.950630,-59.0
2023-12-20 14:01:38.958319,-54.0
2023-12-20 14:01:38.966008,-35.0
2023-12-20 14:01:38.973697,-21.0
2023-12-20 14:01:38.981386,-38.0
2023-12-20 14:01:38.989075,-47.0
2023-12-20 14:01:38.996764,-28.0
2023-12-20 14:01:39.004453,-14.0
2023-12-20 14:01:39.012142,-21.0
2023-12-20 14:01:39.019831,-28.0
2023-12-20 14:01:39.027520,-83.0
2023-12-20 14:01:39.035209,-245.0
2023-12-20 14:01:39.042898,-417.0
2023-12-20 14:01:39.050587,-312.0
2023-12-20 14:01:39.058276,47.0
2023-12-20 14:01:39.065965,271.0
2023-12-20 14:01:39.073654,262.0
2023-12-20 14:01:39.081343,195.0
2023-12-20 14:01:39.089032,95.0
2023-12-20 14:01:39.096721,-16.0
2023-12-20 14:01:39.104410,-64.0
2023-12-20 14:01:39.112099,-47.0
2023-12-20 14:01:39.119788,-47.0
2023-12-20 14:01:39.127477,-69.0
2023-12-20 14:01:39.135166,-71.0
2023-12-20 14:01:39.142855,-64.0
2023-12-20 14:01:39.150544,-73.0
2023-12-20 14:01:39.158233,-76.0
2023-12-20 14:01:39.165922,-71.0
2023-12-20 14:01:39.173611,-73.0
2023-12-20 14:01:39.181300,-76.0
2023-12-20 14:01:39.188989,-83.0
2023-12-20 14:01:39.196678,-95.0
2023-12-20 14:01:39.204367,-112.0
2023-12-20 14:01:39.212056,-128.0
2023-12-20 14:01:39.219745,-126.0
2023-12-20 14:01:39.227434,-109.0
2023-12-20 14:01:39.235122,-114.0
2023-12-20 14:01:39.242811,-145.0
2023-12-20 14:01:39.250500,-162.0
2023-12-20 14:01:39.258189,-140.0
2023-12-20 14:01:39.265878,-123.0
2023-12-20 14:01:39.273567,-112.0
2023-12-20 14:01:39.281256,-90.0
2023-12-20 14:01:39.288945,-85.0
2023-12-20 14:01:39.296634,-73.0
2023-12-20 14:01:39.304323,-50.0
2023-12-20 14:01:39.312012,-33.0
2023-12-20 14:01:39.319701,-33.0
2023-12-20 14:01:39.327390,-28.0
2023-12-20 14:01:39.335079,-21.0
2023-12-20 14:01:39.342768,-19.0
2023-12-20 14:01:39.350457,-23.0
2023-12-20 14:01:39.358146,-26.0
2023-12-20 14:01:39.365835,-21.0
2023-12-20 14:01:39.373524,-30.0
2023-12-20 14:01:39.381213,-35.0
2023-12-20 14:01:39.388902,-21.0
2023-12-20 14:01:39.396591,-23.0
2023-12-20 14:01:39.404280,-54.0
2023-12-20 14:01:39.411969,-73.0
2023-12-20 14:01:39.419658,-59.0
2023-12-20 14:01:39.427347,-57.0
2023-12-20 14:01:39.435036,-61.0
2023-12-20 14:01:39.442725,-54.0
2023-12-20 14:01:39.450414,-57.0
2023-12-20 14:01:39.458103,-54.0
2023-12-20 14:01:39.465792,-42.0
2023-12-20 14:01:39.473481,-52.0
2023-12-20 14:01:39.481170,-61.0
2023-12-20 14:01:39.488859,-57.0
2023-12-20 14:01:39.496548,-54.0
2023-12-20 14:01:39.504237,-50.0
2023-12-20 14:01:39.511926,-52.0
2023-12-20 14:01:39.519615,-71.0
2023-12-20 14:01:39.527304,-66.0
2023-12-20 14:01:39.534993,-47.0
2023-12-20 14:01:39.542682,-47.0
2023-12-20 14:01:39.550371,-35.0
2023-12-20 14:01:39.558060,-16.0
2023-12-20 14:01:39.565749,-26.0
2023-12-20 14:01:39.573438,-33.0
2023-12-20 14:01:39.581127,-21.0
2023-12-20 14:01:39.588816,-21.0
2023-12-20 14:01:39.596505,-28.0
2023-12-20 14:01:39.604194,-35.0
2023-12-20 14:01:39.611883,-78.0
2023-12-20 14:01:39.619572,-221.0
2023-12-20 14:01:39.627261,-386.0
2023-12-20 14:01:39.634950,-317.0
2023-12-20 14:01:39.642639,19.0
2023-12-20 14:01:39.650328,267.0
2023-12-20 14:01:39.658017,271.0
2023-12-20 14:01:39.665706,193.0
2023-12-20 14:01:39.673395,97.0
2023-12-20 14:01:39.681084,-9.0
2023-12-20 14:01:39.688773,-69.0
2023-12-20 14:01:39.696462,-73.0
2023-12-20 14:01:39.704151,-71.0
2023-12-20 14:01:39.711840,-73.0
2023-12-20 14:01:39.719529,-76.0
2023-12-20 14:01:39.727218,-78.0
2023-12-20 14:01:39.734906,-85.0
2023-12-20 14:01:39.742595,-85.0
2023-12-20 14:01:39.750284,-76.0
2023-12-20 14:01:39.757973,-83.0
2023-12-20 14:01:39.765662,-107.0
2023-12-20 14:01:39.773351,-121.0
2023-12-20 14:01:39.781040,-138.0
2023-12-20 14:01:39.788729,-164.0
2023-12-20 14:01:39.796418,-152.0
2023-12-20 14:01:39.804107,-128.0
2023-12-20 14:01:39.811796,-128.0
2023-12-20 14:01:39.819485,-135.0
2023-12-20 14:01:39.827174,-140.0
2023-12-20 14:01:39.834863,-133.0
2023-12-20 14:01:39.842552,-119.0
2023-12-20 14:01:39.850241,-109.0
2023-12-20 14:01:39.857930,-104.0
2023-12-20 14:01:39.865619,-95.0
2023-12-20 14:01:39.873308,-83.0
2023-12-20 14:01:39.880997,-64.0
2023-12-20 14:01:39.888686,-45.0
2023-12-20 14:01:39.896375,-33.0
2023-12-20 14:01:39.904064,-38.0
2023-12-20 14:01:39.911753,-52.0
2023-12-20 14:01:39.919442,-57.0
2023-12-20 14:01:39.927131,-47.0
2023-12-20 14:01:39.934820,-42.0
2023-12-20 14:01:39.942509,-57.0
2023-12-20 14:01:39.950198,-61.0
2023-12-20 14:01:39.957887,-57.0
2023-12-20 14:01:39.965576,-59.0
2023-12-20 14:01:39.973265,-59.0
2023-12-20 14:01:39.980954,-45.0
2023-12-20 14:01:39.988643,-40.0
2023-12-20 14:01:39.996332,-50.0
2023-12-20 14:01:40.004021,-50.0
2023-12-20 14:01:40.011710,-45.0
2023-12-20 14:01:40.019399,-42.0
2023-12-20 14:01:40.027088,-42.0
2023-12-20 14:01:40.034777,-40.0
2023-12-20 14:01:40.042466,-38.0
2023-12-20 14:01:40.050155,-35.0
2023-12-20 14:01:40.057844,-38.0
2023-12-20 14:01:40.065533,-38.0
2023-12-20 14:01:40.073222,-40.0
2023-12-20 14:01:40.080911,-40.0
2023-12-20 14:01:40.088600,-40.0
2023-12-20 14:01:40.096289,-57.0
2023-12-20 14:01:40.103978,-71.0
2023-12-20 14:01:40.111667,-59.0
2023-12-20 14:01:40.119356,-52.0
2023-12-20 14:01:40.127045,-54.0
2023-12-20 14:01:40.134734,-28.0
2023-12-20 14:01:40.142423,-7.0
2023-12-20 14:01:40.150112,-26.0
2023-12-20 14:01:40.157801,-38.0
2023-12-20 14:01:40.165490,-28.0
2023-12-20 14:01:40.173179,-33.0
2023-12-20 14:01:40.180868,-40.0
2023-12-20 14:01:40.188557,-40.0
2023-12-20 14:01:40.196246,-52.0
2023-12-20 14:01:40.203935,-121.0
2023-12-20 14:01:40.211624,-283.0
2023-12-20 14:01:40.219313,-400.0
2023-12-20 14:01:40.227002,-231.0
2023-12-20 14:01:40.234691,112.0
2023-12-20 14:01:40.242379,271.0
2023-12-20 14:01:40.250068,240.0
2023-12-20 14:01:40.257757,171.0
2023-12-20 14:01:40.265446,61.0
2023-12-20 14:01:40.273135,-52.0
2023-12-20 14:01:40.280824,-81.0
2023-12-20 14:01:40.288513,-61.0
2023-12-20 14:01:40.296202,-73.0
2023-12-20 14:01:40.303891,-95.0
2023-12-20 14:01:40.311580,-92.0
2023-12-20 14:01:40.319269,-95.0
2023-12-20 14:01:40.326958,-104.0
2023-12-20 14:01:40.334647,-102.0
2023-12-20 14:01:40.342336,-102.0
2023-12-20 14:01:40.350025,-112.0
2023-12-20 14:01:40.357714,-128.0
2023-12-20 14:01:40.365403,-157.0
2023-12-20 14:01:40.373092,-176.0
2023-12-20 14:01:40.380781,-164.0
2023-12-20 14:01:40.388470,-150.0
2023-12-20 14:01:40.396159,-159.0
2023-12-20 14:01:40.403848,-166.0
2023-12-20 14:01:40.411537,-174.0
2023-12-20 14:01:40.419226,-178.0
2023-12-20 14:01:40.426915,-169.0
2023-12-20 14:01:40.434604,-162.0
2023-12-20 14:01:40.442293,-154.0
2023-12-20 14:01:40.449982,-145.0
2023-12-20 14:01:40.457671,-145.0
2023-12-20 14:01:40.465360,-133.0
2023-12-20 14:01:40.473049,-97.0
2023-12-20 14:01:40.480738,-71.0
2023-12-20 14:01:40.488427,-61.0
2023-12-20 14:01:40.496116,-59.0
2023-12-20 14:01:40.503805,-61.0
2023-12-20 14:01:40.511494,-59.0
2023-12-20 14:01:40.519183,-47.0
2023-12-20 14:01:40.526872,-42.0
2023-12-20 14:01:40.534561,-54.0
2023-12-20 14:01:40.542250,-59.0
2023-12-20 14:01:40.549939,-59.0
2023-12-20 14:01:40.557628,-57.0
2023-12-20 14:01:40.565317,-54.0
2023-12-20 14:01:40.573006,-52.0
2023-12-20 14:01:40.580695,-47.0
2023-12-20 14:01:40.588384,-42.0
2023-12-20 14:01:40.596073,-47.0
2023-12-20 14:01:40.603762,-47.0
2023-12-20 14:01:40.611451,-47.0
2023-12-20 14:01:40.619140,-47.0
2023-12-20 14:01:40.626829,-35.0
2023-12-20 14:01:40.634518,-33.0
2023-12-20 14:01:40.642207,-45.0
2023-12-20 14:01:40.649896,-50.0
2023-12-20 14:01:40.657585,-47.0
2023-12-20 14:01:40.665274,-45.0
2023-12-20 14:01:40.672963,-57.0
2023-12-20 14:01:40.680652,-73.0
2023-12-20 14:01:40.688341,-81.0
2023-12-20 14:01:40.696030,-81.0
2023-12-20 14:01:40.703719,-78.0
2023-12-20 14:01:40.711408,-57.0
2023-12-20 14:01:40.719097,-30.0
2023-12-20 14:01:40.726786,-35.0
2023-12-20 14:01:40.734475,-50.0
2023-12-20 14:01:40.742163,-45.0
2023-12-20 14:01:40.749852,-45.0
2023-12-20 14:01:40.757541,-52.0
2023-12-20 14:01:40.765230,-50.0
2023-12-20 14:01:40.772919,-52.0
2023-12-20 14:01:40.780608,-107.0
2023-12-20 14:01:40.788297,-262.0
2023-12-20 14:01:40.795986,-431.0
2023-12-20 14:01:40.803675,-340.0
2023-12-20 14:01:40.811364,28.0
2023-12-20 14:01:40.819053,269.0
2023-12-20 14:01:40.826742,250.0
2023-12-20 14:01:40.834431,188.0
2023-12-20 14:01:40.842120,102.0
2023-12-20 14:01:40.849809,-21.0
2023-12-20 14:01:40.857498,-83.0
2023-12-20 14:01:40.865187,-76.0
2023-12-20 14:01:40.872876,-81.0
2023-12-20 14:01:40.880565,-97.0
2023-12-20 14:01:40.888254,-90.0
2023-12-20 14:01:40.895943,-83.0
2023-12-20 14:01:40.903632,-116.0
2023-12-20 14:01:40.911321,-154.0
2023-12-20 14:01:40.919010,-171.0
2023-12-20 14:01:40.926699,-181.0
2023-12-20 14:01:40.934388,-183.0
2023-12-20 14:01:40.942077,-174.0
2023-12-20 14:01:40.949766,-174.0
2023-12-20 14:01:40.957455,-178.0
2023-12-20 14:01:40.965144,-174.0
2023-12-20 14:01:40.972833,-176.0
2023-12-20 14:01:40.980522,-181.0
2023-12-20 14:01:40.988211,-164.0
2023-12-20 14:01:40.995900,-152.0
2023-12-20 14:01:41.003589,-157.0
2023-12-20 14:01:41.011278,-152.0
2023-12-20 14:01:41.018967,-140.0
2023-12-20 14:01:41.026656,-135.0
2023-12-20 14:01:41.034345,-123.0
2023-12-20 14:01:41.042034,-100.0
2023-12-20 14:01:41.049723,-85.0
2023-12-20 14:01:41.057412,-73.0
2023-12-20 14:01:41.065101,-52.0
2023-12-20 14:01:41.072790,-40.0
2023-12-20 14:01:41.080479,-47.0
2023-12-20 14:01:41.088168,-52.0
2023-12-20 14:01:41.095857,-47.0
2023-12-20 14:01:41.103546,-42.0
2023-12-20 14:01:41.111235,-42.0
2023-12-20 14:01:41.118924,-40.0
2023-12-20 14:01:41.126613,-40.0
2023-12-20 14:01:41.134302,-42.0
2023-12-20 14:01:41.141991,-42.0
2023-12-20 14:01:41.149680,-50.0
2023-12-20 14:01:41.157369,-47.0
2023-12-20 14:01:41.165058,-40.0
2023-12-20 14:01:41.172747,-59.0
2023-12-20 14:01:41.180436,-69.0
2023-12-20 14:01:41.188125,-52.0
2023-12-20 14:01:41.195814,-42.0
2023-12-20 14:01:41.203503,-47.0
2023-12-20 14:01:41.211192,-50.0
2023-12-20 14:01:41.218881,-45.0
2023-12-20 14:01:41.226570,-40.0
2023-12-20 14:01:41.234259,-40.0
2023-12-20 14:01:41.241947,-52.0
2023-12-20 14:01:41.249636,-59.0
2023-12-20 14:01:41.257325,-57.0
2023-12-20 14:01:41.265014,-59.0
2023-12-20 14:01:41.272703,-59.0
2023-12-20 14:01:41.280392,-42.0
2023-12-20 14:01:41.288081,-21.0
2023-12-20 14:01:41.295770,-16.0
2023-12-20 14:01:41.303459,-21.0
2023-12-20 14:01:41.311148,-23.0
2023-12-20 14:01:41.318837,-21.0
2023-12-20 14:01:41.326526,-23.0
2023-12-20 14:01:41.334215,-23.0
2023-12-20 14:01:41.341904,-26.0
2023-12-20 14:01:41.349593,-78.0
2023-12-20 14:01:41.357282,-228.0
2023-12-20 14:01:41.364971,-410.0
2023-12-20 14:01:41.372660,-362.0
2023-12-20 14:01:41.380349,-9.0
2023-12-20 14:01:41.388038,271.0
2023-12-20 14:01:41.395727,286.0
2023-12-20 14:01:41.403416,224.0
2023-12-20 14:01:41.411105,135.0
2023-12-20 14:01:41.418794,-9.0
2023-12-20 14:01:41.426483,-112.0
2023-12-20 14:01:41.434172,-121.0
2023-12-20 14:01:41.441861,-112.0
2023-12-20 14:01:41.449550,-135.0
2023-12-20 14:01:41.457239,-145.0
2023-12-20 14:01:41.464928,-126.0
2023-12-20 14:01:41.472617,-128.0
2023-12-20 14:01:41.480306,-133.0
2023-12-20 14:01:41.487995,-126.0
2023-12-20 14:01:41.495684,-150.0
2023-12-20 14:01:41.503373,-174.0
2023-12-20 14:01:41.511062,-162.0
2023-12-20 14:01:41.518751,-157.0
2023-12-20 14:01:41.526440,-178.0
2023-12-20 14:01:41.534129,-190.0
2023-12-20 14:01:41.541818,-171.0
2023-12-20 14:01:41.549507,-145.0
2023-12-20 14:01:41.557196,-143.0
2023-12-20 14:01:41.564885,-150.0
2023-12-20 14:01:41.572574,-143.0
2023-12-20 14:01:41.580263,-135.0
2023-12-20 14:01:41.587952,-128.0
2023-12-20 14:01:41.595641,-107.0
2023-12-20 14:01:41.603330,-95.0
2023-12-20 14:01:41.611019,-92.0
2023-12-20 14:01:41.618708,-83.0
2023-12-20 14:01:41.626397,-59.0
2023-12-20 14:01:41.634086,-40.0
2023-12-20 14:01:41.641775,-33.0
2023-12-20 14:01:41.649464,-26.0
2023-12-20 14:01:41.657153,-28.0
2023-12-20 14:01:41.664842,-47.0
2023-12-20 14:01:41.672531,-50.0
2023-12-20 14:01:41.680220,-33.0
2023-12-20 14:01:41.687909,-30.0
2023-12-20 14:01:41.695598,-33.0
2023-12-20 14:01:41.703287,-28.0
2023-12-20 14:01:41.710976,-35.0
2023-12-20 14:01:41.718665,-42.0
2023-12-20 14:01:41.726354,-35.0
2023-12-20 14:01:41.734043,-35.0
2023-12-20 14:01:41.741732,-35.0
2023-12-20 14:01:41.749420,-28.0
2023-12-20 14:01:41.757109,-30.0
2023-12-20 14:01:41.764798,-28.0
2023-12-20 14:01:41.772487,-21.0
2023-12-20 14:01:41.780176,-19.0
2023-12-20 14:01:41.787865,-16.0
2023-12-20 14:01:41.795554,-14.0
2023-12-20 14:01:41.803243,-19.0
2023-12-20 14:01:41.810932,-30.0
2023-12-20 14:01:41.818621,-45.0
2023-12-20 14:01:41.826310,-45.0
2023-12-20 14:01:41.833999,-35.0
2023-12-20 14:01:41.841688,-33.0
2023-12-20 14:01:41.849377,-38.0
2023-12-20 14:01:41.857066,-26.0
2023-12-20 14:01:41.864755,-9.0
2023-12-20 14:01:41.872444,-4.0
2023-12-20 14:01:41.880133,0.0
2023-12-20 14:01:41.887822,7.0
2023-12-20 14:01:41.895511,-2.0
2023-12-20 14:01:41.903200,-23.0
2023-12-20 14:01:41.910889,-28.0
2023-12-20 14:01:41.918578,-42.0
2023-12-20 14:01:41.926267,-171.0
2023-12-20 14:01:41.933956,-393.0
2023-12-20 14:01:41.941645,-429.0
2023-12-20 14:01:41.949334,-114.0
2023-12-20 14:01:41.957023,221.0
2023-12-20 14:01:41.964712,274.0
2023-12-20 14:01:41.972401,207.0
2023-12-20 14:01:41.980090,131.0
2023-12-20 14:01:41.987779,-16.0
2023-12-20 14:01:41.995468,-138.0
2023-12-20 14:01:42.003157,-128.0
2023-12-20 14:01:42.010846,-92.0
2023-12-20 14:01:42.018535,-100.0
2023-12-20 14:01:42.026224,-102.0
2023-12-20 14:01:42.033913,-100.0
2023-12-20 14:01:42.041602,-100.0
2023-12-20 14:01:42.049291,-100.0
2023-12-20 14:01:42.056980,-100.0
2023-12-20 14:01:42.064669,-100.0
2023-12-20 14:01:42.072358,-97.0
2023-12-20 14:01:42.080047,-102.0
2023-12-20 14:01:42.087736,-109.0
2023-12-20 14:01:42.095425,-112.0
2023-12-20 14:01:42.103114,-119.0
2023-12-20 14:01:42.110803,-116.0
2023-12-20 14:01:42.118492,-121.0
2023-12-20 14:01:42.126181,-131.0
2023-12-20 14:01:42.133870,-116.0
2023-12-20 14:01:42.141559,-104.0
2023-12-20 14:01:42.149248,-112.0
2023-12-20 14:01:42.156937,-119.0
2023-12-20 14:01:42.164626,-114.0
2023-12-20 14:01:42.172315,-92.0
2023-12-20 14:01:42.180004,-71.0
2023-12-20 14:01:42.187693,-59.0
2023-12-20 14:01:42.195382,-38.0
2023-12-20 14:01:42.203071,-16.0
2023-12-20 14:01:42.210760,-19.0
2023-12-20 14:01:42.218449,-21.0
2023-12-20 14:01:42.226138,-9.0
2023-12-20 14:01:42.233827,-2.0
2023-12-20 14:01:42.241516,-7.0
2023-12-20 14:01:42.249204,-7.0
2023-12-20 14:01:42.256893,-11.0
2023-12-20 14:01:42.264582,-30.0
2023-12-20 14:01:42.272271,-21.0
2023-12-20 14:01:42.279960,4.0
2023-12-20 14:01:42.287649,2.0
2023-12-20 14:01:42.295338,-9.0
2023-12-20 14:01:42.303027,-11.0
2023-12-20 14:01:42.310716,-14.0
2023-12-20 14:01:42.318405,-14.0
2023-12-20 14:01:42.326094,-7.0
2023-12-20 14:01:42.333783,-7.0
2023-12-20 14:01:42.341472,-2.0
2023-12-20 14:01:42.349161,-4.0
2023-12-20 14:01:42.356850,-9.0
2023-12-20 14:01:42.364539,-7.0
2023-12-20 14:01:42.372228,-4.0
2023-12-20 14:01:42.379917,-11.0
2023-12-20 14:01:42.387606,-19.0
2023-12-20 14:01:42.395295,-26.0
2023-12-20 14:01:42.402984,-38.0
2023-12-20 14:01:42.410673,-28.0
2023-12-20 14:01:42.418362,-19.0
2023-12-20 14:01:42.426051,-21.0
2023-12-20 14:01:42.433740,-7.0
2023-12-20 14:01:42.441429,-2.0
2023-12-20 14:01:42.449118,-21.0
2023-12-20 14:01:42.456807,-19.0
2023-12-20 14:01:42.464496,-9.0
2023-12-20 14:01:42.472185,-19.0
2023-12-20 14:01:42.479874,-19.0
2023-12-20 14:01:42.487563,-28.0
2023-12-20 14:01:42.495252,-128.0
2023-12-20 14:01:42.502941,-302.0
2023-12-20 14:01:42.510630,-352.0
2023-12-20 14:01:42.518319,-109.0
2023-12-20 14:01:42.526008,202.0
2023-12-20 14:01:42.533697,288.0
2023-12-20 14:01:42.541386,219.0
2023-12-20 14:01:42.549075,145.0
2023-12-20 14:01:42.556764,47.0
2023-12-20 14:01:42.564453,-40.0
2023-12-20 14:01:42.572142,-66.0
2023-12-20 14:01:42.579831,-64.0
2023-12-20 14:01:42.587520,-64.0
2023-12-20 14:01:42.595209,-66.0
2023-12-20 14:01:42.602898,-69.0
2023-12-20 14:01:42.610587,-78.0
2023-12-20 14:01:42.618276,-97.0
2023-12-20 14:01:42.625965,-112.0
2023-12-20 14:01:42.633654,-104.0
2023-12-20 14:01:42.641343,-102.0
2023-12-20 14:01:42.649032,-116.0
2023-12-20 14:01:42.656721,-133.0
2023-12-20 14:01:42.664410,-128.0
2023-12-20 14:01:42.672099,-121.0
2023-12-20 14:01:42.679788,-133.0
2023-12-20 14:01:42.687477,-138.0
2023-12-20 14:01:42.695166,-123.0
2023-12-20 14:01:42.702855,-133.0
2023-12-20 14:01:42.710544,-147.0
2023-12-20 14:01:42.718233,-140.0
2023-12-20 14:01:42.725922,-128.0
2023-12-20 14:01:42.733611,-123.0
2023-12-20 14:01:42.741300,-102.0
2023-12-20 14:01:42.748988,-76.0
2023-12-20 14:01:42.756677,-59.0
2023-12-20 14:01:42.764366,-52.0
2023-12-20 14:01:42.772055,-47.0
2023-12-20 14:01:42.779744,-33.0
2023-12-20 14:01:42.787433,-19.0
2023-12-20 14:01:42.795122,-21.0
2023-12-20 14:01:42.802811,-30.0
2023-12-20 14:01:42.810500,-33.0
2023-12-20 14:01:42.818189,-23.0
2023-12-20 14:01:42.825878,-23.0
2023-12-20 14:01:42.833567,-30.0
2023-12-20 14:01:42.841256,-28.0
2023-12-20 14:01:42.848945,-30.0
2023-12-20 14:01:42.856634,-38.0
2023-12-20 14:01:42.864323,-38.0
2023-12-20 14:01:42.872012,-30.0
2023-12-20 14:01:42.879701,-23.0
2023-12-20 14:01:42.887390,-23.0
2023-12-20 14:01:42.895079,-38.0
2023-12-20 14:01:42.902768,-50.0
2023-12-20 14:01:42.910457,-47.0
2023-12-20 14:01:42.918146,-35.0
2023-12-20 14:01:42.925835,-28.0
2023-12-20 14:01:42.933524,-33.0
2023-12-20 14:01:42.941213,-54.0
2023-12-20 14:01:42.948902,-83.0
2023-12-20 14:01:42.956591,-92.0
2023-12-20 14:01:42.964280,-83.0
2023-12-20 14:01:42.971969,-71.0
2023-12-20 14:01:42.979658,-73.0
2023-12-20 14:01:42.987347,-76.0
2023-12-20 14:01:42.995036,-59.0
2023-12-20 14:01:43.002725,-45.0
2023-12-20 14:01:43.010414,-42.0
2023-12-20 14:01:43.018103,-45.0
2023-12-20 14:01:43.025792,-40.0
2023-12-20 14:01:43.033481,-30.0
2023-12-20 14:01:43.041170,-33.0
2023-12-20 14:01:43.048859,-45.0
2023-12-20 14:01:43.056548,-61.0
2023-12-20 14:01:43.064237,-135.0
2023-12-20 14:01:43.071926,-295.0
2023-12-20 14:01:43.079615,-379.0
2023-12-20 14:01:43.087304,-166.0
2023-12-20 14:01:43.094993,159.0
2023-12-20 14:01:43.102682,271.0
2023-12-20 14:01:43.110371,228.0
2023-12-20 14:01:43.118060,162.0
2023-12-20 14:01:43.125749,42.0
2023-12-20 14:01:43.133438,-71.0
2023-12-20 14:01:43.141127,-109.0
2023-12-20 14:01:43.148816,-109.0
2023-12-20 14:01:43.156505,-131.0
2023-12-20 14:01:43.164194,-152.0
2023-12-20 14:01:43.171883,-138.0
2023-12-20 14:01:43.179572,-123.0
2023-12-20 14:01:43.187261,-126.0
2023-12-20 14:01:43.194950,-131.0
2023-12-20 14:01:43.202639,-133.0
2023-12-20 14:01:43.210328,-135.0
2023-12-20 14:01:43.218017,-131.0
2023-12-20 14:01:43.225706,-131.0
2023-12-20 14:01:43.233395,-143.0
2023-12-20 14:01:43.241084,-135.0
2023-12-20 14:01:43.248773,-119.0
2023-12-20 14:01:43.256461,-121.0
2023-12-20 14:01:43.264150,-152.0
2023-12-20 14:01:43.271839,-164.0
2023-12-20 14:01:43.279528,-135.0
2023-12-20 14:01:43.287217,-119.0
2023-12-20 14:01:43.294906,-140.0
2023-12-20 14:01:43.302595,-147.0
2023-12-20 14:01:43.310284,-133.0
2023-12-20 14:01:43.317973,-121.0
2023-12-20 14:01:43.325662,-102.0
2023-12-20 14:01:43.333351,-78.0
2023-12-20 14:01:43.341040,-69.0
2023-12-20 14:01:43.348729,-59.0
2023-12-20 14:01:43.356418,-38.0
2023-12-20 14:01:43.364107,-35.0
2023-12-20 14:01:43.371796,-50.0
2023-12-20 14:01:43.379485,-57.0
2023-12-20 14:01:43.387174,-54.0
2023-12-20 14:01:43.394863,-50.0
2023-12-20 14:01:43.402552,-52.0
2023-12-20 14:01:43.410241,-61.0
2023-12-20 14:01:43.417930,-69.0
2023-12-20 14:01:43.425619,-66.0
2023-12-20 14:01:43.433308,-61.0
2023-12-20 14:01:43.440997,-76.0
2023-12-20 14:01:43.448686,-85.0
2023-12-20 14:01:43.456375,-76.0
2023-12-20 14:01:43.464064,-76.0
2023-12-20 14:01:43.471753,-90.0
2023-12-20 14:01:43.479442,-85.0
2023-12-20 14:01:43.487131,-66.0
2023-12-20 14:01:43.494820,-66.0
2023-12-20 14:01:43.502509,-71.0
2023-12-20 14:01:43.510198,-73.0
2023-12-20 14:01:43.517887,-88.0
2023-12-20 14:01:43.525576,-100.0
2023-12-20 14:01:43.533265,-85.0
2023-12-20 14:01:43.540954,-73.0
2023-12-20 14:01:43.548643,-81.0
2023-12-20 14:01:43.556332,-88.0
2023-12-20 14:01:43.564021,-71.0
2023-12-20 14:01:43.571710,-45.0
2023-12-20 14:01:43.579399,-45.0
2023-12-20 14:01:43.587088,-59.0
2023-12-20 14:01:43.594777,-64.0
2023-12-20 14:01:43.602466,-64.0
2023-12-20 14:01:43.610155,-59.0
2023-12-20 14:01:43.617844,-50.0
2023-12-20 14:01:43.625533,-57.0
2023-12-20 14:01:43.633222,-143.0
2023-12-20 14:01:43.640911,-326.0
2023-12-20 14:01:43.648600,-453.0
2023-12-20 14:01:43.656289,-269.0
2023-12-20 14:01:43.663978,112.0
2023-12-20 14:01:43.671667,283.0
2023-12-20 14:01:43.679356,243.0
2023-12-20 14:01:43.687045,166.0
2023-12-20 14:01:43.694734,14.0
2023-12-20 14:01:43.702423,-143.0
2023-12-20 14:01:43.710112,-166.0
2023-12-20 14:01:43.717801,-138.0
2023-12-20 14:01:43.725490,-147.0
2023-12-20 14:01:43.733179,-152.0
2023-12-20 14:01:43.740868,-147.0
2023-12-20 14:01:43.748557,-152.0
2023-12-20 14:01:43.756245,-154.0
2023-12-20 14:01:43.763934,-154.0
2023-12-20 14:01:43.771623,-150.0
2023-12-20 14:01:43.779312,-143.0
2023-12-20 14:01:43.787001,-143.0
2023-12-20 14:01:43.794690,-150.0
2023-12-20 14:01:43.802379,-157.0
2023-12-20 14:01:43.810068,-152.0
2023-12-20 14:01:43.817757,-135.0
2023-12-20 14:01:43.825446,-123.0
2023-12-20 14:01:43.833135,-131.0
2023-12-20 14:01:43.840824,-131.0
2023-12-20 14:01:43.848513,-126.0
2023-12-20 14:01:43.856202,-138.0
2023-12-20 14:01:43.863891,-135.0
2023-12-20 14:01:43.871580,-119.0
2023-12-20 14:01:43.879269,-133.0
2023-12-20 14:01:43.886958,-138.0
2023-12-20 14:01:43.894647,-102.0
2023-12-20 14:01:43.902336,-69.0
2023-12-20 14:01:43.910025,-57.0
2023-12-20 14:01:43.917714,-47.0
2023-12-20 14:01:43.925403,-45.0
2023-12-20 14:01:43.933092,-50.0
2023-12-20 14:01:43.940781,-45.0
2023-12-20 14:01:43.948470,-38.0
2023-12-20 14:01:43.956159,-42.0
2023-12-20 14:01:43.963848,-47.0
2023-12-20 14:01:43.971537,-45.0
2023-12-20 14:01:43.979226,-40.0
2023-12-20 14:01:43.986915,-35.0
2023-12-20 14:01:43.994604,-35.0
2023-12-20 14:01:44.002293,-45.0
2023-12-20 14:01:44.009982,-54.0
2023-12-20 14:01:44.017671,-57.0
2023-12-20 14:01:44.025360,-42.0
2023-12-20 14:01:44.033049,-21.0
2023-12-20 14:01:44.040738,-23.0
2023-12-20 14:01:44.048427,-28.0
2023-12-20 14:01:44.056116,-33.0
2023-12-20 14:01:44.063805,-38.0
2023-12-20 14:01:44.071494,-38.0
2023-12-20 14:01:44.079183,-30.0
2023-12-20 14:01:44.086872,-40.0
2023-12-20 14:01:44.094561,-52.0
2023-12-20 14:01:44.102250,-52.0
2023-12-20 14:01:44.109939,-57.0
2023-12-20 14:01:44.117628,-57.0
2023-12-20 14:01:44.125317,-50.0
2023-12-20 14:01:44.133006,-40.0
2023-12-20 14:01:44.140695,-30.0
2023-12-20 14:01:44.148384,-28.0
2023-12-20 14:01:44.156073,-30.0
2023-12-20 14:01:44.163762,-21.0
2023-12-20 14:01:44.171451,-16.0
2023-12-20 14:01:44.179140,-19.0
2023-12-20 14:01:44.186829,-26.0
2023-12-20 14:01:44.194518,-45.0
2023-12-20 14:01:44.202207,-126.0
2023-12-20 14:01:44.209896,-298.0
2023-12-20 14:01:44.217585,-426.0
2023-12-20 14:01:44.225274,-257.0
2023-12-20 14:01:44.232963,121.0
2023-12-20 14:01:44.240652,305.0
2023-12-20 14:01:44.248341,255.0
2023-12-20 14:01:44.256029,181.0
2023-12-20 14:01:44.263718,88.0
2023-12-20 14:01:44.271407,-30.0
2023-12-20 14:01:44.279096,-90.0
2023-12-20 14:01:44.286785,-102.0
2023-12-20 14:01:44.294474,-107.0
2023-12-20 14:01:44.302163,-102.0
2023-12-20 14:01:44.309852,-100.0
2023-12-20 14:01:44.317541,-102.0
2023-12-20 14:01:44.325230,-102.0
2023-12-20 14:01:44.332919,-104.0
2023-12-20 14:01:44.340608,-114.0
2023-12-20 14:01:44.348297,-114.0
2023-12-20 14:01:44.355986,-112.0
2023-12-20 14:01:44.363675,-112.0
2023-12-20 14:01:44.371364,-112.0
2023-12-20 14:01:44.379053,-119.0
2023-12-20 14:01:44.386742,-121.0
2023-12-20 14:01:44.394431,-114.0
2023-12-20 14:01:44.402120,-102.0
2023-12-20 14:01:44.409809,-107.0
2023-12-20 14:01:44.417498,-114.0
2023-12-20 14:01:44.425187,-102.0
2023-12-20 14:01:44.432876,-85.0
2023-12-20 14:01:44.440565,-78.0
2023-12-20 14:01:44.448254,-81.0
2023-12-20 14:01:44.455943,-85.0
2023-12-20 14:01:44.463632,-76.0
2023-12-20 14:01:44.471321,-61.0
2023-12-20 14:01:44.479010,-47.0
2023-12-20 14:01:44.486699,-26.0
2023-12-20 14:01:44.494388,-16.0
2023-12-20 14:01:44.502077,-19.0
2023-12-20 14:01:44.509766,-26.0
2023-12-20 14:01:44.517455,-30.0
2023-12-20 14:01:44.525144,-23.0
2023-12-20 14:01:44.532833,-14.0
2023-12-20 14:01:44.540522,-11.0
2023-12-20 14:01:44.548211,-26.0
2023-12-20 14:01:44.555900,-40.0
2023-12-20 14:01:44.563589,-40.0
2023-12-20 14:01:44.571278,-33.0
2023-12-20 14:01:44.578967,-23.0
2023-12-20 14:01:44.586656,-16.0
2023-12-20 14:01:44.594345,-21.0
2023-12-20 14:01:44.602034,-30.0
2023-12-20 14:01:44.609723,-26.0
2023-12-20 14:01:44.617412,-23.0
2023-12-20 14:01:44.625101,-33.0
2023-12-20 14:01:44.632790,-33.0
2023-12-20 14:01:44.640479,-33.0
2023-12-20 14:01:44.648168,-42.0
2023-12-20 14:01:44.655857,-42.0
2023-12-20 14:01:44.663546,-42.0
2023-12-20 14:01:44.671235,-42.0
2023-12-20 14:01:44.678924,-50.0
2023-12-20 14:01:44.686613,-64.0
2023-12-20 14:01:44.694302,-64.0
2023-12-20 14:01:44.701991,-61.0
2023-12-20 14:01:44.709680,-59.0
2023-12-20 14:01:44.717369,-40.0
2023-12-20 14:01:44.725058,-28.0
2023-12-20 14:01:44.732747,-35.0
2023-12-20 14:01:44.740436,-30.0
2023-12-20 14:01:44.748125,-30.0
2023-12-20 14:01:44.755814,-40.0
2023-12-20 14:01:44.763502,-35.0
2023-12-20 14:01:44.771191,-50.0
2023-12-20 14:01:44.778880,-157.0
2023-12-20 14:01:44.786569,-329.0
2023-12-20 14:01:44.794258,-383.0
2023-12-20 14:01:44.801947,-133.0
2023-12-20 14:01:44.809636,216.0
2023-12-20 14:01:44.817325,314.0
2023-12-20 14:01:44.825014,216.0
2023-12-20 14:01:44.832703,116.0
2023-12-20 14:01:44.840392,2.0
2023-12-20 14:01:44.848081,-88.0
2023-12-20 14:01:44.855770,-100.0
2023-12-20 14:01:44.863459,-97.0
2023-12-20 14:01:44.871148,-119.0
2023-12-20 14:01:44.878837,-121.0
2023-12-20 14:01:44.886526,-112.0
2023-12-20 14:01:44.894215,-114.0
2023-12-20 14:01:44.901904,-116.0
2023-12-20 14:01:44.909593,-116.0
2023-12-20 14:01:44.917282,-116.0
2023-12-20 14:01:44.924971,-109.0
2023-12-20 14:01:44.932660,-104.0
2023-12-20 14:01:44.940349,-114.0
2023-12-20 14:01:44.948038,-109.0
2023-12-20 14:01:44.955727,-109.0
2023-12-20 14:01:44.963416,-116.0
2023-12-20 14:01:44.971105,-114.0
2023-12-20 14:01:44.978794,-109.0
2023-12-20 14:01:44.986483,-107.0
2023-12-20 14:01:44.994172,-107.0
2023-12-20 14:01:45.001861,-112.0
2023-12-20 14:01:45.009550,-114.0
2023-12-20 14:01:45.017239,-102.0
2023-12-20 14:01:45.024928,-95.0
2023-12-20 14:01:45.032617,-92.0
2023-12-20 14:01:45.040306,-73.0
2023-12-20 14:01:45.047995,-50.0
2023-12-20 14:01:45.055684,-45.0
2023-12-20 14:01:45.063373,-33.0
2023-12-20 14:01:45.071062,-19.0
2023-12-20 14:01:45.078751,-23.0
2023-12-20 14:01:45.086440,-28.0
2023-12-20 14:01:45.094129,-26.0
2023-12-20 14:01:45.101818,-30.0
2023-12-20 14:01:45.109507,-45.0
2023-12-20 14:01:45.117196,-52.0
2023-12-20 14:01:45.124885,-45.0
2023-12-20 14:01:45.132574,-40.0
2023-12-20 14:01:45.140263,-47.0
2023-12-20 14:01:45.147952,-52.0
2023-12-20 14:01:45.155641,-52.0
2023-12-20 14:01:45.163330,-57.0
2023-12-20 14:01:45.171019,-52.0
2023-12-20 14:01:45.178708,-35.0
2023-12-20 14:01:45.186397,-33.0
2023-12-20 14:01:45.194086,-35.0
2023-12-20 14:01:45.201775,-30.0
2023-12-20 14:01:45.209464,-50.0
2023-12-20 14:01:45.217153,-73.0
2023-12-20 14:01:45.224842,-66.0
2023-12-20 14:01:45.232531,-57.0
2023-12-20 14:01:45.240220,-64.0
2023-12-20 14:01:45.247909,-61.0
2023-12-20 14:01:45.255598,-52.0
2023-12-20 14:01:45.263286,-59.0
2023-12-20 14:01:45.270975,-73.0
2023-12-20 14:01:45.278664,-76.0
2023-12-20 14:01:45.286353,-71.0
2023-12-20 14:01:45.294042,-61.0
2023-12-20 14:01:45.301731,-42.0
2023-12-20 14:01:45.309420,-23.0
2023-12-20 14:01:45.317109,-26.0
2023-12-20 14:01:45.324798,-33.0
2023-12-20 14:01:45.332487,-26.0
2023-12-20 14:01:45.340176,-19.0
2023-12-20 14:01:45.347865,-28.0
2023-12-20 14:01:45.355554,-54.0
2023-12-20 14:01:45.363243,-119.0
2023-12-20 14:01:45.370932,-245.0
2023-12-20 14:01:45.378621,-393.0
2023-12-20 14:01:45.386310,-352.0
2023-12-20 14:01:45.393999,-21.0
2023-12-20 14:01:45.401688,252.0
2023-12-20 14:01:45.409377,231.0
2023-12-20 14:01:45.417066,126.0
2023-12-20 14:01:45.424755,57.0
2023-12-20 14:01:45.432444,-50.0
2023-12-20 14:01:45.440133,-119.0
2023-12-20 14:01:45.447822,-112.0
2023-12-20 14:01:45.455511,-114.0
2023-12-20 14:01:45.463200,-123.0
2023-12-20 14:01:45.470889,-109.0
2023-12-20 14:01:45.478578,-104.0
2023-12-20 14:01:45.486267,-109.0
2023-12-20 14:01:45.493956,-119.0
2023-12-20 14:01:45.501645,-123.0
2023-12-20 14:01:45.509334,-119.0
2023-12-20 14:01:45.517023,-119.0
2023-12-20 14:01:45.524712,-123.0
2023-12-20 14:01:45.532401,-121.0
2023-12-20 14:01:45.540090,-121.0
2023-12-20 14:01:45.547779,-128.0
2023-12-20 14:01:45.555468,-123.0
2023-12-20 14:01:45.563157,-109.0
2023-12-20 14:01:45.570846,-114.0
2023-12-20 14:01:45.578535,-126.0
2023-12-20 14:01:45.586224,-128.0
2023-12-20 14:01:45.593913,-131.0
2023-12-20 14:01:45.601602,-135.0
2023-12-20 14:01:45.609291,-123.0
2023-12-20 14:01:45.616980,-112.0
2023-12-20 14:01:45.624669,-116.0
2023-12-20 14:01:45.632358,-112.0
2023-12-20 14:01:45.640047,-78.0
2023-12-20 14:01:45.647736,-52.0
2023-12-20 14:01:45.655425,-47.0
2023-12-20 14:01:45.663114,-38.0
2023-12-20 14:01:45.670803,-30.0
2023-12-20 14:01:45.678492,-42.0
2023-12-20 14:01:45.686181,-50.0
2023-12-20 14:01:45.693870,-50.0
2023-12-20 14:01:45.701559,-45.0
2023-12-20 14:01:45.709248,-45.0
2023-12-20 14:01:45.716937,-71.0
2023-12-20 14:01:45.724626,-92.0
2023-12-20 14:01:45.732315,-81.0
2023-12-20 14:01:45.740004,-61.0
2023-12-20 14:01:45.747693,-61.0
2023-12-20 14:01:45.755382,-69.0
2023-12-20 14:01:45.763070,-71.0
2023-12-20 14:01:45.770759,-76.0
2023-12-20 14:01:45.778448,-69.0
2023-12-20 14:01:45.786137,-59.0
2023-12-20 14:01:45.793826,-61.0
2023-12-20 14:01:45.801515,-61.0
2023-12-20 14:01:45.809204,-54.0
2023-12-20 14:01:45.816893,-61.0
2023-12-20 14:01:45.824582,-61.0
2023-12-20 14:01:45.832271,-47.0
2023-12-20 14:01:45.839960,-57.0
2023-12-20 14:01:45.847649,-83.0
2023-12-20 14:01:45.855338,-88.0
2023-12-20 14:01:45.863027,-83.0
2023-12-20 14:01:45.870716,-88.0
2023-12-20 14:01:45.878405,-90.0
2023-12-20 14:01:45.886094,-83.0
2023-12-20 14:01:45.893783,-64.0
2023-12-20 14:01:45.901472,-52.0
2023-12-20 14:01:45.909161,-57.0
2023-12-20 14:01:45.916850,-69.0
2023-12-20 14:01:45.924539,-64.0
2023-12-20 14:01:45.932228,-40.0
2023-12-20 14:01:45.939917,-30.0
2023-12-20 14:01:45.947606,-45.0
2023-12-20 14:01:45.955295,-45.0
2023-12-20 14:01:45.962984,-109.0
2023-12-20 14:01:45.970673,-305.0
2023-12-20 14:01:45.978362,-410.0
2023-12-20 14:01:45.986051,-185.0
2023-12-20 14:01:45.993740,150.0
2023-12-20 14:01:46.001429,252.0
2023-12-20 14:01:46.009118,212.0
2023-12-20 14:01:46.016807,162.0
2023-12-20 14:01:46.024496,42.0
2023-12-20 14:01:46.032185,-97.0
2023-12-20 14:01:46.039874,-166.0
2023-12-20 14:01:46.047563,-162.0
2023-12-20 14:01:46.055252,-135.0
2023-12-20 14:01:46.062941,-131.0
2023-12-20 14:01:46.070630,-133.0
2023-12-20 14:01:46.078319,-128.0
2023-12-20 14:01:46.086008,-135.0
2023-12-20 14:01:46.093697,-154.0
2023-12-20 14:01:46.101386,-154.0
2023-12-20 14:01:46.109075,-147.0
2023-12-20 14:01:46.116764,-143.0
2023-12-20 14:01:46.124453,-145.0
2023-12-20 14:01:46.132142,-154.0
2023-12-20 14:01:46.139831,-166.0
2023-12-20 14:01:46.147520,-164.0
2023-12-20 14:01:46.155209,-162.0
2023-12-20 14:01:46.162898,-166.0
2023-12-20 14:01:46.170587,-169.0
2023-12-20 14:01:46.178276,-162.0
2023-12-20 14:01:46.185965,-157.0
2023-12-20 14:01:46.193654,-150.0
2023-12-20 14:01:46.201343,-143.0
2023-12-20 14:01:46.209032,-140.0
2023-12-20 14:01:46.216721,-131.0
2023-12-20 14:01:46.224410,-123.0
2023-12-20 14:01:46.232099,-112.0
2023-12-20 14:01:46.239788,-92.0
2023-12-20 14:01:46.247477,-78.0
2023-12-20 14:01:46.255166,-64.0
2023-12-20 14:01:46.262855,-57.0
2023-12-20 14:01:46.270543,-59.0
2023-12-20 14:01:46.278232,-59.0
2023-12-20 14:01:46.285921,-66.0
2023-12-20 14:01:46.293610,-81.0
2023-12-20 14:01:46.301299,-76.0
2023-12-20 14:01:46.308988,-59.0
2023-12-20 14:01:46.316677,-69.0
2023-12-20 14:01:46.324366,-78.0
2023-12-20 14:01:46.332055,-64.0
2023-12-20 14:01:46.339744,-66.0
2023-12-20 14:01:46.347433,-78.0
2023-12-20 14:01:46.355122,-69.0
2023-12-20 14:01:46.362811,-71.0
2023-12-20 14:01:46.370500,-76.0
2023-12-20 14:01:46.378189,-59.0
2023-12-20 14:01:46.385878,-54.0
2023-12-20 14:01:46.393567,-66.0
2023-12-20 14:01:46.401256,-59.0
2023-12-20 14:01:46.408945,-42.0
2023-12-20 14:01:46.416634,-47.0
2023-12-20 14:01:46.424323,-57.0
2023-12-20 14:01:46.432012,-59.0
2023-12-20 14:01:46.439701,-71.0
2023-12-20 14:01:46.447390,-76.0
2023-12-20 14:01:46.455079,-73.0
2023-12-20 14:01:46.462768,-76.0
2023-12-20 14:01:46.470457,-59.0
2023-12-20 14:01:46.478146,-40.0
2023-12-20 14:01:46.485835,-33.0
2023-12-20 14:01:46.493524,-35.0
2023-12-20 14:01:46.501213,-28.0
2023-12-20 14:01:46.508902,-28.0
2023-12-20 14:01:46.516591,-33.0
2023-12-20 14:01:46.524280,-40.0
2023-12-20 14:01:46.531969,-54.0
2023-12-20 14:01:46.539658,-76.0
2023-12-20 14:01:46.547347,-116.0
2023-12-20 14:01:46.555036,-240.0
2023-12-20 14:01:46.562725,-405.0
2023-12-20 14:01:46.570414,-371.0
2023-12-20 14:01:46.578103,-52.0
2023-12-20 14:01:46.585792,212.0
2023-12-20 14:01:46.593481,240.0
2023-12-20 14:01:46.601170,205.0
2023-12-20 14:01:46.608859,128.0
2023-12-20 14:01:46.616548,-7.0
2023-12-20 14:01:46.624237,-92.0
2023-12-20 14:01:46.631926,-107.0
2023-12-20 14:01:46.639615,-107.0
2023-12-20 14:01:46.647304,-107.0
2023-12-20 14:01:46.654993,-104.0
2023-12-20 14:01:46.662682,-114.0
2023-12-20 14:01:46.670371,-121.0
2023-12-20 14:01:46.678060,-104.0
2023-12-20 14:01:46.685749,-95.0
2023-12-20 14:01:46.693438,-107.0
2023-12-20 14:01:46.701127,-107.0
2023-12-20 14:01:46.708816,-102.0
2023-12-20 14:01:46.716505,-123.0
2023-12-20 14:01:46.724194,-143.0
2023-12-20 14:01:46.731883,-154.0
2023-12-20 14:01:46.739572,-171.0
2023-12-20 14:01:46.747261,-169.0
2023-12-20 14:01:46.754950,-159.0
2023-12-20 14:01:46.762639,-154.0
2023-12-20 14:01:46.770327,-140.0
2023-12-20 14:01:46.778016,-121.0
2023-12-20 14:01:46.785705,-123.0
2023-12-20 14:01:46.793394,-123.0
2023-12-20 14:01:46.801083,-102.0
2023-12-20 14:01:46.808772,-85.0
2023-12-20 14:01:46.816461,-69.0
2023-12-20 14:01:46.824150,-47.0
2023-12-20 14:01:46.831839,-38.0
2023-12-20 14:01:46.839528,-38.0
2023-12-20 14:01:46.847217,-35.0
2023-12-20 14:01:46.854906,-35.0
2023-12-20 14:01:46.862595,-33.0
2023-12-20 14:01:46.870284,-40.0
2023-12-20 14:01:46.877973,-50.0
2023-12-20 14:01:46.885662,-45.0
2023-12-20 14:01:46.893351,-28.0
2023-12-20 14:01:46.901040,-14.0
2023-12-20 14:01:46.908729,-16.0
2023-12-20 14:01:46.916418,-28.0
2023-12-20 14:01:46.924107,-28.0
2023-12-20 14:01:46.931796,-26.0
2023-12-20 14:01:46.939485,-26.0
2023-12-20 14:01:46.947174,-23.0
2023-12-20 14:01:46.954863,-21.0
2023-12-20 14:01:46.962552,-26.0
2023-12-20 14:01:46.970241,-35.0
2023-12-20 14:01:46.977930,-35.0
2023-12-20 14:01:46.985619,-28.0
2023-12-20 14:01:46.993308,-26.0
2023-12-20 14:01:47.000997,-21.0
2023-12-20 14:01:47.008686,-11.0
2023-12-20 14:01:47.016375,-14.0
2023-12-20 14:01:47.024064,-28.0
2023-12-20 14:01:47.031753,-33.0
2023-12-20 14:01:47.039442,-40.0
2023-12-20 14:01:47.047131,-45.0
2023-12-20 14:01:47.054820,-40.0
2023-12-20 14:01:47.062509,-23.0
2023-12-20 14:01:47.070198,-4.0
2023-12-20 14:01:47.077887,-4.0
2023-12-20 14:01:47.085576,-9.0
2023-12-20 14:01:47.093265,-7.0
2023-12-20 14:01:47.100954,-11.0
2023-12-20 14:01:47.108643,-21.0
2023-12-20 14:01:47.116332,-35.0
2023-12-20 14:01:47.124021,-69.0
2023-12-20 14:01:47.131710,-126.0
2023-12-20 14:01:47.139399,-259.0
2023-12-20 14:01:47.147088,-417.0
2023-12-20 14:01:47.154777,-317.0
2023-12-20 14:01:47.162466,50.0
2023-12-20 14:01:47.170155,290.0
2023-12-20 14:01:47.177844,278.0
2023-12-20 14:01:47.185533,205.0
2023-12-20 14:01:47.193222,104.0
2023-12-20 14:01:47.200911,-23.0
2023-12-20 14:01:47.208600,-85.0
2023-12-20 14:01:47.216289,-76.0
2023-12-20 14:01:47.223978,-76.0
2023-12-20 14:01:47.231667,-95.0
2023-12-20 14:01:47.239356,-109.0
2023-12-20 14:01:47.247045,-104.0
2023-12-20 14:01:47.254734,-95.0
2023-12-20 14:01:47.262423,-95.0
2023-12-20 14:01:47.270111,-97.0
2023-12-20 14:01:47.277800,-100.0
2023-12-20 14:01:47.285489,-112.0
2023-12-20 14:01:47.293178,-123.0
2023-12-20 14:01:47.300867,-128.0
2023-12-20 14:01:47.308556,-133.0
2023-12-20 14:01:47.316245,-131.0
2023-12-20 14:01:47.323934,-131.0
2023-12-20 14:01:47.331623,-145.0
2023-12-20 14:01:47.339312,-150.0
2023-12-20 14:01:47.347001,-147.0
2023-12-20 14:01:47.354690,-135.0
2023-12-20 14:01:47.362379,-121.0
2023-12-20 14:01:47.370068,-123.0
2023-12-20 14:01:47.377757,-116.0
2023-12-20 14:01:47.385446,-95.0
2023-12-20 14:01:47.393135,-76.0
2023-12-20 14:01:47.400824,-54.0
2023-12-20 14:01:47.408513,-30.0
2023-12-20 14:01:47.416202,-19.0
2023-12-20 14:01:47.423891,-19.0
2023-12-20 14:01:47.431580,-19.0
2023-12-20 14:01:47.439269,-14.0
2023-12-20 14:01:47.446958,-11.0
2023-12-20 14:01:47.454647,-11.0
2023-12-20 14:01:47.462336,-11.0
2023-12-20 14:01:47.470025,-19.0
2023-12-20 14:01:47.477714,-26.0
2023-12-20 14:01:47.485403,-26.0
2023-12-20 14:01:47.493092,-16.0
2023-12-20 14:01:47.500781,-11.0
2023-12-20 14:01:47.508470,-23.0
2023-12-20 14:01:47.516159,-26.0
2023-12-20 14:01:47.523848,-21.0
2023-12-20 14:01:47.531537,-21.0
2023-12-20 14:01:47.539226,-21.0
2023-12-20 14:01:47.546915,-16.0
2023-12-20 14:01:47.554604,-11.0
2023-12-20 14:01:47.562293,-16.0
2023-12-20 14:01:47.569982,-19.0
2023-12-20 14:01:47.577671,-16.0
2023-12-20 14:01:47.585360,-16.0
2023-12-20 14:01:47.593049,-16.0
2023-12-20 14:01:47.600738,-16.0
2023-12-20 14:01:47.608427,-38.0
2023-12-20 14:01:47.616116,-73.0
2023-12-20 14:01:47.623805,-83.0
2023-12-20 14:01:47.631494,-69.0
2023-12-20 14:01:47.639183,-61.0
2023-12-20 14:01:47.646872,-50.0
2023-12-20 14:01:47.654561,-40.0
2023-12-20 14:01:47.662250,-38.0
2023-12-20 14:01:47.669939,-26.0
2023-12-20 14:01:47.677628,-19.0
2023-12-20 14:01:47.685317,-28.0
2023-12-20 14:01:47.693006,-33.0
2023-12-20 14:01:47.700695,-33.0
2023-12-20 14:01:47.708384,-40.0
2023-12-20 14:01:47.716073,-52.0
2023-12-20 14:01:47.723762,-128.0
2023-12-20 14:01:47.731451,-312.0
2023-12-20 14:01:47.739140,-419.0
2023-12-20 14:01:47.746829,-212.0
2023-12-20 14:01:47.754518,147.0
2023-12-20 14:01:47.762207,290.0
2023-12-20 14:01:47.769896,238.0
2023-12-20 14:01:47.777584,162.0
2023-12-20 14:01:47.785273,47.0
2023-12-20 14:01:47.792962,-64.0
2023-12-20 14:01:47.800651,-83.0
2023-12-20 14:01:47.808340,-66.0
2023-12-20 14:01:47.816029,-81.0
2023-12-20 14:01:47.823718,-95.0
2023-12-20 14:01:47.831407,-92.0
2023-12-20 14:01:47.839096,-97.0
2023-12-20 14:01:47.846785,-100.0
2023-12-20 14:01:47.854474,-92.0
2023-12-20 14:01:47.862163,-95.0
2023-12-20 14:01:47.869852,-109.0
2023-12-20 14:01:47.877541,-126.0
2023-12-20 14:01:47.885230,-140.0
2023-12-20 14:01:47.892919,-145.0
2023-12-20 14:01:47.900608,-135.0
2023-12-20 14:01:47.908297,-121.0
2023-12-20 14:01:47.915986,-116.0
2023-12-20 14:01:47.923675,-121.0
2023-12-20 14:01:47.931364,-131.0
2023-12-20 14:01:47.939053,-133.0
2023-12-20 14:01:47.946742,-119.0
2023-12-20 14:01:47.954431,-100.0
2023-12-20 14:01:47.962120,-95.0
2023-12-20 14:01:47.969809,-90.0
2023-12-20 14:01:47.977498,-81.0
2023-12-20 14:01:47.985187,-61.0
2023-12-20 14:01:47.992876,-30.0
2023-12-20 14:01:48.000565,-9.0
2023-12-20 14:01:48.008254,-11.0
2023-12-20 14:01:48.015943,-14.0
2023-12-20 14:01:48.023632,-7.0
2023-12-20 14:01:48.031321,-9.0
2023-12-20 14:01:48.039010,-11.0
2023-12-20 14:01:48.046699,-4.0
2023-12-20 14:01:48.054388,4.0
2023-12-20 14:01:48.062077,-7.0
2023-12-20 14:01:48.069766,-28.0
2023-12-20 14:01:48.077455,-26.0
2023-12-20 14:01:48.085144,-16.0
2023-12-20 14:01:48.092833,-23.0
2023-12-20 14:01:48.100522,-26.0
2023-12-20 14:01:48.108211,-21.0
2023-12-20 14:01:48.115900,-23.0
2023-12-20 14:01:48.123589,-19.0
2023-12-20 14:01:48.131278,-7.0
2023-12-20 14:01:48.138967,-2.0
2023-12-20 14:01:48.146656,-11.0
2023-12-20 14:01:48.154345,-16.0
2023-12-20 14:01:48.162034,-14.0
2023-12-20 14:01:48.169723,-14.0
2023-12-20 14:01:48.177412,-14.0
2023-12-20 14:01:48.185101,-14.0
2023-12-20 14:01:48.192790,-30.0
2023-12-20 14:01:48.200479,-69.0
2023-12-20 14:01:48.208168,-88.0
2023-12-20 14:01:48.215857,-73.0
2023-12-20 14:01:48.223546,-64.0
2023-12-20 14:01:48.231235,-69.0
2023-12-20 14:01:48.238924,-71.0
2023-12-20 14:01:48.246613,-54.0
2023-12-20 14:01:48.254302,-38.0
2023-12-20 14:01:48.261991,-45.0
2023-12-20 14:01:48.269680,-57.0
2023-12-20 14:01:48.277368,-52.0
2023-12-20 14:01:48.285057,-50.0
2023-12-20 14:01:48.292746,-52.0
2023-12-20 14:01:48.300435,-50.0
2023-12-20 14:01:48.308124,-88.0
2023-12-20 14:01:48.315813,-207.0
2023-12-20 14:01:48.323502,-362.0
2023-12-20 14:01:48.331191,-362.0
2023-12-20 14:01:48.338880,-81.0
2023-12-20 14:01:48.346569,221.0
2023-12-20 14:01:48.354258,271.0
2023-12-20 14:01:48.361947,202.0
2023-12-20 14:01:48.369636,123.0
2023-12-20 14:01:48.377325,-4.0
2023-12-20 14:01:48.385014,-97.0
2023-12-20 14:01:48.392703,-97.0
2023-12-20 14:01:48.400392,-78.0
2023-12-20 14:01:48.408081,-90.0
2023-12-20 14:01:48.415770,-104.0
2023-12-20 14:01:48.423459,-104.0
2023-12-20 14:01:48.431148,-104.0
2023-12-20 14:01:48.438837,-114.0
2023-12-20 14:01:48.446526,-133.0
2023-12-20 14:01:48.454215,-135.0
2023-12-20 14:01:48.461904,-128.0
2023-12-20 14:01:48.469593,-128.0
2023-12-20 14:01:48.477282,-128.0
2023-12-20 14:01:48.484971,-128.0
2023-12-20 14:01:48.492660,-138.0
2023-12-20 14:01:48.500349,-140.0
2023-12-20 14:01:48.508038,-140.0
2023-12-20 14:01:48.515727,-145.0
2023-12-20 14:01:48.523416,-143.0
2023-12-20 14:01:48.531105,-133.0
2023-12-20 14:01:48.538794,-119.0
2023-12-20 14:01:48.546483,-107.0
2023-12-20 14:01:48.554172,-114.0
2023-12-20 14:01:48.561861,-123.0
2023-12-20 14:01:48.569550,-102.0
2023-12-20 14:01:48.577239,-73.0
2023-12-20 14:01:48.584928,-64.0
2023-12-20 14:01:48.592617,-45.0
2023-12-20 14:01:48.600306,-28.0
2023-12-20 14:01:48.607995,-28.0
2023-12-20 14:01:48.615684,-26.0
2023-12-20 14:01:48.623373,-23.0
2023-12-20 14:01:48.631062,-23.0
2023-12-20 14:01:48.638751,-21.0
2023-12-20 14:01:48.646440,-23.0
2023-12-20 14:01:48.654129,-33.0
2023-12-20 14:01:48.661818,-30.0
2023-12-20 14:01:48.669507,-26.0
2023-12-20 14:01:48.677196,-33.0
2023-12-20 14:01:48.684885,-35.0
2023-12-20 14:01:48.692574,-40.0
2023-12-20 14:01:48.700263,-38.0
2023-12-20 14:01:48.707952,-23.0
2023-12-20 14:01:48.715641,-21.0
2023-12-20 14:01:48.723330,-30.0
2023-12-20 14:01:48.731019,-33.0
2023-12-20 14:01:48.738708,-30.0
2023-12-20 14:01:48.746397,-35.0
2023-12-20 14:01:48.754086,-33.0
2023-12-20 14:01:48.761775,-28.0
2023-12-20 14:01:48.769464,-40.0
2023-12-20 14:01:48.777152,-61.0
2023-12-20 14:01:48.784841,-92.0
2023-12-20 14:01:48.792530,-102.0
2023-12-20 14:01:48.800219,-92.0
2023-12-20 14:01:48.807908,-102.0
2023-12-20 14:01:48.815597,-102.0
2023-12-20 14:01:48.823286,-76.0
2023-12-20 14:01:48.830975,-66.0
2023-12-20 14:01:48.838664,-66.0
2023-12-20 14:01:48.846353,-61.0
2023-12-20 14:01:48.854042,-66.0
2023-12-20 14:01:48.861731,-81.0
2023-12-20 14:01:48.869420,-76.0
2023-12-20 14:01:48.877109,-69.0
2023-12-20 14:01:48.884798,-69.0
2023-12-20 14:01:48.892487,-97.0
2023-12-20 14:01:48.900176,-219.0
2023-12-20 14:01:48.907865,-395.0
2023-12-20 14:01:48.915554,-395.0
2023-12-20 14:01:48.923243,-83.0
2023-12-20 14:01:48.930932,238.0
2023-12-20 14:01:48.938621,276.0
2023-12-20 14:01:48.946310,202.0
2023-12-20 14:01:48.953999,128.0
2023-12-20 14:01:48.961688,7.0
2023-12-20 14:01:48.969377,-90.0
2023-12-20 14:01:48.977066,-107.0
2023-12-20 14:01:48.984755,-92.0
2023-12-20 14:01:48.992444,-97.0
2023-12-20 14:01:49.000133,-104.0
2023-12-20 14:01:49.007822,-104.0
2023-12-20 14:01:49.015511,-107.0
2023-12-20 14:01:49.023200,-104.0
2023-12-20 14:01:49.030889,-109.0
2023-12-20 14:01:49.038578,-138.0
2023-12-20 14:01:49.046267,-162.0
2023-12-20 14:01:49.053956,-162.0
2023-12-20 14:01:49.061645,-150.0
2023-12-20 14:01:49.069334,-140.0
2023-12-20 14:01:49.077023,-145.0
2023-12-20 14:01:49.084712,-152.0
2023-12-20 14:01:49.092401,-140.0
2023-12-20 14:01:49.100090,-135.0
2023-12-20 14:01:49.107779,-140.0
2023-12-20 14:01:49.115468,-131.0
2023-12-20 14:01:49.123157,-116.0
2023-12-20 14:01:49.130846,-116.0
2023-12-20 14:01:49.138535,-121.0
2023-12-20 14:01:49.146224,-116.0
2023-12-20 14:01:49.153913,-97.0
2023-12-20 14:01:49.161602,-73.0
2023-12-20 14:01:49.169291,-54.0
2023-12-20 14:01:49.176980,-42.0
2023-12-20 14:01:49.184669,-35.0
2023-12-20 14:01:49.192358,-33.0
2023-12-20 14:01:49.200047,-30.0
2023-12-20 14:01:49.207736,-26.0
2023-12-20 14:01:49.215425,-23.0
2023-12-20 14:01:49.223114,-33.0
2023-12-20 14:01:49.230803,-40.0
2023-12-20 14:01:49.238492,-40.0
2023-12-20 14:01:49.246181,-54.0
2023-12-20 14:01:49.253870,-71.0
2023-12-20 14:01:49.261559,-57.0
2023-12-20 14:01:49.269248,-45.0
2023-12-20 14:01:49.276937,-59.0
2023-12-20 14:01:49.284625,-59.0
2023-12-20 14:01:49.292314,-57.0
2023-12-20 14:01:49.300003,-61.0
2023-12-20 14:01:49.307692,-59.0
2023-12-20 14:01:49.315381,-64.0
2023-12-20 14:01:49.323070,-88.0
2023-12-20 14:01:49.330759,-97.0
2023-12-20 14:01:49.338448,-73.0
2023-12-20 14:01:49.346137,-59.0
2023-12-20 14:01:49.353826,-71.0
2023-12-20 14:01:49.361515,-78.0
2023-12-20 14:01:49.369204,-90.0
2023-12-20 14:01:49.376893,-92.0
2023-12-20 14:01:49.384582,-81.0
2023-12-20 14:01:49.392271,-88.0
2023-12-20 14:01:49.399960,-85.0
2023-12-20 14:01:49.407649,-66.0
2023-12-20 14:01:49.415338,-50.0
2023-12-20 14:01:49.423027,-40.0
2023-12-20 14:01:49.430716,-35.0
2023-12-20 14:01:49.438405,-35.0
2023-12-20 14:01:49.446094,-35.0
2023-12-20 14:01:49.453783,-50.0
2023-12-20 14:01:49.461472,-64.0
2023-12-20 14:01:49.469161,-59.0
2023-12-20 14:01:49.476850,-97.0
2023-12-20 14:01:49.484539,-245.0
2023-12-20 14:01:49.492228,-410.0
2023-12-20 14:01:49.499917,-357.0
2023-12-20 14:01:49.507606,-11.0
2023-12-20 14:01:49.515295,283.0
2023-12-20 14:01:49.522984,298.0
2023-12-20 14:01:49.530673,214.0
2023-12-20 14:01:49.538362,123.0
2023-12-20 14:01:49.546051,-19.0
2023-12-20 14:01:49.553740,-107.0
2023-12-20 14:01:49.561429,-95.0
2023-12-20 14:01:49.569118,-81.0
2023-12-20 14:01:49.576807,-88.0
2023-12-20 14:01:49.584496,-88.0
2023-12-20 14:01:49.592185,-92.0
2023-12-20 14:01:49.599874,-97.0
2023-12-20 14:01:49.607563,-88.0
2023-12-20 14:01:49.615252,-97.0
2023-12-20 14:01:49.622941,-119.0
2023-12-20 14:01:49.630630,-121.0
2023-12-20 14:01:49.638319,-121.0
2023-12-20 14:01:49.646008,-133.0
2023-12-20 14:01:49.653697,-131.0
2023-12-20 14:01:49.661386,-121.0
2023-12-20 14:01:49.669075,-126.0
2023-12-20 14:01:49.676764,-131.0
2023-12-20 14:01:49.684453,-121.0
2023-12-20 14:01:49.692142,-119.0
2023-12-20 14:01:49.699831,-112.0
2023-12-20 14:01:49.707520,-92.0
2023-12-20 14:01:49.715209,-90.0
2023-12-20 14:01:49.722898,-104.0
2023-12-20 14:01:49.730587,-97.0
2023-12-20 14:01:49.738276,-71.0
2023-12-20 14:01:49.745965,-57.0
2023-12-20 14:01:49.753654,-59.0
2023-12-20 14:01:49.761343,-52.0
2023-12-20 14:01:49.769032,-35.0
2023-12-20 14:01:49.776721,-30.0
2023-12-20 14:01:49.784409,-38.0
2023-12-20 14:01:49.792098,-47.0
2023-12-20 14:01:49.799787,-47.0
2023-12-20 14:01:49.807476,-38.0
2023-12-20 14:01:49.815165,-40.0
2023-12-20 14:01:49.822854,-50.0
2023-12-20 14:01:49.830543,-47.0
2023-12-20 14:01:49.838232,-42.0
2023-12-20 14:01:49.845921,-42.0
2023-12-20 14:01:49.853610,-38.0
2023-12-20 14:01:49.861299,-33.0
2023-12-20 14:01:49.868988,-38.0
2023-12-20 14:01:49.876677,-42.0
2023-12-20 14:01:49.884366,-35.0
2023-12-20 14:01:49.892055,-26.0
2023-12-20 14:01:49.899744,-26.0
2023-12-20 14:01:49.907433,-50.0
2023-12-20 14:01:49.915122,-81.0
2023-12-20 14:01:49.922811,-78.0
2023-12-20 14:01:49.930500,-64.0
2023-12-20 14:01:49.938189,-61.0
2023-12-20 14:01:49.945878,-66.0
2023-12-20 14:01:49.953567,-78.0
2023-12-20 14:01:49.961256,-81.0
2023-12-20 14:01:49.968945,-71.0
2023-12-20 14:01:49.976634,-61.0
2023-12-20 14:01:49.984323,-38.0
2023-12-20 14:01:49.992012,-23.0
2023-12-20 14:01:49.999701,-33.0
2023-12-20 14:01:50.007390,-38.0
2023-12-20 14:01:50.015079,-30.0
2023-12-20 14:01:50.022768,-30.0
2023-12-20 14:01:50.030457,-35.0
2023-12-20 14:01:50.038146,-52.0
2023-12-20 14:01:50.045835,-81.0
2023-12-20 14:01:50.053524,-166.0
2023-12-20 14:01:50.061213,-338.0
2023-12-20 14:01:50.068902,-419.0
2023-12-20 14:01:50.076591,-183.0
2023-12-20 14:01:50.084280,176.0
2023-12-20 14:01:50.091969,302.0
2023-12-20 14:01:50.099658,231.0
2023-12-20 14:01:50.107347,135.0
2023-12-20 14:01:50.115036,23.0
2023-12-20 14:01:50.122725,-69.0
2023-12-20 14:01:50.130414,-85.0
2023-12-20 14:01:50.138103,-73.0
2023-12-20 14:01:50.145792,-83.0
2023-12-20 14:01:50.153481,-92.0
2023-12-20 14:01:50.161170,-85.0
2023-12-20 14:01:50.168859,-78.0
2023-12-20 14:01:50.176548,-90.0
2023-12-20 14:01:50.184237,-97.0
2023-12-20 14:01:50.191926,-90.0
2023-12-20 14:01:50.199615,-95.0
2023-12-20 14:01:50.207304,-104.0
2023-12-20 14:01:50.214993,-109.0
2023-12-20 14:01:50.222682,-126.0
2023-12-20 14:01:50.230371,-138.0
2023-12-20 14:01:50.238060,-131.0
2023-12-20 14:01:50.245749,-126.0
2023-12-20 14:01:50.253438,-133.0
2023-12-20 14:01:50.261127,-145.0
2023-12-20 14:01:50.268816,-152.0
2023-12-20 14:01:50.276505,-147.0
2023-12-20 14:01:50.284194,-140.0
2023-12-20 14:01:50.291882,-135.0
2023-12-20 14:01:50.299571,-126.0
2023-12-20 14:01:50.307260,-114.0
2023-12-20 14:01:50.314949,-100.0
2023-12-20 14:01:50.322638,-73.0
2023-12-20 14:01:50.330327,-54.0
2023-12-20 14:01:50.338016,-52.0
2023-12-20 14:01:50.345705,-47.0
2023-12-20 14:01:50.353394,-33.0
2023-12-20 14:01:50.361083,-33.0
2023-12-20 14:01:50.368772,-40.0
2023-12-20 14:01:50.376461,-38.0
2023-12-20 14:01:50.384150,-40.0
2023-12-20 14:01:50.391839,-47.0
2023-12-20 14:01:50.399528,-45.0
2023-12-20 14:01:50.407217,-38.0
2023-12-20 14:01:50.414906,-38.0
2023-12-20 14:01:50.422595,-40.0
2023-12-20 14:01:50.430284,-38.0
2023-12-20 14:01:50.437973,-40.0
2023-12-20 14:01:50.445662,-54.0
2023-12-20 14:01:50.453351,-69.0
2023-12-20 14:01:50.461040,-61.0
2023-12-20 14:01:50.468729,-52.0
2023-12-20 14:01:50.476418,-59.0
2023-12-20 14:01:50.484107,-66.0
2023-12-20 14:01:50.491796,-78.0
2023-12-20 14:01:50.499485,-88.0
2023-12-20 14:01:50.507174,-81.0
2023-12-20 14:01:50.514863,-81.0
2023-12-20 14:01:50.522552,-104.0
2023-12-20 14:01:50.530241,-121.0
2023-12-20 14:01:50.537930,-128.0
2023-12-20 14:01:50.545619,-131.0
2023-12-20 14:01:50.553308,-114.0
2023-12-20 14:01:50.560997,-90.0
2023-12-20 14:01:50.568686,-81.0
2023-12-20 14:01:50.576375,-81.0
2023-12-20 14:01:50.584064,-78.0
2023-12-20 14:01:50.591753,-71.0
2023-12-20 14:01:50.599442,-59.0
2023-12-20 14:01:50.607131,-61.0
2023-12-20 14:01:50.614820,-69.0
2023-12-20 14:01:50.622509,-109.0
2023-12-20 14:01:50.630198,-233.0
2023-12-20 14:01:50.637887,-383.0
2023-12-20 14:01:50.645576,-355.0
2023-12-20 14:01:50.653265,-50.0
2023-12-20 14:01:50.660954,231.0
2023-12-20 14:01:50.668643,264.0
2023-12-20 14:01:50.676332,188.0
2023-12-20 14:01:50.684021,90.0
2023-12-20 14:01:50.691710,-30.0
2023-12-20 14:01:50.699399,-95.0
2023-12-20 14:01:50.707088,-90.0
2023-12-20 14:01:50.714777,-95.0
2023-12-20 14:01:50.722466,-104.0
2023-12-20 14:01:50.730155,-90.0
2023-12-20 14:01:50.737844,-83.0
2023-12-20 14:01:50.745533,-95.0
2023-12-20 14:01:50.753222,-104.0
2023-12-20 14:01:50.760911,-119.0
2023-12-20 14:01:50.768600,-131.0
2023-12-20 14:01:50.776289,-131.0
2023-12-20 14:01:50.783978,-131.0
2023-12-20 14:01:50.791666,-138.0
2023-12-20 14:01:50.799355,-145.0
2023-12-20 14:01:50.807044,-162.0
2023-12-20 14:01:50.814733,-164.0
2023-12-20 14:01:50.822422,-147.0
2023-12-20 14:01:50.830111,-140.0
2023-12-20 14:01:50.837800,-147.0
2023-12-20 14:01:50.845489,-147.0
2023-12-20 14:01:50.853178,-135.0
2023-12-20 14:01:50.860867,-126.0
2023-12-20 14:01:50.868556,-114.0
2023-12-20 14:01:50.876245,-100.0
2023-12-20 14:01:50.883934,-88.0
2023-12-20 14:01:50.891623,-81.0
2023-12-20 14:01:50.899312,-64.0
2023-12-20 14:01:50.907001,-47.0
2023-12-20 14:01:50.914690,-35.0
2023-12-20 14:01:50.922379,-21.0
2023-12-20 14:01:50.930068,-11.0
2023-12-20 14:01:50.937757,-26.0
2023-12-20 14:01:50.945446,-33.0
2023-12-20 14:01:50.953135,-28.0
2023-12-20 14:01:50.960824,-28.0
2023-12-20 14:01:50.968513,-30.0
2023-12-20 14:01:50.976202,-35.0
2023-12-20 14:01:50.983891,-38.0
2023-12-20 14:01:50.991580,-30.0
2023-12-20 14:01:50.999269,-28.0
2023-12-20 14:01:51.006958,-26.0
2023-12-20 14:01:51.014647,-19.0
2023-12-20 14:01:51.022336,-35.0
2023-12-20 14:01:51.030025,-78.0
2023-12-20 14:01:51.037714,-95.0
2023-12-20 14:01:51.045403,-71.0
2023-12-20 14:01:51.053092,-52.0
2023-12-20 14:01:51.060781,-57.0
2023-12-20 14:01:51.068470,-61.0
2023-12-20 14:01:51.076159,-64.0
2023-12-20 14:01:51.083848,-69.0
2023-12-20 14:01:51.091537,-73.0
2023-12-20 14:01:51.099226,-71.0
2023-12-20 14:01:51.106915,-71.0
2023-12-20 14:01:51.114604,-76.0
2023-12-20 14:01:51.122293,-81.0
2023-12-20 14:01:51.129982,-61.0
2023-12-20 14:01:51.137671,-33.0
2023-12-20 14:01:51.145360,-28.0
2023-12-20 14:01:51.153049,-33.0
2023-12-20 14:01:51.160738,-26.0
2023-12-20 14:01:51.168427,-30.0
2023-12-20 14:01:51.176116,-40.0
2023-12-20 14:01:51.183805,-38.0
2023-12-20 14:01:51.191494,-28.0
2023-12-20 14:01:51.199183,-69.0
2023-12-20 14:01:51.206872,-219.0
2023-12-20 14:01:51.214561,-388.0
2023-12-20 14:01:51.222250,-298.0
2023-12-20 14:01:51.229939,64.0
2023-12-20 14:01:51.237628,288.0
2023-12-20 14:01:51.245317,267.0
2023-12-20 14:01:51.253006,195.0
2023-12-20 14:01:51.260695,85.0
2023-12-20 14:01:51.268384,-64.0
2023-12-20 14:01:51.276073,-133.0
2023-12-20 14:01:51.283762,-114.0
2023-12-20 14:01:51.291450,-102.0
2023-12-20 14:01:51.299139,-112.0
2023-12-20 14:01:51.306828,-114.0
2023-12-20 14:01:51.314517,-119.0
2023-12-20 14:01:51.322206,-116.0
2023-12-20 14:01:51.329895,-107.0
2023-12-20 14:01:51.337584,-104.0
2023-12-20 14:01:51.345273,-116.0
2023-12-20 14:01:51.352962,-123.0
2023-12-20 14:01:51.360651,-114.0
2023-12-20 14:01:51.368340,-112.0
2023-12-20 14:01:51.376029,-126.0
2023-12-20 14:01:51.383718,-135.0
2023-12-20 14:01:51.391407,-140.0
2023-12-20 14:01:51.399096,-147.0
2023-12-20 14:01:51.406785,-147.0
2023-12-20 14:01:51.414474,-131.0
2023-12-20 14:01:51.422163,-112.0
2023-12-20 14:01:51.429852,-116.0
2023-12-20 14:01:51.437541,-138.0
2023-12-20 14:01:51.445230,-135.0
2023-12-20 14:01:51.452919,-119.0
2023-12-20 14:01:51.460608,-97.0
2023-12-20 14:01:51.468297,-69.0
2023-12-20 14:01:51.475986,-54.0
2023-12-20 14:01:51.483675,-59.0
2023-12-20 14:01:51.491364,-54.0
2023-12-20 14:01:51.499053,-35.0
2023-12-20 14:01:51.506742,-30.0
2023-12-20 14:01:51.514431,-52.0
2023-12-20 14:01:51.522120,-59.0
2023-12-20 14:01:51.529809,-47.0
2023-12-20 14:01:51.537498,-45.0
2023-12-20 14:01:51.545187,-54.0
2023-12-20 14:01:51.552876,-52.0
2023-12-20 14:01:51.560565,-52.0
2023-12-20 14:01:51.568254,-66.0
2023-12-20 14:01:51.575943,-90.0
2023-12-20 14:01:51.583632,-88.0
2023-12-20 14:01:51.591321,-64.0
2023-12-20 14:01:51.599010,-73.0
2023-12-20 14:01:51.606699,-90.0
2023-12-20 14:01:51.614388,-83.0
2023-12-20 14:01:51.622077,-95.0
2023-12-20 14:01:51.629766,-107.0
2023-12-20 14:01:51.637455,-97.0
2023-12-20 14:01:51.645144,-100.0
2023-12-20 14:01:51.652833,-97.0
2023-12-20 14:01:51.660522,-109.0
2023-12-20 14:01:51.668211,-143.0
2023-12-20 14:01:51.675900,-143.0
2023-12-20 14:01:51.683589,-121.0
2023-12-20 14:01:51.691278,-121.0
2023-12-20 14:01:51.698967,-112.0
2023-12-20 14:01:51.706656,-83.0
2023-12-20 14:01:51.714345,-76.0
2023-12-20 14:01:51.722034,-88.0
2023-12-20 14:01:51.729723,-78.0
2023-12-20 14:01:51.737412,-59.0
2023-12-20 14:01:51.745101,-61.0
2023-12-20 14:01:51.752790,-66.0
2023-12-20 14:01:51.760479,-66.0
2023-12-20 14:01:51.768168,-102.0
2023-12-20 14:01:51.775857,-219.0
2023-12-20 14:01:51.783546,-388.0
2023-12-20 14:01:51.791235,-438.0
2023-12-20 14:01:51.798923,-185.0
2023-12-20 14:01:51.806612,159.0
2023-12-20 14:01:51.814301,257.0
2023-12-20 14:01:51.821990,193.0
2023-12-20 14:01:51.829679,119.0
2023-12-20 14:01:51.837368,-11.0
2023-12-20 14:01:51.845057,-116.0
2023-12-20 14:01:51.852746,-116.0
2023-12-20 14:01:51.860435,-92.0
2023-12-20 14:01:51.868124,-116.0
2023-12-20 14:01:51.875813,-133.0
2023-12-20 14:01:51.883502,-123.0
2023-12-20 14:01:51.891191,-119.0
2023-12-20 14:01:51.898880,-116.0
2023-12-20 14:01:51.906569,-119.0
2023-12-20 14:01:51.914258,-121.0
2023-12-20 14:01:51.921947,-121.0
2023-12-20 14:01:51.929636,-114.0
2023-12-20 14:01:51.937325,-114.0
2023-12-20 14:01:51.945014,-123.0
2023-12-20 14:01:51.952703,-126.0
2023-12-20 14:01:51.960392,-121.0
2023-12-20 14:01:51.968081,-119.0
2023-12-20 14:01:51.975770,-121.0
2023-12-20 14:01:51.983459,-126.0
2023-12-20 14:01:51.991148,-126.0
2023-12-20 14:01:51.998837,-126.0
2023-12-20 14:01:52.006526,-131.0
2023-12-20 14:01:52.014215,-128.0
2023-12-20 14:01:52.021904,-123.0
2023-12-20 14:01:52.029593,-119.0
2023-12-20 14:01:52.037282,-95.0
2023-12-20 14:01:52.044971,-73.0
2023-12-20 14:01:52.052660,-66.0
2023-12-20 14:01:52.060349,-50.0
2023-12-20 14:01:52.068038,-40.0
2023-12-20 14:01:52.075727,-45.0
2023-12-20 14:01:52.083416,-38.0
2023-12-20 14:01:52.091105,-28.0
2023-12-20 14:01:52.098794,-28.0
2023-12-20 14:01:52.106483,-47.0
2023-12-20 14:01:52.114172,-73.0
2023-12-20 14:01:52.121861,-78.0
2023-12-20 14:01:52.129550,-66.0
2023-12-20 14:01:52.137239,-66.0
2023-12-20 14:01:52.144928,-66.0
2023-12-20 14:01:52.152617,-50.0
2023-12-20 14:01:52.160306,-52.0
2023-12-20 14:01:52.167995,-66.0
2023-12-20 14:01:52.175684,-54.0
2023-12-20 14:01:52.183373,-42.0
2023-12-20 14:01:52.191062,-42.0
2023-12-20 14:01:52.198751,-42.0
2023-12-20 14:01:52.206440,-40.0
2023-12-20 14:01:52.214129,-33.0
2023-12-20 14:01:52.221818,-35.0
2023-12-20 14:01:52.229507,-45.0
2023-12-20 14:01:52.237196,-50.0
2023-12-20 14:01:52.244885,-50.0
2023-12-20 14:01:52.252574,-61.0
2023-12-20 14:01:52.260263,-69.0
2023-12-20 14:01:52.267952,-52.0
2023-12-20 14:01:52.275641,-47.0
2023-12-20 14:01:52.283330,-54.0
2023-12-20 14:01:52.291019,-50.0
2023-12-20 14:01:52.298707,-42.0
2023-12-20 14:01:52.306396,-40.0
2023-12-20 14:01:52.314085,-40.0
2023-12-20 14:01:52.321774,-38.0
2023-12-20 14:01:52.329463,-33.0
2023-12-20 14:01:52.337152,-35.0
2023-12-20 14:01:52.344841,-83.0
2023-12-20 14:01:52.352530,-226.0
2023-12-20 14:01:52.360219,-395.0
2023-12-20 14:01:52.367908,-307.0
2023-12-20 14:01:52.375597,69.0
2023-12-20 14:01:52.383286,309.0
2023-12-20 14:01:52.390975,276.0
2023-12-20 14:01:52.398664,200.0
2023-12-20 14:01:52.406353,112.0
2023-12-20 14:01:52.414042,-21.0
2023-12-20 14:01:52.421731,-81.0
2023-12-20 14:01:52.429420,-61.0
2023-12-20 14:01:52.437109,-57.0
2023-12-20 14:01:52.444798,-73.0
2023-12-20 14:01:52.452487,-83.0
2023-12-20 14:01:52.460176,-83.0
2023-12-20 14:01:52.467865,-76.0
2023-12-20 14:01:52.475554,-73.0
2023-12-20 14:01:52.483243,-81.0
2023-12-20 14:01:52.490932,-78.0
2023-12-20 14:01:52.498621,-85.0
2023-12-20 14:01:52.506310,-104.0
2023-12-20 14:01:52.513999,-109.0
2023-12-20 14:01:52.521688,-104.0
2023-12-20 14:01:52.529377,-97.0
2023-12-20 14:01:52.537066,-85.0
2023-12-20 14:01:52.544755,-83.0
2023-12-20 14:01:52.552444,-90.0
2023-12-20 14:01:52.560133,-92.0
2023-12-20 14:01:52.567822,-90.0
2023-12-20 14:01:52.575511,-85.0
2023-12-20 14:01:52.583200,-81.0
2023-12-20 14:01:52.590889,-76.0
2023-12-20 14:01:52.598578,-71.0
2023-12-20 14:01:52.606267,-64.0
2023-12-20 14:01:52.613956,-47.0
2023-12-20 14:01:52.621645,-28.0
2023-12-20 14:01:52.629334,-7.0
2023-12-20 14:01:52.637023,7.0
2023-12-20 14:01:52.644712,0.0
2023-12-20 14:01:52.652401,-16.0
2023-12-20 14:01:52.660090,-4.0
2023-12-20 14:01:52.667779,7.0
2023-12-20 14:01:52.675468,0.0
2023-12-20 14:01:52.683157,-7.0
2023-12-20 14:01:52.690846,-14.0
2023-12-20 14:01:52.698535,-40.0
2023-12-20 14:01:52.706224,-47.0
2023-12-20 14:01:52.713913,-33.0
2023-12-20 14:01:52.721602,-33.0
2023-12-20 14:01:52.729291,-33.0
2023-12-20 14:01:52.736980,-30.0
2023-12-20 14:01:52.744669,-33.0
2023-12-20 14:01:52.752358,-30.0
2023-12-20 14:01:52.760047,-19.0
2023-12-20 14:01:52.767736,-9.0
2023-12-20 14:01:52.775425,-14.0
2023-12-20 14:01:52.783114,-26.0
2023-12-20 14:01:52.790803,-40.0
2023-12-20 14:01:52.798491,-50.0
2023-12-20 14:01:52.806180,-42.0
