time,ECG
2023-08-21 10:27:20.196142,-29.0
2023-08-21 10:27:20.203831,-31.0
2023-08-21 10:27:20.211519,-26.0
2023-08-21 10:27:20.219208,-19.0
2023-08-21 10:27:20.226897,-17.0
2023-08-21 10:27:20.234586,-19.0
2023-08-21 10:27:20.242274,-24.0
2023-08-21 10:27:20.249963,-38.0
2023-08-21 10:27:20.257652,-51.0
2023-08-21 10:27:20.265340,-68.0
2023-08-21 10:27:20.273029,-94.0
2023-08-21 10:27:20.280718,-123.0
2023-08-21 10:27:20.288407,-155.0
2023-08-21 10:27:20.296095,-184.0
2023-08-21 10:27:20.303784,-196.0
2023-08-21 10:27:20.311473,-191.0
2023-08-21 10:27:20.319162,-184.0
2023-08-21 10:27:20.326850,-179.0
2023-08-21 10:27:20.334539,-172.0
2023-08-21 10:27:20.342228,-165.0
2023-08-21 10:27:20.349916,-157.0
2023-08-21 10:27:20.357605,-153.0
2023-08-21 10:27:20.365294,-143.0
2023-08-21 10:27:20.372983,-133.0
2023-08-21 10:27:20.380671,-133.0
2023-08-21 10:27:20.388360,-136.0
2023-08-21 10:27:20.396049,-131.0
2023-08-21 10:27:20.403738,-123.0
2023-08-21 10:27:20.411426,-121.0
2023-08-21 10:27:20.419115,-121.0
2023-08-21 10:27:20.426804,-121.0
2023-08-21 10:27:20.434493,-119.0
2023-08-21 10:27:20.442181,-116.0
2023-08-21 10:27:20.449870,-111.0
2023-08-21 10:27:20.457559,-106.0
2023-08-21 10:27:20.465247,-104.0
2023-08-21 10:27:20.472936,-102.0
2023-08-21 10:27:20.480625,-102.0
2023-08-21 10:27:20.488314,-97.0
2023-08-21 10:27:20.496002,-92.0
2023-08-21 10:27:20.503691,-89.0
2023-08-21 10:27:20.511380,-85.0
2023-08-21 10:27:20.519069,-82.0
2023-08-21 10:27:20.526757,-82.0
2023-08-21 10:27:20.534446,-87.0
2023-08-21 10:27:20.542135,-85.0
2023-08-21 10:27:20.549823,-85.0
2023-08-21 10:27:20.557512,-97.0
2023-08-21 10:27:20.565201,-102.0
2023-08-21 10:27:20.572890,-92.0
2023-08-21 10:27:20.580578,-82.0
2023-08-21 10:27:20.588267,-82.0
2023-08-21 10:27:20.595956,-80.0
2023-08-21 10:27:20.603645,-65.0
2023-08-21 10:27:20.611333,-43.0
2023-08-21 10:27:20.619022,-26.0
2023-08-21 10:27:20.626711,-24.0
2023-08-21 10:27:20.634400,-41.0
2023-08-21 10:27:20.642088,-65.0
2023-08-21 10:27:20.649777,-80.0
2023-08-21 10:27:20.657466,-75.0
2023-08-21 10:27:20.665154,-70.0
2023-08-21 10:27:20.672843,-68.0
2023-08-21 10:27:20.680532,-65.0
2023-08-21 10:27:20.688221,-60.0
2023-08-21 10:27:20.695909,-60.0
2023-08-21 10:27:20.703598,-70.0
2023-08-21 10:27:20.711287,-80.0
2023-08-21 10:27:20.718976,2.0
2023-08-21 10:27:20.726664,349.0
2023-08-21 10:27:20.734353,918.0
2023-08-21 10:27:20.742042,1207.0
2023-08-21 10:27:20.749730,750.0
2023-08-21 10:27:20.757419,-58.0
2023-08-21 10:27:20.765108,-308.0
2023-08-21 10:27:20.772797,-82.0
2023-08-21 10:27:20.780485,-82.0
2023-08-21 10:27:20.788174,-199.0
2023-08-21 10:27:20.795863,-150.0
2023-08-21 10:27:20.803552,-116.0
2023-08-21 10:27:20.811240,-145.0
2023-08-21 10:27:20.818929,-126.0
2023-08-21 10:27:20.826618,-102.0
2023-08-21 10:27:20.834307,-106.0
2023-08-21 10:27:20.841995,-102.0
2023-08-21 10:27:20.849684,-87.0
2023-08-21 10:27:20.857373,-82.0
2023-08-21 10:27:20.865061,-77.0
2023-08-21 10:27:20.872750,-70.0
2023-08-21 10:27:20.880439,-63.0
2023-08-21 10:27:20.888128,-53.0
2023-08-21 10:27:20.895816,-46.0
2023-08-21 10:27:20.903505,-34.0
2023-08-21 10:27:20.911194,-24.0
2023-08-21 10:27:20.918883,-14.0
2023-08-21 10:27:20.926571,-4.0
2023-08-21 10:27:20.934260,7.0
2023-08-21 10:27:20.941949,17.0
2023-08-21 10:27:20.949638,26.0
2023-08-21 10:27:20.957326,34.0
2023-08-21 10:27:20.965015,36.0
2023-08-21 10:27:20.972704,36.0
2023-08-21 10:27:20.980392,34.0
2023-08-21 10:27:20.988081,31.0
2023-08-21 10:27:20.995770,31.0
2023-08-21 10:27:21.003459,26.0
2023-08-21 10:27:21.011147,12.0
2023-08-21 10:27:21.018836,-12.0
2023-08-21 10:27:21.026525,-36.0
2023-08-21 10:27:21.034214,-70.0
2023-08-21 10:27:21.041902,-109.0
2023-08-21 10:27:21.049591,-128.0
2023-08-21 10:27:21.057280,-138.0
2023-08-21 10:27:21.064968,-145.0
2023-08-21 10:27:21.072657,-145.0
2023-08-21 10:27:21.080346,-140.0
2023-08-21 10:27:21.088035,-136.0
2023-08-21 10:27:21.095723,-133.0
2023-08-21 10:27:21.103412,-138.0
2023-08-21 10:27:21.111101,-136.0
2023-08-21 10:27:21.118790,-126.0
2023-08-21 10:27:21.126478,-121.0
2023-08-21 10:27:21.134167,-121.0
2023-08-21 10:27:21.141856,-123.0
2023-08-21 10:27:21.149545,-131.0
2023-08-21 10:27:21.157233,-128.0
2023-08-21 10:27:21.164922,-126.0
2023-08-21 10:27:21.172611,-126.0
2023-08-21 10:27:21.180299,-121.0
2023-08-21 10:27:21.187988,-119.0
2023-08-21 10:27:21.195677,-121.0
2023-08-21 10:27:21.203366,-119.0
2023-08-21 10:27:21.211054,-114.0
2023-08-21 10:27:21.218743,-114.0
2023-08-21 10:27:21.226432,-114.0
2023-08-21 10:27:21.234121,-111.0
2023-08-21 10:27:21.241809,-109.0
2023-08-21 10:27:21.249498,-104.0
2023-08-21 10:27:21.257187,-99.0
2023-08-21 10:27:21.264875,-97.0
2023-08-21 10:27:21.272564,-94.0
2023-08-21 10:27:21.280253,-94.0
2023-08-21 10:27:21.287942,-92.0
2023-08-21 10:27:21.295630,-92.0
2023-08-21 10:27:21.303319,-89.0
2023-08-21 10:27:21.311008,-87.0
2023-08-21 10:27:21.318697,-87.0
2023-08-21 10:27:21.326385,-85.0
2023-08-21 10:27:21.334074,-87.0
2023-08-21 10:27:21.341763,-82.0
2023-08-21 10:27:21.349452,-80.0
2023-08-21 10:27:21.357140,-75.0
2023-08-21 10:27:21.364829,-48.0
2023-08-21 10:27:21.372518,-19.0
2023-08-21 10:27:21.380206,-9.0
2023-08-21 10:27:21.387895,-9.0
2023-08-21 10:27:21.395584,-21.0
2023-08-21 10:27:21.403273,-53.0
2023-08-21 10:27:21.410961,-72.0
2023-08-21 10:27:21.418650,-65.0
2023-08-21 10:27:21.426339,-58.0
2023-08-21 10:27:21.434028,-60.0
2023-08-21 10:27:21.441716,-65.0
2023-08-21 10:27:21.449405,-63.0
2023-08-21 10:27:21.457094,-58.0
2023-08-21 10:27:21.464782,-70.0
2023-08-21 10:27:21.472471,-77.0
2023-08-21 10:27:21.480160,24.0
2023-08-21 10:27:21.487849,410.0
2023-08-21 10:27:21.495537,993.0
2023-08-21 10:27:21.503226,1226.0
2023-08-21 10:27:21.510915,665.0
2023-08-21 10:27:21.518604,-153.0
2023-08-21 10:27:21.526292,-313.0
2023-08-21 10:27:21.533981,-77.0
2023-08-21 10:27:21.541670,-126.0
2023-08-21 10:27:21.549359,-238.0
2023-08-21 10:27:21.557047,-165.0
2023-08-21 10:27:21.564736,-136.0
2023-08-21 10:27:21.572425,-170.0
2023-08-21 10:27:21.580113,-148.0
2023-08-21 10:27:21.587802,-121.0
2023-08-21 10:27:21.595491,-128.0
2023-08-21 10:27:21.603180,-119.0
2023-08-21 10:27:21.610868,-104.0
2023-08-21 10:27:21.618557,-102.0
2023-08-21 10:27:21.626246,-99.0
2023-08-21 10:27:21.633935,-89.0
2023-08-21 10:27:21.641623,-87.0
2023-08-21 10:27:21.649312,-82.0
2023-08-21 10:27:21.657001,-65.0
2023-08-21 10:27:21.664689,-53.0
2023-08-21 10:27:21.672378,-43.0
2023-08-21 10:27:21.680067,-36.0
2023-08-21 10:27:21.687756,-34.0
2023-08-21 10:27:21.695444,-24.0
2023-08-21 10:27:21.703133,-7.0
2023-08-21 10:27:21.710822,7.0
2023-08-21 10:27:21.718511,9.0
2023-08-21 10:27:21.726199,12.0
2023-08-21 10:27:21.733888,14.0
2023-08-21 10:27:21.741577,14.0
2023-08-21 10:27:21.749266,12.0
2023-08-21 10:27:21.756954,9.0
2023-08-21 10:27:21.764643,4.0
2023-08-21 10:27:21.772332,-17.0
2023-08-21 10:27:21.780020,-46.0
2023-08-21 10:27:21.787709,-72.0
2023-08-21 10:27:21.795398,-99.0
2023-08-21 10:27:21.803087,-121.0
2023-08-21 10:27:21.810775,-140.0
2023-08-21 10:27:21.818464,-155.0
2023-08-21 10:27:21.826153,-157.0
2023-08-21 10:27:21.833842,-155.0
2023-08-21 10:27:21.841530,-150.0
2023-08-21 10:27:21.849219,-143.0
2023-08-21 10:27:21.856908,-136.0
2023-08-21 10:27:21.864596,-136.0
2023-08-21 10:27:21.872285,-133.0
2023-08-21 10:27:21.879974,-121.0
2023-08-21 10:27:21.887663,-111.0
2023-08-21 10:27:21.895351,-109.0
2023-08-21 10:27:21.903040,-106.0
2023-08-21 10:27:21.910729,-104.0
2023-08-21 10:27:21.918418,-104.0
2023-08-21 10:27:21.926106,-104.0
2023-08-21 10:27:21.933795,-102.0
2023-08-21 10:27:21.941484,-102.0
2023-08-21 10:27:21.949173,-99.0
2023-08-21 10:27:21.956861,-102.0
2023-08-21 10:27:21.964550,-109.0
2023-08-21 10:27:21.972239,-104.0
2023-08-21 10:27:21.979927,-97.0
2023-08-21 10:27:21.987616,-97.0
2023-08-21 10:27:21.995305,-99.0
2023-08-21 10:27:22.002994,-99.0
2023-08-21 10:27:22.010682,-97.0
2023-08-21 10:27:22.018371,-92.0
2023-08-21 10:27:22.026060,-92.0
2023-08-21 10:27:22.033749,-92.0
2023-08-21 10:27:22.041437,-92.0
2023-08-21 10:27:22.049126,-94.0
2023-08-21 10:27:22.056815,-99.0
2023-08-21 10:27:22.064503,-99.0
2023-08-21 10:27:22.072192,-94.0
2023-08-21 10:27:22.079881,-92.0
2023-08-21 10:27:22.087570,-94.0
2023-08-21 10:27:22.095258,-97.0
2023-08-21 10:27:22.102947,-89.0
2023-08-21 10:27:22.110636,-65.0
2023-08-21 10:27:22.118325,-36.0
2023-08-21 10:27:22.126013,-24.0
2023-08-21 10:27:22.133702,-24.0
2023-08-21 10:27:22.141391,-34.0
2023-08-21 10:27:22.149080,-58.0
2023-08-21 10:27:22.156768,-80.0
2023-08-21 10:27:22.164457,-80.0
2023-08-21 10:27:22.172146,-72.0
2023-08-21 10:27:22.179834,-77.0
2023-08-21 10:27:22.187523,-80.0
2023-08-21 10:27:22.195212,-77.0
2023-08-21 10:27:22.202901,-75.0
2023-08-21 10:27:22.210589,-85.0
2023-08-21 10:27:22.218278,-99.0
2023-08-21 10:27:22.225967,-38.0
2023-08-21 10:27:22.233656,298.0
2023-08-21 10:27:22.241344,893.0
2023-08-21 10:27:22.249033,1234.0
2023-08-21 10:27:22.256722,784.0
2023-08-21 10:27:22.264410,-80.0
2023-08-21 10:27:22.272099,-374.0
2023-08-21 10:27:22.279788,-133.0
2023-08-21 10:27:22.287477,-123.0
2023-08-21 10:27:22.295165,-247.0
2023-08-21 10:27:22.302854,-189.0
2023-08-21 10:27:22.310543,-150.0
2023-08-21 10:27:22.318232,-189.0
2023-08-21 10:27:22.325920,-172.0
2023-08-21 10:27:22.333609,-140.0
2023-08-21 10:27:22.341298,-145.0
2023-08-21 10:27:22.348987,-140.0
2023-08-21 10:27:22.356675,-126.0
2023-08-21 10:27:22.364364,-123.0
2023-08-21 10:27:22.372053,-119.0
2023-08-21 10:27:22.379741,-104.0
2023-08-21 10:27:22.387430,-94.0
2023-08-21 10:27:22.395119,-85.0
2023-08-21 10:27:22.402808,-75.0
2023-08-21 10:27:22.410496,-65.0
2023-08-21 10:27:22.418185,-55.0
2023-08-21 10:27:22.425874,-41.0
2023-08-21 10:27:22.433563,-24.0
2023-08-21 10:27:22.441251,-17.0
2023-08-21 10:27:22.448940,-7.0
2023-08-21 10:27:22.456629,2.0
2023-08-21 10:27:22.464317,7.0
2023-08-21 10:27:22.472006,12.0
2023-08-21 10:27:22.479695,12.0
2023-08-21 10:27:22.487384,2.0
2023-08-21 10:27:22.495072,-9.0
2023-08-21 10:27:22.502761,-12.0
2023-08-21 10:27:22.510450,-17.0
2023-08-21 10:27:22.518139,-34.0
2023-08-21 10:27:22.525827,-55.0
2023-08-21 10:27:22.533516,-82.0
2023-08-21 10:27:22.541205,-106.0
2023-08-21 10:27:22.548894,-128.0
2023-08-21 10:27:22.556582,-150.0
2023-08-21 10:27:22.564271,-170.0
2023-08-21 10:27:22.571960,-172.0
2023-08-21 10:27:22.579648,-167.0
2023-08-21 10:27:22.587337,-165.0
2023-08-21 10:27:22.595026,-160.0
2023-08-21 10:27:22.602715,-150.0
2023-08-21 10:27:22.610403,-143.0
2023-08-21 10:27:22.618092,-140.0
2023-08-21 10:27:22.625781,-138.0
2023-08-21 10:27:22.633470,-133.0
2023-08-21 10:27:22.641158,-128.0
2023-08-21 10:27:22.648847,-123.0
2023-08-21 10:27:22.656536,-121.0
2023-08-21 10:27:22.664224,-119.0
2023-08-21 10:27:22.671913,-116.0
2023-08-21 10:27:22.679602,-119.0
2023-08-21 10:27:22.687291,-119.0
2023-08-21 10:27:22.694979,-119.0
2023-08-21 10:27:22.702668,-119.0
2023-08-21 10:27:22.710357,-121.0
2023-08-21 10:27:22.718046,-119.0
2023-08-21 10:27:22.725734,-119.0
2023-08-21 10:27:22.733423,-119.0
2023-08-21 10:27:22.741112,-116.0
2023-08-21 10:27:22.748801,-114.0
2023-08-21 10:27:22.756489,-111.0
2023-08-21 10:27:22.764178,-111.0
2023-08-21 10:27:22.771867,-106.0
2023-08-21 10:27:22.779555,-104.0
2023-08-21 10:27:22.787244,-104.0
2023-08-21 10:27:22.794933,-102.0
2023-08-21 10:27:22.802622,-102.0
2023-08-21 10:27:22.810310,-111.0
2023-08-21 10:27:22.817999,-119.0
2023-08-21 10:27:22.825688,-111.0
2023-08-21 10:27:22.833377,-106.0
2023-08-21 10:27:22.841065,-106.0
2023-08-21 10:27:22.848754,-106.0
2023-08-21 10:27:22.856443,-106.0
2023-08-21 10:27:22.864131,-106.0
2023-08-21 10:27:22.871820,-89.0
2023-08-21 10:27:22.879509,-58.0
2023-08-21 10:27:22.887198,-38.0
2023-08-21 10:27:22.894886,-38.0
2023-08-21 10:27:22.902575,-43.0
2023-08-21 10:27:22.910264,-63.0
2023-08-21 10:27:22.917953,-92.0
2023-08-21 10:27:22.925641,-97.0
2023-08-21 10:27:22.933330,-87.0
2023-08-21 10:27:22.941019,-92.0
2023-08-21 10:27:22.948708,-97.0
2023-08-21 10:27:22.956396,-94.0
2023-08-21 10:27:22.964085,-89.0
2023-08-21 10:27:22.971774,-97.0
2023-08-21 10:27:22.979462,-111.0
2023-08-21 10:27:22.987151,-80.0
2023-08-21 10:27:22.994840,157.0
2023-08-21 10:27:23.002529,699.0
2023-08-21 10:27:23.010217,1185.0
2023-08-21 10:27:23.017906,1000.0
2023-08-21 10:27:23.025595,179.0
2023-08-21 10:27:23.033284,-349.0
2023-08-21 10:27:23.040972,-199.0
2023-08-21 10:27:23.048661,-82.0
2023-08-21 10:27:23.056350,-216.0
2023-08-21 10:27:23.064038,-221.0
2023-08-21 10:27:23.071727,-162.0
2023-08-21 10:27:23.079416,-191.0
2023-08-21 10:27:23.087105,-196.0
2023-08-21 10:27:23.094793,-162.0
2023-08-21 10:27:23.102482,-160.0
2023-08-21 10:27:23.110171,-157.0
2023-08-21 10:27:23.117860,-143.0
2023-08-21 10:27:23.125548,-133.0
2023-08-21 10:27:23.133237,-126.0
2023-08-21 10:27:23.140926,-111.0
2023-08-21 10:27:23.148615,-97.0
2023-08-21 10:27:23.156303,-87.0
2023-08-21 10:27:23.163992,-77.0
2023-08-21 10:27:23.171681,-65.0
2023-08-21 10:27:23.179369,-53.0
2023-08-21 10:27:23.187058,-41.0
2023-08-21 10:27:23.194747,-29.0
2023-08-21 10:27:23.202436,-19.0
2023-08-21 10:27:23.210124,-7.0
2023-08-21 10:27:23.217813,4.0
2023-08-21 10:27:23.225502,12.0
2023-08-21 10:27:23.233191,19.0
2023-08-21 10:27:23.240879,24.0
2023-08-21 10:27:23.248568,24.0
2023-08-21 10:27:23.256257,19.0
2023-08-21 10:27:23.263945,14.0
2023-08-21 10:27:23.271634,12.0
2023-08-21 10:27:23.279323,2.0
2023-08-21 10:27:23.287012,-19.0
2023-08-21 10:27:23.294700,-48.0
2023-08-21 10:27:23.302389,-85.0
2023-08-21 10:27:23.310078,-119.0
2023-08-21 10:27:23.317767,-140.0
2023-08-21 10:27:23.325455,-148.0
2023-08-21 10:27:23.333144,-157.0
2023-08-21 10:27:23.340833,-162.0
2023-08-21 10:27:23.348522,-157.0
2023-08-21 10:27:23.356210,-153.0
2023-08-21 10:27:23.363899,-145.0
2023-08-21 10:27:23.371588,-140.0
2023-08-21 10:27:23.379276,-138.0
2023-08-21 10:27:23.386965,-133.0
2023-08-21 10:27:23.394654,-126.0
2023-08-21 10:27:23.402343,-123.0
2023-08-21 10:27:23.410031,-119.0
2023-08-21 10:27:23.417720,-119.0
2023-08-21 10:27:23.425409,-116.0
2023-08-21 10:27:23.433098,-116.0
2023-08-21 10:27:23.440786,-116.0
2023-08-21 10:27:23.448475,-116.0
2023-08-21 10:27:23.456164,-114.0
2023-08-21 10:27:23.463852,-111.0
2023-08-21 10:27:23.471541,-114.0
2023-08-21 10:27:23.479230,-116.0
2023-08-21 10:27:23.486919,-116.0
2023-08-21 10:27:23.494607,-116.0
2023-08-21 10:27:23.502296,-116.0
2023-08-21 10:27:23.509985,-119.0
2023-08-21 10:27:23.517674,-119.0
2023-08-21 10:27:23.525362,-116.0
2023-08-21 10:27:23.533051,-114.0
2023-08-21 10:27:23.540740,-114.0
2023-08-21 10:27:23.548429,-114.0
2023-08-21 10:27:23.556117,-111.0
2023-08-21 10:27:23.563806,-114.0
2023-08-21 10:27:23.571495,-119.0
2023-08-21 10:27:23.579183,-121.0
2023-08-21 10:27:23.586872,-111.0
2023-08-21 10:27:23.594561,-106.0
2023-08-21 10:27:23.602250,-104.0
2023-08-21 10:27:23.609938,-102.0
2023-08-21 10:27:23.617627,-99.0
2023-08-21 10:27:23.625316,-99.0
2023-08-21 10:27:23.633005,-97.0
2023-08-21 10:27:23.640693,-97.0
2023-08-21 10:27:23.648382,-94.0
2023-08-21 10:27:23.656071,-89.0
2023-08-21 10:27:23.663760,-92.0
2023-08-21 10:27:23.671448,-92.0
2023-08-21 10:27:23.679137,-97.0
2023-08-21 10:27:23.686826,-92.0
2023-08-21 10:27:23.694514,-60.0
2023-08-21 10:27:23.702203,-29.0
2023-08-21 10:27:23.709892,-31.0
2023-08-21 10:27:23.717581,-41.0
2023-08-21 10:27:23.725269,-48.0
2023-08-21 10:27:23.732958,-75.0
2023-08-21 10:27:23.740647,-94.0
2023-08-21 10:27:23.748336,-92.0
2023-08-21 10:27:23.756024,-94.0
2023-08-21 10:27:23.763713,-102.0
2023-08-21 10:27:23.771402,-97.0
2023-08-21 10:27:23.779090,-94.0
2023-08-21 10:27:23.786779,-94.0
2023-08-21 10:27:23.794468,-102.0
2023-08-21 10:27:23.802157,-123.0
2023-08-21 10:27:23.809845,-68.0
2023-08-21 10:27:23.817534,257.0
2023-08-21 10:27:23.825223,842.0
2023-08-21 10:27:23.832912,1204.0
2023-08-21 10:27:23.840600,816.0
2023-08-21 10:27:23.848289,-26.0
2023-08-21 10:27:23.855978,-369.0
2023-08-21 10:27:23.863667,-153.0
2023-08-21 10:27:23.871355,-119.0
2023-08-21 10:27:23.879044,-247.0
2023-08-21 10:27:23.886733,-206.0
2023-08-21 10:27:23.894421,-160.0
2023-08-21 10:27:23.902110,-189.0
2023-08-21 10:27:23.909799,-179.0
2023-08-21 10:27:23.917488,-150.0
2023-08-21 10:27:23.925176,-150.0
2023-08-21 10:27:23.932865,-150.0
2023-08-21 10:27:23.940554,-145.0
2023-08-21 10:27:23.948243,-136.0
2023-08-21 10:27:23.955931,-121.0
2023-08-21 10:27:23.963620,-109.0
2023-08-21 10:27:23.971309,-99.0
2023-08-21 10:27:23.978997,-89.0
2023-08-21 10:27:23.986686,-80.0
2023-08-21 10:27:23.994375,-70.0
2023-08-21 10:27:24.002064,-60.0
2023-08-21 10:27:24.009752,-46.0
2023-08-21 10:27:24.017441,-34.0
2023-08-21 10:27:24.025130,-34.0
2023-08-21 10:27:24.032819,-29.0
2023-08-21 10:27:24.040507,-17.0
2023-08-21 10:27:24.048196,-4.0
2023-08-21 10:27:24.055885,2.0
2023-08-21 10:27:24.063574,7.0
2023-08-21 10:27:24.071262,0.0
2023-08-21 10:27:24.078951,-9.0
2023-08-21 10:27:24.086640,-7.0
2023-08-21 10:27:24.094328,-4.0
2023-08-21 10:27:24.102017,-17.0
2023-08-21 10:27:24.109706,-41.0
2023-08-21 10:27:24.117395,-72.0
2023-08-21 10:27:24.125083,-102.0
2023-08-21 10:27:24.132772,-126.0
2023-08-21 10:27:24.140461,-145.0
2023-08-21 10:27:24.148150,-157.0
2023-08-21 10:27:24.155838,-162.0
2023-08-21 10:27:24.163527,-165.0
2023-08-21 10:27:24.171216,-162.0
2023-08-21 10:27:24.178904,-153.0
2023-08-21 10:27:24.186593,-145.0
2023-08-21 10:27:24.194282,-138.0
2023-08-21 10:27:24.201971,-136.0
2023-08-21 10:27:24.209659,-133.0
2023-08-21 10:27:24.217348,-128.0
2023-08-21 10:27:24.225037,-121.0
2023-08-21 10:27:24.232726,-119.0
2023-08-21 10:27:24.240414,-119.0
2023-08-21 10:27:24.248103,-121.0
2023-08-21 10:27:24.255792,-121.0
2023-08-21 10:27:24.263481,-119.0
2023-08-21 10:27:24.271169,-116.0
2023-08-21 10:27:24.278858,-116.0
2023-08-21 10:27:24.286547,-116.0
2023-08-21 10:27:24.294235,-114.0
2023-08-21 10:27:24.301924,-114.0
2023-08-21 10:27:24.309613,-114.0
2023-08-21 10:27:24.317302,-111.0
2023-08-21 10:27:24.324990,-109.0
2023-08-21 10:27:24.332679,-106.0
2023-08-21 10:27:24.340368,-109.0
2023-08-21 10:27:24.348057,-106.0
2023-08-21 10:27:24.355745,-104.0
2023-08-21 10:27:24.363434,-102.0
2023-08-21 10:27:24.371123,-97.0
2023-08-21 10:27:24.378811,-94.0
2023-08-21 10:27:24.386500,-94.0
2023-08-21 10:27:24.394189,-92.0
2023-08-21 10:27:24.401878,-92.0
2023-08-21 10:27:24.409566,-87.0
2023-08-21 10:27:24.417255,-85.0
2023-08-21 10:27:24.424944,-82.0
2023-08-21 10:27:24.432633,-82.0
2023-08-21 10:27:24.440321,-85.0
2023-08-21 10:27:24.448010,-85.0
2023-08-21 10:27:24.455699,-85.0
2023-08-21 10:27:24.463388,-82.0
2023-08-21 10:27:24.471076,-87.0
2023-08-21 10:27:24.478765,-97.0
2023-08-21 10:27:24.486454,-102.0
2023-08-21 10:27:24.494142,-99.0
2023-08-21 10:27:24.501831,-99.0
2023-08-21 10:27:24.509520,-99.0
2023-08-21 10:27:24.517209,-82.0
2023-08-21 10:27:24.524897,-43.0
2023-08-21 10:27:24.532586,-21.0
2023-08-21 10:27:24.540275,-31.0
2023-08-21 10:27:24.547964,-41.0
2023-08-21 10:27:24.555652,-58.0
2023-08-21 10:27:24.563341,-94.0
2023-08-21 10:27:24.571030,-109.0
2023-08-21 10:27:24.578718,-104.0
2023-08-21 10:27:24.586407,-111.0
2023-08-21 10:27:24.594096,-114.0
2023-08-21 10:27:24.601785,-109.0
2023-08-21 10:27:24.609473,-111.0
2023-08-21 10:27:24.617162,-116.0
2023-08-21 10:27:24.624851,-126.0
2023-08-21 10:27:24.632540,-123.0
2023-08-21 10:27:24.640228,24.0
2023-08-21 10:27:24.647917,480.0
2023-08-21 10:27:24.655606,1044.0
2023-08-21 10:27:24.663295,1127.0
2023-08-21 10:27:24.670983,451.0
2023-08-21 10:27:24.678672,-269.0
2023-08-21 10:27:24.686361,-291.0
2023-08-21 10:27:24.694049,-89.0
2023-08-21 10:27:24.701738,-184.0
2023-08-21 10:27:24.709427,-247.0
2023-08-21 10:27:24.717116,-170.0
2023-08-21 10:27:24.724804,-167.0
2023-08-21 10:27:24.732493,-189.0
2023-08-21 10:27:24.740182,-160.0
2023-08-21 10:27:24.747871,-145.0
2023-08-21 10:27:24.755559,-145.0
2023-08-21 10:27:24.763248,-128.0
2023-08-21 10:27:24.770937,-114.0
2023-08-21 10:27:24.778625,-109.0
2023-08-21 10:27:24.786314,-99.0
2023-08-21 10:27:24.794003,-85.0
2023-08-21 10:27:24.801692,-72.0
2023-08-21 10:27:24.809380,-60.0
2023-08-21 10:27:24.817069,-48.0
2023-08-21 10:27:24.824758,-34.0
2023-08-21 10:27:24.832447,-21.0
2023-08-21 10:27:24.840135,-12.0
2023-08-21 10:27:24.847824,2.0
2023-08-21 10:27:24.855513,17.0
2023-08-21 10:27:24.863202,24.0
2023-08-21 10:27:24.870890,31.0
2023-08-21 10:27:24.878579,41.0
2023-08-21 10:27:24.886268,43.0
2023-08-21 10:27:24.893956,46.0
2023-08-21 10:27:24.901645,46.0
2023-08-21 10:27:24.909334,43.0
2023-08-21 10:27:24.917023,41.0
2023-08-21 10:27:24.924711,34.0
2023-08-21 10:27:24.932400,19.0
2023-08-21 10:27:24.940089,-4.0
2023-08-21 10:27:24.947778,-34.0
2023-08-21 10:27:24.955466,-63.0
2023-08-21 10:27:24.963155,-89.0
2023-08-21 10:27:24.970844,-109.0
2023-08-21 10:27:24.978532,-126.0
2023-08-21 10:27:24.986221,-133.0
2023-08-21 10:27:24.993910,-138.0
2023-08-21 10:27:25.001599,-133.0
2023-08-21 10:27:25.009287,-131.0
2023-08-21 10:27:25.016976,-133.0
2023-08-21 10:27:25.024665,-133.0
2023-08-21 10:27:25.032354,-123.0
2023-08-21 10:27:25.040042,-116.0
2023-08-21 10:27:25.047731,-114.0
2023-08-21 10:27:25.055420,-111.0
2023-08-21 10:27:25.063109,-109.0
2023-08-21 10:27:25.070797,-109.0
2023-08-21 10:27:25.078486,-111.0
2023-08-21 10:27:25.086175,-114.0
2023-08-21 10:27:25.093863,-114.0
2023-08-21 10:27:25.101552,-116.0
2023-08-21 10:27:25.109241,-119.0
2023-08-21 10:27:25.116930,-119.0
2023-08-21 10:27:25.124618,-119.0
2023-08-21 10:27:25.132307,-119.0
2023-08-21 10:27:25.139996,-116.0
2023-08-21 10:27:25.147685,-114.0
2023-08-21 10:27:25.155373,-111.0
2023-08-21 10:27:25.163062,-111.0
2023-08-21 10:27:25.170751,-106.0
2023-08-21 10:27:25.178439,-106.0
2023-08-21 10:27:25.186128,-104.0
2023-08-21 10:27:25.193817,-106.0
2023-08-21 10:27:25.201506,-109.0
2023-08-21 10:27:25.209194,-106.0
2023-08-21 10:27:25.216883,-102.0
2023-08-21 10:27:25.224572,-102.0
2023-08-21 10:27:25.232261,-104.0
2023-08-21 10:27:25.239949,-104.0
2023-08-21 10:27:25.247638,-99.0
2023-08-21 10:27:25.255327,-94.0
2023-08-21 10:27:25.263016,-92.0
2023-08-21 10:27:25.270704,-92.0
2023-08-21 10:27:25.278393,-94.0
2023-08-21 10:27:25.286082,-92.0
2023-08-21 10:27:25.293770,-89.0
2023-08-21 10:27:25.301459,-89.0
2023-08-21 10:27:25.309148,-87.0
2023-08-21 10:27:25.316837,-68.0
2023-08-21 10:27:25.324525,-41.0
2023-08-21 10:27:25.332214,-29.0
2023-08-21 10:27:25.339903,-34.0
2023-08-21 10:27:25.347592,-41.0
2023-08-21 10:27:25.355280,-65.0
2023-08-21 10:27:25.362969,-94.0
2023-08-21 10:27:25.370658,-99.0
2023-08-21 10:27:25.378346,-92.0
2023-08-21 10:27:25.386035,-94.0
2023-08-21 10:27:25.393724,-97.0
2023-08-21 10:27:25.401413,-92.0
2023-08-21 10:27:25.409101,-89.0
2023-08-21 10:27:25.416790,-99.0
2023-08-21 10:27:25.424479,-111.0
2023-08-21 10:27:25.432168,-68.0
2023-08-21 10:27:25.439856,196.0
2023-08-21 10:27:25.447545,770.0
2023-08-21 10:27:25.455234,1255.0
2023-08-21 10:27:25.462923,1015.0
2023-08-21 10:27:25.470611,133.0
2023-08-21 10:27:25.478300,-376.0
2023-08-21 10:27:25.485989,-184.0
2023-08-21 10:27:25.493677,-80.0
2023-08-21 10:27:25.501366,-228.0
2023-08-21 10:27:25.509055,-211.0
2023-08-21 10:27:25.516744,-140.0
2023-08-21 10:27:25.524432,-170.0
2023-08-21 10:27:25.532121,-170.0
2023-08-21 10:27:25.539810,-133.0
2023-08-21 10:27:25.547499,-131.0
2023-08-21 10:27:25.555187,-140.0
2023-08-21 10:27:25.562876,-128.0
2023-08-21 10:27:25.570565,-111.0
2023-08-21 10:27:25.578253,-109.0
2023-08-21 10:27:25.585942,-109.0
2023-08-21 10:27:25.593631,-102.0
2023-08-21 10:27:25.601320,-99.0
2023-08-21 10:27:25.609008,-94.0
2023-08-21 10:27:25.616697,-75.0
2023-08-21 10:27:25.624386,-58.0
2023-08-21 10:27:25.632075,-46.0
2023-08-21 10:27:25.639763,-34.0
2023-08-21 10:27:25.647452,-24.0
2023-08-21 10:27:25.655141,-9.0
2023-08-21 10:27:25.662830,4.0
2023-08-21 10:27:25.670518,14.0
2023-08-21 10:27:25.678207,19.0
2023-08-21 10:27:25.685896,21.0
2023-08-21 10:27:25.693584,19.0
2023-08-21 10:27:25.701273,17.0
2023-08-21 10:27:25.708962,17.0
2023-08-21 10:27:25.716651,9.0
2023-08-21 10:27:25.724339,-4.0
2023-08-21 10:27:25.732028,-24.0
2023-08-21 10:27:25.739717,-53.0
2023-08-21 10:27:25.747406,-80.0
2023-08-21 10:27:25.755094,-104.0
2023-08-21 10:27:25.762783,-128.0
2023-08-21 10:27:25.770472,-145.0
2023-08-21 10:27:25.778160,-155.0
2023-08-21 10:27:25.785849,-160.0
2023-08-21 10:27:25.793538,-155.0
2023-08-21 10:27:25.801227,-148.0
2023-08-21 10:27:25.808915,-143.0
2023-08-21 10:27:25.816604,-136.0
2023-08-21 10:27:25.824293,-131.0
2023-08-21 10:27:25.831982,-126.0
2023-08-21 10:27:25.839670,-121.0
2023-08-21 10:27:25.847359,-111.0
2023-08-21 10:27:25.855048,-109.0
2023-08-21 10:27:25.862737,-106.0
2023-08-21 10:27:25.870425,-106.0
2023-08-21 10:27:25.878114,-106.0
2023-08-21 10:27:25.885803,-106.0
2023-08-21 10:27:25.893491,-104.0
2023-08-21 10:27:25.901180,-104.0
2023-08-21 10:27:25.908869,-106.0
2023-08-21 10:27:25.916558,-109.0
2023-08-21 10:27:25.924246,-109.0
2023-08-21 10:27:25.931935,-109.0
2023-08-21 10:27:25.939624,-106.0
2023-08-21 10:27:25.947313,-109.0
2023-08-21 10:27:25.955001,-111.0
2023-08-21 10:27:25.962690,-111.0
2023-08-21 10:27:25.970379,-114.0
2023-08-21 10:27:25.978067,-109.0
2023-08-21 10:27:25.985756,-104.0
2023-08-21 10:27:25.993445,-104.0
2023-08-21 10:27:26.001134,-104.0
2023-08-21 10:27:26.008822,-104.0
2023-08-21 10:27:26.016511,-102.0
2023-08-21 10:27:26.024200,-99.0
2023-08-21 10:27:26.031889,-99.0
2023-08-21 10:27:26.039577,-94.0
2023-08-21 10:27:26.047266,-92.0
2023-08-21 10:27:26.054955,-94.0
2023-08-21 10:27:26.062644,-99.0
2023-08-21 10:27:26.070332,-102.0
2023-08-21 10:27:26.078021,-104.0
2023-08-21 10:27:26.085710,-106.0
2023-08-21 10:27:26.093398,-99.0
2023-08-21 10:27:26.101087,-75.0
2023-08-21 10:27:26.108776,-53.0
2023-08-21 10:27:26.116465,-53.0
2023-08-21 10:27:26.124153,-60.0
2023-08-21 10:27:26.131842,-82.0
2023-08-21 10:27:26.139531,-116.0
2023-08-21 10:27:26.147220,-121.0
2023-08-21 10:27:26.154908,-111.0
2023-08-21 10:27:26.162597,-114.0
2023-08-21 10:27:26.170286,-116.0
2023-08-21 10:27:26.177974,-106.0
2023-08-21 10:27:26.185663,-106.0
2023-08-21 10:27:26.193352,-116.0
2023-08-21 10:27:26.201041,-131.0
2023-08-21 10:27:26.208729,-85.0
2023-08-21 10:27:26.216418,187.0
2023-08-21 10:27:26.224107,745.0
2023-08-21 10:27:26.231796,1178.0
2023-08-21 10:27:26.239484,898.0
2023-08-21 10:27:26.247173,60.0
2023-08-21 10:27:26.254862,-383.0
2023-08-21 10:27:26.262551,-189.0
2023-08-21 10:27:26.270239,-106.0
2023-08-21 10:27:26.277928,-247.0
2023-08-21 10:27:26.285617,-225.0
2023-08-21 10:27:26.293305,-162.0
2023-08-21 10:27:26.300994,-189.0
2023-08-21 10:27:26.308683,-184.0
2023-08-21 10:27:26.316372,-150.0
2023-08-21 10:27:26.324060,-148.0
2023-08-21 10:27:26.331749,-145.0
2023-08-21 10:27:26.339438,-128.0
2023-08-21 10:27:26.347127,-116.0
2023-08-21 10:27:26.354815,-104.0
2023-08-21 10:27:26.362504,-92.0
2023-08-21 10:27:26.370193,-85.0
2023-08-21 10:27:26.377881,-72.0
2023-08-21 10:27:26.385570,-63.0
2023-08-21 10:27:26.393259,-51.0
2023-08-21 10:27:26.400948,-41.0
2023-08-21 10:27:26.408636,-26.0
2023-08-21 10:27:26.416325,-14.0
2023-08-21 10:27:26.424014,-2.0
2023-08-21 10:27:26.431703,2.0
2023-08-21 10:27:26.439391,12.0
2023-08-21 10:27:26.447080,21.0
2023-08-21 10:27:26.454769,21.0
2023-08-21 10:27:26.462458,21.0
2023-08-21 10:27:26.470146,31.0
2023-08-21 10:27:26.477835,38.0
2023-08-21 10:27:26.485524,36.0
2023-08-21 10:27:26.493212,31.0
2023-08-21 10:27:26.500901,19.0
2023-08-21 10:27:26.508590,0.0
2023-08-21 10:27:26.516279,-26.0
2023-08-21 10:27:26.523967,-63.0
2023-08-21 10:27:26.531656,-97.0
2023-08-21 10:27:26.539345,-121.0
2023-08-21 10:27:26.547034,-140.0
2023-08-21 10:27:26.554722,-148.0
2023-08-21 10:27:26.562411,-148.0
2023-08-21 10:27:26.570100,-145.0
2023-08-21 10:27:26.577789,-140.0
2023-08-21 10:27:26.585477,-128.0
2023-08-21 10:27:26.593166,-126.0
2023-08-21 10:27:26.600855,-131.0
2023-08-21 10:27:26.608543,-128.0
2023-08-21 10:27:26.616232,-123.0
2023-08-21 10:27:26.623921,-121.0
2023-08-21 10:27:26.631610,-121.0
2023-08-21 10:27:26.639298,-121.0
2023-08-21 10:27:26.646987,-114.0
2023-08-21 10:27:26.654676,-109.0
2023-08-21 10:27:26.662365,-109.0
2023-08-21 10:27:26.670053,-109.0
2023-08-21 10:27:26.677742,-114.0
2023-08-21 10:27:26.685431,-123.0
2023-08-21 10:27:26.693119,-123.0
2023-08-21 10:27:26.700808,-121.0
2023-08-21 10:27:26.708497,-131.0
2023-08-21 10:27:26.716186,-133.0
2023-08-21 10:27:26.723874,-136.0
2023-08-21 10:27:26.731563,-143.0
2023-08-21 10:27:26.739252,-140.0
2023-08-21 10:27:26.746941,-133.0
2023-08-21 10:27:26.754629,-131.0
2023-08-21 10:27:26.762318,-128.0
2023-08-21 10:27:26.770007,-123.0
2023-08-21 10:27:26.777696,-121.0
2023-08-21 10:27:26.785384,-119.0
2023-08-21 10:27:26.793073,-116.0
2023-08-21 10:27:26.800762,-116.0
2023-08-21 10:27:26.808450,-114.0
2023-08-21 10:27:26.816139,-109.0
2023-08-21 10:27:26.823828,-106.0
2023-08-21 10:27:26.831517,-106.0
2023-08-21 10:27:26.839205,-109.0
2023-08-21 10:27:26.846894,-109.0
2023-08-21 10:27:26.854583,-111.0
2023-08-21 10:27:26.862272,-114.0
2023-08-21 10:27:26.869960,-111.0
2023-08-21 10:27:26.877649,-109.0
2023-08-21 10:27:26.885338,-109.0
2023-08-21 10:27:26.893026,-111.0
2023-08-21 10:27:26.900715,-109.0
2023-08-21 10:27:26.908404,-85.0
2023-08-21 10:27:26.916093,-51.0
2023-08-21 10:27:26.923781,-38.0
2023-08-21 10:27:26.931470,-48.0
2023-08-21 10:27:26.939159,-55.0
2023-08-21 10:27:26.946848,-77.0
2023-08-21 10:27:26.954536,-109.0
2023-08-21 10:27:26.962225,-109.0
2023-08-21 10:27:26.969914,-94.0
2023-08-21 10:27:26.977603,-99.0
2023-08-21 10:27:26.985291,-102.0
2023-08-21 10:27:26.992980,-97.0
2023-08-21 10:27:27.000669,-94.0
2023-08-21 10:27:27.008357,-102.0
2023-08-21 10:27:27.016046,-111.0
2023-08-21 10:27:27.023735,-63.0
2023-08-21 10:27:27.031424,221.0
2023-08-21 10:27:27.039112,782.0
2023-08-21 10:27:27.046801,1192.0
2023-08-21 10:27:27.054490,886.0
2023-08-21 10:27:27.062179,53.0
2023-08-21 10:27:27.069867,-354.0
2023-08-21 10:27:27.077556,-153.0
2023-08-21 10:27:27.085245,-89.0
2023-08-21 10:27:27.092933,-230.0
2023-08-21 10:27:27.100622,-206.0
2023-08-21 10:27:27.108311,-153.0
2023-08-21 10:27:27.116000,-179.0
2023-08-21 10:27:27.123688,-177.0
2023-08-21 10:27:27.131377,-145.0
2023-08-21 10:27:27.139066,-140.0
2023-08-21 10:27:27.146755,-136.0
2023-08-21 10:27:27.154443,-119.0
2023-08-21 10:27:27.162132,-109.0
2023-08-21 10:27:27.169821,-104.0
2023-08-21 10:27:27.177510,-94.0
2023-08-21 10:27:27.185198,-80.0
2023-08-21 10:27:27.192887,-70.0
2023-08-21 10:27:27.200576,-63.0
2023-08-21 10:27:27.208264,-51.0
2023-08-21 10:27:27.215953,-38.0
2023-08-21 10:27:27.223642,-29.0
2023-08-21 10:27:27.231331,-17.0
2023-08-21 10:27:27.239019,-4.0
2023-08-21 10:27:27.246708,4.0
2023-08-21 10:27:27.254397,14.0
2023-08-21 10:27:27.262086,19.0
2023-08-21 10:27:27.269774,14.0
2023-08-21 10:27:27.277463,17.0
2023-08-21 10:27:27.285152,26.0
2023-08-21 10:27:27.292840,24.0
2023-08-21 10:27:27.300529,19.0
2023-08-21 10:27:27.308218,12.0
2023-08-21 10:27:27.315907,-4.0
2023-08-21 10:27:27.323595,-21.0
2023-08-21 10:27:27.331284,-46.0
2023-08-21 10:27:27.338973,-77.0
2023-08-21 10:27:27.346662,-109.0
2023-08-21 10:27:27.354350,-143.0
2023-08-21 10:27:27.362039,-167.0
2023-08-21 10:27:27.369728,-170.0
2023-08-21 10:27:27.377417,-167.0
2023-08-21 10:27:27.385105,-165.0
2023-08-21 10:27:27.392794,-165.0
2023-08-21 10:27:27.400483,-170.0
2023-08-21 10:27:27.408171,-170.0
2023-08-21 10:27:27.415860,-157.0
2023-08-21 10:27:27.423549,-148.0
2023-08-21 10:27:27.431238,-145.0
2023-08-21 10:27:27.438926,-143.0
2023-08-21 10:27:27.446615,-143.0
2023-08-21 10:27:27.454304,-138.0
2023-08-21 10:27:27.461993,-133.0
2023-08-21 10:27:27.469681,-131.0
2023-08-21 10:27:27.477370,-131.0
2023-08-21 10:27:27.485059,-131.0
2023-08-21 10:27:27.492747,-133.0
2023-08-21 10:27:27.500436,-133.0
2023-08-21 10:27:27.508125,-128.0
2023-08-21 10:27:27.515814,-126.0
2023-08-21 10:27:27.523502,-126.0
2023-08-21 10:27:27.531191,-128.0
2023-08-21 10:27:27.538880,-131.0
2023-08-21 10:27:27.546569,-126.0
2023-08-21 10:27:27.554257,-123.0
2023-08-21 10:27:27.561946,-121.0
2023-08-21 10:27:27.569635,-119.0
2023-08-21 10:27:27.577324,-119.0
2023-08-21 10:27:27.585012,-119.0
2023-08-21 10:27:27.592701,-114.0
2023-08-21 10:27:27.600390,-114.0
2023-08-21 10:27:27.608078,-119.0
2023-08-21 10:27:27.615767,-116.0
2023-08-21 10:27:27.623456,-114.0
2023-08-21 10:27:27.631145,-114.0
2023-08-21 10:27:27.638833,-109.0
2023-08-21 10:27:27.646522,-104.0
2023-08-21 10:27:27.654211,-106.0
2023-08-21 10:27:27.661900,-111.0
2023-08-21 10:27:27.669588,-111.0
2023-08-21 10:27:27.677277,-114.0
2023-08-21 10:27:27.684966,-116.0
2023-08-21 10:27:27.692654,-114.0
2023-08-21 10:27:27.700343,-94.0
2023-08-21 10:27:27.708032,-60.0
2023-08-21 10:27:27.715721,-48.0
2023-08-21 10:27:27.723409,-55.0
2023-08-21 10:27:27.731098,-58.0
2023-08-21 10:27:27.738787,-80.0
2023-08-21 10:27:27.746476,-109.0
2023-08-21 10:27:27.754164,-111.0
2023-08-21 10:27:27.761853,-104.0
2023-08-21 10:27:27.769542,-106.0
2023-08-21 10:27:27.777231,-104.0
2023-08-21 10:27:27.784919,-99.0
2023-08-21 10:27:27.792608,-102.0
2023-08-21 10:27:27.800297,-104.0
2023-08-21 10:27:27.807985,-114.0
2023-08-21 10:27:27.815674,-60.0
2023-08-21 10:27:27.823363,240.0
2023-08-21 10:27:27.831052,808.0
2023-08-21 10:27:27.838740,1197.0
2023-08-21 10:27:27.846429,842.0
2023-08-21 10:27:27.854118,-7.0
2023-08-21 10:27:27.861807,-381.0
2023-08-21 10:27:27.869495,-157.0
2023-08-21 10:27:27.877184,-104.0
2023-08-21 10:27:27.884873,-240.0
2023-08-21 10:27:27.892561,-199.0
2023-08-21 10:27:27.900250,-145.0
2023-08-21 10:27:27.907939,-182.0
2023-08-21 10:27:27.915628,-172.0
2023-08-21 10:27:27.923316,-136.0
2023-08-21 10:27:27.931005,-136.0
2023-08-21 10:27:27.938694,-138.0
2023-08-21 10:27:27.946383,-121.0
2023-08-21 10:27:27.954071,-109.0
2023-08-21 10:27:27.961760,-99.0
2023-08-21 10:27:27.969449,-87.0
2023-08-21 10:27:27.977138,-77.0
2023-08-21 10:27:27.984826,-65.0
2023-08-21 10:27:27.992515,-53.0
2023-08-21 10:27:28.000204,-41.0
2023-08-21 10:27:28.007892,-31.0
2023-08-21 10:27:28.015581,-19.0
2023-08-21 10:27:28.023270,-4.0
2023-08-21 10:27:28.030959,7.0
2023-08-21 10:27:28.038647,14.0
2023-08-21 10:27:28.046336,24.0
2023-08-21 10:27:28.054025,38.0
2023-08-21 10:27:28.061714,46.0
2023-08-21 10:27:28.069402,43.0
2023-08-21 10:27:28.077091,41.0
2023-08-21 10:27:28.084780,38.0
2023-08-21 10:27:28.092468,34.0
2023-08-21 10:27:28.100157,26.0
2023-08-21 10:27:28.107846,12.0
2023-08-21 10:27:28.115535,-14.0
2023-08-21 10:27:28.123223,-41.0
2023-08-21 10:27:28.130912,-72.0
2023-08-21 10:27:28.138601,-104.0
2023-08-21 10:27:28.146290,-123.0
2023-08-21 10:27:28.153978,-138.0
2023-08-21 10:27:28.161667,-148.0
2023-08-21 10:27:28.169356,-150.0
2023-08-21 10:27:28.177045,-148.0
2023-08-21 10:27:28.184733,-148.0
2023-08-21 10:27:28.192422,-138.0
2023-08-21 10:27:28.200111,-128.0
2023-08-21 10:27:28.207799,-128.0
2023-08-21 10:27:28.215488,-126.0
2023-08-21 10:27:28.223177,-119.0
2023-08-21 10:27:28.230866,-116.0
2023-08-21 10:27:28.238554,-114.0
2023-08-21 10:27:28.246243,-111.0
2023-08-21 10:27:28.253932,-111.0
2023-08-21 10:27:28.261621,-114.0
2023-08-21 10:27:28.269309,-114.0
2023-08-21 10:27:28.276998,-109.0
2023-08-21 10:27:28.284687,-106.0
2023-08-21 10:27:28.292375,-109.0
2023-08-21 10:27:28.300064,-111.0
2023-08-21 10:27:28.307753,-111.0
2023-08-21 10:27:28.315442,-109.0
2023-08-21 10:27:28.323130,-109.0
2023-08-21 10:27:28.330819,-106.0
2023-08-21 10:27:28.338508,-106.0
2023-08-21 10:27:28.346197,-109.0
2023-08-21 10:27:28.353885,-109.0
2023-08-21 10:27:28.361574,-109.0
2023-08-21 10:27:28.369263,-111.0
2023-08-21 10:27:28.376952,-106.0
2023-08-21 10:27:28.384640,-109.0
2023-08-21 10:27:28.392329,-119.0
2023-08-21 10:27:28.400018,-121.0
2023-08-21 10:27:28.407706,-114.0
2023-08-21 10:27:28.415395,-114.0
2023-08-21 10:27:28.423084,-119.0
2023-08-21 10:27:28.430773,-123.0
2023-08-21 10:27:28.438461,-131.0
2023-08-21 10:27:28.446150,-131.0
2023-08-21 10:27:28.453839,-126.0
2023-08-21 10:27:28.461528,-126.0
2023-08-21 10:27:28.469216,-126.0
2023-08-21 10:27:28.476905,-106.0
2023-08-21 10:27:28.484594,-80.0
2023-08-21 10:27:28.492282,-65.0
2023-08-21 10:27:28.499971,-63.0
2023-08-21 10:27:28.507660,-72.0
2023-08-21 10:27:28.515349,-99.0
2023-08-21 10:27:28.523037,-128.0
2023-08-21 10:27:28.530726,-128.0
2023-08-21 10:27:28.538415,-116.0
2023-08-21 10:27:28.546104,-119.0
2023-08-21 10:27:28.553792,-121.0
2023-08-21 10:27:28.561481,-119.0
2023-08-21 10:27:28.569170,-116.0
2023-08-21 10:27:28.576859,-123.0
2023-08-21 10:27:28.584547,-126.0
2023-08-21 10:27:28.592236,-41.0
2023-08-21 10:27:28.599925,313.0
2023-08-21 10:27:28.607613,908.0
2023-08-21 10:27:28.615302,1229.0
2023-08-21 10:27:28.622991,753.0
2023-08-21 10:27:28.630680,-116.0
2023-08-21 10:27:28.638368,-391.0
2023-08-21 10:27:28.646057,-138.0
2023-08-21 10:27:28.653746,-136.0
2023-08-21 10:27:28.661435,-264.0
2023-08-21 10:27:28.669123,-206.0
2023-08-21 10:27:28.676812,-170.0
2023-08-21 10:27:28.684501,-204.0
2023-08-21 10:27:28.692189,-184.0
2023-08-21 10:27:28.699878,-155.0
2023-08-21 10:27:28.707567,-157.0
2023-08-21 10:27:28.715256,-148.0
2023-08-21 10:27:28.722944,-126.0
2023-08-21 10:27:28.730633,-119.0
2023-08-21 10:27:28.738322,-111.0
2023-08-21 10:27:28.746011,-97.0
2023-08-21 10:27:28.753699,-85.0
2023-08-21 10:27:28.761388,-75.0
2023-08-21 10:27:28.769077,-60.0
2023-08-21 10:27:28.776766,-48.0
2023-08-21 10:27:28.784454,-38.0
2023-08-21 10:27:28.792143,-26.0
2023-08-21 10:27:28.799832,-12.0
2023-08-21 10:27:28.807520,0.0
2023-08-21 10:27:28.815209,12.0
2023-08-21 10:27:28.822898,19.0
2023-08-21 10:27:28.830587,24.0
2023-08-21 10:27:28.838275,29.0
2023-08-21 10:27:28.845964,29.0
2023-08-21 10:27:28.853653,29.0
2023-08-21 10:27:28.861342,29.0
2023-08-21 10:27:28.869030,26.0
2023-08-21 10:27:28.876719,21.0
2023-08-21 10:27:28.884408,7.0
2023-08-21 10:27:28.892096,-17.0
2023-08-21 10:27:28.899785,-43.0
2023-08-21 10:27:28.907474,-70.0
2023-08-21 10:27:28.915163,-102.0
2023-08-21 10:27:28.922851,-136.0
2023-08-21 10:27:28.930540,-160.0
2023-08-21 10:27:28.938229,-172.0
2023-08-21 10:27:28.945918,-167.0
2023-08-21 10:27:28.953606,-162.0
2023-08-21 10:27:28.961295,-160.0
2023-08-21 10:27:28.968984,-155.0
2023-08-21 10:27:28.976673,-148.0
2023-08-21 10:27:28.984361,-143.0
2023-08-21 10:27:28.992050,-133.0
2023-08-21 10:27:28.999739,-126.0
2023-08-21 10:27:29.007427,-123.0
2023-08-21 10:27:29.015116,-123.0
2023-08-21 10:27:29.022805,-121.0
2023-08-21 10:27:29.030494,-116.0
2023-08-21 10:27:29.038182,-114.0
2023-08-21 10:27:29.045871,-111.0
2023-08-21 10:27:29.053560,-114.0
2023-08-21 10:27:29.061249,-116.0
2023-08-21 10:27:29.068937,-116.0
2023-08-21 10:27:29.076626,-116.0
2023-08-21 10:27:29.084315,-114.0
2023-08-21 10:27:29.092003,-111.0
2023-08-21 10:27:29.099692,-109.0
2023-08-21 10:27:29.107381,-111.0
2023-08-21 10:27:29.115070,-119.0
2023-08-21 10:27:29.122758,-121.0
2023-08-21 10:27:29.130447,-116.0
2023-08-21 10:27:29.138136,-111.0
2023-08-21 10:27:29.145825,-111.0
2023-08-21 10:27:29.153513,-114.0
2023-08-21 10:27:29.161202,-116.0
2023-08-21 10:27:29.168891,-116.0
2023-08-21 10:27:29.176580,-116.0
2023-08-21 10:27:29.184268,-111.0
2023-08-21 10:27:29.191957,-111.0
2023-08-21 10:27:29.199646,-114.0
2023-08-21 10:27:29.207334,-114.0
2023-08-21 10:27:29.215023,-111.0
2023-08-21 10:27:29.222712,-111.0
2023-08-21 10:27:29.230401,-102.0
2023-08-21 10:27:29.238089,-75.0
2023-08-21 10:27:29.245778,-48.0
2023-08-21 10:27:29.253467,-41.0
2023-08-21 10:27:29.261156,-43.0
2023-08-21 10:27:29.268844,-55.0
2023-08-21 10:27:29.276533,-87.0
2023-08-21 10:27:29.284222,-106.0
2023-08-21 10:27:29.291911,-104.0
2023-08-21 10:27:29.299599,-106.0
2023-08-21 10:27:29.307288,-111.0
2023-08-21 10:27:29.314977,-106.0
2023-08-21 10:27:29.322665,-104.0
2023-08-21 10:27:29.330354,-109.0
2023-08-21 10:27:29.338043,-121.0
2023-08-21 10:27:29.345732,-114.0
2023-08-21 10:27:29.353420,55.0
2023-08-21 10:27:29.361109,527.0
2023-08-21 10:27:29.368798,1083.0
2023-08-21 10:27:29.376487,1127.0
2023-08-21 10:27:29.384175,408.0
2023-08-21 10:27:29.391864,-301.0
2023-08-21 10:27:29.399553,-281.0
2023-08-21 10:27:29.407241,-77.0
2023-08-21 10:27:29.414930,-189.0
2023-08-21 10:27:29.422619,-250.0
2023-08-21 10:27:29.430308,-170.0
2023-08-21 10:27:29.437996,-170.0
2023-08-21 10:27:29.445685,-189.0
2023-08-21 10:27:29.453374,-157.0
2023-08-21 10:27:29.461063,-140.0
2023-08-21 10:27:29.468751,-145.0
2023-08-21 10:27:29.476440,-133.0
2023-08-21 10:27:29.484129,-116.0
2023-08-21 10:27:29.491818,-106.0
2023-08-21 10:27:29.499506,-97.0
2023-08-21 10:27:29.507195,-85.0
2023-08-21 10:27:29.514884,-85.0
2023-08-21 10:27:29.522572,-85.0
2023-08-21 10:27:29.530261,-68.0
2023-08-21 10:27:29.537950,-51.0
2023-08-21 10:27:29.545639,-41.0
2023-08-21 10:27:29.553327,-31.0
2023-08-21 10:27:29.561016,-29.0
2023-08-21 10:27:29.568705,-26.0
2023-08-21 10:27:29.576394,-9.0
2023-08-21 10:27:29.584082,4.0
2023-08-21 10:27:29.591771,9.0
2023-08-21 10:27:29.599460,14.0
2023-08-21 10:27:29.607148,14.0
2023-08-21 10:27:29.614837,7.0
2023-08-21 10:27:29.622526,0.0
2023-08-21 10:27:29.630215,-2.0
2023-08-21 10:27:29.637903,-4.0
2023-08-21 10:27:29.645592,-24.0
2023-08-21 10:27:29.653281,-55.0
2023-08-21 10:27:29.660970,-87.0
2023-08-21 10:27:29.668658,-116.0
2023-08-21 10:27:29.676347,-138.0
2023-08-21 10:27:29.684036,-153.0
2023-08-21 10:27:29.691725,-162.0
2023-08-21 10:27:29.699413,-167.0
2023-08-21 10:27:29.707102,-165.0
2023-08-21 10:27:29.714791,-157.0
2023-08-21 10:27:29.722479,-150.0
2023-08-21 10:27:29.730168,-140.0
2023-08-21 10:27:29.737857,-136.0
2023-08-21 10:27:29.745546,-133.0
2023-08-21 10:27:29.753234,-128.0
2023-08-21 10:27:29.760923,-121.0
2023-08-21 10:27:29.768612,-119.0
2023-08-21 10:27:29.776301,-116.0
2023-08-21 10:27:29.783989,-116.0
2023-08-21 10:27:29.791678,-116.0
2023-08-21 10:27:29.799367,-116.0
2023-08-21 10:27:29.807055,-114.0
2023-08-21 10:27:29.814744,-111.0
2023-08-21 10:27:29.822433,-111.0
2023-08-21 10:27:29.830122,-111.0
2023-08-21 10:27:29.837810,-114.0
2023-08-21 10:27:29.845499,-114.0
2023-08-21 10:27:29.853188,-111.0
2023-08-21 10:27:29.860877,-106.0
2023-08-21 10:27:29.868565,-106.0
2023-08-21 10:27:29.876254,-106.0
2023-08-21 10:27:29.883943,-104.0
2023-08-21 10:27:29.891632,-104.0
2023-08-21 10:27:29.899320,-102.0
2023-08-21 10:27:29.907009,-102.0
2023-08-21 10:27:29.914698,-104.0
2023-08-21 10:27:29.922386,-102.0
2023-08-21 10:27:29.930075,-102.0
2023-08-21 10:27:29.937764,-104.0
2023-08-21 10:27:29.945453,-99.0
2023-08-21 10:27:29.953141,-97.0
2023-08-21 10:27:29.960830,-97.0
2023-08-21 10:27:29.968519,-97.0
2023-08-21 10:27:29.976208,-94.0
2023-08-21 10:27:29.983896,-97.0
2023-08-21 10:27:29.991585,-97.0
2023-08-21 10:27:29.999274,-97.0
2023-08-21 10:27:30.006962,-87.0
2023-08-21 10:27:30.014651,-58.0
2023-08-21 10:27:30.022340,-31.0
2023-08-21 10:27:30.030029,-29.0
2023-08-21 10:27:30.037717,-34.0
2023-08-21 10:27:30.045406,-48.0
2023-08-21 10:27:30.053095,-89.0
2023-08-21 10:27:30.060784,-116.0
2023-08-21 10:27:30.068472,-109.0
2023-08-21 10:27:30.076161,-106.0
2023-08-21 10:27:30.083850,-114.0
2023-08-21 10:27:30.091539,-114.0
2023-08-21 10:27:30.099227,-111.0
2023-08-21 10:27:30.106916,-116.0
2023-08-21 10:27:30.114605,-131.0
2023-08-21 10:27:30.122293,-131.0
2023-08-21 10:27:30.129982,29.0
2023-08-21 10:27:30.137671,507.0
2023-08-21 10:27:30.145360,1066.0
2023-08-21 10:27:30.153048,1100.0
2023-08-21 10:27:30.160737,381.0
2023-08-21 10:27:30.168426,-315.0
2023-08-21 10:27:30.176115,-293.0
2023-08-21 10:27:30.183803,-97.0
2023-08-21 10:27:30.191492,-204.0
2023-08-21 10:27:30.199181,-255.0
2023-08-21 10:27:30.206869,-174.0
2023-08-21 10:27:30.214558,-179.0
2023-08-21 10:27:30.222247,-199.0
2023-08-21 10:27:30.229936,-165.0
2023-08-21 10:27:30.237624,-148.0
2023-08-21 10:27:30.245313,-150.0
2023-08-21 10:27:30.253002,-133.0
2023-08-21 10:27:30.260691,-119.0
2023-08-21 10:27:30.268379,-111.0
2023-08-21 10:27:30.276068,-102.0
2023-08-21 10:27:30.283757,-89.0
2023-08-21 10:27:30.291446,-77.0
2023-08-21 10:27:30.299134,-68.0
2023-08-21 10:27:30.306823,-55.0
2023-08-21 10:27:30.314512,-41.0
2023-08-21 10:27:30.322200,-31.0
2023-08-21 10:27:30.329889,-19.0
2023-08-21 10:27:30.337578,-4.0
2023-08-21 10:27:30.345267,4.0
2023-08-21 10:27:30.352955,14.0
2023-08-21 10:27:30.360644,24.0
2023-08-21 10:27:30.368333,31.0
2023-08-21 10:27:30.376022,31.0
2023-08-21 10:27:30.383710,34.0
2023-08-21 10:27:30.391399,34.0
2023-08-21 10:27:30.399088,29.0
2023-08-21 10:27:30.406776,24.0
2023-08-21 10:27:30.414465,17.0
2023-08-21 10:27:30.422154,2.0
2023-08-21 10:27:30.429843,-21.0
2023-08-21 10:27:30.437531,-53.0
2023-08-21 10:27:30.445220,-82.0
2023-08-21 10:27:30.452909,-109.0
2023-08-21 10:27:30.460598,-131.0
2023-08-21 10:27:30.468286,-140.0
2023-08-21 10:27:30.475975,-140.0
2023-08-21 10:27:30.483664,-138.0
2023-08-21 10:27:30.491353,-133.0
2023-08-21 10:27:30.499041,-128.0
2023-08-21 10:27:30.506730,-123.0
2023-08-21 10:27:30.514419,-119.0
2023-08-21 10:27:30.522107,-111.0
2023-08-21 10:27:30.529796,-106.0
2023-08-21 10:27:30.537485,-106.0
2023-08-21 10:27:30.545174,-104.0
2023-08-21 10:27:30.552862,-102.0
2023-08-21 10:27:30.560551,-102.0
2023-08-21 10:27:30.568240,-102.0
2023-08-21 10:27:30.575929,-102.0
2023-08-21 10:27:30.583617,-102.0
2023-08-21 10:27:30.591306,-104.0
2023-08-21 10:27:30.598995,-104.0
2023-08-21 10:27:30.606683,-104.0
2023-08-21 10:27:30.614372,-102.0
2023-08-21 10:27:30.622061,-104.0
2023-08-21 10:27:30.629750,-111.0
2023-08-21 10:27:30.637438,-119.0
2023-08-21 10:27:30.645127,-119.0
2023-08-21 10:27:30.652816,-116.0
2023-08-21 10:27:30.660505,-114.0
2023-08-21 10:27:30.668193,-109.0
2023-08-21 10:27:30.675882,-109.0
2023-08-21 10:27:30.683571,-119.0
2023-08-21 10:27:30.691260,-126.0
2023-08-21 10:27:30.698948,-121.0
2023-08-21 10:27:30.706637,-114.0
2023-08-21 10:27:30.714326,-111.0
2023-08-21 10:27:30.722014,-109.0
2023-08-21 10:27:30.729703,-106.0
2023-08-21 10:27:30.737392,-106.0
2023-08-21 10:27:30.745081,-106.0
2023-08-21 10:27:30.752769,-106.0
2023-08-21 10:27:30.760458,-104.0
2023-08-21 10:27:30.768147,-104.0
2023-08-21 10:27:30.775836,-104.0
2023-08-21 10:27:30.783524,-106.0
2023-08-21 10:27:30.791213,-109.0
2023-08-21 10:27:30.798902,-94.0
2023-08-21 10:27:30.806590,-60.0
2023-08-21 10:27:30.814279,-36.0
2023-08-21 10:27:30.821968,-36.0
2023-08-21 10:27:30.829657,-36.0
2023-08-21 10:27:30.837345,-51.0
2023-08-21 10:27:30.845034,-82.0
2023-08-21 10:27:30.852723,-97.0
2023-08-21 10:27:30.860412,-87.0
2023-08-21 10:27:30.868100,-92.0
2023-08-21 10:27:30.875789,-99.0
2023-08-21 10:27:30.883478,-99.0
2023-08-21 10:27:30.891167,-102.0
2023-08-21 10:27:30.898855,-111.0
2023-08-21 10:27:30.906544,-123.0
2023-08-21 10:27:30.914233,-119.0
2023-08-21 10:27:30.921921,34.0
2023-08-21 10:27:30.929610,490.0
2023-08-21 10:27:30.937299,1054.0
2023-08-21 10:27:30.944988,1122.0
2023-08-21 10:27:30.952676,429.0
2023-08-21 10:27:30.960365,-286.0
2023-08-21 10:27:30.968054,-289.0
2023-08-21 10:27:30.975743,-82.0
2023-08-21 10:27:30.983431,-179.0
2023-08-21 10:27:30.991120,-238.0
2023-08-21 10:27:30.998809,-162.0
2023-08-21 10:27:31.006497,-162.0
2023-08-21 10:27:31.014186,-184.0
2023-08-21 10:27:31.021875,-150.0
2023-08-21 10:27:31.029564,-131.0
2023-08-21 10:27:31.037252,-133.0
2023-08-21 10:27:31.044941,-123.0
2023-08-21 10:27:31.052630,-109.0
2023-08-21 10:27:31.060319,-102.0
2023-08-21 10:27:31.068007,-89.0
2023-08-21 10:27:31.075696,-77.0
2023-08-21 10:27:31.083385,-68.0
2023-08-21 10:27:31.091074,-58.0
2023-08-21 10:27:31.098762,-46.0
2023-08-21 10:27:31.106451,-31.0
2023-08-21 10:27:31.114140,-17.0
2023-08-21 10:27:31.121828,-4.0
2023-08-21 10:27:31.129517,4.0
2023-08-21 10:27:31.137206,12.0
2023-08-21 10:27:31.144895,14.0
2023-08-21 10:27:31.152583,24.0
2023-08-21 10:27:31.160272,36.0
2023-08-21 10:27:31.167961,38.0
2023-08-21 10:27:31.175650,31.0
2023-08-21 10:27:31.183338,19.0
2023-08-21 10:27:31.191027,14.0
2023-08-21 10:27:31.198716,14.0
2023-08-21 10:27:31.206404,9.0
2023-08-21 10:27:31.214093,-4.0
2023-08-21 10:27:31.221782,-29.0
2023-08-21 10:27:31.229471,-60.0
2023-08-21 10:27:31.237159,-89.0
2023-08-21 10:27:31.244848,-114.0
2023-08-21 10:27:31.252537,-133.0
2023-08-21 10:27:31.260226,-140.0
2023-08-21 10:27:31.267914,-148.0
2023-08-21 10:27:31.275603,-148.0
2023-08-21 10:27:31.283292,-143.0
2023-08-21 10:27:31.290981,-133.0
2023-08-21 10:27:31.298669,-128.0
2023-08-21 10:27:31.306358,-123.0
2023-08-21 10:27:31.314047,-116.0
2023-08-21 10:27:31.321735,-111.0
2023-08-21 10:27:31.329424,-106.0
2023-08-21 10:27:31.337113,-104.0
2023-08-21 10:27:31.344802,-104.0
2023-08-21 10:27:31.352490,-104.0
2023-08-21 10:27:31.360179,-104.0
2023-08-21 10:27:31.367868,-106.0
2023-08-21 10:27:31.375557,-104.0
2023-08-21 10:27:31.383245,-106.0
2023-08-21 10:27:31.390934,-109.0
2023-08-21 10:27:31.398623,-109.0
2023-08-21 10:27:31.406311,-109.0
2023-08-21 10:27:31.414000,-109.0
2023-08-21 10:27:31.421689,-106.0
2023-08-21 10:27:31.429378,-106.0
2023-08-21 10:27:31.437066,-104.0
2023-08-21 10:27:31.444755,-102.0
2023-08-21 10:27:31.452444,-104.0
2023-08-21 10:27:31.460133,-104.0
2023-08-21 10:27:31.467821,-102.0
2023-08-21 10:27:31.475510,-97.0
2023-08-21 10:27:31.483199,-94.0
2023-08-21 10:27:31.490888,-94.0
2023-08-21 10:27:31.498576,-94.0
2023-08-21 10:27:31.506265,-94.0
2023-08-21 10:27:31.513954,-94.0
2023-08-21 10:27:31.521642,-89.0
2023-08-21 10:27:31.529331,-87.0
2023-08-21 10:27:31.537020,-92.0
2023-08-21 10:27:31.544709,-94.0
2023-08-21 10:27:31.552397,-92.0
2023-08-21 10:27:31.560086,-92.0
2023-08-21 10:27:31.567775,-92.0
2023-08-21 10:27:31.575464,-89.0
2023-08-21 10:27:31.583152,-94.0
2023-08-21 10:27:31.590841,-85.0
2023-08-21 10:27:31.598530,-55.0
2023-08-21 10:27:31.606218,-29.0
2023-08-21 10:27:31.613907,-24.0
2023-08-21 10:27:31.621596,-26.0
2023-08-21 10:27:31.629285,-48.0
2023-08-21 10:27:31.636973,-87.0
2023-08-21 10:27:31.644662,-106.0
2023-08-21 10:27:31.652351,-99.0
2023-08-21 10:27:31.660040,-97.0
2023-08-21 10:27:31.667728,-104.0
2023-08-21 10:27:31.675417,-106.0
2023-08-21 10:27:31.683106,-106.0
2023-08-21 10:27:31.690795,-111.0
2023-08-21 10:27:31.698483,-119.0
2023-08-21 10:27:31.706172,-106.0
2023-08-21 10:27:31.713861,75.0
2023-08-21 10:27:31.721549,575.0
2023-08-21 10:27:31.729238,1144.0
2023-08-21 10:27:31.736927,1132.0
2023-08-21 10:27:31.744616,352.0
2023-08-21 10:27:31.752304,-337.0
2023-08-21 10:27:31.759993,-269.0
2023-08-21 10:27:31.767682,-80.0
2023-08-21 10:27:31.775371,-204.0
2023-08-21 10:27:31.783059,-242.0
2023-08-21 10:27:31.790748,-157.0
2023-08-21 10:27:31.798437,-167.0
2023-08-21 10:27:31.806125,-189.0
2023-08-21 10:27:31.813814,-167.0
2023-08-21 10:27:31.821503,-160.0
2023-08-21 10:27:31.829192,-157.0
2023-08-21 10:27:31.836880,-140.0
2023-08-21 10:27:31.844569,-123.0
2023-08-21 10:27:31.852258,-123.0
2023-08-21 10:27:31.859947,-123.0
2023-08-21 10:27:31.867635,-114.0
2023-08-21 10:27:31.875324,-99.0
2023-08-21 10:27:31.883013,-92.0
2023-08-21 10:27:31.890702,-80.0
2023-08-21 10:27:31.898390,-63.0
2023-08-21 10:27:31.906079,-53.0
2023-08-21 10:27:31.913768,-38.0
2023-08-21 10:27:31.921456,-24.0
2023-08-21 10:27:31.929145,-12.0
2023-08-21 10:27:31.936834,-2.0
2023-08-21 10:27:31.944523,7.0
2023-08-21 10:27:31.952211,14.0
2023-08-21 10:27:31.959900,19.0
2023-08-21 10:27:31.967589,19.0
2023-08-21 10:27:31.975278,19.0
2023-08-21 10:27:31.982966,17.0
2023-08-21 10:27:31.990655,14.0
2023-08-21 10:27:31.998344,7.0
2023-08-21 10:27:32.006033,-7.0
2023-08-21 10:27:32.013721,-34.0
2023-08-21 10:27:32.021410,-60.0
2023-08-21 10:27:32.029099,-87.0
2023-08-21 10:27:32.036787,-116.0
2023-08-21 10:27:32.044476,-138.0
2023-08-21 10:27:32.052165,-145.0
2023-08-21 10:27:32.059854,-150.0
2023-08-21 10:27:32.067542,-148.0
2023-08-21 10:27:32.075231,-143.0
2023-08-21 10:27:32.082920,-138.0
2023-08-21 10:27:32.090609,-131.0
2023-08-21 10:27:32.098297,-123.0
2023-08-21 10:27:32.105986,-121.0
2023-08-21 10:27:32.113675,-116.0
2023-08-21 10:27:32.121363,-111.0
2023-08-21 10:27:32.129052,-109.0
2023-08-21 10:27:32.136741,-106.0
2023-08-21 10:27:32.144430,-106.0
2023-08-21 10:27:32.152118,-114.0
2023-08-21 10:27:32.159807,-116.0
2023-08-21 10:27:32.167496,-114.0
2023-08-21 10:27:32.175185,-116.0
2023-08-21 10:27:32.182873,-116.0
2023-08-21 10:27:32.190562,-116.0
2023-08-21 10:27:32.198251,-114.0
2023-08-21 10:27:32.205940,-114.0
2023-08-21 10:27:32.213628,-111.0
2023-08-21 10:27:32.221317,-114.0
2023-08-21 10:27:32.229006,-111.0
2023-08-21 10:27:32.236694,-109.0
2023-08-21 10:27:32.244383,-106.0
2023-08-21 10:27:32.252072,-104.0
2023-08-21 10:27:32.259761,-106.0
2023-08-21 10:27:32.267449,-106.0
2023-08-21 10:27:32.275138,-99.0
2023-08-21 10:27:32.282827,-99.0
2023-08-21 10:27:32.290516,-99.0
2023-08-21 10:27:32.298204,-94.0
2023-08-21 10:27:32.305893,-94.0
2023-08-21 10:27:32.313582,-99.0
2023-08-21 10:27:32.321270,-97.0
2023-08-21 10:27:32.328959,-94.0
2023-08-21 10:27:32.336648,-94.0
2023-08-21 10:27:32.344337,-99.0
2023-08-21 10:27:32.352025,-106.0
2023-08-21 10:27:32.359714,-111.0
2023-08-21 10:27:32.367403,-114.0
2023-08-21 10:27:32.375092,-116.0
2023-08-21 10:27:32.382780,-109.0
2023-08-21 10:27:32.390469,-80.0
2023-08-21 10:27:32.398158,-51.0
2023-08-21 10:27:32.405847,-43.0
2023-08-21 10:27:32.413535,-51.0
2023-08-21 10:27:32.421224,-60.0
2023-08-21 10:27:32.428913,-94.0
2023-08-21 10:27:32.436601,-116.0
2023-08-21 10:27:32.444290,-109.0
2023-08-21 10:27:32.451979,-104.0
2023-08-21 10:27:32.459668,-111.0
2023-08-21 10:27:32.467356,-114.0
2023-08-21 10:27:32.475045,-111.0
2023-08-21 10:27:32.482734,-116.0
2023-08-21 10:27:32.490423,-126.0
2023-08-21 10:27:32.498111,-133.0
2023-08-21 10:27:32.505800,-31.0
2023-08-21 10:27:32.513489,354.0
2023-08-21 10:27:32.521177,940.0
2023-08-21 10:27:32.528866,1178.0
2023-08-21 10:27:32.536555,636.0
2023-08-21 10:27:32.544244,-170.0
2023-08-21 10:27:32.551932,-344.0
2023-08-21 10:27:32.559621,-111.0
2023-08-21 10:27:32.567310,-148.0
2023-08-21 10:27:32.574999,-252.0
2023-08-21 10:27:32.582687,-184.0
2023-08-21 10:27:32.590376,-157.0
2023-08-21 10:27:32.598065,-189.0
2023-08-21 10:27:32.605754,-167.0
2023-08-21 10:27:32.613442,-145.0
2023-08-21 10:27:32.621131,-153.0
2023-08-21 10:27:32.628820,-143.0
2023-08-21 10:27:32.636508,-123.0
2023-08-21 10:27:32.644197,-119.0
2023-08-21 10:27:32.651886,-119.0
2023-08-21 10:27:32.659575,-111.0
2023-08-21 10:27:32.667263,-99.0
2023-08-21 10:27:32.674952,-85.0
2023-08-21 10:27:32.682641,-72.0
2023-08-21 10:27:32.690330,-58.0
2023-08-21 10:27:32.698018,-46.0
2023-08-21 10:27:32.705707,-36.0
2023-08-21 10:27:32.713396,-24.0
2023-08-21 10:27:32.721084,-12.0
2023-08-21 10:27:32.728773,0.0
2023-08-21 10:27:32.736462,12.0
2023-08-21 10:27:32.744151,24.0
2023-08-21 10:27:32.751839,26.0
2023-08-21 10:27:32.759528,26.0
2023-08-21 10:27:32.767217,29.0
2023-08-21 10:27:32.774906,29.0
2023-08-21 10:27:32.782594,26.0
2023-08-21 10:27:32.790283,21.0
2023-08-21 10:27:32.797972,7.0
2023-08-21 10:27:32.805661,-17.0
2023-08-21 10:27:32.813349,-46.0
2023-08-21 10:27:32.821038,-75.0
2023-08-21 10:27:32.828727,-102.0
2023-08-21 10:27:32.836415,-128.0
2023-08-21 10:27:32.844104,-150.0
2023-08-21 10:27:32.851793,-167.0
2023-08-21 10:27:32.859482,-167.0
2023-08-21 10:27:32.867170,-160.0
2023-08-21 10:27:32.874859,-155.0
2023-08-21 10:27:32.882548,-150.0
2023-08-21 10:27:32.890237,-155.0
2023-08-21 10:27:32.897925,-157.0
2023-08-21 10:27:32.905614,-145.0
2023-08-21 10:27:32.913303,-136.0
2023-08-21 10:27:32.920991,-136.0
2023-08-21 10:27:32.928680,-136.0
2023-08-21 10:27:32.936369,-143.0
2023-08-21 10:27:32.944058,-148.0
2023-08-21 10:27:32.951746,-143.0
2023-08-21 10:27:32.959435,-138.0
2023-08-21 10:27:32.967124,-136.0
2023-08-21 10:27:32.974813,-138.0
2023-08-21 10:27:32.982501,-148.0
2023-08-21 10:27:32.990190,-150.0
2023-08-21 10:27:32.997879,-143.0
2023-08-21 10:27:33.005568,-138.0
2023-08-21 10:27:33.013256,-138.0
2023-08-21 10:27:33.020945,-136.0
2023-08-21 10:27:33.028634,-136.0
2023-08-21 10:27:33.036322,-131.0
2023-08-21 10:27:33.044011,-126.0
2023-08-21 10:27:33.051700,-123.0
2023-08-21 10:27:33.059389,-119.0
2023-08-21 10:27:33.067077,-119.0
2023-08-21 10:27:33.074766,-121.0
2023-08-21 10:27:33.082455,-121.0
2023-08-21 10:27:33.090144,-114.0
2023-08-21 10:27:33.097832,-111.0
2023-08-21 10:27:33.105521,-111.0
2023-08-21 10:27:33.113210,-116.0
2023-08-21 10:27:33.120898,-116.0
2023-08-21 10:27:33.128587,-109.0
2023-08-21 10:27:33.136276,-106.0
2023-08-21 10:27:33.143965,-104.0
2023-08-21 10:27:33.151653,-104.0
2023-08-21 10:27:33.159342,-111.0
2023-08-21 10:27:33.167031,-119.0
2023-08-21 10:27:33.174720,-106.0
2023-08-21 10:27:33.182408,-72.0
2023-08-21 10:27:33.190097,-41.0
2023-08-21 10:27:33.197786,-38.0
2023-08-21 10:27:33.205475,-48.0
2023-08-21 10:27:33.213163,-65.0
2023-08-21 10:27:33.220852,-94.0
2023-08-21 10:27:33.228541,-114.0
2023-08-21 10:27:33.236229,-106.0
2023-08-21 10:27:33.243918,-102.0
2023-08-21 10:27:33.251607,-109.0
2023-08-21 10:27:33.259296,-109.0
2023-08-21 10:27:33.266984,-104.0
2023-08-21 10:27:33.274673,-102.0
2023-08-21 10:27:33.282362,-111.0
2023-08-21 10:27:33.290051,-121.0
2023-08-21 10:27:33.297739,-43.0
2023-08-21 10:27:33.305428,301.0
2023-08-21 10:27:33.313117,872.0
2023-08-21 10:27:33.320805,1178.0
2023-08-21 10:27:33.328494,728.0
2023-08-21 10:27:33.336183,-87.0
2023-08-21 10:27:33.343872,-349.0
2023-08-21 10:27:33.351560,-123.0
2023-08-21 10:27:33.359249,-121.0
2023-08-21 10:27:33.366938,-238.0
2023-08-21 10:27:33.374627,-179.0
2023-08-21 10:27:33.382315,-145.0
2023-08-21 10:27:33.390004,-179.0
2023-08-21 10:27:33.397693,-162.0
2023-08-21 10:27:33.405382,-131.0
2023-08-21 10:27:33.413070,-131.0
2023-08-21 10:27:33.420759,-123.0
2023-08-21 10:27:33.428448,-114.0
2023-08-21 10:27:33.436136,-116.0
2023-08-21 10:27:33.443825,-109.0
2023-08-21 10:27:33.451514,-89.0
2023-08-21 10:27:33.459203,-80.0
2023-08-21 10:27:33.466891,-70.0
2023-08-21 10:27:33.474580,-55.0
2023-08-21 10:27:33.482269,-46.0
2023-08-21 10:27:33.489958,-36.0
2023-08-21 10:27:33.497646,-19.0
2023-08-21 10:27:33.505335,-7.0
2023-08-21 10:27:33.513024,2.0
2023-08-21 10:27:33.520712,14.0
2023-08-21 10:27:33.528401,26.0
2023-08-21 10:27:33.536090,38.0
2023-08-21 10:27:33.543779,43.0
2023-08-21 10:27:33.551467,46.0
2023-08-21 10:27:33.559156,48.0
2023-08-21 10:27:33.566845,48.0
2023-08-21 10:27:33.574534,43.0
2023-08-21 10:27:33.582222,38.0
2023-08-21 10:27:33.589911,31.0
2023-08-21 10:27:33.597600,7.0
2023-08-21 10:27:33.605289,-29.0
2023-08-21 10:27:33.612977,-60.0
2023-08-21 10:27:33.620666,-89.0
2023-08-21 10:27:33.628355,-114.0
2023-08-21 10:27:33.636043,-128.0
2023-08-21 10:27:33.643732,-133.0
2023-08-21 10:27:33.651421,-136.0
2023-08-21 10:27:33.659110,-140.0
2023-08-21 10:27:33.666798,-143.0
2023-08-21 10:27:33.674487,-133.0
2023-08-21 10:27:33.682176,-123.0
2023-08-21 10:27:33.689865,-119.0
2023-08-21 10:27:33.697553,-116.0
2023-08-21 10:27:33.705242,-114.0
2023-08-21 10:27:33.712931,-111.0
2023-08-21 10:27:33.720619,-106.0
2023-08-21 10:27:33.728308,-104.0
2023-08-21 10:27:33.735997,-102.0
2023-08-21 10:27:33.743686,-104.0
2023-08-21 10:27:33.751374,-102.0
2023-08-21 10:27:33.759063,-102.0
2023-08-21 10:27:33.766752,-102.0
2023-08-21 10:27:33.774441,-102.0
2023-08-21 10:27:33.782129,-99.0
2023-08-21 10:27:33.789818,-102.0
2023-08-21 10:27:33.797507,-104.0
2023-08-21 10:27:33.805196,-104.0
2023-08-21 10:27:33.812884,-102.0
2023-08-21 10:27:33.820573,-97.0
2023-08-21 10:27:33.828262,-94.0
2023-08-21 10:27:33.835950,-94.0
2023-08-21 10:27:33.843639,-97.0
2023-08-21 10:27:33.851328,-104.0
2023-08-21 10:27:33.859017,-104.0
2023-08-21 10:27:33.866705,-99.0
2023-08-21 10:27:33.874394,-97.0
2023-08-21 10:27:33.882083,-97.0
2023-08-21 10:27:33.889772,-97.0
2023-08-21 10:27:33.897460,-94.0
2023-08-21 10:27:33.905149,-94.0
2023-08-21 10:27:33.912838,-92.0
2023-08-21 10:27:33.920526,-89.0
2023-08-21 10:27:33.928215,-87.0
2023-08-21 10:27:33.935904,-87.0
2023-08-21 10:27:33.943593,-87.0
2023-08-21 10:27:33.951281,-89.0
2023-08-21 10:27:33.958970,-87.0
2023-08-21 10:27:33.966659,-70.0
2023-08-21 10:27:33.974348,-41.0
2023-08-21 10:27:33.982036,-24.0
2023-08-21 10:27:33.989725,-31.0
2023-08-21 10:27:33.997414,-46.0
2023-08-21 10:27:34.005103,-70.0
2023-08-21 10:27:34.012791,-109.0
2023-08-21 10:27:34.020480,-121.0
2023-08-21 10:27:34.028169,-109.0
2023-08-21 10:27:34.035857,-106.0
2023-08-21 10:27:34.043546,-111.0
2023-08-21 10:27:34.051235,-109.0
2023-08-21 10:27:34.058924,-106.0
2023-08-21 10:27:34.066612,-116.0
2023-08-21 10:27:34.074301,-123.0
2023-08-21 10:27:34.081990,-72.0
2023-08-21 10:27:34.089679,196.0
2023-08-21 10:27:34.097367,755.0
2023-08-21 10:27:34.105056,1195.0
2023-08-21 10:27:34.112745,913.0
2023-08-21 10:27:34.120433,51.0
2023-08-21 10:27:34.128122,-393.0
2023-08-21 10:27:34.135811,-184.0
2023-08-21 10:27:34.143500,-102.0
2023-08-21 10:27:34.151188,-240.0
2023-08-21 10:27:34.158877,-216.0
2023-08-21 10:27:34.166566,-162.0
2023-08-21 10:27:34.174255,-199.0
2023-08-21 10:27:34.181943,-189.0
2023-08-21 10:27:34.189632,-153.0
2023-08-21 10:27:34.197321,-153.0
2023-08-21 10:27:34.205010,-148.0
2023-08-21 10:27:34.212698,-126.0
2023-08-21 10:27:34.220387,-116.0
2023-08-21 10:27:34.228076,-111.0
2023-08-21 10:27:34.235764,-97.0
2023-08-21 10:27:34.243453,-82.0
2023-08-21 10:27:34.251142,-68.0
2023-08-21 10:27:34.258831,-53.0
2023-08-21 10:27:34.266519,-43.0
2023-08-21 10:27:34.274208,-34.0
2023-08-21 10:27:34.281897,-21.0
2023-08-21 10:27:34.289586,-7.0
2023-08-21 10:27:34.297274,4.0
2023-08-21 10:27:34.304963,17.0
2023-08-21 10:27:34.312652,29.0
2023-08-21 10:27:34.320340,41.0
2023-08-21 10:27:34.328029,48.0
2023-08-21 10:27:34.335718,51.0
2023-08-21 10:27:34.343407,46.0
2023-08-21 10:27:34.351095,38.0
2023-08-21 10:27:34.358784,38.0
2023-08-21 10:27:34.366473,31.0
2023-08-21 10:27:34.374162,19.0
2023-08-21 10:27:34.381850,0.0
2023-08-21 10:27:34.389539,-29.0
2023-08-21 10:27:34.397228,-60.0
2023-08-21 10:27:34.404917,-92.0
2023-08-21 10:27:34.412605,-119.0
2023-08-21 10:27:34.420294,-140.0
2023-08-21 10:27:34.427983,-148.0
2023-08-21 10:27:34.435671,-145.0
2023-08-21 10:27:34.443360,-143.0
2023-08-21 10:27:34.451049,-140.0
2023-08-21 10:27:34.458738,-138.0
2023-08-21 10:27:34.466426,-131.0
2023-08-21 10:27:34.474115,-123.0
2023-08-21 10:27:34.481804,-116.0
2023-08-21 10:27:34.489493,-111.0
2023-08-21 10:27:34.497181,-106.0
2023-08-21 10:27:34.504870,-106.0
2023-08-21 10:27:34.512559,-106.0
2023-08-21 10:27:34.520247,-102.0
2023-08-21 10:27:34.527936,-97.0
2023-08-21 10:27:34.535625,-97.0
2023-08-21 10:27:34.543314,-99.0
2023-08-21 10:27:34.551002,-106.0
2023-08-21 10:27:34.558691,-119.0
2023-08-21 10:27:34.566380,-119.0
2023-08-21 10:27:34.574069,-114.0
2023-08-21 10:27:34.581757,-116.0
2023-08-21 10:27:34.589446,-121.0
2023-08-21 10:27:34.597135,-123.0
2023-08-21 10:27:34.604824,-121.0
2023-08-21 10:27:34.612512,-121.0
2023-08-21 10:27:34.620201,-116.0
2023-08-21 10:27:34.627890,-111.0
2023-08-21 10:27:34.635578,-114.0
2023-08-21 10:27:34.643267,-121.0
2023-08-21 10:27:34.650956,-119.0
2023-08-21 10:27:34.658645,-111.0
2023-08-21 10:27:34.666333,-114.0
2023-08-21 10:27:34.674022,-119.0
2023-08-21 10:27:34.681711,-121.0
2023-08-21 10:27:34.689400,-121.0
2023-08-21 10:27:34.697088,-121.0
2023-08-21 10:27:34.704777,-121.0
2023-08-21 10:27:34.712466,-119.0
2023-08-21 10:27:34.720155,-109.0
2023-08-21 10:27:34.727843,-82.0
2023-08-21 10:27:34.735532,-55.0
2023-08-21 10:27:34.743221,-48.0
2023-08-21 10:27:34.750909,-53.0
2023-08-21 10:27:34.758598,-68.0
2023-08-21 10:27:34.766287,-102.0
2023-08-21 10:27:34.773976,-121.0
2023-08-21 10:27:34.781664,-119.0
2023-08-21 10:27:34.789353,-121.0
2023-08-21 10:27:34.797042,-123.0
2023-08-21 10:27:34.804731,-119.0
2023-08-21 10:27:34.812419,-119.0
2023-08-21 10:27:34.820108,-123.0
2023-08-21 10:27:34.827797,-136.0
2023-08-21 10:27:34.835485,-131.0
2023-08-21 10:27:34.843174,9.0
2023-08-21 10:27:34.850863,442.0
2023-08-21 10:27:34.858552,1003.0
2023-08-21 10:27:34.866240,1122.0
2023-08-21 10:27:34.873929,473.0
2023-08-21 10:27:34.881618,-281.0
2023-08-21 10:27:34.889307,-340.0
2023-08-21 10:27:34.896995,-119.0
2023-08-21 10:27:34.904684,-194.0
2023-08-21 10:27:34.912373,-272.0
2023-08-21 10:27:34.920062,-199.0
2023-08-21 10:27:34.927750,-187.0
2023-08-21 10:27:34.935439,-211.0
2023-08-21 10:27:34.943128,-179.0
2023-08-21 10:27:34.950816,-160.0
2023-08-21 10:27:34.958505,-165.0
2023-08-21 10:27:34.966194,-150.0
2023-08-21 10:27:34.973883,-133.0
2023-08-21 10:27:34.981571,-126.0
2023-08-21 10:27:34.989260,-114.0
2023-08-21 10:27:34.996949,-99.0
2023-08-21 10:27:35.004638,-92.0
2023-08-21 10:27:35.012326,-85.0
2023-08-21 10:27:35.020015,-70.0
2023-08-21 10:27:35.027704,-55.0
2023-08-21 10:27:35.035392,-43.0
2023-08-21 10:27:35.043081,-29.0
2023-08-21 10:27:35.050770,-17.0
2023-08-21 10:27:35.058459,-7.0
2023-08-21 10:27:35.066147,4.0
2023-08-21 10:27:35.073836,17.0
2023-08-21 10:27:35.081525,19.0
2023-08-21 10:27:35.089214,24.0
2023-08-21 10:27:35.096902,26.0
2023-08-21 10:27:35.104591,21.0
2023-08-21 10:27:35.112280,19.0
2023-08-21 10:27:35.119969,19.0
2023-08-21 10:27:35.127657,14.0
2023-08-21 10:27:35.135346,-4.0
2023-08-21 10:27:35.143035,-41.0
2023-08-21 10:27:35.150723,-77.0
2023-08-21 10:27:35.158412,-104.0
2023-08-21 10:27:35.166101,-126.0
2023-08-21 10:27:35.173790,-148.0
2023-08-21 10:27:35.181478,-160.0
2023-08-21 10:27:35.189167,-165.0
2023-08-21 10:27:35.196856,-165.0
2023-08-21 10:27:35.204545,-157.0
2023-08-21 10:27:35.212233,-150.0
2023-08-21 10:27:35.219922,-143.0
2023-08-21 10:27:35.227611,-136.0
2023-08-21 10:27:35.235299,-133.0
2023-08-21 10:27:35.242988,-128.0
2023-08-21 10:27:35.250677,-123.0
2023-08-21 10:27:35.258366,-119.0
2023-08-21 10:27:35.266054,-119.0
2023-08-21 10:27:35.273743,-116.0
2023-08-21 10:27:35.281432,-116.0
2023-08-21 10:27:35.289121,-116.0
2023-08-21 10:27:35.296809,-114.0
2023-08-21 10:27:35.304498,-114.0
2023-08-21 10:27:35.312187,-111.0
2023-08-21 10:27:35.319876,-114.0
2023-08-21 10:27:35.327564,-119.0
2023-08-21 10:27:35.335253,-119.0
2023-08-21 10:27:35.342942,-114.0
2023-08-21 10:27:35.350630,-111.0
2023-08-21 10:27:35.358319,-111.0
2023-08-21 10:27:35.366008,-111.0
2023-08-21 10:27:35.373697,-111.0
2023-08-21 10:27:35.381385,-111.0
2023-08-21 10:27:35.389074,-109.0
2023-08-21 10:27:35.396763,-109.0
2023-08-21 10:27:35.404452,-114.0
2023-08-21 10:27:35.412140,-111.0
2023-08-21 10:27:35.419829,-106.0
2023-08-21 10:27:35.427518,-109.0
2023-08-21 10:27:35.435206,-111.0
2023-08-21 10:27:35.442895,-104.0
2023-08-21 10:27:35.450584,-102.0
2023-08-21 10:27:35.458273,-106.0
2023-08-21 10:27:35.465961,-106.0
2023-08-21 10:27:35.473650,-104.0
2023-08-21 10:27:35.481339,-87.0
2023-08-21 10:27:35.489028,-55.0
2023-08-21 10:27:35.496716,-34.0
2023-08-21 10:27:35.504405,-36.0
2023-08-21 10:27:35.512094,-43.0
2023-08-21 10:27:35.519783,-68.0
2023-08-21 10:27:35.527471,-94.0
2023-08-21 10:27:35.535160,-97.0
2023-08-21 10:27:35.542849,-89.0
2023-08-21 10:27:35.550537,-97.0
2023-08-21 10:27:35.558226,-99.0
2023-08-21 10:27:35.565915,-99.0
2023-08-21 10:27:35.573604,-104.0
2023-08-21 10:27:35.581292,-116.0
2023-08-21 10:27:35.588981,-128.0
2023-08-21 10:27:35.596670,-97.0
2023-08-21 10:27:35.604359,133.0
2023-08-21 10:27:35.612047,655.0
2023-08-21 10:27:35.619736,1129.0
2023-08-21 10:27:35.627425,964.0
2023-08-21 10:27:35.635113,167.0
2023-08-21 10:27:35.642802,-364.0
2023-08-21 10:27:35.650491,-221.0
2023-08-21 10:27:35.658180,-94.0
2023-08-21 10:27:35.665868,-225.0
2023-08-21 10:27:35.673557,-228.0
2023-08-21 10:27:35.681246,-167.0
2023-08-21 10:27:35.688935,-194.0
2023-08-21 10:27:35.696623,-196.0
2023-08-21 10:27:35.704312,-160.0
2023-08-21 10:27:35.712001,-155.0
2023-08-21 10:27:35.719690,-155.0
2023-08-21 10:27:35.727378,-145.0
2023-08-21 10:27:35.735067,-138.0
2023-08-21 10:27:35.742756,-128.0
2023-08-21 10:27:35.750444,-114.0
2023-08-21 10:27:35.758133,-102.0
2023-08-21 10:27:35.765822,-89.0
2023-08-21 10:27:35.773511,-77.0
2023-08-21 10:27:35.781199,-65.0
2023-08-21 10:27:35.788888,-53.0
2023-08-21 10:27:35.796577,-38.0
2023-08-21 10:27:35.804266,-26.0
2023-08-21 10:27:35.811954,-14.0
2023-08-21 10:27:35.819643,-4.0
2023-08-21 10:27:35.827332,4.0
2023-08-21 10:27:35.835020,19.0
2023-08-21 10:27:35.842709,26.0
2023-08-21 10:27:35.850398,29.0
2023-08-21 10:27:35.858087,24.0
2023-08-21 10:27:35.865775,17.0
2023-08-21 10:27:35.873464,17.0
2023-08-21 10:27:35.881153,17.0
2023-08-21 10:27:35.888842,7.0
2023-08-21 10:27:35.896530,-12.0
2023-08-21 10:27:35.904219,-41.0
2023-08-21 10:27:35.911908,-80.0
2023-08-21 10:27:35.919597,-109.0
2023-08-21 10:27:35.927285,-126.0
2023-08-21 10:27:35.934974,-143.0
2023-08-21 10:27:35.942663,-155.0
2023-08-21 10:27:35.950351,-155.0
2023-08-21 10:27:35.958040,-153.0
2023-08-21 10:27:35.965729,-145.0
2023-08-21 10:27:35.973418,-138.0
2023-08-21 10:27:35.981106,-133.0
2023-08-21 10:27:35.988795,-126.0
2023-08-21 10:27:35.996484,-121.0
2023-08-21 10:27:36.004173,-119.0
2023-08-21 10:27:36.011861,-114.0
2023-08-21 10:27:36.019550,-111.0
2023-08-21 10:27:36.027239,-109.0
2023-08-21 10:27:36.034927,-106.0
2023-08-21 10:27:36.042616,-106.0
2023-08-21 10:27:36.050305,-106.0
2023-08-21 10:27:36.057994,-106.0
2023-08-21 10:27:36.065682,-111.0
2023-08-21 10:27:36.073371,-116.0
2023-08-21 10:27:36.081060,-114.0
2023-08-21 10:27:36.088749,-114.0
2023-08-21 10:27:36.096437,-111.0
2023-08-21 10:27:36.104126,-109.0
2023-08-21 10:27:36.111815,-109.0
2023-08-21 10:27:36.119504,-109.0
2023-08-21 10:27:36.127192,-106.0
2023-08-21 10:27:36.134881,-106.0
2023-08-21 10:27:36.142570,-104.0
2023-08-21 10:27:36.150258,-99.0
2023-08-21 10:27:36.157947,-94.0
2023-08-21 10:27:36.165636,-97.0
2023-08-21 10:27:36.173325,-94.0
2023-08-21 10:27:36.181013,-89.0
2023-08-21 10:27:36.188702,-87.0
2023-08-21 10:27:36.196391,-87.0
2023-08-21 10:27:36.204080,-85.0
2023-08-21 10:27:36.211768,-85.0
2023-08-21 10:27:36.219457,-94.0
2023-08-21 10:27:36.227146,-104.0
2023-08-21 10:27:36.234834,-104.0
2023-08-21 10:27:36.242523,-99.0
2023-08-21 10:27:36.250212,-92.0
2023-08-21 10:27:36.257901,-65.0
2023-08-21 10:27:36.265589,-43.0
2023-08-21 10:27:36.273278,-48.0
2023-08-21 10:27:36.280967,-51.0
2023-08-21 10:27:36.288656,-60.0
2023-08-21 10:27:36.296344,-94.0
2023-08-21 10:27:36.304033,-109.0
2023-08-21 10:27:36.311722,-102.0
2023-08-21 10:27:36.319411,-97.0
2023-08-21 10:27:36.327099,-97.0
2023-08-21 10:27:36.334788,-97.0
2023-08-21 10:27:36.342477,-97.0
2023-08-21 10:27:36.350165,-99.0
2023-08-21 10:27:36.357854,-111.0
2023-08-21 10:27:36.365543,-109.0
2023-08-21 10:27:36.373232,29.0
2023-08-21 10:27:36.380920,461.0
2023-08-21 10:27:36.388609,1029.0
2023-08-21 10:27:36.396298,1156.0
2023-08-21 10:27:36.403987,502.0
2023-08-21 10:27:36.411675,-259.0
2023-08-21 10:27:36.419364,-315.0
2023-08-21 10:27:36.427053,-89.0
2023-08-21 10:27:36.434741,-167.0
2023-08-21 10:27:36.442430,-245.0
2023-08-21 10:27:36.450119,-167.0
2023-08-21 10:27:36.457808,-155.0
2023-08-21 10:27:36.465496,-177.0
2023-08-21 10:27:36.473185,-150.0
2023-08-21 10:27:36.480874,-131.0
2023-08-21 10:27:36.488563,-136.0
2023-08-21 10:27:36.496251,-123.0
2023-08-21 10:27:36.503940,-104.0
2023-08-21 10:27:36.511629,-94.0
2023-08-21 10:27:36.519318,-85.0
2023-08-21 10:27:36.527006,-70.0
2023-08-21 10:27:36.534695,-63.0
2023-08-21 10:27:36.542384,-55.0
2023-08-21 10:27:36.550072,-41.0
2023-08-21 10:27:36.557761,-31.0
2023-08-21 10:27:36.565450,-21.0
2023-08-21 10:27:36.573139,-9.0
2023-08-21 10:27:36.580827,2.0
2023-08-21 10:27:36.588516,14.0
2023-08-21 10:27:36.596205,29.0
2023-08-21 10:27:36.603894,41.0
2023-08-21 10:27:36.611582,48.0
2023-08-21 10:27:36.619271,51.0
2023-08-21 10:27:36.626960,51.0
2023-08-21 10:27:36.634648,53.0
2023-08-21 10:27:36.642337,48.0
2023-08-21 10:27:36.650026,43.0
2023-08-21 10:27:36.657715,36.0
2023-08-21 10:27:36.665403,21.0
2023-08-21 10:27:36.673092,-9.0
2023-08-21 10:27:36.680781,-41.0
2023-08-21 10:27:36.688470,-68.0
2023-08-21 10:27:36.696158,-92.0
2023-08-21 10:27:36.703847,-114.0
2023-08-21 10:27:36.711536,-128.0
2023-08-21 10:27:36.719225,-136.0
2023-08-21 10:27:36.726913,-136.0
2023-08-21 10:27:36.734602,-131.0
2023-08-21 10:27:36.742291,-126.0
2023-08-21 10:27:36.749979,-121.0
2023-08-21 10:27:36.757668,-119.0
2023-08-21 10:27:36.765357,-114.0
2023-08-21 10:27:36.773046,-106.0
2023-08-21 10:27:36.780734,-102.0
2023-08-21 10:27:36.788423,-102.0
2023-08-21 10:27:36.796112,-99.0
2023-08-21 10:27:36.803801,-99.0
2023-08-21 10:27:36.811489,-104.0
2023-08-21 10:27:36.819178,-99.0
2023-08-21 10:27:36.826867,-97.0
2023-08-21 10:27:36.834555,-99.0
2023-08-21 10:27:36.842244,-99.0
2023-08-21 10:27:36.849933,-102.0
2023-08-21 10:27:36.857622,-104.0
2023-08-21 10:27:36.865310,-104.0
2023-08-21 10:27:36.872999,-102.0
2023-08-21 10:27:36.880688,-99.0
2023-08-21 10:27:36.888377,-99.0
2023-08-21 10:27:36.896065,-102.0
2023-08-21 10:27:36.903754,-106.0
2023-08-21 10:27:36.911443,-111.0
2023-08-21 10:27:36.919132,-109.0
2023-08-21 10:27:36.926820,-106.0
2023-08-21 10:27:36.934509,-109.0
2023-08-21 10:27:36.942198,-119.0
2023-08-21 10:27:36.949886,-123.0
2023-08-21 10:27:36.957575,-119.0
2023-08-21 10:27:36.965264,-111.0
2023-08-21 10:27:36.972953,-111.0
2023-08-21 10:27:36.980641,-111.0
2023-08-21 10:27:36.988330,-116.0
2023-08-21 10:27:36.996019,-109.0
2023-08-21 10:27:37.003708,-77.0
2023-08-21 10:27:37.011396,-48.0
2023-08-21 10:27:37.019085,-43.0
2023-08-21 10:27:37.026774,-48.0
2023-08-21 10:27:37.034462,-63.0
2023-08-21 10:27:37.042151,-97.0
2023-08-21 10:27:37.049840,-119.0
2023-08-21 10:27:37.057529,-109.0
2023-08-21 10:27:37.065217,-104.0
2023-08-21 10:27:37.072906,-109.0
2023-08-21 10:27:37.080595,-111.0
2023-08-21 10:27:37.088284,-104.0
2023-08-21 10:27:37.095972,-104.0
2023-08-21 10:27:37.103661,-114.0
2023-08-21 10:27:37.111350,-111.0
2023-08-21 10:27:37.119039,19.0
2023-08-21 10:27:37.126727,449.0
2023-08-21 10:27:37.134416,1044.0
2023-08-21 10:27:37.142105,1212.0
2023-08-21 10:27:37.149793,566.0
2023-08-21 10:27:37.157482,-245.0
2023-08-21 10:27:37.165171,-337.0
2023-08-21 10:27:37.172860,-102.0
2023-08-21 10:27:37.180548,-174.0
2023-08-21 10:27:37.188237,-257.0
2023-08-21 10:27:37.195926,-179.0
2023-08-21 10:27:37.203615,-170.0
2023-08-21 10:27:37.211303,-199.0
2023-08-21 10:27:37.218992,-172.0
2023-08-21 10:27:37.226681,-150.0
2023-08-21 10:27:37.234369,-153.0
2023-08-21 10:27:37.242058,-138.0
2023-08-21 10:27:37.249747,-121.0
2023-08-21 10:27:37.257436,-119.0
2023-08-21 10:27:37.265124,-111.0
2023-08-21 10:27:37.272813,-97.0
2023-08-21 10:27:37.280502,-85.0
2023-08-21 10:27:37.288191,-72.0
2023-08-21 10:27:37.295879,-68.0
2023-08-21 10:27:37.303568,-58.0
2023-08-21 10:27:37.311257,-46.0
2023-08-21 10:27:37.318946,-34.0
2023-08-21 10:27:37.326634,-19.0
2023-08-21 10:27:37.334323,-4.0
2023-08-21 10:27:37.342012,4.0
2023-08-21 10:27:37.349700,14.0
2023-08-21 10:27:37.357389,19.0
2023-08-21 10:27:37.365078,24.0
2023-08-21 10:27:37.372767,24.0
2023-08-21 10:27:37.380455,24.0
2023-08-21 10:27:37.388144,17.0
2023-08-21 10:27:37.395833,2.0
2023-08-21 10:27:37.403522,-7.0
2023-08-21 10:27:37.411210,-24.0
2023-08-21 10:27:37.418899,-58.0
2023-08-21 10:27:37.426588,-89.0
2023-08-21 10:27:37.434276,-123.0
2023-08-21 10:27:37.441965,-157.0
2023-08-21 10:27:37.449654,-174.0
2023-08-21 10:27:37.457343,-179.0
2023-08-21 10:27:37.465031,-187.0
2023-08-21 10:27:37.472720,-187.0
2023-08-21 10:27:37.480409,-189.0
2023-08-21 10:27:37.488098,-191.0
2023-08-21 10:27:37.495786,-182.0
2023-08-21 10:27:37.503475,-170.0
2023-08-21 10:27:37.511164,-165.0
2023-08-21 10:27:37.518853,-160.0
2023-08-21 10:27:37.526541,-162.0
2023-08-21 10:27:37.534230,-162.0
2023-08-21 10:27:37.541919,-160.0
2023-08-21 10:27:37.549607,-155.0
2023-08-21 10:27:37.557296,-150.0
2023-08-21 10:27:37.564985,-148.0
2023-08-21 10:27:37.572674,-148.0
2023-08-21 10:27:37.580362,-145.0
2023-08-21 10:27:37.588051,-143.0
2023-08-21 10:27:37.595740,-143.0
2023-08-21 10:27:37.603429,-140.0
2023-08-21 10:27:37.611117,-138.0
2023-08-21 10:27:37.618806,-138.0
2023-08-21 10:27:37.626495,-136.0
2023-08-21 10:27:37.634184,-131.0
2023-08-21 10:27:37.641872,-128.0
2023-08-21 10:27:37.649561,-126.0
2023-08-21 10:27:37.657250,-123.0
2023-08-21 10:27:37.664938,-121.0
2023-08-21 10:27:37.672627,-119.0
2023-08-21 10:27:37.680316,-114.0
2023-08-21 10:27:37.688005,-114.0
2023-08-21 10:27:37.695693,-109.0
2023-08-21 10:27:37.703382,-106.0
2023-08-21 10:27:37.711071,-106.0
2023-08-21 10:27:37.718760,-102.0
2023-08-21 10:27:37.726448,-99.0
2023-08-21 10:27:37.734137,-102.0
2023-08-21 10:27:37.741826,-102.0
2023-08-21 10:27:37.749514,-99.0
2023-08-21 10:27:37.757203,-82.0
2023-08-21 10:27:37.764892,-48.0
2023-08-21 10:27:37.772581,-26.0
2023-08-21 10:27:37.780269,-29.0
2023-08-21 10:27:37.787958,-38.0
2023-08-21 10:27:37.795647,-65.0
2023-08-21 10:27:37.803336,-97.0
2023-08-21 10:27:37.811024,-102.0
2023-08-21 10:27:37.818713,-92.0
2023-08-21 10:27:37.826402,-94.0
2023-08-21 10:27:37.834091,-99.0
2023-08-21 10:27:37.841779,-97.0
2023-08-21 10:27:37.849468,-94.0
2023-08-21 10:27:37.857157,-94.0
2023-08-21 10:27:37.864845,-109.0
2023-08-21 10:27:37.872534,-92.0
2023-08-21 10:27:37.880223,123.0
2023-08-21 10:27:37.887912,641.0
2023-08-21 10:27:37.895600,1158.0
2023-08-21 10:27:37.903289,1061.0
2023-08-21 10:27:37.910978,274.0
2023-08-21 10:27:37.918667,-332.0
2023-08-21 10:27:37.926355,-240.0
2023-08-21 10:27:37.934044,-102.0
2023-08-21 10:27:37.941733,-228.0
2023-08-21 10:27:37.949421,-245.0
2023-08-21 10:27:37.957110,-174.0
2023-08-21 10:27:37.964799,-191.0
2023-08-21 10:27:37.972488,-201.0
2023-08-21 10:27:37.980176,-170.0
2023-08-21 10:27:37.987865,-157.0
2023-08-21 10:27:37.995554,-155.0
2023-08-21 10:27:38.003243,-138.0
2023-08-21 10:27:38.010931,-126.0
2023-08-21 10:27:38.018620,-121.0
2023-08-21 10:27:38.026309,-109.0
2023-08-21 10:27:38.033998,-99.0
2023-08-21 10:27:38.041686,-89.0
2023-08-21 10:27:38.049375,-75.0
2023-08-21 10:27:38.057064,-63.0
2023-08-21 10:27:38.064752,-53.0
2023-08-21 10:27:38.072441,-41.0
2023-08-21 10:27:38.080130,-24.0
2023-08-21 10:27:38.087819,-9.0
2023-08-21 10:27:38.095507,0.0
2023-08-21 10:27:38.103196,9.0
2023-08-21 10:27:38.110885,19.0
2023-08-21 10:27:38.118574,26.0
2023-08-21 10:27:38.126262,31.0
2023-08-21 10:27:38.133951,36.0
2023-08-21 10:27:38.141640,36.0
2023-08-21 10:27:38.149328,34.0
2023-08-21 10:27:38.157017,29.0
2023-08-21 10:27:38.164706,19.0
2023-08-21 10:27:38.172395,2.0
2023-08-21 10:27:38.180083,-26.0
2023-08-21 10:27:38.187772,-58.0
2023-08-21 10:27:38.195461,-87.0
2023-08-21 10:27:38.203150,-114.0
2023-08-21 10:27:38.210838,-128.0
2023-08-21 10:27:38.218527,-136.0
2023-08-21 10:27:38.226216,-140.0
2023-08-21 10:27:38.233905,-138.0
2023-08-21 10:27:38.241593,-133.0
2023-08-21 10:27:38.249282,-131.0
2023-08-21 10:27:38.256971,-121.0
2023-08-21 10:27:38.264659,-114.0
2023-08-21 10:27:38.272348,-111.0
2023-08-21 10:27:38.280037,-111.0
2023-08-21 10:27:38.287726,-111.0
2023-08-21 10:27:38.295414,-106.0
2023-08-21 10:27:38.303103,-104.0
2023-08-21 10:27:38.310792,-99.0
2023-08-21 10:27:38.318481,-99.0
2023-08-21 10:27:38.326169,-99.0
2023-08-21 10:27:38.333858,-102.0
2023-08-21 10:27:38.341547,-104.0
2023-08-21 10:27:38.349235,-102.0
2023-08-21 10:27:38.356924,-99.0
2023-08-21 10:27:38.364613,-99.0
2023-08-21 10:27:38.372302,-99.0
2023-08-21 10:27:38.379990,-102.0
2023-08-21 10:27:38.387679,-102.0
2023-08-21 10:27:38.395368,-97.0
2023-08-21 10:27:38.403057,-94.0
2023-08-21 10:27:38.410745,-94.0
2023-08-21 10:27:38.418434,-89.0
2023-08-21 10:27:38.426123,-94.0
2023-08-21 10:27:38.433812,-99.0
2023-08-21 10:27:38.441500,-97.0
2023-08-21 10:27:38.449189,-92.0
2023-08-21 10:27:38.456878,-89.0
2023-08-21 10:27:38.464566,-92.0
2023-08-21 10:27:38.472255,-102.0
2023-08-21 10:27:38.479944,-104.0
2023-08-21 10:27:38.487633,-97.0
2023-08-21 10:27:38.495321,-92.0
2023-08-21 10:27:38.503010,-92.0
2023-08-21 10:27:38.510699,-92.0
2023-08-21 10:27:38.518388,-92.0
2023-08-21 10:27:38.526076,-94.0
2023-08-21 10:27:38.533765,-97.0
2023-08-21 10:27:38.541454,-87.0
2023-08-21 10:27:38.549142,-58.0
2023-08-21 10:27:38.556831,-29.0
2023-08-21 10:27:38.564520,-29.0
2023-08-21 10:27:38.572209,-38.0
2023-08-21 10:27:38.579897,-48.0
2023-08-21 10:27:38.587586,-72.0
2023-08-21 10:27:38.595275,-94.0
2023-08-21 10:27:38.602964,-94.0
2023-08-21 10:27:38.610652,-89.0
2023-08-21 10:27:38.618341,-92.0
2023-08-21 10:27:38.626030,-89.0
2023-08-21 10:27:38.633719,-87.0
2023-08-21 10:27:38.641407,-87.0
2023-08-21 10:27:38.649096,-94.0
2023-08-21 10:27:38.656785,-111.0
2023-08-21 10:27:38.664473,-58.0
2023-08-21 10:27:38.672162,242.0
2023-08-21 10:27:38.679851,811.0
2023-08-21 10:27:38.687540,1207.0
2023-08-21 10:27:38.695228,872.0
2023-08-21 10:27:38.702917,29.0
2023-08-21 10:27:38.710606,-361.0
2023-08-21 10:27:38.718295,-153.0
2023-08-21 10:27:38.725983,-97.0
2023-08-21 10:27:38.733672,-230.0
2023-08-21 10:27:38.741361,-201.0
2023-08-21 10:27:38.749049,-150.0
2023-08-21 10:27:38.756738,-179.0
2023-08-21 10:27:38.764427,-172.0
2023-08-21 10:27:38.772116,-143.0
2023-08-21 10:27:38.779804,-145.0
2023-08-21 10:27:38.787493,-143.0
2023-08-21 10:27:38.795182,-126.0
2023-08-21 10:27:38.802871,-116.0
2023-08-21 10:27:38.810559,-106.0
2023-08-21 10:27:38.818248,-92.0
2023-08-21 10:27:38.825937,-80.0
2023-08-21 10:27:38.833626,-72.0
2023-08-21 10:27:38.841314,-60.0
2023-08-21 10:27:38.849003,-48.0
2023-08-21 10:27:38.856692,-36.0
2023-08-21 10:27:38.864380,-24.0
2023-08-21 10:27:38.872069,-9.0
2023-08-21 10:27:38.879758,0.0
2023-08-21 10:27:38.887447,9.0
2023-08-21 10:27:38.895135,24.0
2023-08-21 10:27:38.902824,34.0
2023-08-21 10:27:38.910513,41.0
2023-08-21 10:27:38.918202,43.0
2023-08-21 10:27:38.925890,41.0
2023-08-21 10:27:38.933579,31.0
2023-08-21 10:27:38.941268,26.0
2023-08-21 10:27:38.948956,26.0
2023-08-21 10:27:38.956645,14.0
2023-08-21 10:27:38.964334,-7.0
2023-08-21 10:27:38.972023,-38.0
2023-08-21 10:27:38.979711,-70.0
2023-08-21 10:27:38.987400,-99.0
2023-08-21 10:27:38.995089,-123.0
2023-08-21 10:27:39.002778,-138.0
2023-08-21 10:27:39.010466,-143.0
2023-08-21 10:27:39.018155,-150.0
2023-08-21 10:27:39.025844,-153.0
2023-08-21 10:27:39.033533,-145.0
2023-08-21 10:27:39.041221,-136.0
2023-08-21 10:27:39.048910,-131.0
2023-08-21 10:27:39.056599,-126.0
2023-08-21 10:27:39.064287,-123.0
2023-08-21 10:27:39.071976,-119.0
2023-08-21 10:27:39.079665,-114.0
2023-08-21 10:27:39.087354,-109.0
2023-08-21 10:27:39.095042,-111.0
2023-08-21 10:27:39.102731,-121.0
2023-08-21 10:27:39.110420,-128.0
2023-08-21 10:27:39.118109,-123.0
2023-08-21 10:27:39.125797,-123.0
2023-08-21 10:27:39.133486,-123.0
2023-08-21 10:27:39.141175,-126.0
2023-08-21 10:27:39.148863,-136.0
2023-08-21 10:27:39.156552,-136.0
2023-08-21 10:27:39.164241,-131.0
2023-08-21 10:27:39.171930,-128.0
2023-08-21 10:27:39.179618,-126.0
2023-08-21 10:27:39.187307,-131.0
2023-08-21 10:27:39.194996,-140.0
2023-08-21 10:27:39.202685,-140.0
2023-08-21 10:27:39.210373,-133.0
2023-08-21 10:27:39.218062,-128.0
2023-08-21 10:27:39.225751,-126.0
2023-08-21 10:27:39.233440,-128.0
2023-08-21 10:27:39.241128,-136.0
2023-08-21 10:27:39.248817,-131.0
2023-08-21 10:27:39.256506,-126.0
2023-08-21 10:27:39.264194,-126.0
2023-08-21 10:27:39.271883,-126.0
2023-08-21 10:27:39.279572,-119.0
2023-08-21 10:27:39.287261,-116.0
2023-08-21 10:27:39.294949,-116.0
2023-08-21 10:27:39.302638,-111.0
2023-08-21 10:27:39.310327,-106.0
2023-08-21 10:27:39.318016,-111.0
2023-08-21 10:27:39.325704,-121.0
2023-08-21 10:27:39.333393,-123.0
2023-08-21 10:27:39.341082,-121.0
2023-08-21 10:27:39.348770,-119.0
2023-08-21 10:27:39.356459,-99.0
2023-08-21 10:27:39.364148,-63.0
2023-08-21 10:27:39.371837,-48.0
2023-08-21 10:27:39.379525,-63.0
2023-08-21 10:27:39.387214,-75.0
2023-08-21 10:27:39.394903,-89.0
2023-08-21 10:27:39.402592,-114.0
2023-08-21 10:27:39.410280,-123.0
2023-08-21 10:27:39.417969,-116.0
2023-08-21 10:27:39.425658,-114.0
2023-08-21 10:27:39.433347,-119.0
2023-08-21 10:27:39.441035,-123.0
2023-08-21 10:27:39.448724,-128.0
2023-08-21 10:27:39.456413,-128.0
2023-08-21 10:27:39.464101,-140.0
2023-08-21 10:27:39.471790,-148.0
2023-08-21 10:27:39.479479,-41.0
2023-08-21 10:27:39.487168,349.0
2023-08-21 10:27:39.494856,937.0
2023-08-21 10:27:39.502545,1168.0
2023-08-21 10:27:39.510234,604.0
2023-08-21 10:27:39.517923,-204.0
2023-08-21 10:27:39.525611,-359.0
2023-08-21 10:27:39.533300,-128.0
2023-08-21 10:27:39.540989,-170.0
2023-08-21 10:27:39.548677,-264.0
2023-08-21 10:27:39.556366,-194.0
2023-08-21 10:27:39.564055,-167.0
2023-08-21 10:27:39.571744,-196.0
2023-08-21 10:27:39.579432,-174.0
2023-08-21 10:27:39.587121,-153.0
2023-08-21 10:27:39.594810,-160.0
2023-08-21 10:27:39.602499,-160.0
2023-08-21 10:27:39.610187,-138.0
2023-08-21 10:27:39.617876,-126.0
2023-08-21 10:27:39.625565,-119.0
2023-08-21 10:27:39.633254,-106.0
2023-08-21 10:27:39.640942,-92.0
2023-08-21 10:27:39.648631,-80.0
2023-08-21 10:27:39.656320,-65.0
2023-08-21 10:27:39.664008,-53.0
2023-08-21 10:27:39.671697,-43.0
2023-08-21 10:27:39.679386,-26.0
2023-08-21 10:27:39.687075,-12.0
2023-08-21 10:27:39.694763,-2.0
2023-08-21 10:27:39.702452,9.0
2023-08-21 10:27:39.710141,24.0
2023-08-21 10:27:39.717830,34.0
2023-08-21 10:27:39.725518,41.0
2023-08-21 10:27:39.733207,41.0
2023-08-21 10:27:39.740896,38.0
2023-08-21 10:27:39.748584,38.0
2023-08-21 10:27:39.756273,34.0
2023-08-21 10:27:39.763962,24.0
2023-08-21 10:27:39.771651,7.0
2023-08-21 10:27:39.779339,-17.0
2023-08-21 10:27:39.787028,-46.0
2023-08-21 10:27:39.794717,-75.0
2023-08-21 10:27:39.802406,-104.0
2023-08-21 10:27:39.810094,-128.0
2023-08-21 10:27:39.817783,-145.0
2023-08-21 10:27:39.825472,-153.0
2023-08-21 10:27:39.833161,-153.0
2023-08-21 10:27:39.840849,-150.0
2023-08-21 10:27:39.848538,-145.0
2023-08-21 10:27:39.856227,-138.0
2023-08-21 10:27:39.863915,-131.0
2023-08-21 10:27:39.871604,-123.0
2023-08-21 10:27:39.879293,-116.0
2023-08-21 10:27:39.886982,-111.0
2023-08-21 10:27:39.894670,-106.0
2023-08-21 10:27:39.902359,-106.0
2023-08-21 10:27:39.910048,-104.0
2023-08-21 10:27:39.917737,-102.0
2023-08-21 10:27:39.925425,-99.0
2023-08-21 10:27:39.933114,-99.0
2023-08-21 10:27:39.940803,-102.0
2023-08-21 10:27:39.948491,-114.0
2023-08-21 10:27:39.956180,-121.0
2023-08-21 10:27:39.963869,-116.0
2023-08-21 10:27:39.971558,-111.0
2023-08-21 10:27:39.979246,-111.0
2023-08-21 10:27:39.986935,-114.0
2023-08-21 10:27:39.994624,-114.0
2023-08-21 10:27:40.002313,-114.0
2023-08-21 10:27:40.010001,-116.0
2023-08-21 10:27:40.017690,-114.0
2023-08-21 10:27:40.025379,-109.0
2023-08-21 10:27:40.033068,-106.0
2023-08-21 10:27:40.040756,-109.0
2023-08-21 10:27:40.048445,-109.0
2023-08-21 10:27:40.056134,-106.0
2023-08-21 10:27:40.063822,-102.0
2023-08-21 10:27:40.071511,-99.0
2023-08-21 10:27:40.079200,-97.0
2023-08-21 10:27:40.086889,-99.0
2023-08-21 10:27:40.094577,-102.0
2023-08-21 10:27:40.102266,-102.0
2023-08-21 10:27:40.109955,-99.0
2023-08-21 10:27:40.117644,-94.0
2023-08-21 10:27:40.125332,-97.0
2023-08-21 10:27:40.133021,-109.0
2023-08-21 10:27:40.140710,-111.0
2023-08-21 10:27:40.148398,-80.0
2023-08-21 10:27:40.156087,-41.0
2023-08-21 10:27:40.163776,-36.0
2023-08-21 10:27:40.171465,-51.0
2023-08-21 10:27:40.179153,-63.0
2023-08-21 10:27:40.186842,-87.0
2023-08-21 10:27:40.194531,-109.0
2023-08-21 10:27:40.202220,-104.0
2023-08-21 10:27:40.209908,-97.0
2023-08-21 10:27:40.217597,-109.0
2023-08-21 10:27:40.225286,-123.0
2023-08-21 10:27:40.232975,-126.0
2023-08-21 10:27:40.240663,-123.0
2023-08-21 10:27:40.248352,-133.0
2023-08-21 10:27:40.256041,-150.0
2023-08-21 10:27:40.263729,-119.0
2023-08-21 10:27:40.271418,128.0
2023-08-21 10:27:40.279107,682.0
2023-08-21 10:27:40.286796,1180.0
2023-08-21 10:27:40.294484,983.0
2023-08-21 10:27:40.302173,128.0
2023-08-21 10:27:40.309862,-400.0
2023-08-21 10:27:40.317551,-225.0
2023-08-21 10:27:40.325239,-111.0
2023-08-21 10:27:40.332928,-250.0
2023-08-21 10:27:40.340617,-238.0
2023-08-21 10:27:40.348306,-165.0
2023-08-21 10:27:40.355994,-194.0
2023-08-21 10:27:40.363683,-199.0
2023-08-21 10:27:40.371372,-160.0
2023-08-21 10:27:40.379060,-153.0
2023-08-21 10:27:40.386749,-150.0
2023-08-21 10:27:40.394438,-131.0
2023-08-21 10:27:40.402127,-121.0
2023-08-21 10:27:40.409815,-116.0
2023-08-21 10:27:40.417504,-102.0
2023-08-21 10:27:40.425193,-87.0
2023-08-21 10:27:40.432882,-75.0
2023-08-21 10:27:40.440570,-65.0
2023-08-21 10:27:40.448259,-60.0
2023-08-21 10:27:40.455948,-53.0
2023-08-21 10:27:40.463636,-38.0
2023-08-21 10:27:40.471325,-21.0
2023-08-21 10:27:40.479014,-9.0
2023-08-21 10:27:40.486703,2.0
2023-08-21 10:27:40.494391,9.0
2023-08-21 10:27:40.502080,17.0
2023-08-21 10:27:40.509769,24.0
2023-08-21 10:27:40.517458,31.0
2023-08-21 10:27:40.525146,31.0
2023-08-21 10:27:40.532835,29.0
2023-08-21 10:27:40.540524,24.0
2023-08-21 10:27:40.548213,19.0
2023-08-21 10:27:40.555901,9.0
2023-08-21 10:27:40.563590,-7.0
2023-08-21 10:27:40.571279,-36.0
2023-08-21 10:27:40.578967,-68.0
2023-08-21 10:27:40.586656,-99.0
2023-08-21 10:27:40.594345,-126.0
2023-08-21 10:27:40.602034,-140.0
2023-08-21 10:27:40.609722,-148.0
2023-08-21 10:27:40.617411,-150.0
2023-08-21 10:27:40.625100,-150.0
2023-08-21 10:27:40.632789,-150.0
2023-08-21 10:27:40.640477,-145.0
2023-08-21 10:27:40.648166,-136.0
2023-08-21 10:27:40.655855,-126.0
2023-08-21 10:27:40.663543,-119.0
2023-08-21 10:27:40.671232,-114.0
2023-08-21 10:27:40.678921,-109.0
2023-08-21 10:27:40.686610,-104.0
2023-08-21 10:27:40.694298,-102.0
2023-08-21 10:27:40.701987,-97.0
2023-08-21 10:27:40.709676,-94.0
2023-08-21 10:27:40.717365,-94.0
2023-08-21 10:27:40.725053,-97.0
2023-08-21 10:27:40.732742,-99.0
2023-08-21 10:27:40.740431,-102.0
2023-08-21 10:27:40.748120,-104.0
2023-08-21 10:27:40.755808,-104.0
2023-08-21 10:27:40.763497,-111.0
2023-08-21 10:27:40.771186,-121.0
2023-08-21 10:27:40.778874,-121.0
2023-08-21 10:27:40.786563,-116.0
2023-08-21 10:27:40.794252,-114.0
2023-08-21 10:27:40.801941,-111.0
2023-08-21 10:27:40.809629,-111.0
2023-08-21 10:27:40.817318,-111.0
2023-08-21 10:27:40.825007,-109.0
2023-08-21 10:27:40.832696,-106.0
2023-08-21 10:27:40.840384,-106.0
2023-08-21 10:27:40.848073,-106.0
2023-08-21 10:27:40.855762,-104.0
2023-08-21 10:27:40.863450,-104.0
2023-08-21 10:27:40.871139,-102.0
2023-08-21 10:27:40.878828,-99.0
2023-08-21 10:27:40.886517,-94.0
2023-08-21 10:27:40.894205,-94.0
2023-08-21 10:27:40.901894,-97.0
2023-08-21 10:27:40.909583,-97.0
2023-08-21 10:27:40.917272,-82.0
2023-08-21 10:27:40.924960,-48.0
2023-08-21 10:27:40.932649,-21.0
2023-08-21 10:27:40.940338,-21.0
2023-08-21 10:27:40.948027,-36.0
2023-08-21 10:27:40.955715,-60.0
2023-08-21 10:27:40.963404,-92.0
2023-08-21 10:27:40.971093,-102.0
2023-08-21 10:27:40.978781,-97.0
2023-08-21 10:27:40.986470,-104.0
2023-08-21 10:27:40.994159,-114.0
2023-08-21 10:27:41.001848,-111.0
2023-08-21 10:27:41.009536,-109.0
2023-08-21 10:27:41.017225,-111.0
2023-08-21 10:27:41.024914,-119.0
2023-08-21 10:27:41.032603,-128.0
2023-08-21 10:27:41.040291,-19.0
2023-08-21 10:27:41.047980,388.0
2023-08-21 10:27:41.055669,981.0
2023-08-21 10:27:41.063357,1192.0
2023-08-21 10:27:41.071046,612.0
2023-08-21 10:27:41.078735,-189.0
2023-08-21 10:27:41.086424,-327.0
2023-08-21 10:27:41.094112,-94.0
2023-08-21 10:27:41.101801,-145.0
2023-08-21 10:27:41.109490,-240.0
2023-08-21 10:27:41.117179,-170.0
2023-08-21 10:27:41.124867,-148.0
2023-08-21 10:27:41.132556,-177.0
2023-08-21 10:27:41.140245,-153.0
2023-08-21 10:27:41.147934,-128.0
2023-08-21 10:27:41.155622,-131.0
2023-08-21 10:27:41.163311,-119.0
2023-08-21 10:27:41.171000,-102.0
2023-08-21 10:27:41.178688,-94.0
2023-08-21 10:27:41.186377,-85.0
2023-08-21 10:27:41.194066,-72.0
2023-08-21 10:27:41.201755,-60.0
2023-08-21 10:27:41.209443,-48.0
2023-08-21 10:27:41.217132,-38.0
2023-08-21 10:27:41.224821,-29.0
2023-08-21 10:27:41.232510,-17.0
2023-08-21 10:27:41.240198,-7.0
2023-08-21 10:27:41.247887,2.0
2023-08-21 10:27:41.255576,17.0
2023-08-21 10:27:41.263264,29.0
2023-08-21 10:27:41.270953,38.0
2023-08-21 10:27:41.278642,48.0
2023-08-21 10:27:41.286331,55.0
2023-08-21 10:27:41.294019,58.0
2023-08-21 10:27:41.301708,58.0
2023-08-21 10:27:41.309397,58.0
2023-08-21 10:27:41.317086,53.0
2023-08-21 10:27:41.324774,48.0
2023-08-21 10:27:41.332463,29.0
2023-08-21 10:27:41.340152,0.0
2023-08-21 10:27:41.347841,-38.0
2023-08-21 10:27:41.355529,-80.0
2023-08-21 10:27:41.363218,-109.0
2023-08-21 10:27:41.370907,-126.0
2023-08-21 10:27:41.378595,-143.0
2023-08-21 10:27:41.386284,-150.0
2023-08-21 10:27:41.393973,-155.0
2023-08-21 10:27:41.401662,-157.0
2023-08-21 10:27:41.409350,-153.0
2023-08-21 10:27:41.417039,-148.0
2023-08-21 10:27:41.424728,-145.0
2023-08-21 10:27:41.432417,-136.0
2023-08-21 10:27:41.440105,-128.0
2023-08-21 10:27:41.447794,-126.0
2023-08-21 10:27:41.455483,-128.0
2023-08-21 10:27:41.463171,-131.0
2023-08-21 10:27:41.470860,-126.0
2023-08-21 10:27:41.478549,-123.0
2023-08-21 10:27:41.486238,-126.0
2023-08-21 10:27:41.493926,-123.0
2023-08-21 10:27:41.501615,-119.0
2023-08-21 10:27:41.509304,-121.0
2023-08-21 10:27:41.516993,-126.0
2023-08-21 10:27:41.524681,-121.0
2023-08-21 10:27:41.532370,-119.0
2023-08-21 10:27:41.540059,-119.0
2023-08-21 10:27:41.547748,-119.0
2023-08-21 10:27:41.555436,-116.0
2023-08-21 10:27:41.563125,-114.0
2023-08-21 10:27:41.570814,-111.0
2023-08-21 10:27:41.578502,-109.0
2023-08-21 10:27:41.586191,-106.0
2023-08-21 10:27:41.593880,-106.0
2023-08-21 10:27:41.601569,-109.0
2023-08-21 10:27:41.609257,-109.0
2023-08-21 10:27:41.616946,-104.0
2023-08-21 10:27:41.624635,-104.0
2023-08-21 10:27:41.632324,-106.0
2023-08-21 10:27:41.640012,-102.0
2023-08-21 10:27:41.647701,-99.0
2023-08-21 10:27:41.655390,-99.0
2023-08-21 10:27:41.663078,-102.0
2023-08-21 10:27:41.670767,-97.0
2023-08-21 10:27:41.678456,-92.0
2023-08-21 10:27:41.686145,-94.0
2023-08-21 10:27:41.693833,-97.0
2023-08-21 10:27:41.701522,-77.0
2023-08-21 10:27:41.709211,-41.0
2023-08-21 10:27:41.716900,-26.0
2023-08-21 10:27:41.724588,-38.0
2023-08-21 10:27:41.732277,-51.0
2023-08-21 10:27:41.739966,-72.0
2023-08-21 10:27:41.747655,-106.0
2023-08-21 10:27:41.755343,-114.0
2023-08-21 10:27:41.763032,-104.0
2023-08-21 10:27:41.770721,-106.0
2023-08-21 10:27:41.778409,-111.0
2023-08-21 10:27:41.786098,-109.0
2023-08-21 10:27:41.793787,-111.0
2023-08-21 10:27:41.801476,-114.0
2023-08-21 10:27:41.809164,-126.0
2023-08-21 10:27:41.816853,-121.0
2023-08-21 10:27:41.824542,38.0
2023-08-21 10:27:41.832231,505.0
2023-08-21 10:27:41.839919,1066.0
2023-08-21 10:27:41.847608,1117.0
2023-08-21 10:27:41.855297,410.0
2023-08-21 10:27:41.862985,-296.0
2023-08-21 10:27:41.870674,-296.0
2023-08-21 10:27:41.878363,-99.0
2023-08-21 10:27:41.886052,-199.0
2023-08-21 10:27:41.893740,-257.0
2023-08-21 10:27:41.901429,-179.0
2023-08-21 10:27:41.909118,-177.0
2023-08-21 10:27:41.916807,-194.0
2023-08-21 10:27:41.924495,-162.0
2023-08-21 10:27:41.932184,-148.0
2023-08-21 10:27:41.939873,-153.0
2023-08-21 10:27:41.947562,-136.0
2023-08-21 10:27:41.955250,-123.0
2023-08-21 10:27:41.962939,-121.0
2023-08-21 10:27:41.970628,-114.0
2023-08-21 10:27:41.978316,-104.0
2023-08-21 10:27:41.986005,-97.0
2023-08-21 10:27:41.993694,-82.0
2023-08-21 10:27:42.001383,-65.0
2023-08-21 10:27:42.009071,-53.0
2023-08-21 10:27:42.016760,-41.0
2023-08-21 10:27:42.024449,-31.0
2023-08-21 10:27:42.032138,-14.0
2023-08-21 10:27:42.039826,0.0
2023-08-21 10:27:42.047515,12.0
2023-08-21 10:27:42.055204,21.0
2023-08-21 10:27:42.062892,31.0
2023-08-21 10:27:42.070581,36.0
2023-08-21 10:27:42.078270,38.0
2023-08-21 10:27:42.085959,38.0
2023-08-21 10:27:42.093647,41.0
2023-08-21 10:27:42.101336,36.0
2023-08-21 10:27:42.109025,24.0
2023-08-21 10:27:42.116714,4.0
2023-08-21 10:27:42.124402,-21.0
2023-08-21 10:27:42.132091,-48.0
2023-08-21 10:27:42.139780,-80.0
2023-08-21 10:27:42.147469,-106.0
2023-08-21 10:27:42.155157,-128.0
2023-08-21 10:27:42.162846,-143.0
2023-08-21 10:27:42.170535,-148.0
2023-08-21 10:27:42.178223,-140.0
2023-08-21 10:27:42.185912,-136.0
2023-08-21 10:27:42.193601,-131.0
2023-08-21 10:27:42.201290,-128.0
2023-08-21 10:27:42.208978,-128.0
2023-08-21 10:27:42.216667,-126.0
2023-08-21 10:27:42.224356,-121.0
2023-08-21 10:27:42.232045,-116.0
2023-08-21 10:27:42.239733,-111.0
2023-08-21 10:27:42.247422,-109.0
2023-08-21 10:27:42.255111,-114.0
2023-08-21 10:27:42.262799,-111.0
2023-08-21 10:27:42.270488,-109.0
2023-08-21 10:27:42.278177,-109.0
2023-08-21 10:27:42.285866,-109.0
2023-08-21 10:27:42.293554,-109.0
2023-08-21 10:27:42.301243,-111.0
2023-08-21 10:27:42.308932,-111.0
2023-08-21 10:27:42.316621,-106.0
2023-08-21 10:27:42.324309,-104.0
2023-08-21 10:27:42.331998,-104.0
2023-08-21 10:27:42.339687,-106.0
2023-08-21 10:27:42.347376,-104.0
2023-08-21 10:27:42.355064,-102.0
2023-08-21 10:27:42.362753,-102.0
2023-08-21 10:27:42.370442,-99.0
2023-08-21 10:27:42.378130,-99.0
2023-08-21 10:27:42.385819,-102.0
2023-08-21 10:27:42.393508,-104.0
2023-08-21 10:27:42.401197,-99.0
2023-08-21 10:27:42.408885,-97.0
2023-08-21 10:27:42.416574,-94.0
2023-08-21 10:27:42.424263,-97.0
2023-08-21 10:27:42.431952,-106.0
2023-08-21 10:27:42.439640,-114.0
2023-08-21 10:27:42.447329,-109.0
2023-08-21 10:27:42.455018,-106.0
2023-08-21 10:27:42.462706,-121.0
2023-08-21 10:27:42.470395,-128.0
2023-08-21 10:27:42.478084,-111.0
2023-08-21 10:27:42.485773,-75.0
2023-08-21 10:27:42.493461,-51.0
2023-08-21 10:27:42.501150,-51.0
2023-08-21 10:27:42.508839,-58.0
2023-08-21 10:27:42.516528,-82.0
2023-08-21 10:27:42.524216,-119.0
2023-08-21 10:27:42.531905,-128.0
2023-08-21 10:27:42.539594,-119.0
2023-08-21 10:27:42.547283,-119.0
2023-08-21 10:27:42.554971,-126.0
2023-08-21 10:27:42.562660,-123.0
2023-08-21 10:27:42.570349,-121.0
2023-08-21 10:27:42.578037,-123.0
2023-08-21 10:27:42.585726,-131.0
2023-08-21 10:27:42.593415,-119.0
2023-08-21 10:27:42.601104,55.0
2023-08-21 10:27:42.608792,553.0
2023-08-21 10:27:42.616481,1136.0
2023-08-21 10:27:42.624170,1161.0
2023-08-21 10:27:42.631859,391.0
2023-08-21 10:27:42.639547,-337.0
2023-08-21 10:27:42.647236,-296.0
2023-08-21 10:27:42.654925,-92.0
2023-08-21 10:27:42.662613,-213.0
2023-08-21 10:27:42.670302,-259.0
2023-08-21 10:27:42.677991,-172.0
2023-08-21 10:27:42.685680,-177.0
2023-08-21 10:27:42.693368,-196.0
2023-08-21 10:27:42.701057,-162.0
2023-08-21 10:27:42.708746,-150.0
2023-08-21 10:27:42.716435,-157.0
2023-08-21 10:27:42.724123,-143.0
2023-08-21 10:27:42.731812,-123.0
2023-08-21 10:27:42.739501,-119.0
2023-08-21 10:27:42.747190,-106.0
2023-08-21 10:27:42.754878,-94.0
2023-08-21 10:27:42.762567,-85.0
2023-08-21 10:27:42.770256,-72.0
2023-08-21 10:27:42.777944,-55.0
2023-08-21 10:27:42.785633,-43.0
2023-08-21 10:27:42.793322,-34.0
2023-08-21 10:27:42.801011,-19.0
2023-08-21 10:27:42.808699,-7.0
2023-08-21 10:27:42.816388,7.0
2023-08-21 10:27:42.824077,19.0
2023-08-21 10:27:42.831766,26.0
2023-08-21 10:27:42.839454,34.0
2023-08-21 10:27:42.847143,36.0
2023-08-21 10:27:42.854832,36.0
2023-08-21 10:27:42.862520,36.0
2023-08-21 10:27:42.870209,36.0
2023-08-21 10:27:42.877898,29.0
2023-08-21 10:27:42.885587,17.0
2023-08-21 10:27:42.893275,2.0
2023-08-21 10:27:42.900964,-24.0
2023-08-21 10:27:42.908653,-58.0
2023-08-21 10:27:42.916342,-89.0
2023-08-21 10:27:42.924030,-119.0
2023-08-21 10:27:42.931719,-138.0
2023-08-21 10:27:42.939408,-150.0
2023-08-21 10:27:42.947097,-155.0
2023-08-21 10:27:42.954785,-157.0
2023-08-21 10:27:42.962474,-157.0
2023-08-21 10:27:42.970163,-157.0
2023-08-21 10:27:42.977851,-157.0
2023-08-21 10:27:42.985540,-153.0
2023-08-21 10:27:42.993229,-143.0
2023-08-21 10:27:43.000918,-136.0
2023-08-21 10:27:43.008606,-131.0
2023-08-21 10:27:43.016295,-126.0
2023-08-21 10:27:43.023984,-123.0
2023-08-21 10:27:43.031673,-119.0
2023-08-21 10:27:43.039361,-119.0
2023-08-21 10:27:43.047050,-119.0
2023-08-21 10:27:43.054739,-121.0
2023-08-21 10:27:43.062428,-131.0
2023-08-21 10:27:43.070116,-138.0
2023-08-21 10:27:43.077805,-133.0
2023-08-21 10:27:43.085494,-133.0
2023-08-21 10:27:43.093182,-133.0
2023-08-21 10:27:43.100871,-131.0
2023-08-21 10:27:43.108560,-131.0
2023-08-21 10:27:43.116249,-131.0
2023-08-21 10:27:43.123937,-128.0
2023-08-21 10:27:43.131626,-126.0
2023-08-21 10:27:43.139315,-123.0
2023-08-21 10:27:43.147004,-121.0
2023-08-21 10:27:43.154692,-121.0
2023-08-21 10:27:43.162381,-119.0
2023-08-21 10:27:43.170070,-116.0
2023-08-21 10:27:43.177758,-116.0
2023-08-21 10:27:43.185447,-114.0
2023-08-21 10:27:43.193136,-114.0
2023-08-21 10:27:43.200825,-119.0
2023-08-21 10:27:43.208513,-123.0
2023-08-21 10:27:43.216202,-123.0
2023-08-21 10:27:43.223891,-123.0
2023-08-21 10:27:43.231580,-109.0
2023-08-21 10:27:43.239268,-80.0
2023-08-21 10:27:43.246957,-53.0
2023-08-21 10:27:43.254646,-51.0
2023-08-21 10:27:43.262335,-58.0
2023-08-21 10:27:43.270023,-77.0
2023-08-21 10:27:43.277712,-109.0
2023-08-21 10:27:43.285401,-119.0
2023-08-21 10:27:43.293089,-111.0
2023-08-21 10:27:43.300778,-109.0
2023-08-21 10:27:43.308467,-114.0
2023-08-21 10:27:43.316156,-111.0
2023-08-21 10:27:43.323844,-111.0
2023-08-21 10:27:43.331533,-116.0
2023-08-21 10:27:43.339222,-133.0
2023-08-21 10:27:43.346911,-119.0
2023-08-21 10:27:43.354599,72.0
2023-08-21 10:27:43.362288,570.0
2023-08-21 10:27:43.369977,1102.0
2023-08-21 10:27:43.377665,1061.0
2023-08-21 10:27:43.385354,291.0
2023-08-21 10:27:43.393043,-354.0
2023-08-21 10:27:43.400732,-274.0
2023-08-21 10:27:43.408420,-102.0
2023-08-21 10:27:43.416109,-225.0
2023-08-21 10:27:43.423798,-257.0
2023-08-21 10:27:43.431487,-177.0
2023-08-21 10:27:43.439175,-187.0
2023-08-21 10:27:43.446864,-204.0
2023-08-21 10:27:43.454553,-174.0
2023-08-21 10:27:43.462242,-165.0
2023-08-21 10:27:43.469930,-167.0
2023-08-21 10:27:43.477619,-157.0
2023-08-21 10:27:43.485308,-148.0
2023-08-21 10:27:43.492996,-140.0
2023-08-21 10:27:43.500685,-128.0
2023-08-21 10:27:43.508374,-126.0
2023-08-21 10:27:43.516063,-126.0
2023-08-21 10:27:43.523751,-111.0
2023-08-21 10:27:43.531440,-89.0
2023-08-21 10:27:43.539129,-77.0
2023-08-21 10:27:43.546818,-68.0
2023-08-21 10:27:43.554506,-53.0
2023-08-21 10:27:43.562195,-38.0
2023-08-21 10:27:43.569884,-24.0
2023-08-21 10:27:43.577572,-9.0
2023-08-21 10:27:43.585261,0.0
2023-08-21 10:27:43.592950,7.0
2023-08-21 10:27:43.600639,12.0
2023-08-21 10:27:43.608327,14.0
2023-08-21 10:27:43.616016,14.0
2023-08-21 10:27:43.623705,19.0
2023-08-21 10:27:43.631394,19.0
2023-08-21 10:27:43.639082,9.0
2023-08-21 10:27:43.646771,-12.0
2023-08-21 10:27:43.654460,-41.0
2023-08-21 10:27:43.662149,-68.0
2023-08-21 10:27:43.669837,-97.0
2023-08-21 10:27:43.677526,-123.0
2023-08-21 10:27:43.685215,-143.0
2023-08-21 10:27:43.692903,-155.0
2023-08-21 10:27:43.700592,-160.0
2023-08-21 10:27:43.708281,-157.0
2023-08-21 10:27:43.715970,-150.0
2023-08-21 10:27:43.723658,-145.0
2023-08-21 10:27:43.731347,-140.0
2023-08-21 10:27:43.739036,-136.0
2023-08-21 10:27:43.746725,-126.0
2023-08-21 10:27:43.754413,-121.0
2023-08-21 10:27:43.762102,-116.0
2023-08-21 10:27:43.769791,-114.0
2023-08-21 10:27:43.777479,-114.0
2023-08-21 10:27:43.785168,-114.0
2023-08-21 10:27:43.792857,-109.0
2023-08-21 10:27:43.800546,-106.0
2023-08-21 10:27:43.808234,-106.0
2023-08-21 10:27:43.815923,-106.0
2023-08-21 10:27:43.823612,-109.0
2023-08-21 10:27:43.831301,-109.0
2023-08-21 10:27:43.838989,-106.0
2023-08-21 10:27:43.846678,-102.0
2023-08-21 10:27:43.854367,-99.0
2023-08-21 10:27:43.862056,-99.0
2023-08-21 10:27:43.869744,-102.0
2023-08-21 10:27:43.877433,-102.0
2023-08-21 10:27:43.885122,-97.0
2023-08-21 10:27:43.892810,-92.0
2023-08-21 10:27:43.900499,-89.0
2023-08-21 10:27:43.908188,-87.0
2023-08-21 10:27:43.915877,-87.0
2023-08-21 10:27:43.923565,-85.0
2023-08-21 10:27:43.931254,-82.0
2023-08-21 10:27:43.938943,-80.0
2023-08-21 10:27:43.946632,-82.0
2023-08-21 10:27:43.954320,-82.0
2023-08-21 10:27:43.962009,-80.0
2023-08-21 10:27:43.969698,-77.0
2023-08-21 10:27:43.977386,-77.0
2023-08-21 10:27:43.985075,-85.0
2023-08-21 10:27:43.992764,-94.0
2023-08-21 10:27:44.000453,-97.0
2023-08-21 10:27:44.008141,-92.0
2023-08-21 10:27:44.015830,-72.0
2023-08-21 10:27:44.023519,-38.0
2023-08-21 10:27:44.031208,-24.0
2023-08-21 10:27:44.038896,-31.0
2023-08-21 10:27:44.046585,-41.0
2023-08-21 10:27:44.054274,-72.0
2023-08-21 10:27:44.061963,-97.0
2023-08-21 10:27:44.069651,-92.0
2023-08-21 10:27:44.077340,-87.0
2023-08-21 10:27:44.085029,-92.0
2023-08-21 10:27:44.092717,-94.0
2023-08-21 10:27:44.100406,-94.0
2023-08-21 10:27:44.108095,-94.0
2023-08-21 10:27:44.115784,-104.0
2023-08-21 10:27:44.123472,-121.0
2023-08-21 10:27:44.131161,-75.0
2023-08-21 10:27:44.138850,204.0
2023-08-21 10:27:44.146539,750.0
2023-08-21 10:27:44.154227,1158.0
2023-08-21 10:27:44.161916,857.0
2023-08-21 10:27:44.169605,24.0
2023-08-21 10:27:44.177293,-388.0
2023-08-21 10:27:44.184982,-189.0
2023-08-21 10:27:44.192671,-126.0
2023-08-21 10:27:44.200360,-259.0
2023-08-21 10:27:44.208048,-228.0
2023-08-21 10:27:44.215737,-170.0
2023-08-21 10:27:44.223426,-201.0
2023-08-21 10:27:44.231115,-199.0
2023-08-21 10:27:44.238803,-165.0
2023-08-21 10:27:44.246492,-162.0
2023-08-21 10:27:44.254181,-157.0
2023-08-21 10:27:44.261870,-140.0
2023-08-21 10:27:44.269558,-133.0
2023-08-21 10:27:44.277247,-138.0
2023-08-21 10:27:44.284936,-133.0
2023-08-21 10:27:44.292624,-116.0
2023-08-21 10:27:44.300313,-104.0
2023-08-21 10:27:44.308002,-92.0
2023-08-21 10:27:44.315691,-82.0
2023-08-21 10:27:44.323379,-72.0
2023-08-21 10:27:44.331068,-63.0
2023-08-21 10:27:44.338757,-48.0
2023-08-21 10:27:44.346446,-36.0
2023-08-21 10:27:44.354134,-21.0
2023-08-21 10:27:44.361823,-12.0
2023-08-21 10:27:44.369512,-4.0
2023-08-21 10:27:44.377200,0.0
2023-08-21 10:27:44.384889,4.0
2023-08-21 10:27:44.392578,9.0
2023-08-21 10:27:44.400267,9.0
2023-08-21 10:27:44.407955,7.0
2023-08-21 10:27:44.415644,2.0
2023-08-21 10:27:44.423333,-4.0
2023-08-21 10:27:44.431022,-26.0
2023-08-21 10:27:44.438710,-58.0
2023-08-21 10:27:44.446399,-92.0
2023-08-21 10:27:44.454088,-121.0
2023-08-21 10:27:44.461777,-148.0
2023-08-21 10:27:44.469465,-167.0
2023-08-21 10:27:44.477154,-172.0
2023-08-21 10:27:44.484843,-172.0
2023-08-21 10:27:44.492531,-174.0
2023-08-21 10:27:44.500220,-177.0
2023-08-21 10:27:44.507909,-172.0
2023-08-21 10:27:44.515598,-165.0
2023-08-21 10:27:44.523286,-157.0
2023-08-21 10:27:44.530975,-153.0
2023-08-21 10:27:44.538664,-148.0
2023-08-21 10:27:44.546353,-148.0
2023-08-21 10:27:44.554041,-145.0
2023-08-21 10:27:44.561730,-143.0
2023-08-21 10:27:44.569419,-140.0
2023-08-21 10:27:44.577107,-138.0
2023-08-21 10:27:44.584796,-136.0
2023-08-21 10:27:44.592485,-138.0
2023-08-21 10:27:44.600174,-143.0
2023-08-21 10:27:44.607862,-145.0
2023-08-21 10:27:44.615551,-138.0
2023-08-21 10:27:44.623240,-133.0
2023-08-21 10:27:44.630929,-136.0
2023-08-21 10:27:44.638617,-133.0
2023-08-21 10:27:44.646306,-133.0
2023-08-21 10:27:44.653995,-133.0
2023-08-21 10:27:44.661684,-128.0
2023-08-21 10:27:44.669372,-123.0
2023-08-21 10:27:44.677061,-121.0
2023-08-21 10:27:44.684750,-123.0
2023-08-21 10:27:44.692438,-123.0
2023-08-21 10:27:44.700127,-123.0
2023-08-21 10:27:44.707816,-119.0
2023-08-21 10:27:44.715505,-119.0
2023-08-21 10:27:44.723193,-123.0
2023-08-21 10:27:44.730882,-128.0
2023-08-21 10:27:44.738571,-126.0
2023-08-21 10:27:44.746260,-121.0
2023-08-21 10:27:44.753948,-119.0
2023-08-21 10:27:44.761637,-119.0
2023-08-21 10:27:44.769326,-119.0
2023-08-21 10:27:44.777014,-119.0
2023-08-21 10:27:44.784703,-121.0
2023-08-21 10:27:44.792392,-119.0
2023-08-21 10:27:44.800081,-92.0
2023-08-21 10:27:44.807769,-55.0
2023-08-21 10:27:44.815458,-48.0
2023-08-21 10:27:44.823147,-55.0
2023-08-21 10:27:44.830836,-63.0
2023-08-21 10:27:44.838524,-92.0
2023-08-21 10:27:44.846213,-116.0
2023-08-21 10:27:44.853902,-111.0
2023-08-21 10:27:44.861591,-106.0
2023-08-21 10:27:44.869279,-109.0
2023-08-21 10:27:44.876968,-106.0
2023-08-21 10:27:44.884657,-109.0
2023-08-21 10:27:44.892345,-111.0
2023-08-21 10:27:44.900034,-119.0
2023-08-21 10:27:44.907723,-133.0
2023-08-21 10:27:44.915412,-80.0
2023-08-21 10:27:44.923100,201.0
2023-08-21 10:27:44.930789,750.0
2023-08-21 10:27:44.938478,1151.0
2023-08-21 10:27:44.946167,847.0
2023-08-21 10:27:44.953855,12.0
2023-08-21 10:27:44.961544,-393.0
2023-08-21 10:27:44.969233,-184.0
2023-08-21 10:27:44.976921,-119.0
2023-08-21 10:27:44.984610,-252.0
2023-08-21 10:27:44.992299,-221.0
2023-08-21 10:27:44.999988,-167.0
2023-08-21 10:27:45.007676,-204.0
2023-08-21 10:27:45.015365,-199.0
2023-08-21 10:27:45.023054,-162.0
2023-08-21 10:27:45.030743,-160.0
2023-08-21 10:27:45.038431,-157.0
2023-08-21 10:27:45.046120,-138.0
2023-08-21 10:27:45.053809,-128.0
2023-08-21 10:27:45.061498,-121.0
2023-08-21 10:27:45.069186,-106.0
2023-08-21 10:27:45.076875,-92.0
2023-08-21 10:27:45.084564,-82.0
2023-08-21 10:27:45.092252,-70.0
2023-08-21 10:27:45.099941,-55.0
2023-08-21 10:27:45.107630,-46.0
2023-08-21 10:27:45.115319,-34.0
2023-08-21 10:27:45.123007,-21.0
2023-08-21 10:27:45.130696,-12.0
2023-08-21 10:27:45.138385,0.0
2023-08-21 10:27:45.146074,14.0
2023-08-21 10:27:45.153762,24.0
2023-08-21 10:27:45.161451,26.0
2023-08-21 10:27:45.169140,29.0
2023-08-21 10:27:45.176828,26.0
2023-08-21 10:27:45.184517,24.0
2023-08-21 10:27:45.192206,26.0
2023-08-21 10:27:45.199895,26.0
2023-08-21 10:27:45.207583,12.0
2023-08-21 10:27:45.215272,-12.0
2023-08-21 10:27:45.222961,-48.0
2023-08-21 10:27:45.230650,-82.0
2023-08-21 10:27:45.238338,-106.0
2023-08-21 10:27:45.246027,-131.0
2023-08-21 10:27:45.253716,-150.0
2023-08-21 10:27:45.261405,-165.0
2023-08-21 10:27:45.269093,-177.0
2023-08-21 10:27:45.276782,-174.0
2023-08-21 10:27:45.284471,-165.0
2023-08-21 10:27:45.292159,-160.0
2023-08-21 10:27:45.299848,-155.0
2023-08-21 10:27:45.307537,-150.0
2023-08-21 10:27:45.315226,-148.0
2023-08-21 10:27:45.322914,-143.0
2023-08-21 10:27:45.330603,-138.0
2023-08-21 10:27:45.338292,-133.0
2023-08-21 10:27:45.345981,-133.0
2023-08-21 10:27:45.353669,-133.0
2023-08-21 10:27:45.361358,-131.0
2023-08-21 10:27:45.369047,-131.0
2023-08-21 10:27:45.376735,-126.0
2023-08-21 10:27:45.384424,-123.0
2023-08-21 10:27:45.392113,-128.0
2023-08-21 10:27:45.399802,-128.0
2023-08-21 10:27:45.407490,-123.0
2023-08-21 10:27:45.415179,-123.0
2023-08-21 10:27:45.422868,-128.0
2023-08-21 10:27:45.430557,-131.0
2023-08-21 10:27:45.438245,-128.0
2023-08-21 10:27:45.445934,-126.0
2023-08-21 10:27:45.453623,-123.0
2023-08-21 10:27:45.461312,-121.0
2023-08-21 10:27:45.469000,-116.0
2023-08-21 10:27:45.476689,-114.0
2023-08-21 10:27:45.484378,-114.0
2023-08-21 10:27:45.492066,-114.0
2023-08-21 10:27:45.499755,-116.0
2023-08-21 10:27:45.507444,-119.0
2023-08-21 10:27:45.515133,-116.0
2023-08-21 10:27:45.522821,-109.0
2023-08-21 10:27:45.530510,-111.0
2023-08-21 10:27:45.538199,-116.0
2023-08-21 10:27:45.545888,-116.0
2023-08-21 10:27:45.553576,-119.0
2023-08-21 10:27:45.561265,-119.0
2023-08-21 10:27:45.568954,-97.0
2023-08-21 10:27:45.576642,-63.0
2023-08-21 10:27:45.584331,-48.0
2023-08-21 10:27:45.592020,-48.0
2023-08-21 10:27:45.599709,-53.0
2023-08-21 10:27:45.607397,-80.0
2023-08-21 10:27:45.615086,-106.0
2023-08-21 10:27:45.622775,-109.0
2023-08-21 10:27:45.630464,-102.0
2023-08-21 10:27:45.638152,-102.0
2023-08-21 10:27:45.645841,-102.0
2023-08-21 10:27:45.653530,-99.0
2023-08-21 10:27:45.661219,-102.0
2023-08-21 10:27:45.668907,-114.0
2023-08-21 10:27:45.676596,-128.0
2023-08-21 10:27:45.684285,-82.0
2023-08-21 10:27:45.691973,189.0
2023-08-21 10:27:45.699662,755.0
2023-08-21 10:27:45.707351,1226.0
2023-08-21 10:27:45.715040,974.0
2023-08-21 10:27:45.722728,94.0
2023-08-21 10:27:45.730417,-403.0
2023-08-21 10:27:45.738106,-204.0
2023-08-21 10:27:45.745795,-102.0
2023-08-21 10:27:45.753483,-250.0
2023-08-21 10:27:45.761172,-233.0
2023-08-21 10:27:45.768861,-165.0
2023-08-21 10:27:45.776550,-194.0
2023-08-21 10:27:45.784238,-194.0
2023-08-21 10:27:45.791927,-157.0
2023-08-21 10:27:45.799616,-157.0
2023-08-21 10:27:45.807304,-165.0
2023-08-21 10:27:45.814993,-153.0
2023-08-21 10:27:45.822682,-136.0
2023-08-21 10:27:45.830371,-128.0
2023-08-21 10:27:45.838059,-116.0
2023-08-21 10:27:45.845748,-106.0
2023-08-21 10:27:45.853437,-109.0
2023-08-21 10:27:45.861126,-102.0
2023-08-21 10:27:45.868814,-82.0
2023-08-21 10:27:45.876503,-68.0
2023-08-21 10:27:45.884192,-58.0
2023-08-21 10:27:45.891880,-51.0
2023-08-21 10:27:45.899569,-48.0
2023-08-21 10:27:45.907258,-41.0
2023-08-21 10:27:45.914947,-26.0
2023-08-21 10:27:45.922635,-19.0
2023-08-21 10:27:45.930324,-12.0
2023-08-21 10:27:45.938013,-7.0
2023-08-21 10:27:45.945702,-7.0
2023-08-21 10:27:45.953390,-7.0
2023-08-21 10:27:45.961079,-7.0
2023-08-21 10:27:45.968768,-9.0
2023-08-21 10:27:45.976457,-14.0
2023-08-21 10:27:45.984145,-34.0
2023-08-21 10:27:45.991834,-63.0
2023-08-21 10:27:45.999523,-94.0
2023-08-21 10:27:46.007211,-126.0
2023-08-21 10:27:46.014900,-153.0
2023-08-21 10:27:46.022589,-165.0
2023-08-21 10:27:46.030278,-177.0
2023-08-21 10:27:46.037966,-179.0
2023-08-21 10:27:46.045655,-174.0
2023-08-21 10:27:46.053344,-167.0
2023-08-21 10:27:46.061033,-160.0
2023-08-21 10:27:46.068721,-153.0
2023-08-21 10:27:46.076410,-150.0
2023-08-21 10:27:46.084099,-145.0
2023-08-21 10:27:46.091787,-138.0
2023-08-21 10:27:46.099476,-133.0
2023-08-21 10:27:46.107165,-131.0
2023-08-21 10:27:46.114854,-128.0
2023-08-21 10:27:46.122542,-128.0
2023-08-21 10:27:46.130231,-128.0
2023-08-21 10:27:46.137920,-126.0
2023-08-21 10:27:46.145609,-123.0
2023-08-21 10:27:46.153297,-126.0
2023-08-21 10:27:46.160986,-131.0
2023-08-21 10:27:46.168675,-136.0
2023-08-21 10:27:46.176364,-133.0
2023-08-21 10:27:46.184052,-128.0
2023-08-21 10:27:46.191741,-126.0
2023-08-21 10:27:46.199430,-123.0
2023-08-21 10:27:46.207118,-123.0
2023-08-21 10:27:46.214807,-123.0
2023-08-21 10:27:46.222496,-121.0
2023-08-21 10:27:46.230185,-116.0
2023-08-21 10:27:46.237873,-114.0
2023-08-21 10:27:46.245562,-109.0
2023-08-21 10:27:46.253251,-106.0
2023-08-21 10:27:46.260940,-109.0
2023-08-21 10:27:46.268628,-106.0
2023-08-21 10:27:46.276317,-102.0
2023-08-21 10:27:46.284006,-99.0
2023-08-21 10:27:46.291694,-102.0
2023-08-21 10:27:46.299383,-102.0
2023-08-21 10:27:46.307072,-102.0
2023-08-21 10:27:46.314761,-89.0
2023-08-21 10:27:46.322449,-60.0
2023-08-21 10:27:46.330138,-36.0
2023-08-21 10:27:46.337827,-36.0
2023-08-21 10:27:46.345516,-53.0
2023-08-21 10:27:46.353204,-82.0
2023-08-21 10:27:46.360893,-109.0
2023-08-21 10:27:46.368582,-111.0
2023-08-21 10:27:46.376271,-104.0
2023-08-21 10:27:46.383959,-104.0
2023-08-21 10:27:46.391648,-109.0
2023-08-21 10:27:46.399337,-106.0
2023-08-21 10:27:46.407025,-106.0
2023-08-21 10:27:46.414714,-114.0
2023-08-21 10:27:46.422403,-126.0
2023-08-21 10:27:46.430092,-106.0
2023-08-21 10:27:46.437780,99.0
2023-08-21 10:27:46.445469,609.0
2023-08-21 10:27:46.453158,1124.0
2023-08-21 10:27:46.460847,1042.0
2023-08-21 10:27:46.468535,259.0
2023-08-21 10:27:46.476224,-354.0
2023-08-21 10:27:46.483913,-250.0
2023-08-21 10:27:46.491601,-89.0
2023-08-21 10:27:46.499290,-221.0
2023-08-21 10:27:46.506979,-245.0
2023-08-21 10:27:46.514668,-174.0
2023-08-21 10:27:46.522356,-194.0
2023-08-21 10:27:46.530045,-206.0
2023-08-21 10:27:46.537734,-170.0
2023-08-21 10:27:46.545423,-160.0
2023-08-21 10:27:46.553111,-157.0
2023-08-21 10:27:46.560800,-140.0
2023-08-21 10:27:46.568489,-128.0
2023-08-21 10:27:46.576178,-121.0
2023-08-21 10:27:46.583866,-109.0
2023-08-21 10:27:46.591555,-94.0
2023-08-21 10:27:46.599244,-85.0
2023-08-21 10:27:46.606932,-72.0
2023-08-21 10:27:46.614621,-60.0
2023-08-21 10:27:46.622310,-48.0
2023-08-21 10:27:46.629999,-36.0
2023-08-21 10:27:46.637687,-21.0
2023-08-21 10:27:46.645376,-12.0
2023-08-21 10:27:46.653065,-4.0
2023-08-21 10:27:46.660754,2.0
2023-08-21 10:27:46.668442,14.0
2023-08-21 10:27:46.676131,24.0
2023-08-21 10:27:46.683820,24.0
2023-08-21 10:27:46.691508,26.0
2023-08-21 10:27:46.699197,29.0
2023-08-21 10:27:46.706886,26.0
2023-08-21 10:27:46.714575,24.0
2023-08-21 10:27:46.722263,17.0
2023-08-21 10:27:46.729952,-2.0
2023-08-21 10:27:46.737641,-29.0
2023-08-21 10:27:46.745330,-58.0
2023-08-21 10:27:46.753018,-89.0
2023-08-21 10:27:46.760707,-111.0
2023-08-21 10:27:46.768396,-128.0
2023-08-21 10:27:46.776085,-138.0
2023-08-21 10:27:46.783773,-140.0
2023-08-21 10:27:46.791462,-136.0
2023-08-21 10:27:46.799151,-133.0
2023-08-21 10:27:46.806839,-128.0
2023-08-21 10:27:46.814528,-121.0
2023-08-21 10:27:46.822217,-116.0
2023-08-21 10:27:46.829906,-111.0
2023-08-21 10:27:46.837594,-109.0
2023-08-21 10:27:46.845283,-109.0
2023-08-21 10:27:46.852972,-106.0
2023-08-21 10:27:46.860661,-104.0
2023-08-21 10:27:46.868349,-104.0
2023-08-21 10:27:46.876038,-104.0
2023-08-21 10:27:46.883727,-111.0
2023-08-21 10:27:46.891415,-123.0
2023-08-21 10:27:46.899104,-126.0
2023-08-21 10:27:46.906793,-126.0
2023-08-21 10:27:46.914482,-126.0
2023-08-21 10:27:46.922170,-126.0
2023-08-21 10:27:46.929859,-131.0
2023-08-21 10:27:46.937548,-138.0
2023-08-21 10:27:46.945237,-133.0
2023-08-21 10:27:46.952925,-128.0
2023-08-21 10:27:46.960614,-128.0
2023-08-21 10:27:46.968303,-128.0
2023-08-21 10:27:46.975992,-133.0
2023-08-21 10:27:46.983680,-136.0
2023-08-21 10:27:46.991369,-128.0
2023-08-21 10:27:46.999058,-126.0
2023-08-21 10:27:47.006746,-123.0
2023-08-21 10:27:47.014435,-123.0
2023-08-21 10:27:47.022124,-128.0
2023-08-21 10:27:47.029813,-126.0
2023-08-21 10:27:47.037501,-119.0
2023-08-21 10:27:47.045190,-114.0
2023-08-21 10:27:47.052879,-116.0
2023-08-21 10:27:47.060568,-116.0
2023-08-21 10:27:47.068256,-109.0
2023-08-21 10:27:47.075945,-80.0
2023-08-21 10:27:47.083634,-51.0
2023-08-21 10:27:47.091322,-43.0
2023-08-21 10:27:47.099011,-51.0
2023-08-21 10:27:47.106700,-65.0
2023-08-21 10:27:47.114389,-94.0
2023-08-21 10:27:47.122077,-111.0
2023-08-21 10:27:47.129766,-102.0
2023-08-21 10:27:47.137455,-99.0
2023-08-21 10:27:47.145144,-106.0
2023-08-21 10:27:47.152832,-109.0
2023-08-21 10:27:47.160521,-104.0
2023-08-21 10:27:47.168210,-102.0
2023-08-21 10:27:47.175899,-111.0
2023-08-21 10:27:47.183587,-119.0
2023-08-21 10:27:47.191276,-9.0
2023-08-21 10:27:47.198965,388.0
2023-08-21 10:27:47.206653,961.0
2023-08-21 10:27:47.214342,1166.0
2023-08-21 10:27:47.222031,597.0
2023-08-21 10:27:47.229720,-196.0
2023-08-21 10:27:47.237408,-340.0
2023-08-21 10:27:47.245097,-106.0
2023-08-21 10:27:47.252786,-153.0
2023-08-21 10:27:47.260475,-250.0
2023-08-21 10:27:47.268163,-179.0
2023-08-21 10:27:47.275852,-157.0
2023-08-21 10:27:47.283541,-187.0
2023-08-21 10:27:47.291229,-165.0
2023-08-21 10:27:47.298918,-140.0
2023-08-21 10:27:47.306607,-140.0
2023-08-21 10:27:47.314296,-131.0
2023-08-21 10:27:47.321984,-114.0
2023-08-21 10:27:47.329673,-106.0
2023-08-21 10:27:47.337362,-99.0
2023-08-21 10:27:47.345051,-85.0
2023-08-21 10:27:47.352739,-70.0
2023-08-21 10:27:47.360428,-58.0
2023-08-21 10:27:47.368117,-46.0
2023-08-21 10:27:47.375806,-36.0
2023-08-21 10:27:47.383494,-29.0
2023-08-21 10:27:47.391183,-19.0
2023-08-21 10:27:47.398872,-9.0
2023-08-21 10:27:47.406560,2.0
2023-08-21 10:27:47.414249,14.0
2023-08-21 10:27:47.421938,21.0
2023-08-21 10:27:47.429627,26.0
2023-08-21 10:27:47.437315,34.0
2023-08-21 10:27:47.445004,38.0
2023-08-21 10:27:47.452693,36.0
2023-08-21 10:27:47.460382,34.0
2023-08-21 10:27:47.468070,26.0
2023-08-21 10:27:47.475759,12.0
2023-08-21 10:27:47.483448,-2.0
2023-08-21 10:27:47.491136,-19.0
2023-08-21 10:27:47.498825,-48.0
2023-08-21 10:27:47.506514,-80.0
2023-08-21 10:27:47.514203,-106.0
2023-08-21 10:27:47.521891,-133.0
2023-08-21 10:27:47.529580,-153.0
2023-08-21 10:27:47.537269,-153.0
2023-08-21 10:27:47.544958,-148.0
2023-08-21 10:27:47.552646,-148.0
2023-08-21 10:27:47.560335,-153.0
2023-08-21 10:27:47.568024,-155.0
2023-08-21 10:27:47.575713,-143.0
2023-08-21 10:27:47.583401,-133.0
2023-08-21 10:27:47.591090,-128.0
2023-08-21 10:27:47.598779,-123.0
2023-08-21 10:27:47.606467,-123.0
2023-08-21 10:27:47.614156,-123.0
2023-08-21 10:27:47.621845,-119.0
2023-08-21 10:27:47.629534,-116.0
2023-08-21 10:27:47.637222,-119.0
2023-08-21 10:27:47.644911,-123.0
2023-08-21 10:27:47.652600,-126.0
2023-08-21 10:27:47.660289,-123.0
2023-08-21 10:27:47.667977,-121.0
2023-08-21 10:27:47.675666,-119.0
2023-08-21 10:27:47.683355,-116.0
2023-08-21 10:27:47.691043,-116.0
2023-08-21 10:27:47.698732,-116.0
2023-08-21 10:27:47.706421,-111.0
2023-08-21 10:27:47.714110,-106.0
2023-08-21 10:27:47.721798,-106.0
2023-08-21 10:27:47.729487,-104.0
2023-08-21 10:27:47.737176,-102.0
2023-08-21 10:27:47.744865,-97.0
2023-08-21 10:27:47.752553,-97.0
2023-08-21 10:27:47.760242,-92.0
