time,ECG
2023-08-15 17:50:09.008761,28.0
2023-08-15 17:50:09.016451,259.0
2023-08-15 17:50:09.024140,549.0
2023-08-15 17:50:09.031830,535.0
2023-08-15 17:50:09.039520,45.0
2023-08-15 17:50:09.047209,-492.0
2023-08-15 17:50:09.054899,-530.0
2023-08-15 17:50:09.062588,-190.0
2023-08-15 17:50:09.070278,-14.0
2023-08-15 17:50:09.077968,-52.0
2023-08-15 17:50:09.085657,-42.0
2023-08-15 17:50:09.093347,-4.0
2023-08-15 17:50:09.101036,-14.0
2023-08-15 17:50:09.108726,-19.0
2023-08-15 17:50:09.116416,-4.0
2023-08-15 17:50:09.124105,4.0
2023-08-15 17:50:09.131795,9.0
2023-08-15 17:50:09.139485,23.0
2023-08-15 17:50:09.147174,38.0
2023-08-15 17:50:09.154864,47.0
2023-08-15 17:50:09.162553,59.0
2023-08-15 17:50:09.170243,78.0
2023-08-15 17:50:09.177933,95.0
2023-08-15 17:50:09.185622,107.0
2023-08-15 17:50:09.193312,126.0
2023-08-15 17:50:09.201001,147.0
2023-08-15 17:50:09.208691,166.0
2023-08-15 17:50:09.216381,180.0
2023-08-15 17:50:09.224070,192.0
2023-08-15 17:50:09.231760,202.0
2023-08-15 17:50:09.239450,204.0
2023-08-15 17:50:09.247139,195.0
2023-08-15 17:50:09.254829,173.0
2023-08-15 17:50:09.262518,140.0
2023-08-15 17:50:09.270208,88.0
2023-08-15 17:50:09.277898,30.0
2023-08-15 17:50:09.285587,-21.0
2023-08-15 17:50:09.293277,-66.0
2023-08-15 17:50:09.300966,-99.0
2023-08-15 17:50:09.308656,-119.0
2023-08-15 17:50:09.316346,-130.0
2023-08-15 17:50:09.324035,-135.0
2023-08-15 17:50:09.331725,-135.0
2023-08-15 17:50:09.339415,-133.0
2023-08-15 17:50:09.347104,-130.0
2023-08-15 17:50:09.354794,-128.0
2023-08-15 17:50:09.362483,-123.0
2023-08-15 17:50:09.370173,-116.0
2023-08-15 17:50:09.377863,-111.0
2023-08-15 17:50:09.385552,-107.0
2023-08-15 17:50:09.393242,-99.0
2023-08-15 17:50:09.400931,-97.0
2023-08-15 17:50:09.408621,-97.0
2023-08-15 17:50:09.416311,-97.0
2023-08-15 17:50:09.424000,-95.0
2023-08-15 17:50:09.431690,-90.0
2023-08-15 17:50:09.439380,-88.0
2023-08-15 17:50:09.447069,-83.0
2023-08-15 17:50:09.454759,-78.0
2023-08-15 17:50:09.462448,-76.0
2023-08-15 17:50:09.470138,-76.0
2023-08-15 17:50:09.477828,-76.0
2023-08-15 17:50:09.485517,-73.0
2023-08-15 17:50:09.493207,-73.0
2023-08-15 17:50:09.500896,-73.0
2023-08-15 17:50:09.508586,-76.0
2023-08-15 17:50:09.516276,-85.0
2023-08-15 17:50:09.523965,-90.0
2023-08-15 17:50:09.531655,-85.0
2023-08-15 17:50:09.539345,-85.0
2023-08-15 17:50:09.547034,-90.0
2023-08-15 17:50:09.554724,-90.0
2023-08-15 17:50:09.562413,-85.0
2023-08-15 17:50:09.570103,-80.0
2023-08-15 17:50:09.577793,-78.0
2023-08-15 17:50:09.585482,-76.0
2023-08-15 17:50:09.593172,-73.0
2023-08-15 17:50:09.600861,-66.0
2023-08-15 17:50:09.608551,-57.0
2023-08-15 17:50:09.616241,-54.0
2023-08-15 17:50:09.623930,-42.0
2023-08-15 17:50:09.631620,-23.0
2023-08-15 17:50:09.639310,-19.0
2023-08-15 17:50:09.646999,-28.0
2023-08-15 17:50:09.654689,-47.0
2023-08-15 17:50:09.662378,-66.0
2023-08-15 17:50:09.670068,-69.0
2023-08-15 17:50:09.677758,-64.0
2023-08-15 17:50:09.685447,-64.0
2023-08-15 17:50:09.693137,-64.0
2023-08-15 17:50:09.700826,-33.0
2023-08-15 17:50:09.708516,104.0
2023-08-15 17:50:09.716206,395.0
2023-08-15 17:50:09.723895,585.0
2023-08-15 17:50:09.731585,328.0
2023-08-15 17:50:09.739275,-252.0
2023-08-15 17:50:09.746964,-585.0
2023-08-15 17:50:09.754654,-376.0
2023-08-15 17:50:09.762343,-49.0
2023-08-15 17:50:09.770033,-11.0
2023-08-15 17:50:09.777723,-69.0
2023-08-15 17:50:09.785412,-35.0
2023-08-15 17:50:09.793102,-14.0
2023-08-15 17:50:09.800791,-28.0
2023-08-15 17:50:09.808481,-16.0
2023-08-15 17:50:09.816171,0.0
2023-08-15 17:50:09.823860,0.0
2023-08-15 17:50:09.831550,9.0
2023-08-15 17:50:09.839240,26.0
2023-08-15 17:50:09.846929,40.0
2023-08-15 17:50:09.854619,52.0
2023-08-15 17:50:09.862308,64.0
2023-08-15 17:50:09.869998,78.0
2023-08-15 17:50:09.877688,95.0
2023-08-15 17:50:09.885377,114.0
2023-08-15 17:50:09.893067,133.0
2023-08-15 17:50:09.900756,152.0
2023-08-15 17:50:09.908446,166.0
2023-08-15 17:50:09.916136,178.0
2023-08-15 17:50:09.923825,190.0
2023-08-15 17:50:09.931515,197.0
2023-08-15 17:50:09.939205,199.0
2023-08-15 17:50:09.946894,190.0
2023-08-15 17:50:09.954584,166.0
2023-08-15 17:50:09.962273,119.0
2023-08-15 17:50:09.969963,57.0
2023-08-15 17:50:09.977653,2.0
2023-08-15 17:50:09.985342,-42.0
2023-08-15 17:50:09.993032,-80.0
2023-08-15 17:50:10.000721,-107.0
2023-08-15 17:50:10.008411,-126.0
2023-08-15 17:50:10.016101,-133.0
2023-08-15 17:50:10.023790,-133.0
2023-08-15 17:50:10.031480,-130.0
2023-08-15 17:50:10.039170,-126.0
2023-08-15 17:50:10.046859,-123.0
2023-08-15 17:50:10.054549,-121.0
2023-08-15 17:50:10.062238,-116.0
2023-08-15 17:50:10.069928,-107.0
2023-08-15 17:50:10.077618,-99.0
2023-08-15 17:50:10.085307,-95.0
2023-08-15 17:50:10.092997,-88.0
2023-08-15 17:50:10.100686,-85.0
2023-08-15 17:50:10.108376,-80.0
2023-08-15 17:50:10.116066,-73.0
2023-08-15 17:50:10.123755,-69.0
2023-08-15 17:50:10.131445,-64.0
2023-08-15 17:50:10.139135,-61.0
2023-08-15 17:50:10.146824,-59.0
2023-08-15 17:50:10.154514,-57.0
2023-08-15 17:50:10.162203,-54.0
2023-08-15 17:50:10.169893,-57.0
2023-08-15 17:50:10.177583,-57.0
2023-08-15 17:50:10.185272,-57.0
2023-08-15 17:50:10.192962,-59.0
2023-08-15 17:50:10.200651,-61.0
2023-08-15 17:50:10.208341,-57.0
2023-08-15 17:50:10.216031,-54.0
2023-08-15 17:50:10.223720,-52.0
2023-08-15 17:50:10.231410,-52.0
2023-08-15 17:50:10.239100,-54.0
2023-08-15 17:50:10.246789,-52.0
2023-08-15 17:50:10.254479,-49.0
2023-08-15 17:50:10.262168,-47.0
2023-08-15 17:50:10.269858,-45.0
2023-08-15 17:50:10.277548,-42.0
2023-08-15 17:50:10.285237,-42.0
2023-08-15 17:50:10.292927,-40.0
2023-08-15 17:50:10.300616,-35.0
2023-08-15 17:50:10.308306,-30.0
2023-08-15 17:50:10.315996,-26.0
2023-08-15 17:50:10.323685,-16.0
2023-08-15 17:50:10.331375,-7.0
2023-08-15 17:50:10.339065,0.0
2023-08-15 17:50:10.346754,9.0
2023-08-15 17:50:10.354444,16.0
2023-08-15 17:50:10.362133,7.0
2023-08-15 17:50:10.369823,-19.0
2023-08-15 17:50:10.377513,-40.0
2023-08-15 17:50:10.385202,-42.0
2023-08-15 17:50:10.392892,-35.0
2023-08-15 17:50:10.400581,-35.0
2023-08-15 17:50:10.408271,-40.0
2023-08-15 17:50:10.415961,-21.0
2023-08-15 17:50:10.423650,95.0
2023-08-15 17:50:10.431340,366.0
2023-08-15 17:50:10.439030,580.0
2023-08-15 17:50:10.446719,380.0
2023-08-15 17:50:10.454409,-178.0
2023-08-15 17:50:10.462098,-559.0
2023-08-15 17:50:10.469788,-409.0
2023-08-15 17:50:10.477478,-73.0
2023-08-15 17:50:10.485167,-4.0
2023-08-15 17:50:10.492857,-64.0
2023-08-15 17:50:10.500546,-38.0
2023-08-15 17:50:10.508236,-11.0
2023-08-15 17:50:10.515926,-26.0
2023-08-15 17:50:10.523615,-21.0
2023-08-15 17:50:10.531305,-2.0
2023-08-15 17:50:10.538995,-2.0
2023-08-15 17:50:10.546684,0.0
2023-08-15 17:50:10.554374,4.0
2023-08-15 17:50:10.562063,9.0
2023-08-15 17:50:10.569753,23.0
2023-08-15 17:50:10.577443,40.0
2023-08-15 17:50:10.585132,54.0
2023-08-15 17:50:10.592822,71.0
2023-08-15 17:50:10.600511,90.0
2023-08-15 17:50:10.608201,111.0
2023-08-15 17:50:10.615891,133.0
2023-08-15 17:50:10.623580,149.0
2023-08-15 17:50:10.631270,166.0
2023-08-15 17:50:10.638960,180.0
2023-08-15 17:50:10.646649,190.0
2023-08-15 17:50:10.654339,188.0
2023-08-15 17:50:10.662028,176.0
2023-08-15 17:50:10.669718,154.0
2023-08-15 17:50:10.677408,121.0
2023-08-15 17:50:10.685097,66.0
2023-08-15 17:50:10.692787,7.0
2023-08-15 17:50:10.700476,-42.0
2023-08-15 17:50:10.708166,-80.0
2023-08-15 17:50:10.715856,-107.0
2023-08-15 17:50:10.723545,-123.0
2023-08-15 17:50:10.731235,-135.0
2023-08-15 17:50:10.738925,-142.0
2023-08-15 17:50:10.746614,-140.0
2023-08-15 17:50:10.754304,-138.0
2023-08-15 17:50:10.761993,-133.0
2023-08-15 17:50:10.769683,-128.0
2023-08-15 17:50:10.777373,-123.0
2023-08-15 17:50:10.785062,-121.0
2023-08-15 17:50:10.792752,-116.0
2023-08-15 17:50:10.800441,-107.0
2023-08-15 17:50:10.808131,-97.0
2023-08-15 17:50:10.815821,-95.0
2023-08-15 17:50:10.823510,-92.0
2023-08-15 17:50:10.831200,-88.0
2023-08-15 17:50:10.838890,-80.0
2023-08-15 17:50:10.846579,-76.0
2023-08-15 17:50:10.854269,-73.0
2023-08-15 17:50:10.861958,-76.0
2023-08-15 17:50:10.869648,-78.0
2023-08-15 17:50:10.877338,-76.0
2023-08-15 17:50:10.885027,-73.0
2023-08-15 17:50:10.892717,-71.0
2023-08-15 17:50:10.900406,-71.0
2023-08-15 17:50:10.908096,-78.0
2023-08-15 17:50:10.915786,-85.0
2023-08-15 17:50:10.923475,-85.0
2023-08-15 17:50:10.931165,-85.0
2023-08-15 17:50:10.938855,-85.0
2023-08-15 17:50:10.946544,-85.0
2023-08-15 17:50:10.954234,-80.0
2023-08-15 17:50:10.961923,-80.0
2023-08-15 17:50:10.969613,-78.0
2023-08-15 17:50:10.977303,-76.0
2023-08-15 17:50:10.984992,-76.0
2023-08-15 17:50:10.992682,-73.0
2023-08-15 17:50:11.000371,-71.0
2023-08-15 17:50:11.008061,-66.0
2023-08-15 17:50:11.015751,-64.0
2023-08-15 17:50:11.023440,-64.0
2023-08-15 17:50:11.031130,-64.0
2023-08-15 17:50:11.038820,-54.0
2023-08-15 17:50:11.046509,-38.0
2023-08-15 17:50:11.054199,-26.0
2023-08-15 17:50:11.061888,-19.0
2023-08-15 17:50:11.069578,-14.0
2023-08-15 17:50:11.077268,-11.0
2023-08-15 17:50:11.084957,-28.0
2023-08-15 17:50:11.092647,-66.0
2023-08-15 17:50:11.100336,-90.0
2023-08-15 17:50:11.108026,-85.0
2023-08-15 17:50:11.115716,-73.0
2023-08-15 17:50:11.123405,-76.0
2023-08-15 17:50:11.131095,-69.0
2023-08-15 17:50:11.138785,-4.0
2023-08-15 17:50:11.146474,197.0
2023-08-15 17:50:11.154164,480.0
2023-08-15 17:50:11.161853,526.0
2023-08-15 17:50:11.169543,102.0
2023-08-15 17:50:11.177233,-449.0
2023-08-15 17:50:11.184922,-564.0
2023-08-15 17:50:11.192612,-264.0
2023-08-15 17:50:11.200301,-71.0
2023-08-15 17:50:11.207991,-97.0
2023-08-15 17:50:11.215681,-92.0
2023-08-15 17:50:11.223370,-57.0
2023-08-15 17:50:11.231060,-64.0
2023-08-15 17:50:11.238750,-66.0
2023-08-15 17:50:11.246439,-47.0
2023-08-15 17:50:11.254129,-45.0
2023-08-15 17:50:11.261818,-40.0
2023-08-15 17:50:11.269508,-19.0
2023-08-15 17:50:11.277198,-4.0
2023-08-15 17:50:11.284887,7.0
2023-08-15 17:50:11.292577,23.0
2023-08-15 17:50:11.300266,35.0
2023-08-15 17:50:11.307956,52.0
2023-08-15 17:50:11.315646,71.0
2023-08-15 17:50:11.323335,95.0
2023-08-15 17:50:11.331025,119.0
2023-08-15 17:50:11.338714,140.0
2023-08-15 17:50:11.346404,154.0
2023-08-15 17:50:11.354094,164.0
2023-08-15 17:50:11.361783,176.0
2023-08-15 17:50:11.369473,185.0
2023-08-15 17:50:11.377163,178.0
2023-08-15 17:50:11.384852,161.0
2023-08-15 17:50:11.392542,133.0
2023-08-15 17:50:11.400231,85.0
2023-08-15 17:50:11.407921,26.0
2023-08-15 17:50:11.415611,-30.0
2023-08-15 17:50:11.423300,-80.0
2023-08-15 17:50:11.430990,-119.0
2023-08-15 17:50:11.438679,-145.0
2023-08-15 17:50:11.446369,-157.0
2023-08-15 17:50:11.454059,-159.0
2023-08-15 17:50:11.461748,-154.0
2023-08-15 17:50:11.469438,-152.0
2023-08-15 17:50:11.477128,-154.0
2023-08-15 17:50:11.484817,-152.0
2023-08-15 17:50:11.492507,-147.0
2023-08-15 17:50:11.500196,-142.0
2023-08-15 17:50:11.507886,-135.0
2023-08-15 17:50:11.515576,-130.0
2023-08-15 17:50:11.523265,-123.0
2023-08-15 17:50:11.530955,-116.0
2023-08-15 17:50:11.538644,-111.0
2023-08-15 17:50:11.546334,-104.0
2023-08-15 17:50:11.554024,-99.0
2023-08-15 17:50:11.561713,-95.0
2023-08-15 17:50:11.569403,-90.0
2023-08-15 17:50:11.577093,-88.0
2023-08-15 17:50:11.584782,-85.0
2023-08-15 17:50:11.592472,-83.0
2023-08-15 17:50:11.600161,-85.0
2023-08-15 17:50:11.607851,-85.0
2023-08-15 17:50:11.615541,-83.0
2023-08-15 17:50:11.623230,-85.0
2023-08-15 17:50:11.630920,-90.0
2023-08-15 17:50:11.638609,-97.0
2023-08-15 17:50:11.646299,-99.0
2023-08-15 17:50:11.653989,-102.0
2023-08-15 17:50:11.661678,-97.0
2023-08-15 17:50:11.669368,-90.0
2023-08-15 17:50:11.677058,-90.0
2023-08-15 17:50:11.684747,-90.0
2023-08-15 17:50:11.692437,-85.0
2023-08-15 17:50:11.700126,-83.0
2023-08-15 17:50:11.707816,-80.0
2023-08-15 17:50:11.715506,-83.0
2023-08-15 17:50:11.723195,-80.0
2023-08-15 17:50:11.730885,-71.0
2023-08-15 17:50:11.738574,-64.0
2023-08-15 17:50:11.746264,-61.0
2023-08-15 17:50:11.753954,-47.0
2023-08-15 17:50:11.761643,-33.0
2023-08-15 17:50:11.769333,-35.0
2023-08-15 17:50:11.777023,-49.0
2023-08-15 17:50:11.784712,-73.0
2023-08-15 17:50:11.792402,-88.0
2023-08-15 17:50:11.800091,-80.0
2023-08-15 17:50:11.807781,-76.0
2023-08-15 17:50:11.815471,-80.0
2023-08-15 17:50:11.823160,-64.0
2023-08-15 17:50:11.830850,28.0
2023-08-15 17:50:11.838539,261.0
2023-08-15 17:50:11.846229,540.0
2023-08-15 17:50:11.853919,502.0
2023-08-15 17:50:11.861608,-4.0
2023-08-15 17:50:11.869298,-518.0
2023-08-15 17:50:11.876988,-530.0
2023-08-15 17:50:11.884677,-221.0
2023-08-15 17:50:11.892367,-76.0
2023-08-15 17:50:11.900056,-95.0
2023-08-15 17:50:11.907746,-76.0
2023-08-15 17:50:11.915436,-52.0
2023-08-15 17:50:11.923125,-66.0
2023-08-15 17:50:11.930815,-64.0
2023-08-15 17:50:11.938504,-47.0
2023-08-15 17:50:11.946194,-40.0
2023-08-15 17:50:11.953884,-33.0
2023-08-15 17:50:11.961573,-16.0
2023-08-15 17:50:11.969263,-4.0
2023-08-15 17:50:11.976953,7.0
2023-08-15 17:50:11.984642,23.0
2023-08-15 17:50:11.992332,42.0
2023-08-15 17:50:12.000021,61.0
2023-08-15 17:50:12.007711,83.0
2023-08-15 17:50:12.015401,107.0
2023-08-15 17:50:12.023090,128.0
2023-08-15 17:50:12.030780,149.0
2023-08-15 17:50:12.038469,171.0
2023-08-15 17:50:12.046159,188.0
2023-08-15 17:50:12.053849,197.0
2023-08-15 17:50:12.061538,199.0
2023-08-15 17:50:12.069228,195.0
2023-08-15 17:50:12.076918,176.0
2023-08-15 17:50:12.084607,138.0
2023-08-15 17:50:12.092297,85.0
2023-08-15 17:50:12.099986,33.0
2023-08-15 17:50:12.107676,-19.0
2023-08-15 17:50:12.115366,-61.0
2023-08-15 17:50:12.123055,-95.0
2023-08-15 17:50:12.130745,-116.0
2023-08-15 17:50:12.138434,-130.0
2023-08-15 17:50:12.146124,-135.0
2023-08-15 17:50:12.153814,-135.0
2023-08-15 17:50:12.161503,-135.0
2023-08-15 17:50:12.169193,-133.0
2023-08-15 17:50:12.176883,-133.0
2023-08-15 17:50:12.184572,-126.0
2023-08-15 17:50:12.192262,-114.0
2023-08-15 17:50:12.199951,-107.0
2023-08-15 17:50:12.207641,-102.0
2023-08-15 17:50:12.215331,-99.0
2023-08-15 17:50:12.223020,-95.0
2023-08-15 17:50:12.230710,-90.0
2023-08-15 17:50:12.238399,-85.0
2023-08-15 17:50:12.246089,-80.0
2023-08-15 17:50:12.253779,-76.0
2023-08-15 17:50:12.261468,-76.0
2023-08-15 17:50:12.269158,-73.0
2023-08-15 17:50:12.276848,-69.0
2023-08-15 17:50:12.284537,-64.0
2023-08-15 17:50:12.292227,-64.0
2023-08-15 17:50:12.299916,-66.0
2023-08-15 17:50:12.307606,-78.0
2023-08-15 17:50:12.315296,-83.0
2023-08-15 17:50:12.322985,-80.0
2023-08-15 17:50:12.330675,-78.0
2023-08-15 17:50:12.338364,-78.0
2023-08-15 17:50:12.346054,-80.0
2023-08-15 17:50:12.353744,-88.0
2023-08-15 17:50:12.361433,-90.0
2023-08-15 17:50:12.369123,-85.0
2023-08-15 17:50:12.376813,-83.0
2023-08-15 17:50:12.384502,-88.0
2023-08-15 17:50:12.392192,-90.0
2023-08-15 17:50:12.399881,-88.0
2023-08-15 17:50:12.407571,-83.0
2023-08-15 17:50:12.415261,-78.0
2023-08-15 17:50:12.422950,-80.0
2023-08-15 17:50:12.430640,-83.0
2023-08-15 17:50:12.438329,-76.0
2023-08-15 17:50:12.446019,-69.0
2023-08-15 17:50:12.453709,-66.0
2023-08-15 17:50:12.461398,-52.0
2023-08-15 17:50:12.469088,-35.0
2023-08-15 17:50:12.476778,-35.0
2023-08-15 17:50:12.484467,-52.0
2023-08-15 17:50:12.492157,-76.0
2023-08-15 17:50:12.499846,-95.0
2023-08-15 17:50:12.507536,-95.0
2023-08-15 17:50:12.515226,-88.0
2023-08-15 17:50:12.522915,-85.0
2023-08-15 17:50:12.530605,-83.0
2023-08-15 17:50:12.538294,-26.0
2023-08-15 17:50:12.545984,171.0
2023-08-15 17:50:12.553674,468.0
2023-08-15 17:50:12.561363,523.0
2023-08-15 17:50:12.569053,114.0
2023-08-15 17:50:12.576743,-447.0
2023-08-15 17:50:12.584432,-587.0
2023-08-15 17:50:12.592122,-264.0
2023-08-15 17:50:12.599811,-28.0
2023-08-15 17:50:12.607501,-66.0
2023-08-15 17:50:12.615191,-85.0
2023-08-15 17:50:12.622880,-40.0
2023-08-15 17:50:12.630570,-47.0
2023-08-15 17:50:12.638259,-59.0
2023-08-15 17:50:12.645949,-38.0
2023-08-15 17:50:12.653639,-26.0
2023-08-15 17:50:12.661328,-23.0
2023-08-15 17:50:12.669018,-9.0
2023-08-15 17:50:12.676708,7.0
2023-08-15 17:50:12.684397,16.0
2023-08-15 17:50:12.692087,33.0
2023-08-15 17:50:12.699776,52.0
2023-08-15 17:50:12.707466,66.0
2023-08-15 17:50:12.715156,83.0
2023-08-15 17:50:12.722845,104.0
2023-08-15 17:50:12.730535,128.0
2023-08-15 17:50:12.738224,152.0
2023-08-15 17:50:12.745914,173.0
2023-08-15 17:50:12.753604,190.0
2023-08-15 17:50:12.761293,202.0
2023-08-15 17:50:12.768983,207.0
2023-08-15 17:50:12.776673,204.0
2023-08-15 17:50:12.784362,190.0
2023-08-15 17:50:12.792052,161.0
2023-08-15 17:50:12.799741,109.0
2023-08-15 17:50:12.807431,42.0
2023-08-15 17:50:12.815121,-16.0
2023-08-15 17:50:12.822810,-59.0
2023-08-15 17:50:12.830500,-97.0
2023-08-15 17:50:12.838189,-121.0
2023-08-15 17:50:12.845879,-133.0
2023-08-15 17:50:12.853569,-138.0
2023-08-15 17:50:12.861258,-140.0
2023-08-15 17:50:12.868948,-142.0
2023-08-15 17:50:12.876638,-142.0
2023-08-15 17:50:12.884327,-142.0
2023-08-15 17:50:12.892017,-140.0
2023-08-15 17:50:12.899706,-135.0
2023-08-15 17:50:12.907396,-128.0
2023-08-15 17:50:12.915086,-123.0
2023-08-15 17:50:12.922775,-121.0
2023-08-15 17:50:12.930465,-121.0
2023-08-15 17:50:12.938154,-114.0
2023-08-15 17:50:12.945844,-104.0
2023-08-15 17:50:12.953534,-99.0
2023-08-15 17:50:12.961223,-97.0
2023-08-15 17:50:12.968913,-92.0
2023-08-15 17:50:12.976603,-88.0
2023-08-15 17:50:12.984292,-85.0
2023-08-15 17:50:12.991982,-80.0
2023-08-15 17:50:12.999671,-80.0
2023-08-15 17:50:13.007361,-83.0
2023-08-15 17:50:13.015051,-80.0
2023-08-15 17:50:13.022740,-78.0
2023-08-15 17:50:13.030430,-78.0
2023-08-15 17:50:13.038119,-78.0
2023-08-15 17:50:13.045809,-78.0
2023-08-15 17:50:13.053499,-78.0
2023-08-15 17:50:13.061188,-76.0
2023-08-15 17:50:13.068878,-76.0
2023-08-15 17:50:13.076568,-76.0
2023-08-15 17:50:13.084257,-76.0
2023-08-15 17:50:13.091947,-76.0
2023-08-15 17:50:13.099636,-76.0
2023-08-15 17:50:13.107326,-73.0
2023-08-15 17:50:13.115016,-71.0
2023-08-15 17:50:13.122705,-73.0
2023-08-15 17:50:13.130395,-73.0
2023-08-15 17:50:13.138084,-71.0
2023-08-15 17:50:13.145774,-66.0
2023-08-15 17:50:13.153464,-59.0
2023-08-15 17:50:13.161153,-52.0
2023-08-15 17:50:13.168843,-47.0
2023-08-15 17:50:13.176533,-40.0
2023-08-15 17:50:13.184222,-28.0
2023-08-15 17:50:13.191912,-28.0
2023-08-15 17:50:13.199601,-45.0
2023-08-15 17:50:13.207291,-71.0
2023-08-15 17:50:13.214981,-85.0
2023-08-15 17:50:13.222670,-83.0
2023-08-15 17:50:13.230360,-80.0
2023-08-15 17:50:13.238049,-83.0
2023-08-15 17:50:13.245739,-78.0
2023-08-15 17:50:13.253429,-33.0
2023-08-15 17:50:13.261118,138.0
2023-08-15 17:50:13.268808,428.0
2023-08-15 17:50:13.276498,533.0
2023-08-15 17:50:13.284187,180.0
2023-08-15 17:50:13.291877,-388.0
2023-08-15 17:50:13.299566,-595.0
2023-08-15 17:50:13.307256,-307.0
2023-08-15 17:50:13.314946,-38.0
2023-08-15 17:50:13.322635,-54.0
2023-08-15 17:50:13.330325,-88.0
2023-08-15 17:50:13.338014,-49.0
2023-08-15 17:50:13.345704,-49.0
2023-08-15 17:50:13.353394,-61.0
2023-08-15 17:50:13.361083,-42.0
2023-08-15 17:50:13.368773,-35.0
2023-08-15 17:50:13.376463,-38.0
2023-08-15 17:50:13.384152,-23.0
2023-08-15 17:50:13.391842,-7.0
2023-08-15 17:50:13.399531,4.0
2023-08-15 17:50:13.407221,19.0
2023-08-15 17:50:13.414911,35.0
2023-08-15 17:50:13.422600,52.0
2023-08-15 17:50:13.430290,71.0
2023-08-15 17:50:13.437979,85.0
2023-08-15 17:50:13.445669,104.0
2023-08-15 17:50:13.453359,128.0
2023-08-15 17:50:13.461048,152.0
2023-08-15 17:50:13.468738,169.0
2023-08-15 17:50:13.476428,183.0
2023-08-15 17:50:13.484117,190.0
2023-08-15 17:50:13.491807,192.0
2023-08-15 17:50:13.499496,180.0
2023-08-15 17:50:13.507186,154.0
2023-08-15 17:50:13.514876,109.0
2023-08-15 17:50:13.522565,54.0
2023-08-15 17:50:13.530255,-2.0
2023-08-15 17:50:13.537944,-49.0
2023-08-15 17:50:13.545634,-83.0
2023-08-15 17:50:13.553324,-109.0
2023-08-15 17:50:13.561013,-128.0
2023-08-15 17:50:13.568703,-135.0
2023-08-15 17:50:13.576393,-135.0
2023-08-15 17:50:13.584082,-135.0
2023-08-15 17:50:13.591772,-130.0
2023-08-15 17:50:13.599461,-126.0
2023-08-15 17:50:13.607151,-123.0
2023-08-15 17:50:13.614841,-123.0
2023-08-15 17:50:13.622530,-116.0
2023-08-15 17:50:13.630220,-109.0
2023-08-15 17:50:13.637909,-102.0
2023-08-15 17:50:13.645599,-99.0
2023-08-15 17:50:13.653289,-97.0
2023-08-15 17:50:13.660978,-90.0
2023-08-15 17:50:13.668668,-85.0
2023-08-15 17:50:13.676358,-80.0
2023-08-15 17:50:13.684047,-78.0
2023-08-15 17:50:13.691737,-76.0
2023-08-15 17:50:13.699426,-76.0
2023-08-15 17:50:13.707116,-73.0
2023-08-15 17:50:13.714806,-69.0
2023-08-15 17:50:13.722495,-66.0
2023-08-15 17:50:13.730185,-69.0
2023-08-15 17:50:13.737874,-73.0
2023-08-15 17:50:13.745564,-76.0
2023-08-15 17:50:13.753254,-76.0
2023-08-15 17:50:13.760943,-73.0
2023-08-15 17:50:13.768633,-76.0
2023-08-15 17:50:13.776323,-73.0
2023-08-15 17:50:13.784012,-69.0
2023-08-15 17:50:13.791702,-69.0
2023-08-15 17:50:13.799391,-71.0
2023-08-15 17:50:13.807081,-69.0
2023-08-15 17:50:13.814771,-66.0
2023-08-15 17:50:13.822460,-66.0
2023-08-15 17:50:13.830150,-69.0
2023-08-15 17:50:13.837839,-66.0
2023-08-15 17:50:13.845529,-64.0
2023-08-15 17:50:13.853219,-64.0
2023-08-15 17:50:13.860908,-66.0
2023-08-15 17:50:13.868598,-61.0
2023-08-15 17:50:13.876288,-54.0
2023-08-15 17:50:13.883977,-42.0
2023-08-15 17:50:13.891667,-38.0
2023-08-15 17:50:13.899356,-33.0
2023-08-15 17:50:13.907046,-26.0
2023-08-15 17:50:13.914736,-28.0
2023-08-15 17:50:13.922425,-54.0
2023-08-15 17:50:13.930115,-88.0
2023-08-15 17:50:13.937804,-102.0
2023-08-15 17:50:13.945494,-99.0
2023-08-15 17:50:13.953184,-102.0
2023-08-15 17:50:13.960873,-107.0
2023-08-15 17:50:13.968563,-95.0
2023-08-15 17:50:13.976253,-35.0
2023-08-15 17:50:13.983942,157.0
2023-08-15 17:50:13.991632,445.0
2023-08-15 17:50:13.999321,507.0
2023-08-15 17:50:14.007011,104.0
2023-08-15 17:50:14.014701,-442.0
2023-08-15 17:50:14.022390,-576.0
2023-08-15 17:50:14.030080,-276.0
2023-08-15 17:50:14.037769,-66.0
2023-08-15 17:50:14.045459,-90.0
2023-08-15 17:50:14.053149,-95.0
2023-08-15 17:50:14.060838,-59.0
2023-08-15 17:50:14.068528,-66.0
2023-08-15 17:50:14.076218,-69.0
2023-08-15 17:50:14.083907,-42.0
2023-08-15 17:50:14.091597,-30.0
2023-08-15 17:50:14.099286,-28.0
2023-08-15 17:50:14.106976,-19.0
2023-08-15 17:50:14.114666,-7.0
2023-08-15 17:50:14.122355,7.0
2023-08-15 17:50:14.130045,21.0
2023-08-15 17:50:14.137734,42.0
2023-08-15 17:50:14.145424,61.0
2023-08-15 17:50:14.153114,76.0
2023-08-15 17:50:14.160803,92.0
2023-08-15 17:50:14.168493,119.0
2023-08-15 17:50:14.176183,140.0
2023-08-15 17:50:14.183872,154.0
2023-08-15 17:50:14.191562,169.0
2023-08-15 17:50:14.199251,188.0
2023-08-15 17:50:14.206941,195.0
2023-08-15 17:50:14.214631,190.0
2023-08-15 17:50:14.222320,176.0
2023-08-15 17:50:14.230010,145.0
2023-08-15 17:50:14.237699,102.0
2023-08-15 17:50:14.245389,49.0
2023-08-15 17:50:14.253079,-4.0
2023-08-15 17:50:14.260768,-52.0
2023-08-15 17:50:14.268458,-83.0
2023-08-15 17:50:14.276148,-107.0
2023-08-15 17:50:14.283837,-126.0
2023-08-15 17:50:14.291527,-135.0
2023-08-15 17:50:14.299216,-135.0
2023-08-15 17:50:14.306906,-133.0
2023-08-15 17:50:14.314596,-128.0
2023-08-15 17:50:14.322285,-126.0
2023-08-15 17:50:14.329975,-123.0
2023-08-15 17:50:14.337664,-121.0
2023-08-15 17:50:14.345354,-119.0
2023-08-15 17:50:14.353044,-116.0
2023-08-15 17:50:14.360733,-111.0
2023-08-15 17:50:14.368423,-104.0
2023-08-15 17:50:14.376113,-99.0
2023-08-15 17:50:14.383802,-97.0
2023-08-15 17:50:14.391492,-95.0
2023-08-15 17:50:14.399181,-88.0
2023-08-15 17:50:14.406871,-83.0
2023-08-15 17:50:14.414561,-80.0
2023-08-15 17:50:14.422250,-76.0
2023-08-15 17:50:14.429940,-76.0
2023-08-15 17:50:14.437629,-78.0
2023-08-15 17:50:14.445319,-85.0
2023-08-15 17:50:14.453009,-88.0
2023-08-15 17:50:14.460698,-88.0
2023-08-15 17:50:14.468388,-97.0
2023-08-15 17:50:14.476078,-104.0
2023-08-15 17:50:14.483767,-102.0
2023-08-15 17:50:14.491457,-99.0
2023-08-15 17:50:14.499146,-99.0
2023-08-15 17:50:14.506836,-97.0
2023-08-15 17:50:14.514526,-95.0
2023-08-15 17:50:14.522215,-95.0
2023-08-15 17:50:14.529905,-97.0
2023-08-15 17:50:14.537594,-92.0
2023-08-15 17:50:14.545284,-88.0
2023-08-15 17:50:14.552974,-88.0
2023-08-15 17:50:14.560663,-90.0
2023-08-15 17:50:14.568353,-85.0
2023-08-15 17:50:14.576043,-78.0
2023-08-15 17:50:14.583732,-73.0
2023-08-15 17:50:14.591422,-66.0
2023-08-15 17:50:14.599111,-52.0
2023-08-15 17:50:14.606801,-42.0
2023-08-15 17:50:14.614491,-47.0
2023-08-15 17:50:14.622180,-69.0
2023-08-15 17:50:14.629870,-95.0
2023-08-15 17:50:14.637559,-104.0
2023-08-15 17:50:14.645249,-97.0
2023-08-15 17:50:14.652939,-92.0
2023-08-15 17:50:14.660628,-92.0
2023-08-15 17:50:14.668318,-66.0
2023-08-15 17:50:14.676008,49.0
2023-08-15 17:50:14.683697,309.0
2023-08-15 17:50:14.691387,557.0
2023-08-15 17:50:14.699076,426.0
2023-08-15 17:50:14.706766,-133.0
2023-08-15 17:50:14.714456,-573.0
2023-08-15 17:50:14.722145,-480.0
2023-08-15 17:50:14.729835,-171.0
2023-08-15 17:50:14.737524,-78.0
2023-08-15 17:50:14.745214,-102.0
2023-08-15 17:50:14.752904,-73.0
2023-08-15 17:50:14.760593,-57.0
2023-08-15 17:50:14.768283,-69.0
2023-08-15 17:50:14.775973,-57.0
2023-08-15 17:50:14.783662,-42.0
2023-08-15 17:50:14.791352,-35.0
2023-08-15 17:50:14.799041,-23.0
2023-08-15 17:50:14.806731,-9.0
2023-08-15 17:50:14.814421,2.0
2023-08-15 17:50:14.822110,14.0
2023-08-15 17:50:14.829800,26.0
2023-08-15 17:50:14.837489,42.0
2023-08-15 17:50:14.845179,59.0
2023-08-15 17:50:14.852869,76.0
2023-08-15 17:50:14.860558,99.0
2023-08-15 17:50:14.868248,121.0
2023-08-15 17:50:14.875938,140.0
2023-08-15 17:50:14.883627,159.0
2023-08-15 17:50:14.891317,176.0
2023-08-15 17:50:14.899006,180.0
2023-08-15 17:50:14.906696,183.0
2023-08-15 17:50:14.914386,176.0
2023-08-15 17:50:14.922075,152.0
2023-08-15 17:50:14.929765,114.0
2023-08-15 17:50:14.937454,66.0
2023-08-15 17:50:14.945144,11.0
2023-08-15 17:50:14.952834,-42.0
2023-08-15 17:50:14.960523,-88.0
2023-08-15 17:50:14.968213,-119.0
2023-08-15 17:50:14.975903,-133.0
2023-08-15 17:50:14.983592,-145.0
2023-08-15 17:50:14.991282,-149.0
2023-08-15 17:50:14.998971,-154.0
2023-08-15 17:50:15.006661,-159.0
2023-08-15 17:50:15.014351,-159.0
2023-08-15 17:50:15.022040,-149.0
2023-08-15 17:50:15.029730,-145.0
2023-08-15 17:50:15.037419,-142.0
2023-08-15 17:50:15.045109,-133.0
2023-08-15 17:50:15.052799,-126.0
2023-08-15 17:50:15.060488,-121.0
2023-08-15 17:50:15.068178,-114.0
2023-08-15 17:50:15.075868,-111.0
2023-08-15 17:50:15.083557,-109.0
2023-08-15 17:50:15.091247,-107.0
2023-08-15 17:50:15.098936,-102.0
2023-08-15 17:50:15.106626,-99.0
2023-08-15 17:50:15.114316,-95.0
2023-08-15 17:50:15.122005,-92.0
2023-08-15 17:50:15.129695,-90.0
2023-08-15 17:50:15.137384,-90.0
2023-08-15 17:50:15.145074,-85.0
2023-08-15 17:50:15.152764,-85.0
2023-08-15 17:50:15.160453,-85.0
2023-08-15 17:50:15.168143,-85.0
2023-08-15 17:50:15.175833,-85.0
2023-08-15 17:50:15.183522,-85.0
2023-08-15 17:50:15.191212,-85.0
2023-08-15 17:50:15.198901,-83.0
2023-08-15 17:50:15.206591,-80.0
2023-08-15 17:50:15.214281,-83.0
2023-08-15 17:50:15.221970,-88.0
2023-08-15 17:50:15.229660,-85.0
2023-08-15 17:50:15.237349,-80.0
2023-08-15 17:50:15.245039,-80.0
2023-08-15 17:50:15.252729,-80.0
2023-08-15 17:50:15.260418,-76.0
2023-08-15 17:50:15.268108,-69.0
2023-08-15 17:50:15.275798,-64.0
2023-08-15 17:50:15.283487,-64.0
2023-08-15 17:50:15.291177,-49.0
2023-08-15 17:50:15.298866,-30.0
2023-08-15 17:50:15.306556,-30.0
2023-08-15 17:50:15.314246,-52.0
2023-08-15 17:50:15.321935,-78.0
2023-08-15 17:50:15.329625,-97.0
2023-08-15 17:50:15.337314,-95.0
2023-08-15 17:50:15.345004,-92.0
2023-08-15 17:50:15.352694,-95.0
2023-08-15 17:50:15.360383,-90.0
2023-08-15 17:50:15.368073,-35.0
2023-08-15 17:50:15.375763,157.0
2023-08-15 17:50:15.383452,452.0
2023-08-15 17:50:15.391142,518.0
2023-08-15 17:50:15.398831,111.0
2023-08-15 17:50:15.406521,-454.0
2023-08-15 17:50:15.414211,-602.0
2023-08-15 17:50:15.421900,-285.0
2023-08-15 17:50:15.429590,-52.0
2023-08-15 17:50:15.437279,-80.0
2023-08-15 17:50:15.444969,-95.0
2023-08-15 17:50:15.452659,-59.0
2023-08-15 17:50:15.460348,-64.0
2023-08-15 17:50:15.468038,-71.0
2023-08-15 17:50:15.475728,-52.0
2023-08-15 17:50:15.483417,-42.0
2023-08-15 17:50:15.491107,-38.0
2023-08-15 17:50:15.498796,-26.0
2023-08-15 17:50:15.506486,-14.0
2023-08-15 17:50:15.514176,0.0
2023-08-15 17:50:15.521865,14.0
2023-08-15 17:50:15.529555,30.0
2023-08-15 17:50:15.537244,47.0
2023-08-15 17:50:15.544934,66.0
2023-08-15 17:50:15.552624,85.0
2023-08-15 17:50:15.560313,109.0
2023-08-15 17:50:15.568003,133.0
2023-08-15 17:50:15.575693,152.0
2023-08-15 17:50:15.583382,164.0
2023-08-15 17:50:15.591072,166.0
2023-08-15 17:50:15.598761,164.0
2023-08-15 17:50:15.606451,166.0
2023-08-15 17:50:15.614141,154.0
2023-08-15 17:50:15.621830,123.0
2023-08-15 17:50:15.629520,78.0
2023-08-15 17:50:15.637209,23.0
2023-08-15 17:50:15.644899,-30.0
2023-08-15 17:50:15.652589,-76.0
2023-08-15 17:50:15.660278,-109.0
2023-08-15 17:50:15.667968,-135.0
2023-08-15 17:50:15.675658,-149.0
2023-08-15 17:50:15.683347,-154.0
2023-08-15 17:50:15.691037,-157.0
2023-08-15 17:50:15.698726,-154.0
2023-08-15 17:50:15.706416,-152.0
2023-08-15 17:50:15.714106,-145.0
2023-08-15 17:50:15.721795,-142.0
2023-08-15 17:50:15.729485,-142.0
2023-08-15 17:50:15.737174,-135.0
2023-08-15 17:50:15.744864,-123.0
2023-08-15 17:50:15.752554,-119.0
2023-08-15 17:50:15.760243,-114.0
2023-08-15 17:50:15.767933,-107.0
2023-08-15 17:50:15.775623,-104.0
2023-08-15 17:50:15.783312,-102.0
2023-08-15 17:50:15.791002,-95.0
2023-08-15 17:50:15.798691,-90.0
2023-08-15 17:50:15.806381,-88.0
2023-08-15 17:50:15.814071,-88.0
2023-08-15 17:50:15.821760,-90.0
2023-08-15 17:50:15.829450,-92.0
2023-08-15 17:50:15.837139,-92.0
2023-08-15 17:50:15.844829,-95.0
2023-08-15 17:50:15.852519,-95.0
2023-08-15 17:50:15.860208,-95.0
2023-08-15 17:50:15.867898,-95.0
2023-08-15 17:50:15.875588,-97.0
2023-08-15 17:50:15.883277,-92.0
2023-08-15 17:50:15.890967,-88.0
2023-08-15 17:50:15.898656,-90.0
2023-08-15 17:50:15.906346,-90.0
2023-08-15 17:50:15.914036,-88.0
2023-08-15 17:50:15.921725,-88.0
2023-08-15 17:50:15.929415,-90.0
2023-08-15 17:50:15.937104,-88.0
2023-08-15 17:50:15.944794,-85.0
2023-08-15 17:50:15.952484,-88.0
2023-08-15 17:50:15.960173,-92.0
2023-08-15 17:50:15.967863,-90.0
2023-08-15 17:50:15.975553,-78.0
2023-08-15 17:50:15.983242,-71.0
2023-08-15 17:50:15.990932,-69.0
2023-08-15 17:50:15.998621,-57.0
2023-08-15 17:50:16.006311,-47.0
2023-08-15 17:50:16.014001,-54.0
2023-08-15 17:50:16.021690,-76.0
2023-08-15 17:50:16.029380,-99.0
2023-08-15 17:50:16.037069,-111.0
2023-08-15 17:50:16.044759,-104.0
2023-08-15 17:50:16.052449,-102.0
2023-08-15 17:50:16.060138,-102.0
2023-08-15 17:50:16.067828,-78.0
2023-08-15 17:50:16.075518,30.0
2023-08-15 17:50:16.083207,285.0
2023-08-15 17:50:16.090897,518.0
2023-08-15 17:50:16.098586,361.0
2023-08-15 17:50:16.106276,-188.0
2023-08-15 17:50:16.113966,-590.0
2023-08-15 17:50:16.121655,-478.0
2023-08-15 17:50:16.129345,-159.0
2023-08-15 17:50:16.137034,-66.0
2023-08-15 17:50:16.144724,-107.0
2023-08-15 17:50:16.152414,-83.0
2023-08-15 17:50:16.160103,-59.0
2023-08-15 17:50:16.167793,-71.0
2023-08-15 17:50:16.175483,-73.0
2023-08-15 17:50:16.183172,-64.0
2023-08-15 17:50:16.190862,-57.0
2023-08-15 17:50:16.198551,-45.0
2023-08-15 17:50:16.206241,-28.0
2023-08-15 17:50:16.213931,-19.0
2023-08-15 17:50:16.221620,-9.0
2023-08-15 17:50:16.229310,7.0
2023-08-15 17:50:16.236999,21.0
2023-08-15 17:50:16.244689,40.0
2023-08-15 17:50:16.252379,59.0
2023-08-15 17:50:16.260068,80.0
2023-08-15 17:50:16.267758,99.0
2023-08-15 17:50:16.275448,121.0
2023-08-15 17:50:16.283137,140.0
2023-08-15 17:50:16.290827,157.0
2023-08-15 17:50:16.298516,164.0
2023-08-15 17:50:16.306206,166.0
2023-08-15 17:50:16.313896,161.0
2023-08-15 17:50:16.321585,140.0
2023-08-15 17:50:16.329275,102.0
2023-08-15 17:50:16.336964,57.0
2023-08-15 17:50:16.344654,4.0
2023-08-15 17:50:16.352344,-47.0
2023-08-15 17:50:16.360033,-88.0
2023-08-15 17:50:16.367723,-114.0
2023-08-15 17:50:16.375413,-135.0
2023-08-15 17:50:16.383102,-145.0
2023-08-15 17:50:16.390792,-145.0
2023-08-15 17:50:16.398481,-147.0
2023-08-15 17:50:16.406171,-145.0
2023-08-15 17:50:16.413861,-142.0
2023-08-15 17:50:16.421550,-140.0
2023-08-15 17:50:16.429240,-133.0
2023-08-15 17:50:16.436929,-128.0
2023-08-15 17:50:16.444619,-123.0
2023-08-15 17:50:16.452309,-119.0
2023-08-15 17:50:16.459998,-119.0
2023-08-15 17:50:16.467688,-119.0
2023-08-15 17:50:16.475378,-111.0
2023-08-15 17:50:16.483067,-107.0
2023-08-15 17:50:16.490757,-104.0
2023-08-15 17:50:16.498446,-99.0
2023-08-15 17:50:16.506136,-97.0
2023-08-15 17:50:16.513826,-97.0
2023-08-15 17:50:16.521515,-95.0
2023-08-15 17:50:16.529205,-90.0
2023-08-15 17:50:16.536894,-90.0
2023-08-15 17:50:16.544584,-88.0
2023-08-15 17:50:16.552274,-90.0
2023-08-15 17:50:16.559963,-90.0
2023-08-15 17:50:16.567653,-90.0
2023-08-15 17:50:16.575343,-90.0
2023-08-15 17:50:16.583032,-90.0
2023-08-15 17:50:16.590722,-90.0
2023-08-15 17:50:16.598411,-90.0
2023-08-15 17:50:16.606101,-92.0
2023-08-15 17:50:16.613791,-88.0
2023-08-15 17:50:16.621480,-83.0
2023-08-15 17:50:16.629170,-83.0
2023-08-15 17:50:16.636859,-83.0
2023-08-15 17:50:16.644549,-83.0
2023-08-15 17:50:16.652239,-80.0
2023-08-15 17:50:16.659928,-78.0
2023-08-15 17:50:16.667618,-76.0
2023-08-15 17:50:16.675308,-69.0
2023-08-15 17:50:16.682997,-59.0
2023-08-15 17:50:16.690687,-49.0
2023-08-15 17:50:16.698376,-38.0
2023-08-15 17:50:16.706066,-26.0
2023-08-15 17:50:16.713756,-35.0
2023-08-15 17:50:16.721445,-64.0
2023-08-15 17:50:16.729135,-88.0
2023-08-15 17:50:16.736824,-88.0
2023-08-15 17:50:16.744514,-80.0
2023-08-15 17:50:16.752204,-88.0
2023-08-15 17:50:16.759893,-97.0
2023-08-15 17:50:16.767583,-64.0
2023-08-15 17:50:16.775273,73.0
2023-08-15 17:50:16.782962,349.0
2023-08-15 17:50:16.790652,542.0
2023-08-15 17:50:16.798341,304.0
2023-08-15 17:50:16.806031,-268.0
2023-08-15 17:50:16.813721,-595.0
2023-08-15 17:50:16.821410,-414.0
2023-08-15 17:50:16.829100,-138.0
2023-08-15 17:50:16.836789,-88.0
2023-08-15 17:50:16.844479,-104.0
2023-08-15 17:50:16.852169,-76.0
2023-08-15 17:50:16.859858,-64.0
2023-08-15 17:50:16.867548,-66.0
2023-08-15 17:50:16.875238,-52.0
2023-08-15 17:50:16.882927,-45.0
2023-08-15 17:50:16.890617,-38.0
2023-08-15 17:50:16.898306,-26.0
2023-08-15 17:50:16.905996,-14.0
2023-08-15 17:50:16.913686,-2.0
2023-08-15 17:50:16.921375,14.0
2023-08-15 17:50:16.929065,30.0
2023-08-15 17:50:16.936754,42.0
2023-08-15 17:50:16.944444,59.0
2023-08-15 17:50:16.952134,80.0
2023-08-15 17:50:16.959823,104.0
2023-08-15 17:50:16.967513,116.0
2023-08-15 17:50:16.975203,126.0
2023-08-15 17:50:16.982892,149.0
2023-08-15 17:50:16.990582,173.0
2023-08-15 17:50:16.998271,183.0
2023-08-15 17:50:17.005961,180.0
2023-08-15 17:50:17.013651,169.0
2023-08-15 17:50:17.021340,145.0
2023-08-15 17:50:17.029030,107.0
2023-08-15 17:50:17.036719,61.0
2023-08-15 17:50:17.044409,11.0
2023-08-15 17:50:17.052099,-38.0
2023-08-15 17:50:17.059788,-80.0
2023-08-15 17:50:17.067478,-114.0
2023-08-15 17:50:17.075168,-133.0
2023-08-15 17:50:17.082857,-140.0
2023-08-15 17:50:17.090547,-142.0
2023-08-15 17:50:17.098236,-145.0
2023-08-15 17:50:17.105926,-145.0
2023-08-15 17:50:17.113616,-142.0
2023-08-15 17:50:17.121305,-138.0
2023-08-15 17:50:17.128995,-128.0
2023-08-15 17:50:17.136684,-119.0
2023-08-15 17:50:17.144374,-111.0
2023-08-15 17:50:17.152064,-109.0
2023-08-15 17:50:17.159753,-107.0
2023-08-15 17:50:17.167443,-102.0
2023-08-15 17:50:17.175133,-92.0
2023-08-15 17:50:17.182822,-88.0
2023-08-15 17:50:17.190512,-83.0
2023-08-15 17:50:17.198201,-78.0
2023-08-15 17:50:17.205891,-80.0
2023-08-15 17:50:17.213581,-83.0
2023-08-15 17:50:17.221270,-78.0
2023-08-15 17:50:17.228960,-71.0
2023-08-15 17:50:17.236649,-76.0
2023-08-15 17:50:17.244339,-78.0
2023-08-15 17:50:17.252029,-78.0
2023-08-15 17:50:17.259718,-85.0
2023-08-15 17:50:17.267408,-88.0
2023-08-15 17:50:17.275098,-83.0
2023-08-15 17:50:17.282787,-83.0
2023-08-15 17:50:17.290477,-85.0
2023-08-15 17:50:17.298166,-85.0
2023-08-15 17:50:17.305856,-85.0
2023-08-15 17:50:17.313546,-85.0
2023-08-15 17:50:17.321235,-80.0
2023-08-15 17:50:17.328925,-73.0
2023-08-15 17:50:17.336614,-71.0
2023-08-15 17:50:17.344304,-73.0
2023-08-15 17:50:17.351994,-71.0
2023-08-15 17:50:17.359683,-52.0
2023-08-15 17:50:17.367373,-35.0
2023-08-15 17:50:17.375063,-35.0
2023-08-15 17:50:17.382752,-45.0
2023-08-15 17:50:17.390442,-66.0
2023-08-15 17:50:17.398131,-90.0
2023-08-15 17:50:17.405821,-88.0
2023-08-15 17:50:17.413511,-76.0
2023-08-15 17:50:17.421200,-73.0
2023-08-15 17:50:17.428890,-73.0
2023-08-15 17:50:17.436579,-16.0
2023-08-15 17:50:17.444269,171.0
2023-08-15 17:50:17.451959,466.0
2023-08-15 17:50:17.459648,583.0
2023-08-15 17:50:17.467338,221.0
2023-08-15 17:50:17.475028,-373.0
2023-08-15 17:50:17.482717,-597.0
2023-08-15 17:50:17.490407,-366.0
2023-08-15 17:50:17.498096,-149.0
2023-08-15 17:50:17.505786,-114.0
2023-08-15 17:50:17.513476,-95.0
2023-08-15 17:50:17.521165,-73.0
2023-08-15 17:50:17.528855,-78.0
2023-08-15 17:50:17.536544,-73.0
2023-08-15 17:50:17.544234,-57.0
2023-08-15 17:50:17.551924,-49.0
2023-08-15 17:50:17.559613,-45.0
2023-08-15 17:50:17.567303,-30.0
2023-08-15 17:50:17.574993,-16.0
2023-08-15 17:50:17.582682,-4.0
2023-08-15 17:50:17.590372,11.0
2023-08-15 17:50:17.598061,30.0
2023-08-15 17:50:17.605751,49.0
2023-08-15 17:50:17.613441,64.0
2023-08-15 17:50:17.621130,80.0
2023-08-15 17:50:17.628820,102.0
2023-08-15 17:50:17.636509,128.0
2023-08-15 17:50:17.644199,149.0
2023-08-15 17:50:17.651889,166.0
2023-08-15 17:50:17.659578,176.0
2023-08-15 17:50:17.667268,178.0
2023-08-15 17:50:17.674958,176.0
2023-08-15 17:50:17.682647,159.0
2023-08-15 17:50:17.690337,130.0
2023-08-15 17:50:17.698026,85.0
2023-08-15 17:50:17.705716,30.0
2023-08-15 17:50:17.713406,-23.0
2023-08-15 17:50:17.721095,-69.0
2023-08-15 17:50:17.728785,-102.0
2023-08-15 17:50:17.736474,-126.0
2023-08-15 17:50:17.744164,-140.0
2023-08-15 17:50:17.751854,-149.0
2023-08-15 17:50:17.759543,-152.0
2023-08-15 17:50:17.767233,-152.0
2023-08-15 17:50:17.774923,-147.0
2023-08-15 17:50:17.782612,-142.0
2023-08-15 17:50:17.790302,-138.0
2023-08-15 17:50:17.797991,-138.0
2023-08-15 17:50:17.805681,-135.0
2023-08-15 17:50:17.813371,-128.0
2023-08-15 17:50:17.821060,-121.0
2023-08-15 17:50:17.828750,-116.0
2023-08-15 17:50:17.836439,-116.0
2023-08-15 17:50:17.844129,-121.0
2023-08-15 17:50:17.851819,-119.0
2023-08-15 17:50:17.859508,-109.0
2023-08-15 17:50:17.867198,-104.0
2023-08-15 17:50:17.874888,-102.0
2023-08-15 17:50:17.882577,-97.0
2023-08-15 17:50:17.890267,-97.0
2023-08-15 17:50:17.897956,-97.0
2023-08-15 17:50:17.905646,-95.0
2023-08-15 17:50:17.913336,-95.0
2023-08-15 17:50:17.921025,-92.0
2023-08-15 17:50:17.928715,-95.0
2023-08-15 17:50:17.936404,-95.0
2023-08-15 17:50:17.944094,-95.0
2023-08-15 17:50:17.951784,-92.0
2023-08-15 17:50:17.959473,-88.0
2023-08-15 17:50:17.967163,-88.0
2023-08-15 17:50:17.974853,-92.0
2023-08-15 17:50:17.982542,-95.0
2023-08-15 17:50:17.990232,-92.0
2023-08-15 17:50:17.997921,-85.0
2023-08-15 17:50:18.005611,-78.0
2023-08-15 17:50:18.013301,-76.0
2023-08-15 17:50:18.020990,-66.0
2023-08-15 17:50:18.028680,-52.0
2023-08-15 17:50:18.036369,-47.0
2023-08-15 17:50:18.044059,-59.0
2023-08-15 17:50:18.051749,-83.0
2023-08-15 17:50:18.059438,-104.0
2023-08-15 17:50:18.067128,-104.0
2023-08-15 17:50:18.074818,-97.0
2023-08-15 17:50:18.082507,-97.0
2023-08-15 17:50:18.090197,-97.0
2023-08-15 17:50:18.097886,-52.0
2023-08-15 17:50:18.105576,116.0
2023-08-15 17:50:18.113266,416.0
2023-08-15 17:50:18.120955,557.0
2023-08-15 17:50:18.128645,221.0
2023-08-15 17:50:18.136334,-371.0
2023-08-15 17:50:18.144024,-621.0
2023-08-15 17:50:18.151714,-366.0
2023-08-15 17:50:18.159403,-102.0
2023-08-15 17:50:18.167093,-92.0
2023-08-15 17:50:18.174783,-111.0
2023-08-15 17:50:18.182472,-78.0
2023-08-15 17:50:18.190162,-76.0
2023-08-15 17:50:18.197851,-83.0
2023-08-15 17:50:18.205541,-71.0
2023-08-15 17:50:18.213231,-59.0
2023-08-15 17:50:18.220920,-54.0
2023-08-15 17:50:18.228610,-40.0
2023-08-15 17:50:18.236299,-23.0
2023-08-15 17:50:18.243989,-14.0
2023-08-15 17:50:18.251679,-2.0
2023-08-15 17:50:18.259368,14.0
2023-08-15 17:50:18.267058,30.0
2023-08-15 17:50:18.274748,49.0
2023-08-15 17:50:18.282437,71.0
2023-08-15 17:50:18.290127,95.0
2023-08-15 17:50:18.297816,111.0
2023-08-15 17:50:18.305506,130.0
2023-08-15 17:50:18.313196,149.0
2023-08-15 17:50:18.320885,161.0
2023-08-15 17:50:18.328575,166.0
2023-08-15 17:50:18.336264,164.0
2023-08-15 17:50:18.343954,149.0
2023-08-15 17:50:18.351644,121.0
2023-08-15 17:50:18.359333,76.0
2023-08-15 17:50:18.367023,19.0
2023-08-15 17:50:18.374713,-40.0
2023-08-15 17:50:18.382402,-90.0
2023-08-15 17:50:18.390092,-128.0
2023-08-15 17:50:18.397781,-152.0
2023-08-15 17:50:18.405471,-166.0
2023-08-15 17:50:18.413161,-176.0
2023-08-15 17:50:18.420850,-183.0
2023-08-15 17:50:18.428540,-190.0
2023-08-15 17:50:18.436229,-188.0
2023-08-15 17:50:18.443919,-180.0
2023-08-15 17:50:18.451609,-178.0
2023-08-15 17:50:18.459298,-173.0
2023-08-15 17:50:18.466988,-166.0
2023-08-15 17:50:18.474678,-164.0
2023-08-15 17:50:18.482367,-164.0
2023-08-15 17:50:18.490057,-161.0
2023-08-15 17:50:18.497746,-154.0
2023-08-15 17:50:18.505436,-149.0
2023-08-15 17:50:18.513126,-142.0
2023-08-15 17:50:18.520815,-138.0
2023-08-15 17:50:18.528505,-133.0
2023-08-15 17:50:18.536194,-128.0
2023-08-15 17:50:18.543884,-128.0
2023-08-15 17:50:18.551574,-128.0
2023-08-15 17:50:18.559263,-123.0
2023-08-15 17:50:18.566953,-123.0
2023-08-15 17:50:18.574643,-121.0
2023-08-15 17:50:18.582332,-121.0
2023-08-15 17:50:18.590022,-121.0
2023-08-15 17:50:18.597711,-119.0
2023-08-15 17:50:18.605401,-116.0
2023-08-15 17:50:18.613091,-119.0
2023-08-15 17:50:18.620780,-121.0
2023-08-15 17:50:18.628470,-119.0
2023-08-15 17:50:18.636159,-116.0
2023-08-15 17:50:18.643849,-111.0
2023-08-15 17:50:18.651539,-111.0
2023-08-15 17:50:18.659228,-109.0
2023-08-15 17:50:18.666918,-102.0
2023-08-15 17:50:18.674608,-95.0
2023-08-15 17:50:18.682297,-92.0
2023-08-15 17:50:18.689987,-83.0
2023-08-15 17:50:18.697676,-66.0
2023-08-15 17:50:18.705366,-61.0
2023-08-15 17:50:18.713056,-71.0
2023-08-15 17:50:18.720745,-92.0
2023-08-15 17:50:18.728435,-111.0
2023-08-15 17:50:18.736124,-111.0
2023-08-15 17:50:18.743814,-104.0
2023-08-15 17:50:18.751504,-107.0
2023-08-15 17:50:18.759193,-107.0
2023-08-15 17:50:18.766883,-71.0
2023-08-15 17:50:18.774573,76.0
2023-08-15 17:50:18.782262,368.0
2023-08-15 17:50:18.789952,535.0
2023-08-15 17:50:18.797641,245.0
2023-08-15 17:50:18.805331,-335.0
2023-08-15 17:50:18.813021,-626.0
2023-08-15 17:50:18.820710,-397.0
2023-08-15 17:50:18.828400,-107.0
2023-08-15 17:50:18.836089,-85.0
2023-08-15 17:50:18.843779,-121.0
2023-08-15 17:50:18.851469,-83.0
2023-08-15 17:50:18.859158,-73.0
2023-08-15 17:50:18.866848,-90.0
2023-08-15 17:50:18.874538,-78.0
2023-08-15 17:50:18.882227,-64.0
2023-08-15 17:50:18.889917,-61.0
2023-08-15 17:50:18.897606,-49.0
2023-08-15 17:50:18.905296,-33.0
2023-08-15 17:50:18.912986,-26.0
2023-08-15 17:50:18.920675,-11.0
2023-08-15 17:50:18.928365,4.0
2023-08-15 17:50:18.936054,19.0
2023-08-15 17:50:18.943744,35.0
2023-08-15 17:50:18.951434,57.0
2023-08-15 17:50:18.959123,76.0
2023-08-15 17:50:18.966813,90.0
2023-08-15 17:50:18.974503,104.0
2023-08-15 17:50:18.982192,121.0
2023-08-15 17:50:18.989882,133.0
2023-08-15 17:50:18.997571,135.0
2023-08-15 17:50:19.005261,135.0
2023-08-15 17:50:19.012951,126.0
2023-08-15 17:50:19.020640,99.0
2023-08-15 17:50:19.028330,59.0
2023-08-15 17:50:19.036019,2.0
2023-08-15 17:50:19.043709,-57.0
2023-08-15 17:50:19.051399,-104.0
2023-08-15 17:50:19.059088,-140.0
2023-08-15 17:50:19.066778,-164.0
2023-08-15 17:50:19.074467,-176.0
2023-08-15 17:50:19.082157,-183.0
2023-08-15 17:50:19.089847,-185.0
2023-08-15 17:50:19.097536,-188.0
2023-08-15 17:50:19.105226,-183.0
2023-08-15 17:50:19.112916,-176.0
2023-08-15 17:50:19.120605,-171.0
2023-08-15 17:50:19.128295,-169.0
2023-08-15 17:50:19.135984,-161.0
2023-08-15 17:50:19.143674,-154.0
2023-08-15 17:50:19.151364,-149.0
2023-08-15 17:50:19.159053,-140.0
2023-08-15 17:50:19.166743,-135.0
2023-08-15 17:50:19.174432,-130.0
2023-08-15 17:50:19.182122,-123.0
2023-08-15 17:50:19.189812,-119.0
2023-08-15 17:50:19.197501,-114.0
2023-08-15 17:50:19.205191,-109.0
2023-08-15 17:50:19.212881,-104.0
2023-08-15 17:50:19.220570,-102.0
2023-08-15 17:50:19.228260,-102.0
2023-08-15 17:50:19.235949,-99.0
2023-08-15 17:50:19.243639,-99.0
2023-08-15 17:50:19.251329,-97.0
2023-08-15 17:50:19.259018,-95.0
2023-08-15 17:50:19.266708,-95.0
2023-08-15 17:50:19.274397,-97.0
2023-08-15 17:50:19.282087,-102.0
2023-08-15 17:50:19.289777,-102.0
2023-08-15 17:50:19.297466,-99.0
2023-08-15 17:50:19.305156,-97.0
2023-08-15 17:50:19.312846,-99.0
2023-08-15 17:50:19.320535,-97.0
2023-08-15 17:50:19.328225,-97.0
2023-08-15 17:50:19.335914,-95.0
2023-08-15 17:50:19.343604,-92.0
2023-08-15 17:50:19.351294,-88.0
2023-08-15 17:50:19.358983,-80.0
2023-08-15 17:50:19.366673,-76.0
2023-08-15 17:50:19.374362,-73.0
2023-08-15 17:50:19.382052,-61.0
2023-08-15 17:50:19.389742,-45.0
2023-08-15 17:50:19.397431,-47.0
2023-08-15 17:50:19.405121,-59.0
2023-08-15 17:50:19.412811,-80.0
2023-08-15 17:50:19.420500,-99.0
2023-08-15 17:50:19.428190,-97.0
2023-08-15 17:50:19.435879,-88.0
2023-08-15 17:50:19.443569,-90.0
2023-08-15 17:50:19.451259,-88.0
2023-08-15 17:50:19.458948,-45.0
2023-08-15 17:50:19.466638,126.0
2023-08-15 17:50:19.474327,418.0
2023-08-15 17:50:19.482017,528.0
2023-08-15 17:50:19.489707,159.0
2023-08-15 17:50:19.497396,-414.0
2023-08-15 17:50:19.505086,-611.0
2023-08-15 17:50:19.512776,-335.0
2023-08-15 17:50:19.520465,-88.0
2023-08-15 17:50:19.528155,-92.0
2023-08-15 17:50:19.535844,-114.0
2023-08-15 17:50:19.543534,-80.0
2023-08-15 17:50:19.551224,-90.0
2023-08-15 17:50:19.558913,-107.0
2023-08-15 17:50:19.566603,-88.0
2023-08-15 17:50:19.574292,-76.0
2023-08-15 17:50:19.581982,-76.0
2023-08-15 17:50:19.589672,-61.0
2023-08-15 17:50:19.597361,-47.0
2023-08-15 17:50:19.605051,-38.0
2023-08-15 17:50:19.612741,-21.0
2023-08-15 17:50:19.620430,-2.0
2023-08-15 17:50:19.628120,11.0
2023-08-15 17:50:19.635809,30.0
2023-08-15 17:50:19.643499,49.0
2023-08-15 17:50:19.651189,71.0
2023-08-15 17:50:19.658878,95.0
2023-08-15 17:50:19.666568,116.0
2023-08-15 17:50:19.674257,135.0
2023-08-15 17:50:19.681947,147.0
2023-08-15 17:50:19.689637,152.0
2023-08-15 17:50:19.697326,147.0
2023-08-15 17:50:19.705016,135.0
2023-08-15 17:50:19.712706,111.0
2023-08-15 17:50:19.720395,71.0
2023-08-15 17:50:19.728085,16.0
2023-08-15 17:50:19.735774,-38.0
2023-08-15 17:50:19.743464,-83.0
2023-08-15 17:50:19.751154,-116.0
2023-08-15 17:50:19.758843,-140.0
2023-08-15 17:50:19.766533,-154.0
2023-08-15 17:50:19.774222,-166.0
2023-08-15 17:50:19.781912,-173.0
2023-08-15 17:50:19.789602,-169.0
2023-08-15 17:50:19.797291,-164.0
2023-08-15 17:50:19.804981,-161.0
2023-08-15 17:50:19.812671,-157.0
2023-08-15 17:50:19.820360,-152.0
2023-08-15 17:50:19.828050,-147.0
2023-08-15 17:50:19.835739,-140.0
2023-08-15 17:50:19.843429,-130.0
2023-08-15 17:50:19.851119,-123.0
2023-08-15 17:50:19.858808,-121.0
2023-08-15 17:50:19.866498,-119.0
2023-08-15 17:50:19.874187,-111.0
2023-08-15 17:50:19.881877,-107.0
2023-08-15 17:50:19.889567,-104.0
2023-08-15 17:50:19.897256,-99.0
2023-08-15 17:50:19.904946,-95.0
2023-08-15 17:50:19.912636,-95.0
2023-08-15 17:50:19.920325,-95.0
2023-08-15 17:50:19.928015,-92.0
2023-08-15 17:50:19.935704,-90.0
2023-08-15 17:50:19.943394,-90.0
2023-08-15 17:50:19.951084,-90.0
2023-08-15 17:50:19.958773,-90.0
2023-08-15 17:50:19.966463,-90.0
2023-08-15 17:50:19.974152,-92.0
2023-08-15 17:50:19.981842,-90.0
2023-08-15 17:50:19.989532,-88.0
2023-08-15 17:50:19.997221,-90.0
2023-08-15 17:50:20.004911,-95.0
2023-08-15 17:50:20.012601,-97.0
2023-08-15 17:50:20.020290,-95.0
2023-08-15 17:50:20.027980,-90.0
2023-08-15 17:50:20.035669,-88.0
2023-08-15 17:50:20.043359,-85.0
2023-08-15 17:50:20.051049,-80.0
2023-08-15 17:50:20.058738,-69.0
2023-08-15 17:50:20.066428,-59.0
2023-08-15 17:50:20.074117,-49.0
2023-08-15 17:50:20.081807,-42.0
2023-08-15 17:50:20.089497,-42.0
2023-08-15 17:50:20.097186,-49.0
2023-08-15 17:50:20.104876,-71.0
2023-08-15 17:50:20.112566,-95.0
2023-08-15 17:50:20.120255,-99.0
2023-08-15 17:50:20.127945,-92.0
2023-08-15 17:50:20.135634,-97.0
2023-08-15 17:50:20.143324,-104.0
2023-08-15 17:50:20.151014,-90.0
2023-08-15 17:50:20.158703,-16.0
2023-08-15 17:50:20.166393,197.0
2023-08-15 17:50:20.174082,476.0
2023-08-15 17:50:20.181772,457.0
2023-08-15 17:50:20.189462,-11.0
2023-08-15 17:50:20.197151,-511.0
2023-08-15 17:50:20.204841,-545.0
2023-08-15 17:50:20.212531,-226.0
2023-08-15 17:50:20.220220,-61.0
2023-08-15 17:50:20.227910,-92.0
2023-08-15 17:50:20.235599,-83.0
2023-08-15 17:50:20.243289,-54.0
2023-08-15 17:50:20.250979,-66.0
2023-08-15 17:50:20.258668,-66.0
2023-08-15 17:50:20.266358,-54.0
2023-08-15 17:50:20.274047,-59.0
2023-08-15 17:50:20.281737,-52.0
2023-08-15 17:50:20.289427,-30.0
2023-08-15 17:50:20.297116,-16.0
2023-08-15 17:50:20.304806,-4.0
2023-08-15 17:50:20.312496,9.0
2023-08-15 17:50:20.320185,23.0
2023-08-15 17:50:20.327875,40.0
2023-08-15 17:50:20.335564,59.0
2023-08-15 17:50:20.343254,85.0
2023-08-15 17:50:20.350944,109.0
2023-08-15 17:50:20.358633,123.0
2023-08-15 17:50:20.366323,140.0
2023-08-15 17:50:20.374012,161.0
2023-08-15 17:50:20.381702,166.0
2023-08-15 17:50:20.389392,166.0
2023-08-15 17:50:20.397081,166.0
2023-08-15 17:50:20.404771,154.0
2023-08-15 17:50:20.412461,123.0
2023-08-15 17:50:20.420150,78.0
2023-08-15 17:50:20.427840,26.0
2023-08-15 17:50:20.435529,-28.0
2023-08-15 17:50:20.443219,-73.0
2023-08-15 17:50:20.450909,-104.0
2023-08-15 17:50:20.458598,-126.0
2023-08-15 17:50:20.466288,-140.0
2023-08-15 17:50:20.473977,-147.0
2023-08-15 17:50:20.481667,-149.0
2023-08-15 17:50:20.489357,-147.0
2023-08-15 17:50:20.497046,-145.0
2023-08-15 17:50:20.504736,-147.0
2023-08-15 17:50:20.512426,-149.0
2023-08-15 17:50:20.520115,-142.0
2023-08-15 17:50:20.527805,-135.0
2023-08-15 17:50:20.535494,-130.0
2023-08-15 17:50:20.543184,-126.0
2023-08-15 17:50:20.550874,-119.0
2023-08-15 17:50:20.558563,-114.0
2023-08-15 17:50:20.566253,-109.0
2023-08-15 17:50:20.573942,-104.0
2023-08-15 17:50:20.581632,-99.0
2023-08-15 17:50:20.589322,-95.0
2023-08-15 17:50:20.597011,-90.0
2023-08-15 17:50:20.604701,-90.0
2023-08-15 17:50:20.612391,-90.0
2023-08-15 17:50:20.620080,-88.0
2023-08-15 17:50:20.627770,-90.0
2023-08-15 17:50:20.635459,-99.0
2023-08-15 17:50:20.643149,-102.0
2023-08-15 17:50:20.650839,-95.0
2023-08-15 17:50:20.658528,-99.0
2023-08-15 17:50:20.666218,-102.0
2023-08-15 17:50:20.673907,-104.0
2023-08-15 17:50:20.681597,-109.0
2023-08-15 17:50:20.689287,-104.0
2023-08-15 17:50:20.696976,-97.0
2023-08-15 17:50:20.704666,-97.0
2023-08-15 17:50:20.712356,-99.0
2023-08-15 17:50:20.720045,-102.0
2023-08-15 17:50:20.727735,-109.0
2023-08-15 17:50:20.735424,-97.0
2023-08-15 17:50:20.743114,-80.0
2023-08-15 17:50:20.750804,-78.0
2023-08-15 17:50:20.758493,-78.0
2023-08-15 17:50:20.766183,-61.0
2023-08-15 17:50:20.773872,-49.0
2023-08-15 17:50:20.781562,-57.0
2023-08-15 17:50:20.789252,-78.0
2023-08-15 17:50:20.796941,-99.0
2023-08-15 17:50:20.804631,-99.0
2023-08-15 17:50:20.812321,-90.0
2023-08-15 17:50:20.820010,-92.0
2023-08-15 17:50:20.827700,-90.0
2023-08-15 17:50:20.835389,-54.0
2023-08-15 17:50:20.843079,83.0
2023-08-15 17:50:20.850769,359.0
2023-08-15 17:50:20.858458,571.0
2023-08-15 17:50:20.866148,364.0
2023-08-15 17:50:20.873837,-209.0
2023-08-15 17:50:20.881527,-568.0
2023-08-15 17:50:20.889217,-418.0
2023-08-15 17:50:20.896906,-142.0
2023-08-15 17:50:20.904596,-78.0
2023-08-15 17:50:20.912286,-90.0
2023-08-15 17:50:20.919975,-61.0
2023-08-15 17:50:20.927665,-54.0
2023-08-15 17:50:20.935354,-64.0
2023-08-15 17:50:20.943044,-57.0
2023-08-15 17:50:20.950734,-45.0
2023-08-15 17:50:20.958423,-38.0
2023-08-15 17:50:20.966113,-21.0
2023-08-15 17:50:20.973802,-7.0
2023-08-15 17:50:20.981492,2.0
2023-08-15 17:50:20.989182,11.0
2023-08-15 17:50:20.996871,26.0
2023-08-15 17:50:21.004561,40.0
2023-08-15 17:50:21.012251,49.0
2023-08-15 17:50:21.019940,64.0
2023-08-15 17:50:21.027630,88.0
2023-08-15 17:50:21.035319,109.0
2023-08-15 17:50:21.043009,126.0
2023-08-15 17:50:21.050699,147.0
2023-08-15 17:50:21.058388,161.0
2023-08-15 17:50:21.066078,169.0
2023-08-15 17:50:21.073767,169.0
2023-08-15 17:50:21.081457,157.0
2023-08-15 17:50:21.089147,133.0
2023-08-15 17:50:21.096836,97.0
2023-08-15 17:50:21.104526,47.0
2023-08-15 17:50:21.112216,-4.0
2023-08-15 17:50:21.119905,-52.0
2023-08-15 17:50:21.127595,-90.0
2023-08-15 17:50:21.135284,-116.0
2023-08-15 17:50:21.142974,-130.0
2023-08-15 17:50:21.150664,-140.0
2023-08-15 17:50:21.158353,-142.0
2023-08-15 17:50:21.166043,-145.0
2023-08-15 17:50:21.173732,-145.0
2023-08-15 17:50:21.181422,-140.0
2023-08-15 17:50:21.189112,-135.0
2023-08-15 17:50:21.196801,-128.0
2023-08-15 17:50:21.204491,-121.0
2023-08-15 17:50:21.212181,-123.0
2023-08-15 17:50:21.219870,-126.0
2023-08-15 17:50:21.227560,-119.0
2023-08-15 17:50:21.235249,-109.0
2023-08-15 17:50:21.242939,-107.0
2023-08-15 17:50:21.250629,-107.0
2023-08-15 17:50:21.258318,-104.0
2023-08-15 17:50:21.266008,-102.0
2023-08-15 17:50:21.273697,-97.0
2023-08-15 17:50:21.281387,-92.0
2023-08-15 17:50:21.289077,-90.0
2023-08-15 17:50:21.296766,-88.0
2023-08-15 17:50:21.304456,-88.0
2023-08-15 17:50:21.312146,-90.0
2023-08-15 17:50:21.319835,-88.0
2023-08-15 17:50:21.327525,-83.0
2023-08-15 17:50:21.335214,-85.0
2023-08-15 17:50:21.342904,-88.0
2023-08-15 17:50:21.350594,-85.0
2023-08-15 17:50:21.358283,-85.0
2023-08-15 17:50:21.365973,-83.0
2023-08-15 17:50:21.373662,-78.0
2023-08-15 17:50:21.381352,-76.0
2023-08-15 17:50:21.389042,-71.0
2023-08-15 17:50:21.396731,-73.0
2023-08-15 17:50:21.404421,-73.0
2023-08-15 17:50:21.412111,-61.0
2023-08-15 17:50:21.419800,-54.0
2023-08-15 17:50:21.427490,-52.0
2023-08-15 17:50:21.435179,-38.0
2023-08-15 17:50:21.442869,-19.0
2023-08-15 17:50:21.450559,-19.0
2023-08-15 17:50:21.458248,-33.0
2023-08-15 17:50:21.465938,-54.0
2023-08-15 17:50:21.473627,-71.0
2023-08-15 17:50:21.481317,-69.0
2023-08-15 17:50:21.489007,-66.0
2023-08-15 17:50:21.496696,-71.0
2023-08-15 17:50:21.504386,-69.0
2023-08-15 17:50:21.512076,-23.0
2023-08-15 17:50:21.519765,145.0
2023-08-15 17:50:21.527455,433.0
2023-08-15 17:50:21.535144,549.0
2023-08-15 17:50:21.542834,192.0
2023-08-15 17:50:21.550524,-388.0
2023-08-15 17:50:21.558213,-592.0
2023-08-15 17:50:21.565903,-307.0
2023-08-15 17:50:21.573592,-59.0
2023-08-15 17:50:21.581282,-71.0
2023-08-15 17:50:21.588972,-90.0
2023-08-15 17:50:21.596661,-49.0
2023-08-15 17:50:21.604351,-47.0
2023-08-15 17:50:21.612041,-57.0
2023-08-15 17:50:21.619730,-45.0
2023-08-15 17:50:21.627420,-38.0
2023-08-15 17:50:21.635109,-30.0
2023-08-15 17:50:21.642799,-16.0
2023-08-15 17:50:21.650489,-7.0
2023-08-15 17:50:21.658178,4.0
2023-08-15 17:50:21.665868,21.0
2023-08-15 17:50:21.673557,40.0
2023-08-15 17:50:21.681247,57.0
2023-08-15 17:50:21.688937,71.0
2023-08-15 17:50:21.696626,90.0
2023-08-15 17:50:21.704316,109.0
2023-08-15 17:50:21.712006,133.0
2023-08-15 17:50:21.719695,154.0
2023-08-15 17:50:21.727385,173.0
2023-08-15 17:50:21.735074,185.0
2023-08-15 17:50:21.742764,185.0
2023-08-15 17:50:21.750454,171.0
2023-08-15 17:50:21.758143,152.0
2023-08-15 17:50:21.765833,123.0
2023-08-15 17:50:21.773522,85.0
2023-08-15 17:50:21.781212,30.0
2023-08-15 17:50:21.788902,-23.0
2023-08-15 17:50:21.796591,-66.0
2023-08-15 17:50:21.804281,-102.0
2023-08-15 17:50:21.811971,-128.0
2023-08-15 17:50:21.819660,-142.0
2023-08-15 17:50:21.827350,-152.0
2023-08-15 17:50:21.835039,-154.0
2023-08-15 17:50:21.842729,-154.0
2023-08-15 17:50:21.850419,-149.0
2023-08-15 17:50:21.858108,-145.0
2023-08-15 17:50:21.865798,-140.0
2023-08-15 17:50:21.873487,-133.0
2023-08-15 17:50:21.881177,-126.0
2023-08-15 17:50:21.888867,-116.0
2023-08-15 17:50:21.896556,-109.0
2023-08-15 17:50:21.904246,-104.0
2023-08-15 17:50:21.911936,-99.0
2023-08-15 17:50:21.919625,-95.0
2023-08-15 17:50:21.927315,-92.0
2023-08-15 17:50:21.935004,-92.0
2023-08-15 17:50:21.942694,-90.0
2023-08-15 17:50:21.950384,-85.0
2023-08-15 17:50:21.958073,-83.0
2023-08-15 17:50:21.965763,-78.0
2023-08-15 17:50:21.973452,-76.0
2023-08-15 17:50:21.981142,-71.0
2023-08-15 17:50:21.988832,-71.0
2023-08-15 17:50:21.996521,-73.0
2023-08-15 17:50:22.004211,-73.0
2023-08-15 17:50:22.011901,-73.0
2023-08-15 17:50:22.019590,-80.0
2023-08-15 17:50:22.027280,-88.0
2023-08-15 17:50:22.034969,-88.0
2023-08-15 17:50:22.042659,-85.0
2023-08-15 17:50:22.050349,-85.0
2023-08-15 17:50:22.058038,-80.0
2023-08-15 17:50:22.065728,-78.0
2023-08-15 17:50:22.073417,-76.0
2023-08-15 17:50:22.081107,-73.0
2023-08-15 17:50:22.088797,-71.0
2023-08-15 17:50:22.096486,-64.0
2023-08-15 17:50:22.104176,-52.0
2023-08-15 17:50:22.111866,-47.0
2023-08-15 17:50:22.119555,-38.0
2023-08-15 17:50:22.127245,-19.0
2023-08-15 17:50:22.134934,-14.0
2023-08-15 17:50:22.142624,-28.0
2023-08-15 17:50:22.150314,-52.0
2023-08-15 17:50:22.158003,-76.0
2023-08-15 17:50:22.165693,-80.0
2023-08-15 17:50:22.173382,-73.0
2023-08-15 17:50:22.181072,-71.0
2023-08-15 17:50:22.188762,-73.0
2023-08-15 17:50:22.196451,-35.0
2023-08-15 17:50:22.204141,114.0
2023-08-15 17:50:22.211831,397.0
2023-08-15 17:50:22.219520,561.0
2023-08-15 17:50:22.227210,276.0
2023-08-15 17:50:22.234899,-304.0
2023-08-15 17:50:22.242589,-592.0
2023-08-15 17:50:22.250279,-364.0
2023-08-15 17:50:22.257968,-76.0
2023-08-15 17:50:22.265658,-57.0
2023-08-15 17:50:22.273347,-95.0
2023-08-15 17:50:22.281037,-54.0
2023-08-15 17:50:22.288727,-40.0
2023-08-15 17:50:22.296416,-54.0
2023-08-15 17:50:22.304106,-42.0
2023-08-15 17:50:22.311796,-30.0
2023-08-15 17:50:22.319485,-28.0
2023-08-15 17:50:22.327175,-19.0
2023-08-15 17:50:22.334864,-9.0
2023-08-15 17:50:22.342554,-11.0
2023-08-15 17:50:22.350244,-4.0
2023-08-15 17:50:22.357933,16.0
2023-08-15 17:50:22.365623,33.0
2023-08-15 17:50:22.373312,47.0
2023-08-15 17:50:22.381002,69.0
2023-08-15 17:50:22.388692,92.0
2023-08-15 17:50:22.396381,114.0
2023-08-15 17:50:22.404071,135.0
2023-08-15 17:50:22.411761,149.0
2023-08-15 17:50:22.419450,161.0
2023-08-15 17:50:22.427140,169.0
2023-08-15 17:50:22.434829,169.0
2023-08-15 17:50:22.442519,161.0
2023-08-15 17:50:22.450209,140.0
2023-08-15 17:50:22.457898,99.0
2023-08-15 17:50:22.465588,49.0
2023-08-15 17:50:22.473277,-7.0
2023-08-15 17:50:22.480967,-54.0
2023-08-15 17:50:22.488657,-90.0
2023-08-15 17:50:22.496346,-114.0
2023-08-15 17:50:22.504036,-130.0
2023-08-15 17:50:22.511726,-140.0
2023-08-15 17:50:22.519415,-142.0
2023-08-15 17:50:22.527105,-147.0
2023-08-15 17:50:22.534794,-147.0
2023-08-15 17:50:22.542484,-142.0
2023-08-15 17:50:22.550174,-130.0
2023-08-15 17:50:22.557863,-126.0
2023-08-15 17:50:22.565553,-121.0
2023-08-15 17:50:22.573242,-114.0
2023-08-15 17:50:22.580932,-107.0
2023-08-15 17:50:22.588622,-99.0
2023-08-15 17:50:22.596311,-95.0
2023-08-15 17:50:22.604001,-95.0
2023-08-15 17:50:22.611691,-90.0
2023-08-15 17:50:22.619380,-83.0
2023-08-15 17:50:22.627070,-78.0
2023-08-15 17:50:22.634759,-73.0
2023-08-15 17:50:22.642449,-69.0
2023-08-15 17:50:22.650139,-66.0
2023-08-15 17:50:22.657828,-66.0
2023-08-15 17:50:22.665518,-64.0
2023-08-15 17:50:22.673207,-61.0
2023-08-15 17:50:22.680897,-59.0
2023-08-15 17:50:22.688587,-59.0
2023-08-15 17:50:22.696276,-61.0
2023-08-15 17:50:22.703966,-61.0
2023-08-15 17:50:22.711656,-59.0
2023-08-15 17:50:22.719345,-59.0
2023-08-15 17:50:22.727035,-59.0
2023-08-15 17:50:22.734724,-61.0
2023-08-15 17:50:22.742414,-59.0
2023-08-15 17:50:22.750104,-57.0
2023-08-15 17:50:22.757793,-52.0
2023-08-15 17:50:22.765483,-47.0
2023-08-15 17:50:22.773172,-47.0
2023-08-15 17:50:22.780862,-45.0
2023-08-15 17:50:22.788552,-35.0
2023-08-15 17:50:22.796241,-26.0
2023-08-15 17:50:22.803931,-21.0
2023-08-15 17:50:22.811621,-7.0
2023-08-15 17:50:22.819310,4.0
2023-08-15 17:50:22.827000,7.0
2023-08-15 17:50:22.834689,-11.0
2023-08-15 17:50:22.842379,-40.0
2023-08-15 17:50:22.850069,-57.0
2023-08-15 17:50:22.857758,-52.0
2023-08-15 17:50:22.865448,-49.0
2023-08-15 17:50:22.873137,-57.0
2023-08-15 17:50:22.880827,-59.0
2023-08-15 17:50:22.888517,-19.0
2023-08-15 17:50:22.896206,149.0
2023-08-15 17:50:22.903896,440.0
2023-08-15 17:50:22.911586,557.0
2023-08-15 17:50:22.919275,214.0
2023-08-15 17:50:22.926965,-352.0
2023-08-15 17:50:22.934654,-568.0
2023-08-15 17:50:22.942344,-304.0
2023-08-15 17:50:22.950034,-49.0
2023-08-15 17:50:22.957723,-57.0
2023-08-15 17:50:22.965413,-83.0
2023-08-15 17:50:22.973102,-47.0
2023-08-15 17:50:22.980792,-45.0
2023-08-15 17:50:22.988482,-54.0
2023-08-15 17:50:22.996171,-40.0
2023-08-15 17:50:23.003861,-28.0
2023-08-15 17:50:23.011551,-26.0
2023-08-15 17:50:23.019240,-16.0
2023-08-15 17:50:23.026930,-2.0
2023-08-15 17:50:23.034619,7.0
2023-08-15 17:50:23.042309,11.0
2023-08-15 17:50:23.049999,23.0
2023-08-15 17:50:23.057688,40.0
2023-08-15 17:50:23.065378,54.0
2023-08-15 17:50:23.073067,76.0
2023-08-15 17:50:23.080757,97.0
2023-08-15 17:50:23.088447,114.0
2023-08-15 17:50:23.096136,138.0
2023-08-15 17:50:23.103826,159.0
2023-08-15 17:50:23.111516,169.0
2023-08-15 17:50:23.119205,173.0
2023-08-15 17:50:23.126895,173.0
2023-08-15 17:50:23.134584,164.0
2023-08-15 17:50:23.142274,138.0
2023-08-15 17:50:23.149964,92.0
2023-08-15 17:50:23.157653,35.0
2023-08-15 17:50:23.165343,-16.0
2023-08-15 17:50:23.173032,-57.0
2023-08-15 17:50:23.180722,-92.0
2023-08-15 17:50:23.188412,-116.0
2023-08-15 17:50:23.196101,-130.0
2023-08-15 17:50:23.203791,-142.0
2023-08-15 17:50:23.211481,-147.0
2023-08-15 17:50:23.219170,-147.0
2023-08-15 17:50:23.226860,-145.0
2023-08-15 17:50:23.234549,-145.0
2023-08-15 17:50:23.242239,-145.0
2023-08-15 17:50:23.249929,-138.0
2023-08-15 17:50:23.257618,-128.0
2023-08-15 17:50:23.265308,-121.0
2023-08-15 17:50:23.272997,-121.0
2023-08-15 17:50:23.280687,-121.0
2023-08-15 17:50:23.288377,-111.0
2023-08-15 17:50:23.296066,-102.0
2023-08-15 17:50:23.303756,-99.0
2023-08-15 17:50:23.311446,-97.0
2023-08-15 17:50:23.319135,-92.0
2023-08-15 17:50:23.326825,-92.0
2023-08-15 17:50:23.334514,-97.0
2023-08-15 17:50:23.342204,-95.0
2023-08-15 17:50:23.349894,-90.0
2023-08-15 17:50:23.357583,-92.0
2023-08-15 17:50:23.365273,-90.0
2023-08-15 17:50:23.372962,-90.0
2023-08-15 17:50:23.380652,-92.0
2023-08-15 17:50:23.388342,-97.0
2023-08-15 17:50:23.396031,-99.0
2023-08-15 17:50:23.403721,-97.0
2023-08-15 17:50:23.411411,-99.0
2023-08-15 17:50:23.419100,-99.0
2023-08-15 17:50:23.426790,-97.0
2023-08-15 17:50:23.434479,-97.0
2023-08-15 17:50:23.442169,-97.0
2023-08-15 17:50:23.449859,-95.0
2023-08-15 17:50:23.457548,-95.0
2023-08-15 17:50:23.465238,-97.0
2023-08-15 17:50:23.472927,-97.0
2023-08-15 17:50:23.480617,-88.0
2023-08-15 17:50:23.488307,-78.0
2023-08-15 17:50:23.495996,-66.0
2023-08-15 17:50:23.503686,-59.0
2023-08-15 17:50:23.511376,-66.0
2023-08-15 17:50:23.519065,-90.0
2023-08-15 17:50:23.526755,-114.0
2023-08-15 17:50:23.534444,-126.0
2023-08-15 17:50:23.542134,-123.0
2023-08-15 17:50:23.549824,-123.0
2023-08-15 17:50:23.557513,-133.0
2023-08-15 17:50:23.565203,-119.0
2023-08-15 17:50:23.572892,-40.0
2023-08-15 17:50:23.580582,176.0
2023-08-15 17:50:23.588272,466.0
2023-08-15 17:50:23.595961,485.0
2023-08-15 17:50:23.603651,30.0
2023-08-15 17:50:23.611341,-499.0
2023-08-15 17:50:23.619030,-578.0
2023-08-15 17:50:23.626720,-290.0
2023-08-15 17:50:23.634409,-119.0
2023-08-15 17:50:23.642099,-133.0
2023-08-15 17:50:23.649789,-126.0
2023-08-15 17:50:23.657478,-102.0
2023-08-15 17:50:23.665168,-109.0
2023-08-15 17:50:23.672857,-104.0
2023-08-15 17:50:23.680547,-90.0
2023-08-15 17:50:23.688237,-85.0
2023-08-15 17:50:23.695926,-76.0
2023-08-15 17:50:23.703616,-57.0
2023-08-15 17:50:23.711306,-49.0
2023-08-15 17:50:23.718995,-45.0
2023-08-15 17:50:23.726685,-30.0
2023-08-15 17:50:23.734374,-14.0
2023-08-15 17:50:23.742064,4.0
2023-08-15 17:50:23.749754,21.0
2023-08-15 17:50:23.757443,40.0
2023-08-15 17:50:23.765133,59.0
2023-08-15 17:50:23.772822,78.0
2023-08-15 17:50:23.780512,95.0
2023-08-15 17:50:23.788202,109.0
2023-08-15 17:50:23.795891,114.0
2023-08-15 17:50:23.803581,116.0
2023-08-15 17:50:23.811271,111.0
2023-08-15 17:50:23.818960,97.0
2023-08-15 17:50:23.826650,69.0
2023-08-15 17:50:23.834339,28.0
2023-08-15 17:50:23.842029,-26.0
2023-08-15 17:50:23.849719,-78.0
2023-08-15 17:50:23.857408,-121.0
2023-08-15 17:50:23.865098,-152.0
2023-08-15 17:50:23.872787,-178.0
2023-08-15 17:50:23.880477,-192.0
2023-08-15 17:50:23.888167,-192.0
2023-08-15 17:50:23.895856,-192.0
2023-08-15 17:50:23.903546,-190.0
2023-08-15 17:50:23.911236,-188.0
2023-08-15 17:50:23.918925,-183.0
2023-08-15 17:50:23.926615,-176.0
2023-08-15 17:50:23.934304,-166.0
2023-08-15 17:50:23.941994,-161.0
2023-08-15 17:50:23.949684,-159.0
2023-08-15 17:50:23.957373,-154.0
2023-08-15 17:50:23.965063,-147.0
2023-08-15 17:50:23.972752,-142.0
2023-08-15 17:50:23.980442,-140.0
2023-08-15 17:50:23.988132,-138.0
2023-08-15 17:50:23.995821,-133.0
2023-08-15 17:50:24.003511,-138.0
2023-08-15 17:50:24.011201,-140.0
2023-08-15 17:50:24.018890,-135.0
2023-08-15 17:50:24.026580,-133.0
2023-08-15 17:50:24.034269,-135.0
2023-08-15 17:50:24.041959,-140.0
2023-08-15 17:50:24.049649,-145.0
2023-08-15 17:50:24.057338,-145.0
2023-08-15 17:50:24.065028,-145.0
2023-08-15 17:50:24.072717,-147.0
2023-08-15 17:50:24.080407,-147.0
2023-08-15 17:50:24.088097,-142.0
2023-08-15 17:50:24.095786,-142.0
2023-08-15 17:50:24.103476,-142.0
2023-08-15 17:50:24.111166,-138.0
2023-08-15 17:50:24.118855,-133.0
2023-08-15 17:50:24.126545,-133.0
2023-08-15 17:50:24.134234,-133.0
2023-08-15 17:50:24.141924,-130.0
2023-08-15 17:50:24.149614,-121.0
2023-08-15 17:50:24.157303,-116.0
2023-08-15 17:50:24.164993,-114.0
2023-08-15 17:50:24.172682,-99.0
2023-08-15 17:50:24.180372,-83.0
2023-08-15 17:50:24.188062,-83.0
2023-08-15 17:50:24.195751,-97.0
2023-08-15 17:50:24.203441,-121.0
2023-08-15 17:50:24.211131,-138.0
2023-08-15 17:50:24.218820,-133.0
2023-08-15 17:50:24.226510,-130.0
2023-08-15 17:50:24.234199,-135.0
2023-08-15 17:50:24.241889,-126.0
2023-08-15 17:50:24.249579,-59.0
2023-08-15 17:50:24.257268,140.0
2023-08-15 17:50:24.264958,428.0
2023-08-15 17:50:24.272647,480.0
2023-08-15 17:50:24.280337,57.0
2023-08-15 17:50:24.288027,-502.0
2023-08-15 17:50:24.295716,-623.0
2023-08-15 17:50:24.303406,-323.0
2023-08-15 17:50:24.311096,-121.0
2023-08-15 17:50:24.318785,-140.0
2023-08-15 17:50:24.326475,-140.0
2023-08-15 17:50:24.334164,-109.0
2023-08-15 17:50:24.341854,-114.0
2023-08-15 17:50:24.349544,-116.0
2023-08-15 17:50:24.357233,-102.0
2023-08-15 17:50:24.364923,-97.0
2023-08-15 17:50:24.372612,-92.0
2023-08-15 17:50:24.380302,-78.0
2023-08-15 17:50:24.387992,-64.0
2023-08-15 17:50:24.395681,-54.0
2023-08-15 17:50:24.403371,-42.0
2023-08-15 17:50:24.411061,-28.0
2023-08-15 17:50:24.418750,-11.0
2023-08-15 17:50:24.426440,4.0
2023-08-15 17:50:24.434129,26.0
2023-08-15 17:50:24.441819,49.0
2023-08-15 17:50:24.449509,66.0
2023-08-15 17:50:24.457198,80.0
2023-08-15 17:50:24.464888,95.0
2023-08-15 17:50:24.472577,107.0
2023-08-15 17:50:24.480267,111.0
2023-08-15 17:50:24.487957,107.0
2023-08-15 17:50:24.495646,90.0
2023-08-15 17:50:24.503336,61.0
2023-08-15 17:50:24.511026,16.0
2023-08-15 17:50:24.518715,-38.0
2023-08-15 17:50:24.526405,-90.0
2023-08-15 17:50:24.534094,-133.0
2023-08-15 17:50:24.541784,-169.0
2023-08-15 17:50:24.549474,-192.0
2023-08-15 17:50:24.557163,-209.0
2023-08-15 17:50:24.564853,-216.0
2023-08-15 17:50:24.572542,-216.0
2023-08-15 17:50:24.580232,-214.0
2023-08-15 17:50:24.587922,-218.0
2023-08-15 17:50:24.595611,-223.0
2023-08-15 17:50:24.603301,-214.0
2023-08-15 17:50:24.610991,-202.0
2023-08-15 17:50:24.618680,-197.0
2023-08-15 17:50:24.626370,-192.0
2023-08-15 17:50:24.634059,-183.0
2023-08-15 17:50:24.641749,-176.0
2023-08-15 17:50:24.649439,-171.0
2023-08-15 17:50:24.657128,-166.0
2023-08-15 17:50:24.664818,-161.0
2023-08-15 17:50:24.672507,-159.0
2023-08-15 17:50:24.680197,-157.0
2023-08-15 17:50:24.687887,-152.0
2023-08-15 17:50:24.695576,-152.0
2023-08-15 17:50:24.703266,-154.0
2023-08-15 17:50:24.710956,-149.0
2023-08-15 17:50:24.718645,-145.0
2023-08-15 17:50:24.726335,-147.0
2023-08-15 17:50:24.734024,-149.0
2023-08-15 17:50:24.741714,-149.0
2023-08-15 17:50:24.749404,-147.0
2023-08-15 17:50:24.757093,-145.0
2023-08-15 17:50:24.764783,-145.0
2023-08-15 17:50:24.772472,-147.0
2023-08-15 17:50:24.780162,-142.0
2023-08-15 17:50:24.787852,-135.0
2023-08-15 17:50:24.795541,-133.0
2023-08-15 17:50:24.803231,-135.0
2023-08-15 17:50:24.810921,-133.0
2023-08-15 17:50:24.818610,-133.0
2023-08-15 17:50:24.826300,-130.0
2023-08-15 17:50:24.833989,-121.0
2023-08-15 17:50:24.841679,-116.0
2023-08-15 17:50:24.849369,-111.0
2023-08-15 17:50:24.857058,-95.0
2023-08-15 17:50:24.864748,-88.0
2023-08-15 17:50:24.872437,-95.0
2023-08-15 17:50:24.880127,-109.0
2023-08-15 17:50:24.887817,-130.0
2023-08-15 17:50:24.895506,-142.0
2023-08-15 17:50:24.903196,-140.0
2023-08-15 17:50:24.910886,-140.0
2023-08-15 17:50:24.918575,-140.0
2023-08-15 17:50:24.926265,-126.0
2023-08-15 17:50:24.933954,-45.0
2023-08-15 17:50:24.941644,183.0
2023-08-15 17:50:24.949334,454.0
2023-08-15 17:50:24.957023,407.0
2023-08-15 17:50:24.964713,-85.0
2023-08-15 17:50:24.972402,-583.0
2023-08-15 17:50:24.980092,-590.0
2023-08-15 17:50:24.987782,-249.0
2023-08-15 17:50:24.995471,-92.0
2023-08-15 17:50:25.003161,-147.0
2023-08-15 17:50:25.010851,-145.0
2023-08-15 17:50:25.018540,-104.0
2023-08-15 17:50:25.026230,-114.0
2023-08-15 17:50:25.033919,-119.0
2023-08-15 17:50:25.041609,-97.0
2023-08-15 17:50:25.049299,-92.0
2023-08-15 17:50:25.056988,-95.0
2023-08-15 17:50:25.064678,-88.0
2023-08-15 17:50:25.072367,-69.0
2023-08-15 17:50:25.080057,-49.0
2023-08-15 17:50:25.087747,-40.0
2023-08-15 17:50:25.095436,-26.0
2023-08-15 17:50:25.103126,0.0
2023-08-15 17:50:25.110816,16.0
2023-08-15 17:50:25.118505,26.0
2023-08-15 17:50:25.126195,47.0
2023-08-15 17:50:25.133884,61.0
2023-08-15 17:50:25.141574,76.0
2023-08-15 17:50:25.149264,99.0
2023-08-15 17:50:25.156953,109.0
2023-08-15 17:50:25.164643,111.0
2023-08-15 17:50:25.172332,111.0
2023-08-15 17:50:25.180022,92.0
2023-08-15 17:50:25.187712,52.0
2023-08-15 17:50:25.195401,7.0
2023-08-15 17:50:25.203091,-40.0
2023-08-15 17:50:25.210781,-92.0
2023-08-15 17:50:25.218470,-138.0
2023-08-15 17:50:25.226160,-164.0
2023-08-15 17:50:25.233849,-180.0
2023-08-15 17:50:25.241539,-199.0
2023-08-15 17:50:25.249229,-202.0
2023-08-15 17:50:25.256918,-195.0
2023-08-15 17:50:25.264608,-195.0
2023-08-15 17:50:25.272297,-195.0
2023-08-15 17:50:25.279987,-192.0
2023-08-15 17:50:25.287677,-188.0
2023-08-15 17:50:25.295366,-180.0
2023-08-15 17:50:25.303056,-169.0
2023-08-15 17:50:25.310746,-166.0
2023-08-15 17:50:25.318435,-169.0
2023-08-15 17:50:25.326125,-161.0
2023-08-15 17:50:25.333814,-152.0
2023-08-15 17:50:25.341504,-147.0
2023-08-15 17:50:25.349194,-145.0
2023-08-15 17:50:25.356883,-140.0
2023-08-15 17:50:25.364573,-140.0
2023-08-15 17:50:25.372262,-138.0
2023-08-15 17:50:25.379952,-135.0
2023-08-15 17:50:25.387642,-133.0
2023-08-15 17:50:25.395331,-133.0
2023-08-15 17:50:25.403021,-135.0
2023-08-15 17:50:25.410711,-135.0
2023-08-15 17:50:25.418400,-133.0
2023-08-15 17:50:25.426090,-135.0
2023-08-15 17:50:25.433779,-138.0
2023-08-15 17:50:25.441469,-138.0
2023-08-15 17:50:25.449159,-135.0
2023-08-15 17:50:25.456848,-133.0
2023-08-15 17:50:25.464538,-135.0
2023-08-15 17:50:25.472227,-130.0
2023-08-15 17:50:25.479917,-123.0
2023-08-15 17:50:25.487607,-126.0
2023-08-15 17:50:25.495296,-126.0
2023-08-15 17:50:25.502986,-119.0
2023-08-15 17:50:25.510676,-109.0
2023-08-15 17:50:25.518365,-107.0
2023-08-15 17:50:25.526055,-102.0
2023-08-15 17:50:25.533744,-85.0
2023-08-15 17:50:25.541434,-69.0
2023-08-15 17:50:25.549124,-73.0
2023-08-15 17:50:25.556813,-95.0
2023-08-15 17:50:25.564503,-123.0
2023-08-15 17:50:25.572192,-135.0
2023-08-15 17:50:25.579882,-130.0
2023-08-15 17:50:25.587572,-128.0
2023-08-15 17:50:25.595261,-133.0
2023-08-15 17:50:25.602951,-119.0
2023-08-15 17:50:25.610641,-40.0
2023-08-15 17:50:25.618330,171.0
2023-08-15 17:50:25.626020,442.0
2023-08-15 17:50:25.633709,435.0
2023-08-15 17:50:25.641399,-23.0
2023-08-15 17:50:25.649089,-542.0
2023-08-15 17:50:25.656778,-597.0
2023-08-15 17:50:25.664468,-273.0
2023-08-15 17:50:25.672157,-90.0
2023-08-15 17:50:25.679847,-128.0
2023-08-15 17:50:25.687537,-130.0
2023-08-15 17:50:25.695226,-95.0
2023-08-15 17:50:25.702916,-99.0
2023-08-15 17:50:25.710606,-107.0
2023-08-15 17:50:25.718295,-99.0
2023-08-15 17:50:25.725985,-95.0
2023-08-15 17:50:25.733674,-88.0
2023-08-15 17:50:25.741364,-73.0
2023-08-15 17:50:25.749054,-59.0
2023-08-15 17:50:25.756743,-45.0
2023-08-15 17:50:25.764433,-33.0
2023-08-15 17:50:25.772122,-16.0
2023-08-15 17:50:25.779812,2.0
2023-08-15 17:50:25.787502,21.0
2023-08-15 17:50:25.795191,42.0
2023-08-15 17:50:25.802881,64.0
2023-08-15 17:50:25.810571,83.0
2023-08-15 17:50:25.818260,104.0
2023-08-15 17:50:25.825950,121.0
2023-08-15 17:50:25.833639,130.0
2023-08-15 17:50:25.841329,138.0
2023-08-15 17:50:25.849019,133.0
2023-08-15 17:50:25.856708,114.0
2023-08-15 17:50:25.864398,85.0
2023-08-15 17:50:25.872087,45.0
2023-08-15 17:50:25.879777,-7.0
2023-08-15 17:50:25.887467,-57.0
2023-08-15 17:50:25.895156,-97.0
2023-08-15 17:50:25.902846,-126.0
2023-08-15 17:50:25.910536,-145.0
2023-08-15 17:50:25.918225,-159.0
2023-08-15 17:50:25.925915,-171.0
2023-08-15 17:50:25.933604,-173.0
2023-08-15 17:50:25.941294,-171.0
2023-08-15 17:50:25.948984,-169.0
2023-08-15 17:50:25.956673,-166.0
2023-08-15 17:50:25.964363,-157.0
2023-08-15 17:50:25.972052,-152.0
2023-08-15 17:50:25.979742,-147.0
2023-08-15 17:50:25.987432,-140.0
2023-08-15 17:50:25.995121,-133.0
2023-08-15 17:50:26.002811,-128.0
2023-08-15 17:50:26.010501,-123.0
2023-08-15 17:50:26.018190,-119.0
2023-08-15 17:50:26.025880,-114.0
2023-08-15 17:50:26.033569,-107.0
2023-08-15 17:50:26.041259,-104.0
2023-08-15 17:50:26.048949,-102.0
2023-08-15 17:50:26.056638,-99.0
2023-08-15 17:50:26.064328,-102.0
2023-08-15 17:50:26.072017,-107.0
2023-08-15 17:50:26.079707,-102.0
2023-08-15 17:50:26.087397,-97.0
2023-08-15 17:50:26.095086,-95.0
2023-08-15 17:50:26.102776,-95.0
2023-08-15 17:50:26.110466,-99.0
2023-08-15 17:50:26.118155,-107.0
2023-08-15 17:50:26.125845,-107.0
2023-08-15 17:50:26.133534,-102.0
2023-08-15 17:50:26.141224,-99.0
2023-08-15 17:50:26.148914,-97.0
2023-08-15 17:50:26.156603,-95.0
2023-08-15 17:50:26.164293,-90.0
2023-08-15 17:50:26.171982,-92.0
2023-08-15 17:50:26.179672,-92.0
2023-08-15 17:50:26.187362,-83.0
2023-08-15 17:50:26.195051,-78.0
2023-08-15 17:50:26.202741,-76.0
2023-08-15 17:50:26.210431,-61.0
2023-08-15 17:50:26.218120,-45.0
2023-08-15 17:50:26.225810,-45.0
2023-08-15 17:50:26.233499,-59.0
2023-08-15 17:50:26.241189,-80.0
2023-08-15 17:50:26.248879,-99.0
2023-08-15 17:50:26.256568,-102.0
2023-08-15 17:50:26.264258,-99.0
2023-08-15 17:50:26.271947,-99.0
2023-08-15 17:50:26.279637,-88.0
2023-08-15 17:50:26.287327,-7.0
2023-08-15 17:50:26.295016,211.0
2023-08-15 17:50:26.302706,495.0
2023-08-15 17:50:26.310396,502.0
2023-08-15 17:50:26.318085,45.0
2023-08-15 17:50:26.325775,-478.0
2023-08-15 17:50:26.333464,-549.0
2023-08-15 17:50:26.341154,-276.0
2023-08-15 17:50:26.348844,-107.0
2023-08-15 17:50:26.356533,-99.0
2023-08-15 17:50:26.364223,-88.0
2023-08-15 17:50:26.371912,-71.0
2023-08-15 17:50:26.379602,-76.0
2023-08-15 17:50:26.387292,-71.0
2023-08-15 17:50:26.394981,-59.0
2023-08-15 17:50:26.402671,-52.0
2023-08-15 17:50:26.410361,-42.0
2023-08-15 17:50:26.418050,-30.0
2023-08-15 17:50:26.425740,-23.0
2023-08-15 17:50:26.433429,-14.0
2023-08-15 17:50:26.441119,2.0
2023-08-15 17:50:26.448809,21.0
2023-08-15 17:50:26.456498,35.0
2023-08-15 17:50:26.464188,54.0
2023-08-15 17:50:26.471877,73.0
2023-08-15 17:50:26.479567,92.0
2023-08-15 17:50:26.487257,114.0
2023-08-15 17:50:26.494946,135.0
2023-08-15 17:50:26.502636,149.0
2023-08-15 17:50:26.510326,159.0
2023-08-15 17:50:26.518015,161.0
2023-08-15 17:50:26.525705,154.0
2023-08-15 17:50:26.533394,135.0
2023-08-15 17:50:26.541084,111.0
2023-08-15 17:50:26.548774,69.0
2023-08-15 17:50:26.556463,11.0
2023-08-15 17:50:26.564153,-42.0
2023-08-15 17:50:26.571842,-88.0
2023-08-15 17:50:26.579532,-123.0
2023-08-15 17:50:26.587222,-140.0
2023-08-15 17:50:26.594911,-149.0
2023-08-15 17:50:26.602601,-154.0
2023-08-15 17:50:26.610291,-154.0
2023-08-15 17:50:26.617980,-159.0
2023-08-15 17:50:26.625670,-157.0
2023-08-15 17:50:26.633359,-147.0
2023-08-15 17:50:26.641049,-140.0
2023-08-15 17:50:26.648739,-135.0
2023-08-15 17:50:26.656428,-130.0
2023-08-15 17:50:26.664118,-126.0
2023-08-15 17:50:26.671807,-123.0
2023-08-15 17:50:26.679497,-116.0
2023-08-15 17:50:26.687187,-107.0
2023-08-15 17:50:26.694876,-99.0
2023-08-15 17:50:26.702566,-99.0
2023-08-15 17:50:26.710256,-95.0
2023-08-15 17:50:26.717945,-90.0
2023-08-15 17:50:26.725635,-90.0
2023-08-15 17:50:26.733324,-90.0
2023-08-15 17:50:26.741014,-85.0
2023-08-15 17:50:26.748704,-83.0
2023-08-15 17:50:26.756393,-85.0
2023-08-15 17:50:26.764083,-85.0
2023-08-15 17:50:26.771772,-85.0
2023-08-15 17:50:26.779462,-85.0
2023-08-15 17:50:26.787152,-85.0
2023-08-15 17:50:26.794841,-83.0
2023-08-15 17:50:26.802531,-85.0
2023-08-15 17:50:26.810220,-83.0
2023-08-15 17:50:26.817910,-78.0
2023-08-15 17:50:26.825600,-76.0
2023-08-15 17:50:26.833289,-80.0
2023-08-15 17:50:26.840979,-85.0
2023-08-15 17:50:26.848669,-83.0
2023-08-15 17:50:26.856358,-73.0
2023-08-15 17:50:26.864048,-69.0
2023-08-15 17:50:26.871737,-54.0
2023-08-15 17:50:26.879427,-35.0
2023-08-15 17:50:26.887117,-38.0
2023-08-15 17:50:26.894806,-52.0
2023-08-15 17:50:26.902496,-73.0
2023-08-15 17:50:26.910185,-88.0
2023-08-15 17:50:26.917875,-85.0
2023-08-15 17:50:26.925565,-78.0
2023-08-15 17:50:26.933254,-80.0
2023-08-15 17:50:26.940944,-66.0
2023-08-15 17:50:26.948634,26.0
2023-08-15 17:50:26.956323,259.0
2023-08-15 17:50:26.964013,542.0
2023-08-15 17:50:26.971702,530.0
2023-08-15 17:50:26.979392,42.0
2023-08-15 17:50:26.987082,-483.0
2023-08-15 17:50:26.994771,-530.0
2023-08-15 17:50:27.002461,-254.0
2023-08-15 17:50:27.010150,-97.0
2023-08-15 17:50:27.017840,-85.0
2023-08-15 17:50:27.025530,-59.0
2023-08-15 17:50:27.033219,-42.0
2023-08-15 17:50:27.040909,-49.0
2023-08-15 17:50:27.048599,-45.0
2023-08-15 17:50:27.056288,-33.0
2023-08-15 17:50:27.063978,-26.0
2023-08-15 17:50:27.071667,-21.0
2023-08-15 17:50:27.079357,-14.0
2023-08-15 17:50:27.087047,-7.0
2023-08-15 17:50:27.094736,7.0
2023-08-15 17:50:27.102426,23.0
2023-08-15 17:50:27.110115,38.0
2023-08-15 17:50:27.117805,52.0
2023-08-15 17:50:27.125495,73.0
2023-08-15 17:50:27.133184,95.0
2023-08-15 17:50:27.140874,119.0
2023-08-15 17:50:27.148564,142.0
2023-08-15 17:50:27.156253,159.0
2023-08-15 17:50:27.163943,169.0
2023-08-15 17:50:27.171632,176.0
2023-08-15 17:50:27.179322,180.0
2023-08-15 17:50:27.187012,173.0
2023-08-15 17:50:27.194701,152.0
2023-08-15 17:50:27.202391,119.0
2023-08-15 17:50:27.210080,71.0
2023-08-15 17:50:27.217770,19.0
2023-08-15 17:50:27.225460,-28.0
2023-08-15 17:50:27.233149,-69.0
2023-08-15 17:50:27.240839,-97.0
2023-08-15 17:50:27.248529,-119.0
2023-08-15 17:50:27.256218,-128.0
2023-08-15 17:50:27.263908,-133.0
2023-08-15 17:50:27.271597,-133.0
2023-08-15 17:50:27.279287,-133.0
2023-08-15 17:50:27.286977,-128.0
2023-08-15 17:50:27.294666,-126.0
2023-08-15 17:50:27.302356,-121.0
2023-08-15 17:50:27.310045,-114.0
2023-08-15 17:50:27.317735,-107.0
2023-08-15 17:50:27.325425,-102.0
2023-08-15 17:50:27.333114,-97.0
2023-08-15 17:50:27.340804,-92.0
2023-08-15 17:50:27.348494,-88.0
2023-08-15 17:50:27.356183,-83.0
2023-08-15 17:50:27.363873,-78.0
2023-08-15 17:50:27.371562,-76.0
2023-08-15 17:50:27.379252,-71.0
2023-08-15 17:50:27.386942,-71.0
2023-08-15 17:50:27.394631,-69.0
2023-08-15 17:50:27.402321,-71.0
2023-08-15 17:50:27.410010,-73.0
2023-08-15 17:50:27.417700,-76.0
2023-08-15 17:50:27.425390,-83.0
2023-08-15 17:50:27.433079,-88.0
2023-08-15 17:50:27.440769,-83.0
2023-08-15 17:50:27.448459,-80.0
2023-08-15 17:50:27.456148,-83.0
2023-08-15 17:50:27.463838,-83.0
2023-08-15 17:50:27.471527,-80.0
2023-08-15 17:50:27.479217,-80.0
2023-08-15 17:50:27.486907,-78.0
2023-08-15 17:50:27.494596,-73.0
2023-08-15 17:50:27.502286,-71.0
2023-08-15 17:50:27.509975,-69.0
2023-08-15 17:50:27.517665,-66.0
2023-08-15 17:50:27.525355,-64.0
2023-08-15 17:50:27.533044,-54.0
2023-08-15 17:50:27.540734,-52.0
2023-08-15 17:50:27.548424,-49.0
2023-08-15 17:50:27.556113,-33.0
2023-08-15 17:50:27.563803,-16.0
2023-08-15 17:50:27.571492,-19.0
2023-08-15 17:50:27.579182,-38.0
2023-08-15 17:50:27.586872,-64.0
2023-08-15 17:50:27.594561,-78.0
2023-08-15 17:50:27.602251,-71.0
2023-08-15 17:50:27.609940,-66.0
2023-08-15 17:50:27.617630,-66.0
2023-08-15 17:50:27.625320,-54.0
2023-08-15 17:50:27.633009,23.0
2023-08-15 17:50:27.640699,249.0
2023-08-15 17:50:27.648389,528.0
2023-08-15 17:50:27.656078,497.0
2023-08-15 17:50:27.663768,7.0
2023-08-15 17:50:27.671457,-499.0
2023-08-15 17:50:27.679147,-523.0
2023-08-15 17:50:27.686837,-202.0
2023-08-15 17:50:27.694526,-38.0
2023-08-15 17:50:27.702216,-69.0
2023-08-15 17:50:27.709905,-57.0
2023-08-15 17:50:27.717595,-28.0
2023-08-15 17:50:27.725285,-40.0
2023-08-15 17:50:27.732974,-40.0
2023-08-15 17:50:27.740664,-23.0
2023-08-15 17:50:27.748354,-21.0
2023-08-15 17:50:27.756043,-16.0
2023-08-15 17:50:27.763733,0.0
2023-08-15 17:50:27.771422,11.0
2023-08-15 17:50:27.779112,19.0
2023-08-15 17:50:27.786802,30.0
2023-08-15 17:50:27.794491,49.0
2023-08-15 17:50:27.802181,66.0
2023-08-15 17:50:27.809870,85.0
2023-08-15 17:50:27.817560,107.0
2023-08-15 17:50:27.825250,128.0
2023-08-15 17:50:27.832939,147.0
2023-08-15 17:50:27.840629,166.0
2023-08-15 17:50:27.848319,183.0
2023-08-15 17:50:27.856008,192.0
2023-08-15 17:50:27.863698,195.0
2023-08-15 17:50:27.871387,188.0
2023-08-15 17:50:27.879077,171.0
2023-08-15 17:50:27.886767,140.0
2023-08-15 17:50:27.894456,92.0
2023-08-15 17:50:27.902146,30.0
2023-08-15 17:50:27.909835,-26.0
2023-08-15 17:50:27.917525,-71.0
2023-08-15 17:50:27.925215,-111.0
2023-08-15 17:50:27.932904,-133.0
2023-08-15 17:50:27.940594,-138.0
2023-08-15 17:50:27.948284,-145.0
2023-08-15 17:50:27.955973,-147.0
2023-08-15 17:50:27.963663,-145.0
2023-08-15 17:50:27.971352,-142.0
2023-08-15 17:50:27.979042,-142.0
2023-08-15 17:50:27.986732,-138.0
2023-08-15 17:50:27.994421,-130.0
2023-08-15 17:50:28.002111,-121.0
2023-08-15 17:50:28.009800,-114.0
2023-08-15 17:50:28.017490,-111.0
2023-08-15 17:50:28.025180,-102.0
2023-08-15 17:50:28.032869,-92.0
2023-08-15 17:50:28.040559,-88.0
2023-08-15 17:50:28.048249,-88.0
2023-08-15 17:50:28.055938,-80.0
2023-08-15 17:50:28.063628,-76.0
2023-08-15 17:50:28.071317,-73.0
2023-08-15 17:50:28.079007,-69.0
2023-08-15 17:50:28.086697,-69.0
2023-08-15 17:50:28.094386,-73.0
2023-08-15 17:50:28.102076,-73.0
2023-08-15 17:50:28.109765,-69.0
2023-08-15 17:50:28.117455,-69.0
2023-08-15 17:50:28.125145,-71.0
2023-08-15 17:50:28.132834,-66.0
2023-08-15 17:50:28.140524,-69.0
2023-08-15 17:50:28.148214,-73.0
2023-08-15 17:50:28.155903,-71.0
2023-08-15 17:50:28.163593,-66.0
2023-08-15 17:50:28.171282,-66.0
2023-08-15 17:50:28.178972,-66.0
2023-08-15 17:50:28.186662,-61.0
2023-08-15 17:50:28.194351,-59.0
2023-08-15 17:50:28.202041,-57.0
2023-08-15 17:50:28.209730,-54.0
2023-08-15 17:50:28.217420,-45.0
2023-08-15 17:50:28.225110,-35.0
2023-08-15 17:50:28.232799,-30.0
2023-08-15 17:50:28.240489,-21.0
2023-08-15 17:50:28.248179,-4.0
2023-08-15 17:50:28.255868,-4.0
2023-08-15 17:50:28.263558,-19.0
2023-08-15 17:50:28.271247,-42.0
2023-08-15 17:50:28.278937,-59.0
2023-08-15 17:50:28.286627,-59.0
2023-08-15 17:50:28.294316,-54.0
2023-08-15 17:50:28.302006,-52.0
2023-08-15 17:50:28.309695,-52.0
2023-08-15 17:50:28.317385,-7.0
2023-08-15 17:50:28.325075,169.0
2023-08-15 17:50:28.332764,471.0
2023-08-15 17:50:28.340454,592.0
2023-08-15 17:50:28.348144,230.0
2023-08-15 17:50:28.355833,-352.0
2023-08-15 17:50:28.363523,-557.0
2023-08-15 17:50:28.371212,-285.0
2023-08-15 17:50:28.378902,-40.0
2023-08-15 17:50:28.386592,-33.0
2023-08-15 17:50:28.394281,-49.0
2023-08-15 17:50:28.401971,-14.0
2023-08-15 17:50:28.409660,-14.0
2023-08-15 17:50:28.417350,-23.0
2023-08-15 17:50:28.425040,-9.0
2023-08-15 17:50:28.432729,2.0
2023-08-15 17:50:28.440419,7.0
2023-08-15 17:50:28.448109,19.0
2023-08-15 17:50:28.455798,28.0
2023-08-15 17:50:28.463488,30.0
2023-08-15 17:50:28.471177,40.0
2023-08-15 17:50:28.478867,59.0
2023-08-15 17:50:28.486557,76.0
2023-08-15 17:50:28.494246,95.0
2023-08-15 17:50:28.501936,114.0
2023-08-15 17:50:28.509625,133.0
2023-08-15 17:50:28.517315,152.0
2023-08-15 17:50:28.525005,176.0
2023-08-15 17:50:28.532694,195.0
2023-08-15 17:50:28.540384,207.0
2023-08-15 17:50:28.548074,209.0
2023-08-15 17:50:28.555763,207.0
2023-08-15 17:50:28.563453,197.0
2023-08-15 17:50:28.571142,171.0
2023-08-15 17:50:28.578832,130.0
2023-08-15 17:50:28.586522,76.0
2023-08-15 17:50:28.594211,14.0
2023-08-15 17:50:28.601901,-38.0
2023-08-15 17:50:28.609590,-69.0
2023-08-15 17:50:28.617280,-88.0
2023-08-15 17:50:28.624970,-104.0
2023-08-15 17:50:28.632659,-111.0
2023-08-15 17:50:28.640349,-114.0
2023-08-15 17:50:28.648039,-114.0
2023-08-15 17:50:28.655728,-109.0
2023-08-15 17:50:28.663418,-102.0
2023-08-15 17:50:28.671107,-95.0
2023-08-15 17:50:28.678797,-90.0
2023-08-15 17:50:28.686487,-83.0
2023-08-15 17:50:28.694176,-78.0
2023-08-15 17:50:28.701866,-71.0
2023-08-15 17:50:28.709555,-59.0
2023-08-15 17:50:28.717245,-49.0
2023-08-15 17:50:28.724935,-47.0
2023-08-15 17:50:28.732624,-40.0
2023-08-15 17:50:28.740314,-33.0
2023-08-15 17:50:28.748004,-35.0
2023-08-15 17:50:28.755693,-38.0
2023-08-15 17:50:28.763383,-30.0
2023-08-15 17:50:28.771072,-21.0
2023-08-15 17:50:28.778762,-21.0
2023-08-15 17:50:28.786452,-23.0
2023-08-15 17:50:28.794141,-23.0
2023-08-15 17:50:28.801831,-21.0
2023-08-15 17:50:28.809520,-28.0
2023-08-15 17:50:28.817210,-38.0
2023-08-15 17:50:28.824900,-38.0
2023-08-15 17:50:28.832589,-35.0
2023-08-15 17:50:28.840279,-35.0
2023-08-15 17:50:28.847969,-35.0
2023-08-15 17:50:28.855658,-30.0
2023-08-15 17:50:28.863348,-28.0
2023-08-15 17:50:28.871037,-30.0
2023-08-15 17:50:28.878727,-30.0
2023-08-15 17:50:28.886417,-30.0
2023-08-15 17:50:28.894106,-26.0
2023-08-15 17:50:28.901796,-16.0
2023-08-15 17:50:28.909485,-7.0
2023-08-15 17:50:28.917175,2.0
2023-08-15 17:50:28.924865,9.0
2023-08-15 17:50:28.932554,9.0
2023-08-15 17:50:28.940244,-4.0
2023-08-15 17:50:28.947934,-28.0
2023-08-15 17:50:28.955623,-45.0
2023-08-15 17:50:28.963313,-42.0
2023-08-15 17:50:28.971002,-38.0
2023-08-15 17:50:28.978692,-40.0
2023-08-15 17:50:28.986382,-26.0
2023-08-15 17:50:28.994071,42.0
2023-08-15 17:50:29.001761,242.0
2023-08-15 17:50:29.009450,537.0
2023-08-15 17:50:29.017140,576.0
2023-08-15 17:50:29.024830,128.0
2023-08-15 17:50:29.032519,-407.0
2023-08-15 17:50:29.040209,-497.0
2023-08-15 17:50:29.047899,-235.0
2023-08-15 17:50:29.055588,-71.0
2023-08-15 17:50:29.063278,-59.0
2023-08-15 17:50:29.070967,-33.0
2023-08-15 17:50:29.078657,-19.0
2023-08-15 17:50:29.086347,-40.0
2023-08-15 17:50:29.094036,-45.0
2023-08-15 17:50:29.101726,-33.0
2023-08-15 17:50:29.109415,-28.0
2023-08-15 17:50:29.117105,-23.0
2023-08-15 17:50:29.124795,-11.0
2023-08-15 17:50:29.132484,-9.0
2023-08-15 17:50:29.140174,2.0
2023-08-15 17:50:29.147864,21.0
2023-08-15 17:50:29.155553,30.0
2023-08-15 17:50:29.163243,47.0
2023-08-15 17:50:29.170932,69.0
2023-08-15 17:50:29.178622,90.0
2023-08-15 17:50:29.186312,107.0
2023-08-15 17:50:29.194001,126.0
2023-08-15 17:50:29.201691,145.0
2023-08-15 17:50:29.209380,159.0
2023-08-15 17:50:29.217070,166.0
2023-08-15 17:50:29.224760,171.0
2023-08-15 17:50:29.232449,169.0
2023-08-15 17:50:29.240139,152.0
2023-08-15 17:50:29.247829,116.0
2023-08-15 17:50:29.255518,71.0
2023-08-15 17:50:29.263208,14.0
2023-08-15 17:50:29.270897,-42.0
2023-08-15 17:50:29.278587,-90.0
2023-08-15 17:50:29.286277,-126.0
2023-08-15 17:50:29.293966,-154.0
2023-08-15 17:50:29.301656,-169.0
2023-08-15 17:50:29.309345,-173.0
2023-08-15 17:50:29.317035,-180.0
2023-08-15 17:50:29.324725,-185.0
2023-08-15 17:50:29.332414,-180.0
2023-08-15 17:50:29.340104,-180.0
2023-08-15 17:50:29.347794,-178.0
2023-08-15 17:50:29.355483,-171.0
2023-08-15 17:50:29.363173,-166.0
2023-08-15 17:50:29.370862,-161.0
2023-08-15 17:50:29.378552,-159.0
2023-08-15 17:50:29.386242,-154.0
2023-08-15 17:50:29.393931,-149.0
2023-08-15 17:50:29.401621,-145.0
2023-08-15 17:50:29.409310,-140.0
2023-08-15 17:50:29.417000,-135.0
2023-08-15 17:50:29.424690,-133.0
2023-08-15 17:50:29.432379,-130.0
2023-08-15 17:50:29.440069,-128.0
2023-08-15 17:50:29.447759,-126.0
2023-08-15 17:50:29.455448,-128.0
2023-08-15 17:50:29.463138,-130.0
2023-08-15 17:50:29.470827,-130.0
2023-08-15 17:50:29.478517,-130.0
2023-08-15 17:50:29.486207,-133.0
2023-08-15 17:50:29.493896,-133.0
2023-08-15 17:50:29.501586,-135.0
2023-08-15 17:50:29.509275,-133.0
2023-08-15 17:50:29.516965,-133.0
2023-08-15 17:50:29.524655,-135.0
2023-08-15 17:50:29.532344,-135.0
2023-08-15 17:50:29.540034,-133.0
2023-08-15 17:50:29.547724,-128.0
2023-08-15 17:50:29.555413,-121.0
2023-08-15 17:50:29.563103,-119.0
2023-08-15 17:50:29.570792,-109.0
2023-08-15 17:50:29.578482,-95.0
2023-08-15 17:50:29.586172,-88.0
2023-08-15 17:50:29.593861,-97.0
2023-08-15 17:50:29.601551,-119.0
2023-08-15 17:50:29.609240,-140.0
2023-08-15 17:50:29.616930,-142.0
2023-08-15 17:50:29.624620,-140.0
2023-08-15 17:50:29.632309,-149.0
2023-08-15 17:50:29.639999,-147.0
2023-08-15 17:50:29.647689,-99.0
2023-08-15 17:50:29.655378,54.0
2023-08-15 17:50:29.663068,345.0
2023-08-15 17:50:29.670757,535.0
2023-08-15 17:50:29.678447,259.0
2023-08-15 17:50:29.686137,-345.0
2023-08-15 17:50:29.693826,-656.0
2023-08-15 17:50:29.701516,-461.0
2023-08-15 17:50:29.709205,-202.0
2023-08-15 17:50:29.716895,-145.0
2023-08-15 17:50:29.724585,-140.0
2023-08-15 17:50:29.732274,-107.0
2023-08-15 17:50:29.739964,-97.0
2023-08-15 17:50:29.747654,-102.0
2023-08-15 17:50:29.755343,-92.0
2023-08-15 17:50:29.763033,-83.0
2023-08-15 17:50:29.770722,-78.0
2023-08-15 17:50:29.778412,-66.0
2023-08-15 17:50:29.786102,-54.0
2023-08-15 17:50:29.793791,-45.0
2023-08-15 17:50:29.801481,-33.0
2023-08-15 17:50:29.809170,-19.0
2023-08-15 17:50:29.816860,-2.0
2023-08-15 17:50:29.824550,9.0
2023-08-15 17:50:29.832239,26.0
2023-08-15 17:50:29.839929,47.0
2023-08-15 17:50:29.847619,71.0
2023-08-15 17:50:29.855308,90.0
2023-08-15 17:50:29.862998,104.0
2023-08-15 17:50:29.870687,114.0
2023-08-15 17:50:29.878377,123.0
2023-08-15 17:50:29.886067,123.0
2023-08-15 17:50:29.893756,109.0
2023-08-15 17:50:29.901446,80.0
2023-08-15 17:50:29.909135,38.0
2023-08-15 17:50:29.916825,-16.0
2023-08-15 17:50:29.924515,-71.0
2023-08-15 17:50:29.932204,-119.0
2023-08-15 17:50:29.939894,-157.0
2023-08-15 17:50:29.947584,-185.0
2023-08-15 17:50:29.955273,-199.0
2023-08-15 17:50:29.962963,-207.0
2023-08-15 17:50:29.970652,-209.0
2023-08-15 17:50:29.978342,-211.0
2023-08-15 17:50:29.986032,-214.0
2023-08-15 17:50:29.993721,-214.0
2023-08-15 17:50:30.001411,-204.0
2023-08-15 17:50:30.009100,-197.0
2023-08-15 17:50:30.016790,-192.0
2023-08-15 17:50:30.024480,-188.0
2023-08-15 17:50:30.032169,-180.0
2023-08-15 17:50:30.039859,-176.0
2023-08-15 17:50:30.047549,-169.0
2023-08-15 17:50:30.055238,-161.0
2023-08-15 17:50:30.062928,-152.0
2023-08-15 17:50:30.070617,-147.0
2023-08-15 17:50:30.078307,-145.0
2023-08-15 17:50:30.085997,-142.0
2023-08-15 17:50:30.093686,-135.0
2023-08-15 17:50:30.101376,-133.0
2023-08-15 17:50:30.109065,-130.0
2023-08-15 17:50:30.116755,-133.0
2023-08-15 17:50:30.124445,-135.0
2023-08-15 17:50:30.132134,-135.0
2023-08-15 17:50:30.139824,-133.0
2023-08-15 17:50:30.147514,-130.0
2023-08-15 17:50:30.155203,-128.0
2023-08-15 17:50:30.162893,-130.0
2023-08-15 17:50:30.170582,-138.0
2023-08-15 17:50:30.178272,-142.0
2023-08-15 17:50:30.185962,-133.0
2023-08-15 17:50:30.193651,-128.0
2023-08-15 17:50:30.201341,-128.0
2023-08-15 17:50:30.209030,-126.0
2023-08-15 17:50:30.216720,-116.0
2023-08-15 17:50:30.224410,-109.0
2023-08-15 17:50:30.232099,-102.0
2023-08-15 17:50:30.239789,-88.0
2023-08-15 17:50:30.247479,-71.0
2023-08-15 17:50:30.255168,-71.0
2023-08-15 17:50:30.262858,-88.0
2023-08-15 17:50:30.270547,-107.0
2023-08-15 17:50:30.278237,-121.0
2023-08-15 17:50:30.285927,-119.0
2023-08-15 17:50:30.293616,-109.0
2023-08-15 17:50:30.301306,-111.0
2023-08-15 17:50:30.308995,-111.0
2023-08-15 17:50:30.316685,-61.0
2023-08-15 17:50:30.324375,121.0
2023-08-15 17:50:30.332064,423.0
2023-08-15 17:50:30.339754,528.0
2023-08-15 17:50:30.347444,152.0
2023-08-15 17:50:30.355133,-433.0
2023-08-15 17:50:30.362823,-630.0
2023-08-15 17:50:30.370512,-342.0
2023-08-15 17:50:30.378202,-95.0
2023-08-15 17:50:30.385892,-111.0
2023-08-15 17:50:30.393581,-128.0
2023-08-15 17:50:30.401271,-85.0
2023-08-15 17:50:30.408960,-83.0
2023-08-15 17:50:30.416650,-92.0
2023-08-15 17:50:30.424340,-80.0
2023-08-15 17:50:30.432029,-71.0
2023-08-15 17:50:30.439719,-71.0
2023-08-15 17:50:30.447409,-64.0
2023-08-15 17:50:30.455098,-54.0
2023-08-15 17:50:30.462788,-42.0
2023-08-15 17:50:30.470477,-28.0
2023-08-15 17:50:30.478167,-9.0
2023-08-15 17:50:30.485857,4.0
2023-08-15 17:50:30.493546,19.0
2023-08-15 17:50:30.501236,42.0
2023-08-15 17:50:30.508925,66.0
2023-08-15 17:50:30.516615,88.0
2023-08-15 17:50:30.524305,109.0
2023-08-15 17:50:30.531994,126.0
2023-08-15 17:50:30.539684,138.0
2023-08-15 17:50:30.547374,145.0
2023-08-15 17:50:30.555063,142.0
2023-08-15 17:50:30.562753,128.0
2023-08-15 17:50:30.570442,102.0
2023-08-15 17:50:30.578132,54.0
2023-08-15 17:50:30.585822,-2.0
2023-08-15 17:50:30.593511,-59.0
2023-08-15 17:50:30.601201,-104.0
2023-08-15 17:50:30.608890,-142.0
2023-08-15 17:50:30.616580,-171.0
2023-08-15 17:50:30.624270,-183.0
2023-08-15 17:50:30.631959,-190.0
2023-08-15 17:50:30.639649,-192.0
2023-08-15 17:50:30.647339,-190.0
2023-08-15 17:50:30.655028,-188.0
2023-08-15 17:50:30.662718,-185.0
2023-08-15 17:50:30.670407,-180.0
2023-08-15 17:50:30.678097,-176.0
2023-08-15 17:50:30.685787,-169.0
2023-08-15 17:50:30.693476,-161.0
2023-08-15 17:50:30.701166,-157.0
2023-08-15 17:50:30.708855,-152.0
2023-08-15 17:50:30.716545,-149.0
2023-08-15 17:50:30.724235,-149.0
2023-08-15 17:50:30.731924,-147.0
2023-08-15 17:50:30.739614,-140.0
2023-08-15 17:50:30.747304,-138.0
2023-08-15 17:50:30.754993,-142.0
2023-08-15 17:50:30.762683,-147.0
2023-08-15 17:50:30.770372,-142.0
2023-08-15 17:50:30.778062,-138.0
2023-08-15 17:50:30.785752,-135.0
2023-08-15 17:50:30.793441,-133.0
2023-08-15 17:50:30.801131,-135.0
2023-08-15 17:50:30.808820,-135.0
2023-08-15 17:50:30.816510,-133.0
2023-08-15 17:50:30.824200,-133.0
2023-08-15 17:50:30.831889,-140.0
2023-08-15 17:50:30.839579,-140.0
2023-08-15 17:50:30.847269,-135.0
2023-08-15 17:50:30.854958,-135.0
2023-08-15 17:50:30.862648,-135.0
2023-08-15 17:50:30.870337,-128.0
2023-08-15 17:50:30.878027,-119.0
2023-08-15 17:50:30.885717,-114.0
2023-08-15 17:50:30.893406,-109.0
2023-08-15 17:50:30.901096,-92.0
2023-08-15 17:50:30.908785,-78.0
2023-08-15 17:50:30.916475,-80.0
2023-08-15 17:50:30.924165,-92.0
2023-08-15 17:50:30.931854,-111.0
2023-08-15 17:50:30.939544,-130.0
2023-08-15 17:50:30.947234,-128.0
2023-08-15 17:50:30.954923,-121.0
2023-08-15 17:50:30.962613,-119.0
2023-08-15 17:50:30.970302,-114.0
2023-08-15 17:50:30.977992,-73.0
2023-08-15 17:50:30.985682,88.0
2023-08-15 17:50:30.993371,388.0
2023-08-15 17:50:31.001061,537.0
2023-08-15 17:50:31.008750,216.0
2023-08-15 17:50:31.016440,-371.0
2023-08-15 17:50:31.024130,-621.0
2023-08-15 17:50:31.031819,-364.0
2023-08-15 17:50:31.039509,-97.0
2023-08-15 17:50:31.047199,-97.0
2023-08-15 17:50:31.054888,-121.0
2023-08-15 17:50:31.062578,-83.0
2023-08-15 17:50:31.070267,-78.0
2023-08-15 17:50:31.077957,-88.0
2023-08-15 17:50:31.085647,-73.0
2023-08-15 17:50:31.093336,-64.0
2023-08-15 17:50:31.101026,-66.0
2023-08-15 17:50:31.108715,-57.0
2023-08-15 17:50:31.116405,-45.0
2023-08-15 17:50:31.124095,-35.0
2023-08-15 17:50:31.131784,-23.0
2023-08-15 17:50:31.139474,-9.0
2023-08-15 17:50:31.147164,7.0
2023-08-15 17:50:31.154853,23.0
2023-08-15 17:50:31.162543,42.0
2023-08-15 17:50:31.170232,64.0
2023-08-15 17:50:31.177922,88.0
2023-08-15 17:50:31.185612,107.0
2023-08-15 17:50:31.193301,128.0
2023-08-15 17:50:31.200991,140.0
2023-08-15 17:50:31.208680,145.0
2023-08-15 17:50:31.216370,145.0
2023-08-15 17:50:31.224060,133.0
2023-08-15 17:50:31.231749,104.0
2023-08-15 17:50:31.239439,64.0
2023-08-15 17:50:31.247129,7.0
2023-08-15 17:50:31.254818,-54.0
2023-08-15 17:50:31.262508,-102.0
2023-08-15 17:50:31.270197,-138.0
2023-08-15 17:50:31.277887,-164.0
2023-08-15 17:50:31.285577,-176.0
2023-08-15 17:50:31.293266,-188.0
2023-08-15 17:50:31.300956,-202.0
2023-08-15 17:50:31.308645,-199.0
2023-08-15 17:50:31.316335,-190.0
2023-08-15 17:50:31.324025,-190.0
2023-08-15 17:50:31.331714,-192.0
2023-08-15 17:50:31.339404,-192.0
2023-08-15 17:50:31.347094,-192.0
2023-08-15 17:50:31.354783,-183.0
2023-08-15 17:50:31.362473,-173.0
2023-08-15 17:50:31.370162,-166.0
2023-08-15 17:50:31.377852,-164.0
2023-08-15 17:50:31.385542,-157.0
2023-08-15 17:50:31.393231,-152.0
2023-08-15 17:50:31.400921,-147.0
2023-08-15 17:50:31.408610,-140.0
2023-08-15 17:50:31.416300,-135.0
2023-08-15 17:50:31.423990,-135.0
2023-08-15 17:50:31.431679,-133.0
2023-08-15 17:50:31.439369,-126.0
2023-08-15 17:50:31.447059,-123.0
2023-08-15 17:50:31.454748,-123.0
2023-08-15 17:50:31.462438,-126.0
2023-08-15 17:50:31.470127,-126.0
2023-08-15 17:50:31.477817,-123.0
2023-08-15 17:50:31.485507,-123.0
2023-08-15 17:50:31.493196,-123.0
2023-08-15 17:50:31.500886,-121.0
2023-08-15 17:50:31.508575,-119.0
2023-08-15 17:50:31.516265,-116.0
2023-08-15 17:50:31.523955,-116.0
2023-08-15 17:50:31.531644,-111.0
2023-08-15 17:50:31.539334,-107.0
2023-08-15 17:50:31.547024,-109.0
2023-08-15 17:50:31.554713,-107.0
2023-08-15 17:50:31.562403,-97.0
2023-08-15 17:50:31.570092,-92.0
2023-08-15 17:50:31.577782,-85.0
2023-08-15 17:50:31.585472,-73.0
2023-08-15 17:50:31.593161,-64.0
2023-08-15 17:50:31.600851,-64.0
2023-08-15 17:50:31.608540,-69.0
2023-08-15 17:50:31.616230,-85.0
2023-08-15 17:50:31.623920,-109.0
2023-08-15 17:50:31.631609,-114.0
2023-08-15 17:50:31.639299,-104.0
2023-08-15 17:50:31.646989,-104.0
2023-08-15 17:50:31.654678,-104.0
2023-08-15 17:50:31.662368,-76.0
2023-08-15 17:50:31.670057,54.0
2023-08-15 17:50:31.677747,335.0
2023-08-15 17:50:31.685437,564.0
2023-08-15 17:50:31.693126,373.0
2023-08-15 17:50:31.700816,-202.0
2023-08-15 17:50:31.708505,-583.0
2023-08-15 17:50:31.716195,-433.0
2023-08-15 17:50:31.723885,-142.0
2023-08-15 17:50:31.731574,-85.0
2023-08-15 17:50:31.739264,-109.0
2023-08-15 17:50:31.746954,-76.0
2023-08-15 17:50:31.754643,-71.0
2023-08-15 17:50:31.762333,-85.0
2023-08-15 17:50:31.770022,-73.0
2023-08-15 17:50:31.777712,-57.0
2023-08-15 17:50:31.785402,-52.0
2023-08-15 17:50:31.793091,-45.0
2023-08-15 17:50:31.800781,-35.0
2023-08-15 17:50:31.808470,-21.0
2023-08-15 17:50:31.816160,-9.0
2023-08-15 17:50:31.823850,4.0
2023-08-15 17:50:31.831539,23.0
2023-08-15 17:50:31.839229,33.0
2023-08-15 17:50:31.846919,42.0
2023-08-15 17:50:31.854608,66.0
2023-08-15 17:50:31.862298,92.0
2023-08-15 17:50:31.869987,109.0
2023-08-15 17:50:31.877677,123.0
2023-08-15 17:50:31.885367,135.0
2023-08-15 17:50:31.893056,145.0
2023-08-15 17:50:31.900746,145.0
2023-08-15 17:50:31.908435,135.0
2023-08-15 17:50:31.916125,116.0
2023-08-15 17:50:31.923815,76.0
2023-08-15 17:50:31.931504,19.0
2023-08-15 17:50:31.939194,-33.0
2023-08-15 17:50:31.946884,-80.0
2023-08-15 17:50:31.954573,-123.0
2023-08-15 17:50:31.962263,-152.0
2023-08-15 17:50:31.969952,-169.0
2023-08-15 17:50:31.977642,-183.0
2023-08-15 17:50:31.985332,-185.0
2023-08-15 17:50:31.993021,-180.0
2023-08-15 17:50:32.000711,-178.0
2023-08-15 17:50:32.008400,-178.0
2023-08-15 17:50:32.016090,-171.0
2023-08-15 17:50:32.023780,-164.0
2023-08-15 17:50:32.031469,-157.0
2023-08-15 17:50:32.039159,-149.0
2023-08-15 17:50:32.046849,-140.0
2023-08-15 17:50:32.054538,-140.0
2023-08-15 17:50:32.062228,-140.0
2023-08-15 17:50:32.069917,-130.0
2023-08-15 17:50:32.077607,-123.0
2023-08-15 17:50:32.085297,-121.0
2023-08-15 17:50:32.092986,-116.0
2023-08-15 17:50:32.100676,-116.0
2023-08-15 17:50:32.108365,-114.0
2023-08-15 17:50:32.116055,-109.0
2023-08-15 17:50:32.123745,-104.0
2023-08-15 17:50:32.131434,-107.0
2023-08-15 17:50:32.139124,-109.0
2023-08-15 17:50:32.146814,-107.0
2023-08-15 17:50:32.154503,-109.0
2023-08-15 17:50:32.162193,-109.0
2023-08-15 17:50:32.169882,-104.0
2023-08-15 17:50:32.177572,-102.0
2023-08-15 17:50:32.185262,-102.0
2023-08-15 17:50:32.192951,-102.0
2023-08-15 17:50:32.200641,-102.0
2023-08-15 17:50:32.208330,-102.0
2023-08-15 17:50:32.216020,-95.0
2023-08-15 17:50:32.223710,-88.0
2023-08-15 17:50:32.231399,-83.0
2023-08-15 17:50:32.239089,-78.0
2023-08-15 17:50:32.246779,-64.0
2023-08-15 17:50:32.254468,-45.0
2023-08-15 17:50:32.262158,-45.0
2023-08-15 17:50:32.269847,-61.0
2023-08-15 17:50:32.277537,-85.0
2023-08-15 17:50:32.285227,-99.0
2023-08-15 17:50:32.292916,-92.0
2023-08-15 17:50:32.300606,-83.0
2023-08-15 17:50:32.308295,-85.0
2023-08-15 17:50:32.315985,-69.0
2023-08-15 17:50:32.323675,19.0
2023-08-15 17:50:32.331364,247.0
2023-08-15 17:50:32.339054,537.0
2023-08-15 17:50:32.346744,530.0
2023-08-15 17:50:32.354433,33.0
2023-08-15 17:50:32.362123,-511.0
2023-08-15 17:50:32.369812,-554.0
2023-08-15 17:50:32.377502,-249.0
2023-08-15 17:50:32.385192,-95.0
2023-08-15 17:50:32.392881,-107.0
2023-08-15 17:50:32.400571,-85.0
2023-08-15 17:50:32.408260,-61.0
2023-08-15 17:50:32.415950,-71.0
2023-08-15 17:50:32.423640,-66.0
2023-08-15 17:50:32.431329,-47.0
2023-08-15 17:50:32.439019,-38.0
2023-08-15 17:50:32.446709,-26.0
2023-08-15 17:50:32.454398,-14.0
2023-08-15 17:50:32.462088,-7.0
2023-08-15 17:50:32.469777,-4.0
2023-08-15 17:50:32.477467,9.0
2023-08-15 17:50:32.485157,28.0
2023-08-15 17:50:32.492846,42.0
2023-08-15 17:50:32.500536,61.0
2023-08-15 17:50:32.508225,83.0
2023-08-15 17:50:32.515915,102.0
2023-08-15 17:50:32.523605,126.0
2023-08-15 17:50:32.531294,147.0
2023-08-15 17:50:32.538984,164.0
2023-08-15 17:50:32.546674,176.0
2023-08-15 17:50:32.554363,178.0
2023-08-15 17:50:32.562053,171.0
2023-08-15 17:50:32.569742,147.0
2023-08-15 17:50:32.577432,111.0
2023-08-15 17:50:32.585122,59.0
2023-08-15 17:50:32.592811,0.0
2023-08-15 17:50:32.600501,-52.0
2023-08-15 17:50:32.608190,-95.0
2023-08-15 17:50:32.615880,-128.0
2023-08-15 17:50:32.623570,-145.0
2023-08-15 17:50:32.631259,-152.0
2023-08-15 17:50:32.638949,-159.0
2023-08-15 17:50:32.646639,-161.0
2023-08-15 17:50:32.654328,-159.0
2023-08-15 17:50:32.662018,-154.0
2023-08-15 17:50:32.669707,-149.0
2023-08-15 17:50:32.677397,-142.0
2023-08-15 17:50:32.685087,-138.0
2023-08-15 17:50:32.692776,-133.0
2023-08-15 17:50:32.700466,-126.0
2023-08-15 17:50:32.708155,-119.0
2023-08-15 17:50:32.715845,-114.0
2023-08-15 17:50:32.723535,-104.0
2023-08-15 17:50:32.731224,-97.0
2023-08-15 17:50:32.738914,-95.0
2023-08-15 17:50:32.746604,-90.0
2023-08-15 17:50:32.754293,-85.0
2023-08-15 17:50:32.761983,-80.0
2023-08-15 17:50:32.769672,-78.0
2023-08-15 17:50:32.777362,-76.0
2023-08-15 17:50:32.785052,-73.0
2023-08-15 17:50:32.792741,-73.0
2023-08-15 17:50:32.800431,-73.0
2023-08-15 17:50:32.808120,-71.0
2023-08-15 17:50:32.815810,-71.0
2023-08-15 17:50:32.823500,-73.0
2023-08-15 17:50:32.831189,-76.0
2023-08-15 17:50:32.838879,-76.0
2023-08-15 17:50:32.846569,-78.0
2023-08-15 17:50:32.854258,-83.0
2023-08-15 17:50:32.861948,-78.0
2023-08-15 17:50:32.869637,-73.0
2023-08-15 17:50:32.877327,-73.0
2023-08-15 17:50:32.885017,-71.0
2023-08-15 17:50:32.892706,-64.0
2023-08-15 17:50:32.900396,-57.0
2023-08-15 17:50:32.908085,-52.0
2023-08-15 17:50:32.915775,-45.0
2023-08-15 17:50:32.923465,-28.0
2023-08-15 17:50:32.931154,-19.0
2023-08-15 17:50:32.938844,-26.0
2023-08-15 17:50:32.946534,-45.0
2023-08-15 17:50:32.954223,-66.0
2023-08-15 17:50:32.961913,-71.0
2023-08-15 17:50:32.969602,-64.0
2023-08-15 17:50:32.977292,-61.0
2023-08-15 17:50:32.984982,-61.0
2023-08-15 17:50:32.992671,-47.0
2023-08-15 17:50:33.000361,52.0
2023-08-15 17:50:33.008050,309.0
2023-08-15 17:50:33.015740,571.0
2023-08-15 17:50:33.023430,454.0
2023-08-15 17:50:33.031119,-90.0
2023-08-15 17:50:33.038809,-557.0
2023-08-15 17:50:33.046499,-476.0
2023-08-15 17:50:33.054188,-126.0
2023-08-15 17:50:33.061878,-23.0
2023-08-15 17:50:33.069567,-90.0
2023-08-15 17:50:33.077257,-71.0
2023-08-15 17:50:33.084947,-38.0
2023-08-15 17:50:33.092636,-52.0
2023-08-15 17:50:33.100326,-49.0
2023-08-15 17:50:33.108015,-28.0
2023-08-15 17:50:33.115705,-26.0
2023-08-15 17:50:33.123395,-23.0
2023-08-15 17:50:33.131084,-9.0
2023-08-15 17:50:33.138774,4.0
2023-08-15 17:50:33.146464,11.0
2023-08-15 17:50:33.154153,28.0
2023-08-15 17:50:33.161843,47.0
2023-08-15 17:50:33.169532,61.0
2023-08-15 17:50:33.177222,80.0
2023-08-15 17:50:33.184912,104.0
2023-08-15 17:50:33.192601,128.0
2023-08-15 17:50:33.200291,149.0
2023-08-15 17:50:33.207980,169.0
2023-08-15 17:50:33.215670,185.0
2023-08-15 17:50:33.223360,195.0
2023-08-15 17:50:33.231049,197.0
2023-08-15 17:50:33.238739,190.0
2023-08-15 17:50:33.246429,171.0
2023-08-15 17:50:33.254118,135.0
2023-08-15 17:50:33.261808,83.0
2023-08-15 17:50:33.269497,23.0
2023-08-15 17:50:33.277187,-30.0
2023-08-15 17:50:33.284877,-71.0
2023-08-15 17:50:33.292566,-99.0
2023-08-15 17:50:33.300256,-119.0
2023-08-15 17:50:33.307945,-130.0
2023-08-15 17:50:33.315635,-138.0
2023-08-15 17:50:33.323325,-142.0
2023-08-15 17:50:33.331014,-138.0
2023-08-15 17:50:33.338704,-133.0
2023-08-15 17:50:33.346394,-130.0
2023-08-15 17:50:33.354083,-130.0
2023-08-15 17:50:33.361773,-130.0
2023-08-15 17:50:33.369462,-123.0
2023-08-15 17:50:33.377152,-116.0
2023-08-15 17:50:33.384842,-109.0
2023-08-15 17:50:33.392531,-104.0
2023-08-15 17:50:33.400221,-99.0
2023-08-15 17:50:33.407910,-92.0
2023-08-15 17:50:33.415600,-90.0
2023-08-15 17:50:33.423290,-85.0
2023-08-15 17:50:33.430979,-78.0
2023-08-15 17:50:33.438669,-76.0
2023-08-15 17:50:33.446359,-76.0
2023-08-15 17:50:33.454048,-73.0
2023-08-15 17:50:33.461738,-71.0
2023-08-15 17:50:33.469427,-69.0
2023-08-15 17:50:33.477117,-66.0
2023-08-15 17:50:33.484807,-64.0
2023-08-15 17:50:33.492496,-69.0
2023-08-15 17:50:33.500186,-71.0
2023-08-15 17:50:33.507875,-69.0
2023-08-15 17:50:33.515565,-66.0
2023-08-15 17:50:33.523255,-66.0
2023-08-15 17:50:33.530944,-66.0
2023-08-15 17:50:33.538634,-66.0
2023-08-15 17:50:33.546324,-73.0
2023-08-15 17:50:33.554013,-78.0
2023-08-15 17:50:33.561703,-76.0
2023-08-15 17:50:33.569392,-71.0
2023-08-15 17:50:33.577082,-61.0
2023-08-15 17:50:33.584772,-54.0
2023-08-15 17:50:33.592461,-49.0
2023-08-15 17:50:33.600151,-35.0
2023-08-15 17:50:33.607840,-21.0
2023-08-15 17:50:33.615530,-21.0
2023-08-15 17:50:33.623220,-38.0
2023-08-15 17:50:33.630909,-64.0
2023-08-15 17:50:33.638599,-78.0
2023-08-15 17:50:33.646289,-71.0
2023-08-15 17:50:33.653978,-64.0
2023-08-15 17:50:33.661668,-69.0
2023-08-15 17:50:33.669357,-66.0
2023-08-15 17:50:33.677047,-21.0
2023-08-15 17:50:33.684737,145.0
2023-08-15 17:50:33.692426,445.0
2023-08-15 17:50:33.700116,576.0
2023-08-15 17:50:33.707805,240.0
2023-08-15 17:50:33.715495,-342.0
2023-08-15 17:50:33.723185,-576.0
2023-08-15 17:50:33.730874,-304.0
2023-08-15 17:50:33.738564,-38.0
2023-08-15 17:50:33.746254,-47.0
2023-08-15 17:50:33.753943,-78.0
2023-08-15 17:50:33.761633,-35.0
2023-08-15 17:50:33.769322,-30.0
2023-08-15 17:50:33.777012,-47.0
2023-08-15 17:50:33.784702,-30.0
2023-08-15 17:50:33.792391,-19.0
2023-08-15 17:50:33.800081,-19.0
2023-08-15 17:50:33.807770,-11.0
2023-08-15 17:50:33.815460,-4.0
2023-08-15 17:50:33.823150,4.0
2023-08-15 17:50:33.830839,21.0
2023-08-15 17:50:33.838529,38.0
2023-08-15 17:50:33.846219,52.0
2023-08-15 17:50:33.853908,69.0
2023-08-15 17:50:33.861598,83.0
2023-08-15 17:50:33.869287,102.0
2023-08-15 17:50:33.876977,126.0
2023-08-15 17:50:33.884667,149.0
2023-08-15 17:50:33.892356,166.0
2023-08-15 17:50:33.900046,178.0
2023-08-15 17:50:33.907735,180.0
2023-08-15 17:50:33.915425,180.0
2023-08-15 17:50:33.923115,171.0
2023-08-15 17:50:33.930804,145.0
2023-08-15 17:50:33.938494,104.0
2023-08-15 17:50:33.946184,49.0
2023-08-15 17:50:33.953873,-7.0
2023-08-15 17:50:33.961563,-54.0
2023-08-15 17:50:33.969252,-90.0
2023-08-15 17:50:33.976942,-111.0
2023-08-15 17:50:33.984632,-126.0
2023-08-15 17:50:33.992321,-135.0
2023-08-15 17:50:34.000011,-140.0
2023-08-15 17:50:34.007700,-138.0
2023-08-15 17:50:34.015390,-133.0
2023-08-15 17:50:34.023080,-128.0
2023-08-15 17:50:34.030769,-126.0
2023-08-15 17:50:34.038459,-121.0
2023-08-15 17:50:34.046149,-119.0
2023-08-15 17:50:34.053838,-114.0
2023-08-15 17:50:34.061528,-109.0
2023-08-15 17:50:34.069217,-102.0
2023-08-15 17:50:34.076907,-97.0
2023-08-15 17:50:34.084597,-95.0
2023-08-15 17:50:34.092286,-92.0
2023-08-15 17:50:34.099976,-88.0
2023-08-15 17:50:34.107665,-83.0
2023-08-15 17:50:34.115355,-78.0
2023-08-15 17:50:34.123045,-78.0
2023-08-15 17:50:34.130734,-85.0
2023-08-15 17:50:34.138424,-90.0
2023-08-15 17:50:34.146114,-83.0
2023-08-15 17:50:34.153803,-80.0
2023-08-15 17:50:34.161493,-80.0
2023-08-15 17:50:34.169182,-80.0
2023-08-15 17:50:34.176872,-80.0
2023-08-15 17:50:34.184562,-85.0
2023-08-15 17:50:34.192251,-83.0
2023-08-15 17:50:34.199941,-78.0
2023-08-15 17:50:34.207630,-76.0
2023-08-15 17:50:34.215320,-73.0
2023-08-15 17:50:34.223010,-73.0
2023-08-15 17:50:34.230699,-73.0
2023-08-15 17:50:34.238389,-69.0
2023-08-15 17:50:34.246079,-66.0
2023-08-15 17:50:34.253768,-66.0
2023-08-15 17:50:34.261458,-54.0
2023-08-15 17:50:34.269147,-45.0
2023-08-15 17:50:34.276837,-40.0
2023-08-15 17:50:34.284527,-28.0
2023-08-15 17:50:34.292216,-14.0
2023-08-15 17:50:34.299906,-19.0
2023-08-15 17:50:34.307595,-45.0
2023-08-15 17:50:34.315285,-73.0
2023-08-15 17:50:34.322975,-78.0
2023-08-15 17:50:34.330664,-73.0
2023-08-15 17:50:34.338354,-71.0
2023-08-15 17:50:34.346044,-71.0
2023-08-15 17:50:34.353733,-64.0
2023-08-15 17:50:34.361423,-9.0
2023-08-15 17:50:34.369112,178.0
2023-08-15 17:50:34.376802,473.0
2023-08-15 17:50:34.384492,535.0
2023-08-15 17:50:34.392181,119.0
2023-08-15 17:50:34.399871,-437.0
2023-08-15 17:50:34.407560,-561.0
2023-08-15 17:50:34.415250,-249.0
2023-08-15 17:50:34.422940,-38.0
2023-08-15 17:50:34.430629,-73.0
2023-08-15 17:50:34.438319,-85.0
2023-08-15 17:50:34.446009,-49.0
2023-08-15 17:50:34.453698,-57.0
2023-08-15 17:50:34.461388,-59.0
2023-08-15 17:50:34.469077,-40.0
2023-08-15 17:50:34.476767,-35.0
2023-08-15 17:50:34.484457,-33.0
2023-08-15 17:50:34.492146,-19.0
2023-08-15 17:50:34.499836,-9.0
2023-08-15 17:50:34.507525,2.0
2023-08-15 17:50:34.515215,21.0
2023-08-15 17:50:34.522905,33.0
2023-08-15 17:50:34.530594,42.0
2023-08-15 17:50:34.538284,61.0
2023-08-15 17:50:34.545973,80.0
2023-08-15 17:50:34.553663,97.0
2023-08-15 17:50:34.561353,119.0
2023-08-15 17:50:34.569042,142.0
2023-08-15 17:50:34.576732,159.0
2023-08-15 17:50:34.584422,169.0
2023-08-15 17:50:34.592111,176.0
2023-08-15 17:50:34.599801,173.0
2023-08-15 17:50:34.607490,159.0
2023-08-15 17:50:34.615180,130.0
2023-08-15 17:50:34.622870,88.0
2023-08-15 17:50:34.630559,35.0
2023-08-15 17:50:34.638249,-21.0
2023-08-15 17:50:34.645938,-71.0
2023-08-15 17:50:34.653628,-104.0
2023-08-15 17:50:34.661318,-126.0
2023-08-15 17:50:34.669007,-147.0
2023-08-15 17:50:34.676697,-164.0
2023-08-15 17:50:34.684387,-164.0
2023-08-15 17:50:34.692076,-157.0
2023-08-15 17:50:34.699766,-154.0
2023-08-15 17:50:34.707455,-152.0
2023-08-15 17:50:34.715145,-149.0
2023-08-15 17:50:34.722835,-140.0
2023-08-15 17:50:34.730524,-133.0
2023-08-15 17:50:34.738214,-133.0
2023-08-15 17:50:34.745903,-128.0
2023-08-15 17:50:34.753593,-119.0
2023-08-15 17:50:34.761283,-114.0
2023-08-15 17:50:34.768972,-111.0
2023-08-15 17:50:34.776662,-107.0
2023-08-15 17:50:34.784352,-102.0
2023-08-15 17:50:34.792041,-102.0
2023-08-15 17:50:34.799731,-102.0
2023-08-15 17:50:34.807420,-102.0
2023-08-15 17:50:34.815110,-97.0
2023-08-15 17:50:34.822800,-97.0
2023-08-15 17:50:34.830489,-97.0
2023-08-15 17:50:34.838179,-97.0
2023-08-15 17:50:34.845868,-95.0
2023-08-15 17:50:34.853558,-95.0
2023-08-15 17:50:34.861248,-92.0
2023-08-15 17:50:34.868937,-97.0
2023-08-15 17:50:34.876627,-107.0
2023-08-15 17:50:34.884317,-107.0
2023-08-15 17:50:34.892006,-102.0
2023-08-15 17:50:34.899696,-102.0
2023-08-15 17:50:34.907385,-99.0
2023-08-15 17:50:34.915075,-97.0
2023-08-15 17:50:34.922765,-95.0
2023-08-15 17:50:34.930454,-88.0
2023-08-15 17:50:34.938144,-83.0
2023-08-15 17:50:34.945833,-76.0
2023-08-15 17:50:34.953523,-61.0
2023-08-15 17:50:34.961213,-42.0
2023-08-15 17:50:34.968902,-45.0
2023-08-15 17:50:34.976592,-61.0
2023-08-15 17:50:34.984282,-85.0
2023-08-15 17:50:34.991971,-102.0
2023-08-15 17:50:34.999661,-97.0
2023-08-15 17:50:35.007350,-88.0
2023-08-15 17:50:35.015040,-88.0
2023-08-15 17:50:35.022730,-85.0
2023-08-15 17:50:35.030419,-28.0
2023-08-15 17:50:35.038109,154.0
2023-08-15 17:50:35.045798,445.0
2023-08-15 17:50:35.053488,554.0
2023-08-15 17:50:35.061178,190.0
2023-08-15 17:50:35.068867,-390.0
2023-08-15 17:50:35.076557,-592.0
2023-08-15 17:50:35.084247,-333.0
2023-08-15 17:50:35.091936,-109.0
2023-08-15 17:50:35.099626,-102.0
2023-08-15 17:50:35.107315,-102.0
2023-08-15 17:50:35.115005,-71.0
2023-08-15 17:50:35.122695,-73.0
2023-08-15 17:50:35.130384,-76.0
2023-08-15 17:50:35.138074,-59.0
2023-08-15 17:50:35.145763,-52.0
2023-08-15 17:50:35.153453,-47.0
2023-08-15 17:50:35.161143,-35.0
2023-08-15 17:50:35.168832,-28.0
2023-08-15 17:50:35.176522,-19.0
2023-08-15 17:50:35.184212,-2.0
2023-08-15 17:50:35.191901,14.0
2023-08-15 17:50:35.199591,28.0
2023-08-15 17:50:35.207280,40.0
2023-08-15 17:50:35.214970,47.0
2023-08-15 17:50:35.222660,69.0
2023-08-15 17:50:35.230349,97.0
2023-08-15 17:50:35.238039,116.0
2023-08-15 17:50:35.245728,128.0
2023-08-15 17:50:35.253418,138.0
2023-08-15 17:50:35.261108,142.0
2023-08-15 17:50:35.268797,140.0
2023-08-15 17:50:35.276487,126.0
2023-08-15 17:50:35.284177,95.0
2023-08-15 17:50:35.291866,49.0
2023-08-15 17:50:35.299556,0.0
2023-08-15 17:50:35.307245,-52.0
2023-08-15 17:50:35.314935,-97.0
2023-08-15 17:50:35.322625,-128.0
2023-08-15 17:50:35.330314,-149.0
2023-08-15 17:50:35.338004,-164.0
2023-08-15 17:50:35.345693,-173.0
2023-08-15 17:50:35.353383,-176.0
2023-08-15 17:50:35.361073,-171.0
2023-08-15 17:50:35.368762,-171.0
2023-08-15 17:50:35.376452,-176.0
2023-08-15 17:50:35.384142,-173.0
2023-08-15 17:50:35.391831,-164.0
2023-08-15 17:50:35.399521,-157.0
2023-08-15 17:50:35.407210,-149.0
2023-08-15 17:50:35.414900,-142.0
2023-08-15 17:50:35.422590,-135.0
2023-08-15 17:50:35.430279,-133.0
2023-08-15 17:50:35.437969,-128.0
2023-08-15 17:50:35.445658,-119.0
2023-08-15 17:50:35.453348,-114.0
2023-08-15 17:50:35.461038,-109.0
2023-08-15 17:50:35.468727,-107.0
2023-08-15 17:50:35.476417,-104.0
2023-08-15 17:50:35.484107,-104.0
2023-08-15 17:50:35.491796,-99.0
2023-08-15 17:50:35.499486,-97.0
2023-08-15 17:50:35.507175,-97.0
2023-08-15 17:50:35.514865,-97.0
2023-08-15 17:50:35.522555,-97.0
2023-08-15 17:50:35.530244,-99.0
2023-08-15 17:50:35.537934,-99.0
2023-08-15 17:50:35.545623,-99.0
2023-08-15 17:50:35.553313,-95.0
2023-08-15 17:50:35.561003,-92.0
2023-08-15 17:50:35.568692,-92.0
2023-08-15 17:50:35.576382,-95.0
2023-08-15 17:50:35.584072,-90.0
2023-08-15 17:50:35.591761,-85.0
2023-08-15 17:50:35.599451,-85.0
2023-08-15 17:50:35.607140,-85.0
2023-08-15 17:50:35.614830,-78.0
2023-08-15 17:50:35.622520,-69.0
2023-08-15 17:50:35.630209,-61.0
2023-08-15 17:50:35.637899,-49.0
2023-08-15 17:50:35.645588,-33.0
2023-08-15 17:50:35.653278,-30.0
2023-08-15 17:50:35.660968,-45.0
2023-08-15 17:50:35.668657,-66.0
2023-08-15 17:50:35.676347,-85.0
2023-08-15 17:50:35.684037,-88.0
2023-08-15 17:50:35.691726,-78.0
2023-08-15 17:50:35.699416,-78.0
2023-08-15 17:50:35.707105,-80.0
2023-08-15 17:50:35.714795,-45.0
2023-08-15 17:50:35.722485,99.0
2023-08-15 17:50:35.730174,383.0
2023-08-15 17:50:35.737864,557.0
2023-08-15 17:50:35.745553,285.0
2023-08-15 17:50:35.753243,-295.0
2023-08-15 17:50:35.760933,-595.0
2023-08-15 17:50:35.768622,-373.0
2023-08-15 17:50:35.776312,-85.0
2023-08-15 17:50:35.784002,-64.0
2023-08-15 17:50:35.791691,-102.0
2023-08-15 17:50:35.799381,-69.0
2023-08-15 17:50:35.807070,-57.0
2023-08-15 17:50:35.814760,-71.0
2023-08-15 17:50:35.822450,-61.0
2023-08-15 17:50:35.830139,-47.0
2023-08-15 17:50:35.837829,-49.0
2023-08-15 17:50:35.845518,-52.0
2023-08-15 17:50:35.853208,-35.0
2023-08-15 17:50:35.860898,-19.0
2023-08-15 17:50:35.868587,-9.0
2023-08-15 17:50:35.876277,4.0
2023-08-15 17:50:35.883967,16.0
2023-08-15 17:50:35.891656,28.0
2023-08-15 17:50:35.899346,52.0
2023-08-15 17:50:35.907035,76.0
2023-08-15 17:50:35.914725,95.0
2023-08-15 17:50:35.922415,116.0
2023-08-15 17:50:35.930104,130.0
2023-08-15 17:50:35.937794,142.0
2023-08-15 17:50:35.945483,149.0
2023-08-15 17:50:35.953173,154.0
2023-08-15 17:50:35.960863,145.0
2023-08-15 17:50:35.968552,121.0
2023-08-15 17:50:35.976242,80.0
2023-08-15 17:50:35.983932,30.0
2023-08-15 17:50:35.991621,-21.0
2023-08-15 17:50:35.999311,-69.0
2023-08-15 17:50:36.007000,-104.0
2023-08-15 17:50:36.014690,-130.0
2023-08-15 17:50:36.022380,-149.0
2023-08-15 17:50:36.030069,-161.0
2023-08-15 17:50:36.037759,-164.0
2023-08-15 17:50:36.045448,-161.0
2023-08-15 17:50:36.053138,-159.0
2023-08-15 17:50:36.060828,-154.0
2023-08-15 17:50:36.068517,-149.0
2023-08-15 17:50:36.076207,-145.0
2023-08-15 17:50:36.083897,-138.0
2023-08-15 17:50:36.091586,-133.0
2023-08-15 17:50:36.099276,-126.0
2023-08-15 17:50:36.106965,-119.0
2023-08-15 17:50:36.114655,-116.0
2023-08-15 17:50:36.122345,-111.0
2023-08-15 17:50:36.130034,-104.0
2023-08-15 17:50:36.137724,-97.0
2023-08-15 17:50:36.145413,-95.0
2023-08-15 17:50:36.153103,-92.0
2023-08-15 17:50:36.160793,-92.0
2023-08-15 17:50:36.168482,-92.0
2023-08-15 17:50:36.176172,-90.0
2023-08-15 17:50:36.183862,-85.0
2023-08-15 17:50:36.191551,-88.0
2023-08-15 17:50:36.199241,-90.0
2023-08-15 17:50:36.206930,-90.0
2023-08-15 17:50:36.214620,-88.0
2023-08-15 17:50:36.222310,-88.0
2023-08-15 17:50:36.229999,-88.0
2023-08-15 17:50:36.237689,-85.0
2023-08-15 17:50:36.245378,-83.0
2023-08-15 17:50:36.253068,-85.0
2023-08-15 17:50:36.260758,-85.0
2023-08-15 17:50:36.268447,-85.0
2023-08-15 17:50:36.276137,-85.0
2023-08-15 17:50:36.283827,-80.0
2023-08-15 17:50:36.291516,-76.0
2023-08-15 17:50:36.299206,-78.0
2023-08-15 17:50:36.306895,-76.0
2023-08-15 17:50:36.314585,-66.0
2023-08-15 17:50:36.322275,-54.0
2023-08-15 17:50:36.329964,-47.0
2023-08-15 17:50:36.337654,-40.0
2023-08-15 17:50:36.345343,-33.0
2023-08-15 17:50:36.353033,-28.0
2023-08-15 17:50:36.360723,-35.0
2023-08-15 17:50:36.368412,-59.0
2023-08-15 17:50:36.376102,-85.0
2023-08-15 17:50:36.383792,-92.0
2023-08-15 17:50:36.391481,-92.0
2023-08-15 17:50:36.399171,-92.0
2023-08-15 17:50:36.406860,-90.0
2023-08-15 17:50:36.414550,-76.0
2023-08-15 17:50:36.422240,16.0
2023-08-15 17:50:36.429929,259.0
2023-08-15 17:50:36.437619,507.0
2023-08-15 17:50:36.445308,392.0
2023-08-15 17:50:36.452998,-135.0
2023-08-15 17:50:36.460688,-576.0
2023-08-15 17:50:36.468377,-507.0
2023-08-15 17:50:36.476067,-180.0
2023-08-15 17:50:36.483757,-73.0
2023-08-15 17:50:36.491446,-126.0
2023-08-15 17:50:36.499136,-111.0
2023-08-15 17:50:36.506825,-80.0
2023-08-15 17:50:36.514515,-92.0
2023-08-15 17:50:36.522205,-92.0
2023-08-15 17:50:36.529894,-76.0
2023-08-15 17:50:36.537584,-71.0
2023-08-15 17:50:36.545273,-61.0
2023-08-15 17:50:36.552963,-47.0
2023-08-15 17:50:36.560653,-35.0
2023-08-15 17:50:36.568342,-23.0
2023-08-15 17:50:36.576032,-7.0
2023-08-15 17:50:36.583722,7.0
2023-08-15 17:50:36.591411,26.0
2023-08-15 17:50:36.599101,45.0
2023-08-15 17:50:36.606790,64.0
2023-08-15 17:50:36.614480,83.0
2023-08-15 17:50:36.622170,107.0
2023-08-15 17:50:36.629859,126.0
2023-08-15 17:50:36.637549,140.0
2023-08-15 17:50:36.645238,149.0
2023-08-15 17:50:36.652928,152.0
2023-08-15 17:50:36.660618,145.0
2023-08-15 17:50:36.668307,130.0
2023-08-15 17:50:36.675997,99.0
2023-08-15 17:50:36.683687,54.0
2023-08-15 17:50:36.691376,2.0
2023-08-15 17:50:36.699066,-52.0
2023-08-15 17:50:36.706755,-92.0
2023-08-15 17:50:36.714445,-123.0
2023-08-15 17:50:36.722135,-145.0
2023-08-15 17:50:36.729824,-152.0
2023-08-15 17:50:36.737514,-154.0
2023-08-15 17:50:36.745203,-157.0
2023-08-15 17:50:36.752893,-157.0
2023-08-15 17:50:36.760583,-157.0
2023-08-15 17:50:36.768272,-154.0
2023-08-15 17:50:36.775962,-147.0
2023-08-15 17:50:36.783652,-140.0
2023-08-15 17:50:36.791341,-138.0
2023-08-15 17:50:36.799031,-133.0
2023-08-15 17:50:36.806720,-128.0
2023-08-15 17:50:36.814410,-123.0
