time,ECG
2023-08-16 13:17:18.820789,96.0
2023-08-16 13:17:18.828479,122.0
2023-08-16 13:17:18.836168,144.0
2023-08-16 13:17:18.843858,156.0
2023-08-16 13:17:18.851547,161.0
2023-08-16 13:17:18.859237,158.0
2023-08-16 13:17:18.866926,146.0
2023-08-16 13:17:18.874616,110.0
2023-08-16 13:17:18.882305,52.0
2023-08-16 13:17:18.889995,-16.0
2023-08-16 13:17:18.897684,-81.0
2023-08-16 13:17:18.905374,-139.0
2023-08-16 13:17:18.913063,-177.0
2023-08-16 13:17:18.920753,-197.0
2023-08-16 13:17:18.928442,-206.0
2023-08-16 13:17:18.936132,-209.0
2023-08-16 13:17:18.943821,-204.0
2023-08-16 13:17:18.951510,-199.0
2023-08-16 13:17:18.959200,-192.0
2023-08-16 13:17:18.966889,-185.0
2023-08-16 13:17:18.974579,-175.0
2023-08-16 13:17:18.982268,-168.0
2023-08-16 13:17:18.989958,-158.0
2023-08-16 13:17:18.997647,-153.0
2023-08-16 13:17:19.005337,-149.0
2023-08-16 13:17:19.013026,-141.0
2023-08-16 13:17:19.020716,-132.0
2023-08-16 13:17:19.028405,-127.0
2023-08-16 13:17:19.036095,-127.0
2023-08-16 13:17:19.043784,-127.0
2023-08-16 13:17:19.051474,-127.0
2023-08-16 13:17:19.059163,-125.0
2023-08-16 13:17:19.066853,-120.0
2023-08-16 13:17:19.074542,-120.0
2023-08-16 13:17:19.082231,-120.0
2023-08-16 13:17:19.089921,-122.0
2023-08-16 13:17:19.097610,-122.0
2023-08-16 13:17:19.105300,-120.0
2023-08-16 13:17:19.112989,-117.0
2023-08-16 13:17:19.120679,-117.0
2023-08-16 13:17:19.128368,-117.0
2023-08-16 13:17:19.136058,-117.0
2023-08-16 13:17:19.143747,-115.0
2023-08-16 13:17:19.151437,-113.0
2023-08-16 13:17:19.159126,-110.0
2023-08-16 13:17:19.166816,-105.0
2023-08-16 13:17:19.174505,-105.0
2023-08-16 13:17:19.182195,-110.0
2023-08-16 13:17:19.189884,-117.0
2023-08-16 13:17:19.197574,-110.0
2023-08-16 13:17:19.205263,-105.0
2023-08-16 13:17:19.212953,-105.0
2023-08-16 13:17:19.220642,-105.0
2023-08-16 13:17:19.228331,-110.0
2023-08-16 13:17:19.236021,-115.0
2023-08-16 13:17:19.243710,-110.0
2023-08-16 13:17:19.251400,-103.0
2023-08-16 13:17:19.259089,-103.0
2023-08-16 13:17:19.266779,-108.0
2023-08-16 13:17:19.274468,-117.0
2023-08-16 13:17:19.282158,-120.0
2023-08-16 13:17:19.289847,-108.0
2023-08-16 13:17:19.297537,-101.0
2023-08-16 13:17:19.305226,-103.0
2023-08-16 13:17:19.312916,-103.0
2023-08-16 13:17:19.320605,-101.0
2023-08-16 13:17:19.328295,-101.0
2023-08-16 13:17:19.335984,-98.0
2023-08-16 13:17:19.343674,-96.0
2023-08-16 13:17:19.351363,-91.0
2023-08-16 13:17:19.359052,-91.0
2023-08-16 13:17:19.366742,-101.0
2023-08-16 13:17:19.374431,-103.0
2023-08-16 13:17:19.382121,-98.0
2023-08-16 13:17:19.389810,-86.0
2023-08-16 13:17:19.397500,-69.0
2023-08-16 13:17:19.405189,-57.0
2023-08-16 13:17:19.412879,-50.0
2023-08-16 13:17:19.420568,-45.0
2023-08-16 13:17:19.428258,-57.0
2023-08-16 13:17:19.435947,-74.0
2023-08-16 13:17:19.443637,-81.0
2023-08-16 13:17:19.451326,-86.0
2023-08-16 13:17:19.459016,-88.0
2023-08-16 13:17:19.466705,-88.0
2023-08-16 13:17:19.474395,-88.0
2023-08-16 13:17:19.482084,-84.0
2023-08-16 13:17:19.489773,-81.0
2023-08-16 13:17:19.497463,-67.0
2023-08-16 13:17:19.505152,113.0
2023-08-16 13:17:19.512842,565.0
2023-08-16 13:17:19.520531,1077.0
2023-08-16 13:17:19.528221,1108.0
2023-08-16 13:17:19.535910,396.0
2023-08-16 13:17:19.543600,-315.0
2023-08-16 13:17:19.551289,-319.0
2023-08-16 13:17:19.558979,-122.0
2023-08-16 13:17:19.566668,-187.0
2023-08-16 13:17:19.574358,-223.0
2023-08-16 13:17:19.582047,-153.0
2023-08-16 13:17:19.589737,-156.0
2023-08-16 13:17:19.597426,-173.0
2023-08-16 13:17:19.605116,-144.0
2023-08-16 13:17:19.612805,-129.0
2023-08-16 13:17:19.620495,-132.0
2023-08-16 13:17:19.628184,-125.0
2023-08-16 13:17:19.635873,-117.0
2023-08-16 13:17:19.643563,-110.0
2023-08-16 13:17:19.651252,-101.0
2023-08-16 13:17:19.658942,-96.0
2023-08-16 13:17:19.666631,-91.0
2023-08-16 13:17:19.674321,-84.0
2023-08-16 13:17:19.682010,-79.0
2023-08-16 13:17:19.689700,-69.0
2023-08-16 13:17:19.697389,-48.0
2023-08-16 13:17:19.705079,-24.0
2023-08-16 13:17:19.712768,-2.0
2023-08-16 13:17:19.720458,19.0
2023-08-16 13:17:19.728147,50.0
2023-08-16 13:17:19.735837,86.0
2023-08-16 13:17:19.743526,117.0
2023-08-16 13:17:19.751216,137.0
2023-08-16 13:17:19.758905,151.0
2023-08-16 13:17:19.766594,163.0
2023-08-16 13:17:19.774284,165.0
2023-08-16 13:17:19.781973,158.0
2023-08-16 13:17:19.789663,139.0
2023-08-16 13:17:19.797352,98.0
2023-08-16 13:17:19.805042,33.0
2023-08-16 13:17:19.812731,-48.0
2023-08-16 13:17:19.820421,-120.0
2023-08-16 13:17:19.828110,-168.0
2023-08-16 13:17:19.835800,-199.0
2023-08-16 13:17:19.843489,-216.0
2023-08-16 13:17:19.851179,-221.0
2023-08-16 13:17:19.858868,-218.0
2023-08-16 13:17:19.866558,-216.0
2023-08-16 13:17:19.874247,-209.0
2023-08-16 13:17:19.881937,-204.0
2023-08-16 13:17:19.889626,-197.0
2023-08-16 13:17:19.897316,-187.0
2023-08-16 13:17:19.905005,-180.0
2023-08-16 13:17:19.912694,-175.0
2023-08-16 13:17:19.920384,-163.0
2023-08-16 13:17:19.928073,-153.0
2023-08-16 13:17:19.935763,-149.0
2023-08-16 13:17:19.943452,-146.0
2023-08-16 13:17:19.951142,-141.0
2023-08-16 13:17:19.958831,-139.0
2023-08-16 13:17:19.966521,-139.0
2023-08-16 13:17:19.974210,-139.0
2023-08-16 13:17:19.981900,-139.0
2023-08-16 13:17:19.989589,-137.0
2023-08-16 13:17:19.997279,-139.0
2023-08-16 13:17:20.004968,-139.0
2023-08-16 13:17:20.012658,-134.0
2023-08-16 13:17:20.020347,-132.0
2023-08-16 13:17:20.028037,-125.0
2023-08-16 13:17:20.035726,-122.0
2023-08-16 13:17:20.043415,-125.0
2023-08-16 13:17:20.051105,-125.0
2023-08-16 13:17:20.058794,-120.0
2023-08-16 13:17:20.066484,-120.0
2023-08-16 13:17:20.074173,-122.0
2023-08-16 13:17:20.081863,-125.0
2023-08-16 13:17:20.089552,-120.0
2023-08-16 13:17:20.097242,-115.0
2023-08-16 13:17:20.104931,-113.0
2023-08-16 13:17:20.112621,-110.0
2023-08-16 13:17:20.120310,-103.0
2023-08-16 13:17:20.128000,-101.0
2023-08-16 13:17:20.135689,-105.0
2023-08-16 13:17:20.143379,-108.0
2023-08-16 13:17:20.151068,-103.0
2023-08-16 13:17:20.158758,-96.0
2023-08-16 13:17:20.166447,-96.0
2023-08-16 13:17:20.174136,-101.0
2023-08-16 13:17:20.181826,-101.0
2023-08-16 13:17:20.189515,-105.0
2023-08-16 13:17:20.197205,-110.0
2023-08-16 13:17:20.204894,-108.0
2023-08-16 13:17:20.212584,-96.0
2023-08-16 13:17:20.220273,-81.0
2023-08-16 13:17:20.227963,-67.0
2023-08-16 13:17:20.235652,-57.0
2023-08-16 13:17:20.243342,-55.0
2023-08-16 13:17:20.251031,-67.0
2023-08-16 13:17:20.258721,-86.0
2023-08-16 13:17:20.266410,-93.0
2023-08-16 13:17:20.274100,-91.0
2023-08-16 13:17:20.281789,-91.0
2023-08-16 13:17:20.289479,-96.0
2023-08-16 13:17:20.297168,-88.0
2023-08-16 13:17:20.304858,-79.0
2023-08-16 13:17:20.312547,-81.0
2023-08-16 13:17:20.320236,-64.0
2023-08-16 13:17:20.327926,122.0
2023-08-16 13:17:20.335615,567.0
2023-08-16 13:17:20.343305,1034.0
2023-08-16 13:17:20.350994,1007.0
2023-08-16 13:17:20.358684,283.0
2023-08-16 13:17:20.366373,-389.0
2023-08-16 13:17:20.374063,-365.0
2023-08-16 13:17:20.381752,-158.0
2023-08-16 13:17:20.389442,-206.0
2023-08-16 13:17:20.397131,-226.0
2023-08-16 13:17:20.404821,-151.0
2023-08-16 13:17:20.412510,-151.0
2023-08-16 13:17:20.420200,-168.0
2023-08-16 13:17:20.427889,-141.0
2023-08-16 13:17:20.435579,-122.0
2023-08-16 13:17:20.443268,-122.0
2023-08-16 13:17:20.450957,-120.0
2023-08-16 13:17:20.458647,-105.0
2023-08-16 13:17:20.466336,-91.0
2023-08-16 13:17:20.474026,-91.0
2023-08-16 13:17:20.481715,-91.0
2023-08-16 13:17:20.489405,-79.0
2023-08-16 13:17:20.497094,-67.0
2023-08-16 13:17:20.504784,-57.0
2023-08-16 13:17:20.512473,-45.0
2023-08-16 13:17:20.520163,-26.0
2023-08-16 13:17:20.527852,-7.0
2023-08-16 13:17:20.535542,9.0
2023-08-16 13:17:20.543231,40.0
2023-08-16 13:17:20.550921,76.0
2023-08-16 13:17:20.558610,105.0
2023-08-16 13:17:20.566300,132.0
2023-08-16 13:17:20.573989,156.0
2023-08-16 13:17:20.581679,165.0
2023-08-16 13:17:20.589368,168.0
2023-08-16 13:17:20.597057,170.0
2023-08-16 13:17:20.604747,161.0
2023-08-16 13:17:20.612436,129.0
2023-08-16 13:17:20.620126,79.0
2023-08-16 13:17:20.627815,9.0
2023-08-16 13:17:20.635505,-62.0
2023-08-16 13:17:20.643194,-120.0
2023-08-16 13:17:20.650884,-165.0
2023-08-16 13:17:20.658573,-194.0
2023-08-16 13:17:20.666263,-204.0
2023-08-16 13:17:20.673952,-206.0
2023-08-16 13:17:20.681642,-206.0
2023-08-16 13:17:20.689331,-209.0
2023-08-16 13:17:20.697021,-209.0
2023-08-16 13:17:20.704710,-202.0
2023-08-16 13:17:20.712400,-192.0
2023-08-16 13:17:20.720089,-187.0
2023-08-16 13:17:20.727778,-177.0
2023-08-16 13:17:20.735468,-165.0
2023-08-16 13:17:20.743157,-156.0
2023-08-16 13:17:20.750847,-151.0
2023-08-16 13:17:20.758536,-146.0
2023-08-16 13:17:20.766226,-141.0
2023-08-16 13:17:20.773915,-137.0
2023-08-16 13:17:20.781605,-132.0
2023-08-16 13:17:20.789294,-132.0
2023-08-16 13:17:20.796984,-132.0
2023-08-16 13:17:20.804673,-132.0
2023-08-16 13:17:20.812363,-134.0
2023-08-16 13:17:20.820052,-134.0
2023-08-16 13:17:20.827742,-134.0
2023-08-16 13:17:20.835431,-134.0
2023-08-16 13:17:20.843121,-129.0
2023-08-16 13:17:20.850810,-125.0
2023-08-16 13:17:20.858499,-127.0
2023-08-16 13:17:20.866189,-129.0
2023-08-16 13:17:20.873878,-125.0
2023-08-16 13:17:20.881568,-115.0
2023-08-16 13:17:20.889257,-120.0
2023-08-16 13:17:20.896947,-129.0
2023-08-16 13:17:20.904636,-129.0
2023-08-16 13:17:20.912326,-117.0
2023-08-16 13:17:20.920015,-115.0
2023-08-16 13:17:20.927705,-115.0
2023-08-16 13:17:20.935394,-115.0
2023-08-16 13:17:20.943084,-117.0
2023-08-16 13:17:20.950773,-120.0
2023-08-16 13:17:20.958463,-120.0
2023-08-16 13:17:20.966152,-110.0
2023-08-16 13:17:20.973842,-88.0
2023-08-16 13:17:20.981531,-69.0
2023-08-16 13:17:20.989221,-60.0
2023-08-16 13:17:20.996910,-57.0
2023-08-16 13:17:21.004599,-67.0
2023-08-16 13:17:21.012289,-81.0
2023-08-16 13:17:21.019978,-93.0
2023-08-16 13:17:21.027668,-96.0
2023-08-16 13:17:21.035357,-93.0
2023-08-16 13:17:21.043047,-86.0
2023-08-16 13:17:21.050736,-84.0
2023-08-16 13:17:21.058426,-84.0
2023-08-16 13:17:21.066115,-86.0
2023-08-16 13:17:21.073805,-86.0
2023-08-16 13:17:21.081494,16.0
2023-08-16 13:17:21.089184,377.0
2023-08-16 13:17:21.096873,913.0
2023-08-16 13:17:21.104563,1180.0
2023-08-16 13:17:21.112252,702.0
2023-08-16 13:17:21.119942,-146.0
2023-08-16 13:17:21.127631,-413.0
2023-08-16 13:17:21.135320,-170.0
2023-08-16 13:17:21.143010,-134.0
2023-08-16 13:17:21.150699,-221.0
2023-08-16 13:17:21.158389,-165.0
2023-08-16 13:17:21.166078,-134.0
2023-08-16 13:17:21.173768,-158.0
2023-08-16 13:17:21.181457,-141.0
2023-08-16 13:17:21.189147,-120.0
2023-08-16 13:17:21.196836,-129.0
2023-08-16 13:17:21.204526,-125.0
2023-08-16 13:17:21.212215,-110.0
2023-08-16 13:17:21.219905,-105.0
2023-08-16 13:17:21.227594,-98.0
2023-08-16 13:17:21.235284,-86.0
2023-08-16 13:17:21.242973,-79.0
2023-08-16 13:17:21.250663,-69.0
2023-08-16 13:17:21.258352,-57.0
2023-08-16 13:17:21.266041,-43.0
2023-08-16 13:17:21.273731,-26.0
2023-08-16 13:17:21.281420,-7.0
2023-08-16 13:17:21.289110,14.0
2023-08-16 13:17:21.296799,38.0
2023-08-16 13:17:21.304489,67.0
2023-08-16 13:17:21.312178,98.0
2023-08-16 13:17:21.319868,127.0
2023-08-16 13:17:21.327557,146.0
2023-08-16 13:17:21.335247,161.0
2023-08-16 13:17:21.342936,168.0
2023-08-16 13:17:21.350626,168.0
2023-08-16 13:17:21.358315,161.0
2023-08-16 13:17:21.366005,134.0
2023-08-16 13:17:21.373694,79.0
2023-08-16 13:17:21.381384,7.0
2023-08-16 13:17:21.389073,-67.0
2023-08-16 13:17:21.396763,-127.0
2023-08-16 13:17:21.404452,-170.0
2023-08-16 13:17:21.412141,-197.0
2023-08-16 13:17:21.419831,-209.0
2023-08-16 13:17:21.427520,-211.0
2023-08-16 13:17:21.435210,-211.0
2023-08-16 13:17:21.442899,-209.0
2023-08-16 13:17:21.450589,-202.0
2023-08-16 13:17:21.458278,-194.0
2023-08-16 13:17:21.465968,-187.0
2023-08-16 13:17:21.473657,-185.0
2023-08-16 13:17:21.481347,-187.0
2023-08-16 13:17:21.489036,-182.0
2023-08-16 13:17:21.496726,-168.0
2023-08-16 13:17:21.504415,-156.0
2023-08-16 13:17:21.512105,-153.0
2023-08-16 13:17:21.519794,-149.0
2023-08-16 13:17:21.527484,-141.0
2023-08-16 13:17:21.535173,-139.0
2023-08-16 13:17:21.542862,-137.0
2023-08-16 13:17:21.550552,-134.0
2023-08-16 13:17:21.558241,-137.0
2023-08-16 13:17:21.565931,-139.0
2023-08-16 13:17:21.573620,-137.0
2023-08-16 13:17:21.581310,-134.0
2023-08-16 13:17:21.588999,-132.0
2023-08-16 13:17:21.596689,-129.0
2023-08-16 13:17:21.604378,-129.0
2023-08-16 13:17:21.612068,-129.0
2023-08-16 13:17:21.619757,-129.0
2023-08-16 13:17:21.627447,-127.0
2023-08-16 13:17:21.635136,-125.0
2023-08-16 13:17:21.642826,-120.0
2023-08-16 13:17:21.650515,-117.0
2023-08-16 13:17:21.658205,-115.0
2023-08-16 13:17:21.665894,-113.0
2023-08-16 13:17:21.673584,-110.0
2023-08-16 13:17:21.681273,-108.0
2023-08-16 13:17:21.688962,-105.0
2023-08-16 13:17:21.696652,-108.0
2023-08-16 13:17:21.704341,-113.0
2023-08-16 13:17:21.712031,-108.0
2023-08-16 13:17:21.719720,-105.0
2023-08-16 13:17:21.727410,-105.0
2023-08-16 13:17:21.735099,-103.0
2023-08-16 13:17:21.742789,-98.0
2023-08-16 13:17:21.750478,-101.0
2023-08-16 13:17:21.758168,-105.0
2023-08-16 13:17:21.765857,-108.0
2023-08-16 13:17:21.773547,-105.0
2023-08-16 13:17:21.781236,-88.0
2023-08-16 13:17:21.788926,-67.0
2023-08-16 13:17:21.796615,-57.0
2023-08-16 13:17:21.804305,-55.0
2023-08-16 13:17:21.811994,-57.0
2023-08-16 13:17:21.819683,-67.0
2023-08-16 13:17:21.827373,-81.0
2023-08-16 13:17:21.835062,-93.0
2023-08-16 13:17:21.842752,-91.0
2023-08-16 13:17:21.850441,-91.0
2023-08-16 13:17:21.858131,-91.0
2023-08-16 13:17:21.865820,-88.0
2023-08-16 13:17:21.873510,-81.0
2023-08-16 13:17:21.881199,-84.0
2023-08-16 13:17:21.888889,-72.0
2023-08-16 13:17:21.896578,98.0
2023-08-16 13:17:21.904268,548.0
2023-08-16 13:17:21.911957,1106.0
2023-08-16 13:17:21.919647,1214.0
2023-08-16 13:17:21.927336,519.0
2023-08-16 13:17:21.935026,-259.0
2023-08-16 13:17:21.942715,-317.0
2023-08-16 13:17:21.950404,-113.0
2023-08-16 13:17:21.958094,-180.0
2023-08-16 13:17:21.965783,-233.0
2023-08-16 13:17:21.973473,-161.0
2023-08-16 13:17:21.981162,-153.0
2023-08-16 13:17:21.988852,-175.0
2023-08-16 13:17:21.996541,-151.0
2023-08-16 13:17:22.004231,-134.0
2023-08-16 13:17:22.011920,-137.0
2023-08-16 13:17:22.019610,-127.0
2023-08-16 13:17:22.027299,-115.0
2023-08-16 13:17:22.034989,-108.0
2023-08-16 13:17:22.042678,-105.0
2023-08-16 13:17:22.050368,-101.0
2023-08-16 13:17:22.058057,-98.0
2023-08-16 13:17:22.065747,-96.0
2023-08-16 13:17:22.073436,-88.0
2023-08-16 13:17:22.081126,-69.0
2023-08-16 13:17:22.088815,-52.0
2023-08-16 13:17:22.096504,-33.0
2023-08-16 13:17:22.104194,-9.0
2023-08-16 13:17:22.111883,12.0
2023-08-16 13:17:22.119573,38.0
2023-08-16 13:17:22.127262,76.0
2023-08-16 13:17:22.134952,110.0
2023-08-16 13:17:22.142641,134.0
2023-08-16 13:17:22.150331,151.0
2023-08-16 13:17:22.158020,163.0
2023-08-16 13:17:22.165710,168.0
2023-08-16 13:17:22.173399,161.0
2023-08-16 13:17:22.181089,127.0
2023-08-16 13:17:22.188778,69.0
2023-08-16 13:17:22.196468,-4.0
2023-08-16 13:17:22.204157,-81.0
2023-08-16 13:17:22.211847,-141.0
2023-08-16 13:17:22.219536,-182.0
2023-08-16 13:17:22.227225,-209.0
2023-08-16 13:17:22.234915,-223.0
2023-08-16 13:17:22.242604,-226.0
2023-08-16 13:17:22.250294,-221.0
2023-08-16 13:17:22.257983,-216.0
2023-08-16 13:17:22.265673,-209.0
2023-08-16 13:17:22.273362,-202.0
2023-08-16 13:17:22.281052,-194.0
2023-08-16 13:17:22.288741,-185.0
2023-08-16 13:17:22.296431,-180.0
2023-08-16 13:17:22.304120,-175.0
2023-08-16 13:17:22.311810,-168.0
2023-08-16 13:17:22.319499,-161.0
2023-08-16 13:17:22.327189,-156.0
2023-08-16 13:17:22.334878,-151.0
2023-08-16 13:17:22.342568,-146.0
2023-08-16 13:17:22.350257,-141.0
2023-08-16 13:17:22.357946,-139.0
2023-08-16 13:17:22.365636,-139.0
2023-08-16 13:17:22.373325,-137.0
2023-08-16 13:17:22.381015,-137.0
2023-08-16 13:17:22.388704,-134.0
2023-08-16 13:17:22.396394,-132.0
2023-08-16 13:17:22.404083,-129.0
2023-08-16 13:17:22.411773,-129.0
2023-08-16 13:17:22.419462,-127.0
2023-08-16 13:17:22.427152,-125.0
2023-08-16 13:17:22.434841,-125.0
2023-08-16 13:17:22.442531,-120.0
2023-08-16 13:17:22.450220,-120.0
2023-08-16 13:17:22.457910,-117.0
2023-08-16 13:17:22.465599,-115.0
2023-08-16 13:17:22.473289,-113.0
2023-08-16 13:17:22.480978,-110.0
2023-08-16 13:17:22.488668,-108.0
2023-08-16 13:17:22.496357,-105.0
2023-08-16 13:17:22.504046,-103.0
2023-08-16 13:17:22.511736,-103.0
2023-08-16 13:17:22.519425,-101.0
2023-08-16 13:17:22.527115,-98.0
2023-08-16 13:17:22.534804,-96.0
2023-08-16 13:17:22.542494,-98.0
2023-08-16 13:17:22.550183,-98.0
2023-08-16 13:17:22.557873,-98.0
2023-08-16 13:17:22.565562,-96.0
2023-08-16 13:17:22.573252,-93.0
2023-08-16 13:17:22.580941,-91.0
2023-08-16 13:17:22.588631,-91.0
2023-08-16 13:17:22.596320,-96.0
2023-08-16 13:17:22.604010,-101.0
2023-08-16 13:17:22.611699,-93.0
2023-08-16 13:17:22.619389,-72.0
2023-08-16 13:17:22.627078,-57.0
2023-08-16 13:17:22.634767,-55.0
2023-08-16 13:17:22.642457,-50.0
2023-08-16 13:17:22.650146,-60.0
2023-08-16 13:17:22.657836,-81.0
2023-08-16 13:17:22.665525,-88.0
2023-08-16 13:17:22.673215,-86.0
2023-08-16 13:17:22.680904,-86.0
2023-08-16 13:17:22.688594,-88.0
2023-08-16 13:17:22.696283,-86.0
2023-08-16 13:17:22.703973,-86.0
2023-08-16 13:17:22.711662,-88.0
2023-08-16 13:17:22.719352,-84.0
2023-08-16 13:17:22.727041,26.0
2023-08-16 13:17:22.734731,396.0
2023-08-16 13:17:22.742420,954.0
2023-08-16 13:17:22.750110,1224.0
2023-08-16 13:17:22.757799,714.0
2023-08-16 13:17:22.765489,-137.0
2023-08-16 13:17:22.773178,-367.0
2023-08-16 13:17:22.780867,-141.0
2023-08-16 13:17:22.788557,-144.0
2023-08-16 13:17:22.796246,-235.0
2023-08-16 13:17:22.803936,-173.0
2023-08-16 13:17:22.811625,-141.0
2023-08-16 13:17:22.819315,-170.0
2023-08-16 13:17:22.827004,-156.0
2023-08-16 13:17:22.834694,-132.0
2023-08-16 13:17:22.842383,-132.0
2023-08-16 13:17:22.850073,-125.0
2023-08-16 13:17:22.857762,-110.0
2023-08-16 13:17:22.865452,-103.0
2023-08-16 13:17:22.873141,-101.0
2023-08-16 13:17:22.880831,-91.0
2023-08-16 13:17:22.888520,-79.0
2023-08-16 13:17:22.896210,-69.0
2023-08-16 13:17:22.903899,-55.0
2023-08-16 13:17:22.911588,-43.0
2023-08-16 13:17:22.919278,-28.0
2023-08-16 13:17:22.926967,-12.0
2023-08-16 13:17:22.934657,14.0
2023-08-16 13:17:22.942346,40.0
2023-08-16 13:17:22.950036,69.0
2023-08-16 13:17:22.957725,103.0
2023-08-16 13:17:22.965415,129.0
2023-08-16 13:17:22.973104,153.0
2023-08-16 13:17:22.980794,173.0
2023-08-16 13:17:22.988483,182.0
2023-08-16 13:17:22.996173,185.0
2023-08-16 13:17:23.003862,177.0
2023-08-16 13:17:23.011552,151.0
2023-08-16 13:17:23.019241,103.0
2023-08-16 13:17:23.026931,36.0
2023-08-16 13:17:23.034620,-38.0
2023-08-16 13:17:23.042309,-101.0
2023-08-16 13:17:23.049999,-146.0
2023-08-16 13:17:23.057688,-177.0
2023-08-16 13:17:23.065378,-194.0
2023-08-16 13:17:23.073067,-199.0
2023-08-16 13:17:23.080757,-197.0
2023-08-16 13:17:23.088446,-192.0
2023-08-16 13:17:23.096136,-187.0
2023-08-16 13:17:23.103825,-185.0
2023-08-16 13:17:23.111515,-180.0
2023-08-16 13:17:23.119204,-170.0
2023-08-16 13:17:23.126894,-163.0
2023-08-16 13:17:23.134583,-158.0
2023-08-16 13:17:23.142273,-153.0
2023-08-16 13:17:23.149962,-153.0
2023-08-16 13:17:23.157652,-151.0
2023-08-16 13:17:23.165341,-146.0
2023-08-16 13:17:23.173031,-146.0
2023-08-16 13:17:23.180720,-146.0
2023-08-16 13:17:23.188409,-151.0
2023-08-16 13:17:23.196099,-158.0
2023-08-16 13:17:23.203788,-158.0
2023-08-16 13:17:23.211478,-158.0
2023-08-16 13:17:23.219167,-158.0
2023-08-16 13:17:23.226857,-158.0
2023-08-16 13:17:23.234546,-168.0
2023-08-16 13:17:23.242236,-175.0
2023-08-16 13:17:23.249925,-170.0
2023-08-16 13:17:23.257615,-163.0
2023-08-16 13:17:23.265304,-161.0
2023-08-16 13:17:23.272994,-158.0
2023-08-16 13:17:23.280683,-158.0
2023-08-16 13:17:23.288373,-156.0
2023-08-16 13:17:23.296062,-153.0
2023-08-16 13:17:23.303752,-149.0
2023-08-16 13:17:23.311441,-144.0
2023-08-16 13:17:23.319130,-139.0
2023-08-16 13:17:23.326820,-141.0
2023-08-16 13:17:23.334509,-139.0
2023-08-16 13:17:23.342199,-132.0
2023-08-16 13:17:23.349888,-127.0
2023-08-16 13:17:23.357578,-127.0
2023-08-16 13:17:23.365267,-120.0
2023-08-16 13:17:23.372957,-120.0
2023-08-16 13:17:23.380646,-122.0
2023-08-16 13:17:23.388336,-120.0
2023-08-16 13:17:23.396025,-117.0
2023-08-16 13:17:23.403715,-115.0
2023-08-16 13:17:23.411404,-110.0
2023-08-16 13:17:23.419094,-110.0
2023-08-16 13:17:23.426783,-110.0
2023-08-16 13:17:23.434473,-105.0
2023-08-16 13:17:23.442162,-101.0
2023-08-16 13:17:23.449852,-101.0
2023-08-16 13:17:23.457541,-105.0
2023-08-16 13:17:23.465230,-103.0
2023-08-16 13:17:23.472920,-91.0
2023-08-16 13:17:23.480609,-74.0
2023-08-16 13:17:23.488299,-60.0
2023-08-16 13:17:23.495988,-55.0
2023-08-16 13:17:23.503678,-57.0
2023-08-16 13:17:23.511367,-67.0
2023-08-16 13:17:23.519057,-81.0
2023-08-16 13:17:23.526746,-96.0
2023-08-16 13:17:23.534436,-98.0
2023-08-16 13:17:23.542125,-93.0
2023-08-16 13:17:23.549815,-91.0
2023-08-16 13:17:23.557504,-91.0
2023-08-16 13:17:23.565194,-88.0
2023-08-16 13:17:23.572883,-91.0
2023-08-16 13:17:23.580573,-81.0
2023-08-16 13:17:23.588262,43.0
2023-08-16 13:17:23.595951,423.0
2023-08-16 13:17:23.603641,957.0
2023-08-16 13:17:23.611330,1171.0
2023-08-16 13:17:23.619020,622.0
2023-08-16 13:17:23.626709,-202.0
2023-08-16 13:17:23.634399,-389.0
2023-08-16 13:17:23.642088,-153.0
2023-08-16 13:17:23.649778,-153.0
2023-08-16 13:17:23.657467,-230.0
2023-08-16 13:17:23.665157,-165.0
2023-08-16 13:17:23.672846,-139.0
2023-08-16 13:17:23.680536,-165.0
2023-08-16 13:17:23.688225,-144.0
2023-08-16 13:17:23.695915,-120.0
2023-08-16 13:17:23.703604,-127.0
2023-08-16 13:17:23.711294,-127.0
2023-08-16 13:17:23.718983,-117.0
2023-08-16 13:17:23.726672,-113.0
2023-08-16 13:17:23.734362,-113.0
2023-08-16 13:17:23.742051,-105.0
2023-08-16 13:17:23.749741,-93.0
2023-08-16 13:17:23.757430,-84.0
2023-08-16 13:17:23.765120,-74.0
2023-08-16 13:17:23.772809,-60.0
2023-08-16 13:17:23.780499,-45.0
2023-08-16 13:17:23.788188,-24.0
2023-08-16 13:17:23.795878,0.0
2023-08-16 13:17:23.803567,26.0
2023-08-16 13:17:23.811257,57.0
2023-08-16 13:17:23.818946,91.0
2023-08-16 13:17:23.826636,122.0
2023-08-16 13:17:23.834325,149.0
2023-08-16 13:17:23.842015,168.0
2023-08-16 13:17:23.849704,180.0
2023-08-16 13:17:23.857394,180.0
2023-08-16 13:17:23.865083,170.0
2023-08-16 13:17:23.872772,149.0
2023-08-16 13:17:23.880462,105.0
2023-08-16 13:17:23.888151,40.0
2023-08-16 13:17:23.895841,-33.0
2023-08-16 13:17:23.903530,-96.0
2023-08-16 13:17:23.911220,-146.0
2023-08-16 13:17:23.918909,-185.0
2023-08-16 13:17:23.926599,-202.0
2023-08-16 13:17:23.934288,-204.0
2023-08-16 13:17:23.941978,-204.0
2023-08-16 13:17:23.949667,-206.0
2023-08-16 13:17:23.957357,-204.0
2023-08-16 13:17:23.965046,-199.0
2023-08-16 13:17:23.972736,-199.0
2023-08-16 13:17:23.980425,-197.0
2023-08-16 13:17:23.988115,-182.0
2023-08-16 13:17:23.995804,-168.0
2023-08-16 13:17:24.003493,-165.0
2023-08-16 13:17:24.011183,-163.0
2023-08-16 13:17:24.018872,-156.0
2023-08-16 13:17:24.026562,-156.0
2023-08-16 13:17:24.034251,-153.0
2023-08-16 13:17:24.041941,-151.0
2023-08-16 13:17:24.049630,-149.0
2023-08-16 13:17:24.057320,-144.0
2023-08-16 13:17:24.065009,-144.0
2023-08-16 13:17:24.072699,-146.0
2023-08-16 13:17:24.080388,-144.0
2023-08-16 13:17:24.088078,-139.0
2023-08-16 13:17:24.095767,-141.0
2023-08-16 13:17:24.103457,-139.0
2023-08-16 13:17:24.111146,-139.0
2023-08-16 13:17:24.118836,-139.0
2023-08-16 13:17:24.126525,-134.0
2023-08-16 13:17:24.134214,-129.0
2023-08-16 13:17:24.141904,-129.0
2023-08-16 13:17:24.149593,-127.0
2023-08-16 13:17:24.157283,-122.0
2023-08-16 13:17:24.164972,-122.0
2023-08-16 13:17:24.172662,-120.0
2023-08-16 13:17:24.180351,-115.0
2023-08-16 13:17:24.188041,-115.0
2023-08-16 13:17:24.195730,-113.0
2023-08-16 13:17:24.203420,-108.0
2023-08-16 13:17:24.211109,-110.0
2023-08-16 13:17:24.218799,-115.0
2023-08-16 13:17:24.226488,-113.0
2023-08-16 13:17:24.234178,-110.0
2023-08-16 13:17:24.241867,-110.0
2023-08-16 13:17:24.249557,-113.0
2023-08-16 13:17:24.257246,-110.0
2023-08-16 13:17:24.264936,-115.0
2023-08-16 13:17:24.272625,-113.0
2023-08-16 13:17:24.280314,-96.0
2023-08-16 13:17:24.288004,-74.0
2023-08-16 13:17:24.295693,-60.0
2023-08-16 13:17:24.303383,-55.0
2023-08-16 13:17:24.311072,-64.0
2023-08-16 13:17:24.318762,-86.0
2023-08-16 13:17:24.326451,-101.0
2023-08-16 13:17:24.334141,-101.0
2023-08-16 13:17:24.341830,-101.0
2023-08-16 13:17:24.349520,-98.0
2023-08-16 13:17:24.357209,-98.0
2023-08-16 13:17:24.364899,-96.0
2023-08-16 13:17:24.372588,-91.0
2023-08-16 13:17:24.380278,-86.0
2023-08-16 13:17:24.387967,-67.0
2023-08-16 13:17:24.395657,103.0
2023-08-16 13:17:24.403346,533.0
2023-08-16 13:17:24.411035,1041.0
2023-08-16 13:17:24.418725,1108.0
2023-08-16 13:17:24.426414,423.0
2023-08-16 13:17:24.434104,-319.0
2023-08-16 13:17:24.441793,-346.0
2023-08-16 13:17:24.449483,-120.0
2023-08-16 13:17:24.457172,-168.0
2023-08-16 13:17:24.464862,-214.0
2023-08-16 13:17:24.472551,-139.0
2023-08-16 13:17:24.480241,-132.0
2023-08-16 13:17:24.487930,-151.0
2023-08-16 13:17:24.495620,-127.0
2023-08-16 13:17:24.503309,-113.0
2023-08-16 13:17:24.510999,-115.0
2023-08-16 13:17:24.518688,-108.0
2023-08-16 13:17:24.526378,-96.0
2023-08-16 13:17:24.534067,-93.0
2023-08-16 13:17:24.541757,-88.0
2023-08-16 13:17:24.549446,-76.0
2023-08-16 13:17:24.557135,-67.0
2023-08-16 13:17:24.564825,-57.0
2023-08-16 13:17:24.572514,-45.0
2023-08-16 13:17:24.580204,-33.0
2023-08-16 13:17:24.587893,-19.0
2023-08-16 13:17:24.595583,2.0
2023-08-16 13:17:24.603272,26.0
2023-08-16 13:17:24.610962,55.0
2023-08-16 13:17:24.618651,86.0
2023-08-16 13:17:24.626341,117.0
2023-08-16 13:17:24.634030,144.0
2023-08-16 13:17:24.641720,165.0
2023-08-16 13:17:24.649409,185.0
2023-08-16 13:17:24.657099,194.0
2023-08-16 13:17:24.664788,192.0
2023-08-16 13:17:24.672478,177.0
2023-08-16 13:17:24.680167,144.0
2023-08-16 13:17:24.687856,84.0
2023-08-16 13:17:24.695546,12.0
2023-08-16 13:17:24.703235,-60.0
2023-08-16 13:17:24.710925,-125.0
2023-08-16 13:17:24.718614,-175.0
2023-08-16 13:17:24.726304,-202.0
2023-08-16 13:17:24.733993,-209.0
2023-08-16 13:17:24.741683,-211.0
2023-08-16 13:17:24.749372,-211.0
2023-08-16 13:17:24.757062,-211.0
2023-08-16 13:17:24.764751,-211.0
2023-08-16 13:17:24.772441,-204.0
2023-08-16 13:17:24.780130,-197.0
2023-08-16 13:17:24.787820,-189.0
2023-08-16 13:17:24.795509,-177.0
2023-08-16 13:17:24.803199,-170.0
2023-08-16 13:17:24.810888,-175.0
2023-08-16 13:17:24.818577,-170.0
2023-08-16 13:17:24.826267,-158.0
2023-08-16 13:17:24.833956,-149.0
2023-08-16 13:17:24.841646,-146.0
2023-08-16 13:17:24.849335,-146.0
2023-08-16 13:17:24.857025,-151.0
2023-08-16 13:17:24.864714,-151.0
2023-08-16 13:17:24.872404,-144.0
2023-08-16 13:17:24.880093,-141.0
2023-08-16 13:17:24.887783,-141.0
2023-08-16 13:17:24.895472,-139.0
2023-08-16 13:17:24.903162,-139.0
2023-08-16 13:17:24.910851,-139.0
2023-08-16 13:17:24.918541,-134.0
2023-08-16 13:17:24.926230,-129.0
2023-08-16 13:17:24.933920,-129.0
2023-08-16 13:17:24.941609,-129.0
2023-08-16 13:17:24.949299,-127.0
2023-08-16 13:17:24.956988,-122.0
2023-08-16 13:17:24.964677,-117.0
2023-08-16 13:17:24.972367,-115.0
2023-08-16 13:17:24.980056,-115.0
2023-08-16 13:17:24.987746,-113.0
2023-08-16 13:17:24.995435,-110.0
2023-08-16 13:17:25.003125,-110.0
2023-08-16 13:17:25.010814,-110.0
2023-08-16 13:17:25.018504,-108.0
2023-08-16 13:17:25.026193,-103.0
2023-08-16 13:17:25.033883,-103.0
2023-08-16 13:17:25.041572,-103.0
2023-08-16 13:17:25.049262,-98.0
2023-08-16 13:17:25.056951,-96.0
2023-08-16 13:17:25.064641,-91.0
2023-08-16 13:17:25.072330,-91.0
2023-08-16 13:17:25.080020,-88.0
2023-08-16 13:17:25.087709,-86.0
2023-08-16 13:17:25.095398,-84.0
2023-08-16 13:17:25.103088,-81.0
2023-08-16 13:17:25.110777,-79.0
2023-08-16 13:17:25.118467,-81.0
2023-08-16 13:17:25.126156,-81.0
2023-08-16 13:17:25.133846,-84.0
2023-08-16 13:17:25.141535,-86.0
2023-08-16 13:17:25.149225,-79.0
2023-08-16 13:17:25.156914,-60.0
2023-08-16 13:17:25.164604,-45.0
2023-08-16 13:17:25.172293,-40.0
2023-08-16 13:17:25.179983,-33.0
2023-08-16 13:17:25.187672,-31.0
2023-08-16 13:17:25.195362,-45.0
2023-08-16 13:17:25.203051,-64.0
2023-08-16 13:17:25.210741,-69.0
2023-08-16 13:17:25.218430,-76.0
2023-08-16 13:17:25.226119,-81.0
2023-08-16 13:17:25.233809,-76.0
2023-08-16 13:17:25.241498,-69.0
2023-08-16 13:17:25.249188,-72.0
2023-08-16 13:17:25.256877,-79.0
2023-08-16 13:17:25.264567,-60.0
2023-08-16 13:17:25.272256,134.0
2023-08-16 13:17:25.279946,610.0
2023-08-16 13:17:25.287635,1159.0
2023-08-16 13:17:25.295325,1204.0
2023-08-16 13:17:25.303014,456.0
2023-08-16 13:17:25.310704,-286.0
2023-08-16 13:17:25.318393,-293.0
2023-08-16 13:17:25.326083,-103.0
2023-08-16 13:17:25.333772,-177.0
2023-08-16 13:17:25.341462,-216.0
2023-08-16 13:17:25.349151,-146.0
2023-08-16 13:17:25.356841,-151.0
2023-08-16 13:17:25.364530,-170.0
2023-08-16 13:17:25.372219,-141.0
2023-08-16 13:17:25.379909,-127.0
2023-08-16 13:17:25.387598,-129.0
2023-08-16 13:17:25.395288,-120.0
2023-08-16 13:17:25.402977,-110.0
2023-08-16 13:17:25.410667,-108.0
2023-08-16 13:17:25.418356,-98.0
2023-08-16 13:17:25.426046,-86.0
2023-08-16 13:17:25.433735,-79.0
2023-08-16 13:17:25.441425,-79.0
2023-08-16 13:17:25.449114,-72.0
2023-08-16 13:17:25.456804,-52.0
2023-08-16 13:17:25.464493,-36.0
2023-08-16 13:17:25.472183,-14.0
2023-08-16 13:17:25.479872,7.0
2023-08-16 13:17:25.487562,28.0
2023-08-16 13:17:25.495251,57.0
2023-08-16 13:17:25.502940,91.0
2023-08-16 13:17:25.510630,125.0
2023-08-16 13:17:25.518319,151.0
2023-08-16 13:17:25.526009,168.0
2023-08-16 13:17:25.533698,175.0
2023-08-16 13:17:25.541388,177.0
2023-08-16 13:17:25.549077,168.0
2023-08-16 13:17:25.556767,134.0
2023-08-16 13:17:25.564456,79.0
2023-08-16 13:17:25.572146,2.0
2023-08-16 13:17:25.579835,-72.0
2023-08-16 13:17:25.587525,-129.0
2023-08-16 13:17:25.595214,-173.0
2023-08-16 13:17:25.602904,-199.0
2023-08-16 13:17:25.610593,-211.0
2023-08-16 13:17:25.618283,-216.0
2023-08-16 13:17:25.625972,-216.0
2023-08-16 13:17:25.633662,-209.0
2023-08-16 13:17:25.641351,-199.0
2023-08-16 13:17:25.649040,-194.0
2023-08-16 13:17:25.656730,-187.0
2023-08-16 13:17:25.664419,-180.0
2023-08-16 13:17:25.672109,-173.0
2023-08-16 13:17:25.679798,-165.0
2023-08-16 13:17:25.687488,-161.0
2023-08-16 13:17:25.695177,-153.0
2023-08-16 13:17:25.702867,-146.0
2023-08-16 13:17:25.710556,-141.0
2023-08-16 13:17:25.718246,-144.0
2023-08-16 13:17:25.725935,-144.0
2023-08-16 13:17:25.733625,-139.0
2023-08-16 13:17:25.741314,-137.0
2023-08-16 13:17:25.749004,-141.0
2023-08-16 13:17:25.756693,-139.0
2023-08-16 13:17:25.764383,-134.0
2023-08-16 13:17:25.772072,-132.0
2023-08-16 13:17:25.779761,-134.0
2023-08-16 13:17:25.787451,-129.0
2023-08-16 13:17:25.795140,-127.0
2023-08-16 13:17:25.802830,-127.0
2023-08-16 13:17:25.810519,-122.0
2023-08-16 13:17:25.818209,-120.0
2023-08-16 13:17:25.825898,-120.0
2023-08-16 13:17:25.833588,-115.0
2023-08-16 13:17:25.841277,-113.0
2023-08-16 13:17:25.848967,-113.0
2023-08-16 13:17:25.856656,-110.0
2023-08-16 13:17:25.864346,-105.0
2023-08-16 13:17:25.872035,-105.0
2023-08-16 13:17:25.879725,-103.0
2023-08-16 13:17:25.887414,-103.0
2023-08-16 13:17:25.895104,-98.0
2023-08-16 13:17:25.902793,-96.0
2023-08-16 13:17:25.910482,-93.0
2023-08-16 13:17:25.918172,-93.0
2023-08-16 13:17:25.925861,-91.0
2023-08-16 13:17:25.933551,-88.0
2023-08-16 13:17:25.941240,-88.0
2023-08-16 13:17:25.948930,-86.0
2023-08-16 13:17:25.956619,-84.0
2023-08-16 13:17:25.964309,-84.0
2023-08-16 13:17:25.971998,-84.0
2023-08-16 13:17:25.979688,-91.0
2023-08-16 13:17:25.987377,-96.0
2023-08-16 13:17:25.995067,-93.0
2023-08-16 13:17:26.002756,-91.0
2023-08-16 13:17:26.010446,-88.0
2023-08-16 13:17:26.018135,-86.0
2023-08-16 13:17:26.025825,-86.0
2023-08-16 13:17:26.033514,-84.0
2023-08-16 13:17:26.041204,-79.0
2023-08-16 13:17:26.048893,-76.0
2023-08-16 13:17:26.056582,-76.0
2023-08-16 13:17:26.064272,-76.0
2023-08-16 13:17:26.071961,-76.0
2023-08-16 13:17:26.079651,-79.0
2023-08-16 13:17:26.087340,-81.0
2023-08-16 13:17:26.095030,-79.0
2023-08-16 13:17:26.102719,-67.0
2023-08-16 13:17:26.110409,-50.0
2023-08-16 13:17:26.118098,-40.0
2023-08-16 13:17:26.125788,-33.0
2023-08-16 13:17:26.133477,-33.0
2023-08-16 13:17:26.141167,-40.0
2023-08-16 13:17:26.148856,-57.0
2023-08-16 13:17:26.156546,-69.0
2023-08-16 13:17:26.164235,-72.0
2023-08-16 13:17:26.171925,-69.0
2023-08-16 13:17:26.179614,-69.0
2023-08-16 13:17:26.187303,-72.0
2023-08-16 13:17:26.194993,-72.0
2023-08-16 13:17:26.202682,-72.0
2023-08-16 13:17:26.210372,-74.0
2023-08-16 13:17:26.218061,14.0
2023-08-16 13:17:26.225751,363.0
2023-08-16 13:17:26.233440,923.0
2023-08-16 13:17:26.241130,1260.0
2023-08-16 13:17:26.248819,824.0
2023-08-16 13:17:26.256509,-55.0
2023-08-16 13:17:26.264198,-382.0
2023-08-16 13:17:26.271888,-170.0
2023-08-16 13:17:26.279577,-144.0
2023-08-16 13:17:26.287267,-245.0
2023-08-16 13:17:26.294956,-197.0
2023-08-16 13:17:26.302646,-156.0
2023-08-16 13:17:26.310335,-182.0
2023-08-16 13:17:26.318025,-163.0
2023-08-16 13:17:26.325714,-137.0
2023-08-16 13:17:26.333403,-141.0
2023-08-16 13:17:26.341093,-141.0
2023-08-16 13:17:26.348782,-129.0
2023-08-16 13:17:26.356472,-125.0
2023-08-16 13:17:26.364161,-120.0
2023-08-16 13:17:26.371851,-110.0
2023-08-16 13:17:26.379540,-105.0
2023-08-16 13:17:26.387230,-101.0
2023-08-16 13:17:26.394919,-86.0
2023-08-16 13:17:26.402609,-72.0
2023-08-16 13:17:26.410298,-57.0
2023-08-16 13:17:26.417988,-40.0
2023-08-16 13:17:26.425677,-21.0
2023-08-16 13:17:26.433367,2.0
2023-08-16 13:17:26.441056,33.0
2023-08-16 13:17:26.448746,72.0
2023-08-16 13:17:26.456435,108.0
2023-08-16 13:17:26.464124,132.0
2023-08-16 13:17:26.471814,153.0
2023-08-16 13:17:26.479503,170.0
2023-08-16 13:17:26.487193,180.0
2023-08-16 13:17:26.494882,180.0
2023-08-16 13:17:26.502572,165.0
2023-08-16 13:17:26.510261,125.0
2023-08-16 13:17:26.517951,52.0
2023-08-16 13:17:26.525640,-28.0
2023-08-16 13:17:26.533330,-93.0
2023-08-16 13:17:26.541019,-149.0
2023-08-16 13:17:26.548709,-187.0
2023-08-16 13:17:26.556398,-209.0
2023-08-16 13:17:26.564088,-221.0
2023-08-16 13:17:26.571777,-226.0
2023-08-16 13:17:26.579467,-223.0
2023-08-16 13:17:26.587156,-214.0
2023-08-16 13:17:26.594845,-202.0
2023-08-16 13:17:26.602535,-197.0
2023-08-16 13:17:26.610224,-192.0
2023-08-16 13:17:26.617914,-182.0
2023-08-16 13:17:26.625603,-175.0
2023-08-16 13:17:26.633293,-170.0
2023-08-16 13:17:26.640982,-163.0
2023-08-16 13:17:26.648672,-158.0
2023-08-16 13:17:26.656361,-156.0
2023-08-16 13:17:26.664051,-149.0
2023-08-16 13:17:26.671740,-141.0
2023-08-16 13:17:26.679430,-139.0
2023-08-16 13:17:26.687119,-139.0
2023-08-16 13:17:26.694809,-139.0
2023-08-16 13:17:26.702498,-144.0
2023-08-16 13:17:26.710188,-141.0
2023-08-16 13:17:26.717877,-132.0
2023-08-16 13:17:26.725567,-132.0
2023-08-16 13:17:26.733256,-139.0
2023-08-16 13:17:26.740945,-144.0
2023-08-16 13:17:26.748635,-141.0
2023-08-16 13:17:26.756324,-134.0
2023-08-16 13:17:26.764014,-129.0
2023-08-16 13:17:26.771703,-127.0
2023-08-16 13:17:26.779393,-122.0
2023-08-16 13:17:26.787082,-122.0
2023-08-16 13:17:26.794772,-125.0
2023-08-16 13:17:26.802461,-122.0
2023-08-16 13:17:26.810151,-117.0
2023-08-16 13:17:26.817840,-117.0
2023-08-16 13:17:26.825530,-113.0
2023-08-16 13:17:26.833219,-113.0
2023-08-16 13:17:26.840909,-108.0
2023-08-16 13:17:26.848598,-103.0
2023-08-16 13:17:26.856288,-103.0
2023-08-16 13:17:26.863977,-103.0
2023-08-16 13:17:26.871666,-101.0
2023-08-16 13:17:26.879356,-101.0
2023-08-16 13:17:26.887045,-103.0
2023-08-16 13:17:26.894735,-101.0
2023-08-16 13:17:26.902424,-96.0
2023-08-16 13:17:26.910114,-93.0
2023-08-16 13:17:26.917803,-93.0
2023-08-16 13:17:26.925493,-88.0
2023-08-16 13:17:26.933182,-88.0
2023-08-16 13:17:26.940872,-88.0
2023-08-16 13:17:26.948561,-84.0
2023-08-16 13:17:26.956251,-79.0
2023-08-16 13:17:26.963940,-81.0
2023-08-16 13:17:26.971630,-84.0
2023-08-16 13:17:26.979319,-84.0
2023-08-16 13:17:26.987009,-81.0
2023-08-16 13:17:26.994698,-81.0
2023-08-16 13:17:27.002387,-88.0
2023-08-16 13:17:27.010077,-88.0
2023-08-16 13:17:27.017766,-81.0
2023-08-16 13:17:27.025456,-64.0
2023-08-16 13:17:27.033145,-50.0
2023-08-16 13:17:27.040835,-43.0
2023-08-16 13:17:27.048524,-40.0
2023-08-16 13:17:27.056214,-52.0
2023-08-16 13:17:27.063903,-72.0
2023-08-16 13:17:27.071593,-84.0
2023-08-16 13:17:27.079282,-86.0
2023-08-16 13:17:27.086972,-86.0
2023-08-16 13:17:27.094661,-86.0
2023-08-16 13:17:27.102351,-88.0
2023-08-16 13:17:27.110040,-93.0
2023-08-16 13:17:27.117730,-91.0
2023-08-16 13:17:27.125419,-81.0
2023-08-16 13:17:27.133109,28.0
2023-08-16 13:17:27.140798,391.0
2023-08-16 13:17:27.148487,916.0
2023-08-16 13:17:27.156177,1154.0
2023-08-16 13:17:27.163866,658.0
2023-08-16 13:17:27.171556,-168.0
2023-08-16 13:17:27.179245,-411.0
2023-08-16 13:17:27.186935,-177.0
2023-08-16 13:17:27.194624,-151.0
2023-08-16 13:17:27.202314,-230.0
2023-08-16 13:17:27.210003,-173.0
2023-08-16 13:17:27.217693,-141.0
2023-08-16 13:17:27.225382,-168.0
2023-08-16 13:17:27.233072,-156.0
2023-08-16 13:17:27.240761,-141.0
2023-08-16 13:17:27.248451,-149.0
2023-08-16 13:17:27.256140,-139.0
2023-08-16 13:17:27.263830,-122.0
2023-08-16 13:17:27.271519,-117.0
2023-08-16 13:17:27.279208,-110.0
2023-08-16 13:17:27.286898,-96.0
2023-08-16 13:17:27.294587,-86.0
2023-08-16 13:17:27.302277,-79.0
2023-08-16 13:17:27.309966,-69.0
2023-08-16 13:17:27.317656,-55.0
2023-08-16 13:17:27.325345,-36.0
2023-08-16 13:17:27.333035,-19.0
2023-08-16 13:17:27.340724,2.0
2023-08-16 13:17:27.348414,28.0
2023-08-16 13:17:27.356103,60.0
2023-08-16 13:17:27.363793,91.0
2023-08-16 13:17:27.371482,122.0
2023-08-16 13:17:27.379172,149.0
2023-08-16 13:17:27.386861,168.0
2023-08-16 13:17:27.394551,180.0
2023-08-16 13:17:27.402240,185.0
2023-08-16 13:17:27.409930,185.0
2023-08-16 13:17:27.417619,170.0
2023-08-16 13:17:27.425308,129.0
2023-08-16 13:17:27.432998,67.0
2023-08-16 13:17:27.440687,-7.0
2023-08-16 13:17:27.448377,-72.0
2023-08-16 13:17:27.456066,-125.0
2023-08-16 13:17:27.463756,-161.0
2023-08-16 13:17:27.471445,-182.0
2023-08-16 13:17:27.479135,-194.0
2023-08-16 13:17:27.486824,-194.0
2023-08-16 13:17:27.494514,-189.0
2023-08-16 13:17:27.502203,-185.0
2023-08-16 13:17:27.509893,-182.0
2023-08-16 13:17:27.517582,-175.0
2023-08-16 13:17:27.525272,-168.0
2023-08-16 13:17:27.532961,-158.0
2023-08-16 13:17:27.540651,-149.0
2023-08-16 13:17:27.548340,-139.0
2023-08-16 13:17:27.556029,-134.0
2023-08-16 13:17:27.563719,-129.0
2023-08-16 13:17:27.571408,-125.0
2023-08-16 13:17:27.579098,-117.0
2023-08-16 13:17:27.586787,-113.0
2023-08-16 13:17:27.594477,-110.0
2023-08-16 13:17:27.602166,-108.0
2023-08-16 13:17:27.609856,-105.0
2023-08-16 13:17:27.617545,-105.0
2023-08-16 13:17:27.625235,-108.0
2023-08-16 13:17:27.632924,-108.0
2023-08-16 13:17:27.640614,-110.0
2023-08-16 13:17:27.648303,-117.0
2023-08-16 13:17:27.655993,-115.0
2023-08-16 13:17:27.663682,-110.0
2023-08-16 13:17:27.671372,-110.0
2023-08-16 13:17:27.679061,-108.0
2023-08-16 13:17:27.686750,-105.0
2023-08-16 13:17:27.694440,-105.0
2023-08-16 13:17:27.702129,-101.0
2023-08-16 13:17:27.709819,-101.0
2023-08-16 13:17:27.717508,-103.0
2023-08-16 13:17:27.725198,-101.0
2023-08-16 13:17:27.732887,-98.0
2023-08-16 13:17:27.740577,-101.0
2023-08-16 13:17:27.748266,-103.0
2023-08-16 13:17:27.755956,-103.0
2023-08-16 13:17:27.763645,-98.0
2023-08-16 13:17:27.771335,-96.0
2023-08-16 13:17:27.779024,-96.0
2023-08-16 13:17:27.786714,-93.0
2023-08-16 13:17:27.794403,-91.0
2023-08-16 13:17:27.802093,-88.0
2023-08-16 13:17:27.809782,-86.0
2023-08-16 13:17:27.817472,-84.0
2023-08-16 13:17:27.825161,-84.0
2023-08-16 13:17:27.832850,-84.0
2023-08-16 13:17:27.840540,-79.0
2023-08-16 13:17:27.848229,-79.0
2023-08-16 13:17:27.855919,-84.0
2023-08-16 13:17:27.863608,-84.0
2023-08-16 13:17:27.871298,-81.0
2023-08-16 13:17:27.878987,-79.0
2023-08-16 13:17:27.886677,-76.0
2023-08-16 13:17:27.894366,-76.0
2023-08-16 13:17:27.902056,-76.0
2023-08-16 13:17:27.909745,-79.0
2023-08-16 13:17:27.917435,-81.0
2023-08-16 13:17:27.925124,-84.0
2023-08-16 13:17:27.932814,-76.0
2023-08-16 13:17:27.940503,-60.0
2023-08-16 13:17:27.948193,-45.0
2023-08-16 13:17:27.955882,-36.0
2023-08-16 13:17:27.963571,-33.0
2023-08-16 13:17:27.971261,-40.0
2023-08-16 13:17:27.978950,-55.0
2023-08-16 13:17:27.986640,-69.0
2023-08-16 13:17:27.994329,-76.0
2023-08-16 13:17:28.002019,-76.0
2023-08-16 13:17:28.009708,-76.0
2023-08-16 13:17:28.017398,-76.0
2023-08-16 13:17:28.025087,-74.0
2023-08-16 13:17:28.032777,-74.0
2023-08-16 13:17:28.040466,-81.0
2023-08-16 13:17:28.048156,-33.0
2023-08-16 13:17:28.055845,228.0
2023-08-16 13:17:28.063535,747.0
2023-08-16 13:17:28.071224,1195.0
2023-08-16 13:17:28.078914,993.0
2023-08-16 13:17:28.086603,153.0
2023-08-16 13:17:28.094292,-372.0
2023-08-16 13:17:28.101982,-230.0
2023-08-16 13:17:28.109671,-115.0
2023-08-16 13:17:28.117361,-214.0
2023-08-16 13:17:28.125050,-199.0
2023-08-16 13:17:28.132740,-139.0
2023-08-16 13:17:28.140429,-161.0
2023-08-16 13:17:28.148119,-163.0
2023-08-16 13:17:28.155808,-132.0
2023-08-16 13:17:28.163498,-127.0
2023-08-16 13:17:28.171187,-127.0
2023-08-16 13:17:28.178877,-117.0
2023-08-16 13:17:28.186566,-117.0
2023-08-16 13:17:28.194256,-115.0
2023-08-16 13:17:28.201945,-101.0
2023-08-16 13:17:28.209635,-93.0
2023-08-16 13:17:28.217324,-88.0
2023-08-16 13:17:28.225014,-79.0
2023-08-16 13:17:28.232703,-67.0
2023-08-16 13:17:28.240392,-52.0
2023-08-16 13:17:28.248082,-38.0
2023-08-16 13:17:28.255771,-24.0
2023-08-16 13:17:28.263461,2.0
2023-08-16 13:17:28.271150,31.0
2023-08-16 13:17:28.278840,60.0
2023-08-16 13:17:28.286529,93.0
2023-08-16 13:17:28.294219,127.0
2023-08-16 13:17:28.301908,149.0
2023-08-16 13:17:28.309598,163.0
2023-08-16 13:17:28.317287,173.0
2023-08-16 13:17:28.324977,175.0
2023-08-16 13:17:28.332666,170.0
2023-08-16 13:17:28.340356,141.0
2023-08-16 13:17:28.348045,88.0
2023-08-16 13:17:28.355735,19.0
2023-08-16 13:17:28.363424,-57.0
2023-08-16 13:17:28.371113,-115.0
2023-08-16 13:17:28.378803,-153.0
2023-08-16 13:17:28.386492,-180.0
2023-08-16 13:17:28.394182,-194.0
2023-08-16 13:17:28.401871,-199.0
2023-08-16 13:17:28.409561,-199.0
2023-08-16 13:17:28.417250,-194.0
2023-08-16 13:17:28.424940,-185.0
2023-08-16 13:17:28.432629,-175.0
2023-08-16 13:17:28.440319,-170.0
2023-08-16 13:17:28.448008,-165.0
2023-08-16 13:17:28.455698,-161.0
2023-08-16 13:17:28.463387,-153.0
2023-08-16 13:17:28.471077,-141.0
2023-08-16 13:17:28.478766,-134.0
2023-08-16 13:17:28.486456,-129.0
2023-08-16 13:17:28.494145,-127.0
2023-08-16 13:17:28.501835,-125.0
2023-08-16 13:17:28.509524,-122.0
2023-08-16 13:17:28.517213,-117.0
2023-08-16 13:17:28.524903,-115.0
2023-08-16 13:17:28.532592,-113.0
2023-08-16 13:17:28.540282,-113.0
2023-08-16 13:17:28.547971,-115.0
2023-08-16 13:17:28.555661,-113.0
2023-08-16 13:17:28.563350,-108.0
2023-08-16 13:17:28.571040,-110.0
2023-08-16 13:17:28.578729,-108.0
2023-08-16 13:17:28.586419,-108.0
2023-08-16 13:17:28.594108,-108.0
2023-08-16 13:17:28.601798,-105.0
2023-08-16 13:17:28.609487,-101.0
2023-08-16 13:17:28.617177,-98.0
2023-08-16 13:17:28.624866,-98.0
2023-08-16 13:17:28.632556,-96.0
2023-08-16 13:17:28.640245,-98.0
2023-08-16 13:17:28.647934,-93.0
2023-08-16 13:17:28.655624,-88.0
2023-08-16 13:17:28.663313,-88.0
2023-08-16 13:17:28.671003,-88.0
2023-08-16 13:17:28.678692,-88.0
2023-08-16 13:17:28.686382,-86.0
2023-08-16 13:17:28.694071,-84.0
2023-08-16 13:17:28.701761,-86.0
2023-08-16 13:17:28.709450,-84.0
2023-08-16 13:17:28.717140,-81.0
2023-08-16 13:17:28.724829,-84.0
2023-08-16 13:17:28.732519,-88.0
2023-08-16 13:17:28.740208,-86.0
2023-08-16 13:17:28.747898,-86.0
2023-08-16 13:17:28.755587,-88.0
2023-08-16 13:17:28.763277,-91.0
2023-08-16 13:17:28.770966,-88.0
2023-08-16 13:17:28.778655,-88.0
2023-08-16 13:17:28.786345,-86.0
2023-08-16 13:17:28.794034,-84.0
2023-08-16 13:17:28.801724,-81.0
2023-08-16 13:17:28.809413,-86.0
2023-08-16 13:17:28.817103,-93.0
2023-08-16 13:17:28.824792,-101.0
2023-08-16 13:17:28.832482,-98.0
2023-08-16 13:17:28.840171,-86.0
2023-08-16 13:17:28.847861,-69.0
2023-08-16 13:17:28.855550,-55.0
2023-08-16 13:17:28.863240,-50.0
2023-08-16 13:17:28.870929,-48.0
2023-08-16 13:17:28.878619,-55.0
2023-08-16 13:17:28.886308,-69.0
2023-08-16 13:17:28.893998,-84.0
2023-08-16 13:17:28.901687,-91.0
2023-08-16 13:17:28.909377,-91.0
2023-08-16 13:17:28.917066,-93.0
2023-08-16 13:17:28.924755,-96.0
2023-08-16 13:17:28.932445,-88.0
2023-08-16 13:17:28.940134,-88.0
2023-08-16 13:17:28.947824,-93.0
2023-08-16 13:17:28.955513,-2.0
2023-08-16 13:17:28.963203,339.0
2023-08-16 13:17:28.970892,884.0
2023-08-16 13:17:28.978582,1192.0
2023-08-16 13:17:28.986271,755.0
2023-08-16 13:17:28.993961,-84.0
2023-08-16 13:17:29.001650,-377.0
2023-08-16 13:17:29.009340,-168.0
2023-08-16 13:17:29.017029,-144.0
2023-08-16 13:17:29.024719,-230.0
2023-08-16 13:17:29.032408,-180.0
2023-08-16 13:17:29.040098,-146.0
2023-08-16 13:17:29.047787,-170.0
2023-08-16 13:17:29.055476,-158.0
2023-08-16 13:17:29.063166,-134.0
2023-08-16 13:17:29.070855,-132.0
2023-08-16 13:17:29.078545,-125.0
2023-08-16 13:17:29.086234,-113.0
2023-08-16 13:17:29.093924,-105.0
2023-08-16 13:17:29.101613,-101.0
2023-08-16 13:17:29.109303,-91.0
2023-08-16 13:17:29.116992,-81.0
2023-08-16 13:17:29.124682,-72.0
2023-08-16 13:17:29.132371,-62.0
2023-08-16 13:17:29.140061,-50.0
2023-08-16 13:17:29.147750,-33.0
2023-08-16 13:17:29.155440,-16.0
2023-08-16 13:17:29.163129,4.0
2023-08-16 13:17:29.170819,31.0
2023-08-16 13:17:29.178508,60.0
2023-08-16 13:17:29.186198,84.0
2023-08-16 13:17:29.193887,110.0
2023-08-16 13:17:29.201576,139.0
2023-08-16 13:17:29.209266,161.0
2023-08-16 13:17:29.216955,173.0
2023-08-16 13:17:29.224645,180.0
2023-08-16 13:17:29.232334,182.0
2023-08-16 13:17:29.240024,170.0
2023-08-16 13:17:29.247713,134.0
2023-08-16 13:17:29.255403,67.0
2023-08-16 13:17:29.263092,-12.0
2023-08-16 13:17:29.270782,-74.0
2023-08-16 13:17:29.278471,-122.0
2023-08-16 13:17:29.286161,-163.0
2023-08-16 13:17:29.293850,-189.0
2023-08-16 13:17:29.301540,-199.0
2023-08-16 13:17:29.309229,-202.0
2023-08-16 13:17:29.316919,-199.0
2023-08-16 13:17:29.324608,-192.0
2023-08-16 13:17:29.332297,-187.0
2023-08-16 13:17:29.339987,-177.0
2023-08-16 13:17:29.347676,-170.0
2023-08-16 13:17:29.355366,-170.0
2023-08-16 13:17:29.363055,-173.0
2023-08-16 13:17:29.370745,-163.0
2023-08-16 13:17:29.378434,-153.0
2023-08-16 13:17:29.386124,-146.0
2023-08-16 13:17:29.393813,-139.0
2023-08-16 13:17:29.401503,-137.0
2023-08-16 13:17:29.409192,-137.0
2023-08-16 13:17:29.416882,-134.0
2023-08-16 13:17:29.424571,-129.0
2023-08-16 13:17:29.432261,-127.0
2023-08-16 13:17:29.439950,-134.0
2023-08-16 13:17:29.447640,-141.0
2023-08-16 13:17:29.455329,-132.0
2023-08-16 13:17:29.463018,-127.0
2023-08-16 13:17:29.470708,-129.0
2023-08-16 13:17:29.478397,-125.0
2023-08-16 13:17:29.486087,-125.0
2023-08-16 13:17:29.493776,-127.0
2023-08-16 13:17:29.501466,-125.0
2023-08-16 13:17:29.509155,-117.0
2023-08-16 13:17:29.516845,-117.0
2023-08-16 13:17:29.524534,-117.0
2023-08-16 13:17:29.532224,-115.0
2023-08-16 13:17:29.539913,-115.0
2023-08-16 13:17:29.547603,-110.0
2023-08-16 13:17:29.555292,-108.0
2023-08-16 13:17:29.562982,-103.0
2023-08-16 13:17:29.570671,-101.0
2023-08-16 13:17:29.578361,-98.0
2023-08-16 13:17:29.586050,-98.0
2023-08-16 13:17:29.593740,-96.0
2023-08-16 13:17:29.601429,-91.0
2023-08-16 13:17:29.609118,-91.0
2023-08-16 13:17:29.616808,-96.0
2023-08-16 13:17:29.624497,-98.0
2023-08-16 13:17:29.632187,-88.0
2023-08-16 13:17:29.639876,-84.0
2023-08-16 13:17:29.647566,-88.0
2023-08-16 13:17:29.655255,-91.0
2023-08-16 13:17:29.662945,-81.0
2023-08-16 13:17:29.670634,-79.0
2023-08-16 13:17:29.678324,-84.0
2023-08-16 13:17:29.686013,-91.0
2023-08-16 13:17:29.693703,-88.0
2023-08-16 13:17:29.701392,-81.0
2023-08-16 13:17:29.709082,-86.0
2023-08-16 13:17:29.716771,-98.0
2023-08-16 13:17:29.724461,-101.0
2023-08-16 13:17:29.732150,-91.0
2023-08-16 13:17:29.739839,-72.0
2023-08-16 13:17:29.747529,-55.0
2023-08-16 13:17:29.755218,-45.0
2023-08-16 13:17:29.762908,-45.0
2023-08-16 13:17:29.770597,-60.0
2023-08-16 13:17:29.778287,-76.0
2023-08-16 13:17:29.785976,-84.0
2023-08-16 13:17:29.793666,-88.0
2023-08-16 13:17:29.801355,-93.0
2023-08-16 13:17:29.809045,-91.0
2023-08-16 13:17:29.816734,-86.0
2023-08-16 13:17:29.824424,-86.0
2023-08-16 13:17:29.832113,-81.0
2023-08-16 13:17:29.839803,-79.0
2023-08-16 13:17:29.847492,4.0
2023-08-16 13:17:29.855182,334.0
2023-08-16 13:17:29.862871,858.0
2023-08-16 13:17:29.870560,1144.0
2023-08-16 13:17:29.878250,723.0
2023-08-16 13:17:29.885939,-113.0
2023-08-16 13:17:29.893629,-435.0
2023-08-16 13:17:29.901318,-218.0
2023-08-16 13:17:29.909008,-161.0
2023-08-16 13:17:29.916697,-245.0
2023-08-16 13:17:29.924387,-199.0
2023-08-16 13:17:29.932076,-158.0
2023-08-16 13:17:29.939766,-182.0
2023-08-16 13:17:29.947455,-170.0
2023-08-16 13:17:29.955145,-144.0
2023-08-16 13:17:29.962834,-141.0
2023-08-16 13:17:29.970524,-137.0
2023-08-16 13:17:29.978213,-122.0
2023-08-16 13:17:29.985903,-113.0
2023-08-16 13:17:29.993592,-108.0
2023-08-16 13:17:30.001282,-101.0
2023-08-16 13:17:30.008971,-91.0
2023-08-16 13:17:30.016660,-79.0
2023-08-16 13:17:30.024350,-69.0
2023-08-16 13:17:30.032039,-60.0
2023-08-16 13:17:30.039729,-38.0
2023-08-16 13:17:30.047418,-16.0
2023-08-16 13:17:30.055108,2.0
2023-08-16 13:17:30.062797,21.0
2023-08-16 13:17:30.070487,50.0
2023-08-16 13:17:30.078176,81.0
2023-08-16 13:17:30.085866,117.0
2023-08-16 13:17:30.093555,146.0
2023-08-16 13:17:30.101245,168.0
2023-08-16 13:17:30.108934,177.0
2023-08-16 13:17:30.116624,180.0
2023-08-16 13:17:30.124313,182.0
2023-08-16 13:17:30.132003,173.0
2023-08-16 13:17:30.139692,137.0
2023-08-16 13:17:30.147381,79.0
2023-08-16 13:17:30.155071,12.0
2023-08-16 13:17:30.162760,-57.0
2023-08-16 13:17:30.170450,-117.0
2023-08-16 13:17:30.178139,-161.0
2023-08-16 13:17:30.185829,-185.0
2023-08-16 13:17:30.193518,-197.0
2023-08-16 13:17:30.201208,-204.0
2023-08-16 13:17:30.208897,-206.0
2023-08-16 13:17:30.216587,-199.0
2023-08-16 13:17:30.224276,-189.0
2023-08-16 13:17:30.231966,-182.0
2023-08-16 13:17:30.239655,-177.0
2023-08-16 13:17:30.247345,-168.0
2023-08-16 13:17:30.255034,-158.0
2023-08-16 13:17:30.262724,-151.0
2023-08-16 13:17:30.270413,-151.0
2023-08-16 13:17:30.278103,-149.0
2023-08-16 13:17:30.285792,-141.0
2023-08-16 13:17:30.293481,-137.0
2023-08-16 13:17:30.301171,-141.0
2023-08-16 13:17:30.308860,-141.0
2023-08-16 13:17:30.316550,-134.0
2023-08-16 13:17:30.324239,-132.0
2023-08-16 13:17:30.331929,-132.0
2023-08-16 13:17:30.339618,-129.0
2023-08-16 13:17:30.347308,-129.0
2023-08-16 13:17:30.354997,-132.0
2023-08-16 13:17:30.362687,-127.0
2023-08-16 13:17:30.370376,-120.0
2023-08-16 13:17:30.378066,-117.0
2023-08-16 13:17:30.385755,-115.0
2023-08-16 13:17:30.393445,-115.0
2023-08-16 13:17:30.401134,-110.0
2023-08-16 13:17:30.408824,-105.0
2023-08-16 13:17:30.416513,-105.0
2023-08-16 13:17:30.424202,-108.0
2023-08-16 13:17:30.431892,-105.0
2023-08-16 13:17:30.439581,-105.0
2023-08-16 13:17:30.447271,-103.0
2023-08-16 13:17:30.454960,-96.0
2023-08-16 13:17:30.462650,-91.0
2023-08-16 13:17:30.470339,-91.0
2023-08-16 13:17:30.478029,-98.0
2023-08-16 13:17:30.485718,-105.0
2023-08-16 13:17:30.493408,-98.0
2023-08-16 13:17:30.501097,-93.0
2023-08-16 13:17:30.508787,-93.0
2023-08-16 13:17:30.516476,-91.0
2023-08-16 13:17:30.524166,-91.0
2023-08-16 13:17:30.531855,-93.0
2023-08-16 13:17:30.539545,-93.0
2023-08-16 13:17:30.547234,-91.0
2023-08-16 13:17:30.554923,-79.0
2023-08-16 13:17:30.562613,-57.0
2023-08-16 13:17:30.570302,-45.0
2023-08-16 13:17:30.577992,-43.0
2023-08-16 13:17:30.585681,-40.0
2023-08-16 13:17:30.593371,-48.0
2023-08-16 13:17:30.601060,-69.0
2023-08-16 13:17:30.608750,-81.0
2023-08-16 13:17:30.616439,-79.0
2023-08-16 13:17:30.624129,-79.0
2023-08-16 13:17:30.631818,-79.0
2023-08-16 13:17:30.639508,-74.0
2023-08-16 13:17:30.647197,-72.0
2023-08-16 13:17:30.654887,-74.0
2023-08-16 13:17:30.662576,-64.0
2023-08-16 13:17:30.670266,69.0
2023-08-16 13:17:30.677955,464.0
2023-08-16 13:17:30.685645,988.0
2023-08-16 13:17:30.693334,1139.0
2023-08-16 13:17:30.701023,531.0
2023-08-16 13:17:30.708713,-245.0
2023-08-16 13:17:30.716402,-351.0
2023-08-16 13:17:30.724092,-122.0
2023-08-16 13:17:30.731781,-146.0
2023-08-16 13:17:30.739471,-209.0
2023-08-16 13:17:30.747160,-141.0
2023-08-16 13:17:30.754850,-129.0
2023-08-16 13:17:30.762539,-156.0
2023-08-16 13:17:30.770229,-134.0
2023-08-16 13:17:30.777918,-122.0
2023-08-16 13:17:30.785608,-132.0
2023-08-16 13:17:30.793297,-125.0
2023-08-16 13:17:30.800987,-110.0
2023-08-16 13:17:30.808676,-108.0
2023-08-16 13:17:30.816366,-98.0
2023-08-16 13:17:30.824055,-84.0
2023-08-16 13:17:30.831744,-76.0
2023-08-16 13:17:30.839434,-72.0
2023-08-16 13:17:30.847123,-60.0
2023-08-16 13:17:30.854813,-45.0
2023-08-16 13:17:30.862502,-31.0
2023-08-16 13:17:30.870192,-12.0
2023-08-16 13:17:30.877881,7.0
2023-08-16 13:17:30.885571,31.0
2023-08-16 13:17:30.893260,60.0
2023-08-16 13:17:30.900950,91.0
2023-08-16 13:17:30.908639,120.0
2023-08-16 13:17:30.916329,144.0
2023-08-16 13:17:30.924018,156.0
2023-08-16 13:17:30.931708,165.0
2023-08-16 13:17:30.939397,173.0
2023-08-16 13:17:30.947087,168.0
2023-08-16 13:17:30.954776,146.0
2023-08-16 13:17:30.962466,98.0
2023-08-16 13:17:30.970155,31.0
2023-08-16 13:17:30.977844,-38.0
2023-08-16 13:17:30.985534,-101.0
2023-08-16 13:17:30.993223,-146.0
2023-08-16 13:17:31.000913,-175.0
2023-08-16 13:17:31.008602,-192.0
2023-08-16 13:17:31.016292,-204.0
2023-08-16 13:17:31.023981,-211.0
2023-08-16 13:17:31.031671,-206.0
2023-08-16 13:17:31.039360,-199.0
2023-08-16 13:17:31.047050,-194.0
2023-08-16 13:17:31.054739,-185.0
2023-08-16 13:17:31.062429,-175.0
2023-08-16 13:17:31.070118,-168.0
2023-08-16 13:17:31.077808,-158.0
2023-08-16 13:17:31.085497,-149.0
2023-08-16 13:17:31.093187,-139.0
2023-08-16 13:17:31.100876,-134.0
2023-08-16 13:17:31.108565,-132.0
2023-08-16 13:17:31.116255,-127.0
2023-08-16 13:17:31.123944,-120.0
2023-08-16 13:17:31.131634,-117.0
2023-08-16 13:17:31.139323,-115.0
2023-08-16 13:17:31.147013,-115.0
2023-08-16 13:17:31.154702,-113.0
2023-08-16 13:17:31.162392,-113.0
2023-08-16 13:17:31.170081,-115.0
2023-08-16 13:17:31.177771,-113.0
2023-08-16 13:17:31.185460,-110.0
2023-08-16 13:17:31.193150,-108.0
2023-08-16 13:17:31.200839,-108.0
2023-08-16 13:17:31.208529,-105.0
2023-08-16 13:17:31.216218,-103.0
2023-08-16 13:17:31.223908,-103.0
2023-08-16 13:17:31.231597,-101.0
2023-08-16 13:17:31.239286,-96.0
2023-08-16 13:17:31.246976,-93.0
2023-08-16 13:17:31.254665,-93.0
2023-08-16 13:17:31.262355,-91.0
2023-08-16 13:17:31.270044,-88.0
2023-08-16 13:17:31.277734,-88.0
2023-08-16 13:17:31.285423,-93.0
2023-08-16 13:17:31.293113,-96.0
2023-08-16 13:17:31.300802,-91.0
2023-08-16 13:17:31.308492,-86.0
2023-08-16 13:17:31.316181,-86.0
2023-08-16 13:17:31.323871,-81.0
2023-08-16 13:17:31.331560,-81.0
2023-08-16 13:17:31.339250,-79.0
2023-08-16 13:17:31.346939,-76.0
2023-08-16 13:17:31.354629,-74.0
2023-08-16 13:17:31.362318,-74.0
2023-08-16 13:17:31.370008,-74.0
2023-08-16 13:17:31.377697,-76.0
2023-08-16 13:17:31.385386,-79.0
2023-08-16 13:17:31.393076,-72.0
2023-08-16 13:17:31.400765,-55.0
2023-08-16 13:17:31.408455,-43.0
2023-08-16 13:17:31.416144,-38.0
2023-08-16 13:17:31.423834,-33.0
2023-08-16 13:17:31.431523,-33.0
2023-08-16 13:17:31.439213,-50.0
2023-08-16 13:17:31.446902,-64.0
2023-08-16 13:17:31.454592,-69.0
2023-08-16 13:17:31.462281,-69.0
2023-08-16 13:17:31.469971,-69.0
2023-08-16 13:17:31.477660,-67.0
2023-08-16 13:17:31.485350,-62.0
2023-08-16 13:17:31.493039,-60.0
2023-08-16 13:17:31.500729,-67.0
2023-08-16 13:17:31.508418,-28.0
2023-08-16 13:17:31.516107,211.0
2023-08-16 13:17:31.523797,711.0
2023-08-16 13:17:31.531486,1178.0
2023-08-16 13:17:31.539176,1029.0
2023-08-16 13:17:31.546865,209.0
2023-08-16 13:17:31.554555,-355.0
2023-08-16 13:17:31.562244,-238.0
2023-08-16 13:17:31.569934,-108.0
2023-08-16 13:17:31.577623,-204.0
2023-08-16 13:17:31.585313,-199.0
2023-08-16 13:17:31.593002,-137.0
2023-08-16 13:17:31.600692,-153.0
2023-08-16 13:17:31.608381,-161.0
2023-08-16 13:17:31.616071,-132.0
2023-08-16 13:17:31.623760,-122.0
2023-08-16 13:17:31.631450,-120.0
2023-08-16 13:17:31.639139,-110.0
2023-08-16 13:17:31.646828,-101.0
2023-08-16 13:17:31.654518,-96.0
2023-08-16 13:17:31.662207,-91.0
2023-08-16 13:17:31.669897,-79.0
2023-08-16 13:17:31.677586,-72.0
2023-08-16 13:17:31.685276,-67.0
2023-08-16 13:17:31.692965,-57.0
2023-08-16 13:17:31.700655,-45.0
2023-08-16 13:17:31.708344,-33.0
2023-08-16 13:17:31.716034,-12.0
2023-08-16 13:17:31.723723,12.0
2023-08-16 13:17:31.731413,38.0
2023-08-16 13:17:31.739102,67.0
2023-08-16 13:17:31.746792,101.0
2023-08-16 13:17:31.754481,129.0
2023-08-16 13:17:31.762171,151.0
2023-08-16 13:17:31.769860,163.0
2023-08-16 13:17:31.777550,170.0
2023-08-16 13:17:31.785239,168.0
2023-08-16 13:17:31.792928,156.0
2023-08-16 13:17:31.800618,125.0
2023-08-16 13:17:31.808307,74.0
2023-08-16 13:17:31.815997,4.0
2023-08-16 13:17:31.823686,-64.0
2023-08-16 13:17:31.831376,-125.0
2023-08-16 13:17:31.839065,-165.0
2023-08-16 13:17:31.846755,-189.0
2023-08-16 13:17:31.854444,-199.0
2023-08-16 13:17:31.862134,-204.0
2023-08-16 13:17:31.869823,-204.0
2023-08-16 13:17:31.877513,-199.0
2023-08-16 13:17:31.885202,-192.0
2023-08-16 13:17:31.892892,-185.0
2023-08-16 13:17:31.900581,-180.0
2023-08-16 13:17:31.908271,-175.0
2023-08-16 13:17:31.915960,-168.0
2023-08-16 13:17:31.923649,-158.0
2023-08-16 13:17:31.931339,-149.0
2023-08-16 13:17:31.939028,-141.0
2023-08-16 13:17:31.946718,-137.0
2023-08-16 13:17:31.954407,-132.0
2023-08-16 13:17:31.962097,-129.0
2023-08-16 13:17:31.969786,-125.0
2023-08-16 13:17:31.977476,-122.0
2023-08-16 13:17:31.985165,-117.0
2023-08-16 13:17:31.992855,-117.0
2023-08-16 13:17:32.000544,-117.0
2023-08-16 13:17:32.008234,-120.0
2023-08-16 13:17:32.015923,-117.0
2023-08-16 13:17:32.023613,-115.0
2023-08-16 13:17:32.031302,-113.0
2023-08-16 13:17:32.038992,-110.0
2023-08-16 13:17:32.046681,-108.0
2023-08-16 13:17:32.054371,-110.0
2023-08-16 13:17:32.062060,-108.0
2023-08-16 13:17:32.069749,-103.0
2023-08-16 13:17:32.077439,-101.0
2023-08-16 13:17:32.085128,-101.0
2023-08-16 13:17:32.092818,-98.0
2023-08-16 13:17:32.100507,-98.0
2023-08-16 13:17:32.108197,-96.0
2023-08-16 13:17:32.115886,-91.0
2023-08-16 13:17:32.123576,-88.0
2023-08-16 13:17:32.131265,-88.0
2023-08-16 13:17:32.138955,-86.0
2023-08-16 13:17:32.146644,-88.0
2023-08-16 13:17:32.154334,-88.0
2023-08-16 13:17:32.162023,-88.0
2023-08-16 13:17:32.169713,-86.0
2023-08-16 13:17:32.177402,-81.0
2023-08-16 13:17:32.185092,-86.0
2023-08-16 13:17:32.192781,-96.0
2023-08-16 13:17:32.200470,-101.0
2023-08-16 13:17:32.208160,-96.0
2023-08-16 13:17:32.215849,-96.0
2023-08-16 13:17:32.223539,-98.0
2023-08-16 13:17:32.231228,-88.0
2023-08-16 13:17:32.238918,-74.0
2023-08-16 13:17:32.246607,-62.0
2023-08-16 13:17:32.254297,-52.0
2023-08-16 13:17:32.261986,-50.0
2023-08-16 13:17:32.269676,-55.0
2023-08-16 13:17:32.277365,-72.0
2023-08-16 13:17:32.285055,-88.0
2023-08-16 13:17:32.292744,-96.0
2023-08-16 13:17:32.300434,-96.0
2023-08-16 13:17:32.308123,-96.0
2023-08-16 13:17:32.315813,-93.0
2023-08-16 13:17:32.323502,-86.0
2023-08-16 13:17:32.331191,-88.0
2023-08-16 13:17:32.338881,-91.0
2023-08-16 13:17:32.346570,-14.0
2023-08-16 13:17:32.354260,293.0
2023-08-16 13:17:32.361949,822.0
2023-08-16 13:17:32.369639,1183.0
2023-08-16 13:17:32.377328,836.0
2023-08-16 13:17:32.385018,-16.0
2023-08-16 13:17:32.392707,-399.0
2023-08-16 13:17:32.400397,-194.0
2023-08-16 13:17:32.408086,-132.0
2023-08-16 13:17:32.415776,-233.0
2023-08-16 13:17:32.423465,-194.0
2023-08-16 13:17:32.431155,-144.0
2023-08-16 13:17:32.438844,-170.0
2023-08-16 13:17:32.446534,-163.0
2023-08-16 13:17:32.454223,-139.0
2023-08-16 13:17:32.461913,-146.0
2023-08-16 13:17:32.469602,-144.0
2023-08-16 13:17:32.477291,-120.0
2023-08-16 13:17:32.484981,-115.0
2023-08-16 13:17:32.492670,-115.0
2023-08-16 13:17:32.500360,-105.0
2023-08-16 13:17:32.508049,-93.0
2023-08-16 13:17:32.515739,-81.0
2023-08-16 13:17:32.523428,-69.0
2023-08-16 13:17:32.531118,-57.0
2023-08-16 13:17:32.538807,-48.0
2023-08-16 13:17:32.546497,-31.0
2023-08-16 13:17:32.554186,-7.0
2023-08-16 13:17:32.561876,16.0
2023-08-16 13:17:32.569565,43.0
2023-08-16 13:17:32.577255,76.0
2023-08-16 13:17:32.584944,108.0
2023-08-16 13:17:32.592634,132.0
2023-08-16 13:17:32.600323,151.0
2023-08-16 13:17:32.608012,161.0
2023-08-16 13:17:32.615702,165.0
2023-08-16 13:17:32.623391,165.0
2023-08-16 13:17:32.631081,153.0
2023-08-16 13:17:32.638770,117.0
2023-08-16 13:17:32.646460,52.0
2023-08-16 13:17:32.654149,-21.0
2023-08-16 13:17:32.661839,-84.0
2023-08-16 13:17:32.669528,-137.0
2023-08-16 13:17:32.677218,-180.0
2023-08-16 13:17:32.684907,-204.0
2023-08-16 13:17:32.692597,-214.0
2023-08-16 13:17:32.700286,-218.0
2023-08-16 13:17:32.707976,-216.0
2023-08-16 13:17:32.715665,-209.0
2023-08-16 13:17:32.723355,-206.0
2023-08-16 13:17:32.731044,-206.0
2023-08-16 13:17:32.738733,-204.0
2023-08-16 13:17:32.746423,-192.0
2023-08-16 13:17:32.754112,-182.0
2023-08-16 13:17:32.761802,-173.0
2023-08-16 13:17:32.769491,-170.0
2023-08-16 13:17:32.777181,-173.0
2023-08-16 13:17:32.784870,-170.0
2023-08-16 13:17:32.792560,-165.0
2023-08-16 13:17:32.800249,-168.0
2023-08-16 13:17:32.807939,-168.0
2023-08-16 13:17:32.815628,-161.0
2023-08-16 13:17:32.823318,-158.0
2023-08-16 13:17:32.831007,-158.0
2023-08-16 13:17:32.838697,-158.0
2023-08-16 13:17:32.846386,-156.0
2023-08-16 13:17:32.854076,-149.0
2023-08-16 13:17:32.861765,-141.0
2023-08-16 13:17:32.869455,-141.0
2023-08-16 13:17:32.877144,-144.0
2023-08-16 13:17:32.884833,-144.0
2023-08-16 13:17:32.892523,-141.0
2023-08-16 13:17:32.900212,-137.0
2023-08-16 13:17:32.907902,-132.0
2023-08-16 13:17:32.915591,-129.0
2023-08-16 13:17:32.923281,-129.0
2023-08-16 13:17:32.930970,-127.0
2023-08-16 13:17:32.938660,-125.0
2023-08-16 13:17:32.946349,-120.0
2023-08-16 13:17:32.954039,-117.0
2023-08-16 13:17:32.961728,-113.0
2023-08-16 13:17:32.969418,-110.0
2023-08-16 13:17:32.977107,-113.0
2023-08-16 13:17:32.984797,-110.0
2023-08-16 13:17:32.992486,-108.0
2023-08-16 13:17:33.000176,-110.0
2023-08-16 13:17:33.007865,-115.0
2023-08-16 13:17:33.015554,-110.0
2023-08-16 13:17:33.023244,-93.0
2023-08-16 13:17:33.030933,-72.0
2023-08-16 13:17:33.038623,-62.0
2023-08-16 13:17:33.046312,-57.0
2023-08-16 13:17:33.054002,-57.0
2023-08-16 13:17:33.061691,-67.0
2023-08-16 13:17:33.069381,-86.0
2023-08-16 13:17:33.077070,-91.0
2023-08-16 13:17:33.084760,-88.0
2023-08-16 13:17:33.092449,-91.0
2023-08-16 13:17:33.100139,-91.0
2023-08-16 13:17:33.107828,-86.0
2023-08-16 13:17:33.115518,-84.0
2023-08-16 13:17:33.123207,-84.0
2023-08-16 13:17:33.130897,-60.0
2023-08-16 13:17:33.138586,120.0
2023-08-16 13:17:33.146276,555.0
2023-08-16 13:17:33.153965,1031.0
2023-08-16 13:17:33.161654,1036.0
2023-08-16 13:17:33.169344,329.0
2023-08-16 13:17:33.177033,-351.0
2023-08-16 13:17:33.184723,-329.0
2023-08-16 13:17:33.192412,-117.0
2023-08-16 13:17:33.200102,-173.0
2023-08-16 13:17:33.207791,-204.0
2023-08-16 13:17:33.215481,-132.0
2023-08-16 13:17:33.223170,-129.0
2023-08-16 13:17:33.230860,-146.0
2023-08-16 13:17:33.238549,-115.0
2023-08-16 13:17:33.246239,-103.0
2023-08-16 13:17:33.253928,-108.0
2023-08-16 13:17:33.261618,-98.0
2023-08-16 13:17:33.269307,-93.0
2023-08-16 13:17:33.276997,-96.0
2023-08-16 13:17:33.284686,-84.0
2023-08-16 13:17:33.292375,-74.0
2023-08-16 13:17:33.300065,-74.0
2023-08-16 13:17:33.307754,-67.0
2023-08-16 13:17:33.315444,-55.0
2023-08-16 13:17:33.323133,-43.0
2023-08-16 13:17:33.330823,-26.0
2023-08-16 13:17:33.338512,-4.0
2023-08-16 13:17:33.346202,16.0
2023-08-16 13:17:33.353891,40.0
2023-08-16 13:17:33.361581,69.0
2023-08-16 13:17:33.369270,101.0
2023-08-16 13:17:33.376960,127.0
2023-08-16 13:17:33.384649,144.0
2023-08-16 13:17:33.392339,156.0
2023-08-16 13:17:33.400028,163.0
2023-08-16 13:17:33.407718,165.0
2023-08-16 13:17:33.415407,158.0
2023-08-16 13:17:33.423096,129.0
2023-08-16 13:17:33.430786,76.0
2023-08-16 13:17:33.438475,9.0
2023-08-16 13:17:33.446165,-60.0
2023-08-16 13:17:33.453854,-117.0
2023-08-16 13:17:33.461544,-156.0
2023-08-16 13:17:33.469233,-182.0
2023-08-16 13:17:33.476923,-197.0
2023-08-16 13:17:33.484612,-202.0
2023-08-16 13:17:33.492302,-204.0
2023-08-16 13:17:33.499991,-204.0
2023-08-16 13:17:33.507681,-199.0
2023-08-16 13:17:33.515370,-187.0
2023-08-16 13:17:33.523060,-182.0
2023-08-16 13:17:33.530749,-177.0
2023-08-16 13:17:33.538439,-165.0
2023-08-16 13:17:33.546128,-156.0
2023-08-16 13:17:33.553818,-146.0
2023-08-16 13:17:33.561507,-137.0
2023-08-16 13:17:33.569196,-132.0
2023-08-16 13:17:33.576886,-129.0
2023-08-16 13:17:33.584575,-125.0
2023-08-16 13:17:33.592265,-117.0
2023-08-16 13:17:33.599954,-115.0
2023-08-16 13:17:33.607644,-113.0
2023-08-16 13:17:33.615333,-113.0
2023-08-16 13:17:33.623023,-115.0
2023-08-16 13:17:33.630712,-120.0
2023-08-16 13:17:33.638402,-120.0
2023-08-16 13:17:33.646091,-115.0
2023-08-16 13:17:33.653781,-113.0
2023-08-16 13:17:33.661470,-113.0
2023-08-16 13:17:33.669160,-115.0
2023-08-16 13:17:33.676849,-113.0
2023-08-16 13:17:33.684539,-110.0
2023-08-16 13:17:33.692228,-105.0
2023-08-16 13:17:33.699917,-103.0
2023-08-16 13:17:33.707607,-101.0
2023-08-16 13:17:33.715296,-101.0
2023-08-16 13:17:33.722986,-103.0
2023-08-16 13:17:33.730675,-98.0
2023-08-16 13:17:33.738365,-96.0
2023-08-16 13:17:33.746054,-93.0
2023-08-16 13:17:33.753744,-93.0
2023-08-16 13:17:33.761433,-93.0
2023-08-16 13:17:33.769123,-91.0
2023-08-16 13:17:33.776812,-88.0
2023-08-16 13:17:33.784502,-86.0
2023-08-16 13:17:33.792191,-88.0
2023-08-16 13:17:33.799881,-93.0
2023-08-16 13:17:33.807570,-103.0
2023-08-16 13:17:33.815260,-108.0
2023-08-16 13:17:33.822949,-105.0
2023-08-16 13:17:33.830639,-103.0
2023-08-16 13:17:33.838328,-108.0
2023-08-16 13:17:33.846017,-103.0
2023-08-16 13:17:33.853707,-86.0
2023-08-16 13:17:33.861396,-67.0
2023-08-16 13:17:33.869086,-60.0
2023-08-16 13:17:33.876775,-55.0
2023-08-16 13:17:33.884465,-60.0
2023-08-16 13:17:33.892154,-74.0
2023-08-16 13:17:33.899844,-91.0
2023-08-16 13:17:33.907533,-96.0
2023-08-16 13:17:33.915223,-96.0
2023-08-16 13:17:33.922912,-93.0
2023-08-16 13:17:33.930602,-91.0
2023-08-16 13:17:33.938291,-86.0
2023-08-16 13:17:33.945981,-84.0
2023-08-16 13:17:33.953670,-88.0
2023-08-16 13:17:33.961360,-48.0
2023-08-16 13:17:33.969049,189.0
2023-08-16 13:17:33.976738,694.0
2023-08-16 13:17:33.984428,1183.0
2023-08-16 13:17:33.992117,1072.0
2023-08-16 13:17:33.999807,252.0
2023-08-16 13:17:34.007496,-351.0
2023-08-16 13:17:34.015186,-242.0
2023-08-16 13:17:34.022875,-101.0
2023-08-16 13:17:34.030565,-202.0
2023-08-16 13:17:34.038254,-209.0
2023-08-16 13:17:34.045944,-141.0
2023-08-16 13:17:34.053633,-153.0
2023-08-16 13:17:34.061323,-158.0
2023-08-16 13:17:34.069012,-127.0
2023-08-16 13:17:34.076702,-122.0
2023-08-16 13:17:34.084391,-125.0
2023-08-16 13:17:34.092081,-108.0
2023-08-16 13:17:34.099770,-96.0
2023-08-16 13:17:34.107459,-91.0
2023-08-16 13:17:34.115149,-84.0
2023-08-16 13:17:34.122838,-79.0
2023-08-16 13:17:34.130528,-76.0
2023-08-16 13:17:34.138217,-64.0
2023-08-16 13:17:34.145907,-50.0
2023-08-16 13:17:34.153596,-40.0
2023-08-16 13:17:34.161286,-24.0
2023-08-16 13:17:34.168975,-4.0
2023-08-16 13:17:34.176665,16.0
2023-08-16 13:17:34.184354,45.0
2023-08-16 13:17:34.192044,76.0
2023-08-16 13:17:34.199733,110.0
2023-08-16 13:17:34.207423,139.0
2023-08-16 13:17:34.215112,158.0
2023-08-16 13:17:34.222802,170.0
2023-08-16 13:17:34.230491,180.0
2023-08-16 13:17:34.238181,182.0
2023-08-16 13:17:34.245870,173.0
2023-08-16 13:17:34.253559,141.0
2023-08-16 13:17:34.261249,84.0
2023-08-16 13:17:34.268938,12.0
2023-08-16 13:17:34.276628,-57.0
2023-08-16 13:17:34.284317,-113.0
2023-08-16 13:17:34.292007,-156.0
2023-08-16 13:17:34.299696,-192.0
2023-08-16 13:17:34.307386,-211.0
2023-08-16 13:17:34.315075,-214.0
2023-08-16 13:17:34.322765,-211.0
2023-08-16 13:17:34.330454,-206.0
2023-08-16 13:17:34.338144,-199.0
2023-08-16 13:17:34.345833,-194.0
2023-08-16 13:17:34.353523,-189.0
2023-08-16 13:17:34.361212,-185.0
2023-08-16 13:17:34.368902,-180.0
2023-08-16 13:17:34.376591,-173.0
2023-08-16 13:17:34.384280,-165.0
2023-08-16 13:17:34.391970,-165.0
2023-08-16 13:17:34.399659,-170.0
2023-08-16 13:17:34.407349,-163.0
2023-08-16 13:17:34.415038,-153.0
2023-08-16 13:17:34.422728,-151.0
2023-08-16 13:17:34.430417,-151.0
2023-08-16 13:17:34.438107,-153.0
2023-08-16 13:17:34.445796,-158.0
2023-08-16 13:17:34.453486,-153.0
2023-08-16 13:17:34.461175,-149.0
2023-08-16 13:17:34.468865,-146.0
2023-08-16 13:17:34.476554,-144.0
2023-08-16 13:17:34.484244,-141.0
2023-08-16 13:17:34.491933,-144.0
2023-08-16 13:17:34.499623,-141.0
2023-08-16 13:17:34.507312,-134.0
2023-08-16 13:17:34.515001,-129.0
2023-08-16 13:17:34.522691,-127.0
2023-08-16 13:17:34.530380,-127.0
2023-08-16 13:17:34.538070,-127.0
2023-08-16 13:17:34.545759,-127.0
2023-08-16 13:17:34.553449,-122.0
2023-08-16 13:17:34.561138,-117.0
2023-08-16 13:17:34.568828,-115.0
2023-08-16 13:17:34.576517,-115.0
2023-08-16 13:17:34.584207,-115.0
2023-08-16 13:17:34.591896,-110.0
2023-08-16 13:17:34.599586,-105.0
2023-08-16 13:17:34.607275,-105.0
2023-08-16 13:17:34.614965,-110.0
2023-08-16 13:17:34.622654,-108.0
2023-08-16 13:17:34.630344,-105.0
2023-08-16 13:17:34.638033,-103.0
2023-08-16 13:17:34.645723,-101.0
2023-08-16 13:17:34.653412,-96.0
2023-08-16 13:17:34.661101,-98.0
2023-08-16 13:17:34.668791,-101.0
2023-08-16 13:17:34.676480,-98.0
2023-08-16 13:17:34.684170,-98.0
2023-08-16 13:17:34.691859,-86.0
2023-08-16 13:17:34.699549,-67.0
2023-08-16 13:17:34.707238,-57.0
2023-08-16 13:17:34.714928,-50.0
2023-08-16 13:17:34.722617,-45.0
2023-08-16 13:17:34.730307,-52.0
2023-08-16 13:17:34.737996,-67.0
2023-08-16 13:17:34.745686,-81.0
2023-08-16 13:17:34.753375,-86.0
2023-08-16 13:17:34.761065,-86.0
2023-08-16 13:17:34.768754,-84.0
2023-08-16 13:17:34.776444,-81.0
2023-08-16 13:17:34.784133,-79.0
2023-08-16 13:17:34.791822,-79.0
2023-08-16 13:17:34.799512,-81.0
2023-08-16 13:17:34.807201,-28.0
2023-08-16 13:17:34.814891,247.0
2023-08-16 13:17:34.822580,776.0
2023-08-16 13:17:34.830270,1197.0
2023-08-16 13:17:34.837959,930.0
2023-08-16 13:17:34.845649,76.0
2023-08-16 13:17:34.853338,-379.0
2023-08-16 13:17:34.861028,-209.0
2023-08-16 13:17:34.868717,-125.0
2023-08-16 13:17:34.876407,-230.0
2023-08-16 13:17:34.884096,-204.0
2023-08-16 13:17:34.891786,-151.0
2023-08-16 13:17:34.899475,-173.0
2023-08-16 13:17:34.907165,-165.0
2023-08-16 13:17:34.914854,-139.0
2023-08-16 13:17:34.922544,-141.0
2023-08-16 13:17:34.930233,-144.0
2023-08-16 13:17:34.937922,-134.0
2023-08-16 13:17:34.945612,-127.0
2023-08-16 13:17:34.953301,-117.0
2023-08-16 13:17:34.960991,-108.0
2023-08-16 13:17:34.968680,-98.0
2023-08-16 13:17:34.976370,-98.0
2023-08-16 13:17:34.984059,-101.0
2023-08-16 13:17:34.991749,-88.0
2023-08-16 13:17:34.999438,-69.0
2023-08-16 13:17:35.007128,-52.0
2023-08-16 13:17:35.014817,-31.0
2023-08-16 13:17:35.022507,-4.0
2023-08-16 13:17:35.030196,24.0
2023-08-16 13:17:35.037886,52.0
2023-08-16 13:17:35.045575,81.0
2023-08-16 13:17:35.053265,110.0
2023-08-16 13:17:35.060954,137.0
2023-08-16 13:17:35.068643,149.0
2023-08-16 13:17:35.076333,156.0
2023-08-16 13:17:35.084022,156.0
2023-08-16 13:17:35.091712,141.0
2023-08-16 13:17:35.099401,103.0
2023-08-16 13:17:35.107091,43.0
2023-08-16 13:17:35.114780,-26.0
2023-08-16 13:17:35.122470,-91.0
2023-08-16 13:17:35.130159,-144.0
2023-08-16 13:17:35.137849,-187.0
2023-08-16 13:17:35.145538,-214.0
2023-08-16 13:17:35.153228,-226.0
2023-08-16 13:17:35.160917,-230.0
2023-08-16 13:17:35.168607,-230.0
2023-08-16 13:17:35.176296,-223.0
2023-08-16 13:17:35.183986,-216.0
2023-08-16 13:17:35.191675,-206.0
2023-08-16 13:17:35.199364,-197.0
2023-08-16 13:17:35.207054,-192.0
2023-08-16 13:17:35.214743,-187.0
2023-08-16 13:17:35.222433,-177.0
2023-08-16 13:17:35.230122,-170.0
2023-08-16 13:17:35.237812,-170.0
2023-08-16 13:17:35.245501,-163.0
2023-08-16 13:17:35.253191,-158.0
2023-08-16 13:17:35.260880,-156.0
2023-08-16 13:17:35.268570,-149.0
2023-08-16 13:17:35.276259,-144.0
2023-08-16 13:17:35.283949,-146.0
2023-08-16 13:17:35.291638,-151.0
2023-08-16 13:17:35.299328,-149.0
2023-08-16 13:17:35.307017,-144.0
2023-08-16 13:17:35.314707,-149.0
2023-08-16 13:17:35.322396,-153.0
2023-08-16 13:17:35.330086,-153.0
2023-08-16 13:17:35.337775,-146.0
2023-08-16 13:17:35.345464,-146.0
2023-08-16 13:17:35.353154,-146.0
2023-08-16 13:17:35.360843,-146.0
2023-08-16 13:17:35.368533,-144.0
2023-08-16 13:17:35.376222,-141.0
2023-08-16 13:17:35.383912,-137.0
2023-08-16 13:17:35.391601,-134.0
2023-08-16 13:17:35.399291,-132.0
2023-08-16 13:17:35.406980,-134.0
2023-08-16 13:17:35.414670,-129.0
2023-08-16 13:17:35.422359,-122.0
2023-08-16 13:17:35.430049,-117.0
2023-08-16 13:17:35.437738,-117.0
2023-08-16 13:17:35.445428,-115.0
2023-08-16 13:17:35.453117,-115.0
2023-08-16 13:17:35.460807,-117.0
2023-08-16 13:17:35.468496,-113.0
2023-08-16 13:17:35.476185,-108.0
2023-08-16 13:17:35.483875,-108.0
2023-08-16 13:17:35.491564,-108.0
2023-08-16 13:17:35.499254,-105.0
2023-08-16 13:17:35.506943,-105.0
2023-08-16 13:17:35.514633,-113.0
2023-08-16 13:17:35.522322,-117.0
2023-08-16 13:17:35.530012,-105.0
2023-08-16 13:17:35.537701,-81.0
2023-08-16 13:17:35.545391,-72.0
2023-08-16 13:17:35.553080,-69.0
2023-08-16 13:17:35.560770,-72.0
2023-08-16 13:17:35.568459,-91.0
2023-08-16 13:17:35.576149,-108.0
2023-08-16 13:17:35.583838,-110.0
2023-08-16 13:17:35.591528,-110.0
2023-08-16 13:17:35.599217,-115.0
2023-08-16 13:17:35.606906,-115.0
2023-08-16 13:17:35.614596,-110.0
2023-08-16 13:17:35.622285,-103.0
2023-08-16 13:17:35.629975,-101.0
2023-08-16 13:17:35.637664,-76.0
2023-08-16 13:17:35.645354,113.0
2023-08-16 13:17:35.653043,557.0
2023-08-16 13:17:35.660733,1043.0
2023-08-16 13:17:35.668422,1048.0
2023-08-16 13:17:35.676112,324.0
2023-08-16 13:17:35.683801,-367.0
2023-08-16 13:17:35.691491,-346.0
2023-08-16 13:17:35.699180,-141.0
2023-08-16 13:17:35.706870,-204.0
2023-08-16 13:17:35.714559,-228.0
2023-08-16 13:17:35.722249,-149.0
2023-08-16 13:17:35.729938,-146.0
2023-08-16 13:17:35.737628,-163.0
2023-08-16 13:17:35.745317,-137.0
2023-08-16 13:17:35.753006,-122.0
2023-08-16 13:17:35.760696,-125.0
2023-08-16 13:17:35.768385,-113.0
2023-08-16 13:17:35.776075,-101.0
2023-08-16 13:17:35.783764,-96.0
2023-08-16 13:17:35.791454,-91.0
2023-08-16 13:17:35.799143,-79.0
2023-08-16 13:17:35.806833,-64.0
2023-08-16 13:17:35.814522,-62.0
2023-08-16 13:17:35.822212,-60.0
2023-08-16 13:17:35.829901,-52.0
2023-08-16 13:17:35.837591,-36.0
2023-08-16 13:17:35.845280,-16.0
2023-08-16 13:17:35.852970,4.0
2023-08-16 13:17:35.860659,31.0
2023-08-16 13:17:35.868349,64.0
2023-08-16 13:17:35.876038,101.0
2023-08-16 13:17:35.883727,127.0
2023-08-16 13:17:35.891417,149.0
2023-08-16 13:17:35.899106,163.0
2023-08-16 13:17:35.906796,168.0
2023-08-16 13:17:35.914485,173.0
2023-08-16 13:17:35.922175,165.0
2023-08-16 13:17:35.929864,137.0
2023-08-16 13:17:35.937554,86.0
2023-08-16 13:17:35.945243,21.0
2023-08-16 13:17:35.952933,-45.0
2023-08-16 13:17:35.960622,-105.0
2023-08-16 13:17:35.968312,-153.0
2023-08-16 13:17:35.976001,-187.0
2023-08-16 13:17:35.983691,-206.0
2023-08-16 13:17:35.991380,-214.0
2023-08-16 13:17:35.999070,-211.0
2023-08-16 13:17:36.006759,-206.0
2023-08-16 13:17:36.014449,-204.0
2023-08-16 13:17:36.022138,-199.0
2023-08-16 13:17:36.029827,-192.0
2023-08-16 13:17:36.037517,-182.0
2023-08-16 13:17:36.045206,-173.0
2023-08-16 13:17:36.052896,-163.0
2023-08-16 13:17:36.060585,-153.0
2023-08-16 13:17:36.068275,-146.0
2023-08-16 13:17:36.075964,-139.0
2023-08-16 13:17:36.083654,-139.0
2023-08-16 13:17:36.091343,-139.0
2023-08-16 13:17:36.099033,-137.0
2023-08-16 13:17:36.106722,-144.0
2023-08-16 13:17:36.114412,-149.0
2023-08-16 13:17:36.122101,-146.0
2023-08-16 13:17:36.129791,-139.0
2023-08-16 13:17:36.137480,-137.0
2023-08-16 13:17:36.145170,-134.0
2023-08-16 13:17:36.152859,-137.0
2023-08-16 13:17:36.160548,-137.0
2023-08-16 13:17:36.168238,-134.0
2023-08-16 13:17:36.175927,-129.0
2023-08-16 13:17:36.183617,-127.0
2023-08-16 13:17:36.191306,-129.0
2023-08-16 13:17:36.198996,-134.0
2023-08-16 13:17:36.206685,-129.0
2023-08-16 13:17:36.214375,-122.0
2023-08-16 13:17:36.222064,-120.0
2023-08-16 13:17:36.229754,-117.0
2023-08-16 13:17:36.237443,-113.0
2023-08-16 13:17:36.245133,-110.0
2023-08-16 13:17:36.252822,-108.0
2023-08-16 13:17:36.260512,-105.0
2023-08-16 13:17:36.268201,-101.0
2023-08-16 13:17:36.275891,-101.0
2023-08-16 13:17:36.283580,-108.0
2023-08-16 13:17:36.291269,-110.0
2023-08-16 13:17:36.298959,-98.0
2023-08-16 13:17:36.306648,-81.0
2023-08-16 13:17:36.314338,-64.0
2023-08-16 13:17:36.322027,-52.0
2023-08-16 13:17:36.329717,-50.0
2023-08-16 13:17:36.337406,-60.0
2023-08-16 13:17:36.345096,-76.0
2023-08-16 13:17:36.352785,-86.0
2023-08-16 13:17:36.360475,-88.0
2023-08-16 13:17:36.368164,-86.0
2023-08-16 13:17:36.375854,-88.0
2023-08-16 13:17:36.383543,-88.0
2023-08-16 13:17:36.391233,-84.0
2023-08-16 13:17:36.398922,-79.0
2023-08-16 13:17:36.406612,-79.0
2023-08-16 13:17:36.414301,-45.0
2023-08-16 13:17:36.421991,177.0
2023-08-16 13:17:36.429680,668.0
2023-08-16 13:17:36.437369,1147.0
2023-08-16 13:17:36.445059,1048.0
2023-08-16 13:17:36.452748,242.0
2023-08-16 13:17:36.460438,-370.0
2023-08-16 13:17:36.468127,-259.0
2023-08-16 13:17:36.475817,-96.0
2023-08-16 13:17:36.483506,-189.0
2023-08-16 13:17:36.491196,-194.0
2023-08-16 13:17:36.498885,-122.0
2023-08-16 13:17:36.506575,-139.0
2023-08-16 13:17:36.514264,-149.0
2023-08-16 13:17:36.521954,-117.0
2023-08-16 13:17:36.529643,-110.0
2023-08-16 13:17:36.537333,-110.0
2023-08-16 13:17:36.545022,-96.0
2023-08-16 13:17:36.552712,-88.0
2023-08-16 13:17:36.560401,-86.0
2023-08-16 13:17:36.568090,-74.0
2023-08-16 13:17:36.575780,-67.0
2023-08-16 13:17:36.583469,-64.0
2023-08-16 13:17:36.591159,-55.0
2023-08-16 13:17:36.598848,-43.0
2023-08-16 13:17:36.606538,-31.0
2023-08-16 13:17:36.614227,-14.0
2023-08-16 13:17:36.621917,4.0
2023-08-16 13:17:36.629606,28.0
2023-08-16 13:17:36.637296,52.0
2023-08-16 13:17:36.644985,74.0
2023-08-16 13:17:36.652675,98.0
2023-08-16 13:17:36.660364,129.0
2023-08-16 13:17:36.668054,156.0
2023-08-16 13:17:36.675743,165.0
2023-08-16 13:17:36.683433,170.0
2023-08-16 13:17:36.691122,163.0
2023-08-16 13:17:36.698812,146.0
2023-08-16 13:17:36.706501,113.0
2023-08-16 13:17:36.714190,52.0
2023-08-16 13:17:36.721880,-19.0
2023-08-16 13:17:36.729569,-84.0
2023-08-16 13:17:36.737259,-137.0
2023-08-16 13:17:36.744948,-175.0
2023-08-16 13:17:36.752638,-194.0
2023-08-16 13:17:36.760327,-204.0
2023-08-16 13:17:36.768017,-209.0
2023-08-16 13:17:36.775706,-209.0
2023-08-16 13:17:36.783396,-206.0
2023-08-16 13:17:36.791085,-199.0
2023-08-16 13:17:36.798775,-192.0
2023-08-16 13:17:36.806464,-185.0
2023-08-16 13:17:36.814154,-175.0
2023-08-16 13:17:36.821843,-168.0
2023-08-16 13:17:36.829533,-165.0
2023-08-16 13:17:36.837222,-161.0
2023-08-16 13:17:36.844911,-158.0
2023-08-16 13:17:36.852601,-153.0
2023-08-16 13:17:36.860290,-146.0
2023-08-16 13:17:36.867980,-144.0
2023-08-16 13:17:36.875669,-139.0
2023-08-16 13:17:36.883359,-134.0
2023-08-16 13:17:36.891048,-132.0
2023-08-16 13:17:36.898738,-132.0
2023-08-16 13:17:36.906427,-129.0
2023-08-16 13:17:36.914117,-129.0
2023-08-16 13:17:36.921806,-129.0
2023-08-16 13:17:36.929496,-127.0
2023-08-16 13:17:36.937185,-122.0
2023-08-16 13:17:36.944875,-122.0
2023-08-16 13:17:36.952564,-120.0
2023-08-16 13:17:36.960254,-117.0
2023-08-16 13:17:36.967943,-115.0
2023-08-16 13:17:36.975632,-110.0
2023-08-16 13:17:36.983322,-110.0
2023-08-16 13:17:36.991011,-110.0
2023-08-16 13:17:36.998701,-105.0
2023-08-16 13:17:37.006390,-103.0
2023-08-16 13:17:37.014080,-101.0
2023-08-16 13:17:37.021769,-96.0
2023-08-16 13:17:37.029459,-93.0
2023-08-16 13:17:37.037148,-93.0
2023-08-16 13:17:37.044838,-93.0
2023-08-16 13:17:37.052527,-91.0
2023-08-16 13:17:37.060217,-91.0
2023-08-16 13:17:37.067906,-88.0
2023-08-16 13:17:37.075596,-88.0
2023-08-16 13:17:37.083285,-88.0
2023-08-16 13:17:37.090975,-86.0
2023-08-16 13:17:37.098664,-86.0
2023-08-16 13:17:37.106354,-88.0
2023-08-16 13:17:37.114043,-88.0
2023-08-16 13:17:37.121732,-88.0
2023-08-16 13:17:37.129422,-74.0
2023-08-16 13:17:37.137111,-55.0
2023-08-16 13:17:37.144801,-45.0
2023-08-16 13:17:37.152490,-40.0
2023-08-16 13:17:37.160180,-36.0
2023-08-16 13:17:37.167869,-48.0
2023-08-16 13:17:37.175559,-69.0
2023-08-16 13:17:37.183248,-86.0
2023-08-16 13:17:37.190938,-91.0
2023-08-16 13:17:37.198627,-86.0
2023-08-16 13:17:37.206317,-84.0
2023-08-16 13:17:37.214006,-81.0
2023-08-16 13:17:37.221696,-79.0
2023-08-16 13:17:37.229385,-86.0
2023-08-16 13:17:37.237075,-88.0
2023-08-16 13:17:37.244764,38.0
2023-08-16 13:17:37.252453,435.0
2023-08-16 13:17:37.260143,988.0
2023-08-16 13:17:37.267832,1209.0
2023-08-16 13:17:37.275522,644.0
2023-08-16 13:17:37.283211,-182.0
2023-08-16 13:17:37.290901,-351.0
2023-08-16 13:17:37.298590,-127.0
2023-08-16 13:17:37.306280,-149.0
2023-08-16 13:17:37.313969,-230.0
2023-08-16 13:17:37.321659,-168.0
2023-08-16 13:17:37.329348,-146.0
2023-08-16 13:17:37.337038,-168.0
2023-08-16 13:17:37.344727,-151.0
2023-08-16 13:17:37.352417,-134.0
2023-08-16 13:17:37.360106,-139.0
2023-08-16 13:17:37.367796,-129.0
2023-08-16 13:17:37.375485,-115.0
2023-08-16 13:17:37.383174,-108.0
2023-08-16 13:17:37.390864,-101.0
2023-08-16 13:17:37.398553,-88.0
2023-08-16 13:17:37.406243,-81.0
2023-08-16 13:17:37.413932,-74.0
2023-08-16 13:17:37.421622,-62.0
2023-08-16 13:17:37.429311,-50.0
2023-08-16 13:17:37.437001,-33.0
2023-08-16 13:17:37.444690,-14.0
2023-08-16 13:17:37.452380,7.0
2023-08-16 13:17:37.460069,31.0
2023-08-16 13:17:37.467759,62.0
2023-08-16 13:17:37.475448,96.0
2023-08-16 13:17:37.483138,127.0
2023-08-16 13:17:37.490827,151.0
2023-08-16 13:17:37.498517,168.0
2023-08-16 13:17:37.506206,177.0
2023-08-16 13:17:37.513896,185.0
2023-08-16 13:17:37.521585,180.0
2023-08-16 13:17:37.529274,161.0
2023-08-16 13:17:37.536964,110.0
2023-08-16 13:17:37.544653,40.0
2023-08-16 13:17:37.552343,-31.0
2023-08-16 13:17:37.560032,-93.0
2023-08-16 13:17:37.567722,-144.0
2023-08-16 13:17:37.575411,-175.0
2023-08-16 13:17:37.583101,-192.0
2023-08-16 13:17:37.590790,-202.0
2023-08-16 13:17:37.598480,-204.0
2023-08-16 13:17:37.606169,-199.0
2023-08-16 13:17:37.613859,-197.0
2023-08-16 13:17:37.621548,-189.0
2023-08-16 13:17:37.629238,-185.0
2023-08-16 13:17:37.636927,-177.0
2023-08-16 13:17:37.644617,-170.0
2023-08-16 13:17:37.652306,-161.0
2023-08-16 13:17:37.659995,-153.0
2023-08-16 13:17:37.667685,-149.0
2023-08-16 13:17:37.675374,-144.0
2023-08-16 13:17:37.683064,-141.0
2023-08-16 13:17:37.690753,-137.0
2023-08-16 13:17:37.698443,-129.0
2023-08-16 13:17:37.706132,-127.0
2023-08-16 13:17:37.713822,-122.0
2023-08-16 13:17:37.721511,-125.0
2023-08-16 13:17:37.729201,-127.0
2023-08-16 13:17:37.736890,-125.0
2023-08-16 13:17:37.744580,-120.0
2023-08-16 13:17:37.752269,-120.0
2023-08-16 13:17:37.759959,-117.0
2023-08-16 13:17:37.767648,-122.0
2023-08-16 13:17:37.775338,-129.0
2023-08-16 13:17:37.783027,-127.0
2023-08-16 13:17:37.790717,-120.0
2023-08-16 13:17:37.798406,-120.0
2023-08-16 13:17:37.806095,-117.0
2023-08-16 13:17:37.813785,-117.0
2023-08-16 13:17:37.821474,-117.0
2023-08-16 13:17:37.829164,-113.0
2023-08-16 13:17:37.836853,-105.0
2023-08-16 13:17:37.844543,-103.0
2023-08-16 13:17:37.852232,-103.0
2023-08-16 13:17:37.859922,-108.0
2023-08-16 13:17:37.867611,-108.0
2023-08-16 13:17:37.875301,-101.0
2023-08-16 13:17:37.882990,-98.0
2023-08-16 13:17:37.890680,-96.0
2023-08-16 13:17:37.898369,-93.0
2023-08-16 13:17:37.906059,-96.0
2023-08-16 13:17:37.913748,-93.0
2023-08-16 13:17:37.921438,-91.0
2023-08-16 13:17:37.929127,-91.0
2023-08-16 13:17:37.936816,-88.0
2023-08-16 13:17:37.944506,-88.0
2023-08-16 13:17:37.952195,-93.0
2023-08-16 13:17:37.959885,-96.0
2023-08-16 13:17:37.967574,-86.0
2023-08-16 13:17:37.975264,-64.0
2023-08-16 13:17:37.982953,-50.0
2023-08-16 13:17:37.990643,-48.0
2023-08-16 13:17:37.998332,-45.0
2023-08-16 13:17:38.006022,-52.0
2023-08-16 13:17:38.013711,-67.0
2023-08-16 13:17:38.021401,-81.0
2023-08-16 13:17:38.029090,-84.0
2023-08-16 13:17:38.036780,-86.0
2023-08-16 13:17:38.044469,-86.0
2023-08-16 13:17:38.052159,-86.0
2023-08-16 13:17:38.059848,-86.0
2023-08-16 13:17:38.067537,-86.0
2023-08-16 13:17:38.075227,-84.0
2023-08-16 13:17:38.082916,-12.0
2023-08-16 13:17:38.090606,286.0
2023-08-16 13:17:38.098295,820.0
2023-08-16 13:17:38.105985,1202.0
2023-08-16 13:17:38.113674,865.0
2023-08-16 13:17:38.121364,0.0
2023-08-16 13:17:38.129053,-396.0
2023-08-16 13:17:38.136743,-192.0
2023-08-16 13:17:38.144432,-125.0
2023-08-16 13:17:38.152122,-226.0
2023-08-16 13:17:38.159811,-185.0
2023-08-16 13:17:38.167501,-139.0
2023-08-16 13:17:38.175190,-168.0
2023-08-16 13:17:38.182880,-156.0
2023-08-16 13:17:38.190569,-132.0
2023-08-16 13:17:38.198259,-137.0
2023-08-16 13:17:38.205948,-129.0
2023-08-16 13:17:38.213637,-108.0
2023-08-16 13:17:38.221327,-103.0
2023-08-16 13:17:38.229016,-108.0
2023-08-16 13:17:38.236706,-96.0
2023-08-16 13:17:38.244395,-84.0
2023-08-16 13:17:38.252085,-76.0
2023-08-16 13:17:38.259774,-67.0
2023-08-16 13:17:38.267464,-55.0
2023-08-16 13:17:38.275153,-43.0
2023-08-16 13:17:38.282843,-28.0
2023-08-16 13:17:38.290532,-7.0
2023-08-16 13:17:38.298222,19.0
2023-08-16 13:17:38.305911,43.0
2023-08-16 13:17:38.313601,62.0
2023-08-16 13:17:38.321290,86.0
2023-08-16 13:17:38.328980,117.0
2023-08-16 13:17:38.336669,144.0
2023-08-16 13:17:38.344358,161.0
2023-08-16 13:17:38.352048,168.0
2023-08-16 13:17:38.359737,165.0
2023-08-16 13:17:38.367427,149.0
2023-08-16 13:17:38.375116,108.0
2023-08-16 13:17:38.382806,52.0
2023-08-16 13:17:38.390495,-14.0
2023-08-16 13:17:38.398185,-81.0
2023-08-16 13:17:38.405874,-134.0
2023-08-16 13:17:38.413564,-170.0
2023-08-16 13:17:38.421253,-194.0
2023-08-16 13:17:38.428943,-204.0
2023-08-16 13:17:38.436632,-206.0
2023-08-16 13:17:38.444322,-206.0
2023-08-16 13:17:38.452011,-202.0
2023-08-16 13:17:38.459701,-199.0
2023-08-16 13:17:38.467390,-189.0
2023-08-16 13:17:38.475079,-182.0
2023-08-16 13:17:38.482769,-182.0
2023-08-16 13:17:38.490458,-180.0
2023-08-16 13:17:38.498148,-170.0
2023-08-16 13:17:38.505837,-161.0
2023-08-16 13:17:38.513527,-153.0
2023-08-16 13:17:38.521216,-149.0
2023-08-16 13:17:38.528906,-149.0
2023-08-16 13:17:38.536595,-151.0
2023-08-16 13:17:38.544285,-146.0
2023-08-16 13:17:38.551974,-141.0
2023-08-16 13:17:38.559664,-146.0
2023-08-16 13:17:38.567353,-146.0
2023-08-16 13:17:38.575043,-144.0
2023-08-16 13:17:38.582732,-146.0
2023-08-16 13:17:38.590422,-144.0
2023-08-16 13:17:38.598111,-139.0
2023-08-16 13:17:38.605801,-137.0
2023-08-16 13:17:38.613490,-134.0
2023-08-16 13:17:38.621179,-129.0
2023-08-16 13:17:38.628869,-127.0
2023-08-16 13:17:38.636558,-125.0
2023-08-16 13:17:38.644248,-122.0
2023-08-16 13:17:38.651937,-120.0
2023-08-16 13:17:38.659627,-113.0
2023-08-16 13:17:38.667316,-110.0
2023-08-16 13:17:38.675006,-110.0
2023-08-16 13:17:38.682695,-110.0
2023-08-16 13:17:38.690385,-108.0
2023-08-16 13:17:38.698074,-105.0
2023-08-16 13:17:38.705764,-103.0
2023-08-16 13:17:38.713453,-96.0
2023-08-16 13:17:38.721143,-91.0
2023-08-16 13:17:38.728832,-88.0
2023-08-16 13:17:38.736522,-91.0
2023-08-16 13:17:38.744211,-93.0
2023-08-16 13:17:38.751900,-96.0
2023-08-16 13:17:38.759590,-98.0
2023-08-16 13:17:38.767279,-91.0
2023-08-16 13:17:38.774969,-72.0
2023-08-16 13:17:38.782658,-55.0
2023-08-16 13:17:38.790348,-52.0
2023-08-16 13:17:38.798037,-52.0
2023-08-16 13:17:38.805727,-57.0
2023-08-16 13:17:38.813416,-74.0
2023-08-16 13:17:38.821106,-86.0
2023-08-16 13:17:38.828795,-88.0
2023-08-16 13:17:38.836485,-88.0
2023-08-16 13:17:38.844174,-86.0
2023-08-16 13:17:38.851864,-84.0
2023-08-16 13:17:38.859553,-86.0
2023-08-16 13:17:38.867243,-88.0
2023-08-16 13:17:38.874932,-86.0
2023-08-16 13:17:38.882622,-9.0
2023-08-16 13:17:38.890311,286.0
2023-08-16 13:17:38.898000,783.0
2023-08-16 13:17:38.905690,1113.0
2023-08-16 13:17:38.913379,767.0
2023-08-16 13:17:38.921069,-62.0
2023-08-16 13:17:38.928758,-428.0
2023-08-16 13:17:38.936448,-214.0
2023-08-16 13:17:38.944137,-134.0
2023-08-16 13:17:38.951827,-223.0
2023-08-16 13:17:38.959516,-177.0
2023-08-16 13:17:38.967206,-129.0
2023-08-16 13:17:38.974895,-156.0
2023-08-16 13:17:38.982585,-146.0
2023-08-16 13:17:38.990274,-120.0
2023-08-16 13:17:38.997964,-117.0
2023-08-16 13:17:39.005653,-113.0
2023-08-16 13:17:39.013343,-101.0
2023-08-16 13:17:39.021032,-93.0
2023-08-16 13:17:39.028721,-88.0
2023-08-16 13:17:39.036411,-79.0
2023-08-16 13:17:39.044100,-72.0
2023-08-16 13:17:39.051790,-62.0
2023-08-16 13:17:39.059479,-52.0
2023-08-16 13:17:39.067169,-43.0
2023-08-16 13:17:39.074858,-31.0
2023-08-16 13:17:39.082548,-12.0
2023-08-16 13:17:39.090237,9.0
2023-08-16 13:17:39.097927,33.0
2023-08-16 13:17:39.105616,57.0
2023-08-16 13:17:39.113306,84.0
2023-08-16 13:17:39.120995,115.0
2023-08-16 13:17:39.128685,139.0
2023-08-16 13:17:39.136374,158.0
2023-08-16 13:17:39.144064,170.0
2023-08-16 13:17:39.151753,173.0
2023-08-16 13:17:39.159442,165.0
2023-08-16 13:17:39.167132,149.0
2023-08-16 13:17:39.174821,108.0
2023-08-16 13:17:39.182511,48.0
2023-08-16 13:17:39.190200,-19.0
2023-08-16 13:17:39.197890,-81.0
2023-08-16 13:17:39.205579,-134.0
2023-08-16 13:17:39.213269,-168.0
2023-08-16 13:17:39.220958,-185.0
2023-08-16 13:17:39.228648,-189.0
2023-08-16 13:17:39.236337,-189.0
2023-08-16 13:17:39.244027,-187.0
2023-08-16 13:17:39.251716,-187.0
2023-08-16 13:17:39.259406,-185.0
2023-08-16 13:17:39.267095,-175.0
2023-08-16 13:17:39.274785,-170.0
2023-08-16 13:17:39.282474,-163.0
2023-08-16 13:17:39.290164,-158.0
2023-08-16 13:17:39.297853,-156.0
2023-08-16 13:17:39.305542,-151.0
2023-08-16 13:17:39.313232,-141.0
2023-08-16 13:17:39.320921,-137.0
2023-08-16 13:17:39.328611,-132.0
2023-08-16 13:17:39.336300,-127.0
2023-08-16 13:17:39.343990,-127.0
2023-08-16 13:17:39.351679,-127.0
2023-08-16 13:17:39.359369,-129.0
2023-08-16 13:17:39.367058,-134.0
2023-08-16 13:17:39.374748,-139.0
2023-08-16 13:17:39.382437,-134.0
2023-08-16 13:17:39.390127,-134.0
2023-08-16 13:17:39.397816,-137.0
2023-08-16 13:17:39.405506,-132.0
2023-08-16 13:17:39.413195,-127.0
2023-08-16 13:17:39.420885,-127.0
2023-08-16 13:17:39.428574,-129.0
2023-08-16 13:17:39.436263,-139.0
2023-08-16 13:17:39.443953,-141.0
2023-08-16 13:17:39.451642,-132.0
2023-08-16 13:17:39.459332,-127.0
2023-08-16 13:17:39.467021,-127.0
2023-08-16 13:17:39.474711,-127.0
2023-08-16 13:17:39.482400,-125.0
2023-08-16 13:17:39.490090,-122.0
2023-08-16 13:17:39.497779,-115.0
2023-08-16 13:17:39.505469,-110.0
2023-08-16 13:17:39.513158,-110.0
2023-08-16 13:17:39.520848,-110.0
2023-08-16 13:17:39.528537,-110.0
2023-08-16 13:17:39.536227,-110.0
2023-08-16 13:17:39.543916,-110.0
2023-08-16 13:17:39.551606,-105.0
2023-08-16 13:17:39.559295,-103.0
2023-08-16 13:17:39.566985,-105.0
2023-08-16 13:17:39.574674,-108.0
2023-08-16 13:17:39.582363,-108.0
2023-08-16 13:17:39.590053,-108.0
2023-08-16 13:17:39.597742,-93.0
2023-08-16 13:17:39.605432,-72.0
2023-08-16 13:17:39.613121,-60.0
2023-08-16 13:17:39.620811,-55.0
2023-08-16 13:17:39.628500,-52.0
2023-08-16 13:17:39.636190,-60.0
2023-08-16 13:17:39.643879,-76.0
2023-08-16 13:17:39.651569,-86.0
2023-08-16 13:17:39.659258,-88.0
2023-08-16 13:17:39.666948,-88.0
2023-08-16 13:17:39.674637,-88.0
2023-08-16 13:17:39.682327,-84.0
2023-08-16 13:17:39.690016,-79.0
2023-08-16 13:17:39.697706,-76.0
2023-08-16 13:17:39.705395,-81.0
2023-08-16 13:17:39.713084,0.0
2023-08-16 13:17:39.720774,329.0
2023-08-16 13:17:39.728463,880.0
2023-08-16 13:17:39.736153,1233.0
2023-08-16 13:17:39.743842,841.0
2023-08-16 13:17:39.751532,-28.0
2023-08-16 13:17:39.759221,-375.0
2023-08-16 13:17:39.766911,-163.0
2023-08-16 13:17:39.774600,-120.0
2023-08-16 13:17:39.782290,-226.0
2023-08-16 13:17:39.789979,-182.0
2023-08-16 13:17:39.797669,-139.0
2023-08-16 13:17:39.805358,-165.0
2023-08-16 13:17:39.813048,-153.0
2023-08-16 13:17:39.820737,-125.0
2023-08-16 13:17:39.828427,-125.0
2023-08-16 13:17:39.836116,-120.0
2023-08-16 13:17:39.843805,-108.0
2023-08-16 13:17:39.851495,-101.0
2023-08-16 13:17:39.859184,-96.0
2023-08-16 13:17:39.866874,-91.0
2023-08-16 13:17:39.874563,-86.0
2023-08-16 13:17:39.882253,-79.0
2023-08-16 13:17:39.889942,-72.0
2023-08-16 13:17:39.897632,-57.0
2023-08-16 13:17:39.905321,-40.0
2023-08-16 13:17:39.913011,-24.0
2023-08-16 13:17:39.920700,-2.0
2023-08-16 13:17:39.928390,21.0
2023-08-16 13:17:39.936079,48.0
2023-08-16 13:17:39.943769,79.0
2023-08-16 13:17:39.951458,110.0
2023-08-16 13:17:39.959148,137.0
2023-08-16 13:17:39.966837,156.0
2023-08-16 13:17:39.974527,168.0
2023-08-16 13:17:39.982216,173.0
2023-08-16 13:17:39.989905,170.0
2023-08-16 13:17:39.997595,156.0
2023-08-16 13:17:40.005284,117.0
2023-08-16 13:17:40.012974,55.0
2023-08-16 13:17:40.020663,-16.0
2023-08-16 13:17:40.028353,-86.0
2023-08-16 13:17:40.036042,-139.0
2023-08-16 13:17:40.043732,-175.0
2023-08-16 13:17:40.051421,-194.0
2023-08-16 13:17:40.059111,-209.0
2023-08-16 13:17:40.066800,-221.0
2023-08-16 13:17:40.074490,-223.0
2023-08-16 13:17:40.082179,-214.0
2023-08-16 13:17:40.089869,-204.0
2023-08-16 13:17:40.097558,-199.0
2023-08-16 13:17:40.105248,-194.0
2023-08-16 13:17:40.112937,-192.0
2023-08-16 13:17:40.120626,-189.0
2023-08-16 13:17:40.128316,-182.0
2023-08-16 13:17:40.136005,-173.0
2023-08-16 13:17:40.143695,-165.0
2023-08-16 13:17:40.151384,-163.0
2023-08-16 13:17:40.159074,-158.0
2023-08-16 13:17:40.166763,-153.0
2023-08-16 13:17:40.174453,-151.0
2023-08-16 13:17:40.182142,-146.0
2023-08-16 13:17:40.189832,-144.0
2023-08-16 13:17:40.197521,-144.0
2023-08-16 13:17:40.205211,-141.0
2023-08-16 13:17:40.212900,-139.0
2023-08-16 13:17:40.220590,-139.0
2023-08-16 13:17:40.228279,-137.0
2023-08-16 13:17:40.235969,-134.0
2023-08-16 13:17:40.243658,-134.0
2023-08-16 13:17:40.251347,-132.0
2023-08-16 13:17:40.259037,-132.0
2023-08-16 13:17:40.266726,-129.0
2023-08-16 13:17:40.274416,-129.0
2023-08-16 13:17:40.282105,-129.0
2023-08-16 13:17:40.289795,-127.0
2023-08-16 13:17:40.297484,-122.0
2023-08-16 13:17:40.305174,-122.0
2023-08-16 13:17:40.312863,-120.0
2023-08-16 13:17:40.320553,-115.0
2023-08-16 13:17:40.328242,-110.0
2023-08-16 13:17:40.335932,-110.0
2023-08-16 13:17:40.343621,-108.0
2023-08-16 13:17:40.351311,-103.0
2023-08-16 13:17:40.359000,-103.0
2023-08-16 13:17:40.366690,-101.0
2023-08-16 13:17:40.374379,-98.0
2023-08-16 13:17:40.382069,-96.0
2023-08-16 13:17:40.389758,-93.0
2023-08-16 13:17:40.397447,-91.0
2023-08-16 13:17:40.405137,-91.0
2023-08-16 13:17:40.412826,-88.0
2023-08-16 13:17:40.420516,-88.0
2023-08-16 13:17:40.428205,-91.0
2023-08-16 13:17:40.435895,-93.0
2023-08-16 13:17:40.443584,-88.0
2023-08-16 13:17:40.451274,-72.0
2023-08-16 13:17:40.458963,-57.0
2023-08-16 13:17:40.466653,-45.0
2023-08-16 13:17:40.474342,-40.0
2023-08-16 13:17:40.482032,-40.0
2023-08-16 13:17:40.489721,-52.0
2023-08-16 13:17:40.497411,-69.0
2023-08-16 13:17:40.505100,-79.0
2023-08-16 13:17:40.512790,-79.0
2023-08-16 13:17:40.520479,-79.0
2023-08-16 13:17:40.528168,-81.0
2023-08-16 13:17:40.535858,-79.0
2023-08-16 13:17:40.543547,-76.0
2023-08-16 13:17:40.551237,-81.0
2023-08-16 13:17:40.558926,-74.0
2023-08-16 13:17:40.566616,86.0
2023-08-16 13:17:40.574305,531.0
2023-08-16 13:17:40.581995,1072.0
2023-08-16 13:17:40.589684,1144.0
2023-08-16 13:17:40.597374,442.0
2023-08-16 13:17:40.605063,-288.0
2023-08-16 13:17:40.612753,-310.0
2023-08-16 13:17:40.620442,-120.0
2023-08-16 13:17:40.628132,-197.0
2023-08-16 13:17:40.635821,-238.0
2023-08-16 13:17:40.643511,-165.0
2023-08-16 13:17:40.651200,-163.0
2023-08-16 13:17:40.658890,-180.0
2023-08-16 13:17:40.666579,-151.0
2023-08-16 13:17:40.674268,-137.0
2023-08-16 13:17:40.681958,-141.0
2023-08-16 13:17:40.689647,-132.0
2023-08-16 13:17:40.697337,-120.0
2023-08-16 13:17:40.705026,-117.0
2023-08-16 13:17:40.712716,-113.0
2023-08-16 13:17:40.720405,-101.0
2023-08-16 13:17:40.728095,-96.0
2023-08-16 13:17:40.735784,-88.0
2023-08-16 13:17:40.743474,-76.0
2023-08-16 13:17:40.751163,-62.0
2023-08-16 13:17:40.758853,-48.0
2023-08-16 13:17:40.766542,-33.0
2023-08-16 13:17:40.774232,-12.0
2023-08-16 13:17:40.781921,14.0
2023-08-16 13:17:40.789611,45.0
2023-08-16 13:17:40.797300,76.0
2023-08-16 13:17:40.804989,105.0
2023-08-16 13:17:40.812679,129.0
2023-08-16 13:17:40.820368,141.0
2023-08-16 13:17:40.828058,151.0
2023-08-16 13:17:40.835747,161.0
2023-08-16 13:17:40.843437,153.0
2023-08-16 13:17:40.851126,127.0
2023-08-16 13:17:40.858816,81.0
2023-08-16 13:17:40.866505,14.0
2023-08-16 13:17:40.874195,-57.0
2023-08-16 13:17:40.881884,-122.0
2023-08-16 13:17:40.889574,-168.0
2023-08-16 13:17:40.897263,-197.0
2023-08-16 13:17:40.904953,-211.0
2023-08-16 13:17:40.912642,-221.0
2023-08-16 13:17:40.920332,-223.0
2023-08-16 13:17:40.928021,-221.0
2023-08-16 13:17:40.935710,-214.0
2023-08-16 13:17:40.943400,-204.0
2023-08-16 13:17:40.951089,-202.0
2023-08-16 13:17:40.958779,-197.0
2023-08-16 13:17:40.966468,-189.0
2023-08-16 13:17:40.974158,-180.0
2023-08-16 13:17:40.981847,-170.0
2023-08-16 13:17:40.989537,-165.0
2023-08-16 13:17:40.997226,-161.0
2023-08-16 13:17:41.004916,-158.0
2023-08-16 13:17:41.012605,-161.0
2023-08-16 13:17:41.020295,-163.0
2023-08-16 13:17:41.027984,-158.0
2023-08-16 13:17:41.035674,-151.0
2023-08-16 13:17:41.043363,-151.0
2023-08-16 13:17:41.051053,-153.0
2023-08-16 13:17:41.058742,-153.0
2023-08-16 13:17:41.066432,-153.0
2023-08-16 13:17:41.074121,-149.0
2023-08-16 13:17:41.081810,-141.0
2023-08-16 13:17:41.089500,-141.0
2023-08-16 13:17:41.097189,-151.0
2023-08-16 13:17:41.104879,-153.0
2023-08-16 13:17:41.112568,-149.0
2023-08-16 13:17:41.120258,-151.0
2023-08-16 13:17:41.127947,-156.0
2023-08-16 13:17:41.135637,-158.0
2023-08-16 13:17:41.143326,-158.0
2023-08-16 13:17:41.151016,-158.0
2023-08-16 13:17:41.158705,-153.0
2023-08-16 13:17:41.166395,-146.0
2023-08-16 13:17:41.174084,-144.0
2023-08-16 13:17:41.181774,-139.0
2023-08-16 13:17:41.189463,-134.0
2023-08-16 13:17:41.197153,-134.0
2023-08-16 13:17:41.204842,-132.0
2023-08-16 13:17:41.212531,-129.0
2023-08-16 13:17:41.220221,-127.0
2023-08-16 13:17:41.227910,-125.0
2023-08-16 13:17:41.235600,-122.0
2023-08-16 13:17:41.243289,-117.0
2023-08-16 13:17:41.250979,-113.0
2023-08-16 13:17:41.258668,-117.0
2023-08-16 13:17:41.266358,-122.0
2023-08-16 13:17:41.274047,-117.0
2023-08-16 13:17:41.281737,-120.0
2023-08-16 13:17:41.289426,-117.0
2023-08-16 13:17:41.297116,-98.0
2023-08-16 13:17:41.304805,-76.0
2023-08-16 13:17:41.312495,-69.0
2023-08-16 13:17:41.320184,-69.0
2023-08-16 13:17:41.327874,-69.0
2023-08-16 13:17:41.335563,-81.0
2023-08-16 13:17:41.343253,-93.0
2023-08-16 13:17:41.350942,-93.0
2023-08-16 13:17:41.358631,-93.0
2023-08-16 13:17:41.366321,-98.0
2023-08-16 13:17:41.374010,-98.0
2023-08-16 13:17:41.381700,-91.0
2023-08-16 13:17:41.389389,-86.0
2023-08-16 13:17:41.397079,-88.0
2023-08-16 13:17:41.404768,-43.0
2023-08-16 13:17:41.412458,192.0
2023-08-16 13:17:41.420147,670.0
2023-08-16 13:17:41.427837,1106.0
2023-08-16 13:17:41.435526,973.0
2023-08-16 13:17:41.443216,182.0
2023-08-16 13:17:41.450905,-396.0
2023-08-16 13:17:41.458595,-286.0
2023-08-16 13:17:41.466284,-125.0
2023-08-16 13:17:41.473974,-204.0
2023-08-16 13:17:41.481663,-199.0
2023-08-16 13:17:41.489352,-134.0
2023-08-16 13:17:41.497042,-146.0
2023-08-16 13:17:41.504731,-151.0
2023-08-16 13:17:41.512421,-127.0
2023-08-16 13:17:41.520110,-122.0
2023-08-16 13:17:41.527800,-120.0
2023-08-16 13:17:41.535489,-108.0
2023-08-16 13:17:41.543179,-98.0
2023-08-16 13:17:41.550868,-101.0
2023-08-16 13:17:41.558558,-93.0
2023-08-16 13:17:41.566247,-79.0
2023-08-16 13:17:41.573937,-67.0
2023-08-16 13:17:41.581626,-60.0
2023-08-16 13:17:41.589316,-48.0
2023-08-16 13:17:41.597005,-33.0
2023-08-16 13:17:41.604695,-21.0
2023-08-16 13:17:41.612384,-2.0
2023-08-16 13:17:41.620073,24.0
2023-08-16 13:17:41.627763,52.0
2023-08-16 13:17:41.635452,74.0
2023-08-16 13:17:41.643142,98.0
2023-08-16 13:17:41.650831,125.0
2023-08-16 13:17:41.658521,151.0
2023-08-16 13:17:41.666210,168.0
2023-08-16 13:17:41.673900,173.0
2023-08-16 13:17:41.681589,165.0
2023-08-16 13:17:41.689279,144.0
2023-08-16 13:17:41.696968,113.0
2023-08-16 13:17:41.704658,67.0
2023-08-16 13:17:41.712347,0.0
2023-08-16 13:17:41.720037,-69.0
2023-08-16 13:17:41.727726,-129.0
2023-08-16 13:17:41.735416,-175.0
2023-08-16 13:17:41.743105,-204.0
2023-08-16 13:17:41.750795,-218.0
2023-08-16 13:17:41.758484,-223.0
2023-08-16 13:17:41.766173,-221.0
2023-08-16 13:17:41.773863,-218.0
2023-08-16 13:17:41.781552,-216.0
2023-08-16 13:17:41.789242,-206.0
2023-08-16 13:17:41.796931,-194.0
2023-08-16 13:17:41.804621,-182.0
2023-08-16 13:17:41.812310,-173.0
2023-08-16 13:17:41.820000,-163.0
2023-08-16 13:17:41.827689,-156.0
2023-08-16 13:17:41.835379,-151.0
2023-08-16 13:17:41.843068,-144.0
2023-08-16 13:17:41.850758,-137.0
2023-08-16 13:17:41.858447,-132.0
2023-08-16 13:17:41.866137,-132.0
2023-08-16 13:17:41.873826,-129.0
2023-08-16 13:17:41.881516,-125.0
2023-08-16 13:17:41.889205,-120.0
2023-08-16 13:17:41.896894,-122.0
2023-08-16 13:17:41.904584,-125.0
2023-08-16 13:17:41.912273,-125.0
2023-08-16 13:17:41.919963,-122.0
2023-08-16 13:17:41.927652,-120.0
2023-08-16 13:17:41.935342,-117.0
2023-08-16 13:17:41.943031,-115.0
2023-08-16 13:17:41.950721,-113.0
2023-08-16 13:17:41.958410,-110.0
2023-08-16 13:17:41.966100,-108.0
2023-08-16 13:17:41.973789,-105.0
2023-08-16 13:17:41.981479,-101.0
2023-08-16 13:17:41.989168,-98.0
2023-08-16 13:17:41.996858,-98.0
2023-08-16 13:17:42.004547,-98.0
2023-08-16 13:17:42.012237,-96.0
2023-08-16 13:17:42.019926,-93.0
2023-08-16 13:17:42.027615,-88.0
2023-08-16 13:17:42.035305,-86.0
2023-08-16 13:17:42.042994,-86.0
2023-08-16 13:17:42.050684,-91.0
2023-08-16 13:17:42.058373,-96.0
2023-08-16 13:17:42.066063,-96.0
2023-08-16 13:17:42.073752,-81.0
2023-08-16 13:17:42.081442,-62.0
2023-08-16 13:17:42.089131,-48.0
2023-08-16 13:17:42.096821,-38.0
2023-08-16 13:17:42.104510,-33.0
2023-08-16 13:17:42.112200,-45.0
2023-08-16 13:17:42.119889,-64.0
2023-08-16 13:17:42.127579,-76.0
2023-08-16 13:17:42.135268,-81.0
2023-08-16 13:17:42.142958,-84.0
2023-08-16 13:17:42.150647,-84.0
2023-08-16 13:17:42.158337,-79.0
2023-08-16 13:17:42.166026,-74.0
2023-08-16 13:17:42.173715,-74.0
2023-08-16 13:17:42.181405,-76.0
2023-08-16 13:17:42.189094,7.0
2023-08-16 13:17:42.196784,331.0
2023-08-16 13:17:42.204473,872.0
2023-08-16 13:17:42.212163,1216.0
2023-08-16 13:17:42.219852,820.0
2023-08-16 13:17:42.227542,-48.0
2023-08-16 13:17:42.235231,-382.0
2023-08-16 13:17:42.242921,-161.0
2023-08-16 13:17:42.250610,-120.0
2023-08-16 13:17:42.258300,-223.0
2023-08-16 13:17:42.265989,-177.0
2023-08-16 13:17:42.273679,-144.0
2023-08-16 13:17:42.281368,-173.0
2023-08-16 13:17:42.289058,-153.0
2023-08-16 13:17:42.296747,-127.0
2023-08-16 13:17:42.304436,-132.0
2023-08-16 13:17:42.312126,-127.0
2023-08-16 13:17:42.319815,-113.0
2023-08-16 13:17:42.327505,-103.0
2023-08-16 13:17:42.335194,-96.0
2023-08-16 13:17:42.342884,-88.0
2023-08-16 13:17:42.350573,-84.0
2023-08-16 13:17:42.358263,-74.0
2023-08-16 13:17:42.365952,-64.0
2023-08-16 13:17:42.373642,-52.0
2023-08-16 13:17:42.381331,-38.0
2023-08-16 13:17:42.389021,-19.0
2023-08-16 13:17:42.396710,0.0
2023-08-16 13:17:42.404400,24.0
2023-08-16 13:17:42.412089,55.0
2023-08-16 13:17:42.419779,88.0
2023-08-16 13:17:42.427468,117.0
2023-08-16 13:17:42.435158,141.0
2023-08-16 13:17:42.442847,158.0
2023-08-16 13:17:42.450536,168.0
2023-08-16 13:17:42.458226,173.0
2023-08-16 13:17:42.465915,173.0
2023-08-16 13:17:42.473605,153.0
2023-08-16 13:17:42.481294,108.0
2023-08-16 13:17:42.488984,40.0
2023-08-16 13:17:42.496673,-28.0
2023-08-16 13:17:42.504363,-93.0
2023-08-16 13:17:42.512052,-141.0
2023-08-16 13:17:42.519742,-175.0
2023-08-16 13:17:42.527431,-194.0
2023-08-16 13:17:42.535121,-204.0
2023-08-16 13:17:42.542810,-206.0
2023-08-16 13:17:42.550500,-199.0
2023-08-16 13:17:42.558189,-192.0
2023-08-16 13:17:42.565879,-187.0
2023-08-16 13:17:42.573568,-180.0
2023-08-16 13:17:42.581257,-173.0
2023-08-16 13:17:42.588947,-165.0
2023-08-16 13:17:42.596636,-156.0
2023-08-16 13:17:42.604326,-149.0
2023-08-16 13:17:42.612015,-144.0
2023-08-16 13:17:42.619705,-139.0
2023-08-16 13:17:42.627394,-134.0
2023-08-16 13:17:42.635084,-137.0
2023-08-16 13:17:42.642773,-139.0
2023-08-16 13:17:42.650463,-137.0
2023-08-16 13:17:42.658152,-134.0
2023-08-16 13:17:42.665842,-134.0
2023-08-16 13:17:42.673531,-132.0
2023-08-16 13:17:42.681221,-129.0
2023-08-16 13:17:42.688910,-129.0
2023-08-16 13:17:42.696600,-127.0
2023-08-16 13:17:42.704289,-125.0
2023-08-16 13:17:42.711978,-125.0
2023-08-16 13:17:42.719668,-125.0
2023-08-16 13:17:42.727357,-122.0
2023-08-16 13:17:42.735047,-122.0
2023-08-16 13:17:42.742736,-122.0
2023-08-16 13:17:42.750426,-117.0
2023-08-16 13:17:42.758115,-117.0
2023-08-16 13:17:42.765805,-117.0
2023-08-16 13:17:42.773494,-113.0
2023-08-16 13:17:42.781184,-108.0
2023-08-16 13:17:42.788873,-105.0
2023-08-16 13:17:42.796563,-103.0
2023-08-16 13:17:42.804252,-108.0
2023-08-16 13:17:42.811942,-115.0
2023-08-16 13:17:42.819631,-113.0
2023-08-16 13:17:42.827321,-105.0
2023-08-16 13:17:42.835010,-103.0
2023-08-16 13:17:42.842700,-101.0
2023-08-16 13:17:42.850389,-98.0
2023-08-16 13:17:42.858078,-101.0
2023-08-16 13:17:42.865768,-101.0
2023-08-16 13:17:42.873457,-103.0
2023-08-16 13:17:42.881147,-101.0
2023-08-16 13:17:42.888836,-88.0
2023-08-16 13:17:42.896526,-69.0
2023-08-16 13:17:42.904215,-57.0
2023-08-16 13:17:42.911905,-50.0
2023-08-16 13:17:42.919594,-45.0
2023-08-16 13:17:42.927284,-52.0
2023-08-16 13:17:42.934973,-72.0
2023-08-16 13:17:42.942663,-84.0
2023-08-16 13:17:42.950352,-86.0
2023-08-16 13:17:42.958042,-84.0
2023-08-16 13:17:42.965731,-81.0
2023-08-16 13:17:42.973421,-79.0
2023-08-16 13:17:42.981110,-79.0
2023-08-16 13:17:42.988799,-81.0
2023-08-16 13:17:42.996489,-81.0
2023-08-16 13:17:43.004178,16.0
2023-08-16 13:17:43.011868,363.0
2023-08-16 13:17:43.019557,909.0
2023-08-16 13:17:43.027247,1209.0
2023-08-16 13:17:43.034936,750.0
2023-08-16 13:17:43.042626,-96.0
2023-08-16 13:17:43.050315,-360.0
2023-08-16 13:17:43.058005,-141.0
2023-08-16 13:17:43.065694,-129.0
2023-08-16 13:17:43.073384,-223.0
2023-08-16 13:17:43.081073,-168.0
2023-08-16 13:17:43.088763,-134.0
2023-08-16 13:17:43.096452,-161.0
2023-08-16 13:17:43.104142,-144.0
2023-08-16 13:17:43.111831,-120.0
2023-08-16 13:17:43.119520,-120.0
2023-08-16 13:17:43.127210,-117.0
2023-08-16 13:17:43.134899,-103.0
2023-08-16 13:17:43.142589,-98.0
2023-08-16 13:17:43.150278,-98.0
2023-08-16 13:17:43.157968,-93.0
2023-08-16 13:17:43.165657,-81.0
2023-08-16 13:17:43.173347,-76.0
2023-08-16 13:17:43.181036,-69.0
2023-08-16 13:17:43.188726,-57.0
2023-08-16 13:17:43.196415,-38.0
2023-08-16 13:17:43.204105,-21.0
2023-08-16 13:17:43.211794,-2.0
2023-08-16 13:17:43.219484,19.0
2023-08-16 13:17:43.227173,48.0
2023-08-16 13:17:43.234863,76.0
2023-08-16 13:17:43.242552,108.0
2023-08-16 13:17:43.250242,132.0
2023-08-16 13:17:43.257931,149.0
2023-08-16 13:17:43.265620,156.0
2023-08-16 13:17:43.273310,163.0
2023-08-16 13:17:43.280999,163.0
2023-08-16 13:17:43.288689,146.0
2023-08-16 13:17:43.296378,105.0
2023-08-16 13:17:43.304068,40.0
2023-08-16 13:17:43.311757,-31.0
2023-08-16 13:17:43.319447,-91.0
2023-08-16 13:17:43.327136,-137.0
2023-08-16 13:17:43.334826,-170.0
2023-08-16 13:17:43.342515,-189.0
2023-08-16 13:17:43.350205,-202.0
2023-08-16 13:17:43.357894,-206.0
2023-08-16 13:17:43.365584,-202.0
2023-08-16 13:17:43.373273,-192.0
2023-08-16 13:17:43.380963,-187.0
2023-08-16 13:17:43.388652,-185.0
2023-08-16 13:17:43.396341,-187.0
2023-08-16 13:17:43.404031,-182.0
2023-08-16 13:17:43.411720,-170.0
2023-08-16 13:17:43.419410,-163.0
2023-08-16 13:17:43.427099,-161.0
2023-08-16 13:17:43.434789,-156.0
2023-08-16 13:17:43.442478,-153.0
2023-08-16 13:17:43.450168,-151.0
2023-08-16 13:17:43.457857,-144.0
2023-08-16 13:17:43.465547,-141.0
2023-08-16 13:17:43.473236,-144.0
2023-08-16 13:17:43.480926,-151.0
2023-08-16 13:17:43.488615,-151.0
2023-08-16 13:17:43.496305,-149.0
2023-08-16 13:17:43.503994,-144.0
2023-08-16 13:17:43.511684,-141.0
2023-08-16 13:17:43.519373,-139.0
2023-08-16 13:17:43.527063,-139.0
2023-08-16 13:17:43.534752,-139.0
2023-08-16 13:17:43.542441,-137.0
2023-08-16 13:17:43.550131,-134.0
2023-08-16 13:17:43.557820,-129.0
2023-08-16 13:17:43.565510,-125.0
2023-08-16 13:17:43.573199,-127.0
2023-08-16 13:17:43.580889,-127.0
2023-08-16 13:17:43.588578,-127.0
2023-08-16 13:17:43.596268,-122.0
2023-08-16 13:17:43.603957,-117.0
2023-08-16 13:17:43.611647,-113.0
2023-08-16 13:17:43.619336,-110.0
2023-08-16 13:17:43.627026,-113.0
2023-08-16 13:17:43.634715,-113.0
2023-08-16 13:17:43.642405,-108.0
2023-08-16 13:17:43.650094,-105.0
2023-08-16 13:17:43.657784,-110.0
2023-08-16 13:17:43.665473,-115.0
2023-08-16 13:17:43.673162,-113.0
2023-08-16 13:17:43.680852,-110.0
2023-08-16 13:17:43.688541,-105.0
2023-08-16 13:17:43.696231,-105.0
2023-08-16 13:17:43.703920,-110.0
2023-08-16 13:17:43.711610,-110.0
2023-08-16 13:17:43.719299,-98.0
2023-08-16 13:17:43.726989,-81.0
2023-08-16 13:17:43.734678,-67.0
2023-08-16 13:17:43.742368,-60.0
2023-08-16 13:17:43.750057,-62.0
2023-08-16 13:17:43.757747,-76.0
2023-08-16 13:17:43.765436,-88.0
2023-08-16 13:17:43.773126,-93.0
2023-08-16 13:17:43.780815,-93.0
2023-08-16 13:17:43.788505,-96.0
2023-08-16 13:17:43.796194,-96.0
2023-08-16 13:17:43.803883,-93.0
2023-08-16 13:17:43.811573,-88.0
2023-08-16 13:17:43.819262,-88.0
2023-08-16 13:17:43.826952,-64.0
2023-08-16 13:17:43.834641,137.0
2023-08-16 13:17:43.842331,598.0
2023-08-16 13:17:43.850020,1091.0
2023-08-16 13:17:43.857710,1070.0
2023-08-16 13:17:43.865399,327.0
2023-08-16 13:17:43.873089,-341.0
2023-08-16 13:17:43.880778,-300.0
2023-08-16 13:17:43.888468,-117.0
2023-08-16 13:17:43.896157,-194.0
2023-08-16 13:17:43.903847,-216.0
2023-08-16 13:17:43.911536,-141.0
2023-08-16 13:17:43.919226,-146.0
2023-08-16 13:17:43.926915,-161.0
2023-08-16 13:17:43.934605,-132.0
2023-08-16 13:17:43.942294,-120.0
2023-08-16 13:17:43.949983,-125.0
2023-08-16 13:17:43.957673,-113.0
2023-08-16 13:17:43.965362,-105.0
2023-08-16 13:17:43.973052,-105.0
2023-08-16 13:17:43.980741,-96.0
2023-08-16 13:17:43.988431,-84.0
2023-08-16 13:17:43.996120,-76.0
2023-08-16 13:17:44.003810,-64.0
2023-08-16 13:17:44.011499,-52.0
2023-08-16 13:17:44.019189,-45.0
2023-08-16 13:17:44.026878,-31.0
2023-08-16 13:17:44.034568,-9.0
2023-08-16 13:17:44.042257,12.0
2023-08-16 13:17:44.049947,40.0
2023-08-16 13:17:44.057636,74.0
2023-08-16 13:17:44.065326,101.0
2023-08-16 13:17:44.073015,113.0
2023-08-16 13:17:44.080704,129.0
2023-08-16 13:17:44.088394,151.0
2023-08-16 13:17:44.096083,158.0
2023-08-16 13:17:44.103773,161.0
2023-08-16 13:17:44.111462,158.0
2023-08-16 13:17:44.119152,132.0
2023-08-16 13:17:44.126841,76.0
2023-08-16 13:17:44.134531,9.0
2023-08-16 13:17:44.142220,-52.0
2023-08-16 13:17:44.149910,-110.0
2023-08-16 13:17:44.157599,-156.0
2023-08-16 13:17:44.165289,-189.0
2023-08-16 13:17:44.172978,-206.0
2023-08-16 13:17:44.180668,-214.0
2023-08-16 13:17:44.188357,-214.0
2023-08-16 13:17:44.196047,-209.0
2023-08-16 13:17:44.203736,-199.0
2023-08-16 13:17:44.211426,-197.0
2023-08-16 13:17:44.219115,-199.0
2023-08-16 13:17:44.226804,-197.0
2023-08-16 13:17:44.234494,-187.0
2023-08-16 13:17:44.242183,-175.0
2023-08-16 13:17:44.249873,-165.0
2023-08-16 13:17:44.257562,-163.0
2023-08-16 13:17:44.265252,-161.0
2023-08-16 13:17:44.272941,-153.0
2023-08-16 13:17:44.280631,-151.0
2023-08-16 13:17:44.288320,-151.0
2023-08-16 13:17:44.296010,-149.0
2023-08-16 13:17:44.303699,-146.0
2023-08-16 13:17:44.311389,-144.0
2023-08-16 13:17:44.319078,-144.0
2023-08-16 13:17:44.326768,-144.0
2023-08-16 13:17:44.334457,-144.0
2023-08-16 13:17:44.342147,-141.0
2023-08-16 13:17:44.349836,-139.0
2023-08-16 13:17:44.357525,-134.0
2023-08-16 13:17:44.365215,-132.0
2023-08-16 13:17:44.372904,-129.0
2023-08-16 13:17:44.380594,-127.0
2023-08-16 13:17:44.388283,-125.0
2023-08-16 13:17:44.395973,-122.0
2023-08-16 13:17:44.403662,-117.0
2023-08-16 13:17:44.411352,-115.0
2023-08-16 13:17:44.419041,-113.0
2023-08-16 13:17:44.426731,-110.0
2023-08-16 13:17:44.434420,-110.0
2023-08-16 13:17:44.442110,-115.0
2023-08-16 13:17:44.449799,-120.0
2023-08-16 13:17:44.457489,-120.0
2023-08-16 13:17:44.465178,-110.0
2023-08-16 13:17:44.472868,-98.0
2023-08-16 13:17:44.480557,-88.0
2023-08-16 13:17:44.488246,-76.0
2023-08-16 13:17:44.495936,-69.0
2023-08-16 13:17:44.503625,-79.0
2023-08-16 13:17:44.511315,-96.0
2023-08-16 13:17:44.519004,-108.0
2023-08-16 13:17:44.526694,-110.0
2023-08-16 13:17:44.534383,-105.0
2023-08-16 13:17:44.542073,-103.0
2023-08-16 13:17:44.549762,-101.0
2023-08-16 13:17:44.557452,-96.0
2023-08-16 13:17:44.565141,-91.0
2023-08-16 13:17:44.572831,-88.0
2023-08-16 13:17:44.580520,9.0
2023-08-16 13:17:44.588210,353.0
2023-08-16 13:17:44.595899,872.0
2023-08-16 13:17:44.603589,1135.0
2023-08-16 13:17:44.611278,668.0
2023-08-16 13:17:44.618968,-161.0
2023-08-16 13:17:44.626657,-411.0
2023-08-16 13:17:44.634346,-165.0
2023-08-16 13:17:44.642036,-132.0
2023-08-16 13:17:44.649725,-218.0
2023-08-16 13:17:44.657415,-158.0
2023-08-16 13:17:44.665104,-120.0
2023-08-16 13:17:44.672794,-149.0
2023-08-16 13:17:44.680483,-139.0
2023-08-16 13:17:44.688173,-115.0
2023-08-16 13:17:44.695862,-115.0
2023-08-16 13:17:44.703552,-113.0
2023-08-16 13:17:44.711241,-98.0
2023-08-16 13:17:44.718931,-91.0
2023-08-16 13:17:44.726620,-84.0
2023-08-16 13:17:44.734310,-72.0
2023-08-16 13:17:44.741999,-67.0
2023-08-16 13:17:44.749689,-60.0
2023-08-16 13:17:44.757378,-48.0
2023-08-16 13:17:44.765067,-31.0
2023-08-16 13:17:44.772757,-16.0
2023-08-16 13:17:44.780446,0.0
2023-08-16 13:17:44.788136,19.0
2023-08-16 13:17:44.795825,45.0
2023-08-16 13:17:44.803515,74.0
2023-08-16 13:17:44.811204,105.0
2023-08-16 13:17:44.818894,132.0
2023-08-16 13:17:44.826583,151.0
2023-08-16 13:17:44.834273,163.0
2023-08-16 13:17:44.841962,170.0
2023-08-16 13:17:44.849652,177.0
2023-08-16 13:17:44.857341,173.0
2023-08-16 13:17:44.865031,144.0
2023-08-16 13:17:44.872720,91.0
2023-08-16 13:17:44.880410,21.0
2023-08-16 13:17:44.888099,-43.0
2023-08-16 13:17:44.895788,-98.0
2023-08-16 13:17:44.903478,-141.0
2023-08-16 13:17:44.911167,-165.0
2023-08-16 13:17:44.918857,-180.0
2023-08-16 13:17:44.926546,-189.0
2023-08-16 13:17:44.934236,-189.0
2023-08-16 13:17:44.941925,-185.0
2023-08-16 13:17:44.949615,-182.0
2023-08-16 13:17:44.957304,-177.0
2023-08-16 13:17:44.964994,-170.0
2023-08-16 13:17:44.972683,-161.0
2023-08-16 13:17:44.980373,-151.0
2023-08-16 13:17:44.988062,-141.0
2023-08-16 13:17:44.995752,-137.0
2023-08-16 13:17:45.003441,-129.0
2023-08-16 13:17:45.011131,-125.0
2023-08-16 13:17:45.018820,-122.0
2023-08-16 13:17:45.026510,-120.0
2023-08-16 13:17:45.034199,-117.0
2023-08-16 13:17:45.041888,-117.0
2023-08-16 13:17:45.049578,-117.0
2023-08-16 13:17:45.057267,-125.0
2023-08-16 13:17:45.064957,-137.0
2023-08-16 13:17:45.072646,-137.0
2023-08-16 13:17:45.080336,-129.0
2023-08-16 13:17:45.088025,-132.0
2023-08-16 13:17:45.095715,-134.0
2023-08-16 13:17:45.103404,-139.0
2023-08-16 13:17:45.111094,-146.0
2023-08-16 13:17:45.118783,-141.0
2023-08-16 13:17:45.126473,-132.0
2023-08-16 13:17:45.134162,-132.0
2023-08-16 13:17:45.141852,-127.0
2023-08-16 13:17:45.149541,-125.0
2023-08-16 13:17:45.157231,-122.0
2023-08-16 13:17:45.164920,-122.0
2023-08-16 13:17:45.172609,-117.0
2023-08-16 13:17:45.180299,-120.0
2023-08-16 13:17:45.187988,-122.0
2023-08-16 13:17:45.195678,-122.0
2023-08-16 13:17:45.203367,-120.0
2023-08-16 13:17:45.211057,-120.0
2023-08-16 13:17:45.218746,-115.0
2023-08-16 13:17:45.226436,-110.0
2023-08-16 13:17:45.234125,-108.0
2023-08-16 13:17:45.241815,-110.0
2023-08-16 13:17:45.249504,-108.0
2023-08-16 13:17:45.257194,-105.0
2023-08-16 13:17:45.264883,-103.0
2023-08-16 13:17:45.272573,-108.0
2023-08-16 13:17:45.280262,-105.0
2023-08-16 13:17:45.287952,-93.0
2023-08-16 13:17:45.295641,-74.0
2023-08-16 13:17:45.303331,-60.0
2023-08-16 13:17:45.311020,-50.0
2023-08-16 13:17:45.318709,-48.0
2023-08-16 13:17:45.326399,-60.0
2023-08-16 13:17:45.334088,-81.0
2023-08-16 13:17:45.341778,-88.0
2023-08-16 13:17:45.349467,-86.0
2023-08-16 13:17:45.357157,-86.0
2023-08-16 13:17:45.364846,-86.0
2023-08-16 13:17:45.372536,-81.0
2023-08-16 13:17:45.380225,-79.0
2023-08-16 13:17:45.387915,-79.0
2023-08-16 13:17:45.395604,-72.0
2023-08-16 13:17:45.403294,55.0
2023-08-16 13:17:45.410983,454.0
2023-08-16 13:17:45.418673,1017.0
2023-08-16 13:17:45.426362,1238.0
2023-08-16 13:17:45.434052,656.0
2023-08-16 13:17:45.441741,-175.0
2023-08-16 13:17:45.449430,-341.0
2023-08-16 13:17:45.457120,-122.0
2023-08-16 13:17:45.464809,-151.0
2023-08-16 13:17:45.472499,-230.0
2023-08-16 13:17:45.480188,-165.0
2023-08-16 13:17:45.487878,-141.0
2023-08-16 13:17:45.495567,-165.0
2023-08-16 13:17:45.503257,-144.0
2023-08-16 13:17:45.510946,-125.0
2023-08-16 13:17:45.518636,-127.0
2023-08-16 13:17:45.526325,-117.0
2023-08-16 13:17:45.534015,-103.0
2023-08-16 13:17:45.541704,-96.0
2023-08-16 13:17:45.549394,-91.0
2023-08-16 13:17:45.557083,-81.0
2023-08-16 13:17:45.564773,-74.0
2023-08-16 13:17:45.572462,-64.0
2023-08-16 13:17:45.580151,-52.0
2023-08-16 13:17:45.587841,-40.0
2023-08-16 13:17:45.595530,-26.0
2023-08-16 13:17:45.603220,-9.0
2023-08-16 13:17:45.610909,12.0
2023-08-16 13:17:45.618599,38.0
2023-08-16 13:17:45.626288,69.0
2023-08-16 13:17:45.633978,101.0
2023-08-16 13:17:45.641667,125.0
2023-08-16 13:17:45.649357,139.0
2023-08-16 13:17:45.657046,153.0
2023-08-16 13:17:45.664736,165.0
2023-08-16 13:17:45.672425,170.0
2023-08-16 13:17:45.680115,161.0
2023-08-16 13:17:45.687804,134.0
2023-08-16 13:17:45.695494,84.0
2023-08-16 13:17:45.703183,19.0
2023-08-16 13:17:45.710873,-52.0
2023-08-16 13:17:45.718562,-113.0
2023-08-16 13:17:45.726251,-156.0
2023-08-16 13:17:45.733941,-187.0
2023-08-16 13:17:45.741630,-204.0
2023-08-16 13:17:45.749320,-209.0
2023-08-16 13:17:45.757009,-206.0
2023-08-16 13:17:45.764699,-202.0
2023-08-16 13:17:45.772388,-192.0
2023-08-16 13:17:45.780078,-185.0
2023-08-16 13:17:45.787767,-177.0
2023-08-16 13:17:45.795457,-170.0
2023-08-16 13:17:45.803146,-163.0
2023-08-16 13:17:45.810836,-156.0
2023-08-16 13:17:45.818525,-151.0
2023-08-16 13:17:45.826215,-151.0
2023-08-16 13:17:45.833904,-146.0
2023-08-16 13:17:45.841594,-144.0
2023-08-16 13:17:45.849283,-141.0
2023-08-16 13:17:45.856972,-139.0
2023-08-16 13:17:45.864662,-137.0
2023-08-16 13:17:45.872351,-137.0
2023-08-16 13:17:45.880041,-134.0
2023-08-16 13:17:45.887730,-132.0
2023-08-16 13:17:45.895420,-132.0
2023-08-16 13:17:45.903109,-132.0
2023-08-16 13:17:45.910799,-132.0
2023-08-16 13:17:45.918488,-132.0
2023-08-16 13:17:45.926178,-127.0
2023-08-16 13:17:45.933867,-127.0
2023-08-16 13:17:45.941557,-129.0
2023-08-16 13:17:45.949246,-129.0
2023-08-16 13:17:45.956936,-125.0
2023-08-16 13:17:45.964625,-122.0
2023-08-16 13:17:45.972315,-120.0
2023-08-16 13:17:45.980004,-117.0
2023-08-16 13:17:45.987693,-115.0
2023-08-16 13:17:45.995383,-113.0
2023-08-16 13:17:46.003072,-110.0
2023-08-16 13:17:46.010762,-108.0
2023-08-16 13:17:46.018451,-105.0
2023-08-16 13:17:46.026141,-105.0
2023-08-16 13:17:46.033830,-103.0
2023-08-16 13:17:46.041520,-101.0
2023-08-16 13:17:46.049209,-98.0
2023-08-16 13:17:46.056899,-96.0
2023-08-16 13:17:46.064588,-93.0
2023-08-16 13:17:46.072278,-91.0
2023-08-16 13:17:46.079967,-91.0
2023-08-16 13:17:46.087657,-88.0
2023-08-16 13:17:46.095346,-86.0
2023-08-16 13:17:46.103036,-86.0
2023-08-16 13:17:46.110725,-81.0
2023-08-16 13:17:46.118415,-81.0
2023-08-16 13:17:46.126104,-81.0
2023-08-16 13:17:46.133793,-81.0
2023-08-16 13:17:46.141483,-81.0
2023-08-16 13:17:46.149172,-86.0
2023-08-16 13:17:46.156862,-81.0
2023-08-16 13:17:46.164551,-67.0
2023-08-16 13:17:46.172241,-52.0
2023-08-16 13:17:46.179930,-43.0
2023-08-16 13:17:46.187620,-43.0
2023-08-16 13:17:46.195309,-50.0
2023-08-16 13:17:46.202999,-57.0
2023-08-16 13:17:46.210688,-72.0
2023-08-16 13:17:46.218378,-86.0
2023-08-16 13:17:46.226067,-88.0
2023-08-16 13:17:46.233757,-86.0
2023-08-16 13:17:46.241446,-86.0
2023-08-16 13:17:46.249136,-81.0
2023-08-16 13:17:46.256825,-76.0
2023-08-16 13:17:46.264514,-79.0
2023-08-16 13:17:46.272204,-84.0
2023-08-16 13:17:46.279893,21.0
2023-08-16 13:17:46.287583,406.0
2023-08-16 13:17:46.295272,973.0
2023-08-16 13:17:46.302962,1226.0
2023-08-16 13:17:46.310651,690.0
2023-08-16 13:17:46.318341,-151.0
2023-08-16 13:17:46.326030,-358.0
2023-08-16 13:17:46.333720,-139.0
2023-08-16 13:17:46.341409,-149.0
2023-08-16 13:17:46.349099,-230.0
2023-08-16 13:17:46.356788,-170.0
2023-08-16 13:17:46.364478,-149.0
