time,ECG
2023-08-15 18:18:26.183756,-147.0
2023-08-15 18:18:26.191445,-149.0
2023-08-15 18:18:26.199135,-152.0
2023-08-15 18:18:26.206825,-149.0
2023-08-15 18:18:26.214514,-147.0
2023-08-15 18:18:26.222204,-142.0
2023-08-15 18:18:26.229893,-140.0
2023-08-15 18:18:26.237583,-135.0
2023-08-15 18:18:26.245273,-123.0
2023-08-15 18:18:26.252962,-119.0
2023-08-15 18:18:26.260652,-123.0
2023-08-15 18:18:26.268342,-121.0
2023-08-15 18:18:26.276031,-111.0
2023-08-15 18:18:26.283721,-104.0
2023-08-15 18:18:26.291410,-102.0
2023-08-15 18:18:26.299100,-107.0
2023-08-15 18:18:26.306790,-109.0
2023-08-15 18:18:26.314479,-104.0
2023-08-15 18:18:26.322169,-102.0
2023-08-15 18:18:26.329858,-104.0
2023-08-15 18:18:26.337548,-107.0
2023-08-15 18:18:26.345238,-107.0
2023-08-15 18:18:26.352927,-109.0
2023-08-15 18:18:26.360617,-114.0
2023-08-15 18:18:26.368307,-119.0
2023-08-15 18:18:26.375996,-116.0
2023-08-15 18:18:26.383686,-114.0
2023-08-15 18:18:26.391375,-119.0
2023-08-15 18:18:26.399065,-130.0
2023-08-15 18:18:26.406755,-126.0
2023-08-15 18:18:26.414444,-119.0
2023-08-15 18:18:26.422134,-121.0
2023-08-15 18:18:26.429823,-119.0
2023-08-15 18:18:26.437513,-116.0
2023-08-15 18:18:26.445203,-119.0
2023-08-15 18:18:26.452892,-111.0
2023-08-15 18:18:26.460582,-92.0
2023-08-15 18:18:26.468272,-83.0
2023-08-15 18:18:26.475961,-76.0
2023-08-15 18:18:26.483651,-61.0
2023-08-15 18:18:26.491340,-59.0
2023-08-15 18:18:26.499030,-71.0
2023-08-15 18:18:26.506720,-95.0
2023-08-15 18:18:26.514409,-107.0
2023-08-15 18:18:26.522099,-102.0
2023-08-15 18:18:26.529788,-97.0
2023-08-15 18:18:26.537478,-99.0
2023-08-15 18:18:26.545168,-90.0
2023-08-15 18:18:26.552857,-23.0
2023-08-15 18:18:26.560547,171.0
2023-08-15 18:18:26.568237,457.0
2023-08-15 18:18:26.575926,521.0
2023-08-15 18:18:26.583616,121.0
2023-08-15 18:18:26.591305,-440.0
2023-08-15 18:18:26.598995,-595.0
2023-08-15 18:18:26.606685,-307.0
2023-08-15 18:18:26.614374,-90.0
2023-08-15 18:18:26.622064,-97.0
2023-08-15 18:18:26.629753,-99.0
2023-08-15 18:18:26.637443,-64.0
2023-08-15 18:18:26.645133,-66.0
2023-08-15 18:18:26.652822,-69.0
2023-08-15 18:18:26.660512,-52.0
2023-08-15 18:18:26.668202,-45.0
2023-08-15 18:18:26.675891,-35.0
2023-08-15 18:18:26.683581,-16.0
2023-08-15 18:18:26.691270,-2.0
2023-08-15 18:18:26.698960,9.0
2023-08-15 18:18:26.706650,21.0
2023-08-15 18:18:26.714339,33.0
2023-08-15 18:18:26.722029,52.0
2023-08-15 18:18:26.729718,76.0
2023-08-15 18:18:26.737408,92.0
2023-08-15 18:18:26.745098,109.0
2023-08-15 18:18:26.752787,128.0
2023-08-15 18:18:26.760477,149.0
2023-08-15 18:18:26.768167,161.0
2023-08-15 18:18:26.775856,171.0
2023-08-15 18:18:26.783546,173.0
2023-08-15 18:18:26.791235,169.0
2023-08-15 18:18:26.798925,154.0
2023-08-15 18:18:26.806615,126.0
2023-08-15 18:18:26.814304,80.0
2023-08-15 18:18:26.821994,30.0
2023-08-15 18:18:26.829683,-19.0
2023-08-15 18:18:26.837373,-64.0
2023-08-15 18:18:26.845063,-97.0
2023-08-15 18:18:26.852752,-123.0
2023-08-15 18:18:26.860442,-140.0
2023-08-15 18:18:26.868132,-147.0
2023-08-15 18:18:26.875821,-147.0
2023-08-15 18:18:26.883511,-147.0
2023-08-15 18:18:26.891200,-145.0
2023-08-15 18:18:26.898890,-145.0
2023-08-15 18:18:26.906580,-140.0
2023-08-15 18:18:26.914269,-133.0
2023-08-15 18:18:26.921959,-128.0
2023-08-15 18:18:26.929648,-130.0
2023-08-15 18:18:26.937338,-130.0
2023-08-15 18:18:26.945028,-126.0
2023-08-15 18:18:26.952717,-121.0
2023-08-15 18:18:26.960407,-119.0
2023-08-15 18:18:26.968096,-116.0
2023-08-15 18:18:26.975786,-114.0
2023-08-15 18:18:26.983476,-111.0
2023-08-15 18:18:26.991165,-109.0
2023-08-15 18:18:26.998855,-109.0
2023-08-15 18:18:27.006545,-109.0
2023-08-15 18:18:27.014234,-107.0
2023-08-15 18:18:27.021924,-109.0
2023-08-15 18:18:27.029613,-114.0
2023-08-15 18:18:27.037303,-116.0
2023-08-15 18:18:27.044993,-119.0
2023-08-15 18:18:27.052682,-119.0
2023-08-15 18:18:27.060372,-116.0
2023-08-15 18:18:27.068061,-116.0
2023-08-15 18:18:27.075751,-114.0
2023-08-15 18:18:27.083441,-111.0
2023-08-15 18:18:27.091130,-111.0
2023-08-15 18:18:27.098820,-119.0
2023-08-15 18:18:27.106510,-121.0
2023-08-15 18:18:27.114199,-119.0
2023-08-15 18:18:27.121889,-111.0
2023-08-15 18:18:27.129578,-109.0
2023-08-15 18:18:27.137268,-107.0
2023-08-15 18:18:27.144958,-107.0
2023-08-15 18:18:27.152647,-102.0
2023-08-15 18:18:27.160337,-97.0
2023-08-15 18:18:27.168026,-95.0
2023-08-15 18:18:27.175716,-90.0
2023-08-15 18:18:27.183406,-80.0
2023-08-15 18:18:27.191095,-69.0
2023-08-15 18:18:27.198785,-61.0
2023-08-15 18:18:27.206475,-54.0
2023-08-15 18:18:27.214164,-45.0
2023-08-15 18:18:27.221854,-40.0
2023-08-15 18:18:27.229543,-54.0
2023-08-15 18:18:27.237233,-80.0
2023-08-15 18:18:27.244923,-95.0
2023-08-15 18:18:27.252612,-92.0
2023-08-15 18:18:27.260302,-85.0
2023-08-15 18:18:27.267991,-88.0
2023-08-15 18:18:27.275681,-80.0
2023-08-15 18:18:27.283371,-16.0
2023-08-15 18:18:27.291060,180.0
2023-08-15 18:18:27.298750,461.0
2023-08-15 18:18:27.306440,495.0
2023-08-15 18:18:27.314129,66.0
2023-08-15 18:18:27.321819,-471.0
2023-08-15 18:18:27.329508,-580.0
2023-08-15 18:18:27.337198,-271.0
2023-08-15 18:18:27.344888,-52.0
2023-08-15 18:18:27.352577,-73.0
2023-08-15 18:18:27.360267,-80.0
2023-08-15 18:18:27.367956,-45.0
2023-08-15 18:18:27.375646,-49.0
2023-08-15 18:18:27.383336,-52.0
2023-08-15 18:18:27.391025,-35.0
2023-08-15 18:18:27.398715,-26.0
2023-08-15 18:18:27.406405,-21.0
2023-08-15 18:18:27.414094,-7.0
2023-08-15 18:18:27.421784,4.0
2023-08-15 18:18:27.429473,16.0
2023-08-15 18:18:27.437163,30.0
2023-08-15 18:18:27.444853,45.0
2023-08-15 18:18:27.452542,59.0
2023-08-15 18:18:27.460232,73.0
2023-08-15 18:18:27.467921,88.0
2023-08-15 18:18:27.475611,102.0
2023-08-15 18:18:27.483301,121.0
2023-08-15 18:18:27.490990,145.0
2023-08-15 18:18:27.498680,159.0
2023-08-15 18:18:27.506370,169.0
2023-08-15 18:18:27.514059,166.0
2023-08-15 18:18:27.521749,154.0
2023-08-15 18:18:27.529438,138.0
2023-08-15 18:18:27.537128,111.0
2023-08-15 18:18:27.544818,69.0
2023-08-15 18:18:27.552507,11.0
2023-08-15 18:18:27.560197,-45.0
2023-08-15 18:18:27.567886,-90.0
2023-08-15 18:18:27.575576,-123.0
2023-08-15 18:18:27.583266,-147.0
2023-08-15 18:18:27.590955,-164.0
2023-08-15 18:18:27.598645,-173.0
2023-08-15 18:18:27.606335,-180.0
2023-08-15 18:18:27.614024,-183.0
2023-08-15 18:18:27.621714,-176.0
2023-08-15 18:18:27.629403,-171.0
2023-08-15 18:18:27.637093,-169.0
2023-08-15 18:18:27.644783,-161.0
2023-08-15 18:18:27.652472,-157.0
2023-08-15 18:18:27.660162,-149.0
2023-08-15 18:18:27.667851,-142.0
2023-08-15 18:18:27.675541,-135.0
2023-08-15 18:18:27.683231,-128.0
2023-08-15 18:18:27.690920,-123.0
2023-08-15 18:18:27.698610,-119.0
2023-08-15 18:18:27.706300,-111.0
2023-08-15 18:18:27.713989,-107.0
2023-08-15 18:18:27.721679,-102.0
2023-08-15 18:18:27.729368,-102.0
2023-08-15 18:18:27.737058,-102.0
2023-08-15 18:18:27.744748,-102.0
2023-08-15 18:18:27.752437,-102.0
2023-08-15 18:18:27.760127,-99.0
2023-08-15 18:18:27.767816,-97.0
2023-08-15 18:18:27.775506,-102.0
2023-08-15 18:18:27.783196,-107.0
2023-08-15 18:18:27.790885,-107.0
2023-08-15 18:18:27.798575,-102.0
2023-08-15 18:18:27.806265,-99.0
2023-08-15 18:18:27.813954,-97.0
2023-08-15 18:18:27.821644,-97.0
2023-08-15 18:18:27.829333,-97.0
2023-08-15 18:18:27.837023,-95.0
2023-08-15 18:18:27.844713,-90.0
2023-08-15 18:18:27.852402,-85.0
2023-08-15 18:18:27.860092,-85.0
2023-08-15 18:18:27.867781,-83.0
2023-08-15 18:18:27.875471,-80.0
2023-08-15 18:18:27.883161,-80.0
2023-08-15 18:18:27.890850,-78.0
2023-08-15 18:18:27.898540,-73.0
2023-08-15 18:18:27.906230,-71.0
2023-08-15 18:18:27.913919,-71.0
2023-08-15 18:18:27.921609,-73.0
2023-08-15 18:18:27.929298,-71.0
2023-08-15 18:18:27.936988,-66.0
2023-08-15 18:18:27.944678,-61.0
2023-08-15 18:18:27.952367,-59.0
2023-08-15 18:18:27.960057,-59.0
2023-08-15 18:18:27.967746,-57.0
2023-08-15 18:18:27.975436,-47.0
2023-08-15 18:18:27.983126,-35.0
2023-08-15 18:18:27.990815,-23.0
2023-08-15 18:18:27.998505,-19.0
2023-08-15 18:18:28.006195,-21.0
2023-08-15 18:18:28.013884,-28.0
2023-08-15 18:18:28.021574,-38.0
2023-08-15 18:18:28.029263,-52.0
2023-08-15 18:18:28.036953,-73.0
2023-08-15 18:18:28.044643,-85.0
2023-08-15 18:18:28.052332,-83.0
2023-08-15 18:18:28.060022,-83.0
2023-08-15 18:18:28.067711,-83.0
2023-08-15 18:18:28.075401,-61.0
2023-08-15 18:18:28.083091,38.0
2023-08-15 18:18:28.090780,285.0
2023-08-15 18:18:28.098470,526.0
2023-08-15 18:18:28.106160,402.0
2023-08-15 18:18:28.113849,-116.0
2023-08-15 18:18:28.121539,-557.0
2023-08-15 18:18:28.129228,-497.0
2023-08-15 18:18:28.136918,-154.0
2023-08-15 18:18:28.144608,-35.0
2023-08-15 18:18:28.152297,-99.0
2023-08-15 18:18:28.159987,-85.0
2023-08-15 18:18:28.167676,-49.0
2023-08-15 18:18:28.175366,-64.0
2023-08-15 18:18:28.183056,-61.0
2023-08-15 18:18:28.190745,-45.0
2023-08-15 18:18:28.198435,-40.0
2023-08-15 18:18:28.206125,-30.0
2023-08-15 18:18:28.213814,-14.0
2023-08-15 18:18:28.221504,-2.0
2023-08-15 18:18:28.229193,7.0
2023-08-15 18:18:28.236883,21.0
2023-08-15 18:18:28.244573,35.0
2023-08-15 18:18:28.252262,52.0
2023-08-15 18:18:28.259952,71.0
2023-08-15 18:18:28.267641,90.0
2023-08-15 18:18:28.275331,109.0
2023-08-15 18:18:28.283021,130.0
2023-08-15 18:18:28.290710,149.0
2023-08-15 18:18:28.298400,164.0
2023-08-15 18:18:28.306090,176.0
2023-08-15 18:18:28.313779,180.0
2023-08-15 18:18:28.321469,180.0
2023-08-15 18:18:28.329158,164.0
2023-08-15 18:18:28.336848,135.0
2023-08-15 18:18:28.344538,92.0
2023-08-15 18:18:28.352227,40.0
2023-08-15 18:18:28.359917,-11.0
2023-08-15 18:18:28.367606,-57.0
2023-08-15 18:18:28.375296,-92.0
2023-08-15 18:18:28.382986,-119.0
2023-08-15 18:18:28.390675,-133.0
2023-08-15 18:18:28.398365,-138.0
2023-08-15 18:18:28.406055,-140.0
2023-08-15 18:18:28.413744,-140.0
2023-08-15 18:18:28.421434,-140.0
2023-08-15 18:18:28.429123,-138.0
2023-08-15 18:18:28.436813,-133.0
2023-08-15 18:18:28.444503,-126.0
2023-08-15 18:18:28.452192,-119.0
2023-08-15 18:18:28.459882,-116.0
2023-08-15 18:18:28.467571,-111.0
2023-08-15 18:18:28.475261,-109.0
2023-08-15 18:18:28.482951,-102.0
2023-08-15 18:18:28.490640,-95.0
2023-08-15 18:18:28.498330,-88.0
2023-08-15 18:18:28.506020,-85.0
2023-08-15 18:18:28.513709,-85.0
2023-08-15 18:18:28.521399,-85.0
2023-08-15 18:18:28.529088,-80.0
2023-08-15 18:18:28.536778,-80.0
2023-08-15 18:18:28.544468,-80.0
2023-08-15 18:18:28.552157,-78.0
2023-08-15 18:18:28.559847,-80.0
2023-08-15 18:18:28.567536,-83.0
2023-08-15 18:18:28.575226,-83.0
2023-08-15 18:18:28.582916,-80.0
2023-08-15 18:18:28.590605,-88.0
2023-08-15 18:18:28.598295,-97.0
2023-08-15 18:18:28.605985,-97.0
2023-08-15 18:18:28.613674,-99.0
2023-08-15 18:18:28.621364,-104.0
2023-08-15 18:18:28.629053,-102.0
2023-08-15 18:18:28.636743,-102.0
2023-08-15 18:18:28.644433,-102.0
2023-08-15 18:18:28.652122,-99.0
2023-08-15 18:18:28.659812,-99.0
2023-08-15 18:18:28.667501,-99.0
2023-08-15 18:18:28.675191,-97.0
2023-08-15 18:18:28.682881,-95.0
2023-08-15 18:18:28.690570,-92.0
2023-08-15 18:18:28.698260,-90.0
2023-08-15 18:18:28.705950,-88.0
2023-08-15 18:18:28.713639,-85.0
2023-08-15 18:18:28.721329,-85.0
2023-08-15 18:18:28.729018,-85.0
2023-08-15 18:18:28.736708,-85.0
2023-08-15 18:18:28.744398,-83.0
2023-08-15 18:18:28.752087,-83.0
2023-08-15 18:18:28.759777,-88.0
2023-08-15 18:18:28.767466,-95.0
2023-08-15 18:18:28.775156,-92.0
2023-08-15 18:18:28.782846,-88.0
2023-08-15 18:18:28.790535,-85.0
2023-08-15 18:18:28.798225,-83.0
2023-08-15 18:18:28.805915,-76.0
2023-08-15 18:18:28.813604,-69.0
2023-08-15 18:18:28.821294,-61.0
2023-08-15 18:18:28.828983,-47.0
2023-08-15 18:18:28.836673,-40.0
2023-08-15 18:18:28.844363,-47.0
2023-08-15 18:18:28.852052,-47.0
2023-08-15 18:18:28.859742,-49.0
2023-08-15 18:18:28.867431,-66.0
2023-08-15 18:18:28.875121,-90.0
2023-08-15 18:18:28.882811,-97.0
2023-08-15 18:18:28.890500,-92.0
2023-08-15 18:18:28.898190,-88.0
2023-08-15 18:18:28.905880,-88.0
2023-08-15 18:18:28.913569,-73.0
2023-08-15 18:18:28.921259,14.0
2023-08-15 18:18:28.928948,240.0
2023-08-15 18:18:28.936638,497.0
2023-08-15 18:18:28.944328,445.0
2023-08-15 18:18:28.952017,-26.0
2023-08-15 18:18:28.959707,-504.0
2023-08-15 18:18:28.967396,-511.0
2023-08-15 18:18:28.975086,-183.0
2023-08-15 18:18:28.982776,-33.0
2023-08-15 18:18:28.990465,-80.0
2023-08-15 18:18:28.998155,-69.0
2023-08-15 18:18:29.005845,-35.0
2023-08-15 18:18:29.013534,-47.0
2023-08-15 18:18:29.021224,-47.0
2023-08-15 18:18:29.028913,-28.0
2023-08-15 18:18:29.036603,-21.0
2023-08-15 18:18:29.044293,-14.0
2023-08-15 18:18:29.051982,-2.0
2023-08-15 18:18:29.059672,7.0
2023-08-15 18:18:29.067361,23.0
2023-08-15 18:18:29.075051,40.0
2023-08-15 18:18:29.082741,54.0
2023-08-15 18:18:29.090430,69.0
2023-08-15 18:18:29.098120,85.0
2023-08-15 18:18:29.105810,102.0
2023-08-15 18:18:29.113499,126.0
2023-08-15 18:18:29.121189,147.0
2023-08-15 18:18:29.128878,166.0
2023-08-15 18:18:29.136568,178.0
2023-08-15 18:18:29.144258,180.0
2023-08-15 18:18:29.151947,188.0
2023-08-15 18:18:29.159637,195.0
2023-08-15 18:18:29.167326,183.0
2023-08-15 18:18:29.175016,159.0
2023-08-15 18:18:29.182706,119.0
2023-08-15 18:18:29.190395,61.0
2023-08-15 18:18:29.198085,7.0
2023-08-15 18:18:29.205775,-42.0
2023-08-15 18:18:29.213464,-85.0
2023-08-15 18:18:29.221154,-116.0
2023-08-15 18:18:29.228843,-128.0
2023-08-15 18:18:29.236533,-135.0
2023-08-15 18:18:29.244223,-140.0
2023-08-15 18:18:29.251912,-147.0
2023-08-15 18:18:29.259602,-147.0
2023-08-15 18:18:29.267291,-140.0
2023-08-15 18:18:29.274981,-140.0
2023-08-15 18:18:29.282671,-138.0
2023-08-15 18:18:29.290360,-130.0
2023-08-15 18:18:29.298050,-128.0
2023-08-15 18:18:29.305740,-128.0
2023-08-15 18:18:29.313429,-119.0
2023-08-15 18:18:29.321119,-111.0
2023-08-15 18:18:29.328808,-109.0
2023-08-15 18:18:29.336498,-104.0
2023-08-15 18:18:29.344188,-97.0
2023-08-15 18:18:29.351877,-97.0
2023-08-15 18:18:29.359567,-102.0
2023-08-15 18:18:29.367256,-97.0
2023-08-15 18:18:29.374946,-97.0
2023-08-15 18:18:29.382636,-97.0
2023-08-15 18:18:29.390325,-95.0
2023-08-15 18:18:29.398015,-97.0
2023-08-15 18:18:29.405705,-107.0
2023-08-15 18:18:29.413394,-109.0
2023-08-15 18:18:29.421084,-109.0
2023-08-15 18:18:29.428773,-107.0
2023-08-15 18:18:29.436463,-107.0
2023-08-15 18:18:29.444153,-107.0
2023-08-15 18:18:29.451842,-104.0
2023-08-15 18:18:29.459532,-104.0
2023-08-15 18:18:29.467221,-104.0
2023-08-15 18:18:29.474911,-104.0
2023-08-15 18:18:29.482601,-102.0
2023-08-15 18:18:29.490290,-104.0
2023-08-15 18:18:29.497980,-104.0
2023-08-15 18:18:29.505670,-102.0
2023-08-15 18:18:29.513359,-97.0
2023-08-15 18:18:29.521049,-95.0
2023-08-15 18:18:29.528738,-92.0
2023-08-15 18:18:29.536428,-90.0
2023-08-15 18:18:29.544118,-90.0
2023-08-15 18:18:29.551807,-90.0
2023-08-15 18:18:29.559497,-88.0
2023-08-15 18:18:29.567186,-83.0
2023-08-15 18:18:29.574876,-80.0
2023-08-15 18:18:29.582566,-80.0
2023-08-15 18:18:29.590255,-80.0
2023-08-15 18:18:29.597945,-80.0
2023-08-15 18:18:29.605635,-78.0
2023-08-15 18:18:29.613324,-73.0
2023-08-15 18:18:29.621014,-71.0
2023-08-15 18:18:29.628703,-64.0
2023-08-15 18:18:29.636393,-47.0
2023-08-15 18:18:29.644083,-28.0
2023-08-15 18:18:29.651772,-30.0
2023-08-15 18:18:29.659462,-28.0
2023-08-15 18:18:29.667151,-16.0
2023-08-15 18:18:29.674841,-28.0
2023-08-15 18:18:29.682531,-61.0
2023-08-15 18:18:29.690220,-80.0
2023-08-15 18:18:29.697910,-78.0
2023-08-15 18:18:29.705600,-71.0
2023-08-15 18:18:29.713289,-73.0
2023-08-15 18:18:29.720979,-78.0
2023-08-15 18:18:29.728668,-35.0
2023-08-15 18:18:29.736358,138.0
2023-08-15 18:18:29.744048,423.0
2023-08-15 18:18:29.751737,547.0
2023-08-15 18:18:29.759427,230.0
2023-08-15 18:18:29.767116,-330.0
2023-08-15 18:18:29.774806,-583.0
2023-08-15 18:18:29.782496,-359.0
2023-08-15 18:18:29.790185,-102.0
2023-08-15 18:18:29.797875,-71.0
2023-08-15 18:18:29.805565,-85.0
2023-08-15 18:18:29.813254,-54.0
2023-08-15 18:18:29.820944,-49.0
2023-08-15 18:18:29.828633,-52.0
2023-08-15 18:18:29.836323,-33.0
2023-08-15 18:18:29.844013,-23.0
2023-08-15 18:18:29.851702,-19.0
2023-08-15 18:18:29.859392,-9.0
2023-08-15 18:18:29.867081,-2.0
2023-08-15 18:18:29.874771,7.0
2023-08-15 18:18:29.882461,21.0
2023-08-15 18:18:29.890150,38.0
2023-08-15 18:18:29.897840,49.0
2023-08-15 18:18:29.905530,66.0
2023-08-15 18:18:29.913219,85.0
2023-08-15 18:18:29.920909,109.0
2023-08-15 18:18:29.928598,130.0
2023-08-15 18:18:29.936288,152.0
2023-08-15 18:18:29.943978,169.0
2023-08-15 18:18:29.951667,183.0
2023-08-15 18:18:29.959357,195.0
2023-08-15 18:18:29.967046,197.0
2023-08-15 18:18:29.974736,188.0
2023-08-15 18:18:29.982426,164.0
2023-08-15 18:18:29.990115,128.0
2023-08-15 18:18:29.997805,78.0
2023-08-15 18:18:30.005495,21.0
2023-08-15 18:18:30.013184,-33.0
2023-08-15 18:18:30.020874,-76.0
2023-08-15 18:18:30.028563,-109.0
2023-08-15 18:18:30.036253,-133.0
2023-08-15 18:18:30.043943,-147.0
2023-08-15 18:18:30.051632,-152.0
2023-08-15 18:18:30.059322,-157.0
2023-08-15 18:18:30.067011,-159.0
2023-08-15 18:18:30.074701,-157.0
2023-08-15 18:18:30.082391,-157.0
2023-08-15 18:18:30.090080,-157.0
2023-08-15 18:18:30.097770,-152.0
2023-08-15 18:18:30.105460,-142.0
2023-08-15 18:18:30.113149,-138.0
2023-08-15 18:18:30.120839,-130.0
2023-08-15 18:18:30.128528,-126.0
2023-08-15 18:18:30.136218,-123.0
2023-08-15 18:18:30.143908,-116.0
2023-08-15 18:18:30.151597,-111.0
2023-08-15 18:18:30.159287,-107.0
2023-08-15 18:18:30.166976,-102.0
2023-08-15 18:18:30.174666,-102.0
2023-08-15 18:18:30.182356,-102.0
2023-08-15 18:18:30.190045,-97.0
2023-08-15 18:18:30.197735,-97.0
2023-08-15 18:18:30.205425,-97.0
2023-08-15 18:18:30.213114,-99.0
2023-08-15 18:18:30.220804,-102.0
2023-08-15 18:18:30.228493,-102.0
2023-08-15 18:18:30.236183,-102.0
2023-08-15 18:18:30.243873,-104.0
2023-08-15 18:18:30.251562,-102.0
2023-08-15 18:18:30.259252,-102.0
2023-08-15 18:18:30.266941,-107.0
2023-08-15 18:18:30.274631,-104.0
2023-08-15 18:18:30.282321,-97.0
2023-08-15 18:18:30.290010,-97.0
2023-08-15 18:18:30.297700,-95.0
2023-08-15 18:18:30.305390,-99.0
2023-08-15 18:18:30.313079,-107.0
2023-08-15 18:18:30.320769,-102.0
2023-08-15 18:18:30.328458,-97.0
2023-08-15 18:18:30.336148,-97.0
2023-08-15 18:18:30.343838,-95.0
2023-08-15 18:18:30.351527,-92.0
2023-08-15 18:18:30.359217,-95.0
2023-08-15 18:18:30.366906,-99.0
2023-08-15 18:18:30.374596,-97.0
2023-08-15 18:18:30.382286,-92.0
2023-08-15 18:18:30.389975,-90.0
2023-08-15 18:18:30.397665,-90.0
2023-08-15 18:18:30.405355,-85.0
2023-08-15 18:18:30.413044,-78.0
2023-08-15 18:18:30.420734,-76.0
2023-08-15 18:18:30.428423,-69.0
2023-08-15 18:18:30.436113,-57.0
2023-08-15 18:18:30.443803,-38.0
2023-08-15 18:18:30.451492,-26.0
2023-08-15 18:18:30.459182,-33.0
2023-08-15 18:18:30.466871,-30.0
2023-08-15 18:18:30.474561,-23.0
2023-08-15 18:18:30.482251,-42.0
2023-08-15 18:18:30.489940,-71.0
2023-08-15 18:18:30.497630,-80.0
2023-08-15 18:18:30.505320,-80.0
2023-08-15 18:18:30.513009,-80.0
2023-08-15 18:18:30.520699,-78.0
2023-08-15 18:18:30.528388,-78.0
2023-08-15 18:18:30.536078,-45.0
2023-08-15 18:18:30.543768,102.0
2023-08-15 18:18:30.551457,385.0
2023-08-15 18:18:30.559147,540.0
2023-08-15 18:18:30.566836,268.0
2023-08-15 18:18:30.574526,-288.0
2023-08-15 18:18:30.582216,-592.0
2023-08-15 18:18:30.589905,-383.0
2023-08-15 18:18:30.597595,-73.0
2023-08-15 18:18:30.605285,-40.0
2023-08-15 18:18:30.612974,-88.0
2023-08-15 18:18:30.620664,-49.0
2023-08-15 18:18:30.628353,-33.0
2023-08-15 18:18:30.636043,-49.0
2023-08-15 18:18:30.643733,-40.0
2023-08-15 18:18:30.651422,-26.0
2023-08-15 18:18:30.659112,-21.0
2023-08-15 18:18:30.666801,-11.0
2023-08-15 18:18:30.674491,0.0
2023-08-15 18:18:30.682181,11.0
2023-08-15 18:18:30.689870,23.0
2023-08-15 18:18:30.697560,38.0
2023-08-15 18:18:30.705250,49.0
2023-08-15 18:18:30.712939,64.0
2023-08-15 18:18:30.720629,83.0
2023-08-15 18:18:30.728318,104.0
2023-08-15 18:18:30.736008,121.0
2023-08-15 18:18:30.743698,142.0
2023-08-15 18:18:30.751387,161.0
2023-08-15 18:18:30.759077,178.0
2023-08-15 18:18:30.766766,188.0
2023-08-15 18:18:30.774456,192.0
2023-08-15 18:18:30.782146,188.0
2023-08-15 18:18:30.789835,171.0
2023-08-15 18:18:30.797525,138.0
2023-08-15 18:18:30.805215,83.0
2023-08-15 18:18:30.812904,21.0
2023-08-15 18:18:30.820594,-35.0
2023-08-15 18:18:30.828283,-83.0
2023-08-15 18:18:30.835973,-123.0
2023-08-15 18:18:30.843663,-154.0
2023-08-15 18:18:30.851352,-176.0
2023-08-15 18:18:30.859042,-183.0
2023-08-15 18:18:30.866731,-185.0
2023-08-15 18:18:30.874421,-190.0
2023-08-15 18:18:30.882111,-190.0
2023-08-15 18:18:30.889800,-185.0
2023-08-15 18:18:30.897490,-180.0
2023-08-15 18:18:30.905180,-178.0
2023-08-15 18:18:30.912869,-171.0
2023-08-15 18:18:30.920559,-164.0
2023-08-15 18:18:30.928248,-159.0
2023-08-15 18:18:30.935938,-154.0
2023-08-15 18:18:30.943628,-149.0
2023-08-15 18:18:30.951317,-142.0
2023-08-15 18:18:30.959007,-138.0
2023-08-15 18:18:30.966696,-135.0
2023-08-15 18:18:30.974386,-133.0
2023-08-15 18:18:30.982076,-130.0
2023-08-15 18:18:30.989765,-126.0
2023-08-15 18:18:30.997455,-121.0
2023-08-15 18:18:31.005145,-121.0
2023-08-15 18:18:31.012834,-121.0
2023-08-15 18:18:31.020524,-119.0
2023-08-15 18:18:31.028213,-119.0
2023-08-15 18:18:31.035903,-121.0
2023-08-15 18:18:31.043593,-119.0
2023-08-15 18:18:31.051282,-119.0
2023-08-15 18:18:31.058972,-116.0
2023-08-15 18:18:31.066661,-116.0
2023-08-15 18:18:31.074351,-116.0
2023-08-15 18:18:31.082041,-114.0
2023-08-15 18:18:31.089730,-109.0
2023-08-15 18:18:31.097420,-107.0
2023-08-15 18:18:31.105110,-107.0
2023-08-15 18:18:31.112799,-104.0
2023-08-15 18:18:31.120489,-102.0
2023-08-15 18:18:31.128178,-102.0
2023-08-15 18:18:31.135868,-99.0
2023-08-15 18:18:31.143558,-99.0
2023-08-15 18:18:31.151247,-97.0
2023-08-15 18:18:31.158937,-92.0
2023-08-15 18:18:31.166626,-92.0
2023-08-15 18:18:31.174316,-92.0
2023-08-15 18:18:31.182006,-88.0
2023-08-15 18:18:31.189695,-85.0
2023-08-15 18:18:31.197385,-85.0
2023-08-15 18:18:31.205075,-83.0
2023-08-15 18:18:31.212764,-80.0
2023-08-15 18:18:31.220454,-78.0
2023-08-15 18:18:31.228143,-78.0
2023-08-15 18:18:31.235833,-73.0
2023-08-15 18:18:31.243523,-57.0
2023-08-15 18:18:31.251212,-38.0
2023-08-15 18:18:31.258902,-33.0
2023-08-15 18:18:31.266591,-38.0
2023-08-15 18:18:31.274281,-30.0
2023-08-15 18:18:31.281971,-35.0
2023-08-15 18:18:31.289660,-61.0
2023-08-15 18:18:31.297350,-83.0
2023-08-15 18:18:31.305040,-88.0
2023-08-15 18:18:31.312729,-90.0
2023-08-15 18:18:31.320419,-88.0
2023-08-15 18:18:31.328108,-85.0
2023-08-15 18:18:31.335798,-78.0
2023-08-15 18:18:31.343488,-14.0
2023-08-15 18:18:31.351177,190.0
2023-08-15 18:18:31.358867,466.0
2023-08-15 18:18:31.366556,483.0
2023-08-15 18:18:31.374246,57.0
2023-08-15 18:18:31.381936,-480.0
2023-08-15 18:18:31.389625,-597.0
2023-08-15 18:18:31.397315,-273.0
2023-08-15 18:18:31.405005,-49.0
2023-08-15 18:18:31.412694,-92.0
2023-08-15 18:18:31.420384,-104.0
2023-08-15 18:18:31.428073,-59.0
2023-08-15 18:18:31.435763,-64.0
2023-08-15 18:18:31.443453,-71.0
2023-08-15 18:18:31.451142,-49.0
2023-08-15 18:18:31.458832,-38.0
2023-08-15 18:18:31.466521,-40.0
2023-08-15 18:18:31.474211,-30.0
2023-08-15 18:18:31.481901,-16.0
2023-08-15 18:18:31.489590,-2.0
2023-08-15 18:18:31.497280,9.0
2023-08-15 18:18:31.504970,23.0
2023-08-15 18:18:31.512659,38.0
2023-08-15 18:18:31.520349,54.0
2023-08-15 18:18:31.528038,73.0
2023-08-15 18:18:31.535728,95.0
2023-08-15 18:18:31.543418,119.0
2023-08-15 18:18:31.551107,140.0
2023-08-15 18:18:31.558797,157.0
2023-08-15 18:18:31.566486,169.0
2023-08-15 18:18:31.574176,176.0
2023-08-15 18:18:31.581866,178.0
2023-08-15 18:18:31.589555,169.0
2023-08-15 18:18:31.597245,147.0
2023-08-15 18:18:31.604935,109.0
2023-08-15 18:18:31.612624,57.0
2023-08-15 18:18:31.620314,0.0
2023-08-15 18:18:31.628003,-54.0
2023-08-15 18:18:31.635693,-99.0
2023-08-15 18:18:31.643383,-130.0
2023-08-15 18:18:31.651072,-154.0
2023-08-15 18:18:31.658762,-169.0
2023-08-15 18:18:31.666451,-173.0
2023-08-15 18:18:31.674141,-169.0
2023-08-15 18:18:31.681831,-169.0
2023-08-15 18:18:31.689520,-166.0
2023-08-15 18:18:31.697210,-164.0
2023-08-15 18:18:31.704900,-161.0
2023-08-15 18:18:31.712589,-159.0
2023-08-15 18:18:31.720279,-152.0
2023-08-15 18:18:31.727968,-145.0
2023-08-15 18:18:31.735658,-138.0
2023-08-15 18:18:31.743348,-135.0
2023-08-15 18:18:31.751037,-133.0
2023-08-15 18:18:31.758727,-128.0
2023-08-15 18:18:31.766416,-121.0
2023-08-15 18:18:31.774106,-114.0
2023-08-15 18:18:31.781796,-111.0
2023-08-15 18:18:31.789485,-111.0
2023-08-15 18:18:31.797175,-109.0
2023-08-15 18:18:31.804865,-104.0
2023-08-15 18:18:31.812554,-104.0
2023-08-15 18:18:31.820244,-104.0
2023-08-15 18:18:31.827933,-104.0
2023-08-15 18:18:31.835623,-104.0
2023-08-15 18:18:31.843313,-104.0
2023-08-15 18:18:31.851002,-104.0
2023-08-15 18:18:31.858692,-102.0
2023-08-15 18:18:31.866381,-102.0
2023-08-15 18:18:31.874071,-104.0
2023-08-15 18:18:31.881761,-111.0
2023-08-15 18:18:31.889450,-109.0
2023-08-15 18:18:31.897140,-104.0
2023-08-15 18:18:31.904830,-104.0
2023-08-15 18:18:31.912519,-107.0
2023-08-15 18:18:31.920209,-102.0
2023-08-15 18:18:31.927898,-97.0
2023-08-15 18:18:31.935588,-97.0
2023-08-15 18:18:31.943278,-92.0
2023-08-15 18:18:31.950967,-90.0
2023-08-15 18:18:31.958657,-92.0
2023-08-15 18:18:31.966346,-97.0
2023-08-15 18:18:31.974036,-102.0
2023-08-15 18:18:31.981726,-102.0
2023-08-15 18:18:31.989415,-97.0
2023-08-15 18:18:31.997105,-92.0
2023-08-15 18:18:32.004795,-92.0
2023-08-15 18:18:32.012484,-90.0
2023-08-15 18:18:32.020174,-90.0
2023-08-15 18:18:32.027863,-88.0
2023-08-15 18:18:32.035553,-78.0
2023-08-15 18:18:32.043243,-61.0
2023-08-15 18:18:32.050932,-40.0
2023-08-15 18:18:32.058622,-38.0
2023-08-15 18:18:32.066311,-45.0
2023-08-15 18:18:32.074001,-42.0
2023-08-15 18:18:32.081691,-42.0
2023-08-15 18:18:32.089380,-61.0
2023-08-15 18:18:32.097070,-85.0
2023-08-15 18:18:32.104760,-92.0
2023-08-15 18:18:32.112449,-92.0
2023-08-15 18:18:32.120139,-88.0
2023-08-15 18:18:32.127828,-85.0
2023-08-15 18:18:32.135518,-73.0
2023-08-15 18:18:32.143208,2.0
2023-08-15 18:18:32.150897,211.0
2023-08-15 18:18:32.158587,476.0
2023-08-15 18:18:32.166276,473.0
2023-08-15 18:18:32.173966,40.0
2023-08-15 18:18:32.181656,-466.0
2023-08-15 18:18:32.189345,-542.0
2023-08-15 18:18:32.197035,-240.0
2023-08-15 18:18:32.204725,-54.0
2023-08-15 18:18:32.212414,-85.0
2023-08-15 18:18:32.220104,-83.0
2023-08-15 18:18:32.227793,-45.0
2023-08-15 18:18:32.235483,-54.0
2023-08-15 18:18:32.243173,-57.0
2023-08-15 18:18:32.250862,-35.0
2023-08-15 18:18:32.258552,-30.0
2023-08-15 18:18:32.266241,-26.0
2023-08-15 18:18:32.273931,-7.0
2023-08-15 18:18:32.281621,7.0
2023-08-15 18:18:32.289310,11.0
2023-08-15 18:18:32.297000,26.0
2023-08-15 18:18:32.304690,42.0
2023-08-15 18:18:32.312379,54.0
2023-08-15 18:18:32.320069,73.0
2023-08-15 18:18:32.327758,92.0
2023-08-15 18:18:32.335448,111.0
2023-08-15 18:18:32.343138,128.0
2023-08-15 18:18:32.350827,147.0
2023-08-15 18:18:32.358517,169.0
2023-08-15 18:18:32.366206,183.0
2023-08-15 18:18:32.373896,185.0
2023-08-15 18:18:32.381586,180.0
2023-08-15 18:18:32.389275,171.0
2023-08-15 18:18:32.396965,149.0
2023-08-15 18:18:32.404655,119.0
2023-08-15 18:18:32.412344,73.0
2023-08-15 18:18:32.420034,14.0
2023-08-15 18:18:32.427723,-45.0
2023-08-15 18:18:32.435413,-95.0
2023-08-15 18:18:32.443103,-130.0
2023-08-15 18:18:32.450792,-154.0
2023-08-15 18:18:32.458482,-166.0
2023-08-15 18:18:32.466171,-176.0
2023-08-15 18:18:32.473861,-178.0
2023-08-15 18:18:32.481551,-176.0
2023-08-15 18:18:32.489240,-173.0
2023-08-15 18:18:32.496930,-173.0
2023-08-15 18:18:32.504620,-166.0
2023-08-15 18:18:32.512309,-164.0
2023-08-15 18:18:32.519999,-159.0
2023-08-15 18:18:32.527688,-154.0
2023-08-15 18:18:32.535378,-154.0
2023-08-15 18:18:32.543068,-152.0
2023-08-15 18:18:32.550757,-142.0
2023-08-15 18:18:32.558447,-133.0
2023-08-15 18:18:32.566136,-128.0
2023-08-15 18:18:32.573826,-126.0
2023-08-15 18:18:32.581516,-123.0
2023-08-15 18:18:32.589205,-119.0
2023-08-15 18:18:32.596895,-119.0
2023-08-15 18:18:32.604585,-119.0
2023-08-15 18:18:32.612274,-116.0
2023-08-15 18:18:32.619964,-111.0
2023-08-15 18:18:32.627653,-111.0
2023-08-15 18:18:32.635343,-114.0
2023-08-15 18:18:32.643033,-116.0
2023-08-15 18:18:32.650722,-116.0
2023-08-15 18:18:32.658412,-111.0
2023-08-15 18:18:32.666101,-107.0
2023-08-15 18:18:32.673791,-109.0
2023-08-15 18:18:32.681481,-109.0
2023-08-15 18:18:32.689170,-107.0
2023-08-15 18:18:32.696860,-104.0
2023-08-15 18:18:32.704550,-107.0
2023-08-15 18:18:32.712239,-107.0
2023-08-15 18:18:32.719929,-99.0
2023-08-15 18:18:32.727618,-99.0
2023-08-15 18:18:32.735308,-102.0
2023-08-15 18:18:32.742998,-97.0
2023-08-15 18:18:32.750687,-90.0
2023-08-15 18:18:32.758377,-88.0
2023-08-15 18:18:32.766066,-88.0
2023-08-15 18:18:32.773756,-88.0
2023-08-15 18:18:32.781446,-83.0
2023-08-15 18:18:32.789135,-73.0
2023-08-15 18:18:32.796825,-59.0
2023-08-15 18:18:32.804515,-49.0
2023-08-15 18:18:32.812204,-42.0
2023-08-15 18:18:32.819894,-35.0
2023-08-15 18:18:32.827583,-30.0
2023-08-15 18:18:32.835273,-47.0
2023-08-15 18:18:32.842963,-73.0
2023-08-15 18:18:32.850652,-88.0
2023-08-15 18:18:32.858342,-83.0
2023-08-15 18:18:32.866031,-76.0
2023-08-15 18:18:32.873721,-78.0
2023-08-15 18:18:32.881411,-59.0
2023-08-15 18:18:32.889100,40.0
2023-08-15 18:18:32.896790,285.0
2023-08-15 18:18:32.904480,537.0
2023-08-15 18:18:32.912169,445.0
2023-08-15 18:18:32.919859,-71.0
2023-08-15 18:18:32.927548,-535.0
2023-08-15 18:18:32.935238,-507.0
2023-08-15 18:18:32.942928,-197.0
2023-08-15 18:18:32.950617,-64.0
2023-08-15 18:18:32.958307,-90.0
2023-08-15 18:18:32.965996,-69.0
2023-08-15 18:18:32.973686,-42.0
2023-08-15 18:18:32.981376,-52.0
2023-08-15 18:18:32.989065,-47.0
2023-08-15 18:18:32.996755,-28.0
2023-08-15 18:18:33.004445,-23.0
2023-08-15 18:18:33.012134,-16.0
2023-08-15 18:18:33.019824,-2.0
2023-08-15 18:18:33.027513,11.0
2023-08-15 18:18:33.035203,23.0
2023-08-15 18:18:33.042893,35.0
2023-08-15 18:18:33.050582,49.0
2023-08-15 18:18:33.058272,66.0
2023-08-15 18:18:33.065961,88.0
2023-08-15 18:18:33.073651,107.0
2023-08-15 18:18:33.081341,126.0
2023-08-15 18:18:33.089030,145.0
2023-08-15 18:18:33.096720,157.0
2023-08-15 18:18:33.104410,169.0
2023-08-15 18:18:33.112099,183.0
2023-08-15 18:18:33.119789,190.0
2023-08-15 18:18:33.127478,185.0
2023-08-15 18:18:33.135168,173.0
2023-08-15 18:18:33.142858,145.0
2023-08-15 18:18:33.150547,102.0
2023-08-15 18:18:33.158237,49.0
2023-08-15 18:18:33.165926,-7.0
2023-08-15 18:18:33.173616,-57.0
2023-08-15 18:18:33.181306,-99.0
2023-08-15 18:18:33.188995,-130.0
2023-08-15 18:18:33.196685,-149.0
2023-08-15 18:18:33.204375,-159.0
2023-08-15 18:18:33.212064,-161.0
2023-08-15 18:18:33.219754,-164.0
2023-08-15 18:18:33.227443,-164.0
2023-08-15 18:18:33.235133,-166.0
2023-08-15 18:18:33.242823,-164.0
2023-08-15 18:18:33.250512,-157.0
2023-08-15 18:18:33.258202,-152.0
2023-08-15 18:18:33.265891,-152.0
2023-08-15 18:18:33.273581,-147.0
2023-08-15 18:18:33.281271,-140.0
2023-08-15 18:18:33.288960,-135.0
2023-08-15 18:18:33.296650,-128.0
2023-08-15 18:18:33.304340,-126.0
2023-08-15 18:18:33.312029,-123.0
2023-08-15 18:18:33.319719,-123.0
2023-08-15 18:18:33.327408,-121.0
2023-08-15 18:18:33.335098,-114.0
2023-08-15 18:18:33.342788,-109.0
2023-08-15 18:18:33.350477,-109.0
2023-08-15 18:18:33.358167,-111.0
2023-08-15 18:18:33.365856,-111.0
2023-08-15 18:18:33.373546,-111.0
2023-08-15 18:18:33.381236,-114.0
2023-08-15 18:18:33.388925,-114.0
2023-08-15 18:18:33.396615,-119.0
2023-08-15 18:18:33.404305,-123.0
2023-08-15 18:18:33.411994,-123.0
2023-08-15 18:18:33.419684,-123.0
2023-08-15 18:18:33.427373,-121.0
2023-08-15 18:18:33.435063,-121.0
2023-08-15 18:18:33.442753,-121.0
2023-08-15 18:18:33.450442,-119.0
2023-08-15 18:18:33.458132,-116.0
2023-08-15 18:18:33.465821,-114.0
2023-08-15 18:18:33.473511,-107.0
2023-08-15 18:18:33.481201,-104.0
2023-08-15 18:18:33.488890,-104.0
2023-08-15 18:18:33.496580,-97.0
2023-08-15 18:18:33.504270,-88.0
2023-08-15 18:18:33.511959,-76.0
2023-08-15 18:18:33.519649,-66.0
2023-08-15 18:18:33.527338,-59.0
2023-08-15 18:18:33.535028,-52.0
2023-08-15 18:18:33.542718,-54.0
2023-08-15 18:18:33.550407,-76.0
2023-08-15 18:18:33.558097,-99.0
2023-08-15 18:18:33.565786,-107.0
2023-08-15 18:18:33.573476,-99.0
2023-08-15 18:18:33.581166,-97.0
2023-08-15 18:18:33.588855,-99.0
2023-08-15 18:18:33.596545,-83.0
2023-08-15 18:18:33.604235,14.0
2023-08-15 18:18:33.611924,257.0
2023-08-15 18:18:33.619614,507.0
2023-08-15 18:18:33.627303,409.0
2023-08-15 18:18:33.634993,-102.0
2023-08-15 18:18:33.642683,-568.0
2023-08-15 18:18:33.650372,-533.0
2023-08-15 18:18:33.658062,-185.0
2023-08-15 18:18:33.665751,-38.0
2023-08-15 18:18:33.673441,-92.0
2023-08-15 18:18:33.681131,-83.0
2023-08-15 18:18:33.688820,-52.0
2023-08-15 18:18:33.696510,-61.0
2023-08-15 18:18:33.704200,-59.0
2023-08-15 18:18:33.711889,-40.0
2023-08-15 18:18:33.719579,-38.0
2023-08-15 18:18:33.727268,-40.0
2023-08-15 18:18:33.734958,-30.0
2023-08-15 18:18:33.742648,-14.0
2023-08-15 18:18:33.750337,-2.0
2023-08-15 18:18:33.758027,11.0
2023-08-15 18:18:33.765716,28.0
2023-08-15 18:18:33.773406,45.0
2023-08-15 18:18:33.781096,61.0
2023-08-15 18:18:33.788785,83.0
2023-08-15 18:18:33.796475,107.0
2023-08-15 18:18:33.804165,130.0
2023-08-15 18:18:33.811854,149.0
2023-08-15 18:18:33.819544,166.0
2023-08-15 18:18:33.827233,178.0
2023-08-15 18:18:33.834923,185.0
2023-08-15 18:18:33.842613,185.0
2023-08-15 18:18:33.850302,171.0
2023-08-15 18:18:33.857992,142.0
2023-08-15 18:18:33.865681,99.0
2023-08-15 18:18:33.873371,45.0
2023-08-15 18:18:33.881061,-11.0
2023-08-15 18:18:33.888750,-64.0
2023-08-15 18:18:33.896440,-107.0
2023-08-15 18:18:33.904130,-142.0
2023-08-15 18:18:33.911819,-159.0
2023-08-15 18:18:33.919509,-164.0
2023-08-15 18:18:33.927198,-169.0
2023-08-15 18:18:33.934888,-171.0
2023-08-15 18:18:33.942578,-166.0
2023-08-15 18:18:33.950267,-164.0
2023-08-15 18:18:33.957957,-164.0
2023-08-15 18:18:33.965646,-161.0
2023-08-15 18:18:33.973336,-154.0
2023-08-15 18:18:33.981026,-145.0
2023-08-15 18:18:33.988715,-140.0
2023-08-15 18:18:33.996405,-138.0
2023-08-15 18:18:34.004095,-130.0
2023-08-15 18:18:34.011784,-126.0
2023-08-15 18:18:34.019474,-121.0
2023-08-15 18:18:34.027163,-116.0
2023-08-15 18:18:34.034853,-111.0
2023-08-15 18:18:34.042543,-114.0
2023-08-15 18:18:34.050232,-114.0
2023-08-15 18:18:34.057922,-111.0
2023-08-15 18:18:34.065611,-111.0
2023-08-15 18:18:34.073301,-114.0
2023-08-15 18:18:34.080991,-114.0
2023-08-15 18:18:34.088680,-114.0
2023-08-15 18:18:34.096370,-116.0
2023-08-15 18:18:34.104060,-116.0
2023-08-15 18:18:34.111749,-116.0
2023-08-15 18:18:34.119439,-114.0
2023-08-15 18:18:34.127128,-116.0
2023-08-15 18:18:34.134818,-119.0
2023-08-15 18:18:34.142508,-116.0
2023-08-15 18:18:34.150197,-114.0
2023-08-15 18:18:34.157887,-111.0
2023-08-15 18:18:34.165576,-107.0
2023-08-15 18:18:34.173266,-104.0
2023-08-15 18:18:34.180956,-107.0
2023-08-15 18:18:34.188645,-107.0
2023-08-15 18:18:34.196335,-99.0
2023-08-15 18:18:34.204025,-88.0
2023-08-15 18:18:34.211714,-80.0
2023-08-15 18:18:34.219404,-78.0
2023-08-15 18:18:34.227093,-73.0
2023-08-15 18:18:34.234783,-66.0
2023-08-15 18:18:34.242473,-73.0
2023-08-15 18:18:34.250162,-97.0
2023-08-15 18:18:34.257852,-116.0
2023-08-15 18:18:34.265541,-116.0
2023-08-15 18:18:34.273231,-107.0
2023-08-15 18:18:34.280921,-107.0
2023-08-15 18:18:34.288610,-102.0
2023-08-15 18:18:34.296300,-54.0
2023-08-15 18:18:34.303990,102.0
2023-08-15 18:18:34.311679,378.0
2023-08-15 18:18:34.319369,523.0
2023-08-15 18:18:34.327058,223.0
2023-08-15 18:18:34.334748,-340.0
2023-08-15 18:18:34.342438,-611.0
2023-08-15 18:18:34.350127,-395.0
2023-08-15 18:18:34.357817,-116.0
2023-08-15 18:18:34.365506,-73.0
2023-08-15 18:18:34.373196,-95.0
2023-08-15 18:18:34.380886,-61.0
2023-08-15 18:18:34.388575,-52.0
2023-08-15 18:18:34.396265,-61.0
2023-08-15 18:18:34.403955,-57.0
2023-08-15 18:18:34.411644,-45.0
2023-08-15 18:18:34.419334,-38.0
2023-08-15 18:18:34.427023,-28.0
2023-08-15 18:18:34.434713,-16.0
2023-08-15 18:18:34.442403,-7.0
2023-08-15 18:18:34.450092,7.0
2023-08-15 18:18:34.457782,23.0
2023-08-15 18:18:34.465471,40.0
2023-08-15 18:18:34.473161,57.0
2023-08-15 18:18:34.480851,76.0
2023-08-15 18:18:34.488540,97.0
2023-08-15 18:18:34.496230,119.0
2023-08-15 18:18:34.503920,138.0
2023-08-15 18:18:34.511609,157.0
2023-08-15 18:18:34.519299,169.0
2023-08-15 18:18:34.526988,178.0
2023-08-15 18:18:34.534678,180.0
2023-08-15 18:18:34.542368,173.0
2023-08-15 18:18:34.550057,154.0
2023-08-15 18:18:34.557747,123.0
2023-08-15 18:18:34.565436,73.0
2023-08-15 18:18:34.573126,16.0
2023-08-15 18:18:34.580816,-38.0
2023-08-15 18:18:34.588505,-80.0
2023-08-15 18:18:34.596195,-111.0
2023-08-15 18:18:34.603885,-133.0
2023-08-15 18:18:34.611574,-147.0
2023-08-15 18:18:34.619264,-154.0
2023-08-15 18:18:34.626953,-157.0
2023-08-15 18:18:34.634643,-159.0
2023-08-15 18:18:34.642333,-154.0
2023-08-15 18:18:34.650022,-152.0
2023-08-15 18:18:34.657712,-145.0
2023-08-15 18:18:34.665401,-138.0
2023-08-15 18:18:34.673091,-135.0
2023-08-15 18:18:34.680781,-133.0
2023-08-15 18:18:34.688470,-123.0
2023-08-15 18:18:34.696160,-119.0
2023-08-15 18:18:34.703849,-114.0
2023-08-15 18:18:34.711539,-107.0
2023-08-15 18:18:34.719229,-104.0
2023-08-15 18:18:34.726918,-102.0
2023-08-15 18:18:34.734608,-97.0
2023-08-15 18:18:34.742298,-95.0
2023-08-15 18:18:34.749987,-95.0
2023-08-15 18:18:34.757677,-97.0
2023-08-15 18:18:34.765366,-104.0
2023-08-15 18:18:34.773056,-109.0
2023-08-15 18:18:34.780746,-104.0
2023-08-15 18:18:34.788435,-107.0
2023-08-15 18:18:34.796125,-109.0
2023-08-15 18:18:34.803814,-107.0
2023-08-15 18:18:34.811504,-107.0
2023-08-15 18:18:34.819194,-107.0
2023-08-15 18:18:34.826883,-107.0
2023-08-15 18:18:34.834573,-107.0
2023-08-15 18:18:34.842263,-107.0
2023-08-15 18:18:34.849952,-104.0
2023-08-15 18:18:34.857642,-102.0
2023-08-15 18:18:34.865331,-107.0
2023-08-15 18:18:34.873021,-107.0
2023-08-15 18:18:34.880711,-102.0
2023-08-15 18:18:34.888400,-90.0
2023-08-15 18:18:34.896090,-85.0
2023-08-15 18:18:34.903779,-85.0
2023-08-15 18:18:34.911469,-78.0
2023-08-15 18:18:34.919159,-73.0
2023-08-15 18:18:34.926848,-80.0
2023-08-15 18:18:34.934538,-102.0
2023-08-15 18:18:34.942228,-121.0
2023-08-15 18:18:34.949917,-123.0
2023-08-15 18:18:34.957607,-111.0
2023-08-15 18:18:34.965296,-111.0
2023-08-15 18:18:34.972986,-109.0
2023-08-15 18:18:34.980676,-64.0
2023-08-15 18:18:34.988365,85.0
2023-08-15 18:18:34.996055,359.0
2023-08-15 18:18:35.003744,533.0
2023-08-15 18:18:35.011434,283.0
2023-08-15 18:18:35.019124,-280.0
2023-08-15 18:18:35.026813,-602.0
2023-08-15 18:18:35.034503,-426.0
2023-08-15 18:18:35.042193,-142.0
2023-08-15 18:18:35.049882,-85.0
2023-08-15 18:18:35.057572,-104.0
2023-08-15 18:18:35.065261,-71.0
2023-08-15 18:18:35.072951,-61.0
2023-08-15 18:18:35.080641,-73.0
2023-08-15 18:18:35.088330,-57.0
2023-08-15 18:18:35.096020,-38.0
2023-08-15 18:18:35.103709,-33.0
2023-08-15 18:18:35.111399,-23.0
2023-08-15 18:18:35.119089,-11.0
2023-08-15 18:18:35.126778,-2.0
2023-08-15 18:18:35.134468,11.0
2023-08-15 18:18:35.142158,30.0
2023-08-15 18:18:35.149847,45.0
2023-08-15 18:18:35.157537,59.0
2023-08-15 18:18:35.165226,73.0
2023-08-15 18:18:35.172916,97.0
2023-08-15 18:18:35.180606,121.0
2023-08-15 18:18:35.188295,140.0
2023-08-15 18:18:35.195985,157.0
2023-08-15 18:18:35.203674,176.0
2023-08-15 18:18:35.211364,185.0
2023-08-15 18:18:35.219054,180.0
2023-08-15 18:18:35.226743,173.0
2023-08-15 18:18:35.234433,161.0
2023-08-15 18:18:35.242123,130.0
2023-08-15 18:18:35.249812,78.0
2023-08-15 18:18:35.257502,19.0
2023-08-15 18:18:35.265191,-33.0
2023-08-15 18:18:35.272881,-78.0
2023-08-15 18:18:35.280571,-109.0
2023-08-15 18:18:35.288260,-130.0
2023-08-15 18:18:35.295950,-149.0
2023-08-15 18:18:35.303639,-166.0
2023-08-15 18:18:35.311329,-171.0
2023-08-15 18:18:35.319019,-161.0
2023-08-15 18:18:35.326708,-159.0
2023-08-15 18:18:35.334398,-159.0
2023-08-15 18:18:35.342088,-154.0
2023-08-15 18:18:35.349777,-152.0
2023-08-15 18:18:35.357467,-145.0
2023-08-15 18:18:35.365156,-138.0
2023-08-15 18:18:35.372846,-130.0
2023-08-15 18:18:35.380536,-123.0
2023-08-15 18:18:35.388225,-119.0
2023-08-15 18:18:35.395915,-119.0
2023-08-15 18:18:35.403604,-119.0
2023-08-15 18:18:35.411294,-121.0
2023-08-15 18:18:35.418984,-119.0
2023-08-15 18:18:35.426673,-111.0
2023-08-15 18:18:35.434363,-109.0
2023-08-15 18:18:35.442053,-111.0
2023-08-15 18:18:35.449742,-114.0
2023-08-15 18:18:35.457432,-111.0
2023-08-15 18:18:35.465121,-109.0
2023-08-15 18:18:35.472811,-107.0
2023-08-15 18:18:35.480501,-107.0
2023-08-15 18:18:35.488190,-111.0
2023-08-15 18:18:35.495880,-111.0
2023-08-15 18:18:35.503569,-107.0
2023-08-15 18:18:35.511259,-104.0
2023-08-15 18:18:35.518949,-102.0
2023-08-15 18:18:35.526638,-104.0
2023-08-15 18:18:35.534328,-109.0
2023-08-15 18:18:35.542018,-99.0
2023-08-15 18:18:35.549707,-88.0
2023-08-15 18:18:35.557397,-88.0
2023-08-15 18:18:35.565086,-88.0
2023-08-15 18:18:35.572776,-73.0
2023-08-15 18:18:35.580466,-59.0
2023-08-15 18:18:35.588155,-61.0
2023-08-15 18:18:35.595845,-78.0
2023-08-15 18:18:35.603534,-102.0
2023-08-15 18:18:35.611224,-114.0
2023-08-15 18:18:35.618914,-107.0
2023-08-15 18:18:35.626603,-102.0
2023-08-15 18:18:35.634293,-97.0
2023-08-15 18:18:35.641983,-66.0
2023-08-15 18:18:35.649672,49.0
2023-08-15 18:18:35.657362,302.0
2023-08-15 18:18:35.665051,540.0
2023-08-15 18:18:35.672741,407.0
2023-08-15 18:18:35.680431,-135.0
2023-08-15 18:18:35.688120,-580.0
2023-08-15 18:18:35.695810,-523.0
2023-08-15 18:18:35.703499,-221.0
2023-08-15 18:18:35.711189,-104.0
2023-08-15 18:18:35.718879,-119.0
2023-08-15 18:18:35.726568,-90.0
2023-08-15 18:18:35.734258,-71.0
2023-08-15 18:18:35.741948,-83.0
2023-08-15 18:18:35.749637,-71.0
2023-08-15 18:18:35.757327,-54.0
2023-08-15 18:18:35.765016,-47.0
2023-08-15 18:18:35.772706,-38.0
2023-08-15 18:18:35.780396,-26.0
2023-08-15 18:18:35.788085,-11.0
2023-08-15 18:18:35.795775,0.0
2023-08-15 18:18:35.803464,14.0
2023-08-15 18:18:35.811154,30.0
2023-08-15 18:18:35.818844,52.0
2023-08-15 18:18:35.826533,71.0
2023-08-15 18:18:35.834223,90.0
2023-08-15 18:18:35.841913,109.0
2023-08-15 18:18:35.849602,130.0
2023-08-15 18:18:35.857292,152.0
2023-08-15 18:18:35.864981,169.0
2023-08-15 18:18:35.872671,178.0
2023-08-15 18:18:35.880361,176.0
2023-08-15 18:18:35.888050,161.0
2023-08-15 18:18:35.895740,140.0
2023-08-15 18:18:35.903429,107.0
2023-08-15 18:18:35.911119,57.0
2023-08-15 18:18:35.918809,0.0
2023-08-15 18:18:35.926498,-54.0
2023-08-15 18:18:35.934188,-99.0
2023-08-15 18:18:35.941878,-138.0
2023-08-15 18:18:35.949567,-159.0
2023-08-15 18:18:35.957257,-169.0
2023-08-15 18:18:35.964946,-173.0
2023-08-15 18:18:35.972636,-178.0
2023-08-15 18:18:35.980326,-178.0
2023-08-15 18:18:35.988015,-171.0
2023-08-15 18:18:35.995705,-166.0
2023-08-15 18:18:36.003394,-161.0
2023-08-15 18:18:36.011084,-154.0
2023-08-15 18:18:36.018774,-147.0
2023-08-15 18:18:36.026463,-145.0
2023-08-15 18:18:36.034153,-135.0
2023-08-15 18:18:36.041843,-128.0
2023-08-15 18:18:36.049532,-121.0
2023-08-15 18:18:36.057222,-114.0
2023-08-15 18:18:36.064911,-109.0
2023-08-15 18:18:36.072601,-107.0
2023-08-15 18:18:36.080291,-102.0
2023-08-15 18:18:36.087980,-99.0
2023-08-15 18:18:36.095670,-97.0
2023-08-15 18:18:36.103359,-95.0
2023-08-15 18:18:36.111049,-97.0
2023-08-15 18:18:36.118739,-92.0
2023-08-15 18:18:36.126428,-92.0
2023-08-15 18:18:36.134118,-95.0
2023-08-15 18:18:36.141808,-95.0
2023-08-15 18:18:36.149497,-99.0
2023-08-15 18:18:36.157187,-102.0
2023-08-15 18:18:36.164876,-99.0
2023-08-15 18:18:36.172566,-95.0
2023-08-15 18:18:36.180256,-95.0
2023-08-15 18:18:36.187945,-92.0
2023-08-15 18:18:36.195635,-92.0
2023-08-15 18:18:36.203324,-92.0
2023-08-15 18:18:36.211014,-85.0
2023-08-15 18:18:36.218704,-78.0
2023-08-15 18:18:36.226393,-76.0
2023-08-15 18:18:36.234083,-64.0
2023-08-15 18:18:36.241773,-45.0
2023-08-15 18:18:36.249462,-42.0
2023-08-15 18:18:36.257152,-54.0
2023-08-15 18:18:36.264841,-73.0
2023-08-15 18:18:36.272531,-90.0
2023-08-15 18:18:36.280221,-92.0
2023-08-15 18:18:36.287910,-85.0
2023-08-15 18:18:36.295600,-88.0
2023-08-15 18:18:36.303289,-85.0
2023-08-15 18:18:36.310979,-40.0
2023-08-15 18:18:36.318669,121.0
2023-08-15 18:18:36.326358,416.0
2023-08-15 18:18:36.334048,557.0
2023-08-15 18:18:36.341738,233.0
2023-08-15 18:18:36.349427,-349.0
2023-08-15 18:18:36.357117,-618.0
2023-08-15 18:18:36.364806,-371.0
2023-08-15 18:18:36.372496,-78.0
2023-08-15 18:18:36.380186,-61.0
2023-08-15 18:18:36.387875,-97.0
2023-08-15 18:18:36.395565,-64.0
2023-08-15 18:18:36.403254,-59.0
2023-08-15 18:18:36.410944,-76.0
2023-08-15 18:18:36.418634,-69.0
2023-08-15 18:18:36.426323,-59.0
2023-08-15 18:18:36.434013,-52.0
2023-08-15 18:18:36.441703,-40.0
2023-08-15 18:18:36.449392,-26.0
2023-08-15 18:18:36.457082,-14.0
2023-08-15 18:18:36.464771,-4.0
2023-08-15 18:18:36.472461,2.0
2023-08-15 18:18:36.480151,16.0
2023-08-15 18:18:36.487840,38.0
2023-08-15 18:18:36.495530,57.0
2023-08-15 18:18:36.503219,78.0
2023-08-15 18:18:36.510909,102.0
2023-08-15 18:18:36.518599,126.0
2023-08-15 18:18:36.526288,145.0
2023-08-15 18:18:36.533978,161.0
2023-08-15 18:18:36.541668,169.0
2023-08-15 18:18:36.549357,169.0
2023-08-15 18:18:36.557047,159.0
2023-08-15 18:18:36.564736,138.0
2023-08-15 18:18:36.572426,99.0
2023-08-15 18:18:36.580116,45.0
2023-08-15 18:18:36.587805,-14.0
2023-08-15 18:18:36.595495,-66.0
2023-08-15 18:18:36.603184,-109.0
2023-08-15 18:18:36.610874,-142.0
2023-08-15 18:18:36.618564,-159.0
2023-08-15 18:18:36.626253,-169.0
2023-08-15 18:18:36.633943,-176.0
2023-08-15 18:18:36.641633,-180.0
2023-08-15 18:18:36.649322,-178.0
2023-08-15 18:18:36.657012,-173.0
2023-08-15 18:18:36.664701,-171.0
2023-08-15 18:18:36.672391,-164.0
2023-08-15 18:18:36.680081,-157.0
2023-08-15 18:18:36.687770,-149.0
2023-08-15 18:18:36.695460,-145.0
2023-08-15 18:18:36.703149,-140.0
2023-08-15 18:18:36.710839,-135.0
2023-08-15 18:18:36.718529,-128.0
2023-08-15 18:18:36.726218,-121.0
2023-08-15 18:18:36.733908,-119.0
2023-08-15 18:18:36.741598,-116.0
2023-08-15 18:18:36.749287,-111.0
2023-08-15 18:18:36.756977,-104.0
2023-08-15 18:18:36.764666,-104.0
2023-08-15 18:18:36.772356,-102.0
2023-08-15 18:18:36.780046,-102.0
2023-08-15 18:18:36.787735,-102.0
2023-08-15 18:18:36.795425,-102.0
2023-08-15 18:18:36.803114,-102.0
2023-08-15 18:18:36.810804,-99.0
2023-08-15 18:18:36.818494,-102.0
2023-08-15 18:18:36.826183,-102.0
2023-08-15 18:18:36.833873,-102.0
2023-08-15 18:18:36.841563,-102.0
2023-08-15 18:18:36.849252,-99.0
2023-08-15 18:18:36.856942,-99.0
2023-08-15 18:18:36.864631,-97.0
2023-08-15 18:18:36.872321,-95.0
2023-08-15 18:18:36.880011,-97.0
2023-08-15 18:18:36.887700,-99.0
2023-08-15 18:18:36.895390,-95.0
2023-08-15 18:18:36.903079,-88.0
2023-08-15 18:18:36.910769,-85.0
2023-08-15 18:18:36.918459,-88.0
2023-08-15 18:18:36.926148,-76.0
2023-08-15 18:18:36.933838,-59.0
2023-08-15 18:18:36.941528,-59.0
2023-08-15 18:18:36.949217,-76.0
2023-08-15 18:18:36.956907,-97.0
2023-08-15 18:18:36.964596,-111.0
2023-08-15 18:18:36.972286,-107.0
2023-08-15 18:18:36.979976,-99.0
2023-08-15 18:18:36.987665,-99.0
2023-08-15 18:18:36.995355,-90.0
2023-08-15 18:18:37.003044,-19.0
2023-08-15 18:18:37.010734,192.0
2023-08-15 18:18:37.018424,468.0
2023-08-15 18:18:37.026113,461.0
2023-08-15 18:18:37.033803,4.0
2023-08-15 18:18:37.041493,-528.0
2023-08-15 18:18:37.049182,-606.0
2023-08-15 18:18:37.056872,-268.0
2023-08-15 18:18:37.064561,-59.0
2023-08-15 18:18:37.072251,-99.0
2023-08-15 18:18:37.079941,-107.0
2023-08-15 18:18:37.087630,-64.0
2023-08-15 18:18:37.095320,-71.0
2023-08-15 18:18:37.103009,-83.0
2023-08-15 18:18:37.110699,-66.0
2023-08-15 18:18:37.118389,-54.0
2023-08-15 18:18:37.126078,-52.0
2023-08-15 18:18:37.133768,-45.0
2023-08-15 18:18:37.141458,-35.0
2023-08-15 18:18:37.149147,-23.0
2023-08-15 18:18:37.156837,-7.0
2023-08-15 18:18:37.164526,7.0
2023-08-15 18:18:37.172216,23.0
2023-08-15 18:18:37.179906,42.0
2023-08-15 18:18:37.187595,61.0
2023-08-15 18:18:37.195285,83.0
2023-08-15 18:18:37.202974,107.0
2023-08-15 18:18:37.210664,128.0
2023-08-15 18:18:37.218354,147.0
2023-08-15 18:18:37.226043,161.0
2023-08-15 18:18:37.233733,164.0
2023-08-15 18:18:37.241423,159.0
2023-08-15 18:18:37.249112,149.0
2023-08-15 18:18:37.256802,128.0
2023-08-15 18:18:37.264491,88.0
2023-08-15 18:18:37.272181,33.0
2023-08-15 18:18:37.279871,-28.0
2023-08-15 18:18:37.287560,-83.0
2023-08-15 18:18:37.295250,-119.0
2023-08-15 18:18:37.302939,-145.0
2023-08-15 18:18:37.310629,-164.0
2023-08-15 18:18:37.318319,-171.0
2023-08-15 18:18:37.326008,-176.0
2023-08-15 18:18:37.333698,-176.0
2023-08-15 18:18:37.341388,-169.0
2023-08-15 18:18:37.349077,-159.0
2023-08-15 18:18:37.356767,-159.0
2023-08-15 18:18:37.364456,-157.0
2023-08-15 18:18:37.372146,-152.0
2023-08-15 18:18:37.379836,-149.0
2023-08-15 18:18:37.387525,-145.0
2023-08-15 18:18:37.395215,-138.0
2023-08-15 18:18:37.402904,-130.0
2023-08-15 18:18:37.410594,-126.0
2023-08-15 18:18:37.418284,-123.0
2023-08-15 18:18:37.425973,-126.0
2023-08-15 18:18:37.433663,-121.0
2023-08-15 18:18:37.441353,-114.0
2023-08-15 18:18:37.449042,-111.0
2023-08-15 18:18:37.456732,-111.0
2023-08-15 18:18:37.464421,-111.0
2023-08-15 18:18:37.472111,-109.0
2023-08-15 18:18:37.479801,-109.0
2023-08-15 18:18:37.487490,-107.0
2023-08-15 18:18:37.495180,-107.0
2023-08-15 18:18:37.502869,-107.0
2023-08-15 18:18:37.510559,-107.0
2023-08-15 18:18:37.518249,-109.0
2023-08-15 18:18:37.525938,-109.0
2023-08-15 18:18:37.533628,-109.0
2023-08-15 18:18:37.541318,-107.0
2023-08-15 18:18:37.549007,-109.0
2023-08-15 18:18:37.556697,-107.0
2023-08-15 18:18:37.564386,-104.0
2023-08-15 18:18:37.572076,-99.0
2023-08-15 18:18:37.579766,-95.0
2023-08-15 18:18:37.587455,-95.0
2023-08-15 18:18:37.595145,-102.0
2023-08-15 18:18:37.602834,-107.0
2023-08-15 18:18:37.610524,-102.0
2023-08-15 18:18:37.618214,-95.0
2023-08-15 18:18:37.625903,-95.0
2023-08-15 18:18:37.633593,-83.0
2023-08-15 18:18:37.641283,-69.0
2023-08-15 18:18:37.648972,-61.0
2023-08-15 18:18:37.656662,-54.0
2023-08-15 18:18:37.664351,-52.0
2023-08-15 18:18:37.672041,-69.0
2023-08-15 18:18:37.679731,-92.0
2023-08-15 18:18:37.687420,-107.0
2023-08-15 18:18:37.695110,-107.0
2023-08-15 18:18:37.702799,-99.0
2023-08-15 18:18:37.710489,-99.0
2023-08-15 18:18:37.718179,-99.0
2023-08-15 18:18:37.725868,-57.0
2023-08-15 18:18:37.733558,119.0
2023-08-15 18:18:37.741248,409.0
2023-08-15 18:18:37.748937,528.0
2023-08-15 18:18:37.756627,207.0
2023-08-15 18:18:37.764316,-354.0
2023-08-15 18:18:37.772006,-606.0
2023-08-15 18:18:37.779696,-357.0
2023-08-15 18:18:37.787385,-71.0
2023-08-15 18:18:37.795075,-64.0
2023-08-15 18:18:37.802764,-102.0
2023-08-15 18:18:37.810454,-61.0
2023-08-15 18:18:37.818144,-49.0
2023-08-15 18:18:37.825833,-64.0
2023-08-15 18:18:37.833523,-52.0
2023-08-15 18:18:37.841213,-38.0
2023-08-15 18:18:37.848902,-35.0
2023-08-15 18:18:37.856592,-21.0
2023-08-15 18:18:37.864281,-9.0
2023-08-15 18:18:37.871971,-4.0
2023-08-15 18:18:37.879661,7.0
2023-08-15 18:18:37.887350,23.0
2023-08-15 18:18:37.895040,38.0
2023-08-15 18:18:37.902729,54.0
2023-08-15 18:18:37.910419,76.0
2023-08-15 18:18:37.918109,92.0
2023-08-15 18:18:37.925798,107.0
2023-08-15 18:18:37.933488,126.0
2023-08-15 18:18:37.941178,147.0
2023-08-15 18:18:37.948867,159.0
2023-08-15 18:18:37.956557,166.0
2023-08-15 18:18:37.964246,166.0
2023-08-15 18:18:37.971936,159.0
2023-08-15 18:18:37.979626,140.0
2023-08-15 18:18:37.987315,109.0
2023-08-15 18:18:37.995005,59.0
2023-08-15 18:18:38.002694,0.0
2023-08-15 18:18:38.010384,-52.0
2023-08-15 18:18:38.018074,-95.0
2023-08-15 18:18:38.025763,-126.0
2023-08-15 18:18:38.033453,-149.0
2023-08-15 18:18:38.041143,-166.0
2023-08-15 18:18:38.048832,-169.0
2023-08-15 18:18:38.056522,-166.0
2023-08-15 18:18:38.064211,-169.0
2023-08-15 18:18:38.071901,-166.0
2023-08-15 18:18:38.079591,-161.0
2023-08-15 18:18:38.087280,-157.0
2023-08-15 18:18:38.094970,-149.0
2023-08-15 18:18:38.102659,-140.0
2023-08-15 18:18:38.110349,-135.0
2023-08-15 18:18:38.118039,-135.0
2023-08-15 18:18:38.125728,-135.0
2023-08-15 18:18:38.133418,-133.0
2023-08-15 18:18:38.141108,-133.0
2023-08-15 18:18:38.148797,-133.0
2023-08-15 18:18:38.156487,-126.0
2023-08-15 18:18:38.164176,-123.0
2023-08-15 18:18:38.171866,-123.0
2023-08-15 18:18:38.179556,-126.0
2023-08-15 18:18:38.187245,-126.0
2023-08-15 18:18:38.194935,-123.0
2023-08-15 18:18:38.202624,-123.0
2023-08-15 18:18:38.210314,-123.0
2023-08-15 18:18:38.218004,-119.0
2023-08-15 18:18:38.225693,-119.0
2023-08-15 18:18:38.233383,-121.0
2023-08-15 18:18:38.241073,-121.0
2023-08-15 18:18:38.248762,-121.0
2023-08-15 18:18:38.256452,-121.0
2023-08-15 18:18:38.264141,-119.0
2023-08-15 18:18:38.271831,-119.0
2023-08-15 18:18:38.279521,-119.0
2023-08-15 18:18:38.287210,-107.0
2023-08-15 18:18:38.294900,-102.0
2023-08-15 18:18:38.302589,-107.0
2023-08-15 18:18:38.310279,-104.0
2023-08-15 18:18:38.317969,-102.0
2023-08-15 18:18:38.325658,-97.0
2023-08-15 18:18:38.333348,-88.0
2023-08-15 18:18:38.341038,-78.0
2023-08-15 18:18:38.348727,-71.0
2023-08-15 18:18:38.356417,-57.0
2023-08-15 18:18:38.364106,-49.0
2023-08-15 18:18:38.371796,-57.0
2023-08-15 18:18:38.379486,-76.0
2023-08-15 18:18:38.387175,-99.0
2023-08-15 18:18:38.394865,-107.0
2023-08-15 18:18:38.402554,-99.0
2023-08-15 18:18:38.410244,-99.0
2023-08-15 18:18:38.417934,-102.0
2023-08-15 18:18:38.425623,-69.0
2023-08-15 18:18:38.433313,49.0
2023-08-15 18:18:38.441003,297.0
2023-08-15 18:18:38.448692,533.0
2023-08-15 18:18:38.456382,404.0
2023-08-15 18:18:38.464071,-138.0
2023-08-15 18:18:38.471761,-578.0
2023-08-15 18:18:38.479451,-511.0
2023-08-15 18:18:38.487140,-211.0
2023-08-15 18:18:38.494830,-97.0
2023-08-15 18:18:38.502519,-114.0
2023-08-15 18:18:38.510209,-83.0
2023-08-15 18:18:38.517899,-61.0
2023-08-15 18:18:38.525588,-73.0
2023-08-15 18:18:38.533278,-66.0
2023-08-15 18:18:38.540968,-52.0
2023-08-15 18:18:38.548657,-45.0
2023-08-15 18:18:38.556347,-33.0
2023-08-15 18:18:38.564036,-21.0
2023-08-15 18:18:38.571726,-11.0
2023-08-15 18:18:38.579416,0.0
2023-08-15 18:18:38.587105,14.0
2023-08-15 18:18:38.594795,33.0
2023-08-15 18:18:38.602484,52.0
2023-08-15 18:18:38.610174,71.0
2023-08-15 18:18:38.617864,88.0
2023-08-15 18:18:38.625553,109.0
2023-08-15 18:18:38.633243,130.0
2023-08-15 18:18:38.640933,152.0
2023-08-15 18:18:38.648622,169.0
2023-08-15 18:18:38.656312,176.0
2023-08-15 18:18:38.664001,183.0
2023-08-15 18:18:38.671691,178.0
2023-08-15 18:18:38.679381,152.0
2023-08-15 18:18:38.687070,116.0
2023-08-15 18:18:38.694760,73.0
2023-08-15 18:18:38.702449,19.0
2023-08-15 18:18:38.710139,-38.0
2023-08-15 18:18:38.717829,-90.0
2023-08-15 18:18:38.725518,-135.0
2023-08-15 18:18:38.733208,-161.0
2023-08-15 18:18:38.740898,-169.0
2023-08-15 18:18:38.748587,-173.0
2023-08-15 18:18:38.756277,-178.0
2023-08-15 18:18:38.763966,-183.0
2023-08-15 18:18:38.771656,-183.0
2023-08-15 18:18:38.779346,-173.0
2023-08-15 18:18:38.787035,-164.0
2023-08-15 18:18:38.794725,-164.0
2023-08-15 18:18:38.802414,-154.0
2023-08-15 18:18:38.810104,-145.0
2023-08-15 18:18:38.817794,-140.0
2023-08-15 18:18:38.825483,-135.0
2023-08-15 18:18:38.833173,-130.0
2023-08-15 18:18:38.840863,-121.0
2023-08-15 18:18:38.848552,-114.0
2023-08-15 18:18:38.856242,-111.0
2023-08-15 18:18:38.863931,-109.0
2023-08-15 18:18:38.871621,-107.0
2023-08-15 18:18:38.879311,-107.0
2023-08-15 18:18:38.887000,-102.0
2023-08-15 18:18:38.894690,-99.0
2023-08-15 18:18:38.902379,-102.0
2023-08-15 18:18:38.910069,-102.0
2023-08-15 18:18:38.917759,-99.0
2023-08-15 18:18:38.925448,-99.0
2023-08-15 18:18:38.933138,-102.0
2023-08-15 18:18:38.940828,-104.0
2023-08-15 18:18:38.948517,-109.0
2023-08-15 18:18:38.956207,-109.0
2023-08-15 18:18:38.963896,-102.0
2023-08-15 18:18:38.971586,-99.0
2023-08-15 18:18:38.979276,-97.0
2023-08-15 18:18:38.986965,-97.0
2023-08-15 18:18:38.994655,-97.0
2023-08-15 18:18:39.002344,-95.0
2023-08-15 18:18:39.010034,-90.0
2023-08-15 18:18:39.017724,-85.0
2023-08-15 18:18:39.025413,-78.0
2023-08-15 18:18:39.033103,-73.0
2023-08-15 18:18:39.040793,-71.0
2023-08-15 18:18:39.048482,-57.0
2023-08-15 18:18:39.056172,-40.0
2023-08-15 18:18:39.063861,-40.0
2023-08-15 18:18:39.071551,-57.0
2023-08-15 18:18:39.079241,-83.0
2023-08-15 18:18:39.086930,-95.0
2023-08-15 18:18:39.094620,-90.0
2023-08-15 18:18:39.102309,-85.0
2023-08-15 18:18:39.109999,-90.0
2023-08-15 18:18:39.117689,-73.0
2023-08-15 18:18:39.125378,4.0
2023-08-15 18:18:39.133068,214.0
2023-08-15 18:18:39.140758,497.0
2023-08-15 18:18:39.148447,516.0
2023-08-15 18:18:39.156137,59.0
2023-08-15 18:18:39.163826,-487.0
2023-08-15 18:18:39.171516,-592.0
2023-08-15 18:18:39.179206,-299.0
2023-08-15 18:18:39.186895,-97.0
2023-08-15 18:18:39.194585,-95.0
2023-08-15 18:18:39.202274,-83.0
2023-08-15 18:18:39.209964,-54.0
2023-08-15 18:18:39.217654,-64.0
2023-08-15 18:18:39.225343,-64.0
2023-08-15 18:18:39.233033,-45.0
2023-08-15 18:18:39.240723,-35.0
2023-08-15 18:18:39.248412,-28.0
2023-08-15 18:18:39.256102,-16.0
2023-08-15 18:18:39.263791,-4.0
2023-08-15 18:18:39.271481,7.0
2023-08-15 18:18:39.279171,21.0
2023-08-15 18:18:39.286860,35.0
2023-08-15 18:18:39.294550,54.0
2023-08-15 18:18:39.302239,69.0
2023-08-15 18:18:39.309929,78.0
2023-08-15 18:18:39.317619,95.0
2023-08-15 18:18:39.325308,123.0
2023-08-15 18:18:39.332998,145.0
2023-08-15 18:18:39.340688,159.0
2023-08-15 18:18:39.348377,171.0
2023-08-15 18:18:39.356067,178.0
2023-08-15 18:18:39.363756,173.0
2023-08-15 18:18:39.371446,157.0
2023-08-15 18:18:39.379136,130.0
2023-08-15 18:18:39.386825,90.0
2023-08-15 18:18:39.394515,35.0
2023-08-15 18:18:39.402204,-23.0
2023-08-15 18:18:39.409894,-71.0
2023-08-15 18:18:39.417584,-109.0
2023-08-15 18:18:39.425273,-138.0
2023-08-15 18:18:39.432963,-152.0
2023-08-15 18:18:39.440653,-161.0
2023-08-15 18:18:39.448342,-171.0
2023-08-15 18:18:39.456032,-173.0
2023-08-15 18:18:39.463721,-169.0
2023-08-15 18:18:39.471411,-164.0
2023-08-15 18:18:39.479101,-159.0
2023-08-15 18:18:39.486790,-157.0
2023-08-15 18:18:39.494480,-152.0
2023-08-15 18:18:39.502169,-145.0
2023-08-15 18:18:39.509859,-135.0
2023-08-15 18:18:39.517549,-128.0
2023-08-15 18:18:39.525238,-123.0
2023-08-15 18:18:39.532928,-116.0
2023-08-15 18:18:39.540618,-111.0
2023-08-15 18:18:39.548307,-107.0
2023-08-15 18:18:39.555997,-104.0
2023-08-15 18:18:39.563686,-97.0
2023-08-15 18:18:39.571376,-95.0
2023-08-15 18:18:39.579066,-97.0
2023-08-15 18:18:39.586755,-99.0
2023-08-15 18:18:39.594445,-99.0
2023-08-15 18:18:39.602134,-99.0
2023-08-15 18:18:39.609824,-99.0
2023-08-15 18:18:39.617514,-99.0
2023-08-15 18:18:39.625203,-102.0
2023-08-15 18:18:39.632893,-102.0
2023-08-15 18:18:39.640583,-102.0
2023-08-15 18:18:39.648272,-99.0
2023-08-15 18:18:39.655962,-99.0
2023-08-15 18:18:39.663651,-102.0
2023-08-15 18:18:39.671341,-99.0
2023-08-15 18:18:39.679031,-95.0
2023-08-15 18:18:39.686720,-92.0
2023-08-15 18:18:39.694410,-92.0
2023-08-15 18:18:39.702099,-90.0
2023-08-15 18:18:39.709789,-90.0
2023-08-15 18:18:39.717479,-88.0
2023-08-15 18:18:39.725168,-83.0
2023-08-15 18:18:39.732858,-83.0
2023-08-15 18:18:39.740548,-85.0
2023-08-15 18:18:39.748237,-80.0
2023-08-15 18:18:39.755927,-73.0
2023-08-15 18:18:39.763616,-66.0
2023-08-15 18:18:39.771306,-59.0
2023-08-15 18:18:39.778996,-49.0
2023-08-15 18:18:39.786685,-42.0
2023-08-15 18:18:39.794375,-42.0
2023-08-15 18:18:39.802064,-59.0
2023-08-15 18:18:39.809754,-85.0
2023-08-15 18:18:39.817444,-97.0
2023-08-15 18:18:39.825133,-92.0
2023-08-15 18:18:39.832823,-90.0
2023-08-15 18:18:39.840513,-102.0
2023-08-15 18:18:39.848202,-102.0
2023-08-15 18:18:39.855892,-21.0
2023-08-15 18:18:39.863581,211.0
2023-08-15 18:18:39.871271,483.0
2023-08-15 18:18:39.878961,447.0
2023-08-15 18:18:39.886650,-23.0
2023-08-15 18:18:39.894340,-533.0
2023-08-15 18:18:39.902029,-585.0
2023-08-15 18:18:39.909719,-259.0
2023-08-15 18:18:39.917409,-69.0
2023-08-15 18:18:39.925098,-99.0
2023-08-15 18:18:39.932788,-97.0
2023-08-15 18:18:39.940478,-64.0
2023-08-15 18:18:39.948167,-71.0
2023-08-15 18:18:39.955857,-78.0
2023-08-15 18:18:39.963546,-61.0
2023-08-15 18:18:39.971236,-52.0
2023-08-15 18:18:39.978926,-45.0
2023-08-15 18:18:39.986615,-30.0
2023-08-15 18:18:39.994305,-16.0
2023-08-15 18:18:40.001994,-7.0
2023-08-15 18:18:40.009684,7.0
2023-08-15 18:18:40.017374,26.0
2023-08-15 18:18:40.025063,42.0
2023-08-15 18:18:40.032753,61.0
2023-08-15 18:18:40.040443,85.0
2023-08-15 18:18:40.048132,104.0
2023-08-15 18:18:40.055822,126.0
2023-08-15 18:18:40.063511,149.0
2023-08-15 18:18:40.071201,166.0
2023-08-15 18:18:40.078891,176.0
2023-08-15 18:18:40.086580,180.0
2023-08-15 18:18:40.094270,176.0
2023-08-15 18:18:40.101959,164.0
2023-08-15 18:18:40.109649,140.0
2023-08-15 18:18:40.117339,99.0
2023-08-15 18:18:40.125028,45.0
2023-08-15 18:18:40.132718,-7.0
2023-08-15 18:18:40.140408,-59.0
2023-08-15 18:18:40.148097,-99.0
2023-08-15 18:18:40.155787,-126.0
2023-08-15 18:18:40.163476,-142.0
2023-08-15 18:18:40.171166,-152.0
2023-08-15 18:18:40.178856,-157.0
2023-08-15 18:18:40.186545,-157.0
2023-08-15 18:18:40.194235,-152.0
2023-08-15 18:18:40.201924,-147.0
2023-08-15 18:18:40.209614,-147.0
2023-08-15 18:18:40.217304,-142.0
2023-08-15 18:18:40.224993,-135.0
2023-08-15 18:18:40.232683,-133.0
2023-08-15 18:18:40.240373,-128.0
2023-08-15 18:18:40.248062,-119.0
2023-08-15 18:18:40.255752,-111.0
2023-08-15 18:18:40.263441,-111.0
2023-08-15 18:18:40.271131,-104.0
2023-08-15 18:18:40.278821,-99.0
2023-08-15 18:18:40.286510,-97.0
2023-08-15 18:18:40.294200,-97.0
2023-08-15 18:18:40.301889,-95.0
2023-08-15 18:18:40.309579,-92.0
2023-08-15 18:18:40.317269,-88.0
2023-08-15 18:18:40.324958,-88.0
2023-08-15 18:18:40.332648,-92.0
2023-08-15 18:18:40.340338,-95.0
2023-08-15 18:18:40.348027,-95.0
2023-08-15 18:18:40.355717,-97.0
2023-08-15 18:18:40.363406,-97.0
2023-08-15 18:18:40.371096,-95.0
2023-08-15 18:18:40.378786,-97.0
2023-08-15 18:18:40.386475,-107.0
2023-08-15 18:18:40.394165,-111.0
2023-08-15 18:18:40.401854,-107.0
2023-08-15 18:18:40.409544,-104.0
2023-08-15 18:18:40.417234,-104.0
2023-08-15 18:18:40.424923,-104.0
2023-08-15 18:18:40.432613,-104.0
2023-08-15 18:18:40.440303,-102.0
2023-08-15 18:18:40.447992,-99.0
2023-08-15 18:18:40.455682,-102.0
2023-08-15 18:18:40.463371,-104.0
2023-08-15 18:18:40.471061,-97.0
2023-08-15 18:18:40.478751,-90.0
2023-08-15 18:18:40.486440,-80.0
2023-08-15 18:18:40.494130,-69.0
2023-08-15 18:18:40.501819,-59.0
2023-08-15 18:18:40.509509,-57.0
2023-08-15 18:18:40.517199,-59.0
2023-08-15 18:18:40.524888,-71.0
2023-08-15 18:18:40.532578,-97.0
2023-08-15 18:18:40.540268,-114.0
2023-08-15 18:18:40.547957,-109.0
2023-08-15 18:18:40.555647,-104.0
2023-08-15 18:18:40.563336,-107.0
2023-08-15 18:18:40.571026,-102.0
2023-08-15 18:18:40.578716,-54.0
2023-08-15 18:18:40.586405,107.0
2023-08-15 18:18:40.594095,399.0
2023-08-15 18:18:40.601784,540.0
2023-08-15 18:18:40.609474,223.0
2023-08-15 18:18:40.617164,-354.0
2023-08-15 18:18:40.624853,-618.0
2023-08-15 18:18:40.632543,-376.0
2023-08-15 18:18:40.640233,-88.0
2023-08-15 18:18:40.647922,-73.0
2023-08-15 18:18:40.655612,-109.0
2023-08-15 18:18:40.663301,-71.0
2023-08-15 18:18:40.670991,-54.0
2023-08-15 18:18:40.678681,-61.0
2023-08-15 18:18:40.686370,-42.0
2023-08-15 18:18:40.694060,-30.0
2023-08-15 18:18:40.701749,-30.0
2023-08-15 18:18:40.709439,-19.0
2023-08-15 18:18:40.717129,0.0
2023-08-15 18:18:40.724818,9.0
2023-08-15 18:18:40.732508,23.0
2023-08-15 18:18:40.740198,40.0
2023-08-15 18:18:40.747887,54.0
2023-08-15 18:18:40.755577,71.0
2023-08-15 18:18:40.763266,90.0
2023-08-15 18:18:40.770956,111.0
2023-08-15 18:18:40.778646,135.0
2023-08-15 18:18:40.786335,157.0
2023-08-15 18:18:40.794025,176.0
2023-08-15 18:18:40.801714,190.0
2023-08-15 18:18:40.809404,199.0
2023-08-15 18:18:40.817094,207.0
2023-08-15 18:18:40.824783,199.0
2023-08-15 18:18:40.832473,173.0
2023-08-15 18:18:40.840163,135.0
2023-08-15 18:18:40.847852,88.0
2023-08-15 18:18:40.855542,28.0
2023-08-15 18:18:40.863231,-26.0
2023-08-15 18:18:40.870921,-66.0
2023-08-15 18:18:40.878611,-99.0
2023-08-15 18:18:40.886300,-123.0
2023-08-15 18:18:40.893990,-138.0
2023-08-15 18:18:40.901679,-147.0
2023-08-15 18:18:40.909369,-145.0
2023-08-15 18:18:40.917059,-140.0
2023-08-15 18:18:40.924748,-140.0
2023-08-15 18:18:40.932438,-140.0
2023-08-15 18:18:40.940128,-135.0
2023-08-15 18:18:40.947817,-128.0
2023-08-15 18:18:40.955507,-128.0
2023-08-15 18:18:40.963196,-123.0
2023-08-15 18:18:40.970886,-123.0
2023-08-15 18:18:40.978576,-126.0
2023-08-15 18:18:40.986265,-123.0
2023-08-15 18:18:40.993955,-111.0
2023-08-15 18:18:41.001644,-104.0
2023-08-15 18:18:41.009334,-107.0
2023-08-15 18:18:41.017024,-104.0
2023-08-15 18:18:41.024713,-97.0
2023-08-15 18:18:41.032403,-95.0
2023-08-15 18:18:41.040093,-95.0
2023-08-15 18:18:41.047782,-92.0
2023-08-15 18:18:41.055472,-88.0
2023-08-15 18:18:41.063161,-95.0
2023-08-15 18:18:41.070851,-99.0
2023-08-15 18:18:41.078541,-95.0
2023-08-15 18:18:41.086230,-92.0
2023-08-15 18:18:41.093920,-97.0
2023-08-15 18:18:41.101609,-97.0
2023-08-15 18:18:41.109299,-95.0
2023-08-15 18:18:41.116989,-95.0
2023-08-15 18:18:41.124678,-95.0
2023-08-15 18:18:41.132368,-92.0
2023-08-15 18:18:41.140058,-88.0
2023-08-15 18:18:41.147747,-85.0
2023-08-15 18:18:41.155437,-90.0
2023-08-15 18:18:41.163126,-95.0
2023-08-15 18:18:41.170816,-85.0
2023-08-15 18:18:41.178506,-76.0
2023-08-15 18:18:41.186195,-73.0
2023-08-15 18:18:41.193885,-73.0
2023-08-15 18:18:41.201574,-61.0
2023-08-15 18:18:41.209264,-47.0
2023-08-15 18:18:41.216954,-42.0
2023-08-15 18:18:41.224643,-47.0
2023-08-15 18:18:41.232333,-61.0
2023-08-15 18:18:41.240023,-88.0
2023-08-15 18:18:41.247712,-97.0
2023-08-15 18:18:41.255402,-90.0
2023-08-15 18:18:41.263091,-85.0
2023-08-15 18:18:41.270781,-83.0
2023-08-15 18:18:41.278471,-45.0
2023-08-15 18:18:41.286160,107.0
2023-08-15 18:18:41.293850,392.0
2023-08-15 18:18:41.301539,571.0
2023-08-15 18:18:41.309229,316.0
2023-08-15 18:18:41.316919,-261.0
2023-08-15 18:18:41.324608,-602.0
2023-08-15 18:18:41.332298,-437.0
2023-08-15 18:18:41.339988,-149.0
2023-08-15 18:18:41.347677,-85.0
2023-08-15 18:18:41.355367,-99.0
2023-08-15 18:18:41.363056,-66.0
2023-08-15 18:18:41.370746,-52.0
2023-08-15 18:18:41.378436,-59.0
2023-08-15 18:18:41.386125,-47.0
2023-08-15 18:18:41.393815,-35.0
2023-08-15 18:18:41.401504,-33.0
2023-08-15 18:18:41.409194,-21.0
2023-08-15 18:18:41.416884,-4.0
2023-08-15 18:18:41.424573,7.0
2023-08-15 18:18:41.432263,21.0
2023-08-15 18:18:41.439953,35.0
2023-08-15 18:18:41.447642,49.0
2023-08-15 18:18:41.455332,66.0
2023-08-15 18:18:41.463021,78.0
2023-08-15 18:18:41.470711,95.0
2023-08-15 18:18:41.478401,119.0
2023-08-15 18:18:41.486090,142.0
2023-08-15 18:18:41.493780,159.0
2023-08-15 18:18:41.501469,176.0
2023-08-15 18:18:41.509159,183.0
2023-08-15 18:18:41.516849,176.0
2023-08-15 18:18:41.524538,169.0
2023-08-15 18:18:41.532228,152.0
2023-08-15 18:18:41.539918,116.0
2023-08-15 18:18:41.547607,66.0
2023-08-15 18:18:41.555297,4.0
2023-08-15 18:18:41.562986,-61.0
2023-08-15 18:18:41.570676,-109.0
2023-08-15 18:18:41.578366,-140.0
2023-08-15 18:18:41.586055,-161.0
2023-08-15 18:18:41.593745,-171.0
2023-08-15 18:18:41.601434,-176.0
2023-08-15 18:18:41.609124,-180.0
2023-08-15 18:18:41.616814,-178.0
2023-08-15 18:18:41.624503,-176.0
2023-08-15 18:18:41.632193,-171.0
2023-08-15 18:18:41.639883,-161.0
2023-08-15 18:18:41.647572,-154.0
2023-08-15 18:18:41.655262,-149.0
2023-08-15 18:18:41.662951,-145.0
2023-08-15 18:18:41.670641,-138.0
2023-08-15 18:18:41.678331,-130.0
2023-08-15 18:18:41.686020,-126.0
2023-08-15 18:18:41.693710,-121.0
2023-08-15 18:18:41.701399,-114.0
2023-08-15 18:18:41.709089,-107.0
2023-08-15 18:18:41.716779,-102.0
2023-08-15 18:18:41.724468,-102.0
2023-08-15 18:18:41.732158,-104.0
2023-08-15 18:18:41.739848,-102.0
2023-08-15 18:18:41.747537,-97.0
2023-08-15 18:18:41.755227,-99.0
2023-08-15 18:18:41.762916,-102.0
2023-08-15 18:18:41.770606,-104.0
2023-08-15 18:18:41.778296,-102.0
2023-08-15 18:18:41.785985,-99.0
2023-08-15 18:18:41.793675,-99.0
2023-08-15 18:18:41.801364,-99.0
2023-08-15 18:18:41.809054,-104.0
2023-08-15 18:18:41.816744,-107.0
2023-08-15 18:18:41.824433,-102.0
2023-08-15 18:18:41.832123,-97.0
2023-08-15 18:18:41.839813,-97.0
2023-08-15 18:18:41.847502,-99.0
2023-08-15 18:18:41.855192,-97.0
2023-08-15 18:18:41.862881,-90.0
2023-08-15 18:18:41.870571,-88.0
2023-08-15 18:18:41.878261,-88.0
2023-08-15 18:18:41.885950,-71.0
2023-08-15 18:18:41.893640,-54.0
2023-08-15 18:18:41.901329,-54.0
2023-08-15 18:18:41.909019,-66.0
2023-08-15 18:18:41.916709,-88.0
2023-08-15 18:18:41.924398,-104.0
2023-08-15 18:18:41.932088,-102.0
2023-08-15 18:18:41.939778,-95.0
2023-08-15 18:18:41.947467,-99.0
2023-08-15 18:18:41.955157,-92.0
2023-08-15 18:18:41.962846,-30.0
2023-08-15 18:18:41.970536,159.0
2023-08-15 18:18:41.978226,447.0
2023-08-15 18:18:41.985915,516.0
2023-08-15 18:18:41.993605,114.0
2023-08-15 18:18:42.001294,-461.0
2023-08-15 18:18:42.008984,-630.0
2023-08-15 18:18:42.016674,-340.0
2023-08-15 18:18:42.024363,-99.0
2023-08-15 18:18:42.032053,-95.0
2023-08-15 18:18:42.039743,-97.0
2023-08-15 18:18:42.047432,-66.0
2023-08-15 18:18:42.055122,-71.0
2023-08-15 18:18:42.062811,-73.0
2023-08-15 18:18:42.070501,-59.0
2023-08-15 18:18:42.078191,-47.0
2023-08-15 18:18:42.085880,-38.0
2023-08-15 18:18:42.093570,-26.0
2023-08-15 18:18:42.101259,-14.0
2023-08-15 18:18:42.108949,-2.0
2023-08-15 18:18:42.116639,11.0
2023-08-15 18:18:42.124328,26.0
2023-08-15 18:18:42.132018,42.0
2023-08-15 18:18:42.139708,57.0
2023-08-15 18:18:42.147397,69.0
2023-08-15 18:18:42.155087,90.0
2023-08-15 18:18:42.162776,116.0
2023-08-15 18:18:42.170466,138.0
2023-08-15 18:18:42.178156,157.0
2023-08-15 18:18:42.185845,173.0
2023-08-15 18:18:42.193535,178.0
2023-08-15 18:18:42.201224,173.0
2023-08-15 18:18:42.208914,164.0
2023-08-15 18:18:42.216604,140.0
2023-08-15 18:18:42.224293,99.0
2023-08-15 18:18:42.231983,45.0
2023-08-15 18:18:42.239673,-11.0
2023-08-15 18:18:42.247362,-64.0
2023-08-15 18:18:42.255052,-107.0
2023-08-15 18:18:42.262741,-135.0
2023-08-15 18:18:42.270431,-154.0
2023-08-15 18:18:42.278121,-166.0
2023-08-15 18:18:42.285810,-171.0
2023-08-15 18:18:42.293500,-169.0
2023-08-15 18:18:42.301189,-166.0
2023-08-15 18:18:42.308879,-166.0
2023-08-15 18:18:42.316569,-166.0
2023-08-15 18:18:42.324258,-161.0
2023-08-15 18:18:42.331948,-154.0
2023-08-15 18:18:42.339638,-145.0
2023-08-15 18:18:42.347327,-138.0
2023-08-15 18:18:42.355017,-133.0
2023-08-15 18:18:42.362706,-126.0
2023-08-15 18:18:42.370396,-121.0
2023-08-15 18:18:42.378086,-116.0
2023-08-15 18:18:42.385775,-111.0
2023-08-15 18:18:42.393465,-107.0
2023-08-15 18:18:42.401154,-104.0
2023-08-15 18:18:42.408844,-104.0
2023-08-15 18:18:42.416534,-99.0
2023-08-15 18:18:42.424223,-97.0
2023-08-15 18:18:42.431913,-97.0
2023-08-15 18:18:42.439602,-95.0
2023-08-15 18:18:42.447292,-95.0
2023-08-15 18:18:42.454982,-99.0
2023-08-15 18:18:42.462671,-102.0
2023-08-15 18:18:42.470361,-99.0
2023-08-15 18:18:42.478051,-102.0
2023-08-15 18:18:42.485740,-109.0
2023-08-15 18:18:42.493430,-109.0
2023-08-15 18:18:42.501119,-109.0
2023-08-15 18:18:42.508809,-111.0
2023-08-15 18:18:42.516499,-104.0
2023-08-15 18:18:42.524188,-99.0
2023-08-15 18:18:42.531878,-97.0
2023-08-15 18:18:42.539567,-99.0
2023-08-15 18:18:42.547257,-102.0
2023-08-15 18:18:42.554947,-95.0
2023-08-15 18:18:42.562636,-90.0
2023-08-15 18:18:42.570326,-88.0
2023-08-15 18:18:42.578016,-78.0
2023-08-15 18:18:42.585705,-64.0
2023-08-15 18:18:42.593395,-71.0
2023-08-15 18:18:42.601084,-85.0
2023-08-15 18:18:42.608774,-99.0
2023-08-15 18:18:42.616464,-116.0
2023-08-15 18:18:42.624153,-119.0
2023-08-15 18:18:42.631843,-116.0
2023-08-15 18:18:42.639532,-128.0
2023-08-15 18:18:42.647222,-128.0
2023-08-15 18:18:42.654912,-83.0
2023-08-15 18:18:42.662601,71.0
2023-08-15 18:18:42.670291,361.0
2023-08-15 18:18:42.677981,521.0
2023-08-15 18:18:42.685670,226.0
2023-08-15 18:18:42.693360,-352.0
2023-08-15 18:18:42.701049,-649.0
2023-08-15 18:18:42.708739,-437.0
2023-08-15 18:18:42.716429,-138.0
2023-08-15 18:18:42.724118,-92.0
2023-08-15 18:18:42.731808,-121.0
2023-08-15 18:18:42.739497,-88.0
2023-08-15 18:18:42.747187,-73.0
2023-08-15 18:18:42.754877,-80.0
2023-08-15 18:18:42.762566,-69.0
2023-08-15 18:18:42.770256,-57.0
2023-08-15 18:18:42.777946,-52.0
2023-08-15 18:18:42.785635,-40.0
2023-08-15 18:18:42.793325,-23.0
2023-08-15 18:18:42.801014,-16.0
2023-08-15 18:18:42.808704,-7.0
2023-08-15 18:18:42.816394,9.0
2023-08-15 18:18:42.824083,26.0
2023-08-15 18:18:42.831773,45.0
2023-08-15 18:18:42.839462,66.0
2023-08-15 18:18:42.847152,88.0
2023-08-15 18:18:42.854842,111.0
2023-08-15 18:18:42.862531,133.0
2023-08-15 18:18:42.870221,149.0
2023-08-15 18:18:42.877911,166.0
2023-08-15 18:18:42.885600,176.0
2023-08-15 18:18:42.893290,178.0
2023-08-15 18:18:42.900979,169.0
2023-08-15 18:18:42.908669,149.0
2023-08-15 18:18:42.916359,111.0
2023-08-15 18:18:42.924048,64.0
2023-08-15 18:18:42.931738,9.0
2023-08-15 18:18:42.939427,-42.0
2023-08-15 18:18:42.947117,-85.0
2023-08-15 18:18:42.954807,-121.0
2023-08-15 18:18:42.962496,-145.0
2023-08-15 18:18:42.970186,-154.0
2023-08-15 18:18:42.977876,-164.0
2023-08-15 18:18:42.985565,-171.0
2023-08-15 18:18:42.993255,-169.0
2023-08-15 18:18:43.000944,-164.0
2023-08-15 18:18:43.008634,-161.0
2023-08-15 18:18:43.016324,-157.0
2023-08-15 18:18:43.024013,-149.0
2023-08-15 18:18:43.031703,-142.0
2023-08-15 18:18:43.039392,-138.0
2023-08-15 18:18:43.047082,-135.0
2023-08-15 18:18:43.054772,-133.0
2023-08-15 18:18:43.062461,-123.0
2023-08-15 18:18:43.070151,-116.0
2023-08-15 18:18:43.077841,-111.0
2023-08-15 18:18:43.085530,-109.0
2023-08-15 18:18:43.093220,-107.0
2023-08-15 18:18:43.100909,-107.0
2023-08-15 18:18:43.108599,-102.0
2023-08-15 18:18:43.116289,-99.0
2023-08-15 18:18:43.123978,-97.0
2023-08-15 18:18:43.131668,-97.0
2023-08-15 18:18:43.139357,-99.0
2023-08-15 18:18:43.147047,-102.0
2023-08-15 18:18:43.154737,-99.0
2023-08-15 18:18:43.162426,-99.0
2023-08-15 18:18:43.170116,-99.0
2023-08-15 18:18:43.177806,-102.0
2023-08-15 18:18:43.185495,-99.0
2023-08-15 18:18:43.193185,-99.0
2023-08-15 18:18:43.200874,-97.0
2023-08-15 18:18:43.208564,-95.0
2023-08-15 18:18:43.216254,-95.0
2023-08-15 18:18:43.223943,-99.0
2023-08-15 18:18:43.231633,-99.0
2023-08-15 18:18:43.239322,-92.0
2023-08-15 18:18:43.247012,-88.0
2023-08-15 18:18:43.254702,-80.0
2023-08-15 18:18:43.262391,-83.0
2023-08-15 18:18:43.270081,-78.0
2023-08-15 18:18:43.277771,-69.0
2023-08-15 18:18:43.285460,-66.0
2023-08-15 18:18:43.293150,-78.0
2023-08-15 18:18:43.300839,-102.0
2023-08-15 18:18:43.308529,-121.0
2023-08-15 18:18:43.316219,-121.0
2023-08-15 18:18:43.323908,-111.0
2023-08-15 18:18:43.331598,-111.0
2023-08-15 18:18:43.339287,-107.0
2023-08-15 18:18:43.346977,-64.0
2023-08-15 18:18:43.354667,90.0
2023-08-15 18:18:43.362356,371.0
2023-08-15 18:18:43.370046,523.0
2023-08-15 18:18:43.377736,238.0
2023-08-15 18:18:43.385425,-333.0
2023-08-15 18:18:43.393115,-630.0
2023-08-15 18:18:43.400804,-423.0
2023-08-15 18:18:43.408494,-126.0
2023-08-15 18:18:43.416184,-80.0
2023-08-15 18:18:43.423873,-114.0
2023-08-15 18:18:43.431563,-80.0
2023-08-15 18:18:43.439252,-69.0
2023-08-15 18:18:43.446942,-80.0
2023-08-15 18:18:43.454632,-66.0
2023-08-15 18:18:43.462321,-49.0
2023-08-15 18:18:43.470011,-49.0
2023-08-15 18:18:43.477701,-38.0
2023-08-15 18:18:43.485390,-23.0
2023-08-15 18:18:43.493080,-19.0
2023-08-15 18:18:43.500769,-7.0
2023-08-15 18:18:43.508459,11.0
2023-08-15 18:18:43.516149,28.0
2023-08-15 18:18:43.523838,45.0
2023-08-15 18:18:43.531528,64.0
2023-08-15 18:18:43.539217,83.0
2023-08-15 18:18:43.546907,102.0
2023-08-15 18:18:43.554597,123.0
2023-08-15 18:18:43.562286,140.0
2023-08-15 18:18:43.569976,157.0
2023-08-15 18:18:43.577666,166.0
2023-08-15 18:18:43.585355,166.0
2023-08-15 18:18:43.593045,159.0
2023-08-15 18:18:43.600734,142.0
2023-08-15 18:18:43.608424,109.0
2023-08-15 18:18:43.616114,61.0
2023-08-15 18:18:43.623803,7.0
2023-08-15 18:18:43.631493,-45.0
2023-08-15 18:18:43.639182,-88.0
2023-08-15 18:18:43.646872,-121.0
2023-08-15 18:18:43.654562,-142.0
2023-08-15 18:18:43.662251,-157.0
2023-08-15 18:18:43.669941,-161.0
2023-08-15 18:18:43.677631,-161.0
2023-08-15 18:18:43.685320,-157.0
2023-08-15 18:18:43.693010,-152.0
2023-08-15 18:18:43.700699,-149.0
2023-08-15 18:18:43.708389,-147.0
2023-08-15 18:18:43.716079,-142.0
2023-08-15 18:18:43.723768,-138.0
2023-08-15 18:18:43.731458,-128.0
2023-08-15 18:18:43.739147,-123.0
2023-08-15 18:18:43.746837,-121.0
2023-08-15 18:18:43.754527,-116.0
2023-08-15 18:18:43.762216,-119.0
2023-08-15 18:18:43.769906,-116.0
2023-08-15 18:18:43.777596,-114.0
2023-08-15 18:18:43.785285,-114.0
2023-08-15 18:18:43.792975,-114.0
2023-08-15 18:18:43.800664,-107.0
2023-08-15 18:18:43.808354,-104.0
2023-08-15 18:18:43.816044,-109.0
2023-08-15 18:18:43.823733,-107.0
2023-08-15 18:18:43.831423,-104.0
2023-08-15 18:18:43.839112,-109.0
2023-08-15 18:18:43.846802,-109.0
2023-08-15 18:18:43.854492,-104.0
2023-08-15 18:18:43.862181,-104.0
2023-08-15 18:18:43.869871,-104.0
2023-08-15 18:18:43.877561,-102.0
2023-08-15 18:18:43.885250,-99.0
2023-08-15 18:18:43.892940,-95.0
2023-08-15 18:18:43.900629,-95.0
2023-08-15 18:18:43.908319,-97.0
2023-08-15 18:18:43.916009,-95.0
2023-08-15 18:18:43.923698,-90.0
2023-08-15 18:18:43.931388,-88.0
2023-08-15 18:18:43.939077,-85.0
2023-08-15 18:18:43.946767,-76.0
2023-08-15 18:18:43.954457,-66.0
2023-08-15 18:18:43.962146,-54.0
2023-08-15 18:18:43.969836,-40.0
2023-08-15 18:18:43.977526,-40.0
2023-08-15 18:18:43.985215,-57.0
2023-08-15 18:18:43.992905,-83.0
2023-08-15 18:18:44.000594,-102.0
2023-08-15 18:18:44.008284,-92.0
2023-08-15 18:18:44.015974,-90.0
2023-08-15 18:18:44.023663,-97.0
2023-08-15 18:18:44.031353,-85.0
2023-08-15 18:18:44.039042,-16.0
2023-08-15 18:18:44.046732,176.0
2023-08-15 18:18:44.054422,457.0
2023-08-15 18:18:44.062111,514.0
2023-08-15 18:18:44.069801,119.0
2023-08-15 18:18:44.077491,-426.0
2023-08-15 18:18:44.085180,-578.0
2023-08-15 18:18:44.092870,-297.0
2023-08-15 18:18:44.100559,-76.0
2023-08-15 18:18:44.108249,-88.0
2023-08-15 18:18:44.115939,-95.0
2023-08-15 18:18:44.123628,-59.0
2023-08-15 18:18:44.131318,-64.0
2023-08-15 18:18:44.139007,-64.0
2023-08-15 18:18:44.146697,-40.0
2023-08-15 18:18:44.154387,-30.0
2023-08-15 18:18:44.162076,-33.0
2023-08-15 18:18:44.169766,-26.0
2023-08-15 18:18:44.177456,-11.0
2023-08-15 18:18:44.185145,2.0
2023-08-15 18:18:44.192835,21.0
2023-08-15 18:18:44.200524,35.0
2023-08-15 18:18:44.208214,49.0
2023-08-15 18:18:44.215904,64.0
2023-08-15 18:18:44.223593,80.0
2023-08-15 18:18:44.231283,104.0
2023-08-15 18:18:44.238972,126.0
2023-08-15 18:18:44.246662,142.0
2023-08-15 18:18:44.254352,159.0
2023-08-15 18:18:44.262041,173.0
2023-08-15 18:18:44.269731,180.0
2023-08-15 18:18:44.277421,176.0
2023-08-15 18:18:44.285110,164.0
2023-08-15 18:18:44.292800,142.0
2023-08-15 18:18:44.300489,95.0
2023-08-15 18:18:44.308179,33.0
2023-08-15 18:18:44.315869,-23.0
2023-08-15 18:18:44.323558,-66.0
2023-08-15 18:18:44.331248,-104.0
2023-08-15 18:18:44.338937,-135.0
2023-08-15 18:18:44.346627,-164.0
2023-08-15 18:18:44.354317,-180.0
2023-08-15 18:18:44.362006,-178.0
2023-08-15 18:18:44.369696,-173.0
2023-08-15 18:18:44.377386,-176.0
2023-08-15 18:18:44.385075,-173.0
2023-08-15 18:18:44.392765,-166.0
2023-08-15 18:18:44.400454,-159.0
2023-08-15 18:18:44.408144,-152.0
2023-08-15 18:18:44.415834,-145.0
2023-08-15 18:18:44.423523,-142.0
2023-08-15 18:18:44.431213,-133.0
2023-08-15 18:18:44.438902,-128.0
2023-08-15 18:18:44.446592,-126.0
2023-08-15 18:18:44.454282,-116.0
2023-08-15 18:18:44.461971,-114.0
2023-08-15 18:18:44.469661,-111.0
2023-08-15 18:18:44.477351,-107.0
2023-08-15 18:18:44.485040,-104.0
2023-08-15 18:18:44.492730,-111.0
2023-08-15 18:18:44.500419,-116.0
2023-08-15 18:18:44.508109,-114.0
2023-08-15 18:18:44.515799,-114.0
2023-08-15 18:18:44.523488,-119.0
2023-08-15 18:18:44.531178,-116.0
2023-08-15 18:18:44.538867,-119.0
2023-08-15 18:18:44.546557,-119.0
2023-08-15 18:18:44.554247,-114.0
2023-08-15 18:18:44.561936,-109.0
2023-08-15 18:18:44.569626,-109.0
2023-08-15 18:18:44.577316,-109.0
2023-08-15 18:18:44.585005,-109.0
2023-08-15 18:18:44.592695,-109.0
2023-08-15 18:18:44.600384,-99.0
2023-08-15 18:18:44.608074,-92.0
2023-08-15 18:18:44.615764,-92.0
2023-08-15 18:18:44.623453,-83.0
2023-08-15 18:18:44.631143,-64.0
2023-08-15 18:18:44.638832,-52.0
2023-08-15 18:18:44.646522,-59.0
2023-08-15 18:18:44.654212,-78.0
2023-08-15 18:18:44.661901,-102.0
2023-08-15 18:18:44.669591,-107.0
2023-08-15 18:18:44.677281,-95.0
2023-08-15 18:18:44.684970,-92.0
2023-08-15 18:18:44.692660,-92.0
2023-08-15 18:18:44.700349,-61.0
2023-08-15 18:18:44.708039,76.0
2023-08-15 18:18:44.715729,349.0
2023-08-15 18:18:44.723418,561.0
2023-08-15 18:18:44.731108,364.0
2023-08-15 18:18:44.738797,-202.0
2023-08-15 18:18:44.746487,-595.0
2023-08-15 18:18:44.754177,-466.0
2023-08-15 18:18:44.761866,-164.0
2023-08-15 18:18:44.769556,-83.0
2023-08-15 18:18:44.777246,-107.0
2023-08-15 18:18:44.784935,-80.0
2023-08-15 18:18:44.792625,-66.0
2023-08-15 18:18:44.800314,-78.0
2023-08-15 18:18:44.808004,-71.0
2023-08-15 18:18:44.815694,-57.0
2023-08-15 18:18:44.823383,-47.0
2023-08-15 18:18:44.831073,-38.0
2023-08-15 18:18:44.838762,-26.0
2023-08-15 18:18:44.846452,-14.0
2023-08-15 18:18:44.854142,-4.0
2023-08-15 18:18:44.861831,9.0
2023-08-15 18:18:44.869521,28.0
2023-08-15 18:18:44.877211,42.0
2023-08-15 18:18:44.884900,54.0
2023-08-15 18:18:44.892590,69.0
2023-08-15 18:18:44.900279,90.0
2023-08-15 18:18:44.907969,114.0
2023-08-15 18:18:44.915659,130.0
2023-08-15 18:18:44.923348,140.0
2023-08-15 18:18:44.931038,149.0
2023-08-15 18:18:44.938727,152.0
2023-08-15 18:18:44.946417,145.0
2023-08-15 18:18:44.954107,126.0
2023-08-15 18:18:44.961796,95.0
2023-08-15 18:18:44.969486,47.0
2023-08-15 18:18:44.977176,-14.0
2023-08-15 18:18:44.984865,-71.0
2023-08-15 18:18:44.992555,-111.0
2023-08-15 18:18:45.000244,-147.0
2023-08-15 18:18:45.007934,-173.0
2023-08-15 18:18:45.015624,-188.0
2023-08-15 18:18:45.023313,-199.0
2023-08-15 18:18:45.031003,-207.0
2023-08-15 18:18:45.038692,-199.0
2023-08-15 18:18:45.046382,-195.0
2023-08-15 18:18:45.054072,-190.0
2023-08-15 18:18:45.061761,-183.0
2023-08-15 18:18:45.069451,-173.0
2023-08-15 18:18:45.077141,-166.0
2023-08-15 18:18:45.084830,-159.0
2023-08-15 18:18:45.092520,-149.0
2023-08-15 18:18:45.100209,-142.0
2023-08-15 18:18:45.107899,-138.0
2023-08-15 18:18:45.115589,-133.0
2023-08-15 18:18:45.123278,-128.0
2023-08-15 18:18:45.130968,-123.0
2023-08-15 18:18:45.138657,-119.0
2023-08-15 18:18:45.146347,-119.0
2023-08-15 18:18:45.154037,-116.0
2023-08-15 18:18:45.161726,-114.0
2023-08-15 18:18:45.169416,-109.0
2023-08-15 18:18:45.177106,-111.0
2023-08-15 18:18:45.184795,-111.0
2023-08-15 18:18:45.192485,-109.0
2023-08-15 18:18:45.200174,-109.0
2023-08-15 18:18:45.207864,-109.0
2023-08-15 18:18:45.215554,-109.0
2023-08-15 18:18:45.223243,-109.0
2023-08-15 18:18:45.230933,-104.0
2023-08-15 18:18:45.238622,-99.0
2023-08-15 18:18:45.246312,-99.0
2023-08-15 18:18:45.254002,-102.0
2023-08-15 18:18:45.261691,-97.0
2023-08-15 18:18:45.269381,-90.0
2023-08-15 18:18:45.277071,-88.0
2023-08-15 18:18:45.284760,-78.0
2023-08-15 18:18:45.292450,-57.0
2023-08-15 18:18:45.300139,-52.0
2023-08-15 18:18:45.307829,-61.0
2023-08-15 18:18:45.315519,-78.0
2023-08-15 18:18:45.323208,-99.0
2023-08-15 18:18:45.330898,-102.0
2023-08-15 18:18:45.338587,-92.0
2023-08-15 18:18:45.346277,-90.0
2023-08-15 18:18:45.353967,-90.0
2023-08-15 18:18:45.361656,-64.0
2023-08-15 18:18:45.369346,61.0
2023-08-15 18:18:45.377036,335.0
2023-08-15 18:18:45.384725,549.0
2023-08-15 18:18:45.392415,359.0
2023-08-15 18:18:45.400104,-202.0
2023-08-15 18:18:45.407794,-609.0
2023-08-15 18:18:45.415484,-480.0
2023-08-15 18:18:45.423173,-140.0
2023-08-15 18:18:45.430863,-57.0
2023-08-15 18:18:45.438552,-111.0
2023-08-15 18:18:45.446242,-80.0
2023-08-15 18:18:45.453932,-57.0
2023-08-15 18:18:45.461621,-71.0
2023-08-15 18:18:45.469311,-73.0
2023-08-15 18:18:45.477001,-66.0
2023-08-15 18:18:45.484690,-61.0
2023-08-15 18:18:45.492380,-49.0
2023-08-15 18:18:45.500069,-40.0
2023-08-15 18:18:45.507759,-35.0
2023-08-15 18:18:45.515449,-26.0
2023-08-15 18:18:45.523138,-9.0
2023-08-15 18:18:45.530828,9.0
2023-08-15 18:18:45.538517,28.0
2023-08-15 18:18:45.546207,47.0
2023-08-15 18:18:45.553897,69.0
2023-08-15 18:18:45.561586,90.0
2023-08-15 18:18:45.569276,111.0
2023-08-15 18:18:45.576966,130.0
2023-08-15 18:18:45.584655,147.0
2023-08-15 18:18:45.592345,157.0
2023-08-15 18:18:45.600034,159.0
2023-08-15 18:18:45.607724,152.0
2023-08-15 18:18:45.615414,133.0
2023-08-15 18:18:45.623103,104.0
2023-08-15 18:18:45.630793,59.0
2023-08-15 18:18:45.638482,0.0
2023-08-15 18:18:45.646172,-54.0
2023-08-15 18:18:45.653862,-97.0
2023-08-15 18:18:45.661551,-130.0
2023-08-15 18:18:45.669241,-149.0
2023-08-15 18:18:45.676931,-164.0
2023-08-15 18:18:45.684620,-171.0
2023-08-15 18:18:45.692310,-171.0
2023-08-15 18:18:45.699999,-169.0
2023-08-15 18:18:45.707689,-164.0
2023-08-15 18:18:45.715379,-159.0
2023-08-15 18:18:45.723068,-154.0
2023-08-15 18:18:45.730758,-149.0
2023-08-15 18:18:45.738447,-142.0
2023-08-15 18:18:45.746137,-140.0
2023-08-15 18:18:45.753827,-133.0
2023-08-15 18:18:45.761516,-126.0
2023-08-15 18:18:45.769206,-121.0
2023-08-15 18:18:45.776896,-119.0
2023-08-15 18:18:45.784585,-114.0
2023-08-15 18:18:45.792275,-109.0
2023-08-15 18:18:45.799964,-107.0
2023-08-15 18:18:45.807654,-104.0
2023-08-15 18:18:45.815344,-99.0
2023-08-15 18:18:45.823033,-97.0
2023-08-15 18:18:45.830723,-99.0
2023-08-15 18:18:45.838412,-99.0
2023-08-15 18:18:45.846102,-97.0
2023-08-15 18:18:45.853792,-95.0
2023-08-15 18:18:45.861481,-97.0
2023-08-15 18:18:45.869171,-97.0
2023-08-15 18:18:45.876861,-97.0
2023-08-15 18:18:45.884550,-95.0
2023-08-15 18:18:45.892240,-92.0
2023-08-15 18:18:45.899929,-90.0
2023-08-15 18:18:45.907619,-90.0
2023-08-15 18:18:45.915309,-90.0
2023-08-15 18:18:45.922998,-83.0
2023-08-15 18:18:45.930688,-76.0
2023-08-15 18:18:45.938377,-71.0
2023-08-15 18:18:45.946067,-66.0
2023-08-15 18:18:45.953757,-49.0
2023-08-15 18:18:45.961446,-42.0
2023-08-15 18:18:45.969136,-57.0
2023-08-15 18:18:45.976826,-80.0
2023-08-15 18:18:45.984515,-99.0
2023-08-15 18:18:45.992205,-107.0
2023-08-15 18:18:45.999894,-104.0
2023-08-15 18:18:46.007584,-107.0
2023-08-15 18:18:46.015274,-109.0
2023-08-15 18:18:46.022963,-92.0
2023-08-15 18:18:46.030653,-4.0
2023-08-15 18:18:46.038342,228.0
2023-08-15 18:18:46.046032,497.0
2023-08-15 18:18:46.053722,442.0
2023-08-15 18:18:46.061411,-42.0
2023-08-15 18:18:46.069101,-547.0
2023-08-15 18:18:46.076791,-571.0
2023-08-15 18:18:46.084480,-216.0
2023-08-15 18:18:46.092170,-40.0
2023-08-15 18:18:46.099859,-99.0
2023-08-15 18:18:46.107549,-99.0
2023-08-15 18:18:46.115239,-54.0
2023-08-15 18:18:46.122928,-64.0
2023-08-15 18:18:46.130618,-69.0
2023-08-15 18:18:46.138307,-47.0
2023-08-15 18:18:46.145997,-42.0
2023-08-15 18:18:46.153687,-42.0
2023-08-15 18:18:46.161376,-26.0
2023-08-15 18:18:46.169066,-14.0
2023-08-15 18:18:46.176756,-2.0
2023-08-15 18:18:46.184445,11.0
2023-08-15 18:18:46.192135,23.0
2023-08-15 18:18:46.199824,38.0
2023-08-15 18:18:46.207514,57.0
2023-08-15 18:18:46.215204,76.0
2023-08-15 18:18:46.222893,95.0
2023-08-15 18:18:46.230583,116.0
2023-08-15 18:18:46.238272,135.0
2023-08-15 18:18:46.245962,149.0
2023-08-15 18:18:46.253652,159.0
2023-08-15 18:18:46.261341,164.0
2023-08-15 18:18:46.269031,161.0
2023-08-15 18:18:46.276721,147.0
2023-08-15 18:18:46.284410,116.0
2023-08-15 18:18:46.292100,76.0
2023-08-15 18:18:46.299789,23.0
2023-08-15 18:18:46.307479,-33.0
2023-08-15 18:18:46.315169,-83.0
2023-08-15 18:18:46.322858,-119.0
2023-08-15 18:18:46.330548,-145.0
2023-08-15 18:18:46.338237,-159.0
2023-08-15 18:18:46.345927,-164.0
2023-08-15 18:18:46.353617,-164.0
2023-08-15 18:18:46.361306,-161.0
2023-08-15 18:18:46.368996,-159.0
2023-08-15 18:18:46.376686,-159.0
2023-08-15 18:18:46.384375,-154.0
2023-08-15 18:18:46.392065,-147.0
2023-08-15 18:18:46.399754,-140.0
2023-08-15 18:18:46.407444,-133.0
2023-08-15 18:18:46.415134,-128.0
2023-08-15 18:18:46.422823,-126.0
2023-08-15 18:18:46.430513,-121.0
2023-08-15 18:18:46.438202,-114.0
2023-08-15 18:18:46.445892,-109.0
2023-08-15 18:18:46.453582,-104.0
2023-08-15 18:18:46.461271,-104.0
2023-08-15 18:18:46.468961,-102.0
2023-08-15 18:18:46.476651,-99.0
2023-08-15 18:18:46.484340,-99.0
2023-08-15 18:18:46.492030,-99.0
2023-08-15 18:18:46.499719,-99.0
2023-08-15 18:18:46.507409,-102.0
2023-08-15 18:18:46.515099,-111.0
2023-08-15 18:18:46.522788,-116.0
2023-08-15 18:18:46.530478,-111.0
2023-08-15 18:18:46.538167,-109.0
2023-08-15 18:18:46.545857,-109.0
2023-08-15 18:18:46.553547,-109.0
2023-08-15 18:18:46.561236,-107.0
2023-08-15 18:18:46.568926,-104.0
2023-08-15 18:18:46.576616,-102.0
2023-08-15 18:18:46.584305,-99.0
2023-08-15 18:18:46.591995,-95.0
2023-08-15 18:18:46.599684,-99.0
2023-08-15 18:18:46.607374,-99.0
2023-08-15 18:18:46.615064,-78.0
2023-08-15 18:18:46.622753,-57.0
2023-08-15 18:18:46.630443,-59.0
2023-08-15 18:18:46.638132,-78.0
2023-08-15 18:18:46.645822,-99.0
2023-08-15 18:18:46.653512,-111.0
2023-08-15 18:18:46.661201,-104.0
2023-08-15 18:18:46.668891,-99.0
2023-08-15 18:18:46.676581,-102.0
2023-08-15 18:18:46.684270,-95.0
2023-08-15 18:18:46.691960,-54.0
2023-08-15 18:18:46.699649,92.0
2023-08-15 18:18:46.707339,371.0
2023-08-15 18:18:46.715029,533.0
2023-08-15 18:18:46.722718,259.0
2023-08-15 18:18:46.730408,-304.0
2023-08-15 18:18:46.738097,-616.0
2023-08-15 18:18:46.745787,-409.0
2023-08-15 18:18:46.753477,-92.0
2023-08-15 18:18:46.761166,-49.0
2023-08-15 18:18:46.768856,-99.0
2023-08-15 18:18:46.776546,-66.0
2023-08-15 18:18:46.784235,-52.0
2023-08-15 18:18:46.791925,-64.0
2023-08-15 18:18:46.799614,-49.0
2023-08-15 18:18:46.807304,-33.0
2023-08-15 18:18:46.814994,-30.0
2023-08-15 18:18:46.822683,-21.0
2023-08-15 18:18:46.830373,-7.0
2023-08-15 18:18:46.838062,0.0
2023-08-15 18:18:46.845752,11.0
2023-08-15 18:18:46.853442,28.0
2023-08-15 18:18:46.861131,45.0
2023-08-15 18:18:46.868821,61.0
2023-08-15 18:18:46.876511,76.0
2023-08-15 18:18:46.884200,92.0
2023-08-15 18:18:46.891890,111.0
2023-08-15 18:18:46.899579,135.0
2023-08-15 18:18:46.907269,157.0
2023-08-15 18:18:46.914959,164.0
2023-08-15 18:18:46.922648,169.0
2023-08-15 18:18:46.930338,171.0
2023-08-15 18:18:46.938027,166.0
2023-08-15 18:18:46.945717,145.0
2023-08-15 18:18:46.953407,109.0
2023-08-15 18:18:46.961096,64.0
2023-08-15 18:18:46.968786,7.0
2023-08-15 18:18:46.976476,-47.0
2023-08-15 18:18:46.984165,-92.0
2023-08-15 18:18:46.991855,-126.0
2023-08-15 18:18:46.999544,-145.0
2023-08-15 18:18:47.007234,-154.0
2023-08-15 18:18:47.014924,-164.0
2023-08-15 18:18:47.022613,-169.0
2023-08-15 18:18:47.030303,-169.0
2023-08-15 18:18:47.037992,-166.0
2023-08-15 18:18:47.045682,-164.0
2023-08-15 18:18:47.053372,-161.0
2023-08-15 18:18:47.061061,-149.0
2023-08-15 18:18:47.068751,-138.0
2023-08-15 18:18:47.076441,-133.0
2023-08-15 18:18:47.084130,-128.0
2023-08-15 18:18:47.091820,-123.0
2023-08-15 18:18:47.099509,-121.0
2023-08-15 18:18:47.107199,-116.0
2023-08-15 18:18:47.114889,-111.0
2023-08-15 18:18:47.122578,-107.0
2023-08-15 18:18:47.130268,-104.0
2023-08-15 18:18:47.137957,-109.0
2023-08-15 18:18:47.145647,-114.0
2023-08-15 18:18:47.153337,-111.0
2023-08-15 18:18:47.161026,-109.0
2023-08-15 18:18:47.168716,-107.0
2023-08-15 18:18:47.176406,-104.0
2023-08-15 18:18:47.184095,-107.0
2023-08-15 18:18:47.191785,-107.0
2023-08-15 18:18:47.199474,-104.0
2023-08-15 18:18:47.207164,-104.0
2023-08-15 18:18:47.214854,-104.0
2023-08-15 18:18:47.222543,-102.0
2023-08-15 18:18:47.230233,-99.0
2023-08-15 18:18:47.237922,-102.0
2023-08-15 18:18:47.245612,-97.0
2023-08-15 18:18:47.253302,-85.0
2023-08-15 18:18:47.260991,-83.0
2023-08-15 18:18:47.268681,-80.0
2023-08-15 18:18:47.276371,-64.0
2023-08-15 18:18:47.284060,-45.0
2023-08-15 18:18:47.291750,-49.0
2023-08-15 18:18:47.299439,-71.0
2023-08-15 18:18:47.307129,-92.0
2023-08-15 18:18:47.314819,-97.0
2023-08-15 18:18:47.322508,-92.0
2023-08-15 18:18:47.330198,-90.0
2023-08-15 18:18:47.337887,-90.0
2023-08-15 18:18:47.345577,-71.0
2023-08-15 18:18:47.353267,19.0
2023-08-15 18:18:47.360956,247.0
2023-08-15 18:18:47.368646,523.0
2023-08-15 18:18:47.376336,509.0
2023-08-15 18:18:47.384025,35.0
2023-08-15 18:18:47.391715,-495.0
2023-08-15 18:18:47.399404,-559.0
2023-08-15 18:18:47.407094,-242.0
2023-08-15 18:18:47.414784,-59.0
2023-08-15 18:18:47.422473,-80.0
2023-08-15 18:18:47.430163,-73.0
2023-08-15 18:18:47.437852,-45.0
2023-08-15 18:18:47.445542,-52.0
2023-08-15 18:18:47.453232,-47.0
2023-08-15 18:18:47.460921,-33.0
2023-08-15 18:18:47.468611,-30.0
2023-08-15 18:18:47.476301,-23.0
2023-08-15 18:18:47.483990,-9.0
2023-08-15 18:18:47.491680,2.0
2023-08-15 18:18:47.499369,11.0
2023-08-15 18:18:47.507059,26.0
2023-08-15 18:18:47.514749,40.0
2023-08-15 18:18:47.522438,54.0
2023-08-15 18:18:47.530128,66.0
2023-08-15 18:18:47.537817,80.0
2023-08-15 18:18:47.545507,99.0
2023-08-15 18:18:47.553197,116.0
2023-08-15 18:18:47.560886,133.0
2023-08-15 18:18:47.568576,145.0
2023-08-15 18:18:47.576266,154.0
2023-08-15 18:18:47.583955,159.0
2023-08-15 18:18:47.591645,154.0
2023-08-15 18:18:47.599334,138.0
2023-08-15 18:18:47.607024,116.0
2023-08-15 18:18:47.614714,76.0
2023-08-15 18:18:47.622403,16.0
2023-08-15 18:18:47.630093,-40.0
2023-08-15 18:18:47.637782,-83.0
2023-08-15 18:18:47.645472,-116.0
2023-08-15 18:18:47.653162,-140.0
2023-08-15 18:18:47.660851,-157.0
2023-08-15 18:18:47.668541,-166.0
2023-08-15 18:18:47.676231,-176.0
2023-08-15 18:18:47.683920,-178.0
2023-08-15 18:18:47.691610,-171.0
2023-08-15 18:18:47.699299,-164.0
2023-08-15 18:18:47.706989,-164.0
2023-08-15 18:18:47.714679,-157.0
2023-08-15 18:18:47.722368,-149.0
2023-08-15 18:18:47.730058,-147.0
2023-08-15 18:18:47.737747,-140.0
2023-08-15 18:18:47.745437,-130.0
2023-08-15 18:18:47.753127,-126.0
2023-08-15 18:18:47.760816,-126.0
2023-08-15 18:18:47.768506,-121.0
2023-08-15 18:18:47.776196,-116.0
2023-08-15 18:18:47.783885,-114.0
2023-08-15 18:18:47.791575,-109.0
2023-08-15 18:18:47.799264,-104.0
2023-08-15 18:18:47.806954,-107.0
2023-08-15 18:18:47.814644,-107.0
2023-08-15 18:18:47.822333,-107.0
2023-08-15 18:18:47.830023,-107.0
2023-08-15 18:18:47.837712,-107.0
2023-08-15 18:18:47.845402,-109.0
2023-08-15 18:18:47.853092,-107.0
2023-08-15 18:18:47.860781,-107.0
2023-08-15 18:18:47.868471,-102.0
2023-08-15 18:18:47.876161,-99.0
2023-08-15 18:18:47.883850,-99.0
2023-08-15 18:18:47.891540,-99.0
2023-08-15 18:18:47.899229,-95.0
2023-08-15 18:18:47.906919,-90.0
2023-08-15 18:18:47.914609,-85.0
2023-08-15 18:18:47.922298,-73.0
2023-08-15 18:18:47.929988,-57.0
2023-08-15 18:18:47.937677,-49.0
2023-08-15 18:18:47.945367,-61.0
2023-08-15 18:18:47.953057,-83.0
2023-08-15 18:18:47.960746,-99.0
2023-08-15 18:18:47.968436,-102.0
2023-08-15 18:18:47.976126,-92.0
2023-08-15 18:18:47.983815,-92.0
2023-08-15 18:18:47.991505,-92.0
2023-08-15 18:18:47.999194,-59.0
2023-08-15 18:18:48.006884,83.0
2023-08-15 18:18:48.014574,359.0
2023-08-15 18:18:48.022263,561.0
2023-08-15 18:18:48.029953,338.0
2023-08-15 18:18:48.037642,-245.0
2023-08-15 18:18:48.045332,-618.0
2023-08-15 18:18:48.053022,-461.0
2023-08-15 18:18:48.060711,-147.0
2023-08-15 18:18:48.068401,-69.0
2023-08-15 18:18:48.076091,-95.0
2023-08-15 18:18:48.083780,-69.0
2023-08-15 18:18:48.091470,-52.0
2023-08-15 18:18:48.099159,-59.0
2023-08-15 18:18:48.106849,-45.0
2023-08-15 18:18:48.114539,-28.0
2023-08-15 18:18:48.122228,-30.0
2023-08-15 18:18:48.129918,-26.0
2023-08-15 18:18:48.137607,-7.0
2023-08-15 18:18:48.145297,4.0
2023-08-15 18:18:48.152987,14.0
2023-08-15 18:18:48.160676,30.0
2023-08-15 18:18:48.168366,45.0
2023-08-15 18:18:48.176056,59.0
2023-08-15 18:18:48.183745,78.0
2023-08-15 18:18:48.191435,99.0
2023-08-15 18:18:48.199124,121.0
2023-08-15 18:18:48.206814,145.0
2023-08-15 18:18:48.214504,157.0
2023-08-15 18:18:48.222193,159.0
2023-08-15 18:18:48.229883,166.0
2023-08-15 18:18:48.237572,171.0
2023-08-15 18:18:48.245262,159.0
2023-08-15 18:18:48.252952,140.0
2023-08-15 18:18:48.260641,97.0
2023-08-15 18:18:48.268331,40.0
2023-08-15 18:18:48.276021,-14.0
2023-08-15 18:18:48.283710,-61.0
2023-08-15 18:18:48.291400,-102.0
2023-08-15 18:18:48.299089,-135.0
2023-08-15 18:18:48.306779,-159.0
2023-08-15 18:18:48.314469,-176.0
2023-08-15 18:18:48.322158,-178.0
2023-08-15 18:18:48.329848,-176.0
2023-08-15 18:18:48.337537,-173.0
2023-08-15 18:18:48.345227,-169.0
2023-08-15 18:18:48.352917,-166.0
2023-08-15 18:18:48.360606,-164.0
2023-08-15 18:18:48.368296,-157.0
2023-08-15 18:18:48.375986,-147.0
2023-08-15 18:18:48.383675,-140.0
2023-08-15 18:18:48.391365,-135.0
2023-08-15 18:18:48.399054,-130.0
2023-08-15 18:18:48.406744,-126.0
2023-08-15 18:18:48.414434,-119.0
2023-08-15 18:18:48.422123,-114.0
2023-08-15 18:18:48.429813,-109.0
2023-08-15 18:18:48.437502,-109.0
2023-08-15 18:18:48.445192,-109.0
2023-08-15 18:18:48.452882,-104.0
2023-08-15 18:18:48.460571,-104.0
2023-08-15 18:18:48.468261,-109.0
2023-08-15 18:18:48.475951,-107.0
2023-08-15 18:18:48.483640,-102.0
2023-08-15 18:18:48.491330,-107.0
2023-08-15 18:18:48.499019,-109.0
2023-08-15 18:18:48.506709,-104.0
2023-08-15 18:18:48.514399,-104.0
2023-08-15 18:18:48.522088,-102.0
2023-08-15 18:18:48.529778,-102.0
2023-08-15 18:18:48.537467,-104.0
2023-08-15 18:18:48.545157,-107.0
2023-08-15 18:18:48.552847,-102.0
2023-08-15 18:18:48.560536,-95.0
2023-08-15 18:18:48.568226,-90.0
2023-08-15 18:18:48.575916,-85.0
2023-08-15 18:18:48.583605,-83.0
2023-08-15 18:18:48.591295,-69.0
2023-08-15 18:18:48.598984,-49.0
2023-08-15 18:18:48.606674,-49.0
2023-08-15 18:18:48.614364,-69.0
2023-08-15 18:18:48.622053,-90.0
2023-08-15 18:18:48.629743,-102.0
2023-08-15 18:18:48.637432,-97.0
2023-08-15 18:18:48.645122,-90.0
2023-08-15 18:18:48.652812,-88.0
2023-08-15 18:18:48.660501,-80.0
2023-08-15 18:18:48.668191,-26.0
2023-08-15 18:18:48.675881,159.0
2023-08-15 18:18:48.683570,452.0
2023-08-15 18:18:48.691260,528.0
2023-08-15 18:18:48.698949,135.0
2023-08-15 18:18:48.706639,-437.0
2023-08-15 18:18:48.714329,-616.0
2023-08-15 18:18:48.722018,-309.0
2023-08-15 18:18:48.729708,-45.0
2023-08-15 18:18:48.737397,-59.0
2023-08-15 18:18:48.745087,-80.0
2023-08-15 18:18:48.752777,-38.0
2023-08-15 18:18:48.760466,-38.0
2023-08-15 18:18:48.768156,-47.0
2023-08-15 18:18:48.775846,-30.0
2023-08-15 18:18:48.783535,-23.0
2023-08-15 18:18:48.791225,-23.0
2023-08-15 18:18:48.798914,-14.0
2023-08-15 18:18:48.806604,-7.0
2023-08-15 18:18:48.814294,2.0
2023-08-15 18:18:48.821983,16.0
2023-08-15 18:18:48.829673,33.0
2023-08-15 18:18:48.837362,47.0
2023-08-15 18:18:48.845052,66.0
2023-08-15 18:18:48.852742,88.0
2023-08-15 18:18:48.860431,107.0
2023-08-15 18:18:48.868121,128.0
2023-08-15 18:18:48.875811,147.0
2023-08-15 18:18:48.883500,164.0
2023-08-15 18:18:48.891190,173.0
2023-08-15 18:18:48.898879,176.0
2023-08-15 18:18:48.906569,173.0
2023-08-15 18:18:48.914259,164.0
2023-08-15 18:18:48.921948,138.0
2023-08-15 18:18:48.929638,97.0
2023-08-15 18:18:48.937327,42.0
2023-08-15 18:18:48.945017,-14.0
2023-08-15 18:18:48.952707,-66.0
2023-08-15 18:18:48.960396,-107.0
2023-08-15 18:18:48.968086,-130.0
2023-08-15 18:18:48.975776,-145.0
2023-08-15 18:18:48.983465,-157.0
2023-08-15 18:18:48.991155,-161.0
2023-08-15 18:18:48.998844,-159.0
2023-08-15 18:18:49.006534,-157.0
2023-08-15 18:18:49.014224,-154.0
2023-08-15 18:18:49.021913,-149.0
2023-08-15 18:18:49.029603,-147.0
2023-08-15 18:18:49.037292,-147.0
2023-08-15 18:18:49.044982,-147.0
2023-08-15 18:18:49.052672,-135.0
2023-08-15 18:18:49.060361,-123.0
2023-08-15 18:18:49.068051,-121.0
2023-08-15 18:18:49.075741,-119.0
2023-08-15 18:18:49.083430,-111.0
2023-08-15 18:18:49.091120,-107.0
2023-08-15 18:18:49.098809,-107.0
2023-08-15 18:18:49.106499,-102.0
2023-08-15 18:18:49.114189,-99.0
2023-08-15 18:18:49.121878,-99.0
2023-08-15 18:18:49.129568,-95.0
2023-08-15 18:18:49.137257,-95.0
2023-08-15 18:18:49.144947,-95.0
2023-08-15 18:18:49.152637,-95.0
2023-08-15 18:18:49.160326,-95.0
2023-08-15 18:18:49.168016,-97.0
2023-08-15 18:18:49.175706,-97.0
2023-08-15 18:18:49.183395,-92.0
2023-08-15 18:18:49.191085,-92.0
2023-08-15 18:18:49.198774,-99.0
2023-08-15 18:18:49.206464,-102.0
2023-08-15 18:18:49.214154,-97.0
2023-08-15 18:18:49.221843,-92.0
2023-08-15 18:18:49.229533,-90.0
2023-08-15 18:18:49.237222,-90.0
2023-08-15 18:18:49.244912,-83.0
2023-08-15 18:18:49.252602,-76.0
2023-08-15 18:18:49.260291,-71.0
2023-08-15 18:18:49.267981,-59.0
2023-08-15 18:18:49.275671,-45.0
2023-08-15 18:18:49.283360,-40.0
2023-08-15 18:18:49.291050,-49.0
2023-08-15 18:18:49.298739,-71.0
2023-08-15 18:18:49.306429,-90.0
2023-08-15 18:18:49.314119,-88.0
2023-08-15 18:18:49.321808,-80.0
2023-08-15 18:18:49.329498,-80.0
2023-08-15 18:18:49.337187,-80.0
2023-08-15 18:18:49.344877,-52.0
2023-08-15 18:18:49.352567,83.0
2023-08-15 18:18:49.360256,364.0
2023-08-15 18:18:49.367946,545.0
2023-08-15 18:18:49.375636,290.0
2023-08-15 18:18:49.383325,-278.0
2023-08-15 18:18:49.391015,-614.0
2023-08-15 18:18:49.398704,-418.0
2023-08-15 18:18:49.406394,-92.0
2023-08-15 18:18:49.414084,-38.0
2023-08-15 18:18:49.421773,-83.0
2023-08-15 18:18:49.429463,-52.0
2023-08-15 18:18:49.437152,-35.0
2023-08-15 18:18:49.444842,-47.0
2023-08-15 18:18:49.452532,-38.0
2023-08-15 18:18:49.460221,-28.0
2023-08-15 18:18:49.467911,-28.0
2023-08-15 18:18:49.475601,-14.0
2023-08-15 18:18:49.483290,0.0
2023-08-15 18:18:49.490980,11.0
2023-08-15 18:18:49.498669,26.0
2023-08-15 18:18:49.506359,40.0
2023-08-15 18:18:49.514049,54.0
2023-08-15 18:18:49.521738,73.0
2023-08-15 18:18:49.529428,90.0
2023-08-15 18:18:49.537117,102.0
2023-08-15 18:18:49.544807,116.0
2023-08-15 18:18:49.552497,133.0
2023-08-15 18:18:49.560186,147.0
2023-08-15 18:18:49.567876,161.0
2023-08-15 18:18:49.575566,169.0
2023-08-15 18:18:49.583255,171.0
2023-08-15 18:18:49.590945,164.0
2023-08-15 18:18:49.598634,145.0
2023-08-15 18:18:49.606324,109.0
2023-08-15 18:18:49.614014,59.0
2023-08-15 18:18:49.621703,4.0
2023-08-15 18:18:49.629393,-42.0
2023-08-15 18:18:49.637082,-85.0
2023-08-15 18:18:49.644772,-116.0
2023-08-15 18:18:49.652462,-138.0
2023-08-15 18:18:49.660151,-149.0
2023-08-15 18:18:49.667841,-154.0
2023-08-15 18:18:49.675531,-152.0
2023-08-15 18:18:49.683220,-147.0
2023-08-15 18:18:49.690910,-147.0
2023-08-15 18:18:49.698599,-147.0
2023-08-15 18:18:49.706289,-145.0
2023-08-15 18:18:49.713979,-135.0
2023-08-15 18:18:49.721668,-130.0
2023-08-15 18:18:49.729358,-123.0
2023-08-15 18:18:49.737047,-119.0
2023-08-15 18:18:49.744737,-114.0
2023-08-15 18:18:49.752427,-111.0
2023-08-15 18:18:49.760116,-107.0
2023-08-15 18:18:49.767806,-99.0
2023-08-15 18:18:49.775496,-95.0
2023-08-15 18:18:49.783185,-92.0
2023-08-15 18:18:49.790875,-95.0
2023-08-15 18:18:49.798564,-92.0
2023-08-15 18:18:49.806254,-90.0
2023-08-15 18:18:49.813944,-90.0
2023-08-15 18:18:49.821633,-90.0
2023-08-15 18:18:49.829323,-88.0
2023-08-15 18:18:49.837012,-90.0
2023-08-15 18:18:49.844702,-92.0
2023-08-15 18:18:49.852392,-92.0
2023-08-15 18:18:49.860081,-90.0
2023-08-15 18:18:49.867771,-88.0
2023-08-15 18:18:49.875461,-88.0
2023-08-15 18:18:49.883150,-90.0
2023-08-15 18:18:49.890840,-88.0
2023-08-15 18:18:49.898529,-80.0
2023-08-15 18:18:49.906219,-78.0
2023-08-15 18:18:49.913909,-78.0
2023-08-15 18:18:49.921598,-83.0
2023-08-15 18:18:49.929288,-85.0
2023-08-15 18:18:49.936977,-80.0
2023-08-15 18:18:49.944667,-73.0
2023-08-15 18:18:49.952357,-64.0
2023-08-15 18:18:49.960046,-45.0
2023-08-15 18:18:49.967736,-40.0
2023-08-15 18:18:49.975426,-57.0
2023-08-15 18:18:49.983115,-80.0
2023-08-15 18:18:49.990805,-97.0
2023-08-15 18:18:49.998494,-95.0
2023-08-15 18:18:50.006184,-83.0
2023-08-15 18:18:50.013874,-85.0
2023-08-15 18:18:50.021563,-80.0
2023-08-15 18:18:50.029253,-47.0
2023-08-15 18:18:50.036942,78.0
2023-08-15 18:18:50.044632,340.0
2023-08-15 18:18:50.052322,537.0
2023-08-15 18:18:50.060011,323.0
2023-08-15 18:18:50.067701,-238.0
2023-08-15 18:18:50.075391,-602.0
2023-08-15 18:18:50.083080,-445.0
2023-08-15 18:18:50.090770,-123.0
2023-08-15 18:18:50.098459,-52.0
2023-08-15 18:18:50.106149,-92.0
2023-08-15 18:18:50.113839,-61.0
2023-08-15 18:18:50.121528,-45.0
2023-08-15 18:18:50.129218,-57.0
2023-08-15 18:18:50.136907,-49.0
2023-08-15 18:18:50.144597,-33.0
2023-08-15 18:18:50.152287,-26.0
2023-08-15 18:18:50.159976,-16.0
2023-08-15 18:18:50.167666,-2.0
2023-08-15 18:18:50.175355,7.0
2023-08-15 18:18:50.183045,16.0
2023-08-15 18:18:50.190735,26.0
2023-08-15 18:18:50.198424,38.0
2023-08-15 18:18:50.206114,54.0
2023-08-15 18:18:50.213804,73.0
2023-08-15 18:18:50.221493,88.0
2023-08-15 18:18:50.229183,107.0
2023-08-15 18:18:50.236872,128.0
2023-08-15 18:18:50.244562,145.0
2023-08-15 18:18:50.252252,157.0
2023-08-15 18:18:50.259941,166.0
2023-08-15 18:18:50.267631,169.0
2023-08-15 18:18:50.275320,164.0
2023-08-15 18:18:50.283010,145.0
2023-08-15 18:18:50.290700,109.0
2023-08-15 18:18:50.298389,64.0
2023-08-15 18:18:50.306079,11.0
2023-08-15 18:18:50.313769,-40.0
2023-08-15 18:18:50.321458,-85.0
2023-08-15 18:18:50.329148,-116.0
2023-08-15 18:18:50.336837,-135.0
2023-08-15 18:18:50.344527,-149.0
2023-08-15 18:18:50.352217,-154.0
2023-08-15 18:18:50.359906,-152.0
2023-08-15 18:18:50.367596,-149.0
2023-08-15 18:18:50.375285,-147.0
2023-08-15 18:18:50.382975,-147.0
2023-08-15 18:18:50.390665,-140.0
2023-08-15 18:18:50.398354,-133.0
2023-08-15 18:18:50.406044,-128.0
2023-08-15 18:18:50.413734,-123.0
2023-08-15 18:18:50.421423,-116.0
2023-08-15 18:18:50.429113,-109.0
2023-08-15 18:18:50.436802,-107.0
2023-08-15 18:18:50.444492,-107.0
2023-08-15 18:18:50.452182,-97.0
2023-08-15 18:18:50.459871,-92.0
2023-08-15 18:18:50.467561,-95.0
2023-08-15 18:18:50.475250,-95.0
2023-08-15 18:18:50.482940,-92.0
2023-08-15 18:18:50.490630,-92.0
2023-08-15 18:18:50.498319,-90.0
2023-08-15 18:18:50.506009,-92.0
2023-08-15 18:18:50.513699,-99.0
2023-08-15 18:18:50.521388,-107.0
2023-08-15 18:18:50.529078,-104.0
2023-08-15 18:18:50.536767,-99.0
2023-08-15 18:18:50.544457,-104.0
2023-08-15 18:18:50.552147,-114.0
2023-08-15 18:18:50.559836,-119.0
2023-08-15 18:18:50.567526,-116.0
2023-08-15 18:18:50.575215,-114.0
2023-08-15 18:18:50.582905,-109.0
2023-08-15 18:18:50.590595,-107.0
2023-08-15 18:18:50.598284,-107.0
2023-08-15 18:18:50.605974,-99.0
2023-08-15 18:18:50.613664,-88.0
2023-08-15 18:18:50.621353,-85.0
2023-08-15 18:18:50.629043,-80.0
2023-08-15 18:18:50.636732,-57.0
2023-08-15 18:18:50.644422,-42.0
2023-08-15 18:18:50.652112,-52.0
2023-08-15 18:18:50.659801,-71.0
2023-08-15 18:18:50.667491,-92.0
2023-08-15 18:18:50.675180,-97.0
2023-08-15 18:18:50.682870,-90.0
2023-08-15 18:18:50.690560,-90.0
2023-08-15 18:18:50.698249,-90.0
2023-08-15 18:18:50.705939,-57.0
2023-08-15 18:18:50.713629,73.0
2023-08-15 18:18:50.721318,333.0
2023-08-15 18:18:50.729008,557.0
2023-08-15 18:18:50.736697,385.0
2023-08-15 18:18:50.744387,-171.0
2023-08-15 18:18:50.752077,-578.0
2023-08-15 18:18:50.759766,-480.0
2023-08-15 18:18:50.767456,-178.0
2023-08-15 18:18:50.775145,-73.0
2023-08-15 18:18:50.782835,-90.0
2023-08-15 18:18:50.790525,-64.0
2023-08-15 18:18:50.798214,-47.0
2023-08-15 18:18:50.805904,-59.0
2023-08-15 18:18:50.813594,-47.0
2023-08-15 18:18:50.821283,-30.0
2023-08-15 18:18:50.828973,-26.0
2023-08-15 18:18:50.836662,-16.0
2023-08-15 18:18:50.844352,2.0
2023-08-15 18:18:50.852042,11.0
2023-08-15 18:18:50.859731,16.0
2023-08-15 18:18:50.867421,33.0
2023-08-15 18:18:50.875110,47.0
2023-08-15 18:18:50.882800,57.0
2023-08-15 18:18:50.890490,76.0
2023-08-15 18:18:50.898179,95.0
2023-08-15 18:18:50.905869,114.0
2023-08-15 18:18:50.913559,135.0
2023-08-15 18:18:50.921248,149.0
2023-08-15 18:18:50.928938,159.0
2023-08-15 18:18:50.936627,166.0
2023-08-15 18:18:50.944317,173.0
2023-08-15 18:18:50.952007,169.0
2023-08-15 18:18:50.959696,149.0
2023-08-15 18:18:50.967386,116.0
2023-08-15 18:18:50.975075,66.0
2023-08-15 18:18:50.982765,11.0
2023-08-15 18:18:50.990455,-40.0
2023-08-15 18:18:50.998144,-85.0
2023-08-15 18:18:51.005834,-119.0
2023-08-15 18:18:51.013524,-140.0
2023-08-15 18:18:51.021213,-149.0
2023-08-15 18:18:51.028903,-154.0
2023-08-15 18:18:51.036592,-157.0
2023-08-15 18:18:51.044282,-159.0
2023-08-15 18:18:51.051972,-159.0
2023-08-15 18:18:51.059661,-157.0
2023-08-15 18:18:51.067351,-149.0
2023-08-15 18:18:51.075040,-142.0
2023-08-15 18:18:51.082730,-138.0
2023-08-15 18:18:51.090420,-133.0
2023-08-15 18:18:51.098109,-133.0
2023-08-15 18:18:51.105799,-133.0
2023-08-15 18:18:51.113489,-123.0
2023-08-15 18:18:51.121178,-116.0
2023-08-15 18:18:51.128868,-114.0
2023-08-15 18:18:51.136557,-111.0
2023-08-15 18:18:51.144247,-109.0
2023-08-15 18:18:51.151937,-107.0
2023-08-15 18:18:51.159626,-104.0
2023-08-15 18:18:51.167316,-104.0
2023-08-15 18:18:51.175005,-104.0
2023-08-15 18:18:51.182695,-107.0
2023-08-15 18:18:51.190385,-107.0
2023-08-15 18:18:51.198074,-102.0
2023-08-15 18:18:51.205764,-99.0
2023-08-15 18:18:51.213454,-104.0
2023-08-15 18:18:51.221143,-107.0
2023-08-15 18:18:51.228833,-102.0
2023-08-15 18:18:51.236522,-99.0
2023-08-15 18:18:51.244212,-99.0
2023-08-15 18:18:51.251902,-95.0
2023-08-15 18:18:51.259591,-90.0
2023-08-15 18:18:51.267281,-88.0
2023-08-15 18:18:51.274970,-88.0
2023-08-15 18:18:51.282660,-80.0
2023-08-15 18:18:51.290350,-73.0
2023-08-15 18:18:51.298039,-71.0
2023-08-15 18:18:51.305729,-57.0
2023-08-15 18:18:51.313419,-40.0
2023-08-15 18:18:51.321108,-42.0
2023-08-15 18:18:51.328798,-52.0
2023-08-15 18:18:51.336487,-71.0
2023-08-15 18:18:51.344177,-88.0
2023-08-15 18:18:51.351867,-83.0
2023-08-15 18:18:51.359556,-78.0
2023-08-15 18:18:51.367246,-80.0
2023-08-15 18:18:51.374935,-73.0
2023-08-15 18:18:51.382625,-19.0
2023-08-15 18:18:51.390315,154.0
2023-08-15 18:18:51.398004,440.0
2023-08-15 18:18:51.405694,547.0
2023-08-15 18:18:51.413384,188.0
2023-08-15 18:18:51.421073,-390.0
2023-08-15 18:18:51.428763,-616.0
2023-08-15 18:18:51.436452,-354.0
2023-08-15 18:18:51.444142,-88.0
2023-08-15 18:18:51.451832,-69.0
2023-08-15 18:18:51.459521,-78.0
2023-08-15 18:18:51.467211,-42.0
2023-08-15 18:18:51.474900,-40.0
2023-08-15 18:18:51.482590,-47.0
2023-08-15 18:18:51.490280,-33.0
2023-08-15 18:18:51.497969,-23.0
2023-08-15 18:18:51.505659,-21.0
2023-08-15 18:18:51.513349,-9.0
2023-08-15 18:18:51.521038,2.0
2023-08-15 18:18:51.528728,11.0
2023-08-15 18:18:51.536417,21.0
2023-08-15 18:18:51.544107,33.0
2023-08-15 18:18:51.551797,45.0
2023-08-15 18:18:51.559486,59.0
2023-08-15 18:18:51.567176,78.0
2023-08-15 18:18:51.574865,99.0
2023-08-15 18:18:51.582555,119.0
2023-08-15 18:18:51.590245,130.0
2023-08-15 18:18:51.597934,142.0
2023-08-15 18:18:51.605624,157.0
2023-08-15 18:18:51.613314,164.0
2023-08-15 18:18:51.621003,159.0
2023-08-15 18:18:51.628693,149.0
2023-08-15 18:18:51.636382,126.0
2023-08-15 18:18:51.644072,85.0
2023-08-15 18:18:51.651762,38.0
2023-08-15 18:18:51.659451,-19.0
2023-08-15 18:18:51.667141,-71.0
2023-08-15 18:18:51.674830,-111.0
2023-08-15 18:18:51.682520,-140.0
2023-08-15 18:18:51.690210,-159.0
2023-08-15 18:18:51.697899,-164.0
2023-08-15 18:18:51.705589,-166.0
2023-08-15 18:18:51.713279,-166.0
2023-08-15 18:18:51.720968,-161.0
2023-08-15 18:18:51.728658,-161.0
2023-08-15 18:18:51.736347,-159.0
2023-08-15 18:18:51.744037,-152.0
2023-08-15 18:18:51.751727,-145.0
2023-08-15 18:18:51.759416,-135.0
2023-08-15 18:18:51.767106,-133.0
2023-08-15 18:18:51.774795,-133.0
2023-08-15 18:18:51.782485,-123.0
2023-08-15 18:18:51.790175,-114.0
2023-08-15 18:18:51.797864,-111.0
2023-08-15 18:18:51.805554,-107.0
2023-08-15 18:18:51.813244,-102.0
2023-08-15 18:18:51.820933,-99.0
2023-08-15 18:18:51.828623,-97.0
2023-08-15 18:18:51.836312,-95.0
2023-08-15 18:18:51.844002,-92.0
2023-08-15 18:18:51.851692,-92.0
2023-08-15 18:18:51.859381,-92.0
2023-08-15 18:18:51.867071,-97.0
2023-08-15 18:18:51.874760,-97.0
2023-08-15 18:18:51.882450,-92.0
2023-08-15 18:18:51.890140,-95.0
2023-08-15 18:18:51.897829,-95.0
2023-08-15 18:18:51.905519,-95.0
2023-08-15 18:18:51.913209,-97.0
2023-08-15 18:18:51.920898,-97.0
2023-08-15 18:18:51.928588,-92.0
2023-08-15 18:18:51.936277,-88.0
2023-08-15 18:18:51.943967,-90.0
2023-08-15 18:18:51.951657,-92.0
2023-08-15 18:18:51.959346,-88.0
2023-08-15 18:18:51.967036,-78.0
2023-08-15 18:18:51.974725,-76.0
2023-08-15 18:18:51.982415,-71.0
2023-08-15 18:18:51.990105,-52.0
2023-08-15 18:18:51.997794,-40.0
2023-08-15 18:18:52.005484,-49.0
2023-08-15 18:18:52.013174,-66.0
2023-08-15 18:18:52.020863,-83.0
2023-08-15 18:18:52.028553,-92.0
2023-08-15 18:18:52.036242,-88.0
2023-08-15 18:18:52.043932,-88.0
2023-08-15 18:18:52.051622,-92.0
2023-08-15 18:18:52.059311,-88.0
2023-08-15 18:18:52.067001,-11.0
2023-08-15 18:18:52.074690,209.0
2023-08-15 18:18:52.082380,490.0
2023-08-15 18:18:52.090070,476.0
2023-08-15 18:18:52.097759,4.0
2023-08-15 18:18:52.105449,-523.0
2023-08-15 18:18:52.113139,-592.0
2023-08-15 18:18:52.120828,-254.0
2023-08-15 18:18:52.128518,-49.0
2023-08-15 18:18:52.136207,-85.0
2023-08-15 18:18:52.143897,-90.0
2023-08-15 18:18:52.151587,-52.0
2023-08-15 18:18:52.159276,-61.0
2023-08-15 18:18:52.166966,-69.0
2023-08-15 18:18:52.174655,-57.0
2023-08-15 18:18:52.182345,-59.0
2023-08-15 18:18:52.190035,-57.0
2023-08-15 18:18:52.197724,-38.0
2023-08-15 18:18:52.205414,-28.0
2023-08-15 18:18:52.213104,-19.0
2023-08-15 18:18:52.220793,-2.0
2023-08-15 18:18:52.228483,9.0
2023-08-15 18:18:52.236172,26.0
2023-08-15 18:18:52.243862,47.0
2023-08-15 18:18:52.251552,69.0
2023-08-15 18:18:52.259241,85.0
2023-08-15 18:18:52.266931,104.0
2023-08-15 18:18:52.274620,126.0
2023-08-15 18:18:52.282310,142.0
2023-08-15 18:18:52.290000,152.0
2023-08-15 18:18:52.297689,159.0
2023-08-15 18:18:52.305379,157.0
2023-08-15 18:18:52.313069,142.0
2023-08-15 18:18:52.320758,114.0
2023-08-15 18:18:52.328448,73.0
2023-08-15 18:18:52.336137,23.0
2023-08-15 18:18:52.343827,-33.0
2023-08-15 18:18:52.351517,-80.0
2023-08-15 18:18:52.359206,-116.0
2023-08-15 18:18:52.366896,-140.0
2023-08-15 18:18:52.374585,-157.0
2023-08-15 18:18:52.382275,-164.0
2023-08-15 18:18:52.389965,-166.0
2023-08-15 18:18:52.397654,-164.0
2023-08-15 18:18:52.405344,-164.0
2023-08-15 18:18:52.413034,-161.0
2023-08-15 18:18:52.420723,-154.0
2023-08-15 18:18:52.428413,-149.0
2023-08-15 18:18:52.436102,-142.0
2023-08-15 18:18:52.443792,-135.0
2023-08-15 18:18:52.451482,-130.0
2023-08-15 18:18:52.459171,-126.0
2023-08-15 18:18:52.466861,-121.0
2023-08-15 18:18:52.474550,-114.0
2023-08-15 18:18:52.482240,-111.0
2023-08-15 18:18:52.489930,-109.0
2023-08-15 18:18:52.497619,-107.0
2023-08-15 18:18:52.505309,-104.0
2023-08-15 18:18:52.512999,-102.0
2023-08-15 18:18:52.520688,-102.0
2023-08-15 18:18:52.528378,-97.0
2023-08-15 18:18:52.536067,-97.0
2023-08-15 18:18:52.543757,-102.0
2023-08-15 18:18:52.551447,-99.0
2023-08-15 18:18:52.559136,-102.0
2023-08-15 18:18:52.566826,-107.0
2023-08-15 18:18:52.574515,-109.0
2023-08-15 18:18:52.582205,-107.0
2023-08-15 18:18:52.589895,-107.0
2023-08-15 18:18:52.597584,-107.0
2023-08-15 18:18:52.605274,-102.0
2023-08-15 18:18:52.612964,-99.0
2023-08-15 18:18:52.620653,-95.0
2023-08-15 18:18:52.628343,-92.0
2023-08-15 18:18:52.636032,-92.0
2023-08-15 18:18:52.643722,-90.0
2023-08-15 18:18:52.651412,-85.0
2023-08-15 18:18:52.659101,-80.0
2023-08-15 18:18:52.666791,-76.0
2023-08-15 18:18:52.674480,-61.0
2023-08-15 18:18:52.682170,-47.0
2023-08-15 18:18:52.689860,-49.0
2023-08-15 18:18:52.697549,-69.0
2023-08-15 18:18:52.705239,-90.0
2023-08-15 18:18:52.712929,-104.0
2023-08-15 18:18:52.720618,-107.0
2023-08-15 18:18:52.728308,-104.0
2023-08-15 18:18:52.735997,-102.0
2023-08-15 18:18:52.743687,-92.0
2023-08-15 18:18:52.751377,-33.0
2023-08-15 18:18:52.759066,157.0
2023-08-15 18:18:52.766756,430.0
2023-08-15 18:18:52.774445,476.0
2023-08-15 18:18:52.782135,73.0
2023-08-15 18:18:52.789825,-473.0
2023-08-15 18:18:52.797514,-621.0
2023-08-15 18:18:52.805204,-314.0
2023-08-15 18:18:52.812894,-71.0
2023-08-15 18:18:52.820583,-88.0
2023-08-15 18:18:52.828273,-102.0
2023-08-15 18:18:52.835962,-57.0
2023-08-15 18:18:52.843652,-57.0
2023-08-15 18:18:52.851342,-71.0
2023-08-15 18:18:52.859031,-57.0
2023-08-15 18:18:52.866721,-42.0
2023-08-15 18:18:52.874410,-40.0
2023-08-15 18:18:52.882100,-30.0
2023-08-15 18:18:52.889790,-14.0
2023-08-15 18:18:52.897479,-4.0
2023-08-15 18:18:52.905169,4.0
2023-08-15 18:18:52.912859,23.0
2023-08-15 18:18:52.920548,42.0
2023-08-15 18:18:52.928238,57.0
2023-08-15 18:18:52.935927,73.0
2023-08-15 18:18:52.943617,92.0
2023-08-15 18:18:52.951307,114.0
2023-08-15 18:18:52.958996,138.0
2023-08-15 18:18:52.966686,157.0
2023-08-15 18:18:52.974375,166.0
2023-08-15 18:18:52.982065,171.0
2023-08-15 18:18:52.989755,171.0
2023-08-15 18:18:52.997444,157.0
2023-08-15 18:18:53.005134,135.0
2023-08-15 18:18:53.012824,102.0
2023-08-15 18:18:53.020513,49.0
2023-08-15 18:18:53.028203,-7.0
2023-08-15 18:18:53.035892,-59.0
2023-08-15 18:18:53.043582,-95.0
2023-08-15 18:18:53.051272,-116.0
2023-08-15 18:18:53.058961,-138.0
2023-08-15 18:18:53.066651,-157.0
2023-08-15 18:18:53.074340,-161.0
2023-08-15 18:18:53.082030,-159.0
2023-08-15 18:18:53.089720,-154.0
2023-08-15 18:18:53.097409,-152.0
2023-08-15 18:18:53.105099,-149.0
2023-08-15 18:18:53.112789,-145.0
2023-08-15 18:18:53.120478,-138.0
2023-08-15 18:18:53.128168,-128.0
2023-08-15 18:18:53.135857,-123.0
2023-08-15 18:18:53.143547,-121.0
2023-08-15 18:18:53.151237,-116.0
2023-08-15 18:18:53.158926,-111.0
2023-08-15 18:18:53.166616,-109.0
2023-08-15 18:18:53.174305,-107.0
2023-08-15 18:18:53.181995,-99.0
2023-08-15 18:18:53.189685,-95.0
2023-08-15 18:18:53.197374,-95.0
2023-08-15 18:18:53.205064,-97.0
2023-08-15 18:18:53.212754,-99.0
2023-08-15 18:18:53.220443,-99.0
2023-08-15 18:18:53.228133,-95.0
2023-08-15 18:18:53.235822,-90.0
2023-08-15 18:18:53.243512,-92.0
2023-08-15 18:18:53.251202,-97.0
2023-08-15 18:18:53.258891,-99.0
2023-08-15 18:18:53.266581,-95.0
2023-08-15 18:18:53.274270,-90.0
2023-08-15 18:18:53.281960,-92.0
2023-08-15 18:18:53.289650,-92.0
2023-08-15 18:18:53.297339,-92.0
2023-08-15 18:18:53.305029,-97.0
2023-08-15 18:18:53.312719,-102.0
2023-08-15 18:18:53.320408,-95.0
2023-08-15 18:18:53.328098,-85.0
2023-08-15 18:18:53.335787,-80.0
2023-08-15 18:18:53.343477,-71.0
2023-08-15 18:18:53.351167,-52.0
2023-08-15 18:18:53.358856,-47.0
2023-08-15 18:18:53.366546,-54.0
2023-08-15 18:18:53.374235,-69.0
2023-08-15 18:18:53.381925,-95.0
2023-08-15 18:18:53.389615,-109.0
2023-08-15 18:18:53.397304,-97.0
2023-08-15 18:18:53.404994,-88.0
2023-08-15 18:18:53.412684,-92.0
2023-08-15 18:18:53.420373,-69.0
2023-08-15 18:18:53.428063,47.0
2023-08-15 18:18:53.435752,302.0
2023-08-15 18:18:53.443442,533.0
2023-08-15 18:18:53.451132,399.0
2023-08-15 18:18:53.458821,-130.0
2023-08-15 18:18:53.466511,-566.0
2023-08-15 18:18:53.474200,-502.0
2023-08-15 18:18:53.481890,-183.0
2023-08-15 18:18:53.489580,-69.0
2023-08-15 18:18:53.497269,-97.0
2023-08-15 18:18:53.504959,-69.0
2023-08-15 18:18:53.512649,-45.0
2023-08-15 18:18:53.520338,-57.0
2023-08-15 18:18:53.528028,-57.0
2023-08-15 18:18:53.535717,-42.0
2023-08-15 18:18:53.543407,-33.0
2023-08-15 18:18:53.551097,-21.0
2023-08-15 18:18:53.558786,-14.0
2023-08-15 18:18:53.566476,-11.0
2023-08-15 18:18:53.574165,-4.0
2023-08-15 18:18:53.581855,9.0
2023-08-15 18:18:53.589545,26.0
2023-08-15 18:18:53.597234,45.0
2023-08-15 18:18:53.604924,64.0
2023-08-15 18:18:53.612614,78.0
2023-08-15 18:18:53.620303,97.0
2023-08-15 18:18:53.627993,121.0
2023-08-15 18:18:53.635682,138.0
2023-08-15 18:18:53.643372,145.0
2023-08-15 18:18:53.651062,157.0
2023-08-15 18:18:53.658751,161.0
2023-08-15 18:18:53.666441,154.0
2023-08-15 18:18:53.674130,138.0
2023-08-15 18:18:53.681820,109.0
2023-08-15 18:18:53.689510,64.0
2023-08-15 18:18:53.697199,11.0
2023-08-15 18:18:53.704889,-35.0
2023-08-15 18:18:53.712579,-78.0
2023-08-15 18:18:53.720268,-116.0
2023-08-15 18:18:53.727958,-138.0
2023-08-15 18:18:53.735647,-147.0
2023-08-15 18:18:53.743337,-154.0
2023-08-15 18:18:53.751027,-161.0
2023-08-15 18:18:53.758716,-161.0
2023-08-15 18:18:53.766406,-152.0
2023-08-15 18:18:53.774095,-145.0
2023-08-15 18:18:53.781785,-142.0
2023-08-15 18:18:53.789475,-140.0
2023-08-15 18:18:53.797164,-133.0
2023-08-15 18:18:53.804854,-128.0
2023-08-15 18:18:53.812544,-123.0
2023-08-15 18:18:53.820233,-114.0
2023-08-15 18:18:53.827923,-107.0
2023-08-15 18:18:53.835612,-104.0
2023-08-15 18:18:53.843302,-104.0
2023-08-15 18:18:53.850992,-102.0
2023-08-15 18:18:53.858681,-99.0
2023-08-15 18:18:53.866371,-97.0
2023-08-15 18:18:53.874060,-97.0
2023-08-15 18:18:53.881750,-104.0
2023-08-15 18:18:53.889440,-114.0
2023-08-15 18:18:53.897129,-116.0
2023-08-15 18:18:53.904819,-111.0
2023-08-15 18:18:53.912509,-109.0
