time,ECG
2023-08-09 17:47:18.348908,-28.0
2023-08-09 17:47:18.356598,-35.0
2023-08-09 17:47:18.364289,-64.0
2023-08-09 17:47:18.371980,-81.0
2023-08-09 17:47:18.379670,-81.0
2023-08-09 17:47:18.387361,-83.0
2023-08-09 17:47:18.395051,-76.0
2023-08-09 17:47:18.402742,-66.0
2023-08-09 17:47:18.410432,-71.0
2023-08-09 17:47:18.418123,-74.0
2023-08-09 17:47:18.425813,-69.0
2023-08-09 17:47:18.433504,-71.0
2023-08-09 17:47:18.441194,-66.0
2023-08-09 17:47:18.448885,76.0
2023-08-09 17:47:18.456575,487.0
2023-08-09 17:47:18.464266,1000.0
2023-08-09 17:47:18.471957,1244.0
2023-08-09 17:47:18.479647,993.0
2023-08-09 17:47:18.487338,420.0
2023-08-09 17:47:18.495028,-35.0
2023-08-09 17:47:18.502719,-155.0
2023-08-09 17:47:18.510409,-133.0
2023-08-09 17:47:18.518100,-183.0
2023-08-09 17:47:18.525790,-224.0
2023-08-09 17:47:18.533481,-188.0
2023-08-09 17:47:18.541171,-167.0
2023-08-09 17:47:18.548862,-191.0
2023-08-09 17:47:18.556553,-186.0
2023-08-09 17:47:18.564243,-136.0
2023-08-09 17:47:18.571934,-119.0
2023-08-09 17:47:18.579624,-128.0
2023-08-09 17:47:18.587315,-119.0
2023-08-09 17:47:18.595005,-102.0
2023-08-09 17:47:18.602696,-90.0
2023-08-09 17:47:18.610386,-76.0
2023-08-09 17:47:18.618077,-54.0
2023-08-09 17:47:18.625767,-35.0
2023-08-09 17:47:18.633458,-38.0
2023-08-09 17:47:18.641149,-23.0
2023-08-09 17:47:18.648839,19.0
2023-08-09 17:47:18.656530,47.0
2023-08-09 17:47:18.664220,59.0
2023-08-09 17:47:18.671911,85.0
2023-08-09 17:47:18.679601,105.0
2023-08-09 17:47:18.687292,114.0
2023-08-09 17:47:18.694982,121.0
2023-08-09 17:47:18.702673,117.0
2023-08-09 17:47:18.710363,105.0
2023-08-09 17:47:18.718054,88.0
2023-08-09 17:47:18.725744,50.0
2023-08-09 17:47:18.733435,-4.0
2023-08-09 17:47:18.741126,-54.0
2023-08-09 17:47:18.748816,-100.0
2023-08-09 17:47:18.756507,-124.0
2023-08-09 17:47:18.764197,-145.0
2023-08-09 17:47:18.771888,-176.0
2023-08-09 17:47:18.779578,-188.0
2023-08-09 17:47:18.787269,-191.0
2023-08-09 17:47:18.794959,-203.0
2023-08-09 17:47:18.802650,-198.0
2023-08-09 17:47:18.810340,-198.0
2023-08-09 17:47:18.818031,-203.0
2023-08-09 17:47:18.825722,-174.0
2023-08-09 17:47:18.833412,-143.0
2023-08-09 17:47:18.841103,-162.0
2023-08-09 17:47:18.848793,-176.0
2023-08-09 17:47:18.856484,-160.0
2023-08-09 17:47:18.864174,-155.0
2023-08-09 17:47:18.871865,-157.0
2023-08-09 17:47:18.879555,-148.0
2023-08-09 17:47:18.887246,-138.0
2023-08-09 17:47:18.894936,-136.0
2023-08-09 17:47:18.902627,-136.0
2023-08-09 17:47:18.910318,-136.0
2023-08-09 17:47:18.918008,-136.0
2023-08-09 17:47:18.925699,-133.0
2023-08-09 17:47:18.933389,-136.0
2023-08-09 17:47:18.941080,-148.0
2023-08-09 17:47:18.948770,-140.0
2023-08-09 17:47:18.956461,-114.0
2023-08-09 17:47:18.964151,-121.0
2023-08-09 17:47:18.971842,-140.0
2023-08-09 17:47:18.979532,-138.0
2023-08-09 17:47:18.987223,-124.0
2023-08-09 17:47:18.994914,-119.0
2023-08-09 17:47:19.002604,-126.0
2023-08-09 17:47:19.010295,-124.0
2023-08-09 17:47:19.017985,-112.0
2023-08-09 17:47:19.025676,-117.0
2023-08-09 17:47:19.033366,-128.0
2023-08-09 17:47:19.041057,-121.0
2023-08-09 17:47:19.048747,-112.0
2023-08-09 17:47:19.056438,-107.0
2023-08-09 17:47:19.064128,-114.0
2023-08-09 17:47:19.071819,-112.0
2023-08-09 17:47:19.079509,-93.0
2023-08-09 17:47:19.087200,-81.0
2023-08-09 17:47:19.094891,-71.0
2023-08-09 17:47:19.102581,-54.0
2023-08-09 17:47:19.110272,-54.0
2023-08-09 17:47:19.117962,-74.0
2023-08-09 17:47:19.125653,-83.0
2023-08-09 17:47:19.133343,-93.0
2023-08-09 17:47:19.141034,-107.0
2023-08-09 17:47:19.148724,-117.0
2023-08-09 17:47:19.156415,-117.0
2023-08-09 17:47:19.164105,-105.0
2023-08-09 17:47:19.171796,-112.0
2023-08-09 17:47:19.179487,-119.0
2023-08-09 17:47:19.187177,-100.0
2023-08-09 17:47:19.194868,-102.0
2023-08-09 17:47:19.202558,-105.0
2023-08-09 17:47:19.210249,47.0
2023-08-09 17:47:19.217939,460.0
2023-08-09 17:47:19.225630,964.0
2023-08-09 17:47:19.233320,1170.0
2023-08-09 17:47:19.241011,857.0
2023-08-09 17:47:19.248701,281.0
2023-08-09 17:47:19.256392,-109.0
2023-08-09 17:47:19.264083,-186.0
2023-08-09 17:47:19.271773,-174.0
2023-08-09 17:47:19.279464,-222.0
2023-08-09 17:47:19.287154,-246.0
2023-08-09 17:47:19.294845,-229.0
2023-08-09 17:47:19.302535,-222.0
2023-08-09 17:47:19.310226,-205.0
2023-08-09 17:47:19.317916,-181.0
2023-08-09 17:47:19.325607,-183.0
2023-08-09 17:47:19.333297,-186.0
2023-08-09 17:47:19.340988,-152.0
2023-08-09 17:47:19.348678,-112.0
2023-08-09 17:47:19.356369,-112.0
2023-08-09 17:47:19.364060,-112.0
2023-08-09 17:47:19.371750,-93.0
2023-08-09 17:47:19.379441,-76.0
2023-08-09 17:47:19.387131,-59.0
2023-08-09 17:47:19.394822,-26.0
2023-08-09 17:47:19.402512,0.0
2023-08-09 17:47:19.410203,16.0
2023-08-09 17:47:19.417893,35.0
2023-08-09 17:47:19.425584,59.0
2023-08-09 17:47:19.433274,81.0
2023-08-09 17:47:19.440965,93.0
2023-08-09 17:47:19.448656,107.0
2023-08-09 17:47:19.456346,121.0
2023-08-09 17:47:19.464037,112.0
2023-08-09 17:47:19.471727,95.0
2023-08-09 17:47:19.479418,78.0
2023-08-09 17:47:19.487108,45.0
2023-08-09 17:47:19.494799,-7.0
2023-08-09 17:47:19.502489,-62.0
2023-08-09 17:47:19.510180,-97.0
2023-08-09 17:47:19.517870,-119.0
2023-08-09 17:47:19.525561,-152.0
2023-08-09 17:47:19.533252,-186.0
2023-08-09 17:47:19.540942,-193.0
2023-08-09 17:47:19.548633,-188.0
2023-08-09 17:47:19.556323,-191.0
2023-08-09 17:47:19.564014,-191.0
2023-08-09 17:47:19.571704,-174.0
2023-08-09 17:47:19.579395,-164.0
2023-08-09 17:47:19.587085,-171.0
2023-08-09 17:47:19.594776,-162.0
2023-08-09 17:47:19.602466,-145.0
2023-08-09 17:47:19.610157,-148.0
2023-08-09 17:47:19.617847,-148.0
2023-08-09 17:47:19.625538,-136.0
2023-08-09 17:47:19.633229,-140.0
2023-08-09 17:47:19.640919,-148.0
2023-08-09 17:47:19.648610,-143.0
2023-08-09 17:47:19.656300,-138.0
2023-08-09 17:47:19.663991,-140.0
2023-08-09 17:47:19.671681,-145.0
2023-08-09 17:47:19.679372,-138.0
2023-08-09 17:47:19.687062,-128.0
2023-08-09 17:47:19.694753,-131.0
2023-08-09 17:47:19.702443,-143.0
2023-08-09 17:47:19.710134,-131.0
2023-08-09 17:47:19.717825,-109.0
2023-08-09 17:47:19.725515,-114.0
2023-08-09 17:47:19.733206,-128.0
2023-08-09 17:47:19.740896,-131.0
2023-08-09 17:47:19.748587,-131.0
2023-08-09 17:47:19.756277,-131.0
2023-08-09 17:47:19.763968,-124.0
2023-08-09 17:47:19.771658,-128.0
2023-08-09 17:47:19.779349,-140.0
2023-08-09 17:47:19.787039,-138.0
2023-08-09 17:47:19.794730,-133.0
2023-08-09 17:47:19.802421,-143.0
2023-08-09 17:47:19.810111,-143.0
2023-08-09 17:47:19.817802,-119.0
2023-08-09 17:47:19.825492,-119.0
2023-08-09 17:47:19.833183,-136.0
2023-08-09 17:47:19.840873,-128.0
2023-08-09 17:47:19.848564,-112.0
2023-08-09 17:47:19.856254,-107.0
2023-08-09 17:47:19.863945,-107.0
2023-08-09 17:47:19.871635,-112.0
2023-08-09 17:47:19.879326,-114.0
2023-08-09 17:47:19.887016,-107.0
2023-08-09 17:47:19.894707,-97.0
2023-08-09 17:47:19.902398,-81.0
2023-08-09 17:47:19.910088,-69.0
2023-08-09 17:47:19.917779,-57.0
2023-08-09 17:47:19.925469,-45.0
2023-08-09 17:47:19.933160,-62.0
2023-08-09 17:47:19.940850,-95.0
2023-08-09 17:47:19.948541,-107.0
2023-08-09 17:47:19.956231,-100.0
2023-08-09 17:47:19.963922,-95.0
2023-08-09 17:47:19.971612,-102.0
2023-08-09 17:47:19.979303,-109.0
2023-08-09 17:47:19.986994,-109.0
2023-08-09 17:47:19.994684,-100.0
2023-08-09 17:47:20.002375,-95.0
2023-08-09 17:47:20.010065,-81.0
2023-08-09 17:47:20.017756,45.0
2023-08-09 17:47:20.025446,420.0
2023-08-09 17:47:20.033137,941.0
2023-08-09 17:47:20.040827,1225.0
2023-08-09 17:47:20.048518,964.0
2023-08-09 17:47:20.056208,358.0
2023-08-09 17:47:20.063899,-83.0
2023-08-09 17:47:20.071590,-181.0
2023-08-09 17:47:20.079280,-162.0
2023-08-09 17:47:20.086971,-203.0
2023-08-09 17:47:20.094661,-234.0
2023-08-09 17:47:20.102352,-219.0
2023-08-09 17:47:20.110042,-203.0
2023-08-09 17:47:20.117733,-191.0
2023-08-09 17:47:20.125423,-191.0
2023-08-09 17:47:20.133114,-186.0
2023-08-09 17:47:20.140804,-169.0
2023-08-09 17:47:20.148495,-152.0
2023-08-09 17:47:20.156186,-138.0
2023-08-09 17:47:20.163876,-128.0
2023-08-09 17:47:20.171567,-124.0
2023-08-09 17:47:20.179257,-105.0
2023-08-09 17:47:20.186948,-76.0
2023-08-09 17:47:20.194638,-62.0
2023-08-09 17:47:20.202329,-50.0
2023-08-09 17:47:20.210019,-23.0
2023-08-09 17:47:20.217710,9.0
2023-08-09 17:47:20.225400,33.0
2023-08-09 17:47:20.233091,52.0
2023-08-09 17:47:20.240781,64.0
2023-08-09 17:47:20.248472,88.0
2023-08-09 17:47:20.256163,114.0
2023-08-09 17:47:20.263853,124.0
2023-08-09 17:47:20.271544,109.0
2023-08-09 17:47:20.279234,100.0
2023-08-09 17:47:20.286925,85.0
2023-08-09 17:47:20.294615,47.0
2023-08-09 17:47:20.302306,-7.0
2023-08-09 17:47:20.309996,-57.0
2023-08-09 17:47:20.317687,-102.0
2023-08-09 17:47:20.325377,-136.0
2023-08-09 17:47:20.333068,-160.0
2023-08-09 17:47:20.340759,-186.0
2023-08-09 17:47:20.348449,-205.0
2023-08-09 17:47:20.356140,-198.0
2023-08-09 17:47:20.363830,-186.0
2023-08-09 17:47:20.371521,-198.0
2023-08-09 17:47:20.379211,-195.0
2023-08-09 17:47:20.386902,-181.0
2023-08-09 17:47:20.394592,-176.0
2023-08-09 17:47:20.402283,-176.0
2023-08-09 17:47:20.409973,-167.0
2023-08-09 17:47:20.417664,-162.0
2023-08-09 17:47:20.425355,-155.0
2023-08-09 17:47:20.433045,-136.0
2023-08-09 17:47:20.440736,-133.0
2023-08-09 17:47:20.448426,-140.0
2023-08-09 17:47:20.456117,-140.0
2023-08-09 17:47:20.463807,-138.0
2023-08-09 17:47:20.471498,-140.0
2023-08-09 17:47:20.479188,-136.0
2023-08-09 17:47:20.486879,-128.0
2023-08-09 17:47:20.494569,-128.0
2023-08-09 17:47:20.502260,-136.0
2023-08-09 17:47:20.509950,-133.0
2023-08-09 17:47:20.517641,-124.0
2023-08-09 17:47:20.525332,-131.0
2023-08-09 17:47:20.533022,-140.0
2023-08-09 17:47:20.540713,-140.0
2023-08-09 17:47:20.548403,-133.0
2023-08-09 17:47:20.556094,-126.0
2023-08-09 17:47:20.563784,-121.0
2023-08-09 17:47:20.571475,-126.0
2023-08-09 17:47:20.579165,-131.0
2023-08-09 17:47:20.586856,-128.0
2023-08-09 17:47:20.594546,-119.0
2023-08-09 17:47:20.602237,-112.0
2023-08-09 17:47:20.609928,-119.0
2023-08-09 17:47:20.617618,-131.0
2023-08-09 17:47:20.625309,-124.0
2023-08-09 17:47:20.632999,-121.0
2023-08-09 17:47:20.640690,-126.0
2023-08-09 17:47:20.648380,-121.0
2023-08-09 17:47:20.656071,-114.0
2023-08-09 17:47:20.663761,-105.0
2023-08-09 17:47:20.671452,-88.0
2023-08-09 17:47:20.679142,-76.0
2023-08-09 17:47:20.686833,-66.0
2023-08-09 17:47:20.694524,-74.0
2023-08-09 17:47:20.702214,-97.0
2023-08-09 17:47:20.709905,-114.0
2023-08-09 17:47:20.717595,-114.0
2023-08-09 17:47:20.725286,-114.0
2023-08-09 17:47:20.732976,-107.0
2023-08-09 17:47:20.740667,-100.0
2023-08-09 17:47:20.748357,-100.0
2023-08-09 17:47:20.756048,-97.0
2023-08-09 17:47:20.763738,-90.0
2023-08-09 17:47:20.771429,-105.0
2023-08-09 17:47:20.779119,-78.0
2023-08-09 17:47:20.786810,164.0
2023-08-09 17:47:20.794501,661.0
2023-08-09 17:47:20.802191,1146.0
2023-08-09 17:47:20.809882,1218.0
2023-08-09 17:47:20.817572,754.0
2023-08-09 17:47:20.825263,136.0
2023-08-09 17:47:20.832953,-169.0
2023-08-09 17:47:20.840644,-164.0
2023-08-09 17:47:20.848334,-167.0
2023-08-09 17:47:20.856025,-231.0
2023-08-09 17:47:20.863715,-224.0
2023-08-09 17:47:20.871406,-198.0
2023-08-09 17:47:20.879097,-222.0
2023-08-09 17:47:20.886787,-226.0
2023-08-09 17:47:20.894478,-195.0
2023-08-09 17:47:20.902168,-181.0
2023-08-09 17:47:20.909859,-174.0
2023-08-09 17:47:20.917549,-145.0
2023-08-09 17:47:20.925240,-128.0
2023-08-09 17:47:20.932930,-128.0
2023-08-09 17:47:20.940621,-114.0
2023-08-09 17:47:20.948311,-88.0
2023-08-09 17:47:20.956002,-57.0
2023-08-09 17:47:20.963693,-40.0
2023-08-09 17:47:20.971383,-28.0
2023-08-09 17:47:20.979074,-4.0
2023-08-09 17:47:20.986764,23.0
2023-08-09 17:47:20.994455,45.0
2023-08-09 17:47:21.002145,66.0
2023-08-09 17:47:21.009836,95.0
2023-08-09 17:47:21.017526,109.0
2023-08-09 17:47:21.025217,102.0
2023-08-09 17:47:21.032907,102.0
2023-08-09 17:47:21.040598,109.0
2023-08-09 17:47:21.048289,90.0
2023-08-09 17:47:21.055979,59.0
2023-08-09 17:47:21.063670,14.0
2023-08-09 17:47:21.071360,-50.0
2023-08-09 17:47:21.079051,-95.0
2023-08-09 17:47:21.086741,-117.0
2023-08-09 17:47:21.094432,-145.0
2023-08-09 17:47:21.102122,-181.0
2023-08-09 17:47:21.109813,-200.0
2023-08-09 17:47:21.117503,-210.0
2023-08-09 17:47:21.125194,-200.0
2023-08-09 17:47:21.132884,-191.0
2023-08-09 17:47:21.140575,-210.0
2023-08-09 17:47:21.148266,-219.0
2023-08-09 17:47:21.155956,-195.0
2023-08-09 17:47:21.163647,-179.0
2023-08-09 17:47:21.171337,-179.0
2023-08-09 17:47:21.179028,-183.0
2023-08-09 17:47:21.186718,-176.0
2023-08-09 17:47:21.194409,-162.0
2023-08-09 17:47:21.202099,-152.0
2023-08-09 17:47:21.209790,-155.0
2023-08-09 17:47:21.217480,-155.0
2023-08-09 17:47:21.225171,-133.0
2023-08-09 17:47:21.232862,-126.0
2023-08-09 17:47:21.240552,-150.0
2023-08-09 17:47:21.248243,-152.0
2023-08-09 17:47:21.255933,-128.0
2023-08-09 17:47:21.263624,-119.0
2023-08-09 17:47:21.271314,-128.0
2023-08-09 17:47:21.279005,-138.0
2023-08-09 17:47:21.286695,-136.0
2023-08-09 17:47:21.294386,-133.0
2023-08-09 17:47:21.302076,-128.0
2023-08-09 17:47:21.309767,-126.0
2023-08-09 17:47:21.317458,-131.0
2023-08-09 17:47:21.325148,-128.0
2023-08-09 17:47:21.332839,-114.0
2023-08-09 17:47:21.340529,-117.0
2023-08-09 17:47:21.348220,-133.0
2023-08-09 17:47:21.355910,-131.0
2023-08-09 17:47:21.363601,-112.0
2023-08-09 17:47:21.371291,-112.0
2023-08-09 17:47:21.378982,-128.0
2023-08-09 17:47:21.386672,-128.0
2023-08-09 17:47:21.394363,-124.0
2023-08-09 17:47:21.402053,-131.0
2023-08-09 17:47:21.409744,-138.0
2023-08-09 17:47:21.417435,-140.0
2023-08-09 17:47:21.425125,-133.0
2023-08-09 17:47:21.432816,-121.0
2023-08-09 17:47:21.440506,-114.0
2023-08-09 17:47:21.448197,-93.0
2023-08-09 17:47:21.455887,-76.0
2023-08-09 17:47:21.463578,-76.0
2023-08-09 17:47:21.471268,-81.0
2023-08-09 17:47:21.478959,-97.0
2023-08-09 17:47:21.486649,-126.0
2023-08-09 17:47:21.494340,-131.0
2023-08-09 17:47:21.502031,-117.0
2023-08-09 17:47:21.509721,-119.0
2023-08-09 17:47:21.517412,-124.0
2023-08-09 17:47:21.525102,-121.0
2023-08-09 17:47:21.532793,-121.0
2023-08-09 17:47:21.540483,-114.0
2023-08-09 17:47:21.548174,-114.0
2023-08-09 17:47:21.555864,-95.0
2023-08-09 17:47:21.563555,100.0
2023-08-09 17:47:21.571245,551.0
2023-08-09 17:47:21.578936,1029.0
2023-08-09 17:47:21.586627,1158.0
2023-08-09 17:47:21.594317,788.0
2023-08-09 17:47:21.602008,205.0
2023-08-09 17:47:21.609698,-143.0
2023-08-09 17:47:21.617389,-186.0
2023-08-09 17:47:21.625079,-179.0
2023-08-09 17:47:21.632770,-226.0
2023-08-09 17:47:21.640460,-243.0
2023-08-09 17:47:21.648151,-222.0
2023-08-09 17:47:21.655841,-210.0
2023-08-09 17:47:21.663532,-207.0
2023-08-09 17:47:21.671222,-191.0
2023-08-09 17:47:21.678913,-174.0
2023-08-09 17:47:21.686604,-164.0
2023-08-09 17:47:21.694294,-157.0
2023-08-09 17:47:21.701985,-140.0
2023-08-09 17:47:21.709675,-109.0
2023-08-09 17:47:21.717366,-102.0
2023-08-09 17:47:21.725056,-102.0
2023-08-09 17:47:21.732747,-71.0
2023-08-09 17:47:21.740437,-42.0
2023-08-09 17:47:21.748128,-33.0
2023-08-09 17:47:21.755818,-4.0
2023-08-09 17:47:21.763509,26.0
2023-08-09 17:47:21.771200,38.0
2023-08-09 17:47:21.778890,52.0
2023-08-09 17:47:21.786581,81.0
2023-08-09 17:47:21.794271,102.0
2023-08-09 17:47:21.801962,109.0
2023-08-09 17:47:21.809652,117.0
2023-08-09 17:47:21.817343,112.0
2023-08-09 17:47:21.825033,83.0
2023-08-09 17:47:21.832724,52.0
2023-08-09 17:47:21.840414,21.0
2023-08-09 17:47:21.848105,-11.0
2023-08-09 17:47:21.855796,-50.0
2023-08-09 17:47:21.863486,-102.0
2023-08-09 17:47:21.871177,-148.0
2023-08-09 17:47:21.878867,-169.0
2023-08-09 17:47:21.886558,-176.0
2023-08-09 17:47:21.894248,-179.0
2023-08-09 17:47:21.901939,-181.0
2023-08-09 17:47:21.909629,-188.0
2023-08-09 17:47:21.917320,-191.0
2023-08-09 17:47:21.925010,-176.0
2023-08-09 17:47:21.932701,-160.0
2023-08-09 17:47:21.940391,-157.0
2023-08-09 17:47:21.948082,-162.0
2023-08-09 17:47:21.955773,-157.0
2023-08-09 17:47:21.963463,-157.0
2023-08-09 17:47:21.971154,-160.0
2023-08-09 17:47:21.978844,-150.0
2023-08-09 17:47:21.986535,-133.0
2023-08-09 17:47:21.994225,-128.0
2023-08-09 17:47:22.001916,-133.0
2023-08-09 17:47:22.009606,-138.0
2023-08-09 17:47:22.017297,-143.0
2023-08-09 17:47:22.024987,-140.0
2023-08-09 17:47:22.032678,-131.0
2023-08-09 17:47:22.040369,-124.0
2023-08-09 17:47:22.048059,-131.0
2023-08-09 17:47:22.055750,-152.0
2023-08-09 17:47:22.063440,-150.0
2023-08-09 17:47:22.071131,-117.0
2023-08-09 17:47:22.078821,-109.0
2023-08-09 17:47:22.086512,-136.0
2023-08-09 17:47:22.094202,-145.0
2023-08-09 17:47:22.101893,-131.0
2023-08-09 17:47:22.109583,-124.0
2023-08-09 17:47:22.117274,-126.0
2023-08-09 17:47:22.124965,-124.0
2023-08-09 17:47:22.132655,-117.0
2023-08-09 17:47:22.140346,-121.0
2023-08-09 17:47:22.148036,-126.0
2023-08-09 17:47:22.155727,-121.0
2023-08-09 17:47:22.163417,-114.0
2023-08-09 17:47:22.171108,-109.0
2023-08-09 17:47:22.178798,-109.0
2023-08-09 17:47:22.186489,-114.0
2023-08-09 17:47:22.194179,-119.0
2023-08-09 17:47:22.201870,-109.0
2023-08-09 17:47:22.209561,-88.0
2023-08-09 17:47:22.217251,-69.0
2023-08-09 17:47:22.224942,-59.0
2023-08-09 17:47:22.232632,-54.0
2023-08-09 17:47:22.240323,-50.0
2023-08-09 17:47:22.248013,-52.0
2023-08-09 17:47:22.255704,-71.0
2023-08-09 17:47:22.263394,-93.0
2023-08-09 17:47:22.271085,-102.0
2023-08-09 17:47:22.278775,-105.0
2023-08-09 17:47:22.286466,-102.0
2023-08-09 17:47:22.294156,-95.0
2023-08-09 17:47:22.301847,-90.0
2023-08-09 17:47:22.309538,-93.0
2023-08-09 17:47:22.317228,-88.0
2023-08-09 17:47:22.324919,-95.0
2023-08-09 17:47:22.332609,-76.0
2023-08-09 17:47:22.340300,131.0
2023-08-09 17:47:22.347990,589.0
2023-08-09 17:47:22.355681,1058.0
2023-08-09 17:47:22.363371,1170.0
2023-08-09 17:47:22.371062,785.0
2023-08-09 17:47:22.378752,198.0
2023-08-09 17:47:22.386443,-138.0
2023-08-09 17:47:22.394134,-164.0
2023-08-09 17:47:22.401824,-155.0
2023-08-09 17:47:22.409515,-207.0
2023-08-09 17:47:22.417205,-219.0
2023-08-09 17:47:22.424896,-195.0
2023-08-09 17:47:22.432586,-191.0
2023-08-09 17:47:22.440277,-186.0
2023-08-09 17:47:22.447967,-171.0
2023-08-09 17:47:22.455658,-157.0
2023-08-09 17:47:22.463348,-148.0
2023-08-09 17:47:22.471039,-136.0
2023-08-09 17:47:22.478730,-107.0
2023-08-09 17:47:22.486420,-93.0
2023-08-09 17:47:22.494111,-93.0
2023-08-09 17:47:22.501801,-74.0
2023-08-09 17:47:22.509492,-45.0
2023-08-09 17:47:22.517182,-33.0
2023-08-09 17:47:22.524873,-23.0
2023-08-09 17:47:22.532563,4.0
2023-08-09 17:47:22.540254,31.0
2023-08-09 17:47:22.547944,42.0
2023-08-09 17:47:22.555635,59.0
2023-08-09 17:47:22.563325,83.0
2023-08-09 17:47:22.571016,97.0
2023-08-09 17:47:22.578707,114.0
2023-08-09 17:47:22.586397,136.0
2023-08-09 17:47:22.594088,128.0
2023-08-09 17:47:22.601778,93.0
2023-08-09 17:47:22.609469,59.0
2023-08-09 17:47:22.617159,16.0
2023-08-09 17:47:22.624850,-35.0
2023-08-09 17:47:22.632540,-71.0
2023-08-09 17:47:22.640231,-121.0
2023-08-09 17:47:22.647921,-171.0
2023-08-09 17:47:22.655612,-186.0
2023-08-09 17:47:22.663303,-193.0
2023-08-09 17:47:22.670993,-203.0
2023-08-09 17:47:22.678684,-203.0
2023-08-09 17:47:22.686374,-205.0
2023-08-09 17:47:22.694065,-210.0
2023-08-09 17:47:22.701755,-198.0
2023-08-09 17:47:22.709446,-181.0
2023-08-09 17:47:22.717136,-174.0
2023-08-09 17:47:22.724827,-181.0
2023-08-09 17:47:22.732517,-183.0
2023-08-09 17:47:22.740208,-171.0
2023-08-09 17:47:22.747899,-162.0
2023-08-09 17:47:22.755589,-162.0
2023-08-09 17:47:22.763280,-155.0
2023-08-09 17:47:22.770970,-152.0
2023-08-09 17:47:22.778661,-152.0
2023-08-09 17:47:22.786351,-150.0
2023-08-09 17:47:22.794042,-150.0
2023-08-09 17:47:22.801732,-145.0
2023-08-09 17:47:22.809423,-131.0
2023-08-09 17:47:22.817113,-121.0
2023-08-09 17:47:22.824804,-136.0
2023-08-09 17:47:22.832494,-143.0
2023-08-09 17:47:22.840185,-119.0
2023-08-09 17:47:22.847876,-117.0
2023-08-09 17:47:22.855566,-138.0
2023-08-09 17:47:22.863257,-145.0
2023-08-09 17:47:22.870947,-136.0
2023-08-09 17:47:22.878638,-121.0
2023-08-09 17:47:22.886328,-117.0
2023-08-09 17:47:22.894019,-124.0
2023-08-09 17:47:22.901709,-124.0
2023-08-09 17:47:22.909400,-117.0
2023-08-09 17:47:22.917090,-119.0
2023-08-09 17:47:22.924781,-117.0
2023-08-09 17:47:22.932472,-105.0
2023-08-09 17:47:22.940162,-112.0
2023-08-09 17:47:22.947853,-119.0
2023-08-09 17:47:22.955543,-109.0
2023-08-09 17:47:22.963234,-109.0
2023-08-09 17:47:22.970924,-117.0
2023-08-09 17:47:22.978615,-100.0
2023-08-09 17:47:22.986305,-81.0
2023-08-09 17:47:22.993996,-83.0
2023-08-09 17:47:23.001686,-74.0
2023-08-09 17:47:23.009377,-64.0
2023-08-09 17:47:23.017068,-93.0
2023-08-09 17:47:23.024758,-109.0
2023-08-09 17:47:23.032449,-97.0
2023-08-09 17:47:23.040139,-100.0
2023-08-09 17:47:23.047830,-114.0
2023-08-09 17:47:23.055520,-117.0
2023-08-09 17:47:23.063211,-119.0
2023-08-09 17:47:23.070901,-121.0
2023-08-09 17:47:23.078592,-107.0
2023-08-09 17:47:23.086282,-100.0
2023-08-09 17:47:23.093973,-31.0
2023-08-09 17:47:23.101664,296.0
2023-08-09 17:47:23.109354,850.0
2023-08-09 17:47:23.117045,1263.0
2023-08-09 17:47:23.124735,1146.0
2023-08-09 17:47:23.132426,561.0
2023-08-09 17:47:23.140116,-2.0
2023-08-09 17:47:23.147807,-200.0
2023-08-09 17:47:23.155497,-174.0
2023-08-09 17:47:23.163188,-205.0
2023-08-09 17:47:23.170878,-269.0
2023-08-09 17:47:23.178569,-255.0
2023-08-09 17:47:23.186259,-217.0
2023-08-09 17:47:23.193950,-207.0
2023-08-09 17:47:23.201641,-203.0
2023-08-09 17:47:23.209331,-188.0
2023-08-09 17:47:23.217022,-179.0
2023-08-09 17:47:23.224712,-169.0
2023-08-09 17:47:23.232403,-150.0
2023-08-09 17:47:23.240093,-145.0
2023-08-09 17:47:23.247784,-140.0
2023-08-09 17:47:23.255474,-102.0
2023-08-09 17:47:23.263165,-76.0
2023-08-09 17:47:23.270855,-71.0
2023-08-09 17:47:23.278546,-57.0
2023-08-09 17:47:23.286237,-28.0
2023-08-09 17:47:23.293927,4.0
2023-08-09 17:47:23.301618,26.0
2023-08-09 17:47:23.309308,38.0
2023-08-09 17:47:23.316999,64.0
2023-08-09 17:47:23.324689,97.0
2023-08-09 17:47:23.332380,109.0
2023-08-09 17:47:23.340070,114.0
2023-08-09 17:47:23.347761,121.0
2023-08-09 17:47:23.355451,114.0
2023-08-09 17:47:23.363142,85.0
2023-08-09 17:47:23.370833,45.0
2023-08-09 17:47:23.378523,-7.0
2023-08-09 17:47:23.386214,-59.0
2023-08-09 17:47:23.393904,-100.0
2023-08-09 17:47:23.401595,-133.0
2023-08-09 17:47:23.409285,-171.0
2023-08-09 17:47:23.416976,-195.0
2023-08-09 17:47:23.424666,-193.0
2023-08-09 17:47:23.432357,-193.0
2023-08-09 17:47:23.440047,-203.0
2023-08-09 17:47:23.447738,-200.0
2023-08-09 17:47:23.455428,-186.0
2023-08-09 17:47:23.463119,-188.0
2023-08-09 17:47:23.470810,-193.0
2023-08-09 17:47:23.478500,-176.0
2023-08-09 17:47:23.486191,-152.0
2023-08-09 17:47:23.493881,-140.0
2023-08-09 17:47:23.501572,-148.0
2023-08-09 17:47:23.509262,-152.0
2023-08-09 17:47:23.516953,-148.0
2023-08-09 17:47:23.524643,-138.0
2023-08-09 17:47:23.532334,-124.0
2023-08-09 17:47:23.540024,-121.0
2023-08-09 17:47:23.547715,-128.0
2023-08-09 17:47:23.555406,-138.0
2023-08-09 17:47:23.563096,-150.0
2023-08-09 17:47:23.570787,-150.0
2023-08-09 17:47:23.578477,-148.0
2023-08-09 17:47:23.586168,-152.0
2023-08-09 17:47:23.593858,-143.0
2023-08-09 17:47:23.601549,-126.0
2023-08-09 17:47:23.609239,-131.0
2023-08-09 17:47:23.616930,-136.0
2023-08-09 17:47:23.624620,-121.0
2023-08-09 17:47:23.632311,-119.0
2023-08-09 17:47:23.640002,-133.0
2023-08-09 17:47:23.647692,-136.0
2023-08-09 17:47:23.655383,-138.0
2023-08-09 17:47:23.663073,-143.0
2023-08-09 17:47:23.670764,-133.0
2023-08-09 17:47:23.678454,-126.0
2023-08-09 17:47:23.686145,-131.0
2023-08-09 17:47:23.693835,-124.0
2023-08-09 17:47:23.701526,-105.0
2023-08-09 17:47:23.709216,-112.0
2023-08-09 17:47:23.716907,-128.0
2023-08-09 17:47:23.724597,-102.0
2023-08-09 17:47:23.732288,-71.0
2023-08-09 17:47:23.739979,-74.0
2023-08-09 17:47:23.747669,-78.0
2023-08-09 17:47:23.755360,-90.0
2023-08-09 17:47:23.763050,-124.0
2023-08-09 17:47:23.770741,-138.0
2023-08-09 17:47:23.778431,-131.0
2023-08-09 17:47:23.786122,-128.0
2023-08-09 17:47:23.793812,-124.0
2023-08-09 17:47:23.801503,-124.0
2023-08-09 17:47:23.809193,-131.0
2023-08-09 17:47:23.816884,-121.0
2023-08-09 17:47:23.824575,-107.0
2023-08-09 17:47:23.832265,-121.0
2023-08-09 17:47:23.839956,-42.0
2023-08-09 17:47:23.847646,298.0
2023-08-09 17:47:23.855337,826.0
2023-08-09 17:47:23.863027,1199.0
2023-08-09 17:47:23.870718,1070.0
2023-08-09 17:47:23.878408,520.0
2023-08-09 17:47:23.886099,-2.0
2023-08-09 17:47:23.893789,-191.0
2023-08-09 17:47:23.901480,-167.0
2023-08-09 17:47:23.909171,-186.0
2023-08-09 17:47:23.916861,-234.0
2023-08-09 17:47:23.924552,-217.0
2023-08-09 17:47:23.932242,-212.0
2023-08-09 17:47:23.939933,-214.0
2023-08-09 17:47:23.947623,-181.0
2023-08-09 17:47:23.955314,-162.0
2023-08-09 17:47:23.963004,-171.0
2023-08-09 17:47:23.970695,-164.0
2023-08-09 17:47:23.978385,-133.0
2023-08-09 17:47:23.986076,-107.0
2023-08-09 17:47:23.993766,-102.0
2023-08-09 17:47:24.001457,-102.0
2023-08-09 17:47:24.009148,-81.0
2023-08-09 17:47:24.016838,-47.0
2023-08-09 17:47:24.024529,-28.0
2023-08-09 17:47:24.032219,-9.0
2023-08-09 17:47:24.039910,16.0
2023-08-09 17:47:24.047600,45.0
2023-08-09 17:47:24.055291,64.0
2023-08-09 17:47:24.062981,85.0
2023-08-09 17:47:24.070672,112.0
2023-08-09 17:47:24.078362,128.0
2023-08-09 17:47:24.086053,126.0
2023-08-09 17:47:24.093744,124.0
2023-08-09 17:47:24.101434,119.0
2023-08-09 17:47:24.109125,88.0
2023-08-09 17:47:24.116815,42.0
2023-08-09 17:47:24.124506,-4.0
2023-08-09 17:47:24.132196,-50.0
2023-08-09 17:47:24.139887,-95.0
2023-08-09 17:47:24.147577,-136.0
2023-08-09 17:47:24.155268,-162.0
2023-08-09 17:47:24.162958,-179.0
2023-08-09 17:47:24.170649,-191.0
2023-08-09 17:47:24.178340,-207.0
2023-08-09 17:47:24.186030,-207.0
2023-08-09 17:47:24.193721,-191.0
2023-08-09 17:47:24.201411,-181.0
2023-08-09 17:47:24.209102,-183.0
2023-08-09 17:47:24.216792,-179.0
2023-08-09 17:47:24.224483,-169.0
2023-08-09 17:47:24.232173,-169.0
2023-08-09 17:47:24.239864,-169.0
2023-08-09 17:47:24.247554,-157.0
2023-08-09 17:47:24.255245,-138.0
2023-08-09 17:47:24.262936,-131.0
2023-08-09 17:47:24.270626,-138.0
2023-08-09 17:47:24.278317,-136.0
2023-08-09 17:47:24.286007,-131.0
2023-08-09 17:47:24.293698,-136.0
2023-08-09 17:47:24.301388,-140.0
2023-08-09 17:47:24.309079,-124.0
2023-08-09 17:47:24.316769,-112.0
2023-08-09 17:47:24.324460,-126.0
2023-08-09 17:47:24.332150,-126.0
2023-08-09 17:47:24.339841,-112.0
2023-08-09 17:47:24.347531,-109.0
2023-08-09 17:47:24.355222,-112.0
2023-08-09 17:47:24.362913,-112.0
2023-08-09 17:47:24.370603,-124.0
2023-08-09 17:47:24.378294,-121.0
2023-08-09 17:47:24.385984,-100.0
2023-08-09 17:47:24.393675,-95.0
2023-08-09 17:47:24.401365,-105.0
2023-08-09 17:47:24.409056,-107.0
2023-08-09 17:47:24.416746,-97.0
2023-08-09 17:47:24.424437,-93.0
2023-08-09 17:47:24.432127,-97.0
2023-08-09 17:47:24.439818,-95.0
2023-08-09 17:47:24.447509,-90.0
2023-08-09 17:47:24.455199,-93.0
2023-08-09 17:47:24.462890,-88.0
2023-08-09 17:47:24.470580,-71.0
2023-08-09 17:47:24.478271,-62.0
2023-08-09 17:47:24.485961,-66.0
2023-08-09 17:47:24.493652,-64.0
2023-08-09 17:47:24.501342,-52.0
2023-08-09 17:47:24.509033,-59.0
2023-08-09 17:47:24.516723,-85.0
2023-08-09 17:47:24.524414,-93.0
2023-08-09 17:47:24.532105,-93.0
2023-08-09 17:47:24.539795,-97.0
2023-08-09 17:47:24.547486,-90.0
2023-08-09 17:47:24.555176,-85.0
2023-08-09 17:47:24.562867,-95.0
2023-08-09 17:47:24.570557,-93.0
2023-08-09 17:47:24.578248,-88.0
2023-08-09 17:47:24.585938,-97.0
2023-08-09 17:47:24.593629,-47.0
2023-08-09 17:47:24.601319,193.0
2023-08-09 17:47:24.609010,640.0
2023-08-09 17:47:24.616700,1060.0
2023-08-09 17:47:24.624391,1120.0
2023-08-09 17:47:24.632082,714.0
2023-08-09 17:47:24.639772,155.0
2023-08-09 17:47:24.647463,-155.0
2023-08-09 17:47:24.655153,-171.0
2023-08-09 17:47:24.662844,-150.0
2023-08-09 17:47:24.670534,-205.0
2023-08-09 17:47:24.678225,-229.0
2023-08-09 17:47:24.685915,-203.0
2023-08-09 17:47:24.693606,-195.0
2023-08-09 17:47:24.701296,-195.0
2023-08-09 17:47:24.708987,-174.0
2023-08-09 17:47:24.716678,-157.0
2023-08-09 17:47:24.724368,-155.0
2023-08-09 17:47:24.732059,-143.0
2023-08-09 17:47:24.739749,-128.0
2023-08-09 17:47:24.747440,-117.0
2023-08-09 17:47:24.755130,-100.0
2023-08-09 17:47:24.762821,-71.0
2023-08-09 17:47:24.770511,-54.0
2023-08-09 17:47:24.778202,-40.0
2023-08-09 17:47:24.785892,-19.0
2023-08-09 17:47:24.793583,-2.0
2023-08-09 17:47:24.801274,11.0
2023-08-09 17:47:24.808964,35.0
2023-08-09 17:47:24.816655,59.0
2023-08-09 17:47:24.824345,74.0
2023-08-09 17:47:24.832036,95.0
2023-08-09 17:47:24.839726,114.0
2023-08-09 17:47:24.847417,100.0
2023-08-09 17:47:24.855107,81.0
2023-08-09 17:47:24.862798,76.0
2023-08-09 17:47:24.870488,54.0
2023-08-09 17:47:24.878179,-4.0
2023-08-09 17:47:24.885869,-64.0
2023-08-09 17:47:24.893560,-83.0
2023-08-09 17:47:24.901251,-100.0
2023-08-09 17:47:24.908941,-138.0
2023-08-09 17:47:24.916632,-164.0
2023-08-09 17:47:24.924322,-162.0
2023-08-09 17:47:24.932013,-174.0
2023-08-09 17:47:24.939703,-200.0
2023-08-09 17:47:24.947394,-193.0
2023-08-09 17:47:24.955084,-169.0
2023-08-09 17:47:24.962775,-167.0
2023-08-09 17:47:24.970465,-164.0
2023-08-09 17:47:24.978156,-162.0
2023-08-09 17:47:24.985847,-157.0
2023-08-09 17:47:24.993537,-138.0
2023-08-09 17:47:25.001228,-128.0
2023-08-09 17:47:25.008918,-140.0
2023-08-09 17:47:25.016609,-136.0
2023-08-09 17:47:25.024299,-114.0
2023-08-09 17:47:25.031990,-109.0
2023-08-09 17:47:25.039680,-114.0
2023-08-09 17:47:25.047371,-112.0
2023-08-09 17:47:25.055061,-109.0
2023-08-09 17:47:25.062752,-112.0
2023-08-09 17:47:25.070443,-107.0
2023-08-09 17:47:25.078133,-102.0
2023-08-09 17:47:25.085824,-107.0
2023-08-09 17:47:25.093514,-109.0
2023-08-09 17:47:25.101205,-112.0
2023-08-09 17:47:25.108895,-107.0
2023-08-09 17:47:25.116586,-90.0
2023-08-09 17:47:25.124276,-88.0
2023-08-09 17:47:25.131967,-102.0
2023-08-09 17:47:25.139657,-100.0
2023-08-09 17:47:25.147348,-85.0
2023-08-09 17:47:25.155038,-88.0
2023-08-09 17:47:25.162729,-93.0
2023-08-09 17:47:25.170420,-88.0
2023-08-09 17:47:25.178110,-88.0
2023-08-09 17:47:25.185801,-95.0
2023-08-09 17:47:25.193491,-107.0
2023-08-09 17:47:25.201182,-114.0
2023-08-09 17:47:25.208872,-107.0
2023-08-09 17:47:25.216563,-90.0
2023-08-09 17:47:25.224253,-83.0
2023-08-09 17:47:25.231944,-85.0
2023-08-09 17:47:25.239634,-76.0
2023-08-09 17:47:25.247325,-59.0
2023-08-09 17:47:25.255016,-47.0
2023-08-09 17:47:25.262706,-42.0
2023-08-09 17:47:25.270397,-57.0
2023-08-09 17:47:25.278087,-88.0
2023-08-09 17:47:25.285778,-97.0
2023-08-09 17:47:25.293468,-97.0
2023-08-09 17:47:25.301159,-109.0
2023-08-09 17:47:25.308849,-112.0
2023-08-09 17:47:25.316540,-97.0
2023-08-09 17:47:25.324230,-102.0
2023-08-09 17:47:25.331921,-117.0
2023-08-09 17:47:25.339612,-112.0
2023-08-09 17:47:25.347302,-102.0
2023-08-09 17:47:25.354993,-31.0
2023-08-09 17:47:25.362683,281.0
2023-08-09 17:47:25.370374,809.0
2023-08-09 17:47:25.378064,1184.0
2023-08-09 17:47:25.385755,1058.0
2023-08-09 17:47:25.393445,503.0
2023-08-09 17:47:25.401136,-21.0
2023-08-09 17:47:25.408826,-191.0
2023-08-09 17:47:25.416517,-160.0
2023-08-09 17:47:25.424208,-195.0
2023-08-09 17:47:25.431898,-243.0
2023-08-09 17:47:25.439589,-231.0
2023-08-09 17:47:25.447279,-219.0
2023-08-09 17:47:25.454970,-217.0
2023-08-09 17:47:25.462660,-198.0
2023-08-09 17:47:25.470351,-193.0
2023-08-09 17:47:25.478041,-188.0
2023-08-09 17:47:25.485732,-157.0
2023-08-09 17:47:25.493422,-128.0
2023-08-09 17:47:25.501113,-121.0
2023-08-09 17:47:25.508803,-121.0
2023-08-09 17:47:25.516494,-109.0
2023-08-09 17:47:25.524185,-88.0
2023-08-09 17:47:25.531875,-69.0
2023-08-09 17:47:25.539566,-42.0
2023-08-09 17:47:25.547256,-14.0
2023-08-09 17:47:25.554947,-7.0
2023-08-09 17:47:25.562637,2.0
2023-08-09 17:47:25.570328,40.0
2023-08-09 17:47:25.578018,71.0
2023-08-09 17:47:25.585709,90.0
2023-08-09 17:47:25.593399,100.0
2023-08-09 17:47:25.601090,107.0
2023-08-09 17:47:25.608781,114.0
2023-08-09 17:47:25.616471,107.0
2023-08-09 17:47:25.624162,74.0
2023-08-09 17:47:25.631852,28.0
2023-08-09 17:47:25.639543,-16.0
2023-08-09 17:47:25.647233,-69.0
2023-08-09 17:47:25.654924,-114.0
2023-08-09 17:47:25.662614,-143.0
2023-08-09 17:47:25.670305,-167.0
2023-08-09 17:47:25.677995,-193.0
2023-08-09 17:47:25.685686,-205.0
2023-08-09 17:47:25.693377,-210.0
2023-08-09 17:47:25.701067,-219.0
2023-08-09 17:47:25.708758,-219.0
2023-08-09 17:47:25.716448,-203.0
2023-08-09 17:47:25.724139,-183.0
2023-08-09 17:47:25.731829,-193.0
2023-08-09 17:47:25.739520,-198.0
2023-08-09 17:47:25.747210,-174.0
2023-08-09 17:47:25.754901,-157.0
2023-08-09 17:47:25.762591,-162.0
2023-08-09 17:47:25.770282,-167.0
2023-08-09 17:47:25.777972,-160.0
2023-08-09 17:47:25.785663,-143.0
2023-08-09 17:47:25.793354,-140.0
2023-08-09 17:47:25.801044,-143.0
2023-08-09 17:47:25.808735,-136.0
2023-08-09 17:47:25.816425,-136.0
2023-08-09 17:47:25.824116,-148.0
2023-08-09 17:47:25.831806,-145.0
2023-08-09 17:47:25.839497,-133.0
2023-08-09 17:47:25.847187,-128.0
2023-08-09 17:47:25.854878,-126.0
2023-08-09 17:47:25.862568,-136.0
2023-08-09 17:47:25.870259,-143.0
2023-08-09 17:47:25.877950,-126.0
2023-08-09 17:47:25.885640,-119.0
2023-08-09 17:47:25.893331,-136.0
2023-08-09 17:47:25.901021,-126.0
2023-08-09 17:47:25.908712,-102.0
2023-08-09 17:47:25.916402,-112.0
2023-08-09 17:47:25.924093,-143.0
2023-08-09 17:47:25.931783,-145.0
2023-08-09 17:47:25.939474,-126.0
2023-08-09 17:47:25.947164,-119.0
2023-08-09 17:47:25.954855,-131.0
2023-08-09 17:47:25.962546,-126.0
2023-08-09 17:47:25.970236,-102.0
2023-08-09 17:47:25.977927,-90.0
2023-08-09 17:47:25.985617,-88.0
2023-08-09 17:47:25.993308,-74.0
2023-08-09 17:47:26.000998,-78.0
2023-08-09 17:47:26.008689,-105.0
2023-08-09 17:47:26.016379,-117.0
2023-08-09 17:47:26.024070,-109.0
2023-08-09 17:47:26.031760,-112.0
2023-08-09 17:47:26.039451,-119.0
2023-08-09 17:47:26.047141,-121.0
2023-08-09 17:47:26.054832,-124.0
2023-08-09 17:47:26.062523,-124.0
2023-08-09 17:47:26.070213,-119.0
2023-08-09 17:47:26.077904,-126.0
2023-08-09 17:47:26.085594,-93.0
2023-08-09 17:47:26.093285,162.0
2023-08-09 17:47:26.100975,697.0
2023-08-09 17:47:26.108666,1203.0
2023-08-09 17:47:26.116356,1256.0
2023-08-09 17:47:26.124047,761.0
2023-08-09 17:47:26.131737,121.0
2023-08-09 17:47:26.139428,-186.0
2023-08-09 17:47:26.147119,-186.0
2023-08-09 17:47:26.154809,-191.0
2023-08-09 17:47:26.162500,-246.0
2023-08-09 17:47:26.170190,-243.0
2023-08-09 17:47:26.177881,-226.0
2023-08-09 17:47:26.185571,-229.0
2023-08-09 17:47:26.193262,-214.0
2023-08-09 17:47:26.200952,-195.0
2023-08-09 17:47:26.208643,-198.0
2023-08-09 17:47:26.216333,-179.0
2023-08-09 17:47:26.224024,-140.0
2023-08-09 17:47:26.231715,-136.0
2023-08-09 17:47:26.239405,-131.0
2023-08-09 17:47:26.247096,-93.0
2023-08-09 17:47:26.254786,-71.0
2023-08-09 17:47:26.262477,-69.0
2023-08-09 17:47:26.270167,-47.0
2023-08-09 17:47:26.277858,-14.0
2023-08-09 17:47:26.285548,11.0
2023-08-09 17:47:26.293239,16.0
2023-08-09 17:47:26.300929,35.0
2023-08-09 17:47:26.308620,83.0
2023-08-09 17:47:26.316311,114.0
2023-08-09 17:47:26.324001,117.0
2023-08-09 17:47:26.331692,119.0
2023-08-09 17:47:26.339382,117.0
2023-08-09 17:47:26.347073,107.0
2023-08-09 17:47:26.354763,85.0
2023-08-09 17:47:26.362454,42.0
2023-08-09 17:47:26.370144,-9.0
2023-08-09 17:47:26.377835,-69.0
2023-08-09 17:47:26.385525,-117.0
2023-08-09 17:47:26.393216,-155.0
2023-08-09 17:47:26.400906,-181.0
2023-08-09 17:47:26.408597,-200.0
2023-08-09 17:47:26.416288,-214.0
2023-08-09 17:47:26.423978,-217.0
2023-08-09 17:47:26.431669,-212.0
2023-08-09 17:47:26.439359,-212.0
2023-08-09 17:47:26.447050,-212.0
2023-08-09 17:47:26.454740,-205.0
2023-08-09 17:47:26.462431,-198.0
2023-08-09 17:47:26.470121,-191.0
2023-08-09 17:47:26.477812,-181.0
2023-08-09 17:47:26.485502,-169.0
2023-08-09 17:47:26.493193,-157.0
2023-08-09 17:47:26.500884,-152.0
2023-08-09 17:47:26.508574,-167.0
2023-08-09 17:47:26.516265,-169.0
2023-08-09 17:47:26.523955,-152.0
2023-08-09 17:47:26.531646,-138.0
2023-08-09 17:47:26.539336,-136.0
2023-08-09 17:47:26.547027,-138.0
2023-08-09 17:47:26.554717,-145.0
2023-08-09 17:47:26.562408,-140.0
2023-08-09 17:47:26.570098,-117.0
2023-08-09 17:47:26.577789,-114.0
2023-08-09 17:47:26.585480,-124.0
2023-08-09 17:47:26.593170,-119.0
2023-08-09 17:47:26.600861,-114.0
2023-08-09 17:47:26.608551,-117.0
2023-08-09 17:47:26.616242,-117.0
2023-08-09 17:47:26.623932,-117.0
2023-08-09 17:47:26.631623,-121.0
2023-08-09 17:47:26.639313,-119.0
2023-08-09 17:47:26.647004,-107.0
2023-08-09 17:47:26.654694,-107.0
2023-08-09 17:47:26.662385,-109.0
2023-08-09 17:47:26.670075,-95.0
2023-08-09 17:47:26.677766,-85.0
2023-08-09 17:47:26.685457,-97.0
2023-08-09 17:47:26.693147,-95.0
2023-08-09 17:47:26.700838,-71.0
2023-08-09 17:47:26.708528,-52.0
2023-08-09 17:47:26.716219,-50.0
2023-08-09 17:47:26.723909,-62.0
2023-08-09 17:47:26.731600,-66.0
2023-08-09 17:47:26.739290,-66.0
2023-08-09 17:47:26.746981,-83.0
2023-08-09 17:47:26.754671,-95.0
2023-08-09 17:47:26.762362,-81.0
2023-08-09 17:47:26.770053,-78.0
2023-08-09 17:47:26.777743,-95.0
2023-08-09 17:47:26.785434,-90.0
2023-08-09 17:47:26.793124,-78.0
2023-08-09 17:47:26.800815,-90.0
2023-08-09 17:47:26.808505,-102.0
2023-08-09 17:47:26.816196,-54.0
2023-08-09 17:47:26.823886,195.0
2023-08-09 17:47:26.831577,673.0
2023-08-09 17:47:26.839267,1124.0
2023-08-09 17:47:26.846958,1201.0
2023-08-09 17:47:26.854649,785.0
2023-08-09 17:47:26.862339,174.0
2023-08-09 17:47:26.870030,-174.0
2023-08-09 17:47:26.877720,-179.0
2023-08-09 17:47:26.885411,-164.0
2023-08-09 17:47:26.893101,-238.0
2023-08-09 17:47:26.900792,-255.0
2023-08-09 17:47:26.908482,-217.0
2023-08-09 17:47:26.916173,-214.0
2023-08-09 17:47:26.923863,-219.0
2023-08-09 17:47:26.931554,-191.0
2023-08-09 17:47:26.939244,-174.0
2023-08-09 17:47:26.946935,-171.0
2023-08-09 17:47:26.954626,-150.0
2023-08-09 17:47:26.962316,-128.0
2023-08-09 17:47:26.970007,-124.0
2023-08-09 17:47:26.977697,-114.0
2023-08-09 17:47:26.985388,-88.0
2023-08-09 17:47:26.993078,-57.0
2023-08-09 17:47:27.000769,-40.0
2023-08-09 17:47:27.008459,-26.0
2023-08-09 17:47:27.016150,2.0
2023-08-09 17:47:27.023840,28.0
2023-08-09 17:47:27.031531,52.0
2023-08-09 17:47:27.039222,71.0
2023-08-09 17:47:27.046912,74.0
2023-08-09 17:47:27.054603,83.0
2023-08-09 17:47:27.062293,109.0
2023-08-09 17:47:27.069984,105.0
2023-08-09 17:47:27.077674,76.0
2023-08-09 17:47:27.085365,64.0
2023-08-09 17:47:27.093055,35.0
2023-08-09 17:47:27.100746,-11.0
2023-08-09 17:47:27.108436,-45.0
2023-08-09 17:47:27.116127,-76.0
2023-08-09 17:47:27.123818,-128.0
2023-08-09 17:47:27.131508,-171.0
2023-08-09 17:47:27.139199,-179.0
2023-08-09 17:47:27.146889,-174.0
2023-08-09 17:47:27.154580,-181.0
2023-08-09 17:47:27.162270,-191.0
2023-08-09 17:47:27.169961,-188.0
2023-08-09 17:47:27.177651,-176.0
2023-08-09 17:47:27.185342,-164.0
2023-08-09 17:47:27.193032,-162.0
2023-08-09 17:47:27.200723,-164.0
2023-08-09 17:47:27.208413,-152.0
2023-08-09 17:47:27.216104,-133.0
2023-08-09 17:47:27.223795,-136.0
2023-08-09 17:47:27.231485,-138.0
2023-08-09 17:47:27.239176,-119.0
2023-08-09 17:47:27.246866,-107.0
2023-08-09 17:47:27.254557,-126.0
2023-08-09 17:47:27.262247,-131.0
2023-08-09 17:47:27.269938,-119.0
2023-08-09 17:47:27.277628,-114.0
2023-08-09 17:47:27.285319,-107.0
2023-08-09 17:47:27.293009,-105.0
2023-08-09 17:47:27.300700,-109.0
2023-08-09 17:47:27.308391,-102.0
2023-08-09 17:47:27.316081,-88.0
2023-08-09 17:47:27.323772,-93.0
2023-08-09 17:47:27.331462,-105.0
2023-08-09 17:47:27.339153,-97.0
2023-08-09 17:47:27.346843,-90.0
2023-08-09 17:47:27.354534,-97.0
2023-08-09 17:47:27.362224,-100.0
2023-08-09 17:47:27.369915,-93.0
2023-08-09 17:47:27.377605,-95.0
2023-08-09 17:47:27.385296,-100.0
2023-08-09 17:47:27.392987,-95.0
2023-08-09 17:47:27.400677,-97.0
2023-08-09 17:47:27.408368,-97.0
2023-08-09 17:47:27.416058,-88.0
2023-08-09 17:47:27.423749,-83.0
2023-08-09 17:47:27.431439,-88.0
2023-08-09 17:47:27.439130,-90.0
2023-08-09 17:47:27.446820,-90.0
2023-08-09 17:47:27.454511,-85.0
2023-08-09 17:47:27.462201,-74.0
2023-08-09 17:47:27.469892,-52.0
2023-08-09 17:47:27.477583,-33.0
2023-08-09 17:47:27.485273,-31.0
2023-08-09 17:47:27.492964,-47.0
2023-08-09 17:47:27.500654,-64.0
2023-08-09 17:47:27.508345,-64.0
2023-08-09 17:47:27.516035,-81.0
2023-08-09 17:47:27.523726,-95.0
2023-08-09 17:47:27.531416,-76.0
2023-08-09 17:47:27.539107,-74.0
2023-08-09 17:47:27.546797,-93.0
2023-08-09 17:47:27.554488,-100.0
2023-08-09 17:47:27.562178,-100.0
2023-08-09 17:47:27.569869,-90.0
2023-08-09 17:47:27.577560,-95.0
2023-08-09 17:47:27.585250,-16.0
2023-08-09 17:47:27.592941,324.0
2023-08-09 17:47:27.600631,840.0
2023-08-09 17:47:27.608322,1160.0
2023-08-09 17:47:27.616012,998.0
2023-08-09 17:47:27.623703,470.0
2023-08-09 17:47:27.631393,-4.0
2023-08-09 17:47:27.639084,-169.0
2023-08-09 17:47:27.646774,-164.0
2023-08-09 17:47:27.654465,-203.0
2023-08-09 17:47:27.662156,-246.0
2023-08-09 17:47:27.669846,-212.0
2023-08-09 17:47:27.677537,-195.0
2023-08-09 17:47:27.685227,-219.0
2023-08-09 17:47:27.692918,-207.0
2023-08-09 17:47:27.700608,-171.0
2023-08-09 17:47:27.708299,-160.0
2023-08-09 17:47:27.715989,-157.0
2023-08-09 17:47:27.723680,-143.0
2023-08-09 17:47:27.731370,-124.0
2023-08-09 17:47:27.739061,-109.0
2023-08-09 17:47:27.746752,-90.0
2023-08-09 17:47:27.754442,-76.0
2023-08-09 17:47:27.762133,-59.0
2023-08-09 17:47:27.769823,-35.0
2023-08-09 17:47:27.777514,-21.0
2023-08-09 17:47:27.785204,2.0
2023-08-09 17:47:27.792895,42.0
2023-08-09 17:47:27.800585,62.0
2023-08-09 17:47:27.808276,64.0
2023-08-09 17:47:27.815966,81.0
2023-08-09 17:47:27.823657,100.0
2023-08-09 17:47:27.831347,102.0
2023-08-09 17:47:27.839038,95.0
2023-08-09 17:47:27.846729,78.0
2023-08-09 17:47:27.854419,47.0
2023-08-09 17:47:27.862110,28.0
2023-08-09 17:47:27.869800,4.0
2023-08-09 17:47:27.877491,-50.0
2023-08-09 17:47:27.885181,-97.0
2023-08-09 17:47:27.892872,-126.0
2023-08-09 17:47:27.900562,-145.0
2023-08-09 17:47:27.908253,-171.0
2023-08-09 17:47:27.915943,-198.0
2023-08-09 17:47:27.923634,-195.0
2023-08-09 17:47:27.931325,-181.0
2023-08-09 17:47:27.939015,-181.0
2023-08-09 17:47:27.946706,-183.0
2023-08-09 17:47:27.954396,-176.0
2023-08-09 17:47:27.962087,-160.0
2023-08-09 17:47:27.969777,-140.0
2023-08-09 17:47:27.977468,-133.0
2023-08-09 17:47:27.985158,-136.0
2023-08-09 17:47:27.992849,-145.0
2023-08-09 17:47:28.000539,-145.0
2023-08-09 17:47:28.008230,-131.0
2023-08-09 17:47:28.015921,-131.0
2023-08-09 17:47:28.023611,-143.0
2023-08-09 17:47:28.031302,-133.0
2023-08-09 17:47:28.038992,-112.0
2023-08-09 17:47:28.046683,-114.0
2023-08-09 17:47:28.054373,-131.0
2023-08-09 17:47:28.062064,-124.0
2023-08-09 17:47:28.069754,-102.0
2023-08-09 17:47:28.077445,-105.0
2023-08-09 17:47:28.085135,-117.0
2023-08-09 17:47:28.092826,-121.0
2023-08-09 17:47:28.100516,-112.0
2023-08-09 17:47:28.108207,-105.0
2023-08-09 17:47:28.115898,-114.0
2023-08-09 17:47:28.123588,-114.0
2023-08-09 17:47:28.131279,-109.0
2023-08-09 17:47:28.138969,-107.0
2023-08-09 17:47:28.146660,-95.0
2023-08-09 17:47:28.154350,-97.0
2023-08-09 17:47:28.162041,-114.0
2023-08-09 17:47:28.169731,-119.0
2023-08-09 17:47:28.177422,-109.0
2023-08-09 17:47:28.185112,-109.0
2023-08-09 17:47:28.192803,-117.0
2023-08-09 17:47:28.200494,-100.0
2023-08-09 17:47:28.208184,-88.0
2023-08-09 17:47:28.215875,-102.0
2023-08-09 17:47:28.223565,-112.0
2023-08-09 17:47:28.231256,-93.0
2023-08-09 17:47:28.238946,-85.0
2023-08-09 17:47:28.246637,-107.0
2023-08-09 17:47:28.254327,-112.0
2023-08-09 17:47:28.262018,-97.0
2023-08-09 17:47:28.269708,-90.0
2023-08-09 17:47:28.277399,-78.0
2023-08-09 17:47:28.285090,-62.0
2023-08-09 17:47:28.292780,-54.0
2023-08-09 17:47:28.300471,-50.0
2023-08-09 17:47:28.308161,-35.0
2023-08-09 17:47:28.315852,-42.0
2023-08-09 17:47:28.323542,-66.0
2023-08-09 17:47:28.331233,-57.0
2023-08-09 17:47:28.338923,-50.0
2023-08-09 17:47:28.346614,-52.0
2023-08-09 17:47:28.354304,-35.0
2023-08-09 17:47:28.361995,-38.0
2023-08-09 17:47:28.369685,-69.0
2023-08-09 17:47:28.377376,-97.0
2023-08-09 17:47:28.385067,-95.0
2023-08-09 17:47:28.392757,-100.0
2023-08-09 17:47:28.400448,-95.0
2023-08-09 17:47:28.408138,119.0
2023-08-09 17:47:28.415829,604.0
2023-08-09 17:47:28.423519,1077.0
2023-08-09 17:47:28.431210,1167.0
2023-08-09 17:47:28.438900,754.0
2023-08-09 17:47:28.446591,164.0
2023-08-09 17:47:28.454281,-143.0
2023-08-09 17:47:28.461972,-145.0
2023-08-09 17:47:28.469663,-155.0
2023-08-09 17:47:28.477353,-219.0
2023-08-09 17:47:28.485044,-222.0
2023-08-09 17:47:28.492734,-210.0
2023-08-09 17:47:28.500425,-217.0
2023-08-09 17:47:28.508115,-205.0
2023-08-09 17:47:28.515806,-176.0
2023-08-09 17:47:28.523496,-157.0
2023-08-09 17:47:28.531187,-143.0
2023-08-09 17:47:28.538877,-121.0
2023-08-09 17:47:28.546568,-107.0
2023-08-09 17:47:28.554259,-105.0
2023-08-09 17:47:28.561949,-88.0
2023-08-09 17:47:28.569640,-66.0
2023-08-09 17:47:28.577330,-54.0
2023-08-09 17:47:28.585021,-42.0
2023-08-09 17:47:28.592711,-23.0
2023-08-09 17:47:28.600402,4.0
2023-08-09 17:47:28.608092,31.0
2023-08-09 17:47:28.615783,38.0
2023-08-09 17:47:28.623473,62.0
2023-08-09 17:47:28.631164,102.0
2023-08-09 17:47:28.638855,112.0
2023-08-09 17:47:28.646545,112.0
2023-08-09 17:47:28.654236,114.0
2023-08-09 17:47:28.661926,100.0
2023-08-09 17:47:28.669617,85.0
2023-08-09 17:47:28.677307,69.0
2023-08-09 17:47:28.684998,28.0
2023-08-09 17:47:28.692688,-26.0
2023-08-09 17:47:28.700379,-64.0
2023-08-09 17:47:28.708069,-97.0
2023-08-09 17:47:28.715760,-138.0
2023-08-09 17:47:28.723450,-167.0
2023-08-09 17:47:28.731141,-183.0
2023-08-09 17:47:28.738832,-188.0
2023-08-09 17:47:28.746522,-188.0
2023-08-09 17:47:28.754213,-195.0
2023-08-09 17:47:28.761903,-200.0
2023-08-09 17:47:28.769594,-193.0
2023-08-09 17:47:28.777284,-179.0
2023-08-09 17:47:28.784975,-171.0
2023-08-09 17:47:28.792665,-174.0
2023-08-09 17:47:28.800356,-183.0
2023-08-09 17:47:28.808046,-186.0
2023-08-09 17:47:28.815737,-167.0
2023-08-09 17:47:28.823428,-152.0
2023-08-09 17:47:28.831118,-155.0
2023-08-09 17:47:28.838809,-155.0
2023-08-09 17:47:28.846499,-152.0
2023-08-09 17:47:28.854190,-148.0
2023-08-09 17:47:28.861880,-152.0
2023-08-09 17:47:28.869571,-155.0
2023-08-09 17:47:28.877261,-145.0
2023-08-09 17:47:28.884952,-150.0
2023-08-09 17:47:28.892642,-162.0
2023-08-09 17:47:28.900333,-157.0
2023-08-09 17:47:28.908024,-143.0
2023-08-09 17:47:28.915714,-143.0
2023-08-09 17:47:28.923405,-148.0
2023-08-09 17:47:28.931095,-138.0
2023-08-09 17:47:28.938786,-131.0
2023-08-09 17:47:28.946476,-131.0
2023-08-09 17:47:28.954167,-128.0
2023-08-09 17:47:28.961857,-131.0
2023-08-09 17:47:28.969548,-133.0
2023-08-09 17:47:28.977238,-128.0
2023-08-09 17:47:28.984929,-121.0
2023-08-09 17:47:28.992619,-124.0
2023-08-09 17:47:29.000310,-133.0
2023-08-09 17:47:29.008001,-136.0
2023-08-09 17:47:29.015691,-124.0
2023-08-09 17:47:29.023382,-117.0
2023-08-09 17:47:29.031072,-112.0
2023-08-09 17:47:29.038763,-112.0
2023-08-09 17:47:29.046453,-121.0
2023-08-09 17:47:29.054144,-117.0
2023-08-09 17:47:29.061834,-100.0
2023-08-09 17:47:29.069525,-97.0
2023-08-09 17:47:29.077215,-102.0
2023-08-09 17:47:29.084906,-85.0
2023-08-09 17:47:29.092597,-71.0
2023-08-09 17:47:29.100287,-74.0
2023-08-09 17:47:29.107978,-85.0
2023-08-09 17:47:29.115668,-102.0
2023-08-09 17:47:29.123359,-114.0
2023-08-09 17:47:29.131049,-119.0
2023-08-09 17:47:29.138740,-121.0
2023-08-09 17:47:29.146430,-124.0
2023-08-09 17:47:29.154121,-121.0
2023-08-09 17:47:29.161811,-114.0
2023-08-09 17:47:29.169502,-107.0
2023-08-09 17:47:29.177193,-114.0
2023-08-09 17:47:29.184883,-121.0
2023-08-09 17:47:29.192574,9.0
2023-08-09 17:47:29.200264,444.0
2023-08-09 17:47:29.207955,1022.0
2023-08-09 17:47:29.215645,1299.0
2023-08-09 17:47:29.223336,998.0
2023-08-09 17:47:29.231026,353.0
2023-08-09 17:47:29.238717,-114.0
2023-08-09 17:47:29.246407,-210.0
2023-08-09 17:47:29.254098,-179.0
2023-08-09 17:47:29.261788,-222.0
2023-08-09 17:47:29.269479,-253.0
2023-08-09 17:47:29.277170,-229.0
2023-08-09 17:47:29.284860,-217.0
2023-08-09 17:47:29.292551,-214.0
2023-08-09 17:47:29.300241,-200.0
2023-08-09 17:47:29.307932,-186.0
2023-08-09 17:47:29.315622,-174.0
2023-08-09 17:47:29.323313,-155.0
2023-08-09 17:47:29.331003,-136.0
2023-08-09 17:47:29.338694,-119.0
2023-08-09 17:47:29.346384,-102.0
2023-08-09 17:47:29.354075,-85.0
2023-08-09 17:47:29.361766,-66.0
2023-08-09 17:47:29.369456,-45.0
2023-08-09 17:47:29.377147,-21.0
2023-08-09 17:47:29.384837,-4.0
2023-08-09 17:47:29.392528,7.0
2023-08-09 17:47:29.400218,28.0
2023-08-09 17:47:29.407909,57.0
2023-08-09 17:47:29.415599,78.0
2023-08-09 17:47:29.423290,90.0
2023-08-09 17:47:29.430980,100.0
2023-08-09 17:47:29.438671,107.0
2023-08-09 17:47:29.446362,100.0
2023-08-09 17:47:29.454052,78.0
2023-08-09 17:47:29.461743,54.0
2023-08-09 17:47:29.469433,19.0
2023-08-09 17:47:29.477124,-28.0
2023-08-09 17:47:29.484814,-76.0
2023-08-09 17:47:29.492505,-114.0
2023-08-09 17:47:29.500195,-150.0
2023-08-09 17:47:29.507886,-176.0
2023-08-09 17:47:29.515576,-191.0
2023-08-09 17:47:29.523267,-200.0
2023-08-09 17:47:29.530958,-205.0
2023-08-09 17:47:29.538648,-198.0
2023-08-09 17:47:29.546339,-191.0
2023-08-09 17:47:29.554029,-191.0
2023-08-09 17:47:29.561720,-188.0
2023-08-09 17:47:29.569410,-181.0
2023-08-09 17:47:29.577101,-169.0
2023-08-09 17:47:29.584791,-164.0
2023-08-09 17:47:29.592482,-157.0
2023-08-09 17:47:29.600172,-145.0
2023-08-09 17:47:29.607863,-143.0
2023-08-09 17:47:29.615553,-150.0
2023-08-09 17:47:29.623244,-143.0
2023-08-09 17:47:29.630935,-133.0
2023-08-09 17:47:29.638625,-133.0
2023-08-09 17:47:29.646316,-133.0
2023-08-09 17:47:29.654006,-131.0
2023-08-09 17:47:29.661697,-131.0
2023-08-09 17:47:29.669387,-128.0
2023-08-09 17:47:29.677078,-124.0
2023-08-09 17:47:29.684768,-124.0
2023-08-09 17:47:29.692459,-131.0
2023-08-09 17:47:29.700149,-128.0
2023-08-09 17:47:29.707840,-121.0
2023-08-09 17:47:29.715531,-117.0
2023-08-09 17:47:29.723221,-114.0
2023-08-09 17:47:29.730912,-114.0
2023-08-09 17:47:29.738602,-114.0
2023-08-09 17:47:29.746293,-114.0
2023-08-09 17:47:29.753983,-114.0
2023-08-09 17:47:29.761674,-109.0
2023-08-09 17:47:29.769364,-100.0
2023-08-09 17:47:29.777055,-97.0
2023-08-09 17:47:29.784745,-100.0
2023-08-09 17:47:29.792436,-102.0
2023-08-09 17:47:29.800127,-105.0
2023-08-09 17:47:29.807817,-107.0
2023-08-09 17:47:29.815508,-105.0
2023-08-09 17:47:29.823198,-90.0
2023-08-09 17:47:29.830889,-74.0
2023-08-09 17:47:29.838579,-64.0
2023-08-09 17:47:29.846270,-59.0
2023-08-09 17:47:29.853960,-54.0
2023-08-09 17:47:29.861651,-64.0
2023-08-09 17:47:29.869341,-83.0
2023-08-09 17:47:29.877032,-90.0
2023-08-09 17:47:29.884722,-97.0
2023-08-09 17:47:29.892413,-109.0
2023-08-09 17:47:29.900104,-114.0
2023-08-09 17:47:29.907794,-105.0
2023-08-09 17:47:29.915485,-100.0
2023-08-09 17:47:29.923175,-112.0
2023-08-09 17:47:29.930866,-124.0
2023-08-09 17:47:29.938556,-124.0
2023-08-09 17:47:29.946247,-14.0
2023-08-09 17:47:29.953937,348.0
2023-08-09 17:47:29.961628,871.0
2023-08-09 17:47:29.969318,1242.0
2023-08-09 17:47:29.977009,1139.0
2023-08-09 17:47:29.984700,568.0
2023-08-09 17:47:29.992390,-14.0
2023-08-09 17:47:30.000081,-222.0
2023-08-09 17:47:30.007771,-174.0
2023-08-09 17:47:30.015462,-191.0
2023-08-09 17:47:30.023152,-250.0
2023-08-09 17:47:30.030843,-234.0
2023-08-09 17:47:30.038533,-207.0
2023-08-09 17:47:30.046224,-203.0
2023-08-09 17:47:30.053914,-193.0
2023-08-09 17:47:30.061605,-183.0
2023-08-09 17:47:30.069296,-171.0
2023-08-09 17:47:30.076986,-150.0
2023-08-09 17:47:30.084677,-133.0
2023-08-09 17:47:30.092367,-121.0
2023-08-09 17:47:30.100058,-102.0
2023-08-09 17:47:30.107748,-88.0
2023-08-09 17:47:30.115439,-71.0
2023-08-09 17:47:30.123129,-47.0
2023-08-09 17:47:30.130820,-31.0
2023-08-09 17:47:30.138510,-11.0
2023-08-09 17:47:30.146201,11.0
2023-08-09 17:47:30.153891,33.0
2023-08-09 17:47:30.161582,52.0
2023-08-09 17:47:30.169273,74.0
2023-08-09 17:47:30.176963,93.0
2023-08-09 17:47:30.184654,100.0
2023-08-09 17:47:30.192344,97.0
2023-08-09 17:47:30.200035,90.0
2023-08-09 17:47:30.207725,76.0
2023-08-09 17:47:30.215416,52.0
2023-08-09 17:47:30.223106,19.0
2023-08-09 17:47:30.230797,-21.0
2023-08-09 17:47:30.238487,-64.0
2023-08-09 17:47:30.246178,-112.0
2023-08-09 17:47:30.253869,-140.0
2023-08-09 17:47:30.261559,-150.0
2023-08-09 17:47:30.269250,-179.0
2023-08-09 17:47:30.276940,-203.0
2023-08-09 17:47:30.284631,-200.0
2023-08-09 17:47:30.292321,-195.0
2023-08-09 17:47:30.300012,-191.0
2023-08-09 17:47:30.307702,-176.0
2023-08-09 17:47:30.315393,-169.0
2023-08-09 17:47:30.323083,-171.0
2023-08-09 17:47:30.330774,-164.0
2023-08-09 17:47:30.338465,-143.0
2023-08-09 17:47:30.346155,-138.0
2023-08-09 17:47:30.353846,-150.0
2023-08-09 17:47:30.361536,-148.0
2023-08-09 17:47:30.369227,-133.0
2023-08-09 17:47:30.376917,-136.0
2023-08-09 17:47:30.384608,-138.0
2023-08-09 17:47:30.392298,-128.0
2023-08-09 17:47:30.399989,-124.0
2023-08-09 17:47:30.407679,-126.0
2023-08-09 17:47:30.415370,-128.0
2023-08-09 17:47:30.423060,-138.0
2023-08-09 17:47:30.430751,-145.0
2023-08-09 17:47:30.438442,-145.0
2023-08-09 17:47:30.446132,-131.0
2023-08-09 17:47:30.453823,-124.0
2023-08-09 17:47:30.461513,-126.0
2023-08-09 17:47:30.469204,-128.0
2023-08-09 17:47:30.476894,-131.0
2023-08-09 17:47:30.484585,-121.0
2023-08-09 17:47:30.492275,-100.0
2023-08-09 17:47:30.499966,-107.0
2023-08-09 17:47:30.507656,-121.0
2023-08-09 17:47:30.515347,-112.0
2023-08-09 17:47:30.523038,-100.0
2023-08-09 17:47:30.530728,-117.0
2023-08-09 17:47:30.538419,-128.0
2023-08-09 17:47:30.546109,-117.0
2023-08-09 17:47:30.553800,-107.0
2023-08-09 17:47:30.561490,-107.0
2023-08-09 17:47:30.569181,-107.0
2023-08-09 17:47:30.576871,-109.0
2023-08-09 17:47:30.584562,-100.0
2023-08-09 17:47:30.592252,-83.0
2023-08-09 17:47:30.599943,-88.0
2023-08-09 17:47:30.607634,-85.0
2023-08-09 17:47:30.615324,-57.0
2023-08-09 17:47:30.623015,-42.0
2023-08-09 17:47:30.630705,-57.0
2023-08-09 17:47:30.638396,-78.0
2023-08-09 17:47:30.646086,-93.0
2023-08-09 17:47:30.653777,-105.0
2023-08-09 17:47:30.661467,-109.0
2023-08-09 17:47:30.669158,-93.0
2023-08-09 17:47:30.676848,-83.0
2023-08-09 17:47:30.684539,-90.0
2023-08-09 17:47:30.692230,-93.0
2023-08-09 17:47:30.699920,-90.0
2023-08-09 17:47:30.707611,-100.0
2023-08-09 17:47:30.715301,-100.0
2023-08-09 17:47:30.722992,52.0
2023-08-09 17:47:30.730682,446.0
2023-08-09 17:47:30.738373,921.0
2023-08-09 17:47:30.746063,1177.0
2023-08-09 17:47:30.753754,962.0
2023-08-09 17:47:30.761444,389.0
2023-08-09 17:47:30.769135,-78.0
2023-08-09 17:47:30.776825,-181.0
2023-08-09 17:47:30.784516,-145.0
2023-08-09 17:47:30.792207,-195.0
2023-08-09 17:47:30.799897,-236.0
2023-08-09 17:47:30.807588,-200.0
2023-08-09 17:47:30.815278,-188.0
2023-08-09 17:47:30.822969,-205.0
2023-08-09 17:47:30.830659,-193.0
2023-08-09 17:47:30.838350,-176.0
2023-08-09 17:47:30.846040,-152.0
2023-08-09 17:47:30.853731,-124.0
2023-08-09 17:47:30.861421,-121.0
2023-08-09 17:47:30.869112,-121.0
2023-08-09 17:47:30.876803,-97.0
2023-08-09 17:47:30.884493,-78.0
2023-08-09 17:47:30.892184,-59.0
2023-08-09 17:47:30.899874,-42.0
2023-08-09 17:47:30.907565,-40.0
2023-08-09 17:47:30.915255,-28.0
2023-08-09 17:47:30.922946,2.0
2023-08-09 17:47:30.930636,35.0
2023-08-09 17:47:30.938327,54.0
2023-08-09 17:47:30.946017,64.0
2023-08-09 17:47:30.953708,76.0
2023-08-09 17:47:30.961399,88.0
2023-08-09 17:47:30.969089,85.0
2023-08-09 17:47:30.976780,74.0
2023-08-09 17:47:30.984470,64.0
2023-08-09 17:47:30.992161,38.0
2023-08-09 17:47:30.999851,-2.0
2023-08-09 17:47:31.007542,-40.0
2023-08-09 17:47:31.015232,-78.0
2023-08-09 17:47:31.022923,-114.0
2023-08-09 17:47:31.030613,-150.0
2023-08-09 17:47:31.038304,-174.0
2023-08-09 17:47:31.045994,-174.0
2023-08-09 17:47:31.053685,-174.0
2023-08-09 17:47:31.061376,-188.0
2023-08-09 17:47:31.069066,-188.0
2023-08-09 17:47:31.076757,-176.0
2023-08-09 17:47:31.084447,-176.0
2023-08-09 17:47:31.092138,-179.0
2023-08-09 17:47:31.099828,-176.0
2023-08-09 17:47:31.107519,-171.0
2023-08-09 17:47:31.115209,-160.0
2023-08-09 17:47:31.122900,-160.0
2023-08-09 17:47:31.130590,-167.0
2023-08-09 17:47:31.138281,-148.0
2023-08-09 17:47:31.145972,-121.0
2023-08-09 17:47:31.153662,-117.0
2023-08-09 17:47:31.161353,-126.0
2023-08-09 17:47:31.169043,-136.0
2023-08-09 17:47:31.176734,-133.0
2023-08-09 17:47:31.184424,-121.0
2023-08-09 17:47:31.192115,-117.0
2023-08-09 17:47:31.199805,-128.0
2023-08-09 17:47:31.207496,-136.0
2023-08-09 17:47:31.215186,-114.0
2023-08-09 17:47:31.222877,-107.0
2023-08-09 17:47:31.230568,-133.0
2023-08-09 17:47:31.238258,-133.0
2023-08-09 17:47:31.245949,-102.0
2023-08-09 17:47:31.253639,-90.0
2023-08-09 17:47:31.261330,-100.0
2023-08-09 17:47:31.269020,-105.0
2023-08-09 17:47:31.276711,-105.0
2023-08-09 17:47:31.284401,-112.0
2023-08-09 17:47:31.292092,-114.0
2023-08-09 17:47:31.299782,-105.0
2023-08-09 17:47:31.307473,-107.0
2023-08-09 17:47:31.315163,-109.0
2023-08-09 17:47:31.322854,-107.0
2023-08-09 17:47:31.330545,-105.0
2023-08-09 17:47:31.338235,-107.0
2023-08-09 17:47:31.345926,-102.0
2023-08-09 17:47:31.353616,-100.0
2023-08-09 17:47:31.361307,-105.0
2023-08-09 17:47:31.368997,-109.0
2023-08-09 17:47:31.376688,-102.0
2023-08-09 17:47:31.384378,-90.0
2023-08-09 17:47:31.392069,-66.0
2023-08-09 17:47:31.399759,-54.0
2023-08-09 17:47:31.407450,-64.0
2023-08-09 17:47:31.415141,-71.0
2023-08-09 17:47:31.422831,-71.0
2023-08-09 17:47:31.430522,-85.0
2023-08-09 17:47:31.438212,-100.0
2023-08-09 17:47:31.445903,-105.0
2023-08-09 17:47:31.453593,-107.0
2023-08-09 17:47:31.461284,-107.0
2023-08-09 17:47:31.468974,-105.0
2023-08-09 17:47:31.476665,-100.0
2023-08-09 17:47:31.484355,-95.0
2023-08-09 17:47:31.492046,-95.0
2023-08-09 17:47:31.499737,-105.0
2023-08-09 17:47:31.507427,-35.0
2023-08-09 17:47:31.515118,279.0
2023-08-09 17:47:31.522808,795.0
2023-08-09 17:47:31.530499,1177.0
2023-08-09 17:47:31.538189,1077.0
2023-08-09 17:47:31.545880,525.0
2023-08-09 17:47:31.553570,-7.0
2023-08-09 17:47:31.561261,-186.0
2023-08-09 17:47:31.568951,-152.0
2023-08-09 17:47:31.576642,-176.0
2023-08-09 17:47:31.584332,-231.0
2023-08-09 17:47:31.592023,-226.0
2023-08-09 17:47:31.599714,-214.0
2023-08-09 17:47:31.607404,-214.0
2023-08-09 17:47:31.615095,-198.0
2023-08-09 17:47:31.622785,-179.0
2023-08-09 17:47:31.630476,-171.0
2023-08-09 17:47:31.638166,-162.0
2023-08-09 17:47:31.645857,-140.0
2023-08-09 17:47:31.653547,-121.0
2023-08-09 17:47:31.661238,-119.0
2023-08-09 17:47:31.668928,-105.0
2023-08-09 17:47:31.676619,-74.0
2023-08-09 17:47:31.684310,-47.0
2023-08-09 17:47:31.692000,-35.0
2023-08-09 17:47:31.699691,-21.0
2023-08-09 17:47:31.707381,4.0
2023-08-09 17:47:31.715072,23.0
2023-08-09 17:47:31.722762,38.0
2023-08-09 17:47:31.730453,57.0
2023-08-09 17:47:31.738143,76.0
2023-08-09 17:47:31.745834,93.0
2023-08-09 17:47:31.753524,100.0
2023-08-09 17:47:31.761215,88.0
2023-08-09 17:47:31.768906,71.0
2023-08-09 17:47:31.776596,54.0
2023-08-09 17:47:31.784287,19.0
2023-08-09 17:47:31.791977,-21.0
2023-08-09 17:47:31.799668,-50.0
2023-08-09 17:47:31.807358,-83.0
2023-08-09 17:47:31.815049,-138.0
2023-08-09 17:47:31.822739,-176.0
2023-08-09 17:47:31.830430,-171.0
2023-08-09 17:47:31.838120,-167.0
2023-08-09 17:47:31.845811,-186.0
2023-08-09 17:47:31.853502,-195.0
2023-08-09 17:47:31.861192,-195.0
2023-08-09 17:47:31.868883,-191.0
2023-08-09 17:47:31.876573,-181.0
2023-08-09 17:47:31.884264,-167.0
2023-08-09 17:47:31.891954,-162.0
2023-08-09 17:47:31.899645,-164.0
2023-08-09 17:47:31.907335,-167.0
2023-08-09 17:47:31.915026,-164.0
2023-08-09 17:47:31.922716,-145.0
2023-08-09 17:47:31.930407,-136.0
2023-08-09 17:47:31.938097,-145.0
2023-08-09 17:47:31.945788,-150.0
2023-08-09 17:47:31.953479,-140.0
2023-08-09 17:47:31.961169,-136.0
2023-08-09 17:47:31.968860,-136.0
2023-08-09 17:47:31.976550,-145.0
2023-08-09 17:47:31.984241,-155.0
2023-08-09 17:47:31.991931,-140.0
2023-08-09 17:47:31.999622,-138.0
2023-08-09 17:47:32.007312,-150.0
2023-08-09 17:47:32.015003,-145.0
2023-08-09 17:47:32.022693,-128.0
2023-08-09 17:47:32.030384,-128.0
2023-08-09 17:47:32.038075,-140.0
2023-08-09 17:47:32.045765,-138.0
2023-08-09 17:47:32.053456,-126.0
2023-08-09 17:47:32.061146,-126.0
2023-08-09 17:47:32.068837,-136.0
2023-08-09 17:47:32.076527,-143.0
2023-08-09 17:47:32.084218,-138.0
2023-08-09 17:47:32.091908,-128.0
2023-08-09 17:47:32.099599,-128.0
2023-08-09 17:47:32.107289,-131.0
2023-08-09 17:47:32.114980,-138.0
2023-08-09 17:47:32.122671,-150.0
2023-08-09 17:47:32.130361,-136.0
2023-08-09 17:47:32.138052,-117.0
2023-08-09 17:47:32.145742,-133.0
2023-08-09 17:47:32.153433,-138.0
2023-08-09 17:47:32.161123,-119.0
2023-08-09 17:47:32.168814,-109.0
2023-08-09 17:47:32.176504,-93.0
2023-08-09 17:47:32.184195,-78.0
2023-08-09 17:47:32.191885,-88.0
2023-08-09 17:47:32.199576,-93.0
2023-08-09 17:47:32.207266,-97.0
2023-08-09 17:47:32.214957,-121.0
2023-08-09 17:47:32.222648,-126.0
2023-08-09 17:47:32.230338,-114.0
2023-08-09 17:47:32.238029,-119.0
2023-08-09 17:47:32.245719,-114.0
2023-08-09 17:47:32.253410,-105.0
2023-08-09 17:47:32.261100,-117.0
2023-08-09 17:47:32.268791,-124.0
2023-08-09 17:47:32.276481,-117.0
2023-08-09 17:47:32.284172,-9.0
2023-08-09 17:47:32.291862,379.0
2023-08-09 17:47:32.299553,960.0
2023-08-09 17:47:32.307244,1296.0
2023-08-09 17:47:32.314934,1046.0
2023-08-09 17:47:32.322625,398.0
2023-08-09 17:47:32.330315,-105.0
2023-08-09 17:47:32.338006,-207.0
2023-08-09 17:47:32.345696,-162.0
2023-08-09 17:47:32.353387,-203.0
2023-08-09 17:47:32.361077,-238.0
2023-08-09 17:47:32.368768,-219.0
2023-08-09 17:47:32.376458,-217.0
2023-08-09 17:47:32.384149,-212.0
2023-08-09 17:47:32.391840,-186.0
2023-08-09 17:47:32.399530,-179.0
2023-08-09 17:47:32.407221,-183.0
2023-08-09 17:47:32.414911,-164.0
2023-08-09 17:47:32.422602,-140.0
2023-08-09 17:47:32.430292,-138.0
2023-08-09 17:47:32.437983,-128.0
2023-08-09 17:47:32.445673,-97.0
2023-08-09 17:47:32.453364,-64.0
2023-08-09 17:47:32.461054,-47.0
2023-08-09 17:47:32.468745,-38.0
2023-08-09 17:47:32.476435,-19.0
2023-08-09 17:47:32.484126,2.0
2023-08-09 17:47:32.491817,23.0
2023-08-09 17:47:32.499507,54.0
2023-08-09 17:47:32.507198,88.0
2023-08-09 17:47:32.514888,102.0
2023-08-09 17:47:32.522579,97.0
2023-08-09 17:47:32.530269,95.0
2023-08-09 17:47:32.537960,102.0
2023-08-09 17:47:32.545650,93.0
2023-08-09 17:47:32.553341,57.0
2023-08-09 17:47:32.561031,16.0
2023-08-09 17:47:32.568722,-23.0
2023-08-09 17:47:32.576413,-59.0
2023-08-09 17:47:32.584103,-105.0
2023-08-09 17:47:32.591794,-152.0
2023-08-09 17:47:32.599484,-176.0
2023-08-09 17:47:32.607175,-188.0
2023-08-09 17:47:32.614865,-200.0
2023-08-09 17:47:32.622556,-198.0
2023-08-09 17:47:32.630246,-200.0
2023-08-09 17:47:32.637937,-210.0
2023-08-09 17:47:32.645627,-200.0
2023-08-09 17:47:32.653318,-186.0
2023-08-09 17:47:32.661009,-181.0
2023-08-09 17:47:32.668699,-169.0
2023-08-09 17:47:32.676390,-160.0
2023-08-09 17:47:32.684080,-157.0
2023-08-09 17:47:32.691771,-155.0
2023-08-09 17:47:32.699461,-145.0
2023-08-09 17:47:32.707152,-138.0
2023-08-09 17:47:32.714842,-148.0
2023-08-09 17:47:32.722533,-140.0
2023-08-09 17:47:32.730223,-124.0
2023-08-09 17:47:32.737914,-126.0
2023-08-09 17:47:32.745605,-133.0
2023-08-09 17:47:32.753295,-131.0
2023-08-09 17:47:32.760986,-131.0
2023-08-09 17:47:32.768676,-138.0
2023-08-09 17:47:32.776367,-133.0
2023-08-09 17:47:32.784057,-117.0
2023-08-09 17:47:32.791748,-109.0
2023-08-09 17:47:32.799438,-117.0
2023-08-09 17:47:32.807129,-124.0
2023-08-09 17:47:32.814819,-124.0
2023-08-09 17:47:32.822510,-124.0
2023-08-09 17:47:32.830200,-121.0
2023-08-09 17:47:32.837891,-119.0
2023-08-09 17:47:32.845582,-121.0
2023-08-09 17:47:32.853272,-121.0
2023-08-09 17:47:32.860963,-109.0
2023-08-09 17:47:32.868653,-95.0
2023-08-09 17:47:32.876344,-97.0
2023-08-09 17:47:32.884034,-109.0
2023-08-09 17:47:32.891725,-124.0
2023-08-09 17:47:32.899415,-117.0
2023-08-09 17:47:32.907106,-97.0
2023-08-09 17:47:32.914796,-93.0
2023-08-09 17:47:32.922487,-95.0
2023-08-09 17:47:32.930178,-88.0
2023-08-09 17:47:32.937868,-76.0
2023-08-09 17:47:32.945559,-64.0
2023-08-09 17:47:32.953249,-74.0
2023-08-09 17:47:32.960940,-90.0
2023-08-09 17:47:32.968630,-102.0
2023-08-09 17:47:32.976321,-112.0
2023-08-09 17:47:32.984011,-117.0
2023-08-09 17:47:32.991702,-109.0
2023-08-09 17:47:32.999392,-102.0
2023-08-09 17:47:33.007083,-100.0
2023-08-09 17:47:33.014774,-95.0
2023-08-09 17:47:33.022464,-95.0
2023-08-09 17:47:33.030155,-117.0
2023-08-09 17:47:33.037845,-78.0
2023-08-09 17:47:33.045536,203.0
2023-08-09 17:47:33.053226,718.0
2023-08-09 17:47:33.060917,1177.0
2023-08-09 17:47:33.068607,1201.0
2023-08-09 17:47:33.076298,711.0
2023-08-09 17:47:33.083988,102.0
2023-08-09 17:47:33.091679,-174.0
2023-08-09 17:47:33.099369,-148.0
2023-08-09 17:47:33.107060,-155.0
2023-08-09 17:47:33.114751,-224.0
2023-08-09 17:47:33.122441,-226.0
2023-08-09 17:47:33.130132,-200.0
2023-08-09 17:47:33.137822,-195.0
2023-08-09 17:47:33.145513,-203.0
2023-08-09 17:47:33.153203,-186.0
2023-08-09 17:47:33.160894,-152.0
2023-08-09 17:47:33.168584,-138.0
2023-08-09 17:47:33.176275,-136.0
2023-08-09 17:47:33.183965,-119.0
2023-08-09 17:47:33.191656,-85.0
2023-08-09 17:47:33.199347,-64.0
2023-08-09 17:47:33.207037,-76.0
2023-08-09 17:47:33.214728,-76.0
2023-08-09 17:47:33.222418,-26.0
2023-08-09 17:47:33.230109,11.0
2023-08-09 17:47:33.237799,14.0
2023-08-09 17:47:33.245490,31.0
2023-08-09 17:47:33.253180,52.0
2023-08-09 17:47:33.260871,62.0
2023-08-09 17:47:33.268561,88.0
2023-08-09 17:47:33.276252,100.0
2023-08-09 17:47:33.283943,88.0
2023-08-09 17:47:33.291633,100.0
2023-08-09 17:47:33.299324,102.0
2023-08-09 17:47:33.307014,62.0
2023-08-09 17:47:33.314705,21.0
2023-08-09 17:47:33.322395,-16.0
2023-08-09 17:47:33.330086,-64.0
2023-08-09 17:47:33.337776,-109.0
2023-08-09 17:47:33.345467,-150.0
2023-08-09 17:47:33.353157,-167.0
2023-08-09 17:47:33.360848,-162.0
2023-08-09 17:47:33.368538,-179.0
2023-08-09 17:47:33.376229,-205.0
2023-08-09 17:47:33.383920,-205.0
2023-08-09 17:47:33.391610,-198.0
2023-08-09 17:47:33.399301,-195.0
2023-08-09 17:47:33.406991,-188.0
2023-08-09 17:47:33.414682,-171.0
2023-08-09 17:47:33.422372,-162.0
2023-08-09 17:47:33.430063,-162.0
2023-08-09 17:47:33.437753,-150.0
2023-08-09 17:47:33.445444,-148.0
2023-08-09 17:47:33.453134,-162.0
2023-08-09 17:47:33.460825,-155.0
2023-08-09 17:47:33.468516,-140.0
2023-08-09 17:47:33.476206,-136.0
2023-08-09 17:47:33.483897,-138.0
2023-08-09 17:47:33.491587,-140.0
2023-08-09 17:47:33.499278,-121.0
2023-08-09 17:47:33.506968,-102.0
2023-08-09 17:47:33.514659,-117.0
2023-08-09 17:47:33.522349,-126.0
2023-08-09 17:47:33.530040,-119.0
2023-08-09 17:47:33.537730,-124.0
2023-08-09 17:47:33.545421,-126.0
2023-08-09 17:47:33.553112,-117.0
2023-08-09 17:47:33.560802,-126.0
2023-08-09 17:47:33.568493,-131.0
2023-08-09 17:47:33.576183,-105.0
2023-08-09 17:47:33.583874,-105.0
2023-08-09 17:47:33.591564,-131.0
2023-08-09 17:47:33.599255,-119.0
2023-08-09 17:47:33.606945,-102.0
2023-08-09 17:47:33.614636,-109.0
2023-08-09 17:47:33.622326,-112.0
2023-08-09 17:47:33.630017,-107.0
2023-08-09 17:47:33.637707,-107.0
2023-08-09 17:47:33.645398,-107.0
2023-08-09 17:47:33.653089,-100.0
2023-08-09 17:47:33.660779,-107.0
2023-08-09 17:47:33.668470,-121.0
2023-08-09 17:47:33.676160,-105.0
2023-08-09 17:47:33.683851,-93.0
2023-08-09 17:47:33.691541,-105.0
2023-08-09 17:47:33.699232,-105.0
2023-08-09 17:47:33.706922,-97.0
2023-08-09 17:47:33.714613,-105.0
2023-08-09 17:47:33.722303,-95.0
2023-08-09 17:47:33.729994,-76.0
2023-08-09 17:47:33.737685,-74.0
2023-08-09 17:47:33.745375,-59.0
2023-08-09 17:47:33.753066,-35.0
2023-08-09 17:47:33.760756,-45.0
2023-08-09 17:47:33.768447,-78.0
2023-08-09 17:47:33.776137,-88.0
2023-08-09 17:47:33.783828,-83.0
2023-08-09 17:47:33.791518,-102.0
2023-08-09 17:47:33.799209,-119.0
2023-08-09 17:47:33.806899,-100.0
2023-08-09 17:47:33.814590,-90.0
2023-08-09 17:47:33.822281,-100.0
2023-08-09 17:47:33.829971,-102.0
2023-08-09 17:47:33.837662,-100.0
2023-08-09 17:47:33.845352,-59.0
2023-08-09 17:47:33.853043,133.0
2023-08-09 17:47:33.860733,556.0
2023-08-09 17:47:33.868424,1019.0
2023-08-09 17:47:33.876114,1151.0
2023-08-09 17:47:33.883805,790.0
2023-08-09 17:47:33.891495,231.0
2023-08-09 17:47:33.899186,-117.0
2023-08-09 17:47:33.906877,-176.0
2023-08-09 17:47:33.914567,-164.0
2023-08-09 17:47:33.922258,-198.0
2023-08-09 17:47:33.929948,-214.0
2023-08-09 17:47:33.937639,-207.0
2023-08-09 17:47:33.945329,-205.0
2023-08-09 17:47:33.953020,-195.0
2023-08-09 17:47:33.960710,-174.0
2023-08-09 17:47:33.968401,-162.0
2023-08-09 17:47:33.976091,-152.0
2023-08-09 17:47:33.983782,-133.0
2023-08-09 17:47:33.991472,-124.0
2023-08-09 17:47:33.999163,-112.0
2023-08-09 17:47:34.006854,-85.0
2023-08-09 17:47:34.014544,-76.0
2023-08-09 17:47:34.022235,-59.0
2023-08-09 17:47:34.029925,-40.0
2023-08-09 17:47:34.037616,-31.0
2023-08-09 17:47:34.045306,-7.0
2023-08-09 17:47:34.052997,33.0
2023-08-09 17:47:34.060687,47.0
2023-08-09 17:47:34.068378,42.0
2023-08-09 17:47:34.076068,57.0
2023-08-09 17:47:34.083759,90.0
2023-08-09 17:47:34.091450,107.0
2023-08-09 17:47:34.099140,100.0
2023-08-09 17:47:34.106831,81.0
2023-08-09 17:47:34.114521,64.0
2023-08-09 17:47:34.122212,33.0
2023-08-09 17:47:34.129902,7.0
2023-08-09 17:47:34.137593,-19.0
2023-08-09 17:47:34.145283,-74.0
2023-08-09 17:47:34.152974,-131.0
2023-08-09 17:47:34.160664,-145.0
2023-08-09 17:47:34.168355,-152.0
2023-08-09 17:47:34.176046,-176.0
2023-08-09 17:47:34.183736,-186.0
2023-08-09 17:47:34.191427,-179.0
2023-08-09 17:47:34.199117,-179.0
2023-08-09 17:47:34.206808,-176.0
2023-08-09 17:47:34.214498,-169.0
2023-08-09 17:47:34.222189,-160.0
2023-08-09 17:47:34.229879,-157.0
2023-08-09 17:47:34.237570,-152.0
2023-08-09 17:47:34.245260,-143.0
2023-08-09 17:47:34.252951,-145.0
2023-08-09 17:47:34.260641,-138.0
2023-08-09 17:47:34.268332,-121.0
2023-08-09 17:47:34.276023,-133.0
2023-08-09 17:47:34.283713,-145.0
2023-08-09 17:47:34.291404,-121.0
2023-08-09 17:47:34.299094,-112.0
2023-08-09 17:47:34.306785,-131.0
2023-08-09 17:47:34.314475,-131.0
2023-08-09 17:47:34.322166,-126.0
2023-08-09 17:47:34.329856,-145.0
2023-08-09 17:47:34.337547,-140.0
2023-08-09 17:47:34.345237,-114.0
2023-08-09 17:47:34.352928,-121.0
2023-08-09 17:47:34.360619,-145.0
2023-08-09 17:47:34.368309,-145.0
2023-08-09 17:47:34.376000,-121.0
2023-08-09 17:47:34.383690,-119.0
2023-08-09 17:47:34.391381,-143.0
2023-08-09 17:47:34.399071,-148.0
2023-08-09 17:47:34.406762,-133.0
2023-08-09 17:47:34.414452,-133.0
2023-08-09 17:47:34.422143,-136.0
2023-08-09 17:47:34.429833,-124.0
2023-08-09 17:47:34.437524,-124.0
2023-08-09 17:47:34.445215,-136.0
2023-08-09 17:47:34.452905,-133.0
2023-08-09 17:47:34.460596,-128.0
2023-08-09 17:47:34.468286,-138.0
2023-08-09 17:47:34.475977,-138.0
2023-08-09 17:47:34.483667,-121.0
2023-08-09 17:47:34.491358,-109.0
2023-08-09 17:47:34.499048,-121.0
2023-08-09 17:47:34.506739,-136.0
2023-08-09 17:47:34.514429,-131.0
2023-08-09 17:47:34.522120,-114.0
2023-08-09 17:47:34.529810,-112.0
2023-08-09 17:47:34.537501,-119.0
2023-08-09 17:47:34.545192,-109.0
2023-08-09 17:47:34.552882,-93.0
2023-08-09 17:47:34.560573,-83.0
2023-08-09 17:47:34.568263,-64.0
2023-08-09 17:47:34.575954,-57.0
2023-08-09 17:47:34.583644,-69.0
2023-08-09 17:47:34.591335,-97.0
2023-08-09 17:47:34.599025,-121.0
2023-08-09 17:47:34.606716,-112.0
2023-08-09 17:47:34.614406,-102.0
2023-08-09 17:47:34.622097,-117.0
2023-08-09 17:47:34.629788,-117.0
2023-08-09 17:47:34.637478,-102.0
2023-08-09 17:47:34.645169,-97.0
2023-08-09 17:47:34.652859,-100.0
2023-08-09 17:47:34.660550,-109.0
2023-08-09 17:47:34.668240,-69.0
2023-08-09 17:47:34.675931,179.0
2023-08-09 17:47:34.683621,644.0
2023-08-09 17:47:34.691312,1055.0
2023-08-09 17:47:34.699002,1077.0
2023-08-09 17:47:34.706693,652.0
2023-08-09 17:47:34.714384,117.0
2023-08-09 17:47:34.722074,-148.0
2023-08-09 17:47:34.729765,-167.0
2023-08-09 17:47:34.737455,-176.0
2023-08-09 17:47:34.745146,-217.0
2023-08-09 17:47:34.752836,-210.0
2023-08-09 17:47:34.760527,-195.0
2023-08-09 17:47:34.768217,-200.0
2023-08-09 17:47:34.775908,-191.0
2023-08-09 17:47:34.783598,-176.0
2023-08-09 17:47:34.791289,-169.0
2023-08-09 17:47:34.798979,-155.0
2023-08-09 17:47:34.806670,-140.0
2023-08-09 17:47:34.814361,-138.0
2023-08-09 17:47:34.822051,-124.0
2023-08-09 17:47:34.829742,-90.0
2023-08-09 17:47:34.837432,-71.0
2023-08-09 17:47:34.845123,-62.0
2023-08-09 17:47:34.852813,-45.0
2023-08-09 17:47:34.860504,-26.0
2023-08-09 17:47:34.868194,-4.0
2023-08-09 17:47:34.875885,14.0
2023-08-09 17:47:34.883575,31.0
2023-08-09 17:47:34.891266,47.0
2023-08-09 17:47:34.898957,64.0
2023-08-09 17:47:34.906647,78.0
2023-08-09 17:47:34.914338,83.0
2023-08-09 17:47:34.922028,76.0
2023-08-09 17:47:34.929719,71.0
2023-08-09 17:47:34.937409,57.0
2023-08-09 17:47:34.945100,23.0
2023-08-09 17:47:34.952790,-16.0
2023-08-09 17:47:34.960481,-57.0
2023-08-09 17:47:34.968171,-97.0
2023-08-09 17:47:34.975862,-131.0
2023-08-09 17:47:34.983553,-155.0
2023-08-09 17:47:34.991243,-179.0
2023-08-09 17:47:34.998934,-195.0
2023-08-09 17:47:35.006624,-198.0
2023-08-09 17:47:35.014315,-193.0
2023-08-09 17:47:35.022005,-191.0
2023-08-09 17:47:35.029696,-188.0
2023-08-09 17:47:35.037386,-181.0
2023-08-09 17:47:35.045077,-179.0
2023-08-09 17:47:35.052767,-181.0
2023-08-09 17:47:35.060458,-174.0
2023-08-09 17:47:35.068149,-160.0
2023-08-09 17:47:35.075839,-157.0
2023-08-09 17:47:35.083530,-160.0
2023-08-09 17:47:35.091220,-150.0
2023-08-09 17:47:35.098911,-145.0
2023-08-09 17:47:35.106601,-145.0
2023-08-09 17:47:35.114292,-140.0
2023-08-09 17:47:35.121982,-136.0
2023-08-09 17:47:35.129673,-143.0
2023-08-09 17:47:35.137363,-143.0
2023-08-09 17:47:35.145054,-143.0
2023-08-09 17:47:35.152744,-145.0
2023-08-09 17:47:35.160435,-136.0
2023-08-09 17:47:35.168126,-136.0
2023-08-09 17:47:35.175816,-140.0
2023-08-09 17:47:35.183507,-133.0
2023-08-09 17:47:35.191197,-128.0
2023-08-09 17:47:35.198888,-131.0
2023-08-09 17:47:35.206578,-124.0
2023-08-09 17:47:35.214269,-126.0
2023-08-09 17:47:35.221959,-131.0
2023-08-09 17:47:35.229650,-121.0
2023-08-09 17:47:35.237340,-126.0
2023-08-09 17:47:35.245031,-133.0
2023-08-09 17:47:35.252722,-124.0
2023-08-09 17:47:35.260412,-126.0
2023-08-09 17:47:35.268103,-128.0
2023-08-09 17:47:35.275793,-124.0
2023-08-09 17:47:35.283484,-124.0
2023-08-09 17:47:35.291174,-124.0
2023-08-09 17:47:35.298865,-119.0
2023-08-09 17:47:35.306555,-117.0
2023-08-09 17:47:35.314246,-121.0
2023-08-09 17:47:35.321936,-119.0
2023-08-09 17:47:35.329627,-119.0
2023-08-09 17:47:35.337318,-124.0
2023-08-09 17:47:35.345008,-119.0
2023-08-09 17:47:35.352699,-102.0
2023-08-09 17:47:35.360389,-83.0
2023-08-09 17:47:35.368080,-71.0
2023-08-09 17:47:35.375770,-66.0
2023-08-09 17:47:35.383461,-64.0
2023-08-09 17:47:35.391151,-64.0
2023-08-09 17:47:35.398842,-83.0
2023-08-09 17:47:35.406532,-102.0
2023-08-09 17:47:35.414223,-107.0
2023-08-09 17:47:35.421913,-105.0
2023-08-09 17:47:35.429604,-107.0
2023-08-09 17:47:35.437295,-109.0
2023-08-09 17:47:35.444985,-105.0
2023-08-09 17:47:35.452676,-102.0
2023-08-09 17:47:35.460366,-114.0
2023-08-09 17:47:35.468057,-131.0
2023-08-09 17:47:35.475747,-57.0
2023-08-09 17:47:35.483438,286.0
2023-08-09 17:47:35.491128,871.0
2023-08-09 17:47:35.498819,1311.0
2023-08-09 17:47:35.506509,1191.0
2023-08-09 17:47:35.514200,578.0
2023-08-09 17:47:35.521891,-2.0
2023-08-09 17:47:35.529581,-205.0
2023-08-09 17:47:35.537272,-183.0
2023-08-09 17:47:35.544962,-203.0
2023-08-09 17:47:35.552653,-248.0
2023-08-09 17:47:35.560343,-236.0
2023-08-09 17:47:35.568034,-217.0
2023-08-09 17:47:35.575724,-222.0
2023-08-09 17:47:35.583415,-214.0
2023-08-09 17:47:35.591105,-191.0
2023-08-09 17:47:35.598796,-171.0
2023-08-09 17:47:35.606487,-157.0
2023-08-09 17:47:35.614177,-140.0
2023-08-09 17:47:35.621868,-126.0
2023-08-09 17:47:35.629558,-119.0
2023-08-09 17:47:35.637249,-100.0
2023-08-09 17:47:35.644939,-66.0
2023-08-09 17:47:35.652630,-47.0
2023-08-09 17:47:35.660320,-35.0
2023-08-09 17:47:35.668011,-11.0
2023-08-09 17:47:35.675701,19.0
2023-08-09 17:47:35.683392,42.0
2023-08-09 17:47:35.691082,59.0
2023-08-09 17:47:35.698773,81.0
2023-08-09 17:47:35.706464,107.0
2023-08-09 17:47:35.714154,117.0
2023-08-09 17:47:35.721845,112.0
2023-08-09 17:47:35.729535,112.0
2023-08-09 17:47:35.737226,109.0
2023-08-09 17:47:35.744916,81.0
2023-08-09 17:47:35.752607,40.0
2023-08-09 17:47:35.760297,0.0
2023-08-09 17:47:35.767988,-52.0
2023-08-09 17:47:35.775678,-109.0
2023-08-09 17:47:35.783369,-152.0
2023-08-09 17:47:35.791060,-176.0
2023-08-09 17:47:35.798750,-195.0
2023-08-09 17:47:35.806441,-212.0
2023-08-09 17:47:35.814131,-219.0
2023-08-09 17:47:35.821822,-219.0
2023-08-09 17:47:35.829512,-212.0
2023-08-09 17:47:35.837203,-200.0
2023-08-09 17:47:35.844893,-193.0
2023-08-09 17:47:35.852584,-191.0
2023-08-09 17:47:35.860274,-183.0
2023-08-09 17:47:35.867965,-169.0
2023-08-09 17:47:35.875656,-162.0
2023-08-09 17:47:35.883346,-162.0
2023-08-09 17:47:35.891037,-160.0
2023-08-09 17:47:35.898727,-155.0
2023-08-09 17:47:35.906418,-143.0
2023-08-09 17:47:35.914108,-138.0
2023-08-09 17:47:35.921799,-143.0
2023-08-09 17:47:35.929489,-143.0
2023-08-09 17:47:35.937180,-131.0
2023-08-09 17:47:35.944870,-133.0
2023-08-09 17:47:35.952561,-150.0
2023-08-09 17:47:35.960252,-150.0
2023-08-09 17:47:35.967942,-133.0
2023-08-09 17:47:35.975633,-136.0
2023-08-09 17:47:35.983323,-155.0
2023-08-09 17:47:35.991014,-155.0
2023-08-09 17:47:35.998704,-143.0
2023-08-09 17:47:36.006395,-150.0
2023-08-09 17:47:36.014085,-160.0
2023-08-09 17:47:36.021776,-145.0
2023-08-09 17:47:36.029466,-140.0
2023-08-09 17:47:36.037157,-157.0
2023-08-09 17:47:36.044847,-167.0
2023-08-09 17:47:36.052538,-160.0
2023-08-09 17:47:36.060229,-148.0
2023-08-09 17:47:36.067919,-150.0
2023-08-09 17:47:36.075610,-152.0
2023-08-09 17:47:36.083300,-143.0
2023-08-09 17:47:36.090991,-136.0
2023-08-09 17:47:36.098681,-126.0
2023-08-09 17:47:36.106372,-105.0
2023-08-09 17:47:36.114062,-85.0
2023-08-09 17:47:36.121753,-78.0
2023-08-09 17:47:36.129443,-83.0
2023-08-09 17:47:36.137134,-102.0
2023-08-09 17:47:36.144825,-112.0
2023-08-09 17:47:36.152515,-112.0
2023-08-09 17:47:36.160206,-117.0
2023-08-09 17:47:36.167896,-121.0
2023-08-09 17:47:36.175587,-114.0
2023-08-09 17:47:36.183277,-105.0
2023-08-09 17:47:36.190968,-100.0
2023-08-09 17:47:36.198658,-105.0
2023-08-09 17:47:36.206349,-121.0
2023-08-09 17:47:36.214039,-31.0
2023-08-09 17:47:36.221730,351.0
2023-08-09 17:47:36.229421,960.0
2023-08-09 17:47:36.237111,1397.0
2023-08-09 17:47:36.244802,1268.0
2023-08-09 17:47:36.252492,644.0
2023-08-09 17:47:36.260183,21.0
2023-08-09 17:47:36.267873,-210.0
2023-08-09 17:47:36.275564,-164.0
2023-08-09 17:47:36.283254,-176.0
2023-08-09 17:47:36.290945,-238.0
2023-08-09 17:47:36.298635,-222.0
2023-08-09 17:47:36.306326,-203.0
2023-08-09 17:47:36.314016,-210.0
2023-08-09 17:47:36.321707,-195.0
2023-08-09 17:47:36.329398,-171.0
2023-08-09 17:47:36.337088,-160.0
2023-08-09 17:47:36.344779,-148.0
2023-08-09 17:47:36.352469,-121.0
2023-08-09 17:47:36.360160,-105.0
2023-08-09 17:47:36.367850,-97.0
2023-08-09 17:47:36.375541,-74.0
2023-08-09 17:47:36.383231,-47.0
2023-08-09 17:47:36.390922,-33.0
2023-08-09 17:47:36.398612,-4.0
2023-08-09 17:47:36.406303,28.0
2023-08-09 17:47:36.413994,45.0
2023-08-09 17:47:36.421684,59.0
2023-08-09 17:47:36.429375,88.0
2023-08-09 17:47:36.437065,117.0
2023-08-09 17:47:36.444756,131.0
2023-08-09 17:47:36.452446,136.0
2023-08-09 17:47:36.460137,138.0
2023-08-09 17:47:36.467827,131.0
2023-08-09 17:47:36.475518,112.0
2023-08-09 17:47:36.483208,78.0
2023-08-09 17:47:36.490899,35.0
2023-08-09 17:47:36.498590,-9.0
2023-08-09 17:47:36.506280,-64.0
2023-08-09 17:47:36.513971,-119.0
2023-08-09 17:47:36.521661,-162.0
2023-08-09 17:47:36.529352,-193.0
2023-08-09 17:47:36.537042,-212.0
2023-08-09 17:47:36.544733,-212.0
2023-08-09 17:47:36.552423,-214.0
2023-08-09 17:47:36.560114,-222.0
2023-08-09 17:47:36.567804,-212.0
2023-08-09 17:47:36.575495,-195.0
2023-08-09 17:47:36.583185,-198.0
2023-08-09 17:47:36.590876,-205.0
2023-08-09 17:47:36.598567,-193.0
2023-08-09 17:47:36.606257,-181.0
2023-08-09 17:47:36.613948,-171.0
2023-08-09 17:47:36.621638,-164.0
2023-08-09 17:47:36.629329,-160.0
2023-08-09 17:47:36.637019,-155.0
2023-08-09 17:47:36.644710,-148.0
2023-08-09 17:47:36.652400,-145.0
2023-08-09 17:47:36.660091,-140.0
2023-08-09 17:47:36.667781,-136.0
2023-08-09 17:47:36.675472,-138.0
2023-08-09 17:47:36.683163,-143.0
2023-08-09 17:47:36.690853,-138.0
2023-08-09 17:47:36.698544,-133.0
2023-08-09 17:47:36.706234,-136.0
2023-08-09 17:47:36.713925,-131.0
2023-08-09 17:47:36.721615,-128.0
2023-08-09 17:47:36.729306,-128.0
2023-08-09 17:47:36.736996,-126.0
2023-08-09 17:47:36.744687,-126.0
2023-08-09 17:47:36.752377,-128.0
2023-08-09 17:47:36.760068,-128.0
2023-08-09 17:47:36.767759,-126.0
2023-08-09 17:47:36.775449,-126.0
2023-08-09 17:47:36.783140,-126.0
2023-08-09 17:47:36.790830,-124.0
2023-08-09 17:47:36.798521,-121.0
2023-08-09 17:47:36.806211,-121.0
2023-08-09 17:47:36.813902,-131.0
2023-08-09 17:47:36.821592,-124.0
2023-08-09 17:47:36.829283,-100.0
2023-08-09 17:47:36.836973,-83.0
2023-08-09 17:47:36.844664,-69.0
2023-08-09 17:47:36.852354,-57.0
2023-08-09 17:47:36.860045,-62.0
2023-08-09 17:47:36.867736,-83.0
2023-08-09 17:47:36.875426,-97.0
2023-08-09 17:47:36.883117,-102.0
2023-08-09 17:47:36.890807,-105.0
2023-08-09 17:47:36.898498,-102.0
2023-08-09 17:47:36.906188,-95.0
2023-08-09 17:47:36.913879,-97.0
2023-08-09 17:47:36.921569,-97.0
2023-08-09 17:47:36.929260,-93.0
2023-08-09 17:47:36.936950,-105.0
2023-08-09 17:47:36.944641,-81.0
2023-08-09 17:47:36.952332,181.0
2023-08-09 17:47:36.960022,728.0
2023-08-09 17:47:36.967713,1261.0
2023-08-09 17:47:36.975403,1387.0
2023-08-09 17:47:36.983094,964.0
2023-08-09 17:47:36.990784,269.0
2023-08-09 17:47:36.998475,-186.0
2023-08-09 17:47:37.006165,-210.0
2023-08-09 17:47:37.013856,-155.0
2023-08-09 17:47:37.021546,-226.0
2023-08-09 17:47:37.029237,-255.0
2023-08-09 17:47:37.036928,-219.0
2023-08-09 17:47:37.044618,-219.0
2023-08-09 17:47:37.052309,-212.0
2023-08-09 17:47:37.059999,-179.0
2023-08-09 17:47:37.067690,-164.0
2023-08-09 17:47:37.075380,-160.0
2023-08-09 17:47:37.083071,-140.0
2023-08-09 17:47:37.090761,-121.0
2023-08-09 17:47:37.098452,-107.0
2023-08-09 17:47:37.106142,-85.0
2023-08-09 17:47:37.113833,-64.0
2023-08-09 17:47:37.121524,-45.0
2023-08-09 17:47:37.129214,-26.0
2023-08-09 17:47:37.136905,-7.0
2023-08-09 17:47:37.144595,16.0
2023-08-09 17:47:37.152286,45.0
2023-08-09 17:47:37.159976,76.0
2023-08-09 17:47:37.167667,90.0
2023-08-09 17:47:37.175357,93.0
2023-08-09 17:47:37.183048,107.0
2023-08-09 17:47:37.190738,117.0
2023-08-09 17:47:37.198429,112.0
2023-08-09 17:47:37.206119,105.0
2023-08-09 17:47:37.213810,85.0
2023-08-09 17:47:37.221501,42.0
2023-08-09 17:47:37.229191,-4.0
2023-08-09 17:47:37.236882,-52.0
2023-08-09 17:47:37.244572,-105.0
2023-08-09 17:47:37.252263,-145.0
2023-08-09 17:47:37.259953,-169.0
2023-08-09 17:47:37.267644,-191.0
2023-08-09 17:47:37.275334,-203.0
2023-08-09 17:47:37.283025,-205.0
2023-08-09 17:47:37.290715,-203.0
2023-08-09 17:47:37.298406,-200.0
2023-08-09 17:47:37.306097,-195.0
2023-08-09 17:47:37.313787,-183.0
2023-08-09 17:47:37.321478,-176.0
2023-08-09 17:47:37.329168,-174.0
2023-08-09 17:47:37.336859,-167.0
2023-08-09 17:47:37.344549,-162.0
2023-08-09 17:47:37.352240,-157.0
2023-08-09 17:47:37.359930,-152.0
2023-08-09 17:47:37.367621,-145.0
2023-08-09 17:47:37.375311,-133.0
2023-08-09 17:47:37.383002,-131.0
2023-08-09 17:47:37.390693,-133.0
2023-08-09 17:47:37.398383,-131.0
2023-08-09 17:47:37.406074,-128.0
2023-08-09 17:47:37.413764,-126.0
2023-08-09 17:47:37.421455,-124.0
2023-08-09 17:47:37.429145,-124.0
2023-08-09 17:47:37.436836,-119.0
2023-08-09 17:47:37.444526,-117.0
2023-08-09 17:47:37.452217,-121.0
2023-08-09 17:47:37.459907,-124.0
2023-08-09 17:47:37.467598,-126.0
2023-08-09 17:47:37.475288,-131.0
2023-08-09 17:47:37.482979,-131.0
2023-08-09 17:47:37.490670,-121.0
2023-08-09 17:47:37.498360,-112.0
2023-08-09 17:47:37.506051,-114.0
2023-08-09 17:47:37.513741,-119.0
2023-08-09 17:47:37.521432,-117.0
2023-08-09 17:47:37.529122,-117.0
2023-08-09 17:47:37.536813,-117.0
2023-08-09 17:47:37.544503,-109.0
2023-08-09 17:47:37.552194,-107.0
2023-08-09 17:47:37.559884,-112.0
2023-08-09 17:47:37.567575,-112.0
2023-08-09 17:47:37.575266,-112.0
2023-08-09 17:47:37.582956,-117.0
2023-08-09 17:47:37.590647,-114.0
2023-08-09 17:47:37.598337,-105.0
2023-08-09 17:47:37.606028,-83.0
2023-08-09 17:47:37.613718,-64.0
2023-08-09 17:47:37.621409,-57.0
2023-08-09 17:47:37.629099,-59.0
2023-08-09 17:47:37.636790,-69.0
2023-08-09 17:47:37.644480,-83.0
2023-08-09 17:47:37.652171,-93.0
2023-08-09 17:47:37.659862,-97.0
2023-08-09 17:47:37.667552,-100.0
2023-08-09 17:47:37.675243,-102.0
2023-08-09 17:47:37.682933,-102.0
2023-08-09 17:47:37.690624,-100.0
2023-08-09 17:47:37.698314,-95.0
2023-08-09 17:47:37.706005,-102.0
2023-08-09 17:47:37.713695,-121.0
2023-08-09 17:47:37.721386,-52.0
2023-08-09 17:47:37.729076,257.0
2023-08-09 17:47:37.736767,776.0
2023-08-09 17:47:37.744457,1203.0
2023-08-09 17:47:37.752148,1201.0
2023-08-09 17:47:37.759839,697.0
2023-08-09 17:47:37.767529,74.0
2023-08-09 17:47:37.775220,-207.0
2023-08-09 17:47:37.782910,-171.0
2023-08-09 17:47:37.790601,-160.0
2023-08-09 17:47:37.798291,-226.0
2023-08-09 17:47:37.805982,-229.0
2023-08-09 17:47:37.813672,-203.0
2023-08-09 17:47:37.821363,-210.0
2023-08-09 17:47:37.829053,-203.0
2023-08-09 17:47:37.836744,-179.0
2023-08-09 17:47:37.844435,-171.0
2023-08-09 17:47:37.852125,-157.0
2023-08-09 17:47:37.859816,-128.0
2023-08-09 17:47:37.867506,-117.0
2023-08-09 17:47:37.875197,-117.0
2023-08-09 17:47:37.882887,-95.0
2023-08-09 17:47:37.890578,-62.0
2023-08-09 17:47:37.898268,-40.0
2023-08-09 17:47:37.905959,-28.0
2023-08-09 17:47:37.913649,-11.0
2023-08-09 17:47:37.921340,11.0
2023-08-09 17:47:37.929031,38.0
2023-08-09 17:47:37.936721,57.0
2023-08-09 17:47:37.944412,71.0
2023-08-09 17:47:37.952102,85.0
2023-08-09 17:47:37.959793,95.0
2023-08-09 17:47:37.967483,95.0
2023-08-09 17:47:37.975174,90.0
2023-08-09 17:47:37.982864,78.0
2023-08-09 17:47:37.990555,54.0
2023-08-09 17:47:37.998245,16.0
2023-08-09 17:47:38.005936,-23.0
2023-08-09 17:47:38.013626,-71.0
2023-08-09 17:47:38.021317,-114.0
2023-08-09 17:47:38.029008,-145.0
2023-08-09 17:47:38.036698,-171.0
2023-08-09 17:47:38.044389,-186.0
2023-08-09 17:47:38.052079,-193.0
2023-08-09 17:47:38.059770,-198.0
2023-08-09 17:47:38.067460,-195.0
2023-08-09 17:47:38.075151,-186.0
2023-08-09 17:47:38.082841,-181.0
2023-08-09 17:47:38.090532,-181.0
2023-08-09 17:47:38.098222,-183.0
2023-08-09 17:47:38.105913,-174.0
2023-08-09 17:47:38.113604,-155.0
2023-08-09 17:47:38.121294,-143.0
2023-08-09 17:47:38.128985,-152.0
2023-08-09 17:47:38.136675,-162.0
2023-08-09 17:47:38.144366,-157.0
2023-08-09 17:47:38.152056,-143.0
2023-08-09 17:47:38.159747,-143.0
2023-08-09 17:47:38.167437,-150.0
2023-08-09 17:47:38.175128,-136.0
2023-08-09 17:47:38.182818,-119.0
2023-08-09 17:47:38.190509,-131.0
2023-08-09 17:47:38.198200,-138.0
2023-08-09 17:47:38.205890,-136.0
2023-08-09 17:47:38.213581,-128.0
2023-08-09 17:47:38.221271,-128.0
2023-08-09 17:47:38.228962,-143.0
2023-08-09 17:47:38.236652,-140.0
2023-08-09 17:47:38.244343,-114.0
2023-08-09 17:47:38.252033,-109.0
2023-08-09 17:47:38.259724,-124.0
2023-08-09 17:47:38.267414,-119.0
2023-08-09 17:47:38.275105,-112.0
2023-08-09 17:47:38.282796,-124.0
2023-08-09 17:47:38.290486,-133.0
2023-08-09 17:47:38.298177,-128.0
2023-08-09 17:47:38.305867,-128.0
2023-08-09 17:47:38.313558,-119.0
2023-08-09 17:47:38.321248,-112.0
2023-08-09 17:47:38.328939,-119.0
2023-08-09 17:47:38.336629,-124.0
2023-08-09 17:47:38.344320,-133.0
2023-08-09 17:47:38.352010,-138.0
2023-08-09 17:47:38.359701,-119.0
2023-08-09 17:47:38.367391,-117.0
2023-08-09 17:47:38.375082,-126.0
2023-08-09 17:47:38.382773,-117.0
2023-08-09 17:47:38.390463,-112.0
2023-08-09 17:47:38.398154,-124.0
2023-08-09 17:47:38.405844,-119.0
2023-08-09 17:47:38.413535,-105.0
2023-08-09 17:47:38.421225,-102.0
2023-08-09 17:47:38.428916,-114.0
2023-08-09 17:47:38.436606,-117.0
2023-08-09 17:47:38.444297,-100.0
2023-08-09 17:47:38.451987,-81.0
2023-08-09 17:47:38.459678,-59.0
2023-08-09 17:47:38.467369,-47.0
2023-08-09 17:47:38.475059,-59.0
2023-08-09 17:47:38.482750,-85.0
2023-08-09 17:47:38.490440,-102.0
2023-08-09 17:47:38.498131,-114.0
2023-08-09 17:47:38.505821,-126.0
2023-08-09 17:47:38.513512,-119.0
2023-08-09 17:47:38.521202,-109.0
2023-08-09 17:47:38.528893,-117.0
2023-08-09 17:47:38.536583,-117.0
2023-08-09 17:47:38.544274,-102.0
2023-08-09 17:47:38.551965,-109.0
2023-08-09 17:47:38.559655,-109.0
2023-08-09 17:47:38.567346,7.0
2023-08-09 17:47:38.575036,365.0
2023-08-09 17:47:38.582727,876.0
2023-08-09 17:47:38.590417,1179.0
2023-08-09 17:47:38.598108,972.0
2023-08-09 17:47:38.605798,410.0
2023-08-09 17:47:38.613489,-57.0
2023-08-09 17:47:38.621179,-193.0
2023-08-09 17:47:38.628870,-148.0
2023-08-09 17:47:38.636560,-171.0
2023-08-09 17:47:38.644251,-224.0
2023-08-09 17:47:38.651942,-212.0
2023-08-09 17:47:38.659632,-191.0
2023-08-09 17:47:38.667323,-188.0
2023-08-09 17:47:38.675013,-181.0
2023-08-09 17:47:38.682704,-169.0
2023-08-09 17:47:38.690394,-157.0
2023-08-09 17:47:38.698085,-138.0
2023-08-09 17:47:38.705775,-112.0
2023-08-09 17:47:38.713466,-105.0
2023-08-09 17:47:38.721156,-97.0
2023-08-09 17:47:38.728847,-76.0
2023-08-09 17:47:38.736538,-57.0
2023-08-09 17:47:38.744228,-50.0
2023-08-09 17:47:38.751919,-38.0
2023-08-09 17:47:38.759609,-11.0
2023-08-09 17:47:38.767300,21.0
2023-08-09 17:47:38.774990,50.0
2023-08-09 17:47:38.782681,59.0
2023-08-09 17:47:38.790371,71.0
2023-08-09 17:47:38.798062,97.0
2023-08-09 17:47:38.805752,105.0
2023-08-09 17:47:38.813443,105.0
2023-08-09 17:47:38.821134,102.0
2023-08-09 17:47:38.828824,69.0
2023-08-09 17:47:38.836515,31.0
2023-08-09 17:47:38.844205,16.0
2023-08-09 17:47:38.851896,-9.0
2023-08-09 17:47:38.859586,-62.0
2023-08-09 17:47:38.867277,-107.0
2023-08-09 17:47:38.874967,-136.0
2023-08-09 17:47:38.882658,-160.0
2023-08-09 17:47:38.890348,-174.0
2023-08-09 17:47:38.898039,-186.0
2023-08-09 17:47:38.905729,-193.0
2023-08-09 17:47:38.913420,-188.0
2023-08-09 17:47:38.921111,-179.0
2023-08-09 17:47:38.928801,-171.0
2023-08-09 17:47:38.936492,-167.0
2023-08-09 17:47:38.944182,-171.0
2023-08-09 17:47:38.951873,-164.0
2023-08-09 17:47:38.959563,-145.0
2023-08-09 17:47:38.967254,-138.0
2023-08-09 17:47:38.974944,-140.0
2023-08-09 17:47:38.982635,-140.0
2023-08-09 17:47:38.990325,-140.0
2023-08-09 17:47:38.998016,-140.0
2023-08-09 17:47:39.005707,-138.0
2023-08-09 17:47:39.013397,-136.0
2023-08-09 17:47:39.021088,-140.0
2023-08-09 17:47:39.028778,-143.0
2023-08-09 17:47:39.036469,-133.0
2023-08-09 17:47:39.044159,-117.0
2023-08-09 17:47:39.051850,-121.0
2023-08-09 17:47:39.059540,-148.0
2023-08-09 17:47:39.067231,-136.0
2023-08-09 17:47:39.074921,-102.0
2023-08-09 17:47:39.082612,-109.0
2023-08-09 17:47:39.090303,-133.0
2023-08-09 17:47:39.097993,-121.0
2023-08-09 17:47:39.105684,-107.0
2023-08-09 17:47:39.113374,-117.0
2023-08-09 17:47:39.121065,-126.0
2023-08-09 17:47:39.128755,-119.0
2023-08-09 17:47:39.136446,-112.0
2023-08-09 17:47:39.144136,-112.0
2023-08-09 17:47:39.151827,-109.0
2023-08-09 17:47:39.159517,-100.0
2023-08-09 17:47:39.167208,-95.0
2023-08-09 17:47:39.174899,-102.0
2023-08-09 17:47:39.182589,-102.0
2023-08-09 17:47:39.190280,-105.0
2023-08-09 17:47:39.197970,-109.0
2023-08-09 17:47:39.205661,-105.0
2023-08-09 17:47:39.213351,-93.0
2023-08-09 17:47:39.221042,-95.0
2023-08-09 17:47:39.228732,-100.0
2023-08-09 17:47:39.236423,-95.0
2023-08-09 17:47:39.244113,-95.0
2023-08-09 17:47:39.251804,-100.0
2023-08-09 17:47:39.259494,-97.0
2023-08-09 17:47:39.267185,-93.0
2023-08-09 17:47:39.274876,-85.0
2023-08-09 17:47:39.282566,-93.0
2023-08-09 17:47:39.290257,-102.0
2023-08-09 17:47:39.297947,-90.0
2023-08-09 17:47:39.305638,-78.0
2023-08-09 17:47:39.313328,-69.0
2023-08-09 17:47:39.321019,-47.0
2023-08-09 17:47:39.328709,-31.0
2023-08-09 17:47:39.336400,-33.0
2023-08-09 17:47:39.344090,-47.0
2023-08-09 17:47:39.351781,-74.0
2023-08-09 17:47:39.359472,-85.0
2023-08-09 17:47:39.367162,-85.0
2023-08-09 17:47:39.374853,-97.0
2023-08-09 17:47:39.382543,-107.0
2023-08-09 17:47:39.390234,-102.0
2023-08-09 17:47:39.397924,-93.0
2023-08-09 17:47:39.405615,-81.0
2023-08-09 17:47:39.413305,-78.0
2023-08-09 17:47:39.420996,-105.0
2023-08-09 17:47:39.428686,-66.0
2023-08-09 17:47:39.436377,198.0
2023-08-09 17:47:39.444068,675.0
2023-08-09 17:47:39.451758,1098.0
2023-08-09 17:47:39.459449,1110.0
2023-08-09 17:47:39.467139,640.0
2023-08-09 17:47:39.474830,83.0
2023-08-09 17:47:39.482520,-164.0
2023-08-09 17:47:39.490211,-160.0
2023-08-09 17:47:39.497901,-174.0
2023-08-09 17:47:39.505592,-229.0
2023-08-09 17:47:39.513282,-224.0
2023-08-09 17:47:39.520973,-198.0
2023-08-09 17:47:39.528663,-203.0
2023-08-09 17:47:39.536354,-198.0
2023-08-09 17:47:39.544045,-174.0
2023-08-09 17:47:39.551735,-162.0
2023-08-09 17:47:39.559426,-160.0
2023-08-09 17:47:39.567116,-148.0
2023-08-09 17:47:39.574807,-131.0
2023-08-09 17:47:39.582497,-109.0
2023-08-09 17:47:39.590188,-90.0
2023-08-09 17:47:39.597878,-83.0
2023-08-09 17:47:39.605569,-74.0
2023-08-09 17:47:39.613259,-47.0
2023-08-09 17:47:39.620950,-21.0
2023-08-09 17:47:39.628641,-2.0
2023-08-09 17:47:39.636331,16.0
2023-08-09 17:47:39.644022,45.0
2023-08-09 17:47:39.651712,66.0
2023-08-09 17:47:39.659403,76.0
2023-08-09 17:47:39.667093,90.0
2023-08-09 17:47:39.674784,102.0
2023-08-09 17:47:39.682474,95.0
2023-08-09 17:47:39.690165,78.0
2023-08-09 17:47:39.697855,59.0
2023-08-09 17:47:39.705546,35.0
2023-08-09 17:47:39.713237,16.0
2023-08-09 17:47:39.720927,-28.0
2023-08-09 17:47:39.728618,-97.0
2023-08-09 17:47:39.736308,-131.0
2023-08-09 17:47:39.743999,-140.0
2023-08-09 17:47:39.751689,-164.0
2023-08-09 17:47:39.759380,-183.0
2023-08-09 17:47:39.767070,-186.0
2023-08-09 17:47:39.774761,-186.0
2023-08-09 17:47:39.782451,-183.0
2023-08-09 17:47:39.790142,-176.0
2023-08-09 17:47:39.797832,-174.0
2023-08-09 17:47:39.805523,-179.0
2023-08-09 17:47:39.813214,-169.0
2023-08-09 17:47:39.820904,-143.0
2023-08-09 17:47:39.828595,-140.0
2023-08-09 17:47:39.836285,-162.0
2023-08-09 17:47:39.843976,-162.0
2023-08-09 17:47:39.851666,-133.0
2023-08-09 17:47:39.859357,-128.0
2023-08-09 17:47:39.867047,-150.0
2023-08-09 17:47:39.874738,-143.0
2023-08-09 17:47:39.882428,-124.0
2023-08-09 17:47:39.890119,-128.0
2023-08-09 17:47:39.897810,-133.0
2023-08-09 17:47:39.905500,-128.0
2023-08-09 17:47:39.913191,-133.0
2023-08-09 17:47:39.920881,-143.0
2023-08-09 17:47:39.928572,-143.0
2023-08-09 17:47:39.936262,-136.0
2023-08-09 17:47:39.943953,-128.0
2023-08-09 17:47:39.951643,-136.0
2023-08-09 17:47:39.959334,-157.0
2023-08-09 17:47:39.967024,-157.0
2023-08-09 17:47:39.974715,-140.0
2023-08-09 17:47:39.982406,-143.0
2023-08-09 17:47:39.990096,-150.0
2023-08-09 17:47:39.997787,-155.0
2023-08-09 17:47:40.005477,-157.0
2023-08-09 17:47:40.013168,-148.0
2023-08-09 17:47:40.020858,-138.0
2023-08-09 17:47:40.028549,-145.0
2023-08-09 17:47:40.036239,-148.0
2023-08-09 17:47:40.043930,-140.0
2023-08-09 17:47:40.051620,-133.0
2023-08-09 17:47:40.059311,-119.0
2023-08-09 17:47:40.067001,-117.0
2023-08-09 17:47:40.074692,-138.0
2023-08-09 17:47:40.082383,-143.0
2023-08-09 17:47:40.090073,-126.0
2023-08-09 17:47:40.097764,-119.0
2023-08-09 17:47:40.105454,-109.0
2023-08-09 17:47:40.113145,-102.0
2023-08-09 17:47:40.120835,-107.0
2023-08-09 17:47:40.128526,-109.0
2023-08-09 17:47:40.136216,-102.0
2023-08-09 17:47:40.143907,-97.0
2023-08-09 17:47:40.151597,-97.0
2023-08-09 17:47:40.159288,-88.0
2023-08-09 17:47:40.166979,-76.0
2023-08-09 17:47:40.174669,-69.0
2023-08-09 17:47:40.182360,-59.0
2023-08-09 17:47:40.190050,-52.0
2023-08-09 17:47:40.197741,-52.0
2023-08-09 17:47:40.205431,-54.0
2023-08-09 17:47:40.213122,-62.0
2023-08-09 17:47:40.220812,-78.0
2023-08-09 17:47:40.228503,-90.0
2023-08-09 17:47:40.236193,-93.0
2023-08-09 17:47:40.243884,-88.0
2023-08-09 17:47:40.251575,-83.0
2023-08-09 17:47:40.259265,-74.0
2023-08-09 17:47:40.266956,-69.0
2023-08-09 17:47:40.274646,-83.0
2023-08-09 17:47:40.282337,-78.0
2023-08-09 17:47:40.290027,107.0
2023-08-09 17:47:40.297718,587.0
2023-08-09 17:47:40.305408,1136.0
2023-08-09 17:47:40.313099,1287.0
2023-08-09 17:47:40.320789,855.0
2023-08-09 17:47:40.328480,217.0
2023-08-09 17:47:40.336171,-126.0
2023-08-09 17:47:40.343861,-145.0
2023-08-09 17:47:40.351552,-136.0
2023-08-09 17:47:40.359242,-193.0
2023-08-09 17:47:40.366933,-210.0
2023-08-09 17:47:40.374623,-186.0
2023-08-09 17:47:40.382314,-179.0
2023-08-09 17:47:40.390004,-169.0
2023-08-09 17:47:40.397695,-150.0
2023-08-09 17:47:40.405385,-140.0
2023-08-09 17:47:40.413076,-131.0
2023-08-09 17:47:40.420766,-112.0
2023-08-09 17:47:40.428457,-95.0
2023-08-09 17:47:40.436148,-83.0
2023-08-09 17:47:40.443838,-66.0
2023-08-09 17:47:40.451529,-52.0
2023-08-09 17:47:40.459219,-35.0
2023-08-09 17:47:40.466910,-4.0
2023-08-09 17:47:40.474600,16.0
2023-08-09 17:47:40.482291,33.0
2023-08-09 17:47:40.489981,59.0
2023-08-09 17:47:40.497672,76.0
2023-08-09 17:47:40.505362,85.0
2023-08-09 17:47:40.513053,105.0
2023-08-09 17:47:40.520744,131.0
2023-08-09 17:47:40.528434,150.0
2023-08-09 17:47:40.536125,148.0
2023-08-09 17:47:40.543815,131.0
2023-08-09 17:47:40.551506,105.0
2023-08-09 17:47:40.559196,76.0
2023-08-09 17:47:40.566887,38.0
2023-08-09 17:47:40.574577,-11.0
2023-08-09 17:47:40.582268,-71.0
2023-08-09 17:47:40.589958,-124.0
2023-08-09 17:47:40.597649,-162.0
2023-08-09 17:47:40.605340,-169.0
2023-08-09 17:47:40.613030,-176.0
2023-08-09 17:47:40.620721,-193.0
2023-08-09 17:47:40.628411,-198.0
2023-08-09 17:47:40.636102,-188.0
2023-08-09 17:47:40.643792,-186.0
2023-08-09 17:47:40.651483,-186.0
2023-08-09 17:47:40.659173,-176.0
2023-08-09 17:47:40.666864,-167.0
2023-08-09 17:47:40.674554,-169.0
2023-08-09 17:47:40.682245,-167.0
2023-08-09 17:47:40.689935,-155.0
2023-08-09 17:47:40.697626,-148.0
2023-08-09 17:47:40.705317,-143.0
2023-08-09 17:47:40.713007,-145.0
2023-08-09 17:47:40.720698,-143.0
2023-08-09 17:47:40.728388,-131.0
2023-08-09 17:47:40.736079,-131.0
2023-08-09 17:47:40.743769,-131.0
2023-08-09 17:47:40.751460,-126.0
2023-08-09 17:47:40.759150,-121.0
2023-08-09 17:47:40.766841,-128.0
2023-08-09 17:47:40.774531,-138.0
2023-08-09 17:47:40.782222,-131.0
2023-08-09 17:47:40.789913,-121.0
2023-08-09 17:47:40.797603,-121.0
2023-08-09 17:47:40.805294,-121.0
2023-08-09 17:47:40.812984,-117.0
2023-08-09 17:47:40.820675,-119.0
2023-08-09 17:47:40.828365,-119.0
2023-08-09 17:47:40.836056,-112.0
2023-08-09 17:47:40.843746,-105.0
2023-08-09 17:47:40.851437,-105.0
2023-08-09 17:47:40.859127,-107.0
2023-08-09 17:47:40.866818,-102.0
2023-08-09 17:47:40.874509,-97.0
2023-08-09 17:47:40.882199,-90.0
2023-08-09 17:47:40.889890,-90.0
2023-08-09 17:47:40.897580,-97.0
2023-08-09 17:47:40.905271,-102.0
2023-08-09 17:47:40.912961,-90.0
2023-08-09 17:47:40.920652,-83.0
2023-08-09 17:47:40.928342,-83.0
2023-08-09 17:47:40.936033,-76.0
2023-08-09 17:47:40.943723,-74.0
2023-08-09 17:47:40.951414,-83.0
2023-08-09 17:47:40.959104,-90.0
2023-08-09 17:47:40.966795,-83.0
2023-08-09 17:47:40.974486,-81.0
2023-08-09 17:47:40.982176,-71.0
2023-08-09 17:47:40.989867,-62.0
2023-08-09 17:47:40.997557,-76.0
2023-08-09 17:47:41.005248,-93.0
2023-08-09 17:47:41.012938,-88.0
2023-08-09 17:47:41.020629,-66.0
2023-08-09 17:47:41.028319,-47.0
2023-08-09 17:47:41.036010,-33.0
2023-08-09 17:47:41.043700,-28.0
2023-08-09 17:47:41.051391,-33.0
2023-08-09 17:47:41.059082,-40.0
2023-08-09 17:47:41.066772,-52.0
2023-08-09 17:47:41.074463,-66.0
2023-08-09 17:47:41.082153,-81.0
2023-08-09 17:47:41.089844,-90.0
2023-08-09 17:47:41.097534,-90.0
2023-08-09 17:47:41.105225,-88.0
2023-08-09 17:47:41.112915,-88.0
2023-08-09 17:47:41.120606,-76.0
2023-08-09 17:47:41.128296,-71.0
2023-08-09 17:47:41.135987,-90.0
2023-08-09 17:47:41.143678,-28.0
2023-08-09 17:47:41.151368,277.0
2023-08-09 17:47:41.159059,790.0
2023-08-09 17:47:41.166749,1206.0
2023-08-09 17:47:41.174440,1184.0
2023-08-09 17:47:41.182130,704.0
2023-08-09 17:47:41.189821,126.0
2023-08-09 17:47:41.197511,-162.0
2023-08-09 17:47:41.205202,-157.0
2023-08-09 17:47:41.212892,-150.0
2023-08-09 17:47:41.220583,-205.0
2023-08-09 17:47:41.228273,-207.0
2023-08-09 17:47:41.235964,-191.0
2023-08-09 17:47:41.243655,-188.0
2023-08-09 17:47:41.251345,-174.0
2023-08-09 17:47:41.259036,-160.0
2023-08-09 17:47:41.266726,-152.0
2023-08-09 17:47:41.274417,-133.0
2023-08-09 17:47:41.282107,-114.0
2023-08-09 17:47:41.289798,-107.0
2023-08-09 17:47:41.297488,-90.0
2023-08-09 17:47:41.305179,-71.0
2023-08-09 17:47:41.312869,-52.0
2023-08-09 17:47:41.320560,-35.0
2023-08-09 17:47:41.328251,-16.0
2023-08-09 17:47:41.335941,4.0
2023-08-09 17:47:41.343632,26.0
2023-08-09 17:47:41.351322,47.0
2023-08-09 17:47:41.359013,69.0
2023-08-09 17:47:41.366703,90.0
2023-08-09 17:47:41.374394,114.0
2023-08-09 17:47:41.382084,128.0
2023-08-09 17:47:41.389775,128.0
2023-08-09 17:47:41.397465,124.0
2023-08-09 17:47:41.405156,112.0
2023-08-09 17:47:41.412847,90.0
2023-08-09 17:47:41.420537,57.0
2023-08-09 17:47:41.428228,16.0
2023-08-09 17:47:41.435918,-28.0
2023-08-09 17:47:41.443609,-81.0
2023-08-09 17:47:41.451299,-131.0
2023-08-09 17:47:41.458990,-162.0
2023-08-09 17:47:41.466680,-171.0
2023-08-09 17:47:41.474371,-191.0
2023-08-09 17:47:41.482061,-207.0
2023-08-09 17:47:41.489752,-207.0
2023-08-09 17:47:41.497443,-203.0
2023-08-09 17:47:41.505133,-205.0
2023-08-09 17:47:41.512824,-203.0
2023-08-09 17:47:41.520514,-195.0
2023-08-09 17:47:41.528205,-186.0
2023-08-09 17:47:41.535895,-181.0
2023-08-09 17:47:41.543586,-181.0
2023-08-09 17:47:41.551276,-171.0
2023-08-09 17:47:41.558967,-157.0
2023-08-09 17:47:41.566657,-155.0
2023-08-09 17:47:41.574348,-157.0
2023-08-09 17:47:41.582038,-157.0
2023-08-09 17:47:41.589729,-145.0
2023-08-09 17:47:41.597420,-140.0
2023-08-09 17:47:41.605110,-143.0
2023-08-09 17:47:41.612801,-143.0
2023-08-09 17:47:41.620491,-145.0
2023-08-09 17:47:41.628182,-152.0
2023-08-09 17:47:41.635872,-148.0
2023-08-09 17:47:41.643563,-136.0
2023-08-09 17:47:41.651253,-136.0
2023-08-09 17:47:41.658944,-136.0
2023-08-09 17:47:41.666634,-131.0
2023-08-09 17:47:41.674325,-128.0
2023-08-09 17:47:41.682016,-128.0
2023-08-09 17:47:41.689706,-124.0
2023-08-09 17:47:41.697397,-126.0
2023-08-09 17:47:41.705087,-133.0
2023-08-09 17:47:41.712778,-124.0
2023-08-09 17:47:41.720468,-109.0
2023-08-09 17:47:41.728159,-114.0
2023-08-09 17:47:41.735849,-117.0
2023-08-09 17:47:41.743540,-107.0
2023-08-09 17:47:41.751230,-105.0
2023-08-09 17:47:41.758921,-102.0
2023-08-09 17:47:41.766612,-100.0
2023-08-09 17:47:41.774302,-100.0
2023-08-09 17:47:41.781993,-90.0
2023-08-09 17:47:41.789683,-85.0
2023-08-09 17:47:41.797374,-93.0
2023-08-09 17:47:41.805064,-95.0
2023-08-09 17:47:41.812755,-85.0
2023-08-09 17:47:41.820445,-85.0
2023-08-09 17:47:41.828136,-85.0
2023-08-09 17:47:41.835826,-76.0
2023-08-09 17:47:41.843517,-74.0
2023-08-09 17:47:41.851207,-83.0
2023-08-09 17:47:41.858898,-78.0
2023-08-09 17:47:41.866589,-66.0
2023-08-09 17:47:41.874279,-66.0
2023-08-09 17:47:41.881970,-71.0
2023-08-09 17:47:41.889660,-66.0
2023-08-09 17:47:41.897351,-50.0
2023-08-09 17:47:41.905041,-23.0
2023-08-09 17:47:41.912732,-11.0
2023-08-09 17:47:41.920422,-19.0
2023-08-09 17:47:41.928113,-38.0
2023-08-09 17:47:41.935803,-59.0
2023-08-09 17:47:41.943494,-74.0
2023-08-09 17:47:41.951185,-74.0
2023-08-09 17:47:41.958875,-74.0
2023-08-09 17:47:41.966566,-71.0
2023-08-09 17:47:41.974256,-62.0
2023-08-09 17:47:41.981947,-59.0
2023-08-09 17:47:41.989637,-64.0
2023-08-09 17:47:41.997328,-74.0
2023-08-09 17:47:42.005018,-76.0
2023-08-09 17:47:42.012709,71.0
2023-08-09 17:47:42.020399,489.0
2023-08-09 17:47:42.028090,1003.0
2023-08-09 17:47:42.035781,1249.0
2023-08-09 17:47:42.043471,986.0
2023-08-09 17:47:42.051162,396.0
2023-08-09 17:47:42.058852,-59.0
2023-08-09 17:47:42.066543,-167.0
2023-08-09 17:47:42.074233,-138.0
2023-08-09 17:47:42.081924,-174.0
2023-08-09 17:47:42.089614,-207.0
2023-08-09 17:47:42.097305,-188.0
2023-08-09 17:47:42.104995,-183.0
2023-08-09 17:47:42.112686,-186.0
2023-08-09 17:47:42.120376,-169.0
2023-08-09 17:47:42.128067,-150.0
2023-08-09 17:47:42.135758,-136.0
2023-08-09 17:47:42.143448,-126.0
2023-08-09 17:47:42.151139,-114.0
2023-08-09 17:47:42.158829,-95.0
2023-08-09 17:47:42.166520,-81.0
2023-08-09 17:47:42.174210,-74.0
2023-08-09 17:47:42.181901,-59.0
2023-08-09 17:47:42.189591,-40.0
2023-08-09 17:47:42.197282,-23.0
2023-08-09 17:47:42.204972,0.0
2023-08-09 17:47:42.212663,21.0
2023-08-09 17:47:42.220354,40.0
2023-08-09 17:47:42.228044,62.0
2023-08-09 17:47:42.235735,88.0
2023-08-09 17:47:42.243425,107.0
2023-08-09 17:47:42.251116,114.0
2023-08-09 17:47:42.258806,114.0
2023-08-09 17:47:42.266497,107.0
2023-08-09 17:47:42.274187,88.0
2023-08-09 17:47:42.281878,59.0
2023-08-09 17:47:42.289568,21.0
2023-08-09 17:47:42.297259,-16.0
2023-08-09 17:47:42.304950,-59.0
2023-08-09 17:47:42.312640,-105.0
2023-08-09 17:47:42.320331,-145.0
2023-08-09 17:47:42.328021,-171.0
2023-08-09 17:47:42.335712,-186.0
2023-08-09 17:47:42.343402,-195.0
2023-08-09 17:47:42.351093,-203.0
2023-08-09 17:47:42.358783,-207.0
2023-08-09 17:47:42.366474,-203.0
2023-08-09 17:47:42.374164,-191.0
2023-08-09 17:47:42.381855,-183.0
2023-08-09 17:47:42.389546,-181.0
2023-08-09 17:47:42.397236,-176.0
2023-08-09 17:47:42.404927,-169.0
2023-08-09 17:47:42.412617,-164.0
2023-08-09 17:47:42.420308,-157.0
2023-08-09 17:47:42.427998,-150.0
2023-08-09 17:47:42.435689,-152.0
2023-08-09 17:47:42.443379,-157.0
2023-08-09 17:47:42.451070,-148.0
2023-08-09 17:47:42.458760,-140.0
2023-08-09 17:47:42.466451,-143.0
2023-08-09 17:47:42.474141,-140.0
2023-08-09 17:47:42.481832,-133.0
2023-08-09 17:47:42.489523,-136.0
2023-08-09 17:47:42.497213,-136.0
2023-08-09 17:47:42.504904,-136.0
2023-08-09 17:47:42.512594,-138.0
2023-08-09 17:47:42.520285,-140.0
2023-08-09 17:47:42.527975,-138.0
2023-08-09 17:47:42.535666,-136.0
2023-08-09 17:47:42.543356,-136.0
2023-08-09 17:47:42.551047,-128.0
2023-08-09 17:47:42.558737,-121.0
2023-08-09 17:47:42.566428,-121.0
2023-08-09 17:47:42.574119,-121.0
2023-08-09 17:47:42.581809,-119.0
2023-08-09 17:47:42.589500,-114.0
2023-08-09 17:47:42.597190,-117.0
2023-08-09 17:47:42.604881,-107.0
2023-08-09 17:47:42.612571,-93.0
2023-08-09 17:47:42.620262,-97.0
2023-08-09 17:47:42.627952,-105.0
2023-08-09 17:47:42.635643,-100.0
2023-08-09 17:47:42.643333,-95.0
2023-08-09 17:47:42.651024,-97.0
2023-08-09 17:47:42.658715,-100.0
2023-08-09 17:47:42.666405,-95.0
2023-08-09 17:47:42.674096,-90.0
2023-08-09 17:47:42.681786,-93.0
2023-08-09 17:47:42.689477,-93.0
2023-08-09 17:47:42.697167,-90.0
2023-08-09 17:47:42.704858,-85.0
2023-08-09 17:47:42.712548,-85.0
2023-08-09 17:47:42.720239,-88.0
2023-08-09 17:47:42.727929,-83.0
2023-08-09 17:47:42.735620,-81.0
2023-08-09 17:47:42.743310,-88.0
2023-08-09 17:47:42.751001,-95.0
2023-08-09 17:47:42.758692,-88.0
2023-08-09 17:47:42.766382,-66.0
2023-08-09 17:47:42.774073,-50.0
2023-08-09 17:47:42.781763,-45.0
2023-08-09 17:47:42.789454,-40.0
2023-08-09 17:47:42.797144,-54.0
2023-08-09 17:47:42.804835,-81.0
2023-08-09 17:47:42.812525,-88.0
2023-08-09 17:47:42.820216,-83.0
2023-08-09 17:47:42.827906,-78.0
2023-08-09 17:47:42.835597,-76.0
2023-08-09 17:47:42.843288,-78.0
2023-08-09 17:47:42.850978,-83.0
2023-08-09 17:47:42.858669,-76.0
2023-08-09 17:47:42.866359,-81.0
2023-08-09 17:47:42.874050,-81.0
2023-08-09 17:47:42.881740,81.0
2023-08-09 17:47:42.889431,525.0
2023-08-09 17:47:42.897121,1079.0
2023-08-09 17:47:42.904812,1328.0
2023-08-09 17:47:42.912502,1005.0
2023-08-09 17:47:42.920193,358.0
2023-08-09 17:47:42.927884,-90.0
2023-08-09 17:47:42.935574,-167.0
2023-08-09 17:47:42.943265,-138.0
2023-08-09 17:47:42.950955,-186.0
2023-08-09 17:47:42.958646,-217.0
2023-08-09 17:47:42.966336,-195.0
2023-08-09 17:47:42.974027,-195.0
2023-08-09 17:47:42.981717,-191.0
2023-08-09 17:47:42.989408,-160.0
2023-08-09 17:47:42.997098,-145.0
2023-08-09 17:47:43.004789,-150.0
2023-08-09 17:47:43.012479,-140.0
2023-08-09 17:47:43.020170,-124.0
2023-08-09 17:47:43.027861,-105.0
2023-08-09 17:47:43.035551,-83.0
2023-08-09 17:47:43.043242,-66.0
2023-08-09 17:47:43.050932,-52.0
2023-08-09 17:47:43.058623,-33.0
2023-08-09 17:47:43.066313,-11.0
2023-08-09 17:47:43.074004,7.0
2023-08-09 17:47:43.081694,28.0
2023-08-09 17:47:43.089385,54.0
2023-08-09 17:47:43.097075,81.0
2023-08-09 17:47:43.104766,105.0
2023-08-09 17:47:43.112457,119.0
2023-08-09 17:47:43.120147,128.0
2023-08-09 17:47:43.127838,133.0
2023-08-09 17:47:43.135528,121.0
2023-08-09 17:47:43.143219,97.0
2023-08-09 17:47:43.150909,76.0
2023-08-09 17:47:43.158600,35.0
2023-08-09 17:47:43.166290,-14.0
2023-08-09 17:47:43.173981,-64.0
2023-08-09 17:47:43.181671,-119.0
2023-08-09 17:47:43.189362,-157.0
2023-08-09 17:47:43.197053,-176.0
2023-08-09 17:47:43.204743,-195.0
2023-08-09 17:47:43.212434,-214.0
2023-08-09 17:47:43.220124,-214.0
2023-08-09 17:47:43.227815,-207.0
2023-08-09 17:47:43.235505,-210.0
2023-08-09 17:47:43.243196,-210.0
2023-08-09 17:47:43.250886,-195.0
2023-08-09 17:47:43.258577,-186.0
2023-08-09 17:47:43.266267,-186.0
2023-08-09 17:47:43.273958,-183.0
2023-08-09 17:47:43.281648,-171.0
2023-08-09 17:47:43.289339,-160.0
2023-08-09 17:47:43.297030,-155.0
2023-08-09 17:47:43.304720,-155.0
2023-08-09 17:47:43.312411,-152.0
2023-08-09 17:47:43.320101,-143.0
2023-08-09 17:47:43.327792,-138.0
2023-08-09 17:47:43.335482,-150.0
2023-08-09 17:47:43.343173,-155.0
2023-08-09 17:47:43.350863,-148.0
2023-08-09 17:47:43.358554,-140.0
2023-08-09 17:47:43.366244,-138.0
2023-08-09 17:47:43.373935,-138.0
2023-08-09 17:47:43.381626,-145.0
2023-08-09 17:47:43.389316,-143.0
2023-08-09 17:47:43.397007,-128.0
2023-08-09 17:47:43.404697,-126.0
2023-08-09 17:47:43.412388,-128.0
2023-08-09 17:47:43.420078,-126.0
2023-08-09 17:47:43.427769,-126.0
2023-08-09 17:47:43.435459,-126.0
2023-08-09 17:47:43.443150,-121.0
2023-08-09 17:47:43.450840,-119.0
2023-08-09 17:47:43.458531,-121.0
2023-08-09 17:47:43.466222,-117.0
2023-08-09 17:47:43.473912,-109.0
2023-08-09 17:47:43.481603,-105.0
2023-08-09 17:47:43.489293,-102.0
2023-08-09 17:47:43.496984,-100.0
2023-08-09 17:47:43.504674,-97.0
2023-08-09 17:47:43.512365,-95.0
2023-08-09 17:47:43.520055,-97.0
2023-08-09 17:47:43.527746,-102.0
2023-08-09 17:47:43.535436,-102.0
2023-08-09 17:47:43.543127,-100.0
2023-08-09 17:47:43.550818,-95.0
2023-08-09 17:47:43.558508,-88.0
2023-08-09 17:47:43.566199,-88.0
2023-08-09 17:47:43.573889,-90.0
2023-08-09 17:47:43.581580,-81.0
2023-08-09 17:47:43.589270,-66.0
2023-08-09 17:47:43.596961,-50.0
2023-08-09 17:47:43.604651,-40.0
2023-08-09 17:47:43.612342,-40.0
2023-08-09 17:47:43.620032,-42.0
2023-08-09 17:47:43.627723,-54.0
2023-08-09 17:47:43.635413,-76.0
2023-08-09 17:47:43.643104,-83.0
2023-08-09 17:47:43.650795,-78.0
2023-08-09 17:47:43.658485,-76.0
2023-08-09 17:47:43.666176,-78.0
2023-08-09 17:47:43.673866,-83.0
2023-08-09 17:47:43.681557,-83.0
2023-08-09 17:47:43.689247,-83.0
2023-08-09 17:47:43.696938,-97.0
2023-08-09 17:47:43.704628,-40.0
2023-08-09 17:47:43.712319,255.0
2023-08-09 17:47:43.720009,781.0
2023-08-09 17:47:43.727700,1239.0
2023-08-09 17:47:43.735391,1263.0
2023-08-09 17:47:43.743081,773.0
2023-08-09 17:47:43.750772,148.0
2023-08-09 17:47:43.758462,-162.0
2023-08-09 17:47:43.766153,-160.0
2023-08-09 17:47:43.773843,-157.0
2023-08-09 17:47:43.781534,-219.0
2023-08-09 17:47:43.789224,-217.0
2023-08-09 17:47:43.796915,-191.0
2023-08-09 17:47:43.804605,-193.0
2023-08-09 17:47:43.812296,-186.0
2023-08-09 17:47:43.819987,-169.0
2023-08-09 17:47:43.827677,-157.0
2023-08-09 17:47:43.835368,-143.0
2023-08-09 17:47:43.843058,-124.0
2023-08-09 17:47:43.850749,-109.0
2023-08-09 17:47:43.858439,-97.0
2023-08-09 17:47:43.866130,-78.0
2023-08-09 17:47:43.873820,-59.0
2023-08-09 17:47:43.881511,-47.0
2023-08-09 17:47:43.889201,-28.0
2023-08-09 17:47:43.896892,-4.0
2023-08-09 17:47:43.904582,9.0
2023-08-09 17:47:43.912273,26.0
2023-08-09 17:47:43.919964,45.0
2023-08-09 17:47:43.927654,76.0
2023-08-09 17:47:43.935345,102.0
2023-08-09 17:47:43.943035,114.0
2023-08-09 17:47:43.950726,117.0
2023-08-09 17:47:43.958416,112.0
2023-08-09 17:47:43.966107,100.0
2023-08-09 17:47:43.973797,78.0
2023-08-09 17:47:43.981488,45.0
2023-08-09 17:47:43.989178,2.0
2023-08-09 17:47:43.996869,-47.0
2023-08-09 17:47:44.004560,-100.0
2023-08-09 17:47:44.012250,-150.0
2023-08-09 17:47:44.019941,-191.0
2023-08-09 17:47:44.027631,-210.0
2023-08-09 17:47:44.035322,-217.0
2023-08-09 17:47:44.043012,-222.0
2023-08-09 17:47:44.050703,-226.0
2023-08-09 17:47:44.058393,-226.0
2023-08-09 17:47:44.066084,-219.0
2023-08-09 17:47:44.073774,-210.0
2023-08-09 17:47:44.081465,-203.0
2023-08-09 17:47:44.089156,-193.0
2023-08-09 17:47:44.096846,-186.0
2023-08-09 17:47:44.104537,-183.0
2023-08-09 17:47:44.112227,-179.0
2023-08-09 17:47:44.119918,-167.0
2023-08-09 17:47:44.127608,-164.0
2023-08-09 17:47:44.135299,-164.0
2023-08-09 17:47:44.142989,-162.0
2023-08-09 17:47:44.150680,-155.0
2023-08-09 17:47:44.158370,-155.0
2023-08-09 17:47:44.166061,-152.0
2023-08-09 17:47:44.173751,-145.0
2023-08-09 17:47:44.181442,-145.0
2023-08-09 17:47:44.189133,-152.0
2023-08-09 17:47:44.196823,-152.0
2023-08-09 17:47:44.204514,-143.0
2023-08-09 17:47:44.212204,-133.0
2023-08-09 17:47:44.219895,-131.0
2023-08-09 17:47:44.227585,-126.0
2023-08-09 17:47:44.235276,-131.0
2023-08-09 17:47:44.242966,-136.0
2023-08-09 17:47:44.250657,-131.0
2023-08-09 17:47:44.258347,-119.0
2023-08-09 17:47:44.266038,-114.0
2023-08-09 17:47:44.273729,-117.0
2023-08-09 17:47:44.281419,-117.0
2023-08-09 17:47:44.289110,-112.0
2023-08-09 17:47:44.296800,-102.0
2023-08-09 17:47:44.304491,-100.0
2023-08-09 17:47:44.312181,-105.0
2023-08-09 17:47:44.319872,-105.0
2023-08-09 17:47:44.327562,-97.0
2023-08-09 17:47:44.335253,-95.0
2023-08-09 17:47:44.342943,-97.0
2023-08-09 17:47:44.350634,-95.0
2023-08-09 17:47:44.358325,-81.0
2023-08-09 17:47:44.366015,-78.0
2023-08-09 17:47:44.373706,-88.0
2023-08-09 17:47:44.381396,-90.0
2023-08-09 17:47:44.389087,-85.0
2023-08-09 17:47:44.396777,-81.0
2023-08-09 17:47:44.404468,-78.0
2023-08-09 17:47:44.412158,-81.0
2023-08-09 17:47:44.419849,-74.0
2023-08-09 17:47:44.427539,-59.0
2023-08-09 17:47:44.435230,-47.0
2023-08-09 17:47:44.442920,-38.0
2023-08-09 17:47:44.450611,-28.0
2023-08-09 17:47:44.458302,-47.0
2023-08-09 17:47:44.465992,-78.0
2023-08-09 17:47:44.473683,-90.0
2023-08-09 17:47:44.481373,-90.0
2023-08-09 17:47:44.489064,-88.0
2023-08-09 17:47:44.496754,-85.0
2023-08-09 17:47:44.504445,-95.0
2023-08-09 17:47:44.512135,-100.0
2023-08-09 17:47:44.519826,-93.0
2023-08-09 17:47:44.527516,-102.0
2023-08-09 17:47:44.535207,-112.0
2023-08-09 17:47:44.542898,35.0
2023-08-09 17:47:44.550588,460.0
2023-08-09 17:47:44.558279,1003.0
2023-08-09 17:47:44.565969,1282.0
2023-08-09 17:47:44.573660,1036.0
2023-08-09 17:47:44.581350,417.0
2023-08-09 17:47:44.589041,-83.0
2023-08-09 17:47:44.596731,-203.0
2023-08-09 17:47:44.604422,-152.0
2023-08-09 17:47:44.612112,-193.0
2023-08-09 17:47:44.619803,-238.0
2023-08-09 17:47:44.627494,-210.0
2023-08-09 17:47:44.635184,-198.0
2023-08-09 17:47:44.642875,-210.0
2023-08-09 17:47:44.650565,-191.0
2023-08-09 17:47:44.658256,-169.0
2023-08-09 17:47:44.665946,-162.0
2023-08-09 17:47:44.673637,-148.0
2023-08-09 17:47:44.681327,-126.0
2023-08-09 17:47:44.689018,-112.0
2023-08-09 17:47:44.696708,-100.0
2023-08-09 17:47:44.704399,-81.0
2023-08-09 17:47:44.712090,-54.0
2023-08-09 17:47:44.719780,-28.0
2023-08-09 17:47:44.727471,-14.0
2023-08-09 17:47:44.735161,4.0
2023-08-09 17:47:44.742852,28.0
2023-08-09 17:47:44.750542,50.0
2023-08-09 17:47:44.758233,74.0
2023-08-09 17:47:44.765923,95.0
2023-08-09 17:47:44.773614,112.0
2023-08-09 17:47:44.781304,119.0
2023-08-09 17:47:44.788995,124.0
2023-08-09 17:47:44.796685,117.0
2023-08-09 17:47:44.804376,97.0
2023-08-09 17:47:44.812067,74.0
2023-08-09 17:47:44.819757,40.0
2023-08-09 17:47:44.827448,-7.0
2023-08-09 17:47:44.835138,-57.0
2023-08-09 17:47:44.842829,-105.0
2023-08-09 17:47:44.850519,-145.0
2023-08-09 17:47:44.858210,-169.0
2023-08-09 17:47:44.865900,-188.0
2023-08-09 17:47:44.873591,-198.0
2023-08-09 17:47:44.881281,-205.0
2023-08-09 17:47:44.888972,-207.0
2023-08-09 17:47:44.896663,-203.0
2023-08-09 17:47:44.904353,-205.0
2023-08-09 17:47:44.912044,-203.0
2023-08-09 17:47:44.919734,-186.0
2023-08-09 17:47:44.927425,-179.0
2023-08-09 17:47:44.935115,-181.0
2023-08-09 17:47:44.942806,-174.0
2023-08-09 17:47:44.950496,-157.0
2023-08-09 17:47:44.958187,-155.0
2023-08-09 17:47:44.965877,-160.0
2023-08-09 17:47:44.973568,-157.0
2023-08-09 17:47:44.981259,-152.0
2023-08-09 17:47:44.988949,-148.0
2023-08-09 17:47:44.996640,-150.0
2023-08-09 17:47:45.004330,-157.0
2023-08-09 17:47:45.012021,-155.0
2023-08-09 17:47:45.019711,-148.0
2023-08-09 17:47:45.027402,-155.0
2023-08-09 17:47:45.035092,-160.0
2023-08-09 17:47:45.042783,-152.0
2023-08-09 17:47:45.050473,-143.0
2023-08-09 17:47:45.058164,-140.0
2023-08-09 17:47:45.065854,-145.0
2023-08-09 17:47:45.073545,-145.0
2023-08-09 17:47:45.081236,-133.0
2023-08-09 17:47:45.088926,-128.0
2023-08-09 17:47:45.096617,-133.0
2023-08-09 17:47:45.104307,-128.0
2023-08-09 17:47:45.111998,-124.0
2023-08-09 17:47:45.119688,-124.0
2023-08-09 17:47:45.127379,-119.0
2023-08-09 17:47:45.135069,-114.0
2023-08-09 17:47:45.142760,-114.0
2023-08-09 17:47:45.150450,-109.0
2023-08-09 17:47:45.158141,-105.0
2023-08-09 17:47:45.165832,-102.0
2023-08-09 17:47:45.173522,-105.0
2023-08-09 17:47:45.181213,-107.0
2023-08-09 17:47:45.188903,-107.0
2023-08-09 17:47:45.196594,-97.0
2023-08-09 17:47:45.204284,-95.0
2023-08-09 17:47:45.211975,-95.0
2023-08-09 17:47:45.219665,-90.0
2023-08-09 17:47:45.227356,-83.0
2023-08-09 17:47:45.235046,-88.0
2023-08-09 17:47:45.242737,-88.0
2023-08-09 17:47:45.250428,-78.0
2023-08-09 17:47:45.258118,-76.0
2023-08-09 17:47:45.265809,-83.0
2023-08-09 17:47:45.273499,-81.0
2023-08-09 17:47:45.281190,-74.0
2023-08-09 17:47:45.288880,-71.0
2023-08-09 17:47:45.296571,-74.0
2023-08-09 17:47:45.304261,-69.0
2023-08-09 17:47:45.311952,-57.0
2023-08-09 17:47:45.319642,-40.0
2023-08-09 17:47:45.327333,-26.0
2023-08-09 17:47:45.335023,-16.0
2023-08-09 17:47:45.342714,-23.0
2023-08-09 17:47:45.350405,-45.0
2023-08-09 17:47:45.358095,-66.0
2023-08-09 17:47:45.365786,-76.0
2023-08-09 17:47:45.373476,-69.0
2023-08-09 17:47:45.381167,-66.0
2023-08-09 17:47:45.388857,-69.0
2023-08-09 17:47:45.396548,-74.0
2023-08-09 17:47:45.404238,-74.0
2023-08-09 17:47:45.411929,-69.0
2023-08-09 17:47:45.419619,-81.0
2023-08-09 17:47:45.427310,-31.0
2023-08-09 17:47:45.435001,250.0
2023-08-09 17:47:45.442691,761.0
2023-08-09 17:47:45.450382,1206.0
2023-08-09 17:47:45.458072,1220.0
2023-08-09 17:47:45.465763,738.0
2023-08-09 17:47:45.473453,136.0
2023-08-09 17:47:45.481144,-152.0
2023-08-09 17:47:45.488834,-138.0
2023-08-09 17:47:45.496525,-140.0
2023-08-09 17:47:45.504215,-212.0
2023-08-09 17:47:45.511906,-212.0
2023-08-09 17:47:45.519597,-181.0
2023-08-09 17:47:45.527287,-188.0
2023-08-09 17:47:45.534978,-186.0
2023-08-09 17:47:45.542668,-164.0
2023-08-09 17:47:45.550359,-150.0
2023-08-09 17:47:45.558049,-140.0
2023-08-09 17:47:45.565740,-126.0
2023-08-09 17:47:45.573430,-112.0
2023-08-09 17:47:45.581121,-102.0
2023-08-09 17:47:45.588811,-95.0
2023-08-09 17:47:45.596502,-74.0
2023-08-09 17:47:45.604193,-40.0
2023-08-09 17:47:45.611883,-23.0
2023-08-09 17:47:45.619574,-11.0
2023-08-09 17:47:45.627264,9.0
2023-08-09 17:47:45.634955,31.0
2023-08-09 17:47:45.642645,47.0
2023-08-09 17:47:45.650336,71.0
2023-08-09 17:47:45.658026,95.0
2023-08-09 17:47:45.665717,102.0
2023-08-09 17:47:45.673407,105.0
2023-08-09 17:47:45.681098,112.0
2023-08-09 17:47:45.688788,107.0
2023-08-09 17:47:45.696479,88.0
2023-08-09 17:47:45.704170,57.0
2023-08-09 17:47:45.711860,16.0
2023-08-09 17:47:45.719551,-26.0
2023-08-09 17:47:45.727241,-78.0
2023-08-09 17:47:45.734932,-126.0
2023-08-09 17:47:45.742622,-155.0
2023-08-09 17:47:45.750313,-176.0
2023-08-09 17:47:45.758003,-195.0
2023-08-09 17:47:45.765694,-207.0
2023-08-09 17:47:45.773384,-203.0
2023-08-09 17:47:45.781075,-195.0
2023-08-09 17:47:45.788766,-193.0
2023-08-09 17:47:45.796456,-188.0
2023-08-09 17:47:45.804147,-181.0
2023-08-09 17:47:45.811837,-179.0
2023-08-09 17:47:45.819528,-174.0
2023-08-09 17:47:45.827218,-167.0
2023-08-09 17:47:45.834909,-160.0
2023-08-09 17:47:45.842599,-152.0
2023-08-09 17:47:45.850290,-148.0
2023-08-09 17:47:45.857980,-145.0
