time,ECG
2023-08-10 11:43:51.889900,-33.0
2023-08-10 11:43:51.897590,-43.0
2023-08-10 11:43:51.905280,-52.0
2023-08-10 11:43:51.912969,-55.0
2023-08-10 11:43:51.920659,-59.0
2023-08-10 11:43:51.928349,-74.0
2023-08-10 11:43:51.936039,-88.0
2023-08-10 11:43:51.943728,-95.0
2023-08-10 11:43:51.951418,-100.0
2023-08-10 11:43:51.959108,-112.0
2023-08-10 11:43:51.966797,-124.0
2023-08-10 11:43:51.974487,-131.0
2023-08-10 11:43:51.982177,-141.0
2023-08-10 11:43:51.989867,-157.0
2023-08-10 11:43:51.997556,-174.0
2023-08-10 11:43:52.005246,-191.0
2023-08-10 11:43:52.012936,-208.0
2023-08-10 11:43:52.020625,-227.0
2023-08-10 11:43:52.028315,-244.0
2023-08-10 11:43:52.036005,-258.0
2023-08-10 11:43:52.043695,-270.0
2023-08-10 11:43:52.051384,-284.0
2023-08-10 11:43:52.059074,-282.0
2023-08-10 11:43:52.066764,-256.0
2023-08-10 11:43:52.074453,-210.0
2023-08-10 11:43:52.082143,-153.0
2023-08-10 11:43:52.089833,-93.0
2023-08-10 11:43:52.097523,-38.0
2023-08-10 11:43:52.105212,4.0
2023-08-10 11:43:52.112902,31.0
2023-08-10 11:43:52.120592,47.0
2023-08-10 11:43:52.128281,57.0
2023-08-10 11:43:52.135971,64.0
2023-08-10 11:43:52.143661,66.0
2023-08-10 11:43:52.151351,62.0
2023-08-10 11:43:52.159040,52.0
2023-08-10 11:43:52.166730,52.0
2023-08-10 11:43:52.174420,52.0
2023-08-10 11:43:52.182109,50.0
2023-08-10 11:43:52.189799,47.0
2023-08-10 11:43:52.197489,45.0
2023-08-10 11:43:52.205179,40.0
2023-08-10 11:43:52.212868,33.0
2023-08-10 11:43:52.220558,28.0
2023-08-10 11:43:52.228248,31.0
2023-08-10 11:43:52.235937,26.0
2023-08-10 11:43:52.243627,14.0
2023-08-10 11:43:52.251317,11.0
2023-08-10 11:43:52.259007,14.0
2023-08-10 11:43:52.266696,11.0
2023-08-10 11:43:52.274386,9.0
2023-08-10 11:43:52.282076,9.0
2023-08-10 11:43:52.289765,7.0
2023-08-10 11:43:52.297455,4.0
2023-08-10 11:43:52.305145,2.0
2023-08-10 11:43:52.312835,4.0
2023-08-10 11:43:52.320524,4.0
2023-08-10 11:43:52.328214,2.0
2023-08-10 11:43:52.335904,0.0
2023-08-10 11:43:52.343593,0.0
2023-08-10 11:43:52.351283,2.0
2023-08-10 11:43:52.358973,2.0
2023-08-10 11:43:52.366663,0.0
2023-08-10 11:43:52.374352,0.0
2023-08-10 11:43:52.382042,-2.0
2023-08-10 11:43:52.389732,-4.0
2023-08-10 11:43:52.397421,-4.0
2023-08-10 11:43:52.405111,-4.0
2023-08-10 11:43:52.412801,-4.0
2023-08-10 11:43:52.420491,-4.0
2023-08-10 11:43:52.428180,-7.0
2023-08-10 11:43:52.435870,-9.0
2023-08-10 11:43:52.443560,-9.0
2023-08-10 11:43:52.451249,-9.0
2023-08-10 11:43:52.458939,-9.0
2023-08-10 11:43:52.466629,-11.0
2023-08-10 11:43:52.474319,-26.0
2023-08-10 11:43:52.482008,-28.0
2023-08-10 11:43:52.489698,-21.0
2023-08-10 11:43:52.497388,-23.0
2023-08-10 11:43:52.505077,-23.0
2023-08-10 11:43:52.512767,-21.0
2023-08-10 11:43:52.520457,-28.0
2023-08-10 11:43:52.528147,-31.0
2023-08-10 11:43:52.535836,-35.0
2023-08-10 11:43:52.543526,-52.0
2023-08-10 11:43:52.551216,-66.0
2023-08-10 11:43:52.558905,-64.0
2023-08-10 11:43:52.566595,-55.0
2023-08-10 11:43:52.574285,-59.0
2023-08-10 11:43:52.581975,-57.0
2023-08-10 11:43:52.589664,-47.0
2023-08-10 11:43:52.597354,-43.0
2023-08-10 11:43:52.605044,-33.0
2023-08-10 11:43:52.612733,-21.0
2023-08-10 11:43:52.620423,-21.0
2023-08-10 11:43:52.628113,-31.0
2023-08-10 11:43:52.635802,-33.0
2023-08-10 11:43:52.643492,-26.0
2023-08-10 11:43:52.651182,-31.0
2023-08-10 11:43:52.658872,-38.0
2023-08-10 11:43:52.666561,-35.0
2023-08-10 11:43:52.674251,-98.0
2023-08-10 11:43:52.681941,-299.0
2023-08-10 11:43:52.689630,-540.0
2023-08-10 11:43:52.697320,-696.0
2023-08-10 11:43:52.705010,-617.0
2023-08-10 11:43:52.712700,-253.0
2023-08-10 11:43:52.720389,78.0
2023-08-10 11:43:52.728079,90.0
2023-08-10 11:43:52.735769,-26.0
2023-08-10 11:43:52.743458,-21.0
2023-08-10 11:43:52.751148,16.0
2023-08-10 11:43:52.758838,0.0
2023-08-10 11:43:52.766528,-9.0
2023-08-10 11:43:52.774217,2.0
2023-08-10 11:43:52.781907,-9.0
2023-08-10 11:43:52.789597,-23.0
2023-08-10 11:43:52.797286,-23.0
2023-08-10 11:43:52.804976,-26.0
2023-08-10 11:43:52.812666,-40.0
2023-08-10 11:43:52.820356,-47.0
2023-08-10 11:43:52.828045,-55.0
2023-08-10 11:43:52.835735,-64.0
2023-08-10 11:43:52.843425,-74.0
2023-08-10 11:43:52.851114,-83.0
2023-08-10 11:43:52.858804,-90.0
2023-08-10 11:43:52.866494,-95.0
2023-08-10 11:43:52.874184,-110.0
2023-08-10 11:43:52.881873,-124.0
2023-08-10 11:43:52.889563,-133.0
2023-08-10 11:43:52.897253,-145.0
2023-08-10 11:43:52.904942,-160.0
2023-08-10 11:43:52.912632,-177.0
2023-08-10 11:43:52.920322,-200.0
2023-08-10 11:43:52.928012,-215.0
2023-08-10 11:43:52.935701,-224.0
2023-08-10 11:43:52.943391,-251.0
2023-08-10 11:43:52.951081,-277.0
2023-08-10 11:43:52.958770,-279.0
2023-08-10 11:43:52.966460,-270.0
2023-08-10 11:43:52.974150,-246.0
2023-08-10 11:43:52.981840,-198.0
2023-08-10 11:43:52.989529,-141.0
2023-08-10 11:43:52.997219,-81.0
2023-08-10 11:43:53.004909,-28.0
2023-08-10 11:43:53.012598,4.0
2023-08-10 11:43:53.020288,23.0
2023-08-10 11:43:53.027978,43.0
2023-08-10 11:43:53.035668,52.0
2023-08-10 11:43:53.043357,55.0
2023-08-10 11:43:53.051047,52.0
2023-08-10 11:43:53.058737,47.0
2023-08-10 11:43:53.066426,40.0
2023-08-10 11:43:53.074116,40.0
2023-08-10 11:43:53.081806,38.0
2023-08-10 11:43:53.089496,26.0
2023-08-10 11:43:53.097185,26.0
2023-08-10 11:43:53.104875,31.0
2023-08-10 11:43:53.112565,21.0
2023-08-10 11:43:53.120254,9.0
2023-08-10 11:43:53.127944,11.0
2023-08-10 11:43:53.135634,16.0
2023-08-10 11:43:53.143324,19.0
2023-08-10 11:43:53.151013,19.0
2023-08-10 11:43:53.158703,14.0
2023-08-10 11:43:53.166393,9.0
2023-08-10 11:43:53.174082,7.0
2023-08-10 11:43:53.181772,2.0
2023-08-10 11:43:53.189462,-4.0
2023-08-10 11:43:53.197152,2.0
2023-08-10 11:43:53.204841,16.0
2023-08-10 11:43:53.212531,11.0
2023-08-10 11:43:53.220221,0.0
2023-08-10 11:43:53.227910,2.0
2023-08-10 11:43:53.235600,4.0
2023-08-10 11:43:53.243290,2.0
2023-08-10 11:43:53.250980,-7.0
2023-08-10 11:43:53.258669,-19.0
2023-08-10 11:43:53.266359,-9.0
2023-08-10 11:43:53.274049,2.0
2023-08-10 11:43:53.281738,-7.0
2023-08-10 11:43:53.289428,-9.0
2023-08-10 11:43:53.297118,-2.0
2023-08-10 11:43:53.304807,-11.0
2023-08-10 11:43:53.312497,-21.0
2023-08-10 11:43:53.320187,-21.0
2023-08-10 11:43:53.327877,-16.0
2023-08-10 11:43:53.335566,-16.0
2023-08-10 11:43:53.343256,-14.0
2023-08-10 11:43:53.350946,-16.0
2023-08-10 11:43:53.358635,-23.0
2023-08-10 11:43:53.366325,-21.0
2023-08-10 11:43:53.374015,-14.0
2023-08-10 11:43:53.381705,-14.0
2023-08-10 11:43:53.389394,-11.0
2023-08-10 11:43:53.397084,-11.0
2023-08-10 11:43:53.404774,-14.0
2023-08-10 11:43:53.412463,-19.0
2023-08-10 11:43:53.420153,-16.0
2023-08-10 11:43:53.427843,-9.0
2023-08-10 11:43:53.435533,-14.0
2023-08-10 11:43:53.443222,-28.0
2023-08-10 11:43:53.450912,-23.0
2023-08-10 11:43:53.458602,-14.0
2023-08-10 11:43:53.466291,-19.0
2023-08-10 11:43:53.473981,-19.0
2023-08-10 11:43:53.481671,-4.0
2023-08-10 11:43:53.489361,-11.0
2023-08-10 11:43:53.497050,-21.0
2023-08-10 11:43:53.504740,-16.0
2023-08-10 11:43:53.512430,-16.0
2023-08-10 11:43:53.520119,-23.0
2023-08-10 11:43:53.527809,-28.0
2023-08-10 11:43:53.535499,-47.0
2023-08-10 11:43:53.543189,-50.0
2023-08-10 11:43:53.550878,-40.0
2023-08-10 11:43:53.558568,-43.0
2023-08-10 11:43:53.566258,-50.0
2023-08-10 11:43:53.573947,-47.0
2023-08-10 11:43:53.581637,-38.0
2023-08-10 11:43:53.589327,-31.0
2023-08-10 11:43:53.597017,-28.0
2023-08-10 11:43:53.604706,-26.0
2023-08-10 11:43:53.612396,-23.0
2023-08-10 11:43:53.620086,-21.0
2023-08-10 11:43:53.627775,-19.0
2023-08-10 11:43:53.635465,-19.0
2023-08-10 11:43:53.643155,-33.0
2023-08-10 11:43:53.650845,-47.0
2023-08-10 11:43:53.658534,-52.0
2023-08-10 11:43:53.666224,-143.0
2023-08-10 11:43:53.673914,-366.0
2023-08-10 11:43:53.681603,-588.0
2023-08-10 11:43:53.689293,-686.0
2023-08-10 11:43:53.696983,-538.0
2023-08-10 11:43:53.704673,-148.0
2023-08-10 11:43:53.712362,110.0
2023-08-10 11:43:53.720052,50.0
2023-08-10 11:43:53.727742,-45.0
2023-08-10 11:43:53.735431,-9.0
2023-08-10 11:43:53.743121,14.0
2023-08-10 11:43:53.750811,-14.0
2023-08-10 11:43:53.758501,-21.0
2023-08-10 11:43:53.766190,-11.0
2023-08-10 11:43:53.773880,-21.0
2023-08-10 11:43:53.781570,-38.0
2023-08-10 11:43:53.789259,-43.0
2023-08-10 11:43:53.796949,-40.0
2023-08-10 11:43:53.804639,-45.0
2023-08-10 11:43:53.812329,-55.0
2023-08-10 11:43:53.820018,-59.0
2023-08-10 11:43:53.827708,-64.0
2023-08-10 11:43:53.835398,-83.0
2023-08-10 11:43:53.843087,-98.0
2023-08-10 11:43:53.850777,-93.0
2023-08-10 11:43:53.858467,-95.0
2023-08-10 11:43:53.866157,-114.0
2023-08-10 11:43:53.873846,-129.0
2023-08-10 11:43:53.881536,-138.0
2023-08-10 11:43:53.889226,-153.0
2023-08-10 11:43:53.896915,-167.0
2023-08-10 11:43:53.904605,-179.0
2023-08-10 11:43:53.912295,-200.0
2023-08-10 11:43:53.919985,-222.0
2023-08-10 11:43:53.927674,-236.0
2023-08-10 11:43:53.935364,-251.0
2023-08-10 11:43:53.943054,-267.0
2023-08-10 11:43:53.950743,-275.0
2023-08-10 11:43:53.958433,-272.0
2023-08-10 11:43:53.966123,-251.0
2023-08-10 11:43:53.973813,-203.0
2023-08-10 11:43:53.981502,-138.0
2023-08-10 11:43:53.989192,-78.0
2023-08-10 11:43:53.996882,-28.0
2023-08-10 11:43:54.004571,7.0
2023-08-10 11:43:54.012261,26.0
2023-08-10 11:43:54.019951,38.0
2023-08-10 11:43:54.027640,45.0
2023-08-10 11:43:54.035330,52.0
2023-08-10 11:43:54.043020,55.0
2023-08-10 11:43:54.050710,45.0
2023-08-10 11:43:54.058399,43.0
2023-08-10 11:43:54.066089,45.0
2023-08-10 11:43:54.073779,43.0
2023-08-10 11:43:54.081468,43.0
2023-08-10 11:43:54.089158,40.0
2023-08-10 11:43:54.096848,31.0
2023-08-10 11:43:54.104538,26.0
2023-08-10 11:43:54.112227,26.0
2023-08-10 11:43:54.119917,28.0
2023-08-10 11:43:54.127607,23.0
2023-08-10 11:43:54.135296,16.0
2023-08-10 11:43:54.142986,19.0
2023-08-10 11:43:54.150676,19.0
2023-08-10 11:43:54.158366,14.0
2023-08-10 11:43:54.166055,11.0
2023-08-10 11:43:54.173745,9.0
2023-08-10 11:43:54.181435,4.0
2023-08-10 11:43:54.189124,0.0
2023-08-10 11:43:54.196814,-2.0
2023-08-10 11:43:54.204504,-4.0
2023-08-10 11:43:54.212194,-7.0
2023-08-10 11:43:54.219883,-11.0
2023-08-10 11:43:54.227573,-23.0
2023-08-10 11:43:54.235263,-23.0
2023-08-10 11:43:54.242952,-16.0
2023-08-10 11:43:54.250642,-23.0
2023-08-10 11:43:54.258332,-31.0
2023-08-10 11:43:54.266022,-31.0
2023-08-10 11:43:54.273711,-33.0
2023-08-10 11:43:54.281401,-40.0
2023-08-10 11:43:54.289091,-35.0
2023-08-10 11:43:54.296780,-26.0
2023-08-10 11:43:54.304470,-28.0
2023-08-10 11:43:54.312160,-33.0
2023-08-10 11:43:54.319850,-31.0
2023-08-10 11:43:54.327539,-28.0
2023-08-10 11:43:54.335229,-31.0
2023-08-10 11:43:54.342919,-31.0
2023-08-10 11:43:54.350608,-23.0
2023-08-10 11:43:54.358298,-26.0
2023-08-10 11:43:54.365988,-35.0
2023-08-10 11:43:54.373678,-35.0
2023-08-10 11:43:54.381367,-26.0
2023-08-10 11:43:54.389057,-23.0
2023-08-10 11:43:54.396747,-28.0
2023-08-10 11:43:54.404436,-33.0
2023-08-10 11:43:54.412126,-33.0
2023-08-10 11:43:54.419816,-33.0
2023-08-10 11:43:54.427506,-31.0
2023-08-10 11:43:54.435195,-31.0
2023-08-10 11:43:54.442885,-31.0
2023-08-10 11:43:54.450575,-28.0
2023-08-10 11:43:54.458264,-28.0
2023-08-10 11:43:54.465954,-33.0
2023-08-10 11:43:54.473644,-35.0
2023-08-10 11:43:54.481334,-35.0
2023-08-10 11:43:54.489023,-43.0
2023-08-10 11:43:54.496713,-57.0
2023-08-10 11:43:54.504403,-64.0
2023-08-10 11:43:54.512092,-59.0
2023-08-10 11:43:54.519782,-62.0
2023-08-10 11:43:54.527472,-59.0
2023-08-10 11:43:54.535162,-50.0
2023-08-10 11:43:54.542851,-43.0
2023-08-10 11:43:54.550541,-38.0
2023-08-10 11:43:54.558231,-28.0
2023-08-10 11:43:54.565920,-26.0
2023-08-10 11:43:54.573610,-23.0
2023-08-10 11:43:54.581300,-23.0
2023-08-10 11:43:54.588990,-31.0
2023-08-10 11:43:54.596679,-35.0
2023-08-10 11:43:54.604369,-35.0
2023-08-10 11:43:54.612059,-28.0
2023-08-10 11:43:54.619748,-78.0
2023-08-10 11:43:54.627438,-256.0
2023-08-10 11:43:54.635128,-502.0
2023-08-10 11:43:54.642818,-689.0
2023-08-10 11:43:54.650507,-669.0
2023-08-10 11:43:54.658197,-356.0
2023-08-10 11:43:54.665887,23.0
2023-08-10 11:43:54.673576,119.0
2023-08-10 11:43:54.681266,14.0
2023-08-10 11:43:54.688956,-19.0
2023-08-10 11:43:54.696645,19.0
2023-08-10 11:43:54.704335,14.0
2023-08-10 11:43:54.712025,-4.0
2023-08-10 11:43:54.719715,0.0
2023-08-10 11:43:54.727404,2.0
2023-08-10 11:43:54.735094,-7.0
2023-08-10 11:43:54.742784,-7.0
2023-08-10 11:43:54.750473,-14.0
2023-08-10 11:43:54.758163,-33.0
2023-08-10 11:43:54.765853,-52.0
2023-08-10 11:43:54.773543,-62.0
2023-08-10 11:43:54.781232,-66.0
2023-08-10 11:43:54.788922,-74.0
2023-08-10 11:43:54.796612,-81.0
2023-08-10 11:43:54.804301,-93.0
2023-08-10 11:43:54.811991,-114.0
2023-08-10 11:43:54.819681,-131.0
2023-08-10 11:43:54.827371,-133.0
2023-08-10 11:43:54.835060,-141.0
2023-08-10 11:43:54.842750,-160.0
2023-08-10 11:43:54.850440,-177.0
2023-08-10 11:43:54.858129,-193.0
2023-08-10 11:43:54.865819,-215.0
2023-08-10 11:43:54.873509,-234.0
2023-08-10 11:43:54.881199,-253.0
2023-08-10 11:43:54.888888,-267.0
2023-08-10 11:43:54.896578,-284.0
2023-08-10 11:43:54.904268,-294.0
2023-08-10 11:43:54.911957,-291.0
2023-08-10 11:43:54.919647,-277.0
2023-08-10 11:43:54.927337,-241.0
2023-08-10 11:43:54.935027,-177.0
2023-08-10 11:43:54.942716,-112.0
2023-08-10 11:43:54.950406,-59.0
2023-08-10 11:43:54.958096,-14.0
2023-08-10 11:43:54.965785,19.0
2023-08-10 11:43:54.973475,33.0
2023-08-10 11:43:54.981165,47.0
2023-08-10 11:43:54.988855,55.0
2023-08-10 11:43:54.996544,55.0
2023-08-10 11:43:55.004234,52.0
2023-08-10 11:43:55.011924,50.0
2023-08-10 11:43:55.019613,43.0
2023-08-10 11:43:55.027303,40.0
2023-08-10 11:43:55.034993,38.0
2023-08-10 11:43:55.042683,33.0
2023-08-10 11:43:55.050372,35.0
2023-08-10 11:43:55.058062,38.0
2023-08-10 11:43:55.065752,35.0
2023-08-10 11:43:55.073441,28.0
2023-08-10 11:43:55.081131,23.0
2023-08-10 11:43:55.088821,26.0
2023-08-10 11:43:55.096511,23.0
2023-08-10 11:43:55.104200,16.0
2023-08-10 11:43:55.111890,16.0
2023-08-10 11:43:55.119580,14.0
2023-08-10 11:43:55.127269,9.0
2023-08-10 11:43:55.134959,11.0
2023-08-10 11:43:55.142649,14.0
2023-08-10 11:43:55.150339,7.0
2023-08-10 11:43:55.158028,4.0
2023-08-10 11:43:55.165718,9.0
2023-08-10 11:43:55.173408,11.0
2023-08-10 11:43:55.181097,4.0
2023-08-10 11:43:55.188787,2.0
2023-08-10 11:43:55.196477,2.0
2023-08-10 11:43:55.204167,2.0
2023-08-10 11:43:55.211856,2.0
2023-08-10 11:43:55.219546,2.0
2023-08-10 11:43:55.227236,0.0
2023-08-10 11:43:55.234925,-4.0
2023-08-10 11:43:55.242615,-2.0
2023-08-10 11:43:55.250305,-2.0
2023-08-10 11:43:55.257995,-11.0
2023-08-10 11:43:55.265684,-16.0
2023-08-10 11:43:55.273374,-11.0
2023-08-10 11:43:55.281064,-14.0
2023-08-10 11:43:55.288753,-19.0
2023-08-10 11:43:55.296443,-16.0
2023-08-10 11:43:55.304133,-11.0
2023-08-10 11:43:55.311823,-11.0
2023-08-10 11:43:55.319512,-16.0
2023-08-10 11:43:55.327202,-14.0
2023-08-10 11:43:55.334892,-16.0
2023-08-10 11:43:55.342581,-19.0
2023-08-10 11:43:55.350271,-23.0
2023-08-10 11:43:55.357961,-28.0
2023-08-10 11:43:55.365651,-33.0
2023-08-10 11:43:55.373340,-33.0
2023-08-10 11:43:55.381030,-28.0
2023-08-10 11:43:55.388720,-31.0
2023-08-10 11:43:55.396409,-33.0
2023-08-10 11:43:55.404099,-31.0
2023-08-10 11:43:55.411789,-28.0
2023-08-10 11:43:55.419478,-26.0
2023-08-10 11:43:55.427168,-28.0
2023-08-10 11:43:55.434858,-33.0
2023-08-10 11:43:55.442548,-31.0
2023-08-10 11:43:55.450237,-28.0
2023-08-10 11:43:55.457927,-33.0
2023-08-10 11:43:55.465617,-47.0
2023-08-10 11:43:55.473306,-57.0
2023-08-10 11:43:55.480996,-52.0
2023-08-10 11:43:55.488686,-50.0
2023-08-10 11:43:55.496376,-55.0
2023-08-10 11:43:55.504065,-52.0
2023-08-10 11:43:55.511755,-43.0
2023-08-10 11:43:55.519445,-33.0
2023-08-10 11:43:55.527134,-23.0
2023-08-10 11:43:55.534824,-19.0
2023-08-10 11:43:55.542514,-19.0
2023-08-10 11:43:55.550204,-11.0
2023-08-10 11:43:55.557893,-11.0
2023-08-10 11:43:55.565583,-26.0
2023-08-10 11:43:55.573273,-33.0
2023-08-10 11:43:55.580962,-21.0
2023-08-10 11:43:55.588652,-23.0
2023-08-10 11:43:55.596342,-124.0
2023-08-10 11:43:55.604032,-349.0
2023-08-10 11:43:55.611721,-586.0
2023-08-10 11:43:55.619411,-724.0
2023-08-10 11:43:55.627101,-598.0
2023-08-10 11:43:55.634790,-177.0
2023-08-10 11:43:55.642480,126.0
2023-08-10 11:43:55.650170,71.0
2023-08-10 11:43:55.657860,-35.0
2023-08-10 11:43:55.665549,11.0
2023-08-10 11:43:55.673239,52.0
2023-08-10 11:43:55.680929,21.0
2023-08-10 11:43:55.688618,11.0
2023-08-10 11:43:55.696308,16.0
2023-08-10 11:43:55.703998,0.0
2023-08-10 11:43:55.711688,-7.0
2023-08-10 11:43:55.719377,-2.0
2023-08-10 11:43:55.727067,-9.0
2023-08-10 11:43:55.734757,-23.0
2023-08-10 11:43:55.742446,-31.0
2023-08-10 11:43:55.750136,-38.0
2023-08-10 11:43:55.757826,-52.0
2023-08-10 11:43:55.765516,-66.0
2023-08-10 11:43:55.773205,-76.0
2023-08-10 11:43:55.780895,-83.0
2023-08-10 11:43:55.788585,-93.0
2023-08-10 11:43:55.796274,-102.0
2023-08-10 11:43:55.803964,-114.0
2023-08-10 11:43:55.811654,-129.0
2023-08-10 11:43:55.819344,-145.0
2023-08-10 11:43:55.827033,-160.0
2023-08-10 11:43:55.834723,-172.0
2023-08-10 11:43:55.842413,-193.0
2023-08-10 11:43:55.850102,-234.0
2023-08-10 11:43:55.857792,-256.0
2023-08-10 11:43:55.865482,-258.0
2023-08-10 11:43:55.873172,-270.0
2023-08-10 11:43:55.880861,-282.0
2023-08-10 11:43:55.888551,-275.0
2023-08-10 11:43:55.896241,-251.0
2023-08-10 11:43:55.903930,-205.0
2023-08-10 11:43:55.911620,-138.0
2023-08-10 11:43:55.919310,-71.0
2023-08-10 11:43:55.927000,-26.0
2023-08-10 11:43:55.934689,9.0
2023-08-10 11:43:55.942379,35.0
2023-08-10 11:43:55.950069,47.0
2023-08-10 11:43:55.957758,57.0
2023-08-10 11:43:55.965448,69.0
2023-08-10 11:43:55.973138,69.0
2023-08-10 11:43:55.980828,62.0
2023-08-10 11:43:55.988517,57.0
2023-08-10 11:43:55.996207,57.0
2023-08-10 11:43:56.003897,57.0
2023-08-10 11:43:56.011586,52.0
2023-08-10 11:43:56.019276,40.0
2023-08-10 11:43:56.026966,40.0
2023-08-10 11:43:56.034656,43.0
2023-08-10 11:43:56.042345,35.0
2023-08-10 11:43:56.050035,31.0
2023-08-10 11:43:56.057725,33.0
2023-08-10 11:43:56.065414,31.0
2023-08-10 11:43:56.073104,26.0
2023-08-10 11:43:56.080794,21.0
2023-08-10 11:43:56.088483,19.0
2023-08-10 11:43:56.096173,19.0
2023-08-10 11:43:56.103863,16.0
2023-08-10 11:43:56.111553,9.0
2023-08-10 11:43:56.119242,11.0
2023-08-10 11:43:56.126932,14.0
2023-08-10 11:43:56.134622,9.0
2023-08-10 11:43:56.142311,0.0
2023-08-10 11:43:56.150001,2.0
2023-08-10 11:43:56.157691,11.0
2023-08-10 11:43:56.165381,9.0
2023-08-10 11:43:56.173070,2.0
2023-08-10 11:43:56.180760,4.0
2023-08-10 11:43:56.188450,4.0
2023-08-10 11:43:56.196139,-4.0
2023-08-10 11:43:56.203829,-4.0
2023-08-10 11:43:56.211519,2.0
2023-08-10 11:43:56.219209,0.0
2023-08-10 11:43:56.226898,-4.0
2023-08-10 11:43:56.234588,-4.0
2023-08-10 11:43:56.242278,-9.0
2023-08-10 11:43:56.249967,-11.0
2023-08-10 11:43:56.257657,-16.0
2023-08-10 11:43:56.265347,-19.0
2023-08-10 11:43:56.273037,-23.0
2023-08-10 11:43:56.280726,-23.0
2023-08-10 11:43:56.288416,-23.0
2023-08-10 11:43:56.296106,-26.0
2023-08-10 11:43:56.303795,-28.0
2023-08-10 11:43:56.311485,-23.0
2023-08-10 11:43:56.319175,-19.0
2023-08-10 11:43:56.326865,-23.0
2023-08-10 11:43:56.334554,-38.0
2023-08-10 11:43:56.342244,-40.0
2023-08-10 11:43:56.349934,-33.0
2023-08-10 11:43:56.357623,-33.0
2023-08-10 11:43:56.365313,-31.0
2023-08-10 11:43:56.373003,-31.0
2023-08-10 11:43:56.380693,-33.0
2023-08-10 11:43:56.388382,-33.0
2023-08-10 11:43:56.396072,-33.0
2023-08-10 11:43:56.403762,-38.0
2023-08-10 11:43:56.411451,-43.0
2023-08-10 11:43:56.419141,-43.0
2023-08-10 11:43:56.426831,-40.0
2023-08-10 11:43:56.434521,-43.0
2023-08-10 11:43:56.442210,-47.0
2023-08-10 11:43:56.449900,-47.0
2023-08-10 11:43:56.457590,-47.0
2023-08-10 11:43:56.465279,-50.0
2023-08-10 11:43:56.472969,-52.0
2023-08-10 11:43:56.480659,-59.0
2023-08-10 11:43:56.488349,-78.0
2023-08-10 11:43:56.496038,-81.0
2023-08-10 11:43:56.503728,-69.0
2023-08-10 11:43:56.511418,-64.0
2023-08-10 11:43:56.519107,-69.0
2023-08-10 11:43:56.526797,-83.0
2023-08-10 11:43:56.534487,-83.0
2023-08-10 11:43:56.542177,-62.0
2023-08-10 11:43:56.549866,-47.0
2023-08-10 11:43:56.557556,-43.0
2023-08-10 11:43:56.565246,-43.0
2023-08-10 11:43:56.572935,-47.0
2023-08-10 11:43:56.580625,-50.0
2023-08-10 11:43:56.588315,-47.0
2023-08-10 11:43:56.596005,-55.0
2023-08-10 11:43:56.603694,-55.0
2023-08-10 11:43:56.611384,-71.0
2023-08-10 11:43:56.619074,-224.0
2023-08-10 11:43:56.626763,-485.0
2023-08-10 11:43:56.634453,-693.0
2023-08-10 11:43:56.642143,-741.0
2023-08-10 11:43:56.649833,-502.0
2023-08-10 11:43:56.657522,-81.0
2023-08-10 11:43:56.665212,107.0
2023-08-10 11:43:56.672902,0.0
2023-08-10 11:43:56.680591,-74.0
2023-08-10 11:43:56.688281,-21.0
2023-08-10 11:43:56.695971,-7.0
2023-08-10 11:43:56.703661,-33.0
2023-08-10 11:43:56.711350,-28.0
2023-08-10 11:43:56.719040,-23.0
2023-08-10 11:43:56.726730,-38.0
2023-08-10 11:43:56.734419,-40.0
2023-08-10 11:43:56.742109,-43.0
2023-08-10 11:43:56.749799,-55.0
2023-08-10 11:43:56.757489,-59.0
2023-08-10 11:43:56.765178,-62.0
2023-08-10 11:43:56.772868,-76.0
2023-08-10 11:43:56.780558,-88.0
2023-08-10 11:43:56.788247,-90.0
2023-08-10 11:43:56.795937,-98.0
2023-08-10 11:43:56.803627,-110.0
2023-08-10 11:43:56.811316,-114.0
2023-08-10 11:43:56.819006,-122.0
2023-08-10 11:43:56.826696,-136.0
2023-08-10 11:43:56.834386,-150.0
2023-08-10 11:43:56.842075,-157.0
2023-08-10 11:43:56.849765,-172.0
2023-08-10 11:43:56.857455,-198.0
2023-08-10 11:43:56.865144,-220.0
2023-08-10 11:43:56.872834,-232.0
2023-08-10 11:43:56.880524,-248.0
2023-08-10 11:43:56.888214,-267.0
2023-08-10 11:43:56.895903,-282.0
2023-08-10 11:43:56.903593,-284.0
2023-08-10 11:43:56.911283,-277.0
2023-08-10 11:43:56.918972,-248.0
2023-08-10 11:43:56.926662,-193.0
2023-08-10 11:43:56.934352,-133.0
2023-08-10 11:43:56.942042,-74.0
2023-08-10 11:43:56.949731,-19.0
2023-08-10 11:43:56.957421,19.0
2023-08-10 11:43:56.965111,40.0
2023-08-10 11:43:56.972800,55.0
2023-08-10 11:43:56.980490,59.0
2023-08-10 11:43:56.988180,62.0
2023-08-10 11:43:56.995870,66.0
2023-08-10 11:43:57.003559,64.0
2023-08-10 11:43:57.011249,52.0
2023-08-10 11:43:57.018939,40.0
2023-08-10 11:43:57.026628,38.0
2023-08-10 11:43:57.034318,40.0
2023-08-10 11:43:57.042008,40.0
2023-08-10 11:43:57.049698,38.0
2023-08-10 11:43:57.057387,28.0
2023-08-10 11:43:57.065077,21.0
2023-08-10 11:43:57.072767,21.0
2023-08-10 11:43:57.080456,23.0
2023-08-10 11:43:57.088146,19.0
2023-08-10 11:43:57.095836,14.0
2023-08-10 11:43:57.103526,19.0
2023-08-10 11:43:57.111215,16.0
2023-08-10 11:43:57.118905,14.0
2023-08-10 11:43:57.126595,14.0
2023-08-10 11:43:57.134284,14.0
2023-08-10 11:43:57.141974,11.0
2023-08-10 11:43:57.149664,11.0
2023-08-10 11:43:57.157354,9.0
2023-08-10 11:43:57.165043,2.0
2023-08-10 11:43:57.172733,2.0
2023-08-10 11:43:57.180423,7.0
2023-08-10 11:43:57.188112,7.0
2023-08-10 11:43:57.195802,2.0
2023-08-10 11:43:57.203492,2.0
2023-08-10 11:43:57.211182,2.0
2023-08-10 11:43:57.218871,0.0
2023-08-10 11:43:57.226561,-4.0
2023-08-10 11:43:57.234251,-4.0
2023-08-10 11:43:57.241940,-7.0
2023-08-10 11:43:57.249630,-7.0
2023-08-10 11:43:57.257320,-7.0
2023-08-10 11:43:57.265010,-9.0
2023-08-10 11:43:57.272699,-19.0
2023-08-10 11:43:57.280389,-21.0
2023-08-10 11:43:57.288079,-16.0
2023-08-10 11:43:57.295768,-16.0
2023-08-10 11:43:57.303458,-19.0
2023-08-10 11:43:57.311148,-21.0
2023-08-10 11:43:57.318838,-23.0
2023-08-10 11:43:57.326527,-23.0
2023-08-10 11:43:57.334217,-21.0
2023-08-10 11:43:57.341907,-21.0
2023-08-10 11:43:57.349596,-21.0
2023-08-10 11:43:57.357286,-21.0
2023-08-10 11:43:57.364976,-23.0
2023-08-10 11:43:57.372666,-23.0
2023-08-10 11:43:57.380355,-21.0
2023-08-10 11:43:57.388045,-19.0
2023-08-10 11:43:57.395735,-23.0
2023-08-10 11:43:57.403424,-28.0
2023-08-10 11:43:57.411114,-33.0
2023-08-10 11:43:57.418804,-50.0
2023-08-10 11:43:57.426494,-59.0
2023-08-10 11:43:57.434183,-47.0
2023-08-10 11:43:57.441873,-35.0
2023-08-10 11:43:57.449563,-43.0
2023-08-10 11:43:57.457252,-47.0
2023-08-10 11:43:57.464942,-35.0
2023-08-10 11:43:57.472632,-23.0
2023-08-10 11:43:57.480321,-14.0
2023-08-10 11:43:57.488011,-9.0
2023-08-10 11:43:57.495701,-16.0
2023-08-10 11:43:57.503391,-21.0
2023-08-10 11:43:57.511080,-21.0
2023-08-10 11:43:57.518770,-21.0
2023-08-10 11:43:57.526460,-23.0
2023-08-10 11:43:57.534149,-21.0
2023-08-10 11:43:57.541839,-35.0
2023-08-10 11:43:57.549529,-167.0
2023-08-10 11:43:57.557219,-413.0
2023-08-10 11:43:57.564908,-643.0
2023-08-10 11:43:57.572598,-734.0
2023-08-10 11:43:57.580288,-531.0
2023-08-10 11:43:57.587977,-100.0
2023-08-10 11:43:57.595667,126.0
2023-08-10 11:43:57.603357,28.0
2023-08-10 11:43:57.611047,-50.0
2023-08-10 11:43:57.618736,2.0
2023-08-10 11:43:57.626426,16.0
2023-08-10 11:43:57.634116,-7.0
2023-08-10 11:43:57.641805,-2.0
2023-08-10 11:43:57.649495,-4.0
2023-08-10 11:43:57.657185,-23.0
2023-08-10 11:43:57.664875,-26.0
2023-08-10 11:43:57.672564,-21.0
2023-08-10 11:43:57.680254,-28.0
2023-08-10 11:43:57.687944,-40.0
2023-08-10 11:43:57.695633,-50.0
2023-08-10 11:43:57.703323,-52.0
2023-08-10 11:43:57.711013,-59.0
2023-08-10 11:43:57.718703,-76.0
2023-08-10 11:43:57.726392,-81.0
2023-08-10 11:43:57.734082,-83.0
2023-08-10 11:43:57.741772,-100.0
2023-08-10 11:43:57.749461,-114.0
2023-08-10 11:43:57.757151,-122.0
2023-08-10 11:43:57.764841,-136.0
2023-08-10 11:43:57.772531,-153.0
2023-08-10 11:43:57.780220,-172.0
2023-08-10 11:43:57.787910,-193.0
2023-08-10 11:43:57.795600,-208.0
2023-08-10 11:43:57.803289,-222.0
2023-08-10 11:43:57.810979,-244.0
2023-08-10 11:43:57.818669,-265.0
2023-08-10 11:43:57.826359,-275.0
2023-08-10 11:43:57.834048,-282.0
2023-08-10 11:43:57.841738,-270.0
2023-08-10 11:43:57.849428,-234.0
2023-08-10 11:43:57.857117,-184.0
2023-08-10 11:43:57.864807,-122.0
2023-08-10 11:43:57.872497,-64.0
2023-08-10 11:43:57.880187,-14.0
2023-08-10 11:43:57.887876,23.0
2023-08-10 11:43:57.895566,45.0
2023-08-10 11:43:57.903256,57.0
2023-08-10 11:43:57.910945,66.0
2023-08-10 11:43:57.918635,66.0
2023-08-10 11:43:57.926325,64.0
2023-08-10 11:43:57.934015,66.0
2023-08-10 11:43:57.941704,66.0
2023-08-10 11:43:57.949394,64.0
2023-08-10 11:43:57.957084,59.0
2023-08-10 11:43:57.964773,55.0
2023-08-10 11:43:57.972463,50.0
2023-08-10 11:43:57.980153,47.0
2023-08-10 11:43:57.987843,43.0
2023-08-10 11:43:57.995532,43.0
2023-08-10 11:43:58.003222,43.0
2023-08-10 11:43:58.010912,38.0
2023-08-10 11:43:58.018601,33.0
2023-08-10 11:43:58.026291,31.0
2023-08-10 11:43:58.033981,28.0
2023-08-10 11:43:58.041671,28.0
2023-08-10 11:43:58.049360,28.0
2023-08-10 11:43:58.057050,23.0
2023-08-10 11:43:58.064740,19.0
2023-08-10 11:43:58.072429,19.0
2023-08-10 11:43:58.080119,16.0
2023-08-10 11:43:58.087809,19.0
2023-08-10 11:43:58.095499,19.0
2023-08-10 11:43:58.103188,9.0
2023-08-10 11:43:58.110878,7.0
2023-08-10 11:43:58.118568,11.0
2023-08-10 11:43:58.126257,14.0
2023-08-10 11:43:58.133947,9.0
2023-08-10 11:43:58.141637,-2.0
2023-08-10 11:43:58.149327,-11.0
2023-08-10 11:43:58.157016,-9.0
2023-08-10 11:43:58.164706,-2.0
2023-08-10 11:43:58.172396,-7.0
2023-08-10 11:43:58.180085,-11.0
2023-08-10 11:43:58.187775,-14.0
2023-08-10 11:43:58.195465,-14.0
2023-08-10 11:43:58.203154,-11.0
2023-08-10 11:43:58.210844,-14.0
2023-08-10 11:43:58.218534,-14.0
2023-08-10 11:43:58.226224,-16.0
2023-08-10 11:43:58.233913,-21.0
2023-08-10 11:43:58.241603,-23.0
2023-08-10 11:43:58.249293,-21.0
2023-08-10 11:43:58.256982,-16.0
2023-08-10 11:43:58.264672,-19.0
2023-08-10 11:43:58.272362,-16.0
2023-08-10 11:43:58.280052,-16.0
2023-08-10 11:43:58.287741,-28.0
2023-08-10 11:43:58.295431,-33.0
2023-08-10 11:43:58.303121,-26.0
2023-08-10 11:43:58.310810,-23.0
2023-08-10 11:43:58.318500,-26.0
2023-08-10 11:43:58.326190,-28.0
2023-08-10 11:43:58.333880,-28.0
2023-08-10 11:43:58.341569,-31.0
2023-08-10 11:43:58.349259,-23.0
2023-08-10 11:43:58.356949,-21.0
2023-08-10 11:43:58.364638,-28.0
2023-08-10 11:43:58.372328,-33.0
2023-08-10 11:43:58.380018,-28.0
2023-08-10 11:43:58.387708,-26.0
2023-08-10 11:43:58.395397,-26.0
2023-08-10 11:43:58.403087,-23.0
2023-08-10 11:43:58.410777,-28.0
2023-08-10 11:43:58.418466,-28.0
2023-08-10 11:43:58.426156,-31.0
2023-08-10 11:43:58.433846,-40.0
2023-08-10 11:43:58.441536,-50.0
2023-08-10 11:43:58.449225,-59.0
2023-08-10 11:43:58.456915,-62.0
2023-08-10 11:43:58.464605,-52.0
2023-08-10 11:43:58.472294,-52.0
2023-08-10 11:43:58.479984,-52.0
2023-08-10 11:43:58.487674,-47.0
2023-08-10 11:43:58.495364,-38.0
2023-08-10 11:43:58.503053,-28.0
2023-08-10 11:43:58.510743,-21.0
2023-08-10 11:43:58.518433,-23.0
2023-08-10 11:43:58.526122,-23.0
2023-08-10 11:43:58.533812,-19.0
2023-08-10 11:43:58.541502,-26.0
2023-08-10 11:43:58.549192,-38.0
2023-08-10 11:43:58.556881,-35.0
2023-08-10 11:43:58.564571,-33.0
2023-08-10 11:43:58.572261,-112.0
2023-08-10 11:43:58.579950,-320.0
2023-08-10 11:43:58.587640,-559.0
2023-08-10 11:43:58.595330,-722.0
2023-08-10 11:43:58.603020,-650.0
2023-08-10 11:43:58.610709,-265.0
2023-08-10 11:43:58.618399,78.0
2023-08-10 11:43:58.626089,69.0
2023-08-10 11:43:58.633778,-52.0
2023-08-10 11:43:58.641468,-23.0
2023-08-10 11:43:58.649158,21.0
2023-08-10 11:43:58.656848,-4.0
2023-08-10 11:43:58.664537,-9.0
2023-08-10 11:43:58.672227,7.0
2023-08-10 11:43:58.679917,-9.0
2023-08-10 11:43:58.687606,-33.0
2023-08-10 11:43:58.695296,-33.0
2023-08-10 11:43:58.702986,-35.0
2023-08-10 11:43:58.710676,-43.0
2023-08-10 11:43:58.718365,-50.0
2023-08-10 11:43:58.726055,-59.0
2023-08-10 11:43:58.733745,-66.0
2023-08-10 11:43:58.741434,-69.0
2023-08-10 11:43:58.749124,-76.0
2023-08-10 11:43:58.756814,-86.0
2023-08-10 11:43:58.764504,-95.0
2023-08-10 11:43:58.772193,-102.0
2023-08-10 11:43:58.779883,-114.0
2023-08-10 11:43:58.787573,-131.0
2023-08-10 11:43:58.795262,-153.0
2023-08-10 11:43:58.802952,-167.0
2023-08-10 11:43:58.810642,-181.0
2023-08-10 11:43:58.818332,-203.0
2023-08-10 11:43:58.826021,-224.0
2023-08-10 11:43:58.833711,-239.0
2023-08-10 11:43:58.841401,-248.0
2023-08-10 11:43:58.849090,-263.0
2023-08-10 11:43:58.856780,-279.0
2023-08-10 11:43:58.864470,-282.0
2023-08-10 11:43:58.872159,-263.0
2023-08-10 11:43:58.879849,-227.0
2023-08-10 11:43:58.887539,-172.0
2023-08-10 11:43:58.895229,-110.0
2023-08-10 11:43:58.902918,-55.0
2023-08-10 11:43:58.910608,-11.0
2023-08-10 11:43:58.918298,21.0
2023-08-10 11:43:58.925987,38.0
2023-08-10 11:43:58.933677,47.0
2023-08-10 11:43:58.941367,52.0
2023-08-10 11:43:58.949057,50.0
2023-08-10 11:43:58.956746,50.0
2023-08-10 11:43:58.964436,55.0
2023-08-10 11:43:58.972126,50.0
2023-08-10 11:43:58.979815,38.0
2023-08-10 11:43:58.987505,38.0
2023-08-10 11:43:58.995195,38.0
2023-08-10 11:43:59.002885,33.0
2023-08-10 11:43:59.010574,33.0
2023-08-10 11:43:59.018264,31.0
2023-08-10 11:43:59.025954,26.0
2023-08-10 11:43:59.033643,23.0
2023-08-10 11:43:59.041333,23.0
2023-08-10 11:43:59.049023,19.0
2023-08-10 11:43:59.056713,14.0
2023-08-10 11:43:59.064402,16.0
2023-08-10 11:43:59.072092,14.0
2023-08-10 11:43:59.079782,7.0
2023-08-10 11:43:59.087471,7.0
2023-08-10 11:43:59.095161,7.0
2023-08-10 11:43:59.102851,7.0
2023-08-10 11:43:59.110541,4.0
2023-08-10 11:43:59.118230,2.0
2023-08-10 11:43:59.125920,2.0
2023-08-10 11:43:59.133610,0.0
2023-08-10 11:43:59.141299,-2.0
2023-08-10 11:43:59.148989,0.0
2023-08-10 11:43:59.156679,0.0
2023-08-10 11:43:59.164369,-7.0
2023-08-10 11:43:59.172058,-9.0
2023-08-10 11:43:59.179748,-7.0
2023-08-10 11:43:59.187438,-11.0
2023-08-10 11:43:59.195127,-19.0
2023-08-10 11:43:59.202817,-16.0
2023-08-10 11:43:59.210507,-11.0
2023-08-10 11:43:59.218197,-21.0
2023-08-10 11:43:59.225886,-33.0
2023-08-10 11:43:59.233576,-28.0
2023-08-10 11:43:59.241266,-23.0
2023-08-10 11:43:59.248955,-26.0
2023-08-10 11:43:59.256645,-26.0
2023-08-10 11:43:59.264335,-26.0
2023-08-10 11:43:59.272025,-28.0
2023-08-10 11:43:59.279714,-28.0
2023-08-10 11:43:59.287404,-26.0
2023-08-10 11:43:59.295094,-28.0
2023-08-10 11:43:59.302783,-33.0
2023-08-10 11:43:59.310473,-33.0
2023-08-10 11:43:59.318163,-33.0
2023-08-10 11:43:59.325853,-33.0
2023-08-10 11:43:59.333542,-33.0
2023-08-10 11:43:59.341232,-35.0
2023-08-10 11:43:59.348922,-35.0
2023-08-10 11:43:59.356611,-33.0
2023-08-10 11:43:59.364301,-31.0
2023-08-10 11:43:59.371991,-26.0
2023-08-10 11:43:59.379681,-31.0
2023-08-10 11:43:59.387370,-40.0
2023-08-10 11:43:59.395060,-35.0
2023-08-10 11:43:59.402750,-31.0
2023-08-10 11:43:59.410439,-52.0
2023-08-10 11:43:59.418129,-74.0
2023-08-10 11:43:59.425819,-64.0
2023-08-10 11:43:59.433509,-47.0
2023-08-10 11:43:59.441198,-57.0
2023-08-10 11:43:59.448888,-59.0
2023-08-10 11:43:59.456578,-47.0
2023-08-10 11:43:59.464267,-43.0
2023-08-10 11:43:59.471957,-38.0
2023-08-10 11:43:59.479647,-26.0
2023-08-10 11:43:59.487337,-28.0
2023-08-10 11:43:59.495026,-35.0
2023-08-10 11:43:59.502716,-33.0
2023-08-10 11:43:59.510406,-31.0
2023-08-10 11:43:59.518095,-35.0
2023-08-10 11:43:59.525785,-35.0
2023-08-10 11:43:59.533475,-45.0
2023-08-10 11:43:59.541165,-150.0
2023-08-10 11:43:59.548854,-382.0
2023-08-10 11:43:59.556544,-619.0
2023-08-10 11:43:59.564234,-732.0
2023-08-10 11:43:59.571923,-576.0
2023-08-10 11:43:59.579613,-172.0
2023-08-10 11:43:59.587303,98.0
2023-08-10 11:43:59.594992,52.0
2023-08-10 11:43:59.602682,-38.0
2023-08-10 11:43:59.610372,-11.0
2023-08-10 11:43:59.618062,11.0
2023-08-10 11:43:59.625751,-9.0
2023-08-10 11:43:59.633441,-14.0
2023-08-10 11:43:59.641131,-7.0
2023-08-10 11:43:59.648820,-14.0
2023-08-10 11:43:59.656510,-19.0
2023-08-10 11:43:59.664200,-19.0
2023-08-10 11:43:59.671890,-26.0
2023-08-10 11:43:59.679579,-35.0
2023-08-10 11:43:59.687269,-45.0
2023-08-10 11:43:59.694959,-52.0
2023-08-10 11:43:59.702648,-59.0
2023-08-10 11:43:59.710338,-64.0
2023-08-10 11:43:59.718028,-76.0
2023-08-10 11:43:59.725718,-83.0
2023-08-10 11:43:59.733407,-90.0
2023-08-10 11:43:59.741097,-100.0
2023-08-10 11:43:59.748787,-110.0
2023-08-10 11:43:59.756476,-124.0
2023-08-10 11:43:59.764166,-143.0
2023-08-10 11:43:59.771856,-165.0
2023-08-10 11:43:59.779546,-184.0
2023-08-10 11:43:59.787235,-203.0
2023-08-10 11:43:59.794925,-224.0
2023-08-10 11:43:59.802615,-248.0
2023-08-10 11:43:59.810304,-263.0
2023-08-10 11:43:59.817994,-275.0
2023-08-10 11:43:59.825684,-284.0
2023-08-10 11:43:59.833374,-277.0
2023-08-10 11:43:59.841063,-248.0
2023-08-10 11:43:59.848753,-208.0
2023-08-10 11:43:59.856443,-155.0
2023-08-10 11:43:59.864132,-86.0
2023-08-10 11:43:59.871822,-26.0
2023-08-10 11:43:59.879512,14.0
2023-08-10 11:43:59.887202,40.0
2023-08-10 11:43:59.894891,55.0
2023-08-10 11:43:59.902581,66.0
2023-08-10 11:43:59.910271,74.0
2023-08-10 11:43:59.917960,71.0
2023-08-10 11:43:59.925650,69.0
2023-08-10 11:43:59.933340,62.0
2023-08-10 11:43:59.941030,55.0
2023-08-10 11:43:59.948719,57.0
2023-08-10 11:43:59.956409,62.0
2023-08-10 11:43:59.964099,55.0
2023-08-10 11:43:59.971788,43.0
2023-08-10 11:43:59.979478,43.0
2023-08-10 11:43:59.987168,45.0
2023-08-10 11:43:59.994858,43.0
2023-08-10 11:44:00.002547,43.0
2023-08-10 11:44:00.010237,43.0
2023-08-10 11:44:00.017927,43.0
2023-08-10 11:44:00.025616,40.0
2023-08-10 11:44:00.033306,31.0
2023-08-10 11:44:00.040996,26.0
2023-08-10 11:44:00.048686,31.0
2023-08-10 11:44:00.056375,35.0
2023-08-10 11:44:00.064065,33.0
2023-08-10 11:44:00.071755,26.0
2023-08-10 11:44:00.079444,23.0
2023-08-10 11:44:00.087134,21.0
2023-08-10 11:44:00.094824,19.0
2023-08-10 11:44:00.102514,23.0
2023-08-10 11:44:00.110203,23.0
2023-08-10 11:44:00.117893,16.0
2023-08-10 11:44:00.125583,14.0
2023-08-10 11:44:00.133272,16.0
2023-08-10 11:44:00.140962,14.0
2023-08-10 11:44:00.148652,11.0
2023-08-10 11:44:00.156342,11.0
2023-08-10 11:44:00.164031,11.0
2023-08-10 11:44:00.171721,7.0
2023-08-10 11:44:00.179411,2.0
2023-08-10 11:44:00.187100,2.0
2023-08-10 11:44:00.194790,2.0
2023-08-10 11:44:00.202480,4.0
2023-08-10 11:44:00.210170,2.0
2023-08-10 11:44:00.217859,-2.0
2023-08-10 11:44:00.225549,-4.0
2023-08-10 11:44:00.233239,-4.0
2023-08-10 11:44:00.240928,-2.0
2023-08-10 11:44:00.248618,-2.0
2023-08-10 11:44:00.256308,-4.0
2023-08-10 11:44:00.263997,-7.0
2023-08-10 11:44:00.271687,-9.0
2023-08-10 11:44:00.279377,-11.0
2023-08-10 11:44:00.287067,-11.0
2023-08-10 11:44:00.294756,-9.0
2023-08-10 11:44:00.302446,-11.0
2023-08-10 11:44:00.310136,-14.0
2023-08-10 11:44:00.317825,-14.0
2023-08-10 11:44:00.325515,-16.0
2023-08-10 11:44:00.333205,-19.0
2023-08-10 11:44:00.340895,-16.0
2023-08-10 11:44:00.348584,-14.0
2023-08-10 11:44:00.356274,-16.0
2023-08-10 11:44:00.363964,-19.0
2023-08-10 11:44:00.371653,-14.0
2023-08-10 11:44:00.379343,-16.0
2023-08-10 11:44:00.387033,-23.0
2023-08-10 11:44:00.394723,-26.0
2023-08-10 11:44:00.402412,-23.0
2023-08-10 11:44:00.410102,-26.0
2023-08-10 11:44:00.417792,-33.0
2023-08-10 11:44:00.425481,-43.0
2023-08-10 11:44:00.433171,-57.0
2023-08-10 11:44:00.440861,-71.0
2023-08-10 11:44:00.448551,-69.0
2023-08-10 11:44:00.456240,-62.0
2023-08-10 11:44:00.463930,-62.0
2023-08-10 11:44:00.471620,-57.0
2023-08-10 11:44:00.479309,-38.0
2023-08-10 11:44:00.486999,-26.0
2023-08-10 11:44:00.494689,-31.0
2023-08-10 11:44:00.502379,-33.0
2023-08-10 11:44:00.510068,-26.0
2023-08-10 11:44:00.517758,-26.0
2023-08-10 11:44:00.525448,-28.0
2023-08-10 11:44:00.533137,-35.0
2023-08-10 11:44:00.540827,-40.0
2023-08-10 11:44:00.548517,-40.0
2023-08-10 11:44:00.556207,-102.0
2023-08-10 11:44:00.563896,-291.0
2023-08-10 11:44:00.571586,-535.0
2023-08-10 11:44:00.579276,-720.0
2023-08-10 11:44:00.586965,-679.0
2023-08-10 11:44:00.594655,-313.0
2023-08-10 11:44:00.602345,62.0
2023-08-10 11:44:00.610035,81.0
2023-08-10 11:44:00.617724,-45.0
2023-08-10 11:44:00.625414,-28.0
2023-08-10 11:44:00.633104,19.0
2023-08-10 11:44:00.640793,-4.0
2023-08-10 11:44:00.648483,-9.0
2023-08-10 11:44:00.656173,7.0
2023-08-10 11:44:00.663863,-2.0
2023-08-10 11:44:00.671552,-16.0
2023-08-10 11:44:00.679242,-16.0
2023-08-10 11:44:00.686932,-21.0
2023-08-10 11:44:00.694621,-35.0
2023-08-10 11:44:00.702311,-43.0
2023-08-10 11:44:00.710001,-47.0
2023-08-10 11:44:00.717691,-52.0
2023-08-10 11:44:00.725380,-57.0
2023-08-10 11:44:00.733070,-62.0
2023-08-10 11:44:00.740760,-71.0
2023-08-10 11:44:00.748449,-81.0
2023-08-10 11:44:00.756139,-93.0
2023-08-10 11:44:00.763829,-102.0
2023-08-10 11:44:00.771519,-114.0
2023-08-10 11:44:00.779208,-131.0
2023-08-10 11:44:00.786898,-143.0
2023-08-10 11:44:00.794588,-160.0
2023-08-10 11:44:00.802277,-184.0
2023-08-10 11:44:00.809967,-210.0
2023-08-10 11:44:00.817657,-227.0
2023-08-10 11:44:00.825347,-241.0
2023-08-10 11:44:00.833036,-253.0
2023-08-10 11:44:00.840726,-265.0
2023-08-10 11:44:00.848416,-270.0
2023-08-10 11:44:00.856105,-258.0
2023-08-10 11:44:00.863795,-220.0
2023-08-10 11:44:00.871485,-165.0
2023-08-10 11:44:00.879175,-105.0
2023-08-10 11:44:00.886864,-45.0
2023-08-10 11:44:00.894554,0.0
2023-08-10 11:44:00.902244,33.0
2023-08-10 11:44:00.909933,55.0
2023-08-10 11:44:00.917623,62.0
2023-08-10 11:44:00.925313,59.0
2023-08-10 11:44:00.933003,55.0
2023-08-10 11:44:00.940692,55.0
2023-08-10 11:44:00.948382,57.0
2023-08-10 11:44:00.956072,55.0
2023-08-10 11:44:00.963761,47.0
2023-08-10 11:44:00.971451,45.0
2023-08-10 11:44:00.979141,45.0
2023-08-10 11:44:00.986830,43.0
2023-08-10 11:44:00.994520,35.0
2023-08-10 11:44:01.002210,33.0
2023-08-10 11:44:01.009900,33.0
2023-08-10 11:44:01.017589,31.0
2023-08-10 11:44:01.025279,28.0
2023-08-10 11:44:01.032969,26.0
2023-08-10 11:44:01.040658,26.0
2023-08-10 11:44:01.048348,23.0
2023-08-10 11:44:01.056038,16.0
2023-08-10 11:44:01.063728,11.0
2023-08-10 11:44:01.071417,9.0
2023-08-10 11:44:01.079107,11.0
2023-08-10 11:44:01.086797,14.0
2023-08-10 11:44:01.094486,7.0
2023-08-10 11:44:01.102176,7.0
2023-08-10 11:44:01.109866,9.0
2023-08-10 11:44:01.117556,4.0
2023-08-10 11:44:01.125245,2.0
2023-08-10 11:44:01.132935,7.0
2023-08-10 11:44:01.140625,9.0
2023-08-10 11:44:01.148314,2.0
2023-08-10 11:44:01.156004,-2.0
2023-08-10 11:44:01.163694,-2.0
2023-08-10 11:44:01.171384,-2.0
2023-08-10 11:44:01.179073,-4.0
2023-08-10 11:44:01.186763,-7.0
2023-08-10 11:44:01.194453,-7.0
2023-08-10 11:44:01.202142,-7.0
2023-08-10 11:44:01.209832,-7.0
2023-08-10 11:44:01.217522,-7.0
2023-08-10 11:44:01.225212,-7.0
2023-08-10 11:44:01.232901,-9.0
2023-08-10 11:44:01.240591,-11.0
2023-08-10 11:44:01.248281,-11.0
2023-08-10 11:44:01.255970,-14.0
2023-08-10 11:44:01.263660,-16.0
2023-08-10 11:44:01.271350,-19.0
2023-08-10 11:44:01.279040,-19.0
2023-08-10 11:44:01.286729,-19.0
2023-08-10 11:44:01.294419,-21.0
2023-08-10 11:44:01.302109,-23.0
2023-08-10 11:44:01.309798,-23.0
2023-08-10 11:44:01.317488,-26.0
2023-08-10 11:44:01.325178,-31.0
2023-08-10 11:44:01.332868,-31.0
2023-08-10 11:44:01.340557,-26.0
2023-08-10 11:44:01.348247,-31.0
2023-08-10 11:44:01.355937,-35.0
2023-08-10 11:44:01.363626,-40.0
2023-08-10 11:44:01.371316,-52.0
2023-08-10 11:44:01.379006,-57.0
2023-08-10 11:44:01.386696,-47.0
2023-08-10 11:44:01.394385,-43.0
2023-08-10 11:44:01.402075,-50.0
2023-08-10 11:44:01.409765,-52.0
2023-08-10 11:44:01.417454,-43.0
2023-08-10 11:44:01.425144,-33.0
2023-08-10 11:44:01.432834,-26.0
2023-08-10 11:44:01.440524,-23.0
2023-08-10 11:44:01.448213,-23.0
2023-08-10 11:44:01.455903,-23.0
2023-08-10 11:44:01.463593,-31.0
2023-08-10 11:44:01.471282,-43.0
2023-08-10 11:44:01.478972,-50.0
2023-08-10 11:44:01.486662,-47.0
2023-08-10 11:44:01.494352,-88.0
2023-08-10 11:44:01.502041,-260.0
2023-08-10 11:44:01.509731,-516.0
2023-08-10 11:44:01.517421,-705.0
2023-08-10 11:44:01.525110,-703.0
2023-08-10 11:44:01.532800,-404.0
2023-08-10 11:44:01.540490,-7.0
2023-08-10 11:44:01.548180,112.0
2023-08-10 11:44:01.555869,-7.0
2023-08-10 11:44:01.563559,-55.0
2023-08-10 11:44:01.571249,-2.0
2023-08-10 11:44:01.578938,2.0
2023-08-10 11:44:01.586628,-21.0
2023-08-10 11:44:01.594318,-14.0
2023-08-10 11:44:01.602008,-11.0
2023-08-10 11:44:01.609697,-28.0
2023-08-10 11:44:01.617387,-28.0
2023-08-10 11:44:01.625077,-26.0
2023-08-10 11:44:01.632766,-35.0
2023-08-10 11:44:01.640456,-40.0
2023-08-10 11:44:01.648146,-45.0
2023-08-10 11:44:01.655835,-55.0
2023-08-10 11:44:01.663525,-64.0
2023-08-10 11:44:01.671215,-69.0
2023-08-10 11:44:01.678905,-76.0
2023-08-10 11:44:01.686594,-90.0
2023-08-10 11:44:01.694284,-100.0
2023-08-10 11:44:01.701974,-110.0
2023-08-10 11:44:01.709663,-119.0
2023-08-10 11:44:01.717353,-129.0
2023-08-10 11:44:01.725043,-145.0
2023-08-10 11:44:01.732733,-165.0
2023-08-10 11:44:01.740422,-184.0
2023-08-10 11:44:01.748112,-203.0
2023-08-10 11:44:01.755802,-220.0
2023-08-10 11:44:01.763491,-236.0
2023-08-10 11:44:01.771181,-253.0
2023-08-10 11:44:01.778871,-265.0
2023-08-10 11:44:01.786561,-270.0
2023-08-10 11:44:01.794250,-260.0
2023-08-10 11:44:01.801940,-227.0
2023-08-10 11:44:01.809630,-172.0
2023-08-10 11:44:01.817319,-112.0
2023-08-10 11:44:01.825009,-59.0
2023-08-10 11:44:01.832699,-9.0
2023-08-10 11:44:01.840389,28.0
2023-08-10 11:44:01.848078,50.0
2023-08-10 11:44:01.855768,59.0
2023-08-10 11:44:01.863458,64.0
2023-08-10 11:44:01.871147,69.0
2023-08-10 11:44:01.878837,66.0
2023-08-10 11:44:01.886527,64.0
2023-08-10 11:44:01.894217,62.0
2023-08-10 11:44:01.901906,57.0
2023-08-10 11:44:01.909596,50.0
2023-08-10 11:44:01.917286,47.0
2023-08-10 11:44:01.924975,47.0
2023-08-10 11:44:01.932665,45.0
2023-08-10 11:44:01.940355,40.0
2023-08-10 11:44:01.948045,38.0
2023-08-10 11:44:01.955734,35.0
2023-08-10 11:44:01.963424,33.0
2023-08-10 11:44:01.971114,31.0
2023-08-10 11:44:01.978803,28.0
2023-08-10 11:44:01.986493,23.0
2023-08-10 11:44:01.994183,23.0
2023-08-10 11:44:02.001873,21.0
2023-08-10 11:44:02.009562,21.0
2023-08-10 11:44:02.017252,19.0
2023-08-10 11:44:02.024942,16.0
2023-08-10 11:44:02.032631,11.0
2023-08-10 11:44:02.040321,9.0
2023-08-10 11:44:02.048011,9.0
2023-08-10 11:44:02.055701,2.0
2023-08-10 11:44:02.063390,-7.0
2023-08-10 11:44:02.071080,-4.0
2023-08-10 11:44:02.078770,-2.0
2023-08-10 11:44:02.086459,-2.0
2023-08-10 11:44:02.094149,0.0
2023-08-10 11:44:02.101839,0.0
2023-08-10 11:44:02.109529,-2.0
2023-08-10 11:44:02.117218,-4.0
2023-08-10 11:44:02.124908,-2.0
2023-08-10 11:44:02.132598,-2.0
2023-08-10 11:44:02.140287,-7.0
2023-08-10 11:44:02.147977,-9.0
2023-08-10 11:44:02.155667,-9.0
2023-08-10 11:44:02.163357,-11.0
2023-08-10 11:44:02.171046,-9.0
2023-08-10 11:44:02.178736,-4.0
2023-08-10 11:44:02.186426,-4.0
2023-08-10 11:44:02.194115,-11.0
2023-08-10 11:44:02.201805,-14.0
2023-08-10 11:44:02.209495,-11.0
2023-08-10 11:44:02.217185,-7.0
2023-08-10 11:44:02.224874,-7.0
2023-08-10 11:44:02.232564,-9.0
2023-08-10 11:44:02.240254,-11.0
2023-08-10 11:44:02.247943,-14.0
2023-08-10 11:44:02.255633,-14.0
2023-08-10 11:44:02.263323,-14.0
2023-08-10 11:44:02.271013,-16.0
2023-08-10 11:44:02.278702,-16.0
2023-08-10 11:44:02.286392,-21.0
2023-08-10 11:44:02.294082,-23.0
2023-08-10 11:44:02.301771,-19.0
2023-08-10 11:44:02.309461,-14.0
2023-08-10 11:44:02.317151,-11.0
2023-08-10 11:44:02.324841,-19.0
2023-08-10 11:44:02.332530,-33.0
2023-08-10 11:44:02.340220,-47.0
2023-08-10 11:44:02.347910,-62.0
2023-08-10 11:44:02.355599,-59.0
2023-08-10 11:44:02.363289,-57.0
2023-08-10 11:44:02.370979,-57.0
2023-08-10 11:44:02.378668,-50.0
2023-08-10 11:44:02.386358,-28.0
2023-08-10 11:44:02.394048,-19.0
2023-08-10 11:44:02.401738,-21.0
2023-08-10 11:44:02.409427,-26.0
2023-08-10 11:44:02.417117,-28.0
2023-08-10 11:44:02.424807,-33.0
2023-08-10 11:44:02.432496,-33.0
2023-08-10 11:44:02.440186,-31.0
2023-08-10 11:44:02.447876,-31.0
2023-08-10 11:44:02.455566,-31.0
2023-08-10 11:44:02.463255,-59.0
2023-08-10 11:44:02.470945,-191.0
2023-08-10 11:44:02.478635,-413.0
2023-08-10 11:44:02.486324,-629.0
2023-08-10 11:44:02.494014,-724.0
2023-08-10 11:44:02.501704,-523.0
2023-08-10 11:44:02.509394,-93.0
2023-08-10 11:44:02.517083,119.0
2023-08-10 11:44:02.524773,14.0
2023-08-10 11:44:02.532463,-55.0
2023-08-10 11:44:02.540152,0.0
2023-08-10 11:44:02.547842,14.0
2023-08-10 11:44:02.555532,-14.0
2023-08-10 11:44:02.563222,-14.0
2023-08-10 11:44:02.570911,-14.0
2023-08-10 11:44:02.578601,-26.0
2023-08-10 11:44:02.586291,-31.0
2023-08-10 11:44:02.593980,-38.0
2023-08-10 11:44:02.601670,-55.0
2023-08-10 11:44:02.609360,-62.0
2023-08-10 11:44:02.617050,-62.0
2023-08-10 11:44:02.624739,-74.0
2023-08-10 11:44:02.632429,-83.0
2023-08-10 11:44:02.640119,-88.0
2023-08-10 11:44:02.647808,-95.0
2023-08-10 11:44:02.655498,-105.0
2023-08-10 11:44:02.663188,-117.0
2023-08-10 11:44:02.670878,-131.0
2023-08-10 11:44:02.678567,-143.0
2023-08-10 11:44:02.686257,-162.0
2023-08-10 11:44:02.693947,-179.0
2023-08-10 11:44:02.701636,-186.0
2023-08-10 11:44:02.709326,-203.0
2023-08-10 11:44:02.717016,-224.0
2023-08-10 11:44:02.724706,-246.0
2023-08-10 11:44:02.732395,-267.0
2023-08-10 11:44:02.740085,-289.0
2023-08-10 11:44:02.747775,-301.0
2023-08-10 11:44:02.755464,-301.0
2023-08-10 11:44:02.763154,-294.0
2023-08-10 11:44:02.770844,-272.0
2023-08-10 11:44:02.778534,-220.0
2023-08-10 11:44:02.786223,-148.0
2023-08-10 11:44:02.793913,-93.0
2023-08-10 11:44:02.801603,-47.0
2023-08-10 11:44:02.809292,-4.0
2023-08-10 11:44:02.816982,23.0
2023-08-10 11:44:02.824672,31.0
2023-08-10 11:44:02.832362,23.0
2023-08-10 11:44:02.840051,28.0
2023-08-10 11:44:02.847741,40.0
2023-08-10 11:44:02.855431,43.0
2023-08-10 11:44:02.863120,43.0
2023-08-10 11:44:02.870810,33.0
2023-08-10 11:44:02.878500,16.0
2023-08-10 11:44:02.886190,9.0
2023-08-10 11:44:02.893879,14.0
2023-08-10 11:44:02.901569,14.0
2023-08-10 11:44:02.909259,2.0
2023-08-10 11:44:02.916948,-7.0
2023-08-10 11:44:02.924638,-2.0
2023-08-10 11:44:02.932328,-2.0
2023-08-10 11:44:02.940018,-9.0
2023-08-10 11:44:02.947707,-11.0
2023-08-10 11:44:02.955397,-9.0
2023-08-10 11:44:02.963087,-7.0
2023-08-10 11:44:02.970776,-4.0
2023-08-10 11:44:02.978466,-9.0
2023-08-10 11:44:02.986156,-11.0
2023-08-10 11:44:02.993846,-11.0
2023-08-10 11:44:03.001535,-14.0
2023-08-10 11:44:03.009225,-16.0
2023-08-10 11:44:03.016915,-16.0
2023-08-10 11:44:03.024604,-14.0
2023-08-10 11:44:03.032294,-7.0
2023-08-10 11:44:03.039984,-14.0
2023-08-10 11:44:03.047673,-23.0
2023-08-10 11:44:03.055363,-14.0
2023-08-10 11:44:03.063053,-11.0
2023-08-10 11:44:03.070743,-19.0
2023-08-10 11:44:03.078432,-14.0
2023-08-10 11:44:03.086122,-11.0
2023-08-10 11:44:03.093812,-21.0
2023-08-10 11:44:03.101501,-19.0
2023-08-10 11:44:03.109191,-14.0
2023-08-10 11:44:03.116881,-16.0
2023-08-10 11:44:03.124571,-19.0
2023-08-10 11:44:03.132260,-23.0
2023-08-10 11:44:03.139950,-33.0
2023-08-10 11:44:03.147640,-38.0
2023-08-10 11:44:03.155329,-35.0
2023-08-10 11:44:03.163019,-28.0
2023-08-10 11:44:03.170709,-26.0
2023-08-10 11:44:03.178399,-38.0
2023-08-10 11:44:03.186088,-35.0
2023-08-10 11:44:03.193778,-23.0
2023-08-10 11:44:03.201468,-28.0
2023-08-10 11:44:03.209157,-40.0
2023-08-10 11:44:03.216847,-38.0
2023-08-10 11:44:03.224537,-31.0
2023-08-10 11:44:03.232227,-26.0
2023-08-10 11:44:03.239916,-28.0
2023-08-10 11:44:03.247606,-31.0
2023-08-10 11:44:03.255296,-33.0
2023-08-10 11:44:03.262985,-35.0
2023-08-10 11:44:03.270675,-35.0
2023-08-10 11:44:03.278365,-40.0
2023-08-10 11:44:03.286055,-40.0
2023-08-10 11:44:03.293744,-35.0
2023-08-10 11:44:03.301434,-33.0
2023-08-10 11:44:03.309124,-31.0
2023-08-10 11:44:03.316813,-33.0
2023-08-10 11:44:03.324503,-50.0
2023-08-10 11:44:03.332193,-66.0
2023-08-10 11:44:03.339883,-66.0
2023-08-10 11:44:03.347572,-59.0
2023-08-10 11:44:03.355262,-59.0
2023-08-10 11:44:03.362952,-62.0
2023-08-10 11:44:03.370641,-57.0
2023-08-10 11:44:03.378331,-45.0
2023-08-10 11:44:03.386021,-38.0
2023-08-10 11:44:03.393711,-31.0
2023-08-10 11:44:03.401400,-28.0
2023-08-10 11:44:03.409090,-28.0
2023-08-10 11:44:03.416780,-31.0
2023-08-10 11:44:03.424469,-33.0
2023-08-10 11:44:03.432159,-31.0
2023-08-10 11:44:03.439849,-35.0
2023-08-10 11:44:03.447539,-35.0
2023-08-10 11:44:03.455228,-57.0
2023-08-10 11:44:03.462918,-189.0
2023-08-10 11:44:03.470608,-425.0
2023-08-10 11:44:03.478297,-638.0
2023-08-10 11:44:03.485987,-698.0
2023-08-10 11:44:03.493677,-480.0
2023-08-10 11:44:03.501367,-78.0
2023-08-10 11:44:03.509056,102.0
2023-08-10 11:44:03.516746,2.0
2023-08-10 11:44:03.524436,-59.0
2023-08-10 11:44:03.532125,0.0
2023-08-10 11:44:03.539815,14.0
2023-08-10 11:44:03.547505,-19.0
2023-08-10 11:44:03.555195,-19.0
2023-08-10 11:44:03.562884,-9.0
2023-08-10 11:44:03.570574,-23.0
2023-08-10 11:44:03.578264,-31.0
2023-08-10 11:44:03.585953,-33.0
2023-08-10 11:44:03.593643,-43.0
2023-08-10 11:44:03.601333,-43.0
2023-08-10 11:44:03.609023,-40.0
2023-08-10 11:44:03.616712,-47.0
2023-08-10 11:44:03.624402,-59.0
2023-08-10 11:44:03.632092,-69.0
2023-08-10 11:44:03.639781,-81.0
2023-08-10 11:44:03.647471,-88.0
2023-08-10 11:44:03.655161,-90.0
2023-08-10 11:44:03.662851,-102.0
2023-08-10 11:44:03.670540,-117.0
2023-08-10 11:44:03.678230,-126.0
2023-08-10 11:44:03.685920,-143.0
2023-08-10 11:44:03.693609,-162.0
2023-08-10 11:44:03.701299,-174.0
2023-08-10 11:44:03.708989,-186.0
2023-08-10 11:44:03.716679,-210.0
2023-08-10 11:44:03.724368,-234.0
2023-08-10 11:44:03.732058,-246.0
2023-08-10 11:44:03.739748,-256.0
2023-08-10 11:44:03.747437,-263.0
2023-08-10 11:44:03.755127,-260.0
2023-08-10 11:44:03.762817,-234.0
2023-08-10 11:44:03.770506,-189.0
2023-08-10 11:44:03.778196,-138.0
2023-08-10 11:44:03.785886,-86.0
2023-08-10 11:44:03.793576,-31.0
2023-08-10 11:44:03.801265,11.0
2023-08-10 11:44:03.808955,35.0
2023-08-10 11:44:03.816645,50.0
2023-08-10 11:44:03.824334,55.0
2023-08-10 11:44:03.832024,47.0
2023-08-10 11:44:03.839714,45.0
2023-08-10 11:44:03.847404,52.0
2023-08-10 11:44:03.855093,50.0
2023-08-10 11:44:03.862783,38.0
2023-08-10 11:44:03.870473,33.0
2023-08-10 11:44:03.878162,33.0
2023-08-10 11:44:03.885852,33.0
2023-08-10 11:44:03.893542,33.0
2023-08-10 11:44:03.901232,31.0
2023-08-10 11:44:03.908921,21.0
2023-08-10 11:44:03.916611,19.0
2023-08-10 11:44:03.924301,21.0
2023-08-10 11:44:03.931990,16.0
2023-08-10 11:44:03.939680,16.0
2023-08-10 11:44:03.947370,14.0
2023-08-10 11:44:03.955060,9.0
2023-08-10 11:44:03.962749,14.0
2023-08-10 11:44:03.970439,21.0
2023-08-10 11:44:03.978129,16.0
2023-08-10 11:44:03.985818,11.0
2023-08-10 11:44:03.993508,11.0
2023-08-10 11:44:04.001198,9.0
2023-08-10 11:44:04.008888,9.0
2023-08-10 11:44:04.016577,7.0
2023-08-10 11:44:04.024267,7.0
2023-08-10 11:44:04.031957,9.0
2023-08-10 11:44:04.039646,7.0
2023-08-10 11:44:04.047336,4.0
2023-08-10 11:44:04.055026,11.0
2023-08-10 11:44:04.062716,11.0
2023-08-10 11:44:04.070405,4.0
2023-08-10 11:44:04.078095,9.0
2023-08-10 11:44:04.085785,9.0
2023-08-10 11:44:04.093474,0.0
2023-08-10 11:44:04.101164,0.0
2023-08-10 11:44:04.108854,4.0
2023-08-10 11:44:04.116544,0.0
2023-08-10 11:44:04.124233,-4.0
2023-08-10 11:44:04.131923,-4.0
2023-08-10 11:44:04.139613,-4.0
2023-08-10 11:44:04.147302,-4.0
2023-08-10 11:44:04.154992,-7.0
2023-08-10 11:44:04.162682,-9.0
2023-08-10 11:44:04.170372,-4.0
2023-08-10 11:44:04.178061,0.0
2023-08-10 11:44:04.185751,-4.0
2023-08-10 11:44:04.193441,-11.0
2023-08-10 11:44:04.201130,-14.0
2023-08-10 11:44:04.208820,-16.0
2023-08-10 11:44:04.216510,-28.0
2023-08-10 11:44:04.224200,-43.0
2023-08-10 11:44:04.231889,-38.0
2023-08-10 11:44:04.239579,-31.0
2023-08-10 11:44:04.247269,-35.0
2023-08-10 11:44:04.254958,-26.0
2023-08-10 11:44:04.262648,-11.0
2023-08-10 11:44:04.270338,-7.0
2023-08-10 11:44:04.278028,2.0
2023-08-10 11:44:04.285717,7.0
2023-08-10 11:44:04.293407,-4.0
2023-08-10 11:44:04.301097,-9.0
2023-08-10 11:44:04.308786,-11.0
2023-08-10 11:44:04.316476,-19.0
2023-08-10 11:44:04.324166,-26.0
2023-08-10 11:44:04.331856,-14.0
2023-08-10 11:44:04.339545,-21.0
2023-08-10 11:44:04.347235,-124.0
2023-08-10 11:44:04.354925,-351.0
2023-08-10 11:44:04.362614,-583.0
2023-08-10 11:44:04.370304,-691.0
2023-08-10 11:44:04.377994,-559.0
2023-08-10 11:44:04.385684,-186.0
2023-08-10 11:44:04.393373,102.0
2023-08-10 11:44:04.401063,88.0
2023-08-10 11:44:04.408753,-19.0
2023-08-10 11:44:04.416442,-14.0
2023-08-10 11:44:04.424132,23.0
2023-08-10 11:44:04.431822,11.0
2023-08-10 11:44:04.439511,2.0
2023-08-10 11:44:04.447201,7.0
2023-08-10 11:44:04.454891,2.0
2023-08-10 11:44:04.462581,-4.0
2023-08-10 11:44:04.470270,-7.0
2023-08-10 11:44:04.477960,-11.0
2023-08-10 11:44:04.485650,-26.0
2023-08-10 11:44:04.493339,-35.0
2023-08-10 11:44:04.501029,-38.0
2023-08-10 11:44:04.508719,-43.0
2023-08-10 11:44:04.516409,-57.0
2023-08-10 11:44:04.524098,-71.0
2023-08-10 11:44:04.531788,-69.0
2023-08-10 11:44:04.539478,-74.0
2023-08-10 11:44:04.547167,-95.0
2023-08-10 11:44:04.554857,-114.0
2023-08-10 11:44:04.562547,-122.0
2023-08-10 11:44:04.570237,-133.0
2023-08-10 11:44:04.577926,-153.0
2023-08-10 11:44:04.585616,-172.0
2023-08-10 11:44:04.593306,-189.0
2023-08-10 11:44:04.600995,-212.0
2023-08-10 11:44:04.608685,-241.0
2023-08-10 11:44:04.616375,-258.0
2023-08-10 11:44:04.624065,-265.0
2023-08-10 11:44:04.631754,-270.0
2023-08-10 11:44:04.639444,-265.0
2023-08-10 11:44:04.647134,-239.0
2023-08-10 11:44:04.654823,-191.0
2023-08-10 11:44:04.662513,-131.0
2023-08-10 11:44:04.670203,-71.0
2023-08-10 11:44:04.677893,-19.0
2023-08-10 11:44:04.685582,19.0
2023-08-10 11:44:04.693272,40.0
2023-08-10 11:44:04.700962,55.0
2023-08-10 11:44:04.708651,62.0
2023-08-10 11:44:04.716341,64.0
2023-08-10 11:44:04.724031,64.0
2023-08-10 11:44:04.731721,66.0
2023-08-10 11:44:04.739410,69.0
2023-08-10 11:44:04.747100,64.0
2023-08-10 11:44:04.754790,55.0
2023-08-10 11:44:04.762479,50.0
2023-08-10 11:44:04.770169,50.0
2023-08-10 11:44:04.777859,52.0
2023-08-10 11:44:04.785549,47.0
2023-08-10 11:44:04.793238,38.0
2023-08-10 11:44:04.800928,31.0
2023-08-10 11:44:04.808618,38.0
2023-08-10 11:44:04.816307,43.0
2023-08-10 11:44:04.823997,35.0
2023-08-10 11:44:04.831687,26.0
2023-08-10 11:44:04.839377,19.0
2023-08-10 11:44:04.847066,11.0
2023-08-10 11:44:04.854756,7.0
2023-08-10 11:44:04.862446,7.0
2023-08-10 11:44:04.870135,7.0
2023-08-10 11:44:04.877825,11.0
2023-08-10 11:44:04.885515,9.0
2023-08-10 11:44:04.893205,-2.0
2023-08-10 11:44:04.900894,-7.0
2023-08-10 11:44:04.908584,0.0
2023-08-10 11:44:04.916274,-2.0
2023-08-10 11:44:04.923963,-7.0
2023-08-10 11:44:04.931653,-11.0
2023-08-10 11:44:04.939343,-16.0
2023-08-10 11:44:04.947033,-16.0
2023-08-10 11:44:04.954722,-9.0
2023-08-10 11:44:04.962412,-7.0
2023-08-10 11:44:04.970102,-9.0
2023-08-10 11:44:04.977791,-4.0
2023-08-10 11:44:04.985481,-2.0
2023-08-10 11:44:04.993171,-9.0
2023-08-10 11:44:05.000861,-11.0
2023-08-10 11:44:05.008550,-4.0
2023-08-10 11:44:05.016240,-9.0
2023-08-10 11:44:05.023930,-23.0
2023-08-10 11:44:05.031619,-23.0
2023-08-10 11:44:05.039309,-11.0
2023-08-10 11:44:05.046999,-11.0
2023-08-10 11:44:05.054689,-16.0
2023-08-10 11:44:05.062378,-11.0
2023-08-10 11:44:05.070068,-11.0
2023-08-10 11:44:05.077758,-16.0
2023-08-10 11:44:05.085447,-19.0
2023-08-10 11:44:05.093137,-23.0
2023-08-10 11:44:05.100827,-28.0
2023-08-10 11:44:05.108517,-26.0
2023-08-10 11:44:05.116206,-26.0
2023-08-10 11:44:05.123896,-31.0
2023-08-10 11:44:05.131586,-28.0
2023-08-10 11:44:05.139275,-19.0
2023-08-10 11:44:05.146965,-21.0
2023-08-10 11:44:05.154655,-28.0
2023-08-10 11:44:05.162344,-28.0
2023-08-10 11:44:05.170034,-28.0
2023-08-10 11:44:05.177724,-35.0
2023-08-10 11:44:05.185414,-33.0
2023-08-10 11:44:05.193103,-28.0
2023-08-10 11:44:05.200793,-26.0
2023-08-10 11:44:05.208483,-26.0
2023-08-10 11:44:05.216172,-26.0
2023-08-10 11:44:05.223862,-26.0
2023-08-10 11:44:05.231552,-26.0
2023-08-10 11:44:05.239242,-33.0
2023-08-10 11:44:05.246931,-50.0
2023-08-10 11:44:05.254621,-59.0
2023-08-10 11:44:05.262311,-55.0
2023-08-10 11:44:05.270000,-50.0
2023-08-10 11:44:05.277690,-50.0
2023-08-10 11:44:05.285380,-47.0
2023-08-10 11:44:05.293070,-38.0
2023-08-10 11:44:05.300759,-23.0
2023-08-10 11:44:05.308449,-19.0
2023-08-10 11:44:05.316139,-23.0
2023-08-10 11:44:05.323828,-21.0
2023-08-10 11:44:05.331518,-21.0
2023-08-10 11:44:05.339208,-28.0
2023-08-10 11:44:05.346898,-35.0
2023-08-10 11:44:05.354587,-38.0
2023-08-10 11:44:05.362277,-33.0
2023-08-10 11:44:05.369967,-62.0
2023-08-10 11:44:05.377656,-203.0
2023-08-10 11:44:05.385346,-433.0
2023-08-10 11:44:05.393036,-638.0
2023-08-10 11:44:05.400726,-703.0
2023-08-10 11:44:05.408415,-468.0
2023-08-10 11:44:05.416105,-52.0
2023-08-10 11:44:05.423795,119.0
2023-08-10 11:44:05.431484,0.0
2023-08-10 11:44:05.439174,-62.0
2023-08-10 11:44:05.446864,4.0
2023-08-10 11:44:05.454554,14.0
2023-08-10 11:44:05.462243,-19.0
2023-08-10 11:44:05.469933,-16.0
2023-08-10 11:44:05.477623,-19.0
2023-08-10 11:44:05.485312,-38.0
2023-08-10 11:44:05.493002,-38.0
2023-08-10 11:44:05.500692,-38.0
2023-08-10 11:44:05.508382,-47.0
2023-08-10 11:44:05.516071,-52.0
2023-08-10 11:44:05.523761,-55.0
2023-08-10 11:44:05.531451,-71.0
2023-08-10 11:44:05.539140,-81.0
2023-08-10 11:44:05.546830,-76.0
2023-08-10 11:44:05.554520,-83.0
2023-08-10 11:44:05.562210,-100.0
2023-08-10 11:44:05.569899,-110.0
2023-08-10 11:44:05.577589,-110.0
2023-08-10 11:44:05.585279,-117.0
2023-08-10 11:44:05.592968,-141.0
2023-08-10 11:44:05.600658,-162.0
2023-08-10 11:44:05.608348,-177.0
2023-08-10 11:44:05.616038,-191.0
2023-08-10 11:44:05.623727,-210.0
2023-08-10 11:44:05.631417,-232.0
2023-08-10 11:44:05.639107,-246.0
2023-08-10 11:44:05.646796,-251.0
2023-08-10 11:44:05.654486,-263.0
2023-08-10 11:44:05.662176,-279.0
2023-08-10 11:44:05.669866,-275.0
2023-08-10 11:44:05.677555,-241.0
2023-08-10 11:44:05.685245,-189.0
2023-08-10 11:44:05.692935,-133.0
2023-08-10 11:44:05.700624,-81.0
2023-08-10 11:44:05.708314,-28.0
2023-08-10 11:44:05.716004,9.0
2023-08-10 11:44:05.723694,26.0
2023-08-10 11:44:05.731383,50.0
2023-08-10 11:44:05.739073,74.0
2023-08-10 11:44:05.746763,71.0
2023-08-10 11:44:05.754452,59.0
2023-08-10 11:44:05.762142,57.0
2023-08-10 11:44:05.769832,59.0
2023-08-10 11:44:05.777522,55.0
2023-08-10 11:44:05.785211,52.0
2023-08-10 11:44:05.792901,47.0
2023-08-10 11:44:05.800591,38.0
2023-08-10 11:44:05.808280,33.0
2023-08-10 11:44:05.815970,45.0
2023-08-10 11:44:05.823660,55.0
2023-08-10 11:44:05.831349,45.0
2023-08-10 11:44:05.839039,31.0
2023-08-10 11:44:05.846729,21.0
2023-08-10 11:44:05.854419,23.0
2023-08-10 11:44:05.862108,26.0
2023-08-10 11:44:05.869798,19.0
2023-08-10 11:44:05.877488,11.0
2023-08-10 11:44:05.885177,7.0
2023-08-10 11:44:05.892867,2.0
2023-08-10 11:44:05.900557,14.0
2023-08-10 11:44:05.908247,26.0
2023-08-10 11:44:05.915936,11.0
2023-08-10 11:44:05.923626,-2.0
2023-08-10 11:44:05.931316,0.0
2023-08-10 11:44:05.939005,4.0
2023-08-10 11:44:05.946695,2.0
2023-08-10 11:44:05.954385,2.0
2023-08-10 11:44:05.962075,4.0
2023-08-10 11:44:05.969764,0.0
2023-08-10 11:44:05.977454,-9.0
2023-08-10 11:44:05.985144,-7.0
2023-08-10 11:44:05.992833,2.0
2023-08-10 11:44:06.000523,2.0
2023-08-10 11:44:06.008213,0.0
2023-08-10 11:44:06.015903,-7.0
2023-08-10 11:44:06.023592,-21.0
2023-08-10 11:44:06.031282,-16.0
2023-08-10 11:44:06.038972,-9.0
2023-08-10 11:44:06.046661,-14.0
2023-08-10 11:44:06.054351,-19.0
2023-08-10 11:44:06.062041,-19.0
2023-08-10 11:44:06.069731,-14.0
2023-08-10 11:44:06.077420,-11.0
2023-08-10 11:44:06.085110,-21.0
2023-08-10 11:44:06.092800,-31.0
2023-08-10 11:44:06.100489,-26.0
2023-08-10 11:44:06.108179,-16.0
2023-08-10 11:44:06.115869,-23.0
2023-08-10 11:44:06.123559,-31.0
2023-08-10 11:44:06.131248,-31.0
2023-08-10 11:44:06.138938,-28.0
2023-08-10 11:44:06.146628,-23.0
2023-08-10 11:44:06.154317,-23.0
2023-08-10 11:44:06.162007,-28.0
2023-08-10 11:44:06.169697,-21.0
2023-08-10 11:44:06.177387,-11.0
2023-08-10 11:44:06.185076,-16.0
2023-08-10 11:44:06.192766,-26.0
2023-08-10 11:44:06.200456,-33.0
2023-08-10 11:44:06.208145,-45.0
2023-08-10 11:44:06.215835,-57.0
2023-08-10 11:44:06.223525,-55.0
2023-08-10 11:44:06.231215,-45.0
2023-08-10 11:44:06.238904,-45.0
2023-08-10 11:44:06.246594,-45.0
2023-08-10 11:44:06.254284,-35.0
2023-08-10 11:44:06.261973,-26.0
2023-08-10 11:44:06.269663,-11.0
2023-08-10 11:44:06.277353,0.0
2023-08-10 11:44:06.285043,-7.0
2023-08-10 11:44:06.292732,-16.0
2023-08-10 11:44:06.300422,-14.0
2023-08-10 11:44:06.308112,-16.0
2023-08-10 11:44:06.315801,-23.0
2023-08-10 11:44:06.323491,-19.0
2023-08-10 11:44:06.331181,-23.0
2023-08-10 11:44:06.338871,-129.0
2023-08-10 11:44:06.346560,-349.0
2023-08-10 11:44:06.354250,-569.0
2023-08-10 11:44:06.361940,-696.0
2023-08-10 11:44:06.369629,-574.0
2023-08-10 11:44:06.377319,-177.0
2023-08-10 11:44:06.385009,119.0
2023-08-10 11:44:06.392699,83.0
2023-08-10 11:44:06.400388,-33.0
2023-08-10 11:44:06.408078,-16.0
2023-08-10 11:44:06.415768,26.0
2023-08-10 11:44:06.423457,14.0
2023-08-10 11:44:06.431147,2.0
2023-08-10 11:44:06.438837,7.0
2023-08-10 11:44:06.446527,-4.0
2023-08-10 11:44:06.454216,-16.0
2023-08-10 11:44:06.461906,-21.0
2023-08-10 11:44:06.469596,-31.0
2023-08-10 11:44:06.477285,-38.0
2023-08-10 11:44:06.484975,-38.0
2023-08-10 11:44:06.492665,-47.0
2023-08-10 11:44:06.500355,-59.0
2023-08-10 11:44:06.508044,-71.0
2023-08-10 11:44:06.515734,-90.0
2023-08-10 11:44:06.523424,-105.0
2023-08-10 11:44:06.531113,-107.0
2023-08-10 11:44:06.538803,-112.0
2023-08-10 11:44:06.546493,-119.0
2023-08-10 11:44:06.554182,-131.0
2023-08-10 11:44:06.561872,-141.0
2023-08-10 11:44:06.569562,-162.0
2023-08-10 11:44:06.577252,-191.0
2023-08-10 11:44:06.584941,-210.0
2023-08-10 11:44:06.592631,-222.0
2023-08-10 11:44:06.600321,-232.0
2023-08-10 11:44:06.608010,-246.0
2023-08-10 11:44:06.615700,-267.0
2023-08-10 11:44:06.623390,-275.0
2023-08-10 11:44:06.631080,-263.0
2023-08-10 11:44:06.638769,-248.0
2023-08-10 11:44:06.646459,-215.0
2023-08-10 11:44:06.654149,-153.0
2023-08-10 11:44:06.661838,-81.0
2023-08-10 11:44:06.669528,-23.0
2023-08-10 11:44:06.677218,16.0
2023-08-10 11:44:06.684908,40.0
2023-08-10 11:44:06.692597,55.0
2023-08-10 11:44:06.700287,69.0
2023-08-10 11:44:06.707977,74.0
2023-08-10 11:44:06.715666,66.0
2023-08-10 11:44:06.723356,64.0
2023-08-10 11:44:06.731046,62.0
2023-08-10 11:44:06.738736,62.0
2023-08-10 11:44:06.746425,66.0
2023-08-10 11:44:06.754115,57.0
2023-08-10 11:44:06.761805,47.0
2023-08-10 11:44:06.769494,55.0
2023-08-10 11:44:06.777184,52.0
2023-08-10 11:44:06.784874,38.0
2023-08-10 11:44:06.792564,38.0
2023-08-10 11:44:06.800253,43.0
2023-08-10 11:44:06.807943,38.0
2023-08-10 11:44:06.815633,33.0
2023-08-10 11:44:06.823322,31.0
2023-08-10 11:44:06.831012,28.0
2023-08-10 11:44:06.838702,23.0
2023-08-10 11:44:06.846392,19.0
2023-08-10 11:44:06.854081,23.0
2023-08-10 11:44:06.861771,26.0
2023-08-10 11:44:06.869461,19.0
2023-08-10 11:44:06.877150,11.0
2023-08-10 11:44:06.884840,11.0
2023-08-10 11:44:06.892530,11.0
2023-08-10 11:44:06.900220,7.0
2023-08-10 11:44:06.907909,2.0
2023-08-10 11:44:06.915599,9.0
2023-08-10 11:44:06.923289,9.0
2023-08-10 11:44:06.930978,2.0
2023-08-10 11:44:06.938668,0.0
2023-08-10 11:44:06.946358,7.0
2023-08-10 11:44:06.954048,4.0
2023-08-10 11:44:06.961737,-4.0
2023-08-10 11:44:06.969427,-4.0
2023-08-10 11:44:06.977117,2.0
2023-08-10 11:44:06.984806,2.0
2023-08-10 11:44:06.992496,2.0
2023-08-10 11:44:07.000186,-7.0
2023-08-10 11:44:07.007876,-16.0
2023-08-10 11:44:07.015565,-14.0
2023-08-10 11:44:07.023255,-9.0
2023-08-10 11:44:07.030945,-16.0
2023-08-10 11:44:07.038634,-19.0
2023-08-10 11:44:07.046324,-11.0
2023-08-10 11:44:07.054014,-19.0
2023-08-10 11:44:07.061704,-21.0
2023-08-10 11:44:07.069393,-21.0
2023-08-10 11:44:07.077083,-31.0
2023-08-10 11:44:07.084773,-35.0
2023-08-10 11:44:07.092462,-28.0
2023-08-10 11:44:07.100152,-26.0
2023-08-10 11:44:07.107842,-31.0
2023-08-10 11:44:07.115532,-35.0
2023-08-10 11:44:07.123221,-47.0
2023-08-10 11:44:07.130911,-66.0
2023-08-10 11:44:07.138601,-74.0
2023-08-10 11:44:07.146290,-57.0
2023-08-10 11:44:07.153980,-55.0
2023-08-10 11:44:07.161670,-62.0
2023-08-10 11:44:07.169360,-64.0
2023-08-10 11:44:07.177049,-64.0
2023-08-10 11:44:07.184739,-55.0
2023-08-10 11:44:07.192429,-33.0
2023-08-10 11:44:07.200118,-26.0
2023-08-10 11:44:07.207808,-31.0
2023-08-10 11:44:07.215498,-38.0
2023-08-10 11:44:07.223187,-40.0
2023-08-10 11:44:07.230877,-38.0
2023-08-10 11:44:07.238567,-43.0
2023-08-10 11:44:07.246257,-45.0
2023-08-10 11:44:07.253946,-52.0
2023-08-10 11:44:07.261636,-133.0
2023-08-10 11:44:07.269326,-346.0
2023-08-10 11:44:07.277015,-583.0
2023-08-10 11:44:07.284705,-712.0
2023-08-10 11:44:07.292395,-595.0
2023-08-10 11:44:07.300085,-205.0
2023-08-10 11:44:07.307774,98.0
2023-08-10 11:44:07.315464,64.0
2023-08-10 11:44:07.323154,-55.0
2023-08-10 11:44:07.330843,-33.0
2023-08-10 11:44:07.338533,14.0
2023-08-10 11:44:07.346223,2.0
2023-08-10 11:44:07.353913,-4.0
2023-08-10 11:44:07.361602,7.0
2023-08-10 11:44:07.369292,-7.0
2023-08-10 11:44:07.376982,-33.0
2023-08-10 11:44:07.384671,-33.0
2023-08-10 11:44:07.392361,-35.0
2023-08-10 11:44:07.400051,-45.0
2023-08-10 11:44:07.407741,-52.0
2023-08-10 11:44:07.415430,-59.0
2023-08-10 11:44:07.423120,-64.0
2023-08-10 11:44:07.430810,-69.0
2023-08-10 11:44:07.438499,-86.0
2023-08-10 11:44:07.446189,-100.0
2023-08-10 11:44:07.453879,-105.0
2023-08-10 11:44:07.461569,-122.0
2023-08-10 11:44:07.469258,-133.0
2023-08-10 11:44:07.476948,-136.0
2023-08-10 11:44:07.484638,-155.0
2023-08-10 11:44:07.492327,-179.0
2023-08-10 11:44:07.500017,-186.0
2023-08-10 11:44:07.507707,-205.0
2023-08-10 11:44:07.515397,-236.0
2023-08-10 11:44:07.523086,-253.0
2023-08-10 11:44:07.530776,-265.0
2023-08-10 11:44:07.538466,-277.0
2023-08-10 11:44:07.546155,-279.0
2023-08-10 11:44:07.553845,-282.0
2023-08-10 11:44:07.561535,-270.0
2023-08-10 11:44:07.569225,-217.0
2023-08-10 11:44:07.576914,-145.0
2023-08-10 11:44:07.584604,-95.0
2023-08-10 11:44:07.592294,-52.0
2023-08-10 11:44:07.599983,-7.0
2023-08-10 11:44:07.607673,11.0
2023-08-10 11:44:07.615363,19.0
2023-08-10 11:44:07.623053,35.0
2023-08-10 11:44:07.630742,43.0
2023-08-10 11:44:07.638432,38.0
2023-08-10 11:44:07.646122,33.0
2023-08-10 11:44:07.653811,35.0
2023-08-10 11:44:07.661501,40.0
2023-08-10 11:44:07.669191,33.0
2023-08-10 11:44:07.676881,19.0
2023-08-10 11:44:07.684570,14.0
2023-08-10 11:44:07.692260,19.0
2023-08-10 11:44:07.699950,16.0
2023-08-10 11:44:07.707639,7.0
2023-08-10 11:44:07.715329,4.0
2023-08-10 11:44:07.723019,4.0
2023-08-10 11:44:07.730709,2.0
2023-08-10 11:44:07.738398,2.0
2023-08-10 11:44:07.746088,4.0
2023-08-10 11:44:07.753778,4.0
2023-08-10 11:44:07.761467,4.0
2023-08-10 11:44:07.769157,7.0
2023-08-10 11:44:07.776847,2.0
2023-08-10 11:44:07.784537,-9.0
2023-08-10 11:44:07.792226,-16.0
2023-08-10 11:44:07.799916,-9.0
2023-08-10 11:44:07.807606,-4.0
2023-08-10 11:44:07.815295,-9.0
2023-08-10 11:44:07.822985,-11.0
2023-08-10 11:44:07.830675,-14.0
2023-08-10 11:44:07.838365,-9.0
2023-08-10 11:44:07.846054,-9.0
2023-08-10 11:44:07.853744,-16.0
2023-08-10 11:44:07.861434,-16.0
2023-08-10 11:44:07.869123,-9.0
2023-08-10 11:44:07.876813,-16.0
2023-08-10 11:44:07.884503,-21.0
2023-08-10 11:44:07.892193,-14.0
2023-08-10 11:44:07.899882,-9.0
2023-08-10 11:44:07.907572,-9.0
2023-08-10 11:44:07.915262,-14.0
2023-08-10 11:44:07.922951,-26.0
2023-08-10 11:44:07.930641,-23.0
2023-08-10 11:44:07.938331,-11.0
2023-08-10 11:44:07.946020,-16.0
2023-08-10 11:44:07.953710,-31.0
2023-08-10 11:44:07.961400,-31.0
2023-08-10 11:44:07.969090,-14.0
2023-08-10 11:44:07.976779,-2.0
2023-08-10 11:44:07.984469,-14.0
2023-08-10 11:44:07.992159,-33.0
2023-08-10 11:44:07.999848,-26.0
2023-08-10 11:44:08.007538,-19.0
2023-08-10 11:44:08.015228,-28.0
2023-08-10 11:44:08.022918,-23.0
2023-08-10 11:44:08.030607,-19.0
2023-08-10 11:44:08.038297,-28.0
2023-08-10 11:44:08.045987,-28.0
2023-08-10 11:44:08.053676,-28.0
2023-08-10 11:44:08.061366,-31.0
2023-08-10 11:44:08.069056,-21.0
2023-08-10 11:44:08.076746,-23.0
2023-08-10 11:44:08.084435,-38.0
2023-08-10 11:44:08.092125,-38.0
2023-08-10 11:44:08.099815,-35.0
2023-08-10 11:44:08.107504,-38.0
2023-08-10 11:44:08.115194,-35.0
2023-08-10 11:44:08.122884,-43.0
2023-08-10 11:44:08.130574,-45.0
2023-08-10 11:44:08.138263,-45.0
2023-08-10 11:44:08.145953,-55.0
2023-08-10 11:44:08.153643,-71.0
2023-08-10 11:44:08.161332,-71.0
2023-08-10 11:44:08.169022,-57.0
2023-08-10 11:44:08.176712,-62.0
2023-08-10 11:44:08.184402,-69.0
2023-08-10 11:44:08.192091,-57.0
2023-08-10 11:44:08.199781,-47.0
2023-08-10 11:44:08.207471,-40.0
2023-08-10 11:44:08.215160,-31.0
2023-08-10 11:44:08.222850,-35.0
2023-08-10 11:44:08.230540,-43.0
2023-08-10 11:44:08.238230,-40.0
2023-08-10 11:44:08.245919,-33.0
2023-08-10 11:44:08.253609,-40.0
2023-08-10 11:44:08.261299,-52.0
2023-08-10 11:44:08.268988,-47.0
2023-08-10 11:44:08.276678,-86.0
2023-08-10 11:44:08.284368,-253.0
2023-08-10 11:44:08.292058,-490.0
2023-08-10 11:44:08.299747,-677.0
2023-08-10 11:44:08.307437,-679.0
2023-08-10 11:44:08.315127,-375.0
2023-08-10 11:44:08.322816,9.0
2023-08-10 11:44:08.330506,93.0
2023-08-10 11:44:08.338196,-50.0
2023-08-10 11:44:08.345886,-74.0
2023-08-10 11:44:08.353575,2.0
2023-08-10 11:44:08.361265,0.0
2023-08-10 11:44:08.368955,-28.0
2023-08-10 11:44:08.376644,-16.0
2023-08-10 11:44:08.384334,-21.0
2023-08-10 11:44:08.392024,-28.0
2023-08-10 11:44:08.399714,-21.0
2023-08-10 11:44:08.407403,-31.0
2023-08-10 11:44:08.415093,-45.0
2023-08-10 11:44:08.422783,-47.0
2023-08-10 11:44:08.430472,-47.0
2023-08-10 11:44:08.438162,-52.0
2023-08-10 11:44:08.445852,-62.0
2023-08-10 11:44:08.453542,-76.0
2023-08-10 11:44:08.461231,-81.0
2023-08-10 11:44:08.468921,-81.0
2023-08-10 11:44:08.476611,-90.0
2023-08-10 11:44:08.484300,-105.0
2023-08-10 11:44:08.491990,-112.0
2023-08-10 11:44:08.499680,-119.0
2023-08-10 11:44:08.507370,-141.0
2023-08-10 11:44:08.515059,-162.0
2023-08-10 11:44:08.522749,-181.0
2023-08-10 11:44:08.530439,-200.0
2023-08-10 11:44:08.538128,-208.0
2023-08-10 11:44:08.545818,-220.0
2023-08-10 11:44:08.553508,-248.0
2023-08-10 11:44:08.561198,-263.0
2023-08-10 11:44:08.568887,-263.0
2023-08-10 11:44:08.576577,-253.0
2023-08-10 11:44:08.584267,-227.0
2023-08-10 11:44:08.591956,-177.0
2023-08-10 11:44:08.599646,-117.0
2023-08-10 11:44:08.607336,-52.0
2023-08-10 11:44:08.615025,-2.0
2023-08-10 11:44:08.622715,19.0
2023-08-10 11:44:08.630405,33.0
2023-08-10 11:44:08.638095,47.0
2023-08-10 11:44:08.645784,55.0
2023-08-10 11:44:08.653474,64.0
2023-08-10 11:44:08.661164,76.0
2023-08-10 11:44:08.668853,64.0
2023-08-10 11:44:08.676543,50.0
2023-08-10 11:44:08.684233,62.0
2023-08-10 11:44:08.691923,69.0
2023-08-10 11:44:08.699612,45.0
2023-08-10 11:44:08.707302,43.0
2023-08-10 11:44:08.714992,52.0
2023-08-10 11:44:08.722681,40.0
2023-08-10 11:44:08.730371,43.0
2023-08-10 11:44:08.738061,57.0
2023-08-10 11:44:08.745751,35.0
2023-08-10 11:44:08.753440,21.0
2023-08-10 11:44:08.761130,38.0
2023-08-10 11:44:08.768820,31.0
2023-08-10 11:44:08.776509,11.0
2023-08-10 11:44:08.784199,16.0
2023-08-10 11:44:08.791889,21.0
2023-08-10 11:44:08.799579,7.0
2023-08-10 11:44:08.807268,7.0
2023-08-10 11:44:08.814958,26.0
2023-08-10 11:44:08.822648,21.0
2023-08-10 11:44:08.830337,0.0
2023-08-10 11:44:08.838027,7.0
2023-08-10 11:44:08.845717,16.0
2023-08-10 11:44:08.853407,7.0
2023-08-10 11:44:08.861096,2.0
2023-08-10 11:44:08.868786,4.0
2023-08-10 11:44:08.876476,7.0
2023-08-10 11:44:08.884165,7.0
2023-08-10 11:44:08.891855,4.0
2023-08-10 11:44:08.899545,9.0
2023-08-10 11:44:08.907235,11.0
2023-08-10 11:44:08.914924,4.0
2023-08-10 11:44:08.922614,7.0
2023-08-10 11:44:08.930304,7.0
2023-08-10 11:44:08.937993,-2.0
2023-08-10 11:44:08.945683,-4.0
2023-08-10 11:44:08.953373,-2.0
2023-08-10 11:44:08.961063,-2.0
2023-08-10 11:44:08.968752,7.0
2023-08-10 11:44:08.976442,9.0
2023-08-10 11:44:08.984132,2.0
2023-08-10 11:44:08.991821,-4.0
2023-08-10 11:44:08.999511,-7.0
2023-08-10 11:44:09.007201,-2.0
2023-08-10 11:44:09.014891,2.0
2023-08-10 11:44:09.022580,-9.0
2023-08-10 11:44:09.030270,-11.0
2023-08-10 11:44:09.037960,-7.0
2023-08-10 11:44:09.045649,-14.0
2023-08-10 11:44:09.053339,-9.0
2023-08-10 11:44:09.061029,4.0
2023-08-10 11:44:09.068719,-7.0
2023-08-10 11:44:09.076408,-19.0
2023-08-10 11:44:09.084098,-11.0
2023-08-10 11:44:09.091788,-9.0
2023-08-10 11:44:09.099477,-19.0
2023-08-10 11:44:09.107167,-35.0
2023-08-10 11:44:09.114857,-45.0
2023-08-10 11:44:09.122547,-35.0
2023-08-10 11:44:09.130236,-31.0
2023-08-10 11:44:09.137926,-43.0
2023-08-10 11:44:09.145616,-43.0
2023-08-10 11:44:09.153305,-33.0
2023-08-10 11:44:09.160995,-23.0
2023-08-10 11:44:09.168685,-14.0
2023-08-10 11:44:09.176375,-16.0
2023-08-10 11:44:09.184064,-14.0
2023-08-10 11:44:09.191754,-9.0
2023-08-10 11:44:09.199444,-9.0
2023-08-10 11:44:09.207133,-14.0
2023-08-10 11:44:09.214823,-19.0
2023-08-10 11:44:09.222513,-16.0
2023-08-10 11:44:09.230203,-16.0
2023-08-10 11:44:09.237892,-98.0
2023-08-10 11:44:09.245582,-299.0
2023-08-10 11:44:09.253272,-531.0
2023-08-10 11:44:09.260961,-677.0
2023-08-10 11:44:09.268651,-593.0
2023-08-10 11:44:09.276341,-229.0
2023-08-10 11:44:09.284031,102.0
2023-08-10 11:44:09.291720,117.0
2023-08-10 11:44:09.299410,-4.0
2023-08-10 11:44:09.307100,-14.0
2023-08-10 11:44:09.314789,28.0
2023-08-10 11:44:09.322479,23.0
2023-08-10 11:44:09.330169,14.0
2023-08-10 11:44:09.337858,9.0
2023-08-10 11:44:09.345548,-7.0
2023-08-10 11:44:09.353238,-9.0
2023-08-10 11:44:09.360928,-7.0
2023-08-10 11:44:09.368617,-16.0
2023-08-10 11:44:09.376307,-26.0
2023-08-10 11:44:09.383997,-35.0
2023-08-10 11:44:09.391686,-52.0
2023-08-10 11:44:09.399376,-66.0
2023-08-10 11:44:09.407066,-64.0
2023-08-10 11:44:09.414756,-66.0
2023-08-10 11:44:09.422445,-88.0
2023-08-10 11:44:09.430135,-110.0
2023-08-10 11:44:09.437825,-117.0
2023-08-10 11:44:09.445514,-117.0
2023-08-10 11:44:09.453204,-124.0
2023-08-10 11:44:09.460894,-145.0
2023-08-10 11:44:09.468584,-165.0
2023-08-10 11:44:09.476273,-177.0
2023-08-10 11:44:09.483963,-191.0
2023-08-10 11:44:09.491653,-215.0
2023-08-10 11:44:09.499342,-234.0
2023-08-10 11:44:09.507032,-246.0
2023-08-10 11:44:09.514722,-256.0
2023-08-10 11:44:09.522412,-265.0
2023-08-10 11:44:09.530101,-275.0
2023-08-10 11:44:09.537791,-263.0
2023-08-10 11:44:09.545481,-220.0
2023-08-10 11:44:09.553170,-160.0
2023-08-10 11:44:09.560860,-102.0
2023-08-10 11:44:09.568550,-43.0
2023-08-10 11:44:09.576240,2.0
2023-08-10 11:44:09.583929,28.0
2023-08-10 11:44:09.591619,50.0
2023-08-10 11:44:09.599309,71.0
2023-08-10 11:44:09.606998,71.0
2023-08-10 11:44:09.614688,62.0
2023-08-10 11:44:09.622378,66.0
2023-08-10 11:44:09.630068,62.0
2023-08-10 11:44:09.637757,52.0
2023-08-10 11:44:09.645447,52.0
2023-08-10 11:44:09.653137,52.0
2023-08-10 11:44:09.660826,43.0
2023-08-10 11:44:09.668516,35.0
2023-08-10 11:44:09.676206,43.0
2023-08-10 11:44:09.683896,50.0
2023-08-10 11:44:09.691585,43.0
2023-08-10 11:44:09.699275,33.0
2023-08-10 11:44:09.706965,31.0
2023-08-10 11:44:09.714654,26.0
2023-08-10 11:44:09.722344,21.0
2023-08-10 11:44:09.730034,23.0
2023-08-10 11:44:09.737724,31.0
2023-08-10 11:44:09.745413,28.0
2023-08-10 11:44:09.753103,23.0
2023-08-10 11:44:09.760793,23.0
2023-08-10 11:44:09.768482,19.0
2023-08-10 11:44:09.776172,14.0
2023-08-10 11:44:09.783862,21.0
2023-08-10 11:44:09.791552,19.0
2023-08-10 11:44:09.799241,-2.0
2023-08-10 11:44:09.806931,-4.0
2023-08-10 11:44:09.814621,9.0
2023-08-10 11:44:09.822310,16.0
2023-08-10 11:44:09.830000,14.0
2023-08-10 11:44:09.837690,9.0
2023-08-10 11:44:09.845380,0.0
2023-08-10 11:44:09.853069,0.0
2023-08-10 11:44:09.860759,11.0
2023-08-10 11:44:09.868449,4.0
2023-08-10 11:44:09.876138,-9.0
2023-08-10 11:44:09.883828,-2.0
2023-08-10 11:44:09.891518,0.0
2023-08-10 11:44:09.899208,-4.0
2023-08-10 11:44:09.906897,-4.0
2023-08-10 11:44:09.914587,-14.0
2023-08-10 11:44:09.922277,-19.0
2023-08-10 11:44:09.929966,-16.0
2023-08-10 11:44:09.937656,-21.0
2023-08-10 11:44:09.945346,-28.0
2023-08-10 11:44:09.953036,-26.0
2023-08-10 11:44:09.960725,-21.0
2023-08-10 11:44:09.968415,-21.0
2023-08-10 11:44:09.976105,-26.0
2023-08-10 11:44:09.983794,-26.0
2023-08-10 11:44:09.991484,-26.0
2023-08-10 11:44:09.999174,-31.0
2023-08-10 11:44:10.006863,-33.0
2023-08-10 11:44:10.014553,-23.0
2023-08-10 11:44:10.022243,-23.0
2023-08-10 11:44:10.029933,-31.0
2023-08-10 11:44:10.037622,-26.0
2023-08-10 11:44:10.045312,-21.0
2023-08-10 11:44:10.053002,-26.0
2023-08-10 11:44:10.060691,-31.0
2023-08-10 11:44:10.068381,-35.0
2023-08-10 11:44:10.076071,-38.0
2023-08-10 11:44:10.083761,-43.0
2023-08-10 11:44:10.091450,-64.0
2023-08-10 11:44:10.099140,-66.0
2023-08-10 11:44:10.106830,-47.0
2023-08-10 11:44:10.114519,-47.0
2023-08-10 11:44:10.122209,-55.0
2023-08-10 11:44:10.129899,-50.0
2023-08-10 11:44:10.137589,-47.0
2023-08-10 11:44:10.145278,-40.0
2023-08-10 11:44:10.152968,-23.0
2023-08-10 11:44:10.160658,-21.0
2023-08-10 11:44:10.168347,-26.0
2023-08-10 11:44:10.176037,-23.0
2023-08-10 11:44:10.183727,-26.0
2023-08-10 11:44:10.191417,-40.0
2023-08-10 11:44:10.199106,-40.0
2023-08-10 11:44:10.206796,-40.0
2023-08-10 11:44:10.214486,-122.0
2023-08-10 11:44:10.222175,-332.0
2023-08-10 11:44:10.229865,-559.0
2023-08-10 11:44:10.237555,-684.0
2023-08-10 11:44:10.245245,-583.0
2023-08-10 11:44:10.252934,-208.0
2023-08-10 11:44:10.260624,105.0
2023-08-10 11:44:10.268314,76.0
2023-08-10 11:44:10.276003,-50.0
2023-08-10 11:44:10.283693,-21.0
2023-08-10 11:44:10.291383,23.0
2023-08-10 11:44:10.299073,0.0
2023-08-10 11:44:10.306762,-7.0
2023-08-10 11:44:10.314452,4.0
2023-08-10 11:44:10.322142,-11.0
2023-08-10 11:44:10.329831,-26.0
2023-08-10 11:44:10.337521,-23.0
2023-08-10 11:44:10.345211,-31.0
2023-08-10 11:44:10.352901,-45.0
2023-08-10 11:44:10.360590,-35.0
2023-08-10 11:44:10.368280,-35.0
2023-08-10 11:44:10.375970,-59.0
2023-08-10 11:44:10.383659,-69.0
2023-08-10 11:44:10.391349,-69.0
2023-08-10 11:44:10.399039,-81.0
2023-08-10 11:44:10.406729,-90.0
2023-08-10 11:44:10.414418,-98.0
2023-08-10 11:44:10.422108,-110.0
2023-08-10 11:44:10.429798,-122.0
2023-08-10 11:44:10.437487,-131.0
2023-08-10 11:44:10.445177,-150.0
2023-08-10 11:44:10.452867,-174.0
2023-08-10 11:44:10.460557,-191.0
2023-08-10 11:44:10.468246,-215.0
2023-08-10 11:44:10.475936,-239.0
2023-08-10 11:44:10.483626,-246.0
2023-08-10 11:44:10.491315,-253.0
2023-08-10 11:44:10.499005,-275.0
2023-08-10 11:44:10.506695,-272.0
2023-08-10 11:44:10.514385,-241.0
2023-08-10 11:44:10.522074,-208.0
2023-08-10 11:44:10.529764,-157.0
2023-08-10 11:44:10.537454,-93.0
2023-08-10 11:44:10.545143,-33.0
2023-08-10 11:44:10.552833,4.0
2023-08-10 11:44:10.560523,26.0
2023-08-10 11:44:10.568213,47.0
2023-08-10 11:44:10.575902,62.0
2023-08-10 11:44:10.583592,59.0
2023-08-10 11:44:10.591282,64.0
2023-08-10 11:44:10.598971,69.0
2023-08-10 11:44:10.606661,66.0
2023-08-10 11:44:10.614351,64.0
2023-08-10 11:44:10.622041,57.0
2023-08-10 11:44:10.629730,45.0
2023-08-10 11:44:10.637420,45.0
2023-08-10 11:44:10.645110,50.0
2023-08-10 11:44:10.652799,40.0
2023-08-10 11:44:10.660489,31.0
2023-08-10 11:44:10.668179,33.0
2023-08-10 11:44:10.675869,35.0
2023-08-10 11:44:10.683558,33.0
2023-08-10 11:44:10.691248,31.0
2023-08-10 11:44:10.698938,23.0
2023-08-10 11:44:10.706627,19.0
2023-08-10 11:44:10.714317,16.0
2023-08-10 11:44:10.722007,14.0
2023-08-10 11:44:10.729696,11.0
2023-08-10 11:44:10.737386,19.0
2023-08-10 11:44:10.745076,26.0
2023-08-10 11:44:10.752766,16.0
2023-08-10 11:44:10.760455,2.0
2023-08-10 11:44:10.768145,2.0
2023-08-10 11:44:10.775835,11.0
2023-08-10 11:44:10.783524,9.0
2023-08-10 11:44:10.791214,0.0
2023-08-10 11:44:10.798904,0.0
2023-08-10 11:44:10.806594,0.0
2023-08-10 11:44:10.814283,-4.0
2023-08-10 11:44:10.821973,-4.0
2023-08-10 11:44:10.829663,-4.0
2023-08-10 11:44:10.837352,-11.0
2023-08-10 11:44:10.845042,-4.0
2023-08-10 11:44:10.852732,9.0
2023-08-10 11:44:10.860422,4.0
2023-08-10 11:44:10.868111,-7.0
2023-08-10 11:44:10.875801,-7.0
2023-08-10 11:44:10.883491,-9.0
2023-08-10 11:44:10.891180,-11.0
2023-08-10 11:44:10.898870,-14.0
2023-08-10 11:44:10.906560,-19.0
2023-08-10 11:44:10.914250,-26.0
2023-08-10 11:44:10.921939,-16.0
2023-08-10 11:44:10.929629,-2.0
2023-08-10 11:44:10.937319,-9.0
2023-08-10 11:44:10.945008,-23.0
2023-08-10 11:44:10.952698,-16.0
2023-08-10 11:44:10.960388,-7.0
2023-08-10 11:44:10.968078,-19.0
2023-08-10 11:44:10.975767,-31.0
2023-08-10 11:44:10.983457,-31.0
2023-08-10 11:44:10.991147,-31.0
2023-08-10 11:44:10.998836,-26.0
2023-08-10 11:44:11.006526,-21.0
2023-08-10 11:44:11.014216,-19.0
2023-08-10 11:44:11.021906,-23.0
2023-08-10 11:44:11.029595,-26.0
2023-08-10 11:44:11.037285,-28.0
2023-08-10 11:44:11.044975,-31.0
2023-08-10 11:44:11.052664,-45.0
2023-08-10 11:44:11.060354,-55.0
2023-08-10 11:44:11.068044,-55.0
2023-08-10 11:44:11.075734,-64.0
2023-08-10 11:44:11.083423,-76.0
2023-08-10 11:44:11.091113,-66.0
2023-08-10 11:44:11.098803,-59.0
2023-08-10 11:44:11.106492,-62.0
2023-08-10 11:44:11.114182,-55.0
2023-08-10 11:44:11.121872,-43.0
2023-08-10 11:44:11.129562,-40.0
2023-08-10 11:44:11.137251,-35.0
2023-08-10 11:44:11.144941,-33.0
2023-08-10 11:44:11.152631,-40.0
2023-08-10 11:44:11.160320,-47.0
2023-08-10 11:44:11.168010,-43.0
2023-08-10 11:44:11.175700,-43.0
2023-08-10 11:44:11.183390,-45.0
2023-08-10 11:44:11.191079,-38.0
2023-08-10 11:44:11.198769,-86.0
2023-08-10 11:44:11.206459,-260.0
2023-08-10 11:44:11.214148,-502.0
2023-08-10 11:44:11.221838,-681.0
2023-08-10 11:44:11.229528,-696.0
2023-08-10 11:44:11.237218,-421.0
2023-08-10 11:44:11.244907,-23.0
2023-08-10 11:44:11.252597,105.0
2023-08-10 11:44:11.260287,-19.0
2023-08-10 11:44:11.267976,-69.0
2023-08-10 11:44:11.275666,-16.0
2023-08-10 11:44:11.283356,-7.0
2023-08-10 11:44:11.291046,-31.0
2023-08-10 11:44:11.298735,-35.0
2023-08-10 11:44:11.306425,-45.0
2023-08-10 11:44:11.314115,-45.0
2023-08-10 11:44:11.321804,-28.0
2023-08-10 11:44:11.329494,-35.0
2023-08-10 11:44:11.337184,-66.0
2023-08-10 11:44:11.344874,-74.0
2023-08-10 11:44:11.352563,-66.0
2023-08-10 11:44:11.360253,-71.0
2023-08-10 11:44:11.367943,-86.0
2023-08-10 11:44:11.375632,-88.0
2023-08-10 11:44:11.383322,-86.0
2023-08-10 11:44:11.391012,-105.0
2023-08-10 11:44:11.398701,-117.0
2023-08-10 11:44:11.406391,-117.0
2023-08-10 11:44:11.414081,-124.0
2023-08-10 11:44:11.421771,-145.0
2023-08-10 11:44:11.429460,-167.0
2023-08-10 11:44:11.437150,-184.0
2023-08-10 11:44:11.444840,-193.0
2023-08-10 11:44:11.452529,-205.0
2023-08-10 11:44:11.460219,-224.0
2023-08-10 11:44:11.467909,-246.0
2023-08-10 11:44:11.475599,-263.0
2023-08-10 11:44:11.483288,-272.0
2023-08-10 11:44:11.490978,-275.0
2023-08-10 11:44:11.498668,-272.0
2023-08-10 11:44:11.506357,-248.0
2023-08-10 11:44:11.514047,-189.0
2023-08-10 11:44:11.521737,-122.0
2023-08-10 11:44:11.529427,-71.0
2023-08-10 11:44:11.537116,-21.0
2023-08-10 11:44:11.544806,28.0
2023-08-10 11:44:11.552496,50.0
2023-08-10 11:44:11.560185,52.0
2023-08-10 11:44:11.567875,59.0
2023-08-10 11:44:11.575565,71.0
2023-08-10 11:44:11.583255,76.0
2023-08-10 11:44:11.590944,59.0
2023-08-10 11:44:11.598634,50.0
2023-08-10 11:44:11.606324,59.0
2023-08-10 11:44:11.614013,57.0
2023-08-10 11:44:11.621703,43.0
2023-08-10 11:44:11.629393,40.0
2023-08-10 11:44:11.637083,50.0
2023-08-10 11:44:11.644772,47.0
2023-08-10 11:44:11.652462,33.0
2023-08-10 11:44:11.660152,23.0
2023-08-10 11:44:11.667841,26.0
2023-08-10 11:44:11.675531,31.0
2023-08-10 11:44:11.683221,31.0
2023-08-10 11:44:11.690911,23.0
2023-08-10 11:44:11.698600,9.0
2023-08-10 11:44:11.706290,9.0
2023-08-10 11:44:11.713980,21.0
2023-08-10 11:44:11.721669,23.0
2023-08-10 11:44:11.729359,11.0
2023-08-10 11:44:11.737049,14.0
2023-08-10 11:44:11.744739,14.0
2023-08-10 11:44:11.752428,7.0
2023-08-10 11:44:11.760118,2.0
2023-08-10 11:44:11.767808,7.0
2023-08-10 11:44:11.775497,9.0
2023-08-10 11:44:11.783187,4.0
2023-08-10 11:44:11.790877,2.0
2023-08-10 11:44:11.798567,4.0
2023-08-10 11:44:11.806256,7.0
2023-08-10 11:44:11.813946,2.0
2023-08-10 11:44:11.821636,-7.0
2023-08-10 11:44:11.829325,-4.0
2023-08-10 11:44:11.837015,2.0
2023-08-10 11:44:11.844705,0.0
2023-08-10 11:44:11.852395,-4.0
2023-08-10 11:44:11.860084,-9.0
2023-08-10 11:44:11.867774,-9.0
2023-08-10 11:44:11.875464,-2.0
2023-08-10 11:44:11.883153,-2.0
2023-08-10 11:44:11.890843,-7.0
2023-08-10 11:44:11.898533,-9.0
2023-08-10 11:44:11.906223,-11.0
2023-08-10 11:44:11.913912,-7.0
2023-08-10 11:44:11.921602,-7.0
2023-08-10 11:44:11.929292,-11.0
2023-08-10 11:44:11.936981,-16.0
2023-08-10 11:44:11.944671,-28.0
2023-08-10 11:44:11.952361,-40.0
2023-08-10 11:44:11.960051,-40.0
2023-08-10 11:44:11.967740,-31.0
2023-08-10 11:44:11.975430,-28.0
2023-08-10 11:44:11.983120,-33.0
2023-08-10 11:44:11.990809,-33.0
2023-08-10 11:44:11.998499,-19.0
2023-08-10 11:44:12.006189,-7.0
2023-08-10 11:44:12.013879,-4.0
2023-08-10 11:44:12.021568,-4.0
2023-08-10 11:44:12.029258,-9.0
2023-08-10 11:44:12.036948,-21.0
2023-08-10 11:44:12.044637,-14.0
2023-08-10 11:44:12.052327,-4.0
2023-08-10 11:44:12.060017,-14.0
2023-08-10 11:44:12.067707,-21.0
2023-08-10 11:44:12.075396,-71.0
2023-08-10 11:44:12.083086,-256.0
2023-08-10 11:44:12.090776,-507.0
2023-08-10 11:44:12.098465,-681.0
2023-08-10 11:44:12.106155,-645.0
2023-08-10 11:44:12.113845,-322.0
2023-08-10 11:44:12.121534,50.0
2023-08-10 11:44:12.129224,122.0
2023-08-10 11:44:12.136914,-2.0
2023-08-10 11:44:12.144604,-28.0
2023-08-10 11:44:12.152293,16.0
2023-08-10 11:44:12.159983,-4.0
2023-08-10 11:44:12.167673,-23.0
2023-08-10 11:44:12.175362,0.0
2023-08-10 11:44:12.183052,-4.0
2023-08-10 11:44:12.190742,-31.0
2023-08-10 11:44:12.198432,-26.0
2023-08-10 11:44:12.206121,-21.0
2023-08-10 11:44:12.213811,-40.0
2023-08-10 11:44:12.221501,-55.0
2023-08-10 11:44:12.229190,-57.0
2023-08-10 11:44:12.236880,-64.0
2023-08-10 11:44:12.244570,-81.0
2023-08-10 11:44:12.252260,-88.0
2023-08-10 11:44:12.259949,-88.0
2023-08-10 11:44:12.267639,-98.0
2023-08-10 11:44:12.275329,-119.0
2023-08-10 11:44:12.283018,-129.0
2023-08-10 11:44:12.290708,-136.0
2023-08-10 11:44:12.298398,-150.0
2023-08-10 11:44:12.306088,-162.0
2023-08-10 11:44:12.313777,-181.0
2023-08-10 11:44:12.321467,-212.0
2023-08-10 11:44:12.329157,-234.0
2023-08-10 11:44:12.336846,-244.0
2023-08-10 11:44:12.344536,-251.0
2023-08-10 11:44:12.352226,-265.0
2023-08-10 11:44:12.359916,-275.0
2023-08-10 11:44:12.367605,-272.0
2023-08-10 11:44:12.375295,-258.0
2023-08-10 11:44:12.382985,-222.0
2023-08-10 11:44:12.390674,-160.0
2023-08-10 11:44:12.398364,-100.0
2023-08-10 11:44:12.406054,-52.0
2023-08-10 11:44:12.413744,-7.0
2023-08-10 11:44:12.421433,31.0
2023-08-10 11:44:12.429123,50.0
2023-08-10 11:44:12.436813,57.0
2023-08-10 11:44:12.444502,57.0
2023-08-10 11:44:12.452192,57.0
2023-08-10 11:44:12.459882,52.0
2023-08-10 11:44:12.467572,47.0
2023-08-10 11:44:12.475261,50.0
2023-08-10 11:44:12.482951,47.0
2023-08-10 11:44:12.490641,40.0
2023-08-10 11:44:12.498330,40.0
2023-08-10 11:44:12.506020,38.0
2023-08-10 11:44:12.513710,33.0
2023-08-10 11:44:12.521400,35.0
2023-08-10 11:44:12.529089,40.0
2023-08-10 11:44:12.536779,35.0
2023-08-10 11:44:12.544469,26.0
2023-08-10 11:44:12.552158,21.0
2023-08-10 11:44:12.559848,23.0
2023-08-10 11:44:12.567538,23.0
2023-08-10 11:44:12.575228,21.0
2023-08-10 11:44:12.582917,14.0
2023-08-10 11:44:12.590607,11.0
2023-08-10 11:44:12.598297,14.0
2023-08-10 11:44:12.605986,19.0
2023-08-10 11:44:12.613676,21.0
2023-08-10 11:44:12.621366,16.0
2023-08-10 11:44:12.629056,11.0
2023-08-10 11:44:12.636745,4.0
2023-08-10 11:44:12.644435,7.0
2023-08-10 11:44:12.652125,11.0
2023-08-10 11:44:12.659814,9.0
2023-08-10 11:44:12.667504,2.0
2023-08-10 11:44:12.675194,-7.0
2023-08-10 11:44:12.682884,-7.0
2023-08-10 11:44:12.690573,-2.0
2023-08-10 11:44:12.698263,-7.0
2023-08-10 11:44:12.705953,-11.0
2023-08-10 11:44:12.713642,-14.0
2023-08-10 11:44:12.721332,-14.0
2023-08-10 11:44:12.729022,-19.0
2023-08-10 11:44:12.736712,-28.0
2023-08-10 11:44:12.744401,-31.0
2023-08-10 11:44:12.752091,-26.0
2023-08-10 11:44:12.759781,-26.0
2023-08-10 11:44:12.767470,-35.0
2023-08-10 11:44:12.775160,-38.0
2023-08-10 11:44:12.782850,-28.0
2023-08-10 11:44:12.790539,-26.0
2023-08-10 11:44:12.798229,-31.0
2023-08-10 11:44:12.805919,-31.0
2023-08-10 11:44:12.813609,-33.0
2023-08-10 11:44:12.821298,-35.0
2023-08-10 11:44:12.828988,-38.0
2023-08-10 11:44:12.836678,-38.0
2023-08-10 11:44:12.844367,-23.0
2023-08-10 11:44:12.852057,-23.0
2023-08-10 11:44:12.859747,-33.0
2023-08-10 11:44:12.867437,-31.0
2023-08-10 11:44:12.875126,-33.0
2023-08-10 11:44:12.882816,-43.0
2023-08-10 11:44:12.890506,-57.0
2023-08-10 11:44:12.898195,-64.0
2023-08-10 11:44:12.905885,-52.0
2023-08-10 11:44:12.913575,-45.0
2023-08-10 11:44:12.921265,-52.0
2023-08-10 11:44:12.928954,-50.0
2023-08-10 11:44:12.936644,-40.0
2023-08-10 11:44:12.944334,-33.0
2023-08-10 11:44:12.952023,-23.0
2023-08-10 11:44:12.959713,-14.0
2023-08-10 11:44:12.967403,-19.0
2023-08-10 11:44:12.975093,-21.0
2023-08-10 11:44:12.982782,-21.0
2023-08-10 11:44:12.990472,-26.0
2023-08-10 11:44:12.998162,-35.0
2023-08-10 11:44:13.005851,-33.0
2023-08-10 11:44:13.013541,-47.0
2023-08-10 11:44:13.021231,-172.0
2023-08-10 11:44:13.028921,-399.0
2023-08-10 11:44:13.036610,-602.0
2023-08-10 11:44:13.044300,-679.0
2023-08-10 11:44:13.051990,-480.0
2023-08-10 11:44:13.059679,-74.0
2023-08-10 11:44:13.067369,131.0
2023-08-10 11:44:13.075059,40.0
2023-08-10 11:44:13.082749,-35.0
2023-08-10 11:44:13.090438,9.0
2023-08-10 11:44:13.098128,23.0
2023-08-10 11:44:13.105818,7.0
2023-08-10 11:44:13.113507,19.0
2023-08-10 11:44:13.121197,11.0
2023-08-10 11:44:13.128887,-9.0
2023-08-10 11:44:13.136577,-4.0
2023-08-10 11:44:13.144266,-2.0
2023-08-10 11:44:13.151956,-16.0
2023-08-10 11:44:13.159646,-23.0
2023-08-10 11:44:13.167335,-26.0
2023-08-10 11:44:13.175025,-45.0
2023-08-10 11:44:13.182715,-59.0
2023-08-10 11:44:13.190405,-57.0
2023-08-10 11:44:13.198094,-66.0
2023-08-10 11:44:13.205784,-83.0
2023-08-10 11:44:13.213474,-90.0
2023-08-10 11:44:13.221163,-102.0
2023-08-10 11:44:13.228853,-126.0
2023-08-10 11:44:13.236543,-138.0
2023-08-10 11:44:13.244233,-148.0
2023-08-10 11:44:13.251922,-167.0
2023-08-10 11:44:13.259612,-196.0
2023-08-10 11:44:13.267302,-220.0
2023-08-10 11:44:13.274991,-234.0
2023-08-10 11:44:13.282681,-246.0
2023-08-10 11:44:13.290371,-263.0
2023-08-10 11:44:13.298061,-279.0
2023-08-10 11:44:13.305750,-284.0
2023-08-10 11:44:13.313440,-277.0
2023-08-10 11:44:13.321130,-251.0
2023-08-10 11:44:13.328819,-200.0
2023-08-10 11:44:13.336509,-143.0
2023-08-10 11:44:13.344199,-83.0
2023-08-10 11:44:13.351889,-35.0
2023-08-10 11:44:13.359578,0.0
2023-08-10 11:44:13.367268,23.0
2023-08-10 11:44:13.374958,35.0
2023-08-10 11:44:13.382647,43.0
2023-08-10 11:44:13.390337,50.0
2023-08-10 11:44:13.398027,55.0
2023-08-10 11:44:13.405717,55.0
2023-08-10 11:44:13.413406,50.0
2023-08-10 11:44:13.421096,43.0
2023-08-10 11:44:13.428786,40.0
2023-08-10 11:44:13.436475,38.0
2023-08-10 11:44:13.444165,33.0
2023-08-10 11:44:13.451855,33.0
2023-08-10 11:44:13.459545,33.0
2023-08-10 11:44:13.467234,28.0
2023-08-10 11:44:13.474924,21.0
2023-08-10 11:44:13.482614,14.0
2023-08-10 11:44:13.490303,16.0
2023-08-10 11:44:13.497993,16.0
2023-08-10 11:44:13.505683,9.0
2023-08-10 11:44:13.513372,7.0
2023-08-10 11:44:13.521062,7.0
2023-08-10 11:44:13.528752,4.0
2023-08-10 11:44:13.536442,4.0
2023-08-10 11:44:13.544131,2.0
2023-08-10 11:44:13.551821,0.0
2023-08-10 11:44:13.559511,0.0
2023-08-10 11:44:13.567200,0.0
2023-08-10 11:44:13.574890,-4.0
2023-08-10 11:44:13.582580,-7.0
2023-08-10 11:44:13.590270,-4.0
2023-08-10 11:44:13.597959,-4.0
2023-08-10 11:44:13.605649,-4.0
2023-08-10 11:44:13.613339,-2.0
2023-08-10 11:44:13.621028,-4.0
2023-08-10 11:44:13.628718,-11.0
2023-08-10 11:44:13.636408,-11.0
2023-08-10 11:44:13.644098,-14.0
2023-08-10 11:44:13.651787,-19.0
2023-08-10 11:44:13.659477,-14.0
2023-08-10 11:44:13.667167,-11.0
2023-08-10 11:44:13.674856,-21.0
2023-08-10 11:44:13.682546,-26.0
2023-08-10 11:44:13.690236,-23.0
2023-08-10 11:44:13.697926,-26.0
2023-08-10 11:44:13.705615,-26.0
2023-08-10 11:44:13.713305,-26.0
2023-08-10 11:44:13.720995,-33.0
2023-08-10 11:44:13.728684,-38.0
2023-08-10 11:44:13.736374,-38.0
2023-08-10 11:44:13.744064,-38.0
2023-08-10 11:44:13.751754,-38.0
2023-08-10 11:44:13.759443,-35.0
2023-08-10 11:44:13.767133,-40.0
2023-08-10 11:44:13.774823,-45.0
2023-08-10 11:44:13.782512,-43.0
2023-08-10 11:44:13.790202,-38.0
2023-08-10 11:44:13.797892,-35.0
2023-08-10 11:44:13.805582,-35.0
2023-08-10 11:44:13.813271,-38.0
2023-08-10 11:44:13.820961,-38.0
2023-08-10 11:44:13.828651,-38.0
2023-08-10 11:44:13.836340,-43.0
2023-08-10 11:44:13.844030,-52.0
2023-08-10 11:44:13.851720,-59.0
2023-08-10 11:44:13.859410,-59.0
2023-08-10 11:44:13.867099,-64.0
2023-08-10 11:44:13.874789,-78.0
2023-08-10 11:44:13.882479,-81.0
2023-08-10 11:44:13.890168,-76.0
2023-08-10 11:44:13.897858,-81.0
2023-08-10 11:44:13.905548,-81.0
2023-08-10 11:44:13.913238,-69.0
2023-08-10 11:44:13.920927,-64.0
2023-08-10 11:44:13.928617,-55.0
2023-08-10 11:44:13.936307,-47.0
2023-08-10 11:44:13.943996,-47.0
2023-08-10 11:44:13.951686,-45.0
2023-08-10 11:44:13.959376,-40.0
2023-08-10 11:44:13.967066,-43.0
2023-08-10 11:44:13.974755,-52.0
2023-08-10 11:44:13.982445,-52.0
2023-08-10 11:44:13.990135,-52.0
2023-08-10 11:44:13.997824,-133.0
2023-08-10 11:44:14.005514,-346.0
2023-08-10 11:44:14.013204,-581.0
2023-08-10 11:44:14.020894,-717.0
2023-08-10 11:44:14.028583,-631.0
2023-08-10 11:44:14.036273,-258.0
2023-08-10 11:44:14.043963,88.0
2023-08-10 11:44:14.051652,100.0
2023-08-10 11:44:14.059342,-26.0
2023-08-10 11:44:14.067032,-26.0
2023-08-10 11:44:14.074722,19.0
2023-08-10 11:44:14.082411,2.0
2023-08-10 11:44:14.090101,-7.0
2023-08-10 11:44:14.097791,2.0
2023-08-10 11:44:14.105480,-4.0
2023-08-10 11:44:14.113170,-9.0
2023-08-10 11:44:14.120860,-9.0
2023-08-10 11:44:14.128550,-21.0
2023-08-10 11:44:14.136239,-31.0
2023-08-10 11:44:14.143929,-35.0
2023-08-10 11:44:14.151619,-40.0
2023-08-10 11:44:14.159308,-50.0
2023-08-10 11:44:14.166998,-57.0
2023-08-10 11:44:14.174688,-66.0
2023-08-10 11:44:14.182377,-78.0
2023-08-10 11:44:14.190067,-90.0
2023-08-10 11:44:14.197757,-105.0
2023-08-10 11:44:14.205447,-126.0
2023-08-10 11:44:14.213136,-143.0
2023-08-10 11:44:14.220826,-148.0
2023-08-10 11:44:14.228516,-160.0
2023-08-10 11:44:14.236205,-184.0
2023-08-10 11:44:14.243895,-203.0
2023-08-10 11:44:14.251585,-217.0
2023-08-10 11:44:14.259275,-234.0
2023-08-10 11:44:14.266964,-256.0
2023-08-10 11:44:14.274654,-270.0
2023-08-10 11:44:14.282344,-277.0
2023-08-10 11:44:14.290033,-279.0
2023-08-10 11:44:14.297723,-265.0
2023-08-10 11:44:14.305413,-232.0
2023-08-10 11:44:14.313103,-169.0
2023-08-10 11:44:14.320792,-98.0
2023-08-10 11:44:14.328482,-40.0
2023-08-10 11:44:14.336172,0.0
2023-08-10 11:44:14.343861,28.0
2023-08-10 11:44:14.351551,50.0
2023-08-10 11:44:14.359241,64.0
2023-08-10 11:44:14.366931,71.0
2023-08-10 11:44:14.374620,71.0
2023-08-10 11:44:14.382310,66.0
2023-08-10 11:44:14.390000,64.0
2023-08-10 11:44:14.397689,62.0
2023-08-10 11:44:14.405379,59.0
2023-08-10 11:44:14.413069,55.0
2023-08-10 11:44:14.420759,52.0
2023-08-10 11:44:14.428448,47.0
2023-08-10 11:44:14.436138,38.0
2023-08-10 11:44:14.443828,33.0
2023-08-10 11:44:14.451517,33.0
2023-08-10 11:44:14.459207,28.0
2023-08-10 11:44:14.466897,23.0
2023-08-10 11:44:14.474587,19.0
2023-08-10 11:44:14.482276,14.0
2023-08-10 11:44:14.489966,11.0
2023-08-10 11:44:14.497656,14.0
2023-08-10 11:44:14.505345,16.0
2023-08-10 11:44:14.513035,14.0
2023-08-10 11:44:14.520725,9.0
2023-08-10 11:44:14.528415,7.0
2023-08-10 11:44:14.536104,4.0
2023-08-10 11:44:14.543794,11.0
2023-08-10 11:44:14.551484,11.0
2023-08-10 11:44:14.559173,4.0
2023-08-10 11:44:14.566863,7.0
2023-08-10 11:44:14.574553,9.0
2023-08-10 11:44:14.582243,9.0
2023-08-10 11:44:14.589932,9.0
2023-08-10 11:44:14.597622,7.0
2023-08-10 11:44:14.605312,2.0
2023-08-10 11:44:14.613001,2.0
2023-08-10 11:44:14.620691,2.0
2023-08-10 11:44:14.628381,0.0
2023-08-10 11:44:14.636071,0.0
2023-08-10 11:44:14.643760,2.0
2023-08-10 11:44:14.651450,2.0
2023-08-10 11:44:14.659140,-2.0
2023-08-10 11:44:14.666829,-2.0
2023-08-10 11:44:14.674519,0.0
2023-08-10 11:44:14.682209,-2.0
2023-08-10 11:44:14.689899,-9.0
2023-08-10 11:44:14.697588,-9.0
2023-08-10 11:44:14.705278,-9.0
2023-08-10 11:44:14.712968,-14.0
2023-08-10 11:44:14.720657,-19.0
2023-08-10 11:44:14.728347,-14.0
2023-08-10 11:44:14.736037,-14.0
2023-08-10 11:44:14.743727,-19.0
2023-08-10 11:44:14.751416,-19.0
2023-08-10 11:44:14.759106,-16.0
2023-08-10 11:44:14.766796,-19.0
2023-08-10 11:44:14.774485,-21.0
2023-08-10 11:44:14.782175,-33.0
2023-08-10 11:44:14.789865,-45.0
2023-08-10 11:44:14.797555,-47.0
2023-08-10 11:44:14.805244,-47.0
2023-08-10 11:44:14.812934,-45.0
2023-08-10 11:44:14.820624,-40.0
2023-08-10 11:44:14.828313,-28.0
2023-08-10 11:44:14.836003,-14.0
2023-08-10 11:44:14.843693,-14.0
2023-08-10 11:44:14.851383,-16.0
2023-08-10 11:44:14.859072,-14.0
2023-08-10 11:44:14.866762,-16.0
2023-08-10 11:44:14.874452,-23.0
2023-08-10 11:44:14.882141,-21.0
2023-08-10 11:44:14.889831,-19.0
2023-08-10 11:44:14.897521,-21.0
2023-08-10 11:44:14.905210,-47.0
2023-08-10 11:44:14.912900,-179.0
2023-08-10 11:44:14.920590,-425.0
2023-08-10 11:44:14.928280,-648.0
2023-08-10 11:44:14.935969,-717.0
2023-08-10 11:44:14.943659,-495.0
2023-08-10 11:44:14.951349,-66.0
2023-08-10 11:44:14.959038,138.0
2023-08-10 11:44:14.966728,31.0
2023-08-10 11:44:14.974418,-47.0
2023-08-10 11:44:14.982108,7.0
2023-08-10 11:44:14.989797,23.0
2023-08-10 11:44:14.997487,-2.0
2023-08-10 11:44:15.005177,4.0
2023-08-10 11:44:15.012866,7.0
2023-08-10 11:44:15.020556,-9.0
2023-08-10 11:44:15.028246,-9.0
2023-08-10 11:44:15.035936,-9.0
2023-08-10 11:44:15.043625,-21.0
2023-08-10 11:44:15.051315,-26.0
2023-08-10 11:44:15.059005,-28.0
2023-08-10 11:44:15.066694,-35.0
2023-08-10 11:44:15.074384,-47.0
2023-08-10 11:44:15.082074,-59.0
2023-08-10 11:44:15.089764,-64.0
2023-08-10 11:44:15.097453,-66.0
2023-08-10 11:44:15.105143,-76.0
2023-08-10 11:44:15.112833,-88.0
2023-08-10 11:44:15.120522,-102.0
2023-08-10 11:44:15.128212,-122.0
2023-08-10 11:44:15.135902,-138.0
2023-08-10 11:44:15.143592,-153.0
2023-08-10 11:44:15.151281,-169.0
2023-08-10 11:44:15.158971,-198.0
2023-08-10 11:44:15.166661,-220.0
2023-08-10 11:44:15.174350,-232.0
2023-08-10 11:44:15.182040,-244.0
2023-08-10 11:44:15.189730,-263.0
2023-08-10 11:44:15.197420,-275.0
2023-08-10 11:44:15.205109,-265.0
2023-08-10 11:44:15.212799,-236.0
2023-08-10 11:44:15.220489,-186.0
2023-08-10 11:44:15.228178,-126.0
2023-08-10 11:44:15.235868,-66.0
2023-08-10 11:44:15.243558,-19.0
2023-08-10 11:44:15.251248,14.0
2023-08-10 11:44:15.258937,35.0
2023-08-10 11:44:15.266627,50.0
2023-08-10 11:44:15.274317,52.0
2023-08-10 11:44:15.282006,52.0
2023-08-10 11:44:15.289696,57.0
2023-08-10 11:44:15.297386,55.0
2023-08-10 11:44:15.305076,52.0
2023-08-10 11:44:15.312765,50.0
2023-08-10 11:44:15.320455,43.0
2023-08-10 11:44:15.328145,35.0
2023-08-10 11:44:15.335834,33.0
2023-08-10 11:44:15.343524,33.0
2023-08-10 11:44:15.351214,33.0
2023-08-10 11:44:15.358904,26.0
2023-08-10 11:44:15.366593,21.0
2023-08-10 11:44:15.374283,21.0
2023-08-10 11:44:15.381973,21.0
2023-08-10 11:44:15.389662,16.0
2023-08-10 11:44:15.397352,14.0
2023-08-10 11:44:15.405042,14.0
2023-08-10 11:44:15.412732,14.0
2023-08-10 11:44:15.420421,11.0
2023-08-10 11:44:15.428111,11.0
2023-08-10 11:44:15.435801,9.0
2023-08-10 11:44:15.443490,7.0
2023-08-10 11:44:15.451180,4.0
2023-08-10 11:44:15.458870,2.0
2023-08-10 11:44:15.466560,0.0
2023-08-10 11:44:15.474249,-2.0
2023-08-10 11:44:15.481939,-2.0
2023-08-10 11:44:15.489629,-2.0
2023-08-10 11:44:15.497318,-2.0
2023-08-10 11:44:15.505008,-7.0
2023-08-10 11:44:15.512698,-14.0
2023-08-10 11:44:15.520388,-19.0
2023-08-10 11:44:15.528077,-16.0
2023-08-10 11:44:15.535767,-16.0
2023-08-10 11:44:15.543457,-16.0
2023-08-10 11:44:15.551146,-16.0
2023-08-10 11:44:15.558836,-19.0
2023-08-10 11:44:15.566526,-19.0
2023-08-10 11:44:15.574215,-19.0
2023-08-10 11:44:15.581905,-19.0
2023-08-10 11:44:15.589595,-21.0
2023-08-10 11:44:15.597285,-19.0
2023-08-10 11:44:15.604974,-19.0
2023-08-10 11:44:15.612664,-21.0
2023-08-10 11:44:15.620354,-21.0
2023-08-10 11:44:15.628043,-21.0
2023-08-10 11:44:15.635733,-23.0
2023-08-10 11:44:15.643423,-26.0
2023-08-10 11:44:15.651113,-26.0
2023-08-10 11:44:15.658802,-23.0
2023-08-10 11:44:15.666492,-19.0
2023-08-10 11:44:15.674182,-19.0
2023-08-10 11:44:15.681871,-23.0
2023-08-10 11:44:15.689561,-31.0
2023-08-10 11:44:15.697251,-43.0
2023-08-10 11:44:15.704941,-62.0
2023-08-10 11:44:15.712630,-69.0
2023-08-10 11:44:15.720320,-64.0
2023-08-10 11:44:15.728010,-57.0
2023-08-10 11:44:15.735699,-45.0
2023-08-10 11:44:15.743389,-31.0
2023-08-10 11:44:15.751079,-28.0
2023-08-10 11:44:15.758769,-31.0
2023-08-10 11:44:15.766458,-28.0
2023-08-10 11:44:15.774148,-31.0
2023-08-10 11:44:15.781838,-35.0
2023-08-10 11:44:15.789527,-35.0
2023-08-10 11:44:15.797217,-35.0
2023-08-10 11:44:15.804907,-33.0
2023-08-10 11:44:15.812597,-55.0
2023-08-10 11:44:15.820286,-179.0
2023-08-10 11:44:15.827976,-401.0
2023-08-10 11:44:15.835666,-607.0
2023-08-10 11:44:15.843355,-691.0
2023-08-10 11:44:15.851045,-507.0
2023-08-10 11:44:15.858735,-100.0
2023-08-10 11:44:15.866425,124.0
2023-08-10 11:44:15.874114,33.0
2023-08-10 11:44:15.881804,-45.0
2023-08-10 11:44:15.889494,9.0
2023-08-10 11:44:15.897183,28.0
2023-08-10 11:44:15.904873,2.0
2023-08-10 11:44:15.912563,4.0
2023-08-10 11:44:15.920253,11.0
2023-08-10 11:44:15.927942,0.0
2023-08-10 11:44:15.935632,-7.0
2023-08-10 11:44:15.943322,-11.0
2023-08-10 11:44:15.951011,-21.0
2023-08-10 11:44:15.958701,-28.0
2023-08-10 11:44:15.966391,-33.0
2023-08-10 11:44:15.974081,-38.0
2023-08-10 11:44:15.981770,-45.0
2023-08-10 11:44:15.989460,-52.0
2023-08-10 11:44:15.997150,-59.0
2023-08-10 11:44:16.004839,-71.0
2023-08-10 11:44:16.012529,-83.0
2023-08-10 11:44:16.020219,-93.0
2023-08-10 11:44:16.027909,-105.0
2023-08-10 11:44:16.035598,-119.0
2023-08-10 11:44:16.043288,-136.0
2023-08-10 11:44:16.050978,-157.0
2023-08-10 11:44:16.058667,-179.0
2023-08-10 11:44:16.066357,-200.0
2023-08-10 11:44:16.074047,-217.0
2023-08-10 11:44:16.081737,-234.0
2023-08-10 11:44:16.089426,-256.0
2023-08-10 11:44:16.097116,-277.0
2023-08-10 11:44:16.104806,-284.0
2023-08-10 11:44:16.112495,-270.0
2023-08-10 11:44:16.120185,-241.0
2023-08-10 11:44:16.127875,-193.0
2023-08-10 11:44:16.135565,-131.0
2023-08-10 11:44:16.143254,-76.0
2023-08-10 11:44:16.150944,-31.0
2023-08-10 11:44:16.158634,4.0
2023-08-10 11:44:16.166323,28.0
2023-08-10 11:44:16.174013,40.0
2023-08-10 11:44:16.181703,43.0
2023-08-10 11:44:16.189393,43.0
2023-08-10 11:44:16.197082,45.0
2023-08-10 11:44:16.204772,40.0
2023-08-10 11:44:16.212462,33.0
2023-08-10 11:44:16.220151,31.0
2023-08-10 11:44:16.227841,26.0
2023-08-10 11:44:16.235531,19.0
2023-08-10 11:44:16.243221,16.0
2023-08-10 11:44:16.250910,19.0
2023-08-10 11:44:16.258600,16.0
2023-08-10 11:44:16.266290,16.0
2023-08-10 11:44:16.273979,16.0
2023-08-10 11:44:16.281669,9.0
2023-08-10 11:44:16.289359,4.0
2023-08-10 11:44:16.297048,4.0
2023-08-10 11:44:16.304738,2.0
2023-08-10 11:44:16.312428,2.0
2023-08-10 11:44:16.320118,2.0
2023-08-10 11:44:16.327807,0.0
2023-08-10 11:44:16.335497,-4.0
2023-08-10 11:44:16.343187,-2.0
2023-08-10 11:44:16.350876,-2.0
2023-08-10 11:44:16.358566,-4.0
2023-08-10 11:44:16.366256,-7.0
2023-08-10 11:44:16.373946,-9.0
2023-08-10 11:44:16.381635,-9.0
2023-08-10 11:44:16.389325,-9.0
2023-08-10 11:44:16.397015,-9.0
2023-08-10 11:44:16.404704,-9.0
2023-08-10 11:44:16.412394,-9.0
2023-08-10 11:44:16.420084,-14.0
2023-08-10 11:44:16.427774,-19.0
2023-08-10 11:44:16.435463,-16.0
2023-08-10 11:44:16.443153,-14.0
2023-08-10 11:44:16.450843,-14.0
2023-08-10 11:44:16.458532,-19.0
2023-08-10 11:44:16.466222,-19.0
2023-08-10 11:44:16.473912,-16.0
2023-08-10 11:44:16.481602,-19.0
2023-08-10 11:44:16.489291,-19.0
2023-08-10 11:44:16.496981,-19.0
2023-08-10 11:44:16.504671,-19.0
2023-08-10 11:44:16.512360,-23.0
2023-08-10 11:44:16.520050,-23.0
2023-08-10 11:44:16.527740,-21.0
2023-08-10 11:44:16.535430,-21.0
2023-08-10 11:44:16.543119,-23.0
2023-08-10 11:44:16.550809,-26.0
2023-08-10 11:44:16.558499,-23.0
2023-08-10 11:44:16.566188,-23.0
2023-08-10 11:44:16.573878,-21.0
2023-08-10 11:44:16.581568,-19.0
2023-08-10 11:44:16.589258,-23.0
2023-08-10 11:44:16.596947,-23.0
2023-08-10 11:44:16.604637,-31.0
2023-08-10 11:44:16.612327,-47.0
2023-08-10 11:44:16.620016,-59.0
2023-08-10 11:44:16.627706,-62.0
2023-08-10 11:44:16.635396,-59.0
2023-08-10 11:44:16.643086,-47.0
2023-08-10 11:44:16.650775,-35.0
2023-08-10 11:44:16.658465,-38.0
2023-08-10 11:44:16.666155,-35.0
2023-08-10 11:44:16.673844,-33.0
2023-08-10 11:44:16.681534,-38.0
2023-08-10 11:44:16.689224,-45.0
2023-08-10 11:44:16.696914,-45.0
2023-08-10 11:44:16.704603,-47.0
2023-08-10 11:44:16.712293,-50.0
2023-08-10 11:44:16.719983,-59.0
2023-08-10 11:44:16.727672,-150.0
2023-08-10 11:44:16.735362,-363.0
2023-08-10 11:44:16.743052,-593.0
2023-08-10 11:44:16.750742,-712.0
2023-08-10 11:44:16.758431,-588.0
2023-08-10 11:44:16.766121,-203.0
2023-08-10 11:44:16.773811,95.0
2023-08-10 11:44:16.781500,71.0
2023-08-10 11:44:16.789190,-35.0
2023-08-10 11:44:16.796880,-14.0
2023-08-10 11:44:16.804570,21.0
2023-08-10 11:44:16.812259,0.0
2023-08-10 11:44:16.819949,-4.0
2023-08-10 11:44:16.827639,4.0
2023-08-10 11:44:16.835328,-4.0
2023-08-10 11:44:16.843018,-11.0
2023-08-10 11:44:16.850708,-11.0
2023-08-10 11:44:16.858398,-19.0
2023-08-10 11:44:16.866087,-28.0
2023-08-10 11:44:16.873777,-31.0
2023-08-10 11:44:16.881467,-35.0
2023-08-10 11:44:16.889156,-40.0
2023-08-10 11:44:16.896846,-50.0
2023-08-10 11:44:16.904536,-57.0
2023-08-10 11:44:16.912226,-66.0
2023-08-10 11:44:16.919915,-78.0
2023-08-10 11:44:16.927605,-93.0
2023-08-10 11:44:16.935295,-105.0
2023-08-10 11:44:16.942984,-117.0
2023-08-10 11:44:16.950674,-133.0
2023-08-10 11:44:16.958364,-153.0
2023-08-10 11:44:16.966053,-169.0
2023-08-10 11:44:16.973743,-191.0
2023-08-10 11:44:16.981433,-212.0
2023-08-10 11:44:16.989123,-232.0
2023-08-10 11:44:16.996812,-248.0
2023-08-10 11:44:17.004502,-265.0
2023-08-10 11:44:17.012192,-275.0
2023-08-10 11:44:17.019881,-272.0
2023-08-10 11:44:17.027571,-248.0
2023-08-10 11:44:17.035261,-200.0
2023-08-10 11:44:17.042951,-138.0
2023-08-10 11:44:17.050640,-78.0
2023-08-10 11:44:17.058330,-28.0
2023-08-10 11:44:17.066020,9.0
2023-08-10 11:44:17.073709,33.0
2023-08-10 11:44:17.081399,47.0
2023-08-10 11:44:17.089089,55.0
2023-08-10 11:44:17.096779,57.0
2023-08-10 11:44:17.104468,57.0
2023-08-10 11:44:17.112158,52.0
2023-08-10 11:44:17.119848,52.0
2023-08-10 11:44:17.127537,52.0
2023-08-10 11:44:17.135227,45.0
2023-08-10 11:44:17.142917,40.0
2023-08-10 11:44:17.150607,38.0
2023-08-10 11:44:17.158296,35.0
2023-08-10 11:44:17.165986,31.0
2023-08-10 11:44:17.173676,26.0
2023-08-10 11:44:17.181365,19.0
2023-08-10 11:44:17.189055,19.0
2023-08-10 11:44:17.196745,16.0
2023-08-10 11:44:17.204435,14.0
2023-08-10 11:44:17.212124,9.0
2023-08-10 11:44:17.219814,4.0
2023-08-10 11:44:17.227504,0.0
2023-08-10 11:44:17.235193,2.0
2023-08-10 11:44:17.242883,2.0
2023-08-10 11:44:17.250573,0.0
2023-08-10 11:44:17.258263,-2.0
2023-08-10 11:44:17.265952,-9.0
2023-08-10 11:44:17.273642,-16.0
2023-08-10 11:44:17.281332,-16.0
2023-08-10 11:44:17.289021,-14.0
2023-08-10 11:44:17.296711,-14.0
2023-08-10 11:44:17.304401,-16.0
2023-08-10 11:44:17.312091,-14.0
2023-08-10 11:44:17.319780,-16.0
2023-08-10 11:44:17.327470,-16.0
2023-08-10 11:44:17.335160,-16.0
2023-08-10 11:44:17.342849,-19.0
2023-08-10 11:44:17.350539,-19.0
2023-08-10 11:44:17.358229,-19.0
2023-08-10 11:44:17.365919,-16.0
2023-08-10 11:44:17.373608,-19.0
2023-08-10 11:44:17.381298,-19.0
2023-08-10 11:44:17.388988,-19.0
2023-08-10 11:44:17.396677,-21.0
2023-08-10 11:44:17.404367,-21.0
2023-08-10 11:44:17.412057,-23.0
2023-08-10 11:44:17.419747,-26.0
2023-08-10 11:44:17.427436,-28.0
2023-08-10 11:44:17.435126,-28.0
2023-08-10 11:44:17.442816,-28.0
2023-08-10 11:44:17.450505,-28.0
2023-08-10 11:44:17.458195,-28.0
2023-08-10 11:44:17.465885,-26.0
2023-08-10 11:44:17.473575,-23.0
2023-08-10 11:44:17.481264,-21.0
2023-08-10 11:44:17.488954,-23.0
2023-08-10 11:44:17.496644,-23.0
2023-08-10 11:44:17.504333,-26.0
2023-08-10 11:44:17.512023,-38.0
2023-08-10 11:44:17.519713,-52.0
2023-08-10 11:44:17.527403,-62.0
2023-08-10 11:44:17.535092,-59.0
2023-08-10 11:44:17.542782,-45.0
2023-08-10 11:44:17.550472,-28.0
2023-08-10 11:44:17.558161,-23.0
2023-08-10 11:44:17.565851,-28.0
2023-08-10 11:44:17.573541,-26.0
2023-08-10 11:44:17.581231,-23.0
2023-08-10 11:44:17.588920,-26.0
2023-08-10 11:44:17.596610,-28.0
2023-08-10 11:44:17.604300,-31.0
2023-08-10 11:44:17.611989,-28.0
2023-08-10 11:44:17.619679,-31.0
2023-08-10 11:44:17.627369,-102.0
2023-08-10 11:44:17.635059,-296.0
2023-08-10 11:44:17.642748,-528.0
2023-08-10 11:44:17.650438,-686.0
2023-08-10 11:44:17.658128,-634.0
2023-08-10 11:44:17.665817,-282.0
2023-08-10 11:44:17.673507,74.0
2023-08-10 11:44:17.681197,98.0
2023-08-10 11:44:17.688886,-28.0
2023-08-10 11:44:17.696576,-19.0
2023-08-10 11:44:17.704266,31.0
2023-08-10 11:44:17.711956,7.0
2023-08-10 11:44:17.719645,-7.0
2023-08-10 11:44:17.727335,2.0
2023-08-10 11:44:17.735025,-7.0
2023-08-10 11:44:17.742714,-16.0
2023-08-10 11:44:17.750404,-16.0
2023-08-10 11:44:17.758094,-28.0
2023-08-10 11:44:17.765784,-43.0
2023-08-10 11:44:17.773473,-45.0
2023-08-10 11:44:17.781163,-47.0
2023-08-10 11:44:17.788853,-55.0
2023-08-10 11:44:17.796542,-62.0
2023-08-10 11:44:17.804232,-69.0
2023-08-10 11:44:17.811922,-78.0
2023-08-10 11:44:17.819612,-86.0
2023-08-10 11:44:17.827301,-95.0
2023-08-10 11:44:17.834991,-105.0
2023-08-10 11:44:17.842681,-119.0
2023-08-10 11:44:17.850370,-136.0
2023-08-10 11:44:17.858060,-148.0
2023-08-10 11:44:17.865750,-165.0
2023-08-10 11:44:17.873440,-181.0
2023-08-10 11:44:17.881129,-198.0
2023-08-10 11:44:17.888819,-217.0
2023-08-10 11:44:17.896509,-234.0
2023-08-10 11:44:17.904198,-248.0
2023-08-10 11:44:17.911888,-260.0
2023-08-10 11:44:17.919578,-263.0
2023-08-10 11:44:17.927268,-244.0
2023-08-10 11:44:17.934957,-200.0
2023-08-10 11:44:17.942647,-143.0
2023-08-10 11:44:17.950337,-86.0
2023-08-10 11:44:17.958026,-35.0
2023-08-10 11:44:17.965716,2.0
2023-08-10 11:44:17.973406,28.0
2023-08-10 11:44:17.981096,40.0
2023-08-10 11:44:17.988785,45.0
2023-08-10 11:44:17.996475,50.0
2023-08-10 11:44:18.004165,52.0
2023-08-10 11:44:18.011854,47.0
2023-08-10 11:44:18.019544,45.0
2023-08-10 11:44:18.027234,43.0
2023-08-10 11:44:18.034924,35.0
2023-08-10 11:44:18.042613,35.0
2023-08-10 11:44:18.050303,33.0
2023-08-10 11:44:18.057993,31.0
2023-08-10 11:44:18.065682,26.0
2023-08-10 11:44:18.073372,23.0
2023-08-10 11:44:18.081062,19.0
2023-08-10 11:44:18.088752,16.0
2023-08-10 11:44:18.096441,16.0
2023-08-10 11:44:18.104131,16.0
2023-08-10 11:44:18.111821,11.0
2023-08-10 11:44:18.119510,7.0
2023-08-10 11:44:18.127200,4.0
2023-08-10 11:44:18.134890,7.0
2023-08-10 11:44:18.142580,7.0
2023-08-10 11:44:18.150269,2.0
2023-08-10 11:44:18.157959,0.0
2023-08-10 11:44:18.165649,-2.0
2023-08-10 11:44:18.173338,-4.0
2023-08-10 11:44:18.181028,-4.0
2023-08-10 11:44:18.188718,-4.0
2023-08-10 11:44:18.196408,-4.0
2023-08-10 11:44:18.204097,-7.0
2023-08-10 11:44:18.211787,-7.0
2023-08-10 11:44:18.219477,-7.0
2023-08-10 11:44:18.227166,-11.0
2023-08-10 11:44:18.234856,-16.0
2023-08-10 11:44:18.242546,-19.0
2023-08-10 11:44:18.250236,-19.0
2023-08-10 11:44:18.257925,-19.0
2023-08-10 11:44:18.265615,-19.0
2023-08-10 11:44:18.273305,-16.0
2023-08-10 11:44:18.280994,-16.0
2023-08-10 11:44:18.288684,-19.0
2023-08-10 11:44:18.296374,-19.0
2023-08-10 11:44:18.304064,-21.0
2023-08-10 11:44:18.311753,-23.0
2023-08-10 11:44:18.319443,-23.0
2023-08-10 11:44:18.327133,-21.0
2023-08-10 11:44:18.334822,-21.0
2023-08-10 11:44:18.342512,-26.0
2023-08-10 11:44:18.350202,-35.0
2023-08-10 11:44:18.357891,-35.0
2023-08-10 11:44:18.365581,-33.0
2023-08-10 11:44:18.373271,-33.0
2023-08-10 11:44:18.380961,-35.0
2023-08-10 11:44:18.388650,-35.0
2023-08-10 11:44:18.396340,-35.0
2023-08-10 11:44:18.404030,-40.0
2023-08-10 11:44:18.411719,-38.0
2023-08-10 11:44:18.419409,-33.0
2023-08-10 11:44:18.427099,-31.0
2023-08-10 11:44:18.434789,-33.0
2023-08-10 11:44:18.442478,-35.0
2023-08-10 11:44:18.450168,-45.0
2023-08-10 11:44:18.457858,-59.0
2023-08-10 11:44:18.465547,-66.0
2023-08-10 11:44:18.473237,-64.0
2023-08-10 11:44:18.480927,-57.0
2023-08-10 11:44:18.488617,-43.0
2023-08-10 11:44:18.496306,-31.0
2023-08-10 11:44:18.503996,-28.0
2023-08-10 11:44:18.511686,-28.0
2023-08-10 11:44:18.519375,-26.0
2023-08-10 11:44:18.527065,-28.0
2023-08-10 11:44:18.534755,-33.0
2023-08-10 11:44:18.542445,-35.0
2023-08-10 11:44:18.550134,-38.0
2023-08-10 11:44:18.557824,-33.0
2023-08-10 11:44:18.565514,-62.0
2023-08-10 11:44:18.573203,-205.0
2023-08-10 11:44:18.580893,-440.0
2023-08-10 11:44:18.588583,-641.0
2023-08-10 11:44:18.596273,-693.0
2023-08-10 11:44:18.603962,-456.0
2023-08-10 11:44:18.611652,-45.0
2023-08-10 11:44:18.619342,124.0
2023-08-10 11:44:18.627031,11.0
2023-08-10 11:44:18.634721,-43.0
2023-08-10 11:44:18.642411,14.0
2023-08-10 11:44:18.650101,19.0
2023-08-10 11:44:18.657790,-9.0
2023-08-10 11:44:18.665480,2.0
2023-08-10 11:44:18.673170,7.0
2023-08-10 11:44:18.680859,-7.0
2023-08-10 11:44:18.688549,-11.0
2023-08-10 11:44:18.696239,-11.0
2023-08-10 11:44:18.703929,-19.0
2023-08-10 11:44:18.711618,-28.0
2023-08-10 11:44:18.719308,-35.0
2023-08-10 11:44:18.726998,-43.0
2023-08-10 11:44:18.734687,-55.0
2023-08-10 11:44:18.742377,-64.0
2023-08-10 11:44:18.750067,-74.0
2023-08-10 11:44:18.757757,-78.0
2023-08-10 11:44:18.765446,-88.0
2023-08-10 11:44:18.773136,-100.0
2023-08-10 11:44:18.780826,-114.0
2023-08-10 11:44:18.788515,-126.0
2023-08-10 11:44:18.796205,-138.0
2023-08-10 11:44:18.803895,-155.0
2023-08-10 11:44:18.811585,-172.0
2023-08-10 11:44:18.819274,-189.0
2023-08-10 11:44:18.826964,-208.0
2023-08-10 11:44:18.834654,-229.0
2023-08-10 11:44:18.842343,-246.0
2023-08-10 11:44:18.850033,-258.0
2023-08-10 11:44:18.857723,-263.0
2023-08-10 11:44:18.865413,-258.0
2023-08-10 11:44:18.873102,-232.0
2023-08-10 11:44:18.880792,-181.0
2023-08-10 11:44:18.888482,-124.0
2023-08-10 11:44:18.896171,-74.0
2023-08-10 11:44:18.903861,-28.0
2023-08-10 11:44:18.911551,4.0
2023-08-10 11:44:18.919241,28.0
2023-08-10 11:44:18.926930,35.0
2023-08-10 11:44:18.934620,33.0
2023-08-10 11:44:18.942310,31.0
2023-08-10 11:44:18.949999,35.0
2023-08-10 11:44:18.957689,38.0
2023-08-10 11:44:18.965379,33.0
2023-08-10 11:44:18.973069,28.0
2023-08-10 11:44:18.980758,26.0
2023-08-10 11:44:18.988448,23.0
2023-08-10 11:44:18.996138,19.0
2023-08-10 11:44:19.003827,16.0
2023-08-10 11:44:19.011517,14.0
2023-08-10 11:44:19.019207,14.0
2023-08-10 11:44:19.026897,14.0
2023-08-10 11:44:19.034586,11.0
2023-08-10 11:44:19.042276,7.0
2023-08-10 11:44:19.049966,4.0
2023-08-10 11:44:19.057655,7.0
2023-08-10 11:44:19.065345,7.0
2023-08-10 11:44:19.073035,2.0
2023-08-10 11:44:19.080724,-2.0
2023-08-10 11:44:19.088414,2.0
2023-08-10 11:44:19.096104,2.0
2023-08-10 11:44:19.103794,0.0
2023-08-10 11:44:19.111483,-2.0
2023-08-10 11:44:19.119173,-2.0
2023-08-10 11:44:19.126863,-2.0
2023-08-10 11:44:19.134552,-4.0
2023-08-10 11:44:19.142242,-7.0
2023-08-10 11:44:19.149932,-9.0
2023-08-10 11:44:19.157622,-7.0
2023-08-10 11:44:19.165311,-9.0
2023-08-10 11:44:19.173001,-9.0
2023-08-10 11:44:19.180691,-9.0
2023-08-10 11:44:19.188380,-9.0
2023-08-10 11:44:19.196070,-11.0
2023-08-10 11:44:19.203760,-16.0
2023-08-10 11:44:19.211450,-14.0
2023-08-10 11:44:19.219139,-9.0
2023-08-10 11:44:19.226829,-11.0
2023-08-10 11:44:19.234519,-19.0
2023-08-10 11:44:19.242208,-21.0
2023-08-10 11:44:19.249898,-23.0
2023-08-10 11:44:19.257588,-23.0
2023-08-10 11:44:19.265278,-26.0
2023-08-10 11:44:19.272967,-26.0
2023-08-10 11:44:19.280657,-26.0
2023-08-10 11:44:19.288347,-26.0
2023-08-10 11:44:19.296036,-23.0
2023-08-10 11:44:19.303726,-26.0
2023-08-10 11:44:19.311416,-26.0
2023-08-10 11:44:19.319106,-23.0
2023-08-10 11:44:19.326795,-28.0
2023-08-10 11:44:19.334485,-33.0
2023-08-10 11:44:19.342175,-38.0
2023-08-10 11:44:19.349864,-52.0
2023-08-10 11:44:19.357554,-62.0
2023-08-10 11:44:19.365244,-55.0
2023-08-10 11:44:19.372934,-47.0
2023-08-10 11:44:19.380623,-50.0
2023-08-10 11:44:19.388313,-50.0
2023-08-10 11:44:19.396003,-45.0
2023-08-10 11:44:19.403692,-33.0
2023-08-10 11:44:19.411382,-21.0
2023-08-10 11:44:19.419072,-23.0
2023-08-10 11:44:19.426762,-33.0
2023-08-10 11:44:19.434451,-35.0
2023-08-10 11:44:19.442141,-33.0
2023-08-10 11:44:19.449831,-35.0
2023-08-10 11:44:19.457520,-38.0
2023-08-10 11:44:19.465210,-35.0
2023-08-10 11:44:19.472900,-55.0
2023-08-10 11:44:19.480590,-184.0
2023-08-10 11:44:19.488279,-425.0
2023-08-10 11:44:19.495969,-638.0
2023-08-10 11:44:19.503659,-701.0
2023-08-10 11:44:19.511348,-490.0
2023-08-10 11:44:19.519038,-90.0
2023-08-10 11:44:19.526728,124.0
2023-08-10 11:44:19.534418,50.0
2023-08-10 11:44:19.542107,-31.0
2023-08-10 11:44:19.549797,2.0
2023-08-10 11:44:19.557487,21.0
2023-08-10 11:44:19.565176,-2.0
2023-08-10 11:44:19.572866,0.0
2023-08-10 11:44:19.580556,4.0
2023-08-10 11:44:19.588246,-7.0
2023-08-10 11:44:19.595935,-11.0
2023-08-10 11:44:19.603625,-11.0
2023-08-10 11:44:19.611315,-21.0
2023-08-10 11:44:19.619004,-28.0
2023-08-10 11:44:19.626694,-33.0
2023-08-10 11:44:19.634384,-43.0
2023-08-10 11:44:19.642074,-52.0
2023-08-10 11:44:19.649763,-57.0
2023-08-10 11:44:19.657453,-66.0
2023-08-10 11:44:19.665143,-76.0
2023-08-10 11:44:19.672832,-83.0
2023-08-10 11:44:19.680522,-90.0
2023-08-10 11:44:19.688212,-102.0
2023-08-10 11:44:19.695902,-119.0
2023-08-10 11:44:19.703591,-133.0
2023-08-10 11:44:19.711281,-150.0
2023-08-10 11:44:19.718971,-167.0
2023-08-10 11:44:19.726660,-184.0
2023-08-10 11:44:19.734350,-205.0
2023-08-10 11:44:19.742040,-229.0
2023-08-10 11:44:19.749729,-248.0
2023-08-10 11:44:19.757419,-258.0
2023-08-10 11:44:19.765109,-265.0
2023-08-10 11:44:19.772799,-260.0
2023-08-10 11:44:19.780488,-234.0
2023-08-10 11:44:19.788178,-189.0
2023-08-10 11:44:19.795868,-131.0
2023-08-10 11:44:19.803557,-71.0
2023-08-10 11:44:19.811247,-21.0
2023-08-10 11:44:19.818937,11.0
2023-08-10 11:44:19.826627,31.0
2023-08-10 11:44:19.834316,43.0
2023-08-10 11:44:19.842006,50.0
2023-08-10 11:44:19.849696,52.0
2023-08-10 11:44:19.857385,55.0
2023-08-10 11:44:19.865075,52.0
2023-08-10 11:44:19.872765,47.0
2023-08-10 11:44:19.880455,43.0
2023-08-10 11:44:19.888144,35.0
2023-08-10 11:44:19.895834,31.0
2023-08-10 11:44:19.903524,31.0
2023-08-10 11:44:19.911213,31.0
2023-08-10 11:44:19.918903,26.0
2023-08-10 11:44:19.926593,19.0
2023-08-10 11:44:19.934283,19.0
2023-08-10 11:44:19.941972,19.0
2023-08-10 11:44:19.949662,16.0
2023-08-10 11:44:19.957352,14.0
2023-08-10 11:44:19.965041,9.0
2023-08-10 11:44:19.972731,4.0
2023-08-10 11:44:19.980421,7.0
2023-08-10 11:44:19.988111,7.0
2023-08-10 11:44:19.995800,4.0
2023-08-10 11:44:20.003490,2.0
2023-08-10 11:44:20.011180,-4.0
2023-08-10 11:44:20.018869,-11.0
2023-08-10 11:44:20.026559,-9.0
2023-08-10 11:44:20.034249,-7.0
2023-08-10 11:44:20.041939,-11.0
2023-08-10 11:44:20.049628,-11.0
2023-08-10 11:44:20.057318,-9.0
2023-08-10 11:44:20.065008,-14.0
2023-08-10 11:44:20.072697,-14.0
2023-08-10 11:44:20.080387,-11.0
2023-08-10 11:44:20.088077,-11.0
