time,ECG
2023-08-15 17:51:38.146782,-178.0
2023-08-15 17:51:38.154471,-92.0
2023-08-15 17:51:38.162161,-123.0
2023-08-15 17:51:38.169851,-97.0
2023-08-15 17:51:38.177540,-78.0
2023-08-15 17:51:38.185230,-88.0
2023-08-15 17:51:38.192919,-78.0
2023-08-15 17:51:38.200609,-59.0
2023-08-15 17:51:38.208299,-52.0
2023-08-15 17:51:38.215988,-45.0
2023-08-15 17:51:38.223678,-33.0
2023-08-15 17:51:38.231367,-19.0
2023-08-15 17:51:38.239057,-4.0
2023-08-15 17:51:38.246747,9.0
2023-08-15 17:51:38.254436,26.0
2023-08-15 17:51:38.262126,42.0
2023-08-15 17:51:38.269816,61.0
2023-08-15 17:51:38.277505,85.0
2023-08-15 17:51:38.285195,109.0
2023-08-15 17:51:38.292884,128.0
2023-08-15 17:51:38.300574,147.0
2023-08-15 17:51:38.308264,161.0
2023-08-15 17:51:38.315953,166.0
2023-08-15 17:51:38.323643,169.0
2023-08-15 17:51:38.331332,159.0
2023-08-15 17:51:38.339022,138.0
2023-08-15 17:51:38.346712,99.0
2023-08-15 17:51:38.354401,49.0
2023-08-15 17:51:38.362091,-4.0
2023-08-15 17:51:38.369781,-54.0
2023-08-15 17:51:38.377470,-95.0
2023-08-15 17:51:38.385160,-123.0
2023-08-15 17:51:38.392849,-147.0
2023-08-15 17:51:38.400539,-164.0
2023-08-15 17:51:38.408229,-169.0
2023-08-15 17:51:38.415918,-164.0
2023-08-15 17:51:38.423608,-164.0
2023-08-15 17:51:38.431297,-161.0
2023-08-15 17:51:38.438987,-157.0
2023-08-15 17:51:38.446677,-152.0
2023-08-15 17:51:38.454366,-147.0
2023-08-15 17:51:38.462056,-140.0
2023-08-15 17:51:38.469746,-133.0
2023-08-15 17:51:38.477435,-126.0
2023-08-15 17:51:38.485125,-123.0
2023-08-15 17:51:38.492814,-119.0
2023-08-15 17:51:38.500504,-116.0
2023-08-15 17:51:38.508194,-111.0
2023-08-15 17:51:38.515883,-107.0
2023-08-15 17:51:38.523573,-104.0
2023-08-15 17:51:38.531262,-104.0
2023-08-15 17:51:38.538952,-102.0
2023-08-15 17:51:38.546642,-99.0
2023-08-15 17:51:38.554331,-99.0
2023-08-15 17:51:38.562021,-99.0
2023-08-15 17:51:38.569711,-99.0
2023-08-15 17:51:38.577400,-102.0
2023-08-15 17:51:38.585090,-107.0
2023-08-15 17:51:38.592779,-104.0
2023-08-15 17:51:38.600469,-99.0
2023-08-15 17:51:38.608159,-102.0
2023-08-15 17:51:38.615848,-104.0
2023-08-15 17:51:38.623538,-104.0
2023-08-15 17:51:38.631227,-102.0
2023-08-15 17:51:38.638917,-102.0
2023-08-15 17:51:38.646607,-104.0
2023-08-15 17:51:38.654296,-104.0
2023-08-15 17:51:38.661986,-99.0
2023-08-15 17:51:38.669676,-97.0
2023-08-15 17:51:38.677365,-99.0
2023-08-15 17:51:38.685055,-97.0
2023-08-15 17:51:38.692744,-90.0
2023-08-15 17:51:38.700434,-80.0
2023-08-15 17:51:38.708124,-78.0
2023-08-15 17:51:38.715813,-78.0
2023-08-15 17:51:38.723503,-69.0
2023-08-15 17:51:38.731192,-59.0
2023-08-15 17:51:38.738882,-69.0
2023-08-15 17:51:38.746572,-95.0
2023-08-15 17:51:38.754261,-121.0
2023-08-15 17:51:38.761951,-128.0
2023-08-15 17:51:38.769641,-119.0
2023-08-15 17:51:38.777330,-119.0
2023-08-15 17:51:38.785020,-121.0
2023-08-15 17:51:38.792709,-97.0
2023-08-15 17:51:38.800399,14.0
2023-08-15 17:51:38.808089,276.0
2023-08-15 17:51:38.815778,502.0
2023-08-15 17:51:38.823468,330.0
2023-08-15 17:51:38.831157,-221.0
2023-08-15 17:51:38.838847,-623.0
2023-08-15 17:51:38.846537,-490.0
2023-08-15 17:51:38.854226,-149.0
2023-08-15 17:51:38.861916,-69.0
2023-08-15 17:51:38.869606,-128.0
2023-08-15 17:51:38.877295,-99.0
2023-08-15 17:51:38.884985,-71.0
2023-08-15 17:51:38.892674,-88.0
2023-08-15 17:51:38.900364,-88.0
2023-08-15 17:51:38.908054,-71.0
2023-08-15 17:51:38.915743,-66.0
2023-08-15 17:51:38.923433,-57.0
2023-08-15 17:51:38.931122,-42.0
2023-08-15 17:51:38.938812,-28.0
2023-08-15 17:51:38.946502,-14.0
2023-08-15 17:51:38.954191,2.0
2023-08-15 17:51:38.961881,16.0
2023-08-15 17:51:38.969571,35.0
2023-08-15 17:51:38.977260,52.0
2023-08-15 17:51:38.984950,73.0
2023-08-15 17:51:38.992639,99.0
2023-08-15 17:51:39.000329,121.0
2023-08-15 17:51:39.008019,138.0
2023-08-15 17:51:39.015708,152.0
2023-08-15 17:51:39.023398,159.0
2023-08-15 17:51:39.031087,161.0
2023-08-15 17:51:39.038777,157.0
2023-08-15 17:51:39.046467,140.0
2023-08-15 17:51:39.054156,104.0
2023-08-15 17:51:39.061846,57.0
2023-08-15 17:51:39.069536,-2.0
2023-08-15 17:51:39.077225,-54.0
2023-08-15 17:51:39.084915,-95.0
2023-08-15 17:51:39.092604,-123.0
2023-08-15 17:51:39.100294,-145.0
2023-08-15 17:51:39.107984,-154.0
2023-08-15 17:51:39.115673,-159.0
2023-08-15 17:51:39.123363,-159.0
2023-08-15 17:51:39.131052,-157.0
2023-08-15 17:51:39.138742,-154.0
2023-08-15 17:51:39.146432,-152.0
2023-08-15 17:51:39.154121,-147.0
2023-08-15 17:51:39.161811,-142.0
2023-08-15 17:51:39.169501,-133.0
2023-08-15 17:51:39.177190,-126.0
2023-08-15 17:51:39.184880,-123.0
2023-08-15 17:51:39.192569,-121.0
2023-08-15 17:51:39.200259,-121.0
2023-08-15 17:51:39.207949,-123.0
2023-08-15 17:51:39.215638,-119.0
2023-08-15 17:51:39.223328,-111.0
2023-08-15 17:51:39.231017,-109.0
2023-08-15 17:51:39.238707,-107.0
2023-08-15 17:51:39.246397,-107.0
2023-08-15 17:51:39.254086,-104.0
2023-08-15 17:51:39.261776,-102.0
2023-08-15 17:51:39.269466,-99.0
2023-08-15 17:51:39.277155,-99.0
2023-08-15 17:51:39.284845,-102.0
2023-08-15 17:51:39.292534,-102.0
2023-08-15 17:51:39.300224,-99.0
2023-08-15 17:51:39.307914,-99.0
2023-08-15 17:51:39.315603,-102.0
2023-08-15 17:51:39.323293,-104.0
2023-08-15 17:51:39.330982,-104.0
2023-08-15 17:51:39.338672,-102.0
2023-08-15 17:51:39.346362,-102.0
2023-08-15 17:51:39.354051,-102.0
2023-08-15 17:51:39.361741,-102.0
2023-08-15 17:51:39.369431,-97.0
2023-08-15 17:51:39.377120,-97.0
2023-08-15 17:51:39.384810,-97.0
2023-08-15 17:51:39.392499,-90.0
2023-08-15 17:51:39.400189,-80.0
2023-08-15 17:51:39.407879,-76.0
2023-08-15 17:51:39.415568,-69.0
2023-08-15 17:51:39.423258,-61.0
2023-08-15 17:51:39.430947,-54.0
2023-08-15 17:51:39.438637,-61.0
2023-08-15 17:51:39.446327,-88.0
2023-08-15 17:51:39.454016,-111.0
2023-08-15 17:51:39.461706,-119.0
2023-08-15 17:51:39.469396,-116.0
2023-08-15 17:51:39.477085,-114.0
2023-08-15 17:51:39.484775,-111.0
2023-08-15 17:51:39.492464,-88.0
2023-08-15 17:51:39.500154,26.0
2023-08-15 17:51:39.507844,285.0
2023-08-15 17:51:39.515533,504.0
2023-08-15 17:51:39.523223,328.0
2023-08-15 17:51:39.530912,-216.0
2023-08-15 17:51:39.538602,-604.0
2023-08-15 17:51:39.546292,-473.0
2023-08-15 17:51:39.553981,-140.0
2023-08-15 17:51:39.561671,-59.0
2023-08-15 17:51:39.569361,-121.0
2023-08-15 17:51:39.577050,-95.0
2023-08-15 17:51:39.584740,-64.0
2023-08-15 17:51:39.592429,-76.0
2023-08-15 17:51:39.600119,-71.0
2023-08-15 17:51:39.607809,-59.0
2023-08-15 17:51:39.615498,-54.0
2023-08-15 17:51:39.623188,-40.0
2023-08-15 17:51:39.630877,-26.0
2023-08-15 17:51:39.638567,-11.0
2023-08-15 17:51:39.646257,-2.0
2023-08-15 17:51:39.653946,11.0
2023-08-15 17:51:39.661636,28.0
2023-08-15 17:51:39.669326,49.0
2023-08-15 17:51:39.677015,71.0
2023-08-15 17:51:39.684705,92.0
2023-08-15 17:51:39.692394,111.0
2023-08-15 17:51:39.700084,130.0
2023-08-15 17:51:39.707774,149.0
2023-08-15 17:51:39.715463,166.0
2023-08-15 17:51:39.723153,176.0
2023-08-15 17:51:39.730842,178.0
2023-08-15 17:51:39.738532,171.0
2023-08-15 17:51:39.746222,149.0
2023-08-15 17:51:39.753911,116.0
2023-08-15 17:51:39.761601,66.0
2023-08-15 17:51:39.769291,11.0
2023-08-15 17:51:39.776980,-38.0
2023-08-15 17:51:39.784670,-80.0
2023-08-15 17:51:39.792359,-111.0
2023-08-15 17:51:39.800049,-128.0
2023-08-15 17:51:39.807739,-140.0
2023-08-15 17:51:39.815428,-147.0
2023-08-15 17:51:39.823118,-152.0
2023-08-15 17:51:39.830807,-154.0
2023-08-15 17:51:39.838497,-161.0
2023-08-15 17:51:39.846187,-154.0
2023-08-15 17:51:39.853876,-145.0
2023-08-15 17:51:39.861566,-138.0
2023-08-15 17:51:39.869256,-133.0
2023-08-15 17:51:39.876945,-130.0
2023-08-15 17:51:39.884635,-126.0
2023-08-15 17:51:39.892324,-119.0
2023-08-15 17:51:39.900014,-111.0
2023-08-15 17:51:39.907704,-109.0
2023-08-15 17:51:39.915393,-111.0
2023-08-15 17:51:39.923083,-109.0
2023-08-15 17:51:39.930772,-107.0
2023-08-15 17:51:39.938462,-104.0
2023-08-15 17:51:39.946152,-99.0
2023-08-15 17:51:39.953841,-97.0
2023-08-15 17:51:39.961531,-97.0
2023-08-15 17:51:39.969221,-97.0
2023-08-15 17:51:39.976910,-95.0
2023-08-15 17:51:39.984600,-95.0
2023-08-15 17:51:39.992289,-92.0
2023-08-15 17:51:39.999979,-92.0
2023-08-15 17:51:40.007669,-92.0
2023-08-15 17:51:40.015358,-90.0
2023-08-15 17:51:40.023048,-88.0
2023-08-15 17:51:40.030737,-88.0
2023-08-15 17:51:40.038427,-88.0
2023-08-15 17:51:40.046117,-85.0
2023-08-15 17:51:40.053806,-85.0
2023-08-15 17:51:40.061496,-88.0
2023-08-15 17:51:40.069186,-85.0
2023-08-15 17:51:40.076875,-78.0
2023-08-15 17:51:40.084565,-76.0
2023-08-15 17:51:40.092254,-69.0
2023-08-15 17:51:40.099944,-54.0
2023-08-15 17:51:40.107634,-47.0
2023-08-15 17:51:40.115323,-38.0
2023-08-15 17:51:40.123013,-28.0
2023-08-15 17:51:40.130702,-42.0
2023-08-15 17:51:40.138392,-73.0
2023-08-15 17:51:40.146082,-95.0
2023-08-15 17:51:40.153771,-88.0
2023-08-15 17:51:40.161461,-80.0
2023-08-15 17:51:40.169151,-88.0
2023-08-15 17:51:40.176840,-92.0
2023-08-15 17:51:40.184530,-57.0
2023-08-15 17:51:40.192219,92.0
2023-08-15 17:51:40.199909,368.0
2023-08-15 17:51:40.207599,533.0
2023-08-15 17:51:40.215288,266.0
2023-08-15 17:51:40.222978,-302.0
2023-08-15 17:51:40.230667,-597.0
2023-08-15 17:51:40.238357,-383.0
2023-08-15 17:51:40.246047,-97.0
2023-08-15 17:51:40.253736,-69.0
2023-08-15 17:51:40.261426,-104.0
2023-08-15 17:51:40.269116,-71.0
2023-08-15 17:51:40.276805,-57.0
2023-08-15 17:51:40.284495,-69.0
2023-08-15 17:51:40.292184,-59.0
2023-08-15 17:51:40.299874,-49.0
2023-08-15 17:51:40.307564,-49.0
2023-08-15 17:51:40.315253,-35.0
2023-08-15 17:51:40.322943,-19.0
2023-08-15 17:51:40.330632,-11.0
2023-08-15 17:51:40.338322,4.0
2023-08-15 17:51:40.346012,23.0
2023-08-15 17:51:40.353701,33.0
2023-08-15 17:51:40.361391,49.0
2023-08-15 17:51:40.369081,69.0
2023-08-15 17:51:40.376770,80.0
2023-08-15 17:51:40.384460,97.0
2023-08-15 17:51:40.392149,119.0
2023-08-15 17:51:40.399839,135.0
2023-08-15 17:51:40.407529,152.0
2023-08-15 17:51:40.415218,161.0
2023-08-15 17:51:40.422908,157.0
2023-08-15 17:51:40.430597,138.0
2023-08-15 17:51:40.438287,116.0
2023-08-15 17:51:40.445977,85.0
2023-08-15 17:51:40.453666,35.0
2023-08-15 17:51:40.461356,-21.0
2023-08-15 17:51:40.469046,-73.0
2023-08-15 17:51:40.476735,-109.0
2023-08-15 17:51:40.484425,-133.0
2023-08-15 17:51:40.492114,-149.0
2023-08-15 17:51:40.499804,-157.0
2023-08-15 17:51:40.507494,-159.0
2023-08-15 17:51:40.515183,-159.0
2023-08-15 17:51:40.522873,-159.0
2023-08-15 17:51:40.530562,-152.0
2023-08-15 17:51:40.538252,-147.0
2023-08-15 17:51:40.545942,-142.0
2023-08-15 17:51:40.553631,-138.0
2023-08-15 17:51:40.561321,-133.0
2023-08-15 17:51:40.569011,-128.0
2023-08-15 17:51:40.576700,-121.0
2023-08-15 17:51:40.584390,-114.0
2023-08-15 17:51:40.592079,-109.0
2023-08-15 17:51:40.599769,-107.0
2023-08-15 17:51:40.607459,-102.0
2023-08-15 17:51:40.615148,-97.0
2023-08-15 17:51:40.622838,-97.0
2023-08-15 17:51:40.630527,-90.0
2023-08-15 17:51:40.638217,-85.0
2023-08-15 17:51:40.645907,-92.0
2023-08-15 17:51:40.653596,-92.0
2023-08-15 17:51:40.661286,-85.0
2023-08-15 17:51:40.668976,-85.0
2023-08-15 17:51:40.676665,-88.0
2023-08-15 17:51:40.684355,-85.0
2023-08-15 17:51:40.692044,-83.0
2023-08-15 17:51:40.699734,-83.0
2023-08-15 17:51:40.707424,-80.0
2023-08-15 17:51:40.715113,-78.0
2023-08-15 17:51:40.722803,-73.0
2023-08-15 17:51:40.730492,-76.0
2023-08-15 17:51:40.738182,-73.0
2023-08-15 17:51:40.745872,-66.0
2023-08-15 17:51:40.753561,-59.0
2023-08-15 17:51:40.761251,-57.0
2023-08-15 17:51:40.768941,-49.0
2023-08-15 17:51:40.776630,-30.0
2023-08-15 17:51:40.784320,-23.0
2023-08-15 17:51:40.792009,-28.0
2023-08-15 17:51:40.799699,-47.0
2023-08-15 17:51:40.807389,-71.0
2023-08-15 17:51:40.815078,-78.0
2023-08-15 17:51:40.822768,-66.0
2023-08-15 17:51:40.830457,-64.0
2023-08-15 17:51:40.838147,-69.0
2023-08-15 17:51:40.845837,-30.0
2023-08-15 17:51:40.853526,111.0
2023-08-15 17:51:40.861216,399.0
2023-08-15 17:51:40.868906,616.0
2023-08-15 17:51:40.876595,395.0
2023-08-15 17:51:40.884285,-197.0
2023-08-15 17:51:40.891974,-566.0
2023-08-15 17:51:40.899664,-407.0
2023-08-15 17:51:40.907354,-126.0
2023-08-15 17:51:40.915043,-71.0
2023-08-15 17:51:40.922733,-97.0
2023-08-15 17:51:40.930422,-64.0
2023-08-15 17:51:40.938112,-47.0
2023-08-15 17:51:40.945802,-57.0
2023-08-15 17:51:40.953491,-47.0
2023-08-15 17:51:40.961181,-33.0
2023-08-15 17:51:40.968871,-26.0
2023-08-15 17:51:40.976560,-9.0
2023-08-15 17:51:40.984250,7.0
2023-08-15 17:51:40.991939,16.0
2023-08-15 17:51:40.999629,28.0
2023-08-15 17:51:41.007319,47.0
2023-08-15 17:51:41.015008,66.0
2023-08-15 17:51:41.022698,85.0
2023-08-15 17:51:41.030387,104.0
2023-08-15 17:51:41.038077,126.0
2023-08-15 17:51:41.045767,149.0
2023-08-15 17:51:41.053456,169.0
2023-08-15 17:51:41.061146,185.0
2023-08-15 17:51:41.068836,197.0
2023-08-15 17:51:41.076525,207.0
2023-08-15 17:51:41.084215,209.0
2023-08-15 17:51:41.091904,197.0
2023-08-15 17:51:41.099594,176.0
2023-08-15 17:51:41.107284,140.0
2023-08-15 17:51:41.114973,88.0
2023-08-15 17:51:41.122663,28.0
2023-08-15 17:51:41.130352,-14.0
2023-08-15 17:51:41.138042,-45.0
2023-08-15 17:51:41.145732,-76.0
2023-08-15 17:51:41.153421,-92.0
2023-08-15 17:51:41.161111,-92.0
2023-08-15 17:51:41.168801,-97.0
2023-08-15 17:51:41.176490,-102.0
2023-08-15 17:51:41.184180,-99.0
2023-08-15 17:51:41.191869,-88.0
2023-08-15 17:51:41.199559,-85.0
2023-08-15 17:51:41.207249,-85.0
2023-08-15 17:51:41.214938,-73.0
2023-08-15 17:51:41.222628,-64.0
2023-08-15 17:51:41.230317,-64.0
2023-08-15 17:51:41.238007,-54.0
2023-08-15 17:51:41.245697,-47.0
2023-08-15 17:51:41.253386,-47.0
2023-08-15 17:51:41.261076,-38.0
2023-08-15 17:51:41.268766,-35.0
2023-08-15 17:51:41.276455,-40.0
2023-08-15 17:51:41.284145,-33.0
2023-08-15 17:51:41.291834,-30.0
2023-08-15 17:51:41.299524,-35.0
2023-08-15 17:51:41.307214,-35.0
2023-08-15 17:51:41.314903,-30.0
2023-08-15 17:51:41.322593,-30.0
2023-08-15 17:51:41.330282,-30.0
2023-08-15 17:51:41.337972,-30.0
2023-08-15 17:51:41.345662,-33.0
2023-08-15 17:51:41.353351,-33.0
2023-08-15 17:51:41.361041,-33.0
2023-08-15 17:51:41.368731,-33.0
2023-08-15 17:51:41.376420,-33.0
2023-08-15 17:51:41.384110,-28.0
2023-08-15 17:51:41.391799,-26.0
2023-08-15 17:51:41.399489,-23.0
2023-08-15 17:51:41.407179,-21.0
2023-08-15 17:51:41.414868,-16.0
2023-08-15 17:51:41.422558,-2.0
2023-08-15 17:51:41.430247,7.0
2023-08-15 17:51:41.437937,4.0
2023-08-15 17:51:41.445627,-14.0
2023-08-15 17:51:41.453316,-47.0
2023-08-15 17:51:41.461006,-64.0
2023-08-15 17:51:41.468696,-52.0
2023-08-15 17:51:41.476385,-49.0
2023-08-15 17:51:41.484075,-54.0
2023-08-15 17:51:41.491764,-40.0
2023-08-15 17:51:41.499454,54.0
2023-08-15 17:51:41.507144,302.0
2023-08-15 17:51:41.514833,576.0
2023-08-15 17:51:41.522523,507.0
2023-08-15 17:51:41.530212,-14.0
2023-08-15 17:51:41.537902,-504.0
2023-08-15 17:51:41.545592,-490.0
2023-08-15 17:51:41.553281,-171.0
2023-08-15 17:51:41.560971,-38.0
2023-08-15 17:51:41.568661,-66.0
2023-08-15 17:51:41.576350,-42.0
2023-08-15 17:51:41.584040,-26.0
2023-08-15 17:51:41.591729,-45.0
2023-08-15 17:51:41.599419,-35.0
2023-08-15 17:51:41.607109,-16.0
2023-08-15 17:51:41.614798,-14.0
2023-08-15 17:51:41.622488,-4.0
2023-08-15 17:51:41.630177,9.0
2023-08-15 17:51:41.637867,16.0
2023-08-15 17:51:41.645557,21.0
2023-08-15 17:51:41.653246,35.0
2023-08-15 17:51:41.660936,49.0
2023-08-15 17:51:41.668626,71.0
2023-08-15 17:51:41.676315,90.0
2023-08-15 17:51:41.684005,104.0
2023-08-15 17:51:41.691694,128.0
2023-08-15 17:51:41.699384,154.0
2023-08-15 17:51:41.707074,171.0
2023-08-15 17:51:41.714763,185.0
2023-08-15 17:51:41.722453,190.0
2023-08-15 17:51:41.730142,178.0
2023-08-15 17:51:41.737832,164.0
2023-08-15 17:51:41.745522,152.0
2023-08-15 17:51:41.753211,116.0
2023-08-15 17:51:41.760901,64.0
2023-08-15 17:51:41.768591,19.0
2023-08-15 17:51:41.776280,-28.0
2023-08-15 17:51:41.783970,-78.0
2023-08-15 17:51:41.791659,-107.0
2023-08-15 17:51:41.799349,-116.0
2023-08-15 17:51:41.807039,-128.0
2023-08-15 17:51:41.814728,-135.0
2023-08-15 17:51:41.822418,-130.0
2023-08-15 17:51:41.830107,-128.0
2023-08-15 17:51:41.837797,-130.0
2023-08-15 17:51:41.845487,-121.0
2023-08-15 17:51:41.853176,-111.0
2023-08-15 17:51:41.860866,-111.0
2023-08-15 17:51:41.868556,-109.0
2023-08-15 17:51:41.876245,-102.0
2023-08-15 17:51:41.883935,-90.0
2023-08-15 17:51:41.891624,-80.0
2023-08-15 17:51:41.899314,-83.0
2023-08-15 17:51:41.907004,-85.0
2023-08-15 17:51:41.914693,-76.0
2023-08-15 17:51:41.922383,-71.0
2023-08-15 17:51:41.930072,-80.0
2023-08-15 17:51:41.937762,-80.0
2023-08-15 17:51:41.945452,-66.0
2023-08-15 17:51:41.953141,-71.0
2023-08-15 17:51:41.960831,-78.0
2023-08-15 17:51:41.968521,-73.0
2023-08-15 17:51:41.976210,-71.0
2023-08-15 17:51:41.983900,-73.0
2023-08-15 17:51:41.991589,-73.0
2023-08-15 17:51:41.999279,-76.0
2023-08-15 17:51:42.006969,-73.0
2023-08-15 17:51:42.014658,-71.0
2023-08-15 17:51:42.022348,-73.0
2023-08-15 17:51:42.030037,-76.0
2023-08-15 17:51:42.037727,-80.0
2023-08-15 17:51:42.045417,-83.0
2023-08-15 17:51:42.053106,-73.0
2023-08-15 17:51:42.060796,-64.0
2023-08-15 17:51:42.068486,-59.0
2023-08-15 17:51:42.076175,-49.0
2023-08-15 17:51:42.083865,-52.0
2023-08-15 17:51:42.091554,-80.0
2023-08-15 17:51:42.099244,-109.0
2023-08-15 17:51:42.106934,-104.0
2023-08-15 17:51:42.114623,-90.0
2023-08-15 17:51:42.122313,-90.0
2023-08-15 17:51:42.130002,-90.0
2023-08-15 17:51:42.137692,-52.0
2023-08-15 17:51:42.145382,90.0
2023-08-15 17:51:42.153071,373.0
2023-08-15 17:51:42.160761,564.0
2023-08-15 17:51:42.168451,299.0
2023-08-15 17:51:42.176140,-283.0
2023-08-15 17:51:42.183830,-585.0
2023-08-15 17:51:42.191519,-395.0
2023-08-15 17:51:42.199209,-133.0
2023-08-15 17:51:42.206899,-88.0
2023-08-15 17:51:42.214588,-102.0
2023-08-15 17:51:42.222278,-71.0
2023-08-15 17:51:42.229967,-61.0
2023-08-15 17:51:42.237657,-73.0
2023-08-15 17:51:42.245347,-59.0
2023-08-15 17:51:42.253036,-40.0
2023-08-15 17:51:42.260726,-38.0
2023-08-15 17:51:42.268416,-35.0
2023-08-15 17:51:42.276105,-26.0
2023-08-15 17:51:42.283795,-19.0
2023-08-15 17:51:42.291484,-4.0
2023-08-15 17:51:42.299174,11.0
2023-08-15 17:51:42.306864,23.0
2023-08-15 17:51:42.314553,40.0
2023-08-15 17:51:42.322243,59.0
2023-08-15 17:51:42.329932,80.0
2023-08-15 17:51:42.337622,99.0
2023-08-15 17:51:42.345312,119.0
2023-08-15 17:51:42.353001,133.0
2023-08-15 17:51:42.360691,142.0
2023-08-15 17:51:42.368381,149.0
2023-08-15 17:51:42.376070,145.0
2023-08-15 17:51:42.383760,130.0
2023-08-15 17:51:42.391449,104.0
2023-08-15 17:51:42.399139,64.0
2023-08-15 17:51:42.406829,16.0
2023-08-15 17:51:42.414518,-33.0
2023-08-15 17:51:42.422208,-80.0
2023-08-15 17:51:42.429897,-119.0
2023-08-15 17:51:42.437587,-149.0
2023-08-15 17:51:42.445277,-164.0
2023-08-15 17:51:42.452966,-166.0
2023-08-15 17:51:42.460656,-171.0
2023-08-15 17:51:42.468346,-173.0
2023-08-15 17:51:42.476035,-171.0
2023-08-15 17:51:42.483725,-166.0
2023-08-15 17:51:42.491414,-164.0
2023-08-15 17:51:42.499104,-157.0
2023-08-15 17:51:42.506794,-149.0
2023-08-15 17:51:42.514483,-147.0
2023-08-15 17:51:42.522173,-145.0
2023-08-15 17:51:42.529862,-142.0
2023-08-15 17:51:42.537552,-138.0
2023-08-15 17:51:42.545242,-133.0
2023-08-15 17:51:42.552931,-130.0
2023-08-15 17:51:42.560621,-128.0
2023-08-15 17:51:42.568311,-121.0
2023-08-15 17:51:42.576000,-119.0
2023-08-15 17:51:42.583690,-128.0
2023-08-15 17:51:42.591379,-128.0
2023-08-15 17:51:42.599069,-121.0
2023-08-15 17:51:42.606759,-123.0
2023-08-15 17:51:42.614448,-123.0
2023-08-15 17:51:42.622138,-119.0
2023-08-15 17:51:42.629827,-119.0
2023-08-15 17:51:42.637517,-123.0
2023-08-15 17:51:42.645207,-121.0
2023-08-15 17:51:42.652896,-121.0
2023-08-15 17:51:42.660586,-121.0
2023-08-15 17:51:42.668276,-121.0
2023-08-15 17:51:42.675965,-119.0
2023-08-15 17:51:42.683655,-114.0
2023-08-15 17:51:42.691344,-111.0
2023-08-15 17:51:42.699034,-109.0
2023-08-15 17:51:42.706724,-102.0
2023-08-15 17:51:42.714413,-102.0
2023-08-15 17:51:42.722103,-97.0
2023-08-15 17:51:42.729792,-78.0
2023-08-15 17:51:42.737482,-69.0
2023-08-15 17:51:42.745172,-73.0
2023-08-15 17:51:42.752861,-90.0
2023-08-15 17:51:42.760551,-116.0
2023-08-15 17:51:42.768241,-130.0
2023-08-15 17:51:42.775930,-121.0
2023-08-15 17:51:42.783620,-116.0
2023-08-15 17:51:42.791309,-119.0
2023-08-15 17:51:42.798999,-109.0
2023-08-15 17:51:42.806689,-40.0
2023-08-15 17:51:42.814378,171.0
2023-08-15 17:51:42.822068,464.0
2023-08-15 17:51:42.829757,478.0
2023-08-15 17:51:42.837447,16.0
2023-08-15 17:51:42.845137,-521.0
2023-08-15 17:51:42.852826,-583.0
2023-08-15 17:51:42.860516,-266.0
2023-08-15 17:51:42.868206,-85.0
2023-08-15 17:51:42.875895,-119.0
2023-08-15 17:51:42.883585,-116.0
2023-08-15 17:51:42.891274,-85.0
2023-08-15 17:51:42.898964,-92.0
2023-08-15 17:51:42.906654,-92.0
2023-08-15 17:51:42.914343,-76.0
2023-08-15 17:51:42.922033,-69.0
2023-08-15 17:51:42.929722,-69.0
2023-08-15 17:51:42.937412,-61.0
2023-08-15 17:51:42.945102,-47.0
2023-08-15 17:51:42.952791,-28.0
2023-08-15 17:51:42.960481,-11.0
2023-08-15 17:51:42.968171,0.0
2023-08-15 17:51:42.975860,9.0
2023-08-15 17:51:42.983550,26.0
2023-08-15 17:51:42.991239,42.0
2023-08-15 17:51:42.998929,61.0
2023-08-15 17:51:43.006619,85.0
2023-08-15 17:51:43.014308,97.0
2023-08-15 17:51:43.021998,107.0
2023-08-15 17:51:43.029687,123.0
2023-08-15 17:51:43.037377,126.0
2023-08-15 17:51:43.045067,119.0
2023-08-15 17:51:43.052756,109.0
2023-08-15 17:51:43.060446,80.0
2023-08-15 17:51:43.068136,23.0
2023-08-15 17:51:43.075825,-38.0
2023-08-15 17:51:43.083515,-85.0
2023-08-15 17:51:43.091204,-128.0
2023-08-15 17:51:43.098894,-166.0
2023-08-15 17:51:43.106584,-185.0
2023-08-15 17:51:43.114273,-192.0
2023-08-15 17:51:43.121963,-199.0
2023-08-15 17:51:43.129652,-204.0
2023-08-15 17:51:43.137342,-202.0
2023-08-15 17:51:43.145032,-197.0
2023-08-15 17:51:43.152721,-199.0
2023-08-15 17:51:43.160411,-202.0
2023-08-15 17:51:43.168101,-202.0
2023-08-15 17:51:43.175790,-195.0
2023-08-15 17:51:43.183480,-185.0
2023-08-15 17:51:43.191169,-178.0
2023-08-15 17:51:43.198859,-176.0
2023-08-15 17:51:43.206549,-176.0
2023-08-15 17:51:43.214238,-171.0
2023-08-15 17:51:43.221928,-161.0
2023-08-15 17:51:43.229617,-157.0
2023-08-15 17:51:43.237307,-149.0
2023-08-15 17:51:43.244997,-140.0
2023-08-15 17:51:43.252686,-140.0
2023-08-15 17:51:43.260376,-142.0
2023-08-15 17:51:43.268066,-140.0
2023-08-15 17:51:43.275755,-140.0
2023-08-15 17:51:43.283445,-142.0
2023-08-15 17:51:43.291134,-142.0
2023-08-15 17:51:43.298824,-140.0
2023-08-15 17:51:43.306514,-142.0
2023-08-15 17:51:43.314203,-142.0
2023-08-15 17:51:43.321893,-135.0
2023-08-15 17:51:43.329582,-135.0
2023-08-15 17:51:43.337272,-140.0
2023-08-15 17:51:43.344962,-140.0
2023-08-15 17:51:43.352651,-135.0
2023-08-15 17:51:43.360341,-130.0
2023-08-15 17:51:43.368031,-128.0
2023-08-15 17:51:43.375720,-128.0
2023-08-15 17:51:43.383410,-126.0
2023-08-15 17:51:43.391099,-121.0
2023-08-15 17:51:43.398789,-119.0
2023-08-15 17:51:43.406479,-111.0
2023-08-15 17:51:43.414168,-92.0
2023-08-15 17:51:43.421858,-78.0
2023-08-15 17:51:43.429547,-78.0
2023-08-15 17:51:43.437237,-102.0
2023-08-15 17:51:43.444927,-130.0
2023-08-15 17:51:43.452616,-140.0
2023-08-15 17:51:43.460306,-130.0
2023-08-15 17:51:43.467996,-128.0
2023-08-15 17:51:43.475685,-135.0
2023-08-15 17:51:43.483375,-119.0
2023-08-15 17:51:43.491064,-11.0
2023-08-15 17:51:43.498754,238.0
2023-08-15 17:51:43.506444,509.0
2023-08-15 17:51:43.514133,433.0
2023-08-15 17:51:43.521823,-95.0
2023-08-15 17:51:43.529512,-583.0
2023-08-15 17:51:43.537202,-552.0
2023-08-15 17:51:43.544892,-235.0
2023-08-15 17:51:43.552581,-111.0
2023-08-15 17:51:43.560271,-140.0
2023-08-15 17:51:43.567961,-114.0
2023-08-15 17:51:43.575650,-92.0
2023-08-15 17:51:43.583340,-109.0
2023-08-15 17:51:43.591029,-99.0
2023-08-15 17:51:43.598719,-80.0
2023-08-15 17:51:43.606409,-78.0
2023-08-15 17:51:43.614098,-73.0
2023-08-15 17:51:43.621788,-52.0
2023-08-15 17:51:43.629477,-38.0
2023-08-15 17:51:43.637167,-28.0
2023-08-15 17:51:43.644857,-14.0
2023-08-15 17:51:43.652546,2.0
2023-08-15 17:51:43.660236,16.0
2023-08-15 17:51:43.667926,33.0
2023-08-15 17:51:43.675615,52.0
2023-08-15 17:51:43.683305,73.0
2023-08-15 17:51:43.690994,97.0
2023-08-15 17:51:43.698684,114.0
2023-08-15 17:51:43.706374,126.0
2023-08-15 17:51:43.714063,133.0
2023-08-15 17:51:43.721753,138.0
2023-08-15 17:51:43.729442,133.0
2023-08-15 17:51:43.737132,109.0
2023-08-15 17:51:43.744822,73.0
2023-08-15 17:51:43.752511,19.0
2023-08-15 17:51:43.760201,-42.0
2023-08-15 17:51:43.767891,-95.0
2023-08-15 17:51:43.775580,-135.0
2023-08-15 17:51:43.783270,-171.0
2023-08-15 17:51:43.790959,-199.0
2023-08-15 17:51:43.798649,-216.0
2023-08-15 17:51:43.806339,-221.0
2023-08-15 17:51:43.814028,-218.0
2023-08-15 17:51:43.821718,-214.0
2023-08-15 17:51:43.829407,-211.0
2023-08-15 17:51:43.837097,-207.0
2023-08-15 17:51:43.844787,-204.0
2023-08-15 17:51:43.852476,-195.0
2023-08-15 17:51:43.860166,-188.0
2023-08-15 17:51:43.867856,-180.0
2023-08-15 17:51:43.875545,-173.0
2023-08-15 17:51:43.883235,-166.0
2023-08-15 17:51:43.890924,-161.0
2023-08-15 17:51:43.898614,-157.0
2023-08-15 17:51:43.906304,-149.0
2023-08-15 17:51:43.913993,-140.0
2023-08-15 17:51:43.921683,-138.0
2023-08-15 17:51:43.929372,-135.0
2023-08-15 17:51:43.937062,-130.0
2023-08-15 17:51:43.944752,-133.0
2023-08-15 17:51:43.952441,-138.0
2023-08-15 17:51:43.960131,-135.0
2023-08-15 17:51:43.967821,-133.0
2023-08-15 17:51:43.975510,-138.0
2023-08-15 17:51:43.983200,-135.0
2023-08-15 17:51:43.990889,-133.0
2023-08-15 17:51:43.998579,-135.0
2023-08-15 17:51:44.006269,-138.0
2023-08-15 17:51:44.013958,-135.0
2023-08-15 17:51:44.021648,-130.0
2023-08-15 17:51:44.029337,-130.0
2023-08-15 17:51:44.037027,-130.0
2023-08-15 17:51:44.044717,-133.0
2023-08-15 17:51:44.052406,-130.0
2023-08-15 17:51:44.060096,-119.0
2023-08-15 17:51:44.067786,-107.0
2023-08-15 17:51:44.075475,-107.0
2023-08-15 17:51:44.083165,-107.0
2023-08-15 17:51:44.090854,-88.0
2023-08-15 17:51:44.098544,-71.0
2023-08-15 17:51:44.106234,-76.0
2023-08-15 17:51:44.113923,-102.0
2023-08-15 17:51:44.121613,-128.0
2023-08-15 17:51:44.129302,-126.0
2023-08-15 17:51:44.136992,-109.0
2023-08-15 17:51:44.144682,-114.0
2023-08-15 17:51:44.152371,-121.0
2023-08-15 17:51:44.160061,-90.0
2023-08-15 17:51:44.167751,30.0
2023-08-15 17:51:44.175440,299.0
2023-08-15 17:51:44.183130,542.0
2023-08-15 17:51:44.190819,373.0
2023-08-15 17:51:44.198509,-202.0
2023-08-15 17:51:44.206199,-614.0
2023-08-15 17:51:44.213888,-478.0
2023-08-15 17:51:44.221578,-154.0
2023-08-15 17:51:44.229267,-71.0
2023-08-15 17:51:44.236957,-107.0
2023-08-15 17:51:44.244647,-88.0
2023-08-15 17:51:44.252336,-73.0
2023-08-15 17:51:44.260026,-83.0
2023-08-15 17:51:44.267715,-73.0
2023-08-15 17:51:44.275405,-59.0
2023-08-15 17:51:44.283095,-54.0
2023-08-15 17:51:44.290784,-52.0
2023-08-15 17:51:44.298474,-42.0
2023-08-15 17:51:44.306164,-21.0
2023-08-15 17:51:44.313853,-7.0
2023-08-15 17:51:44.321543,-2.0
2023-08-15 17:51:44.329232,16.0
2023-08-15 17:51:44.336922,38.0
2023-08-15 17:51:44.344612,54.0
2023-08-15 17:51:44.352301,71.0
2023-08-15 17:51:44.359991,97.0
2023-08-15 17:51:44.367680,126.0
2023-08-15 17:51:44.375370,138.0
2023-08-15 17:51:44.383060,142.0
2023-08-15 17:51:44.390749,154.0
2023-08-15 17:51:44.398439,161.0
2023-08-15 17:51:44.406129,154.0
2023-08-15 17:51:44.413818,130.0
2023-08-15 17:51:44.421508,85.0
2023-08-15 17:51:44.429197,28.0
2023-08-15 17:51:44.436887,-23.0
2023-08-15 17:51:44.444577,-80.0
2023-08-15 17:51:44.452266,-133.0
2023-08-15 17:51:44.459956,-157.0
2023-08-15 17:51:44.467645,-169.0
2023-08-15 17:51:44.475335,-180.0
2023-08-15 17:51:44.483025,-183.0
2023-08-15 17:51:44.490714,-176.0
2023-08-15 17:51:44.498404,-180.0
2023-08-15 17:51:44.506094,-178.0
2023-08-15 17:51:44.513783,-169.0
2023-08-15 17:51:44.521473,-164.0
2023-08-15 17:51:44.529162,-159.0
2023-08-15 17:51:44.536852,-152.0
2023-08-15 17:51:44.544542,-142.0
2023-08-15 17:51:44.552231,-138.0
2023-08-15 17:51:44.559921,-133.0
2023-08-15 17:51:44.567610,-121.0
2023-08-15 17:51:44.575300,-114.0
2023-08-15 17:51:44.582990,-111.0
2023-08-15 17:51:44.590679,-109.0
2023-08-15 17:51:44.598369,-99.0
2023-08-15 17:51:44.606059,-95.0
2023-08-15 17:51:44.613748,-90.0
2023-08-15 17:51:44.621438,-83.0
2023-08-15 17:51:44.629127,-76.0
2023-08-15 17:51:44.636817,-78.0
2023-08-15 17:51:44.644507,-83.0
2023-08-15 17:51:44.652196,-76.0
2023-08-15 17:51:44.659886,-71.0
2023-08-15 17:51:44.667575,-80.0
2023-08-15 17:51:44.675265,-80.0
2023-08-15 17:51:44.682955,-69.0
2023-08-15 17:51:44.690644,-71.0
2023-08-15 17:51:44.698334,-73.0
2023-08-15 17:51:44.706024,-69.0
2023-08-15 17:51:44.713713,-69.0
2023-08-15 17:51:44.721403,-64.0
2023-08-15 17:51:44.729092,-61.0
2023-08-15 17:51:44.736782,-69.0
2023-08-15 17:51:44.744472,-69.0
2023-08-15 17:51:44.752161,-61.0
2023-08-15 17:51:44.759851,-52.0
2023-08-15 17:51:44.767540,-54.0
2023-08-15 17:51:44.775230,-61.0
2023-08-15 17:51:44.782920,-40.0
2023-08-15 17:51:44.790609,-21.0
2023-08-15 17:51:44.798299,-21.0
2023-08-15 17:51:44.805989,-19.0
2023-08-15 17:51:44.813678,-14.0
2023-08-15 17:51:44.821368,-30.0
2023-08-15 17:51:44.829057,-61.0
2023-08-15 17:51:44.836747,-78.0
2023-08-15 17:51:44.844437,-80.0
2023-08-15 17:51:44.852126,-78.0
2023-08-15 17:51:44.859816,-73.0
2023-08-15 17:51:44.867505,-76.0
2023-08-15 17:51:44.875195,-42.0
2023-08-15 17:51:44.882885,114.0
2023-08-15 17:51:44.890574,392.0
2023-08-15 17:51:44.898264,542.0
2023-08-15 17:51:44.905954,268.0
2023-08-15 17:51:44.913643,-290.0
2023-08-15 17:51:44.921333,-585.0
2023-08-15 17:51:44.929022,-383.0
2023-08-15 17:51:44.936712,-104.0
2023-08-15 17:51:44.944402,-69.0
2023-08-15 17:51:44.952091,-95.0
2023-08-15 17:51:44.959781,-66.0
2023-08-15 17:51:44.967470,-59.0
2023-08-15 17:51:44.975160,-71.0
2023-08-15 17:51:44.982850,-61.0
2023-08-15 17:51:44.990539,-49.0
2023-08-15 17:51:44.998229,-47.0
2023-08-15 17:51:45.005919,-42.0
2023-08-15 17:51:45.013608,-26.0
2023-08-15 17:51:45.021298,-14.0
2023-08-15 17:51:45.028987,-7.0
2023-08-15 17:51:45.036677,11.0
2023-08-15 17:51:45.044367,35.0
2023-08-15 17:51:45.052056,47.0
2023-08-15 17:51:45.059746,69.0
2023-08-15 17:51:45.067435,97.0
2023-08-15 17:51:45.075125,114.0
2023-08-15 17:51:45.082815,126.0
2023-08-15 17:51:45.090504,145.0
2023-08-15 17:51:45.098194,169.0
2023-08-15 17:51:45.105884,173.0
2023-08-15 17:51:45.113573,164.0
2023-08-15 17:51:45.121263,152.0
2023-08-15 17:51:45.128952,133.0
2023-08-15 17:51:45.136642,88.0
2023-08-15 17:51:45.144332,33.0
2023-08-15 17:51:45.152021,-14.0
2023-08-15 17:51:45.159711,-61.0
2023-08-15 17:51:45.167400,-99.0
2023-08-15 17:51:45.175090,-128.0
2023-08-15 17:51:45.182780,-147.0
2023-08-15 17:51:45.190469,-157.0
2023-08-15 17:51:45.198159,-159.0
2023-08-15 17:51:45.205849,-164.0
2023-08-15 17:51:45.213538,-164.0
2023-08-15 17:51:45.221228,-159.0
2023-08-15 17:51:45.228917,-157.0
2023-08-15 17:51:45.236607,-157.0
2023-08-15 17:51:45.244297,-152.0
2023-08-15 17:51:45.251986,-145.0
2023-08-15 17:51:45.259676,-138.0
2023-08-15 17:51:45.267365,-133.0
2023-08-15 17:51:45.275055,-128.0
2023-08-15 17:51:45.282745,-116.0
2023-08-15 17:51:45.290434,-114.0
2023-08-15 17:51:45.298124,-111.0
2023-08-15 17:51:45.305814,-104.0
2023-08-15 17:51:45.313503,-99.0
2023-08-15 17:51:45.321193,-99.0
2023-08-15 17:51:45.328882,-97.0
2023-08-15 17:51:45.336572,-90.0
2023-08-15 17:51:45.344262,-92.0
2023-08-15 17:51:45.351951,-92.0
2023-08-15 17:51:45.359641,-88.0
2023-08-15 17:51:45.367330,-90.0
2023-08-15 17:51:45.375020,-97.0
2023-08-15 17:51:45.382710,-97.0
2023-08-15 17:51:45.390399,-97.0
2023-08-15 17:51:45.398089,-92.0
2023-08-15 17:51:45.405779,-92.0
2023-08-15 17:51:45.413468,-104.0
2023-08-15 17:51:45.421158,-111.0
2023-08-15 17:51:45.428847,-99.0
2023-08-15 17:51:45.436537,-92.0
2023-08-15 17:51:45.444227,-92.0
2023-08-15 17:51:45.451916,-92.0
2023-08-15 17:51:45.459606,-95.0
2023-08-15 17:51:45.467295,-97.0
2023-08-15 17:51:45.474985,-90.0
2023-08-15 17:51:45.482675,-73.0
2023-08-15 17:51:45.490364,-64.0
2023-08-15 17:51:45.498054,-64.0
2023-08-15 17:51:45.505744,-59.0
2023-08-15 17:51:45.513433,-57.0
2023-08-15 17:51:45.521123,-66.0
2023-08-15 17:51:45.528812,-90.0
2023-08-15 17:51:45.536502,-109.0
2023-08-15 17:51:45.544192,-107.0
2023-08-15 17:51:45.551881,-99.0
2023-08-15 17:51:45.559571,-102.0
2023-08-15 17:51:45.567260,-95.0
2023-08-15 17:51:45.574950,-40.0
2023-08-15 17:51:45.582640,138.0
2023-08-15 17:51:45.590329,421.0
2023-08-15 17:51:45.598019,526.0
2023-08-15 17:51:45.605709,173.0
2023-08-15 17:51:45.613398,-385.0
2023-08-15 17:51:45.621088,-583.0
2023-08-15 17:51:45.628777,-321.0
2023-08-15 17:51:45.636467,-95.0
2023-08-15 17:51:45.644157,-102.0
2023-08-15 17:51:45.651846,-109.0
2023-08-15 17:51:45.659536,-71.0
2023-08-15 17:51:45.667225,-71.0
2023-08-15 17:51:45.674915,-73.0
2023-08-15 17:51:45.682605,-57.0
2023-08-15 17:51:45.690294,-45.0
2023-08-15 17:51:45.697984,-42.0
2023-08-15 17:51:45.705674,-28.0
2023-08-15 17:51:45.713363,-7.0
2023-08-15 17:51:45.721053,0.0
2023-08-15 17:51:45.728742,7.0
2023-08-15 17:51:45.736432,26.0
2023-08-15 17:51:45.744122,45.0
2023-08-15 17:51:45.751811,61.0
2023-08-15 17:51:45.759501,85.0
2023-08-15 17:51:45.767190,111.0
2023-08-15 17:51:45.774880,128.0
2023-08-15 17:51:45.782570,142.0
2023-08-15 17:51:45.790259,164.0
2023-08-15 17:51:45.797949,185.0
2023-08-15 17:51:45.805639,195.0
2023-08-15 17:51:45.813328,188.0
2023-08-15 17:51:45.821018,176.0
2023-08-15 17:51:45.828707,149.0
2023-08-15 17:51:45.836397,102.0
2023-08-15 17:51:45.844087,47.0
2023-08-15 17:51:45.851776,-4.0
2023-08-15 17:51:45.859466,-54.0
2023-08-15 17:51:45.867155,-95.0
2023-08-15 17:51:45.874845,-121.0
2023-08-15 17:51:45.882535,-138.0
2023-08-15 17:51:45.890224,-145.0
2023-08-15 17:51:45.897914,-147.0
2023-08-15 17:51:45.905604,-149.0
2023-08-15 17:51:45.913293,-149.0
2023-08-15 17:51:45.920983,-147.0
2023-08-15 17:51:45.928672,-142.0
2023-08-15 17:51:45.936362,-138.0
2023-08-15 17:51:45.944052,-133.0
2023-08-15 17:51:45.951741,-130.0
2023-08-15 17:51:45.959431,-133.0
2023-08-15 17:51:45.967120,-130.0
2023-08-15 17:51:45.974810,-130.0
2023-08-15 17:51:45.982500,-128.0
2023-08-15 17:51:45.990189,-114.0
2023-08-15 17:51:45.997879,-109.0
2023-08-15 17:51:46.005569,-109.0
2023-08-15 17:51:46.013258,-104.0
2023-08-15 17:51:46.020948,-102.0
2023-08-15 17:51:46.028637,-99.0
2023-08-15 17:51:46.036327,-99.0
2023-08-15 17:51:46.044017,-99.0
2023-08-15 17:51:46.051706,-95.0
2023-08-15 17:51:46.059396,-95.0
2023-08-15 17:51:46.067085,-97.0
2023-08-15 17:51:46.074775,-95.0
2023-08-15 17:51:46.082465,-95.0
2023-08-15 17:51:46.090154,-97.0
2023-08-15 17:51:46.097844,-97.0
2023-08-15 17:51:46.105534,-92.0
2023-08-15 17:51:46.113223,-90.0
2023-08-15 17:51:46.120913,-88.0
2023-08-15 17:51:46.128602,-90.0
2023-08-15 17:51:46.136292,-92.0
2023-08-15 17:51:46.143982,-88.0
2023-08-15 17:51:46.151671,-76.0
2023-08-15 17:51:46.159361,-66.0
2023-08-15 17:51:46.167050,-66.0
2023-08-15 17:51:46.174740,-57.0
2023-08-15 17:51:46.182430,-42.0
2023-08-15 17:51:46.190119,-42.0
2023-08-15 17:51:46.197809,-57.0
2023-08-15 17:51:46.205499,-80.0
2023-08-15 17:51:46.213188,-99.0
2023-08-15 17:51:46.220878,-102.0
2023-08-15 17:51:46.228567,-92.0
2023-08-15 17:51:46.236257,-88.0
2023-08-15 17:51:46.243947,-78.0
2023-08-15 17:51:46.251636,-14.0
2023-08-15 17:51:46.259326,185.0
2023-08-15 17:51:46.267015,478.0
2023-08-15 17:51:46.274705,545.0
2023-08-15 17:51:46.282395,135.0
2023-08-15 17:51:46.290084,-435.0
2023-08-15 17:51:46.297774,-599.0
2023-08-15 17:51:46.305464,-328.0
2023-08-15 17:51:46.313153,-116.0
2023-08-15 17:51:46.320843,-104.0
2023-08-15 17:51:46.328532,-92.0
2023-08-15 17:51:46.336222,-61.0
2023-08-15 17:51:46.343912,-66.0
2023-08-15 17:51:46.351601,-66.0
2023-08-15 17:51:46.359291,-47.0
2023-08-15 17:51:46.366980,-40.0
2023-08-15 17:51:46.374670,-33.0
2023-08-15 17:51:46.382360,-19.0
2023-08-15 17:51:46.390049,-7.0
2023-08-15 17:51:46.397739,4.0
2023-08-15 17:51:46.405429,19.0
2023-08-15 17:51:46.413118,35.0
2023-08-15 17:51:46.420808,52.0
2023-08-15 17:51:46.428497,73.0
2023-08-15 17:51:46.436187,92.0
2023-08-15 17:51:46.443877,114.0
2023-08-15 17:51:46.451566,138.0
2023-08-15 17:51:46.459256,157.0
2023-08-15 17:51:46.466945,173.0
2023-08-15 17:51:46.474635,183.0
2023-08-15 17:51:46.482325,183.0
2023-08-15 17:51:46.490014,178.0
2023-08-15 17:51:46.497704,164.0
2023-08-15 17:51:46.505394,133.0
2023-08-15 17:51:46.513083,88.0
2023-08-15 17:51:46.520773,28.0
2023-08-15 17:51:46.528462,-38.0
2023-08-15 17:51:46.536152,-95.0
2023-08-15 17:51:46.543842,-135.0
2023-08-15 17:51:46.551531,-161.0
2023-08-15 17:51:46.559221,-173.0
2023-08-15 17:51:46.566910,-180.0
2023-08-15 17:51:46.574600,-183.0
2023-08-15 17:51:46.582290,-183.0
2023-08-15 17:51:46.589979,-178.0
2023-08-15 17:51:46.597669,-173.0
2023-08-15 17:51:46.605359,-171.0
2023-08-15 17:51:46.613048,-164.0
2023-08-15 17:51:46.620738,-157.0
2023-08-15 17:51:46.628427,-152.0
2023-08-15 17:51:46.636117,-147.0
2023-08-15 17:51:46.643807,-135.0
2023-08-15 17:51:46.651496,-126.0
2023-08-15 17:51:46.659186,-121.0
2023-08-15 17:51:46.666875,-116.0
2023-08-15 17:51:46.674565,-114.0
2023-08-15 17:51:46.682255,-111.0
2023-08-15 17:51:46.689944,-104.0
2023-08-15 17:51:46.697634,-97.0
2023-08-15 17:51:46.705324,-99.0
2023-08-15 17:51:46.713013,-99.0
2023-08-15 17:51:46.720703,-99.0
2023-08-15 17:51:46.728392,-97.0
2023-08-15 17:51:46.736082,-97.0
2023-08-15 17:51:46.743772,-95.0
2023-08-15 17:51:46.751461,-92.0
2023-08-15 17:51:46.759151,-92.0
2023-08-15 17:51:46.766840,-97.0
2023-08-15 17:51:46.774530,-97.0
2023-08-15 17:51:46.782220,-88.0
2023-08-15 17:51:46.789909,-83.0
2023-08-15 17:51:46.797599,-83.0
2023-08-15 17:51:46.805289,-85.0
2023-08-15 17:51:46.812978,-80.0
2023-08-15 17:51:46.820668,-71.0
2023-08-15 17:51:46.828357,-69.0
2023-08-15 17:51:46.836047,-61.0
2023-08-15 17:51:46.843737,-42.0
2023-08-15 17:51:46.851426,-38.0
2023-08-15 17:51:46.859116,-47.0
2023-08-15 17:51:46.866805,-61.0
2023-08-15 17:51:46.874495,-80.0
2023-08-15 17:51:46.882185,-92.0
2023-08-15 17:51:46.889874,-85.0
2023-08-15 17:51:46.897564,-83.0
2023-08-15 17:51:46.905254,-83.0
2023-08-15 17:51:46.912943,-54.0
2023-08-15 17:51:46.920633,73.0
2023-08-15 17:51:46.928322,349.0
2023-08-15 17:51:46.936012,566.0
2023-08-15 17:51:46.943702,364.0
2023-08-15 17:51:46.951391,-218.0
2023-08-15 17:51:46.959081,-609.0
2023-08-15 17:51:46.966770,-457.0
2023-08-15 17:51:46.974460,-140.0
2023-08-15 17:51:46.982150,-76.0
2023-08-15 17:51:46.989839,-116.0
2023-08-15 17:51:46.997529,-83.0
2023-08-15 17:51:47.005219,-61.0
2023-08-15 17:51:47.012908,-76.0
2023-08-15 17:51:47.020598,-66.0
2023-08-15 17:51:47.028287,-52.0
2023-08-15 17:51:47.035977,-47.0
2023-08-15 17:51:47.043667,-35.0
2023-08-15 17:51:47.051356,-19.0
2023-08-15 17:51:47.059046,-9.0
2023-08-15 17:51:47.066735,4.0
2023-08-15 17:51:47.074425,23.0
2023-08-15 17:51:47.082115,38.0
2023-08-15 17:51:47.089804,57.0
2023-08-15 17:51:47.097494,78.0
2023-08-15 17:51:47.105184,104.0
2023-08-15 17:51:47.112873,128.0
2023-08-15 17:51:47.120563,142.0
2023-08-15 17:51:47.128252,154.0
2023-08-15 17:51:47.135942,171.0
2023-08-15 17:51:47.143632,185.0
2023-08-15 17:51:47.151321,190.0
2023-08-15 17:51:47.159011,178.0
2023-08-15 17:51:47.166700,154.0
2023-08-15 17:51:47.174390,111.0
2023-08-15 17:51:47.182080,57.0
2023-08-15 17:51:47.189769,-2.0
2023-08-15 17:51:47.197459,-57.0
2023-08-15 17:51:47.205149,-107.0
2023-08-15 17:51:47.212838,-140.0
2023-08-15 17:51:47.220528,-159.0
2023-08-15 17:51:47.228217,-166.0
2023-08-15 17:51:47.235907,-166.0
2023-08-15 17:51:47.243597,-166.0
2023-08-15 17:51:47.251286,-164.0
2023-08-15 17:51:47.258976,-164.0
2023-08-15 17:51:47.266665,-159.0
2023-08-15 17:51:47.274355,-149.0
2023-08-15 17:51:47.282045,-142.0
2023-08-15 17:51:47.289734,-138.0
2023-08-15 17:51:47.297424,-133.0
2023-08-15 17:51:47.305114,-126.0
2023-08-15 17:51:47.312803,-121.0
2023-08-15 17:51:47.320493,-114.0
2023-08-15 17:51:47.328182,-107.0
2023-08-15 17:51:47.335872,-102.0
2023-08-15 17:51:47.343562,-97.0
2023-08-15 17:51:47.351251,-95.0
2023-08-15 17:51:47.358941,-92.0
2023-08-15 17:51:47.366630,-88.0
2023-08-15 17:51:47.374320,-85.0
2023-08-15 17:51:47.382010,-85.0
2023-08-15 17:51:47.389699,-85.0
2023-08-15 17:51:47.397389,-85.0
2023-08-15 17:51:47.405079,-88.0
2023-08-15 17:51:47.412768,-88.0
2023-08-15 17:51:47.420458,-85.0
2023-08-15 17:51:47.428147,-83.0
2023-08-15 17:51:47.435837,-83.0
2023-08-15 17:51:47.443527,-85.0
2023-08-15 17:51:47.451216,-85.0
2023-08-15 17:51:47.458906,-83.0
2023-08-15 17:51:47.466595,-78.0
2023-08-15 17:51:47.474285,-76.0
2023-08-15 17:51:47.481975,-78.0
2023-08-15 17:51:47.489664,-80.0
2023-08-15 17:51:47.497354,-76.0
2023-08-15 17:51:47.505044,-69.0
2023-08-15 17:51:47.512733,-66.0
2023-08-15 17:51:47.520423,-57.0
2023-08-15 17:51:47.528112,-38.0
2023-08-15 17:51:47.535802,-38.0
2023-08-15 17:51:47.543492,-54.0
2023-08-15 17:51:47.551181,-73.0
2023-08-15 17:51:47.558871,-90.0
2023-08-15 17:51:47.566560,-90.0
2023-08-15 17:51:47.574250,-85.0
2023-08-15 17:51:47.581940,-88.0
2023-08-15 17:51:47.589629,-83.0
2023-08-15 17:51:47.597319,-35.0
2023-08-15 17:51:47.605009,140.0
2023-08-15 17:51:47.612698,437.0
2023-08-15 17:51:47.620388,547.0
2023-08-15 17:51:47.628077,190.0
2023-08-15 17:51:47.635767,-390.0
2023-08-15 17:51:47.643457,-609.0
2023-08-15 17:51:47.651146,-328.0
2023-08-15 17:51:47.658836,-73.0
2023-08-15 17:51:47.666525,-95.0
2023-08-15 17:51:47.674215,-116.0
2023-08-15 17:51:47.681905,-71.0
2023-08-15 17:51:47.689594,-76.0
2023-08-15 17:51:47.697284,-85.0
2023-08-15 17:51:47.704974,-69.0
2023-08-15 17:51:47.712663,-57.0
2023-08-15 17:51:47.720353,-52.0
2023-08-15 17:51:47.728042,-40.0
2023-08-15 17:51:47.735732,-23.0
2023-08-15 17:51:47.743422,-11.0
2023-08-15 17:51:47.751111,2.0
2023-08-15 17:51:47.758801,16.0
2023-08-15 17:51:47.766490,33.0
2023-08-15 17:51:47.774180,57.0
2023-08-15 17:51:47.781870,80.0
2023-08-15 17:51:47.789559,102.0
2023-08-15 17:51:47.797249,121.0
2023-08-15 17:51:47.804939,140.0
2023-08-15 17:51:47.812628,159.0
2023-08-15 17:51:47.820318,173.0
2023-08-15 17:51:47.828007,180.0
2023-08-15 17:51:47.835697,180.0
2023-08-15 17:51:47.843387,166.0
2023-08-15 17:51:47.851076,140.0
2023-08-15 17:51:47.858766,99.0
2023-08-15 17:51:47.866455,42.0
2023-08-15 17:51:47.874145,-16.0
2023-08-15 17:51:47.881835,-66.0
2023-08-15 17:51:47.889524,-104.0
2023-08-15 17:51:47.897214,-133.0
2023-08-15 17:51:47.904904,-149.0
2023-08-15 17:51:47.912593,-157.0
2023-08-15 17:51:47.920283,-159.0
2023-08-15 17:51:47.927972,-157.0
2023-08-15 17:51:47.935662,-157.0
2023-08-15 17:51:47.943352,-157.0
2023-08-15 17:51:47.951041,-152.0
2023-08-15 17:51:47.958731,-147.0
2023-08-15 17:51:47.966420,-142.0
2023-08-15 17:51:47.974110,-135.0
2023-08-15 17:51:47.981800,-133.0
2023-08-15 17:51:47.989489,-130.0
2023-08-15 17:51:47.997179,-130.0
2023-08-15 17:51:48.004869,-128.0
2023-08-15 17:51:48.012558,-121.0
2023-08-15 17:51:48.020248,-116.0
2023-08-15 17:51:48.027937,-116.0
2023-08-15 17:51:48.035627,-111.0
2023-08-15 17:51:48.043317,-107.0
2023-08-15 17:51:48.051006,-104.0
2023-08-15 17:51:48.058696,-102.0
2023-08-15 17:51:48.066385,-99.0
2023-08-15 17:51:48.074075,-102.0
2023-08-15 17:51:48.081765,-104.0
2023-08-15 17:51:48.089454,-99.0
2023-08-15 17:51:48.097144,-99.0
2023-08-15 17:51:48.104834,-97.0
2023-08-15 17:51:48.112523,-97.0
2023-08-15 17:51:48.120213,-97.0
2023-08-15 17:51:48.127902,-95.0
2023-08-15 17:51:48.135592,-95.0
2023-08-15 17:51:48.143282,-92.0
2023-08-15 17:51:48.150971,-88.0
2023-08-15 17:51:48.158661,-85.0
2023-08-15 17:51:48.166350,-85.0
2023-08-15 17:51:48.174040,-80.0
2023-08-15 17:51:48.181730,-76.0
2023-08-15 17:51:48.189419,-73.0
2023-08-15 17:51:48.197109,-76.0
2023-08-15 17:51:48.204799,-66.0
2023-08-15 17:51:48.212488,-57.0
2023-08-15 17:51:48.220178,-57.0
2023-08-15 17:51:48.227867,-73.0
2023-08-15 17:51:48.235557,-95.0
2023-08-15 17:51:48.243247,-107.0
2023-08-15 17:51:48.250936,-102.0
2023-08-15 17:51:48.258626,-97.0
2023-08-15 17:51:48.266315,-97.0
2023-08-15 17:51:48.274005,-90.0
2023-08-15 17:51:48.281695,-14.0
2023-08-15 17:51:48.289384,202.0
2023-08-15 17:51:48.297074,485.0
2023-08-15 17:51:48.304764,487.0
2023-08-15 17:51:48.312453,26.0
2023-08-15 17:51:48.320143,-507.0
2023-08-15 17:51:48.327832,-573.0
2023-08-15 17:51:48.335522,-240.0
2023-08-15 17:51:48.343212,-57.0
2023-08-15 17:51:48.350901,-102.0
2023-08-15 17:51:48.358591,-97.0
2023-08-15 17:51:48.366280,-59.0
2023-08-15 17:51:48.373970,-76.0
2023-08-15 17:51:48.381660,-83.0
2023-08-15 17:51:48.389349,-64.0
2023-08-15 17:51:48.397039,-52.0
2023-08-15 17:51:48.404729,-47.0
2023-08-15 17:51:48.412418,-35.0
2023-08-15 17:51:48.420108,-23.0
2023-08-15 17:51:48.427797,-11.0
2023-08-15 17:51:48.435487,2.0
2023-08-15 17:51:48.443177,21.0
2023-08-15 17:51:48.450866,38.0
2023-08-15 17:51:48.458556,52.0
2023-08-15 17:51:48.466245,73.0
2023-08-15 17:51:48.473935,97.0
2023-08-15 17:51:48.481625,119.0
2023-08-15 17:51:48.489314,135.0
2023-08-15 17:51:48.497004,147.0
2023-08-15 17:51:48.504694,157.0
2023-08-15 17:51:48.512383,164.0
2023-08-15 17:51:48.520073,154.0
2023-08-15 17:51:48.527762,135.0
2023-08-15 17:51:48.535452,111.0
2023-08-15 17:51:48.543142,73.0
2023-08-15 17:51:48.550831,14.0
2023-08-15 17:51:48.558521,-45.0
2023-08-15 17:51:48.566210,-90.0
2023-08-15 17:51:48.573900,-126.0
2023-08-15 17:51:48.581590,-149.0
2023-08-15 17:51:48.589279,-164.0
2023-08-15 17:51:48.596969,-171.0
2023-08-15 17:51:48.604659,-171.0
2023-08-15 17:51:48.612348,-166.0
2023-08-15 17:51:48.620038,-164.0
2023-08-15 17:51:48.627727,-159.0
2023-08-15 17:51:48.635417,-152.0
2023-08-15 17:51:48.643107,-147.0
2023-08-15 17:51:48.650796,-145.0
2023-08-15 17:51:48.658486,-140.0
2023-08-15 17:51:48.666175,-135.0
2023-08-15 17:51:48.673865,-130.0
2023-08-15 17:51:48.681555,-123.0
2023-08-15 17:51:48.689244,-116.0
2023-08-15 17:51:48.696934,-116.0
2023-08-15 17:51:48.704624,-119.0
2023-08-15 17:51:48.712313,-111.0
2023-08-15 17:51:48.720003,-104.0
2023-08-15 17:51:48.727692,-104.0
2023-08-15 17:51:48.735382,-109.0
2023-08-15 17:51:48.743072,-114.0
2023-08-15 17:51:48.750761,-116.0
2023-08-15 17:51:48.758451,-111.0
2023-08-15 17:51:48.766140,-109.0
2023-08-15 17:51:48.773830,-109.0
2023-08-15 17:51:48.781520,-114.0
2023-08-15 17:51:48.789209,-116.0
2023-08-15 17:51:48.796899,-111.0
2023-08-15 17:51:48.804589,-104.0
2023-08-15 17:51:48.812278,-107.0
2023-08-15 17:51:48.819968,-104.0
2023-08-15 17:51:48.827657,-102.0
2023-08-15 17:51:48.835347,-104.0
2023-08-15 17:51:48.843037,-99.0
2023-08-15 17:51:48.850726,-88.0
2023-08-15 17:51:48.858416,-85.0
2023-08-15 17:51:48.866105,-83.0
2023-08-15 17:51:48.873795,-71.0
2023-08-15 17:51:48.881485,-54.0
2023-08-15 17:51:48.889174,-49.0
2023-08-15 17:51:48.896864,-59.0
2023-08-15 17:51:48.904554,-78.0
2023-08-15 17:51:48.912243,-92.0
2023-08-15 17:51:48.919933,-97.0
2023-08-15 17:51:48.927622,-95.0
2023-08-15 17:51:48.935312,-90.0
2023-08-15 17:51:48.943002,-83.0
2023-08-15 17:51:48.950691,-47.0
2023-08-15 17:51:48.958381,95.0
2023-08-15 17:51:48.966070,378.0
2023-08-15 17:51:48.973760,557.0
2023-08-15 17:51:48.981450,302.0
2023-08-15 17:51:48.989139,-271.0
2023-08-15 17:51:48.996829,-599.0
2023-08-15 17:51:49.004519,-418.0
2023-08-15 17:51:49.012208,-142.0
2023-08-15 17:51:49.019898,-102.0
2023-08-15 17:51:49.027587,-119.0
2023-08-15 17:51:49.035277,-83.0
2023-08-15 17:51:49.042967,-78.0
2023-08-15 17:51:49.050656,-85.0
2023-08-15 17:51:49.058346,-76.0
2023-08-15 17:51:49.066035,-64.0
2023-08-15 17:51:49.073725,-57.0
2023-08-15 17:51:49.081415,-42.0
2023-08-15 17:51:49.089104,-30.0
2023-08-15 17:51:49.096794,-26.0
2023-08-15 17:51:49.104484,-14.0
2023-08-15 17:51:49.112173,7.0
2023-08-15 17:51:49.119863,23.0
2023-08-15 17:51:49.127552,35.0
2023-08-15 17:51:49.135242,59.0
2023-08-15 17:51:49.142932,83.0
2023-08-15 17:51:49.150621,97.0
2023-08-15 17:51:49.158311,111.0
2023-08-15 17:51:49.166000,133.0
2023-08-15 17:51:49.173690,147.0
2023-08-15 17:51:49.181380,147.0
2023-08-15 17:51:49.189069,145.0
2023-08-15 17:51:49.196759,135.0
2023-08-15 17:51:49.204449,111.0
2023-08-15 17:51:49.212138,73.0
2023-08-15 17:51:49.219828,30.0
2023-08-15 17:51:49.227517,-26.0
2023-08-15 17:51:49.235207,-88.0
2023-08-15 17:51:49.242897,-128.0
2023-08-15 17:51:49.250586,-149.0
2023-08-15 17:51:49.258276,-166.0
2023-08-15 17:51:49.265965,-176.0
2023-08-15 17:51:49.273655,-178.0
2023-08-15 17:51:49.281345,-173.0
2023-08-15 17:51:49.289034,-173.0
2023-08-15 17:51:49.296724,-176.0
2023-08-15 17:51:49.304414,-166.0
2023-08-15 17:51:49.312103,-154.0
2023-08-15 17:51:49.319793,-157.0
2023-08-15 17:51:49.327482,-159.0
2023-08-15 17:51:49.335172,-149.0
2023-08-15 17:51:49.342862,-140.0
2023-08-15 17:51:49.350551,-135.0
2023-08-15 17:51:49.358241,-128.0
2023-08-15 17:51:49.365930,-121.0
2023-08-15 17:51:49.373620,-119.0
2023-08-15 17:51:49.381310,-119.0
2023-08-15 17:51:49.388999,-111.0
2023-08-15 17:51:49.396689,-104.0
2023-08-15 17:51:49.404379,-104.0
2023-08-15 17:51:49.412068,-109.0
2023-08-15 17:51:49.419758,-111.0
2023-08-15 17:51:49.427447,-107.0
2023-08-15 17:51:49.435137,-109.0
2023-08-15 17:51:49.442827,-111.0
2023-08-15 17:51:49.450516,-109.0
2023-08-15 17:51:49.458206,-104.0
2023-08-15 17:51:49.465895,-104.0
2023-08-15 17:51:49.473585,-99.0
2023-08-15 17:51:49.481275,-97.0
2023-08-15 17:51:49.488964,-102.0
2023-08-15 17:51:49.496654,-102.0
2023-08-15 17:51:49.504344,-95.0
2023-08-15 17:51:49.512033,-95.0
2023-08-15 17:51:49.519723,-95.0
2023-08-15 17:51:49.527412,-78.0
2023-08-15 17:51:49.535102,-61.0
2023-08-15 17:51:49.542792,-64.0
2023-08-15 17:51:49.550481,-80.0
2023-08-15 17:51:49.558171,-99.0
2023-08-15 17:51:49.565860,-109.0
2023-08-15 17:51:49.573550,-99.0
2023-08-15 17:51:49.581240,-92.0
2023-08-15 17:51:49.588929,-97.0
2023-08-15 17:51:49.596619,-76.0
2023-08-15 17:51:49.604309,26.0
2023-08-15 17:51:49.611998,264.0
2023-08-15 17:51:49.619688,528.0
2023-08-15 17:51:49.627377,461.0
2023-08-15 17:51:49.635067,-52.0
2023-08-15 17:51:49.642757,-545.0
2023-08-15 17:51:49.650446,-533.0
2023-08-15 17:51:49.658136,-216.0
2023-08-15 17:51:49.665825,-76.0
2023-08-15 17:51:49.673515,-97.0
2023-08-15 17:51:49.681205,-71.0
2023-08-15 17:51:49.688894,-47.0
2023-08-15 17:51:49.696584,-59.0
2023-08-15 17:51:49.704274,-52.0
2023-08-15 17:51:49.711963,-35.0
2023-08-15 17:51:49.719653,-33.0
2023-08-15 17:51:49.727342,-30.0
2023-08-15 17:51:49.735032,-16.0
2023-08-15 17:51:49.742722,-2.0
2023-08-15 17:51:49.750411,7.0
2023-08-15 17:51:49.758101,19.0
2023-08-15 17:51:49.765790,35.0
2023-08-15 17:51:49.773480,52.0
2023-08-15 17:51:49.781170,69.0
2023-08-15 17:51:49.788859,90.0
2023-08-15 17:51:49.796549,109.0
2023-08-15 17:51:49.804239,128.0
2023-08-15 17:51:49.811928,154.0
2023-08-15 17:51:49.819618,169.0
2023-08-15 17:51:49.827307,166.0
2023-08-15 17:51:49.834997,171.0
2023-08-15 17:51:49.842687,166.0
2023-08-15 17:51:49.850376,149.0
2023-08-15 17:51:49.858066,119.0
2023-08-15 17:51:49.865755,66.0
2023-08-15 17:51:49.873445,14.0
2023-08-15 17:51:49.881135,-35.0
2023-08-15 17:51:49.888824,-80.0
2023-08-15 17:51:49.896514,-109.0
2023-08-15 17:51:49.904204,-130.0
2023-08-15 17:51:49.911893,-157.0
2023-08-15 17:51:49.919583,-169.0
2023-08-15 17:51:49.927272,-159.0
2023-08-15 17:51:49.934962,-157.0
2023-08-15 17:51:49.942652,-159.0
2023-08-15 17:51:49.950341,-154.0
2023-08-15 17:51:49.958031,-152.0
2023-08-15 17:51:49.965720,-149.0
2023-08-15 17:51:49.973410,-138.0
2023-08-15 17:51:49.981100,-130.0
2023-08-15 17:51:49.988789,-135.0
2023-08-15 17:51:49.996479,-133.0
2023-08-15 17:51:50.004169,-123.0
2023-08-15 17:51:50.011858,-126.0
2023-08-15 17:51:50.019548,-123.0
2023-08-15 17:51:50.027237,-111.0
2023-08-15 17:51:50.034927,-109.0
2023-08-15 17:51:50.042617,-111.0
2023-08-15 17:51:50.050306,-111.0
2023-08-15 17:51:50.057996,-109.0
2023-08-15 17:51:50.065685,-107.0
2023-08-15 17:51:50.073375,-109.0
2023-08-15 17:51:50.081065,-109.0
2023-08-15 17:51:50.088754,-109.0
2023-08-15 17:51:50.096444,-109.0
2023-08-15 17:51:50.104134,-107.0
2023-08-15 17:51:50.111823,-104.0
2023-08-15 17:51:50.119513,-97.0
2023-08-15 17:51:50.127202,-90.0
2023-08-15 17:51:50.134892,-90.0
2023-08-15 17:51:50.142582,-92.0
2023-08-15 17:51:50.150271,-83.0
2023-08-15 17:51:50.157961,-80.0
2023-08-15 17:51:50.165650,-73.0
2023-08-15 17:51:50.173340,-54.0
2023-08-15 17:51:50.181030,-42.0
2023-08-15 17:51:50.188719,-49.0
2023-08-15 17:51:50.196409,-69.0
2023-08-15 17:51:50.204099,-92.0
2023-08-15 17:51:50.211788,-95.0
2023-08-15 17:51:50.219478,-80.0
2023-08-15 17:51:50.227167,-76.0
2023-08-15 17:51:50.234857,-78.0
2023-08-15 17:51:50.242547,-61.0
2023-08-15 17:51:50.250236,28.0
2023-08-15 17:51:50.257926,264.0
2023-08-15 17:51:50.265615,530.0
2023-08-15 17:51:50.273305,464.0
2023-08-15 17:51:50.280995,-30.0
2023-08-15 17:51:50.288684,-495.0
2023-08-15 17:51:50.296374,-487.0
2023-08-15 17:51:50.304064,-183.0
2023-08-15 17:51:50.311753,-42.0
2023-08-15 17:51:50.319443,-73.0
2023-08-15 17:51:50.327132,-61.0
2023-08-15 17:51:50.334822,-33.0
2023-08-15 17:51:50.342512,-40.0
2023-08-15 17:51:50.350201,-38.0
2023-08-15 17:51:50.357891,-23.0
2023-08-15 17:51:50.365580,-19.0
2023-08-15 17:51:50.373270,-11.0
2023-08-15 17:51:50.380960,-2.0
2023-08-15 17:51:50.388649,4.0
2023-08-15 17:51:50.396339,14.0
2023-08-15 17:51:50.404029,28.0
2023-08-15 17:51:50.411718,40.0
2023-08-15 17:51:50.419408,47.0
2023-08-15 17:51:50.427097,66.0
2023-08-15 17:51:50.434787,88.0
2023-08-15 17:51:50.442477,99.0
2023-08-15 17:51:50.450166,114.0
2023-08-15 17:51:50.457856,123.0
2023-08-15 17:51:50.465545,130.0
2023-08-15 17:51:50.473235,140.0
2023-08-15 17:51:50.480925,145.0
2023-08-15 17:51:50.488614,140.0
2023-08-15 17:51:50.496304,123.0
2023-08-15 17:51:50.503994,90.0
2023-08-15 17:51:50.511683,40.0
2023-08-15 17:51:50.519373,-9.0
2023-08-15 17:51:50.527062,-54.0
2023-08-15 17:51:50.534752,-95.0
2023-08-15 17:51:50.542442,-130.0
2023-08-15 17:51:50.550131,-149.0
2023-08-15 17:51:50.557821,-154.0
2023-08-15 17:51:50.565510,-159.0
2023-08-15 17:51:50.573200,-164.0
2023-08-15 17:51:50.580890,-159.0
2023-08-15 17:51:50.588579,-154.0
2023-08-15 17:51:50.596269,-152.0
2023-08-15 17:51:50.603959,-145.0
2023-08-15 17:51:50.611648,-140.0
2023-08-15 17:51:50.619338,-138.0
2023-08-15 17:51:50.627027,-130.0
2023-08-15 17:51:50.634717,-126.0
2023-08-15 17:51:50.642407,-126.0
2023-08-15 17:51:50.650096,-123.0
2023-08-15 17:51:50.657786,-114.0
2023-08-15 17:51:50.665475,-111.0
2023-08-15 17:51:50.673165,-111.0
2023-08-15 17:51:50.680855,-102.0
2023-08-15 17:51:50.688544,-99.0
2023-08-15 17:51:50.696234,-99.0
2023-08-15 17:51:50.703924,-97.0
2023-08-15 17:51:50.711613,-97.0
2023-08-15 17:51:50.719303,-102.0
2023-08-15 17:51:50.726992,-99.0
2023-08-15 17:51:50.734682,-95.0
2023-08-15 17:51:50.742372,-95.0
2023-08-15 17:51:50.750061,-92.0
2023-08-15 17:51:50.757751,-88.0
2023-08-15 17:51:50.765440,-88.0
2023-08-15 17:51:50.773130,-92.0
2023-08-15 17:51:50.780820,-85.0
2023-08-15 17:51:50.788509,-73.0
2023-08-15 17:51:50.796199,-73.0
2023-08-15 17:51:50.803889,-71.0
2023-08-15 17:51:50.811578,-57.0
2023-08-15 17:51:50.819268,-47.0
2023-08-15 17:51:50.826957,-47.0
2023-08-15 17:51:50.834647,-59.0
2023-08-15 17:51:50.842337,-80.0
2023-08-15 17:51:50.850026,-95.0
2023-08-15 17:51:50.857716,-88.0
2023-08-15 17:51:50.865405,-80.0
2023-08-15 17:51:50.873095,-90.0
2023-08-15 17:51:50.880785,-76.0
2023-08-15 17:51:50.888474,19.0
2023-08-15 17:51:50.896164,242.0
2023-08-15 17:51:50.903854,514.0
2023-08-15 17:51:50.911543,490.0
2023-08-15 17:51:50.919233,14.0
2023-08-15 17:51:50.926922,-487.0
2023-08-15 17:51:50.934612,-511.0
2023-08-15 17:51:50.942302,-202.0
2023-08-15 17:51:50.949991,-59.0
2023-08-15 17:51:50.957681,-92.0
2023-08-15 17:51:50.965370,-73.0
2023-08-15 17:51:50.973060,-40.0
2023-08-15 17:51:50.980750,-57.0
2023-08-15 17:51:50.988439,-59.0
2023-08-15 17:51:50.996129,-45.0
2023-08-15 17:51:51.003819,-42.0
2023-08-15 17:51:51.011508,-38.0
2023-08-15 17:51:51.019198,-21.0
2023-08-15 17:51:51.026887,-7.0
2023-08-15 17:51:51.034577,2.0
2023-08-15 17:51:51.042267,11.0
2023-08-15 17:51:51.049956,26.0
2023-08-15 17:51:51.057646,52.0
2023-08-15 17:51:51.065335,69.0
2023-08-15 17:51:51.073025,71.0
2023-08-15 17:51:51.080715,88.0
2023-08-15 17:51:51.088404,111.0
2023-08-15 17:51:51.096094,126.0
2023-08-15 17:51:51.103784,138.0
2023-08-15 17:51:51.111473,147.0
2023-08-15 17:51:51.119163,142.0
2023-08-15 17:51:51.126852,140.0
2023-08-15 17:51:51.134542,128.0
2023-08-15 17:51:51.142232,92.0
2023-08-15 17:51:51.149921,38.0
2023-08-15 17:51:51.157611,-9.0
2023-08-15 17:51:51.165300,-54.0
2023-08-15 17:51:51.172990,-102.0
2023-08-15 17:51:51.180680,-138.0
2023-08-15 17:51:51.188369,-152.0
2023-08-15 17:51:51.196059,-159.0
2023-08-15 17:51:51.203749,-169.0
2023-08-15 17:51:51.211438,-166.0
2023-08-15 17:51:51.219128,-164.0
2023-08-15 17:51:51.226817,-166.0
2023-08-15 17:51:51.234507,-164.0
2023-08-15 17:51:51.242197,-152.0
2023-08-15 17:51:51.249886,-147.0
2023-08-15 17:51:51.257576,-145.0
2023-08-15 17:51:51.265265,-138.0
2023-08-15 17:51:51.272955,-138.0
2023-08-15 17:51:51.280645,-133.0
2023-08-15 17:51:51.288334,-126.0
2023-08-15 17:51:51.296024,-121.0
2023-08-15 17:51:51.303714,-111.0
2023-08-15 17:51:51.311403,-109.0
2023-08-15 17:51:51.319093,-111.0
2023-08-15 17:51:51.326782,-109.0
2023-08-15 17:51:51.334472,-107.0
2023-08-15 17:51:51.342162,-107.0
2023-08-15 17:51:51.349851,-104.0
2023-08-15 17:51:51.357541,-104.0
2023-08-15 17:51:51.365230,-99.0
2023-08-15 17:51:51.372920,-102.0
2023-08-15 17:51:51.380610,-104.0
2023-08-15 17:51:51.388299,-107.0
2023-08-15 17:51:51.395989,-109.0
2023-08-15 17:51:51.403679,-104.0
2023-08-15 17:51:51.411368,-92.0
2023-08-15 17:51:51.419058,-97.0
2023-08-15 17:51:51.426747,-92.0
2023-08-15 17:51:51.434437,-71.0
2023-08-15 17:51:51.442127,-64.0
2023-08-15 17:51:51.449816,-69.0
2023-08-15 17:51:51.457506,-85.0
2023-08-15 17:51:51.465195,-111.0
2023-08-15 17:51:51.472885,-119.0
2023-08-15 17:51:51.480575,-102.0
2023-08-15 17:51:51.488264,-97.0
2023-08-15 17:51:51.495954,-99.0
2023-08-15 17:51:51.503644,-71.0
2023-08-15 17:51:51.511333,52.0
2023-08-15 17:51:51.519023,326.0
2023-08-15 17:51:51.526712,561.0
2023-08-15 17:51:51.534402,388.0
2023-08-15 17:51:51.542092,-180.0
2023-08-15 17:51:51.549781,-580.0
2023-08-15 17:51:51.557471,-466.0
2023-08-15 17:51:51.565160,-185.0
2023-08-15 17:51:51.572850,-109.0
2023-08-15 17:51:51.580540,-126.0
2023-08-15 17:51:51.588229,-102.0
2023-08-15 17:51:51.595919,-88.0
2023-08-15 17:51:51.603609,-92.0
2023-08-15 17:51:51.611298,-76.0
2023-08-15 17:51:51.618988,-59.0
2023-08-15 17:51:51.626677,-57.0
2023-08-15 17:51:51.634367,-47.0
2023-08-15 17:51:51.642057,-33.0
2023-08-15 17:51:51.649746,-21.0
2023-08-15 17:51:51.657436,-4.0
2023-08-15 17:51:51.665125,14.0
2023-08-15 17:51:51.672815,23.0
2023-08-15 17:51:51.680505,38.0
2023-08-15 17:51:51.688194,61.0
2023-08-15 17:51:51.695884,83.0
2023-08-15 17:51:51.703574,104.0
2023-08-15 17:51:51.711263,123.0
2023-08-15 17:51:51.718953,140.0
2023-08-15 17:51:51.726642,152.0
2023-08-15 17:51:51.734332,159.0
2023-08-15 17:51:51.742022,159.0
2023-08-15 17:51:51.749711,149.0
2023-08-15 17:51:51.757401,123.0
2023-08-15 17:51:51.765090,78.0
2023-08-15 17:51:51.772780,26.0
2023-08-15 17:51:51.780470,-30.0
2023-08-15 17:51:51.788159,-76.0
2023-08-15 17:51:51.795849,-111.0
2023-08-15 17:51:51.803539,-142.0
2023-08-15 17:51:51.811228,-164.0
2023-08-15 17:51:51.818918,-171.0
2023-08-15 17:51:51.826607,-171.0
2023-08-15 17:51:51.834297,-171.0
2023-08-15 17:51:51.841987,-171.0
2023-08-15 17:51:51.849676,-169.0
2023-08-15 17:51:51.857366,-161.0
2023-08-15 17:51:51.865055,-154.0
2023-08-15 17:51:51.872745,-152.0
2023-08-15 17:51:51.880435,-147.0
2023-08-15 17:51:51.888124,-138.0
2023-08-15 17:51:51.895814,-133.0
2023-08-15 17:51:51.903504,-130.0
2023-08-15 17:51:51.911193,-121.0
2023-08-15 17:51:51.918883,-116.0
2023-08-15 17:51:51.926572,-114.0
2023-08-15 17:51:51.934262,-109.0
2023-08-15 17:51:51.941952,-107.0
2023-08-15 17:51:51.949641,-104.0
2023-08-15 17:51:51.957331,-102.0
2023-08-15 17:51:51.965020,-99.0
2023-08-15 17:51:51.972710,-99.0
2023-08-15 17:51:51.980400,-97.0
2023-08-15 17:51:51.988089,-95.0
2023-08-15 17:51:51.995779,-92.0
2023-08-15 17:51:52.003468,-92.0
2023-08-15 17:51:52.011158,-92.0
2023-08-15 17:51:52.018848,-88.0
2023-08-15 17:51:52.026537,-85.0
2023-08-15 17:51:52.034227,-90.0
2023-08-15 17:51:52.041917,-83.0
2023-08-15 17:51:52.049606,-59.0
2023-08-15 17:51:52.057296,-45.0
2023-08-15 17:51:52.064985,-49.0
2023-08-15 17:51:52.072675,-64.0
2023-08-15 17:51:52.080365,-85.0
2023-08-15 17:51:52.088054,-95.0
2023-08-15 17:51:52.095744,-85.0
2023-08-15 17:51:52.103433,-78.0
2023-08-15 17:51:52.111123,-80.0
2023-08-15 17:51:52.118813,-61.0
2023-08-15 17:51:52.126502,35.0
2023-08-15 17:51:52.134192,280.0
2023-08-15 17:51:52.141882,549.0
2023-08-15 17:51:52.149571,471.0
2023-08-15 17:51:52.157261,-52.0
2023-08-15 17:51:52.164950,-549.0
2023-08-15 17:51:52.172640,-528.0
2023-08-15 17:51:52.180330,-195.0
2023-08-15 17:51:52.188019,-57.0
2023-08-15 17:51:52.195709,-97.0
2023-08-15 17:51:52.203398,-80.0
2023-08-15 17:51:52.211088,-49.0
2023-08-15 17:51:52.218778,-61.0
2023-08-15 17:51:52.226467,-57.0
2023-08-15 17:51:52.234157,-40.0
2023-08-15 17:51:52.241847,-33.0
2023-08-15 17:51:52.249536,-26.0
2023-08-15 17:51:52.257226,-9.0
2023-08-15 17:51:52.264915,4.0
2023-08-15 17:51:52.272605,14.0
2023-08-15 17:51:52.280295,28.0
2023-08-15 17:51:52.287984,47.0
2023-08-15 17:51:52.295674,66.0
2023-08-15 17:51:52.303363,85.0
2023-08-15 17:51:52.311053,104.0
2023-08-15 17:51:52.318743,123.0
2023-08-15 17:51:52.326432,147.0
2023-08-15 17:51:52.334122,166.0
2023-08-15 17:51:52.341812,173.0
2023-08-15 17:51:52.349501,178.0
2023-08-15 17:51:52.357191,178.0
2023-08-15 17:51:52.364880,166.0
2023-08-15 17:51:52.372570,142.0
2023-08-15 17:51:52.380260,104.0
2023-08-15 17:51:52.387949,49.0
2023-08-15 17:51:52.395639,-7.0
2023-08-15 17:51:52.403328,-54.0
2023-08-15 17:51:52.411018,-92.0
2023-08-15 17:51:52.418708,-121.0
2023-08-15 17:51:52.426397,-142.0
2023-08-15 17:51:52.434087,-159.0
2023-08-15 17:51:52.441777,-164.0
2023-08-15 17:51:52.449466,-164.0
2023-08-15 17:51:52.457156,-166.0
2023-08-15 17:51:52.464845,-161.0
2023-08-15 17:51:52.472535,-157.0
2023-08-15 17:51:52.480225,-154.0
2023-08-15 17:51:52.487914,-149.0
2023-08-15 17:51:52.495604,-142.0
2023-08-15 17:51:52.503293,-135.0
2023-08-15 17:51:52.510983,-130.0
2023-08-15 17:51:52.518673,-126.0
2023-08-15 17:51:52.526362,-123.0
2023-08-15 17:51:52.534052,-126.0
2023-08-15 17:51:52.541742,-121.0
2023-08-15 17:51:52.549431,-114.0
2023-08-15 17:51:52.557121,-111.0
2023-08-15 17:51:52.564810,-111.0
2023-08-15 17:51:52.572500,-111.0
2023-08-15 17:51:52.580190,-107.0
2023-08-15 17:51:52.587879,-104.0
2023-08-15 17:51:52.595569,-104.0
2023-08-15 17:51:52.603258,-104.0
2023-08-15 17:51:52.610948,-104.0
2023-08-15 17:51:52.618638,-104.0
2023-08-15 17:51:52.626327,-107.0
2023-08-15 17:51:52.634017,-104.0
2023-08-15 17:51:52.641707,-95.0
2023-08-15 17:51:52.649396,-88.0
2023-08-15 17:51:52.657086,-92.0
2023-08-15 17:51:52.664775,-88.0
2023-08-15 17:51:52.672465,-69.0
2023-08-15 17:51:52.680155,-57.0
2023-08-15 17:51:52.687844,-64.0
2023-08-15 17:51:52.695534,-80.0
2023-08-15 17:51:52.703223,-109.0
2023-08-15 17:51:52.710913,-126.0
2023-08-15 17:51:52.718603,-111.0
2023-08-15 17:51:52.726292,-102.0
2023-08-15 17:51:52.733982,-107.0
2023-08-15 17:51:52.741672,-95.0
2023-08-15 17:51:52.749361,-11.0
2023-08-15 17:51:52.757051,214.0
2023-08-15 17:51:52.764740,499.0
2023-08-15 17:51:52.772430,485.0
2023-08-15 17:51:52.780120,11.0
2023-08-15 17:51:52.787809,-504.0
2023-08-15 17:51:52.795499,-545.0
2023-08-15 17:51:52.803188,-223.0
2023-08-15 17:51:52.810878,-61.0
2023-08-15 17:51:52.818568,-99.0
2023-08-15 17:51:52.826257,-90.0
2023-08-15 17:51:52.833947,-57.0
2023-08-15 17:51:52.841637,-69.0
2023-08-15 17:51:52.849326,-66.0
2023-08-15 17:51:52.857016,-47.0
2023-08-15 17:51:52.864705,-42.0
2023-08-15 17:51:52.872395,-35.0
2023-08-15 17:51:52.880085,-19.0
2023-08-15 17:51:52.887774,-9.0
2023-08-15 17:51:52.895464,2.0
2023-08-15 17:51:52.903153,19.0
2023-08-15 17:51:52.910843,38.0
2023-08-15 17:51:52.918533,54.0
2023-08-15 17:51:52.926222,71.0
2023-08-15 17:51:52.933912,92.0
2023-08-15 17:51:52.941602,114.0
2023-08-15 17:51:52.949291,135.0
2023-08-15 17:51:52.956981,152.0
2023-08-15 17:51:52.964670,164.0
2023-08-15 17:51:52.972360,169.0
2023-08-15 17:51:52.980050,171.0
2023-08-15 17:51:52.987739,164.0
2023-08-15 17:51:52.995429,140.0
2023-08-15 17:51:53.003118,107.0
2023-08-15 17:51:53.010808,64.0
2023-08-15 17:51:53.018498,7.0
2023-08-15 17:51:53.026187,-47.0
2023-08-15 17:51:53.033877,-92.0
2023-08-15 17:51:53.041567,-123.0
2023-08-15 17:51:53.049256,-140.0
2023-08-15 17:51:53.056946,-152.0
2023-08-15 17:51:53.064635,-157.0
2023-08-15 17:51:53.072325,-159.0
2023-08-15 17:51:53.080015,-161.0
2023-08-15 17:51:53.087704,-161.0
2023-08-15 17:51:53.095394,-154.0
2023-08-15 17:51:53.103083,-152.0
2023-08-15 17:51:53.110773,-154.0
2023-08-15 17:51:53.118463,-149.0
2023-08-15 17:51:53.126152,-140.0
2023-08-15 17:51:53.133842,-133.0
2023-08-15 17:51:53.141532,-128.0
2023-08-15 17:51:53.149221,-126.0
2023-08-15 17:51:53.156911,-123.0
2023-08-15 17:51:53.164600,-121.0
2023-08-15 17:51:53.172290,-114.0
2023-08-15 17:51:53.179980,-109.0
2023-08-15 17:51:53.187669,-107.0
2023-08-15 17:51:53.195359,-107.0
2023-08-15 17:51:53.203048,-107.0
2023-08-15 17:51:53.210738,-104.0
2023-08-15 17:51:53.218428,-104.0
2023-08-15 17:51:53.226117,-107.0
2023-08-15 17:51:53.233807,-104.0
2023-08-15 17:51:53.241497,-102.0
2023-08-15 17:51:53.249186,-104.0
2023-08-15 17:51:53.256876,-107.0
2023-08-15 17:51:53.264565,-107.0
2023-08-15 17:51:53.272255,-97.0
2023-08-15 17:51:53.279945,-88.0
2023-08-15 17:51:53.287634,-85.0
2023-08-15 17:51:53.295324,-71.0
2023-08-15 17:51:53.303013,-52.0
2023-08-15 17:51:53.310703,-52.0
2023-08-15 17:51:53.318393,-66.0
2023-08-15 17:51:53.326082,-90.0
2023-08-15 17:51:53.333772,-114.0
2023-08-15 17:51:53.341462,-116.0
2023-08-15 17:51:53.349151,-104.0
2023-08-15 17:51:53.356841,-107.0
2023-08-15 17:51:53.364530,-107.0
2023-08-15 17:51:53.372220,-54.0
2023-08-15 17:51:53.379910,116.0
2023-08-15 17:51:53.387599,407.0
2023-08-15 17:51:53.395289,540.0
2023-08-15 17:51:53.402978,209.0
2023-08-15 17:51:53.410668,-364.0
2023-08-15 17:51:53.418358,-595.0
2023-08-15 17:51:53.426047,-338.0
2023-08-15 17:51:53.433737,-83.0
2023-08-15 17:51:53.441427,-85.0
2023-08-15 17:51:53.449116,-111.0
2023-08-15 17:51:53.456806,-73.0
2023-08-15 17:51:53.464495,-69.0
2023-08-15 17:51:53.472185,-78.0
2023-08-15 17:51:53.479875,-61.0
2023-08-15 17:51:53.487564,-47.0
2023-08-15 17:51:53.495254,-45.0
2023-08-15 17:51:53.502943,-28.0
2023-08-15 17:51:53.510633,-11.0
2023-08-15 17:51:53.518323,-4.0
2023-08-15 17:51:53.526012,9.0
2023-08-15 17:51:53.533702,23.0
2023-08-15 17:51:53.541392,35.0
2023-08-15 17:51:53.549081,52.0
2023-08-15 17:51:53.556771,71.0
2023-08-15 17:51:53.564460,92.0
2023-08-15 17:51:53.572150,114.0
2023-08-15 17:51:53.579840,135.0
2023-08-15 17:51:53.587529,149.0
2023-08-15 17:51:53.595219,157.0
2023-08-15 17:51:53.602908,159.0
2023-08-15 17:51:53.610598,152.0
2023-08-15 17:51:53.618288,140.0
2023-08-15 17:51:53.625977,116.0
2023-08-15 17:51:53.633667,76.0
2023-08-15 17:51:53.641357,21.0
2023-08-15 17:51:53.649046,-33.0
2023-08-15 17:51:53.656736,-78.0
2023-08-15 17:51:53.664425,-107.0
2023-08-15 17:51:53.672115,-126.0
2023-08-15 17:51:53.679805,-145.0
2023-08-15 17:51:53.687494,-154.0
2023-08-15 17:51:53.695184,-152.0
2023-08-15 17:51:53.702873,-152.0
2023-08-15 17:51:53.710563,-152.0
2023-08-15 17:51:53.718253,-152.0
2023-08-15 17:51:53.725942,-147.0
2023-08-15 17:51:53.733632,-140.0
2023-08-15 17:51:53.741322,-138.0
2023-08-15 17:51:53.749011,-138.0
2023-08-15 17:51:53.756701,-133.0
2023-08-15 17:51:53.764390,-128.0
2023-08-15 17:51:53.772080,-126.0
2023-08-15 17:51:53.779770,-126.0
2023-08-15 17:51:53.787459,-121.0
2023-08-15 17:51:53.795149,-119.0
2023-08-15 17:51:53.802838,-116.0
2023-08-15 17:51:53.810528,-116.0
2023-08-15 17:51:53.818218,-114.0
2023-08-15 17:51:53.825907,-111.0
2023-08-15 17:51:53.833597,-109.0
2023-08-15 17:51:53.841287,-111.0
2023-08-15 17:51:53.848976,-114.0
2023-08-15 17:51:53.856666,-119.0
2023-08-15 17:51:53.864355,-119.0
2023-08-15 17:51:53.872045,-126.0
2023-08-15 17:51:53.879735,-135.0
2023-08-15 17:51:53.887424,-128.0
2023-08-15 17:51:53.895114,-119.0
2023-08-15 17:51:53.902803,-116.0
2023-08-15 17:51:53.910493,-109.0
2023-08-15 17:51:53.918183,-107.0
2023-08-15 17:51:53.925872,-99.0
2023-08-15 17:51:53.933562,-80.0
2023-08-15 17:51:53.941252,-69.0
2023-08-15 17:51:53.948941,-78.0
2023-08-15 17:51:53.956631,-97.0
2023-08-15 17:51:53.964320,-116.0
2023-08-15 17:51:53.972010,-121.0
2023-08-15 17:51:53.979700,-109.0
2023-08-15 17:51:53.987389,-104.0
2023-08-15 17:51:53.995079,-104.0
2023-08-15 17:51:54.002768,-78.0
2023-08-15 17:51:54.010458,35.0
2023-08-15 17:51:54.018148,299.0
2023-08-15 17:51:54.025837,542.0
2023-08-15 17:51:54.033527,395.0
2023-08-15 17:51:54.041217,-157.0
2023-08-15 17:51:54.048906,-576.0
2023-08-15 17:51:54.056596,-473.0
2023-08-15 17:51:54.064285,-169.0
2023-08-15 17:51:54.071975,-85.0
2023-08-15 17:51:54.079665,-119.0
2023-08-15 17:51:54.087354,-90.0
2023-08-15 17:51:54.095044,-73.0
2023-08-15 17:51:54.102733,-83.0
2023-08-15 17:51:54.110423,-69.0
2023-08-15 17:51:54.118113,-52.0
2023-08-15 17:51:54.125802,-49.0
2023-08-15 17:51:54.133492,-38.0
2023-08-15 17:51:54.141182,-21.0
2023-08-15 17:51:54.148871,-9.0
2023-08-15 17:51:54.156561,0.0
2023-08-15 17:51:54.164250,19.0
2023-08-15 17:51:54.171940,40.0
2023-08-15 17:51:54.179630,54.0
2023-08-15 17:51:54.187319,66.0
2023-08-15 17:51:54.195009,85.0
2023-08-15 17:51:54.202698,107.0
2023-08-15 17:51:54.210388,123.0
2023-08-15 17:51:54.218078,140.0
2023-08-15 17:51:54.225767,149.0
2023-08-15 17:51:54.233457,152.0
2023-08-15 17:51:54.241147,152.0
2023-08-15 17:51:54.248836,149.0
2023-08-15 17:51:54.256526,128.0
2023-08-15 17:51:54.264215,90.0
2023-08-15 17:51:54.271905,42.0
2023-08-15 17:51:54.279595,-11.0
2023-08-15 17:51:54.287284,-61.0
2023-08-15 17:51:54.294974,-97.0
2023-08-15 17:51:54.302663,-121.0
2023-08-15 17:51:54.310353,-140.0
2023-08-15 17:51:54.318043,-152.0
2023-08-15 17:51:54.325732,-154.0
2023-08-15 17:51:54.333422,-154.0
2023-08-15 17:51:54.341112,-157.0
2023-08-15 17:51:54.348801,-157.0
2023-08-15 17:51:54.356491,-152.0
2023-08-15 17:51:54.364180,-149.0
2023-08-15 17:51:54.371870,-147.0
2023-08-15 17:51:54.379560,-145.0
2023-08-15 17:51:54.387249,-140.0
2023-08-15 17:51:54.394939,-135.0
2023-08-15 17:51:54.402628,-133.0
2023-08-15 17:51:54.410318,-135.0
2023-08-15 17:51:54.418008,-142.0
2023-08-15 17:51:54.425697,-138.0
2023-08-15 17:51:54.433387,-130.0
2023-08-15 17:51:54.441077,-130.0
2023-08-15 17:51:54.448766,-130.0
2023-08-15 17:51:54.456456,-128.0
2023-08-15 17:51:54.464145,-130.0
2023-08-15 17:51:54.471835,-128.0
2023-08-15 17:51:54.479525,-126.0
2023-08-15 17:51:54.487214,-126.0
2023-08-15 17:51:54.494904,-126.0
2023-08-15 17:51:54.502593,-126.0
2023-08-15 17:51:54.510283,-126.0
2023-08-15 17:51:54.517973,-126.0
2023-08-15 17:51:54.525662,-116.0
2023-08-15 17:51:54.533352,-114.0
2023-08-15 17:51:54.541042,-119.0
2023-08-15 17:51:54.548731,-111.0
2023-08-15 17:51:54.556421,-90.0
2023-08-15 17:51:54.564110,-83.0
2023-08-15 17:51:54.571800,-92.0
2023-08-15 17:51:54.579490,-111.0
2023-08-15 17:51:54.587179,-130.0
2023-08-15 17:51:54.594869,-133.0
2023-08-15 17:51:54.602558,-123.0
2023-08-15 17:51:54.610248,-121.0
2023-08-15 17:51:54.617938,-114.0
2023-08-15 17:51:54.625627,-52.0
2023-08-15 17:51:54.633317,138.0
2023-08-15 17:51:54.641007,430.0
2023-08-15 17:51:54.648696,523.0
2023-08-15 17:51:54.656386,145.0
2023-08-15 17:51:54.664075,-423.0
2023-08-15 17:51:54.671765,-602.0
2023-08-15 17:51:54.679455,-330.0
2023-08-15 17:51:54.687144,-104.0
2023-08-15 17:51:54.694834,-102.0
2023-08-15 17:51:54.702523,-104.0
2023-08-15 17:51:54.710213,-66.0
2023-08-15 17:51:54.717903,-66.0
2023-08-15 17:51:54.725592,-71.0
2023-08-15 17:51:54.733282,-57.0
2023-08-15 17:51:54.740972,-47.0
2023-08-15 17:51:54.748661,-38.0
2023-08-15 17:51:54.756351,-23.0
2023-08-15 17:51:54.764040,-9.0
2023-08-15 17:51:54.771730,0.0
2023-08-15 17:51:54.779420,14.0
2023-08-15 17:51:54.787109,33.0
2023-08-15 17:51:54.794799,52.0
2023-08-15 17:51:54.802488,69.0
2023-08-15 17:51:54.810178,88.0
2023-08-15 17:51:54.817868,109.0
2023-08-15 17:51:54.825557,128.0
2023-08-15 17:51:54.833247,140.0
2023-08-15 17:51:54.840937,149.0
2023-08-15 17:51:54.848626,157.0
2023-08-15 17:51:54.856316,161.0
2023-08-15 17:51:54.864005,154.0
2023-08-15 17:51:54.871695,138.0
2023-08-15 17:51:54.879385,107.0
2023-08-15 17:51:54.887074,64.0
2023-08-15 17:51:54.894764,14.0
2023-08-15 17:51:54.902453,-38.0
2023-08-15 17:51:54.910143,-80.0
2023-08-15 17:51:54.917833,-114.0
2023-08-15 17:51:54.925522,-135.0
2023-08-15 17:51:54.933212,-147.0
2023-08-15 17:51:54.940902,-149.0
2023-08-15 17:51:54.948591,-159.0
2023-08-15 17:51:54.956281,-169.0
2023-08-15 17:51:54.963970,-166.0
2023-08-15 17:51:54.971660,-159.0
2023-08-15 17:51:54.979350,-157.0
2023-08-15 17:51:54.987039,-154.0
2023-08-15 17:51:54.994729,-149.0
2023-08-15 17:51:55.002418,-147.0
2023-08-15 17:51:55.010108,-142.0
2023-08-15 17:51:55.017798,-140.0
2023-08-15 17:51:55.025487,-135.0
2023-08-15 17:51:55.033177,-128.0
2023-08-15 17:51:55.040867,-126.0
2023-08-15 17:51:55.048556,-130.0
2023-08-15 17:51:55.056246,-135.0
2023-08-15 17:51:55.063935,-133.0
2023-08-15 17:51:55.071625,-130.0
2023-08-15 17:51:55.079315,-135.0
2023-08-15 17:51:55.087004,-138.0
2023-08-15 17:51:55.094694,-135.0
2023-08-15 17:51:55.102383,-135.0
2023-08-15 17:51:55.110073,-138.0
2023-08-15 17:51:55.117763,-138.0
2023-08-15 17:51:55.125452,-130.0
2023-08-15 17:51:55.133142,-130.0
2023-08-15 17:51:55.140832,-130.0
2023-08-15 17:51:55.148521,-128.0
2023-08-15 17:51:55.156211,-121.0
2023-08-15 17:51:55.163900,-111.0
2023-08-15 17:51:55.171590,-111.0
2023-08-15 17:51:55.179280,-104.0
2023-08-15 17:51:55.186969,-83.0
2023-08-15 17:51:55.194659,-76.0
2023-08-15 17:51:55.202348,-88.0
2023-08-15 17:51:55.210038,-104.0
2023-08-15 17:51:55.217728,-121.0
2023-08-15 17:51:55.225417,-123.0
2023-08-15 17:51:55.233107,-114.0
2023-08-15 17:51:55.240797,-111.0
2023-08-15 17:51:55.248486,-109.0
2023-08-15 17:51:55.256176,-78.0
2023-08-15 17:51:55.263865,47.0
2023-08-15 17:51:55.271555,314.0
2023-08-15 17:51:55.279245,528.0
2023-08-15 17:51:55.286934,330.0
2023-08-15 17:51:55.294624,-233.0
2023-08-15 17:51:55.302313,-602.0
2023-08-15 17:51:55.310003,-435.0
2023-08-15 17:51:55.317693,-114.0
2023-08-15 17:51:55.325382,-64.0
2023-08-15 17:51:55.333072,-116.0
2023-08-15 17:51:55.340762,-83.0
2023-08-15 17:51:55.348451,-61.0
2023-08-15 17:51:55.356141,-80.0
2023-08-15 17:51:55.363830,-69.0
2023-08-15 17:51:55.371520,-49.0
2023-08-15 17:51:55.379210,-47.0
2023-08-15 17:51:55.386899,-38.0
2023-08-15 17:51:55.394589,-21.0
2023-08-15 17:51:55.402278,-11.0
2023-08-15 17:51:55.409968,0.0
2023-08-15 17:51:55.417658,21.0
2023-08-15 17:51:55.425347,38.0
2023-08-15 17:51:55.433037,52.0
2023-08-15 17:51:55.440727,71.0
2023-08-15 17:51:55.448416,90.0
2023-08-15 17:51:55.456106,109.0
2023-08-15 17:51:55.463795,128.0
2023-08-15 17:51:55.471485,145.0
2023-08-15 17:51:55.479175,152.0
2023-08-15 17:51:55.486864,154.0
2023-08-15 17:51:55.494554,147.0
2023-08-15 17:51:55.502243,133.0
2023-08-15 17:51:55.509933,114.0
2023-08-15 17:51:55.517623,76.0
2023-08-15 17:51:55.525312,23.0
2023-08-15 17:51:55.533002,-30.0
2023-08-15 17:51:55.540692,-78.0
2023-08-15 17:51:55.548381,-116.0
2023-08-15 17:51:55.556071,-142.0
2023-08-15 17:51:55.563760,-166.0
2023-08-15 17:51:55.571450,-176.0
2023-08-15 17:51:55.579140,-176.0
2023-08-15 17:51:55.586829,-178.0
2023-08-15 17:51:55.594519,-178.0
2023-08-15 17:51:55.602208,-176.0
2023-08-15 17:51:55.609898,-171.0
2023-08-15 17:51:55.617588,-166.0
2023-08-15 17:51:55.625277,-164.0
2023-08-15 17:51:55.632967,-157.0
2023-08-15 17:51:55.640657,-152.0
2023-08-15 17:51:55.648346,-149.0
2023-08-15 17:51:55.656036,-145.0
2023-08-15 17:51:55.663725,-142.0
2023-08-15 17:51:55.671415,-140.0
2023-08-15 17:51:55.679105,-135.0
2023-08-15 17:51:55.686794,-130.0
2023-08-15 17:51:55.694484,-128.0
2023-08-15 17:51:55.702173,-126.0
2023-08-15 17:51:55.709863,-126.0
2023-08-15 17:51:55.717553,-130.0
2023-08-15 17:51:55.725242,-128.0
2023-08-15 17:51:55.732932,-126.0
2023-08-15 17:51:55.740622,-126.0
2023-08-15 17:51:55.748311,-126.0
2023-08-15 17:51:55.756001,-126.0
2023-08-15 17:51:55.763690,-126.0
2023-08-15 17:51:55.771380,-121.0
2023-08-15 17:51:55.779070,-119.0
2023-08-15 17:51:55.786759,-116.0
2023-08-15 17:51:55.794449,-114.0
2023-08-15 17:51:55.802138,-107.0
2023-08-15 17:51:55.809828,-102.0
2023-08-15 17:51:55.817518,-102.0
2023-08-15 17:51:55.825207,-92.0
2023-08-15 17:51:55.832897,-73.0
2023-08-15 17:51:55.840587,-69.0
2023-08-15 17:51:55.848276,-88.0
2023-08-15 17:51:55.855966,-111.0
2023-08-15 17:51:55.863655,-121.0
2023-08-15 17:51:55.871345,-114.0
2023-08-15 17:51:55.879035,-107.0
2023-08-15 17:51:55.886724,-107.0
2023-08-15 17:51:55.894414,-102.0
2023-08-15 17:51:55.902103,-52.0
2023-08-15 17:51:55.909793,128.0
2023-08-15 17:51:55.917483,418.0
2023-08-15 17:51:55.925172,516.0
2023-08-15 17:51:55.932862,147.0
2023-08-15 17:51:55.940552,-414.0
2023-08-15 17:51:55.948241,-592.0
2023-08-15 17:51:55.955931,-307.0
2023-08-15 17:51:55.963620,-69.0
2023-08-15 17:51:55.971310,-88.0
2023-08-15 17:51:55.979000,-107.0
2023-08-15 17:51:55.986689,-69.0
2023-08-15 17:51:55.994379,-69.0
2023-08-15 17:51:56.002068,-78.0
2023-08-15 17:51:56.009758,-59.0
2023-08-15 17:51:56.017448,-42.0
2023-08-15 17:51:56.025137,-42.0
2023-08-15 17:51:56.032827,-45.0
2023-08-15 17:51:56.040517,-33.0
2023-08-15 17:51:56.048206,-11.0
2023-08-15 17:51:56.055896,0.0
2023-08-15 17:51:56.063585,7.0
2023-08-15 17:51:56.071275,19.0
2023-08-15 17:51:56.078965,35.0
2023-08-15 17:51:56.086654,54.0
2023-08-15 17:51:56.094344,76.0
2023-08-15 17:51:56.102033,99.0
2023-08-15 17:51:56.109723,116.0
2023-08-15 17:51:56.117413,130.0
2023-08-15 17:51:56.125102,138.0
2023-08-15 17:51:56.132792,138.0
2023-08-15 17:51:56.140482,135.0
2023-08-15 17:51:56.148171,123.0
2023-08-15 17:51:56.155861,97.0
2023-08-15 17:51:56.163550,54.0
2023-08-15 17:51:56.171240,2.0
2023-08-15 17:51:56.178930,-45.0
2023-08-15 17:51:56.186619,-83.0
2023-08-15 17:51:56.194309,-111.0
2023-08-15 17:51:56.201998,-138.0
2023-08-15 17:51:56.209688,-149.0
2023-08-15 17:51:56.217378,-159.0
2023-08-15 17:51:56.225067,-164.0
2023-08-15 17:51:56.232757,-164.0
2023-08-15 17:51:56.240447,-164.0
2023-08-15 17:51:56.248136,-161.0
2023-08-15 17:51:56.255826,-157.0
2023-08-15 17:51:56.263515,-152.0
2023-08-15 17:51:56.271205,-147.0
2023-08-15 17:51:56.278895,-140.0
2023-08-15 17:51:56.286584,-135.0
2023-08-15 17:51:56.294274,-128.0
2023-08-15 17:51:56.301963,-130.0
2023-08-15 17:51:56.309653,-138.0
2023-08-15 17:51:56.317343,-130.0
2023-08-15 17:51:56.325032,-121.0
2023-08-15 17:51:56.332722,-121.0
2023-08-15 17:51:56.340412,-123.0
2023-08-15 17:51:56.348101,-121.0
2023-08-15 17:51:56.355791,-119.0
2023-08-15 17:51:56.363480,-114.0
2023-08-15 17:51:56.371170,-114.0
2023-08-15 17:51:56.378860,-119.0
2023-08-15 17:51:56.386549,-119.0
2023-08-15 17:51:56.394239,-119.0
2023-08-15 17:51:56.401928,-119.0
2023-08-15 17:51:56.409618,-114.0
2023-08-15 17:51:56.417308,-107.0
2023-08-15 17:51:56.424997,-107.0
2023-08-15 17:51:56.432687,-109.0
2023-08-15 17:51:56.440377,-109.0
2023-08-15 17:51:56.448066,-102.0
2023-08-15 17:51:56.455756,-95.0
2023-08-15 17:51:56.463445,-83.0
2023-08-15 17:51:56.471135,-64.0
2023-08-15 17:51:56.478825,-61.0
2023-08-15 17:51:56.486514,-71.0
2023-08-15 17:51:56.494204,-92.0
2023-08-15 17:51:56.501893,-104.0
2023-08-15 17:51:56.509583,-99.0
2023-08-15 17:51:56.517273,-95.0
2023-08-15 17:51:56.524962,-99.0
2023-08-15 17:51:56.532652,-97.0
2023-08-15 17:51:56.540342,-52.0
2023-08-15 17:51:56.548031,107.0
2023-08-15 17:51:56.555721,392.0
2023-08-15 17:51:56.563410,552.0
2023-08-15 17:51:56.571100,259.0
2023-08-15 17:51:56.578790,-323.0
2023-08-15 17:51:56.586479,-604.0
2023-08-15 17:51:56.594169,-380.0
2023-08-15 17:51:56.601858,-121.0
2023-08-15 17:51:56.609548,-102.0
2023-08-15 17:51:56.617238,-116.0
2023-08-15 17:51:56.624927,-76.0
2023-08-15 17:51:56.632617,-73.0
2023-08-15 17:51:56.640307,-88.0
2023-08-15 17:51:56.647996,-71.0
2023-08-15 17:51:56.655686,-57.0
2023-08-15 17:51:56.663375,-61.0
2023-08-15 17:51:56.671065,-54.0
2023-08-15 17:51:56.678755,-35.0
2023-08-15 17:51:56.686444,-21.0
2023-08-15 17:51:56.694134,-11.0
2023-08-15 17:51:56.701823,4.0
2023-08-15 17:51:56.709513,19.0
2023-08-15 17:51:56.717203,33.0
2023-08-15 17:51:56.724892,54.0
2023-08-15 17:51:56.732582,80.0
2023-08-15 17:51:56.740272,99.0
2023-08-15 17:51:56.747961,111.0
2023-08-15 17:51:56.755651,126.0
2023-08-15 17:51:56.763340,138.0
2023-08-15 17:51:56.771030,138.0
2023-08-15 17:51:56.778720,133.0
2023-08-15 17:51:56.786409,121.0
2023-08-15 17:51:56.794099,99.0
2023-08-15 17:51:56.801788,61.0
2023-08-15 17:51:56.809478,7.0
2023-08-15 17:51:56.817168,-42.0
2023-08-15 17:51:56.824857,-80.0
2023-08-15 17:51:56.832547,-116.0
2023-08-15 17:51:56.840237,-142.0
2023-08-15 17:51:56.847926,-159.0
2023-08-15 17:51:56.855616,-169.0
2023-08-15 17:51:56.863305,-178.0
2023-08-15 17:51:56.870995,-180.0
2023-08-15 17:51:56.878685,-180.0
2023-08-15 17:51:56.886374,-173.0
2023-08-15 17:51:56.894064,-164.0
2023-08-15 17:51:56.901753,-164.0
2023-08-15 17:51:56.909443,-161.0
2023-08-15 17:51:56.917133,-149.0
2023-08-15 17:51:56.924822,-140.0
2023-08-15 17:51:56.932512,-142.0
2023-08-15 17:51:56.940202,-140.0
2023-08-15 17:51:56.947891,-130.0
2023-08-15 17:51:56.955581,-128.0
2023-08-15 17:51:56.963270,-126.0
2023-08-15 17:51:56.970960,-119.0
2023-08-15 17:51:56.978650,-119.0
2023-08-15 17:51:56.986339,-119.0
2023-08-15 17:51:56.994029,-119.0
2023-08-15 17:51:57.001718,-119.0
2023-08-15 17:51:57.009408,-119.0
2023-08-15 17:51:57.017098,-119.0
2023-08-15 17:51:57.024787,-114.0
2023-08-15 17:51:57.032477,-109.0
2023-08-15 17:51:57.040167,-109.0
2023-08-15 17:51:57.047856,-104.0
2023-08-15 17:51:57.055546,-99.0
2023-08-15 17:51:57.063235,-104.0
2023-08-15 17:51:57.070925,-102.0
2023-08-15 17:51:57.078615,-97.0
2023-08-15 17:51:57.086304,-97.0
2023-08-15 17:51:57.093994,-85.0
2023-08-15 17:51:57.101683,-59.0
2023-08-15 17:51:57.109373,-54.0
2023-08-15 17:51:57.117063,-66.0
2023-08-15 17:51:57.124752,-80.0
2023-08-15 17:51:57.132442,-95.0
2023-08-15 17:51:57.140132,-97.0
2023-08-15 17:51:57.147821,-83.0
2023-08-15 17:51:57.155511,-80.0
2023-08-15 17:51:57.163200,-76.0
2023-08-15 17:51:57.170890,-9.0
2023-08-15 17:51:57.178580,178.0
2023-08-15 17:51:57.186269,461.0
2023-08-15 17:51:57.193959,549.0
2023-08-15 17:51:57.201648,166.0
2023-08-15 17:51:57.209338,-407.0
2023-08-15 17:51:57.217028,-576.0
2023-08-15 17:51:57.224717,-299.0
2023-08-15 17:51:57.232407,-83.0
2023-08-15 17:51:57.240097,-76.0
2023-08-15 17:51:57.247786,-71.0
2023-08-15 17:51:57.255476,-38.0
2023-08-15 17:51:57.263165,-38.0
2023-08-15 17:51:57.270855,-40.0
2023-08-15 17:51:57.278545,-26.0
2023-08-15 17:51:57.286234,-14.0
2023-08-15 17:51:57.293924,-4.0
2023-08-15 17:51:57.301613,2.0
2023-08-15 17:51:57.309303,16.0
2023-08-15 17:51:57.316993,28.0
2023-08-15 17:51:57.324682,42.0
2023-08-15 17:51:57.332372,57.0
2023-08-15 17:51:57.340062,71.0
2023-08-15 17:51:57.347751,85.0
2023-08-15 17:51:57.355441,104.0
2023-08-15 17:51:57.363130,126.0
2023-08-15 17:51:57.370820,145.0
2023-08-15 17:51:57.378510,159.0
2023-08-15 17:51:57.386199,171.0
2023-08-15 17:51:57.393889,176.0
2023-08-15 17:51:57.401578,176.0
2023-08-15 17:51:57.409268,166.0
2023-08-15 17:51:57.416958,145.0
2023-08-15 17:51:57.424647,114.0
2023-08-15 17:51:57.432337,71.0
2023-08-15 17:51:57.440027,21.0
2023-08-15 17:51:57.447716,-28.0
2023-08-15 17:51:57.455406,-69.0
2023-08-15 17:51:57.463095,-99.0
2023-08-15 17:51:57.470785,-123.0
2023-08-15 17:51:57.478475,-138.0
2023-08-15 17:51:57.486164,-142.0
2023-08-15 17:51:57.493854,-145.0
2023-08-15 17:51:57.501543,-147.0
2023-08-15 17:51:57.509233,-149.0
2023-08-15 17:51:57.516923,-149.0
2023-08-15 17:51:57.524612,-145.0
2023-08-15 17:51:57.532302,-140.0
2023-08-15 17:51:57.539992,-138.0
2023-08-15 17:51:57.547681,-133.0
2023-08-15 17:51:57.555371,-130.0
2023-08-15 17:51:57.563060,-128.0
2023-08-15 17:51:57.570750,-128.0
2023-08-15 17:51:57.578440,-128.0
2023-08-15 17:51:57.586129,-128.0
2023-08-15 17:51:57.593819,-123.0
2023-08-15 17:51:57.601508,-121.0
2023-08-15 17:51:57.609198,-121.0
2023-08-15 17:51:57.616888,-121.0
2023-08-15 17:51:57.624577,-119.0
2023-08-15 17:51:57.632267,-119.0
2023-08-15 17:51:57.639957,-116.0
2023-08-15 17:51:57.647646,-119.0
2023-08-15 17:51:57.655336,-121.0
2023-08-15 17:51:57.663025,-114.0
2023-08-15 17:51:57.670715,-111.0
2023-08-15 17:51:57.678405,-109.0
2023-08-15 17:51:57.686094,-111.0
2023-08-15 17:51:57.693784,-107.0
2023-08-15 17:51:57.701473,-99.0
2023-08-15 17:51:57.709163,-97.0
2023-08-15 17:51:57.716853,-88.0
2023-08-15 17:51:57.724542,-66.0
2023-08-15 17:51:57.732232,-59.0
2023-08-15 17:51:57.739922,-73.0
2023-08-15 17:51:57.747611,-95.0
2023-08-15 17:51:57.755301,-111.0
2023-08-15 17:51:57.762990,-111.0
2023-08-15 17:51:57.770680,-102.0
2023-08-15 17:51:57.778370,-99.0
2023-08-15 17:51:57.786059,-102.0
2023-08-15 17:51:57.793749,-69.0
2023-08-15 17:51:57.801438,71.0
2023-08-15 17:51:57.809128,345.0
2023-08-15 17:51:57.816818,530.0
2023-08-15 17:51:57.824507,295.0
2023-08-15 17:51:57.832197,-276.0
2023-08-15 17:51:57.839887,-611.0
2023-08-15 17:51:57.847576,-430.0
2023-08-15 17:51:57.855266,-142.0
2023-08-15 17:51:57.862955,-92.0
2023-08-15 17:51:57.870645,-119.0
2023-08-15 17:51:57.878335,-90.0
2023-08-15 17:51:57.886024,-78.0
2023-08-15 17:51:57.893714,-83.0
2023-08-15 17:51:57.901403,-71.0
2023-08-15 17:51:57.909093,-57.0
2023-08-15 17:51:57.916783,-47.0
2023-08-15 17:51:57.924472,-38.0
2023-08-15 17:51:57.932162,-26.0
2023-08-15 17:51:57.939852,-14.0
2023-08-15 17:51:57.947541,2.0
2023-08-15 17:51:57.955231,16.0
2023-08-15 17:51:57.962920,33.0
2023-08-15 17:51:57.970610,52.0
2023-08-15 17:51:57.978300,71.0
2023-08-15 17:51:57.985989,90.0
2023-08-15 17:51:57.993679,114.0
2023-08-15 17:51:58.001368,130.0
2023-08-15 17:51:58.009058,142.0
2023-08-15 17:51:58.016748,147.0
2023-08-15 17:51:58.024437,149.0
2023-08-15 17:51:58.032127,147.0
2023-08-15 17:51:58.039817,133.0
2023-08-15 17:51:58.047506,111.0
2023-08-15 17:51:58.055196,73.0
2023-08-15 17:51:58.062885,21.0
2023-08-15 17:51:58.070575,-28.0
2023-08-15 17:51:58.078265,-73.0
2023-08-15 17:51:58.085954,-114.0
2023-08-15 17:51:58.093644,-140.0
2023-08-15 17:51:58.101333,-154.0
2023-08-15 17:51:58.109023,-166.0
2023-08-15 17:51:58.116713,-171.0
2023-08-15 17:51:58.124402,-171.0
2023-08-15 17:51:58.132092,-171.0
2023-08-15 17:51:58.139782,-164.0
2023-08-15 17:51:58.147471,-161.0
2023-08-15 17:51:58.155161,-159.0
2023-08-15 17:51:58.162850,-152.0
2023-08-15 17:51:58.170540,-142.0
2023-08-15 17:51:58.178230,-138.0
2023-08-15 17:51:58.185919,-133.0
2023-08-15 17:51:58.193609,-130.0
2023-08-15 17:51:58.201298,-128.0
2023-08-15 17:51:58.208988,-123.0
2023-08-15 17:51:58.216678,-116.0
2023-08-15 17:51:58.224367,-111.0
2023-08-15 17:51:58.232057,-109.0
2023-08-15 17:51:58.239747,-109.0
2023-08-15 17:51:58.247436,-107.0
2023-08-15 17:51:58.255126,-104.0
2023-08-15 17:51:58.262815,-104.0
2023-08-15 17:51:58.270505,-107.0
2023-08-15 17:51:58.278195,-107.0
2023-08-15 17:51:58.285884,-109.0
2023-08-15 17:51:58.293574,-111.0
2023-08-15 17:51:58.301263,-104.0
2023-08-15 17:51:58.308953,-99.0
2023-08-15 17:51:58.316643,-99.0
2023-08-15 17:51:58.324332,-104.0
2023-08-15 17:51:58.332022,-114.0
2023-08-15 17:51:58.339712,-109.0
2023-08-15 17:51:58.347401,-95.0
2023-08-15 17:51:58.355091,-90.0
2023-08-15 17:51:58.362780,-85.0
2023-08-15 17:51:58.370470,-71.0
2023-08-15 17:51:58.378160,-61.0
2023-08-15 17:51:58.385849,-71.0
2023-08-15 17:51:58.393539,-90.0
2023-08-15 17:51:58.401228,-104.0
2023-08-15 17:51:58.408918,-107.0
2023-08-15 17:51:58.416608,-102.0
2023-08-15 17:51:58.424297,-97.0
2023-08-15 17:51:58.431987,-92.0
2023-08-15 17:51:58.439677,-66.0
2023-08-15 17:51:58.447366,45.0
2023-08-15 17:51:58.455056,295.0
2023-08-15 17:51:58.462745,521.0
2023-08-15 17:51:58.470435,376.0
2023-08-15 17:51:58.478125,-157.0
2023-08-15 17:51:58.485814,-559.0
2023-08-15 17:51:58.493504,-452.0
2023-08-15 17:51:58.501193,-140.0
2023-08-15 17:51:58.508883,-54.0
2023-08-15 17:51:58.516573,-95.0
2023-08-15 17:51:58.524262,-69.0
2023-08-15 17:51:58.531952,-45.0
2023-08-15 17:51:58.539642,-57.0
2023-08-15 17:51:58.547331,-52.0
2023-08-15 17:51:58.555021,-35.0
2023-08-15 17:51:58.562710,-26.0
2023-08-15 17:51:58.570400,-21.0
2023-08-15 17:51:58.578090,-7.0
2023-08-15 17:51:58.585779,7.0
2023-08-15 17:51:58.593469,11.0
2023-08-15 17:51:58.601158,21.0
2023-08-15 17:51:58.608848,42.0
2023-08-15 17:51:58.616538,64.0
2023-08-15 17:51:58.624227,80.0
2023-08-15 17:51:58.631917,102.0
2023-08-15 17:51:58.639607,121.0
2023-08-15 17:51:58.647296,133.0
2023-08-15 17:51:58.654986,147.0
2023-08-15 17:51:58.662675,166.0
2023-08-15 17:51:58.670365,169.0
2023-08-15 17:51:58.678055,164.0
2023-08-15 17:51:58.685744,157.0
2023-08-15 17:51:58.693434,138.0
2023-08-15 17:51:58.701123,102.0
2023-08-15 17:51:58.708813,54.0
2023-08-15 17:51:58.716503,2.0
2023-08-15 17:51:58.724192,-45.0
2023-08-15 17:51:58.731882,-85.0
2023-08-15 17:51:58.739572,-116.0
2023-08-15 17:51:58.747261,-138.0
2023-08-15 17:51:58.754951,-149.0
2023-08-15 17:51:58.762640,-149.0
2023-08-15 17:51:58.770330,-152.0
2023-08-15 17:51:58.778020,-161.0
2023-08-15 17:51:58.785709,-157.0
2023-08-15 17:51:58.793399,-145.0
2023-08-15 17:51:58.801088,-142.0
2023-08-15 17:51:58.808778,-142.0
2023-08-15 17:51:58.816468,-138.0
2023-08-15 17:51:58.824157,-128.0
2023-08-15 17:51:58.831847,-121.0
2023-08-15 17:51:58.839537,-119.0
2023-08-15 17:51:58.847226,-114.0
2023-08-15 17:51:58.854916,-109.0
2023-08-15 17:51:58.862605,-109.0
2023-08-15 17:51:58.870295,-104.0
2023-08-15 17:51:58.877985,-102.0
2023-08-15 17:51:58.885674,-104.0
2023-08-15 17:51:58.893364,-102.0
2023-08-15 17:51:58.901053,-95.0
2023-08-15 17:51:58.908743,-99.0
2023-08-15 17:51:58.916433,-109.0
2023-08-15 17:51:58.924122,-107.0
2023-08-15 17:51:58.931812,-107.0
2023-08-15 17:51:58.939502,-111.0
2023-08-15 17:51:58.947191,-109.0
2023-08-15 17:51:58.954881,-102.0
2023-08-15 17:51:58.962570,-104.0
2023-08-15 17:51:58.970260,-104.0
2023-08-15 17:51:58.977950,-97.0
2023-08-15 17:51:58.985639,-97.0
2023-08-15 17:51:58.993329,-92.0
2023-08-15 17:51:59.001018,-80.0
2023-08-15 17:51:59.008708,-73.0
2023-08-15 17:51:59.016398,-64.0
2023-08-15 17:51:59.024087,-47.0
2023-08-15 17:51:59.031777,-47.0
2023-08-15 17:51:59.039467,-66.0
2023-08-15 17:51:59.047156,-88.0
2023-08-15 17:51:59.054846,-95.0
2023-08-15 17:51:59.062535,-88.0
2023-08-15 17:51:59.070225,-88.0
2023-08-15 17:51:59.077915,-90.0
2023-08-15 17:51:59.085604,-64.0
2023-08-15 17:51:59.093294,35.0
2023-08-15 17:51:59.100983,276.0
2023-08-15 17:51:59.108673,549.0
2023-08-15 17:51:59.116363,487.0
2023-08-15 17:51:59.124052,-21.0
2023-08-15 17:51:59.131742,-502.0
2023-08-15 17:51:59.139432,-490.0
2023-08-15 17:51:59.147121,-192.0
2023-08-15 17:51:59.154811,-61.0
2023-08-15 17:51:59.162500,-83.0
2023-08-15 17:51:59.170190,-66.0
2023-08-15 17:51:59.177880,-47.0
2023-08-15 17:51:59.185569,-52.0
2023-08-15 17:51:59.193259,-42.0
2023-08-15 17:51:59.200948,-21.0
2023-08-15 17:51:59.208638,-14.0
2023-08-15 17:51:59.216328,-4.0
2023-08-15 17:51:59.224017,7.0
2023-08-15 17:51:59.231707,16.0
2023-08-15 17:51:59.239397,33.0
2023-08-15 17:51:59.247086,52.0
2023-08-15 17:51:59.254776,64.0
2023-08-15 17:51:59.262465,76.0
2023-08-15 17:51:59.270155,95.0
2023-08-15 17:51:59.277845,116.0
2023-08-15 17:51:59.285534,138.0
2023-08-15 17:51:59.293224,154.0
2023-08-15 17:51:59.300913,166.0
2023-08-15 17:51:59.308603,176.0
2023-08-15 17:51:59.316293,183.0
2023-08-15 17:51:59.323982,178.0
2023-08-15 17:51:59.331672,164.0
2023-08-15 17:51:59.339362,152.0
2023-08-15 17:51:59.347051,121.0
2023-08-15 17:51:59.354741,66.0
2023-08-15 17:51:59.362430,11.0
2023-08-15 17:51:59.370120,-35.0
2023-08-15 17:51:59.377810,-80.0
2023-08-15 17:51:59.385499,-109.0
2023-08-15 17:51:59.393189,-128.0
2023-08-15 17:51:59.400878,-149.0
2023-08-15 17:51:59.408568,-166.0
2023-08-15 17:51:59.416258,-169.0
2023-08-15 17:51:59.423947,-166.0
2023-08-15 17:51:59.431637,-161.0
2023-08-15 17:51:59.439327,-157.0
2023-08-15 17:51:59.447016,-152.0
2023-08-15 17:51:59.454706,-147.0
2023-08-15 17:51:59.462395,-140.0
2023-08-15 17:51:59.470085,-133.0
2023-08-15 17:51:59.477775,-128.0
2023-08-15 17:51:59.485464,-123.0
2023-08-15 17:51:59.493154,-121.0
2023-08-15 17:51:59.500843,-119.0
2023-08-15 17:51:59.508533,-114.0
2023-08-15 17:51:59.516223,-114.0
2023-08-15 17:51:59.523912,-111.0
2023-08-15 17:51:59.531602,-104.0
2023-08-15 17:51:59.539292,-102.0
2023-08-15 17:51:59.546981,-104.0
2023-08-15 17:51:59.554671,-102.0
2023-08-15 17:51:59.562360,-97.0
2023-08-15 17:51:59.570050,-97.0
2023-08-15 17:51:59.577740,-97.0
2023-08-15 17:51:59.585429,-97.0
2023-08-15 17:51:59.593119,-97.0
2023-08-15 17:51:59.600808,-95.0
2023-08-15 17:51:59.608498,-88.0
2023-08-15 17:51:59.616188,-85.0
2023-08-15 17:51:59.623877,-88.0
2023-08-15 17:51:59.631567,-80.0
2023-08-15 17:51:59.639257,-73.0
2023-08-15 17:51:59.646946,-71.0
2023-08-15 17:51:59.654636,-54.0
2023-08-15 17:51:59.662325,-33.0
2023-08-15 17:51:59.670015,-35.0
2023-08-15 17:51:59.677705,-52.0
2023-08-15 17:51:59.685394,-69.0
2023-08-15 17:51:59.693084,-80.0
2023-08-15 17:51:59.700773,-76.0
2023-08-15 17:51:59.708463,-69.0
2023-08-15 17:51:59.716153,-71.0
2023-08-15 17:51:59.723842,-64.0
2023-08-15 17:51:59.731532,7.0
2023-08-15 17:51:59.739221,221.0
2023-08-15 17:51:59.746911,511.0
2023-08-15 17:51:59.754601,540.0
2023-08-15 17:51:59.762290,92.0
2023-08-15 17:51:59.769980,-464.0
2023-08-15 17:51:59.777670,-557.0
2023-08-15 17:51:59.785359,-235.0
2023-08-15 17:51:59.793049,-45.0
2023-08-15 17:51:59.800738,-76.0
2023-08-15 17:51:59.808428,-69.0
2023-08-15 17:51:59.816118,-35.0
2023-08-15 17:51:59.823807,-45.0
2023-08-15 17:51:59.831497,-49.0
2023-08-15 17:51:59.839186,-35.0
2023-08-15 17:51:59.846876,-28.0
2023-08-15 17:51:59.854566,-19.0
2023-08-15 17:51:59.862255,-7.0
2023-08-15 17:51:59.869945,4.0
2023-08-15 17:51:59.877635,16.0
2023-08-15 17:51:59.885324,33.0
2023-08-15 17:51:59.893014,49.0
2023-08-15 17:51:59.900703,64.0
2023-08-15 17:51:59.908393,80.0
2023-08-15 17:51:59.916083,102.0
2023-08-15 17:51:59.923772,121.0
2023-08-15 17:51:59.931462,140.0
2023-08-15 17:51:59.939151,157.0
2023-08-15 17:51:59.946841,171.0
2023-08-15 17:51:59.954531,178.0
2023-08-15 17:51:59.962220,178.0
2023-08-15 17:51:59.969910,171.0
2023-08-15 17:51:59.977600,152.0
2023-08-15 17:51:59.985289,116.0
2023-08-15 17:51:59.992979,69.0
2023-08-15 17:52:00.000668,9.0
2023-08-15 17:52:00.008358,-47.0
2023-08-15 17:52:00.016048,-92.0
2023-08-15 17:52:00.023737,-126.0
2023-08-15 17:52:00.031427,-149.0
2023-08-15 17:52:00.039116,-171.0
2023-08-15 17:52:00.046806,-183.0
2023-08-15 17:52:00.054496,-183.0
2023-08-15 17:52:00.062185,-180.0
2023-08-15 17:52:00.069875,-180.0
2023-08-15 17:52:00.077565,-180.0
2023-08-15 17:52:00.085254,-185.0
2023-08-15 17:52:00.092944,-183.0
2023-08-15 17:52:00.100633,-171.0
2023-08-15 17:52:00.108323,-164.0
2023-08-15 17:52:00.116013,-157.0
2023-08-15 17:52:00.123702,-157.0
2023-08-15 17:52:00.131392,-164.0
2023-08-15 17:52:00.139081,-159.0
2023-08-15 17:52:00.146771,-145.0
2023-08-15 17:52:00.154461,-140.0
2023-08-15 17:52:00.162150,-142.0
2023-08-15 17:52:00.169840,-145.0
2023-08-15 17:52:00.177530,-149.0
2023-08-15 17:52:00.185219,-147.0
2023-08-15 17:52:00.192909,-138.0
2023-08-15 17:52:00.200598,-138.0
2023-08-15 17:52:00.208288,-140.0
2023-08-15 17:52:00.215978,-135.0
2023-08-15 17:52:00.223667,-135.0
2023-08-15 17:52:00.231357,-138.0
2023-08-15 17:52:00.239046,-130.0
2023-08-15 17:52:00.246736,-126.0
2023-08-15 17:52:00.254426,-126.0
2023-08-15 17:52:00.262115,-126.0
2023-08-15 17:52:00.269805,-123.0
2023-08-15 17:52:00.277495,-121.0
2023-08-15 17:52:00.285184,-111.0
2023-08-15 17:52:00.292874,-99.0
2023-08-15 17:52:00.300563,-97.0
2023-08-15 17:52:00.308253,-95.0
2023-08-15 17:52:00.315943,-76.0
2023-08-15 17:52:00.323632,-59.0
2023-08-15 17:52:00.331322,-66.0
2023-08-15 17:52:00.339011,-95.0
2023-08-15 17:52:00.346701,-116.0
2023-08-15 17:52:00.354391,-116.0
2023-08-15 17:52:00.362080,-114.0
2023-08-15 17:52:00.369770,-111.0
2023-08-15 17:52:00.377460,-109.0
2023-08-15 17:52:00.385149,-85.0
2023-08-15 17:52:00.392839,28.0
2023-08-15 17:52:00.400528,295.0
2023-08-15 17:52:00.408218,523.0
2023-08-15 17:52:00.415908,364.0
2023-08-15 17:52:00.423597,-183.0
2023-08-15 17:52:00.431287,-585.0
2023-08-15 17:52:00.438976,-454.0
2023-08-15 17:52:00.446666,-123.0
2023-08-15 17:52:00.454356,-49.0
2023-08-15 17:52:00.462045,-102.0
2023-08-15 17:52:00.469735,-69.0
2023-08-15 17:52:00.477425,-40.0
2023-08-15 17:52:00.485114,-57.0
2023-08-15 17:52:00.492804,-47.0
2023-08-15 17:52:00.500493,-28.0
2023-08-15 17:52:00.508183,-26.0
2023-08-15 17:52:00.515873,-16.0
2023-08-15 17:52:00.523562,0.0
2023-08-15 17:52:00.531252,9.0
2023-08-15 17:52:00.538941,19.0
2023-08-15 17:52:00.546631,42.0
2023-08-15 17:52:00.554321,61.0
2023-08-15 17:52:00.562010,69.0
2023-08-15 17:52:00.569700,83.0
2023-08-15 17:52:00.577390,104.0
2023-08-15 17:52:00.585079,114.0
2023-08-15 17:52:00.592769,128.0
2023-08-15 17:52:00.600458,147.0
2023-08-15 17:52:00.608148,159.0
2023-08-15 17:52:00.615838,166.0
2023-08-15 17:52:00.623527,161.0
2023-08-15 17:52:00.631217,142.0
2023-08-15 17:52:00.638906,116.0
2023-08-15 17:52:00.646596,80.0
2023-08-15 17:52:00.654286,28.0
2023-08-15 17:52:00.661975,-23.0
2023-08-15 17:52:00.669665,-80.0
2023-08-15 17:52:00.677355,-126.0
2023-08-15 17:52:00.685044,-145.0
2023-08-15 17:52:00.692734,-159.0
2023-08-15 17:52:00.700423,-176.0
2023-08-15 17:52:00.708113,-183.0
2023-08-15 17:52:00.715803,-178.0
2023-08-15 17:52:00.723492,-171.0
2023-08-15 17:52:00.731182,-169.0
2023-08-15 17:52:00.738871,-164.0
2023-08-15 17:52:00.746561,-161.0
2023-08-15 17:52:00.754251,-159.0
2023-08-15 17:52:00.761940,-147.0
2023-08-15 17:52:00.769630,-138.0
2023-08-15 17:52:00.777320,-138.0
2023-08-15 17:52:00.785009,-135.0
2023-08-15 17:52:00.792699,-123.0
2023-08-15 17:52:00.800388,-119.0
2023-08-15 17:52:00.808078,-119.0
2023-08-15 17:52:00.815768,-114.0
2023-08-15 17:52:00.823457,-107.0
2023-08-15 17:52:00.831147,-104.0
2023-08-15 17:52:00.838836,-102.0
2023-08-15 17:52:00.846526,-104.0
2023-08-15 17:52:00.854216,-107.0
2023-08-15 17:52:00.861905,-107.0
2023-08-15 17:52:00.869595,-107.0
2023-08-15 17:52:00.877285,-107.0
2023-08-15 17:52:00.884974,-104.0
2023-08-15 17:52:00.892664,-102.0
2023-08-15 17:52:00.900353,-102.0
2023-08-15 17:52:00.908043,-99.0
2023-08-15 17:52:00.915733,-97.0
2023-08-15 17:52:00.923422,-97.0
2023-08-15 17:52:00.931112,-95.0
2023-08-15 17:52:00.938801,-85.0
2023-08-15 17:52:00.946491,-78.0
2023-08-15 17:52:00.954181,-71.0
2023-08-15 17:52:00.961870,-61.0
2023-08-15 17:52:00.969560,-49.0
2023-08-15 17:52:00.977250,-45.0
2023-08-15 17:52:00.984939,-54.0
2023-08-15 17:52:00.992629,-78.0
2023-08-15 17:52:01.000318,-99.0
2023-08-15 17:52:01.008008,-99.0
2023-08-15 17:52:01.015698,-88.0
2023-08-15 17:52:01.023387,-85.0
2023-08-15 17:52:01.031077,-80.0
2023-08-15 17:52:01.038766,-35.0
2023-08-15 17:52:01.046456,114.0
2023-08-15 17:52:01.054146,390.0
2023-08-15 17:52:01.061835,535.0
2023-08-15 17:52:01.069525,240.0
2023-08-15 17:52:01.077215,-309.0
2023-08-15 17:52:01.084904,-554.0
2023-08-15 17:52:01.092594,-340.0
2023-08-15 17:52:01.100283,-92.0
2023-08-15 17:52:01.107973,-64.0
2023-08-15 17:52:01.115663,-85.0
2023-08-15 17:52:01.123352,-61.0
2023-08-15 17:52:01.131042,-54.0
2023-08-15 17:52:01.138731,-59.0
2023-08-15 17:52:01.146421,-45.0
2023-08-15 17:52:01.154111,-35.0
2023-08-15 17:52:01.161800,-28.0
2023-08-15 17:52:01.169490,-16.0
2023-08-15 17:52:01.177180,-7.0
2023-08-15 17:52:01.184869,7.0
2023-08-15 17:52:01.192559,21.0
2023-08-15 17:52:01.200248,35.0
2023-08-15 17:52:01.207938,52.0
2023-08-15 17:52:01.215628,71.0
2023-08-15 17:52:01.223317,90.0
2023-08-15 17:52:01.231007,109.0
2023-08-15 17:52:01.238696,126.0
2023-08-15 17:52:01.246386,140.0
2023-08-15 17:52:01.254076,159.0
2023-08-15 17:52:01.261765,173.0
2023-08-15 17:52:01.269455,173.0
2023-08-15 17:52:01.277145,164.0
2023-08-15 17:52:01.284834,154.0
2023-08-15 17:52:01.292524,130.0
2023-08-15 17:52:01.300213,83.0
2023-08-15 17:52:01.307903,30.0
2023-08-15 17:52:01.315593,-19.0
2023-08-15 17:52:01.323282,-61.0
2023-08-15 17:52:01.330972,-99.0
2023-08-15 17:52:01.338661,-123.0
2023-08-15 17:52:01.346351,-145.0
2023-08-15 17:52:01.354041,-157.0
2023-08-15 17:52:01.361730,-157.0
2023-08-15 17:52:01.369420,-152.0
2023-08-15 17:52:01.377110,-149.0
2023-08-15 17:52:01.384799,-152.0
2023-08-15 17:52:01.392489,-145.0
2023-08-15 17:52:01.400178,-135.0
2023-08-15 17:52:01.407868,-130.0
2023-08-15 17:52:01.415558,-121.0
2023-08-15 17:52:01.423247,-114.0
2023-08-15 17:52:01.430937,-116.0
2023-08-15 17:52:01.438626,-116.0
2023-08-15 17:52:01.446316,-104.0
2023-08-15 17:52:01.454006,-95.0
2023-08-15 17:52:01.461695,-95.0
2023-08-15 17:52:01.469385,-90.0
2023-08-15 17:52:01.477075,-88.0
2023-08-15 17:52:01.484764,-92.0
2023-08-15 17:52:01.492454,-97.0
2023-08-15 17:52:01.500143,-95.0
2023-08-15 17:52:01.507833,-88.0
2023-08-15 17:52:01.515523,-90.0
2023-08-15 17:52:01.523212,-95.0
2023-08-15 17:52:01.530902,-97.0
2023-08-15 17:52:01.538591,-97.0
2023-08-15 17:52:01.546281,-92.0
2023-08-15 17:52:01.553971,-90.0
2023-08-15 17:52:01.561660,-92.0
2023-08-15 17:52:01.569350,-90.0
2023-08-15 17:52:01.577040,-88.0
2023-08-15 17:52:01.584729,-85.0
2023-08-15 17:52:01.592419,-78.0
2023-08-15 17:52:01.600108,-78.0
2023-08-15 17:52:01.607798,-71.0
2023-08-15 17:52:01.615488,-49.0
2023-08-15 17:52:01.623177,-42.0
2023-08-15 17:52:01.630867,-52.0
2023-08-15 17:52:01.638556,-71.0
2023-08-15 17:52:01.646246,-92.0
2023-08-15 17:52:01.653936,-97.0
2023-08-15 17:52:01.661625,-85.0
2023-08-15 17:52:01.669315,-80.0
2023-08-15 17:52:01.677005,-78.0
2023-08-15 17:52:01.684694,-45.0
2023-08-15 17:52:01.692384,95.0
2023-08-15 17:52:01.700073,373.0
2023-08-15 17:52:01.707763,573.0
2023-08-15 17:52:01.715453,340.0
2023-08-15 17:52:01.723142,-238.0
2023-08-15 17:52:01.730832,-583.0
2023-08-15 17:52:01.738521,-426.0
2023-08-15 17:52:01.746211,-161.0
2023-08-15 17:52:01.753901,-97.0
2023-08-15 17:52:01.761590,-95.0
2023-08-15 17:52:01.769280,-66.0
2023-08-15 17:52:01.776970,-66.0
2023-08-15 17:52:01.784659,-66.0
2023-08-15 17:52:01.792349,-52.0
2023-08-15 17:52:01.800038,-40.0
2023-08-15 17:52:01.807728,-30.0
2023-08-15 17:52:01.815418,-16.0
2023-08-15 17:52:01.823107,-4.0
2023-08-15 17:52:01.830797,7.0
2023-08-15 17:52:01.838486,21.0
2023-08-15 17:52:01.846176,30.0
2023-08-15 17:52:01.853866,38.0
2023-08-15 17:52:01.861555,52.0
2023-08-15 17:52:01.869245,76.0
2023-08-15 17:52:01.876935,102.0
2023-08-15 17:52:01.884624,123.0
2023-08-15 17:52:01.892314,138.0
2023-08-15 17:52:01.900003,149.0
2023-08-15 17:52:01.907693,169.0
2023-08-15 17:52:01.915383,178.0
2023-08-15 17:52:01.923072,166.0
2023-08-15 17:52:01.930762,145.0
2023-08-15 17:52:01.938451,119.0
2023-08-15 17:52:01.946141,83.0
2023-08-15 17:52:01.953831,35.0
2023-08-15 17:52:01.961520,-19.0
2023-08-15 17:52:01.969210,-73.0
2023-08-15 17:52:01.976900,-114.0
2023-08-15 17:52:01.984589,-140.0
2023-08-15 17:52:01.992279,-157.0
2023-08-15 17:52:01.999968,-166.0
2023-08-15 17:52:02.007658,-171.0
2023-08-15 17:52:02.015348,-173.0
2023-08-15 17:52:02.023037,-171.0
2023-08-15 17:52:02.030727,-166.0
2023-08-15 17:52:02.038416,-159.0
2023-08-15 17:52:02.046106,-149.0
2023-08-15 17:52:02.053796,-147.0
2023-08-15 17:52:02.061485,-142.0
2023-08-15 17:52:02.069175,-130.0
2023-08-15 17:52:02.076865,-126.0
2023-08-15 17:52:02.084554,-126.0
2023-08-15 17:52:02.092244,-119.0
2023-08-15 17:52:02.099933,-111.0
2023-08-15 17:52:02.107623,-111.0
2023-08-15 17:52:02.115313,-109.0
2023-08-15 17:52:02.123002,-99.0
2023-08-15 17:52:02.130692,-99.0
2023-08-15 17:52:02.138381,-99.0
2023-08-15 17:52:02.146071,-102.0
2023-08-15 17:52:02.153761,-102.0
2023-08-15 17:52:02.161450,-102.0
2023-08-15 17:52:02.169140,-104.0
2023-08-15 17:52:02.176830,-104.0
2023-08-15 17:52:02.184519,-99.0
2023-08-15 17:52:02.192209,-97.0
2023-08-15 17:52:02.199898,-95.0
2023-08-15 17:52:02.207588,-97.0
2023-08-15 17:52:02.215278,-95.0
2023-08-15 17:52:02.222967,-90.0
2023-08-15 17:52:02.230657,-92.0
2023-08-15 17:52:02.238346,-95.0
2023-08-15 17:52:02.246036,-80.0
2023-08-15 17:52:02.253726,-66.0
2023-08-15 17:52:02.261415,-69.0
2023-08-15 17:52:02.269105,-83.0
2023-08-15 17:52:02.276795,-102.0
2023-08-15 17:52:02.284484,-116.0
2023-08-15 17:52:02.292174,-109.0
2023-08-15 17:52:02.299863,-99.0
2023-08-15 17:52:02.307553,-99.0
2023-08-15 17:52:02.315243,-73.0
2023-08-15 17:52:02.322932,38.0
2023-08-15 17:52:02.330622,297.0
2023-08-15 17:52:02.338311,545.0
2023-08-15 17:52:02.346001,399.0
2023-08-15 17:52:02.353691,-161.0
2023-08-15 17:52:02.361380,-595.0
2023-08-15 17:52:02.369070,-495.0
2023-08-15 17:52:02.376760,-190.0
2023-08-15 17:52:02.384449,-95.0
2023-08-15 17:52:02.392139,-107.0
2023-08-15 17:52:02.399828,-73.0
2023-08-15 17:52:02.407518,-61.0
2023-08-15 17:52:02.415208,-76.0
2023-08-15 17:52:02.422897,-66.0
2023-08-15 17:52:02.430587,-47.0
2023-08-15 17:52:02.438276,-40.0
2023-08-15 17:52:02.445966,-30.0
2023-08-15 17:52:02.453656,-14.0
2023-08-15 17:52:02.461345,-2.0
2023-08-15 17:52:02.469035,7.0
2023-08-15 17:52:02.476725,21.0
2023-08-15 17:52:02.484414,38.0
2023-08-15 17:52:02.492104,49.0
2023-08-15 17:52:02.499793,69.0
2023-08-15 17:52:02.507483,95.0
2023-08-15 17:52:02.515173,116.0
2023-08-15 17:52:02.522862,130.0
2023-08-15 17:52:02.530552,152.0
2023-08-15 17:52:02.538241,169.0
2023-08-15 17:52:02.545931,169.0
2023-08-15 17:52:02.553621,166.0
2023-08-15 17:52:02.561310,157.0
2023-08-15 17:52:02.569000,130.0
2023-08-15 17:52:02.576690,92.0
2023-08-15 17:52:02.584379,38.0
2023-08-15 17:52:02.592069,-21.0
2023-08-15 17:52:02.599758,-71.0
2023-08-15 17:52:02.607448,-111.0
2023-08-15 17:52:02.615138,-140.0
2023-08-15 17:52:02.622827,-159.0
2023-08-15 17:52:02.630517,-171.0
2023-08-15 17:52:02.638206,-171.0
2023-08-15 17:52:02.645896,-171.0
2023-08-15 17:52:02.653586,-178.0
2023-08-15 17:52:02.661275,-171.0
2023-08-15 17:52:02.668965,-161.0
2023-08-15 17:52:02.676655,-161.0
2023-08-15 17:52:02.684344,-157.0
2023-08-15 17:52:02.692034,-147.0
2023-08-15 17:52:02.699723,-147.0
2023-08-15 17:52:02.707413,-147.0
2023-08-15 17:52:02.715103,-140.0
2023-08-15 17:52:02.722792,-135.0
2023-08-15 17:52:02.730482,-133.0
2023-08-15 17:52:02.738171,-128.0
2023-08-15 17:52:02.745861,-121.0
2023-08-15 17:52:02.753551,-121.0
2023-08-15 17:52:02.761240,-119.0
2023-08-15 17:52:02.768930,-114.0
2023-08-15 17:52:02.776620,-116.0
2023-08-15 17:52:02.784309,-126.0
2023-08-15 17:52:02.791999,-130.0
2023-08-15 17:52:02.799688,-128.0
2023-08-15 17:52:02.807378,-126.0
2023-08-15 17:52:02.815068,-128.0
2023-08-15 17:52:02.822757,-130.0
2023-08-15 17:52:02.830447,-135.0
2023-08-15 17:52:02.838136,-130.0
2023-08-15 17:52:02.845826,-123.0
2023-08-15 17:52:02.853516,-128.0
2023-08-15 17:52:02.861205,-130.0
2023-08-15 17:52:02.868895,-119.0
2023-08-15 17:52:02.876585,-114.0
2023-08-15 17:52:02.884274,-111.0
2023-08-15 17:52:02.891964,-90.0
2023-08-15 17:52:02.899653,-73.0
2023-08-15 17:52:02.907343,-80.0
2023-08-15 17:52:02.915033,-102.0
2023-08-15 17:52:02.922722,-114.0
2023-08-15 17:52:02.930412,-114.0
2023-08-15 17:52:02.938101,-107.0
2023-08-15 17:52:02.945791,-107.0
2023-08-15 17:52:02.953481,-111.0
2023-08-15 17:52:02.961170,-97.0
2023-08-15 17:52:02.968860,-11.0
2023-08-15 17:52:02.976550,223.0
2023-08-15 17:52:02.984239,495.0
2023-08-15 17:52:02.991929,426.0
2023-08-15 17:52:02.999618,-78.0
2023-08-15 17:52:03.007308,-552.0
2023-08-15 17:52:03.014998,-530.0
2023-08-15 17:52:03.022687,-209.0
2023-08-15 17:52:03.030377,-69.0
2023-08-15 17:52:03.038066,-102.0
2023-08-15 17:52:03.045756,-88.0
2023-08-15 17:52:03.053446,-61.0
2023-08-15 17:52:03.061135,-69.0
2023-08-15 17:52:03.068825,-64.0
2023-08-15 17:52:03.076515,-45.0
2023-08-15 17:52:03.084204,-38.0
2023-08-15 17:52:03.091894,-30.0
2023-08-15 17:52:03.099583,-14.0
2023-08-15 17:52:03.107273,7.0
2023-08-15 17:52:03.114963,30.0
2023-08-15 17:52:03.122652,49.0
2023-08-15 17:52:03.130342,57.0
2023-08-15 17:52:03.138031,57.0
2023-08-15 17:52:03.145721,59.0
2023-08-15 17:52:03.153411,76.0
2023-08-15 17:52:03.161100,102.0
2023-08-15 17:52:03.168790,130.0
2023-08-15 17:52:03.176480,152.0
2023-08-15 17:52:03.184169,164.0
2023-08-15 17:52:03.191859,171.0
2023-08-15 17:52:03.199548,171.0
2023-08-15 17:52:03.207238,159.0
2023-08-15 17:52:03.214928,138.0
2023-08-15 17:52:03.222617,102.0
2023-08-15 17:52:03.230307,49.0
2023-08-15 17:52:03.237996,-7.0
2023-08-15 17:52:03.245686,-59.0
2023-08-15 17:52:03.253376,-99.0
2023-08-15 17:52:03.261065,-126.0
2023-08-15 17:52:03.268755,-145.0
2023-08-15 17:52:03.276445,-157.0
2023-08-15 17:52:03.284134,-161.0
2023-08-15 17:52:03.291824,-159.0
2023-08-15 17:52:03.299513,-159.0
2023-08-15 17:52:03.307203,-157.0
2023-08-15 17:52:03.314893,-149.0
2023-08-15 17:52:03.322582,-147.0
2023-08-15 17:52:03.330272,-142.0
2023-08-15 17:52:03.337961,-133.0
2023-08-15 17:52:03.345651,-123.0
2023-08-15 17:52:03.353341,-121.0
2023-08-15 17:52:03.361030,-126.0
2023-08-15 17:52:03.368720,-133.0
2023-08-15 17:52:03.376410,-130.0
2023-08-15 17:52:03.384099,-121.0
2023-08-15 17:52:03.391789,-114.0
2023-08-15 17:52:03.399478,-111.0
2023-08-15 17:52:03.407168,-111.0
2023-08-15 17:52:03.414858,-111.0
2023-08-15 17:52:03.422547,-107.0
2023-08-15 17:52:03.430237,-102.0
2023-08-15 17:52:03.437926,-102.0
2023-08-15 17:52:03.445616,-104.0
2023-08-15 17:52:03.453306,-109.0
2023-08-15 17:52:03.460995,-109.0
2023-08-15 17:52:03.468685,-109.0
2023-08-15 17:52:03.476375,-107.0
2023-08-15 17:52:03.484064,-104.0
2023-08-15 17:52:03.491754,-102.0
2023-08-15 17:52:03.499443,-99.0
2023-08-15 17:52:03.507133,-102.0
2023-08-15 17:52:03.514823,-99.0
2023-08-15 17:52:03.522512,-90.0
2023-08-15 17:52:03.530202,-78.0
2023-08-15 17:52:03.537891,-76.0
2023-08-15 17:52:03.545581,-69.0
2023-08-15 17:52:03.553271,-54.0
2023-08-15 17:52:03.560960,-52.0
2023-08-15 17:52:03.568650,-64.0
2023-08-15 17:52:03.576340,-83.0
2023-08-15 17:52:03.584029,-102.0
2023-08-15 17:52:03.591719,-102.0
2023-08-15 17:52:03.599408,-92.0
2023-08-15 17:52:03.607098,-92.0
2023-08-15 17:52:03.614788,-90.0
2023-08-15 17:52:03.622477,-54.0
2023-08-15 17:52:03.630167,88.0
2023-08-15 17:52:03.637856,368.0
2023-08-15 17:52:03.645546,545.0
2023-08-15 17:52:03.653236,280.0
2023-08-15 17:52:03.660925,-288.0
2023-08-15 17:52:03.668615,-587.0
2023-08-15 17:52:03.676305,-383.0
2023-08-15 17:52:03.683994,-102.0
2023-08-15 17:52:03.691684,-66.0
2023-08-15 17:52:03.699373,-99.0
2023-08-15 17:52:03.707063,-66.0
2023-08-15 17:52:03.714753,-52.0
2023-08-15 17:52:03.722442,-61.0
2023-08-15 17:52:03.730132,-52.0
2023-08-15 17:52:03.737821,-38.0
2023-08-15 17:52:03.745511,-33.0
2023-08-15 17:52:03.753201,-21.0
2023-08-15 17:52:03.760890,-2.0
2023-08-15 17:52:03.768580,7.0
2023-08-15 17:52:03.776270,14.0
2023-08-15 17:52:03.783959,33.0
2023-08-15 17:52:03.791649,49.0
2023-08-15 17:52:03.799338,66.0
2023-08-15 17:52:03.807028,85.0
2023-08-15 17:52:03.814718,107.0
2023-08-15 17:52:03.822407,126.0
2023-08-15 17:52:03.830097,147.0
2023-08-15 17:52:03.837786,164.0
2023-08-15 17:52:03.845476,176.0
2023-08-15 17:52:03.853166,178.0
2023-08-15 17:52:03.860855,173.0
2023-08-15 17:52:03.868545,154.0
2023-08-15 17:52:03.876235,123.0
2023-08-15 17:52:03.883924,85.0
2023-08-15 17:52:03.891614,33.0
2023-08-15 17:52:03.899303,-26.0
2023-08-15 17:52:03.906993,-78.0
2023-08-15 17:52:03.914683,-114.0
2023-08-15 17:52:03.922372,-140.0
2023-08-15 17:52:03.930062,-157.0
2023-08-15 17:52:03.937751,-164.0
2023-08-15 17:52:03.945441,-169.0
2023-08-15 17:52:03.953131,-188.0
2023-08-15 17:52:03.960820,-190.0
2023-08-15 17:52:03.968510,-176.0
2023-08-15 17:52:03.976200,-169.0
2023-08-15 17:52:03.983889,-171.0
2023-08-15 17:52:03.991579,-164.0
2023-08-15 17:52:03.999268,-157.0
2023-08-15 17:52:04.006958,-152.0
2023-08-15 17:52:04.014648,-147.0
2023-08-15 17:52:04.022337,-138.0
2023-08-15 17:52:04.030027,-126.0
2023-08-15 17:52:04.037716,-123.0
2023-08-15 17:52:04.045406,-123.0
2023-08-15 17:52:04.053096,-123.0
2023-08-15 17:52:04.060785,-121.0
2023-08-15 17:52:04.068475,-114.0
2023-08-15 17:52:04.076165,-114.0
2023-08-15 17:52:04.083854,-116.0
2023-08-15 17:52:04.091544,-111.0
2023-08-15 17:52:04.099233,-114.0
2023-08-15 17:52:04.106923,-119.0
2023-08-15 17:52:04.114613,-116.0
2023-08-15 17:52:04.122302,-109.0
2023-08-15 17:52:04.129992,-109.0
2023-08-15 17:52:04.137681,-109.0
2023-08-15 17:52:04.145371,-104.0
2023-08-15 17:52:04.153061,-104.0
2023-08-15 17:52:04.160750,-107.0
2023-08-15 17:52:04.168440,-102.0
2023-08-15 17:52:04.176130,-90.0
2023-08-15 17:52:04.183819,-85.0
2023-08-15 17:52:04.191509,-85.0
2023-08-15 17:52:04.199198,-76.0
2023-08-15 17:52:04.206888,-59.0
2023-08-15 17:52:04.214578,-61.0
2023-08-15 17:52:04.222267,-83.0
2023-08-15 17:52:04.229957,-104.0
2023-08-15 17:52:04.237646,-109.0
2023-08-15 17:52:04.245336,-102.0
2023-08-15 17:52:04.253026,-99.0
2023-08-15 17:52:04.260715,-99.0
2023-08-15 17:52:04.268405,-83.0
2023-08-15 17:52:04.276095,4.0
2023-08-15 17:52:04.283784,245.0
2023-08-15 17:52:04.291474,526.0
2023-08-15 17:52:04.299163,480.0
2023-08-15 17:52:04.306853,-28.0
2023-08-15 17:52:04.314543,-528.0
2023-08-15 17:52:04.322232,-526.0
2023-08-15 17:52:04.329922,-214.0
2023-08-15 17:52:04.337611,-76.0
2023-08-15 17:52:04.345301,-99.0
2023-08-15 17:52:04.352991,-80.0
2023-08-15 17:52:04.360680,-57.0
2023-08-15 17:52:04.368370,-71.0
2023-08-15 17:52:04.376060,-69.0
2023-08-15 17:52:04.383749,-49.0
2023-08-15 17:52:04.391439,-40.0
2023-08-15 17:52:04.399128,-26.0
2023-08-15 17:52:04.406818,-14.0
2023-08-15 17:52:04.414508,-4.0
2023-08-15 17:52:04.422197,7.0
2023-08-15 17:52:04.429887,19.0
2023-08-15 17:52:04.437576,30.0
2023-08-15 17:52:04.445266,47.0
2023-08-15 17:52:04.452956,71.0
2023-08-15 17:52:04.460645,90.0
2023-08-15 17:52:04.468335,107.0
2023-08-15 17:52:04.476025,128.0
2023-08-15 17:52:04.483714,147.0
2023-08-15 17:52:04.491404,152.0
2023-08-15 17:52:04.499093,149.0
2023-08-15 17:52:04.506783,157.0
2023-08-15 17:52:04.514473,157.0
2023-08-15 17:52:04.522162,130.0
2023-08-15 17:52:04.529852,88.0
2023-08-15 17:52:04.537541,35.0
2023-08-15 17:52:04.545231,-23.0
2023-08-15 17:52:04.552921,-76.0
2023-08-15 17:52:04.560610,-116.0
2023-08-15 17:52:04.568300,-147.0
2023-08-15 17:52:04.575990,-166.0
2023-08-15 17:52:04.583679,-180.0
2023-08-15 17:52:04.591369,-188.0
2023-08-15 17:52:04.599058,-183.0
2023-08-15 17:52:04.606748,-178.0
2023-08-15 17:52:04.614438,-180.0
2023-08-15 17:52:04.622127,-180.0
2023-08-15 17:52:04.629817,-169.0
2023-08-15 17:52:04.637506,-157.0
2023-08-15 17:52:04.645196,-154.0
2023-08-15 17:52:04.652886,-152.0
2023-08-15 17:52:04.660575,-145.0
2023-08-15 17:52:04.668265,-138.0
2023-08-15 17:52:04.675955,-138.0
2023-08-15 17:52:04.683644,-135.0
2023-08-15 17:52:04.691334,-128.0
2023-08-15 17:52:04.699023,-126.0
2023-08-15 17:52:04.706713,-123.0
2023-08-15 17:52:04.714403,-123.0
2023-08-15 17:52:04.722092,-119.0
2023-08-15 17:52:04.729782,-119.0
2023-08-15 17:52:04.737471,-119.0
2023-08-15 17:52:04.745161,-119.0
2023-08-15 17:52:04.752851,-119.0
2023-08-15 17:52:04.760540,-119.0
2023-08-15 17:52:04.768230,-119.0
2023-08-15 17:52:04.775920,-116.0
2023-08-15 17:52:04.783609,-114.0
2023-08-15 17:52:04.791299,-111.0
2023-08-15 17:52:04.798988,-111.0
2023-08-15 17:52:04.806678,-109.0
2023-08-15 17:52:04.814368,-109.0
2023-08-15 17:52:04.822057,-102.0
2023-08-15 17:52:04.829747,-83.0
2023-08-15 17:52:04.837436,-66.0
2023-08-15 17:52:04.845126,-69.0
2023-08-15 17:52:04.852816,-85.0
2023-08-15 17:52:04.860505,-107.0
2023-08-15 17:52:04.868195,-119.0
2023-08-15 17:52:04.875885,-116.0
2023-08-15 17:52:04.883574,-116.0
2023-08-15 17:52:04.891264,-116.0
2023-08-15 17:52:04.898953,-92.0
2023-08-15 17:52:04.906643,4.0
2023-08-15 17:52:04.914333,249.0
2023-08-15 17:52:04.922022,533.0
2023-08-15 17:52:04.929712,471.0
2023-08-15 17:52:04.937401,-64.0
2023-08-15 17:52:04.945091,-571.0
2023-08-15 17:52:04.952781,-545.0
2023-08-15 17:52:04.960470,-221.0
2023-08-15 17:52:04.968160,-92.0
2023-08-15 17:52:04.975850,-119.0
2023-08-15 17:52:04.983539,-92.0
2023-08-15 17:52:04.991229,-69.0
2023-08-15 17:52:04.998918,-78.0
2023-08-15 17:52:05.006608,-69.0
2023-08-15 17:52:05.014298,-49.0
2023-08-15 17:52:05.021987,-42.0
2023-08-15 17:52:05.029677,-42.0
2023-08-15 17:52:05.037366,-38.0
2023-08-15 17:52:05.045056,-26.0
2023-08-15 17:52:05.052746,-7.0
2023-08-15 17:52:05.060435,11.0
2023-08-15 17:52:05.068125,26.0
2023-08-15 17:52:05.075815,40.0
2023-08-15 17:52:05.083504,59.0
2023-08-15 17:52:05.091194,83.0
2023-08-15 17:52:05.098883,104.0
2023-08-15 17:52:05.106573,126.0
2023-08-15 17:52:05.114263,145.0
2023-08-15 17:52:05.121952,157.0
2023-08-15 17:52:05.129642,164.0
2023-08-15 17:52:05.137331,166.0
2023-08-15 17:52:05.145021,154.0
2023-08-15 17:52:05.152711,130.0
2023-08-15 17:52:05.160400,90.0
2023-08-15 17:52:05.168090,33.0
2023-08-15 17:52:05.175780,-26.0
2023-08-15 17:52:05.183469,-83.0
2023-08-15 17:52:05.191159,-126.0
2023-08-15 17:52:05.198848,-152.0
2023-08-15 17:52:05.206538,-171.0
2023-08-15 17:52:05.214228,-183.0
2023-08-15 17:52:05.221917,-188.0
2023-08-15 17:52:05.229607,-188.0
2023-08-15 17:52:05.237296,-185.0
2023-08-15 17:52:05.244986,-180.0
2023-08-15 17:52:05.252676,-178.0
2023-08-15 17:52:05.260365,-173.0
2023-08-15 17:52:05.268055,-166.0
2023-08-15 17:52:05.275745,-159.0
2023-08-15 17:52:05.283434,-152.0
2023-08-15 17:52:05.291124,-145.0
2023-08-15 17:52:05.298813,-140.0
2023-08-15 17:52:05.306503,-138.0
2023-08-15 17:52:05.314193,-133.0
2023-08-15 17:52:05.321882,-126.0
2023-08-15 17:52:05.329572,-123.0
2023-08-15 17:52:05.337261,-121.0
2023-08-15 17:52:05.344951,-116.0
2023-08-15 17:52:05.352641,-116.0
2023-08-15 17:52:05.360330,-116.0
2023-08-15 17:52:05.368020,-114.0
2023-08-15 17:52:05.375710,-119.0
2023-08-15 17:52:05.383399,-123.0
2023-08-15 17:52:05.391089,-123.0
2023-08-15 17:52:05.398778,-121.0
2023-08-15 17:52:05.406468,-121.0
2023-08-15 17:52:05.414158,-119.0
2023-08-15 17:52:05.421847,-114.0
2023-08-15 17:52:05.429537,-116.0
2023-08-15 17:52:05.437226,-119.0
2023-08-15 17:52:05.444916,-114.0
2023-08-15 17:52:05.452606,-99.0
2023-08-15 17:52:05.460295,-97.0
2023-08-15 17:52:05.467985,-95.0
2023-08-15 17:52:05.475675,-76.0
2023-08-15 17:52:05.483364,-61.0
2023-08-15 17:52:05.491054,-69.0
2023-08-15 17:52:05.498743,-88.0
2023-08-15 17:52:05.506433,-109.0
2023-08-15 17:52:05.514123,-114.0
2023-08-15 17:52:05.521812,-104.0
2023-08-15 17:52:05.529502,-104.0
2023-08-15 17:52:05.537191,-107.0
2023-08-15 17:52:05.544881,-85.0
2023-08-15 17:52:05.552571,19.0
2023-08-15 17:52:05.560260,278.0
2023-08-15 17:52:05.567950,540.0
2023-08-15 17:52:05.575640,418.0
2023-08-15 17:52:05.583329,-128.0
2023-08-15 17:52:05.591019,-583.0
2023-08-15 17:52:05.598708,-495.0
2023-08-15 17:52:05.606398,-147.0
2023-08-15 17:52:05.614088,-57.0
2023-08-15 17:52:05.621777,-123.0
2023-08-15 17:52:05.629467,-97.0
2023-08-15 17:52:05.637156,-61.0
2023-08-15 17:52:05.644846,-78.0
2023-08-15 17:52:05.652536,-73.0
2023-08-15 17:52:05.660225,-52.0
2023-08-15 17:52:05.667915,-49.0
2023-08-15 17:52:05.675605,-45.0
2023-08-15 17:52:05.683294,-28.0
2023-08-15 17:52:05.690984,-14.0
2023-08-15 17:52:05.698673,0.0
2023-08-15 17:52:05.706363,16.0
2023-08-15 17:52:05.714053,28.0
2023-08-15 17:52:05.721742,45.0
2023-08-15 17:52:05.729432,69.0
2023-08-15 17:52:05.737121,88.0
2023-08-15 17:52:05.744811,109.0
2023-08-15 17:52:05.752501,133.0
2023-08-15 17:52:05.760190,152.0
2023-08-15 17:52:05.767880,164.0
2023-08-15 17:52:05.775570,173.0
2023-08-15 17:52:05.783259,176.0
2023-08-15 17:52:05.790949,161.0
2023-08-15 17:52:05.798638,133.0
2023-08-15 17:52:05.806328,97.0
2023-08-15 17:52:05.814018,40.0
2023-08-15 17:52:05.821707,-23.0
2023-08-15 17:52:05.829397,-80.0
2023-08-15 17:52:05.837086,-116.0
2023-08-15 17:52:05.844776,-142.0
2023-08-15 17:52:05.852466,-159.0
2023-08-15 17:52:05.860155,-171.0
