time,ECG
2023-12-20 14:18:31.243910,-59.0
2023-12-20 14:18:31.251599,-52.0
2023-12-20 14:18:31.259288,-35.0
2023-12-20 14:18:31.266977,-35.0
2023-12-20 14:18:31.274666,-35.0
2023-12-20 14:18:31.282355,-35.0
2023-12-20 14:18:31.290044,-35.0
2023-12-20 14:18:31.297733,-26.0
2023-12-20 14:18:31.305422,-21.0
2023-12-20 14:18:31.313111,-26.0
2023-12-20 14:18:31.320800,-28.0
2023-12-20 14:18:31.328489,-35.0
2023-12-20 14:18:31.336178,-50.0
2023-12-20 14:18:31.343867,-57.0
2023-12-20 14:18:31.351556,-52.0
2023-12-20 14:18:31.359245,-42.0
2023-12-20 14:18:31.366934,-28.0
2023-12-20 14:18:31.374623,-19.0
2023-12-20 14:18:31.382312,-33.0
2023-12-20 14:18:31.390001,-61.0
2023-12-20 14:18:31.397690,-61.0
2023-12-20 14:18:31.405379,-57.0
2023-12-20 14:18:31.413068,-64.0
2023-12-20 14:18:31.420757,-66.0
2023-12-20 14:18:31.428446,-104.0
2023-12-20 14:18:31.436135,-278.0
2023-12-20 14:18:31.443824,-503.0
2023-12-20 14:18:31.451513,-453.0
2023-12-20 14:18:31.459202,-57.0
2023-12-20 14:18:31.466891,278.0
2023-12-20 14:18:31.474580,307.0
2023-12-20 14:18:31.482269,202.0
2023-12-20 14:18:31.489958,100.0
2023-12-20 14:18:31.497647,-4.0
2023-12-20 14:18:31.505336,-61.0
2023-12-20 14:18:31.513025,-59.0
2023-12-20 14:18:31.520714,-57.0
2023-12-20 14:18:31.528403,-78.0
2023-12-20 14:18:31.536092,-85.0
2023-12-20 14:18:31.543781,-83.0
2023-12-20 14:18:31.551470,-97.0
2023-12-20 14:18:31.559159,-107.0
2023-12-20 14:18:31.566848,-100.0
2023-12-20 14:18:31.574537,-102.0
2023-12-20 14:18:31.582226,-112.0
2023-12-20 14:18:31.589915,-112.0
2023-12-20 14:18:31.597604,-114.0
2023-12-20 14:18:31.605293,-119.0
2023-12-20 14:18:31.612982,-114.0
2023-12-20 14:18:31.620671,-107.0
2023-12-20 14:18:31.628360,-104.0
2023-12-20 14:18:31.636049,-100.0
2023-12-20 14:18:31.643737,-85.0
2023-12-20 14:18:31.651426,-81.0
2023-12-20 14:18:31.659115,-88.0
2023-12-20 14:18:31.666804,-81.0
2023-12-20 14:18:31.674493,-66.0
2023-12-20 14:18:31.682182,-61.0
2023-12-20 14:18:31.689871,-57.0
2023-12-20 14:18:31.697560,-42.0
2023-12-20 14:18:31.705249,-26.0
2023-12-20 14:18:31.712938,-19.0
2023-12-20 14:18:31.720627,-16.0
2023-12-20 14:18:31.728316,-9.0
2023-12-20 14:18:31.736005,-4.0
2023-12-20 14:18:31.743694,-4.0
2023-12-20 14:18:31.751383,0.0
2023-12-20 14:18:31.759072,-2.0
2023-12-20 14:18:31.766761,-9.0
2023-12-20 14:18:31.774450,-14.0
2023-12-20 14:18:31.782139,-33.0
2023-12-20 14:18:31.789828,-54.0
2023-12-20 14:18:31.797517,-47.0
2023-12-20 14:18:31.805206,-33.0
2023-12-20 14:18:31.812895,-35.0
2023-12-20 14:18:31.820584,-47.0
2023-12-20 14:18:31.828273,-66.0
2023-12-20 14:18:31.835962,-69.0
2023-12-20 14:18:31.843651,-50.0
2023-12-20 14:18:31.851340,-45.0
2023-12-20 14:18:31.859029,-45.0
2023-12-20 14:18:31.866718,-40.0
2023-12-20 14:18:31.874407,-40.0
2023-12-20 14:18:31.882096,-40.0
2023-12-20 14:18:31.889785,-42.0
2023-12-20 14:18:31.897474,-64.0
2023-12-20 14:18:31.905163,-71.0
2023-12-20 14:18:31.912852,-59.0
2023-12-20 14:18:31.920541,-61.0
2023-12-20 14:18:31.928230,-73.0
2023-12-20 14:18:31.935919,-76.0
2023-12-20 14:18:31.943608,-85.0
2023-12-20 14:18:31.951297,-102.0
2023-12-20 14:18:31.958986,-97.0
2023-12-20 14:18:31.966675,-73.0
2023-12-20 14:18:31.974364,-52.0
2023-12-20 14:18:31.982053,-42.0
2023-12-20 14:18:31.989742,-45.0
2023-12-20 14:18:31.997431,-50.0
2023-12-20 14:18:32.005120,-50.0
2023-12-20 14:18:32.012809,-45.0
2023-12-20 14:18:32.020498,-38.0
2023-12-20 14:18:32.028187,-38.0
2023-12-20 14:18:32.035876,-121.0
2023-12-20 14:18:32.043565,-331.0
2023-12-20 14:18:32.051254,-512.0
2023-12-20 14:18:32.058943,-362.0
2023-12-20 14:18:32.066632,66.0
2023-12-20 14:18:32.074321,336.0
2023-12-20 14:18:32.082010,309.0
2023-12-20 14:18:32.089699,193.0
2023-12-20 14:18:32.097388,78.0
2023-12-20 14:18:32.105077,-23.0
2023-12-20 14:18:32.112766,-66.0
2023-12-20 14:18:32.120455,-57.0
2023-12-20 14:18:32.128144,-66.0
2023-12-20 14:18:32.135833,-85.0
2023-12-20 14:18:32.143522,-90.0
2023-12-20 14:18:32.151210,-95.0
2023-12-20 14:18:32.158899,-102.0
2023-12-20 14:18:32.166588,-102.0
2023-12-20 14:18:32.174277,-104.0
2023-12-20 14:18:32.181966,-114.0
2023-12-20 14:18:32.189655,-114.0
2023-12-20 14:18:32.197344,-107.0
2023-12-20 14:18:32.205033,-107.0
2023-12-20 14:18:32.212722,-112.0
2023-12-20 14:18:32.220411,-112.0
2023-12-20 14:18:32.228100,-112.0
2023-12-20 14:18:32.235789,-107.0
2023-12-20 14:18:32.243478,-92.0
2023-12-20 14:18:32.251167,-78.0
2023-12-20 14:18:32.258856,-71.0
2023-12-20 14:18:32.266545,-64.0
2023-12-20 14:18:32.274234,-64.0
2023-12-20 14:18:32.281923,-64.0
2023-12-20 14:18:32.289612,-52.0
2023-12-20 14:18:32.297301,-33.0
2023-12-20 14:18:32.304990,-21.0
2023-12-20 14:18:32.312679,-19.0
2023-12-20 14:18:32.320368,-33.0
2023-12-20 14:18:32.328057,-45.0
2023-12-20 14:18:32.335746,-30.0
2023-12-20 14:18:32.343435,-16.0
2023-12-20 14:18:32.351124,-21.0
2023-12-20 14:18:32.358813,-26.0
2023-12-20 14:18:32.366502,-26.0
2023-12-20 14:18:32.374191,-21.0
2023-12-20 14:18:32.381880,-21.0
2023-12-20 14:18:32.389569,-33.0
2023-12-20 14:18:32.397258,-54.0
2023-12-20 14:18:32.404947,-66.0
2023-12-20 14:18:32.412636,-61.0
2023-12-20 14:18:32.420325,-52.0
2023-12-20 14:18:32.428014,-50.0
2023-12-20 14:18:32.435703,-45.0
2023-12-20 14:18:32.443392,-35.0
2023-12-20 14:18:32.451081,-35.0
2023-12-20 14:18:32.458770,-40.0
2023-12-20 14:18:32.466459,-33.0
2023-12-20 14:18:32.474148,-23.0
2023-12-20 14:18:32.481837,-21.0
2023-12-20 14:18:32.489526,-19.0
2023-12-20 14:18:32.497215,-19.0
2023-12-20 14:18:32.504904,-21.0
2023-12-20 14:18:32.512593,-21.0
2023-12-20 14:18:32.520282,-21.0
2023-12-20 14:18:32.527971,-14.0
2023-12-20 14:18:32.535660,-9.0
2023-12-20 14:18:32.543349,-21.0
2023-12-20 14:18:32.551038,-40.0
2023-12-20 14:18:32.558727,-50.0
2023-12-20 14:18:32.566416,-54.0
2023-12-20 14:18:32.574105,-57.0
2023-12-20 14:18:32.581794,-50.0
2023-12-20 14:18:32.589483,-35.0
2023-12-20 14:18:32.597172,-23.0
2023-12-20 14:18:32.604861,-16.0
2023-12-20 14:18:32.612550,-16.0
2023-12-20 14:18:32.620239,-14.0
2023-12-20 14:18:32.627928,-14.0
2023-12-20 14:18:32.635617,-23.0
2023-12-20 14:18:32.643306,-28.0
2023-12-20 14:18:32.650994,-47.0
2023-12-20 14:18:32.658683,-174.0
2023-12-20 14:18:32.666372,-388.0
2023-12-20 14:18:32.674061,-433.0
2023-12-20 14:18:32.681750,-133.0
2023-12-20 14:18:32.689439,233.0
2023-12-20 14:18:32.697128,338.0
2023-12-20 14:18:32.704817,262.0
2023-12-20 14:18:32.712506,150.0
2023-12-20 14:18:32.720195,23.0
2023-12-20 14:18:32.727884,-61.0
2023-12-20 14:18:32.735573,-73.0
2023-12-20 14:18:32.743262,-66.0
2023-12-20 14:18:32.750951,-73.0
2023-12-20 14:18:32.758640,-81.0
2023-12-20 14:18:32.766329,-78.0
2023-12-20 14:18:32.774018,-88.0
2023-12-20 14:18:32.781707,-92.0
2023-12-20 14:18:32.789396,-92.0
2023-12-20 14:18:32.797085,-90.0
2023-12-20 14:18:32.804774,-90.0
2023-12-20 14:18:32.812463,-92.0
2023-12-20 14:18:32.820152,-97.0
2023-12-20 14:18:32.827841,-102.0
2023-12-20 14:18:32.835530,-100.0
2023-12-20 14:18:32.843219,-92.0
2023-12-20 14:18:32.850908,-88.0
2023-12-20 14:18:32.858597,-85.0
2023-12-20 14:18:32.866286,-81.0
2023-12-20 14:18:32.873975,-73.0
2023-12-20 14:18:32.881664,-66.0
2023-12-20 14:18:32.889353,-69.0
2023-12-20 14:18:32.897042,-71.0
2023-12-20 14:18:32.904731,-81.0
2023-12-20 14:18:32.912420,-85.0
2023-12-20 14:18:32.920109,-69.0
2023-12-20 14:18:32.927798,-47.0
2023-12-20 14:18:32.935487,-38.0
2023-12-20 14:18:32.943176,-38.0
2023-12-20 14:18:32.950865,-50.0
2023-12-20 14:18:32.958554,-54.0
2023-12-20 14:18:32.966243,-42.0
2023-12-20 14:18:32.973932,-33.0
2023-12-20 14:18:32.981621,-40.0
2023-12-20 14:18:32.989310,-45.0
2023-12-20 14:18:32.996999,-45.0
2023-12-20 14:18:33.004688,-45.0
2023-12-20 14:18:33.012377,-40.0
2023-12-20 14:18:33.020066,-33.0
2023-12-20 14:18:33.027755,-28.0
2023-12-20 14:18:33.035444,-33.0
2023-12-20 14:18:33.043133,-33.0
2023-12-20 14:18:33.050822,-30.0
2023-12-20 14:18:33.058511,-28.0
2023-12-20 14:18:33.066200,-23.0
2023-12-20 14:18:33.073889,-19.0
2023-12-20 14:18:33.081578,-19.0
2023-12-20 14:18:33.089267,-26.0
2023-12-20 14:18:33.096956,-26.0
2023-12-20 14:18:33.104645,-23.0
2023-12-20 14:18:33.112334,-16.0
2023-12-20 14:18:33.120023,-11.0
2023-12-20 14:18:33.127712,-14.0
2023-12-20 14:18:33.135401,-28.0
2023-12-20 14:18:33.143090,-35.0
2023-12-20 14:18:33.150778,-28.0
2023-12-20 14:18:33.158467,-26.0
2023-12-20 14:18:33.166156,-35.0
2023-12-20 14:18:33.173845,-47.0
2023-12-20 14:18:33.181534,-59.0
2023-12-20 14:18:33.189223,-69.0
2023-12-20 14:18:33.196912,-64.0
2023-12-20 14:18:33.204601,-47.0
2023-12-20 14:18:33.212290,-30.0
2023-12-20 14:18:33.219979,-23.0
2023-12-20 14:18:33.227668,-23.0
2023-12-20 14:18:33.235357,-23.0
2023-12-20 14:18:33.243046,-23.0
2023-12-20 14:18:33.250735,-23.0
2023-12-20 14:18:33.258424,-19.0
2023-12-20 14:18:33.266113,-19.0
2023-12-20 14:18:33.273802,-47.0
2023-12-20 14:18:33.281491,-171.0
2023-12-20 14:18:33.289180,-376.0
2023-12-20 14:18:33.296869,-412.0
2023-12-20 14:18:33.304558,-114.0
2023-12-20 14:18:33.312247,233.0
2023-12-20 14:18:33.319936,305.0
2023-12-20 14:18:33.327625,212.0
2023-12-20 14:18:33.335314,116.0
2023-12-20 14:18:33.343003,7.0
2023-12-20 14:18:33.350692,-83.0
2023-12-20 14:18:33.358381,-90.0
2023-12-20 14:18:33.366070,-71.0
2023-12-20 14:18:33.373759,-85.0
2023-12-20 14:18:33.381448,-104.0
2023-12-20 14:18:33.389137,-100.0
2023-12-20 14:18:33.396826,-95.0
2023-12-20 14:18:33.404515,-112.0
2023-12-20 14:18:33.412204,-128.0
2023-12-20 14:18:33.419893,-128.0
2023-12-20 14:18:33.427582,-123.0
2023-12-20 14:18:33.435271,-126.0
2023-12-20 14:18:33.442960,-128.0
2023-12-20 14:18:33.450649,-128.0
2023-12-20 14:18:33.458338,-123.0
2023-12-20 14:18:33.466027,-116.0
2023-12-20 14:18:33.473716,-112.0
2023-12-20 14:18:33.481405,-114.0
2023-12-20 14:18:33.489094,-126.0
2023-12-20 14:18:33.496783,-135.0
2023-12-20 14:18:33.504472,-119.0
2023-12-20 14:18:33.512161,-102.0
2023-12-20 14:18:33.519850,-104.0
2023-12-20 14:18:33.527539,-97.0
2023-12-20 14:18:33.535228,-83.0
2023-12-20 14:18:33.542917,-73.0
2023-12-20 14:18:33.550606,-59.0
2023-12-20 14:18:33.558295,-42.0
2023-12-20 14:18:33.565984,-35.0
2023-12-20 14:18:33.573673,-28.0
2023-12-20 14:18:33.581362,-23.0
2023-12-20 14:18:33.589051,-23.0
2023-12-20 14:18:33.596740,-19.0
2023-12-20 14:18:33.604429,-19.0
2023-12-20 14:18:33.612118,-21.0
2023-12-20 14:18:33.619807,-26.0
2023-12-20 14:18:33.627496,-33.0
2023-12-20 14:18:33.635185,-33.0
2023-12-20 14:18:33.642874,-30.0
2023-12-20 14:18:33.650563,-28.0
2023-12-20 14:18:33.658251,-30.0
2023-12-20 14:18:33.665940,-30.0
2023-12-20 14:18:33.673629,-28.0
2023-12-20 14:18:33.681318,-28.0
2023-12-20 14:18:33.689007,-23.0
2023-12-20 14:18:33.696696,-21.0
2023-12-20 14:18:33.704385,-23.0
2023-12-20 14:18:33.712074,-23.0
2023-12-20 14:18:33.719763,-21.0
2023-12-20 14:18:33.727452,-23.0
2023-12-20 14:18:33.735141,-28.0
2023-12-20 14:18:33.742830,-28.0
2023-12-20 14:18:33.750519,-28.0
2023-12-20 14:18:33.758208,-33.0
2023-12-20 14:18:33.765897,-35.0
2023-12-20 14:18:33.773586,-28.0
2023-12-20 14:18:33.781275,-26.0
2023-12-20 14:18:33.788964,-40.0
2023-12-20 14:18:33.796653,-54.0
2023-12-20 14:18:33.804342,-61.0
2023-12-20 14:18:33.812031,-66.0
2023-12-20 14:18:33.819720,-61.0
2023-12-20 14:18:33.827409,-47.0
2023-12-20 14:18:33.835098,-28.0
2023-12-20 14:18:33.842787,-21.0
2023-12-20 14:18:33.850476,-26.0
2023-12-20 14:18:33.858165,-35.0
2023-12-20 14:18:33.865854,-35.0
2023-12-20 14:18:33.873543,-35.0
2023-12-20 14:18:33.881232,-40.0
2023-12-20 14:18:33.888921,-42.0
2023-12-20 14:18:33.896610,-83.0
2023-12-20 14:18:33.904299,-219.0
2023-12-20 14:18:33.911988,-426.0
2023-12-20 14:18:33.919677,-450.0
2023-12-20 14:18:33.927366,-131.0
2023-12-20 14:18:33.935055,202.0
2023-12-20 14:18:33.942744,255.0
2023-12-20 14:18:33.950433,185.0
2023-12-20 14:18:33.958122,114.0
2023-12-20 14:18:33.965811,-2.0
2023-12-20 14:18:33.973500,-97.0
2023-12-20 14:18:33.981189,-114.0
2023-12-20 14:18:33.988878,-100.0
2023-12-20 14:18:33.996567,-107.0
2023-12-20 14:18:34.004256,-112.0
2023-12-20 14:18:34.011945,-107.0
2023-12-20 14:18:34.019634,-112.0
2023-12-20 14:18:34.027323,-133.0
2023-12-20 14:18:34.035012,-150.0
2023-12-20 14:18:34.042701,-147.0
2023-12-20 14:18:34.050390,-138.0
2023-12-20 14:18:34.058079,-135.0
2023-12-20 14:18:34.065768,-140.0
2023-12-20 14:18:34.073457,-164.0
2023-12-20 14:18:34.081146,-185.0
2023-12-20 14:18:34.088835,-171.0
2023-12-20 14:18:34.096524,-150.0
2023-12-20 14:18:34.104213,-147.0
2023-12-20 14:18:34.111902,-145.0
2023-12-20 14:18:34.119591,-138.0
2023-12-20 14:18:34.127280,-133.0
2023-12-20 14:18:34.134969,-121.0
2023-12-20 14:18:34.142658,-112.0
2023-12-20 14:18:34.150347,-112.0
2023-12-20 14:18:34.158035,-104.0
2023-12-20 14:18:34.165724,-90.0
2023-12-20 14:18:34.173413,-73.0
2023-12-20 14:18:34.181102,-59.0
2023-12-20 14:18:34.188791,-47.0
2023-12-20 14:18:34.196480,-35.0
2023-12-20 14:18:34.204169,-30.0
2023-12-20 14:18:34.211858,-40.0
2023-12-20 14:18:34.219547,-42.0
2023-12-20 14:18:34.227236,-33.0
2023-12-20 14:18:34.234925,-30.0
2023-12-20 14:18:34.242614,-33.0
2023-12-20 14:18:34.250303,-30.0
2023-12-20 14:18:34.257992,-42.0
2023-12-20 14:18:34.265681,-50.0
2023-12-20 14:18:34.273370,-40.0
2023-12-20 14:18:34.281059,-30.0
2023-12-20 14:18:34.288748,-33.0
2023-12-20 14:18:34.296437,-38.0
2023-12-20 14:18:34.304126,-33.0
2023-12-20 14:18:34.311815,-28.0
2023-12-20 14:18:34.319504,-33.0
2023-12-20 14:18:34.327193,-42.0
2023-12-20 14:18:34.334882,-45.0
2023-12-20 14:18:34.342571,-45.0
2023-12-20 14:18:34.350260,-52.0
2023-12-20 14:18:34.357949,-54.0
2023-12-20 14:18:34.365638,-50.0
2023-12-20 14:18:34.373327,-54.0
2023-12-20 14:18:34.381016,-59.0
2023-12-20 14:18:34.388705,-54.0
2023-12-20 14:18:34.396394,-54.0
2023-12-20 14:18:34.404083,-61.0
2023-12-20 14:18:34.411772,-69.0
2023-12-20 14:18:34.419461,-85.0
2023-12-20 14:18:34.427150,-112.0
2023-12-20 14:18:34.434839,-112.0
2023-12-20 14:18:34.442528,-88.0
2023-12-20 14:18:34.450217,-64.0
2023-12-20 14:18:34.457906,-54.0
2023-12-20 14:18:34.465595,-52.0
2023-12-20 14:18:34.473284,-50.0
2023-12-20 14:18:34.480973,-61.0
2023-12-20 14:18:34.488662,-73.0
2023-12-20 14:18:34.496351,-61.0
2023-12-20 14:18:34.504040,-81.0
2023-12-20 14:18:34.511729,-193.0
2023-12-20 14:18:34.519418,-388.0
2023-12-20 14:18:34.527107,-505.0
2023-12-20 14:18:34.534796,-293.0
2023-12-20 14:18:34.542485,112.0
2023-12-20 14:18:34.550174,290.0
2023-12-20 14:18:34.557863,245.0
2023-12-20 14:18:34.565552,171.0
2023-12-20 14:18:34.573241,61.0
2023-12-20 14:18:34.580930,-59.0
2023-12-20 14:18:34.588619,-100.0
2023-12-20 14:18:34.596308,-85.0
2023-12-20 14:18:34.603997,-90.0
2023-12-20 14:18:34.611686,-114.0
2023-12-20 14:18:34.619375,-114.0
2023-12-20 14:18:34.627064,-109.0
2023-12-20 14:18:34.634753,-112.0
2023-12-20 14:18:34.642442,-104.0
2023-12-20 14:18:34.650131,-102.0
2023-12-20 14:18:34.657819,-131.0
2023-12-20 14:18:34.665508,-157.0
2023-12-20 14:18:34.673197,-147.0
2023-12-20 14:18:34.680886,-131.0
2023-12-20 14:18:34.688575,-131.0
2023-12-20 14:18:34.696264,-128.0
2023-12-20 14:18:34.703953,-123.0
2023-12-20 14:18:34.711642,-121.0
2023-12-20 14:18:34.719331,-112.0
2023-12-20 14:18:34.727020,-97.0
2023-12-20 14:18:34.734709,-83.0
2023-12-20 14:18:34.742398,-81.0
2023-12-20 14:18:34.750087,-83.0
2023-12-20 14:18:34.757776,-73.0
2023-12-20 14:18:34.765465,-64.0
2023-12-20 14:18:34.773154,-57.0
2023-12-20 14:18:34.780843,-38.0
2023-12-20 14:18:34.788532,-19.0
2023-12-20 14:18:34.796221,-14.0
2023-12-20 14:18:34.803910,-11.0
2023-12-20 14:18:34.811599,-4.0
2023-12-20 14:18:34.819288,-2.0
2023-12-20 14:18:34.826977,-4.0
2023-12-20 14:18:34.834666,-7.0
2023-12-20 14:18:34.842355,-11.0
2023-12-20 14:18:34.850044,-21.0
2023-12-20 14:18:34.857733,-28.0
2023-12-20 14:18:34.865422,-26.0
2023-12-20 14:18:34.873111,-19.0
2023-12-20 14:18:34.880800,-11.0
2023-12-20 14:18:34.888489,-19.0
2023-12-20 14:18:34.896178,-35.0
2023-12-20 14:18:34.903867,-33.0
2023-12-20 14:18:34.911556,-19.0
2023-12-20 14:18:34.919245,-28.0
2023-12-20 14:18:34.926934,-54.0
2023-12-20 14:18:34.934623,-52.0
2023-12-20 14:18:34.942312,-38.0
2023-12-20 14:18:34.950001,-40.0
2023-12-20 14:18:34.957690,-45.0
2023-12-20 14:18:34.965379,-35.0
2023-12-20 14:18:34.973068,-33.0
2023-12-20 14:18:34.980757,-40.0
2023-12-20 14:18:34.988446,-42.0
2023-12-20 14:18:34.996135,-38.0
2023-12-20 14:18:35.003824,-38.0
2023-12-20 14:18:35.011513,-45.0
2023-12-20 14:18:35.019202,-54.0
2023-12-20 14:18:35.026891,-57.0
2023-12-20 14:18:35.034580,-54.0
2023-12-20 14:18:35.042269,-54.0
2023-12-20 14:18:35.049958,-38.0
2023-12-20 14:18:35.057647,-9.0
2023-12-20 14:18:35.065336,-11.0
2023-12-20 14:18:35.073025,-28.0
2023-12-20 14:18:35.080714,-28.0
2023-12-20 14:18:35.088403,-33.0
2023-12-20 14:18:35.096092,-42.0
2023-12-20 14:18:35.103781,-50.0
2023-12-20 14:18:35.111470,-100.0
2023-12-20 14:18:35.119159,-250.0
2023-12-20 14:18:35.126848,-448.0
2023-12-20 14:18:35.134537,-433.0
2023-12-20 14:18:35.142226,-76.0
2023-12-20 14:18:35.149915,252.0
2023-12-20 14:18:35.157604,262.0
2023-12-20 14:18:35.165292,159.0
2023-12-20 14:18:35.172981,83.0
2023-12-20 14:18:35.180670,-28.0
2023-12-20 14:18:35.188359,-109.0
2023-12-20 14:18:35.196048,-119.0
2023-12-20 14:18:35.203737,-131.0
2023-12-20 14:18:35.211426,-145.0
2023-12-20 14:18:35.219115,-131.0
2023-12-20 14:18:35.226804,-123.0
2023-12-20 14:18:35.234493,-123.0
2023-12-20 14:18:35.242182,-121.0
2023-12-20 14:18:35.249871,-123.0
2023-12-20 14:18:35.257560,-128.0
2023-12-20 14:18:35.265249,-128.0
2023-12-20 14:18:35.272938,-123.0
2023-12-20 14:18:35.280627,-126.0
2023-12-20 14:18:35.288316,-145.0
2023-12-20 14:18:35.296005,-162.0
2023-12-20 14:18:35.303694,-145.0
2023-12-20 14:18:35.311383,-128.0
2023-12-20 14:18:35.319072,-133.0
2023-12-20 14:18:35.326761,-135.0
2023-12-20 14:18:35.334450,-140.0
2023-12-20 14:18:35.342139,-147.0
2023-12-20 14:18:35.349828,-135.0
2023-12-20 14:18:35.357517,-123.0
2023-12-20 14:18:35.365206,-119.0
2023-12-20 14:18:35.372895,-107.0
2023-12-20 14:18:35.380584,-102.0
2023-12-20 14:18:35.388273,-102.0
2023-12-20 14:18:35.395962,-90.0
2023-12-20 14:18:35.403651,-76.0
2023-12-20 14:18:35.411340,-64.0
2023-12-20 14:18:35.419029,-59.0
2023-12-20 14:18:35.426718,-81.0
2023-12-20 14:18:35.434407,-85.0
2023-12-20 14:18:35.442096,-64.0
2023-12-20 14:18:35.449785,-54.0
2023-12-20 14:18:35.457474,-57.0
2023-12-20 14:18:35.465163,-61.0
2023-12-20 14:18:35.472852,-61.0
2023-12-20 14:18:35.480541,-54.0
2023-12-20 14:18:35.488230,-47.0
2023-12-20 14:18:35.495919,-47.0
2023-12-20 14:18:35.503608,-50.0
2023-12-20 14:18:35.511297,-47.0
2023-12-20 14:18:35.518986,-42.0
2023-12-20 14:18:35.526675,-47.0
2023-12-20 14:18:35.534364,-50.0
2023-12-20 14:18:35.542053,-42.0
2023-12-20 14:18:35.549742,-40.0
2023-12-20 14:18:35.557431,-52.0
2023-12-20 14:18:35.565120,-57.0
2023-12-20 14:18:35.572809,-47.0
2023-12-20 14:18:35.580498,-45.0
2023-12-20 14:18:35.588187,-54.0
2023-12-20 14:18:35.595876,-61.0
2023-12-20 14:18:35.603565,-71.0
2023-12-20 14:18:35.611254,-71.0
2023-12-20 14:18:35.618943,-71.0
2023-12-20 14:18:35.626632,-76.0
2023-12-20 14:18:35.634321,-76.0
2023-12-20 14:18:35.642010,-71.0
2023-12-20 14:18:35.649699,-64.0
2023-12-20 14:18:35.657388,-40.0
2023-12-20 14:18:35.665076,-23.0
2023-12-20 14:18:35.672765,-30.0
2023-12-20 14:18:35.680454,-33.0
2023-12-20 14:18:35.688143,-35.0
2023-12-20 14:18:35.695832,-66.0
2023-12-20 14:18:35.703521,-83.0
2023-12-20 14:18:35.711210,-71.0
2023-12-20 14:18:35.718899,-131.0
2023-12-20 14:18:35.726588,-317.0
2023-12-20 14:18:35.734277,-495.0
2023-12-20 14:18:35.741966,-398.0
2023-12-20 14:18:35.749655,-19.0
2023-12-20 14:18:35.757344,245.0
2023-12-20 14:18:35.765033,231.0
2023-12-20 14:18:35.772722,133.0
2023-12-20 14:18:35.780411,35.0
2023-12-20 14:18:35.788100,-71.0
2023-12-20 14:18:35.795789,-116.0
2023-12-20 14:18:35.803478,-88.0
2023-12-20 14:18:35.811167,-81.0
2023-12-20 14:18:35.818856,-102.0
2023-12-20 14:18:35.826545,-104.0
2023-12-20 14:18:35.834234,-97.0
2023-12-20 14:18:35.841923,-112.0
2023-12-20 14:18:35.849612,-116.0
2023-12-20 14:18:35.857301,-102.0
2023-12-20 14:18:35.864990,-104.0
2023-12-20 14:18:35.872679,-116.0
2023-12-20 14:18:35.880368,-114.0
2023-12-20 14:18:35.888057,-107.0
2023-12-20 14:18:35.895746,-102.0
2023-12-20 14:18:35.903435,-107.0
2023-12-20 14:18:35.911124,-114.0
2023-12-20 14:18:35.918813,-112.0
2023-12-20 14:18:35.926502,-112.0
2023-12-20 14:18:35.934191,-112.0
2023-12-20 14:18:35.941880,-95.0
2023-12-20 14:18:35.949569,-78.0
2023-12-20 14:18:35.957258,-78.0
2023-12-20 14:18:35.964947,-78.0
2023-12-20 14:18:35.972636,-64.0
2023-12-20 14:18:35.980325,-45.0
2023-12-20 14:18:35.988014,-26.0
2023-12-20 14:18:35.995703,-11.0
2023-12-20 14:18:36.003392,-9.0
2023-12-20 14:18:36.011081,-4.0
2023-12-20 14:18:36.018770,0.0
2023-12-20 14:18:36.026459,-2.0
2023-12-20 14:18:36.034148,4.0
2023-12-20 14:18:36.041837,16.0
2023-12-20 14:18:36.049526,16.0
2023-12-20 14:18:36.057215,2.0
2023-12-20 14:18:36.064904,-4.0
2023-12-20 14:18:36.072593,0.0
2023-12-20 14:18:36.080282,-2.0
2023-12-20 14:18:36.087971,-9.0
2023-12-20 14:18:36.095660,-16.0
2023-12-20 14:18:36.103349,-16.0
2023-12-20 14:18:36.111038,-9.0
2023-12-20 14:18:36.118727,-7.0
2023-12-20 14:18:36.126416,0.0
2023-12-20 14:18:36.134105,4.0
2023-12-20 14:18:36.141794,-7.0
2023-12-20 14:18:36.149483,-16.0
2023-12-20 14:18:36.157172,-16.0
2023-12-20 14:18:36.164860,-11.0
2023-12-20 14:18:36.172549,-7.0
2023-12-20 14:18:36.180238,-4.0
2023-12-20 14:18:36.187927,-11.0
2023-12-20 14:18:36.195616,-19.0
2023-12-20 14:18:36.203305,-19.0
2023-12-20 14:18:36.210994,-28.0
2023-12-20 14:18:36.218683,-38.0
2023-12-20 14:18:36.226372,-42.0
2023-12-20 14:18:36.234061,-45.0
2023-12-20 14:18:36.241750,-38.0
2023-12-20 14:18:36.249439,-21.0
2023-12-20 14:18:36.257128,-2.0
2023-12-20 14:18:36.264817,-4.0
2023-12-20 14:18:36.272506,-11.0
2023-12-20 14:18:36.280195,-9.0
2023-12-20 14:18:36.287884,-16.0
2023-12-20 14:18:36.295573,-19.0
2023-12-20 14:18:36.303262,-7.0
2023-12-20 14:18:36.310951,-9.0
2023-12-20 14:18:36.318640,-88.0
2023-12-20 14:18:36.326329,-274.0
2023-12-20 14:18:36.334018,-422.0
2023-12-20 14:18:36.341707,-267.0
2023-12-20 14:18:36.349396,109.0
2023-12-20 14:18:36.357085,300.0
2023-12-20 14:18:36.364774,238.0
2023-12-20 14:18:36.372463,119.0
2023-12-20 14:18:36.380152,9.0
2023-12-20 14:18:36.387841,-76.0
2023-12-20 14:18:36.395530,-95.0
2023-12-20 14:18:36.403219,-88.0
2023-12-20 14:18:36.410908,-107.0
2023-12-20 14:18:36.418597,-133.0
2023-12-20 14:18:36.426286,-138.0
2023-12-20 14:18:36.433975,-138.0
2023-12-20 14:18:36.441664,-152.0
2023-12-20 14:18:36.449353,-157.0
2023-12-20 14:18:36.457042,-150.0
2023-12-20 14:18:36.464731,-152.0
2023-12-20 14:18:36.472420,-150.0
2023-12-20 14:18:36.480109,-143.0
2023-12-20 14:18:36.487798,-145.0
2023-12-20 14:18:36.495487,-145.0
2023-12-20 14:18:36.503176,-135.0
2023-12-20 14:18:36.510865,-133.0
2023-12-20 14:18:36.518554,-131.0
2023-12-20 14:18:36.526243,-131.0
2023-12-20 14:18:36.533932,-128.0
2023-12-20 14:18:36.541621,-114.0
2023-12-20 14:18:36.549310,-102.0
2023-12-20 14:18:36.556999,-102.0
2023-12-20 14:18:36.564688,-100.0
2023-12-20 14:18:36.572377,-83.0
2023-12-20 14:18:36.580066,-73.0
2023-12-20 14:18:36.587755,-66.0
2023-12-20 14:18:36.595444,-42.0
2023-12-20 14:18:36.603133,-23.0
2023-12-20 14:18:36.610822,-26.0
2023-12-20 14:18:36.618511,-26.0
2023-12-20 14:18:36.626200,-14.0
2023-12-20 14:18:36.633889,-11.0
2023-12-20 14:18:36.641578,-21.0
2023-12-20 14:18:36.649267,-26.0
2023-12-20 14:18:36.656956,-21.0
2023-12-20 14:18:36.664645,-19.0
2023-12-20 14:18:36.672333,-14.0
2023-12-20 14:18:36.680022,-9.0
2023-12-20 14:18:36.687711,-11.0
2023-12-20 14:18:36.695400,-11.0
2023-12-20 14:18:36.703089,-14.0
2023-12-20 14:18:36.710778,-19.0
2023-12-20 14:18:36.718467,-19.0
2023-12-20 14:18:36.726156,-14.0
2023-12-20 14:18:36.733845,-14.0
2023-12-20 14:18:36.741534,-19.0
2023-12-20 14:18:36.749223,-14.0
2023-12-20 14:18:36.756912,-7.0
2023-12-20 14:18:36.764601,-7.0
2023-12-20 14:18:36.772290,-19.0
2023-12-20 14:18:36.779979,-28.0
2023-12-20 14:18:36.787668,-21.0
2023-12-20 14:18:36.795357,-19.0
2023-12-20 14:18:36.803046,-33.0
2023-12-20 14:18:36.810735,-40.0
2023-12-20 14:18:36.818424,-40.0
2023-12-20 14:18:36.826113,-59.0
2023-12-20 14:18:36.833802,-76.0
2023-12-20 14:18:36.841491,-66.0
2023-12-20 14:18:36.849180,-45.0
2023-12-20 14:18:36.856869,-28.0
2023-12-20 14:18:36.864558,-38.0
2023-12-20 14:18:36.872247,-59.0
2023-12-20 14:18:36.879936,-52.0
2023-12-20 14:18:36.887625,-47.0
2023-12-20 14:18:36.895314,-59.0
2023-12-20 14:18:36.903003,-59.0
2023-12-20 14:18:36.910692,-76.0
2023-12-20 14:18:36.918381,-145.0
2023-12-20 14:18:36.926070,-295.0
2023-12-20 14:18:36.933759,-479.0
2023-12-20 14:18:36.941448,-405.0
2023-12-20 14:18:36.949137,-23.0
2023-12-20 14:18:36.956826,221.0
2023-12-20 14:18:36.964515,190.0
2023-12-20 14:18:36.972204,119.0
2023-12-20 14:18:36.979893,38.0
2023-12-20 14:18:36.987582,-88.0
2023-12-20 14:18:36.995271,-152.0
2023-12-20 14:18:37.002960,-140.0
2023-12-20 14:18:37.010649,-135.0
2023-12-20 14:18:37.018338,-140.0
2023-12-20 14:18:37.026027,-135.0
2023-12-20 14:18:37.033716,-140.0
2023-12-20 14:18:37.041405,-140.0
2023-12-20 14:18:37.049094,-126.0
2023-12-20 14:18:37.056783,-128.0
2023-12-20 14:18:37.064472,-143.0
2023-12-20 14:18:37.072161,-145.0
2023-12-20 14:18:37.079850,-140.0
2023-12-20 14:18:37.087539,-145.0
2023-12-20 14:18:37.095228,-145.0
2023-12-20 14:18:37.102917,-140.0
2023-12-20 14:18:37.110606,-135.0
2023-12-20 14:18:37.118295,-128.0
2023-12-20 14:18:37.125984,-114.0
2023-12-20 14:18:37.133673,-107.0
2023-12-20 14:18:37.141362,-100.0
2023-12-20 14:18:37.149051,-85.0
2023-12-20 14:18:37.156740,-83.0
2023-12-20 14:18:37.164429,-85.0
2023-12-20 14:18:37.172117,-71.0
2023-12-20 14:18:37.179806,-57.0
2023-12-20 14:18:37.187495,-50.0
2023-12-20 14:18:37.195184,-26.0
2023-12-20 14:18:37.202873,-19.0
2023-12-20 14:18:37.210562,-14.0
2023-12-20 14:18:37.218251,-2.0
2023-12-20 14:18:37.225940,-2.0
2023-12-20 14:18:37.233629,-7.0
2023-12-20 14:18:37.241318,4.0
2023-12-20 14:18:37.249007,9.0
2023-12-20 14:18:37.256696,0.0
2023-12-20 14:18:37.264385,-7.0
2023-12-20 14:18:37.272074,-2.0
2023-12-20 14:18:37.279763,0.0
2023-12-20 14:18:37.287452,0.0
2023-12-20 14:18:37.295141,-4.0
2023-12-20 14:18:37.302830,-4.0
2023-12-20 14:18:37.310519,0.0
2023-12-20 14:18:37.318208,0.0
2023-12-20 14:18:37.325897,-4.0
2023-12-20 14:18:37.333586,-7.0
2023-12-20 14:18:37.341275,-7.0
2023-12-20 14:18:37.348964,-4.0
2023-12-20 14:18:37.356653,-2.0
2023-12-20 14:18:37.364342,0.0
2023-12-20 14:18:37.372031,4.0
2023-12-20 14:18:37.379720,9.0
2023-12-20 14:18:37.387409,4.0
2023-12-20 14:18:37.395098,-4.0
2023-12-20 14:18:37.402787,-30.0
2023-12-20 14:18:37.410476,-61.0
2023-12-20 14:18:37.418165,-64.0
2023-12-20 14:18:37.425854,-64.0
2023-12-20 14:18:37.433543,-73.0
2023-12-20 14:18:37.441232,-76.0
2023-12-20 14:18:37.448921,-66.0
2023-12-20 14:18:37.456610,-47.0
2023-12-20 14:18:37.464299,-40.0
2023-12-20 14:18:37.471988,-40.0
2023-12-20 14:18:37.479677,-33.0
2023-12-20 14:18:37.487366,-30.0
2023-12-20 14:18:37.495055,-38.0
2023-12-20 14:18:37.502744,-38.0
2023-12-20 14:18:37.510433,-42.0
2023-12-20 14:18:37.518122,-133.0
2023-12-20 14:18:37.525811,-331.0
2023-12-20 14:18:37.533500,-441.0
2023-12-20 14:18:37.541189,-219.0
2023-12-20 14:18:37.548878,169.0
2023-12-20 14:18:37.556567,319.0
2023-12-20 14:18:37.564256,247.0
2023-12-20 14:18:37.571945,150.0
2023-12-20 14:18:37.579634,42.0
2023-12-20 14:18:37.587323,-61.0
2023-12-20 14:18:37.595012,-100.0
2023-12-20 14:18:37.602701,-85.0
2023-12-20 14:18:37.610390,-90.0
2023-12-20 14:18:37.618079,-104.0
2023-12-20 14:18:37.625768,-100.0
2023-12-20 14:18:37.633457,-104.0
2023-12-20 14:18:37.641146,-109.0
2023-12-20 14:18:37.648835,-95.0
2023-12-20 14:18:37.656524,-92.0
2023-12-20 14:18:37.664213,-107.0
2023-12-20 14:18:37.671901,-107.0
2023-12-20 14:18:37.679590,-104.0
2023-12-20 14:18:37.687279,-109.0
2023-12-20 14:18:37.694968,-104.0
2023-12-20 14:18:37.702657,-102.0
2023-12-20 14:18:37.710346,-112.0
2023-12-20 14:18:37.718035,-112.0
2023-12-20 14:18:37.725724,-100.0
2023-12-20 14:18:37.733413,-88.0
2023-12-20 14:18:37.741102,-71.0
2023-12-20 14:18:37.748791,-61.0
2023-12-20 14:18:37.756480,-57.0
2023-12-20 14:18:37.764169,-61.0
2023-12-20 14:18:37.771858,-64.0
2023-12-20 14:18:37.779547,-47.0
2023-12-20 14:18:37.787236,-23.0
2023-12-20 14:18:37.794925,-16.0
2023-12-20 14:18:37.802614,-19.0
2023-12-20 14:18:37.810303,-14.0
2023-12-20 14:18:37.817992,-11.0
2023-12-20 14:18:37.825681,-9.0
2023-12-20 14:18:37.833370,-4.0
2023-12-20 14:18:37.841059,2.0
2023-12-20 14:18:37.848748,0.0
2023-12-20 14:18:37.856437,-16.0
2023-12-20 14:18:37.864126,-21.0
2023-12-20 14:18:37.871815,-11.0
2023-12-20 14:18:37.879504,-14.0
2023-12-20 14:18:37.887193,-16.0
2023-12-20 14:18:37.894882,-16.0
2023-12-20 14:18:37.902571,-23.0
2023-12-20 14:18:37.910260,-21.0
2023-12-20 14:18:37.917949,-9.0
2023-12-20 14:18:37.925638,-9.0
2023-12-20 14:18:37.933327,-9.0
2023-12-20 14:18:37.941016,-4.0
2023-12-20 14:18:37.948705,-16.0
2023-12-20 14:18:37.956394,-35.0
2023-12-20 14:18:37.964083,-38.0
2023-12-20 14:18:37.971772,-23.0
2023-12-20 14:18:37.979461,-14.0
2023-12-20 14:18:37.987150,-35.0
2023-12-20 14:18:37.994839,-69.0
2023-12-20 14:18:38.002528,-73.0
2023-12-20 14:18:38.010217,-71.0
2023-12-20 14:18:38.017906,-83.0
2023-12-20 14:18:38.025595,-88.0
2023-12-20 14:18:38.033284,-92.0
2023-12-20 14:18:38.040973,-95.0
2023-12-20 14:18:38.048662,-78.0
2023-12-20 14:18:38.056351,-54.0
2023-12-20 14:18:38.064040,-52.0
2023-12-20 14:18:38.071729,-61.0
2023-12-20 14:18:38.079418,-66.0
2023-12-20 14:18:38.087107,-64.0
2023-12-20 14:18:38.094796,-59.0
2023-12-20 14:18:38.102485,-54.0
2023-12-20 14:18:38.110174,-61.0
2023-12-20 14:18:38.117863,-138.0
2023-12-20 14:18:38.125552,-314.0
2023-12-20 14:18:38.133241,-441.0
2023-12-20 14:18:38.140930,-267.0
2023-12-20 14:18:38.148619,100.0
2023-12-20 14:18:38.156308,283.0
2023-12-20 14:18:38.163997,243.0
2023-12-20 14:18:38.171686,154.0
2023-12-20 14:18:38.179374,50.0
2023-12-20 14:18:38.187063,-59.0
2023-12-20 14:18:38.194752,-107.0
2023-12-20 14:18:38.202441,-95.0
2023-12-20 14:18:38.210130,-90.0
2023-12-20 14:18:38.217819,-100.0
2023-12-20 14:18:38.225508,-112.0
2023-12-20 14:18:38.233197,-114.0
2023-12-20 14:18:38.240886,-102.0
2023-12-20 14:18:38.248575,-107.0
2023-12-20 14:18:38.256264,-123.0
2023-12-20 14:18:38.263953,-119.0
2023-12-20 14:18:38.271642,-114.0
2023-12-20 14:18:38.279331,-126.0
2023-12-20 14:18:38.287020,-128.0
2023-12-20 14:18:38.294709,-116.0
2023-12-20 14:18:38.302398,-123.0
2023-12-20 14:18:38.310087,-140.0
2023-12-20 14:18:38.317776,-123.0
2023-12-20 14:18:38.325465,-109.0
2023-12-20 14:18:38.333154,-107.0
2023-12-20 14:18:38.340843,-92.0
2023-12-20 14:18:38.348532,-95.0
2023-12-20 14:18:38.356221,-114.0
2023-12-20 14:18:38.363910,-95.0
2023-12-20 14:18:38.371599,-66.0
2023-12-20 14:18:38.379288,-64.0
2023-12-20 14:18:38.386977,-57.0
2023-12-20 14:18:38.394666,-30.0
2023-12-20 14:18:38.402355,-19.0
2023-12-20 14:18:38.410044,-21.0
2023-12-20 14:18:38.417733,-21.0
2023-12-20 14:18:38.425422,-21.0
2023-12-20 14:18:38.433111,-21.0
2023-12-20 14:18:38.440800,-21.0
2023-12-20 14:18:38.448489,-30.0
2023-12-20 14:18:38.456178,-50.0
2023-12-20 14:18:38.463867,-54.0
2023-12-20 14:18:38.471556,-35.0
2023-12-20 14:18:38.479245,-35.0
2023-12-20 14:18:38.486934,-50.0
2023-12-20 14:18:38.494623,-50.0
2023-12-20 14:18:38.502312,-47.0
2023-12-20 14:18:38.510001,-38.0
2023-12-20 14:18:38.517690,-30.0
2023-12-20 14:18:38.525379,-50.0
2023-12-20 14:18:38.533068,-73.0
2023-12-20 14:18:38.540757,-66.0
2023-12-20 14:18:38.548446,-61.0
2023-12-20 14:18:38.556135,-69.0
2023-12-20 14:18:38.563824,-64.0
2023-12-20 14:18:38.571513,-64.0
2023-12-20 14:18:38.579202,-71.0
2023-12-20 14:18:38.586891,-64.0
2023-12-20 14:18:38.594580,-64.0
2023-12-20 14:18:38.602269,-81.0
2023-12-20 14:18:38.609958,-83.0
2023-12-20 14:18:38.617647,-85.0
2023-12-20 14:18:38.625336,-100.0
2023-12-20 14:18:38.633025,-90.0
2023-12-20 14:18:38.640714,-64.0
2023-12-20 14:18:38.648403,-54.0
2023-12-20 14:18:38.656092,-52.0
2023-12-20 14:18:38.663781,-50.0
2023-12-20 14:18:38.671470,-52.0
2023-12-20 14:18:38.679158,-47.0
2023-12-20 14:18:38.686847,-47.0
2023-12-20 14:18:38.694536,-47.0
2023-12-20 14:18:38.702225,-38.0
2023-12-20 14:18:38.709914,-73.0
2023-12-20 14:18:38.717603,-221.0
2023-12-20 14:18:38.725292,-398.0
2023-12-20 14:18:38.732981,-345.0
2023-12-20 14:18:38.740670,-19.0
2023-12-20 14:18:38.748359,247.0
2023-12-20 14:18:38.756048,269.0
2023-12-20 14:18:38.763737,200.0
2023-12-20 14:18:38.771426,114.0
2023-12-20 14:18:38.779115,-2.0
2023-12-20 14:18:38.786804,-78.0
2023-12-20 14:18:38.794493,-95.0
2023-12-20 14:18:38.802182,-114.0
2023-12-20 14:18:38.809871,-123.0
2023-12-20 14:18:38.817560,-112.0
2023-12-20 14:18:38.825249,-109.0
2023-12-20 14:18:38.832938,-109.0
2023-12-20 14:18:38.840627,-112.0
2023-12-20 14:18:38.848316,-119.0
2023-12-20 14:18:38.856005,-119.0
2023-12-20 14:18:38.863694,-116.0
2023-12-20 14:18:38.871383,-116.0
2023-12-20 14:18:38.879072,-109.0
2023-12-20 14:18:38.886761,-119.0
2023-12-20 14:18:38.894450,-138.0
2023-12-20 14:18:38.902139,-133.0
2023-12-20 14:18:38.909828,-121.0
2023-12-20 14:18:38.917517,-119.0
2023-12-20 14:18:38.925206,-102.0
2023-12-20 14:18:38.932895,-95.0
2023-12-20 14:18:38.940584,-109.0
2023-12-20 14:18:38.948273,-104.0
2023-12-20 14:18:38.955962,-92.0
2023-12-20 14:18:38.963651,-107.0
2023-12-20 14:18:38.971340,-102.0
2023-12-20 14:18:38.979029,-69.0
2023-12-20 14:18:38.986718,-57.0
2023-12-20 14:18:38.994407,-50.0
2023-12-20 14:18:39.002096,-35.0
2023-12-20 14:18:39.009785,-28.0
2023-12-20 14:18:39.017474,-23.0
2023-12-20 14:18:39.025163,-21.0
2023-12-20 14:18:39.032852,-23.0
2023-12-20 14:18:39.040541,-26.0
2023-12-20 14:18:39.048230,-42.0
2023-12-20 14:18:39.055919,-59.0
2023-12-20 14:18:39.063608,-50.0
2023-12-20 14:18:39.071297,-57.0
2023-12-20 14:18:39.078986,-81.0
2023-12-20 14:18:39.086675,-69.0
2023-12-20 14:18:39.094364,-52.0
2023-12-20 14:18:39.102053,-57.0
2023-12-20 14:18:39.109742,-69.0
2023-12-20 14:18:39.117431,-88.0
2023-12-20 14:18:39.125120,-100.0
2023-12-20 14:18:39.132809,-78.0
2023-12-20 14:18:39.140498,-66.0
2023-12-20 14:18:39.148187,-69.0
2023-12-20 14:18:39.155876,-61.0
2023-12-20 14:18:39.163565,-54.0
2023-12-20 14:18:39.171254,-59.0
2023-12-20 14:18:39.178942,-61.0
2023-12-20 14:18:39.186631,-66.0
2023-12-20 14:18:39.194320,-64.0
2023-12-20 14:18:39.202009,-66.0
2023-12-20 14:18:39.209698,-97.0
2023-12-20 14:18:39.217387,-112.0
2023-12-20 14:18:39.225076,-73.0
2023-12-20 14:18:39.232765,-40.0
2023-12-20 14:18:39.240454,-40.0
2023-12-20 14:18:39.248143,-40.0
2023-12-20 14:18:39.255832,-45.0
2023-12-20 14:18:39.263521,-61.0
2023-12-20 14:18:39.271210,-50.0
2023-12-20 14:18:39.278899,-33.0
2023-12-20 14:18:39.286588,-50.0
2023-12-20 14:18:39.294277,-83.0
2023-12-20 14:18:39.301966,-183.0
2023-12-20 14:18:39.309655,-367.0
2023-12-20 14:18:39.317344,-422.0
2023-12-20 14:18:39.325033,-159.0
2023-12-20 14:18:39.332722,174.0
2023-12-20 14:18:39.340411,257.0
2023-12-20 14:18:39.348100,216.0
2023-12-20 14:18:39.355789,162.0
2023-12-20 14:18:39.363478,38.0
2023-12-20 14:18:39.371167,-52.0
2023-12-20 14:18:39.378856,-52.0
2023-12-20 14:18:39.386545,-69.0
2023-12-20 14:18:39.394234,-114.0
2023-12-20 14:18:39.401923,-121.0
2023-12-20 14:18:39.409612,-107.0
2023-12-20 14:18:39.417301,-92.0
2023-12-20 14:18:39.424990,-104.0
2023-12-20 14:18:39.432679,-140.0
2023-12-20 14:18:39.440368,-152.0
2023-12-20 14:18:39.448057,-143.0
2023-12-20 14:18:39.455746,-147.0
2023-12-20 14:18:39.463435,-157.0
2023-12-20 14:18:39.471124,-157.0
2023-12-20 14:18:39.478813,-154.0
2023-12-20 14:18:39.486502,-159.0
2023-12-20 14:18:39.494191,-157.0
2023-12-20 14:18:39.501880,-150.0
2023-12-20 14:18:39.509569,-150.0
2023-12-20 14:18:39.517258,-143.0
2023-12-20 14:18:39.524947,-126.0
2023-12-20 14:18:39.532636,-121.0
2023-12-20 14:18:39.540325,-121.0
2023-12-20 14:18:39.548014,-114.0
2023-12-20 14:18:39.555703,-107.0
2023-12-20 14:18:39.563392,-100.0
2023-12-20 14:18:39.571081,-76.0
2023-12-20 14:18:39.578770,-50.0
2023-12-20 14:18:39.586459,-38.0
2023-12-20 14:18:39.594148,-30.0
2023-12-20 14:18:39.601837,-40.0
2023-12-20 14:18:39.609526,-61.0
2023-12-20 14:18:39.617215,-50.0
2023-12-20 14:18:39.624904,-21.0
2023-12-20 14:18:39.632593,-19.0
2023-12-20 14:18:39.640282,-23.0
2023-12-20 14:18:39.647971,-33.0
2023-12-20 14:18:39.655660,-76.0
2023-12-20 14:18:39.663349,-92.0
2023-12-20 14:18:39.671038,-57.0
2023-12-20 14:18:39.678727,-50.0
2023-12-20 14:18:39.686415,-66.0
2023-12-20 14:18:39.694104,-61.0
2023-12-20 14:18:39.701793,-50.0
2023-12-20 14:18:39.709482,-50.0
2023-12-20 14:18:39.717171,-54.0
2023-12-20 14:18:39.724860,-57.0
2023-12-20 14:18:39.732549,-54.0
2023-12-20 14:18:39.740238,-57.0
2023-12-20 14:18:39.747927,-57.0
2023-12-20 14:18:39.755616,-52.0
2023-12-20 14:18:39.763305,-50.0
2023-12-20 14:18:39.770994,-54.0
2023-12-20 14:18:39.778683,-61.0
2023-12-20 14:18:39.786372,-76.0
2023-12-20 14:18:39.794061,-88.0
2023-12-20 14:18:39.801750,-85.0
2023-12-20 14:18:39.809439,-81.0
2023-12-20 14:18:39.817128,-69.0
2023-12-20 14:18:39.824817,-47.0
2023-12-20 14:18:39.832506,-42.0
2023-12-20 14:18:39.840195,-57.0
2023-12-20 14:18:39.847884,-69.0
2023-12-20 14:18:39.855573,-61.0
2023-12-20 14:18:39.863262,-59.0
2023-12-20 14:18:39.870951,-69.0
2023-12-20 14:18:39.878640,-104.0
2023-12-20 14:18:39.886329,-245.0
2023-12-20 14:18:39.894018,-429.0
2023-12-20 14:18:39.901707,-383.0
2023-12-20 14:18:39.909396,-35.0
2023-12-20 14:18:39.917085,252.0
2023-12-20 14:18:39.924774,259.0
2023-12-20 14:18:39.932463,176.0
2023-12-20 14:18:39.940152,112.0
2023-12-20 14:18:39.947841,2.0
2023-12-20 14:18:39.955530,-92.0
2023-12-20 14:18:39.963219,-112.0
2023-12-20 14:18:39.970908,-114.0
2023-12-20 14:18:39.978597,-126.0
2023-12-20 14:18:39.986286,-123.0
2023-12-20 14:18:39.993975,-114.0
2023-12-20 14:18:40.001664,-131.0
2023-12-20 14:18:40.009353,-154.0
2023-12-20 14:18:40.017042,-154.0
2023-12-20 14:18:40.024731,-159.0
2023-12-20 14:18:40.032420,-176.0
2023-12-20 14:18:40.040109,-159.0
2023-12-20 14:18:40.047798,-145.0
2023-12-20 14:18:40.055487,-162.0
2023-12-20 14:18:40.063176,-164.0
2023-12-20 14:18:40.070865,-154.0
2023-12-20 14:18:40.078554,-157.0
2023-12-20 14:18:40.086243,-154.0
2023-12-20 14:18:40.093932,-140.0
2023-12-20 14:18:40.101621,-135.0
2023-12-20 14:18:40.109310,-145.0
2023-12-20 14:18:40.116999,-135.0
2023-12-20 14:18:40.124688,-114.0
2023-12-20 14:18:40.132377,-100.0
2023-12-20 14:18:40.140066,-81.0
2023-12-20 14:18:40.147755,-66.0
2023-12-20 14:18:40.155444,-61.0
2023-12-20 14:18:40.163133,-45.0
2023-12-20 14:18:40.170822,-19.0
2023-12-20 14:18:40.178511,-16.0
2023-12-20 14:18:40.186199,-28.0
2023-12-20 14:18:40.193888,-40.0
2023-12-20 14:18:40.201577,-42.0
2023-12-20 14:18:40.209266,-33.0
2023-12-20 14:18:40.216955,-23.0
2023-12-20 14:18:40.224644,-21.0
2023-12-20 14:18:40.232333,-21.0
2023-12-20 14:18:40.240022,-47.0
2023-12-20 14:18:40.247711,-81.0
2023-12-20 14:18:40.255400,-71.0
2023-12-20 14:18:40.263089,-57.0
2023-12-20 14:18:40.270778,-64.0
2023-12-20 14:18:40.278467,-76.0
2023-12-20 14:18:40.286156,-92.0
2023-12-20 14:18:40.293845,-100.0
2023-12-20 14:18:40.301534,-88.0
2023-12-20 14:18:40.309223,-73.0
2023-12-20 14:18:40.316912,-73.0
2023-12-20 14:18:40.324601,-85.0
2023-12-20 14:18:40.332290,-104.0
2023-12-20 14:18:40.339979,-112.0
2023-12-20 14:18:40.347668,-104.0
2023-12-20 14:18:40.355357,-109.0
2023-12-20 14:18:40.363046,-114.0
2023-12-20 14:18:40.370735,-116.0
2023-12-20 14:18:40.378424,-131.0
2023-12-20 14:18:40.386113,-126.0
2023-12-20 14:18:40.393802,-97.0
2023-12-20 14:18:40.401491,-78.0
2023-12-20 14:18:40.409180,-76.0
2023-12-20 14:18:40.416869,-88.0
2023-12-20 14:18:40.424558,-97.0
2023-12-20 14:18:40.432247,-88.0
2023-12-20 14:18:40.439936,-73.0
2023-12-20 14:18:40.447625,-73.0
2023-12-20 14:18:40.455314,-131.0
2023-12-20 14:18:40.463003,-293.0
2023-12-20 14:18:40.470692,-450.0
2023-12-20 14:18:40.478381,-340.0
2023-12-20 14:18:40.486070,0.0
2023-12-20 14:18:40.493759,221.0
2023-12-20 14:18:40.501448,224.0
2023-12-20 14:18:40.509137,157.0
2023-12-20 14:18:40.516826,54.0
2023-12-20 14:18:40.524515,-61.0
2023-12-20 14:18:40.532204,-109.0
2023-12-20 14:18:40.539893,-100.0
2023-12-20 14:18:40.547582,-102.0
2023-12-20 14:18:40.555271,-112.0
2023-12-20 14:18:40.562960,-109.0
2023-12-20 14:18:40.570649,-104.0
2023-12-20 14:18:40.578338,-114.0
2023-12-20 14:18:40.586027,-121.0
2023-12-20 14:18:40.593716,-123.0
2023-12-20 14:18:40.601405,-131.0
2023-12-20 14:18:40.609094,-135.0
2023-12-20 14:18:40.616783,-135.0
2023-12-20 14:18:40.624472,-140.0
2023-12-20 14:18:40.632161,-143.0
2023-12-20 14:18:40.639850,-133.0
2023-12-20 14:18:40.647539,-135.0
2023-12-20 14:18:40.655228,-145.0
2023-12-20 14:18:40.662917,-145.0
2023-12-20 14:18:40.670606,-138.0
2023-12-20 14:18:40.678295,-126.0
2023-12-20 14:18:40.685983,-116.0
2023-12-20 14:18:40.693672,-112.0
2023-12-20 14:18:40.701361,-95.0
2023-12-20 14:18:40.709050,-69.0
2023-12-20 14:18:40.716739,-57.0
2023-12-20 14:18:40.724428,-54.0
2023-12-20 14:18:40.732117,-45.0
2023-12-20 14:18:40.739806,-38.0
2023-12-20 14:18:40.747495,-21.0
2023-12-20 14:18:40.755184,-9.0
2023-12-20 14:18:40.762873,-19.0
2023-12-20 14:18:40.770562,-30.0
2023-12-20 14:18:40.778251,-47.0
2023-12-20 14:18:40.785940,-61.0
2023-12-20 14:18:40.793629,-57.0
2023-12-20 14:18:40.801318,-47.0
2023-12-20 14:18:40.809007,-52.0
2023-12-20 14:18:40.816696,-54.0
2023-12-20 14:18:40.824385,-64.0
2023-12-20 14:18:40.832074,-83.0
2023-12-20 14:18:40.839763,-73.0
2023-12-20 14:18:40.847452,-59.0
2023-12-20 14:18:40.855141,-64.0
2023-12-20 14:18:40.862830,-69.0
2023-12-20 14:18:40.870519,-81.0
2023-12-20 14:18:40.878208,-88.0
2023-12-20 14:18:40.885897,-71.0
2023-12-20 14:18:40.893586,-66.0
2023-12-20 14:18:40.901275,-76.0
2023-12-20 14:18:40.908964,-83.0
2023-12-20 14:18:40.916653,-102.0
2023-12-20 14:18:40.924342,-114.0
2023-12-20 14:18:40.932031,-107.0
2023-12-20 14:18:40.939720,-112.0
2023-12-20 14:18:40.947409,-112.0
2023-12-20 14:18:40.955098,-88.0
2023-12-20 14:18:40.962787,-71.0
2023-12-20 14:18:40.970476,-76.0
2023-12-20 14:18:40.978165,-76.0
2023-12-20 14:18:40.985854,-61.0
2023-12-20 14:18:40.993543,-59.0
2023-12-20 14:18:41.001232,-71.0
2023-12-20 14:18:41.008921,-81.0
2023-12-20 14:18:41.016610,-81.0
2023-12-20 14:18:41.024299,-97.0
2023-12-20 14:18:41.031988,-205.0
2023-12-20 14:18:41.039677,-391.0
2023-12-20 14:18:41.047366,-419.0
2023-12-20 14:18:41.055055,-131.0
2023-12-20 14:18:41.062744,205.0
2023-12-20 14:18:41.070433,276.0
2023-12-20 14:18:41.078122,214.0
2023-12-20 14:18:41.085811,145.0
2023-12-20 14:18:41.093500,35.0
2023-12-20 14:18:41.101189,-59.0
2023-12-20 14:18:41.108878,-73.0
2023-12-20 14:18:41.116567,-64.0
2023-12-20 14:18:41.124256,-76.0
2023-12-20 14:18:41.131945,-85.0
2023-12-20 14:18:41.139634,-81.0
2023-12-20 14:18:41.147323,-76.0
2023-12-20 14:18:41.155012,-76.0
2023-12-20 14:18:41.162701,-78.0
2023-12-20 14:18:41.170390,-88.0
2023-12-20 14:18:41.178079,-100.0
2023-12-20 14:18:41.185768,-112.0
2023-12-20 14:18:41.193456,-126.0
2023-12-20 14:18:41.201145,-123.0
2023-12-20 14:18:41.208834,-114.0
2023-12-20 14:18:41.216523,-109.0
2023-12-20 14:18:41.224212,-119.0
2023-12-20 14:18:41.231901,-121.0
2023-12-20 14:18:41.239590,-112.0
2023-12-20 14:18:41.247279,-107.0
2023-12-20 14:18:41.254968,-107.0
2023-12-20 14:18:41.262657,-109.0
2023-12-20 14:18:41.270346,-112.0
2023-12-20 14:18:41.278035,-100.0
2023-12-20 14:18:41.285724,-76.0
2023-12-20 14:18:41.293413,-50.0
2023-12-20 14:18:41.301102,-28.0
2023-12-20 14:18:41.308791,-26.0
2023-12-20 14:18:41.316480,-33.0
2023-12-20 14:18:41.324169,-45.0
2023-12-20 14:18:41.331858,-45.0
2023-12-20 14:18:41.339547,-33.0
2023-12-20 14:18:41.347236,-26.0
2023-12-20 14:18:41.354925,-30.0
2023-12-20 14:18:41.362614,-47.0
2023-12-20 14:18:41.370303,-64.0
2023-12-20 14:18:41.377992,-64.0
2023-12-20 14:18:41.385681,-52.0
2023-12-20 14:18:41.393370,-45.0
2023-12-20 14:18:41.401059,-40.0
2023-12-20 14:18:41.408748,-42.0
2023-12-20 14:18:41.416437,-47.0
2023-12-20 14:18:41.424126,-40.0
2023-12-20 14:18:41.431815,-33.0
2023-12-20 14:18:41.439504,-26.0
2023-12-20 14:18:41.447193,-23.0
2023-12-20 14:18:41.454882,-52.0
2023-12-20 14:18:41.462571,-83.0
2023-12-20 14:18:41.470260,-69.0
2023-12-20 14:18:41.477949,-59.0
2023-12-20 14:18:41.485638,-78.0
2023-12-20 14:18:41.493327,-78.0
2023-12-20 14:18:41.501016,-78.0
2023-12-20 14:18:41.508705,-97.0
2023-12-20 14:18:41.516394,-102.0
2023-12-20 14:18:41.524083,-83.0
2023-12-20 14:18:41.531772,-64.0
2023-12-20 14:18:41.539461,-61.0
2023-12-20 14:18:41.547150,-66.0
2023-12-20 14:18:41.554839,-66.0
2023-12-20 14:18:41.562528,-59.0
2023-12-20 14:18:41.570217,-54.0
2023-12-20 14:18:41.577906,-54.0
2023-12-20 14:18:41.585595,-61.0
2023-12-20 14:18:41.593284,-95.0
2023-12-20 14:18:41.600973,-166.0
2023-12-20 14:18:41.608662,-329.0
2023-12-20 14:18:41.616351,-493.0
2023-12-20 14:18:41.624040,-369.0
2023-12-20 14:18:41.631729,26.0
2023-12-20 14:18:41.639418,252.0
2023-12-20 14:18:41.647107,228.0
2023-12-20 14:18:41.654796,178.0
2023-12-20 14:18:41.662485,95.0
2023-12-20 14:18:41.670174,-40.0
2023-12-20 14:18:41.677863,-109.0
2023-12-20 14:18:41.685552,-104.0
2023-12-20 14:18:41.693240,-102.0
2023-12-20 14:18:41.700929,-112.0
2023-12-20 14:18:41.708618,-107.0
2023-12-20 14:18:41.716307,-100.0
2023-12-20 14:18:41.723996,-112.0
2023-12-20 14:18:41.731685,-116.0
2023-12-20 14:18:41.739374,-114.0
2023-12-20 14:18:41.747063,-116.0
2023-12-20 14:18:41.754752,-121.0
2023-12-20 14:18:41.762441,-119.0
2023-12-20 14:18:41.770130,-121.0
2023-12-20 14:18:41.777819,-135.0
2023-12-20 14:18:41.785508,-138.0
2023-12-20 14:18:41.793197,-138.0
2023-12-20 14:18:41.800886,-143.0
2023-12-20 14:18:41.808575,-135.0
2023-12-20 14:18:41.816264,-121.0
2023-12-20 14:18:41.823953,-119.0
2023-12-20 14:18:41.831642,-116.0
2023-12-20 14:18:41.839331,-109.0
2023-12-20 14:18:41.847020,-92.0
2023-12-20 14:18:41.854709,-76.0
2023-12-20 14:18:41.862398,-69.0
2023-12-20 14:18:41.870087,-54.0
2023-12-20 14:18:41.877776,-28.0
2023-12-20 14:18:41.885465,-9.0
2023-12-20 14:18:41.893154,-2.0
2023-12-20 14:18:41.900843,-9.0
2023-12-20 14:18:41.908532,-38.0
2023-12-20 14:18:41.916221,-54.0
2023-12-20 14:18:41.923910,-35.0
2023-12-20 14:18:41.931599,-21.0
2023-12-20 14:18:41.939288,-26.0
2023-12-20 14:18:41.946977,-45.0
2023-12-20 14:18:41.954666,-71.0
2023-12-20 14:18:41.962355,-66.0
2023-12-20 14:18:41.970044,-47.0
2023-12-20 14:18:41.977733,-45.0
2023-12-20 14:18:41.985422,-59.0
2023-12-20 14:18:41.993111,-69.0
2023-12-20 14:18:42.000800,-66.0
2023-12-20 14:18:42.008489,-54.0
2023-12-20 14:18:42.016178,-52.0
2023-12-20 14:18:42.023867,-47.0
2023-12-20 14:18:42.031556,-42.0
2023-12-20 14:18:42.039245,-45.0
2023-12-20 14:18:42.046934,-45.0
2023-12-20 14:18:42.054623,-40.0
2023-12-20 14:18:42.062312,-50.0
2023-12-20 14:18:42.070001,-52.0
2023-12-20 14:18:42.077690,-42.0
2023-12-20 14:18:42.085379,-45.0
2023-12-20 14:18:42.093068,-52.0
2023-12-20 14:18:42.100757,-38.0
2023-12-20 14:18:42.108446,-14.0
2023-12-20 14:18:42.116135,0.0
2023-12-20 14:18:42.123824,0.0
2023-12-20 14:18:42.131513,-4.0
2023-12-20 14:18:42.139202,-7.0
2023-12-20 14:18:42.146891,2.0
2023-12-20 14:18:42.154580,7.0
2023-12-20 14:18:42.162269,2.0
2023-12-20 14:18:42.169958,-42.0
2023-12-20 14:18:42.177647,-190.0
2023-12-20 14:18:42.185336,-388.0
2023-12-20 14:18:42.193025,-364.0
2023-12-20 14:18:42.200713,-7.0
2023-12-20 14:18:42.208402,317.0
2023-12-20 14:18:42.216091,340.0
2023-12-20 14:18:42.223780,255.0
2023-12-20 14:18:42.231469,183.0
2023-12-20 14:18:42.239158,61.0
2023-12-20 14:18:42.246847,-38.0
2023-12-20 14:18:42.254536,-50.0
2023-12-20 14:18:42.262225,-42.0
2023-12-20 14:18:42.269914,-59.0
2023-12-20 14:18:42.277603,-59.0
2023-12-20 14:18:42.285292,-45.0
2023-12-20 14:18:42.292981,-50.0
2023-12-20 14:18:42.300670,-61.0
2023-12-20 14:18:42.308359,-66.0
2023-12-20 14:18:42.316048,-69.0
2023-12-20 14:18:42.323737,-66.0
2023-12-20 14:18:42.331426,-64.0
2023-12-20 14:18:42.339115,-66.0
2023-12-20 14:18:42.346804,-73.0
2023-12-20 14:18:42.354493,-76.0
2023-12-20 14:18:42.362182,-81.0
2023-12-20 14:18:42.369871,-88.0
2023-12-20 14:18:42.377560,-85.0
2023-12-20 14:18:42.385249,-83.0
2023-12-20 14:18:42.392938,-92.0
2023-12-20 14:18:42.400627,-92.0
2023-12-20 14:18:42.408316,-78.0
2023-12-20 14:18:42.416005,-64.0
2023-12-20 14:18:42.423694,-52.0
2023-12-20 14:18:42.431383,-38.0
2023-12-20 14:18:42.439072,-23.0
2023-12-20 14:18:42.446761,-7.0
2023-12-20 14:18:42.454450,7.0
2023-12-20 14:18:42.462139,14.0
2023-12-20 14:18:42.469828,16.0
2023-12-20 14:18:42.477517,19.0
2023-12-20 14:18:42.485206,19.0
2023-12-20 14:18:42.492895,4.0
2023-12-20 14:18:42.500584,-7.0
2023-12-20 14:18:42.508273,-4.0
2023-12-20 14:18:42.515962,-2.0
2023-12-20 14:18:42.523651,-2.0
2023-12-20 14:18:42.531340,-11.0
2023-12-20 14:18:42.539029,-42.0
2023-12-20 14:18:42.546718,-47.0
2023-12-20 14:18:42.554407,-21.0
2023-12-20 14:18:42.562096,-19.0
2023-12-20 14:18:42.569785,-26.0
2023-12-20 14:18:42.577474,-28.0
2023-12-20 14:18:42.585163,-42.0
2023-12-20 14:18:42.592852,-45.0
2023-12-20 14:18:42.600541,-35.0
2023-12-20 14:18:42.608230,-33.0
2023-12-20 14:18:42.615919,-35.0
2023-12-20 14:18:42.623608,-30.0
2023-12-20 14:18:42.631297,-28.0
2023-12-20 14:18:42.638986,-35.0
2023-12-20 14:18:42.646675,-45.0
2023-12-20 14:18:42.654364,-47.0
2023-12-20 14:18:42.662053,-35.0
2023-12-20 14:18:42.669742,-33.0
2023-12-20 14:18:42.677431,-38.0
2023-12-20 14:18:42.685120,-21.0
2023-12-20 14:18:42.692809,-4.0
2023-12-20 14:18:42.700497,-7.0
2023-12-20 14:18:42.708186,-7.0
2023-12-20 14:18:42.715875,0.0
2023-12-20 14:18:42.723564,0.0
2023-12-20 14:18:42.731253,-2.0
2023-12-20 14:18:42.738942,-11.0
2023-12-20 14:18:42.746631,-28.0
2023-12-20 14:18:42.754320,-107.0
2023-12-20 14:18:42.762009,-295.0
2023-12-20 14:18:42.769698,-433.0
2023-12-20 14:18:42.777387,-243.0
2023-12-20 14:18:42.785076,164.0
2023-12-20 14:18:42.792765,350.0
2023-12-20 14:18:42.800454,288.0
2023-12-20 14:18:42.808143,200.0
2023-12-20 14:18:42.815832,102.0
2023-12-20 14:18:42.823521,-2.0
2023-12-20 14:18:42.831210,-47.0
2023-12-20 14:18:42.838899,-45.0
2023-12-20 14:18:42.846588,-47.0
2023-12-20 14:18:42.854277,-52.0
2023-12-20 14:18:42.861966,-50.0
2023-12-20 14:18:42.869655,-52.0
2023-12-20 14:18:42.877344,-61.0
2023-12-20 14:18:42.885033,-61.0
2023-12-20 14:18:42.892722,-57.0
2023-12-20 14:18:42.900411,-69.0
2023-12-20 14:18:42.908100,-85.0
2023-12-20 14:18:42.915789,-78.0
2023-12-20 14:18:42.923478,-69.0
2023-12-20 14:18:42.931167,-81.0
2023-12-20 14:18:42.938856,-90.0
2023-12-20 14:18:42.946545,-90.0
2023-12-20 14:18:42.954234,-85.0
2023-12-20 14:18:42.961923,-88.0
2023-12-20 14:18:42.969612,-90.0
2023-12-20 14:18:42.977301,-102.0
2023-12-20 14:18:42.984990,-123.0
2023-12-20 14:18:42.992679,-126.0
2023-12-20 14:18:43.000368,-109.0
2023-12-20 14:18:43.008057,-85.0
2023-12-20 14:18:43.015746,-69.0
2023-12-20 14:18:43.023435,-61.0
2023-12-20 14:18:43.031124,-66.0
2023-12-20 14:18:43.038813,-66.0
2023-12-20 14:18:43.046502,-45.0
2023-12-20 14:18:43.054191,-28.0
2023-12-20 14:18:43.061880,-35.0
2023-12-20 14:18:43.069569,-54.0
2023-12-20 14:18:43.077258,-78.0
2023-12-20 14:18:43.084947,-83.0
2023-12-20 14:18:43.092636,-64.0
2023-12-20 14:18:43.100325,-57.0
2023-12-20 14:18:43.108014,-61.0
2023-12-20 14:18:43.115703,-61.0
2023-12-20 14:18:43.123392,-64.0
2023-12-20 14:18:43.131081,-61.0
2023-12-20 14:18:43.138770,-50.0
2023-12-20 14:18:43.146459,-42.0
2023-12-20 14:18:43.154148,-38.0
2023-12-20 14:18:43.161837,-42.0
2023-12-20 14:18:43.169526,-50.0
2023-12-20 14:18:43.177215,-42.0
2023-12-20 14:18:43.184904,-30.0
2023-12-20 14:18:43.192593,-26.0
2023-12-20 14:18:43.200281,-28.0
2023-12-20 14:18:43.207970,-33.0
2023-12-20 14:18:43.215659,-33.0
2023-12-20 14:18:43.223348,-33.0
2023-12-20 14:18:43.231037,-47.0
2023-12-20 14:18:43.238726,-54.0
2023-12-20 14:18:43.246415,-47.0
2023-12-20 14:18:43.254104,-57.0
2023-12-20 14:18:43.261793,-76.0
2023-12-20 14:18:43.269482,-64.0
2023-12-20 14:18:43.277171,-35.0
2023-12-20 14:18:43.284860,-19.0
2023-12-20 14:18:43.292549,-16.0
2023-12-20 14:18:43.300238,-21.0
2023-12-20 14:18:43.307927,-21.0
2023-12-20 14:18:43.315616,-26.0
2023-12-20 14:18:43.323305,-21.0
2023-12-20 14:18:43.330994,-7.0
2023-12-20 14:18:43.338683,-11.0
2023-12-20 14:18:43.346372,-88.0
2023-12-20 14:18:43.354061,-264.0
2023-12-20 14:18:43.361750,-433.0
2023-12-20 14:18:43.369439,-333.0
2023-12-20 14:18:43.377128,50.0
2023-12-20 14:18:43.384817,321.0
2023-12-20 14:18:43.392506,302.0
2023-12-20 14:18:43.400195,195.0
2023-12-20 14:18:43.407884,102.0
2023-12-20 14:18:43.415573,-2.0
2023-12-20 14:18:43.423262,-57.0
2023-12-20 14:18:43.430951,-52.0
2023-12-20 14:18:43.438640,-52.0
2023-12-20 14:18:43.446329,-64.0
2023-12-20 14:18:43.454018,-61.0
2023-12-20 14:18:43.461707,-57.0
2023-12-20 14:18:43.469396,-66.0
2023-12-20 14:18:43.477085,-78.0
2023-12-20 14:18:43.484774,-88.0
2023-12-20 14:18:43.492463,-97.0
2023-12-20 14:18:43.500152,-112.0
2023-12-20 14:18:43.507841,-121.0
2023-12-20 14:18:43.515530,-119.0
2023-12-20 14:18:43.523219,-121.0
2023-12-20 14:18:43.530908,-131.0
2023-12-20 14:18:43.538597,-131.0
2023-12-20 14:18:43.546286,-123.0
2023-12-20 14:18:43.553975,-126.0
2023-12-20 14:18:43.561664,-135.0
2023-12-20 14:18:43.569353,-140.0
2023-12-20 14:18:43.577042,-131.0
2023-12-20 14:18:43.584731,-114.0
2023-12-20 14:18:43.592420,-100.0
2023-12-20 14:18:43.600109,-88.0
2023-12-20 14:18:43.607798,-76.0
2023-12-20 14:18:43.615487,-85.0
2023-12-20 14:18:43.623176,-90.0
2023-12-20 14:18:43.630865,-64.0
2023-12-20 14:18:43.638554,-47.0
2023-12-20 14:18:43.646243,-40.0
2023-12-20 14:18:43.653932,-40.0
2023-12-20 14:18:43.661621,-71.0
2023-12-20 14:18:43.669310,-92.0
2023-12-20 14:18:43.676999,-71.0
2023-12-20 14:18:43.684688,-54.0
2023-12-20 14:18:43.692377,-59.0
2023-12-20 14:18:43.700066,-61.0
2023-12-20 14:18:43.707754,-81.0
2023-12-20 14:18:43.715443,-104.0
2023-12-20 14:18:43.723132,-102.0
2023-12-20 14:18:43.730821,-92.0
2023-12-20 14:18:43.738510,-85.0
2023-12-20 14:18:43.746199,-78.0
2023-12-20 14:18:43.753888,-81.0
2023-12-20 14:18:43.761577,-76.0
2023-12-20 14:18:43.769266,-59.0
2023-12-20 14:18:43.776955,-52.0
2023-12-20 14:18:43.784644,-54.0
2023-12-20 14:18:43.792333,-54.0
2023-12-20 14:18:43.800022,-47.0
2023-12-20 14:18:43.807711,-47.0
2023-12-20 14:18:43.815400,-47.0
2023-12-20 14:18:43.823089,-40.0
2023-12-20 14:18:43.830778,-38.0
2023-12-20 14:18:43.838467,-45.0
2023-12-20 14:18:43.846156,-50.0
2023-12-20 14:18:43.853845,-47.0
2023-12-20 14:18:43.861534,-50.0
2023-12-20 14:18:43.869223,-59.0
2023-12-20 14:18:43.876912,-57.0
2023-12-20 14:18:43.884601,-50.0
2023-12-20 14:18:43.892290,-38.0
2023-12-20 14:18:43.899979,-21.0
2023-12-20 14:18:43.907668,-9.0
2023-12-20 14:18:43.915357,-4.0
2023-12-20 14:18:43.923046,-9.0
2023-12-20 14:18:43.930735,-19.0
2023-12-20 14:18:43.938424,-21.0
2023-12-20 14:18:43.946113,-26.0
2023-12-20 14:18:43.953802,-35.0
2023-12-20 14:18:43.961491,-104.0
2023-12-20 14:18:43.969180,-298.0
2023-12-20 14:18:43.976869,-460.0
2023-12-20 14:18:43.984558,-300.0
2023-12-20 14:18:43.992247,92.0
2023-12-20 14:18:43.999936,314.0
2023-12-20 14:18:44.007625,276.0
2023-12-20 14:18:44.015314,176.0
2023-12-20 14:18:44.023003,78.0
2023-12-20 14:18:44.030692,-23.0
2023-12-20 14:18:44.038381,-69.0
2023-12-20 14:18:44.046070,-54.0
2023-12-20 14:18:44.053759,-52.0
2023-12-20 14:18:44.061448,-61.0
2023-12-20 14:18:44.069137,-64.0
2023-12-20 14:18:44.076826,-64.0
2023-12-20 14:18:44.084515,-69.0
2023-12-20 14:18:44.092204,-71.0
2023-12-20 14:18:44.099893,-64.0
2023-12-20 14:18:44.107582,-73.0
2023-12-20 14:18:44.115271,-97.0
2023-12-20 14:18:44.122960,-97.0
2023-12-20 14:18:44.130649,-95.0
2023-12-20 14:18:44.138338,-109.0
2023-12-20 14:18:44.146027,-123.0
2023-12-20 14:18:44.153716,-135.0
2023-12-20 14:18:44.161405,-150.0
2023-12-20 14:18:44.169094,-145.0
2023-12-20 14:18:44.176783,-135.0
2023-12-20 14:18:44.184472,-131.0
2023-12-20 14:18:44.192161,-114.0
2023-12-20 14:18:44.199850,-102.0
2023-12-20 14:18:44.207538,-112.0
2023-12-20 14:18:44.215227,-123.0
2023-12-20 14:18:44.222916,-102.0
2023-12-20 14:18:44.230605,-71.0
2023-12-20 14:18:44.238294,-57.0
2023-12-20 14:18:44.245983,-47.0
2023-12-20 14:18:44.253672,-35.0
2023-12-20 14:18:44.261361,-35.0
2023-12-20 14:18:44.269050,-40.0
2023-12-20 14:18:44.276739,-30.0
2023-12-20 14:18:44.284428,-16.0
2023-12-20 14:18:44.292117,-21.0
2023-12-20 14:18:44.299806,-33.0
2023-12-20 14:18:44.307495,-35.0
2023-12-20 14:18:44.315184,-28.0
2023-12-20 14:18:44.322873,-21.0
2023-12-20 14:18:44.330562,-23.0
2023-12-20 14:18:44.338251,-26.0
2023-12-20 14:18:44.345940,-21.0
2023-12-20 14:18:44.353629,-19.0
2023-12-20 14:18:44.361318,-19.0
2023-12-20 14:18:44.369007,-11.0
2023-12-20 14:18:44.376696,-19.0
2023-12-20 14:18:44.384385,-23.0
2023-12-20 14:18:44.392074,-14.0
2023-12-20 14:18:44.399763,-4.0
2023-12-20 14:18:44.407452,-7.0
2023-12-20 14:18:44.415141,-9.0
2023-12-20 14:18:44.422830,-7.0
2023-12-20 14:18:44.430519,-9.0
2023-12-20 14:18:44.438208,-7.0
2023-12-20 14:18:44.445897,0.0
2023-12-20 14:18:44.453586,-9.0
2023-12-20 14:18:44.461275,-26.0
2023-12-20 14:18:44.468964,-30.0
2023-12-20 14:18:44.476653,-28.0
2023-12-20 14:18:44.484342,-28.0
2023-12-20 14:18:44.492031,-45.0
2023-12-20 14:18:44.499720,-57.0
2023-12-20 14:18:44.507409,-50.0
2023-12-20 14:18:44.515098,-38.0
2023-12-20 14:18:44.522787,-28.0
2023-12-20 14:18:44.530476,-14.0
2023-12-20 14:18:44.538165,-11.0
2023-12-20 14:18:44.545854,-33.0
2023-12-20 14:18:44.553543,-30.0
2023-12-20 14:18:44.561232,-16.0
2023-12-20 14:18:44.568921,-23.0
2023-12-20 14:18:44.576610,-28.0
2023-12-20 14:18:44.584299,-50.0
2023-12-20 14:18:44.591988,-171.0
2023-12-20 14:18:44.599677,-357.0
2023-12-20 14:18:44.607366,-374.0
2023-12-20 14:18:44.615055,-57.0
2023-12-20 14:18:44.622744,283.0
2023-12-20 14:18:44.630433,326.0
2023-12-20 14:18:44.638122,226.0
2023-12-20 14:18:44.645811,145.0
2023-12-20 14:18:44.653500,42.0
2023-12-20 14:18:44.661189,-50.0
2023-12-20 14:18:44.668878,-64.0
2023-12-20 14:18:44.676567,-47.0
2023-12-20 14:18:44.684256,-66.0
2023-12-20 14:18:44.691945,-102.0
2023-12-20 14:18:44.699634,-126.0
2023-12-20 14:18:44.707322,-143.0
2023-12-20 14:18:44.715011,-152.0
2023-12-20 14:18:44.722700,-159.0
2023-12-20 14:18:44.730389,-174.0
2023-12-20 14:18:44.738078,-176.0
2023-12-20 14:18:44.745767,-169.0
2023-12-20 14:18:44.753456,-157.0
2023-12-20 14:18:44.761145,-154.0
2023-12-20 14:18:44.768834,-159.0
2023-12-20 14:18:44.776523,-157.0
2023-12-20 14:18:44.784212,-157.0
2023-12-20 14:18:44.791901,-159.0
2023-12-20 14:18:44.799590,-145.0
2023-12-20 14:18:44.807279,-133.0
2023-12-20 14:18:44.814968,-138.0
2023-12-20 14:18:44.822657,-138.0
2023-12-20 14:18:44.830346,-123.0
2023-12-20 14:18:44.838035,-109.0
2023-12-20 14:18:44.845724,-92.0
2023-12-20 14:18:44.853413,-78.0
2023-12-20 14:18:44.861102,-69.0
2023-12-20 14:18:44.868791,-54.0
2023-12-20 14:18:44.876480,-45.0
2023-12-20 14:18:44.884169,-38.0
2023-12-20 14:18:44.891858,-28.0
2023-12-20 14:18:44.899547,-19.0
2023-12-20 14:18:44.907236,-16.0
2023-12-20 14:18:44.914925,-26.0
2023-12-20 14:18:44.922614,-38.0
2023-12-20 14:18:44.930303,-33.0
2023-12-20 14:18:44.937992,-26.0
2023-12-20 14:18:44.945681,-33.0
2023-12-20 14:18:44.953370,-47.0
2023-12-20 14:18:44.961059,-50.0
2023-12-20 14:18:44.968748,-45.0
2023-12-20 14:18:44.976437,-47.0
2023-12-20 14:18:44.984126,-42.0
2023-12-20 14:18:44.991815,-26.0
2023-12-20 14:18:44.999504,-28.0
2023-12-20 14:18:45.007193,-42.0
2023-12-20 14:18:45.014882,-40.0
2023-12-20 14:18:45.022571,-30.0
2023-12-20 14:18:45.030260,-28.0
2023-12-20 14:18:45.037949,-21.0
2023-12-20 14:18:45.045638,-21.0
2023-12-20 14:18:45.053327,-30.0
2023-12-20 14:18:45.061016,-30.0
2023-12-20 14:18:45.068705,-30.0
2023-12-20 14:18:45.076394,-30.0
2023-12-20 14:18:45.084083,-23.0
2023-12-20 14:18:45.091772,-45.0
2023-12-20 14:18:45.099461,-78.0
2023-12-20 14:18:45.107150,-76.0
2023-12-20 14:18:45.114839,-59.0
2023-12-20 14:18:45.122528,-54.0
2023-12-20 14:18:45.130217,-38.0
2023-12-20 14:18:45.137906,-23.0
2023-12-20 14:18:45.145595,-35.0
2023-12-20 14:18:45.153284,-47.0
2023-12-20 14:18:45.160973,-35.0
2023-12-20 14:18:45.168662,-26.0
2023-12-20 14:18:45.176351,-28.0
2023-12-20 14:18:45.184040,-33.0
2023-12-20 14:18:45.191729,-57.0
2023-12-20 14:18:45.199418,-183.0
2023-12-20 14:18:45.207107,-393.0
2023-12-20 14:18:45.214795,-438.0
2023-12-20 14:18:45.222484,-143.0
2023-12-20 14:18:45.230173,202.0
2023-12-20 14:18:45.237862,274.0
2023-12-20 14:18:45.245551,200.0
2023-12-20 14:18:45.253240,121.0
2023-12-20 14:18:45.260929,9.0
2023-12-20 14:18:45.268618,-92.0
2023-12-20 14:18:45.276307,-147.0
2023-12-20 14:18:45.283996,-154.0
2023-12-20 14:18:45.291685,-135.0
2023-12-20 14:18:45.299374,-133.0
2023-12-20 14:18:45.307063,-131.0
2023-12-20 14:18:45.314752,-123.0
2023-12-20 14:18:45.322441,-131.0
2023-12-20 14:18:45.330130,-143.0
2023-12-20 14:18:45.337819,-135.0
2023-12-20 14:18:45.345508,-138.0
2023-12-20 14:18:45.353197,-150.0
2023-12-20 14:18:45.360886,-140.0
2023-12-20 14:18:45.368575,-131.0
2023-12-20 14:18:45.376264,-138.0
2023-12-20 14:18:45.383953,-133.0
2023-12-20 14:18:45.391642,-133.0
2023-12-20 14:18:45.399331,-145.0
2023-12-20 14:18:45.407020,-123.0
2023-12-20 14:18:45.414709,-104.0
2023-12-20 14:18:45.422398,-116.0
2023-12-20 14:18:45.430087,-107.0
2023-12-20 14:18:45.437776,-83.0
2023-12-20 14:18:45.445465,-78.0
2023-12-20 14:18:45.453154,-85.0
2023-12-20 14:18:45.460843,-81.0
2023-12-20 14:18:45.468532,-54.0
2023-12-20 14:18:45.476221,-33.0
2023-12-20 14:18:45.483910,-30.0
2023-12-20 14:18:45.491599,-19.0
2023-12-20 14:18:45.499288,-9.0
2023-12-20 14:18:45.506977,-11.0
2023-12-20 14:18:45.514666,-14.0
2023-12-20 14:18:45.522355,-14.0
2023-12-20 14:18:45.530044,-11.0
2023-12-20 14:18:45.537733,-2.0
2023-12-20 14:18:45.545422,-4.0
2023-12-20 14:18:45.553111,-23.0
2023-12-20 14:18:45.560800,-23.0
2023-12-20 14:18:45.568489,-14.0
2023-12-20 14:18:45.576178,-16.0
2023-12-20 14:18:45.583867,-16.0
2023-12-20 14:18:45.591556,-11.0
2023-12-20 14:18:45.599245,-9.0
2023-12-20 14:18:45.606934,-4.0
2023-12-20 14:18:45.614623,-7.0
2023-12-20 14:18:45.622312,-14.0
2023-12-20 14:18:45.630001,-4.0
2023-12-20 14:18:45.637690,-2.0
2023-12-20 14:18:45.645379,-19.0
2023-12-20 14:18:45.653068,-16.0
2023-12-20 14:18:45.660757,0.0
2023-12-20 14:18:45.668446,-11.0
2023-12-20 14:18:45.676135,-21.0
2023-12-20 14:18:45.683824,-14.0
2023-12-20 14:18:45.691513,-30.0
2023-12-20 14:18:45.699202,-71.0
2023-12-20 14:18:45.706891,-69.0
2023-12-20 14:18:45.714579,-45.0
2023-12-20 14:18:45.722268,-59.0
2023-12-20 14:18:45.729957,-66.0
2023-12-20 14:18:45.737646,-35.0
2023-12-20 14:18:45.745335,-16.0
2023-12-20 14:18:45.753024,-21.0
2023-12-20 14:18:45.760713,-28.0
2023-12-20 14:18:45.768402,-38.0
2023-12-20 14:18:45.776091,-35.0
2023-12-20 14:18:45.783780,-26.0
2023-12-20 14:18:45.791469,-61.0
2023-12-20 14:18:45.799158,-169.0
2023-12-20 14:18:45.806847,-340.0
2023-12-20 14:18:45.814536,-412.0
2023-12-20 14:18:45.822225,-154.0
2023-12-20 14:18:45.829914,212.0
2023-12-20 14:18:45.837603,312.0
2023-12-20 14:18:45.845292,233.0
2023-12-20 14:18:45.852981,145.0
2023-12-20 14:18:45.860670,21.0
2023-12-20 14:18:45.868359,-90.0
2023-12-20 14:18:45.876048,-121.0
2023-12-20 14:18:45.883737,-107.0
2023-12-20 14:18:45.891426,-104.0
2023-12-20 14:18:45.899115,-109.0
2023-12-20 14:18:45.906804,-128.0
2023-12-20 14:18:45.914493,-157.0
2023-12-20 14:18:45.922182,-162.0
2023-12-20 14:18:45.929871,-150.0
2023-12-20 14:18:45.937560,-150.0
2023-12-20 14:18:45.945249,-157.0
2023-12-20 14:18:45.952938,-169.0
2023-12-20 14:18:45.960627,-193.0
2023-12-20 14:18:45.968316,-193.0
2023-12-20 14:18:45.976005,-178.0
2023-12-20 14:18:45.983694,-176.0
2023-12-20 14:18:45.991383,-174.0
2023-12-20 14:18:45.999072,-164.0
2023-12-20 14:18:46.006761,-150.0
2023-12-20 14:18:46.014450,-147.0
2023-12-20 14:18:46.022139,-147.0
2023-12-20 14:18:46.029828,-143.0
2023-12-20 14:18:46.037517,-126.0
2023-12-20 14:18:46.045206,-104.0
2023-12-20 14:18:46.052895,-95.0
2023-12-20 14:18:46.060584,-83.0
2023-12-20 14:18:46.068273,-61.0
2023-12-20 14:18:46.075962,-35.0
2023-12-20 14:18:46.083651,-30.0
2023-12-20 14:18:46.091340,-45.0
2023-12-20 14:18:46.099029,-38.0
2023-12-20 14:18:46.106718,-19.0
2023-12-20 14:18:46.114407,-21.0
2023-12-20 14:18:46.122096,-21.0
2023-12-20 14:18:46.129785,-26.0
2023-12-20 14:18:46.137474,-35.0
2023-12-20 14:18:46.145163,-28.0
2023-12-20 14:18:46.152852,-19.0
2023-12-20 14:18:46.160541,-21.0
2023-12-20 14:18:46.168230,-16.0
2023-12-20 14:18:46.175919,-19.0
2023-12-20 14:18:46.183608,-35.0
2023-12-20 14:18:46.191297,-40.0
2023-12-20 14:18:46.198986,-23.0
2023-12-20 14:18:46.206675,-23.0
2023-12-20 14:18:46.214363,-28.0
2023-12-20 14:18:46.222052,-28.0
2023-12-20 14:18:46.229741,-38.0
2023-12-20 14:18:46.237430,-50.0
2023-12-20 14:18:46.245119,-54.0
2023-12-20 14:18:46.252808,-57.0
2023-12-20 14:18:46.260497,-47.0
2023-12-20 14:18:46.268186,-52.0
2023-12-20 14:18:46.275875,-71.0
2023-12-20 14:18:46.283564,-76.0
2023-12-20 14:18:46.291253,-64.0
2023-12-20 14:18:46.298942,-69.0
2023-12-20 14:18:46.306631,-83.0
2023-12-20 14:18:46.314320,-76.0
2023-12-20 14:18:46.322009,-52.0
2023-12-20 14:18:46.329698,-35.0
2023-12-20 14:18:46.337387,-35.0
2023-12-20 14:18:46.345076,-40.0
2023-12-20 14:18:46.352765,-38.0
2023-12-20 14:18:46.360454,-33.0
2023-12-20 14:18:46.368143,-26.0
2023-12-20 14:18:46.375832,-19.0
2023-12-20 14:18:46.383521,-40.0
2023-12-20 14:18:46.391210,-119.0
2023-12-20 14:18:46.398899,-269.0
2023-12-20 14:18:46.406588,-412.0
2023-12-20 14:18:46.414277,-302.0
2023-12-20 14:18:46.421966,59.0
2023-12-20 14:18:46.429655,271.0
2023-12-20 14:18:46.437344,226.0
2023-12-20 14:18:46.445033,150.0
2023-12-20 14:18:46.452722,64.0
2023-12-20 14:18:46.460411,-47.0
2023-12-20 14:18:46.468100,-100.0
2023-12-20 14:18:46.475789,-90.0
2023-12-20 14:18:46.483478,-88.0
2023-12-20 14:18:46.491167,-100.0
2023-12-20 14:18:46.498856,-109.0
2023-12-20 14:18:46.506545,-107.0
2023-12-20 14:18:46.514234,-95.0
2023-12-20 14:18:46.521923,-95.0
2023-12-20 14:18:46.529612,-109.0
2023-12-20 14:18:46.537301,-114.0
2023-12-20 14:18:46.544990,-114.0
2023-12-20 14:18:46.552679,-121.0
2023-12-20 14:18:46.560368,-119.0
2023-12-20 14:18:46.568057,-107.0
2023-12-20 14:18:46.575746,-107.0
2023-12-20 14:18:46.583435,-131.0
2023-12-20 14:18:46.591124,-154.0
2023-12-20 14:18:46.598813,-150.0
2023-12-20 14:18:46.606502,-138.0
2023-12-20 14:18:46.614191,-126.0
2023-12-20 14:18:46.621880,-112.0
2023-12-20 14:18:46.629569,-109.0
2023-12-20 14:18:46.637258,-107.0
2023-12-20 14:18:46.644947,-88.0
2023-12-20 14:18:46.652636,-64.0
2023-12-20 14:18:46.660325,-52.0
2023-12-20 14:18:46.668014,-50.0
2023-12-20 14:18:46.675703,-40.0
2023-12-20 14:18:46.683392,-30.0
2023-12-20 14:18:46.691081,-16.0
2023-12-20 14:18:46.698770,-7.0
2023-12-20 14:18:46.706459,-16.0
2023-12-20 14:18:46.714148,-21.0
2023-12-20 14:18:46.721836,-11.0
2023-12-20 14:18:46.729525,-21.0
2023-12-20 14:18:46.737214,-57.0
2023-12-20 14:18:46.744903,-54.0
2023-12-20 14:18:46.752592,-30.0
2023-12-20 14:18:46.760281,-42.0
2023-12-20 14:18:46.767970,-54.0
2023-12-20 14:18:46.775659,-38.0
2023-12-20 14:18:46.783348,-30.0
2023-12-20 14:18:46.791037,-33.0
2023-12-20 14:18:46.798726,-26.0
2023-12-20 14:18:46.806415,-26.0
2023-12-20 14:18:46.814104,-40.0
2023-12-20 14:18:46.821793,-33.0
2023-12-20 14:18:46.829482,-19.0
2023-12-20 14:18:46.837171,-30.0
2023-12-20 14:18:46.844860,-40.0
2023-12-20 14:18:46.852549,-33.0
2023-12-20 14:18:46.860238,-33.0
2023-12-20 14:18:46.867927,-47.0
2023-12-20 14:18:46.875616,-64.0
2023-12-20 14:18:46.883305,-61.0
2023-12-20 14:18:46.890994,-59.0
2023-12-20 14:18:46.898683,-66.0
2023-12-20 14:18:46.906372,-69.0
2023-12-20 14:18:46.914061,-45.0
2023-12-20 14:18:46.921750,-26.0
2023-12-20 14:18:46.929439,-30.0
2023-12-20 14:18:46.937128,-40.0
2023-12-20 14:18:46.944817,-66.0
2023-12-20 14:18:46.952506,-85.0
2023-12-20 14:18:46.960195,-61.0
2023-12-20 14:18:46.967884,-47.0
2023-12-20 14:18:46.975573,-81.0
2023-12-20 14:18:46.983262,-174.0
2023-12-20 14:18:46.990951,-336.0
2023-12-20 14:18:46.998640,-414.0
2023-12-20 14:18:47.006329,-195.0
2023-12-20 14:18:47.014018,140.0
2023-12-20 14:18:47.021707,257.0
2023-12-20 14:18:47.029396,202.0
2023-12-20 14:18:47.037085,116.0
2023-12-20 14:18:47.044774,7.0
2023-12-20 14:18:47.052463,-76.0
2023-12-20 14:18:47.060152,-92.0
2023-12-20 14:18:47.067841,-90.0
2023-12-20 14:18:47.075530,-102.0
2023-12-20 14:18:47.083219,-119.0
2023-12-20 14:18:47.090908,-112.0
2023-12-20 14:18:47.098597,-100.0
2023-12-20 14:18:47.106286,-100.0
2023-12-20 14:18:47.113975,-100.0
2023-12-20 14:18:47.121664,-104.0
2023-12-20 14:18:47.129353,-123.0
2023-12-20 14:18:47.137042,-126.0
2023-12-20 14:18:47.144731,-107.0
2023-12-20 14:18:47.152420,-107.0
2023-12-20 14:18:47.160109,-116.0
2023-12-20 14:18:47.167798,-126.0
2023-12-20 14:18:47.175487,-138.0
2023-12-20 14:18:47.183176,-128.0
2023-12-20 14:18:47.190865,-112.0
2023-12-20 14:18:47.198554,-104.0
2023-12-20 14:18:47.206243,-100.0
2023-12-20 14:18:47.213932,-100.0
2023-12-20 14:18:47.221620,-104.0
2023-12-20 14:18:47.229309,-88.0
2023-12-20 14:18:47.236998,-64.0
2023-12-20 14:18:47.244687,-66.0
2023-12-20 14:18:47.252376,-73.0
2023-12-20 14:18:47.260065,-54.0
2023-12-20 14:18:47.267754,-38.0
2023-12-20 14:18:47.275443,-40.0
2023-12-20 14:18:47.283132,-30.0
2023-12-20 14:18:47.290821,-19.0
2023-12-20 14:18:47.298510,-19.0
2023-12-20 14:18:47.306199,-26.0
2023-12-20 14:18:47.313888,-23.0
2023-12-20 14:18:47.321577,-23.0
2023-12-20 14:18:47.329266,-28.0
2023-12-20 14:18:47.336955,-21.0
2023-12-20 14:18:47.344644,-16.0
2023-12-20 14:18:47.352333,-26.0
2023-12-20 14:18:47.360022,-30.0
2023-12-20 14:18:47.367711,-21.0
2023-12-20 14:18:47.375400,-21.0
2023-12-20 14:18:47.383089,-21.0
2023-12-20 14:18:47.390778,-19.0
2023-12-20 14:18:47.398467,-21.0
2023-12-20 14:18:47.406156,-26.0
2023-12-20 14:18:47.413845,-28.0
2023-12-20 14:18:47.421534,-30.0
2023-12-20 14:18:47.429223,-23.0
2023-12-20 14:18:47.436912,-21.0
2023-12-20 14:18:47.444601,-30.0
2023-12-20 14:18:47.452290,-47.0
2023-12-20 14:18:47.459979,-66.0
2023-12-20 14:18:47.467668,-69.0
2023-12-20 14:18:47.475357,-61.0
2023-12-20 14:18:47.483046,-57.0
2023-12-20 14:18:47.490735,-59.0
2023-12-20 14:18:47.498424,-57.0
2023-12-20 14:18:47.506113,-38.0
2023-12-20 14:18:47.513802,-21.0
2023-12-20 14:18:47.521491,-21.0
2023-12-20 14:18:47.529180,-33.0
2023-12-20 14:18:47.536869,-40.0
2023-12-20 14:18:47.544558,-35.0
2023-12-20 14:18:47.552247,-30.0
2023-12-20 14:18:47.559936,-50.0
2023-12-20 14:18:47.567625,-126.0
2023-12-20 14:18:47.575314,-286.0
2023-12-20 14:18:47.583003,-407.0
2023-12-20 14:18:47.590692,-243.0
2023-12-20 14:18:47.598381,119.0
2023-12-20 14:18:47.606070,286.0
2023-12-20 14:18:47.613759,250.0
2023-12-20 14:18:47.621448,195.0
2023-12-20 14:18:47.629137,88.0
2023-12-20 14:18:47.636826,-47.0
2023-12-20 14:18:47.644515,-90.0
2023-12-20 14:18:47.652204,-81.0
2023-12-20 14:18:47.659893,-114.0
2023-12-20 14:18:47.667582,-157.0
2023-12-20 14:18:47.675271,-159.0
2023-12-20 14:18:47.682960,-145.0
2023-12-20 14:18:47.690649,-140.0
2023-12-20 14:18:47.698338,-135.0
2023-12-20 14:18:47.706027,-135.0
2023-12-20 14:18:47.713716,-138.0
2023-12-20 14:18:47.721404,-133.0
2023-12-20 14:18:47.729093,-145.0
2023-12-20 14:18:47.736782,-154.0
2023-12-20 14:18:47.744471,-150.0
2023-12-20 14:18:47.752160,-154.0
2023-12-20 14:18:47.759849,-166.0
2023-12-20 14:18:47.767538,-164.0
2023-12-20 14:18:47.775227,-154.0
2023-12-20 14:18:47.782916,-143.0
2023-12-20 14:18:47.790605,-128.0
2023-12-20 14:18:47.798294,-116.0
2023-12-20 14:18:47.805983,-116.0
2023-12-20 14:18:47.813672,-119.0
2023-12-20 14:18:47.821361,-104.0
2023-12-20 14:18:47.829050,-81.0
2023-12-20 14:18:47.836739,-73.0
2023-12-20 14:18:47.844428,-59.0
2023-12-20 14:18:47.852117,-38.0
2023-12-20 14:18:47.859806,-30.0
2023-12-20 14:18:47.867495,-28.0
2023-12-20 14:18:47.875184,-21.0
2023-12-20 14:18:47.882873,-16.0
2023-12-20 14:18:47.890562,-23.0
2023-12-20 14:18:47.898251,-33.0
2023-12-20 14:18:47.905940,-30.0
2023-12-20 14:18:47.913629,-35.0
2023-12-20 14:18:47.921318,-38.0
2023-12-20 14:18:47.929007,-33.0
2023-12-20 14:18:47.936696,-38.0
2023-12-20 14:18:47.944385,-40.0
2023-12-20 14:18:47.952074,-35.0
2023-12-20 14:18:47.959763,-30.0
2023-12-20 14:18:47.967452,-26.0
2023-12-20 14:18:47.975141,-16.0
2023-12-20 14:18:47.982830,-11.0
2023-12-20 14:18:47.990519,-19.0
2023-12-20 14:18:47.998208,-30.0
2023-12-20 14:18:48.005897,-30.0
2023-12-20 14:18:48.013586,-28.0
2023-12-20 14:18:48.021275,-23.0
2023-12-20 14:18:48.028964,-21.0
2023-12-20 14:18:48.036653,-30.0
2023-12-20 14:18:48.044342,-38.0
2023-12-20 14:18:48.052031,-33.0
2023-12-20 14:18:48.059720,-38.0
2023-12-20 14:18:48.067409,-59.0
2023-12-20 14:18:48.075098,-71.0
2023-12-20 14:18:48.082787,-50.0
2023-12-20 14:18:48.090476,-40.0
2023-12-20 14:18:48.098165,-52.0
2023-12-20 14:18:48.105854,-50.0
2023-12-20 14:18:48.113543,-57.0
2023-12-20 14:18:48.121232,-81.0
2023-12-20 14:18:48.128921,-78.0
2023-12-20 14:18:48.136610,-81.0
2023-12-20 14:18:48.144299,-164.0
2023-12-20 14:18:48.151988,-352.0
2023-12-20 14:18:48.159677,-484.0
2023-12-20 14:18:48.167366,-293.0
2023-12-20 14:18:48.175055,95.0
2023-12-20 14:18:48.182744,271.0
2023-12-20 14:18:48.190433,238.0
2023-12-20 14:18:48.198122,181.0
2023-12-20 14:18:48.205811,81.0
2023-12-20 14:18:48.213500,-33.0
2023-12-20 14:18:48.221189,-85.0
2023-12-20 14:18:48.228877,-85.0
2023-12-20 14:18:48.236566,-88.0
2023-12-20 14:18:48.244255,-102.0
2023-12-20 14:18:48.251944,-121.0
2023-12-20 14:18:48.259633,-126.0
2023-12-20 14:18:48.267322,-126.0
2023-12-20 14:18:48.275011,-133.0
2023-12-20 14:18:48.282700,-147.0
2023-12-20 14:18:48.290389,-145.0
2023-12-20 14:18:48.298078,-140.0
2023-12-20 14:18:48.305767,-135.0
2023-12-20 14:18:48.313456,-138.0
2023-12-20 14:18:48.321145,-145.0
2023-12-20 14:18:48.328834,-147.0
2023-12-20 14:18:48.336523,-157.0
2023-12-20 14:18:48.344212,-154.0
2023-12-20 14:18:48.351901,-131.0
2023-12-20 14:18:48.359590,-119.0
2023-12-20 14:18:48.367279,-123.0
2023-12-20 14:18:48.374968,-114.0
2023-12-20 14:18:48.382657,-95.0
2023-12-20 14:18:48.390346,-85.0
2023-12-20 14:18:48.398035,-83.0
2023-12-20 14:18:48.405724,-83.0
2023-12-20 14:18:48.413413,-73.0
2023-12-20 14:18:48.421102,-50.0
2023-12-20 14:18:48.428791,-28.0
2023-12-20 14:18:48.436480,-23.0
2023-12-20 14:18:48.444169,-30.0
2023-12-20 14:18:48.451858,-21.0
2023-12-20 14:18:48.459547,-11.0
2023-12-20 14:18:48.467236,-19.0
2023-12-20 14:18:48.474925,-26.0
2023-12-20 14:18:48.482614,-26.0
2023-12-20 14:18:48.490303,-26.0
2023-12-20 14:18:48.497992,-19.0
2023-12-20 14:18:48.505681,-19.0
2023-12-20 14:18:48.513370,-19.0
2023-12-20 14:18:48.521059,-19.0
2023-12-20 14:18:48.528748,-19.0
2023-12-20 14:18:48.536437,-23.0
2023-12-20 14:18:48.544126,-14.0
2023-12-20 14:18:48.551815,-4.0
2023-12-20 14:18:48.559504,-14.0
2023-12-20 14:18:48.567193,-23.0
2023-12-20 14:18:48.574882,-19.0
2023-12-20 14:18:48.582571,-7.0
2023-12-20 14:18:48.590260,0.0
2023-12-20 14:18:48.597949,-9.0
2023-12-20 14:18:48.605638,-40.0
2023-12-20 14:18:48.613327,-66.0
2023-12-20 14:18:48.621016,-64.0
2023-12-20 14:18:48.628705,-57.0
2023-12-20 14:18:48.636394,-54.0
2023-12-20 14:18:48.644083,-50.0
2023-12-20 14:18:48.651772,-45.0
2023-12-20 14:18:48.659461,-33.0
2023-12-20 14:18:48.667150,-23.0
2023-12-20 14:18:48.674839,-16.0
2023-12-20 14:18:48.682528,-19.0
2023-12-20 14:18:48.690217,-42.0
2023-12-20 14:18:48.697906,-54.0
2023-12-20 14:18:48.705595,-40.0
2023-12-20 14:18:48.713284,-85.0
2023-12-20 14:18:48.720973,-252.0
2023-12-20 14:18:48.728661,-433.0
2023-12-20 14:18:48.736350,-362.0
2023-12-20 14:18:48.744039,-4.0
2023-12-20 14:18:48.751728,274.0
2023-12-20 14:18:48.759417,281.0
2023-12-20 14:18:48.767106,181.0
2023-12-20 14:18:48.774795,76.0
2023-12-20 14:18:48.782484,-26.0
2023-12-20 14:18:48.790173,-78.0
2023-12-20 14:18:48.797862,-78.0
2023-12-20 14:18:48.805551,-78.0
2023-12-20 14:18:48.813240,-81.0
2023-12-20 14:18:48.820929,-78.0
2023-12-20 14:18:48.828618,-78.0
2023-12-20 14:18:48.836307,-85.0
2023-12-20 14:18:48.843996,-100.0
2023-12-20 14:18:48.851685,-104.0
2023-12-20 14:18:48.859374,-102.0
2023-12-20 14:18:48.867063,-109.0
2023-12-20 14:18:48.874752,-121.0
2023-12-20 14:18:48.882441,-133.0
2023-12-20 14:18:48.890130,-150.0
2023-12-20 14:18:48.897819,-157.0
2023-12-20 14:18:48.905508,-147.0
2023-12-20 14:18:48.913197,-145.0
2023-12-20 14:18:48.920886,-150.0
2023-12-20 14:18:48.928575,-143.0
2023-12-20 14:18:48.936264,-131.0
2023-12-20 14:18:48.943953,-119.0
2023-12-20 14:18:48.951642,-112.0
2023-12-20 14:18:48.959331,-102.0
2023-12-20 14:18:48.967020,-95.0
2023-12-20 14:18:48.974709,-78.0
2023-12-20 14:18:48.982398,-52.0
2023-12-20 14:18:48.990087,-38.0
2023-12-20 14:18:48.997776,-33.0
2023-12-20 14:18:49.005465,-16.0
2023-12-20 14:18:49.013154,-7.0
2023-12-20 14:18:49.020843,-19.0
2023-12-20 14:18:49.028532,-23.0
2023-12-20 14:18:49.036221,-9.0
2023-12-20 14:18:49.043910,-2.0
2023-12-20 14:18:49.051599,-11.0
2023-12-20 14:18:49.059288,-26.0
2023-12-20 14:18:49.066977,-23.0
2023-12-20 14:18:49.074666,-14.0
2023-12-20 14:18:49.082355,-14.0
2023-12-20 14:18:49.090044,-11.0
2023-12-20 14:18:49.097733,-14.0
2023-12-20 14:18:49.105422,-23.0
2023-12-20 14:18:49.113111,-21.0
2023-12-20 14:18:49.120800,-19.0
2023-12-20 14:18:49.128489,-16.0
2023-12-20 14:18:49.136178,-14.0
2023-12-20 14:18:49.143867,-21.0
2023-12-20 14:18:49.151556,-28.0
2023-12-20 14:18:49.159245,-28.0
2023-12-20 14:18:49.166934,-28.0
2023-12-20 14:18:49.174623,-28.0
2023-12-20 14:18:49.182312,-30.0
2023-12-20 14:18:49.190001,-42.0
2023-12-20 14:18:49.197690,-69.0
2023-12-20 14:18:49.205379,-90.0
2023-12-20 14:18:49.213068,-81.0
2023-12-20 14:18:49.220757,-59.0
2023-12-20 14:18:49.228445,-40.0
2023-12-20 14:18:49.236134,-26.0
2023-12-20 14:18:49.243823,-26.0
2023-12-20 14:18:49.251512,-28.0
2023-12-20 14:18:49.259201,-28.0
2023-12-20 14:18:49.266890,-38.0
2023-12-20 14:18:49.274579,-57.0
2023-12-20 14:18:49.282268,-61.0
2023-12-20 14:18:49.289957,-90.0
2023-12-20 14:18:49.297646,-231.0
2023-12-20 14:18:49.305335,-429.0
2023-12-20 14:18:49.313024,-424.0
2023-12-20 14:18:49.320713,-104.0
2023-12-20 14:18:49.328402,214.0
2023-12-20 14:18:49.336091,267.0
2023-12-20 14:18:49.343780,185.0
2023-12-20 14:18:49.351469,107.0
2023-12-20 14:18:49.359158,7.0
2023-12-20 14:18:49.366847,-61.0
2023-12-20 14:18:49.374536,-69.0
2023-12-20 14:18:49.382225,-76.0
2023-12-20 14:18:49.389914,-95.0
2023-12-20 14:18:49.397603,-92.0
2023-12-20 14:18:49.405292,-83.0
2023-12-20 14:18:49.412981,-83.0
2023-12-20 14:18:49.420670,-83.0
2023-12-20 14:18:49.428359,-97.0
2023-12-20 14:18:49.436048,-112.0
2023-12-20 14:18:49.443737,-109.0
2023-12-20 14:18:49.451426,-107.0
2023-12-20 14:18:49.459115,-116.0
2023-12-20 14:18:49.466804,-123.0
2023-12-20 14:18:49.474493,-140.0
2023-12-20 14:18:49.482182,-150.0
2023-12-20 14:18:49.489871,-140.0
2023-12-20 14:18:49.497560,-135.0
2023-12-20 14:18:49.505249,-138.0
2023-12-20 14:18:49.512938,-133.0
2023-12-20 14:18:49.520627,-123.0
2023-12-20 14:18:49.528316,-116.0
2023-12-20 14:18:49.536005,-112.0
2023-12-20 14:18:49.543694,-100.0
2023-12-20 14:18:49.551383,-81.0
2023-12-20 14:18:49.559072,-64.0
2023-12-20 14:18:49.566761,-45.0
2023-12-20 14:18:49.574450,-26.0
2023-12-20 14:18:49.582139,-23.0
2023-12-20 14:18:49.589828,-21.0
2023-12-20 14:18:49.597517,-14.0
2023-12-20 14:18:49.605206,-14.0
2023-12-20 14:18:49.612895,-23.0
2023-12-20 14:18:49.620584,-21.0
2023-12-20 14:18:49.628273,-9.0
2023-12-20 14:18:49.635962,-23.0
2023-12-20 14:18:49.643651,-52.0
2023-12-20 14:18:49.651340,-59.0
2023-12-20 14:18:49.659029,-47.0
2023-12-20 14:18:49.666718,-35.0
2023-12-20 14:18:49.674407,-26.0
2023-12-20 14:18:49.682096,-26.0
2023-12-20 14:18:49.689785,-28.0
2023-12-20 14:18:49.697474,-23.0
2023-12-20 14:18:49.705163,-28.0
2023-12-20 14:18:49.712852,-35.0
2023-12-20 14:18:49.720541,-21.0
2023-12-20 14:18:49.728230,-14.0
2023-12-20 14:18:49.735918,-35.0
2023-12-20 14:18:49.743607,-38.0
2023-12-20 14:18:49.751296,-16.0
2023-12-20 14:18:49.758985,-19.0
2023-12-20 14:18:49.766674,-42.0
2023-12-20 14:18:49.774363,-88.0
2023-12-20 14:18:49.782052,-126.0
2023-12-20 14:18:49.789741,-109.0
2023-12-20 14:18:49.797430,-85.0
2023-12-20 14:18:49.805119,-81.0
2023-12-20 14:18:49.812808,-64.0
2023-12-20 14:18:49.820497,-54.0
2023-12-20 14:18:49.828186,-61.0
2023-12-20 14:18:49.835875,-50.0
2023-12-20 14:18:49.843564,-38.0
2023-12-20 14:18:49.851253,-54.0
2023-12-20 14:18:49.858942,-54.0
2023-12-20 14:18:49.866631,-35.0
2023-12-20 14:18:49.874320,-100.0
2023-12-20 14:18:49.882009,-286.0
2023-12-20 14:18:49.889698,-467.0
2023-12-20 14:18:49.897387,-376.0
2023-12-20 14:18:49.905076,0.0
2023-12-20 14:18:49.912765,250.0
2023-12-20 14:18:49.920454,238.0
2023-12-20 14:18:49.928143,183.0
2023-12-20 14:18:49.935832,100.0
2023-12-20 14:18:49.943521,-28.0
2023-12-20 14:18:49.951210,-90.0
2023-12-20 14:18:49.958899,-81.0
2023-12-20 14:18:49.966588,-85.0
2023-12-20 14:18:49.974277,-97.0
2023-12-20 14:18:49.981966,-85.0
2023-12-20 14:18:49.989655,-76.0
2023-12-20 14:18:49.997344,-88.0
2023-12-20 14:18:50.005033,-97.0
2023-12-20 14:18:50.012722,-102.0
2023-12-20 14:18:50.020411,-102.0
2023-12-20 14:18:50.028100,-100.0
2023-12-20 14:18:50.035789,-102.0
2023-12-20 14:18:50.043478,-109.0
2023-12-20 14:18:50.051167,-123.0
2023-12-20 14:18:50.058856,-135.0
2023-12-20 14:18:50.066545,-140.0
2023-12-20 14:18:50.074234,-138.0
2023-12-20 14:18:50.081923,-131.0
2023-12-20 14:18:50.089612,-135.0
2023-12-20 14:18:50.097301,-143.0
2023-12-20 14:18:50.104990,-126.0
2023-12-20 14:18:50.112679,-107.0
2023-12-20 14:18:50.120368,-112.0
2023-12-20 14:18:50.128057,-114.0
2023-12-20 14:18:50.135746,-97.0
2023-12-20 14:18:50.143435,-81.0
2023-12-20 14:18:50.151124,-59.0
2023-12-20 14:18:50.158813,-33.0
2023-12-20 14:18:50.166502,-26.0
2023-12-20 14:18:50.174191,-40.0
2023-12-20 14:18:50.181880,-52.0
2023-12-20 14:18:50.189569,-45.0
2023-12-20 14:18:50.197258,-30.0
2023-12-20 14:18:50.204947,-26.0
2023-12-20 14:18:50.212636,-28.0
2023-12-20 14:18:50.220325,-38.0
2023-12-20 14:18:50.228014,-45.0
2023-12-20 14:18:50.235702,-50.0
2023-12-20 14:18:50.243391,-45.0
2023-12-20 14:18:50.251080,-33.0
2023-12-20 14:18:50.258769,-23.0
2023-12-20 14:18:50.266458,-30.0
2023-12-20 14:18:50.274147,-47.0
2023-12-20 14:18:50.281836,-57.0
2023-12-20 14:18:50.289525,-42.0
2023-12-20 14:18:50.297214,-35.0
2023-12-20 14:18:50.304903,-50.0
2023-12-20 14:18:50.312592,-61.0
2023-12-20 14:18:50.320281,-73.0
2023-12-20 14:18:50.327970,-83.0
2023-12-20 14:18:50.335659,-71.0
2023-12-20 14:18:50.343348,-66.0
2023-12-20 14:18:50.351037,-73.0
2023-12-20 14:18:50.358726,-76.0
2023-12-20 14:18:50.366415,-83.0
2023-12-20 14:18:50.374104,-95.0
2023-12-20 14:18:50.381793,-85.0
2023-12-20 14:18:50.389482,-54.0
2023-12-20 14:18:50.397171,-50.0
2023-12-20 14:18:50.404860,-61.0
2023-12-20 14:18:50.412549,-61.0
2023-12-20 14:18:50.420238,-52.0
2023-12-20 14:18:50.427927,-47.0
2023-12-20 14:18:50.435616,-42.0
2023-12-20 14:18:50.443305,-35.0
2023-12-20 14:18:50.450994,-52.0
2023-12-20 14:18:50.458683,-159.0
2023-12-20 14:18:50.466372,-374.0
2023-12-20 14:18:50.474061,-505.0
2023-12-20 14:18:50.481750,-286.0
2023-12-20 14:18:50.489439,116.0
2023-12-20 14:18:50.497128,281.0
2023-12-20 14:18:50.504817,240.0
2023-12-20 14:18:50.512506,183.0
2023-12-20 14:18:50.520195,78.0
2023-12-20 14:18:50.527884,-35.0
2023-12-20 14:18:50.535573,-73.0
2023-12-20 14:18:50.543262,-71.0
2023-12-20 14:18:50.550951,-85.0
2023-12-20 14:18:50.558640,-88.0
2023-12-20 14:18:50.566329,-78.0
2023-12-20 14:18:50.574018,-81.0
2023-12-20 14:18:50.581707,-92.0
2023-12-20 14:18:50.589396,-95.0
2023-12-20 14:18:50.597085,-95.0
2023-12-20 14:18:50.604774,-102.0
2023-12-20 14:18:50.612463,-102.0
2023-12-20 14:18:50.620152,-104.0
2023-12-20 14:18:50.627841,-114.0
2023-12-20 14:18:50.635530,-131.0
2023-12-20 14:18:50.643219,-135.0
2023-12-20 14:18:50.650908,-135.0
2023-12-20 14:18:50.658597,-138.0
2023-12-20 14:18:50.666286,-133.0
2023-12-20 14:18:50.673975,-123.0
2023-12-20 14:18:50.681664,-126.0
2023-12-20 14:18:50.689353,-116.0
2023-12-20 14:18:50.697042,-102.0
2023-12-20 14:18:50.704731,-95.0
2023-12-20 14:18:50.712420,-78.0
2023-12-20 14:18:50.720109,-64.0
2023-12-20 14:18:50.727798,-61.0
2023-12-20 14:18:50.735486,-52.0
2023-12-20 14:18:50.743175,-33.0
2023-12-20 14:18:50.750864,-21.0
2023-12-20 14:18:50.758553,-19.0
2023-12-20 14:18:50.766242,-19.0
2023-12-20 14:18:50.773931,-30.0
2023-12-20 14:18:50.781620,-52.0
2023-12-20 14:18:50.789309,-61.0
2023-12-20 14:18:50.796998,-47.0
2023-12-20 14:18:50.804687,-40.0
2023-12-20 14:18:50.812376,-45.0
2023-12-20 14:18:50.820065,-45.0
2023-12-20 14:18:50.827754,-42.0
2023-12-20 14:18:50.835443,-47.0
2023-12-20 14:18:50.843132,-40.0
2023-12-20 14:18:50.850821,-26.0
2023-12-20 14:18:50.858510,-38.0
2023-12-20 14:18:50.866199,-57.0
2023-12-20 14:18:50.873888,-50.0
2023-12-20 14:18:50.881577,-35.0
2023-12-20 14:18:50.889266,-33.0
2023-12-20 14:18:50.896955,-33.0
2023-12-20 14:18:50.904644,-52.0
2023-12-20 14:18:50.912333,-73.0
2023-12-20 14:18:50.920022,-66.0
2023-12-20 14:18:50.927711,-61.0
2023-12-20 14:18:50.935400,-69.0
2023-12-20 14:18:50.943089,-69.0
2023-12-20 14:18:50.950778,-76.0
2023-12-20 14:18:50.958467,-88.0
2023-12-20 14:18:50.966156,-64.0
2023-12-20 14:18:50.973845,-28.0
2023-12-20 14:18:50.981534,-23.0
2023-12-20 14:18:50.989223,-33.0
2023-12-20 14:18:50.996912,-38.0
2023-12-20 14:18:51.004601,-42.0
2023-12-20 14:18:51.012290,-47.0
2023-12-20 14:18:51.019979,-35.0
2023-12-20 14:18:51.027668,-30.0
2023-12-20 14:18:51.035357,-131.0
2023-12-20 14:18:51.043046,-364.0
2023-12-20 14:18:51.050735,-515.0
2023-12-20 14:18:51.058424,-302.0
2023-12-20 14:18:51.066113,107.0
2023-12-20 14:18:51.073802,298.0
2023-12-20 14:18:51.081491,257.0
2023-12-20 14:18:51.089180,174.0
2023-12-20 14:18:51.096869,66.0
2023-12-20 14:18:51.104558,-35.0
2023-12-20 14:18:51.112247,-69.0
2023-12-20 14:18:51.119936,-64.0
2023-12-20 14:18:51.127625,-69.0
2023-12-20 14:18:51.135314,-85.0
2023-12-20 14:18:51.143003,-95.0
2023-12-20 14:18:51.150692,-88.0
2023-12-20 14:18:51.158381,-76.0
2023-12-20 14:18:51.166070,-81.0
2023-12-20 14:18:51.173759,-95.0
2023-12-20 14:18:51.181448,-100.0
2023-12-20 14:18:51.189137,-97.0
2023-12-20 14:18:51.196826,-97.0
2023-12-20 14:18:51.204515,-97.0
2023-12-20 14:18:51.212204,-97.0
2023-12-20 14:18:51.219893,-107.0
2023-12-20 14:18:51.227582,-119.0
2023-12-20 14:18:51.235271,-119.0
2023-12-20 14:18:51.242959,-112.0
2023-12-20 14:18:51.250648,-119.0
2023-12-20 14:18:51.258337,-116.0
2023-12-20 14:18:51.266026,-107.0
2023-12-20 14:18:51.273715,-112.0
2023-12-20 14:18:51.281404,-112.0
2023-12-20 14:18:51.289093,-100.0
2023-12-20 14:18:51.296782,-85.0
2023-12-20 14:18:51.304471,-64.0
2023-12-20 14:18:51.312160,-50.0
2023-12-20 14:18:51.319849,-38.0
2023-12-20 14:18:51.327538,-26.0
2023-12-20 14:18:51.335227,-35.0
2023-12-20 14:18:51.342916,-47.0
2023-12-20 14:18:51.350605,-33.0
2023-12-20 14:18:51.358294,-38.0
2023-12-20 14:18:51.365983,-52.0
2023-12-20 14:18:51.373672,-45.0
2023-12-20 14:18:51.381361,-38.0
2023-12-20 14:18:51.389050,-35.0
2023-12-20 14:18:51.396739,-33.0
2023-12-20 14:18:51.404428,-33.0
2023-12-20 14:18:51.412117,-30.0
2023-12-20 14:18:51.419806,-35.0
2023-12-20 14:18:51.427495,-42.0
2023-12-20 14:18:51.435184,-38.0
2023-12-20 14:18:51.442873,-45.0
2023-12-20 14:18:51.450562,-69.0
2023-12-20 14:18:51.458251,-61.0
2023-12-20 14:18:51.465940,-47.0
2023-12-20 14:18:51.473629,-54.0
2023-12-20 14:18:51.481318,-50.0
2023-12-20 14:18:51.489007,-38.0
2023-12-20 14:18:51.496696,-42.0
2023-12-20 14:18:51.504385,-52.0
2023-12-20 14:18:51.512074,-47.0
2023-12-20 14:18:51.519763,-50.0
2023-12-20 14:18:51.527452,-64.0
2023-12-20 14:18:51.535141,-66.0
2023-12-20 14:18:51.542830,-54.0
2023-12-20 14:18:51.550519,-40.0
2023-12-20 14:18:51.558208,-23.0
2023-12-20 14:18:51.565897,-19.0
2023-12-20 14:18:51.573586,-23.0
2023-12-20 14:18:51.581275,-23.0
2023-12-20 14:18:51.588964,-26.0
2023-12-20 14:18:51.596653,-26.0
2023-12-20 14:18:51.604342,-26.0
2023-12-20 14:18:51.612031,-45.0
2023-12-20 14:18:51.619720,-150.0
2023-12-20 14:18:51.627409,-371.0
2023-12-20 14:18:51.635098,-522.0
2023-12-20 14:18:51.642787,-309.0
2023-12-20 14:18:51.650476,116.0
2023-12-20 14:18:51.658165,307.0
2023-12-20 14:18:51.665854,252.0
2023-12-20 14:18:51.673543,162.0
2023-12-20 14:18:51.681232,54.0
2023-12-20 14:18:51.688921,-42.0
2023-12-20 14:18:51.696610,-61.0
2023-12-20 14:18:51.704299,-52.0
2023-12-20 14:18:51.711988,-59.0
2023-12-20 14:18:51.719677,-66.0
2023-12-20 14:18:51.727366,-61.0
2023-12-20 14:18:51.735055,-61.0
2023-12-20 14:18:51.742743,-69.0
2023-12-20 14:18:51.750432,-78.0
2023-12-20 14:18:51.758121,-78.0
2023-12-20 14:18:51.765810,-78.0
2023-12-20 14:18:51.773499,-83.0
2023-12-20 14:18:51.781188,-102.0
2023-12-20 14:18:51.788877,-121.0
2023-12-20 14:18:51.796566,-126.0
2023-12-20 14:18:51.804255,-128.0
2023-12-20 14:18:51.811944,-131.0
2023-12-20 14:18:51.819633,-128.0
2023-12-20 14:18:51.827322,-135.0
2023-12-20 14:18:51.835011,-138.0
2023-12-20 14:18:51.842700,-126.0
2023-12-20 14:18:51.850389,-119.0
2023-12-20 14:18:51.858078,-114.0
2023-12-20 14:18:51.865767,-97.0
2023-12-20 14:18:51.873456,-81.0
2023-12-20 14:18:51.881145,-66.0
2023-12-20 14:18:51.888834,-50.0
2023-12-20 14:18:51.896523,-35.0
2023-12-20 14:18:51.904212,-26.0
2023-12-20 14:18:51.911901,-19.0
2023-12-20 14:18:51.919590,-14.0
2023-12-20 14:18:51.927279,-11.0
2023-12-20 14:18:51.934968,-14.0
2023-12-20 14:18:51.942657,-19.0
2023-12-20 14:18:51.950346,-19.0
2023-12-20 14:18:51.958035,-19.0
2023-12-20 14:18:51.965724,-26.0
2023-12-20 14:18:51.973413,-23.0
2023-12-20 14:18:51.981102,-28.0
2023-12-20 14:18:51.988791,-57.0
2023-12-20 14:18:51.996480,-66.0
2023-12-20 14:18:52.004169,-45.0
2023-12-20 14:18:52.011858,-40.0
2023-12-20 14:18:52.019547,-50.0
2023-12-20 14:18:52.027236,-54.0
2023-12-20 14:18:52.034925,-59.0
2023-12-20 14:18:52.042614,-61.0
2023-12-20 14:18:52.050303,-57.0
2023-12-20 14:18:52.057992,-57.0
2023-12-20 14:18:52.065681,-57.0
2023-12-20 14:18:52.073370,-50.0
2023-12-20 14:18:52.081059,-45.0
2023-12-20 14:18:52.088748,-47.0
2023-12-20 14:18:52.096437,-45.0
2023-12-20 14:18:52.104126,-50.0
2023-12-20 14:18:52.111815,-61.0
2023-12-20 14:18:52.119504,-69.0
2023-12-20 14:18:52.127193,-71.0
2023-12-20 14:18:52.134882,-64.0
2023-12-20 14:18:52.142571,-54.0
2023-12-20 14:18:52.150260,-45.0
2023-12-20 14:18:52.157949,-35.0
2023-12-20 14:18:52.165638,-28.0
2023-12-20 14:18:52.173327,-23.0
2023-12-20 14:18:52.181016,-23.0
2023-12-20 14:18:52.188705,-23.0
2023-12-20 14:18:52.196394,-19.0
2023-12-20 14:18:52.204083,-16.0
2023-12-20 14:18:52.211772,-42.0
2023-12-20 14:18:52.219461,-147.0
2023-12-20 14:18:52.227150,-360.0
2023-12-20 14:18:52.234839,-491.0
2023-12-20 14:18:52.242527,-281.0
2023-12-20 14:18:52.250216,121.0
2023-12-20 14:18:52.257905,307.0
2023-12-20 14:18:52.265594,259.0
2023-12-20 14:18:52.273283,169.0
2023-12-20 14:18:52.280972,54.0
2023-12-20 14:18:52.288661,-59.0
2023-12-20 14:18:52.296350,-88.0
2023-12-20 14:18:52.304039,-61.0
2023-12-20 14:18:52.311728,-66.0
2023-12-20 14:18:52.319417,-83.0
2023-12-20 14:18:52.327106,-73.0
2023-12-20 14:18:52.334795,-71.0
2023-12-20 14:18:52.342484,-95.0
2023-12-20 14:18:52.350173,-112.0
2023-12-20 14:18:52.357862,-104.0
2023-12-20 14:18:52.365551,-102.0
2023-12-20 14:18:52.373240,-112.0
2023-12-20 14:18:52.380929,-119.0
2023-12-20 14:18:52.388618,-126.0
2023-12-20 14:18:52.396307,-138.0
2023-12-20 14:18:52.403996,-140.0
2023-12-20 14:18:52.411685,-135.0
2023-12-20 14:18:52.419374,-133.0
2023-12-20 14:18:52.427063,-126.0
2023-12-20 14:18:52.434752,-128.0
2023-12-20 14:18:52.442441,-128.0
2023-12-20 14:18:52.450130,-107.0
2023-12-20 14:18:52.457819,-90.0
2023-12-20 14:18:52.465508,-90.0
2023-12-20 14:18:52.473197,-76.0
2023-12-20 14:18:52.480886,-57.0
2023-12-20 14:18:52.488575,-54.0
2023-12-20 14:18:52.496264,-40.0
2023-12-20 14:18:52.503953,-14.0
2023-12-20 14:18:52.511642,-4.0
2023-12-20 14:18:52.519331,-11.0
2023-12-20 14:18:52.527020,-14.0
2023-12-20 14:18:52.534709,-7.0
2023-12-20 14:18:52.542398,0.0
2023-12-20 14:18:52.550087,-2.0
2023-12-20 14:18:52.557776,-4.0
2023-12-20 14:18:52.565465,-19.0
2023-12-20 14:18:52.573154,-47.0
2023-12-20 14:18:52.580843,-57.0
2023-12-20 14:18:52.588532,-50.0
2023-12-20 14:18:52.596221,-54.0
2023-12-20 14:18:52.603910,-52.0
2023-12-20 14:18:52.611599,-47.0
2023-12-20 14:18:52.619288,-54.0
2023-12-20 14:18:52.626977,-45.0
2023-12-20 14:18:52.634666,-26.0
2023-12-20 14:18:52.642355,-28.0
2023-12-20 14:18:52.650044,-38.0
2023-12-20 14:18:52.657733,-33.0
2023-12-20 14:18:52.665422,-28.0
2023-12-20 14:18:52.673111,-26.0
2023-12-20 14:18:52.680800,-23.0
2023-12-20 14:18:52.688489,-16.0
2023-12-20 14:18:52.696178,-11.0
2023-12-20 14:18:52.703867,-19.0
2023-12-20 14:18:52.711556,-28.0
2023-12-20 14:18:52.719245,-26.0
2023-12-20 14:18:52.726934,-26.0
2023-12-20 14:18:52.734623,-35.0
2023-12-20 14:18:52.742312,-45.0
2023-12-20 14:18:52.750000,-50.0
2023-12-20 14:18:52.757689,-42.0
2023-12-20 14:18:52.765378,-19.0
2023-12-20 14:18:52.773067,-2.0
2023-12-20 14:18:52.780756,-21.0
2023-12-20 14:18:52.788445,-42.0
2023-12-20 14:18:52.796134,-45.0
2023-12-20 14:18:52.803823,-52.0
2023-12-20 14:18:52.811512,-50.0
2023-12-20 14:18:52.819201,-30.0
2023-12-20 14:18:52.826890,-42.0
2023-12-20 14:18:52.834579,-157.0
2023-12-20 14:18:52.842268,-371.0
2023-12-20 14:18:52.849957,-472.0
2023-12-20 14:18:52.857646,-228.0
2023-12-20 14:18:52.865335,152.0
2023-12-20 14:18:52.873024,300.0
2023-12-20 14:18:52.880713,247.0
2023-12-20 14:18:52.888402,154.0
2023-12-20 14:18:52.896091,38.0
2023-12-20 14:18:52.903780,-52.0
2023-12-20 14:18:52.911469,-61.0
2023-12-20 14:18:52.919158,-47.0
2023-12-20 14:18:52.926847,-57.0
2023-12-20 14:18:52.934536,-69.0
2023-12-20 14:18:52.942225,-71.0
2023-12-20 14:18:52.949914,-81.0
2023-12-20 14:18:52.957603,-90.0
2023-12-20 14:18:52.965292,-95.0
2023-12-20 14:18:52.972981,-100.0
2023-12-20 14:18:52.980670,-104.0
2023-12-20 14:18:52.988359,-114.0
2023-12-20 14:18:52.996048,-123.0
2023-12-20 14:18:53.003737,-121.0
2023-12-20 14:18:53.011426,-112.0
2023-12-20 14:18:53.019115,-114.0
2023-12-20 14:18:53.026804,-131.0
2023-12-20 14:18:53.034493,-133.0
2023-12-20 14:18:53.042182,-119.0
2023-12-20 14:18:53.049871,-109.0
2023-12-20 14:18:53.057560,-107.0
2023-12-20 14:18:53.065249,-102.0
2023-12-20 14:18:53.072938,-95.0
2023-12-20 14:18:53.080627,-100.0
2023-12-20 14:18:53.088316,-95.0
2023-12-20 14:18:53.096005,-61.0
2023-12-20 14:18:53.103694,-38.0
2023-12-20 14:18:53.111383,-38.0
2023-12-20 14:18:53.119072,-35.0
2023-12-20 14:18:53.126761,-23.0
2023-12-20 14:18:53.134450,-11.0
2023-12-20 14:18:53.142139,-4.0
2023-12-20 14:18:53.149828,-19.0
2023-12-20 14:18:53.157517,-52.0
2023-12-20 14:18:53.165206,-57.0
2023-12-20 14:18:53.172895,-40.0
2023-12-20 14:18:53.180584,-35.0
2023-12-20 14:18:53.188273,-35.0
2023-12-20 14:18:53.195962,-30.0
2023-12-20 14:18:53.203651,-33.0
2023-12-20 14:18:53.211340,-40.0
2023-12-20 14:18:53.219029,-35.0
2023-12-20 14:18:53.226718,-28.0
2023-12-20 14:18:53.234407,-26.0
2023-12-20 14:18:53.242096,-28.0
2023-12-20 14:18:53.249784,-30.0
2023-12-20 14:18:53.257473,-28.0
2023-12-20 14:18:53.265162,-30.0
2023-12-20 14:18:53.272851,-23.0
2023-12-20 14:18:53.280540,-19.0
2023-12-20 14:18:53.288229,-30.0
2023-12-20 14:18:53.295918,-38.0
2023-12-20 14:18:53.303607,-33.0
2023-12-20 14:18:53.311296,-28.0
2023-12-20 14:18:53.318985,-33.0
2023-12-20 14:18:53.326674,-45.0
2023-12-20 14:18:53.334363,-57.0
2023-12-20 14:18:53.342052,-59.0
2023-12-20 14:18:53.349741,-61.0
2023-12-20 14:18:53.357430,-69.0
2023-12-20 14:18:53.365119,-78.0
2023-12-20 14:18:53.372808,-73.0
2023-12-20 14:18:53.380497,-54.0
2023-12-20 14:18:53.388186,-45.0
2023-12-20 14:18:53.395875,-40.0
2023-12-20 14:18:53.403564,-38.0
2023-12-20 14:18:53.411253,-40.0
2023-12-20 14:18:53.418942,-42.0
2023-12-20 14:18:53.426631,-45.0
2023-12-20 14:18:53.434320,-38.0
2023-12-20 14:18:53.442009,-54.0
2023-12-20 14:18:53.449698,-178.0
2023-12-20 14:18:53.457387,-381.0
2023-12-20 14:18:53.465076,-436.0
2023-12-20 14:18:53.472765,-152.0
2023-12-20 14:18:53.480454,209.0
2023-12-20 14:18:53.488143,305.0
2023-12-20 14:18:53.495832,240.0
2023-12-20 14:18:53.503521,178.0
2023-12-20 14:18:53.511210,66.0
2023-12-20 14:18:53.518899,-50.0
2023-12-20 14:18:53.526588,-78.0
2023-12-20 14:18:53.534277,-69.0
2023-12-20 14:18:53.541966,-81.0
2023-12-20 14:18:53.549655,-92.0
2023-12-20 14:18:53.557344,-97.0
2023-12-20 14:18:53.565033,-107.0
2023-12-20 14:18:53.572722,-123.0
2023-12-20 14:18:53.580411,-128.0
2023-12-20 14:18:53.588100,-119.0
2023-12-20 14:18:53.595789,-123.0
2023-12-20 14:18:53.603478,-143.0
2023-12-20 14:18:53.611167,-138.0
2023-12-20 14:18:53.618856,-123.0
2023-12-20 14:18:53.626545,-128.0
2023-12-20 14:18:53.634234,-133.0
2023-12-20 14:18:53.641923,-126.0
2023-12-20 14:18:53.649612,-126.0
2023-12-20 14:18:53.657301,-123.0
2023-12-20 14:18:53.664990,-119.0
2023-12-20 14:18:53.672679,-121.0
2023-12-20 14:18:53.680368,-114.0
2023-12-20 14:18:53.688057,-95.0
2023-12-20 14:18:53.695746,-104.0
2023-12-20 14:18:53.703435,-123.0
2023-12-20 14:18:53.711124,-95.0
2023-12-20 14:18:53.718813,-59.0
2023-12-20 14:18:53.726502,-54.0
2023-12-20 14:18:53.734191,-50.0
2023-12-20 14:18:53.741880,-40.0
2023-12-20 14:18:53.749568,-35.0
2023-12-20 14:18:53.757257,-38.0
2023-12-20 14:18:53.764946,-33.0
2023-12-20 14:18:53.772635,-26.0
2023-12-20 14:18:53.780324,-28.0
2023-12-20 14:18:53.788013,-33.0
2023-12-20 14:18:53.795702,-45.0
2023-12-20 14:18:53.803391,-61.0
2023-12-20 14:18:53.811080,-59.0
2023-12-20 14:18:53.818769,-47.0
2023-12-20 14:18:53.826458,-57.0
2023-12-20 14:18:53.834147,-71.0
2023-12-20 14:18:53.841836,-59.0
2023-12-20 14:18:53.849525,-50.0
2023-12-20 14:18:53.857214,-50.0
2023-12-20 14:18:53.864903,-45.0
2023-12-20 14:18:53.872592,-42.0
2023-12-20 14:18:53.880281,-42.0
2023-12-20 14:18:53.887970,-35.0
2023-12-20 14:18:53.895659,-33.0
2023-12-20 14:18:53.903348,-33.0
2023-12-20 14:18:53.911037,-23.0
2023-12-20 14:18:53.918726,-23.0
2023-12-20 14:18:53.926415,-30.0
2023-12-20 14:18:53.934104,-21.0
2023-12-20 14:18:53.941793,-14.0
2023-12-20 14:18:53.949482,-33.0
2023-12-20 14:18:53.957171,-54.0
2023-12-20 14:18:53.964860,-66.0
2023-12-20 14:18:53.972549,-76.0
2023-12-20 14:18:53.980238,-73.0
2023-12-20 14:18:53.987927,-52.0
2023-12-20 14:18:53.995616,-35.0
2023-12-20 14:18:54.003305,-33.0
2023-12-20 14:18:54.010994,-30.0
2023-12-20 14:18:54.018683,-26.0
2023-12-20 14:18:54.026372,-30.0
2023-12-20 14:18:54.034061,-30.0
2023-12-20 14:18:54.041750,-23.0
2023-12-20 14:18:54.049439,-23.0
2023-12-20 14:18:54.057128,-64.0
2023-12-20 14:18:54.064817,-202.0
2023-12-20 14:18:54.072506,-414.0
2023-12-20 14:18:54.080195,-462.0
2023-12-20 14:18:54.087884,-154.0
2023-12-20 14:18:54.095573,216.0
2023-12-20 14:18:54.103262,312.0
2023-12-20 14:18:54.110951,247.0
2023-12-20 14:18:54.118640,162.0
2023-12-20 14:18:54.126329,35.0
2023-12-20 14:18:54.134018,-64.0
2023-12-20 14:18:54.141707,-85.0
2023-12-20 14:18:54.149396,-85.0
2023-12-20 14:18:54.157085,-88.0
2023-12-20 14:18:54.164774,-81.0
2023-12-20 14:18:54.172463,-85.0
2023-12-20 14:18:54.180152,-102.0
2023-12-20 14:18:54.187841,-107.0
2023-12-20 14:18:54.195530,-107.0
2023-12-20 14:18:54.203219,-104.0
2023-12-20 14:18:54.210908,-102.0
2023-12-20 14:18:54.218597,-102.0
2023-12-20 14:18:54.226286,-112.0
2023-12-20 14:18:54.233975,-121.0
2023-12-20 14:18:54.241664,-114.0
2023-12-20 14:18:54.249353,-107.0
2023-12-20 14:18:54.257041,-114.0
2023-12-20 14:18:54.264730,-100.0
2023-12-20 14:18:54.272419,-90.0
2023-12-20 14:18:54.280108,-119.0
2023-12-20 14:18:54.287797,-133.0
2023-12-20 14:18:54.295486,-116.0
2023-12-20 14:18:54.303175,-119.0
2023-12-20 14:18:54.310864,-131.0
2023-12-20 14:18:54.318553,-119.0
2023-12-20 14:18:54.326242,-100.0
2023-12-20 14:18:54.333931,-81.0
2023-12-20 14:18:54.341620,-59.0
2023-12-20 14:18:54.349309,-50.0
2023-12-20 14:18:54.356998,-40.0
2023-12-20 14:18:54.364687,-30.0
2023-12-20 14:18:54.372376,-38.0
2023-12-20 14:18:54.380065,-33.0
2023-12-20 14:18:54.387754,-19.0
2023-12-20 14:18:54.395443,-21.0
2023-12-20 14:18:54.403132,-28.0
2023-12-20 14:18:54.410821,-28.0
2023-12-20 14:18:54.418510,-30.0
2023-12-20 14:18:54.426199,-28.0
2023-12-20 14:18:54.433888,-19.0
2023-12-20 14:18:54.441577,-16.0
2023-12-20 14:18:54.449266,-21.0
2023-12-20 14:18:54.456955,-26.0
2023-12-20 14:18:54.464644,-28.0
2023-12-20 14:18:54.472333,-23.0
2023-12-20 14:18:54.480022,-9.0
2023-12-20 14:18:54.487711,-2.0
2023-12-20 14:18:54.495400,-9.0
2023-12-20 14:18:54.503089,-19.0
2023-12-20 14:18:54.510778,-14.0
2023-12-20 14:18:54.518467,-7.0
2023-12-20 14:18:54.526156,-7.0
2023-12-20 14:18:54.533845,-11.0
2023-12-20 14:18:54.541534,-16.0
2023-12-20 14:18:54.549223,-26.0
2023-12-20 14:18:54.556912,-30.0
2023-12-20 14:18:54.564601,-33.0
2023-12-20 14:18:54.572290,-42.0
2023-12-20 14:18:54.579979,-54.0
2023-12-20 14:18:54.587668,-59.0
2023-12-20 14:18:54.595357,-59.0
2023-12-20 14:18:54.603046,-57.0
2023-12-20 14:18:54.610735,-35.0
2023-12-20 14:18:54.618424,-16.0
2023-12-20 14:18:54.626113,-23.0
2023-12-20 14:18:54.633802,-28.0
2023-12-20 14:18:54.641491,-21.0
2023-12-20 14:18:54.649180,-23.0
2023-12-20 14:18:54.656869,-26.0
2023-12-20 14:18:54.664558,-21.0
2023-12-20 14:18:54.672247,-35.0
2023-12-20 14:18:54.679936,-140.0
2023-12-20 14:18:54.687625,-357.0
2023-12-20 14:18:54.695314,-469.0
2023-12-20 14:18:54.703003,-224.0
2023-12-20 14:18:54.710692,162.0
2023-12-20 14:18:54.718381,302.0
2023-12-20 14:18:54.726070,240.0
2023-12-20 14:18:54.733759,143.0
2023-12-20 14:18:54.741448,26.0
2023-12-20 14:18:54.749137,-59.0
2023-12-20 14:18:54.756825,-73.0
2023-12-20 14:18:54.764514,-64.0
2023-12-20 14:18:54.772203,-78.0
2023-12-20 14:18:54.779892,-90.0
2023-12-20 14:18:54.787581,-83.0
2023-12-20 14:18:54.795270,-83.0
2023-12-20 14:18:54.802959,-104.0
2023-12-20 14:18:54.810648,-123.0
2023-12-20 14:18:54.818337,-143.0
2023-12-20 14:18:54.826026,-164.0
2023-12-20 14:18:54.833715,-159.0
2023-12-20 14:18:54.841404,-143.0
2023-12-20 14:18:54.849093,-147.0
2023-12-20 14:18:54.856782,-157.0
2023-12-20 14:18:54.864471,-166.0
2023-12-20 14:18:54.872160,-176.0
2023-12-20 14:18:54.879849,-166.0
2023-12-20 14:18:54.887538,-150.0
2023-12-20 14:18:54.895227,-147.0
2023-12-20 14:18:54.902916,-145.0
2023-12-20 14:18:54.910605,-133.0
2023-12-20 14:18:54.918294,-119.0
2023-12-20 14:18:54.925983,-107.0
2023-12-20 14:18:54.933672,-92.0
2023-12-20 14:18:54.941361,-78.0
2023-12-20 14:18:54.949050,-57.0
2023-12-20 14:18:54.956739,-35.0
2023-12-20 14:18:54.964428,-23.0
2023-12-20 14:18:54.972117,-23.0
2023-12-20 14:18:54.979806,-26.0
2023-12-20 14:18:54.987495,-16.0
2023-12-20 14:18:54.995184,-9.0
2023-12-20 14:18:55.002873,-14.0
2023-12-20 14:18:55.010562,-14.0
2023-12-20 14:18:55.018251,-14.0
2023-12-20 14:18:55.025940,-16.0
2023-12-20 14:18:55.033629,-14.0
2023-12-20 14:18:55.041318,-9.0
2023-12-20 14:18:55.049007,-16.0
2023-12-20 14:18:55.056696,-23.0
2023-12-20 14:18:55.064385,-19.0
2023-12-20 14:18:55.072074,-16.0
2023-12-20 14:18:55.079763,-19.0
2023-12-20 14:18:55.087452,-16.0
2023-12-20 14:18:55.095141,-14.0
2023-12-20 14:18:55.102830,-16.0
2023-12-20 14:18:55.110519,-19.0
2023-12-20 14:18:55.118208,-23.0
2023-12-20 14:18:55.125897,-28.0
2023-12-20 14:18:55.133586,-26.0
2023-12-20 14:18:55.141275,-21.0
2023-12-20 14:18:55.148964,-23.0
2023-12-20 14:18:55.156653,-21.0
2023-12-20 14:18:55.164342,-19.0
2023-12-20 14:18:55.172031,-26.0
2023-12-20 14:18:55.179720,-30.0
2023-12-20 14:18:55.187409,-26.0
2023-12-20 14:18:55.195098,-33.0
2023-12-20 14:18:55.202787,-50.0
2023-12-20 14:18:55.210476,-57.0
2023-12-20 14:18:55.218165,-52.0
2023-12-20 14:18:55.225854,-42.0
2023-12-20 14:18:55.233543,-33.0
2023-12-20 14:18:55.241232,-23.0
2023-12-20 14:18:55.248921,-14.0
2023-12-20 14:18:55.256609,-9.0
2023-12-20 14:18:55.264298,-11.0
2023-12-20 14:18:55.271987,-23.0
2023-12-20 14:18:55.279676,-30.0
2023-12-20 14:18:55.287365,-28.0
2023-12-20 14:18:55.295054,-66.0
2023-12-20 14:18:55.302743,-200.0
2023-12-20 14:18:55.310432,-419.0
2023-12-20 14:18:55.318121,-500.0
2023-12-20 14:18:55.325810,-238.0
2023-12-20 14:18:55.333499,133.0
2023-12-20 14:18:55.341188,259.0
2023-12-20 14:18:55.348877,207.0
2023-12-20 14:18:55.356566,104.0
2023-12-20 14:18:55.364255,-33.0
2023-12-20 14:18:55.371944,-121.0
2023-12-20 14:18:55.379633,-119.0
2023-12-20 14:18:55.387322,-112.0
2023-12-20 14:18:55.395011,-126.0
2023-12-20 14:18:55.402700,-123.0
2023-12-20 14:18:55.410389,-119.0
2023-12-20 14:18:55.418078,-121.0
2023-12-20 14:18:55.425767,-123.0
2023-12-20 14:18:55.433456,-121.0
2023-12-20 14:18:55.441145,-119.0
2023-12-20 14:18:55.448834,-114.0
2023-12-20 14:18:55.456523,-123.0
2023-12-20 14:18:55.464212,-128.0
2023-12-20 14:18:55.471901,-119.0
2023-12-20 14:18:55.479590,-119.0
2023-12-20 14:18:55.487279,-128.0
2023-12-20 14:18:55.494968,-133.0
2023-12-20 14:18:55.502657,-126.0
2023-12-20 14:18:55.510346,-109.0
2023-12-20 14:18:55.518035,-100.0
2023-12-20 14:18:55.525724,-104.0
2023-12-20 14:18:55.533413,-102.0
2023-12-20 14:18:55.541102,-92.0
2023-12-20 14:18:55.548791,-90.0
2023-12-20 14:18:55.556480,-76.0
2023-12-20 14:18:55.564169,-45.0
2023-12-20 14:18:55.571858,-28.0
2023-12-20 14:18:55.579547,-28.0
2023-12-20 14:18:55.587236,-26.0
2023-12-20 14:18:55.594925,-14.0
2023-12-20 14:18:55.602614,-2.0
2023-12-20 14:18:55.610303,-2.0
2023-12-20 14:18:55.617992,-4.0
2023-12-20 14:18:55.625681,-4.0
2023-12-20 14:18:55.633370,-2.0
2023-12-20 14:18:55.641059,-4.0
2023-12-20 14:18:55.648748,-7.0
2023-12-20 14:18:55.656437,-11.0
2023-12-20 14:18:55.664126,-9.0
2023-12-20 14:18:55.671815,-9.0
2023-12-20 14:18:55.679504,-14.0
2023-12-20 14:18:55.687193,-11.0
2023-12-20 14:18:55.694882,0.0
2023-12-20 14:18:55.702571,-9.0
2023-12-20 14:18:55.710260,-33.0
2023-12-20 14:18:55.717949,-33.0
2023-12-20 14:18:55.725638,-19.0
2023-12-20 14:18:55.733327,-14.0
2023-12-20 14:18:55.741016,-19.0
2023-12-20 14:18:55.748705,-21.0
2023-12-20 14:18:55.756394,-23.0
2023-12-20 14:18:55.764082,-23.0
2023-12-20 14:18:55.771771,-23.0
2023-12-20 14:18:55.779460,-26.0
2023-12-20 14:18:55.787149,-26.0
2023-12-20 14:18:55.794838,-35.0
2023-12-20 14:18:55.802527,-38.0
2023-12-20 14:18:55.810216,-50.0
2023-12-20 14:18:55.817905,-73.0
2023-12-20 14:18:55.825594,-81.0
2023-12-20 14:18:55.833283,-71.0
2023-12-20 14:18:55.840972,-73.0
2023-12-20 14:18:55.848661,-78.0
2023-12-20 14:18:55.856350,-61.0
2023-12-20 14:18:55.864039,-33.0
2023-12-20 14:18:55.871728,-40.0
2023-12-20 14:18:55.879417,-59.0
2023-12-20 14:18:55.887106,-52.0
2023-12-20 14:18:55.894795,-64.0
2023-12-20 14:18:55.902484,-102.0
2023-12-20 14:18:55.910173,-107.0
2023-12-20 14:18:55.917862,-90.0
2023-12-20 14:18:55.925551,-150.0
2023-12-20 14:18:55.933240,-333.0
2023-12-20 14:18:55.940929,-519.0
2023-12-20 14:18:55.948618,-429.0
2023-12-20 14:18:55.956307,-40.0
2023-12-20 14:18:55.963996,226.0
2023-12-20 14:18:55.971685,209.0
2023-12-20 14:18:55.979374,126.0
2023-12-20 14:18:55.987063,33.0
2023-12-20 14:18:55.994752,-83.0
2023-12-20 14:18:56.002441,-131.0
2023-12-20 14:18:56.010130,-112.0
2023-12-20 14:18:56.017819,-104.0
2023-12-20 14:18:56.025508,-116.0
2023-12-20 14:18:56.033197,-121.0
2023-12-20 14:18:56.040886,-128.0
2023-12-20 14:18:56.048575,-135.0
2023-12-20 14:18:56.056264,-128.0
2023-12-20 14:18:56.063953,-114.0
2023-12-20 14:18:56.071642,-121.0
2023-12-20 14:18:56.079331,-133.0
2023-12-20 14:18:56.087020,-133.0
2023-12-20 14:18:56.094709,-131.0
2023-12-20 14:18:56.102398,-131.0
2023-12-20 14:18:56.110087,-123.0
2023-12-20 14:18:56.117776,-123.0
2023-12-20 14:18:56.125465,-135.0
2023-12-20 14:18:56.133154,-133.0
2023-12-20 14:18:56.140843,-119.0
2023-12-20 14:18:56.148532,-107.0
2023-12-20 14:18:56.156221,-95.0
2023-12-20 14:18:56.163910,-85.0
2023-12-20 14:18:56.171599,-90.0
2023-12-20 14:18:56.179288,-85.0
2023-12-20 14:18:56.186977,-61.0
2023-12-20 14:18:56.194666,-42.0
2023-12-20 14:18:56.202355,-33.0
2023-12-20 14:18:56.210044,-19.0
2023-12-20 14:18:56.217733,-11.0
2023-12-20 14:18:56.225422,-7.0
2023-12-20 14:18:56.233111,0.0
2023-12-20 14:18:56.240800,0.0
2023-12-20 14:18:56.248489,2.0
2023-12-20 14:18:56.256178,2.0
2023-12-20 14:18:56.263866,-7.0
2023-12-20 14:18:56.271555,-9.0
2023-12-20 14:18:56.279244,-11.0
2023-12-20 14:18:56.286933,-23.0
2023-12-20 14:18:56.294622,-26.0
2023-12-20 14:18:56.302311,-19.0
2023-12-20 14:18:56.310000,-28.0
2023-12-20 14:18:56.317689,-52.0
2023-12-20 14:18:56.325378,-54.0
2023-12-20 14:18:56.333067,-45.0
2023-12-20 14:18:56.340756,-45.0
2023-12-20 14:18:56.348445,-42.0
2023-12-20 14:18:56.356134,-40.0
2023-12-20 14:18:56.363823,-40.0
2023-12-20 14:18:56.371512,-45.0
2023-12-20 14:18:56.379201,-40.0
2023-12-20 14:18:56.386890,-35.0
2023-12-20 14:18:56.394579,-40.0
2023-12-20 14:18:56.402268,-45.0
2023-12-20 14:18:56.409957,-35.0
2023-12-20 14:18:56.417646,-30.0
2023-12-20 14:18:56.425335,-30.0
2023-12-20 14:18:56.433024,-28.0
2023-12-20 14:18:56.440713,-40.0
2023-12-20 14:18:56.448402,-57.0
2023-12-20 14:18:56.456091,-57.0
2023-12-20 14:18:56.463780,-57.0
2023-12-20 14:18:56.471469,-57.0
2023-12-20 14:18:56.479158,-54.0
2023-12-20 14:18:56.486847,-52.0
2023-12-20 14:18:56.494536,-42.0
2023-12-20 14:18:56.502225,-38.0
2023-12-20 14:18:56.509914,-47.0
2023-12-20 14:18:56.517603,-57.0
2023-12-20 14:18:56.525292,-61.0
2023-12-20 14:18:56.532981,-64.0
2023-12-20 14:18:56.540670,-59.0
2023-12-20 14:18:56.548359,-71.0
2023-12-20 14:18:56.556048,-154.0
2023-12-20 14:18:56.563737,-336.0
2023-12-20 14:18:56.571426,-467.0
2023-12-20 14:18:56.579115,-295.0
2023-12-20 14:18:56.586804,76.0
2023-12-20 14:18:56.594493,264.0
2023-12-20 14:18:56.602182,216.0
2023-12-20 14:18:56.609871,116.0
2023-12-20 14:18:56.617560,11.0
2023-12-20 14:18:56.625249,-83.0
2023-12-20 14:18:56.632938,-109.0
2023-12-20 14:18:56.640627,-90.0
2023-12-20 14:18:56.648316,-95.0
2023-12-20 14:18:56.656005,-107.0
2023-12-20 14:18:56.663694,-121.0
2023-12-20 14:18:56.671383,-143.0
2023-12-20 14:18:56.679072,-145.0
2023-12-20 14:18:56.686761,-131.0
2023-12-20 14:18:56.694450,-128.0
2023-12-20 14:18:56.702139,-126.0
2023-12-20 14:18:56.709828,-133.0
2023-12-20 14:18:56.717517,-150.0
2023-12-20 14:18:56.725206,-143.0
2023-12-20 14:18:56.732895,-133.0
2023-12-20 14:18:56.740584,-133.0
2023-12-20 14:18:56.748273,-131.0
2023-12-20 14:18:56.755962,-131.0
2023-12-20 14:18:56.763651,-138.0
2023-12-20 14:18:56.771339,-143.0
2023-12-20 14:18:56.779028,-135.0
2023-12-20 14:18:56.786717,-121.0
2023-12-20 14:18:56.794406,-109.0
2023-12-20 14:18:56.802095,-104.0
2023-12-20 14:18:56.809784,-92.0
2023-12-20 14:18:56.817473,-95.0
2023-12-20 14:18:56.825162,-109.0
2023-12-20 14:18:56.832851,-95.0
2023-12-20 14:18:56.840540,-59.0
2023-12-20 14:18:56.848229,-47.0
2023-12-20 14:18:56.855918,-50.0
2023-12-20 14:18:56.863607,-40.0
2023-12-20 14:18:56.871296,-30.0
2023-12-20 14:18:56.878985,-33.0
2023-12-20 14:18:56.886674,-42.0
2023-12-20 14:18:56.894363,-47.0
2023-12-20 14:18:56.902052,-40.0
2023-12-20 14:18:56.909741,-42.0
2023-12-20 14:18:56.917430,-52.0
2023-12-20 14:18:56.925119,-47.0
2023-12-20 14:18:56.932808,-42.0
2023-12-20 14:18:56.940497,-52.0
2023-12-20 14:18:56.948186,-52.0
2023-12-20 14:18:56.955875,-50.0
2023-12-20 14:18:56.963564,-54.0
2023-12-20 14:18:56.971253,-54.0
2023-12-20 14:18:56.978942,-59.0
2023-12-20 14:18:56.986631,-64.0
2023-12-20 14:18:56.994320,-52.0
2023-12-20 14:18:57.002009,-47.0
2023-12-20 14:18:57.009698,-50.0
2023-12-20 14:18:57.017387,-59.0
2023-12-20 14:18:57.025076,-73.0
2023-12-20 14:18:57.032765,-76.0
2023-12-20 14:18:57.040454,-66.0
2023-12-20 14:18:57.048143,-61.0
2023-12-20 14:18:57.055832,-66.0
2023-12-20 14:18:57.063521,-83.0
2023-12-20 14:18:57.071210,-109.0
2023-12-20 14:18:57.078899,-128.0
2023-12-20 14:18:57.086588,-116.0
2023-12-20 14:18:57.094277,-102.0
2023-12-20 14:18:57.101966,-92.0
2023-12-20 14:18:57.109655,-76.0
2023-12-20 14:18:57.117344,-78.0
2023-12-20 14:18:57.125033,-90.0
2023-12-20 14:18:57.132722,-85.0
2023-12-20 14:18:57.140411,-83.0
2023-12-20 14:18:57.148100,-90.0
2023-12-20 14:18:57.155789,-97.0
2023-12-20 14:18:57.163478,-119.0
2023-12-20 14:18:57.171167,-212.0
2023-12-20 14:18:57.178856,-405.0
2023-12-20 14:18:57.186545,-486.0
2023-12-20 14:18:57.194234,-205.0
2023-12-20 14:18:57.201923,176.0
2023-12-20 14:18:57.209612,271.0
2023-12-20 14:18:57.217301,212.0
2023-12-20 14:18:57.224990,147.0
2023-12-20 14:18:57.232679,33.0
2023-12-20 14:18:57.240368,-78.0
2023-12-20 14:18:57.248057,-109.0
2023-12-20 14:18:57.255746,-100.0
2023-12-20 14:18:57.263435,-109.0
2023-12-20 14:18:57.271123,-121.0
2023-12-20 14:18:57.278812,-116.0
2023-12-20 14:18:57.286501,-114.0
2023-12-20 14:18:57.294190,-121.0
2023-12-20 14:18:57.301879,-119.0
2023-12-20 14:18:57.309568,-112.0
2023-12-20 14:18:57.317257,-128.0
2023-12-20 14:18:57.324946,-159.0
2023-12-20 14:18:57.332635,-171.0
2023-12-20 14:18:57.340324,-162.0
2023-12-20 14:18:57.348013,-152.0
2023-12-20 14:18:57.355702,-152.0
2023-12-20 14:18:57.363391,-154.0
2023-12-20 14:18:57.371080,-147.0
2023-12-20 14:18:57.378769,-135.0
2023-12-20 14:18:57.386458,-128.0
2023-12-20 14:18:57.394147,-121.0
2023-12-20 14:18:57.401836,-114.0
2023-12-20 14:18:57.409525,-107.0
2023-12-20 14:18:57.417214,-92.0
2023-12-20 14:18:57.424903,-78.0
2023-12-20 14:18:57.432592,-69.0
2023-12-20 14:18:57.440281,-59.0
2023-12-20 14:18:57.447970,-38.0
2023-12-20 14:18:57.455659,-19.0
2023-12-20 14:18:57.463348,-19.0
2023-12-20 14:18:57.471037,-14.0
2023-12-20 14:18:57.478726,-4.0
2023-12-20 14:18:57.486415,-9.0
2023-12-20 14:18:57.494104,-16.0
2023-12-20 14:18:57.501793,-21.0
2023-12-20 14:18:57.509482,-30.0
2023-12-20 14:18:57.517171,-33.0
2023-12-20 14:18:57.524860,-30.0
2023-12-20 14:18:57.532549,-30.0
2023-12-20 14:18:57.540238,-26.0
2023-12-20 14:18:57.547927,-23.0
2023-12-20 14:18:57.555616,-23.0
2023-12-20 14:18:57.563305,-38.0
2023-12-20 14:18:57.570994,-47.0
2023-12-20 14:18:57.578683,-35.0
2023-12-20 14:18:57.586372,-33.0
2023-12-20 14:18:57.594061,-35.0
2023-12-20 14:18:57.601750,-30.0
2023-12-20 14:18:57.609439,-47.0
2023-12-20 14:18:57.617128,-66.0
2023-12-20 14:18:57.624817,-57.0
2023-12-20 14:18:57.632506,-47.0
2023-12-20 14:18:57.640195,-54.0
2023-12-20 14:18:57.647884,-54.0
2023-12-20 14:18:57.655573,-47.0
2023-12-20 14:18:57.663262,-50.0
2023-12-20 14:18:57.670951,-52.0
2023-12-20 14:18:57.678640,-61.0
2023-12-20 14:18:57.686329,-69.0
2023-12-20 14:18:57.694018,-73.0
2023-12-20 14:18:57.701707,-76.0
2023-12-20 14:18:57.709396,-71.0
2023-12-20 14:18:57.717085,-54.0
2023-12-20 14:18:57.724774,-40.0
2023-12-20 14:18:57.732463,-40.0
2023-12-20 14:18:57.740152,-52.0
2023-12-20 14:18:57.747841,-71.0
2023-12-20 14:18:57.755530,-78.0
2023-12-20 14:18:57.763219,-73.0
2023-12-20 14:18:57.770907,-66.0
2023-12-20 14:18:57.778596,-83.0
2023-12-20 14:18:57.786285,-176.0
2023-12-20 14:18:57.793974,-367.0
2023-12-20 14:18:57.801663,-495.0
2023-12-20 14:18:57.809352,-286.0
2023-12-20 14:18:57.817041,126.0
2023-12-20 14:18:57.824730,286.0
2023-12-20 14:18:57.832419,207.0
2023-12-20 14:18:57.840108,131.0
2023-12-20 14:18:57.847797,45.0
2023-12-20 14:18:57.855486,-66.0
2023-12-20 14:18:57.863175,-109.0
2023-12-20 14:18:57.870864,-92.0
2023-12-20 14:18:57.878553,-97.0
2023-12-20 14:18:57.886242,-112.0
2023-12-20 14:18:57.893931,-102.0
2023-12-20 14:18:57.901620,-88.0
2023-12-20 14:18:57.909309,-85.0
2023-12-20 14:18:57.916998,-95.0
2023-12-20 14:18:57.924687,-114.0
2023-12-20 14:18:57.932376,-116.0
2023-12-20 14:18:57.940065,-104.0
2023-12-20 14:18:57.947754,-102.0
2023-12-20 14:18:57.955443,-107.0
2023-12-20 14:18:57.963132,-112.0
2023-12-20 14:18:57.970821,-112.0
2023-12-20 14:18:57.978510,-104.0
2023-12-20 14:18:57.986199,-107.0
2023-12-20 14:18:57.993888,-112.0
2023-12-20 14:18:58.001577,-104.0
2023-12-20 14:18:58.009266,-97.0
2023-12-20 14:18:58.016955,-97.0
2023-12-20 14:18:58.024644,-85.0
2023-12-20 14:18:58.032333,-71.0
2023-12-20 14:18:58.040022,-59.0
2023-12-20 14:18:58.047711,-42.0
2023-12-20 14:18:58.055400,-26.0
2023-12-20 14:18:58.063089,-16.0
2023-12-20 14:18:58.070778,-4.0
2023-12-20 14:18:58.078467,0.0
2023-12-20 14:18:58.086156,4.0
2023-12-20 14:18:58.093845,11.0
2023-12-20 14:18:58.101534,7.0
2023-12-20 14:18:58.109223,4.0
2023-12-20 14:18:58.116912,7.0
2023-12-20 14:18:58.124601,4.0
2023-12-20 14:18:58.132290,7.0
2023-12-20 14:18:58.139979,14.0
2023-12-20 14:18:58.147668,11.0
2023-12-20 14:18:58.155357,-7.0
2023-12-20 14:18:58.163046,-14.0
2023-12-20 14:18:58.170735,-9.0
2023-12-20 14:18:58.178424,-11.0
2023-12-20 14:18:58.186113,-16.0
2023-12-20 14:18:58.193802,-30.0
2023-12-20 14:18:58.201491,-50.0
2023-12-20 14:18:58.209180,-45.0
2023-12-20 14:18:58.216869,-33.0
2023-12-20 14:18:58.224558,-33.0
2023-12-20 14:18:58.232247,-30.0
2023-12-20 14:18:58.239936,-30.0
2023-12-20 14:18:58.247625,-45.0
2023-12-20 14:18:58.255314,-52.0
2023-12-20 14:18:58.263003,-47.0
2023-12-20 14:18:58.270692,-35.0
2023-12-20 14:18:58.278380,-35.0
2023-12-20 14:18:58.286069,-50.0
2023-12-20 14:18:58.293758,-52.0
2023-12-20 14:18:58.301447,-50.0
2023-12-20 14:18:58.309136,-64.0
2023-12-20 14:18:58.316825,-73.0
2023-12-20 14:18:58.324514,-64.0
2023-12-20 14:18:58.332203,-59.0
2023-12-20 14:18:58.339892,-61.0
2023-12-20 14:18:58.347581,-59.0
2023-12-20 14:18:58.355270,-59.0
2023-12-20 14:18:58.362959,-64.0
2023-12-20 14:18:58.370648,-66.0
2023-12-20 14:18:58.378337,-66.0
2023-12-20 14:18:58.386026,-61.0
2023-12-20 14:18:58.393715,-78.0
2023-12-20 14:18:58.401404,-193.0
2023-12-20 14:18:58.409093,-402.0
2023-12-20 14:18:58.416782,-460.0
2023-12-20 14:18:58.424471,-169.0
2023-12-20 14:18:58.432160,190.0
2023-12-20 14:18:58.439849,283.0
2023-12-20 14:18:58.447538,219.0
2023-12-20 14:18:58.455227,140.0
2023-12-20 14:18:58.462916,21.0
2023-12-20 14:18:58.470605,-71.0
2023-12-20 14:18:58.478294,-83.0
2023-12-20 14:18:58.485983,-73.0
2023-12-20 14:18:58.493672,-81.0
2023-12-20 14:18:58.501361,-88.0
2023-12-20 14:18:58.509050,-92.0
2023-12-20 14:18:58.516739,-100.0
2023-12-20 14:18:58.524428,-102.0
2023-12-20 14:18:58.532117,-95.0
2023-12-20 14:18:58.539806,-90.0
2023-12-20 14:18:58.547495,-90.0
2023-12-20 14:18:58.555184,-97.0
2023-12-20 14:18:58.562873,-112.0
2023-12-20 14:18:58.570562,-114.0
2023-12-20 14:18:58.578251,-104.0
2023-12-20 14:18:58.585940,-107.0
2023-12-20 14:18:58.593629,-102.0
2023-12-20 14:18:58.601318,-95.0
2023-12-20 14:18:58.609007,-109.0
2023-12-20 14:18:58.616696,-109.0
2023-12-20 14:18:58.624385,-85.0
2023-12-20 14:18:58.632074,-69.0
2023-12-20 14:18:58.639763,-71.0
2023-12-20 14:18:58.647452,-66.0
2023-12-20 14:18:58.655141,-42.0
2023-12-20 14:18:58.662830,-23.0
2023-12-20 14:18:58.670519,-16.0
2023-12-20 14:18:58.678208,0.0
2023-12-20 14:18:58.685897,16.0
2023-12-20 14:18:58.693586,16.0
2023-12-20 14:18:58.701275,7.0
2023-12-20 14:18:58.708964,7.0
2023-12-20 14:18:58.716653,16.0
2023-12-20 14:18:58.724342,23.0
2023-12-20 14:18:58.732031,21.0
2023-12-20 14:18:58.739720,7.0
2023-12-20 14:18:58.747409,-2.0
2023-12-20 14:18:58.755098,-2.0
2023-12-20 14:18:58.762787,2.0
2023-12-20 14:18:58.770476,0.0
2023-12-20 14:18:58.778164,-21.0
2023-12-20 14:18:58.785853,-50.0
2023-12-20 14:18:58.793542,-50.0
2023-12-20 14:18:58.801231,-40.0
2023-12-20 14:18:58.808920,-40.0
2023-12-20 14:18:58.816609,-40.0
2023-12-20 14:18:58.824298,-59.0
2023-12-20 14:18:58.831987,-88.0
2023-12-20 14:18:58.839676,-90.0
2023-12-20 14:18:58.847365,-73.0
2023-12-20 14:18:58.855054,-66.0
2023-12-20 14:18:58.862743,-73.0
2023-12-20 14:18:58.870432,-81.0
2023-12-20 14:18:58.878121,-69.0
2023-12-20 14:18:58.885810,-59.0
2023-12-20 14:18:58.893499,-59.0
2023-12-20 14:18:58.901188,-57.0
2023-12-20 14:18:58.908877,-73.0
2023-12-20 14:18:58.916566,-112.0
2023-12-20 14:18:58.924255,-119.0
2023-12-20 14:18:58.931944,-97.0
2023-12-20 14:18:58.939633,-100.0
2023-12-20 14:18:58.947322,-97.0
2023-12-20 14:18:58.955011,-78.0
2023-12-20 14:18:58.962700,-100.0
2023-12-20 14:18:58.970389,-116.0
2023-12-20 14:18:58.978078,-102.0
2023-12-20 14:18:58.985767,-102.0
2023-12-20 14:18:58.993456,-114.0
2023-12-20 14:18:59.001145,-116.0
2023-12-20 14:18:59.008834,-116.0
2023-12-20 14:18:59.016523,-157.0
2023-12-20 14:18:59.024212,-307.0
2023-12-20 14:18:59.031901,-474.0
