time,ECG
2023-08-12 14:27:41.190959,-178.0
2023-08-12 14:27:41.198649,-116.0
2023-08-12 14:27:41.206339,-80.0
2023-08-12 14:27:41.214029,-104.0
2023-08-12 14:27:41.221719,-95.0
2023-08-12 14:27:41.229409,-71.0
2023-08-12 14:27:41.237099,-73.0
2023-08-12 14:27:41.244789,-73.0
2023-08-12 14:27:41.252479,-59.0
2023-08-12 14:27:41.260169,-52.0
2023-08-12 14:27:41.267859,-52.0
2023-08-12 14:27:41.275549,-40.0
2023-08-12 14:27:41.283239,-28.0
2023-08-12 14:27:41.290929,-19.0
2023-08-12 14:27:41.298619,-9.0
2023-08-12 14:27:41.306309,4.0
2023-08-12 14:27:41.313999,11.0
2023-08-12 14:27:41.321689,21.0
2023-08-12 14:27:41.329379,35.0
2023-08-12 14:27:41.337069,49.0
2023-08-12 14:27:41.344759,59.0
2023-08-12 14:27:41.352449,73.0
2023-08-12 14:27:41.360139,80.0
2023-08-12 14:27:41.367829,78.0
2023-08-12 14:27:41.375519,73.0
2023-08-12 14:27:41.383209,64.0
2023-08-12 14:27:41.390899,40.0
2023-08-12 14:27:41.398589,11.0
2023-08-12 14:27:41.406279,-21.0
2023-08-12 14:27:41.413969,-57.0
2023-08-12 14:27:41.421658,-90.0
2023-08-12 14:27:41.429348,-114.0
2023-08-12 14:27:41.437038,-128.0
2023-08-12 14:27:41.444728,-138.0
2023-08-12 14:27:41.452418,-147.0
2023-08-12 14:27:41.460108,-152.0
2023-08-12 14:27:41.467798,-145.0
2023-08-12 14:27:41.475488,-135.0
2023-08-12 14:27:41.483178,-133.0
2023-08-12 14:27:41.490868,-130.0
2023-08-12 14:27:41.498558,-130.0
2023-08-12 14:27:41.506248,-126.0
2023-08-12 14:27:41.513938,-116.0
2023-08-12 14:27:41.521628,-111.0
2023-08-12 14:27:41.529318,-111.0
2023-08-12 14:27:41.537008,-104.0
2023-08-12 14:27:41.544698,-99.0
2023-08-12 14:27:41.552388,-97.0
2023-08-12 14:27:41.560078,-95.0
2023-08-12 14:27:41.567768,-95.0
2023-08-12 14:27:41.575458,-97.0
2023-08-12 14:27:41.583148,-95.0
2023-08-12 14:27:41.590838,-92.0
2023-08-12 14:27:41.598528,-90.0
2023-08-12 14:27:41.606218,-88.0
2023-08-12 14:27:41.613908,-88.0
2023-08-12 14:27:41.621598,-88.0
2023-08-12 14:27:41.629288,-88.0
2023-08-12 14:27:41.636978,-88.0
2023-08-12 14:27:41.644667,-88.0
2023-08-12 14:27:41.652357,-88.0
2023-08-12 14:27:41.660047,-88.0
2023-08-12 14:27:41.667737,-88.0
2023-08-12 14:27:41.675427,-88.0
2023-08-12 14:27:41.683117,-92.0
2023-08-12 14:27:41.690807,-92.0
2023-08-12 14:27:41.698497,-88.0
2023-08-12 14:27:41.706187,-88.0
2023-08-12 14:27:41.713877,-88.0
2023-08-12 14:27:41.721567,-88.0
2023-08-12 14:27:41.729257,-83.0
2023-08-12 14:27:41.736947,-80.0
2023-08-12 14:27:41.744637,-78.0
2023-08-12 14:27:41.752327,-78.0
2023-08-12 14:27:41.760017,-76.0
2023-08-12 14:27:41.767707,-76.0
2023-08-12 14:27:41.775397,-76.0
2023-08-12 14:27:41.783087,-76.0
2023-08-12 14:27:41.790777,-80.0
2023-08-12 14:27:41.798467,-80.0
2023-08-12 14:27:41.806157,-80.0
2023-08-12 14:27:41.813847,-83.0
2023-08-12 14:27:41.821537,-83.0
2023-08-12 14:27:41.829227,-85.0
2023-08-12 14:27:41.836917,-83.0
2023-08-12 14:27:41.844607,-78.0
2023-08-12 14:27:41.852297,-80.0
2023-08-12 14:27:41.859987,-83.0
2023-08-12 14:27:41.867676,-80.0
2023-08-12 14:27:41.875366,-78.0
2023-08-12 14:27:41.883056,-76.0
2023-08-12 14:27:41.890746,-73.0
2023-08-12 14:27:41.898436,-76.0
2023-08-12 14:27:41.906126,-76.0
2023-08-12 14:27:41.913816,-71.0
2023-08-12 14:27:41.921506,-71.0
2023-08-12 14:27:41.929196,-73.0
2023-08-12 14:27:41.936886,-73.0
2023-08-12 14:27:41.944576,-73.0
2023-08-12 14:27:41.952266,-71.0
2023-08-12 14:27:41.959956,-69.0
2023-08-12 14:27:41.967646,-69.0
2023-08-12 14:27:41.975336,-66.0
2023-08-12 14:27:41.983026,-69.0
2023-08-12 14:27:41.990716,-78.0
2023-08-12 14:27:41.998406,-83.0
2023-08-12 14:27:42.006096,-78.0
2023-08-12 14:27:42.013786,-69.0
2023-08-12 14:27:42.021476,-64.0
2023-08-12 14:27:42.029166,-64.0
2023-08-12 14:27:42.036856,-64.0
2023-08-12 14:27:42.044546,-61.0
2023-08-12 14:27:42.052236,-49.0
2023-08-12 14:27:42.059926,-42.0
2023-08-12 14:27:42.067616,-54.0
2023-08-12 14:27:42.075306,-64.0
2023-08-12 14:27:42.082996,-66.0
2023-08-12 14:27:42.090685,-71.0
2023-08-12 14:27:42.098375,-80.0
2023-08-12 14:27:42.106065,-88.0
2023-08-12 14:27:42.113755,-92.0
2023-08-12 14:27:42.121445,-92.0
2023-08-12 14:27:42.129135,-92.0
2023-08-12 14:27:42.136825,-88.0
2023-08-12 14:27:42.144515,-85.0
2023-08-12 14:27:42.152205,-71.0
2023-08-12 14:27:42.159895,14.0
2023-08-12 14:27:42.167585,226.0
2023-08-12 14:27:42.175275,461.0
2023-08-12 14:27:42.182965,480.0
2023-08-12 14:27:42.190655,188.0
2023-08-12 14:27:42.198345,-133.0
2023-08-12 14:27:42.206035,-202.0
2023-08-12 14:27:42.213725,-164.0
2023-08-12 14:27:42.221415,-171.0
2023-08-12 14:27:42.229105,-138.0
2023-08-12 14:27:42.236795,-95.0
2023-08-12 14:27:42.244485,-104.0
2023-08-12 14:27:42.252175,-107.0
2023-08-12 14:27:42.259865,-90.0
2023-08-12 14:27:42.267555,-88.0
2023-08-12 14:27:42.275245,-85.0
2023-08-12 14:27:42.282935,-71.0
2023-08-12 14:27:42.290625,-61.0
2023-08-12 14:27:42.298315,-57.0
2023-08-12 14:27:42.306005,-47.0
2023-08-12 14:27:42.313695,-42.0
2023-08-12 14:27:42.321384,-40.0
2023-08-12 14:27:42.329074,-30.0
2023-08-12 14:27:42.336764,-16.0
2023-08-12 14:27:42.344454,-7.0
2023-08-12 14:27:42.352144,2.0
2023-08-12 14:27:42.359834,16.0
2023-08-12 14:27:42.367524,35.0
2023-08-12 14:27:42.375214,47.0
2023-08-12 14:27:42.382904,57.0
2023-08-12 14:27:42.390594,66.0
2023-08-12 14:27:42.398284,69.0
2023-08-12 14:27:42.405974,64.0
2023-08-12 14:27:42.413664,57.0
2023-08-12 14:27:42.421354,42.0
2023-08-12 14:27:42.429044,16.0
2023-08-12 14:27:42.436734,-16.0
2023-08-12 14:27:42.444424,-52.0
2023-08-12 14:27:42.452114,-88.0
2023-08-12 14:27:42.459804,-114.0
2023-08-12 14:27:42.467494,-128.0
2023-08-12 14:27:42.475184,-138.0
2023-08-12 14:27:42.482874,-142.0
2023-08-12 14:27:42.490564,-142.0
2023-08-12 14:27:42.498254,-142.0
2023-08-12 14:27:42.505944,-138.0
2023-08-12 14:27:42.513634,-133.0
2023-08-12 14:27:42.521324,-128.0
2023-08-12 14:27:42.529014,-126.0
2023-08-12 14:27:42.536704,-123.0
2023-08-12 14:27:42.544393,-121.0
2023-08-12 14:27:42.552083,-114.0
2023-08-12 14:27:42.559773,-111.0
2023-08-12 14:27:42.567463,-114.0
2023-08-12 14:27:42.575153,-119.0
2023-08-12 14:27:42.582843,-123.0
2023-08-12 14:27:42.590533,-121.0
2023-08-12 14:27:42.598223,-111.0
2023-08-12 14:27:42.605913,-109.0
2023-08-12 14:27:42.613603,-109.0
2023-08-12 14:27:42.621293,-107.0
2023-08-12 14:27:42.628983,-104.0
2023-08-12 14:27:42.636673,-102.0
2023-08-12 14:27:42.644363,-99.0
2023-08-12 14:27:42.652053,-95.0
2023-08-12 14:27:42.659743,-95.0
2023-08-12 14:27:42.667433,-97.0
2023-08-12 14:27:42.675123,-97.0
2023-08-12 14:27:42.682813,-99.0
2023-08-12 14:27:42.690503,-99.0
2023-08-12 14:27:42.698193,-99.0
2023-08-12 14:27:42.705883,-99.0
2023-08-12 14:27:42.713573,-99.0
2023-08-12 14:27:42.721263,-97.0
2023-08-12 14:27:42.728953,-92.0
2023-08-12 14:27:42.736643,-90.0
2023-08-12 14:27:42.744333,-88.0
2023-08-12 14:27:42.752023,-85.0
2023-08-12 14:27:42.759713,-85.0
2023-08-12 14:27:42.767402,-80.0
2023-08-12 14:27:42.775092,-80.0
2023-08-12 14:27:42.782782,-80.0
2023-08-12 14:27:42.790472,-78.0
2023-08-12 14:27:42.798162,-71.0
2023-08-12 14:27:42.805852,-73.0
2023-08-12 14:27:42.813542,-76.0
2023-08-12 14:27:42.821232,-73.0
2023-08-12 14:27:42.828922,-66.0
2023-08-12 14:27:42.836612,-64.0
2023-08-12 14:27:42.844302,-66.0
2023-08-12 14:27:42.851992,-69.0
2023-08-12 14:27:42.859682,-64.0
2023-08-12 14:27:42.867372,-57.0
2023-08-12 14:27:42.875062,-54.0
2023-08-12 14:27:42.882752,-52.0
2023-08-12 14:27:42.890442,-52.0
2023-08-12 14:27:42.898132,-52.0
2023-08-12 14:27:42.905822,-54.0
2023-08-12 14:27:42.913512,-52.0
2023-08-12 14:27:42.921202,-47.0
2023-08-12 14:27:42.928892,-47.0
2023-08-12 14:27:42.936582,-49.0
2023-08-12 14:27:42.944272,-47.0
2023-08-12 14:27:42.951962,-42.0
2023-08-12 14:27:42.959652,-42.0
2023-08-12 14:27:42.967342,-42.0
2023-08-12 14:27:42.975032,-40.0
2023-08-12 14:27:42.982722,-40.0
2023-08-12 14:27:42.990411,-40.0
2023-08-12 14:27:42.998101,-38.0
2023-08-12 14:27:43.005791,-40.0
2023-08-12 14:27:43.013481,-35.0
2023-08-12 14:27:43.021171,-26.0
2023-08-12 14:27:43.028861,-19.0
2023-08-12 14:27:43.036551,-21.0
2023-08-12 14:27:43.044241,-14.0
2023-08-12 14:27:43.051931,-7.0
2023-08-12 14:27:43.059621,-7.0
2023-08-12 14:27:43.067311,-4.0
2023-08-12 14:27:43.075001,-9.0
2023-08-12 14:27:43.082691,-14.0
2023-08-12 14:27:43.090381,-16.0
2023-08-12 14:27:43.098071,-26.0
2023-08-12 14:27:43.105761,-40.0
2023-08-12 14:27:43.113451,-47.0
2023-08-12 14:27:43.121141,-49.0
2023-08-12 14:27:43.128831,-45.0
2023-08-12 14:27:43.136521,-40.0
2023-08-12 14:27:43.144211,-45.0
2023-08-12 14:27:43.151901,-52.0
2023-08-12 14:27:43.159591,-35.0
2023-08-12 14:27:43.167281,73.0
2023-08-12 14:27:43.174971,307.0
2023-08-12 14:27:43.182661,511.0
2023-08-12 14:27:43.190351,449.0
2023-08-12 14:27:43.198041,116.0
2023-08-12 14:27:43.205731,-147.0
2023-08-12 14:27:43.213421,-166.0
2023-08-12 14:27:43.221110,-138.0
2023-08-12 14:27:43.228800,-138.0
2023-08-12 14:27:43.236490,-97.0
2023-08-12 14:27:43.244180,-76.0
2023-08-12 14:27:43.251870,-90.0
2023-08-12 14:27:43.259560,-83.0
2023-08-12 14:27:43.267250,-64.0
2023-08-12 14:27:43.274940,-64.0
2023-08-12 14:27:43.282630,-61.0
2023-08-12 14:27:43.290320,-52.0
2023-08-12 14:27:43.298010,-45.0
2023-08-12 14:27:43.305700,-40.0
2023-08-12 14:27:43.313390,-30.0
2023-08-12 14:27:43.321080,-23.0
2023-08-12 14:27:43.328770,-19.0
2023-08-12 14:27:43.336460,-9.0
2023-08-12 14:27:43.344150,4.0
2023-08-12 14:27:43.351840,16.0
2023-08-12 14:27:43.359530,30.0
2023-08-12 14:27:43.367220,45.0
2023-08-12 14:27:43.374910,61.0
2023-08-12 14:27:43.382600,73.0
2023-08-12 14:27:43.390290,78.0
2023-08-12 14:27:43.397980,83.0
2023-08-12 14:27:43.405670,88.0
2023-08-12 14:27:43.413360,80.0
2023-08-12 14:27:43.421050,64.0
2023-08-12 14:27:43.428740,47.0
2023-08-12 14:27:43.436430,21.0
2023-08-12 14:27:43.444119,-14.0
2023-08-12 14:27:43.451809,-49.0
2023-08-12 14:27:43.459499,-80.0
2023-08-12 14:27:43.467189,-104.0
2023-08-12 14:27:43.474879,-121.0
2023-08-12 14:27:43.482569,-133.0
2023-08-12 14:27:43.490259,-135.0
2023-08-12 14:27:43.497949,-130.0
2023-08-12 14:27:43.505639,-128.0
2023-08-12 14:27:43.513329,-126.0
2023-08-12 14:27:43.521019,-126.0
2023-08-12 14:27:43.528709,-123.0
2023-08-12 14:27:43.536399,-116.0
2023-08-12 14:27:43.544089,-114.0
2023-08-12 14:27:43.551779,-116.0
2023-08-12 14:27:43.559469,-114.0
2023-08-12 14:27:43.567159,-107.0
2023-08-12 14:27:43.574849,-107.0
2023-08-12 14:27:43.582539,-102.0
2023-08-12 14:27:43.590229,-97.0
2023-08-12 14:27:43.597919,-97.0
2023-08-12 14:27:43.605609,-97.0
2023-08-12 14:27:43.613299,-92.0
2023-08-12 14:27:43.620989,-88.0
2023-08-12 14:27:43.628679,-88.0
2023-08-12 14:27:43.636369,-90.0
2023-08-12 14:27:43.644059,-88.0
2023-08-12 14:27:43.651749,-85.0
2023-08-12 14:27:43.659439,-88.0
2023-08-12 14:27:43.667128,-90.0
2023-08-12 14:27:43.674818,-88.0
2023-08-12 14:27:43.682508,-80.0
2023-08-12 14:27:43.690198,-83.0
2023-08-12 14:27:43.697888,-90.0
2023-08-12 14:27:43.705578,-95.0
2023-08-12 14:27:43.713268,-92.0
2023-08-12 14:27:43.720958,-88.0
2023-08-12 14:27:43.728648,-88.0
2023-08-12 14:27:43.736338,-88.0
2023-08-12 14:27:43.744028,-95.0
2023-08-12 14:27:43.751718,-102.0
2023-08-12 14:27:43.759408,-97.0
2023-08-12 14:27:43.767098,-92.0
2023-08-12 14:27:43.774788,-90.0
2023-08-12 14:27:43.782478,-95.0
2023-08-12 14:27:43.790168,-97.0
2023-08-12 14:27:43.797858,-99.0
2023-08-12 14:27:43.805548,-99.0
2023-08-12 14:27:43.813238,-92.0
2023-08-12 14:27:43.820928,-85.0
2023-08-12 14:27:43.828618,-85.0
2023-08-12 14:27:43.836308,-92.0
2023-08-12 14:27:43.843998,-95.0
2023-08-12 14:27:43.851688,-92.0
2023-08-12 14:27:43.859378,-85.0
2023-08-12 14:27:43.867068,-83.0
2023-08-12 14:27:43.874758,-80.0
2023-08-12 14:27:43.882448,-85.0
2023-08-12 14:27:43.890137,-88.0
2023-08-12 14:27:43.897827,-83.0
2023-08-12 14:27:43.905517,-80.0
2023-08-12 14:27:43.913207,-83.0
2023-08-12 14:27:43.920897,-85.0
2023-08-12 14:27:43.928587,-83.0
2023-08-12 14:27:43.936277,-76.0
2023-08-12 14:27:43.943967,-71.0
2023-08-12 14:27:43.951657,-66.0
2023-08-12 14:27:43.959347,-54.0
2023-08-12 14:27:43.967037,-45.0
2023-08-12 14:27:43.974727,-42.0
2023-08-12 14:27:43.982417,-40.0
2023-08-12 14:27:43.990107,-35.0
2023-08-12 14:27:43.997797,-38.0
2023-08-12 14:27:44.005487,-40.0
2023-08-12 14:27:44.013177,-49.0
2023-08-12 14:27:44.020867,-71.0
2023-08-12 14:27:44.028557,-83.0
2023-08-12 14:27:44.036247,-88.0
2023-08-12 14:27:44.043937,-90.0
2023-08-12 14:27:44.051627,-83.0
2023-08-12 14:27:44.059317,-78.0
2023-08-12 14:27:44.067007,-85.0
2023-08-12 14:27:44.074697,-88.0
2023-08-12 14:27:44.082387,-59.0
2023-08-12 14:27:44.090077,61.0
2023-08-12 14:27:44.097767,311.0
2023-08-12 14:27:44.105457,516.0
2023-08-12 14:27:44.113147,404.0
2023-08-12 14:27:44.120836,19.0
2023-08-12 14:27:44.128526,-214.0
2023-08-12 14:27:44.136216,-178.0
2023-08-12 14:27:44.143906,-157.0
2023-08-12 14:27:44.151596,-176.0
2023-08-12 14:27:44.159286,-116.0
2023-08-12 14:27:44.166976,-80.0
2023-08-12 14:27:44.174666,-104.0
2023-08-12 14:27:44.182356,-99.0
2023-08-12 14:27:44.190046,-78.0
2023-08-12 14:27:44.197736,-80.0
2023-08-12 14:27:44.205426,-85.0
2023-08-12 14:27:44.213116,-83.0
2023-08-12 14:27:44.220806,-76.0
2023-08-12 14:27:44.228496,-66.0
2023-08-12 14:27:44.236186,-54.0
2023-08-12 14:27:44.243876,-47.0
2023-08-12 14:27:44.251566,-40.0
2023-08-12 14:27:44.259256,-30.0
2023-08-12 14:27:44.266946,-16.0
2023-08-12 14:27:44.274636,-4.0
2023-08-12 14:27:44.282326,4.0
2023-08-12 14:27:44.290016,19.0
2023-08-12 14:27:44.297706,38.0
2023-08-12 14:27:44.305396,54.0
2023-08-12 14:27:44.313086,66.0
2023-08-12 14:27:44.320776,76.0
2023-08-12 14:27:44.328466,76.0
2023-08-12 14:27:44.336156,64.0
2023-08-12 14:27:44.343845,45.0
2023-08-12 14:27:44.351535,26.0
2023-08-12 14:27:44.359225,-4.0
2023-08-12 14:27:44.366915,-45.0
2023-08-12 14:27:44.374605,-88.0
2023-08-12 14:27:44.382295,-130.0
2023-08-12 14:27:44.389985,-152.0
2023-08-12 14:27:44.397675,-161.0
2023-08-12 14:27:44.405365,-169.0
2023-08-12 14:27:44.413055,-173.0
2023-08-12 14:27:44.420745,-173.0
2023-08-12 14:27:44.428435,-173.0
2023-08-12 14:27:44.436125,-166.0
2023-08-12 14:27:44.443815,-154.0
2023-08-12 14:27:44.451505,-147.0
2023-08-12 14:27:44.459195,-149.0
2023-08-12 14:27:44.466885,-149.0
2023-08-12 14:27:44.474575,-142.0
2023-08-12 14:27:44.482265,-133.0
2023-08-12 14:27:44.489955,-126.0
2023-08-12 14:27:44.497645,-121.0
2023-08-12 14:27:44.505335,-116.0
2023-08-12 14:27:44.513025,-114.0
2023-08-12 14:27:44.520715,-111.0
2023-08-12 14:27:44.528405,-111.0
2023-08-12 14:27:44.536095,-109.0
2023-08-12 14:27:44.543785,-104.0
2023-08-12 14:27:44.551475,-97.0
2023-08-12 14:27:44.559165,-102.0
2023-08-12 14:27:44.566854,-104.0
2023-08-12 14:27:44.574544,-102.0
2023-08-12 14:27:44.582234,-97.0
2023-08-12 14:27:44.589924,-90.0
2023-08-12 14:27:44.597614,-90.0
2023-08-12 14:27:44.605304,-92.0
2023-08-12 14:27:44.612994,-88.0
2023-08-12 14:27:44.620684,-88.0
2023-08-12 14:27:44.628374,-90.0
2023-08-12 14:27:44.636064,-90.0
2023-08-12 14:27:44.643754,-88.0
2023-08-12 14:27:44.651444,-88.0
2023-08-12 14:27:44.659134,-83.0
2023-08-12 14:27:44.666824,-78.0
2023-08-12 14:27:44.674514,-78.0
2023-08-12 14:27:44.682204,-78.0
2023-08-12 14:27:44.689894,-78.0
2023-08-12 14:27:44.697584,-73.0
2023-08-12 14:27:44.705274,-73.0
2023-08-12 14:27:44.712964,-80.0
2023-08-12 14:27:44.720654,-83.0
2023-08-12 14:27:44.728344,-78.0
2023-08-12 14:27:44.736034,-76.0
2023-08-12 14:27:44.743724,-76.0
2023-08-12 14:27:44.751414,-73.0
2023-08-12 14:27:44.759104,-73.0
2023-08-12 14:27:44.766794,-76.0
2023-08-12 14:27:44.774484,-78.0
2023-08-12 14:27:44.782174,-78.0
2023-08-12 14:27:44.789863,-76.0
2023-08-12 14:27:44.797553,-71.0
2023-08-12 14:27:44.805243,-61.0
2023-08-12 14:27:44.812933,-59.0
2023-08-12 14:27:44.820623,-57.0
2023-08-12 14:27:44.828313,-54.0
2023-08-12 14:27:44.836003,-47.0
2023-08-12 14:27:44.843693,-35.0
2023-08-12 14:27:44.851383,-45.0
2023-08-12 14:27:44.859073,-61.0
2023-08-12 14:27:44.866763,-64.0
2023-08-12 14:27:44.874453,-73.0
2023-08-12 14:27:44.882143,-90.0
2023-08-12 14:27:44.889833,-97.0
2023-08-12 14:27:44.897523,-97.0
2023-08-12 14:27:44.905213,-97.0
2023-08-12 14:27:44.912903,-95.0
2023-08-12 14:27:44.920593,-97.0
2023-08-12 14:27:44.928283,-97.0
2023-08-12 14:27:44.935973,-95.0
2023-08-12 14:27:44.943663,-45.0
2023-08-12 14:27:44.951353,130.0
2023-08-12 14:27:44.959043,390.0
2023-08-12 14:27:44.966733,495.0
2023-08-12 14:27:44.974423,266.0
2023-08-12 14:27:44.982113,-90.0
2023-08-12 14:27:44.989803,-211.0
2023-08-12 14:27:44.997493,-169.0
2023-08-12 14:27:45.005183,-178.0
2023-08-12 14:27:45.012873,-159.0
2023-08-12 14:27:45.020562,-99.0
2023-08-12 14:27:45.028252,-102.0
2023-08-12 14:27:45.035942,-119.0
2023-08-12 14:27:45.043632,-99.0
2023-08-12 14:27:45.051322,-92.0
2023-08-12 14:27:45.059012,-92.0
2023-08-12 14:27:45.066702,-78.0
2023-08-12 14:27:45.074392,-69.0
2023-08-12 14:27:45.082082,-66.0
2023-08-12 14:27:45.089772,-61.0
2023-08-12 14:27:45.097462,-52.0
2023-08-12 14:27:45.105152,-42.0
2023-08-12 14:27:45.112842,-33.0
2023-08-12 14:27:45.120532,-28.0
2023-08-12 14:27:45.128222,-16.0
2023-08-12 14:27:45.135912,2.0
2023-08-12 14:27:45.143602,19.0
2023-08-12 14:27:45.151292,30.0
2023-08-12 14:27:45.158982,49.0
2023-08-12 14:27:45.166672,64.0
2023-08-12 14:27:45.174362,69.0
2023-08-12 14:27:45.182052,76.0
2023-08-12 14:27:45.189742,76.0
2023-08-12 14:27:45.197432,61.0
2023-08-12 14:27:45.205122,45.0
2023-08-12 14:27:45.212812,21.0
2023-08-12 14:27:45.220502,-14.0
2023-08-12 14:27:45.228192,-59.0
2023-08-12 14:27:45.235882,-95.0
2023-08-12 14:27:45.243571,-119.0
2023-08-12 14:27:45.251261,-138.0
2023-08-12 14:27:45.258951,-149.0
2023-08-12 14:27:45.266641,-154.0
2023-08-12 14:27:45.274331,-157.0
2023-08-12 14:27:45.282021,-152.0
2023-08-12 14:27:45.289711,-145.0
2023-08-12 14:27:45.297401,-140.0
2023-08-12 14:27:45.305091,-140.0
2023-08-12 14:27:45.312781,-138.0
2023-08-12 14:27:45.320471,-130.0
2023-08-12 14:27:45.328161,-123.0
2023-08-12 14:27:45.335851,-121.0
2023-08-12 14:27:45.343541,-114.0
2023-08-12 14:27:45.351231,-104.0
2023-08-12 14:27:45.358921,-102.0
2023-08-12 14:27:45.366611,-109.0
2023-08-12 14:27:45.374301,-116.0
2023-08-12 14:27:45.381991,-107.0
2023-08-12 14:27:45.389681,-95.0
2023-08-12 14:27:45.397371,-90.0
2023-08-12 14:27:45.405061,-88.0
2023-08-12 14:27:45.412751,-88.0
2023-08-12 14:27:45.420441,-88.0
2023-08-12 14:27:45.428131,-85.0
2023-08-12 14:27:45.435821,-80.0
2023-08-12 14:27:45.443511,-76.0
2023-08-12 14:27:45.451201,-78.0
2023-08-12 14:27:45.458891,-78.0
2023-08-12 14:27:45.466580,-78.0
2023-08-12 14:27:45.474270,-78.0
2023-08-12 14:27:45.481960,-76.0
2023-08-12 14:27:45.489650,-76.0
2023-08-12 14:27:45.497340,-76.0
2023-08-12 14:27:45.505030,-78.0
2023-08-12 14:27:45.512720,-78.0
2023-08-12 14:27:45.520410,-76.0
2023-08-12 14:27:45.528100,-71.0
2023-08-12 14:27:45.535790,-71.0
2023-08-12 14:27:45.543480,-71.0
2023-08-12 14:27:45.551170,-71.0
2023-08-12 14:27:45.558860,-71.0
2023-08-12 14:27:45.566550,-73.0
2023-08-12 14:27:45.574240,-71.0
2023-08-12 14:27:45.581930,-69.0
2023-08-12 14:27:45.589620,-64.0
2023-08-12 14:27:45.597310,-59.0
2023-08-12 14:27:45.605000,-61.0
2023-08-12 14:27:45.612690,-66.0
2023-08-12 14:27:45.620380,-64.0
2023-08-12 14:27:45.628070,-61.0
2023-08-12 14:27:45.635760,-59.0
2023-08-12 14:27:45.643450,-61.0
2023-08-12 14:27:45.651140,-64.0
2023-08-12 14:27:45.658830,-57.0
2023-08-12 14:27:45.666520,-52.0
2023-08-12 14:27:45.674210,-49.0
2023-08-12 14:27:45.681900,-45.0
2023-08-12 14:27:45.689589,-30.0
2023-08-12 14:27:45.697279,-23.0
2023-08-12 14:27:45.704969,-26.0
2023-08-12 14:27:45.712659,-38.0
2023-08-12 14:27:45.720349,-42.0
2023-08-12 14:27:45.728039,-45.0
2023-08-12 14:27:45.735729,-57.0
2023-08-12 14:27:45.743419,-71.0
2023-08-12 14:27:45.751109,-80.0
2023-08-12 14:27:45.758799,-85.0
2023-08-12 14:27:45.766489,-88.0
2023-08-12 14:27:45.774179,-85.0
2023-08-12 14:27:45.781869,-83.0
2023-08-12 14:27:45.789559,-80.0
2023-08-12 14:27:45.797249,-73.0
2023-08-12 14:27:45.804939,2.0
2023-08-12 14:27:45.812629,197.0
2023-08-12 14:27:45.820319,435.0
2023-08-12 14:27:45.828009,480.0
2023-08-12 14:27:45.835699,211.0
2023-08-12 14:27:45.843389,-114.0
2023-08-12 14:27:45.851079,-195.0
2023-08-12 14:27:45.858769,-161.0
2023-08-12 14:27:45.866459,-166.0
2023-08-12 14:27:45.874149,-133.0
2023-08-12 14:27:45.881839,-90.0
2023-08-12 14:27:45.889529,-97.0
2023-08-12 14:27:45.897219,-102.0
2023-08-12 14:27:45.904909,-85.0
2023-08-12 14:27:45.912599,-83.0
2023-08-12 14:27:45.920288,-80.0
2023-08-12 14:27:45.927978,-61.0
2023-08-12 14:27:45.935668,-52.0
2023-08-12 14:27:45.943358,-59.0
2023-08-12 14:27:45.951048,-57.0
2023-08-12 14:27:45.958738,-49.0
2023-08-12 14:27:45.966428,-40.0
2023-08-12 14:27:45.974118,-28.0
2023-08-12 14:27:45.981808,-19.0
2023-08-12 14:27:45.989498,-9.0
2023-08-12 14:27:45.997188,0.0
2023-08-12 14:27:46.004878,14.0
2023-08-12 14:27:46.012568,28.0
2023-08-12 14:27:46.020258,33.0
2023-08-12 14:27:46.027948,49.0
2023-08-12 14:27:46.035638,64.0
2023-08-12 14:27:46.043328,64.0
2023-08-12 14:27:46.051018,61.0
2023-08-12 14:27:46.058708,54.0
2023-08-12 14:27:46.066398,30.0
2023-08-12 14:27:46.074088,-4.0
2023-08-12 14:27:46.081778,-42.0
2023-08-12 14:27:46.089468,-85.0
2023-08-12 14:27:46.097158,-126.0
2023-08-12 14:27:46.104848,-152.0
2023-08-12 14:27:46.112538,-169.0
2023-08-12 14:27:46.120228,-173.0
2023-08-12 14:27:46.127918,-178.0
2023-08-12 14:27:46.135608,-173.0
2023-08-12 14:27:46.143297,-169.0
2023-08-12 14:27:46.150987,-171.0
2023-08-12 14:27:46.158677,-169.0
2023-08-12 14:27:46.166367,-157.0
2023-08-12 14:27:46.174057,-154.0
2023-08-12 14:27:46.181747,-152.0
2023-08-12 14:27:46.189437,-145.0
2023-08-12 14:27:46.197127,-138.0
2023-08-12 14:27:46.204817,-133.0
2023-08-12 14:27:46.212507,-133.0
2023-08-12 14:27:46.220197,-133.0
2023-08-12 14:27:46.227887,-133.0
2023-08-12 14:27:46.235577,-133.0
2023-08-12 14:27:46.243267,-130.0
2023-08-12 14:27:46.250957,-126.0
2023-08-12 14:27:46.258647,-123.0
2023-08-12 14:27:46.266337,-128.0
2023-08-12 14:27:46.274027,-128.0
2023-08-12 14:27:46.281717,-116.0
2023-08-12 14:27:46.289407,-109.0
2023-08-12 14:27:46.297097,-116.0
2023-08-12 14:27:46.304787,-119.0
2023-08-12 14:27:46.312477,-111.0
2023-08-12 14:27:46.320167,-109.0
2023-08-12 14:27:46.327857,-111.0
2023-08-12 14:27:46.335547,-109.0
2023-08-12 14:27:46.343237,-107.0
2023-08-12 14:27:46.350927,-111.0
2023-08-12 14:27:46.358617,-111.0
2023-08-12 14:27:46.366306,-97.0
2023-08-12 14:27:46.373996,-95.0
2023-08-12 14:27:46.381686,-107.0
2023-08-12 14:27:46.389376,-107.0
2023-08-12 14:27:46.397066,-99.0
2023-08-12 14:27:46.404756,-102.0
2023-08-12 14:27:46.412446,-97.0
2023-08-12 14:27:46.420136,-90.0
2023-08-12 14:27:46.427826,-97.0
2023-08-12 14:27:46.435516,-95.0
2023-08-12 14:27:46.443206,-88.0
2023-08-12 14:27:46.450896,-95.0
2023-08-12 14:27:46.458586,-104.0
2023-08-12 14:27:46.466276,-95.0
2023-08-12 14:27:46.473966,-90.0
2023-08-12 14:27:46.481656,-90.0
2023-08-12 14:27:46.489346,-80.0
2023-08-12 14:27:46.497036,-80.0
2023-08-12 14:27:46.504726,-90.0
2023-08-12 14:27:46.512416,-80.0
2023-08-12 14:27:46.520106,-64.0
2023-08-12 14:27:46.527796,-61.0
2023-08-12 14:27:46.535486,-64.0
2023-08-12 14:27:46.543176,-69.0
2023-08-12 14:27:46.550866,-76.0
2023-08-12 14:27:46.558556,-69.0
2023-08-12 14:27:46.566246,-71.0
2023-08-12 14:27:46.573936,-95.0
2023-08-12 14:27:46.581626,-116.0
2023-08-12 14:27:46.589315,-123.0
2023-08-12 14:27:46.597005,-119.0
2023-08-12 14:27:46.604695,-114.0
2023-08-12 14:27:46.612385,-111.0
2023-08-12 14:27:46.620075,-114.0
2023-08-12 14:27:46.627765,-123.0
2023-08-12 14:27:46.635455,-95.0
2023-08-12 14:27:46.643145,66.0
2023-08-12 14:27:46.650835,364.0
2023-08-12 14:27:46.658525,566.0
2023-08-12 14:27:46.666215,376.0
2023-08-12 14:27:46.673905,-71.0
2023-08-12 14:27:46.681595,-280.0
2023-08-12 14:27:46.689285,-207.0
2023-08-12 14:27:46.696975,-204.0
2023-08-12 14:27:46.704665,-228.0
2023-08-12 14:27:46.712355,-145.0
2023-08-12 14:27:46.720045,-102.0
2023-08-12 14:27:46.727735,-130.0
2023-08-12 14:27:46.735425,-121.0
2023-08-12 14:27:46.743115,-104.0
2023-08-12 14:27:46.750805,-114.0
2023-08-12 14:27:46.758495,-99.0
2023-08-12 14:27:46.766185,-80.0
2023-08-12 14:27:46.773875,-90.0
2023-08-12 14:27:46.781565,-88.0
2023-08-12 14:27:46.789255,-66.0
2023-08-12 14:27:46.796945,-52.0
2023-08-12 14:27:46.804635,-40.0
2023-08-12 14:27:46.812325,-26.0
2023-08-12 14:27:46.820014,-11.0
2023-08-12 14:27:46.827704,2.0
2023-08-12 14:27:46.835394,16.0
2023-08-12 14:27:46.843084,45.0
2023-08-12 14:27:46.850774,71.0
2023-08-12 14:27:46.858464,73.0
2023-08-12 14:27:46.866154,90.0
2023-08-12 14:27:46.873844,121.0
2023-08-12 14:27:46.881534,121.0
2023-08-12 14:27:46.889224,97.0
2023-08-12 14:27:46.896914,78.0
2023-08-12 14:27:46.904604,59.0
2023-08-12 14:27:46.912294,14.0
2023-08-12 14:27:46.919984,-54.0
2023-08-12 14:27:46.927674,-104.0
2023-08-12 14:27:46.935364,-126.0
2023-08-12 14:27:46.943054,-159.0
2023-08-12 14:27:46.950744,-185.0
2023-08-12 14:27:46.958434,-180.0
2023-08-12 14:27:46.966124,-178.0
2023-08-12 14:27:46.973814,-180.0
2023-08-12 14:27:46.981504,-171.0
2023-08-12 14:27:46.989194,-166.0
2023-08-12 14:27:46.996884,-169.0
2023-08-12 14:27:47.004574,-164.0
2023-08-12 14:27:47.012264,-154.0
2023-08-12 14:27:47.019954,-157.0
2023-08-12 14:27:47.027644,-149.0
2023-08-12 14:27:47.035334,-130.0
2023-08-12 14:27:47.043023,-123.0
2023-08-12 14:27:47.050713,-121.0
2023-08-12 14:27:47.058403,-123.0
2023-08-12 14:27:47.066093,-130.0
2023-08-12 14:27:47.073783,-116.0
2023-08-12 14:27:47.081473,-109.0
2023-08-12 14:27:47.089163,-119.0
2023-08-12 14:27:47.096853,-111.0
2023-08-12 14:27:47.104543,-104.0
2023-08-12 14:27:47.112233,-104.0
2023-08-12 14:27:47.119923,-111.0
2023-08-12 14:27:47.127613,-121.0
2023-08-12 14:27:47.135303,-121.0
2023-08-12 14:27:47.142993,-121.0
2023-08-12 14:27:47.150683,-126.0
2023-08-12 14:27:47.158373,-119.0
2023-08-12 14:27:47.166063,-109.0
2023-08-12 14:27:47.173753,-107.0
2023-08-12 14:27:47.181443,-109.0
2023-08-12 14:27:47.189133,-111.0
2023-08-12 14:27:47.196823,-109.0
2023-08-12 14:27:47.204513,-107.0
2023-08-12 14:27:47.212203,-107.0
2023-08-12 14:27:47.219893,-102.0
2023-08-12 14:27:47.227583,-102.0
2023-08-12 14:27:47.235273,-102.0
2023-08-12 14:27:47.242963,-109.0
2023-08-12 14:27:47.250653,-121.0
2023-08-12 14:27:47.258343,-109.0
2023-08-12 14:27:47.266032,-92.0
2023-08-12 14:27:47.273722,-92.0
2023-08-12 14:27:47.281412,-95.0
2023-08-12 14:27:47.289102,-92.0
2023-08-12 14:27:47.296792,-90.0
2023-08-12 14:27:47.304482,-85.0
2023-08-12 14:27:47.312172,-64.0
2023-08-12 14:27:47.319862,-47.0
2023-08-12 14:27:47.327552,-57.0
2023-08-12 14:27:47.335242,-59.0
2023-08-12 14:27:47.342932,-57.0
2023-08-12 14:27:47.350622,-73.0
2023-08-12 14:27:47.358312,-88.0
2023-08-12 14:27:47.366002,-88.0
2023-08-12 14:27:47.373692,-85.0
2023-08-12 14:27:47.381382,-95.0
2023-08-12 14:27:47.389072,-107.0
2023-08-12 14:27:47.396762,-107.0
2023-08-12 14:27:47.404452,-99.0
2023-08-12 14:27:47.412142,-85.0
2023-08-12 14:27:47.419832,-78.0
2023-08-12 14:27:47.427522,-78.0
2023-08-12 14:27:47.435212,-35.0
2023-08-12 14:27:47.442902,171.0
2023-08-12 14:27:47.450592,507.0
2023-08-12 14:27:47.458282,626.0
2023-08-12 14:27:47.465972,276.0
2023-08-12 14:27:47.473662,-183.0
2023-08-12 14:27:47.481352,-268.0
2023-08-12 14:27:47.489041,-173.0
2023-08-12 14:27:47.496731,-202.0
2023-08-12 14:27:47.504421,-185.0
2023-08-12 14:27:47.512111,-88.0
2023-08-12 14:27:47.519801,-78.0
2023-08-12 14:27:47.527491,-107.0
2023-08-12 14:27:47.535181,-90.0
2023-08-12 14:27:47.542871,-73.0
2023-08-12 14:27:47.550561,-71.0
2023-08-12 14:27:47.558251,-64.0
2023-08-12 14:27:47.565941,-59.0
2023-08-12 14:27:47.573631,-59.0
2023-08-12 14:27:47.581321,-49.0
2023-08-12 14:27:47.589011,-35.0
2023-08-12 14:27:47.596701,-26.0
2023-08-12 14:27:47.604391,-16.0
2023-08-12 14:27:47.612081,-4.0
2023-08-12 14:27:47.619771,9.0
2023-08-12 14:27:47.627461,28.0
2023-08-12 14:27:47.635151,47.0
2023-08-12 14:27:47.642841,64.0
2023-08-12 14:27:47.650531,78.0
2023-08-12 14:27:47.658221,95.0
2023-08-12 14:27:47.665911,119.0
2023-08-12 14:27:47.673601,121.0
2023-08-12 14:27:47.681291,102.0
2023-08-12 14:27:47.688981,97.0
2023-08-12 14:27:47.696671,85.0
2023-08-12 14:27:47.704361,35.0
2023-08-12 14:27:47.712051,-26.0
2023-08-12 14:27:47.719740,-76.0
2023-08-12 14:27:47.727430,-116.0
2023-08-12 14:27:47.735120,-149.0
2023-08-12 14:27:47.742810,-171.0
2023-08-12 14:27:47.750500,-192.0
2023-08-12 14:27:47.758190,-204.0
2023-08-12 14:27:47.765880,-197.0
2023-08-12 14:27:47.773570,-185.0
2023-08-12 14:27:47.781260,-178.0
2023-08-12 14:27:47.788950,-171.0
2023-08-12 14:27:47.796640,-171.0
2023-08-12 14:27:47.804330,-173.0
2023-08-12 14:27:47.812020,-164.0
2023-08-12 14:27:47.819710,-152.0
2023-08-12 14:27:47.827400,-154.0
2023-08-12 14:27:47.835090,-157.0
2023-08-12 14:27:47.842780,-147.0
2023-08-12 14:27:47.850470,-133.0
2023-08-12 14:27:47.858160,-130.0
2023-08-12 14:27:47.865850,-133.0
2023-08-12 14:27:47.873540,-133.0
2023-08-12 14:27:47.881230,-133.0
2023-08-12 14:27:47.888920,-135.0
2023-08-12 14:27:47.896610,-133.0
2023-08-12 14:27:47.904300,-116.0
2023-08-12 14:27:47.911990,-109.0
2023-08-12 14:27:47.919680,-119.0
2023-08-12 14:27:47.927370,-126.0
2023-08-12 14:27:47.935060,-121.0
2023-08-12 14:27:47.942749,-133.0
2023-08-12 14:27:47.950439,-142.0
2023-08-12 14:27:47.958129,-133.0
2023-08-12 14:27:47.965819,-121.0
2023-08-12 14:27:47.973509,-121.0
2023-08-12 14:27:47.981199,-133.0
2023-08-12 14:27:47.988889,-135.0
2023-08-12 14:27:47.996579,-121.0
2023-08-12 14:27:48.004269,-116.0
2023-08-12 14:27:48.011959,-126.0
2023-08-12 14:27:48.019649,-130.0
2023-08-12 14:27:48.027339,-128.0
2023-08-12 14:27:48.035029,-119.0
2023-08-12 14:27:48.042719,-111.0
2023-08-12 14:27:48.050409,-114.0
2023-08-12 14:27:48.058099,-119.0
2023-08-12 14:27:48.065789,-116.0
2023-08-12 14:27:48.073479,-114.0
2023-08-12 14:27:48.081169,-116.0
2023-08-12 14:27:48.088859,-109.0
2023-08-12 14:27:48.096549,-95.0
2023-08-12 14:27:48.104239,-85.0
2023-08-12 14:27:48.111929,-76.0
2023-08-12 14:27:48.119619,-71.0
2023-08-12 14:27:48.127309,-80.0
2023-08-12 14:27:48.134999,-90.0
2023-08-12 14:27:48.142689,-90.0
2023-08-12 14:27:48.150379,-92.0
2023-08-12 14:27:48.158069,-104.0
2023-08-12 14:27:48.165758,-116.0
2023-08-12 14:27:48.173448,-123.0
2023-08-12 14:27:48.181138,-130.0
2023-08-12 14:27:48.188828,-126.0
2023-08-12 14:27:48.196518,-121.0
2023-08-12 14:27:48.204208,-133.0
2023-08-12 14:27:48.211898,-130.0
2023-08-12 14:27:48.219588,-116.0
2023-08-12 14:27:48.227278,-61.0
2023-08-12 14:27:48.234968,133.0
2023-08-12 14:27:48.242658,466.0
2023-08-12 14:27:48.250348,628.0
2023-08-12 14:27:48.258038,326.0
2023-08-12 14:27:48.265728,-173.0
2023-08-12 14:27:48.273418,-326.0
2023-08-12 14:27:48.281108,-216.0
2023-08-12 14:27:48.288798,-223.0
2023-08-12 14:27:48.296488,-230.0
2023-08-12 14:27:48.304178,-135.0
2023-08-12 14:27:48.311868,-116.0
2023-08-12 14:27:48.319558,-142.0
2023-08-12 14:27:48.327248,-119.0
2023-08-12 14:27:48.334938,-102.0
2023-08-12 14:27:48.342628,-107.0
2023-08-12 14:27:48.350318,-92.0
2023-08-12 14:27:48.358008,-83.0
2023-08-12 14:27:48.365698,-83.0
2023-08-12 14:27:48.373388,-69.0
2023-08-12 14:27:48.381078,-49.0
2023-08-12 14:27:48.388767,-47.0
2023-08-12 14:27:48.396457,-42.0
2023-08-12 14:27:48.404147,-23.0
2023-08-12 14:27:48.411837,-11.0
2023-08-12 14:27:48.419527,-4.0
2023-08-12 14:27:48.427217,19.0
2023-08-12 14:27:48.434907,42.0
2023-08-12 14:27:48.442597,52.0
2023-08-12 14:27:48.450287,69.0
2023-08-12 14:27:48.457977,97.0
2023-08-12 14:27:48.465667,109.0
2023-08-12 14:27:48.473357,95.0
2023-08-12 14:27:48.481047,78.0
2023-08-12 14:27:48.488737,61.0
2023-08-12 14:27:48.496427,30.0
2023-08-12 14:27:48.504117,-14.0
2023-08-12 14:27:48.511807,-66.0
2023-08-12 14:27:48.519497,-116.0
2023-08-12 14:27:48.527187,-149.0
2023-08-12 14:27:48.534877,-171.0
2023-08-12 14:27:48.542567,-188.0
2023-08-12 14:27:48.550257,-178.0
2023-08-12 14:27:48.557947,-166.0
2023-08-12 14:27:48.565637,-169.0
2023-08-12 14:27:48.573327,-171.0
2023-08-12 14:27:48.581017,-166.0
2023-08-12 14:27:48.588707,-161.0
2023-08-12 14:27:48.596397,-149.0
2023-08-12 14:27:48.604087,-145.0
2023-08-12 14:27:48.611777,-145.0
2023-08-12 14:27:48.619466,-140.0
2023-08-12 14:27:48.627156,-133.0
2023-08-12 14:27:48.634846,-128.0
2023-08-12 14:27:48.642536,-126.0
2023-08-12 14:27:48.650226,-126.0
2023-08-12 14:27:48.657916,-121.0
2023-08-12 14:27:48.665606,-111.0
2023-08-12 14:27:48.673296,-109.0
2023-08-12 14:27:48.680986,-107.0
2023-08-12 14:27:48.688676,-104.0
2023-08-12 14:27:48.696366,-104.0
2023-08-12 14:27:48.704056,-104.0
2023-08-12 14:27:48.711746,-102.0
2023-08-12 14:27:48.719436,-107.0
2023-08-12 14:27:48.727126,-109.0
2023-08-12 14:27:48.734816,-104.0
2023-08-12 14:27:48.742506,-107.0
2023-08-12 14:27:48.750196,-119.0
2023-08-12 14:27:48.757886,-121.0
2023-08-12 14:27:48.765576,-114.0
2023-08-12 14:27:48.773266,-107.0
2023-08-12 14:27:48.780956,-111.0
2023-08-12 14:27:48.788646,-123.0
2023-08-12 14:27:48.796336,-126.0
2023-08-12 14:27:48.804026,-111.0
2023-08-12 14:27:48.811716,-109.0
2023-08-12 14:27:48.819406,-111.0
2023-08-12 14:27:48.827096,-107.0
2023-08-12 14:27:48.834786,-104.0
2023-08-12 14:27:48.842475,-102.0
2023-08-12 14:27:48.850165,-97.0
2023-08-12 14:27:48.857855,-90.0
2023-08-12 14:27:48.865545,-92.0
2023-08-12 14:27:48.873235,-92.0
2023-08-12 14:27:48.880925,-90.0
2023-08-12 14:27:48.888615,-88.0
2023-08-12 14:27:48.896305,-85.0
2023-08-12 14:27:48.903995,-83.0
2023-08-12 14:27:48.911685,-83.0
2023-08-12 14:27:48.919375,-80.0
2023-08-12 14:27:48.927065,-80.0
2023-08-12 14:27:48.934755,-78.0
2023-08-12 14:27:48.942445,-71.0
2023-08-12 14:27:48.950135,-71.0
2023-08-12 14:27:48.957825,-83.0
2023-08-12 14:27:48.965515,-88.0
2023-08-12 14:27:48.973205,-78.0
2023-08-12 14:27:48.980895,-76.0
2023-08-12 14:27:48.988585,-76.0
2023-08-12 14:27:48.996275,-78.0
2023-08-12 14:27:49.003965,-83.0
2023-08-12 14:27:49.011655,-76.0
2023-08-12 14:27:49.019345,-64.0
2023-08-12 14:27:49.027035,-59.0
2023-08-12 14:27:49.034725,-49.0
2023-08-12 14:27:49.042415,-38.0
2023-08-12 14:27:49.050105,-35.0
2023-08-12 14:27:49.057795,-40.0
2023-08-12 14:27:49.065484,-47.0
2023-08-12 14:27:49.073174,-49.0
2023-08-12 14:27:49.080864,-52.0
2023-08-12 14:27:49.088554,-69.0
2023-08-12 14:27:49.096244,-80.0
2023-08-12 14:27:49.103934,-83.0
2023-08-12 14:27:49.111624,-85.0
2023-08-12 14:27:49.119314,-88.0
2023-08-12 14:27:49.127004,-85.0
2023-08-12 14:27:49.134694,-85.0
2023-08-12 14:27:49.142384,-80.0
2023-08-12 14:27:49.150074,-33.0
2023-08-12 14:27:49.157764,166.0
2023-08-12 14:27:49.165454,497.0
2023-08-12 14:27:49.173144,697.0
2023-08-12 14:27:49.180834,509.0
2023-08-12 14:27:49.188524,21.0
2023-08-12 14:27:49.196214,-276.0
2023-08-12 14:27:49.203904,-221.0
2023-08-12 14:27:49.211594,-169.0
2023-08-12 14:27:49.219284,-185.0
2023-08-12 14:27:49.226974,-130.0
2023-08-12 14:27:49.234664,-99.0
2023-08-12 14:27:49.242354,-121.0
2023-08-12 14:27:49.250044,-109.0
2023-08-12 14:27:49.257734,-88.0
2023-08-12 14:27:49.265424,-92.0
2023-08-12 14:27:49.273114,-99.0
2023-08-12 14:27:49.280804,-92.0
2023-08-12 14:27:49.288493,-85.0
2023-08-12 14:27:49.296183,-80.0
2023-08-12 14:27:49.303873,-69.0
2023-08-12 14:27:49.311563,-52.0
2023-08-12 14:27:49.319253,-38.0
2023-08-12 14:27:49.326943,-28.0
2023-08-12 14:27:49.334633,-21.0
2023-08-12 14:27:49.342323,-7.0
2023-08-12 14:27:49.350013,16.0
2023-08-12 14:27:49.357703,38.0
2023-08-12 14:27:49.365393,52.0
2023-08-12 14:27:49.373083,64.0
2023-08-12 14:27:49.380773,76.0
2023-08-12 14:27:49.388463,88.0
2023-08-12 14:27:49.396153,88.0
2023-08-12 14:27:49.403843,78.0
2023-08-12 14:27:49.411533,61.0
2023-08-12 14:27:49.419223,33.0
2023-08-12 14:27:49.426913,-2.0
2023-08-12 14:27:49.434603,-40.0
2023-08-12 14:27:49.442293,-76.0
2023-08-12 14:27:49.449983,-107.0
2023-08-12 14:27:49.457673,-135.0
2023-08-12 14:27:49.465363,-152.0
2023-08-12 14:27:49.473053,-154.0
2023-08-12 14:27:49.480743,-154.0
2023-08-12 14:27:49.488433,-154.0
2023-08-12 14:27:49.496123,-147.0
2023-08-12 14:27:49.503813,-140.0
2023-08-12 14:27:49.511503,-138.0
2023-08-12 14:27:49.519192,-128.0
2023-08-12 14:27:49.526882,-123.0
2023-08-12 14:27:49.534572,-121.0
2023-08-12 14:27:49.542262,-119.0
2023-08-12 14:27:49.549952,-116.0
2023-08-12 14:27:49.557642,-109.0
2023-08-12 14:27:49.565332,-102.0
2023-08-12 14:27:49.573022,-99.0
2023-08-12 14:27:49.580712,-102.0
2023-08-12 14:27:49.588402,-95.0
2023-08-12 14:27:49.596092,-90.0
2023-08-12 14:27:49.603782,-92.0
2023-08-12 14:27:49.611472,-92.0
2023-08-12 14:27:49.619162,-90.0
2023-08-12 14:27:49.626852,-88.0
2023-08-12 14:27:49.634542,-85.0
2023-08-12 14:27:49.642232,-83.0
2023-08-12 14:27:49.649922,-80.0
2023-08-12 14:27:49.657612,-80.0
2023-08-12 14:27:49.665302,-83.0
2023-08-12 14:27:49.672992,-83.0
2023-08-12 14:27:49.680682,-78.0
2023-08-12 14:27:49.688372,-83.0
2023-08-12 14:27:49.696062,-88.0
2023-08-12 14:27:49.703752,-80.0
2023-08-12 14:27:49.711442,-73.0
2023-08-12 14:27:49.719132,-73.0
2023-08-12 14:27:49.726822,-73.0
2023-08-12 14:27:49.734512,-73.0
2023-08-12 14:27:49.742201,-71.0
2023-08-12 14:27:49.749891,-66.0
2023-08-12 14:27:49.757581,-66.0
2023-08-12 14:27:49.765271,-69.0
2023-08-12 14:27:49.772961,-71.0
2023-08-12 14:27:49.780651,-71.0
2023-08-12 14:27:49.788341,-69.0
2023-08-12 14:27:49.796031,-64.0
2023-08-12 14:27:49.803721,-59.0
2023-08-12 14:27:49.811411,-54.0
2023-08-12 14:27:49.819101,-54.0
2023-08-12 14:27:49.826791,-59.0
2023-08-12 14:27:49.834481,-61.0
2023-08-12 14:27:49.842171,-49.0
2023-08-12 14:27:49.849861,-40.0
2023-08-12 14:27:49.857551,-38.0
2023-08-12 14:27:49.865241,-42.0
2023-08-12 14:27:49.872931,-57.0
2023-08-12 14:27:49.880621,-61.0
2023-08-12 14:27:49.888311,-57.0
2023-08-12 14:27:49.896001,-52.0
2023-08-12 14:27:49.903691,-49.0
2023-08-12 14:27:49.911381,-47.0
2023-08-12 14:27:49.919071,-54.0
2023-08-12 14:27:49.926761,-61.0
2023-08-12 14:27:49.934451,-59.0
2023-08-12 14:27:49.942141,-52.0
2023-08-12 14:27:49.949831,-54.0
2023-08-12 14:27:49.957521,-66.0
2023-08-12 14:27:49.965210,-69.0
2023-08-12 14:27:49.972900,-59.0
2023-08-12 14:27:49.980590,-49.0
2023-08-12 14:27:49.988280,-45.0
2023-08-12 14:27:49.995970,-35.0
2023-08-12 14:27:50.003660,-28.0
2023-08-12 14:27:50.011350,-30.0
2023-08-12 14:27:50.019040,-28.0
2023-08-12 14:27:50.026730,-30.0
2023-08-12 14:27:50.034420,-38.0
2023-08-12 14:27:50.042110,-40.0
2023-08-12 14:27:50.049800,-47.0
2023-08-12 14:27:50.057490,-57.0
2023-08-12 14:27:50.065180,-61.0
2023-08-12 14:27:50.072870,-66.0
2023-08-12 14:27:50.080560,-71.0
2023-08-12 14:27:50.088250,-71.0
2023-08-12 14:27:50.095940,-69.0
2023-08-12 14:27:50.103630,-71.0
2023-08-12 14:27:50.111320,-61.0
2023-08-12 14:27:50.119010,26.0
2023-08-12 14:27:50.126700,261.0
2023-08-12 14:27:50.134390,545.0
2023-08-12 14:27:50.142080,626.0
2023-08-12 14:27:50.149770,338.0
2023-08-12 14:27:50.157460,-92.0
2023-08-12 14:27:50.165150,-242.0
2023-08-12 14:27:50.172840,-164.0
2023-08-12 14:27:50.180530,-140.0
2023-08-12 14:27:50.188219,-126.0
2023-08-12 14:27:50.195909,-80.0
2023-08-12 14:27:50.203599,-80.0
2023-08-12 14:27:50.211289,-85.0
2023-08-12 14:27:50.218979,-66.0
2023-08-12 14:27:50.226669,-59.0
2023-08-12 14:27:50.234359,-64.0
2023-08-12 14:27:50.242049,-54.0
2023-08-12 14:27:50.249739,-45.0
2023-08-12 14:27:50.257429,-40.0
2023-08-12 14:27:50.265119,-33.0
2023-08-12 14:27:50.272809,-26.0
2023-08-12 14:27:50.280499,-21.0
2023-08-12 14:27:50.288189,-9.0
2023-08-12 14:27:50.295879,4.0
2023-08-12 14:27:50.303569,16.0
2023-08-12 14:27:50.311259,23.0
2023-08-12 14:27:50.318949,28.0
2023-08-12 14:27:50.326639,35.0
2023-08-12 14:27:50.334329,47.0
2023-08-12 14:27:50.342019,57.0
2023-08-12 14:27:50.349709,61.0
2023-08-12 14:27:50.357399,66.0
2023-08-12 14:27:50.365089,66.0
2023-08-12 14:27:50.372779,54.0
2023-08-12 14:27:50.380469,35.0
2023-08-12 14:27:50.388159,9.0
2023-08-12 14:27:50.395849,-19.0
2023-08-12 14:27:50.403539,-54.0
2023-08-12 14:27:50.411229,-88.0
2023-08-12 14:27:50.418918,-114.0
2023-08-12 14:27:50.426608,-128.0
2023-08-12 14:27:50.434298,-140.0
2023-08-12 14:27:50.441988,-149.0
2023-08-12 14:27:50.449678,-159.0
2023-08-12 14:27:50.457368,-164.0
2023-08-12 14:27:50.465058,-154.0
2023-08-12 14:27:50.472748,-142.0
2023-08-12 14:27:50.480438,-140.0
2023-08-12 14:27:50.488128,-138.0
2023-08-12 14:27:50.495818,-135.0
2023-08-12 14:27:50.503508,-135.0
2023-08-12 14:27:50.511198,-135.0
2023-08-12 14:27:50.518888,-128.0
2023-08-12 14:27:50.526578,-126.0
2023-08-12 14:27:50.534268,-123.0
2023-08-12 14:27:50.541958,-126.0
2023-08-12 14:27:50.549648,-128.0
2023-08-12 14:27:50.557338,-123.0
2023-08-12 14:27:50.565028,-116.0
2023-08-12 14:27:50.572718,-111.0
2023-08-12 14:27:50.580408,-109.0
2023-08-12 14:27:50.588098,-107.0
2023-08-12 14:27:50.595788,-107.0
2023-08-12 14:27:50.603478,-99.0
2023-08-12 14:27:50.611168,-97.0
2023-08-12 14:27:50.618858,-95.0
2023-08-12 14:27:50.626548,-92.0
2023-08-12 14:27:50.634238,-90.0
2023-08-12 14:27:50.641927,-88.0
2023-08-12 14:27:50.649617,-85.0
2023-08-12 14:27:50.657307,-85.0
2023-08-12 14:27:50.664997,-85.0
2023-08-12 14:27:50.672687,-83.0
2023-08-12 14:27:50.680377,-83.0
2023-08-12 14:27:50.688067,-83.0
2023-08-12 14:27:50.695757,-88.0
2023-08-12 14:27:50.703447,-85.0
2023-08-12 14:27:50.711137,-78.0
2023-08-12 14:27:50.718827,-76.0
2023-08-12 14:27:50.726517,-78.0
2023-08-12 14:27:50.734207,-78.0
2023-08-12 14:27:50.741897,-78.0
2023-08-12 14:27:50.749587,-76.0
2023-08-12 14:27:50.757277,-73.0
2023-08-12 14:27:50.764967,-73.0
2023-08-12 14:27:50.772657,-76.0
2023-08-12 14:27:50.780347,-80.0
2023-08-12 14:27:50.788037,-80.0
2023-08-12 14:27:50.795727,-80.0
2023-08-12 14:27:50.803417,-83.0
2023-08-12 14:27:50.811107,-80.0
2023-08-12 14:27:50.818797,-76.0
2023-08-12 14:27:50.826487,-76.0
2023-08-12 14:27:50.834177,-76.0
2023-08-12 14:27:50.841867,-76.0
2023-08-12 14:27:50.849557,-76.0
2023-08-12 14:27:50.857247,-76.0
2023-08-12 14:27:50.864936,-73.0
2023-08-12 14:27:50.872626,-73.0
2023-08-12 14:27:50.880316,-73.0
2023-08-12 14:27:50.888006,-76.0
2023-08-12 14:27:50.895696,-76.0
2023-08-12 14:27:50.903386,-76.0
2023-08-12 14:27:50.911076,-80.0
2023-08-12 14:27:50.918766,-83.0
2023-08-12 14:27:50.926456,-80.0
2023-08-12 14:27:50.934146,-78.0
2023-08-12 14:27:50.941836,-83.0
2023-08-12 14:27:50.949526,-85.0
2023-08-12 14:27:50.957216,-83.0
2023-08-12 14:27:50.964906,-76.0
2023-08-12 14:27:50.972596,-69.0
2023-08-12 14:27:50.980286,-69.0
2023-08-12 14:27:50.987976,-66.0
2023-08-12 14:27:50.995666,-66.0
2023-08-12 14:27:51.003356,-57.0
2023-08-12 14:27:51.011046,-49.0
2023-08-12 14:27:51.018736,-57.0
2023-08-12 14:27:51.026426,-66.0
2023-08-12 14:27:51.034116,-71.0
2023-08-12 14:27:51.041806,-83.0
2023-08-12 14:27:51.049496,-95.0
2023-08-12 14:27:51.057186,-102.0
2023-08-12 14:27:51.064876,-109.0
2023-08-12 14:27:51.072566,-109.0
2023-08-12 14:27:51.080256,-102.0
2023-08-12 14:27:51.087945,-95.0
2023-08-12 14:27:51.095635,-92.0
2023-08-12 14:27:51.103325,-92.0
2023-08-12 14:27:51.111015,-47.0
2023-08-12 14:27:51.118705,133.0
2023-08-12 14:27:51.126395,409.0
2023-08-12 14:27:51.134085,564.0
2023-08-12 14:27:51.141775,383.0
2023-08-12 14:27:51.149465,-16.0
2023-08-12 14:27:51.157155,-223.0
2023-08-12 14:27:51.164845,-173.0
2023-08-12 14:27:51.172535,-154.0
2023-08-12 14:27:51.180225,-164.0
2023-08-12 14:27:51.187915,-121.0
2023-08-12 14:27:51.195605,-102.0
2023-08-12 14:27:51.203295,-107.0
2023-08-12 14:27:51.210985,-97.0
2023-08-12 14:27:51.218675,-90.0
2023-08-12 14:27:51.226365,-85.0
2023-08-12 14:27:51.234055,-71.0
2023-08-12 14:27:51.241745,-64.0
2023-08-12 14:27:51.249435,-61.0
2023-08-12 14:27:51.257125,-52.0
2023-08-12 14:27:51.264815,-38.0
2023-08-12 14:27:51.272505,-30.0
2023-08-12 14:27:51.280195,-26.0
2023-08-12 14:27:51.287885,-19.0
2023-08-12 14:27:51.295575,-11.0
2023-08-12 14:27:51.303265,-2.0
2023-08-12 14:27:51.310955,11.0
2023-08-12 14:27:51.318644,26.0
2023-08-12 14:27:51.326334,45.0
2023-08-12 14:27:51.334024,57.0
2023-08-12 14:27:51.341714,69.0
2023-08-12 14:27:51.349404,78.0
2023-08-12 14:27:51.357094,78.0
2023-08-12 14:27:51.364784,69.0
2023-08-12 14:27:51.372474,59.0
2023-08-12 14:27:51.380164,40.0
2023-08-12 14:27:51.387854,7.0
2023-08-12 14:27:51.395544,-30.0
2023-08-12 14:27:51.403234,-66.0
2023-08-12 14:27:51.410924,-95.0
2023-08-12 14:27:51.418614,-114.0
2023-08-12 14:27:51.426304,-128.0
2023-08-12 14:27:51.433994,-138.0
2023-08-12 14:27:51.441684,-142.0
2023-08-12 14:27:51.449374,-142.0
2023-08-12 14:27:51.457064,-135.0
2023-08-12 14:27:51.464754,-121.0
2023-08-12 14:27:51.472444,-111.0
2023-08-12 14:27:51.480134,-114.0
2023-08-12 14:27:51.487824,-114.0
2023-08-12 14:27:51.495514,-114.0
2023-08-12 14:27:51.503204,-109.0
2023-08-12 14:27:51.510894,-104.0
2023-08-12 14:27:51.518584,-102.0
2023-08-12 14:27:51.526274,-99.0
2023-08-12 14:27:51.533964,-99.0
2023-08-12 14:27:51.541653,-97.0
2023-08-12 14:27:51.549343,-95.0
2023-08-12 14:27:51.557033,-95.0
2023-08-12 14:27:51.564723,-92.0
2023-08-12 14:27:51.572413,-92.0
2023-08-12 14:27:51.580103,-102.0
2023-08-12 14:27:51.587793,-102.0
2023-08-12 14:27:51.595483,-99.0
2023-08-12 14:27:51.603173,-99.0
2023-08-12 14:27:51.610863,-95.0
2023-08-12 14:27:51.618553,-90.0
2023-08-12 14:27:51.626243,-92.0
2023-08-12 14:27:51.633933,-95.0
2023-08-12 14:27:51.641623,-95.0
2023-08-12 14:27:51.649313,-90.0
2023-08-12 14:27:51.657003,-88.0
2023-08-12 14:27:51.664693,-85.0
2023-08-12 14:27:51.672383,-83.0
2023-08-12 14:27:51.680073,-85.0
2023-08-12 14:27:51.687763,-85.0
2023-08-12 14:27:51.695453,-80.0
2023-08-12 14:27:51.703143,-80.0
2023-08-12 14:27:51.710833,-83.0
2023-08-12 14:27:51.718523,-85.0
2023-08-12 14:27:51.726213,-80.0
2023-08-12 14:27:51.733903,-73.0
2023-08-12 14:27:51.741593,-76.0
2023-08-12 14:27:51.749283,-76.0
2023-08-12 14:27:51.756973,-76.0
2023-08-12 14:27:51.764662,-80.0
2023-08-12 14:27:51.772352,-83.0
2023-08-12 14:27:51.780042,-76.0
2023-08-12 14:27:51.787732,-71.0
2023-08-12 14:27:51.795422,-78.0
2023-08-12 14:27:51.803112,-83.0
2023-08-12 14:27:51.810802,-80.0
2023-08-12 14:27:51.818492,-73.0
2023-08-12 14:27:51.826182,-76.0
2023-08-12 14:27:51.833872,-76.0
2023-08-12 14:27:51.841562,-76.0
2023-08-12 14:27:51.849252,-71.0
2023-08-12 14:27:51.856942,-66.0
2023-08-12 14:27:51.864632,-59.0
2023-08-12 14:27:51.872322,-54.0
2023-08-12 14:27:51.880012,-38.0
2023-08-12 14:27:51.887702,-26.0
2023-08-12 14:27:51.895392,-30.0
2023-08-12 14:27:51.903082,-42.0
2023-08-12 14:27:51.910772,-47.0
2023-08-12 14:27:51.918462,-52.0
2023-08-12 14:27:51.926152,-64.0
2023-08-12 14:27:51.933842,-78.0
2023-08-12 14:27:51.941532,-85.0
2023-08-12 14:27:51.949222,-85.0
2023-08-12 14:27:51.956912,-78.0
2023-08-12 14:27:51.964602,-76.0
2023-08-12 14:27:51.972292,-76.0
2023-08-12 14:27:51.979982,-76.0
2023-08-12 14:27:51.987671,-76.0
2023-08-12 14:27:51.995361,-9.0
2023-08-12 14:27:52.003051,209.0
2023-08-12 14:27:52.010741,490.0
2023-08-12 14:27:52.018431,518.0
2023-08-12 14:27:52.026121,185.0
2023-08-12 14:27:52.033811,-159.0
2023-08-12 14:27:52.041501,-197.0
2023-08-12 14:27:52.049191,-145.0
2023-08-12 14:27:52.056881,-171.0
2023-08-12 14:27:52.064571,-135.0
2023-08-12 14:27:52.072261,-73.0
2023-08-12 14:27:52.079951,-88.0
2023-08-12 14:27:52.087641,-97.0
2023-08-12 14:27:52.095331,-76.0
2023-08-12 14:27:52.103021,-69.0
2023-08-12 14:27:52.110711,-64.0
2023-08-12 14:27:52.118401,-52.0
2023-08-12 14:27:52.126091,-49.0
2023-08-12 14:27:52.133781,-45.0
2023-08-12 14:27:52.141471,-35.0
2023-08-12 14:27:52.149161,-26.0
2023-08-12 14:27:52.156851,-21.0
2023-08-12 14:27:52.164541,-11.0
2023-08-12 14:27:52.172231,-2.0
2023-08-12 14:27:52.179921,7.0
2023-08-12 14:27:52.187611,23.0
2023-08-12 14:27:52.195301,42.0
2023-08-12 14:27:52.202991,52.0
2023-08-12 14:27:52.210681,59.0
2023-08-12 14:27:52.218370,71.0
2023-08-12 14:27:52.226060,88.0
2023-08-12 14:27:52.233750,88.0
2023-08-12 14:27:52.241440,80.0
2023-08-12 14:27:52.249130,71.0
2023-08-12 14:27:52.256820,57.0
2023-08-12 14:27:52.264510,33.0
2023-08-12 14:27:52.272200,-2.0
2023-08-12 14:27:52.279890,-45.0
2023-08-12 14:27:52.287580,-78.0
2023-08-12 14:27:52.295270,-104.0
2023-08-12 14:27:52.302960,-128.0
2023-08-12 14:27:52.310650,-142.0
2023-08-12 14:27:52.318340,-138.0
2023-08-12 14:27:52.326030,-135.0
2023-08-12 14:27:52.333720,-138.0
2023-08-12 14:27:52.341410,-135.0
2023-08-12 14:27:52.349100,-128.0
2023-08-12 14:27:52.356790,-128.0
2023-08-12 14:27:52.364480,-126.0
2023-08-12 14:27:52.372170,-119.0
2023-08-12 14:27:52.379860,-111.0
2023-08-12 14:27:52.387550,-111.0
2023-08-12 14:27:52.395240,-107.0
2023-08-12 14:27:52.402930,-97.0
2023-08-12 14:27:52.410620,-97.0
2023-08-12 14:27:52.418310,-102.0
2023-08-12 14:27:52.426000,-99.0
2023-08-12 14:27:52.433690,-95.0
2023-08-12 14:27:52.441379,-97.0
2023-08-12 14:27:52.449069,-97.0
2023-08-12 14:27:52.456759,-90.0
2023-08-12 14:27:52.464449,-85.0
2023-08-12 14:27:52.472139,-88.0
2023-08-12 14:27:52.479829,-92.0
2023-08-12 14:27:52.487519,-88.0
2023-08-12 14:27:52.495209,-88.0
2023-08-12 14:27:52.502899,-97.0
2023-08-12 14:27:52.510589,-99.0
2023-08-12 14:27:52.518279,-92.0
2023-08-12 14:27:52.525969,-88.0
2023-08-12 14:27:52.533659,-83.0
2023-08-12 14:27:52.541349,-83.0
2023-08-12 14:27:52.549039,-88.0
2023-08-12 14:27:52.556729,-85.0
2023-08-12 14:27:52.564419,-78.0
2023-08-12 14:27:52.572109,-76.0
2023-08-12 14:27:52.579799,-76.0
2023-08-12 14:27:52.587489,-80.0
2023-08-12 14:27:52.595179,-85.0
2023-08-12 14:27:52.602869,-83.0
2023-08-12 14:27:52.610559,-78.0
2023-08-12 14:27:52.618249,-83.0
2023-08-12 14:27:52.625939,-88.0
2023-08-12 14:27:52.633629,-80.0
2023-08-12 14:27:52.641319,-80.0
2023-08-12 14:27:52.649009,-83.0
2023-08-12 14:27:52.656699,-80.0
2023-08-12 14:27:52.664388,-80.0
2023-08-12 14:27:52.672078,-83.0
2023-08-12 14:27:52.679768,-83.0
2023-08-12 14:27:52.687458,-76.0
2023-08-12 14:27:52.695148,-69.0
2023-08-12 14:27:52.702838,-71.0
2023-08-12 14:27:52.710528,-69.0
2023-08-12 14:27:52.718218,-49.0
2023-08-12 14:27:52.725908,-38.0
2023-08-12 14:27:52.733598,-45.0
2023-08-12 14:27:52.741288,-59.0
2023-08-12 14:27:52.748978,-66.0
2023-08-12 14:27:52.756668,-69.0
2023-08-12 14:27:52.764358,-78.0
2023-08-12 14:27:52.772048,-92.0
2023-08-12 14:27:52.779738,-99.0
2023-08-12 14:27:52.787428,-99.0
2023-08-12 14:27:52.795118,-97.0
2023-08-12 14:27:52.802808,-90.0
2023-08-12 14:27:52.810498,-85.0
2023-08-12 14:27:52.818188,-90.0
2023-08-12 14:27:52.825878,-78.0
2023-08-12 14:27:52.833568,9.0
2023-08-12 14:27:52.841258,238.0
2023-08-12 14:27:52.848948,495.0
2023-08-12 14:27:52.856638,487.0
2023-08-12 14:27:52.864328,138.0
2023-08-12 14:27:52.872018,-173.0
2023-08-12 14:27:52.879708,-188.0
2023-08-12 14:27:52.887397,-145.0
2023-08-12 14:27:52.895087,-176.0
2023-08-12 14:27:52.902777,-126.0
2023-08-12 14:27:52.910467,-59.0
2023-08-12 14:27:52.918157,-80.0
2023-08-12 14:27:52.925847,-95.0
2023-08-12 14:27:52.933537,-71.0
2023-08-12 14:27:52.941227,-69.0
2023-08-12 14:27:52.948917,-64.0
2023-08-12 14:27:52.956607,-47.0
2023-08-12 14:27:52.964297,-42.0
2023-08-12 14:27:52.971987,-45.0
2023-08-12 14:27:52.979677,-38.0
2023-08-12 14:27:52.987367,-30.0
2023-08-12 14:27:52.995057,-21.0
2023-08-12 14:27:53.002747,-14.0
2023-08-12 14:27:53.010437,-16.0
2023-08-12 14:27:53.018127,-7.0
2023-08-12 14:27:53.025817,14.0
2023-08-12 14:27:53.033507,30.0
2023-08-12 14:27:53.041197,42.0
2023-08-12 14:27:53.048887,54.0
2023-08-12 14:27:53.056577,66.0
2023-08-12 14:27:53.064267,73.0
2023-08-12 14:27:53.071957,80.0
2023-08-12 14:27:53.079647,83.0
2023-08-12 14:27:53.087337,71.0
2023-08-12 14:27:53.095027,45.0
2023-08-12 14:27:53.102717,16.0
2023-08-12 14:27:53.110407,-11.0
2023-08-12 14:27:53.118096,-42.0
2023-08-12 14:27:53.125786,-78.0
2023-08-12 14:27:53.133476,-104.0
2023-08-12 14:27:53.141166,-121.0
2023-08-12 14:27:53.148856,-142.0
2023-08-12 14:27:53.156546,-149.0
2023-08-12 14:27:53.164236,-142.0
2023-08-12 14:27:53.171926,-140.0
2023-08-12 14:27:53.179616,-138.0
2023-08-12 14:27:53.187306,-130.0
2023-08-12 14:27:53.194996,-126.0
2023-08-12 14:27:53.202686,-126.0
2023-08-12 14:27:53.210376,-128.0
2023-08-12 14:27:53.218066,-123.0
2023-08-12 14:27:53.225756,-121.0
2023-08-12 14:27:53.233446,-114.0
2023-08-12 14:27:53.241136,-109.0
2023-08-12 14:27:53.248826,-116.0
2023-08-12 14:27:53.256516,-116.0
2023-08-12 14:27:53.264206,-104.0
2023-08-12 14:27:53.271896,-102.0
2023-08-12 14:27:53.279586,-104.0
2023-08-12 14:27:53.287276,-95.0
2023-08-12 14:27:53.294966,-85.0
2023-08-12 14:27:53.302656,-59.0
2023-08-12 14:27:53.310346,-21.0
2023-08-12 14:27:53.318036,-47.0
2023-08-12 14:27:53.325726,-109.0
2023-08-12 14:27:53.333416,-138.0
2023-08-12 14:27:53.341105,-140.0
2023-08-12 14:27:53.348795,-107.0
2023-08-12 14:27:53.356485,-69.0
2023-08-12 14:27:53.364175,-92.0
2023-08-12 14:27:53.371865,-138.0
2023-08-12 14:27:53.379555,-138.0
2023-08-12 14:27:53.387245,-90.0
2023-08-12 14:27:53.394935,-47.0
2023-08-12 14:27:53.402625,30.0
2023-08-12 14:27:53.410315,159.0
2023-08-12 14:27:53.418005,254.0
2023-08-12 14:27:53.425695,418.0
2023-08-12 14:27:53.433385,606.0
2023-08-12 14:27:53.441075,599.0
2023-08-12 14:27:53.448765,535.0
2023-08-12 14:27:53.456455,521.0
2023-08-12 14:27:53.464145,478.0
2023-08-12 14:27:53.471835,435.0
2023-08-12 14:27:53.479525,407.0
2023-08-12 14:27:53.487215,366.0
2023-08-12 14:27:53.494905,230.0
2023-08-12 14:27:53.502595,-192.0
2023-08-12 14:27:53.510285,-564.0
2023-08-12 14:27:53.517975,-442.0
2023-08-12 14:27:53.525665,-273.0
2023-08-12 14:27:53.533355,-335.0
2023-08-12 14:27:53.541045,-283.0
2023-08-12 14:27:53.548735,-152.0
2023-08-12 14:27:53.556425,-185.0
2023-08-12 14:27:53.564114,-216.0
2023-08-12 14:27:53.571804,-9.0
2023-08-12 14:27:53.579494,226.0
2023-08-12 14:27:53.587184,159.0
2023-08-12 14:27:53.594874,-80.0
2023-08-12 14:27:53.602564,-121.0
2023-08-12 14:27:53.610254,107.0
2023-08-12 14:27:53.617944,266.0
2023-08-12 14:27:53.625634,128.0
2023-08-12 14:27:53.633324,-21.0
2023-08-12 14:27:53.641014,2.0
2023-08-12 14:27:53.648704,11.0
2023-08-12 14:27:53.656394,-42.0
2023-08-12 14:27:53.664084,142.0
2023-08-12 14:27:53.671774,571.0
2023-08-12 14:27:53.679464,645.0
2023-08-12 14:27:53.687154,157.0
2023-08-12 14:27:53.694844,-388.0
2023-08-12 14:27:53.702534,-571.0
2023-08-12 14:27:53.710224,-464.0
2023-08-12 14:27:53.717914,-364.0
2023-08-12 14:27:53.725604,-342.0
2023-08-12 14:27:53.733294,-304.0
2023-08-12 14:27:53.740984,-152.0
2023-08-12 14:27:53.748674,92.0
2023-08-12 14:27:53.756364,30.0
2023-08-12 14:27:53.764054,-266.0
2023-08-12 14:27:53.771744,-295.0
2023-08-12 14:27:53.779434,-207.0
2023-08-12 14:27:53.787123,-249.0
2023-08-12 14:27:53.794813,-247.0
2023-08-12 14:27:53.802503,-192.0
2023-08-12 14:27:53.810193,-180.0
2023-08-12 14:27:53.817883,-176.0
2023-08-12 14:27:53.825573,-157.0
2023-08-12 14:27:53.833263,-145.0
2023-08-12 14:27:53.840953,-123.0
2023-08-12 14:27:53.848643,-92.0
2023-08-12 14:27:53.856333,-64.0
2023-08-12 14:27:53.864023,-47.0
2023-08-12 14:27:53.871713,-33.0
2023-08-12 14:27:53.879403,-19.0
2023-08-12 14:27:53.887093,-9.0
2023-08-12 14:27:53.894783,-9.0
2023-08-12 14:27:53.902473,-19.0
2023-08-12 14:27:53.910163,-35.0
2023-08-12 14:27:53.917853,-64.0
2023-08-12 14:27:53.925543,-95.0
2023-08-12 14:27:53.933233,-126.0
2023-08-12 14:27:53.940923,-157.0
2023-08-12 14:27:53.948613,-180.0
2023-08-12 14:27:53.956303,-185.0
2023-08-12 14:27:53.963993,-185.0
2023-08-12 14:27:53.971683,-188.0
2023-08-12 14:27:53.979373,-190.0
2023-08-12 14:27:53.987063,-185.0
2023-08-12 14:27:53.994753,-173.0
2023-08-12 14:27:54.002443,-164.0
2023-08-12 14:27:54.010133,-161.0
2023-08-12 14:27:54.017822,-152.0
2023-08-12 14:27:54.025512,-142.0
2023-08-12 14:27:54.033202,-130.0
2023-08-12 14:27:54.040892,-121.0
2023-08-12 14:27:54.048582,-114.0
2023-08-12 14:27:54.056272,-114.0
2023-08-12 14:27:54.063962,-111.0
2023-08-12 14:27:54.071652,-109.0
2023-08-12 14:27:54.079342,-107.0
2023-08-12 14:27:54.087032,-104.0
2023-08-12 14:27:54.094722,-102.0
2023-08-12 14:27:54.102412,-104.0
2023-08-12 14:27:54.110102,-102.0
2023-08-12 14:27:54.117792,-99.0
2023-08-12 14:27:54.125482,-102.0
2023-08-12 14:27:54.133172,-104.0
2023-08-12 14:27:54.140862,-104.0
2023-08-12 14:27:54.148552,-102.0
2023-08-12 14:27:54.156242,-97.0
2023-08-12 14:27:54.163932,-95.0
2023-08-12 14:27:54.171622,-99.0
2023-08-12 14:27:54.179312,-104.0
2023-08-12 14:27:54.187002,-99.0
2023-08-12 14:27:54.194692,-104.0
2023-08-12 14:27:54.202382,-107.0
2023-08-12 14:27:54.210072,-99.0
2023-08-12 14:27:54.217762,-92.0
2023-08-12 14:27:54.225452,-90.0
2023-08-12 14:27:54.233142,-88.0
2023-08-12 14:27:54.240831,-85.0
2023-08-12 14:27:54.248521,-83.0
2023-08-12 14:27:54.256211,-78.0
2023-08-12 14:27:54.263901,-80.0
2023-08-12 14:27:54.271591,-85.0
2023-08-12 14:27:54.279281,-83.0
2023-08-12 14:27:54.286971,-73.0
2023-08-12 14:27:54.294661,-59.0
2023-08-12 14:27:54.302351,-47.0
2023-08-12 14:27:54.310041,-54.0
2023-08-12 14:27:54.317731,-66.0
2023-08-12 14:27:54.325421,-59.0
2023-08-12 14:27:54.333111,-52.0
2023-08-12 14:27:54.340801,-61.0
2023-08-12 14:27:54.348491,-69.0
2023-08-12 14:27:54.356181,-69.0
2023-08-12 14:27:54.363871,-66.0
2023-08-12 14:27:54.371561,-59.0
2023-08-12 14:27:54.379251,-52.0
2023-08-12 14:27:54.386941,-52.0
2023-08-12 14:27:54.394631,-52.0
2023-08-12 14:27:54.402321,-59.0
2023-08-12 14:27:54.410011,-69.0
2023-08-12 14:27:54.417701,-69.0
2023-08-12 14:27:54.425391,-73.0
2023-08-12 14:27:54.433081,-88.0
2023-08-12 14:27:54.440771,-97.0
2023-08-12 14:27:54.448461,-102.0
2023-08-12 14:27:54.456151,-102.0
2023-08-12 14:27:54.463840,-97.0
2023-08-12 14:27:54.471530,-92.0
2023-08-12 14:27:54.479220,-92.0
2023-08-12 14:27:54.486910,-80.0
2023-08-12 14:27:54.494600,26.0
2023-08-12 14:27:54.502290,314.0
2023-08-12 14:27:54.509980,640.0
2023-08-12 14:27:54.517670,737.0
2023-08-12 14:27:54.525360,411.0
2023-08-12 14:27:54.533050,-140.0
2023-08-12 14:27:54.540740,-359.0
2023-08-12 14:27:54.548430,-216.0
2023-08-12 14:27:54.556120,-145.0
2023-08-12 14:27:54.563810,-164.0
2023-08-12 14:27:54.571500,-135.0
2023-08-12 14:27:54.579190,-114.0
2023-08-12 14:27:54.586880,-121.0
2023-08-12 14:27:54.594570,-109.0
2023-08-12 14:27:54.602260,-92.0
2023-08-12 14:27:54.609950,-88.0
2023-08-12 14:27:54.617640,-80.0
2023-08-12 14:27:54.625330,-69.0
2023-08-12 14:27:54.633020,-61.0
2023-08-12 14:27:54.640710,-54.0
2023-08-12 14:27:54.648400,-40.0
2023-08-12 14:27:54.656090,-28.0
2023-08-12 14:27:54.663780,-16.0
2023-08-12 14:27:54.671470,-4.0
2023-08-12 14:27:54.679160,-14.0
2023-08-12 14:27:54.686849,-26.0
2023-08-12 14:27:54.694539,-4.0
2023-08-12 14:27:54.702229,26.0
2023-08-12 14:27:54.709919,33.0
2023-08-12 14:27:54.717609,33.0
2023-08-12 14:27:54.725299,40.0
2023-08-12 14:27:54.732989,47.0
2023-08-12 14:27:54.740679,45.0
2023-08-12 14:27:54.748369,33.0
2023-08-12 14:27:54.756059,14.0
2023-08-12 14:27:54.763749,-11.0
2023-08-12 14:27:54.771439,-49.0
2023-08-12 14:27:54.779129,-90.0
2023-08-12 14:27:54.786819,-121.0
2023-08-12 14:27:54.794509,-145.0
2023-08-12 14:27:54.802199,-161.0
2023-08-12 14:27:54.809889,-173.0
2023-08-12 14:27:54.817579,-178.0
2023-08-12 14:27:54.825269,-178.0
2023-08-12 14:27:54.832959,-173.0
2023-08-12 14:27:54.840649,-166.0
2023-08-12 14:27:54.848339,-161.0
2023-08-12 14:27:54.856029,-157.0
2023-08-12 14:27:54.863719,-154.0
2023-08-12 14:27:54.871409,-149.0
2023-08-12 14:27:54.879099,-145.0
2023-08-12 14:27:54.886789,-140.0
2023-08-12 14:27:54.894479,-135.0
2023-08-12 14:27:54.902169,-133.0
2023-08-12 14:27:54.909859,-142.0
2023-08-12 14:27:54.917548,-145.0
2023-08-12 14:27:54.925238,-133.0
2023-08-12 14:27:54.932928,-126.0
2023-08-12 14:27:54.940618,-128.0
2023-08-12 14:27:54.948308,-128.0
2023-08-12 14:27:54.955998,-123.0
2023-08-12 14:27:54.963688,-119.0
2023-08-12 14:27:54.971378,-116.0
2023-08-12 14:27:54.979068,-111.0
2023-08-12 14:27:54.986758,-107.0
2023-08-12 14:27:54.994448,-107.0
2023-08-12 14:27:55.002138,-111.0
2023-08-12 14:27:55.009828,-109.0
2023-08-12 14:27:55.017518,-102.0
2023-08-12 14:27:55.025208,-102.0
2023-08-12 14:27:55.032898,-107.0
2023-08-12 14:27:55.040588,-107.0
2023-08-12 14:27:55.048278,-104.0
2023-08-12 14:27:55.055968,-104.0
2023-08-12 14:27:55.063658,-102.0
2023-08-12 14:27:55.071348,-95.0
2023-08-12 14:27:55.079038,-95.0
2023-08-12 14:27:55.086728,-95.0
2023-08-12 14:27:55.094418,-97.0
2023-08-12 14:27:55.102108,-97.0
2023-08-12 14:27:55.109798,-97.0
2023-08-12 14:27:55.117488,-102.0
2023-08-12 14:27:55.125178,-104.0
2023-08-12 14:27:55.132868,-99.0
2023-08-12 14:27:55.140557,-99.0
2023-08-12 14:27:55.148247,-99.0
2023-08-12 14:27:55.155937,-95.0
2023-08-12 14:27:55.163627,-90.0
2023-08-12 14:27:55.171317,-85.0
2023-08-12 14:27:55.179007,-90.0
2023-08-12 14:27:55.186697,-95.0
2023-08-12 14:27:55.194387,-92.0
2023-08-12 14:27:55.202077,-92.0
2023-08-12 14:27:55.209767,-92.0
2023-08-12 14:27:55.217457,-90.0
2023-08-12 14:27:55.225147,-90.0
2023-08-12 14:27:55.232837,-85.0
2023-08-12 14:27:55.240527,-76.0
2023-08-12 14:27:55.248217,-64.0
2023-08-12 14:27:55.255907,-57.0
2023-08-12 14:27:55.263597,-54.0
2023-08-12 14:27:55.271287,-54.0
2023-08-12 14:27:55.278977,-61.0
2023-08-12 14:27:55.286667,-64.0
2023-08-12 14:27:55.294357,-66.0
2023-08-12 14:27:55.302047,-83.0
2023-08-12 14:27:55.309737,-97.0
2023-08-12 14:27:55.317427,-107.0
2023-08-12 14:27:55.325117,-111.0
2023-08-12 14:27:55.332807,-107.0
2023-08-12 14:27:55.340497,-97.0
2023-08-12 14:27:55.348187,-92.0
2023-08-12 14:27:55.355877,-97.0
2023-08-12 14:27:55.363566,-73.0
2023-08-12 14:27:55.371256,78.0
2023-08-12 14:27:55.378946,407.0
2023-08-12 14:27:55.386636,706.0
2023-08-12 14:27:55.394326,676.0
2023-08-12 14:27:55.402016,228.0
2023-08-12 14:27:55.409706,-252.0
2023-08-12 14:27:55.417396,-318.0
2023-08-12 14:27:55.425086,-180.0
2023-08-12 14:27:55.432776,-154.0
2023-08-12 14:27:55.440466,-152.0
2023-08-12 14:27:55.448156,-121.0
2023-08-12 14:27:55.455846,-121.0
2023-08-12 14:27:55.463536,-121.0
2023-08-12 14:27:55.471226,-102.0
2023-08-12 14:27:55.478916,-90.0
2023-08-12 14:27:55.486606,-92.0
2023-08-12 14:27:55.494296,-92.0
2023-08-12 14:27:55.501986,-85.0
2023-08-12 14:27:55.509676,-73.0
2023-08-12 14:27:55.517366,-61.0
2023-08-12 14:27:55.525056,-49.0
2023-08-12 14:27:55.532746,-40.0
2023-08-12 14:27:55.540436,-30.0
2023-08-12 14:27:55.548126,-14.0
2023-08-12 14:27:55.555816,0.0
2023-08-12 14:27:55.563506,16.0
2023-08-12 14:27:55.571196,35.0
2023-08-12 14:27:55.578886,52.0
2023-08-12 14:27:55.586575,64.0
2023-08-12 14:27:55.594265,73.0
2023-08-12 14:27:55.601955,78.0
2023-08-12 14:27:55.609645,78.0
2023-08-12 14:27:55.617335,71.0
2023-08-12 14:27:55.625025,54.0
2023-08-12 14:27:55.632715,26.0
2023-08-12 14:27:55.640405,-4.0
2023-08-12 14:27:55.648095,-45.0
2023-08-12 14:27:55.655785,-83.0
2023-08-12 14:27:55.663475,-114.0
2023-08-12 14:27:55.671165,-142.0
2023-08-12 14:27:55.678855,-159.0
2023-08-12 14:27:55.686545,-166.0
2023-08-12 14:27:55.694235,-166.0
2023-08-12 14:27:55.701925,-164.0
2023-08-12 14:27:55.709615,-159.0
2023-08-12 14:27:55.717305,-159.0
2023-08-12 14:27:55.724995,-152.0
2023-08-12 14:27:55.732685,-145.0
2023-08-12 14:27:55.740375,-142.0
2023-08-12 14:27:55.748065,-138.0
2023-08-12 14:27:55.755755,-133.0
2023-08-12 14:27:55.763445,-133.0
2023-08-12 14:27:55.771135,-130.0
2023-08-12 14:27:55.778825,-123.0
2023-08-12 14:27:55.786515,-119.0
2023-08-12 14:27:55.794205,-121.0
2023-08-12 14:27:55.801895,-116.0
2023-08-12 14:27:55.809585,-111.0
2023-08-12 14:27:55.817274,-111.0
2023-08-12 14:27:55.824964,-111.0
2023-08-12 14:27:55.832654,-107.0
2023-08-12 14:27:55.840344,-102.0
2023-08-12 14:27:55.848034,-95.0
2023-08-12 14:27:55.855724,-92.0
2023-08-12 14:27:55.863414,-95.0
2023-08-12 14:27:55.871104,-97.0
2023-08-12 14:27:55.878794,-95.0
2023-08-12 14:27:55.886484,-92.0
2023-08-12 14:27:55.894174,-90.0
2023-08-12 14:27:55.901864,-90.0
2023-08-12 14:27:55.909554,-88.0
2023-08-12 14:27:55.917244,-88.0
2023-08-12 14:27:55.924934,-88.0
2023-08-12 14:27:55.932624,-85.0
2023-08-12 14:27:55.940314,-85.0
2023-08-12 14:27:55.948004,-88.0
2023-08-12 14:27:55.955694,-83.0
2023-08-12 14:27:55.963384,-78.0
2023-08-12 14:27:55.971074,-80.0
2023-08-12 14:27:55.978764,-80.0
2023-08-12 14:27:55.986454,-78.0
2023-08-12 14:27:55.994144,-78.0
2023-08-12 14:27:56.001834,-78.0
2023-08-12 14:27:56.009524,-76.0
2023-08-12 14:27:56.017214,-73.0
2023-08-12 14:27:56.024904,-73.0
2023-08-12 14:27:56.032594,-69.0
2023-08-12 14:27:56.040283,-71.0
2023-08-12 14:27:56.047973,-78.0
2023-08-12 14:27:56.055663,-76.0
2023-08-12 14:27:56.063353,-73.0
2023-08-12 14:27:56.071043,-80.0
2023-08-12 14:27:56.078733,-92.0
2023-08-12 14:27:56.086423,-92.0
2023-08-12 14:27:56.094113,-85.0
2023-08-12 14:27:56.101803,-85.0
2023-08-12 14:27:56.109493,-92.0
2023-08-12 14:27:56.117183,-92.0
2023-08-12 14:27:56.124873,-83.0
2023-08-12 14:27:56.132563,-71.0
2023-08-12 14:27:56.140253,-64.0
2023-08-12 14:27:56.147943,-54.0
2023-08-12 14:27:56.155633,-42.0
2023-08-12 14:27:56.163323,-35.0
2023-08-12 14:27:56.171013,-38.0
2023-08-12 14:27:56.178703,-47.0
2023-08-12 14:27:56.186393,-52.0
2023-08-12 14:27:56.194083,-54.0
2023-08-12 14:27:56.201773,-66.0
2023-08-12 14:27:56.209463,-80.0
2023-08-12 14:27:56.217153,-90.0
2023-08-12 14:27:56.224843,-90.0
2023-08-12 14:27:56.232533,-78.0
2023-08-12 14:27:56.240223,-76.0
2023-08-12 14:27:56.247913,-76.0
2023-08-12 14:27:56.255603,-76.0
2023-08-12 14:27:56.263292,-47.0
2023-08-12 14:27:56.270982,111.0
2023-08-12 14:27:56.278672,416.0
2023-08-12 14:27:56.286362,633.0
2023-08-12 14:27:56.294052,485.0
2023-08-12 14:27:56.301742,47.0
2023-08-12 14:27:56.309432,-247.0
2023-08-12 14:27:56.317122,-216.0
2023-08-12 14:27:56.324812,-152.0
2023-08-12 14:27:56.332502,-152.0
2023-08-12 14:27:56.340192,-102.0
2023-08-12 14:27:56.347882,-73.0
2023-08-12 14:27:56.355572,-92.0
2023-08-12 14:27:56.363262,-85.0
2023-08-12 14:27:56.370952,-66.0
2023-08-12 14:27:56.378642,-64.0
2023-08-12 14:27:56.386332,-64.0
2023-08-12 14:27:56.394022,-49.0
2023-08-12 14:27:56.401712,-40.0
2023-08-12 14:27:56.409402,-35.0
2023-08-12 14:27:56.417092,-26.0
2023-08-12 14:27:56.424782,-16.0
2023-08-12 14:27:56.432472,-9.0
2023-08-12 14:27:56.440162,2.0
2023-08-12 14:27:56.447852,14.0
2023-08-12 14:27:56.455542,26.0
2023-08-12 14:27:56.463232,38.0
2023-08-12 14:27:56.470922,54.0
2023-08-12 14:27:56.478612,66.0
2023-08-12 14:27:56.486301,73.0
2023-08-12 14:27:56.493991,83.0
2023-08-12 14:27:56.501681,90.0
2023-08-12 14:27:56.509371,85.0
2023-08-12 14:27:56.517061,78.0
2023-08-12 14:27:56.524751,64.0
2023-08-12 14:27:56.532441,35.0
2023-08-12 14:27:56.540131,7.0
2023-08-12 14:27:56.547821,-28.0
2023-08-12 14:27:56.555511,-66.0
2023-08-12 14:27:56.563201,-92.0
2023-08-12 14:27:56.570891,-107.0
2023-08-12 14:27:56.578581,-123.0
2023-08-12 14:27:56.586271,-133.0
2023-08-12 14:27:56.593961,-135.0
2023-08-12 14:27:56.601651,-135.0
2023-08-12 14:27:56.609341,-138.0
2023-08-12 14:27:56.617031,-138.0
2023-08-12 14:27:56.624721,-133.0
2023-08-12 14:27:56.632411,-126.0
2023-08-12 14:27:56.640101,-119.0
2023-08-12 14:27:56.647791,-116.0
2023-08-12 14:27:56.655481,-114.0
2023-08-12 14:27:56.663171,-109.0
2023-08-12 14:27:56.670861,-102.0
2023-08-12 14:27:56.678551,-99.0
2023-08-12 14:27:56.686241,-97.0
2023-08-12 14:27:56.693931,-92.0
2023-08-12 14:27:56.701621,-90.0
2023-08-12 14:27:56.709311,-92.0
2023-08-12 14:27:56.717000,-92.0
2023-08-12 14:27:56.724690,-90.0
2023-08-12 14:27:56.732380,-88.0
2023-08-12 14:27:56.740070,-83.0
2023-08-12 14:27:56.747760,-83.0
2023-08-12 14:27:56.755450,-92.0
2023-08-12 14:27:56.763140,-90.0
2023-08-12 14:27:56.770830,-80.0
2023-08-12 14:27:56.778520,-78.0
2023-08-12 14:27:56.786210,-78.0
2023-08-12 14:27:56.793900,-78.0
2023-08-12 14:27:56.801590,-78.0
2023-08-12 14:27:56.809280,-76.0
2023-08-12 14:27:56.816970,-71.0
2023-08-12 14:27:56.824660,-78.0
2023-08-12 14:27:56.832350,-95.0
2023-08-12 14:27:56.840040,-102.0
2023-08-12 14:27:56.847730,-99.0
2023-08-12 14:27:56.855420,-102.0
2023-08-12 14:27:56.863110,-104.0
2023-08-12 14:27:56.870800,-99.0
2023-08-12 14:27:56.878490,-97.0
2023-08-12 14:27:56.886180,-99.0
2023-08-12 14:27:56.893870,-97.0
2023-08-12 14:27:56.901560,-95.0
2023-08-12 14:27:56.909250,-95.0
2023-08-12 14:27:56.916940,-95.0
2023-08-12 14:27:56.924630,-90.0
2023-08-12 14:27:56.932320,-83.0
2023-08-12 14:27:56.940009,-80.0
2023-08-12 14:27:56.947699,-83.0
2023-08-12 14:27:56.955389,-83.0
2023-08-12 14:27:56.963079,-80.0
2023-08-12 14:27:56.970769,-80.0
2023-08-12 14:27:56.978459,-78.0
2023-08-12 14:27:56.986149,-76.0
2023-08-12 14:27:56.993839,-76.0
2023-08-12 14:27:57.001529,-71.0
2023-08-12 14:27:57.009219,-66.0
2023-08-12 14:27:57.016909,-61.0
2023-08-12 14:27:57.024599,-42.0
2023-08-12 14:27:57.032289,16.0
2023-08-12 14:27:57.039979,54.0
2023-08-12 14:27:57.047669,7.0
2023-08-12 14:27:57.055359,-42.0
2023-08-12 14:27:57.063049,-45.0
2023-08-12 14:27:57.070739,-49.0
2023-08-12 14:27:57.078429,-66.0
2023-08-12 14:27:57.086119,-78.0
2023-08-12 14:27:57.093809,-88.0
2023-08-12 14:27:57.101499,-104.0
2023-08-12 14:27:57.109189,-107.0
2023-08-12 14:27:57.116879,-97.0
2023-08-12 14:27:57.124569,-97.0
2023-08-12 14:27:57.132259,-102.0
2023-08-12 14:27:57.139949,-92.0
2023-08-12 14:27:57.147639,-73.0
2023-08-12 14:27:57.155329,23.0
2023-08-12 14:27:57.163018,261.0
2023-08-12 14:27:57.170708,478.0
2023-08-12 14:27:57.178398,364.0
2023-08-12 14:27:57.186088,-35.0
2023-08-12 14:27:57.193778,-254.0
2023-08-12 14:27:57.201468,-176.0
2023-08-12 14:27:57.209158,-154.0
2023-08-12 14:27:57.216848,-199.0
2023-08-12 14:27:57.224538,-126.0
2023-08-12 14:27:57.232228,-66.0
2023-08-12 14:27:57.239918,-97.0
2023-08-12 14:27:57.247608,-102.0
2023-08-12 14:27:57.255298,-78.0
2023-08-12 14:27:57.262988,-78.0
2023-08-12 14:27:57.270678,-73.0
2023-08-12 14:27:57.278368,-61.0
2023-08-12 14:27:57.286058,-54.0
2023-08-12 14:27:57.293748,-49.0
2023-08-12 14:27:57.301438,-40.0
2023-08-12 14:27:57.309128,-33.0
2023-08-12 14:27:57.316818,-23.0
2023-08-12 14:27:57.324508,-11.0
2023-08-12 14:27:57.332198,-4.0
2023-08-12 14:27:57.339888,4.0
2023-08-12 14:27:57.347578,19.0
2023-08-12 14:27:57.355268,38.0
2023-08-12 14:27:57.362958,49.0
2023-08-12 14:27:57.370648,59.0
2023-08-12 14:27:57.378338,66.0
2023-08-12 14:27:57.386027,73.0
2023-08-12 14:27:57.393717,76.0
2023-08-12 14:27:57.401407,64.0
2023-08-12 14:27:57.409097,49.0
2023-08-12 14:27:57.416787,33.0
2023-08-12 14:27:57.424477,7.0
2023-08-12 14:27:57.432167,-28.0
2023-08-12 14:27:57.439857,-64.0
2023-08-12 14:27:57.447547,-90.0
2023-08-12 14:27:57.455237,-107.0
2023-08-12 14:27:57.462927,-123.0
2023-08-12 14:27:57.470617,-135.0
2023-08-12 14:27:57.478307,-138.0
2023-08-12 14:27:57.485997,-140.0
2023-08-12 14:27:57.493687,-138.0
2023-08-12 14:27:57.501377,-128.0
2023-08-12 14:27:57.509067,-121.0
2023-08-12 14:27:57.516757,-119.0
2023-08-12 14:27:57.524447,-119.0
2023-08-12 14:27:57.532137,-111.0
2023-08-12 14:27:57.539827,-107.0
2023-08-12 14:27:57.547517,-109.0
2023-08-12 14:27:57.555207,-114.0
2023-08-12 14:27:57.562897,-114.0
2023-08-12 14:27:57.570587,-111.0
2023-08-12 14:27:57.578277,-107.0
2023-08-12 14:27:57.585967,-107.0
2023-08-12 14:27:57.593657,-109.0
2023-08-12 14:27:57.601347,-104.0
2023-08-12 14:27:57.609037,-102.0
2023-08-12 14:27:57.616726,-102.0
2023-08-12 14:27:57.624416,-99.0
2023-08-12 14:27:57.632106,-97.0
2023-08-12 14:27:57.639796,-99.0
2023-08-12 14:27:57.647486,-99.0
2023-08-12 14:27:57.655176,-97.0
2023-08-12 14:27:57.662866,-99.0
2023-08-12 14:27:57.670556,-95.0
2023-08-12 14:27:57.678246,-88.0
2023-08-12 14:27:57.685936,-90.0
2023-08-12 14:27:57.693626,-90.0
2023-08-12 14:27:57.701316,-88.0
2023-08-12 14:27:57.709006,-85.0
2023-08-12 14:27:57.716696,-85.0
2023-08-12 14:27:57.724386,-85.0
2023-08-12 14:27:57.732076,-85.0
2023-08-12 14:27:57.739766,-85.0
2023-08-12 14:27:57.747456,-88.0
2023-08-12 14:27:57.755146,-90.0
2023-08-12 14:27:57.762836,-88.0
2023-08-12 14:27:57.770526,-88.0
2023-08-12 14:27:57.778216,-85.0
2023-08-12 14:27:57.785906,-85.0
2023-08-12 14:27:57.793596,-85.0
2023-08-12 14:27:57.801286,-83.0
2023-08-12 14:27:57.808976,-83.0
2023-08-12 14:27:57.816666,-85.0
2023-08-12 14:27:57.824356,-80.0
2023-08-12 14:27:57.832046,-78.0
2023-08-12 14:27:57.839735,-83.0
2023-08-12 14:27:57.847425,-76.0
2023-08-12 14:27:57.855115,-71.0
2023-08-12 14:27:57.862805,-66.0
2023-08-12 14:27:57.870495,-52.0
2023-08-12 14:27:57.878185,-38.0
2023-08-12 14:27:57.885875,-40.0
2023-08-12 14:27:57.893565,-47.0
2023-08-12 14:27:57.901255,-45.0
2023-08-12 14:27:57.908945,-45.0
2023-08-12 14:27:57.916635,-57.0
2023-08-12 14:27:57.924325,-71.0
2023-08-12 14:27:57.932015,-83.0
2023-08-12 14:27:57.939705,-92.0
2023-08-12 14:27:57.947395,-90.0
2023-08-12 14:27:57.955085,-83.0
2023-08-12 14:27:57.962775,-85.0
2023-08-12 14:27:57.970465,-88.0
2023-08-12 14:27:57.978155,-83.0
2023-08-12 14:27:57.985845,-54.0
2023-08-12 14:27:57.993535,78.0
2023-08-12 14:27:58.001225,330.0
2023-08-12 14:27:58.008915,480.0
2023-08-12 14:27:58.016605,261.0
2023-08-12 14:27:58.024295,-126.0
2023-08-12 14:27:58.031985,-228.0
2023-08-12 14:27:58.039675,-133.0
2023-08-12 14:27:58.047365,-154.0
2023-08-12 14:27:58.055055,-180.0
2023-08-12 14:27:58.062744,-104.0
2023-08-12 14:27:58.070434,-73.0
2023-08-12 14:27:58.078124,-102.0
2023-08-12 14:27:58.085814,-92.0
2023-08-12 14:27:58.093504,-73.0
2023-08-12 14:27:58.101194,-76.0
2023-08-12 14:27:58.108884,-76.0
2023-08-12 14:27:58.116574,-61.0
2023-08-12 14:27:58.124264,-52.0
2023-08-12 14:27:58.131954,-47.0
2023-08-12 14:27:58.139644,-38.0
2023-08-12 14:27:58.147334,-28.0
2023-08-12 14:27:58.155024,-19.0
2023-08-12 14:27:58.162714,-7.0
2023-08-12 14:27:58.170404,2.0
2023-08-12 14:27:58.178094,9.0
2023-08-12 14:27:58.185784,21.0
2023-08-12 14:27:58.193474,38.0
2023-08-12 14:27:58.201164,59.0
2023-08-12 14:27:58.208854,71.0
2023-08-12 14:27:58.216544,73.0
2023-08-12 14:27:58.224234,73.0
2023-08-12 14:27:58.231924,66.0
2023-08-12 14:27:58.239614,52.0
2023-08-12 14:27:58.247304,38.0
2023-08-12 14:27:58.254994,26.0
2023-08-12 14:27:58.262684,0.0
2023-08-12 14:27:58.270374,-35.0
2023-08-12 14:27:58.278064,-69.0
2023-08-12 14:27:58.285753,-99.0
2023-08-12 14:27:58.293443,-116.0
2023-08-12 14:27:58.301133,-111.0
2023-08-12 14:27:58.308823,-95.0
2023-08-12 14:27:58.316513,-92.0
2023-08-12 14:27:58.324203,-128.0
2023-08-12 14:27:58.331893,-152.0
2023-08-12 14:27:58.339583,-135.0
2023-08-12 14:27:58.347273,-128.0
2023-08-12 14:27:58.354963,-130.0
2023-08-12 14:27:58.362653,-123.0
2023-08-12 14:27:58.370343,-116.0
2023-08-12 14:27:58.378033,-111.0
2023-08-12 14:27:58.385723,-102.0
2023-08-12 14:27:58.393413,-95.0
2023-08-12 14:27:58.401103,-90.0
2023-08-12 14:27:58.408793,-85.0
2023-08-12 14:27:58.416483,-92.0
2023-08-12 14:27:58.424173,-102.0
2023-08-12 14:27:58.431863,-92.0
2023-08-12 14:27:58.439553,-88.0
2023-08-12 14:27:58.447243,-92.0
2023-08-12 14:27:58.454933,-92.0
2023-08-12 14:27:58.462623,-90.0
2023-08-12 14:27:58.470313,-88.0
2023-08-12 14:27:58.478003,-83.0
2023-08-12 14:27:58.485693,-83.0
2023-08-12 14:27:58.493383,-88.0
2023-08-12 14:27:58.501073,-90.0
2023-08-12 14:27:58.508763,-90.0
2023-08-12 14:27:58.516452,-88.0
2023-08-12 14:27:58.524142,-83.0
2023-08-12 14:27:58.531832,-83.0
2023-08-12 14:27:58.539522,-83.0
2023-08-12 14:27:58.547212,-83.0
2023-08-12 14:27:58.554902,-83.0
2023-08-12 14:27:58.562592,-88.0
2023-08-12 14:27:58.570282,-90.0
2023-08-12 14:27:58.577972,-88.0
2023-08-12 14:27:58.585662,-85.0
2023-08-12 14:27:58.593352,-85.0
2023-08-12 14:27:58.601042,-83.0
2023-08-12 14:27:58.608732,-80.0
2023-08-12 14:27:58.616422,-78.0
2023-08-12 14:27:58.624112,-80.0
2023-08-12 14:27:58.631802,-80.0
2023-08-12 14:27:58.639492,-78.0
2023-08-12 14:27:58.647182,-76.0
2023-08-12 14:27:58.654872,-71.0
2023-08-12 14:27:58.662562,-66.0
2023-08-12 14:27:58.670252,-57.0
2023-08-12 14:27:58.677942,-40.0
2023-08-12 14:27:58.685632,-35.0
2023-08-12 14:27:58.693322,-45.0
2023-08-12 14:27:58.701012,-49.0
2023-08-12 14:27:58.708702,-49.0
2023-08-12 14:27:58.716392,-52.0
2023-08-12 14:27:58.724082,-57.0
2023-08-12 14:27:58.731772,-73.0
2023-08-12 14:27:58.739461,-92.0
2023-08-12 14:27:58.747151,-95.0
2023-08-12 14:27:58.754841,-88.0
2023-08-12 14:27:58.762531,-83.0
2023-08-12 14:27:58.770221,-83.0
2023-08-12 14:27:58.777911,-88.0
2023-08-12 14:27:58.785601,-92.0
2023-08-12 14:27:58.793291,-59.0
2023-08-12 14:27:58.800981,88.0
2023-08-12 14:27:58.808671,342.0
2023-08-12 14:27:58.816361,490.0
2023-08-12 14:27:58.824051,288.0
2023-08-12 14:27:58.831741,-95.0
2023-08-12 14:27:58.839431,-230.0
2023-08-12 14:27:58.847121,-161.0
2023-08-12 14:27:58.854811,-169.0
2023-08-12 14:27:58.862501,-171.0
2023-08-12 14:27:58.870191,-107.0
2023-08-12 14:27:58.877881,-102.0
2023-08-12 14:27:58.885571,-121.0
2023-08-12 14:27:58.893261,-99.0
2023-08-12 14:27:58.900951,-88.0
2023-08-12 14:27:58.908641,-97.0
2023-08-12 14:27:58.916331,-95.0
2023-08-12 14:27:58.924021,-85.0
2023-08-12 14:27:58.931711,-78.0
2023-08-12 14:27:58.939401,-69.0
2023-08-12 14:27:58.947091,-57.0
2023-08-12 14:27:58.954781,-54.0
2023-08-12 14:27:58.962470,-52.0
2023-08-12 14:27:58.970160,-42.0
2023-08-12 14:27:58.977850,-28.0
2023-08-12 14:27:58.985540,-9.0
2023-08-12 14:27:58.993230,7.0
2023-08-12 14:27:59.000920,16.0
2023-08-12 14:27:59.008610,26.0
2023-08-12 14:27:59.016300,42.0
2023-08-12 14:27:59.023990,52.0
2023-08-12 14:27:59.031680,52.0
2023-08-12 14:27:59.039370,47.0
2023-08-12 14:27:59.047060,38.0
2023-08-12 14:27:59.054750,21.0
2023-08-12 14:27:59.062440,0.0
2023-08-12 14:27:59.070130,-35.0
2023-08-12 14:27:59.077820,-71.0
2023-08-12 14:27:59.085510,-102.0
2023-08-12 14:27:59.093200,-128.0
2023-08-12 14:27:59.100890,-147.0
2023-08-12 14:27:59.108580,-161.0
2023-08-12 14:27:59.116270,-164.0
2023-08-12 14:27:59.123960,-159.0
2023-08-12 14:27:59.131650,-154.0
2023-08-12 14:27:59.139340,-154.0
2023-08-12 14:27:59.147030,-152.0
2023-08-12 14:27:59.154720,-147.0
2023-08-12 14:27:59.162410,-138.0
2023-08-12 14:27:59.170100,-133.0
2023-08-12 14:27:59.177790,-126.0
2023-08-12 14:27:59.185479,-121.0
2023-08-12 14:27:59.193169,-123.0
2023-08-12 14:27:59.200859,-121.0
2023-08-12 14:27:59.208549,-114.0
2023-08-12 14:27:59.216239,-107.0
2023-08-12 14:27:59.223929,-107.0
2023-08-12 14:27:59.231619,-107.0
2023-08-12 14:27:59.239309,-104.0
2023-08-12 14:27:59.246999,-99.0
2023-08-12 14:27:59.254689,-95.0
2023-08-12 14:27:59.262379,-97.0
2023-08-12 14:27:59.270069,-99.0
2023-08-12 14:27:59.277759,-97.0
2023-08-12 14:27:59.285449,-95.0
2023-08-12 14:27:59.293139,-95.0
2023-08-12 14:27:59.300829,-95.0
2023-08-12 14:27:59.308519,-92.0
2023-08-12 14:27:59.316209,-95.0
2023-08-12 14:27:59.323899,-97.0
2023-08-12 14:27:59.331589,-95.0
2023-08-12 14:27:59.339279,-92.0
2023-08-12 14:27:59.346969,-92.0
2023-08-12 14:27:59.354659,-90.0
2023-08-12 14:27:59.362349,-85.0
2023-08-12 14:27:59.370039,-85.0
2023-08-12 14:27:59.377729,-90.0
2023-08-12 14:27:59.385419,-88.0
2023-08-12 14:27:59.393109,-80.0
2023-08-12 14:27:59.400799,-83.0
2023-08-12 14:27:59.408489,-92.0
2023-08-12 14:27:59.416178,-95.0
2023-08-12 14:27:59.423868,-88.0
2023-08-12 14:27:59.431558,-85.0
2023-08-12 14:27:59.439248,-88.0
2023-08-12 14:27:59.446938,-83.0
2023-08-12 14:27:59.454628,-78.0
2023-08-12 14:27:59.462318,-73.0
2023-08-12 14:27:59.470008,-61.0
2023-08-12 14:27:59.477698,-42.0
2023-08-12 14:27:59.485388,-38.0
2023-08-12 14:27:59.493078,-47.0
2023-08-12 14:27:59.500768,-61.0
2023-08-12 14:27:59.508458,-69.0
2023-08-12 14:27:59.516148,-66.0
2023-08-12 14:27:59.523838,-73.0
2023-08-12 14:27:59.531528,-92.0
2023-08-12 14:27:59.539218,-107.0
2023-08-12 14:27:59.546908,-109.0
2023-08-12 14:27:59.554598,-99.0
2023-08-12 14:27:59.562288,-95.0
2023-08-12 14:27:59.569978,-102.0
2023-08-12 14:27:59.577668,-107.0
2023-08-12 14:27:59.585358,-99.0
2023-08-12 14:27:59.593048,-45.0
2023-08-12 14:27:59.600738,133.0
2023-08-12 14:27:59.608428,397.0
2023-08-12 14:27:59.616118,464.0
2023-08-12 14:27:59.623808,147.0
2023-08-12 14:27:59.631498,-214.0
2023-08-12 14:27:59.639187,-235.0
2023-08-12 14:27:59.646877,-152.0
2023-08-12 14:27:59.654567,-195.0
2023-08-12 14:27:59.662257,-176.0
2023-08-12 14:27:59.669947,-88.0
2023-08-12 14:27:59.677637,-88.0
2023-08-12 14:27:59.685327,-114.0
2023-08-12 14:27:59.693017,-95.0
2023-08-12 14:27:59.700707,-78.0
2023-08-12 14:27:59.708397,-76.0
2023-08-12 14:27:59.716087,-69.0
2023-08-12 14:27:59.723777,-64.0
2023-08-12 14:27:59.731467,-59.0
2023-08-12 14:27:59.739157,-47.0
2023-08-12 14:27:59.746847,-42.0
2023-08-12 14:27:59.754537,-38.0
2023-08-12 14:27:59.762227,-23.0
2023-08-12 14:27:59.769917,-14.0
2023-08-12 14:27:59.777607,-2.0
2023-08-12 14:27:59.785297,16.0
2023-08-12 14:27:59.792987,30.0
2023-08-12 14:27:59.800677,38.0
2023-08-12 14:27:59.808367,52.0
2023-08-12 14:27:59.816057,66.0
2023-08-12 14:27:59.823747,73.0
2023-08-12 14:27:59.831437,73.0
2023-08-12 14:27:59.839127,66.0
2023-08-12 14:27:59.846817,54.0
2023-08-12 14:27:59.854507,38.0
2023-08-12 14:27:59.862196,9.0
2023-08-12 14:27:59.869886,-23.0
2023-08-12 14:27:59.877576,-54.0
2023-08-12 14:27:59.885266,-88.0
2023-08-12 14:27:59.892956,-116.0
2023-08-12 14:27:59.900646,-135.0
2023-08-12 14:27:59.908336,-145.0
2023-08-12 14:27:59.916026,-147.0
2023-08-12 14:27:59.923716,-142.0
2023-08-12 14:27:59.931406,-135.0
2023-08-12 14:27:59.939096,-138.0
2023-08-12 14:27:59.946786,-135.0
2023-08-12 14:27:59.954476,-126.0
2023-08-12 14:27:59.962166,-116.0
2023-08-12 14:27:59.969856,-114.0
2023-08-12 14:27:59.977546,-114.0
2023-08-12 14:27:59.985236,-114.0
2023-08-12 14:27:59.992926,-114.0
2023-08-12 14:28:00.000616,-114.0
2023-08-12 14:28:00.008306,-104.0
2023-08-12 14:28:00.015996,-97.0
2023-08-12 14:28:00.023686,-97.0
2023-08-12 14:28:00.031376,-99.0
2023-08-12 14:28:00.039066,-97.0
2023-08-12 14:28:00.046756,-97.0
2023-08-12 14:28:00.054446,-97.0
2023-08-12 14:28:00.062136,-92.0
2023-08-12 14:28:00.069826,-92.0
2023-08-12 14:28:00.077516,-107.0
2023-08-12 14:28:00.085205,-107.0
2023-08-12 14:28:00.092895,-92.0
2023-08-12 14:28:00.100585,-90.0
2023-08-12 14:28:00.108275,-92.0
2023-08-12 14:28:00.115965,-90.0
2023-08-12 14:28:00.123655,-90.0
2023-08-12 14:28:00.131345,-92.0
2023-08-12 14:28:00.139035,-90.0
2023-08-12 14:28:00.146725,-85.0
2023-08-12 14:28:00.154415,-80.0
2023-08-12 14:28:00.162105,-76.0
2023-08-12 14:28:00.169795,-76.0
2023-08-12 14:28:00.177485,-76.0
2023-08-12 14:28:00.185175,-71.0
2023-08-12 14:28:00.192865,-69.0
2023-08-12 14:28:00.200555,-73.0
2023-08-12 14:28:00.208245,-76.0
2023-08-12 14:28:00.215935,-71.0
2023-08-12 14:28:00.223625,-69.0
2023-08-12 14:28:00.231315,-66.0
2023-08-12 14:28:00.239005,-61.0
2023-08-12 14:28:00.246695,-49.0
2023-08-12 14:28:00.254385,-42.0
2023-08-12 14:28:00.262075,-30.0
2023-08-12 14:28:00.269765,-19.0
2023-08-12 14:28:00.277455,-21.0
2023-08-12 14:28:00.285145,-30.0
2023-08-12 14:28:00.292835,-40.0
2023-08-12 14:28:00.300525,-42.0
2023-08-12 14:28:00.308215,-54.0
2023-08-12 14:28:00.315904,-69.0
2023-08-12 14:28:00.323594,-76.0
2023-08-12 14:28:00.331284,-83.0
2023-08-12 14:28:00.338974,-88.0
2023-08-12 14:28:00.346664,-78.0
2023-08-12 14:28:00.354354,-73.0
2023-08-12 14:28:00.362044,-71.0
2023-08-12 14:28:00.369734,-73.0
2023-08-12 14:28:00.377424,-59.0
2023-08-12 14:28:00.385114,54.0
2023-08-12 14:28:00.392804,304.0
2023-08-12 14:28:00.400494,502.0
2023-08-12 14:28:00.408184,373.0
2023-08-12 14:28:00.415874,-9.0
2023-08-12 14:28:00.423564,-207.0
2023-08-12 14:28:00.431254,-138.0
2023-08-12 14:28:00.438944,-128.0
2023-08-12 14:28:00.446634,-169.0
2023-08-12 14:28:00.454324,-99.0
2023-08-12 14:28:00.462014,-54.0
2023-08-12 14:28:00.469704,-85.0
2023-08-12 14:28:00.477394,-78.0
2023-08-12 14:28:00.485084,-54.0
2023-08-12 14:28:00.492774,-61.0
2023-08-12 14:28:00.500464,-59.0
2023-08-12 14:28:00.508154,-45.0
2023-08-12 14:28:00.515844,-42.0
2023-08-12 14:28:00.523534,-40.0
2023-08-12 14:28:00.531224,-23.0
2023-08-12 14:28:00.538913,-23.0
2023-08-12 14:28:00.546603,-23.0
2023-08-12 14:28:00.554293,-9.0
2023-08-12 14:28:00.561983,2.0
2023-08-12 14:28:00.569673,11.0
2023-08-12 14:28:00.577363,26.0
2023-08-12 14:28:00.585053,35.0
2023-08-12 14:28:00.592743,45.0
2023-08-12 14:28:00.600433,59.0
2023-08-12 14:28:00.608123,73.0
2023-08-12 14:28:00.615813,78.0
2023-08-12 14:28:00.623503,69.0
2023-08-12 14:28:00.631193,47.0
2023-08-12 14:28:00.638883,33.0
2023-08-12 14:28:00.646573,19.0
2023-08-12 14:28:00.654263,-9.0
2023-08-12 14:28:00.661953,-47.0
2023-08-12 14:28:00.669643,-80.0
2023-08-12 14:28:00.677333,-107.0
2023-08-12 14:28:00.685023,-128.0
2023-08-12 14:28:00.692713,-142.0
2023-08-12 14:28:00.700403,-142.0
2023-08-12 14:28:00.708093,-140.0
2023-08-12 14:28:00.715783,-145.0
2023-08-12 14:28:00.723473,-140.0
2023-08-12 14:28:00.731163,-135.0
2023-08-12 14:28:00.738853,-128.0
2023-08-12 14:28:00.746543,-119.0
2023-08-12 14:28:00.754233,-119.0
2023-08-12 14:28:00.761922,-123.0
2023-08-12 14:28:00.769612,-116.0
2023-08-12 14:28:00.777302,-109.0
2023-08-12 14:28:00.784992,-109.0
2023-08-12 14:28:00.792682,-104.0
2023-08-12 14:28:00.800372,-102.0
2023-08-12 14:28:00.808062,-102.0
2023-08-12 14:28:00.815752,-99.0
2023-08-12 14:28:00.823442,-95.0
2023-08-12 14:28:00.831132,-90.0
2023-08-12 14:28:00.838822,-90.0
2023-08-12 14:28:00.846512,-90.0
2023-08-12 14:28:00.854202,-90.0
2023-08-12 14:28:00.861892,-92.0
2023-08-12 14:28:00.869582,-88.0
2023-08-12 14:28:00.877272,-83.0
2023-08-12 14:28:00.884962,-80.0
2023-08-12 14:28:00.892652,-85.0
2023-08-12 14:28:00.900342,-85.0
2023-08-12 14:28:00.908032,-80.0
2023-08-12 14:28:00.915722,-80.0
2023-08-12 14:28:00.923412,-88.0
2023-08-12 14:28:00.931102,-85.0
2023-08-12 14:28:00.938792,-76.0
2023-08-12 14:28:00.946482,-78.0
2023-08-12 14:28:00.954172,-80.0
2023-08-12 14:28:00.961862,-73.0
2023-08-12 14:28:00.969552,-69.0
2023-08-12 14:28:00.977242,-71.0
2023-08-12 14:28:00.984931,-73.0
2023-08-12 14:28:00.992621,-71.0
2023-08-12 14:28:01.000311,-69.0
2023-08-12 14:28:01.008001,-69.0
2023-08-12 14:28:01.015691,-71.0
2023-08-12 14:28:01.023381,-69.0
2023-08-12 14:28:01.031071,-61.0
2023-08-12 14:28:01.038761,-54.0
2023-08-12 14:28:01.046451,-49.0
2023-08-12 14:28:01.054141,-28.0
2023-08-12 14:28:01.061831,-16.0
2023-08-12 14:28:01.069521,-23.0
2023-08-12 14:28:01.077211,-35.0
2023-08-12 14:28:01.084901,-49.0
2023-08-12 14:28:01.092591,-52.0
2023-08-12 14:28:01.100281,-49.0
2023-08-12 14:28:01.107971,-64.0
2023-08-12 14:28:01.115661,-85.0
2023-08-12 14:28:01.123351,-97.0
2023-08-12 14:28:01.131041,-95.0
2023-08-12 14:28:01.138731,-88.0
2023-08-12 14:28:01.146421,-85.0
2023-08-12 14:28:01.154111,-80.0
2023-08-12 14:28:01.161801,-83.0
2023-08-12 14:28:01.169491,-66.0
2023-08-12 14:28:01.177181,57.0
2023-08-12 14:28:01.184871,309.0
2023-08-12 14:28:01.192561,499.0
2023-08-12 14:28:01.200251,354.0
2023-08-12 14:28:01.207941,-38.0
2023-08-12 14:28:01.215630,-226.0
2023-08-12 14:28:01.223320,-152.0
2023-08-12 14:28:01.231010,-145.0
2023-08-12 14:28:01.238700,-176.0
2023-08-12 14:28:01.246390,-104.0
2023-08-12 14:28:01.254080,-66.0
2023-08-12 14:28:01.261770,-90.0
2023-08-12 14:28:01.269460,-83.0
2023-08-12 14:28:01.277150,-69.0
2023-08-12 14:28:01.284840,-71.0
2023-08-12 14:28:01.292530,-66.0
2023-08-12 14:28:01.300220,-54.0
2023-08-12 14:28:01.307910,-47.0
2023-08-12 14:28:01.315600,-45.0
2023-08-12 14:28:01.323290,-40.0
2023-08-12 14:28:01.330980,-28.0
2023-08-12 14:28:01.338670,-23.0
2023-08-12 14:28:01.346360,-23.0
2023-08-12 14:28:01.354050,-11.0
2023-08-12 14:28:01.361740,7.0
2023-08-12 14:28:01.369430,19.0
2023-08-12 14:28:01.377120,33.0
2023-08-12 14:28:01.384810,49.0
2023-08-12 14:28:01.392500,61.0
2023-08-12 14:28:01.400190,69.0
2023-08-12 14:28:01.407880,66.0
2023-08-12 14:28:01.415570,64.0
2023-08-12 14:28:01.423260,57.0
2023-08-12 14:28:01.430950,42.0
2023-08-12 14:28:01.438639,16.0
2023-08-12 14:28:01.446329,-16.0
2023-08-12 14:28:01.454019,-49.0
2023-08-12 14:28:01.461709,-83.0
2023-08-12 14:28:01.469399,-111.0
2023-08-12 14:28:01.477089,-133.0
2023-08-12 14:28:01.484779,-142.0
2023-08-12 14:28:01.492469,-142.0
2023-08-12 14:28:01.500159,-145.0
2023-08-12 14:28:01.507849,-145.0
2023-08-12 14:28:01.515539,-138.0
2023-08-12 14:28:01.523229,-135.0
2023-08-12 14:28:01.530919,-130.0
2023-08-12 14:28:01.538609,-126.0
2023-08-12 14:28:01.546299,-123.0
2023-08-12 14:28:01.553989,-121.0
2023-08-12 14:28:01.561679,-114.0
2023-08-12 14:28:01.569369,-114.0
2023-08-12 14:28:01.577059,-114.0
2023-08-12 14:28:01.584749,-104.0
2023-08-12 14:28:01.592439,-104.0
2023-08-12 14:28:01.600129,-109.0
2023-08-12 14:28:01.607819,-102.0
2023-08-12 14:28:01.615509,-97.0
2023-08-12 14:28:01.623199,-99.0
2023-08-12 14:28:01.630889,-95.0
2023-08-12 14:28:01.638579,-85.0
2023-08-12 14:28:01.646269,-90.0
2023-08-12 14:28:01.653959,-104.0
2023-08-12 14:28:01.661648,-107.0
2023-08-12 14:28:01.669338,-99.0
2023-08-12 14:28:01.677028,-92.0
2023-08-12 14:28:01.684718,-97.0
2023-08-12 14:28:01.692408,-97.0
2023-08-12 14:28:01.700098,-92.0
2023-08-12 14:28:01.707788,-90.0
2023-08-12 14:28:01.715478,-90.0
2023-08-12 14:28:01.723168,-90.0
2023-08-12 14:28:01.730858,-92.0
2023-08-12 14:28:01.738548,-88.0
2023-08-12 14:28:01.746238,-85.0
2023-08-12 14:28:01.753928,-85.0
2023-08-12 14:28:01.761618,-85.0
2023-08-12 14:28:01.769308,-85.0
2023-08-12 14:28:01.776998,-85.0
2023-08-12 14:28:01.784688,-83.0
2023-08-12 14:28:01.792378,-80.0
2023-08-12 14:28:01.800068,-80.0
2023-08-12 14:28:01.807758,-78.0
2023-08-12 14:28:01.815448,-76.0
2023-08-12 14:28:01.823138,-76.0
2023-08-12 14:28:01.830828,-73.0
2023-08-12 14:28:01.838518,-69.0
2023-08-12 14:28:01.846208,-49.0
2023-08-12 14:28:01.853898,-26.0
2023-08-12 14:28:01.861588,-26.0
2023-08-12 14:28:01.869278,-38.0
2023-08-12 14:28:01.876968,-42.0
2023-08-12 14:28:01.884657,-45.0
2023-08-12 14:28:01.892347,-47.0
2023-08-12 14:28:01.900037,-54.0
2023-08-12 14:28:01.907727,-69.0
2023-08-12 14:28:01.915417,-76.0
2023-08-12 14:28:01.923107,-80.0
2023-08-12 14:28:01.930797,-80.0
2023-08-12 14:28:01.938487,-78.0
2023-08-12 14:28:01.946177,-78.0
2023-08-12 14:28:01.953867,-78.0
2023-08-12 14:28:01.961557,-78.0
2023-08-12 14:28:01.969247,-38.0
2023-08-12 14:28:01.976937,116.0
2023-08-12 14:28:01.984627,383.0
2023-08-12 14:28:01.992317,542.0
2023-08-12 14:28:02.000007,352.0
2023-08-12 14:28:02.007697,-40.0
2023-08-12 14:28:02.015387,-214.0
2023-08-12 14:28:02.023077,-157.0
2023-08-12 14:28:02.030767,-152.0
2023-08-12 14:28:02.038457,-152.0
2023-08-12 14:28:02.046147,-85.0
2023-08-12 14:28:02.053837,-73.0
2023-08-12 14:28:02.061527,-97.0
2023-08-12 14:28:02.069217,-80.0
2023-08-12 14:28:02.076907,-66.0
2023-08-12 14:28:02.084597,-73.0
2023-08-12 14:28:02.092287,-69.0
2023-08-12 14:28:02.099977,-64.0
2023-08-12 14:28:02.107667,-61.0
2023-08-12 14:28:02.115356,-49.0
2023-08-12 14:28:02.123046,-38.0
2023-08-12 14:28:02.130736,-33.0
2023-08-12 14:28:02.138426,-21.0
2023-08-12 14:28:02.146116,-9.0
2023-08-12 14:28:02.153806,-2.0
2023-08-12 14:28:02.161496,11.0
2023-08-12 14:28:02.169186,30.0
2023-08-12 14:28:02.176876,47.0
2023-08-12 14:28:02.184566,64.0
2023-08-12 14:28:02.192256,76.0
2023-08-12 14:28:02.199946,78.0
2023-08-12 14:28:02.207636,76.0
2023-08-12 14:28:02.215326,71.0
2023-08-12 14:28:02.223016,59.0
2023-08-12 14:28:02.230706,40.0
2023-08-12 14:28:02.238396,7.0
2023-08-12 14:28:02.246086,-40.0
2023-08-12 14:28:02.253776,-85.0
2023-08-12 14:28:02.261466,-114.0
2023-08-12 14:28:02.269156,-140.0
2023-08-12 14:28:02.276846,-161.0
2023-08-12 14:28:02.284536,-176.0
2023-08-12 14:28:02.292226,-183.0
2023-08-12 14:28:02.299916,-180.0
2023-08-12 14:28:02.307606,-173.0
2023-08-12 14:28:02.315296,-169.0
2023-08-12 14:28:02.322986,-166.0
2023-08-12 14:28:02.330676,-164.0
2023-08-12 14:28:02.338365,-166.0
2023-08-12 14:28:02.346055,-161.0
2023-08-12 14:28:02.353745,-152.0
2023-08-12 14:28:02.361435,-147.0
2023-08-12 14:28:02.369125,-145.0
2023-08-12 14:28:02.376815,-140.0
2023-08-12 14:28:02.384505,-138.0
2023-08-12 14:28:02.392195,-133.0
2023-08-12 14:28:02.399885,-126.0
2023-08-12 14:28:02.407575,-121.0
2023-08-12 14:28:02.415265,-119.0
2023-08-12 14:28:02.422955,-114.0
2023-08-12 14:28:02.430645,-111.0
2023-08-12 14:28:02.438335,-109.0
2023-08-12 14:28:02.446025,-107.0
2023-08-12 14:28:02.453715,-107.0
2023-08-12 14:28:02.461405,-104.0
2023-08-12 14:28:02.469095,-102.0
2023-08-12 14:28:02.476785,-99.0
2023-08-12 14:28:02.484475,-95.0
2023-08-12 14:28:02.492165,-95.0
2023-08-12 14:28:02.499855,-92.0
2023-08-12 14:28:02.507545,-90.0
2023-08-12 14:28:02.515235,-90.0
2023-08-12 14:28:02.522925,-92.0
2023-08-12 14:28:02.530615,-88.0
2023-08-12 14:28:02.538305,-85.0
2023-08-12 14:28:02.545995,-85.0
2023-08-12 14:28:02.553685,-80.0
2023-08-12 14:28:02.561374,-83.0
2023-08-12 14:28:02.569064,-85.0
2023-08-12 14:28:02.576754,-78.0
2023-08-12 14:28:02.584444,-71.0
2023-08-12 14:28:02.592134,-73.0
2023-08-12 14:28:02.599824,-78.0
2023-08-12 14:28:02.607514,-78.0
2023-08-12 14:28:02.615204,-76.0
2023-08-12 14:28:02.622894,-73.0
2023-08-12 14:28:02.630584,-69.0
2023-08-12 14:28:02.638274,-61.0
2023-08-12 14:28:02.645964,-57.0
2023-08-12 14:28:02.653654,-45.0
2023-08-12 14:28:02.661344,-28.0
2023-08-12 14:28:02.669034,-28.0
2023-08-12 14:28:02.676724,-33.0
2023-08-12 14:28:02.684414,-35.0
2023-08-12 14:28:02.692104,-40.0
2023-08-12 14:28:02.699794,-42.0
2023-08-12 14:28:02.707484,-52.0
2023-08-12 14:28:02.715174,-64.0
2023-08-12 14:28:02.722864,-76.0
2023-08-12 14:28:02.730554,-80.0
2023-08-12 14:28:02.738244,-76.0
2023-08-12 14:28:02.745934,-73.0
2023-08-12 14:28:02.753624,-78.0
2023-08-12 14:28:02.761314,-80.0
2023-08-12 14:28:02.769004,-76.0
2023-08-12 14:28:02.776694,-26.0
2023-08-12 14:28:02.784383,142.0
2023-08-12 14:28:02.792073,407.0
2023-08-12 14:28:02.799763,518.0
2023-08-12 14:28:02.807453,273.0
2023-08-12 14:28:02.815143,-102.0
2023-08-12 14:28:02.822833,-216.0
2023-08-12 14:28:02.830523,-161.0
2023-08-12 14:28:02.838213,-173.0
2023-08-12 14:28:02.845903,-157.0
2023-08-12 14:28:02.853593,-92.0
2023-08-12 14:28:02.861283,-92.0
2023-08-12 14:28:02.868973,-109.0
2023-08-12 14:28:02.876663,-90.0
2023-08-12 14:28:02.884353,-73.0
2023-08-12 14:28:02.892043,-76.0
2023-08-12 14:28:02.899733,-69.0
2023-08-12 14:28:02.907423,-59.0
2023-08-12 14:28:02.915113,-54.0
2023-08-12 14:28:02.922803,-45.0
2023-08-12 14:28:02.930493,-35.0
2023-08-12 14:28:02.938183,-28.0
2023-08-12 14:28:02.945873,-19.0
2023-08-12 14:28:02.953563,-7.0
2023-08-12 14:28:02.961253,0.0
2023-08-12 14:28:02.968943,9.0
2023-08-12 14:28:02.976633,28.0
2023-08-12 14:28:02.984323,47.0
2023-08-12 14:28:02.992013,57.0
2023-08-12 14:28:02.999703,66.0
2023-08-12 14:28:03.007393,76.0
2023-08-12 14:28:03.015082,80.0
2023-08-12 14:28:03.022772,78.0
2023-08-12 14:28:03.030462,64.0
2023-08-12 14:28:03.038152,45.0
2023-08-12 14:28:03.045842,19.0
2023-08-12 14:28:03.053532,-23.0
2023-08-12 14:28:03.061222,-64.0
2023-08-12 14:28:03.068912,-95.0
2023-08-12 14:28:03.076602,-116.0
2023-08-12 14:28:03.084292,-135.0
2023-08-12 14:28:03.091982,-142.0
2023-08-12 14:28:03.099672,-145.0
2023-08-12 14:28:03.107362,-149.0
2023-08-12 14:28:03.115052,-152.0
2023-08-12 14:28:03.122742,-149.0
2023-08-12 14:28:03.130432,-147.0
2023-08-12 14:28:03.138122,-145.0
2023-08-12 14:28:03.145812,-138.0
2023-08-12 14:28:03.153502,-128.0
2023-08-12 14:28:03.161192,-126.0
2023-08-12 14:28:03.168882,-126.0
2023-08-12 14:28:03.176572,-123.0
2023-08-12 14:28:03.184262,-121.0
2023-08-12 14:28:03.191952,-116.0
2023-08-12 14:28:03.199642,-109.0
2023-08-12 14:28:03.207332,-107.0
2023-08-12 14:28:03.215022,-107.0
2023-08-12 14:28:03.222712,-102.0
2023-08-12 14:28:03.230402,-97.0
2023-08-12 14:28:03.238091,-97.0
2023-08-12 14:28:03.245781,-95.0
2023-08-12 14:28:03.253471,-95.0
2023-08-12 14:28:03.261161,-92.0
2023-08-12 14:28:03.268851,-90.0
2023-08-12 14:28:03.276541,-90.0
2023-08-12 14:28:03.284231,-92.0
2023-08-12 14:28:03.291921,-92.0
2023-08-12 14:28:03.299611,-92.0
2023-08-12 14:28:03.307301,-95.0
2023-08-12 14:28:03.314991,-92.0
2023-08-12 14:28:03.322681,-88.0
2023-08-12 14:28:03.330371,-85.0
2023-08-12 14:28:03.338061,-85.0
2023-08-12 14:28:03.345751,-85.0
2023-08-12 14:28:03.353441,-83.0
2023-08-12 14:28:03.361131,-83.0
2023-08-12 14:28:03.368821,-85.0
2023-08-12 14:28:03.376511,-88.0
2023-08-12 14:28:03.384201,-83.0
2023-08-12 14:28:03.391891,-83.0
2023-08-12 14:28:03.399581,-85.0
2023-08-12 14:28:03.407271,-80.0
2023-08-12 14:28:03.414961,-78.0
2023-08-12 14:28:03.422651,-80.0
2023-08-12 14:28:03.430341,-76.0
2023-08-12 14:28:03.438031,-71.0
2023-08-12 14:28:03.445721,-76.0
2023-08-12 14:28:03.453411,-76.0
2023-08-12 14:28:03.461100,-71.0
2023-08-12 14:28:03.468790,-69.0
2023-08-12 14:28:03.476480,-69.0
2023-08-12 14:28:03.484170,-69.0
2023-08-12 14:28:03.491860,-69.0
2023-08-12 14:28:03.499550,-69.0
2023-08-12 14:28:03.507240,-64.0
2023-08-12 14:28:03.514930,-54.0
2023-08-12 14:28:03.522620,-47.0
2023-08-12 14:28:03.530310,-45.0
2023-08-12 14:28:03.538000,-35.0
2023-08-12 14:28:03.545690,-26.0
2023-08-12 14:28:03.553380,-21.0
2023-08-12 14:28:03.561070,-16.0
2023-08-12 14:28:03.568760,-19.0
2023-08-12 14:28:03.576450,-26.0
2023-08-12 14:28:03.584140,-28.0
2023-08-12 14:28:03.591830,-35.0
2023-08-12 14:28:03.599520,-49.0
2023-08-12 14:28:03.607210,-66.0
2023-08-12 14:28:03.614900,-73.0
2023-08-12 14:28:03.622590,-71.0
2023-08-12 14:28:03.630280,-61.0
2023-08-12 14:28:03.637970,-59.0
2023-08-12 14:28:03.645660,-64.0
2023-08-12 14:28:03.653350,-64.0
2023-08-12 14:28:03.661040,-14.0
2023-08-12 14:28:03.668730,161.0
2023-08-12 14:28:03.676420,426.0
2023-08-12 14:28:03.684109,542.0
2023-08-12 14:28:03.691799,309.0
2023-08-12 14:28:03.699489,-66.0
2023-08-12 14:28:03.707179,-195.0
2023-08-12 14:28:03.714869,-140.0
2023-08-12 14:28:03.722559,-147.0
2023-08-12 14:28:03.730249,-133.0
2023-08-12 14:28:03.737939,-73.0
2023-08-12 14:28:03.745629,-76.0
2023-08-12 14:28:03.753319,-92.0
2023-08-12 14:28:03.761009,-71.0
2023-08-12 14:28:03.768699,-61.0
2023-08-12 14:28:03.776389,-66.0
2023-08-12 14:28:03.784079,-57.0
2023-08-12 14:28:03.791769,-49.0
2023-08-12 14:28:03.799459,-47.0
2023-08-12 14:28:03.807149,-40.0
2023-08-12 14:28:03.814839,-30.0
2023-08-12 14:28:03.822529,-23.0
2023-08-12 14:28:03.830219,-11.0
2023-08-12 14:28:03.837909,-2.0
2023-08-12 14:28:03.845599,9.0
2023-08-12 14:28:03.853289,23.0
2023-08-12 14:28:03.860979,35.0
2023-08-12 14:28:03.868669,47.0
2023-08-12 14:28:03.876359,59.0
2023-08-12 14:28:03.884049,71.0
2023-08-12 14:28:03.891739,78.0
2023-08-12 14:28:03.899429,78.0
2023-08-12 14:28:03.907119,66.0
2023-08-12 14:28:03.914808,47.0
2023-08-12 14:28:03.922498,33.0
2023-08-12 14:28:03.930188,7.0
2023-08-12 14:28:03.937878,-33.0
2023-08-12 14:28:03.945568,-71.0
2023-08-12 14:28:03.953258,-104.0
2023-08-12 14:28:03.960948,-133.0
2023-08-12 14:28:03.968638,-149.0
2023-08-12 14:28:03.976328,-157.0
2023-08-12 14:28:03.984018,-161.0
2023-08-12 14:28:03.991708,-166.0
2023-08-12 14:28:03.999398,-166.0
2023-08-12 14:28:04.007088,-159.0
2023-08-12 14:28:04.014778,-154.0
2023-08-12 14:28:04.022468,-149.0
2023-08-12 14:28:04.030158,-142.0
2023-08-12 14:28:04.037848,-142.0
2023-08-12 14:28:04.045538,-140.0
2023-08-12 14:28:04.053228,-133.0
2023-08-12 14:28:04.060918,-126.0
2023-08-12 14:28:04.068608,-123.0
2023-08-12 14:28:04.076298,-123.0
2023-08-12 14:28:04.083988,-123.0
2023-08-12 14:28:04.091678,-123.0
2023-08-12 14:28:04.099368,-116.0
2023-08-12 14:28:04.107058,-111.0
2023-08-12 14:28:04.114748,-114.0
2023-08-12 14:28:04.122438,-114.0
2023-08-12 14:28:04.130128,-109.0
2023-08-12 14:28:04.137817,-107.0
2023-08-12 14:28:04.145507,-104.0
2023-08-12 14:28:04.153197,-102.0
2023-08-12 14:28:04.160887,-99.0
2023-08-12 14:28:04.168577,-97.0
2023-08-12 14:28:04.176267,-95.0
2023-08-12 14:28:04.183957,-97.0
2023-08-12 14:28:04.191647,-95.0
2023-08-12 14:28:04.199337,-92.0
2023-08-12 14:28:04.207027,-92.0
2023-08-12 14:28:04.214717,-95.0
2023-08-12 14:28:04.222407,-95.0
2023-08-12 14:28:04.230097,-95.0
2023-08-12 14:28:04.237787,-95.0
2023-08-12 14:28:04.245477,-92.0
2023-08-12 14:28:04.253167,-90.0
2023-08-12 14:28:04.260857,-88.0
2023-08-12 14:28:04.268547,-90.0
2023-08-12 14:28:04.276237,-95.0
2023-08-12 14:28:04.283927,-90.0
2023-08-12 14:28:04.291617,-83.0
2023-08-12 14:28:04.299307,-80.0
2023-08-12 14:28:04.306997,-83.0
2023-08-12 14:28:04.314687,-83.0
2023-08-12 14:28:04.322377,-83.0
2023-08-12 14:28:04.330067,-80.0
2023-08-12 14:28:04.337757,-80.0
2023-08-12 14:28:04.345447,-80.0
2023-08-12 14:28:04.353137,-76.0
2023-08-12 14:28:04.360826,-78.0
2023-08-12 14:28:04.368516,-76.0
2023-08-12 14:28:04.376206,-73.0
2023-08-12 14:28:04.383896,-73.0
2023-08-12 14:28:04.391586,-73.0
2023-08-12 14:28:04.399276,-71.0
2023-08-12 14:28:04.406966,-71.0
2023-08-12 14:28:04.414656,-71.0
2023-08-12 14:28:04.422346,-69.0
2023-08-12 14:28:04.430036,-64.0
2023-08-12 14:28:04.437726,-61.0
2023-08-12 14:28:04.445416,-64.0
2023-08-12 14:28:04.453106,-69.0
2023-08-12 14:28:04.460796,-66.0
2023-08-12 14:28:04.468486,-64.0
2023-08-12 14:28:04.476176,-64.0
2023-08-12 14:28:04.483866,-69.0
2023-08-12 14:28:04.491556,-78.0
2023-08-12 14:28:04.499246,-83.0
2023-08-12 14:28:04.506936,-73.0
2023-08-12 14:28:04.514626,-61.0
2023-08-12 14:28:04.522316,-61.0
2023-08-12 14:28:04.530006,-59.0
2023-08-12 14:28:04.537696,-54.0
2023-08-12 14:28:04.545386,-52.0
2023-08-12 14:28:04.553076,-47.0
2023-08-12 14:28:04.560766,-52.0
2023-08-12 14:28:04.568456,-61.0
2023-08-12 14:28:04.576146,-61.0
2023-08-12 14:28:04.583835,-69.0
2023-08-12 14:28:04.591525,-88.0
2023-08-12 14:28:04.599215,-102.0
2023-08-12 14:28:04.606905,-102.0
2023-08-12 14:28:04.614595,-99.0
2023-08-12 14:28:04.622285,-99.0
2023-08-12 14:28:04.629975,-99.0
2023-08-12 14:28:04.637665,-99.0
2023-08-12 14:28:04.645355,-97.0
2023-08-12 14:28:04.653045,-33.0
2023-08-12 14:28:04.660735,164.0
2023-08-12 14:28:04.668425,423.0
2023-08-12 14:28:04.676115,492.0
2023-08-12 14:28:04.683805,216.0
2023-08-12 14:28:04.691495,-130.0
2023-08-12 14:28:04.699185,-209.0
2023-08-12 14:28:04.706875,-161.0
2023-08-12 14:28:04.714565,-176.0
2023-08-12 14:28:04.722255,-152.0
2023-08-12 14:28:04.729945,-99.0
2023-08-12 14:28:04.737635,-107.0
2023-08-12 14:28:04.745325,-116.0
2023-08-12 14:28:04.753015,-97.0
2023-08-12 14:28:04.760705,-90.0
2023-08-12 14:28:04.768395,-90.0
2023-08-12 14:28:04.776085,-80.0
2023-08-12 14:28:04.783775,-71.0
2023-08-12 14:28:04.791465,-66.0
2023-08-12 14:28:04.799155,-57.0
2023-08-12 14:28:04.806845,-47.0
2023-08-12 14:28:04.814534,-42.0
2023-08-12 14:28:04.822224,-33.0
2023-08-12 14:28:04.829914,-16.0
2023-08-12 14:28:04.837604,-2.0
2023-08-12 14:28:04.845294,9.0
2023-08-12 14:28:04.852984,19.0
2023-08-12 14:28:04.860674,33.0
2023-08-12 14:28:04.868364,45.0
2023-08-12 14:28:04.876054,52.0
2023-08-12 14:28:04.883744,61.0
2023-08-12 14:28:04.891434,66.0
2023-08-12 14:28:04.899124,61.0
2023-08-12 14:28:04.906814,49.0
2023-08-12 14:28:04.914504,33.0
2023-08-12 14:28:04.922194,11.0
2023-08-12 14:28:04.929884,-19.0
2023-08-12 14:28:04.937574,-54.0
2023-08-12 14:28:04.945264,-85.0
2023-08-12 14:28:04.952954,-104.0
2023-08-12 14:28:04.960644,-121.0
2023-08-12 14:28:04.968334,-135.0
2023-08-12 14:28:04.976024,-142.0
2023-08-12 14:28:04.983714,-145.0
2023-08-12 14:28:04.991404,-145.0
2023-08-12 14:28:04.999094,-135.0
2023-08-12 14:28:05.006784,-128.0
2023-08-12 14:28:05.014474,-128.0
2023-08-12 14:28:05.022164,-123.0
2023-08-12 14:28:05.029854,-116.0
2023-08-12 14:28:05.037543,-116.0
2023-08-12 14:28:05.045233,-111.0
2023-08-12 14:28:05.052923,-102.0
2023-08-12 14:28:05.060613,-99.0
2023-08-12 14:28:05.068303,-97.0
2023-08-12 14:28:05.075993,-97.0
2023-08-12 14:28:05.083683,-107.0
2023-08-12 14:28:05.091373,-104.0
2023-08-12 14:28:05.099063,-95.0
2023-08-12 14:28:05.106753,-92.0
2023-08-12 14:28:05.114443,-97.0
2023-08-12 14:28:05.122133,-102.0
2023-08-12 14:28:05.129823,-102.0
2023-08-12 14:28:05.137513,-97.0
2023-08-12 14:28:05.145203,-97.0
2023-08-12 14:28:05.152893,-99.0
2023-08-12 14:28:05.160583,-97.0
2023-08-12 14:28:05.168273,-92.0
2023-08-12 14:28:05.175963,-90.0
2023-08-12 14:28:05.183653,-90.0
2023-08-12 14:28:05.191343,-90.0
2023-08-12 14:28:05.199033,-88.0
2023-08-12 14:28:05.206723,-83.0
2023-08-12 14:28:05.214413,-85.0
2023-08-12 14:28:05.222103,-88.0
2023-08-12 14:28:05.229793,-85.0
2023-08-12 14:28:05.237483,-80.0
2023-08-12 14:28:05.245173,-78.0
2023-08-12 14:28:05.252863,-78.0
2023-08-12 14:28:05.260552,-78.0
2023-08-12 14:28:05.268242,-78.0
2023-08-12 14:28:05.275932,-76.0
2023-08-12 14:28:05.283622,-73.0
2023-08-12 14:28:05.291312,-71.0
2023-08-12 14:28:05.299002,-69.0
2023-08-12 14:28:05.306692,-69.0
2023-08-12 14:28:05.314382,-71.0
2023-08-12 14:28:05.322072,-71.0
2023-08-12 14:28:05.329762,-69.0
2023-08-12 14:28:05.337452,-66.0
2023-08-12 14:28:05.345142,-64.0
2023-08-12 14:28:05.352832,-64.0
2023-08-12 14:28:05.360522,-66.0
2023-08-12 14:28:05.368212,-64.0
2023-08-12 14:28:05.375902,-61.0
2023-08-12 14:28:05.383592,-61.0
2023-08-12 14:28:05.391282,-64.0
2023-08-12 14:28:05.398972,-64.0
2023-08-12 14:28:05.406662,-61.0
2023-08-12 14:28:05.414352,-61.0
2023-08-12 14:28:05.422042,-64.0
2023-08-12 14:28:05.429732,-61.0
2023-08-12 14:28:05.437422,-59.0
2023-08-12 14:28:05.445112,-59.0
2023-08-12 14:28:05.452802,-57.0
2023-08-12 14:28:05.460492,-57.0
2023-08-12 14:28:05.468182,-54.0
2023-08-12 14:28:05.475872,-49.0
2023-08-12 14:28:05.483561,-47.0
2023-08-12 14:28:05.491251,-42.0
2023-08-12 14:28:05.498941,-33.0
2023-08-12 14:28:05.506631,-26.0
2023-08-12 14:28:05.514321,-21.0
2023-08-12 14:28:05.522011,-23.0
2023-08-12 14:28:05.529701,-35.0
2023-08-12 14:28:05.537391,-40.0
2023-08-12 14:28:05.545081,-40.0
2023-08-12 14:28:05.552771,-52.0
2023-08-12 14:28:05.560461,-71.0
2023-08-12 14:28:05.568151,-83.0
2023-08-12 14:28:05.575841,-92.0
2023-08-12 14:28:05.583531,-88.0
2023-08-12 14:28:05.591221,-78.0
2023-08-12 14:28:05.598911,-78.0
2023-08-12 14:28:05.606601,-83.0
2023-08-12 14:28:05.614291,-64.0
2023-08-12 14:28:05.621981,57.0
2023-08-12 14:28:05.629671,311.0
2023-08-12 14:28:05.637361,518.0
2023-08-12 14:28:05.645051,404.0
2023-08-12 14:28:05.652741,26.0
2023-08-12 14:28:05.660431,-204.0
2023-08-12 14:28:05.668121,-178.0
2023-08-12 14:28:05.675811,-159.0
2023-08-12 14:28:05.683501,-164.0
2023-08-12 14:28:05.691191,-102.0
2023-08-12 14:28:05.698881,-76.0
2023-08-12 14:28:05.706571,-97.0
2023-08-12 14:28:05.714260,-85.0
2023-08-12 14:28:05.721950,-66.0
2023-08-12 14:28:05.729640,-69.0
2023-08-12 14:28:05.737330,-61.0
2023-08-12 14:28:05.745020,-49.0
2023-08-12 14:28:05.752710,-47.0
2023-08-12 14:28:05.760400,-40.0
2023-08-12 14:28:05.768090,-26.0
2023-08-12 14:28:05.775780,-19.0
2023-08-12 14:28:05.783470,-9.0
2023-08-12 14:28:05.791160,2.0
2023-08-12 14:28:05.798850,4.0
2023-08-12 14:28:05.806540,19.0
2023-08-12 14:28:05.814230,35.0
2023-08-12 14:28:05.821920,49.0
2023-08-12 14:28:05.829610,69.0
2023-08-12 14:28:05.837300,80.0
2023-08-12 14:28:05.844990,85.0
2023-08-12 14:28:05.852680,88.0
2023-08-12 14:28:05.860370,90.0
2023-08-12 14:28:05.868060,80.0
2023-08-12 14:28:05.875750,66.0
2023-08-12 14:28:05.883440,49.0
2023-08-12 14:28:05.891130,16.0
2023-08-12 14:28:05.898820,-19.0
2023-08-12 14:28:05.906510,-49.0
2023-08-12 14:28:05.914200,-76.0
2023-08-12 14:28:05.921890,-99.0
2023-08-12 14:28:05.929580,-114.0
2023-08-12 14:28:05.937269,-123.0
2023-08-12 14:28:05.944959,-121.0
2023-08-12 14:28:05.952649,-116.0
2023-08-12 14:28:05.960339,-119.0
2023-08-12 14:28:05.968029,-119.0
2023-08-12 14:28:05.975719,-109.0
2023-08-12 14:28:05.983409,-104.0
2023-08-12 14:28:05.991099,-102.0
2023-08-12 14:28:05.998789,-97.0
2023-08-12 14:28:06.006479,-92.0
2023-08-12 14:28:06.014169,-90.0
2023-08-12 14:28:06.021859,-85.0
2023-08-12 14:28:06.029549,-80.0
2023-08-12 14:28:06.037239,-78.0
2023-08-12 14:28:06.044929,-73.0
2023-08-12 14:28:06.052619,-69.0
2023-08-12 14:28:06.060309,-66.0
2023-08-12 14:28:06.067999,-66.0
2023-08-12 14:28:06.075689,-66.0
2023-08-12 14:28:06.083379,-66.0
2023-08-12 14:28:06.091069,-64.0
2023-08-12 14:28:06.098759,-61.0
2023-08-12 14:28:06.106449,-61.0
2023-08-12 14:28:06.114139,-66.0
2023-08-12 14:28:06.121829,-71.0
2023-08-12 14:28:06.129519,-76.0
2023-08-12 14:28:06.137209,-73.0
2023-08-12 14:28:06.144899,-69.0
2023-08-12 14:28:06.152589,-71.0
2023-08-12 14:28:06.160278,-80.0
2023-08-12 14:28:06.167968,-83.0
2023-08-12 14:28:06.175658,-78.0
2023-08-12 14:28:06.183348,-76.0
2023-08-12 14:28:06.191038,-73.0
2023-08-12 14:28:06.198728,-71.0
2023-08-12 14:28:06.206418,-71.0
2023-08-12 14:28:06.214108,-73.0
2023-08-12 14:28:06.221798,-71.0
2023-08-12 14:28:06.229488,-69.0
2023-08-12 14:28:06.237178,-66.0
2023-08-12 14:28:06.244868,-64.0
2023-08-12 14:28:06.252558,-66.0
2023-08-12 14:28:06.260248,-64.0
2023-08-12 14:28:06.267938,-61.0
2023-08-12 14:28:06.275628,-59.0
2023-08-12 14:28:06.283318,-61.0
2023-08-12 14:28:06.291008,-59.0
2023-08-12 14:28:06.298698,-57.0
2023-08-12 14:28:06.306388,-61.0
2023-08-12 14:28:06.314078,-64.0
2023-08-12 14:28:06.321768,-57.0
2023-08-12 14:28:06.329458,-52.0
2023-08-12 14:28:06.337148,-59.0
2023-08-12 14:28:06.344838,-64.0
2023-08-12 14:28:06.352528,-64.0
2023-08-12 14:28:06.360218,-59.0
2023-08-12 14:28:06.367908,-59.0
2023-08-12 14:28:06.375598,-59.0
2023-08-12 14:28:06.383287,-61.0
2023-08-12 14:28:06.390977,-61.0
2023-08-12 14:28:06.398667,-57.0
2023-08-12 14:28:06.406357,-54.0
2023-08-12 14:28:06.414047,-52.0
2023-08-12 14:28:06.421737,-47.0
2023-08-12 14:28:06.429427,-45.0
2023-08-12 14:28:06.437117,-40.0
2023-08-12 14:28:06.444807,-30.0
2023-08-12 14:28:06.452497,-21.0
2023-08-12 14:28:06.460187,-19.0
2023-08-12 14:28:06.467877,-21.0
2023-08-12 14:28:06.475567,-28.0
2023-08-12 14:28:06.483257,-35.0
2023-08-12 14:28:06.490947,-35.0
2023-08-12 14:28:06.498637,-40.0
2023-08-12 14:28:06.506327,-54.0
2023-08-12 14:28:06.514017,-64.0
2023-08-12 14:28:06.521707,-69.0
2023-08-12 14:28:06.529397,-66.0
2023-08-12 14:28:06.537087,-59.0
2023-08-12 14:28:06.544777,-57.0
2023-08-12 14:28:06.552467,-59.0
2023-08-12 14:28:06.560157,-49.0
2023-08-12 14:28:06.567847,38.0
2023-08-12 14:28:06.575537,264.0
2023-08-12 14:28:06.583227,507.0
2023-08-12 14:28:06.590917,495.0
2023-08-12 14:28:06.598607,159.0
2023-08-12 14:28:06.606297,-145.0
2023-08-12 14:28:06.613986,-173.0
2023-08-12 14:28:06.621676,-138.0
2023-08-12 14:28:06.629366,-154.0
2023-08-12 14:28:06.637056,-109.0
2023-08-12 14:28:06.644746,-64.0
2023-08-12 14:28:06.652436,-78.0
2023-08-12 14:28:06.660126,-80.0
2023-08-12 14:28:06.667816,-61.0
2023-08-12 14:28:06.675506,-59.0
2023-08-12 14:28:06.683196,-59.0
2023-08-12 14:28:06.690886,-47.0
2023-08-12 14:28:06.698576,-42.0
2023-08-12 14:28:06.706266,-38.0
2023-08-12 14:28:06.713956,-26.0
2023-08-12 14:28:06.721646,-16.0
2023-08-12 14:28:06.729336,-11.0
2023-08-12 14:28:06.737026,-4.0
2023-08-12 14:28:06.744716,2.0
2023-08-12 14:28:06.752406,9.0
2023-08-12 14:28:06.760096,21.0
2023-08-12 14:28:06.767786,38.0
2023-08-12 14:28:06.775476,52.0
2023-08-12 14:28:06.783166,64.0
2023-08-12 14:28:06.790856,64.0
2023-08-12 14:28:06.798546,64.0
2023-08-12 14:28:06.806236,66.0
2023-08-12 14:28:06.813926,66.0
2023-08-12 14:28:06.821616,54.0
2023-08-12 14:28:06.829306,35.0
2023-08-12 14:28:06.836995,9.0
2023-08-12 14:28:06.844685,-23.0
2023-08-12 14:28:06.852375,-57.0
2023-08-12 14:28:06.860065,-90.0
2023-08-12 14:28:06.867755,-116.0
2023-08-12 14:28:06.875445,-128.0
2023-08-12 14:28:06.883135,-133.0
2023-08-12 14:28:06.890825,-135.0
2023-08-12 14:28:06.898515,-135.0
2023-08-12 14:28:06.906205,-133.0
2023-08-12 14:28:06.913895,-130.0
2023-08-12 14:28:06.921585,-128.0
2023-08-12 14:28:06.929275,-126.0
2023-08-12 14:28:06.936965,-119.0
2023-08-12 14:28:06.944655,-119.0
2023-08-12 14:28:06.952345,-116.0
2023-08-12 14:28:06.960035,-111.0
2023-08-12 14:28:06.967725,-111.0
2023-08-12 14:28:06.975415,-109.0
2023-08-12 14:28:06.983105,-104.0
2023-08-12 14:28:06.990795,-99.0
2023-08-12 14:28:06.998485,-99.0
2023-08-12 14:28:07.006175,-95.0
2023-08-12 14:28:07.013865,-92.0
2023-08-12 14:28:07.021555,-95.0
2023-08-12 14:28:07.029245,-92.0
2023-08-12 14:28:07.036935,-90.0
2023-08-12 14:28:07.044625,-90.0
2023-08-12 14:28:07.052315,-88.0
2023-08-12 14:28:07.060004,-85.0
2023-08-12 14:28:07.067694,-85.0
2023-08-12 14:28:07.075384,-80.0
2023-08-12 14:28:07.083074,-80.0
2023-08-12 14:28:07.090764,-83.0
2023-08-12 14:28:07.098454,-80.0
2023-08-12 14:28:07.106144,-78.0
2023-08-12 14:28:07.113834,-80.0
2023-08-12 14:28:07.121524,-83.0
2023-08-12 14:28:07.129214,-85.0
2023-08-12 14:28:07.136904,-90.0
2023-08-12 14:28:07.144594,-95.0
2023-08-12 14:28:07.152284,-92.0
2023-08-12 14:28:07.159974,-88.0
2023-08-12 14:28:07.167664,-90.0
2023-08-12 14:28:07.175354,-90.0
2023-08-12 14:28:07.183044,-88.0
2023-08-12 14:28:07.190734,-90.0
2023-08-12 14:28:07.198424,-90.0
2023-08-12 14:28:07.206114,-88.0
2023-08-12 14:28:07.213804,-88.0
2023-08-12 14:28:07.221494,-88.0
2023-08-12 14:28:07.229184,-88.0
2023-08-12 14:28:07.236874,-85.0
2023-08-12 14:28:07.244564,-85.0
2023-08-12 14:28:07.252254,-83.0
2023-08-12 14:28:07.259944,-80.0
2023-08-12 14:28:07.267634,-83.0
2023-08-12 14:28:07.275324,-80.0
2023-08-12 14:28:07.283013,-85.0
2023-08-12 14:28:07.290703,-90.0
2023-08-12 14:28:07.298393,-85.0
2023-08-12 14:28:07.306083,-83.0
2023-08-12 14:28:07.313773,-85.0
2023-08-12 14:28:07.321463,-83.0
2023-08-12 14:28:07.329153,-78.0
2023-08-12 14:28:07.336843,-71.0
2023-08-12 14:28:07.344533,-66.0
2023-08-12 14:28:07.352223,-59.0
2023-08-12 14:28:07.359913,-47.0
2023-08-12 14:28:07.367603,-42.0
2023-08-12 14:28:07.375293,-40.0
2023-08-12 14:28:07.382983,-40.0
2023-08-12 14:28:07.390673,-45.0
2023-08-12 14:28:07.398363,-49.0
2023-08-12 14:28:07.406053,-54.0
2023-08-12 14:28:07.413743,-66.0
2023-08-12 14:28:07.421433,-80.0
2023-08-12 14:28:07.429123,-88.0
2023-08-12 14:28:07.436813,-85.0
2023-08-12 14:28:07.444503,-78.0
2023-08-12 14:28:07.452193,-80.0
2023-08-12 14:28:07.459883,-85.0
2023-08-12 14:28:07.467573,-80.0
2023-08-12 14:28:07.475263,-33.0
2023-08-12 14:28:07.482953,130.0
2023-08-12 14:28:07.490643,392.0
2023-08-12 14:28:07.498333,526.0
2023-08-12 14:28:07.506023,307.0
2023-08-12 14:28:07.513712,-71.0
2023-08-12 14:28:07.521402,-214.0
2023-08-12 14:28:07.529092,-161.0
2023-08-12 14:28:07.536782,-169.0
2023-08-12 14:28:07.544472,-159.0
2023-08-12 14:28:07.552162,-95.0
2023-08-12 14:28:07.559852,-88.0
2023-08-12 14:28:07.567542,-102.0
2023-08-12 14:28:07.575232,-83.0
2023-08-12 14:28:07.582922,-69.0
2023-08-12 14:28:07.590612,-71.0
2023-08-12 14:28:07.598302,-71.0
2023-08-12 14:28:07.605992,-61.0
2023-08-12 14:28:07.613682,-49.0
2023-08-12 14:28:07.621372,-40.0
2023-08-12 14:28:07.629062,-33.0
2023-08-12 14:28:07.636752,-28.0
2023-08-12 14:28:07.644442,-26.0
2023-08-12 14:28:07.652132,-16.0
2023-08-12 14:28:07.659822,-2.0
2023-08-12 14:28:07.667512,11.0
2023-08-12 14:28:07.675202,23.0
2023-08-12 14:28:07.682892,38.0
2023-08-12 14:28:07.690582,49.0
2023-08-12 14:28:07.698272,61.0
2023-08-12 14:28:07.705962,71.0
2023-08-12 14:28:07.713652,80.0
2023-08-12 14:28:07.721342,76.0
2023-08-12 14:28:07.729032,59.0
2023-08-12 14:28:07.736721,42.0
2023-08-12 14:28:07.744411,23.0
2023-08-12 14:28:07.752101,-4.0
2023-08-12 14:28:07.759791,-40.0
2023-08-12 14:28:07.767481,-80.0
2023-08-12 14:28:07.775171,-114.0
2023-08-12 14:28:07.782861,-138.0
2023-08-12 14:28:07.790551,-145.0
2023-08-12 14:28:07.798241,-145.0
2023-08-12 14:28:07.805931,-145.0
2023-08-12 14:28:07.813621,-145.0
2023-08-12 14:28:07.821311,-145.0
2023-08-12 14:28:07.829001,-142.0
2023-08-12 14:28:07.836691,-138.0
2023-08-12 14:28:07.844381,-133.0
2023-08-12 14:28:07.852071,-130.0
2023-08-12 14:28:07.859761,-126.0
2023-08-12 14:28:07.867451,-121.0
2023-08-12 14:28:07.875141,-116.0
2023-08-12 14:28:07.882831,-111.0
2023-08-12 14:28:07.890521,-109.0
2023-08-12 14:28:07.898211,-102.0
2023-08-12 14:28:07.905901,-99.0
2023-08-12 14:28:07.913591,-102.0
2023-08-12 14:28:07.921281,-111.0
2023-08-12 14:28:07.928971,-111.0
2023-08-12 14:28:07.936661,-109.0
2023-08-12 14:28:07.944351,-109.0
2023-08-12 14:28:07.952041,-109.0
2023-08-12 14:28:07.959730,-114.0
2023-08-12 14:28:07.967420,-114.0
2023-08-12 14:28:07.975110,-107.0
2023-08-12 14:28:07.982800,-104.0
2023-08-12 14:28:07.990490,-107.0
2023-08-12 14:28:07.998180,-102.0
2023-08-12 14:28:08.005870,-99.0
2023-08-12 14:28:08.013560,-97.0
2023-08-12 14:28:08.021250,-92.0
2023-08-12 14:28:08.028940,-90.0
2023-08-12 14:28:08.036630,-95.0
2023-08-12 14:28:08.044320,-95.0
2023-08-12 14:28:08.052010,-92.0
2023-08-12 14:28:08.059700,-88.0
2023-08-12 14:28:08.067390,-83.0
2023-08-12 14:28:08.075080,-83.0
2023-08-12 14:28:08.082770,-83.0
2023-08-12 14:28:08.090460,-76.0
2023-08-12 14:28:08.098150,-73.0
2023-08-12 14:28:08.105840,-78.0
2023-08-12 14:28:08.113530,-73.0
2023-08-12 14:28:08.121220,-69.0
2023-08-12 14:28:08.128910,-69.0
2023-08-12 14:28:08.136600,-71.0
2023-08-12 14:28:08.144290,-76.0
2023-08-12 14:28:08.151980,-80.0
2023-08-12 14:28:08.159670,-73.0
2023-08-12 14:28:08.167360,-71.0
2023-08-12 14:28:08.175050,-76.0
2023-08-12 14:28:08.182739,-73.0
2023-08-12 14:28:08.190429,-64.0
2023-08-12 14:28:08.198119,-61.0
2023-08-12 14:28:08.205809,-52.0
2023-08-12 14:28:08.213499,-33.0
2023-08-12 14:28:08.221189,-26.0
2023-08-12 14:28:08.228879,-28.0
2023-08-12 14:28:08.236569,-38.0
2023-08-12 14:28:08.244259,-42.0
2023-08-12 14:28:08.251949,-35.0
2023-08-12 14:28:08.259639,-42.0
2023-08-12 14:28:08.267329,-61.0
2023-08-12 14:28:08.275019,-73.0
2023-08-12 14:28:08.282709,-73.0
2023-08-12 14:28:08.290399,-71.0
2023-08-12 14:28:08.298089,-69.0
2023-08-12 14:28:08.305779,-64.0
2023-08-12 14:28:08.313469,-64.0
2023-08-12 14:28:08.321159,-64.0
2023-08-12 14:28:08.328849,-21.0
2023-08-12 14:28:08.336539,149.0
2023-08-12 14:28:08.344229,418.0
2023-08-12 14:28:08.351919,545.0
2023-08-12 14:28:08.359609,302.0
2023-08-12 14:28:08.367299,-85.0
2023-08-12 14:28:08.374989,-199.0
2023-08-12 14:28:08.382679,-133.0
2023-08-12 14:28:08.390369,-149.0
2023-08-12 14:28:08.398059,-140.0
2023-08-12 14:28:08.405749,-71.0
2023-08-12 14:28:08.413438,-73.0
2023-08-12 14:28:08.421128,-92.0
2023-08-12 14:28:08.428818,-76.0
2023-08-12 14:28:08.436508,-61.0
2023-08-12 14:28:08.444198,-64.0
2023-08-12 14:28:08.451888,-57.0
2023-08-12 14:28:08.459578,-47.0
2023-08-12 14:28:08.467268,-40.0
2023-08-12 14:28:08.474958,-30.0
2023-08-12 14:28:08.482648,-23.0
2023-08-12 14:28:08.490338,-16.0
2023-08-12 14:28:08.498028,-4.0
2023-08-12 14:28:08.505718,9.0
2023-08-12 14:28:08.513408,21.0
2023-08-12 14:28:08.521098,33.0
2023-08-12 14:28:08.528788,47.0
2023-08-12 14:28:08.536478,61.0
2023-08-12 14:28:08.544168,76.0
2023-08-12 14:28:08.551858,90.0
2023-08-12 14:28:08.559548,97.0
2023-08-12 14:28:08.567238,97.0
2023-08-12 14:28:08.574928,90.0
2023-08-12 14:28:08.582618,78.0
2023-08-12 14:28:08.590308,54.0
2023-08-12 14:28:08.597998,30.0
2023-08-12 14:28:08.605688,2.0
2023-08-12 14:28:08.613378,-33.0
2023-08-12 14:28:08.621068,-73.0
2023-08-12 14:28:08.628758,-102.0
2023-08-12 14:28:08.636447,-123.0
2023-08-12 14:28:08.644137,-138.0
2023-08-12 14:28:08.651827,-142.0
2023-08-12 14:28:08.659517,-140.0
2023-08-12 14:28:08.667207,-142.0
2023-08-12 14:28:08.674897,-142.0
2023-08-12 14:28:08.682587,-138.0
2023-08-12 14:28:08.690277,-133.0
2023-08-12 14:28:08.697967,-126.0
2023-08-12 14:28:08.705657,-121.0
2023-08-12 14:28:08.713347,-119.0
2023-08-12 14:28:08.721037,-116.0
2023-08-12 14:28:08.728727,-114.0
2023-08-12 14:28:08.736417,-107.0
2023-08-12 14:28:08.744107,-104.0
2023-08-12 14:28:08.751797,-104.0
2023-08-12 14:28:08.759487,-99.0
2023-08-12 14:28:08.767177,-97.0
2023-08-12 14:28:08.774867,-97.0
2023-08-12 14:28:08.782557,-95.0
2023-08-12 14:28:08.790247,-90.0
2023-08-12 14:28:08.797937,-90.0
2023-08-12 14:28:08.805627,-90.0
2023-08-12 14:28:08.813317,-88.0
2023-08-12 14:28:08.821007,-88.0
2023-08-12 14:28:08.828697,-88.0
2023-08-12 14:28:08.836387,-83.0
2023-08-12 14:28:08.844077,-85.0
2023-08-12 14:28:08.851767,-85.0
2023-08-12 14:28:08.859456,-83.0
2023-08-12 14:28:08.867146,-80.0
2023-08-12 14:28:08.874836,-80.0
2023-08-12 14:28:08.882526,-80.0
2023-08-12 14:28:08.890216,-78.0
2023-08-12 14:28:08.897906,-76.0
2023-08-12 14:28:08.905596,-78.0
2023-08-12 14:28:08.913286,-80.0
2023-08-12 14:28:08.920976,-80.0
2023-08-12 14:28:08.928666,-76.0
2023-08-12 14:28:08.936356,-76.0
2023-08-12 14:28:08.944046,-78.0
2023-08-12 14:28:08.951736,-85.0
2023-08-12 14:28:08.959426,-85.0
2023-08-12 14:28:08.967116,-76.0
2023-08-12 14:28:08.974806,-76.0
2023-08-12 14:28:08.982496,-78.0
2023-08-12 14:28:08.990186,-73.0
2023-08-12 14:28:08.997876,-73.0
2023-08-12 14:28:09.005566,-73.0
2023-08-12 14:28:09.013256,-69.0
