time,ECG
2023-08-21 10:32:49.489108,-128.0
2023-08-21 10:32:49.496797,-123.0
2023-08-21 10:32:49.504485,-123.0
2023-08-21 10:32:49.512174,-119.0
2023-08-21 10:32:49.519863,-123.0
2023-08-21 10:32:49.527551,-133.0
2023-08-21 10:32:49.535240,-131.0
2023-08-21 10:32:49.542929,-128.0
2023-08-21 10:32:49.550618,-133.0
2023-08-21 10:32:49.558306,-133.0
2023-08-21 10:32:49.565995,-131.0
2023-08-21 10:32:49.573684,-138.0
2023-08-21 10:32:49.581373,-143.0
2023-08-21 10:32:49.589061,-136.0
2023-08-21 10:32:49.596750,-128.0
2023-08-21 10:32:49.604439,-126.0
2023-08-21 10:32:49.612128,-126.0
2023-08-21 10:32:49.619816,-123.0
2023-08-21 10:32:49.627505,-119.0
2023-08-21 10:32:49.635194,-116.0
2023-08-21 10:32:49.642882,-111.0
2023-08-21 10:32:49.650571,-109.0
2023-08-21 10:32:49.658260,-109.0
2023-08-21 10:32:49.665949,-106.0
2023-08-21 10:32:49.673637,-102.0
2023-08-21 10:32:49.681326,-102.0
2023-08-21 10:32:49.689015,-99.0
2023-08-21 10:32:49.696704,-102.0
2023-08-21 10:32:49.704392,-99.0
2023-08-21 10:32:49.712081,-80.0
2023-08-21 10:32:49.719770,-53.0
2023-08-21 10:32:49.727458,-38.0
2023-08-21 10:32:49.735147,-29.0
2023-08-21 10:32:49.742836,-29.0
2023-08-21 10:32:49.750525,-63.0
2023-08-21 10:32:49.758213,-89.0
2023-08-21 10:32:49.765902,-89.0
2023-08-21 10:32:49.773591,-82.0
2023-08-21 10:32:49.781280,-82.0
2023-08-21 10:32:49.788968,-80.0
2023-08-21 10:32:49.796657,-82.0
2023-08-21 10:32:49.804346,-85.0
2023-08-21 10:32:49.812035,-85.0
2023-08-21 10:32:49.819723,-99.0
2023-08-21 10:32:49.827412,-77.0
2023-08-21 10:32:49.835101,172.0
2023-08-21 10:32:49.842789,726.0
2023-08-21 10:32:49.850478,1226.0
2023-08-21 10:32:49.858167,1051.0
2023-08-21 10:32:49.865856,204.0
2023-08-21 10:32:49.873544,-361.0
2023-08-21 10:32:49.881233,-206.0
2023-08-21 10:32:49.888922,-77.0
2023-08-21 10:32:49.896611,-218.0
2023-08-21 10:32:49.904299,-216.0
2023-08-21 10:32:49.911988,-145.0
2023-08-21 10:32:49.919677,-174.0
2023-08-21 10:32:49.927365,-177.0
2023-08-21 10:32:49.935054,-138.0
2023-08-21 10:32:49.942743,-133.0
2023-08-21 10:32:49.950432,-136.0
2023-08-21 10:32:49.958120,-116.0
2023-08-21 10:32:49.965809,-111.0
2023-08-21 10:32:49.973498,-116.0
2023-08-21 10:32:49.981187,-104.0
2023-08-21 10:32:49.988875,-82.0
2023-08-21 10:32:49.996564,-72.0
2023-08-21 10:32:50.004253,-63.0
2023-08-21 10:32:50.011942,-48.0
2023-08-21 10:32:50.019630,-36.0
2023-08-21 10:32:50.027319,-24.0
2023-08-21 10:32:50.035008,-12.0
2023-08-21 10:32:50.042696,0.0
2023-08-21 10:32:50.050385,2.0
2023-08-21 10:32:50.058074,12.0
2023-08-21 10:32:50.065763,24.0
2023-08-21 10:32:50.073451,31.0
2023-08-21 10:32:50.081140,34.0
2023-08-21 10:32:50.088829,34.0
2023-08-21 10:32:50.096518,31.0
2023-08-21 10:32:50.104206,29.0
2023-08-21 10:32:50.111895,21.0
2023-08-21 10:32:50.119584,12.0
2023-08-21 10:32:50.127272,-9.0
2023-08-21 10:32:50.134961,-41.0
2023-08-21 10:32:50.142650,-77.0
2023-08-21 10:32:50.150339,-106.0
2023-08-21 10:32:50.158027,-128.0
2023-08-21 10:32:50.165716,-143.0
2023-08-21 10:32:50.173405,-153.0
2023-08-21 10:32:50.181094,-153.0
2023-08-21 10:32:50.188782,-153.0
2023-08-21 10:32:50.196471,-153.0
2023-08-21 10:32:50.204160,-150.0
2023-08-21 10:32:50.211849,-138.0
2023-08-21 10:32:50.219537,-131.0
2023-08-21 10:32:50.227226,-126.0
2023-08-21 10:32:50.234915,-121.0
2023-08-21 10:32:50.242603,-119.0
2023-08-21 10:32:50.250292,-114.0
2023-08-21 10:32:50.257981,-109.0
2023-08-21 10:32:50.265670,-109.0
2023-08-21 10:32:50.273358,-109.0
2023-08-21 10:32:50.281047,-106.0
2023-08-21 10:32:50.288736,-104.0
2023-08-21 10:32:50.296425,-104.0
2023-08-21 10:32:50.304113,-104.0
2023-08-21 10:32:50.311802,-109.0
2023-08-21 10:32:50.319491,-114.0
2023-08-21 10:32:50.327180,-119.0
2023-08-21 10:32:50.334868,-116.0
2023-08-21 10:32:50.342557,-114.0
2023-08-21 10:32:50.350246,-114.0
2023-08-21 10:32:50.357934,-114.0
2023-08-21 10:32:50.365623,-111.0
2023-08-21 10:32:50.373312,-111.0
2023-08-21 10:32:50.381001,-111.0
2023-08-21 10:32:50.388689,-109.0
2023-08-21 10:32:50.396378,-106.0
2023-08-21 10:32:50.404067,-106.0
2023-08-21 10:32:50.411756,-94.0
2023-08-21 10:32:50.419444,-72.0
2023-08-21 10:32:50.427133,-55.0
2023-08-21 10:32:50.434822,-46.0
2023-08-21 10:32:50.442510,-38.0
2023-08-21 10:32:50.450199,-55.0
2023-08-21 10:32:50.457888,-89.0
2023-08-21 10:32:50.465577,-102.0
2023-08-21 10:32:50.473265,-94.0
2023-08-21 10:32:50.480954,-92.0
2023-08-21 10:32:50.488643,-94.0
2023-08-21 10:32:50.496332,-92.0
2023-08-21 10:32:50.504020,-92.0
2023-08-21 10:32:50.511709,-94.0
2023-08-21 10:32:50.519398,-106.0
2023-08-21 10:32:50.527087,-114.0
2023-08-21 10:32:50.534775,-4.0
2023-08-21 10:32:50.542464,386.0
2023-08-21 10:32:50.550153,954.0
2023-08-21 10:32:50.557841,1144.0
2023-08-21 10:32:50.565530,558.0
2023-08-21 10:32:50.573219,-216.0
2023-08-21 10:32:50.580908,-323.0
2023-08-21 10:32:50.588596,-94.0
2023-08-21 10:32:50.596285,-160.0
2023-08-21 10:32:50.603974,-250.0
2023-08-21 10:32:50.611663,-174.0
2023-08-21 10:32:50.619351,-157.0
2023-08-21 10:32:50.627040,-184.0
2023-08-21 10:32:50.634729,-157.0
2023-08-21 10:32:50.642417,-143.0
2023-08-21 10:32:50.650106,-160.0
2023-08-21 10:32:50.657795,-153.0
2023-08-21 10:32:50.665484,-133.0
2023-08-21 10:32:50.673172,-131.0
2023-08-21 10:32:50.680861,-123.0
2023-08-21 10:32:50.688550,-119.0
2023-08-21 10:32:50.696239,-119.0
2023-08-21 10:32:50.703927,-104.0
2023-08-21 10:32:50.711616,-87.0
2023-08-21 10:32:50.719305,-75.0
2023-08-21 10:32:50.726994,-63.0
2023-08-21 10:32:50.734682,-53.0
2023-08-21 10:32:50.742371,-41.0
2023-08-21 10:32:50.750060,-24.0
2023-08-21 10:32:50.757748,-7.0
2023-08-21 10:32:50.765437,4.0
2023-08-21 10:32:50.773126,14.0
2023-08-21 10:32:50.780815,21.0
2023-08-21 10:32:50.788503,21.0
2023-08-21 10:32:50.796192,19.0
2023-08-21 10:32:50.803881,19.0
2023-08-21 10:32:50.811570,12.0
2023-08-21 10:32:50.819258,0.0
2023-08-21 10:32:50.826947,-17.0
2023-08-21 10:32:50.834636,-46.0
2023-08-21 10:32:50.842324,-75.0
2023-08-21 10:32:50.850013,-104.0
2023-08-21 10:32:50.857702,-128.0
2023-08-21 10:32:50.865391,-145.0
2023-08-21 10:32:50.873079,-157.0
2023-08-21 10:32:50.880768,-160.0
2023-08-21 10:32:50.888457,-153.0
2023-08-21 10:32:50.896146,-148.0
2023-08-21 10:32:50.903834,-143.0
2023-08-21 10:32:50.911523,-136.0
2023-08-21 10:32:50.919212,-131.0
2023-08-21 10:32:50.926901,-131.0
2023-08-21 10:32:50.934589,-126.0
2023-08-21 10:32:50.942278,-119.0
2023-08-21 10:32:50.949967,-114.0
2023-08-21 10:32:50.957655,-111.0
2023-08-21 10:32:50.965344,-114.0
2023-08-21 10:32:50.973033,-114.0
2023-08-21 10:32:50.980722,-111.0
2023-08-21 10:32:50.988410,-109.0
2023-08-21 10:32:50.996099,-111.0
2023-08-21 10:32:51.003788,-114.0
2023-08-21 10:32:51.011477,-114.0
2023-08-21 10:32:51.019165,-114.0
2023-08-21 10:32:51.026854,-111.0
2023-08-21 10:32:51.034543,-106.0
2023-08-21 10:32:51.042231,-104.0
2023-08-21 10:32:51.049920,-106.0
2023-08-21 10:32:51.057609,-111.0
2023-08-21 10:32:51.065298,-114.0
2023-08-21 10:32:51.072986,-109.0
2023-08-21 10:32:51.080675,-104.0
2023-08-21 10:32:51.088364,-104.0
2023-08-21 10:32:51.096053,-102.0
2023-08-21 10:32:51.103741,-104.0
2023-08-21 10:32:51.111430,-104.0
2023-08-21 10:32:51.119119,-102.0
2023-08-21 10:32:51.126808,-97.0
2023-08-21 10:32:51.134496,-85.0
2023-08-21 10:32:51.142185,-70.0
2023-08-21 10:32:51.149874,-60.0
2023-08-21 10:32:51.157562,-51.0
2023-08-21 10:32:51.165251,-48.0
2023-08-21 10:32:51.172940,-72.0
2023-08-21 10:32:51.180629,-102.0
2023-08-21 10:32:51.188317,-111.0
2023-08-21 10:32:51.196006,-111.0
2023-08-21 10:32:51.203695,-109.0
2023-08-21 10:32:51.211384,-106.0
2023-08-21 10:32:51.219072,-102.0
2023-08-21 10:32:51.226761,-104.0
2023-08-21 10:32:51.234450,-119.0
2023-08-21 10:32:51.242138,-136.0
2023-08-21 10:32:51.249827,-114.0
2023-08-21 10:32:51.257516,89.0
2023-08-21 10:32:51.265205,590.0
2023-08-21 10:32:51.272893,1107.0
2023-08-21 10:32:51.280582,1029.0
2023-08-21 10:32:51.288271,259.0
2023-08-21 10:32:51.295960,-342.0
2023-08-21 10:32:51.303648,-235.0
2023-08-21 10:32:51.311337,-85.0
2023-08-21 10:32:51.319026,-216.0
2023-08-21 10:32:51.326715,-235.0
2023-08-21 10:32:51.334403,-160.0
2023-08-21 10:32:51.342092,-177.0
2023-08-21 10:32:51.349781,-187.0
2023-08-21 10:32:51.357469,-150.0
2023-08-21 10:32:51.365158,-140.0
2023-08-21 10:32:51.372847,-140.0
2023-08-21 10:32:51.380536,-123.0
2023-08-21 10:32:51.388224,-111.0
2023-08-21 10:32:51.395913,-104.0
2023-08-21 10:32:51.403602,-94.0
2023-08-21 10:32:51.411291,-87.0
2023-08-21 10:32:51.418979,-80.0
2023-08-21 10:32:51.426668,-68.0
2023-08-21 10:32:51.434357,-58.0
2023-08-21 10:32:51.442045,-48.0
2023-08-21 10:32:51.449734,-36.0
2023-08-21 10:32:51.457423,-26.0
2023-08-21 10:32:51.465112,-17.0
2023-08-21 10:32:51.472800,-4.0
2023-08-21 10:32:51.480489,7.0
2023-08-21 10:32:51.488178,17.0
2023-08-21 10:32:51.495867,24.0
2023-08-21 10:32:51.503555,29.0
2023-08-21 10:32:51.511244,29.0
2023-08-21 10:32:51.518933,31.0
2023-08-21 10:32:51.526622,31.0
2023-08-21 10:32:51.534310,29.0
2023-08-21 10:32:51.541999,17.0
2023-08-21 10:32:51.549688,-7.0
2023-08-21 10:32:51.557376,-41.0
2023-08-21 10:32:51.565065,-80.0
2023-08-21 10:32:51.572754,-114.0
2023-08-21 10:32:51.580443,-136.0
2023-08-21 10:32:51.588131,-153.0
2023-08-21 10:32:51.595820,-162.0
2023-08-21 10:32:51.603509,-162.0
2023-08-21 10:32:51.611198,-157.0
2023-08-21 10:32:51.618886,-153.0
2023-08-21 10:32:51.626575,-148.0
2023-08-21 10:32:51.634264,-140.0
2023-08-21 10:32:51.641952,-136.0
2023-08-21 10:32:51.649641,-128.0
2023-08-21 10:32:51.657330,-123.0
2023-08-21 10:32:51.665019,-121.0
2023-08-21 10:32:51.672707,-121.0
2023-08-21 10:32:51.680396,-126.0
2023-08-21 10:32:51.688085,-133.0
2023-08-21 10:32:51.695774,-126.0
2023-08-21 10:32:51.703462,-121.0
2023-08-21 10:32:51.711151,-123.0
2023-08-21 10:32:51.718840,-123.0
2023-08-21 10:32:51.726529,-121.0
2023-08-21 10:32:51.734217,-121.0
2023-08-21 10:32:51.741906,-121.0
2023-08-21 10:32:51.749595,-119.0
2023-08-21 10:32:51.757283,-119.0
2023-08-21 10:32:51.764972,-116.0
2023-08-21 10:32:51.772661,-114.0
2023-08-21 10:32:51.780350,-111.0
2023-08-21 10:32:51.788038,-109.0
2023-08-21 10:32:51.795727,-106.0
2023-08-21 10:32:51.803416,-109.0
2023-08-21 10:32:51.811105,-106.0
2023-08-21 10:32:51.818793,-102.0
2023-08-21 10:32:51.826482,-99.0
2023-08-21 10:32:51.834171,-97.0
2023-08-21 10:32:51.841859,-94.0
2023-08-21 10:32:51.849548,-97.0
2023-08-21 10:32:51.857237,-97.0
2023-08-21 10:32:51.864926,-85.0
2023-08-21 10:32:51.872614,-58.0
2023-08-21 10:32:51.880303,-38.0
2023-08-21 10:32:51.887992,-31.0
2023-08-21 10:32:51.895681,-29.0
2023-08-21 10:32:51.903369,-46.0
2023-08-21 10:32:51.911058,-75.0
2023-08-21 10:32:51.918747,-82.0
2023-08-21 10:32:51.926436,-75.0
2023-08-21 10:32:51.934124,-75.0
2023-08-21 10:32:51.941813,-77.0
2023-08-21 10:32:51.949502,-77.0
2023-08-21 10:32:51.957190,-77.0
2023-08-21 10:32:51.964879,-80.0
2023-08-21 10:32:51.972568,-89.0
2023-08-21 10:32:51.980257,-97.0
2023-08-21 10:32:51.987945,12.0
2023-08-21 10:32:51.995634,408.0
2023-08-21 10:32:52.003323,976.0
2023-08-21 10:32:52.011012,1173.0
2023-08-21 10:32:52.018700,602.0
2023-08-21 10:32:52.026389,-170.0
2023-08-21 10:32:52.034078,-291.0
2023-08-21 10:32:52.041766,-68.0
2023-08-21 10:32:52.049455,-128.0
2023-08-21 10:32:52.057144,-216.0
2023-08-21 10:32:52.064833,-148.0
2023-08-21 10:32:52.072521,-143.0
2023-08-21 10:32:52.080210,-177.0
2023-08-21 10:32:52.087899,-150.0
2023-08-21 10:32:52.095588,-128.0
2023-08-21 10:32:52.103276,-131.0
2023-08-21 10:32:52.110965,-119.0
2023-08-21 10:32:52.118654,-102.0
2023-08-21 10:32:52.126343,-97.0
2023-08-21 10:32:52.134031,-89.0
2023-08-21 10:32:52.141720,-72.0
2023-08-21 10:32:52.149409,-60.0
2023-08-21 10:32:52.157097,-51.0
2023-08-21 10:32:52.164786,-38.0
2023-08-21 10:32:52.172475,-31.0
2023-08-21 10:32:52.180164,-19.0
2023-08-21 10:32:52.187852,-9.0
2023-08-21 10:32:52.195541,2.0
2023-08-21 10:32:52.203230,12.0
2023-08-21 10:32:52.210919,17.0
2023-08-21 10:32:52.218607,17.0
2023-08-21 10:32:52.226296,14.0
2023-08-21 10:32:52.233985,19.0
2023-08-21 10:32:52.241673,24.0
2023-08-21 10:32:52.249362,26.0
2023-08-21 10:32:52.257051,21.0
2023-08-21 10:32:52.264740,17.0
2023-08-21 10:32:52.272428,12.0
2023-08-21 10:32:52.280117,-2.0
2023-08-21 10:32:52.287806,-31.0
2023-08-21 10:32:52.295495,-65.0
2023-08-21 10:32:52.303183,-94.0
2023-08-21 10:32:52.310872,-123.0
2023-08-21 10:32:52.318561,-145.0
2023-08-21 10:32:52.326250,-153.0
2023-08-21 10:32:52.333938,-155.0
2023-08-21 10:32:52.341627,-155.0
2023-08-21 10:32:52.349316,-150.0
2023-08-21 10:32:52.357004,-145.0
2023-08-21 10:32:52.364693,-138.0
2023-08-21 10:32:52.372382,-131.0
2023-08-21 10:32:52.380071,-126.0
2023-08-21 10:32:52.387759,-121.0
2023-08-21 10:32:52.395448,-119.0
2023-08-21 10:32:52.403137,-116.0
2023-08-21 10:32:52.410826,-114.0
2023-08-21 10:32:52.418514,-114.0
2023-08-21 10:32:52.426203,-111.0
2023-08-21 10:32:52.433892,-106.0
2023-08-21 10:32:52.441580,-104.0
2023-08-21 10:32:52.449269,-109.0
2023-08-21 10:32:52.456958,-109.0
2023-08-21 10:32:52.464647,-104.0
2023-08-21 10:32:52.472335,-104.0
2023-08-21 10:32:52.480024,-102.0
2023-08-21 10:32:52.487713,-99.0
2023-08-21 10:32:52.495402,-99.0
2023-08-21 10:32:52.503090,-99.0
2023-08-21 10:32:52.510779,-97.0
2023-08-21 10:32:52.518468,-94.0
2023-08-21 10:32:52.526157,-94.0
2023-08-21 10:32:52.533845,-94.0
2023-08-21 10:32:52.541534,-97.0
2023-08-21 10:32:52.549223,-92.0
2023-08-21 10:32:52.556911,-87.0
2023-08-21 10:32:52.564600,-85.0
2023-08-21 10:32:52.572289,-89.0
2023-08-21 10:32:52.579978,-97.0
2023-08-21 10:32:52.587666,-102.0
2023-08-21 10:32:52.595355,-97.0
2023-08-21 10:32:52.603044,-80.0
2023-08-21 10:32:52.610733,-55.0
2023-08-21 10:32:52.618421,-41.0
2023-08-21 10:32:52.626110,-34.0
2023-08-21 10:32:52.633799,-38.0
2023-08-21 10:32:52.641487,-63.0
2023-08-21 10:32:52.649176,-85.0
2023-08-21 10:32:52.656865,-82.0
2023-08-21 10:32:52.664554,-77.0
2023-08-21 10:32:52.672242,-82.0
2023-08-21 10:32:52.679931,-82.0
2023-08-21 10:32:52.687620,-77.0
2023-08-21 10:32:52.695309,-75.0
2023-08-21 10:32:52.702997,-82.0
2023-08-21 10:32:52.710686,-97.0
2023-08-21 10:32:52.718375,-72.0
2023-08-21 10:32:52.726064,170.0
2023-08-21 10:32:52.733752,723.0
2023-08-21 10:32:52.741441,1209.0
2023-08-21 10:32:52.749130,1010.0
2023-08-21 10:32:52.756818,172.0
2023-08-21 10:32:52.764507,-347.0
2023-08-21 10:32:52.772196,-177.0
2023-08-21 10:32:52.779885,-70.0
2023-08-21 10:32:52.787573,-208.0
2023-08-21 10:32:52.795262,-199.0
2023-08-21 10:32:52.802951,-138.0
2023-08-21 10:32:52.810640,-177.0
2023-08-21 10:32:52.818328,-179.0
2023-08-21 10:32:52.826017,-140.0
2023-08-21 10:32:52.833706,-140.0
2023-08-21 10:32:52.841394,-140.0
2023-08-21 10:32:52.849083,-121.0
2023-08-21 10:32:52.856772,-114.0
2023-08-21 10:32:52.864461,-106.0
2023-08-21 10:32:52.872149,-89.0
2023-08-21 10:32:52.879838,-72.0
2023-08-21 10:32:52.887527,-63.0
2023-08-21 10:32:52.895216,-53.0
2023-08-21 10:32:52.902904,-43.0
2023-08-21 10:32:52.910593,-31.0
2023-08-21 10:32:52.918282,-14.0
2023-08-21 10:32:52.925971,0.0
2023-08-21 10:32:52.933659,9.0
2023-08-21 10:32:52.941348,21.0
2023-08-21 10:32:52.949037,31.0
2023-08-21 10:32:52.956725,38.0
2023-08-21 10:32:52.964414,43.0
2023-08-21 10:32:52.972103,43.0
2023-08-21 10:32:52.979792,41.0
2023-08-21 10:32:52.987480,36.0
2023-08-21 10:32:52.995169,34.0
2023-08-21 10:32:53.002858,24.0
2023-08-21 10:32:53.010547,9.0
2023-08-21 10:32:53.018235,-17.0
2023-08-21 10:32:53.025924,-55.0
2023-08-21 10:32:53.033613,-92.0
2023-08-21 10:32:53.041301,-121.0
2023-08-21 10:32:53.048990,-143.0
2023-08-21 10:32:53.056679,-160.0
2023-08-21 10:32:53.064368,-167.0
2023-08-21 10:32:53.072056,-167.0
2023-08-21 10:32:53.079745,-167.0
2023-08-21 10:32:53.087434,-170.0
2023-08-21 10:32:53.095123,-165.0
2023-08-21 10:32:53.102811,-153.0
2023-08-21 10:32:53.110500,-145.0
2023-08-21 10:32:53.118189,-140.0
2023-08-21 10:32:53.125878,-133.0
2023-08-21 10:32:53.133566,-128.0
2023-08-21 10:32:53.141255,-126.0
2023-08-21 10:32:53.148944,-121.0
2023-08-21 10:32:53.156632,-116.0
2023-08-21 10:32:53.164321,-119.0
2023-08-21 10:32:53.172010,-119.0
2023-08-21 10:32:53.179699,-116.0
2023-08-21 10:32:53.187387,-116.0
2023-08-21 10:32:53.195076,-119.0
2023-08-21 10:32:53.202765,-119.0
2023-08-21 10:32:53.210454,-116.0
2023-08-21 10:32:53.218142,-119.0
2023-08-21 10:32:53.225831,-119.0
2023-08-21 10:32:53.233520,-119.0
2023-08-21 10:32:53.241209,-119.0
2023-08-21 10:32:53.248897,-116.0
2023-08-21 10:32:53.256586,-116.0
2023-08-21 10:32:53.264275,-116.0
2023-08-21 10:32:53.271963,-116.0
2023-08-21 10:32:53.279652,-119.0
2023-08-21 10:32:53.287341,-116.0
2023-08-21 10:32:53.295030,-114.0
2023-08-21 10:32:53.302718,-116.0
2023-08-21 10:32:53.310407,-116.0
2023-08-21 10:32:53.318096,-116.0
2023-08-21 10:32:53.325785,-109.0
2023-08-21 10:32:53.333473,-87.0
2023-08-21 10:32:53.341162,-65.0
2023-08-21 10:32:53.348851,-68.0
2023-08-21 10:32:53.356539,-70.0
2023-08-21 10:32:53.364228,-75.0
2023-08-21 10:32:53.371917,-102.0
2023-08-21 10:32:53.379606,-121.0
2023-08-21 10:32:53.387294,-116.0
2023-08-21 10:32:53.394983,-114.0
2023-08-21 10:32:53.402672,-116.0
2023-08-21 10:32:53.410361,-114.0
2023-08-21 10:32:53.418049,-111.0
2023-08-21 10:32:53.425738,-111.0
2023-08-21 10:32:53.433427,-119.0
2023-08-21 10:32:53.441116,-133.0
2023-08-21 10:32:53.448804,-58.0
2023-08-21 10:32:53.456493,281.0
2023-08-21 10:32:53.464182,855.0
2023-08-21 10:32:53.471870,1163.0
2023-08-21 10:32:53.479559,711.0
2023-08-21 10:32:53.487248,-104.0
2023-08-21 10:32:53.494937,-349.0
2023-08-21 10:32:53.502625,-116.0
2023-08-21 10:32:53.510314,-126.0
2023-08-21 10:32:53.518003,-245.0
2023-08-21 10:32:53.525692,-191.0
2023-08-21 10:32:53.533380,-155.0
2023-08-21 10:32:53.541069,-184.0
2023-08-21 10:32:53.548758,-167.0
2023-08-21 10:32:53.556446,-140.0
2023-08-21 10:32:53.564135,-143.0
2023-08-21 10:32:53.571824,-140.0
2023-08-21 10:32:53.579513,-126.0
2023-08-21 10:32:53.587201,-123.0
2023-08-21 10:32:53.594890,-119.0
2023-08-21 10:32:53.602579,-104.0
2023-08-21 10:32:53.610268,-92.0
2023-08-21 10:32:53.617956,-82.0
2023-08-21 10:32:53.625645,-70.0
2023-08-21 10:32:53.633334,-55.0
2023-08-21 10:32:53.641023,-46.0
2023-08-21 10:32:53.648711,-34.0
2023-08-21 10:32:53.656400,-21.0
2023-08-21 10:32:53.664089,-9.0
2023-08-21 10:32:53.671777,2.0
2023-08-21 10:32:53.679466,12.0
2023-08-21 10:32:53.687155,17.0
2023-08-21 10:32:53.694844,19.0
2023-08-21 10:32:53.702532,19.0
2023-08-21 10:32:53.710221,14.0
2023-08-21 10:32:53.717910,9.0
2023-08-21 10:32:53.725599,9.0
2023-08-21 10:32:53.733287,2.0
2023-08-21 10:32:53.740976,-17.0
2023-08-21 10:32:53.748665,-43.0
2023-08-21 10:32:53.756353,-75.0
2023-08-21 10:32:53.764042,-109.0
2023-08-21 10:32:53.771731,-138.0
2023-08-21 10:32:53.779420,-157.0
2023-08-21 10:32:53.787108,-170.0
2023-08-21 10:32:53.794797,-174.0
2023-08-21 10:32:53.802486,-174.0
2023-08-21 10:32:53.810175,-170.0
2023-08-21 10:32:53.817863,-162.0
2023-08-21 10:32:53.825552,-155.0
2023-08-21 10:32:53.833241,-148.0
2023-08-21 10:32:53.840930,-143.0
2023-08-21 10:32:53.848618,-138.0
2023-08-21 10:32:53.856307,-131.0
2023-08-21 10:32:53.863996,-126.0
2023-08-21 10:32:53.871684,-123.0
2023-08-21 10:32:53.879373,-123.0
2023-08-21 10:32:53.887062,-121.0
2023-08-21 10:32:53.894751,-121.0
2023-08-21 10:32:53.902439,-121.0
2023-08-21 10:32:53.910128,-121.0
2023-08-21 10:32:53.917817,-121.0
2023-08-21 10:32:53.925506,-126.0
2023-08-21 10:32:53.933194,-136.0
2023-08-21 10:32:53.940883,-138.0
2023-08-21 10:32:53.948572,-133.0
2023-08-21 10:32:53.956260,-128.0
2023-08-21 10:32:53.963949,-128.0
2023-08-21 10:32:53.971638,-133.0
2023-08-21 10:32:53.979327,-140.0
2023-08-21 10:32:53.987015,-140.0
2023-08-21 10:32:53.994704,-133.0
2023-08-21 10:32:54.002393,-131.0
2023-08-21 10:32:54.010082,-133.0
2023-08-21 10:32:54.017770,-133.0
2023-08-21 10:32:54.025459,-131.0
2023-08-21 10:32:54.033148,-123.0
2023-08-21 10:32:54.040837,-119.0
2023-08-21 10:32:54.048525,-116.0
2023-08-21 10:32:54.056214,-114.0
2023-08-21 10:32:54.063903,-114.0
2023-08-21 10:32:54.071591,-114.0
2023-08-21 10:32:54.079280,-114.0
2023-08-21 10:32:54.086969,-111.0
2023-08-21 10:32:54.094658,-94.0
2023-08-21 10:32:54.102346,-68.0
2023-08-21 10:32:54.110035,-51.0
2023-08-21 10:32:54.117724,-53.0
2023-08-21 10:32:54.125413,-60.0
2023-08-21 10:32:54.133101,-82.0
2023-08-21 10:32:54.140790,-104.0
2023-08-21 10:32:54.148479,-102.0
2023-08-21 10:32:54.156167,-99.0
2023-08-21 10:32:54.163856,-102.0
2023-08-21 10:32:54.171545,-97.0
2023-08-21 10:32:54.179234,-92.0
2023-08-21 10:32:54.186922,-92.0
2023-08-21 10:32:54.194611,-99.0
2023-08-21 10:32:54.202300,-116.0
2023-08-21 10:32:54.209989,-80.0
2023-08-21 10:32:54.217677,187.0
2023-08-21 10:32:54.225366,733.0
2023-08-21 10:32:54.233055,1166.0
2023-08-21 10:32:54.240744,913.0
2023-08-21 10:32:54.248432,102.0
2023-08-21 10:32:54.256121,-342.0
2023-08-21 10:32:54.263810,-160.0
2023-08-21 10:32:54.271498,-80.0
2023-08-21 10:32:54.279187,-213.0
2023-08-21 10:32:54.286876,-196.0
2023-08-21 10:32:54.294565,-140.0
2023-08-21 10:32:54.302253,-167.0
2023-08-21 10:32:54.309942,-165.0
2023-08-21 10:32:54.317631,-131.0
2023-08-21 10:32:54.325320,-126.0
2023-08-21 10:32:54.333008,-123.0
2023-08-21 10:32:54.340697,-109.0
2023-08-21 10:32:54.348386,-99.0
2023-08-21 10:32:54.356074,-89.0
2023-08-21 10:32:54.363763,-77.0
2023-08-21 10:32:54.371452,-65.0
2023-08-21 10:32:54.379141,-58.0
2023-08-21 10:32:54.386829,-48.0
2023-08-21 10:32:54.394518,-38.0
2023-08-21 10:32:54.402207,-26.0
2023-08-21 10:32:54.409896,-19.0
2023-08-21 10:32:54.417584,-12.0
2023-08-21 10:32:54.425273,-2.0
2023-08-21 10:32:54.432962,7.0
2023-08-21 10:32:54.440651,17.0
2023-08-21 10:32:54.448339,29.0
2023-08-21 10:32:54.456028,36.0
2023-08-21 10:32:54.463717,38.0
2023-08-21 10:32:54.471405,38.0
2023-08-21 10:32:54.479094,36.0
2023-08-21 10:32:54.486783,36.0
2023-08-21 10:32:54.494472,31.0
2023-08-21 10:32:54.502160,17.0
2023-08-21 10:32:54.509849,-9.0
2023-08-21 10:32:54.517538,-53.0
2023-08-21 10:32:54.525227,-94.0
2023-08-21 10:32:54.532915,-119.0
2023-08-21 10:32:54.540604,-138.0
2023-08-21 10:32:54.548293,-155.0
2023-08-21 10:32:54.555981,-167.0
2023-08-21 10:32:54.563670,-177.0
2023-08-21 10:32:54.571359,-179.0
2023-08-21 10:32:54.579048,-170.0
2023-08-21 10:32:54.586736,-160.0
2023-08-21 10:32:54.594425,-160.0
2023-08-21 10:32:54.602114,-160.0
2023-08-21 10:32:54.609803,-155.0
2023-08-21 10:32:54.617491,-150.0
2023-08-21 10:32:54.625180,-143.0
2023-08-21 10:32:54.632869,-138.0
2023-08-21 10:32:54.640558,-136.0
2023-08-21 10:32:54.648246,-133.0
2023-08-21 10:32:54.655935,-133.0
2023-08-21 10:32:54.663624,-133.0
2023-08-21 10:32:54.671312,-131.0
2023-08-21 10:32:54.679001,-128.0
2023-08-21 10:32:54.686690,-126.0
2023-08-21 10:32:54.694379,-126.0
2023-08-21 10:32:54.702067,-128.0
2023-08-21 10:32:54.709756,-126.0
2023-08-21 10:32:54.717445,-121.0
2023-08-21 10:32:54.725134,-119.0
2023-08-21 10:32:54.732822,-116.0
2023-08-21 10:32:54.740511,-114.0
2023-08-21 10:32:54.748200,-114.0
2023-08-21 10:32:54.755888,-116.0
2023-08-21 10:32:54.763577,-111.0
2023-08-21 10:32:54.771266,-106.0
2023-08-21 10:32:54.778955,-104.0
2023-08-21 10:32:54.786643,-104.0
2023-08-21 10:32:54.794332,-102.0
2023-08-21 10:32:54.802021,-99.0
2023-08-21 10:32:54.809710,-97.0
2023-08-21 10:32:54.817398,-92.0
2023-08-21 10:32:54.825087,-92.0
2023-08-21 10:32:54.832776,-92.0
2023-08-21 10:32:54.840465,-89.0
2023-08-21 10:32:54.848153,-87.0
2023-08-21 10:32:54.855842,-85.0
2023-08-21 10:32:54.863531,-85.0
2023-08-21 10:32:54.871219,-85.0
2023-08-21 10:32:54.878908,-85.0
2023-08-21 10:32:54.886597,-75.0
2023-08-21 10:32:54.894286,-43.0
2023-08-21 10:32:54.901974,-17.0
2023-08-21 10:32:54.909663,-17.0
2023-08-21 10:32:54.917352,-24.0
2023-08-21 10:32:54.925041,-41.0
2023-08-21 10:32:54.932729,-70.0
2023-08-21 10:32:54.940418,-82.0
2023-08-21 10:32:54.948107,-75.0
2023-08-21 10:32:54.955795,-75.0
2023-08-21 10:32:54.963484,-80.0
2023-08-21 10:32:54.971173,-77.0
2023-08-21 10:32:54.978862,-75.0
2023-08-21 10:32:54.986550,-82.0
2023-08-21 10:32:54.994239,-99.0
2023-08-21 10:32:55.001928,-111.0
2023-08-21 10:32:55.009617,-14.0
2023-08-21 10:32:55.017305,361.0
2023-08-21 10:32:55.024994,925.0
2023-08-21 10:32:55.032683,1141.0
2023-08-21 10:32:55.040372,604.0
2023-08-21 10:32:55.048060,-162.0
2023-08-21 10:32:55.055749,-318.0
2023-08-21 10:32:55.063438,-104.0
2023-08-21 10:32:55.071126,-145.0
2023-08-21 10:32:55.078815,-238.0
2023-08-21 10:32:55.086504,-174.0
2023-08-21 10:32:55.094193,-153.0
2023-08-21 10:32:55.101881,-187.0
2023-08-21 10:32:55.109570,-172.0
2023-08-21 10:32:55.117259,-150.0
2023-08-21 10:32:55.124948,-153.0
2023-08-21 10:32:55.132636,-145.0
2023-08-21 10:32:55.140325,-131.0
2023-08-21 10:32:55.148014,-126.0
2023-08-21 10:32:55.155702,-116.0
2023-08-21 10:32:55.163391,-104.0
2023-08-21 10:32:55.171080,-94.0
2023-08-21 10:32:55.178769,-82.0
2023-08-21 10:32:55.186457,-68.0
2023-08-21 10:32:55.194146,-58.0
2023-08-21 10:32:55.201835,-46.0
2023-08-21 10:32:55.209524,-34.0
2023-08-21 10:32:55.217212,-21.0
2023-08-21 10:32:55.224901,-7.0
2023-08-21 10:32:55.232590,7.0
2023-08-21 10:32:55.240279,14.0
2023-08-21 10:32:55.247967,19.0
2023-08-21 10:32:55.255656,26.0
2023-08-21 10:32:55.263345,29.0
2023-08-21 10:32:55.271033,31.0
2023-08-21 10:32:55.278722,34.0
2023-08-21 10:32:55.286411,34.0
2023-08-21 10:32:55.294100,29.0
2023-08-21 10:32:55.301788,14.0
2023-08-21 10:32:55.309477,-9.0
2023-08-21 10:32:55.317166,-36.0
2023-08-21 10:32:55.324855,-68.0
2023-08-21 10:32:55.332543,-97.0
2023-08-21 10:32:55.340232,-116.0
2023-08-21 10:32:55.347921,-131.0
2023-08-21 10:32:55.355609,-140.0
2023-08-21 10:32:55.363298,-138.0
2023-08-21 10:32:55.370987,-133.0
2023-08-21 10:32:55.378676,-128.0
2023-08-21 10:32:55.386364,-121.0
2023-08-21 10:32:55.394053,-116.0
2023-08-21 10:32:55.401742,-114.0
2023-08-21 10:32:55.409431,-109.0
2023-08-21 10:32:55.417119,-106.0
2023-08-21 10:32:55.424808,-106.0
2023-08-21 10:32:55.432497,-102.0
2023-08-21 10:32:55.440186,-99.0
2023-08-21 10:32:55.447874,-97.0
2023-08-21 10:32:55.455563,-97.0
2023-08-21 10:32:55.463252,-99.0
2023-08-21 10:32:55.470940,-99.0
2023-08-21 10:32:55.478629,-97.0
2023-08-21 10:32:55.486318,-97.0
2023-08-21 10:32:55.494007,-102.0
2023-08-21 10:32:55.501695,-99.0
2023-08-21 10:32:55.509384,-97.0
2023-08-21 10:32:55.517073,-94.0
2023-08-21 10:32:55.524762,-92.0
2023-08-21 10:32:55.532450,-89.0
2023-08-21 10:32:55.540139,-89.0
2023-08-21 10:32:55.547828,-89.0
2023-08-21 10:32:55.555516,-89.0
2023-08-21 10:32:55.563205,-87.0
2023-08-21 10:32:55.570894,-82.0
2023-08-21 10:32:55.578583,-80.0
2023-08-21 10:32:55.586271,-77.0
2023-08-21 10:32:55.593960,-77.0
2023-08-21 10:32:55.601649,-80.0
2023-08-21 10:32:55.609338,-85.0
2023-08-21 10:32:55.617026,-87.0
2023-08-21 10:32:55.624715,-82.0
2023-08-21 10:32:55.632404,-77.0
2023-08-21 10:32:55.640093,-85.0
2023-08-21 10:32:55.647781,-92.0
2023-08-21 10:32:55.655470,-89.0
2023-08-21 10:32:55.663159,-85.0
2023-08-21 10:32:55.670847,-87.0
2023-08-21 10:32:55.678536,-87.0
2023-08-21 10:32:55.686225,-75.0
2023-08-21 10:32:55.693914,-46.0
2023-08-21 10:32:55.701602,-19.0
2023-08-21 10:32:55.709291,-14.0
2023-08-21 10:32:55.716980,-21.0
2023-08-21 10:32:55.724669,-41.0
2023-08-21 10:32:55.732357,-77.0
2023-08-21 10:32:55.740046,-89.0
2023-08-21 10:32:55.747735,-77.0
2023-08-21 10:32:55.755423,-77.0
2023-08-21 10:32:55.763112,-85.0
2023-08-21 10:32:55.770801,-85.0
2023-08-21 10:32:55.778490,-85.0
2023-08-21 10:32:55.786178,-85.0
2023-08-21 10:32:55.793867,-92.0
2023-08-21 10:32:55.801556,-92.0
2023-08-21 10:32:55.809245,29.0
2023-08-21 10:32:55.816933,439.0
2023-08-21 10:32:55.824622,1012.0
2023-08-21 10:32:55.832311,1178.0
2023-08-21 10:32:55.840000,561.0
2023-08-21 10:32:55.847688,-211.0
2023-08-21 10:32:55.855377,-291.0
2023-08-21 10:32:55.863066,-70.0
2023-08-21 10:32:55.870754,-150.0
2023-08-21 10:32:55.878443,-233.0
2023-08-21 10:32:55.886132,-153.0
2023-08-21 10:32:55.893821,-143.0
2023-08-21 10:32:55.901509,-170.0
2023-08-21 10:32:55.909198,-143.0
2023-08-21 10:32:55.916887,-128.0
2023-08-21 10:32:55.924576,-128.0
2023-08-21 10:32:55.932264,-114.0
2023-08-21 10:32:55.939953,-97.0
2023-08-21 10:32:55.947642,-92.0
2023-08-21 10:32:55.955331,-85.0
2023-08-21 10:32:55.963019,-72.0
2023-08-21 10:32:55.970708,-63.0
2023-08-21 10:32:55.978397,-55.0
2023-08-21 10:32:55.986085,-43.0
2023-08-21 10:32:55.993774,-29.0
2023-08-21 10:32:56.001463,-17.0
2023-08-21 10:32:56.009152,-4.0
2023-08-21 10:32:56.016840,9.0
2023-08-21 10:32:56.024529,17.0
2023-08-21 10:32:56.032218,26.0
2023-08-21 10:32:56.039907,41.0
2023-08-21 10:32:56.047595,48.0
2023-08-21 10:32:56.055284,51.0
2023-08-21 10:32:56.062973,55.0
2023-08-21 10:32:56.070661,55.0
2023-08-21 10:32:56.078350,51.0
2023-08-21 10:32:56.086039,46.0
2023-08-21 10:32:56.093728,38.0
2023-08-21 10:32:56.101416,19.0
2023-08-21 10:32:56.109105,-12.0
2023-08-21 10:32:56.116794,-48.0
2023-08-21 10:32:56.124483,-80.0
2023-08-21 10:32:56.132171,-106.0
2023-08-21 10:32:56.139860,-131.0
2023-08-21 10:32:56.147549,-145.0
2023-08-21 10:32:56.155238,-145.0
2023-08-21 10:32:56.162926,-145.0
2023-08-21 10:32:56.170615,-143.0
2023-08-21 10:32:56.178304,-148.0
2023-08-21 10:32:56.185992,-155.0
2023-08-21 10:32:56.193681,-148.0
2023-08-21 10:32:56.201370,-131.0
2023-08-21 10:32:56.209059,-123.0
2023-08-21 10:32:56.216747,-121.0
2023-08-21 10:32:56.224436,-119.0
2023-08-21 10:32:56.232125,-121.0
2023-08-21 10:32:56.239814,-119.0
2023-08-21 10:32:56.247502,-111.0
2023-08-21 10:32:56.255191,-109.0
2023-08-21 10:32:56.262880,-109.0
2023-08-21 10:32:56.270568,-119.0
2023-08-21 10:32:56.278257,-128.0
2023-08-21 10:32:56.285946,-123.0
2023-08-21 10:32:56.293635,-116.0
2023-08-21 10:32:56.301323,-116.0
2023-08-21 10:32:56.309012,-119.0
2023-08-21 10:32:56.316701,-116.0
2023-08-21 10:32:56.324390,-116.0
2023-08-21 10:32:56.332078,-111.0
2023-08-21 10:32:56.339767,-106.0
2023-08-21 10:32:56.347456,-102.0
2023-08-21 10:32:56.355145,-102.0
2023-08-21 10:32:56.362833,-102.0
2023-08-21 10:32:56.370522,-102.0
2023-08-21 10:32:56.378211,-97.0
2023-08-21 10:32:56.385899,-94.0
2023-08-21 10:32:56.393588,-89.0
2023-08-21 10:32:56.401277,-87.0
2023-08-21 10:32:56.408966,-89.0
2023-08-21 10:32:56.416654,-89.0
2023-08-21 10:32:56.424343,-89.0
2023-08-21 10:32:56.432032,-87.0
2023-08-21 10:32:56.439721,-85.0
2023-08-21 10:32:56.447409,-85.0
2023-08-21 10:32:56.455098,-72.0
2023-08-21 10:32:56.462787,-48.0
2023-08-21 10:32:56.470475,-31.0
2023-08-21 10:32:56.478164,-29.0
2023-08-21 10:32:56.485853,-36.0
2023-08-21 10:32:56.493542,-63.0
2023-08-21 10:32:56.501230,-92.0
2023-08-21 10:32:56.508919,-94.0
2023-08-21 10:32:56.516608,-87.0
2023-08-21 10:32:56.524297,-87.0
2023-08-21 10:32:56.531985,-89.0
2023-08-21 10:32:56.539674,-87.0
2023-08-21 10:32:56.547363,-87.0
2023-08-21 10:32:56.555052,-92.0
2023-08-21 10:32:56.562740,-102.0
2023-08-21 10:32:56.570429,-77.0
2023-08-21 10:32:56.578118,133.0
2023-08-21 10:32:56.585806,636.0
2023-08-21 10:32:56.593495,1117.0
2023-08-21 10:32:56.601184,981.0
2023-08-21 10:32:56.608873,187.0
2023-08-21 10:32:56.616561,-366.0
2023-08-21 10:32:56.624250,-221.0
2023-08-21 10:32:56.631939,-89.0
2023-08-21 10:32:56.639628,-228.0
2023-08-21 10:32:56.647316,-228.0
2023-08-21 10:32:56.655005,-155.0
2023-08-21 10:32:56.662694,-177.0
2023-08-21 10:32:56.670382,-184.0
2023-08-21 10:32:56.678071,-150.0
2023-08-21 10:32:56.685760,-145.0
2023-08-21 10:32:56.693449,-148.0
2023-08-21 10:32:56.701137,-131.0
2023-08-21 10:32:56.708826,-119.0
2023-08-21 10:32:56.716515,-114.0
2023-08-21 10:32:56.724204,-106.0
2023-08-21 10:32:56.731892,-97.0
2023-08-21 10:32:56.739581,-85.0
2023-08-21 10:32:56.747270,-70.0
2023-08-21 10:32:56.754959,-55.0
2023-08-21 10:32:56.762647,-46.0
2023-08-21 10:32:56.770336,-34.0
2023-08-21 10:32:56.778025,-19.0
2023-08-21 10:32:56.785713,-7.0
2023-08-21 10:32:56.793402,2.0
2023-08-21 10:32:56.801091,14.0
2023-08-21 10:32:56.808780,19.0
2023-08-21 10:32:56.816468,14.0
2023-08-21 10:32:56.824157,17.0
2023-08-21 10:32:56.831846,21.0
2023-08-21 10:32:56.839535,19.0
2023-08-21 10:32:56.847223,19.0
2023-08-21 10:32:56.854912,17.0
2023-08-21 10:32:56.862601,4.0
2023-08-21 10:32:56.870289,-14.0
2023-08-21 10:32:56.877978,-41.0
2023-08-21 10:32:56.885667,-70.0
2023-08-21 10:32:56.893356,-99.0
2023-08-21 10:32:56.901044,-123.0
2023-08-21 10:32:56.908733,-143.0
2023-08-21 10:32:56.916422,-153.0
2023-08-21 10:32:56.924111,-153.0
2023-08-21 10:32:56.931799,-150.0
2023-08-21 10:32:56.939488,-145.0
2023-08-21 10:32:56.947177,-140.0
2023-08-21 10:32:56.954866,-136.0
2023-08-21 10:32:56.962554,-133.0
2023-08-21 10:32:56.970243,-128.0
2023-08-21 10:32:56.977932,-123.0
2023-08-21 10:32:56.985620,-119.0
2023-08-21 10:32:56.993309,-114.0
2023-08-21 10:32:57.000998,-111.0
2023-08-21 10:32:57.008687,-111.0
2023-08-21 10:32:57.016375,-111.0
2023-08-21 10:32:57.024064,-111.0
2023-08-21 10:32:57.031753,-109.0
2023-08-21 10:32:57.039442,-109.0
2023-08-21 10:32:57.047130,-109.0
2023-08-21 10:32:57.054819,-111.0
2023-08-21 10:32:57.062508,-114.0
2023-08-21 10:32:57.070196,-111.0
2023-08-21 10:32:57.077885,-106.0
2023-08-21 10:32:57.085574,-106.0
2023-08-21 10:32:57.093263,-104.0
2023-08-21 10:32:57.100951,-102.0
2023-08-21 10:32:57.108640,-104.0
2023-08-21 10:32:57.116329,-111.0
2023-08-21 10:32:57.124018,-114.0
2023-08-21 10:32:57.131706,-109.0
2023-08-21 10:32:57.139395,-104.0
2023-08-21 10:32:57.147084,-102.0
2023-08-21 10:32:57.154773,-102.0
2023-08-21 10:32:57.162461,-99.0
2023-08-21 10:32:57.170150,-97.0
2023-08-21 10:32:57.177839,-97.0
2023-08-21 10:32:57.185527,-99.0
2023-08-21 10:32:57.193216,-97.0
2023-08-21 10:32:57.200905,-97.0
2023-08-21 10:32:57.208594,-99.0
2023-08-21 10:32:57.216282,-104.0
2023-08-21 10:32:57.223971,-99.0
2023-08-21 10:32:57.231660,-70.0
2023-08-21 10:32:57.239349,-38.0
2023-08-21 10:32:57.247037,-31.0
2023-08-21 10:32:57.254726,-38.0
2023-08-21 10:32:57.262415,-51.0
2023-08-21 10:32:57.270103,-77.0
2023-08-21 10:32:57.277792,-97.0
2023-08-21 10:32:57.285481,-92.0
2023-08-21 10:32:57.293170,-92.0
2023-08-21 10:32:57.300858,-99.0
2023-08-21 10:32:57.308547,-106.0
2023-08-21 10:32:57.316236,-111.0
2023-08-21 10:32:57.323925,-109.0
2023-08-21 10:32:57.331613,-119.0
2023-08-21 10:32:57.339302,-133.0
2023-08-21 10:32:57.346991,-51.0
2023-08-21 10:32:57.354680,291.0
2023-08-21 10:32:57.362368,845.0
2023-08-21 10:32:57.370057,1124.0
2023-08-21 10:32:57.377746,668.0
2023-08-21 10:32:57.385434,-123.0
2023-08-21 10:32:57.393123,-349.0
2023-08-21 10:32:57.400812,-123.0
2023-08-21 10:32:57.408501,-133.0
2023-08-21 10:32:57.416189,-242.0
2023-08-21 10:32:57.423878,-187.0
2023-08-21 10:32:57.431567,-157.0
2023-08-21 10:32:57.439256,-187.0
2023-08-21 10:32:57.446944,-167.0
2023-08-21 10:32:57.454633,-143.0
2023-08-21 10:32:57.462322,-148.0
2023-08-21 10:32:57.470010,-140.0
2023-08-21 10:32:57.477699,-123.0
2023-08-21 10:32:57.485388,-116.0
2023-08-21 10:32:57.493077,-106.0
2023-08-21 10:32:57.500765,-94.0
2023-08-21 10:32:57.508454,-80.0
2023-08-21 10:32:57.516143,-68.0
2023-08-21 10:32:57.523832,-58.0
2023-08-21 10:32:57.531520,-46.0
2023-08-21 10:32:57.539209,-31.0
2023-08-21 10:32:57.546898,-19.0
2023-08-21 10:32:57.554587,-7.0
2023-08-21 10:32:57.562275,7.0
2023-08-21 10:32:57.569964,14.0
2023-08-21 10:32:57.577653,21.0
2023-08-21 10:32:57.585341,34.0
2023-08-21 10:32:57.593030,43.0
2023-08-21 10:32:57.600719,46.0
2023-08-21 10:32:57.608408,46.0
2023-08-21 10:32:57.616096,41.0
2023-08-21 10:32:57.623785,31.0
2023-08-21 10:32:57.631474,29.0
2023-08-21 10:32:57.639163,21.0
2023-08-21 10:32:57.646851,0.0
2023-08-21 10:32:57.654540,-31.0
2023-08-21 10:32:57.662229,-65.0
2023-08-21 10:32:57.669917,-99.0
2023-08-21 10:32:57.677606,-121.0
2023-08-21 10:32:57.685295,-133.0
2023-08-21 10:32:57.692984,-143.0
2023-08-21 10:32:57.700672,-143.0
2023-08-21 10:32:57.708361,-148.0
2023-08-21 10:32:57.716050,-148.0
2023-08-21 10:32:57.723739,-136.0
2023-08-21 10:32:57.731427,-128.0
2023-08-21 10:32:57.739116,-123.0
2023-08-21 10:32:57.746805,-119.0
2023-08-21 10:32:57.754494,-119.0
2023-08-21 10:32:57.762182,-116.0
2023-08-21 10:32:57.769871,-114.0
2023-08-21 10:32:57.777560,-111.0
2023-08-21 10:32:57.785248,-109.0
2023-08-21 10:32:57.792937,-109.0
2023-08-21 10:32:57.800626,-111.0
2023-08-21 10:32:57.808315,-109.0
2023-08-21 10:32:57.816003,-106.0
2023-08-21 10:32:57.823692,-106.0
2023-08-21 10:32:57.831381,-106.0
2023-08-21 10:32:57.839070,-106.0
2023-08-21 10:32:57.846758,-119.0
2023-08-21 10:32:57.854447,-126.0
2023-08-21 10:32:57.862136,-119.0
2023-08-21 10:32:57.869824,-114.0
2023-08-21 10:32:57.877513,-111.0
2023-08-21 10:32:57.885202,-109.0
2023-08-21 10:32:57.892891,-109.0
2023-08-21 10:32:57.900579,-104.0
2023-08-21 10:32:57.908268,-99.0
2023-08-21 10:32:57.915957,-99.0
2023-08-21 10:32:57.923646,-94.0
2023-08-21 10:32:57.931334,-92.0
2023-08-21 10:32:57.939023,-97.0
2023-08-21 10:32:57.946712,-99.0
2023-08-21 10:32:57.954401,-97.0
2023-08-21 10:32:57.962089,-94.0
2023-08-21 10:32:57.969778,-94.0
2023-08-21 10:32:57.977467,-94.0
2023-08-21 10:32:57.985155,-97.0
2023-08-21 10:32:57.992844,-89.0
2023-08-21 10:32:58.000533,-68.0
2023-08-21 10:32:58.008222,-36.0
2023-08-21 10:32:58.015910,-24.0
2023-08-21 10:32:58.023599,-26.0
2023-08-21 10:32:58.031288,-36.0
2023-08-21 10:32:58.038977,-60.0
2023-08-21 10:32:58.046665,-80.0
2023-08-21 10:32:58.054354,-75.0
2023-08-21 10:32:58.062043,-70.0
2023-08-21 10:32:58.069731,-80.0
2023-08-21 10:32:58.077420,-85.0
2023-08-21 10:32:58.085109,-80.0
2023-08-21 10:32:58.092798,-82.0
2023-08-21 10:32:58.100486,-92.0
2023-08-21 10:32:58.108175,-102.0
2023-08-21 10:32:58.115864,-38.0
2023-08-21 10:32:58.123553,262.0
2023-08-21 10:32:58.131241,813.0
2023-08-21 10:32:58.138930,1161.0
2023-08-21 10:32:58.146619,782.0
2023-08-21 10:32:58.154308,-34.0
2023-08-21 10:32:58.161996,-342.0
2023-08-21 10:32:58.169685,-123.0
2023-08-21 10:32:58.177374,-97.0
2023-08-21 10:32:58.185062,-218.0
2023-08-21 10:32:58.192751,-174.0
2023-08-21 10:32:58.200440,-133.0
2023-08-21 10:32:58.208129,-165.0
2023-08-21 10:32:58.215817,-153.0
2023-08-21 10:32:58.223506,-119.0
2023-08-21 10:32:58.231195,-116.0
2023-08-21 10:32:58.238884,-111.0
2023-08-21 10:32:58.246572,-94.0
2023-08-21 10:32:58.254261,-87.0
2023-08-21 10:32:58.261950,-77.0
2023-08-21 10:32:58.269638,-65.0
2023-08-21 10:32:58.277327,-53.0
2023-08-21 10:32:58.285016,-41.0
2023-08-21 10:32:58.292705,-26.0
2023-08-21 10:32:58.300393,-14.0
2023-08-21 10:32:58.308082,-2.0
2023-08-21 10:32:58.315771,12.0
2023-08-21 10:32:58.323460,26.0
2023-08-21 10:32:58.331148,38.0
2023-08-21 10:32:58.338837,51.0
2023-08-21 10:32:58.346526,60.0
2023-08-21 10:32:58.354215,70.0
2023-08-21 10:32:58.361903,75.0
2023-08-21 10:32:58.369592,77.0
2023-08-21 10:32:58.377281,77.0
2023-08-21 10:32:58.384969,75.0
2023-08-21 10:32:58.392658,70.0
2023-08-21 10:32:58.400347,60.0
2023-08-21 10:32:58.408036,48.0
2023-08-21 10:32:58.415724,31.0
2023-08-21 10:32:58.423413,0.0
2023-08-21 10:32:58.431102,-43.0
2023-08-21 10:32:58.438791,-85.0
2023-08-21 10:32:58.446479,-111.0
2023-08-21 10:32:58.454168,-131.0
2023-08-21 10:32:58.461857,-138.0
2023-08-21 10:32:58.469545,-136.0
2023-08-21 10:32:58.477234,-133.0
2023-08-21 10:32:58.484923,-131.0
2023-08-21 10:32:58.492612,-123.0
2023-08-21 10:32:58.500300,-119.0
2023-08-21 10:32:58.507989,-119.0
2023-08-21 10:32:58.515678,-114.0
2023-08-21 10:32:58.523367,-111.0
2023-08-21 10:32:58.531055,-106.0
2023-08-21 10:32:58.538744,-104.0
2023-08-21 10:32:58.546433,-104.0
2023-08-21 10:32:58.554122,-102.0
2023-08-21 10:32:58.561810,-97.0
2023-08-21 10:32:58.569499,-99.0
2023-08-21 10:32:58.577188,-102.0
2023-08-21 10:32:58.584876,-102.0
2023-08-21 10:32:58.592565,-102.0
2023-08-21 10:32:58.600254,-99.0
2023-08-21 10:32:58.607943,-97.0
2023-08-21 10:32:58.615631,-99.0
2023-08-21 10:32:58.623320,-104.0
2023-08-21 10:32:58.631009,-111.0
2023-08-21 10:32:58.638698,-114.0
2023-08-21 10:32:58.646386,-106.0
2023-08-21 10:32:58.654075,-106.0
2023-08-21 10:32:58.661764,-104.0
2023-08-21 10:32:58.669453,-102.0
2023-08-21 10:32:58.677141,-102.0
2023-08-21 10:32:58.684830,-104.0
2023-08-21 10:32:58.692519,-102.0
2023-08-21 10:32:58.700207,-102.0
2023-08-21 10:32:58.707896,-99.0
2023-08-21 10:32:58.715585,-99.0
2023-08-21 10:32:58.723274,-102.0
2023-08-21 10:32:58.730962,-102.0
2023-08-21 10:32:58.738651,-99.0
2023-08-21 10:32:58.746340,-87.0
2023-08-21 10:32:58.754029,-65.0
2023-08-21 10:32:58.761717,-48.0
2023-08-21 10:32:58.769406,-41.0
2023-08-21 10:32:58.777095,-46.0
2023-08-21 10:32:58.784783,-70.0
2023-08-21 10:32:58.792472,-97.0
2023-08-21 10:32:58.800161,-99.0
2023-08-21 10:32:58.807850,-92.0
2023-08-21 10:32:58.815538,-92.0
2023-08-21 10:32:58.823227,-92.0
2023-08-21 10:32:58.830916,-92.0
2023-08-21 10:32:58.838605,-94.0
2023-08-21 10:32:58.846293,-97.0
2023-08-21 10:32:58.853982,-104.0
2023-08-21 10:32:58.861671,-72.0
2023-08-21 10:32:58.869360,160.0
2023-08-21 10:32:58.877048,697.0
2023-08-21 10:32:58.884737,1187.0
2023-08-21 10:32:58.892426,1015.0
2023-08-21 10:32:58.900114,179.0
2023-08-21 10:32:58.907803,-374.0
2023-08-21 10:32:58.915492,-211.0
2023-08-21 10:32:58.923181,-87.0
2023-08-21 10:32:58.930869,-235.0
2023-08-21 10:32:58.938558,-233.0
2023-08-21 10:32:58.946247,-157.0
2023-08-21 10:32:58.953936,-184.0
2023-08-21 10:32:58.961624,-191.0
2023-08-21 10:32:58.969313,-162.0
2023-08-21 10:32:58.977002,-167.0
2023-08-21 10:32:58.984690,-162.0
2023-08-21 10:32:58.992379,-140.0
2023-08-21 10:32:59.000068,-128.0
2023-08-21 10:32:59.007757,-123.0
2023-08-21 10:32:59.015445,-114.0
2023-08-21 10:32:59.023134,-99.0
2023-08-21 10:32:59.030823,-85.0
2023-08-21 10:32:59.038512,-72.0
2023-08-21 10:32:59.046200,-60.0
2023-08-21 10:32:59.053889,-48.0
2023-08-21 10:32:59.061578,-38.0
2023-08-21 10:32:59.069267,-29.0
2023-08-21 10:32:59.076955,-14.0
2023-08-21 10:32:59.084644,0.0
2023-08-21 10:32:59.092333,7.0
2023-08-21 10:32:59.100021,14.0
2023-08-21 10:32:59.107710,19.0
2023-08-21 10:32:59.115399,21.0
2023-08-21 10:32:59.123088,21.0
2023-08-21 10:32:59.130776,17.0
2023-08-21 10:32:59.138465,4.0
2023-08-21 10:32:59.146154,-4.0
2023-08-21 10:32:59.153843,-12.0
2023-08-21 10:32:59.161531,-31.0
2023-08-21 10:32:59.169220,-58.0
2023-08-21 10:32:59.176909,-89.0
2023-08-21 10:32:59.184597,-123.0
2023-08-21 10:32:59.192286,-150.0
2023-08-21 10:32:59.199975,-165.0
2023-08-21 10:32:59.207664,-174.0
2023-08-21 10:32:59.215352,-174.0
2023-08-21 10:32:59.223041,-172.0
2023-08-21 10:32:59.230730,-170.0
2023-08-21 10:32:59.238419,-165.0
2023-08-21 10:32:59.246107,-160.0
2023-08-21 10:32:59.253796,-153.0
2023-08-21 10:32:59.261485,-143.0
2023-08-21 10:32:59.269174,-140.0
2023-08-21 10:32:59.276862,-138.0
2023-08-21 10:32:59.284551,-136.0
2023-08-21 10:32:59.292240,-131.0
2023-08-21 10:32:59.299928,-131.0
2023-08-21 10:32:59.307617,-128.0
2023-08-21 10:32:59.315306,-126.0
2023-08-21 10:32:59.322995,-126.0
2023-08-21 10:32:59.330683,-128.0
2023-08-21 10:32:59.338372,-128.0
2023-08-21 10:32:59.346061,-126.0
2023-08-21 10:32:59.353750,-126.0
2023-08-21 10:32:59.361438,-126.0
2023-08-21 10:32:59.369127,-126.0
2023-08-21 10:32:59.376816,-126.0
2023-08-21 10:32:59.384504,-126.0
2023-08-21 10:32:59.392193,-123.0
2023-08-21 10:32:59.399882,-121.0
2023-08-21 10:32:59.407571,-119.0
2023-08-21 10:32:59.415259,-116.0
2023-08-21 10:32:59.422948,-119.0
2023-08-21 10:32:59.430637,-119.0
2023-08-21 10:32:59.438326,-119.0
2023-08-21 10:32:59.446014,-116.0
2023-08-21 10:32:59.453703,-116.0
2023-08-21 10:32:59.461392,-119.0
2023-08-21 10:32:59.469081,-116.0
2023-08-21 10:32:59.476769,-92.0
2023-08-21 10:32:59.484458,-65.0
2023-08-21 10:32:59.492147,-53.0
2023-08-21 10:32:59.499835,-51.0
2023-08-21 10:32:59.507524,-65.0
2023-08-21 10:32:59.515213,-104.0
2023-08-21 10:32:59.522902,-126.0
2023-08-21 10:32:59.530590,-119.0
2023-08-21 10:32:59.538279,-114.0
2023-08-21 10:32:59.545968,-121.0
2023-08-21 10:32:59.553657,-131.0
2023-08-21 10:32:59.561345,-136.0
2023-08-21 10:32:59.569034,-133.0
2023-08-21 10:32:59.576723,-136.0
2023-08-21 10:32:59.584411,-148.0
2023-08-21 10:32:59.592100,-87.0
2023-08-21 10:32:59.599789,213.0
2023-08-21 10:32:59.607478,762.0
2023-08-21 10:32:59.615166,1119.0
2023-08-21 10:32:59.622855,757.0
2023-08-21 10:32:59.630544,-55.0
2023-08-21 10:32:59.638233,-378.0
2023-08-21 10:32:59.645921,-165.0
2023-08-21 10:32:59.653610,-136.0
2023-08-21 10:32:59.661299,-257.0
2023-08-21 10:32:59.668988,-216.0
2023-08-21 10:32:59.676676,-177.0
2023-08-21 10:32:59.684365,-211.0
2023-08-21 10:32:59.692054,-199.0
2023-08-21 10:32:59.699742,-170.0
2023-08-21 10:32:59.707431,-170.0
2023-08-21 10:32:59.715120,-162.0
2023-08-21 10:32:59.722809,-145.0
2023-08-21 10:32:59.730497,-138.0
2023-08-21 10:32:59.738186,-131.0
2023-08-21 10:32:59.745875,-114.0
2023-08-21 10:32:59.753564,-97.0
2023-08-21 10:32:59.761252,-85.0
2023-08-21 10:32:59.768941,-70.0
2023-08-21 10:32:59.776630,-58.0
2023-08-21 10:32:59.784318,-43.0
2023-08-21 10:32:59.792007,-17.0
2023-08-21 10:32:59.799696,2.0
2023-08-21 10:32:59.807385,14.0
2023-08-21 10:32:59.815073,26.0
2023-08-21 10:32:59.822762,38.0
2023-08-21 10:32:59.830451,41.0
2023-08-21 10:32:59.838140,48.0
2023-08-21 10:32:59.845828,53.0
2023-08-21 10:32:59.853517,51.0
2023-08-21 10:32:59.861206,46.0
2023-08-21 10:32:59.868895,36.0
2023-08-21 10:32:59.876583,9.0
2023-08-21 10:32:59.884272,-14.0
2023-08-21 10:32:59.891961,-36.0
2023-08-21 10:32:59.899649,-68.0
2023-08-21 10:32:59.907338,-102.0
2023-08-21 10:32:59.915027,-133.0
2023-08-21 10:32:59.922716,-160.0
2023-08-21 10:32:59.930404,-174.0
2023-08-21 10:32:59.938093,-177.0
2023-08-21 10:32:59.945782,-177.0
2023-08-21 10:32:59.953471,-174.0
2023-08-21 10:32:59.961159,-170.0
2023-08-21 10:32:59.968848,-165.0
2023-08-21 10:32:59.976537,-157.0
2023-08-21 10:32:59.984225,-150.0
2023-08-21 10:32:59.991914,-145.0
2023-08-21 10:32:59.999603,-143.0
2023-08-21 10:33:00.007292,-143.0
2023-08-21 10:33:00.014980,-140.0
2023-08-21 10:33:00.022669,-138.0
2023-08-21 10:33:00.030358,-133.0
2023-08-21 10:33:00.038047,-133.0
2023-08-21 10:33:00.045735,-133.0
2023-08-21 10:33:00.053424,-136.0
2023-08-21 10:33:00.061113,-136.0
2023-08-21 10:33:00.068802,-133.0
2023-08-21 10:33:00.076490,-131.0
2023-08-21 10:33:00.084179,-128.0
2023-08-21 10:33:00.091868,-133.0
2023-08-21 10:33:00.099556,-143.0
2023-08-21 10:33:00.107245,-145.0
2023-08-21 10:33:00.114934,-136.0
2023-08-21 10:33:00.122623,-126.0
2023-08-21 10:33:00.130311,-116.0
2023-08-21 10:33:00.138000,-111.0
2023-08-21 10:33:00.145689,-114.0
2023-08-21 10:33:00.153378,-116.0
2023-08-21 10:33:00.161066,-119.0
2023-08-21 10:33:00.168755,-121.0
2023-08-21 10:33:00.176444,-114.0
2023-08-21 10:33:00.184132,-97.0
2023-08-21 10:33:00.191821,-99.0
2023-08-21 10:33:00.199510,-114.0
2023-08-21 10:33:00.207199,-119.0
2023-08-21 10:33:00.214887,-119.0
2023-08-21 10:33:00.222576,-106.0
2023-08-21 10:33:00.230265,-80.0
2023-08-21 10:33:00.237954,-58.0
2023-08-21 10:33:00.245642,-55.0
2023-08-21 10:33:00.253331,-58.0
2023-08-21 10:33:00.261020,-77.0
2023-08-21 10:33:00.268709,-109.0
2023-08-21 10:33:00.276397,-121.0
2023-08-21 10:33:00.284086,-123.0
2023-08-21 10:33:00.291775,-123.0
2023-08-21 10:33:00.299463,-123.0
2023-08-21 10:33:00.307152,-121.0
2023-08-21 10:33:00.314841,-121.0
2023-08-21 10:33:00.322530,-123.0
2023-08-21 10:33:00.330218,-138.0
2023-08-21 10:33:00.337907,-133.0
2023-08-21 10:33:00.345596,41.0
2023-08-21 10:33:00.353285,514.0
2023-08-21 10:33:00.360973,1034.0
2023-08-21 10:33:00.368662,1025.0
2023-08-21 10:33:00.376351,308.0
2023-08-21 10:33:00.384039,-323.0
2023-08-21 10:33:00.391728,-259.0
2023-08-21 10:33:00.399417,-92.0
2023-08-21 10:33:00.407106,-208.0
2023-08-21 10:33:00.414794,-245.0
2023-08-21 10:33:00.422483,-172.0
2023-08-21 10:33:00.430172,-184.0
2023-08-21 10:33:00.437861,-199.0
2023-08-21 10:33:00.445549,-170.0
2023-08-21 10:33:00.453238,-160.0
2023-08-21 10:33:00.460927,-165.0
2023-08-21 10:33:00.468616,-150.0
2023-08-21 10:33:00.476304,-138.0
2023-08-21 10:33:00.483993,-131.0
2023-08-21 10:33:00.491682,-119.0
2023-08-21 10:33:00.499370,-106.0
2023-08-21 10:33:00.507059,-97.0
2023-08-21 10:33:00.514748,-87.0
2023-08-21 10:33:00.522437,-75.0
2023-08-21 10:33:00.530125,-63.0
2023-08-21 10:33:00.537814,-51.0
2023-08-21 10:33:00.545503,-38.0
2023-08-21 10:33:00.553192,-29.0
2023-08-21 10:33:00.560880,-19.0
2023-08-21 10:33:00.568569,-7.0
2023-08-21 10:33:00.576258,4.0
2023-08-21 10:33:00.583946,9.0
2023-08-21 10:33:00.591635,14.0
2023-08-21 10:33:00.599324,17.0
2023-08-21 10:33:00.607013,17.0
2023-08-21 10:33:00.614701,17.0
2023-08-21 10:33:00.622390,14.0
2023-08-21 10:33:00.630079,9.0
2023-08-21 10:33:00.637768,-4.0
2023-08-21 10:33:00.645456,-31.0
2023-08-21 10:33:00.653145,-70.0
2023-08-21 10:33:00.660834,-109.0
2023-08-21 10:33:00.668523,-133.0
2023-08-21 10:33:00.676211,-155.0
2023-08-21 10:33:00.683900,-177.0
2023-08-21 10:33:00.691589,-184.0
2023-08-21 10:33:00.699277,-172.0
2023-08-21 10:33:00.706966,-162.0
2023-08-21 10:33:00.714655,-155.0
2023-08-21 10:33:00.722344,-143.0
2023-08-21 10:33:00.730032,-136.0
2023-08-21 10:33:00.737721,-133.0
2023-08-21 10:33:00.745410,-116.0
2023-08-21 10:33:00.753099,-97.0
2023-08-21 10:33:00.760787,-97.0
2023-08-21 10:33:00.768476,-99.0
2023-08-21 10:33:00.776165,-94.0
2023-08-21 10:33:00.783853,-92.0
2023-08-21 10:33:00.791542,-106.0
2023-08-21 10:33:00.799231,-131.0
2023-08-21 10:33:00.806920,-138.0
2023-08-21 10:33:00.814608,-136.0
2023-08-21 10:33:00.822297,-138.0
2023-08-21 10:33:00.829986,-138.0
2023-08-21 10:33:00.837675,-136.0
2023-08-21 10:33:00.845363,-136.0
2023-08-21 10:33:00.853052,-136.0
2023-08-21 10:33:00.860741,-133.0
2023-08-21 10:33:00.868430,-128.0
2023-08-21 10:33:00.876118,-126.0
2023-08-21 10:33:00.883807,-123.0
2023-08-21 10:33:00.891496,-123.0
2023-08-21 10:33:00.899184,-119.0
2023-08-21 10:33:00.906873,-119.0
2023-08-21 10:33:00.914562,-119.0
2023-08-21 10:33:00.922251,-116.0
2023-08-21 10:33:00.929939,-114.0
2023-08-21 10:33:00.937628,-114.0
2023-08-21 10:33:00.945317,-111.0
2023-08-21 10:33:00.953006,-111.0
2023-08-21 10:33:00.960694,-111.0
2023-08-21 10:33:00.968383,-97.0
2023-08-21 10:33:00.976072,-68.0
2023-08-21 10:33:00.983760,-43.0
2023-08-21 10:33:00.991449,-41.0
2023-08-21 10:33:00.999138,-43.0
2023-08-21 10:33:01.006827,-60.0
2023-08-21 10:33:01.014515,-89.0
2023-08-21 10:33:01.022204,-102.0
2023-08-21 10:33:01.029893,-94.0
2023-08-21 10:33:01.037582,-92.0
2023-08-21 10:33:01.045270,-94.0
2023-08-21 10:33:01.052959,-92.0
2023-08-21 10:33:01.060648,-87.0
2023-08-21 10:33:01.068337,-92.0
2023-08-21 10:33:01.076025,-106.0
2023-08-21 10:33:01.083714,-111.0
2023-08-21 10:33:01.091403,7.0
2023-08-21 10:33:01.099091,410.0
2023-08-21 10:33:01.106780,964.0
2023-08-21 10:33:01.114469,1117.0
2023-08-21 10:33:01.122158,519.0
2023-08-21 10:33:01.129846,-221.0
2023-08-21 10:33:01.137535,-298.0
2023-08-21 10:33:01.145224,-80.0
2023-08-21 10:33:01.152913,-153.0
2023-08-21 10:33:01.160601,-240.0
2023-08-21 10:33:01.168290,-172.0
2023-08-21 10:33:01.175979,-160.0
2023-08-21 10:33:01.183667,-182.0
2023-08-21 10:33:01.191356,-153.0
2023-08-21 10:33:01.199045,-133.0
2023-08-21 10:33:01.206734,-140.0
2023-08-21 10:33:01.214422,-136.0
2023-08-21 10:33:01.222111,-128.0
2023-08-21 10:33:01.229800,-131.0
2023-08-21 10:33:01.237489,-119.0
2023-08-21 10:33:01.245177,-102.0
2023-08-21 10:33:01.252866,-92.0
2023-08-21 10:33:01.260555,-82.0
2023-08-21 10:33:01.268244,-70.0
2023-08-21 10:33:01.275932,-58.0
2023-08-21 10:33:01.283621,-43.0
2023-08-21 10:33:01.291310,-31.0
2023-08-21 10:33:01.298998,-19.0
2023-08-21 10:33:01.306687,-9.0
2023-08-21 10:33:01.314376,0.0
2023-08-21 10:33:01.322065,12.0
2023-08-21 10:33:01.329753,21.0
2023-08-21 10:33:01.337442,29.0
2023-08-21 10:33:01.345131,31.0
2023-08-21 10:33:01.352820,26.0
2023-08-21 10:33:01.360508,26.0
2023-08-21 10:33:01.368197,26.0
2023-08-21 10:33:01.375886,21.0
2023-08-21 10:33:01.383575,7.0
2023-08-21 10:33:01.391263,-19.0
2023-08-21 10:33:01.398952,-55.0
2023-08-21 10:33:01.406641,-87.0
2023-08-21 10:33:01.414329,-111.0
2023-08-21 10:33:01.422018,-131.0
2023-08-21 10:33:01.429707,-140.0
2023-08-21 10:33:01.437396,-145.0
2023-08-21 10:33:01.445084,-148.0
2023-08-21 10:33:01.452773,-143.0
2023-08-21 10:33:01.460462,-136.0
2023-08-21 10:33:01.468151,-128.0
2023-08-21 10:33:01.475839,-123.0
2023-08-21 10:33:01.483528,-119.0
2023-08-21 10:33:01.491217,-114.0
2023-08-21 10:33:01.498905,-111.0
2023-08-21 10:33:01.506594,-109.0
2023-08-21 10:33:01.514283,-106.0
2023-08-21 10:33:01.521972,-102.0
2023-08-21 10:33:01.529660,-102.0
2023-08-21 10:33:01.537349,-104.0
2023-08-21 10:33:01.545038,-104.0
2023-08-21 10:33:01.552727,-102.0
2023-08-21 10:33:01.560415,-99.0
2023-08-21 10:33:01.568104,-99.0
2023-08-21 10:33:01.575793,-99.0
2023-08-21 10:33:01.583482,-102.0
2023-08-21 10:33:01.591170,-102.0
2023-08-21 10:33:01.598859,-97.0
2023-08-21 10:33:01.606548,-94.0
2023-08-21 10:33:01.614236,-94.0
2023-08-21 10:33:01.621925,-97.0
2023-08-21 10:33:01.629614,-97.0
2023-08-21 10:33:01.637303,-99.0
2023-08-21 10:33:01.644991,-99.0
2023-08-21 10:33:01.652680,-99.0
2023-08-21 10:33:01.660369,-97.0
2023-08-21 10:33:01.668058,-102.0
2023-08-21 10:33:01.675746,-106.0
2023-08-21 10:33:01.683435,-104.0
2023-08-21 10:33:01.691124,-104.0
2023-08-21 10:33:01.698812,-102.0
2023-08-21 10:33:01.706501,-80.0
2023-08-21 10:33:01.714190,-53.0
2023-08-21 10:33:01.721879,-38.0
2023-08-21 10:33:01.729567,-34.0
2023-08-21 10:33:01.737256,-41.0
2023-08-21 10:33:01.744945,-70.0
2023-08-21 10:33:01.752634,-89.0
2023-08-21 10:33:01.760322,-89.0
2023-08-21 10:33:01.768011,-87.0
2023-08-21 10:33:01.775700,-87.0
2023-08-21 10:33:01.783389,-85.0
2023-08-21 10:33:01.791077,-82.0
2023-08-21 10:33:01.798766,-87.0
2023-08-21 10:33:01.806455,-102.0
2023-08-21 10:33:01.814143,-121.0
2023-08-21 10:33:01.821832,-55.0
2023-08-21 10:33:01.829521,267.0
2023-08-21 10:33:01.837210,847.0
2023-08-21 10:33:01.844898,1231.0
2023-08-21 10:33:01.852587,840.0
2023-08-21 10:33:01.860276,-36.0
2023-08-21 10:33:01.867965,-378.0
2023-08-21 10:33:01.875653,-136.0
2023-08-21 10:33:01.883342,-106.0
2023-08-21 10:33:01.891031,-247.0
2023-08-21 10:33:01.898719,-201.0
2023-08-21 10:33:01.906408,-150.0
2023-08-21 10:33:01.914097,-179.0
2023-08-21 10:33:01.921786,-167.0
2023-08-21 10:33:01.929474,-133.0
2023-08-21 10:33:01.937163,-136.0
2023-08-21 10:33:01.944852,-133.0
2023-08-21 10:33:01.952541,-114.0
2023-08-21 10:33:01.960229,-102.0
2023-08-21 10:33:01.967918,-92.0
2023-08-21 10:33:01.975607,-82.0
2023-08-21 10:33:01.983296,-77.0
2023-08-21 10:33:01.990984,-68.0
2023-08-21 10:33:01.998673,-58.0
2023-08-21 10:33:02.006362,-46.0
2023-08-21 10:33:02.014050,-34.0
2023-08-21 10:33:02.021739,-19.0
2023-08-21 10:33:02.029428,-7.0
2023-08-21 10:33:02.037117,2.0
2023-08-21 10:33:02.044805,12.0
2023-08-21 10:33:02.052494,24.0
2023-08-21 10:33:02.060183,34.0
2023-08-21 10:33:02.067872,38.0
2023-08-21 10:33:02.075560,36.0
2023-08-21 10:33:02.083249,31.0
2023-08-21 10:33:02.090938,29.0
2023-08-21 10:33:02.098626,26.0
2023-08-21 10:33:02.106315,21.0
2023-08-21 10:33:02.114004,2.0
2023-08-21 10:33:02.121693,-26.0
2023-08-21 10:33:02.129381,-60.0
2023-08-21 10:33:02.137070,-97.0
2023-08-21 10:33:02.144759,-126.0
2023-08-21 10:33:02.152448,-148.0
2023-08-21 10:33:02.160136,-162.0
2023-08-21 10:33:02.167825,-174.0
2023-08-21 10:33:02.175514,-179.0
2023-08-21 10:33:02.183203,-174.0
2023-08-21 10:33:02.190891,-167.0
2023-08-21 10:33:02.198580,-160.0
2023-08-21 10:33:02.206269,-153.0
2023-08-21 10:33:02.213957,-145.0
2023-08-21 10:33:02.221646,-138.0
2023-08-21 10:33:02.229335,-133.0
2023-08-21 10:33:02.237024,-131.0
2023-08-21 10:33:02.244712,-123.0
2023-08-21 10:33:02.252401,-121.0
2023-08-21 10:33:02.260090,-121.0
2023-08-21 10:33:02.267779,-121.0
2023-08-21 10:33:02.275467,-121.0
2023-08-21 10:33:02.283156,-119.0
2023-08-21 10:33:02.290845,-119.0
2023-08-21 10:33:02.298533,-119.0
2023-08-21 10:33:02.306222,-121.0
2023-08-21 10:33:02.313911,-119.0
2023-08-21 10:33:02.321600,-119.0
2023-08-21 10:33:02.329288,-119.0
2023-08-21 10:33:02.336977,-119.0
2023-08-21 10:33:02.344666,-123.0
2023-08-21 10:33:02.352355,-133.0
2023-08-21 10:33:02.360043,-131.0
2023-08-21 10:33:02.367732,-126.0
2023-08-21 10:33:02.375421,-128.0
2023-08-21 10:33:02.383110,-133.0
2023-08-21 10:33:02.390798,-138.0
2023-08-21 10:33:02.398487,-128.0
2023-08-21 10:33:02.406176,-104.0
2023-08-21 10:33:02.413864,-80.0
2023-08-21 10:33:02.421553,-68.0
2023-08-21 10:33:02.429242,-63.0
2023-08-21 10:33:02.436931,-77.0
2023-08-21 10:33:02.444619,-109.0
2023-08-21 10:33:02.452308,-126.0
2023-08-21 10:33:02.459997,-119.0
2023-08-21 10:33:02.467686,-116.0
2023-08-21 10:33:02.475374,-116.0
2023-08-21 10:33:02.483063,-116.0
2023-08-21 10:33:02.490752,-114.0
2023-08-21 10:33:02.498440,-114.0
2023-08-21 10:33:02.506129,-121.0
2023-08-21 10:33:02.513818,-131.0
2023-08-21 10:33:02.521507,-55.0
2023-08-21 10:33:02.529195,272.0
2023-08-21 10:33:02.536884,835.0
2023-08-21 10:33:02.544573,1149.0
2023-08-21 10:33:02.552262,706.0
2023-08-21 10:33:02.559950,-109.0
2023-08-21 10:33:02.567639,-359.0
2023-08-21 10:33:02.575328,-123.0
2023-08-21 10:33:02.583017,-123.0
2023-08-21 10:33:02.590705,-240.0
2023-08-21 10:33:02.598394,-187.0
2023-08-21 10:33:02.606083,-153.0
2023-08-21 10:33:02.613771,-187.0
2023-08-21 10:33:02.621460,-172.0
2023-08-21 10:33:02.629149,-148.0
2023-08-21 10:33:02.636838,-150.0
2023-08-21 10:33:02.644526,-143.0
2023-08-21 10:33:02.652215,-126.0
2023-08-21 10:33:02.659904,-121.0
2023-08-21 10:33:02.667593,-119.0
2023-08-21 10:33:02.675281,-111.0
2023-08-21 10:33:02.682970,-102.0
2023-08-21 10:33:02.690659,-89.0
2023-08-21 10:33:02.698347,-75.0
2023-08-21 10:33:02.706036,-63.0
2023-08-21 10:33:02.713725,-53.0
2023-08-21 10:33:02.721414,-41.0
2023-08-21 10:33:02.729102,-34.0
2023-08-21 10:33:02.736791,-24.0
2023-08-21 10:33:02.744480,-17.0
2023-08-21 10:33:02.752169,-9.0
2023-08-21 10:33:02.759857,-2.0
2023-08-21 10:33:02.767546,0.0
2023-08-21 10:33:02.775235,2.0
2023-08-21 10:33:02.782924,0.0
2023-08-21 10:33:02.790612,-2.0
2023-08-21 10:33:02.798301,-7.0
2023-08-21 10:33:02.805990,-14.0
2023-08-21 10:33:02.813678,-31.0
2023-08-21 10:33:02.821367,-58.0
2023-08-21 10:33:02.829056,-89.0
2023-08-21 10:33:02.836745,-121.0
2023-08-21 10:33:02.844433,-148.0
2023-08-21 10:33:02.852122,-165.0
2023-08-21 10:33:02.859811,-174.0
2023-08-21 10:33:02.867500,-182.0
2023-08-21 10:33:02.875188,-184.0
2023-08-21 10:33:02.882877,-189.0
2023-08-21 10:33:02.890566,-194.0
2023-08-21 10:33:02.898254,-184.0
2023-08-21 10:33:02.905943,-172.0
2023-08-21 10:33:02.913632,-165.0
2023-08-21 10:33:02.921321,-162.0
2023-08-21 10:33:02.929009,-157.0
2023-08-21 10:33:02.936698,-153.0
2023-08-21 10:33:02.944387,-150.0
2023-08-21 10:33:02.952076,-145.0
2023-08-21 10:33:02.959764,-143.0
2023-08-21 10:33:02.967453,-143.0
2023-08-21 10:33:02.975142,-140.0
2023-08-21 10:33:02.982831,-140.0
2023-08-21 10:33:02.990519,-140.0
2023-08-21 10:33:02.998208,-138.0
2023-08-21 10:33:03.005897,-138.0
2023-08-21 10:33:03.013585,-136.0
2023-08-21 10:33:03.021274,-136.0
2023-08-21 10:33:03.028963,-136.0
2023-08-21 10:33:03.036652,-136.0
2023-08-21 10:33:03.044340,-131.0
2023-08-21 10:33:03.052029,-128.0
2023-08-21 10:33:03.059718,-128.0
2023-08-21 10:33:03.067407,-128.0
2023-08-21 10:33:03.075095,-126.0
2023-08-21 10:33:03.082784,-123.0
2023-08-21 10:33:03.090473,-123.0
2023-08-21 10:33:03.098161,-123.0
2023-08-21 10:33:03.105850,-126.0
2023-08-21 10:33:03.113539,-121.0
2023-08-21 10:33:03.121228,-97.0
2023-08-21 10:33:03.128916,-70.0
2023-08-21 10:33:03.136605,-63.0
2023-08-21 10:33:03.144294,-60.0
2023-08-21 10:33:03.151983,-72.0
2023-08-21 10:33:03.159671,-104.0
2023-08-21 10:33:03.167360,-119.0
2023-08-21 10:33:03.175049,-114.0
2023-08-21 10:33:03.182738,-119.0
2023-08-21 10:33:03.190426,-121.0
2023-08-21 10:33:03.198115,-119.0
2023-08-21 10:33:03.205804,-119.0
2023-08-21 10:33:03.213492,-116.0
2023-08-21 10:33:03.221181,-121.0
2023-08-21 10:33:03.228870,-133.0
2023-08-21 10:33:03.236559,-70.0
2023-08-21 10:33:03.244247,250.0
2023-08-21 10:33:03.251936,818.0
2023-08-21 10:33:03.259625,1158.0
2023-08-21 10:33:03.267314,745.0
2023-08-21 10:33:03.275002,-72.0
2023-08-21 10:33:03.282691,-352.0
2023-08-21 10:33:03.290380,-123.0
2023-08-21 10:33:03.298068,-114.0
2023-08-21 10:33:03.305757,-233.0
2023-08-21 10:33:03.313446,-179.0
2023-08-21 10:33:03.321135,-140.0
2023-08-21 10:33:03.328823,-177.0
2023-08-21 10:33:03.336512,-165.0
2023-08-21 10:33:03.344201,-136.0
2023-08-21 10:33:03.351890,-133.0
2023-08-21 10:33:03.359578,-128.0
2023-08-21 10:33:03.367267,-114.0
2023-08-21 10:33:03.374956,-109.0
2023-08-21 10:33:03.382645,-104.0
2023-08-21 10:33:03.390333,-92.0
2023-08-21 10:33:03.398022,-77.0
2023-08-21 10:33:03.405711,-65.0
2023-08-21 10:33:03.413399,-53.0
2023-08-21 10:33:03.421088,-46.0
2023-08-21 10:33:03.428777,-46.0
2023-08-21 10:33:03.436466,-38.0
2023-08-21 10:33:03.444154,-21.0
2023-08-21 10:33:03.451843,-9.0
2023-08-21 10:33:03.459532,-4.0
2023-08-21 10:33:03.467221,2.0
2023-08-21 10:33:03.474909,-2.0
2023-08-21 10:33:03.482598,-4.0
2023-08-21 10:33:03.490287,4.0
2023-08-21 10:33:03.497975,7.0
2023-08-21 10:33:03.505664,2.0
2023-08-21 10:33:03.513353,0.0
2023-08-21 10:33:03.521042,-9.0
2023-08-21 10:33:03.528730,-26.0
2023-08-21 10:33:03.536419,-53.0
2023-08-21 10:33:03.544108,-82.0
2023-08-21 10:33:03.551797,-114.0
2023-08-21 10:33:03.559485,-143.0
2023-08-21 10:33:03.567174,-165.0
2023-08-21 10:33:03.574863,-174.0
2023-08-21 10:33:03.582552,-177.0
2023-08-21 10:33:03.590240,-174.0
2023-08-21 10:33:03.597929,-170.0
2023-08-21 10:33:03.605618,-165.0
2023-08-21 10:33:03.613306,-162.0
2023-08-21 10:33:03.620995,-157.0
2023-08-21 10:33:03.628684,-148.0
2023-08-21 10:33:03.636373,-140.0
2023-08-21 10:33:03.644061,-136.0
2023-08-21 10:33:03.651750,-136.0
2023-08-21 10:33:03.659439,-133.0
2023-08-21 10:33:03.667128,-131.0
2023-08-21 10:33:03.674816,-133.0
2023-08-21 10:33:03.682505,-138.0
2023-08-21 10:33:03.690194,-136.0
2023-08-21 10:33:03.697882,-136.0
2023-08-21 10:33:03.705571,-136.0
2023-08-21 10:33:03.713260,-136.0
2023-08-21 10:33:03.720949,-133.0
2023-08-21 10:33:03.728637,-131.0
2023-08-21 10:33:03.736326,-128.0
2023-08-21 10:33:03.744015,-131.0
2023-08-21 10:33:03.751704,-131.0
2023-08-21 10:33:03.759392,-126.0
2023-08-21 10:33:03.767081,-121.0
2023-08-21 10:33:03.774770,-119.0
2023-08-21 10:33:03.782459,-116.0
2023-08-21 10:33:03.790147,-116.0
2023-08-21 10:33:03.797836,-114.0
2023-08-21 10:33:03.805525,-109.0
2023-08-21 10:33:03.813213,-104.0
2023-08-21 10:33:03.820902,-102.0
2023-08-21 10:33:03.828591,-99.0
2023-08-21 10:33:03.836280,-102.0
2023-08-21 10:33:03.843968,-102.0
2023-08-21 10:33:03.851657,-104.0
2023-08-21 10:33:03.859346,-99.0
2023-08-21 10:33:03.867035,-75.0
2023-08-21 10:33:03.874723,-41.0
2023-08-21 10:33:03.882412,-34.0
2023-08-21 10:33:03.890101,-36.0
2023-08-21 10:33:03.897789,-46.0
2023-08-21 10:33:03.905478,-72.0
2023-08-21 10:33:03.913167,-89.0
2023-08-21 10:33:03.920856,-87.0
2023-08-21 10:33:03.928544,-85.0
2023-08-21 10:33:03.936233,-89.0
2023-08-21 10:33:03.943922,-87.0
2023-08-21 10:33:03.951611,-80.0
2023-08-21 10:33:03.959299,-80.0
2023-08-21 10:33:03.966988,-89.0
2023-08-21 10:33:03.974677,-109.0
2023-08-21 10:33:03.982366,-58.0
2023-08-21 10:33:03.990054,238.0
2023-08-21 10:33:03.997743,799.0
2023-08-21 10:33:04.005432,1185.0
2023-08-21 10:33:04.013120,838.0
2023-08-21 10:33:04.020809,9.0
2023-08-21 10:33:04.028498,-332.0
2023-08-21 10:33:04.036187,-114.0
2023-08-21 10:33:04.043875,-77.0
2023-08-21 10:33:04.051564,-211.0
2023-08-21 10:33:04.059253,-179.0
2023-08-21 10:33:04.066942,-136.0
2023-08-21 10:33:04.074630,-170.0
2023-08-21 10:33:04.082319,-160.0
2023-08-21 10:33:04.090008,-126.0
2023-08-21 10:33:04.097696,-126.0
2023-08-21 10:33:04.105385,-123.0
2023-08-21 10:33:04.113074,-109.0
2023-08-21 10:33:04.120763,-102.0
2023-08-21 10:33:04.128451,-94.0
2023-08-21 10:33:04.136140,-80.0
2023-08-21 10:33:04.143829,-68.0
2023-08-21 10:33:04.151518,-58.0
2023-08-21 10:33:04.159206,-46.0
2023-08-21 10:33:04.166895,-34.0
2023-08-21 10:33:04.174584,-26.0
2023-08-21 10:33:04.182273,-24.0
2023-08-21 10:33:04.189961,-17.0
2023-08-21 10:33:04.197650,-4.0
2023-08-21 10:33:04.205339,4.0
2023-08-21 10:33:04.213027,9.0
2023-08-21 10:33:04.220716,17.0
2023-08-21 10:33:04.228405,21.0
2023-08-21 10:33:04.236094,19.0
2023-08-21 10:33:04.243782,14.0
2023-08-21 10:33:04.251471,14.0
2023-08-21 10:33:04.259160,12.0
2023-08-21 10:33:04.266849,4.0
2023-08-21 10:33:04.274537,-9.0
2023-08-21 10:33:04.282226,-36.0
2023-08-21 10:33:04.289915,-68.0
2023-08-21 10:33:04.297604,-102.0
2023-08-21 10:33:04.305292,-128.0
2023-08-21 10:33:04.312981,-148.0
2023-08-21 10:33:04.320670,-160.0
2023-08-21 10:33:04.328358,-165.0
2023-08-21 10:33:04.336047,-165.0
2023-08-21 10:33:04.343736,-162.0
2023-08-21 10:33:04.351425,-162.0
2023-08-21 10:33:04.359113,-160.0
2023-08-21 10:33:04.366802,-150.0
2023-08-21 10:33:04.374491,-140.0
2023-08-21 10:33:04.382180,-136.0
2023-08-21 10:33:04.389868,-128.0
2023-08-21 10:33:04.397557,-126.0
2023-08-21 10:33:04.405246,-121.0
2023-08-21 10:33:04.412934,-116.0
2023-08-21 10:33:04.420623,-116.0
2023-08-21 10:33:04.428312,-116.0
2023-08-21 10:33:04.436001,-111.0
2023-08-21 10:33:04.443689,-111.0
2023-08-21 10:33:04.451378,-111.0
2023-08-21 10:33:04.459067,-111.0
2023-08-21 10:33:04.466756,-111.0
2023-08-21 10:33:04.474444,-111.0
2023-08-21 10:33:04.482133,-111.0
2023-08-21 10:33:04.489822,-109.0
2023-08-21 10:33:04.497511,-104.0
2023-08-21 10:33:04.505199,-102.0
2023-08-21 10:33:04.512888,-102.0
2023-08-21 10:33:04.520577,-99.0
2023-08-21 10:33:04.528265,-97.0
2023-08-21 10:33:04.535954,-97.0
2023-08-21 10:33:04.543643,-94.0
2023-08-21 10:33:04.551332,-92.0
2023-08-21 10:33:04.559020,-89.0
2023-08-21 10:33:04.566709,-85.0
2023-08-21 10:33:04.574398,-82.0
2023-08-21 10:33:04.582087,-82.0
2023-08-21 10:33:04.589775,-82.0
2023-08-21 10:33:04.597464,-82.0
2023-08-21 10:33:04.605153,-85.0
2023-08-21 10:33:04.612841,-80.0
2023-08-21 10:33:04.620530,-75.0
2023-08-21 10:33:04.628219,-72.0
2023-08-21 10:33:04.635908,-80.0
2023-08-21 10:33:04.643596,-94.0
2023-08-21 10:33:04.651285,-89.0
2023-08-21 10:33:04.658974,-55.0
2023-08-21 10:33:04.666663,-26.0
2023-08-21 10:33:04.674351,-26.0
2023-08-21 10:33:04.682040,-36.0
2023-08-21 10:33:04.689729,-48.0
2023-08-21 10:33:04.697418,-75.0
2023-08-21 10:33:04.705106,-92.0
2023-08-21 10:33:04.712795,-87.0
2023-08-21 10:33:04.720484,-82.0
2023-08-21 10:33:04.728172,-87.0
2023-08-21 10:33:04.735861,-85.0
2023-08-21 10:33:04.743550,-82.0
2023-08-21 10:33:04.751239,-82.0
2023-08-21 10:33:04.758927,-87.0
2023-08-21 10:33:04.766616,-102.0
2023-08-21 10:33:04.774305,-70.0
2023-08-21 10:33:04.781994,182.0
2023-08-21 10:33:04.789682,726.0
2023-08-21 10:33:04.797371,1180.0
2023-08-21 10:33:04.805060,942.0
2023-08-21 10:33:04.812748,111.0
2023-08-21 10:33:04.820437,-342.0
2023-08-21 10:33:04.828126,-155.0
2023-08-21 10:33:04.835815,-72.0
2023-08-21 10:33:04.843503,-211.0
2023-08-21 10:33:04.851192,-191.0
2023-08-21 10:33:04.858881,-131.0
2023-08-21 10:33:04.866570,-160.0
2023-08-21 10:33:04.874258,-157.0
2023-08-21 10:33:04.881947,-121.0
2023-08-21 10:33:04.889636,-119.0
2023-08-21 10:33:04.897325,-123.0
2023-08-21 10:33:04.905013,-116.0
2023-08-21 10:33:04.912702,-106.0
2023-08-21 10:33:04.920391,-97.0
2023-08-21 10:33:04.928079,-82.0
2023-08-21 10:33:04.935768,-68.0
2023-08-21 10:33:04.943457,-58.0
2023-08-21 10:33:04.951146,-53.0
2023-08-21 10:33:04.958834,-43.0
2023-08-21 10:33:04.966523,-34.0
2023-08-21 10:33:04.974212,-21.0
2023-08-21 10:33:04.981901,-9.0
2023-08-21 10:33:04.989589,2.0
2023-08-21 10:33:04.997278,12.0
2023-08-21 10:33:05.004967,21.0
2023-08-21 10:33:05.012655,34.0
2023-08-21 10:33:05.020344,41.0
2023-08-21 10:33:05.028033,43.0
2023-08-21 10:33:05.035722,46.0
2023-08-21 10:33:05.043410,41.0
2023-08-21 10:33:05.051099,36.0
2023-08-21 10:33:05.058788,31.0
2023-08-21 10:33:05.066477,19.0
2023-08-21 10:33:05.074165,-2.0
2023-08-21 10:33:05.081854,-36.0
2023-08-21 10:33:05.089543,-72.0
2023-08-21 10:33:05.097232,-106.0
2023-08-21 10:33:05.104920,-131.0
2023-08-21 10:33:05.112609,-145.0
2023-08-21 10:33:05.120298,-155.0
2023-08-21 10:33:05.127986,-162.0
2023-08-21 10:33:05.135675,-172.0
2023-08-21 10:33:05.143364,-174.0
2023-08-21 10:33:05.151053,-165.0
2023-08-21 10:33:05.158741,-153.0
2023-08-21 10:33:05.166430,-143.0
2023-08-21 10:33:05.174119,-138.0
2023-08-21 10:33:05.181808,-136.0
2023-08-21 10:33:05.189496,-131.0
2023-08-21 10:33:05.197185,-121.0
2023-08-21 10:33:05.204874,-114.0
2023-08-21 10:33:05.212562,-111.0
2023-08-21 10:33:05.220251,-109.0
2023-08-21 10:33:05.227940,-109.0
2023-08-21 10:33:05.235629,-109.0
2023-08-21 10:33:05.243317,-106.0
2023-08-21 10:33:05.251006,-104.0
2023-08-21 10:33:05.258695,-106.0
2023-08-21 10:33:05.266384,-106.0
2023-08-21 10:33:05.274072,-106.0
2023-08-21 10:33:05.281761,-106.0
2023-08-21 10:33:05.289450,-106.0
2023-08-21 10:33:05.297139,-102.0
2023-08-21 10:33:05.304827,-99.0
2023-08-21 10:33:05.312516,-99.0
2023-08-21 10:33:05.320205,-99.0
2023-08-21 10:33:05.327893,-97.0
2023-08-21 10:33:05.335582,-97.0
2023-08-21 10:33:05.343271,-99.0
2023-08-21 10:33:05.350960,-99.0
2023-08-21 10:33:05.358648,-97.0
2023-08-21 10:33:05.366337,-99.0
2023-08-21 10:33:05.374026,-94.0
2023-08-21 10:33:05.381715,-87.0
2023-08-21 10:33:05.389403,-85.0
2023-08-21 10:33:05.397092,-85.0
2023-08-21 10:33:05.404781,-87.0
2023-08-21 10:33:05.412469,-92.0
2023-08-21 10:33:05.420158,-87.0
2023-08-21 10:33:05.427847,-82.0
2023-08-21 10:33:05.435536,-80.0
2023-08-21 10:33:05.443224,-80.0
2023-08-21 10:33:05.450913,-85.0
2023-08-21 10:33:05.458602,-82.0
2023-08-21 10:33:05.466291,-55.0
2023-08-21 10:33:05.473979,-21.0
2023-08-21 10:33:05.481668,-12.0
2023-08-21 10:33:05.489357,-17.0
2023-08-21 10:33:05.497046,-31.0
2023-08-21 10:33:05.504734,-58.0
2023-08-21 10:33:05.512423,-80.0
2023-08-21 10:33:05.520112,-72.0
2023-08-21 10:33:05.527800,-65.0
2023-08-21 10:33:05.535489,-72.0
2023-08-21 10:33:05.543178,-75.0
2023-08-21 10:33:05.550867,-75.0
2023-08-21 10:33:05.558555,-75.0
2023-08-21 10:33:05.566244,-82.0
2023-08-21 10:33:05.573933,-97.0
2023-08-21 10:33:05.581622,-85.0
2023-08-21 10:33:05.589310,102.0
2023-08-21 10:33:05.596999,607.0
2023-08-21 10:33:05.604688,1153.0
2023-08-21 10:33:05.612376,1102.0
2023-08-21 10:33:05.620065,313.0
2023-08-21 10:33:05.627754,-323.0
2023-08-21 10:33:05.635443,-225.0
2023-08-21 10:33:05.643131,-63.0
2023-08-21 10:33:05.650820,-191.0
2023-08-21 10:33:05.658509,-211.0
2023-08-21 10:33:05.666198,-131.0
2023-08-21 10:33:05.673886,-153.0
2023-08-21 10:33:05.681575,-172.0
2023-08-21 10:33:05.689264,-143.0
2023-08-21 10:33:05.696953,-133.0
2023-08-21 10:33:05.704641,-138.0
2023-08-21 10:33:05.712330,-123.0
2023-08-21 10:33:05.720019,-119.0
2023-08-21 10:33:05.727707,-126.0
2023-08-21 10:33:05.735396,-116.0
2023-08-21 10:33:05.743085,-99.0
2023-08-21 10:33:05.750774,-87.0
2023-08-21 10:33:05.758462,-77.0
2023-08-21 10:33:05.766151,-75.0
2023-08-21 10:33:05.773840,-72.0
2023-08-21 10:33:05.781529,-55.0
2023-08-21 10:33:05.789217,-38.0
2023-08-21 10:33:05.796906,-26.0
2023-08-21 10:33:05.804595,-17.0
2023-08-21 10:33:05.812283,-2.0
2023-08-21 10:33:05.819972,7.0
2023-08-21 10:33:05.827661,12.0
2023-08-21 10:33:05.835350,14.0
2023-08-21 10:33:05.843038,17.0
2023-08-21 10:33:05.850727,17.0
2023-08-21 10:33:05.858416,14.0
2023-08-21 10:33:05.866105,9.0
2023-08-21 10:33:05.873793,0.0
2023-08-21 10:33:05.881482,-21.0
2023-08-21 10:33:05.889171,-51.0
2023-08-21 10:33:05.896860,-82.0
2023-08-21 10:33:05.904548,-114.0
2023-08-21 10:33:05.912237,-145.0
2023-08-21 10:33:05.919926,-172.0
2023-08-21 10:33:05.927614,-179.0
2023-08-21 10:33:05.935303,-179.0
2023-08-21 10:33:05.942992,-182.0
2023-08-21 10:33:05.950681,-179.0
2023-08-21 10:33:05.958369,-170.0
2023-08-21 10:33:05.966058,-162.0
2023-08-21 10:33:05.973747,-153.0
2023-08-21 10:33:05.981436,-143.0
2023-08-21 10:33:05.989124,-136.0
2023-08-21 10:33:05.996813,-131.0
2023-08-21 10:33:06.004502,-123.0
2023-08-21 10:33:06.012190,-116.0
2023-08-21 10:33:06.019879,-114.0
2023-08-21 10:33:06.027568,-111.0
2023-08-21 10:33:06.035257,-109.0
2023-08-21 10:33:06.042945,-109.0
2023-08-21 10:33:06.050634,-111.0
2023-08-21 10:33:06.058323,-111.0
2023-08-21 10:33:06.066012,-109.0
2023-08-21 10:33:06.073700,-111.0
2023-08-21 10:33:06.081389,-111.0
2023-08-21 10:33:06.089078,-114.0
2023-08-21 10:33:06.096767,-111.0
2023-08-21 10:33:06.104455,-111.0
2023-08-21 10:33:06.112144,-109.0
2023-08-21 10:33:06.119833,-109.0
2023-08-21 10:33:06.127521,-109.0
2023-08-21 10:33:06.135210,-106.0
2023-08-21 10:33:06.142899,-102.0
2023-08-21 10:33:06.150588,-102.0
2023-08-21 10:33:06.158276,-99.0
2023-08-21 10:33:06.165965,-97.0
2023-08-21 10:33:06.173654,-94.0
2023-08-21 10:33:06.181343,-92.0
2023-08-21 10:33:06.189031,-89.0
2023-08-21 10:33:06.196720,-87.0
2023-08-21 10:33:06.204409,-85.0
2023-08-21 10:33:06.212097,-82.0
2023-08-21 10:33:06.219786,-82.0
2023-08-21 10:33:06.227475,-80.0
2023-08-21 10:33:06.235164,-77.0
2023-08-21 10:33:06.242852,-77.0
2023-08-21 10:33:06.250541,-77.0
2023-08-21 10:33:06.258230,-85.0
2023-08-21 10:33:06.265919,-97.0
2023-08-21 10:33:06.273607,-99.0
2023-08-21 10:33:06.281296,-89.0
2023-08-21 10:33:06.288985,-65.0
2023-08-21 10:33:06.296674,-34.0
2023-08-21 10:33:06.304362,-26.0
2023-08-21 10:33:06.312051,-36.0
2023-08-21 10:33:06.319740,-46.0
2023-08-21 10:33:06.327428,-72.0
2023-08-21 10:33:06.335117,-99.0
2023-08-21 10:33:06.342806,-92.0
2023-08-21 10:33:06.350495,-87.0
2023-08-21 10:33:06.358183,-92.0
2023-08-21 10:33:06.365872,-89.0
2023-08-21 10:33:06.373561,-87.0
2023-08-21 10:33:06.381250,-92.0
2023-08-21 10:33:06.388938,-99.0
2023-08-21 10:33:06.396627,-116.0
2023-08-21 10:33:06.404316,-99.0
2023-08-21 10:33:06.412004,121.0
2023-08-21 10:33:06.419693,643.0
2023-08-21 10:33:06.427382,1132.0
2023-08-21 10:33:06.435071,983.0
2023-08-21 10:33:06.442759,187.0
2023-08-21 10:33:06.450448,-349.0
2023-08-21 10:33:06.458137,-206.0
2023-08-21 10:33:06.465826,-85.0
2023-08-21 10:33:06.473514,-221.0
2023-08-21 10:33:06.481203,-223.0
2023-08-21 10:33:06.488892,-155.0
2023-08-21 10:33:06.496581,-174.0
2023-08-21 10:33:06.504269,-177.0
2023-08-21 10:33:06.511958,-143.0
2023-08-21 10:33:06.519647,-136.0
2023-08-21 10:33:06.527335,-136.0
2023-08-21 10:33:06.535024,-119.0
2023-08-21 10:33:06.542713,-104.0
2023-08-21 10:33:06.550402,-97.0
2023-08-21 10:33:06.558090,-87.0
2023-08-21 10:33:06.565779,-75.0
2023-08-21 10:33:06.573468,-68.0
2023-08-21 10:33:06.581157,-55.0
2023-08-21 10:33:06.588845,-41.0
2023-08-21 10:33:06.596534,-26.0
2023-08-21 10:33:06.604223,-14.0
2023-08-21 10:33:06.611911,-2.0
2023-08-21 10:33:06.619600,12.0
2023-08-21 10:33:06.627289,24.0
2023-08-21 10:33:06.634978,38.0
2023-08-21 10:33:06.642666,51.0
2023-08-21 10:33:06.650355,60.0
2023-08-21 10:33:06.658044,68.0
2023-08-21 10:33:06.665733,68.0
2023-08-21 10:33:06.673421,68.0
2023-08-21 10:33:06.681110,70.0
2023-08-21 10:33:06.688799,65.0
2023-08-21 10:33:06.696488,53.0
2023-08-21 10:33:06.704176,29.0
2023-08-21 10:33:06.711865,-4.0
2023-08-21 10:33:06.719554,-43.0
2023-08-21 10:33:06.727242,-75.0
2023-08-21 10:33:06.734931,-102.0
2023-08-21 10:33:06.742620,-121.0
2023-08-21 10:33:06.750309,-136.0
2023-08-21 10:33:06.757997,-140.0
2023-08-21 10:33:06.765686,-138.0
2023-08-21 10:33:06.773375,-133.0
2023-08-21 10:33:06.781064,-131.0
2023-08-21 10:33:06.788752,-126.0
2023-08-21 10:33:06.796441,-126.0
2023-08-21 10:33:06.804130,-131.0
2023-08-21 10:33:06.811818,-131.0
2023-08-21 10:33:06.819507,-123.0
2023-08-21 10:33:06.827196,-119.0
2023-08-21 10:33:06.834885,-114.0
2023-08-21 10:33:06.842573,-119.0
2023-08-21 10:33:06.850262,-126.0
2023-08-21 10:33:06.857951,-126.0
2023-08-21 10:33:06.865640,-119.0
2023-08-21 10:33:06.873328,-119.0
2023-08-21 10:33:06.881017,-119.0
2023-08-21 10:33:06.888706,-121.0
2023-08-21 10:33:06.896395,-121.0
2023-08-21 10:33:06.904083,-119.0
2023-08-21 10:33:06.911772,-116.0
2023-08-21 10:33:06.919461,-121.0
2023-08-21 10:33:06.927149,-126.0
2023-08-21 10:33:06.934838,-126.0
2023-08-21 10:33:06.942527,-121.0
2023-08-21 10:33:06.950216,-119.0
2023-08-21 10:33:06.957904,-116.0
2023-08-21 10:33:06.965593,-114.0
2023-08-21 10:33:06.973282,-114.0
2023-08-21 10:33:06.980971,-116.0
2023-08-21 10:33:06.988659,-114.0
2023-08-21 10:33:06.996348,-109.0
2023-08-21 10:33:07.004037,-106.0
2023-08-21 10:33:07.011726,-104.0
2023-08-21 10:33:07.019414,-102.0
2023-08-21 10:33:07.027103,-102.0
2023-08-21 10:33:07.034792,-102.0
2023-08-21 10:33:07.042480,-94.0
2023-08-21 10:33:07.050169,-92.0
2023-08-21 10:33:07.057858,-94.0
2023-08-21 10:33:07.065547,-97.0
2023-08-21 10:33:07.073235,-99.0
2023-08-21 10:33:07.080924,-97.0
2023-08-21 10:33:07.088613,-92.0
2023-08-21 10:33:07.096302,-92.0
2023-08-21 10:33:07.103990,-94.0
2023-08-21 10:33:07.111679,-94.0
2023-08-21 10:33:07.119368,-97.0
2023-08-21 10:33:07.127056,-102.0
2023-08-21 10:33:07.134745,-87.0
2023-08-21 10:33:07.142434,-53.0
2023-08-21 10:33:07.150123,-29.0
2023-08-21 10:33:07.157811,-31.0
2023-08-21 10:33:07.165500,-43.0
2023-08-21 10:33:07.173189,-55.0
2023-08-21 10:33:07.180878,-82.0
2023-08-21 10:33:07.188566,-97.0
2023-08-21 10:33:07.196255,-87.0
2023-08-21 10:33:07.203944,-87.0
2023-08-21 10:33:07.211633,-97.0
2023-08-21 10:33:07.219321,-94.0
2023-08-21 10:33:07.227010,-87.0
2023-08-21 10:33:07.234699,-87.0
2023-08-21 10:33:07.242387,-92.0
2023-08-21 10:33:07.250076,-111.0
2023-08-21 10:33:07.257765,-63.0
2023-08-21 10:33:07.265454,230.0
2023-08-21 10:33:07.273142,794.0
2023-08-21 10:33:07.280831,1192.0
2023-08-21 10:33:07.288520,867.0
2023-08-21 10:33:07.296209,38.0
2023-08-21 10:33:07.303897,-340.0
2023-08-21 10:33:07.311586,-138.0
2023-08-21 10:33:07.319275,-89.0
2023-08-21 10:33:07.326963,-218.0
2023-08-21 10:33:07.334652,-182.0
2023-08-21 10:33:07.342341,-128.0
2023-08-21 10:33:07.350030,-160.0
2023-08-21 10:33:07.357718,-153.0
2023-08-21 10:33:07.365407,-116.0
2023-08-21 10:33:07.373096,-114.0
2023-08-21 10:33:07.380785,-111.0
2023-08-21 10:33:07.388473,-94.0
2023-08-21 10:33:07.396162,-87.0
2023-08-21 10:33:07.403851,-80.0
2023-08-21 10:33:07.411540,-65.0
2023-08-21 10:33:07.419228,-55.0
2023-08-21 10:33:07.426917,-58.0
2023-08-21 10:33:07.434606,-58.0
2023-08-21 10:33:07.442294,-48.0
2023-08-21 10:33:07.449983,-31.0
2023-08-21 10:33:07.457672,-17.0
2023-08-21 10:33:07.465361,-4.0
2023-08-21 10:33:07.473049,7.0
2023-08-21 10:33:07.480738,19.0
2023-08-21 10:33:07.488427,29.0
2023-08-21 10:33:07.496116,43.0
2023-08-21 10:33:07.503804,58.0
2023-08-21 10:33:07.511493,63.0
2023-08-21 10:33:07.519182,63.0
2023-08-21 10:33:07.526870,63.0
2023-08-21 10:33:07.534559,65.0
2023-08-21 10:33:07.542248,63.0
2023-08-21 10:33:07.549937,51.0
2023-08-21 10:33:07.557625,21.0
2023-08-21 10:33:07.565314,-14.0
2023-08-21 10:33:07.573003,-55.0
2023-08-21 10:33:07.580692,-89.0
2023-08-21 10:33:07.588380,-116.0
2023-08-21 10:33:07.596069,-133.0
2023-08-21 10:33:07.603758,-145.0
2023-08-21 10:33:07.611447,-148.0
2023-08-21 10:33:07.619135,-148.0
2023-08-21 10:33:07.626824,-148.0
2023-08-21 10:33:07.634513,-140.0
2023-08-21 10:33:07.642201,-131.0
2023-08-21 10:33:07.649890,-123.0
2023-08-21 10:33:07.657579,-121.0
2023-08-21 10:33:07.665268,-116.0
2023-08-21 10:33:07.672956,-109.0
2023-08-21 10:33:07.680645,-102.0
2023-08-21 10:33:07.688334,-99.0
2023-08-21 10:33:07.696023,-97.0
2023-08-21 10:33:07.703711,-97.0
2023-08-21 10:33:07.711400,-99.0
2023-08-21 10:33:07.719089,-99.0
2023-08-21 10:33:07.726777,-99.0
2023-08-21 10:33:07.734466,-102.0
2023-08-21 10:33:07.742155,-102.0
2023-08-21 10:33:07.749844,-104.0
2023-08-21 10:33:07.757532,-104.0
2023-08-21 10:33:07.765221,-102.0
2023-08-21 10:33:07.772910,-104.0
2023-08-21 10:33:07.780599,-102.0
2023-08-21 10:33:07.788287,-102.0
2023-08-21 10:33:07.795976,-106.0
2023-08-21 10:33:07.803665,-109.0
2023-08-21 10:33:07.811354,-106.0
2023-08-21 10:33:07.819042,-106.0
2023-08-21 10:33:07.826731,-102.0
2023-08-21 10:33:07.834420,-102.0
2023-08-21 10:33:07.842108,-102.0
2023-08-21 10:33:07.849797,-102.0
2023-08-21 10:33:07.857486,-104.0
2023-08-21 10:33:07.865175,-106.0
2023-08-21 10:33:07.872863,-106.0
2023-08-21 10:33:07.880552,-104.0
2023-08-21 10:33:07.888241,-104.0
2023-08-21 10:33:07.895930,-102.0
2023-08-21 10:33:07.903618,-102.0
2023-08-21 10:33:07.911307,-99.0
2023-08-21 10:33:07.918996,-97.0
2023-08-21 10:33:07.926684,-99.0
2023-08-21 10:33:07.934373,-104.0
2023-08-21 10:33:07.942062,-104.0
2023-08-21 10:33:07.949751,-99.0
2023-08-21 10:33:07.957439,-94.0
2023-08-21 10:33:07.965128,-94.0
2023-08-21 10:33:07.972817,-106.0
2023-08-21 10:33:07.980506,-116.0
2023-08-21 10:33:07.988194,-102.0
2023-08-21 10:33:07.995883,-68.0
2023-08-21 10:33:08.003572,-43.0
2023-08-21 10:33:08.011261,-43.0
2023-08-21 10:33:08.018949,-60.0
2023-08-21 10:33:08.026638,-77.0
2023-08-21 10:33:08.034327,-99.0
2023-08-21 10:33:08.042015,-119.0
2023-08-21 10:33:08.049704,-116.0
2023-08-21 10:33:08.057393,-116.0
2023-08-21 10:33:08.065082,-131.0
2023-08-21 10:33:08.072770,-133.0
2023-08-21 10:33:08.080459,-123.0
2023-08-21 10:33:08.088148,-119.0
2023-08-21 10:33:08.095837,-123.0
2023-08-21 10:33:08.103525,-143.0
2023-08-21 10:33:08.111214,-123.0
2023-08-21 10:33:08.118903,119.0
2023-08-21 10:33:08.126591,682.0
2023-08-21 10:33:08.134280,1187.0
2023-08-21 10:33:08.141969,1003.0
2023-08-21 10:33:08.149658,155.0
2023-08-21 10:33:08.157346,-386.0
2023-08-21 10:33:08.165035,-221.0
2023-08-21 10:33:08.172724,-99.0
2023-08-21 10:33:08.180413,-238.0
2023-08-21 10:33:08.188101,-225.0
2023-08-21 10:33:08.195790,-153.0
2023-08-21 10:33:08.203479,-182.0
2023-08-21 10:33:08.211168,-182.0
2023-08-21 10:33:08.218856,-140.0
2023-08-21 10:33:08.226545,-136.0
2023-08-21 10:33:08.234234,-133.0
2023-08-21 10:33:08.241922,-116.0
2023-08-21 10:33:08.249611,-106.0
2023-08-21 10:33:08.257300,-97.0
2023-08-21 10:33:08.264989,-82.0
2023-08-21 10:33:08.272677,-70.0
2023-08-21 10:33:08.280366,-58.0
2023-08-21 10:33:08.288055,-43.0
2023-08-21 10:33:08.295744,-31.0
2023-08-21 10:33:08.303432,-21.0
2023-08-21 10:33:08.311121,-7.0
2023-08-21 10:33:08.318810,7.0
2023-08-21 10:33:08.326498,19.0
2023-08-21 10:33:08.334187,34.0
2023-08-21 10:33:08.341876,51.0
2023-08-21 10:33:08.349565,63.0
2023-08-21 10:33:08.357253,72.0
2023-08-21 10:33:08.364942,80.0
2023-08-21 10:33:08.372631,82.0
2023-08-21 10:33:08.380320,80.0
2023-08-21 10:33:08.388008,77.0
2023-08-21 10:33:08.395697,75.0
2023-08-21 10:33:08.403386,63.0
2023-08-21 10:33:08.411075,41.0
2023-08-21 10:33:08.418763,4.0
2023-08-21 10:33:08.426452,-36.0
2023-08-21 10:33:08.434141,-80.0
2023-08-21 10:33:08.441829,-116.0
2023-08-21 10:33:08.449518,-136.0
2023-08-21 10:33:08.457207,-153.0
2023-08-21 10:33:08.464896,-162.0
2023-08-21 10:33:08.472584,-165.0
2023-08-21 10:33:08.480273,-160.0
2023-08-21 10:33:08.487962,-155.0
2023-08-21 10:33:08.495651,-148.0
2023-08-21 10:33:08.503339,-143.0
2023-08-21 10:33:08.511028,-148.0
2023-08-21 10:33:08.518717,-153.0
2023-08-21 10:33:08.526405,-143.0
2023-08-21 10:33:08.534094,-136.0
2023-08-21 10:33:08.541783,-136.0
2023-08-21 10:33:08.549472,-138.0
2023-08-21 10:33:08.557160,-133.0
2023-08-21 10:33:08.564849,-131.0
2023-08-21 10:33:08.572538,-128.0
2023-08-21 10:33:08.580227,-126.0
2023-08-21 10:33:08.587915,-126.0
2023-08-21 10:33:08.595604,-131.0
2023-08-21 10:33:08.603293,-133.0
2023-08-21 10:33:08.610982,-131.0
2023-08-21 10:33:08.618670,-128.0
2023-08-21 10:33:08.626359,-128.0
2023-08-21 10:33:08.634048,-131.0
2023-08-21 10:33:08.641736,-133.0
2023-08-21 10:33:08.649425,-136.0
2023-08-21 10:33:08.657114,-138.0
2023-08-21 10:33:08.664803,-136.0
2023-08-21 10:33:08.672491,-133.0
2023-08-21 10:33:08.680180,-133.0
2023-08-21 10:33:08.687869,-136.0
2023-08-21 10:33:08.695558,-133.0
2023-08-21 10:33:08.703246,-128.0
2023-08-21 10:33:08.710935,-126.0
2023-08-21 10:33:08.718624,-126.0
2023-08-21 10:33:08.726312,-123.0
2023-08-21 10:33:08.734001,-123.0
2023-08-21 10:33:08.741690,-121.0
2023-08-21 10:33:08.749379,-119.0
2023-08-21 10:33:08.757067,-116.0
2023-08-21 10:33:08.764756,-111.0
2023-08-21 10:33:08.772445,-109.0
2023-08-21 10:33:08.780134,-109.0
2023-08-21 10:33:08.787822,-111.0
2023-08-21 10:33:08.795511,-109.0
2023-08-21 10:33:08.803200,-109.0
2023-08-21 10:33:08.810889,-106.0
2023-08-21 10:33:08.818577,-89.0
2023-08-21 10:33:08.826266,-55.0
2023-08-21 10:33:08.833955,-38.0
2023-08-21 10:33:08.841643,-41.0
2023-08-21 10:33:08.849332,-48.0
2023-08-21 10:33:08.857021,-70.0
2023-08-21 10:33:08.864710,-97.0
2023-08-21 10:33:08.872398,-102.0
2023-08-21 10:33:08.880087,-92.0
2023-08-21 10:33:08.887776,-94.0
2023-08-21 10:33:08.895465,-94.0
2023-08-21 10:33:08.903153,-92.0
2023-08-21 10:33:08.910842,-92.0
2023-08-21 10:33:08.918531,-97.0
2023-08-21 10:33:08.926219,-106.0
2023-08-21 10:33:08.933908,-106.0
2023-08-21 10:33:08.941597,21.0
2023-08-21 10:33:08.949286,439.0
2023-08-21 10:33:08.956974,998.0
2023-08-21 10:33:08.964663,1119.0
2023-08-21 10:33:08.972352,480.0
2023-08-21 10:33:08.980041,-247.0
2023-08-21 10:33:08.987729,-289.0
2023-08-21 10:33:08.995418,-77.0
2023-08-21 10:33:09.003107,-162.0
2023-08-21 10:33:09.010796,-230.0
2023-08-21 10:33:09.018484,-155.0
2023-08-21 10:33:09.026173,-150.0
2023-08-21 10:33:09.033862,-174.0
2023-08-21 10:33:09.041550,-148.0
2023-08-21 10:33:09.049239,-131.0
2023-08-21 10:33:09.056928,-136.0
2023-08-21 10:33:09.064617,-121.0
2023-08-21 10:33:09.072305,-106.0
2023-08-21 10:33:09.079994,-97.0
2023-08-21 10:33:09.087683,-87.0
2023-08-21 10:33:09.095372,-85.0
2023-08-21 10:33:09.103060,-85.0
2023-08-21 10:33:09.110749,-70.0
2023-08-21 10:33:09.118438,-53.0
2023-08-21 10:33:09.126126,-41.0
2023-08-21 10:33:09.133815,-29.0
2023-08-21 10:33:09.141504,-17.0
2023-08-21 10:33:09.149193,-4.0
2023-08-21 10:33:09.156881,9.0
2023-08-21 10:33:09.164570,26.0
2023-08-21 10:33:09.172259,41.0
2023-08-21 10:33:09.179948,51.0
2023-08-21 10:33:09.187636,58.0
2023-08-21 10:33:09.195325,63.0
2023-08-21 10:33:09.203014,65.0
2023-08-21 10:33:09.210703,68.0
2023-08-21 10:33:09.218391,68.0
2023-08-21 10:33:09.226080,63.0
2023-08-21 10:33:09.233769,43.0
2023-08-21 10:33:09.241457,14.0
2023-08-21 10:33:09.249146,-24.0
2023-08-21 10:33:09.256835,-58.0
2023-08-21 10:33:09.264524,-92.0
2023-08-21 10:33:09.272212,-119.0
2023-08-21 10:33:09.279901,-138.0
2023-08-21 10:33:09.287590,-150.0
2023-08-21 10:33:09.295279,-150.0
2023-08-21 10:33:09.302967,-145.0
2023-08-21 10:33:09.310656,-143.0
2023-08-21 10:33:09.318345,-143.0
2023-08-21 10:33:09.326033,-140.0
2023-08-21 10:33:09.333722,-136.0
2023-08-21 10:33:09.341411,-128.0
2023-08-21 10:33:09.349100,-123.0
2023-08-21 10:33:09.356788,-121.0
2023-08-21 10:33:09.364477,-119.0
2023-08-21 10:33:09.372166,-116.0
2023-08-21 10:33:09.379855,-116.0
2023-08-21 10:33:09.387543,-114.0
2023-08-21 10:33:09.395232,-111.0
2023-08-21 10:33:09.402921,-109.0
2023-08-21 10:33:09.410610,-111.0
2023-08-21 10:33:09.418298,-111.0
2023-08-21 10:33:09.425987,-111.0
2023-08-21 10:33:09.433676,-111.0
2023-08-21 10:33:09.441364,-114.0
2023-08-21 10:33:09.449053,-123.0
2023-08-21 10:33:09.456742,-128.0
2023-08-21 10:33:09.464431,-128.0
2023-08-21 10:33:09.472119,-131.0
2023-08-21 10:33:09.479808,-131.0
2023-08-21 10:33:09.487497,-126.0
2023-08-21 10:33:09.495186,-126.0
2023-08-21 10:33:09.502874,-126.0
2023-08-21 10:33:09.510563,-123.0
2023-08-21 10:33:09.518252,-121.0
2023-08-21 10:33:09.525940,-123.0
2023-08-21 10:33:09.533629,-123.0
2023-08-21 10:33:09.541318,-121.0
2023-08-21 10:33:09.549007,-119.0
2023-08-21 10:33:09.556695,-119.0
2023-08-21 10:33:09.564384,-116.0
2023-08-21 10:33:09.572073,-111.0
2023-08-21 10:33:09.579762,-106.0
2023-08-21 10:33:09.587450,-104.0
2023-08-21 10:33:09.595139,-104.0
2023-08-21 10:33:09.602828,-102.0
2023-08-21 10:33:09.610517,-97.0
2023-08-21 10:33:09.618205,-94.0
2023-08-21 10:33:09.625894,-94.0
2023-08-21 10:33:09.633583,-97.0
2023-08-21 10:33:09.641271,-111.0
2023-08-21 10:33:09.648960,-111.0
2023-08-21 10:33:09.656649,-85.0
2023-08-21 10:33:09.664338,-51.0
2023-08-21 10:33:09.672026,-38.0
2023-08-21 10:33:09.679715,-51.0
2023-08-21 10:33:09.687404,-68.0
2023-08-21 10:33:09.695093,-89.0
2023-08-21 10:33:09.702781,-109.0
2023-08-21 10:33:09.710470,-109.0
2023-08-21 10:33:09.718159,-102.0
2023-08-21 10:33:09.725848,-111.0
2023-08-21 10:33:09.733536,-121.0
2023-08-21 10:33:09.741225,-116.0
2023-08-21 10:33:09.748914,-111.0
2023-08-21 10:33:09.756602,-114.0
2023-08-21 10:33:09.764291,-126.0
2023-08-21 10:33:09.771980,-114.0
2023-08-21 10:33:09.779669,70.0
2023-08-21 10:33:09.787357,551.0
2023-08-21 10:33:09.795046,1068.0
2023-08-21 10:33:09.802735,1039.0
2023-08-21 10:33:09.810424,313.0
2023-08-21 10:33:09.818112,-313.0
2023-08-21 10:33:09.825801,-242.0
2023-08-21 10:33:09.833490,-75.0
2023-08-21 10:33:09.841178,-191.0
2023-08-21 10:33:09.848867,-218.0
2023-08-21 10:33:09.856556,-138.0
2023-08-21 10:33:09.864245,-148.0
2023-08-21 10:33:09.871933,-162.0
2023-08-21 10:33:09.879622,-128.0
2023-08-21 10:33:09.887311,-114.0
2023-08-21 10:33:09.895000,-114.0
2023-08-21 10:33:09.902688,-99.0
2023-08-21 10:33:09.910377,-87.0
2023-08-21 10:33:09.918066,-80.0
2023-08-21 10:33:09.925755,-68.0
2023-08-21 10:33:09.933443,-55.0
2023-08-21 10:33:09.941132,-46.0
2023-08-21 10:33:09.948821,-36.0
2023-08-21 10:33:09.956509,-29.0
2023-08-21 10:33:09.964198,-17.0
2023-08-21 10:33:09.971887,-2.0
2023-08-21 10:33:09.979576,12.0
2023-08-21 10:33:09.987264,26.0
2023-08-21 10:33:09.994953,38.0
2023-08-21 10:33:10.002642,48.0
2023-08-21 10:33:10.010331,63.0
2023-08-21 10:33:10.018019,75.0
2023-08-21 10:33:10.025708,80.0
2023-08-21 10:33:10.033397,85.0
2023-08-21 10:33:10.041085,89.0
2023-08-21 10:33:10.048774,87.0
2023-08-21 10:33:10.056463,85.0
2023-08-21 10:33:10.064152,82.0
2023-08-21 10:33:10.071840,65.0
2023-08-21 10:33:10.079529,36.0
2023-08-21 10:33:10.087218,-4.0
2023-08-21 10:33:10.094907,-46.0
2023-08-21 10:33:10.102595,-75.0
2023-08-21 10:33:10.110284,-99.0
2023-08-21 10:33:10.117973,-123.0
2023-08-21 10:33:10.125662,-131.0
2023-08-21 10:33:10.133350,-128.0
2023-08-21 10:33:10.141039,-131.0
2023-08-21 10:33:10.148728,-131.0
2023-08-21 10:33:10.156416,-123.0
2023-08-21 10:33:10.164105,-116.0
2023-08-21 10:33:10.171794,-119.0
2023-08-21 10:33:10.179483,-123.0
2023-08-21 10:33:10.187171,-123.0
2023-08-21 10:33:10.194860,-116.0
2023-08-21 10:33:10.202549,-111.0
2023-08-21 10:33:10.210238,-111.0
2023-08-21 10:33:10.217926,-114.0
2023-08-21 10:33:10.225615,-123.0
2023-08-21 10:33:10.233304,-123.0
2023-08-21 10:33:10.240992,-119.0
2023-08-21 10:33:10.248681,-119.0
2023-08-21 10:33:10.256370,-121.0
2023-08-21 10:33:10.264059,-123.0
2023-08-21 10:33:10.271747,-126.0
2023-08-21 10:33:10.279436,-126.0
2023-08-21 10:33:10.287125,-128.0
2023-08-21 10:33:10.294814,-128.0
2023-08-21 10:33:10.302502,-128.0
2023-08-21 10:33:10.310191,-133.0
2023-08-21 10:33:10.317880,-140.0
2023-08-21 10:33:10.325569,-138.0
2023-08-21 10:33:10.333257,-131.0
2023-08-21 10:33:10.340946,-128.0
2023-08-21 10:33:10.348635,-131.0
2023-08-21 10:33:10.356323,-138.0
2023-08-21 10:33:10.364012,-140.0
2023-08-21 10:33:10.371701,-133.0
2023-08-21 10:33:10.379390,-128.0
2023-08-21 10:33:10.387078,-126.0
2023-08-21 10:33:10.394767,-126.0
2023-08-21 10:33:10.402456,-131.0
2023-08-21 10:33:10.410145,-133.0
2023-08-21 10:33:10.417833,-126.0
2023-08-21 10:33:10.425522,-121.0
2023-08-21 10:33:10.433211,-123.0
2023-08-21 10:33:10.440899,-128.0
2023-08-21 10:33:10.448588,-128.0
2023-08-21 10:33:10.456277,-109.0
2023-08-21 10:33:10.463966,-82.0
2023-08-21 10:33:10.471654,-68.0
2023-08-21 10:33:10.479343,-68.0
2023-08-21 10:33:10.487032,-82.0
2023-08-21 10:33:10.494721,-111.0
2023-08-21 10:33:10.502409,-128.0
2023-08-21 10:33:10.510098,-121.0
2023-08-21 10:33:10.517787,-116.0
2023-08-21 10:33:10.525476,-119.0
2023-08-21 10:33:10.533164,-116.0
2023-08-21 10:33:10.540853,-114.0
2023-08-21 10:33:10.548542,-109.0
2023-08-21 10:33:10.556230,-111.0
2023-08-21 10:33:10.563919,-116.0
2023-08-21 10:33:10.571608,-36.0
2023-08-21 10:33:10.579297,310.0
2023-08-21 10:33:10.586985,903.0
2023-08-21 10:33:10.594674,1241.0
2023-08-21 10:33:10.602363,794.0
2023-08-21 10:33:10.610052,-68.0
2023-08-21 10:33:10.617740,-359.0
2023-08-21 10:33:10.625429,-119.0
2023-08-21 10:33:10.633118,-111.0
2023-08-21 10:33:10.640806,-233.0
2023-08-21 10:33:10.648495,-172.0
2023-08-21 10:33:10.656184,-128.0
2023-08-21 10:33:10.663873,-165.0
2023-08-21 10:33:10.671561,-150.0
2023-08-21 10:33:10.679250,-119.0
2023-08-21 10:33:10.686939,-116.0
2023-08-21 10:33:10.694628,-106.0
2023-08-21 10:33:10.702316,-85.0
2023-08-21 10:33:10.710005,-77.0
2023-08-21 10:33:10.717694,-72.0
2023-08-21 10:33:10.725383,-58.0
2023-08-21 10:33:10.733071,-43.0
2023-08-21 10:33:10.740760,-34.0
2023-08-21 10:33:10.748449,-21.0
2023-08-21 10:33:10.756137,-17.0
2023-08-21 10:33:10.763826,-17.0
2023-08-21 10:33:10.771515,-7.0
2023-08-21 10:33:10.779204,14.0
2023-08-21 10:33:10.786892,29.0
2023-08-21 10:33:10.794581,43.0
2023-08-21 10:33:10.802270,58.0
2023-08-21 10:33:10.809959,68.0
2023-08-21 10:33:10.817647,75.0
2023-08-21 10:33:10.825336,85.0
2023-08-21 10:33:10.833025,87.0
2023-08-21 10:33:10.840713,87.0
2023-08-21 10:33:10.848402,82.0
2023-08-21 10:33:10.856091,75.0
2023-08-21 10:33:10.863780,60.0
2023-08-21 10:33:10.871468,34.0
2023-08-21 10:33:10.879157,-2.0
2023-08-21 10:33:10.886846,-41.0
2023-08-21 10:33:10.894535,-77.0
2023-08-21 10:33:10.902223,-106.0
2023-08-21 10:33:10.909912,-126.0
2023-08-21 10:33:10.917601,-136.0
2023-08-21 10:33:10.925290,-140.0
2023-08-21 10:33:10.932978,-140.0
2023-08-21 10:33:10.940667,-138.0
2023-08-21 10:33:10.948356,-136.0
2023-08-21 10:33:10.956044,-133.0
2023-08-21 10:33:10.963733,-133.0
2023-08-21 10:33:10.971422,-126.0
2023-08-21 10:33:10.979111,-119.0
2023-08-21 10:33:10.986799,-116.0
2023-08-21 10:33:10.994488,-119.0
2023-08-21 10:33:11.002177,-119.0
2023-08-21 10:33:11.009866,-119.0
2023-08-21 10:33:11.017554,-116.0
2023-08-21 10:33:11.025243,-114.0
2023-08-21 10:33:11.032932,-114.0
2023-08-21 10:33:11.040620,-116.0
2023-08-21 10:33:11.048309,-116.0
2023-08-21 10:33:11.055998,-114.0
2023-08-21 10:33:11.063687,-111.0
2023-08-21 10:33:11.071375,-114.0
2023-08-21 10:33:11.079064,-119.0
2023-08-21 10:33:11.086753,-119.0
2023-08-21 10:33:11.094442,-114.0
2023-08-21 10:33:11.102130,-114.0
2023-08-21 10:33:11.109819,-114.0
2023-08-21 10:33:11.117508,-116.0
2023-08-21 10:33:11.125197,-119.0
2023-08-21 10:33:11.132885,-121.0
2023-08-21 10:33:11.140574,-119.0
2023-08-21 10:33:11.148263,-116.0
2023-08-21 10:33:11.155951,-116.0
2023-08-21 10:33:11.163640,-119.0
2023-08-21 10:33:11.171329,-121.0
2023-08-21 10:33:11.179018,-119.0
2023-08-21 10:33:11.186706,-119.0
2023-08-21 10:33:11.194395,-119.0
2023-08-21 10:33:11.202084,-114.0
2023-08-21 10:33:11.209773,-89.0
2023-08-21 10:33:11.217461,-65.0
2023-08-21 10:33:11.225150,-55.0
2023-08-21 10:33:11.232839,-53.0
2023-08-21 10:33:11.240527,-63.0
2023-08-21 10:33:11.248216,-97.0
2023-08-21 10:33:11.255905,-119.0
2023-08-21 10:33:11.263594,-116.0
2023-08-21 10:33:11.271282,-111.0
2023-08-21 10:33:11.278971,-114.0
2023-08-21 10:33:11.286660,-111.0
2023-08-21 10:33:11.294349,-109.0
2023-08-21 10:33:11.302037,-109.0
2023-08-21 10:33:11.309726,-116.0
2023-08-21 10:33:11.317415,-126.0
2023-08-21 10:33:11.325104,-58.0
2023-08-21 10:33:11.332792,255.0
2023-08-21 10:33:11.340481,806.0
2023-08-21 10:33:11.348170,1146.0
2023-08-21 10:33:11.355858,755.0
2023-08-21 10:33:11.363547,-60.0
2023-08-21 10:33:11.371236,-369.0
2023-08-21 10:33:11.378925,-148.0
2023-08-21 10:33:11.386613,-121.0
2023-08-21 10:33:11.394302,-245.0
2023-08-21 10:33:11.401991,-196.0
2023-08-21 10:33:11.409680,-153.0
2023-08-21 10:33:11.417368,-184.0
2023-08-21 10:33:11.425057,-167.0
2023-08-21 10:33:11.432746,-136.0
2023-08-21 10:33:11.440434,-138.0
2023-08-21 10:33:11.448123,-131.0
2023-08-21 10:33:11.455812,-119.0
2023-08-21 10:33:11.463501,-116.0
2023-08-21 10:33:11.471189,-109.0
2023-08-21 10:33:11.478878,-94.0
2023-08-21 10:33:11.486567,-85.0
2023-08-21 10:33:11.494256,-77.0
2023-08-21 10:33:11.501944,-68.0
2023-08-21 10:33:11.509633,-53.0
2023-08-21 10:33:11.517322,-38.0
2023-08-21 10:33:11.525011,-26.0
2023-08-21 10:33:11.532699,-14.0
2023-08-21 10:33:11.540388,0.0
2023-08-21 10:33:11.548077,14.0
2023-08-21 10:33:11.555765,29.0
2023-08-21 10:33:11.563454,38.0
2023-08-21 10:33:11.571143,46.0
2023-08-21 10:33:11.578832,53.0
2023-08-21 10:33:11.586520,55.0
2023-08-21 10:33:11.594209,55.0
2023-08-21 10:33:11.601898,55.0
2023-08-21 10:33:11.609587,53.0
2023-08-21 10:33:11.617275,36.0
2023-08-21 10:33:11.624964,7.0
2023-08-21 10:33:11.632653,-24.0
2023-08-21 10:33:11.640341,-63.0
2023-08-21 10:33:11.648030,-97.0
2023-08-21 10:33:11.655719,-121.0
2023-08-21 10:33:11.663408,-140.0
2023-08-21 10:33:11.671096,-150.0
2023-08-21 10:33:11.678785,-150.0
2023-08-21 10:33:11.686474,-148.0
2023-08-21 10:33:11.694163,-143.0
2023-08-21 10:33:11.701851,-138.0
2023-08-21 10:33:11.709540,-136.0
2023-08-21 10:33:11.717229,-128.0
2023-08-21 10:33:11.724918,-123.0
2023-08-21 10:33:11.732606,-121.0
2023-08-21 10:33:11.740295,-121.0
2023-08-21 10:33:11.747984,-121.0
2023-08-21 10:33:11.755672,-121.0
2023-08-21 10:33:11.763361,-119.0
2023-08-21 10:33:11.771050,-116.0
2023-08-21 10:33:11.778739,-116.0
2023-08-21 10:33:11.786427,-116.0
2023-08-21 10:33:11.794116,-116.0
2023-08-21 10:33:11.801805,-116.0
2023-08-21 10:33:11.809494,-116.0
2023-08-21 10:33:11.817182,-114.0
2023-08-21 10:33:11.824871,-114.0
2023-08-21 10:33:11.832560,-111.0
2023-08-21 10:33:11.840248,-114.0
2023-08-21 10:33:11.847937,-116.0
2023-08-21 10:33:11.855626,-116.0
2023-08-21 10:33:11.863315,-114.0
2023-08-21 10:33:11.871003,-114.0
2023-08-21 10:33:11.878692,-114.0
2023-08-21 10:33:11.886381,-114.0
2023-08-21 10:33:11.894070,-111.0
2023-08-21 10:33:11.901758,-106.0
2023-08-21 10:33:11.909447,-104.0
2023-08-21 10:33:11.917136,-102.0
2023-08-21 10:33:11.924825,-102.0
2023-08-21 10:33:11.932513,-109.0
2023-08-21 10:33:11.940202,-116.0
2023-08-21 10:33:11.947891,-111.0
2023-08-21 10:33:11.955579,-109.0
2023-08-21 10:33:11.963268,-123.0
2023-08-21 10:33:11.970957,-131.0
2023-08-21 10:33:11.978646,-119.0
2023-08-21 10:33:11.986334,-99.0
2023-08-21 10:33:11.994023,-85.0
2023-08-21 10:33:12.001712,-85.0
2023-08-21 10:33:12.009401,-92.0
2023-08-21 10:33:12.017089,-121.0
2023-08-21 10:33:12.024778,-153.0
2023-08-21 10:33:12.032467,-155.0
2023-08-21 10:33:12.040155,-143.0
2023-08-21 10:33:12.047844,-145.0
2023-08-21 10:33:12.055533,-148.0
2023-08-21 10:33:12.063222,-148.0
2023-08-21 10:33:12.070910,-153.0
2023-08-21 10:33:12.078599,-157.0
2023-08-21 10:33:12.086288,-165.0
2023-08-21 10:33:12.093977,-140.0
2023-08-21 10:33:12.101665,70.0
2023-08-21 10:33:12.109354,573.0
2023-08-21 10:33:12.117043,1054.0
2023-08-21 10:33:12.124732,935.0
2023-08-21 10:33:12.132420,172.0
2023-08-21 10:33:12.140109,-378.0
2023-08-21 10:33:12.147798,-255.0
2023-08-21 10:33:12.155486,-116.0
2023-08-21 10:33:12.163175,-240.0
2023-08-21 10:33:12.170864,-247.0
2023-08-21 10:33:12.178553,-172.0
2023-08-21 10:33:12.186241,-189.0
2023-08-21 10:33:12.193930,-199.0
2023-08-21 10:33:12.201619,-165.0
2023-08-21 10:33:12.209308,-155.0
2023-08-21 10:33:12.216996,-150.0
2023-08-21 10:33:12.224685,-133.0
2023-08-21 10:33:12.232374,-123.0
2023-08-21 10:33:12.240062,-121.0
2023-08-21 10:33:12.247751,-109.0
2023-08-21 10:33:12.255440,-94.0
2023-08-21 10:33:12.263129,-80.0
2023-08-21 10:33:12.270817,-68.0
2023-08-21 10:33:12.278506,-55.0
2023-08-21 10:33:12.286195,-43.0
2023-08-21 10:33:12.293884,-31.0
2023-08-21 10:33:12.301572,-17.0
2023-08-21 10:33:12.309261,0.0
2023-08-21 10:33:12.316950,14.0
2023-08-21 10:33:12.324639,26.0
2023-08-21 10:33:12.332327,38.0
2023-08-21 10:33:12.340016,46.0
2023-08-21 10:33:12.347705,55.0
2023-08-21 10:33:12.355393,63.0
2023-08-21 10:33:12.363082,65.0
2023-08-21 10:33:12.370771,65.0
2023-08-21 10:33:12.378460,58.0
2023-08-21 10:33:12.386148,48.0
2023-08-21 10:33:12.393837,34.0
2023-08-21 10:33:12.401526,2.0
2023-08-21 10:33:12.409215,-34.0
2023-08-21 10:33:12.416903,-68.0
2023-08-21 10:33:12.424592,-99.0
2023-08-21 10:33:12.432281,-123.0
2023-08-21 10:33:12.439969,-133.0
2023-08-21 10:33:12.447658,-136.0
2023-08-21 10:33:12.455347,-136.0
2023-08-21 10:33:12.463036,-136.0
2023-08-21 10:33:12.470724,-138.0
2023-08-21 10:33:12.478413,-138.0
2023-08-21 10:33:12.486102,-131.0
2023-08-21 10:33:12.493791,-123.0
2023-08-21 10:33:12.501479,-119.0
2023-08-21 10:33:12.509168,-119.0
2023-08-21 10:33:12.516857,-126.0
2023-08-21 10:33:12.524546,-128.0
2023-08-21 10:33:12.532234,-121.0
2023-08-21 10:33:12.539923,-116.0
2023-08-21 10:33:12.547612,-119.0
2023-08-21 10:33:12.555300,-119.0
2023-08-21 10:33:12.562989,-121.0
2023-08-21 10:33:12.570678,-119.0
2023-08-21 10:33:12.578367,-116.0
2023-08-21 10:33:12.586055,-114.0
2023-08-21 10:33:12.593744,-114.0
2023-08-21 10:33:12.601433,-114.0
2023-08-21 10:33:12.609122,-111.0
2023-08-21 10:33:12.616810,-111.0
2023-08-21 10:33:12.624499,-106.0
2023-08-21 10:33:12.632188,-102.0
2023-08-21 10:33:12.639877,-102.0
2023-08-21 10:33:12.647565,-102.0
2023-08-21 10:33:12.655254,-99.0
2023-08-21 10:33:12.662943,-97.0
2023-08-21 10:33:12.670631,-94.0
2023-08-21 10:33:12.678320,-97.0
2023-08-21 10:33:12.686009,-94.0
2023-08-21 10:33:12.693698,-92.0
2023-08-21 10:33:12.701386,-94.0
2023-08-21 10:33:12.709075,-89.0
2023-08-21 10:33:12.716764,-87.0
2023-08-21 10:33:12.724453,-92.0
2023-08-21 10:33:12.732141,-94.0
2023-08-21 10:33:12.739830,-97.0
2023-08-21 10:33:12.747519,-99.0
2023-08-21 10:33:12.755207,-94.0
2023-08-21 10:33:12.762896,-72.0
2023-08-21 10:33:12.770585,-38.0
2023-08-21 10:33:12.778274,-24.0
2023-08-21 10:33:12.785962,-31.0
2023-08-21 10:33:12.793651,-43.0
2023-08-21 10:33:12.801340,-70.0
2023-08-21 10:33:12.809029,-94.0
2023-08-21 10:33:12.816717,-94.0
2023-08-21 10:33:12.824406,-92.0
2023-08-21 10:33:12.832095,-99.0
2023-08-21 10:33:12.839784,-102.0
2023-08-21 10:33:12.847472,-97.0
2023-08-21 10:33:12.855161,-97.0
2023-08-21 10:33:12.862850,-104.0
2023-08-21 10:33:12.870538,-119.0
2023-08-21 10:33:12.878227,-87.0
2023-08-21 10:33:12.885916,150.0
2023-08-21 10:33:12.893605,672.0
2023-08-21 10:33:12.901293,1124.0
2023-08-21 10:33:12.908982,932.0
2023-08-21 10:33:12.916671,140.0
2023-08-21 10:33:12.924360,-347.0
2023-08-21 10:33:12.932048,-184.0
2023-08-21 10:33:12.939737,-80.0
2023-08-21 10:33:12.947426,-208.0
2023-08-21 10:33:12.955114,-199.0
2023-08-21 10:33:12.962803,-136.0
2023-08-21 10:33:12.970492,-167.0
2023-08-21 10:33:12.978181,-177.0
2023-08-21 10:33:12.985869,-140.0
2023-08-21 10:33:12.993558,-131.0
2023-08-21 10:33:13.001247,-131.0
2023-08-21 10:33:13.008936,-123.0
2023-08-21 10:33:13.016624,-121.0
2023-08-21 10:33:13.024313,-116.0
2023-08-21 10:33:13.032002,-99.0
2023-08-21 10:33:13.039691,-85.0
2023-08-21 10:33:13.047379,-75.0
2023-08-21 10:33:13.055068,-63.0
2023-08-21 10:33:13.062757,-53.0
2023-08-21 10:33:13.070445,-41.0
2023-08-21 10:33:13.078134,-26.0
2023-08-21 10:33:13.085823,-12.0
2023-08-21 10:33:13.093512,2.0
2023-08-21 10:33:13.101200,14.0
2023-08-21 10:33:13.108889,24.0
2023-08-21 10:33:13.116578,36.0
2023-08-21 10:33:13.124267,48.0
2023-08-21 10:33:13.131955,53.0
2023-08-21 10:33:13.139644,55.0
2023-08-21 10:33:13.147333,58.0
2023-08-21 10:33:13.155021,58.0
2023-08-21 10:33:13.162710,55.0
2023-08-21 10:33:13.170399,48.0
2023-08-21 10:33:13.178088,29.0
2023-08-21 10:33:13.185776,0.0
2023-08-21 10:33:13.193465,-36.0
2023-08-21 10:33:13.201154,-70.0
2023-08-21 10:33:13.208843,-99.0
2023-08-21 10:33:13.216531,-123.0
2023-08-21 10:33:13.224220,-140.0
2023-08-21 10:33:13.231909,-143.0
2023-08-21 10:33:13.239598,-140.0
2023-08-21 10:33:13.247286,-138.0
2023-08-21 10:33:13.254975,-133.0
2023-08-21 10:33:13.262664,-123.0
2023-08-21 10:33:13.270352,-119.0
2023-08-21 10:33:13.278041,-114.0
2023-08-21 10:33:13.285730,-109.0
2023-08-21 10:33:13.293419,-104.0
2023-08-21 10:33:13.301107,-102.0
2023-08-21 10:33:13.308796,-102.0
2023-08-21 10:33:13.316485,-97.0
2023-08-21 10:33:13.324174,-94.0
2023-08-21 10:33:13.331862,-97.0
2023-08-21 10:33:13.339551,-99.0
2023-08-21 10:33:13.347240,-94.0
2023-08-21 10:33:13.354928,-94.0
2023-08-21 10:33:13.362617,-94.0
2023-08-21 10:33:13.370306,-94.0
2023-08-21 10:33:13.377995,-97.0
2023-08-21 10:33:13.385683,-97.0
2023-08-21 10:33:13.393372,-92.0
2023-08-21 10:33:13.401061,-92.0
2023-08-21 10:33:13.408750,-89.0
2023-08-21 10:33:13.416438,-87.0
2023-08-21 10:33:13.424127,-87.0
2023-08-21 10:33:13.431816,-85.0
2023-08-21 10:33:13.439505,-82.0
2023-08-21 10:33:13.447193,-82.0
2023-08-21 10:33:13.454882,-82.0
2023-08-21 10:33:13.462571,-82.0
2023-08-21 10:33:13.470259,-87.0
2023-08-21 10:33:13.477948,-92.0
2023-08-21 10:33:13.485637,-92.0
2023-08-21 10:33:13.493326,-85.0
2023-08-21 10:33:13.501014,-85.0
2023-08-21 10:33:13.508703,-92.0
2023-08-21 10:33:13.516392,-92.0
2023-08-21 10:33:13.524081,-89.0
2023-08-21 10:33:13.531769,-92.0
2023-08-21 10:33:13.539458,-85.0
2023-08-21 10:33:13.547147,-60.0
2023-08-21 10:33:13.554835,-48.0
2023-08-21 10:33:13.562524,-43.0
2023-08-21 10:33:13.570213,-38.0
2023-08-21 10:33:13.577902,-53.0
2023-08-21 10:33:13.585590,-87.0
2023-08-21 10:33:13.593279,-99.0
2023-08-21 10:33:13.600968,-89.0
2023-08-21 10:33:13.608657,-87.0
2023-08-21 10:33:13.616345,-92.0
2023-08-21 10:33:13.624034,-89.0
2023-08-21 10:33:13.631723,-89.0
2023-08-21 10:33:13.639412,-94.0
2023-08-21 10:33:13.647100,-104.0
2023-08-21 10:33:13.654789,-111.0
2023-08-21 10:33:13.662478,-29.0
2023-08-21 10:33:13.670166,315.0
2023-08-21 10:33:13.677855,891.0
2023-08-21 10:33:13.685544,1192.0
2023-08-21 10:33:13.693233,716.0
2023-08-21 10:33:13.700921,-116.0
2023-08-21 10:33:13.708610,-352.0
2023-08-21 10:33:13.716299,-121.0
2023-08-21 10:33:13.723988,-133.0
2023-08-21 10:33:13.731676,-245.0
2023-08-21 10:33:13.739365,-184.0
2023-08-21 10:33:13.747054,-150.0
2023-08-21 10:33:13.754742,-179.0
2023-08-21 10:33:13.762431,-160.0
2023-08-21 10:33:13.770120,-133.0
2023-08-21 10:33:13.777809,-136.0
2023-08-21 10:33:13.785497,-128.0
2023-08-21 10:33:13.793186,-109.0
2023-08-21 10:33:13.800875,-102.0
2023-08-21 10:33:13.808564,-94.0
2023-08-21 10:33:13.816252,-80.0
2023-08-21 10:33:13.823941,-68.0
2023-08-21 10:33:13.831630,-58.0
2023-08-21 10:33:13.839319,-41.0
2023-08-21 10:33:13.847007,-29.0
2023-08-21 10:33:13.854696,-19.0
2023-08-21 10:33:13.862385,-4.0
2023-08-21 10:33:13.870073,9.0
2023-08-21 10:33:13.877762,19.0
2023-08-21 10:33:13.885451,31.0
2023-08-21 10:33:13.893140,46.0
2023-08-21 10:33:13.900828,53.0
2023-08-21 10:33:13.908517,60.0
2023-08-21 10:33:13.916206,68.0
2023-08-21 10:33:13.923895,68.0
2023-08-21 10:33:13.931583,65.0
2023-08-21 10:33:13.939272,63.0
2023-08-21 10:33:13.946961,55.0
2023-08-21 10:33:13.954649,38.0
2023-08-21 10:33:13.962338,12.0
2023-08-21 10:33:13.970027,-24.0
2023-08-21 10:33:13.977716,-58.0
2023-08-21 10:33:13.985404,-99.0
2023-08-21 10:33:13.993093,-131.0
2023-08-21 10:33:14.000782,-145.0
2023-08-21 10:33:14.008471,-153.0
2023-08-21 10:33:14.016159,-155.0
2023-08-21 10:33:14.023848,-150.0
2023-08-21 10:33:14.031537,-145.0
2023-08-21 10:33:14.039226,-143.0
2023-08-21 10:33:14.046914,-136.0
2023-08-21 10:33:14.054603,-128.0
2023-08-21 10:33:14.062292,-123.0
2023-08-21 10:33:14.069980,-116.0
2023-08-21 10:33:14.077669,-114.0
2023-08-21 10:33:14.085358,-111.0
2023-08-21 10:33:14.093047,-109.0
2023-08-21 10:33:14.100735,-106.0
2023-08-21 10:33:14.108424,-104.0
2023-08-21 10:33:14.116113,-104.0
2023-08-21 10:33:14.123802,-102.0
2023-08-21 10:33:14.131490,-109.0
2023-08-21 10:33:14.139179,-121.0
2023-08-21 10:33:14.146868,-123.0
2023-08-21 10:33:14.154556,-119.0
2023-08-21 10:33:14.162245,-116.0
2023-08-21 10:33:14.169934,-119.0
2023-08-21 10:33:14.177623,-119.0
2023-08-21 10:33:14.185311,-119.0
2023-08-21 10:33:14.193000,-116.0
2023-08-21 10:33:14.200689,-114.0
2023-08-21 10:33:14.208378,-119.0
2023-08-21 10:33:14.216066,-119.0
2023-08-21 10:33:14.223755,-116.0
2023-08-21 10:33:14.231444,-114.0
2023-08-21 10:33:14.239133,-114.0
2023-08-21 10:33:14.246821,-109.0
2023-08-21 10:33:14.254510,-104.0
2023-08-21 10:33:14.262199,-104.0
2023-08-21 10:33:14.269887,-106.0
2023-08-21 10:33:14.277576,-104.0
2023-08-21 10:33:14.285265,-99.0
2023-08-21 10:33:14.292954,-97.0
2023-08-21 10:33:14.300642,-99.0
2023-08-21 10:33:14.308331,-104.0
2023-08-21 10:33:14.316020,-109.0
2023-08-21 10:33:14.323709,-99.0
2023-08-21 10:33:14.331397,-72.0
2023-08-21 10:33:14.339086,-46.0
2023-08-21 10:33:14.346775,-38.0
2023-08-21 10:33:14.354463,-43.0
2023-08-21 10:33:14.362152,-60.0
2023-08-21 10:33:14.369841,-92.0
2023-08-21 10:33:14.377530,-106.0
2023-08-21 10:33:14.385218,-99.0
2023-08-21 10:33:14.392907,-97.0
2023-08-21 10:33:14.400596,-102.0
2023-08-21 10:33:14.408285,-104.0
2023-08-21 10:33:14.415973,-99.0
2023-08-21 10:33:14.423662,-99.0
2023-08-21 10:33:14.431351,-109.0
2023-08-21 10:33:14.439040,-123.0
2023-08-21 10:33:14.446728,-70.0
2023-08-21 10:33:14.454417,221.0
2023-08-21 10:33:14.462106,774.0
2023-08-21 10:33:14.469794,1156.0
2023-08-21 10:33:14.477483,808.0
2023-08-21 10:33:14.485172,-26.0
2023-08-21 10:33:14.492861,-388.0
2023-08-21 10:33:14.500549,-174.0
2023-08-21 10:33:14.508238,-131.0
2023-08-21 10:33:14.515927,-259.0
2023-08-21 10:33:14.523616,-218.0
2023-08-21 10:33:14.531304,-165.0
2023-08-21 10:33:14.538993,-199.0
2023-08-21 10:33:14.546682,-191.0
2023-08-21 10:33:14.554370,-157.0
2023-08-21 10:33:14.562059,-155.0
2023-08-21 10:33:14.569748,-148.0
2023-08-21 10:33:14.577437,-131.0
2023-08-21 10:33:14.585125,-123.0
2023-08-21 10:33:14.592814,-119.0
2023-08-21 10:33:14.600503,-104.0
2023-08-21 10:33:14.608192,-89.0
2023-08-21 10:33:14.615880,-80.0
2023-08-21 10:33:14.623569,-68.0
2023-08-21 10:33:14.631258,-55.0
2023-08-21 10:33:14.638947,-46.0
2023-08-21 10:33:14.646635,-31.0
2023-08-21 10:33:14.654324,-17.0
2023-08-21 10:33:14.662013,-4.0
2023-08-21 10:33:14.669701,7.0
2023-08-21 10:33:14.677390,17.0
2023-08-21 10:33:14.685079,24.0
2023-08-21 10:33:14.692768,31.0
2023-08-21 10:33:14.700456,34.0
2023-08-21 10:33:14.708145,31.0
2023-08-21 10:33:14.715834,29.0
2023-08-21 10:33:14.723523,17.0
2023-08-21 10:33:14.731211,4.0
2023-08-21 10:33:14.738900,-2.0
2023-08-21 10:33:14.746589,-19.0
2023-08-21 10:33:14.754277,-51.0
2023-08-21 10:33:14.761966,-89.0
2023-08-21 10:33:14.769655,-128.0
2023-08-21 10:33:14.777344,-160.0
2023-08-21 10:33:14.785032,-172.0
2023-08-21 10:33:14.792721,-179.0
2023-08-21 10:33:14.800410,-182.0
2023-08-21 10:33:14.808099,-184.0
2023-08-21 10:33:14.815787,-189.0
2023-08-21 10:33:14.823476,-187.0
2023-08-21 10:33:14.831165,-172.0
2023-08-21 10:33:14.838854,-165.0
2023-08-21 10:33:14.846542,-157.0
2023-08-21 10:33:14.854231,-153.0
2023-08-21 10:33:14.861920,-150.0
2023-08-21 10:33:14.869608,-145.0
2023-08-21 10:33:14.877297,-140.0
2023-08-21 10:33:14.884986,-136.0
2023-08-21 10:33:14.892675,-133.0
2023-08-21 10:33:14.900363,-133.0
2023-08-21 10:33:14.908052,-133.0
2023-08-21 10:33:14.915741,-133.0
2023-08-21 10:33:14.923430,-131.0
2023-08-21 10:33:14.931118,-128.0
2023-08-21 10:33:14.938807,-128.0
2023-08-21 10:33:14.946496,-131.0
2023-08-21 10:33:14.954184,-131.0
2023-08-21 10:33:14.961873,-128.0
2023-08-21 10:33:14.969562,-123.0
2023-08-21 10:33:14.977251,-121.0
2023-08-21 10:33:14.984939,-123.0
2023-08-21 10:33:14.992628,-128.0
2023-08-21 10:33:15.000317,-123.0
2023-08-21 10:33:15.008006,-119.0
2023-08-21 10:33:15.015694,-119.0
2023-08-21 10:33:15.023383,-114.0
2023-08-21 10:33:15.031072,-111.0
2023-08-21 10:33:15.038761,-109.0
2023-08-21 10:33:15.046449,-109.0
2023-08-21 10:33:15.054138,-106.0
2023-08-21 10:33:15.061827,-106.0
2023-08-21 10:33:15.069515,-104.0
2023-08-21 10:33:15.077204,-104.0
2023-08-21 10:33:15.084893,-102.0
2023-08-21 10:33:15.092582,-102.0
2023-08-21 10:33:15.100270,-99.0
2023-08-21 10:33:15.107959,-99.0
2023-08-21 10:33:15.115648,-97.0
2023-08-21 10:33:15.123337,-99.0
2023-08-21 10:33:15.131025,-97.0
2023-08-21 10:33:15.138714,-77.0
2023-08-21 10:33:15.146403,-46.0
2023-08-21 10:33:15.154091,-29.0
2023-08-21 10:33:15.161780,-31.0
2023-08-21 10:33:15.169469,-41.0
2023-08-21 10:33:15.177158,-65.0
2023-08-21 10:33:15.184846,-97.0
2023-08-21 10:33:15.192535,-106.0
2023-08-21 10:33:15.200224,-102.0
2023-08-21 10:33:15.207913,-106.0
2023-08-21 10:33:15.215601,-111.0
2023-08-21 10:33:15.223290,-109.0
2023-08-21 10:33:15.230979,-106.0
2023-08-21 10:33:15.238668,-111.0
2023-08-21 10:33:15.246356,-123.0
2023-08-21 10:33:15.254045,-119.0
2023-08-21 10:33:15.261734,34.0
2023-08-21 10:33:15.269422,490.0
2023-08-21 10:33:15.277111,1037.0
2023-08-21 10:33:15.284800,1068.0
2023-08-21 10:33:15.292489,359.0
2023-08-21 10:33:15.300177,-310.0
2023-08-21 10:33:15.307866,-274.0
2023-08-21 10:33:15.315555,-89.0
2023-08-21 10:33:15.323244,-199.0
2023-08-21 10:33:15.330932,-240.0
2023-08-21 10:33:15.338621,-162.0
2023-08-21 10:33:15.346310,-170.0
2023-08-21 10:33:15.353999,-187.0
2023-08-21 10:33:15.361687,-153.0
2023-08-21 10:33:15.369376,-138.0
2023-08-21 10:33:15.377065,-140.0
2023-08-21 10:33:15.384753,-126.0
2023-08-21 10:33:15.392442,-111.0
2023-08-21 10:33:15.400131,-106.0
2023-08-21 10:33:15.407820,-94.0
2023-08-21 10:33:15.415508,-80.0
2023-08-21 10:33:15.423197,-70.0
2023-08-21 10:33:15.430886,-60.0
2023-08-21 10:33:15.438575,-51.0
2023-08-21 10:33:15.446263,-43.0
2023-08-21 10:33:15.453952,-29.0
2023-08-21 10:33:15.461641,-14.0
2023-08-21 10:33:15.469329,-4.0
2023-08-21 10:33:15.477018,7.0
2023-08-21 10:33:15.484707,24.0
2023-08-21 10:33:15.492396,31.0
2023-08-21 10:33:15.500084,31.0
2023-08-21 10:33:15.507773,36.0
2023-08-21 10:33:15.515462,43.0
2023-08-21 10:33:15.523151,43.0
2023-08-21 10:33:15.530839,41.0
2023-08-21 10:33:15.538528,41.0
2023-08-21 10:33:15.546217,38.0
2023-08-21 10:33:15.553906,24.0
2023-08-21 10:33:15.561594,-4.0
2023-08-21 10:33:15.569283,-38.0
2023-08-21 10:33:15.576972,-70.0
2023-08-21 10:33:15.584660,-99.0
2023-08-21 10:33:15.592349,-123.0
2023-08-21 10:33:15.600038,-136.0
2023-08-21 10:33:15.607727,-143.0
2023-08-21 10:33:15.615415,-145.0
2023-08-21 10:33:15.623104,-143.0
2023-08-21 10:33:15.630793,-138.0
2023-08-21 10:33:15.638482,-131.0
2023-08-21 10:33:15.646170,-126.0
2023-08-21 10:33:15.653859,-121.0
2023-08-21 10:33:15.661548,-114.0
2023-08-21 10:33:15.669236,-109.0
2023-08-21 10:33:15.676925,-106.0
2023-08-21 10:33:15.684614,-109.0
2023-08-21 10:33:15.692303,-109.0
2023-08-21 10:33:15.699991,-106.0
2023-08-21 10:33:15.707680,-106.0
2023-08-21 10:33:15.715369,-106.0
2023-08-21 10:33:15.723058,-106.0
2023-08-21 10:33:15.730746,-106.0
2023-08-21 10:33:15.738435,-104.0
2023-08-21 10:33:15.746124,-106.0
2023-08-21 10:33:15.753813,-106.0
2023-08-21 10:33:15.761501,-106.0
2023-08-21 10:33:15.769190,-104.0
2023-08-21 10:33:15.776879,-102.0
2023-08-21 10:33:15.784567,-102.0
2023-08-21 10:33:15.792256,-102.0
2023-08-21 10:33:15.799945,-109.0
2023-08-21 10:33:15.807634,-114.0
2023-08-21 10:33:15.815322,-111.0
2023-08-21 10:33:15.823011,-106.0
2023-08-21 10:33:15.830700,-109.0
2023-08-21 10:33:15.838389,-114.0
2023-08-21 10:33:15.846077,-119.0
2023-08-21 10:33:15.853766,-123.0
2023-08-21 10:33:15.861455,-121.0
2023-08-21 10:33:15.869143,-116.0
2023-08-21 10:33:15.876832,-114.0
2023-08-21 10:33:15.884521,-114.0
2023-08-21 10:33:15.892210,-109.0
2023-08-21 10:33:15.899898,-106.0
2023-08-21 10:33:15.907587,-104.0
2023-08-21 10:33:15.915276,-99.0
2023-08-21 10:33:15.922965,-97.0
2023-08-21 10:33:15.930653,-104.0
2023-08-21 10:33:15.938342,-106.0
2023-08-21 10:33:15.946031,-99.0
2023-08-21 10:33:15.953720,-99.0
2023-08-21 10:33:15.961408,-106.0
2023-08-21 10:33:15.969097,-97.0
2023-08-21 10:33:15.976786,-68.0
2023-08-21 10:33:15.984474,-46.0
2023-08-21 10:33:15.992163,-48.0
2023-08-21 10:33:15.999852,-60.0
2023-08-21 10:33:16.007541,-80.0
2023-08-21 10:33:16.015229,-109.0
2023-08-21 10:33:16.022918,-121.0
2023-08-21 10:33:16.030607,-116.0
2023-08-21 10:33:16.038296,-114.0
2023-08-21 10:33:16.045984,-114.0
2023-08-21 10:33:16.053673,-111.0
2023-08-21 10:33:16.061362,-109.0
2023-08-21 10:33:16.069050,-111.0
2023-08-21 10:33:16.076739,-116.0
2023-08-21 10:33:16.084428,-128.0
2023-08-21 10:33:16.092117,-70.0
2023-08-21 10:33:16.099805,230.0
2023-08-21 10:33:16.107494,787.0
2023-08-21 10:33:16.115183,1161.0
2023-08-21 10:33:16.122872,811.0
2023-08-21 10:33:16.130560,-7.0
2023-08-21 10:33:16.138249,-352.0
2023-08-21 10:33:16.145938,-138.0
2023-08-21 10:33:16.153627,-102.0
2023-08-21 10:33:16.161315,-230.0
2023-08-21 10:33:16.169004,-194.0
2023-08-21 10:33:16.176693,-148.0
2023-08-21 10:33:16.184381,-177.0
2023-08-21 10:33:16.192070,-162.0
2023-08-21 10:33:16.199759,-133.0
2023-08-21 10:33:16.207448,-136.0
2023-08-21 10:33:16.215136,-128.0
2023-08-21 10:33:16.222825,-109.0
2023-08-21 10:33:16.230514,-99.0
2023-08-21 10:33:16.238203,-92.0
2023-08-21 10:33:16.245891,-77.0
2023-08-21 10:33:16.253580,-68.0
2023-08-21 10:33:16.261269,-58.0
2023-08-21 10:33:16.268957,-46.0
2023-08-21 10:33:16.276646,-34.0
2023-08-21 10:33:16.284335,-19.0
2023-08-21 10:33:16.292024,-7.0
2023-08-21 10:33:16.299712,2.0
2023-08-21 10:33:16.307401,14.0
2023-08-21 10:33:16.315090,31.0
2023-08-21 10:33:16.322779,43.0
2023-08-21 10:33:16.330467,53.0
2023-08-21 10:33:16.338156,60.0
2023-08-21 10:33:16.345845,63.0
2023-08-21 10:33:16.353534,65.0
2023-08-21 10:33:16.361222,68.0
2023-08-21 10:33:16.368911,65.0
2023-08-21 10:33:16.376600,63.0
2023-08-21 10:33:16.384288,51.0
2023-08-21 10:33:16.391977,17.0
2023-08-21 10:33:16.399666,-12.0
2023-08-21 10:33:16.407355,-41.0
2023-08-21 10:33:16.415043,-75.0
2023-08-21 10:33:16.422732,-109.0
2023-08-21 10:33:16.430421,-133.0
2023-08-21 10:33:16.438110,-148.0
2023-08-21 10:33:16.445798,-148.0
2023-08-21 10:33:16.453487,-145.0
2023-08-21 10:33:16.461176,-140.0
2023-08-21 10:33:16.468864,-136.0
2023-08-21 10:33:16.476553,-131.0
2023-08-21 10:33:16.484242,-126.0
2023-08-21 10:33:16.491931,-121.0
2023-08-21 10:33:16.499619,-116.0
2023-08-21 10:33:16.507308,-119.0
2023-08-21 10:33:16.514997,-119.0
2023-08-21 10:33:16.522686,-114.0
2023-08-21 10:33:16.530374,-114.0
2023-08-21 10:33:16.538063,-114.0
2023-08-21 10:33:16.545752,-111.0
2023-08-21 10:33:16.553441,-109.0
2023-08-21 10:33:16.561129,-106.0
2023-08-21 10:33:16.568818,-109.0
2023-08-21 10:33:16.576507,-109.0
2023-08-21 10:33:16.584195,-106.0
2023-08-21 10:33:16.591884,-106.0
2023-08-21 10:33:16.599573,-106.0
2023-08-21 10:33:16.607262,-106.0
2023-08-21 10:33:16.614950,-109.0
2023-08-21 10:33:16.622639,-111.0
2023-08-21 10:33:16.630328,-106.0
2023-08-21 10:33:16.638017,-99.0
2023-08-21 10:33:16.645705,-99.0
2023-08-21 10:33:16.653394,-99.0
2023-08-21 10:33:16.661083,-102.0
2023-08-21 10:33:16.668771,-109.0
2023-08-21 10:33:16.676460,-106.0
2023-08-21 10:33:16.684149,-99.0
2023-08-21 10:33:16.691838,-97.0
2023-08-21 10:33:16.699526,-99.0
2023-08-21 10:33:16.707215,-94.0
2023-08-21 10:33:16.714904,-92.0
2023-08-21 10:33:16.722593,-89.0
2023-08-21 10:33:16.730281,-87.0
2023-08-21 10:33:16.737970,-87.0
2023-08-21 10:33:16.745659,-92.0
2023-08-21 10:33:16.753348,-94.0
2023-08-21 10:33:16.761036,-94.0
2023-08-21 10:33:16.768725,-92.0
2023-08-21 10:33:16.776414,-92.0
2023-08-21 10:33:16.784102,-92.0
2023-08-21 10:33:16.791791,-80.0
2023-08-21 10:33:16.799480,-51.0
2023-08-21 10:33:16.807169,-31.0
2023-08-21 10:33:16.814857,-31.0
2023-08-21 10:33:16.822546,-36.0
2023-08-21 10:33:16.830235,-53.0
2023-08-21 10:33:16.837924,-85.0
2023-08-21 10:33:16.845612,-97.0
2023-08-21 10:33:16.853301,-87.0
2023-08-21 10:33:16.860990,-85.0
2023-08-21 10:33:16.868678,-87.0
2023-08-21 10:33:16.876367,-85.0
2023-08-21 10:33:16.884056,-82.0
2023-08-21 10:33:16.891745,-85.0
2023-08-21 10:33:16.899433,-97.0
2023-08-21 10:33:16.907122,-106.0
2023-08-21 10:33:16.914811,-12.0
2023-08-21 10:33:16.922500,359.0
2023-08-21 10:33:16.930188,954.0
2023-08-21 10:33:16.937877,1236.0
2023-08-21 10:33:16.945566,702.0
2023-08-21 10:33:16.953255,-150.0
2023-08-21 10:33:16.960943,-352.0
2023-08-21 10:33:16.968632,-106.0
2023-08-21 10:33:16.976321,-138.0
2023-08-21 10:33:16.984009,-245.0
2023-08-21 10:33:16.991698,-174.0
2023-08-21 10:33:16.999387,-150.0
2023-08-21 10:33:17.007076,-187.0
2023-08-21 10:33:17.014764,-165.0
2023-08-21 10:33:17.022453,-136.0
2023-08-21 10:33:17.030142,-138.0
2023-08-21 10:33:17.037831,-126.0
2023-08-21 10:33:17.045519,-106.0
2023-08-21 10:33:17.053208,-99.0
2023-08-21 10:33:17.060897,-92.0
2023-08-21 10:33:17.068585,-75.0
2023-08-21 10:33:17.076274,-63.0
2023-08-21 10:33:17.083963,-53.0
2023-08-21 10:33:17.091652,-36.0
2023-08-21 10:33:17.099340,-21.0
