time,ECG
2023-08-11 17:05:53.156956,-62.0
2023-08-11 17:05:53.164645,-65.0
2023-08-11 17:05:53.172334,-72.0
2023-08-11 17:05:53.180024,-62.0
2023-08-11 17:05:53.187713,-43.0
2023-08-11 17:05:53.195402,-33.0
2023-08-11 17:05:53.203092,-29.0
2023-08-11 17:05:53.210781,-19.0
2023-08-11 17:05:53.218471,-14.0
2023-08-11 17:05:53.226160,-16.0
2023-08-11 17:05:53.233849,-16.0
2023-08-11 17:05:53.241539,-19.0
2023-08-11 17:05:53.249228,-24.0
2023-08-11 17:05:53.256917,-19.0
2023-08-11 17:05:53.264607,-16.0
2023-08-11 17:05:53.272296,-9.0
2023-08-11 17:05:53.279986,2.0
2023-08-11 17:05:53.287675,-84.0
2023-08-11 17:05:53.295364,-437.0
2023-08-11 17:05:53.303054,-961.0
2023-08-11 17:05:53.310743,-1135.0
2023-08-11 17:05:53.318432,-642.0
2023-08-11 17:05:53.326122,113.0
2023-08-11 17:05:53.333811,427.0
2023-08-11 17:05:53.341501,224.0
2023-08-11 17:05:53.349190,82.0
2023-08-11 17:05:53.356879,106.0
2023-08-11 17:05:53.364569,45.0
2023-08-11 17:05:53.372258,7.0
2023-08-11 17:05:53.379947,38.0
2023-08-11 17:05:53.387637,26.0
2023-08-11 17:05:53.395326,-12.0
2023-08-11 17:05:53.403016,-16.0
2023-08-11 17:05:53.410705,-19.0
2023-08-11 17:05:53.418394,-29.0
2023-08-11 17:05:53.426084,-38.0
2023-08-11 17:05:53.433773,-53.0
2023-08-11 17:05:53.441463,-67.0
2023-08-11 17:05:53.449152,-84.0
2023-08-11 17:05:53.456841,-101.0
2023-08-11 17:05:53.464531,-123.0
2023-08-11 17:05:53.472220,-159.0
2023-08-11 17:05:53.479909,-200.0
2023-08-11 17:05:53.487599,-229.0
2023-08-11 17:05:53.495288,-253.0
2023-08-11 17:05:53.502978,-275.0
2023-08-11 17:05:53.510667,-292.0
2023-08-11 17:05:53.518356,-304.0
2023-08-11 17:05:53.526046,-292.0
2023-08-11 17:05:53.533735,-236.0
2023-08-11 17:05:53.541424,-161.0
2023-08-11 17:05:53.549114,-99.0
2023-08-11 17:05:53.556803,-43.0
2023-08-11 17:05:53.564493,4.0
2023-08-11 17:05:53.572182,45.0
2023-08-11 17:05:53.579871,82.0
2023-08-11 17:05:53.587561,91.0
2023-08-11 17:05:53.595250,82.0
2023-08-11 17:05:53.602939,72.0
2023-08-11 17:05:53.610629,55.0
2023-08-11 17:05:53.618318,50.0
2023-08-11 17:05:53.626008,60.0
2023-08-11 17:05:53.633697,60.0
2023-08-11 17:05:53.641386,55.0
2023-08-11 17:05:53.649076,50.0
2023-08-11 17:05:53.656765,50.0
2023-08-11 17:05:53.664454,58.0
2023-08-11 17:05:53.672144,65.0
2023-08-11 17:05:53.679833,60.0
2023-08-11 17:05:53.687523,43.0
2023-08-11 17:05:53.695212,33.0
2023-08-11 17:05:53.702901,31.0
2023-08-11 17:05:53.710591,26.0
2023-08-11 17:05:53.718280,21.0
2023-08-11 17:05:53.725969,14.0
2023-08-11 17:05:53.733659,9.0
2023-08-11 17:05:53.741348,14.0
2023-08-11 17:05:53.749038,12.0
2023-08-11 17:05:53.756727,0.0
2023-08-11 17:05:53.764416,0.0
2023-08-11 17:05:53.772106,2.0
2023-08-11 17:05:53.779795,-7.0
2023-08-11 17:05:53.787484,-21.0
2023-08-11 17:05:53.795174,-21.0
2023-08-11 17:05:53.802863,-4.0
2023-08-11 17:05:53.810553,-2.0
2023-08-11 17:05:53.818242,-19.0
2023-08-11 17:05:53.825931,-21.0
2023-08-11 17:05:53.833621,-7.0
2023-08-11 17:05:53.841310,-7.0
2023-08-11 17:05:53.848999,-29.0
2023-08-11 17:05:53.856689,-43.0
2023-08-11 17:05:53.864378,-53.0
2023-08-11 17:05:53.872068,-60.0
2023-08-11 17:05:53.879757,-45.0
2023-08-11 17:05:53.887446,-24.0
2023-08-11 17:05:53.895136,-31.0
2023-08-11 17:05:53.902825,-38.0
2023-08-11 17:05:53.910515,-19.0
2023-08-11 17:05:53.918204,-2.0
2023-08-11 17:05:53.925893,-9.0
2023-08-11 17:05:53.933583,-14.0
2023-08-11 17:05:53.941272,-9.0
2023-08-11 17:05:53.948961,-21.0
2023-08-11 17:05:53.956651,-36.0
2023-08-11 17:05:53.964340,-38.0
2023-08-11 17:05:53.972030,-19.0
2023-08-11 17:05:53.979719,0.0
2023-08-11 17:05:53.987408,-79.0
2023-08-11 17:05:53.995098,-415.0
2023-08-11 17:05:54.002787,-940.0
2023-08-11 17:05:54.010476,-1152.0
2023-08-11 17:05:54.018166,-700.0
2023-08-11 17:05:54.025855,55.0
2023-08-11 17:05:54.033545,403.0
2023-08-11 17:05:54.041234,227.0
2023-08-11 17:05:54.048923,72.0
2023-08-11 17:05:54.056613,84.0
2023-08-11 17:05:54.064302,43.0
2023-08-11 17:05:54.071991,4.0
2023-08-11 17:05:54.079681,16.0
2023-08-11 17:05:54.087370,2.0
2023-08-11 17:05:54.095060,-21.0
2023-08-11 17:05:54.102749,-21.0
2023-08-11 17:05:54.110438,-26.0
2023-08-11 17:05:54.118128,-33.0
2023-08-11 17:05:54.125817,-41.0
2023-08-11 17:05:54.133506,-62.0
2023-08-11 17:05:54.141196,-82.0
2023-08-11 17:05:54.148885,-96.0
2023-08-11 17:05:54.156575,-111.0
2023-08-11 17:05:54.164264,-125.0
2023-08-11 17:05:54.171953,-149.0
2023-08-11 17:05:54.179643,-190.0
2023-08-11 17:05:54.187332,-236.0
2023-08-11 17:05:54.195021,-265.0
2023-08-11 17:05:54.202711,-280.0
2023-08-11 17:05:54.210400,-287.0
2023-08-11 17:05:54.218090,-282.0
2023-08-11 17:05:54.225779,-270.0
2023-08-11 17:05:54.233468,-236.0
2023-08-11 17:05:54.241158,-174.0
2023-08-11 17:05:54.248847,-101.0
2023-08-11 17:05:54.256536,-45.0
2023-08-11 17:05:54.264226,0.0
2023-08-11 17:05:54.271915,38.0
2023-08-11 17:05:54.279605,50.0
2023-08-11 17:05:54.287294,55.0
2023-08-11 17:05:54.294983,65.0
2023-08-11 17:05:54.302673,62.0
2023-08-11 17:05:54.310362,45.0
2023-08-11 17:05:54.318051,38.0
2023-08-11 17:05:54.325741,36.0
2023-08-11 17:05:54.333430,31.0
2023-08-11 17:05:54.341120,31.0
2023-08-11 17:05:54.348809,31.0
2023-08-11 17:05:54.356498,29.0
2023-08-11 17:05:54.364188,26.0
2023-08-11 17:05:54.371877,26.0
2023-08-11 17:05:54.379567,19.0
2023-08-11 17:05:54.387256,24.0
2023-08-11 17:05:54.394945,29.0
2023-08-11 17:05:54.402635,7.0
2023-08-11 17:05:54.410324,-7.0
2023-08-11 17:05:54.418013,0.0
2023-08-11 17:05:54.425703,0.0
2023-08-11 17:05:54.433392,-9.0
2023-08-11 17:05:54.441082,-7.0
2023-08-11 17:05:54.448771,-4.0
2023-08-11 17:05:54.456460,-12.0
2023-08-11 17:05:54.464150,-16.0
2023-08-11 17:05:54.471839,-12.0
2023-08-11 17:05:54.479528,-9.0
2023-08-11 17:05:54.487218,-9.0
2023-08-11 17:05:54.494907,-16.0
2023-08-11 17:05:54.502597,-21.0
2023-08-11 17:05:54.510286,-21.0
2023-08-11 17:05:54.517975,-12.0
2023-08-11 17:05:54.525665,-9.0
2023-08-11 17:05:54.533354,-24.0
2023-08-11 17:05:54.541043,-36.0
2023-08-11 17:05:54.548733,-43.0
2023-08-11 17:05:54.556422,-70.0
2023-08-11 17:05:54.564112,-87.0
2023-08-11 17:05:54.571801,-60.0
2023-08-11 17:05:54.579490,-31.0
2023-08-11 17:05:54.587180,-33.0
2023-08-11 17:05:54.594869,-36.0
2023-08-11 17:05:54.602558,-16.0
2023-08-11 17:05:54.610248,-4.0
2023-08-11 17:05:54.617937,-12.0
2023-08-11 17:05:54.625627,-14.0
2023-08-11 17:05:54.633316,-16.0
2023-08-11 17:05:54.641005,-29.0
2023-08-11 17:05:54.648695,-26.0
2023-08-11 17:05:54.656384,-12.0
2023-08-11 17:05:54.664073,2.0
2023-08-11 17:05:54.671763,4.0
2023-08-11 17:05:54.679452,-111.0
2023-08-11 17:05:54.687142,-495.0
2023-08-11 17:05:54.694831,-981.0
2023-08-11 17:05:54.702520,-1046.0
2023-08-11 17:05:54.710210,-497.0
2023-08-11 17:05:54.717899,188.0
2023-08-11 17:05:54.725588,386.0
2023-08-11 17:05:54.733278,166.0
2023-08-11 17:05:54.740967,67.0
2023-08-11 17:05:54.748657,84.0
2023-08-11 17:05:54.756346,26.0
2023-08-11 17:05:54.764035,2.0
2023-08-11 17:05:54.771725,26.0
2023-08-11 17:05:54.779414,4.0
2023-08-11 17:05:54.787103,-16.0
2023-08-11 17:05:54.794793,-4.0
2023-08-11 17:05:54.802482,-4.0
2023-08-11 17:05:54.810172,-21.0
2023-08-11 17:05:54.817861,-41.0
2023-08-11 17:05:54.825550,-55.0
2023-08-11 17:05:54.833240,-65.0
2023-08-11 17:05:54.840929,-84.0
2023-08-11 17:05:54.848619,-120.0
2023-08-11 17:05:54.856308,-154.0
2023-08-11 17:05:54.863997,-178.0
2023-08-11 17:05:54.871687,-210.0
2023-08-11 17:05:54.879376,-234.0
2023-08-11 17:05:54.887065,-256.0
2023-08-11 17:05:54.894755,-275.0
2023-08-11 17:05:54.902444,-280.0
2023-08-11 17:05:54.910134,-277.0
2023-08-11 17:05:54.917823,-258.0
2023-08-11 17:05:54.925512,-210.0
2023-08-11 17:05:54.933202,-149.0
2023-08-11 17:05:54.940891,-91.0
2023-08-11 17:05:54.948580,-41.0
2023-08-11 17:05:54.956270,2.0
2023-08-11 17:05:54.963959,31.0
2023-08-11 17:05:54.971649,43.0
2023-08-11 17:05:54.979338,53.0
2023-08-11 17:05:54.987027,58.0
2023-08-11 17:05:54.994717,60.0
2023-08-11 17:05:55.002406,58.0
2023-08-11 17:05:55.010095,48.0
2023-08-11 17:05:55.017785,38.0
2023-08-11 17:05:55.025474,41.0
2023-08-11 17:05:55.033164,48.0
2023-08-11 17:05:55.040853,50.0
2023-08-11 17:05:55.048542,41.0
2023-08-11 17:05:55.056232,29.0
2023-08-11 17:05:55.063921,26.0
2023-08-11 17:05:55.071610,29.0
2023-08-11 17:05:55.079300,19.0
2023-08-11 17:05:55.086989,4.0
2023-08-11 17:05:55.094679,2.0
2023-08-11 17:05:55.102368,2.0
2023-08-11 17:05:55.110057,-4.0
2023-08-11 17:05:55.117747,-4.0
2023-08-11 17:05:55.125436,-4.0
2023-08-11 17:05:55.133125,-7.0
2023-08-11 17:05:55.140815,-7.0
2023-08-11 17:05:55.148504,-7.0
2023-08-11 17:05:55.156194,-12.0
2023-08-11 17:05:55.163883,-12.0
2023-08-11 17:05:55.171572,-19.0
2023-08-11 17:05:55.179262,-19.0
2023-08-11 17:05:55.186951,-12.0
2023-08-11 17:05:55.194640,-19.0
2023-08-11 17:05:55.202330,-33.0
2023-08-11 17:05:55.210019,-29.0
2023-08-11 17:05:55.217709,-19.0
2023-08-11 17:05:55.225398,-33.0
2023-08-11 17:05:55.233087,-55.0
2023-08-11 17:05:55.240777,-60.0
2023-08-11 17:05:55.248466,-65.0
2023-08-11 17:05:55.256156,-65.0
2023-08-11 17:05:55.263845,-50.0
2023-08-11 17:05:55.271534,-31.0
2023-08-11 17:05:55.279224,-29.0
2023-08-11 17:05:55.286913,-29.0
2023-08-11 17:05:55.294602,-21.0
2023-08-11 17:05:55.302292,-16.0
2023-08-11 17:05:55.309981,-12.0
2023-08-11 17:05:55.317671,-4.0
2023-08-11 17:05:55.325360,-7.0
2023-08-11 17:05:55.333049,-14.0
2023-08-11 17:05:55.340739,-16.0
2023-08-11 17:05:55.348428,-19.0
2023-08-11 17:05:55.356117,-4.0
2023-08-11 17:05:55.363807,9.0
2023-08-11 17:05:55.371496,-130.0
2023-08-11 17:05:55.379186,-548.0
2023-08-11 17:05:55.386875,-1032.0
2023-08-11 17:05:55.394564,-1051.0
2023-08-11 17:05:55.402254,-430.0
2023-08-11 17:05:55.409943,248.0
2023-08-11 17:05:55.417632,364.0
2023-08-11 17:05:55.425322,140.0
2023-08-11 17:05:55.433011,77.0
2023-08-11 17:05:55.440701,87.0
2023-08-11 17:05:55.448390,19.0
2023-08-11 17:05:55.456079,4.0
2023-08-11 17:05:55.463769,29.0
2023-08-11 17:05:55.471458,9.0
2023-08-11 17:05:55.479147,-7.0
2023-08-11 17:05:55.486837,-4.0
2023-08-11 17:05:55.494526,-14.0
2023-08-11 17:05:55.502216,-33.0
2023-08-11 17:05:55.509905,-45.0
2023-08-11 17:05:55.517594,-60.0
2023-08-11 17:05:55.525284,-72.0
2023-08-11 17:05:55.532973,-79.0
2023-08-11 17:05:55.540662,-99.0
2023-08-11 17:05:55.548352,-130.0
2023-08-11 17:05:55.556041,-164.0
2023-08-11 17:05:55.563731,-203.0
2023-08-11 17:05:55.571420,-246.0
2023-08-11 17:05:55.579109,-270.0
2023-08-11 17:05:55.586799,-285.0
2023-08-11 17:05:55.594488,-299.0
2023-08-11 17:05:55.602177,-292.0
2023-08-11 17:05:55.609867,-263.0
2023-08-11 17:05:55.617556,-219.0
2023-08-11 17:05:55.625246,-154.0
2023-08-11 17:05:55.632935,-82.0
2023-08-11 17:05:55.640624,-21.0
2023-08-11 17:05:55.648314,21.0
2023-08-11 17:05:55.656003,50.0
2023-08-11 17:05:55.663692,65.0
2023-08-11 17:05:55.671382,67.0
2023-08-11 17:05:55.679071,70.0
2023-08-11 17:05:55.686761,72.0
2023-08-11 17:05:55.694450,65.0
2023-08-11 17:05:55.702139,55.0
2023-08-11 17:05:55.709829,50.0
2023-08-11 17:05:55.717518,48.0
2023-08-11 17:05:55.725208,43.0
2023-08-11 17:05:55.732897,41.0
2023-08-11 17:05:55.740586,43.0
2023-08-11 17:05:55.748276,41.0
2023-08-11 17:05:55.755965,33.0
2023-08-11 17:05:55.763654,31.0
2023-08-11 17:05:55.771344,29.0
2023-08-11 17:05:55.779033,24.0
2023-08-11 17:05:55.786723,21.0
2023-08-11 17:05:55.794412,12.0
2023-08-11 17:05:55.802101,2.0
2023-08-11 17:05:55.809791,2.0
2023-08-11 17:05:55.817480,4.0
2023-08-11 17:05:55.825169,7.0
2023-08-11 17:05:55.832859,7.0
2023-08-11 17:05:55.840548,-9.0
2023-08-11 17:05:55.848238,-21.0
2023-08-11 17:05:55.855927,-4.0
2023-08-11 17:05:55.863616,12.0
2023-08-11 17:05:55.871306,9.0
2023-08-11 17:05:55.878995,4.0
2023-08-11 17:05:55.886684,4.0
2023-08-11 17:05:55.894374,2.0
2023-08-11 17:05:55.902063,-4.0
2023-08-11 17:05:55.909753,-9.0
2023-08-11 17:05:55.917442,-29.0
2023-08-11 17:05:55.925131,-45.0
2023-08-11 17:05:55.932821,-50.0
2023-08-11 17:05:55.940510,-55.0
2023-08-11 17:05:55.948199,-41.0
2023-08-11 17:05:55.955889,-14.0
2023-08-11 17:05:55.963578,-9.0
2023-08-11 17:05:55.971268,-16.0
2023-08-11 17:05:55.978957,-7.0
2023-08-11 17:05:55.986646,0.0
2023-08-11 17:05:55.994336,-9.0
2023-08-11 17:05:56.002025,-7.0
2023-08-11 17:05:56.009714,-4.0
2023-08-11 17:05:56.017404,-21.0
2023-08-11 17:05:56.025093,-38.0
2023-08-11 17:05:56.032783,-36.0
2023-08-11 17:05:56.040472,-14.0
2023-08-11 17:05:56.048161,-2.0
2023-08-11 17:05:56.055851,-111.0
2023-08-11 17:05:56.063540,-495.0
2023-08-11 17:05:56.071229,-1036.0
2023-08-11 17:05:56.078919,-1184.0
2023-08-11 17:05:56.086608,-638.0
2023-08-11 17:05:56.094298,147.0
2023-08-11 17:05:56.101987,427.0
2023-08-11 17:05:56.109676,176.0
2023-08-11 17:05:56.117366,33.0
2023-08-11 17:05:56.125055,79.0
2023-08-11 17:05:56.132744,26.0
2023-08-11 17:05:56.140434,-16.0
2023-08-11 17:05:56.148123,12.0
2023-08-11 17:05:56.155813,4.0
2023-08-11 17:05:56.163502,-21.0
2023-08-11 17:05:56.171191,-24.0
2023-08-11 17:05:56.178881,-24.0
2023-08-11 17:05:56.186570,-41.0
2023-08-11 17:05:56.194260,-55.0
2023-08-11 17:05:56.201949,-62.0
2023-08-11 17:05:56.209638,-79.0
2023-08-11 17:05:56.217328,-96.0
2023-08-11 17:05:56.225017,-116.0
2023-08-11 17:05:56.232706,-145.0
2023-08-11 17:05:56.240396,-176.0
2023-08-11 17:05:56.248085,-210.0
2023-08-11 17:05:56.255775,-253.0
2023-08-11 17:05:56.263464,-287.0
2023-08-11 17:05:56.271153,-299.0
2023-08-11 17:05:56.278843,-299.0
2023-08-11 17:05:56.286532,-297.0
2023-08-11 17:05:56.294221,-275.0
2023-08-11 17:05:56.301911,-232.0
2023-08-11 17:05:56.309600,-171.0
2023-08-11 17:05:56.317290,-101.0
2023-08-11 17:05:56.324979,-36.0
2023-08-11 17:05:56.332668,12.0
2023-08-11 17:05:56.340358,41.0
2023-08-11 17:05:56.348047,53.0
2023-08-11 17:05:56.355736,60.0
2023-08-11 17:05:56.363426,62.0
2023-08-11 17:05:56.371115,60.0
2023-08-11 17:05:56.378805,62.0
2023-08-11 17:05:56.386494,70.0
2023-08-11 17:05:56.394183,72.0
2023-08-11 17:05:56.401873,65.0
2023-08-11 17:05:56.409562,50.0
2023-08-11 17:05:56.417251,50.0
2023-08-11 17:05:56.424941,50.0
2023-08-11 17:05:56.432630,36.0
2023-08-11 17:05:56.440320,29.0
2023-08-11 17:05:56.448009,33.0
2023-08-11 17:05:56.455698,31.0
2023-08-11 17:05:56.463388,21.0
2023-08-11 17:05:56.471077,14.0
2023-08-11 17:05:56.478766,12.0
2023-08-11 17:05:56.486456,9.0
2023-08-11 17:05:56.494145,7.0
2023-08-11 17:05:56.501835,9.0
2023-08-11 17:05:56.509524,4.0
2023-08-11 17:05:56.517213,-9.0
2023-08-11 17:05:56.524903,-16.0
2023-08-11 17:05:56.532592,-9.0
2023-08-11 17:05:56.540281,-4.0
2023-08-11 17:05:56.547971,-9.0
2023-08-11 17:05:56.555660,-16.0
2023-08-11 17:05:56.563350,-21.0
2023-08-11 17:05:56.571039,-21.0
2023-08-11 17:05:56.578728,-26.0
2023-08-11 17:05:56.586418,-29.0
2023-08-11 17:05:56.594107,-31.0
2023-08-11 17:05:56.601797,-45.0
2023-08-11 17:05:56.609486,-58.0
2023-08-11 17:05:56.617175,-65.0
2023-08-11 17:05:56.624865,-72.0
2023-08-11 17:05:56.632554,-62.0
2023-08-11 17:05:56.640243,-41.0
2023-08-11 17:05:56.647933,-33.0
2023-08-11 17:05:56.655622,-36.0
2023-08-11 17:05:56.663312,-29.0
2023-08-11 17:05:56.671001,-16.0
2023-08-11 17:05:56.678690,-14.0
2023-08-11 17:05:56.686380,-21.0
2023-08-11 17:05:56.694069,-24.0
2023-08-11 17:05:56.701758,-26.0
2023-08-11 17:05:56.709448,-29.0
2023-08-11 17:05:56.717137,-24.0
2023-08-11 17:05:56.724827,-9.0
2023-08-11 17:05:56.732516,0.0
2023-08-11 17:05:56.740205,-74.0
2023-08-11 17:05:56.747895,-377.0
2023-08-11 17:05:56.755584,-882.0
2023-08-11 17:05:56.763273,-1133.0
2023-08-11 17:05:56.770963,-732.0
2023-08-11 17:05:56.778652,36.0
2023-08-11 17:05:56.786342,427.0
2023-08-11 17:05:56.794031,253.0
2023-08-11 17:05:56.801720,82.0
2023-08-11 17:05:56.809410,101.0
2023-08-11 17:05:56.817099,55.0
2023-08-11 17:05:56.824788,4.0
2023-08-11 17:05:56.832478,26.0
2023-08-11 17:05:56.840167,26.0
2023-08-11 17:05:56.847857,4.0
2023-08-11 17:05:56.855546,2.0
2023-08-11 17:05:56.863235,9.0
2023-08-11 17:05:56.870925,-2.0
2023-08-11 17:05:56.878614,-21.0
2023-08-11 17:05:56.886303,-38.0
2023-08-11 17:05:56.893993,-53.0
2023-08-11 17:05:56.901682,-77.0
2023-08-11 17:05:56.909372,-96.0
2023-08-11 17:05:56.917061,-116.0
2023-08-11 17:05:56.924750,-142.0
2023-08-11 17:05:56.932440,-178.0
2023-08-11 17:05:56.940129,-207.0
2023-08-11 17:05:56.947818,-239.0
2023-08-11 17:05:56.955508,-268.0
2023-08-11 17:05:56.963197,-277.0
2023-08-11 17:05:56.970887,-275.0
2023-08-11 17:05:56.978576,-263.0
2023-08-11 17:05:56.986265,-227.0
2023-08-11 17:05:56.993955,-169.0
2023-08-11 17:05:57.001644,-106.0
2023-08-11 17:05:57.009333,-45.0
2023-08-11 17:05:57.017023,2.0
2023-08-11 17:05:57.024712,31.0
2023-08-11 17:05:57.032402,53.0
2023-08-11 17:05:57.040091,67.0
2023-08-11 17:05:57.047780,74.0
2023-08-11 17:05:57.055470,72.0
2023-08-11 17:05:57.063159,67.0
2023-08-11 17:05:57.070849,65.0
2023-08-11 17:05:57.078538,55.0
2023-08-11 17:05:57.086227,38.0
2023-08-11 17:05:57.093917,31.0
2023-08-11 17:05:57.101606,26.0
2023-08-11 17:05:57.109295,19.0
2023-08-11 17:05:57.116985,16.0
2023-08-11 17:05:57.124674,19.0
2023-08-11 17:05:57.132364,16.0
2023-08-11 17:05:57.140053,12.0
2023-08-11 17:05:57.147742,4.0
2023-08-11 17:05:57.155432,-2.0
2023-08-11 17:05:57.163121,-9.0
2023-08-11 17:05:57.170810,-14.0
2023-08-11 17:05:57.178500,-12.0
2023-08-11 17:05:57.186189,-9.0
2023-08-11 17:05:57.193879,-9.0
2023-08-11 17:05:57.201568,-12.0
2023-08-11 17:05:57.209257,-14.0
2023-08-11 17:05:57.216947,-24.0
2023-08-11 17:05:57.224636,-29.0
2023-08-11 17:05:57.232325,-19.0
2023-08-11 17:05:57.240015,-14.0
2023-08-11 17:05:57.247704,-19.0
2023-08-11 17:05:57.255394,-21.0
2023-08-11 17:05:57.263083,-16.0
2023-08-11 17:05:57.270772,-21.0
2023-08-11 17:05:57.278462,-38.0
2023-08-11 17:05:57.286151,-48.0
2023-08-11 17:05:57.293840,-50.0
2023-08-11 17:05:57.301530,-70.0
2023-08-11 17:05:57.309219,-74.0
2023-08-11 17:05:57.316909,-45.0
2023-08-11 17:05:57.324598,-19.0
2023-08-11 17:05:57.332287,-21.0
2023-08-11 17:05:57.339977,-26.0
2023-08-11 17:05:57.347666,-14.0
2023-08-11 17:05:57.355355,-4.0
2023-08-11 17:05:57.363045,-12.0
2023-08-11 17:05:57.370734,-21.0
2023-08-11 17:05:57.378424,-21.0
2023-08-11 17:05:57.386113,-12.0
2023-08-11 17:05:57.393802,-12.0
2023-08-11 17:05:57.401492,-19.0
2023-08-11 17:05:57.409181,-7.0
2023-08-11 17:05:57.416870,-7.0
2023-08-11 17:05:57.424560,-169.0
2023-08-11 17:05:57.432249,-611.0
2023-08-11 17:05:57.439939,-1056.0
2023-08-11 17:05:57.447628,-978.0
2023-08-11 17:05:57.455317,-314.0
2023-08-11 17:05:57.463007,316.0
2023-08-11 17:05:57.470696,360.0
2023-08-11 17:05:57.478385,125.0
2023-08-11 17:05:57.486075,79.0
2023-08-11 17:05:57.493764,79.0
2023-08-11 17:05:57.501454,21.0
2023-08-11 17:05:57.509143,16.0
2023-08-11 17:05:57.516832,26.0
2023-08-11 17:05:57.524522,7.0
2023-08-11 17:05:57.532211,0.0
2023-08-11 17:05:57.539901,2.0
2023-08-11 17:05:57.547590,-14.0
2023-08-11 17:05:57.555279,-31.0
2023-08-11 17:05:57.562969,-41.0
2023-08-11 17:05:57.570658,-50.0
2023-08-11 17:05:57.578347,-70.0
2023-08-11 17:05:57.586037,-91.0
2023-08-11 17:05:57.593726,-118.0
2023-08-11 17:05:57.601416,-140.0
2023-08-11 17:05:57.609105,-166.0
2023-08-11 17:05:57.616794,-203.0
2023-08-11 17:05:57.624484,-236.0
2023-08-11 17:05:57.632173,-273.0
2023-08-11 17:05:57.639862,-299.0
2023-08-11 17:05:57.647552,-304.0
2023-08-11 17:05:57.655241,-297.0
2023-08-11 17:05:57.662931,-273.0
2023-08-11 17:05:57.670620,-222.0
2023-08-11 17:05:57.678309,-154.0
2023-08-11 17:05:57.685999,-96.0
2023-08-11 17:05:57.693688,-45.0
2023-08-11 17:05:57.701377,2.0
2023-08-11 17:05:57.709067,29.0
2023-08-11 17:05:57.716756,38.0
2023-08-11 17:05:57.724446,45.0
2023-08-11 17:05:57.732135,50.0
2023-08-11 17:05:57.739824,53.0
2023-08-11 17:05:57.747514,50.0
2023-08-11 17:05:57.755203,41.0
2023-08-11 17:05:57.762892,41.0
2023-08-11 17:05:57.770582,38.0
2023-08-11 17:05:57.778271,29.0
2023-08-11 17:05:57.785961,29.0
2023-08-11 17:05:57.793650,31.0
2023-08-11 17:05:57.801339,29.0
2023-08-11 17:05:57.809029,21.0
2023-08-11 17:05:57.816718,14.0
2023-08-11 17:05:57.824407,7.0
2023-08-11 17:05:57.832097,4.0
2023-08-11 17:05:57.839786,2.0
2023-08-11 17:05:57.847476,-2.0
2023-08-11 17:05:57.855165,-4.0
2023-08-11 17:05:57.862854,-7.0
2023-08-11 17:05:57.870544,-7.0
2023-08-11 17:05:57.878233,-4.0
2023-08-11 17:05:57.885922,-4.0
2023-08-11 17:05:57.893612,-7.0
2023-08-11 17:05:57.901301,-7.0
2023-08-11 17:05:57.908991,-14.0
2023-08-11 17:05:57.916680,-21.0
2023-08-11 17:05:57.924369,-14.0
2023-08-11 17:05:57.932059,-9.0
2023-08-11 17:05:57.939748,-16.0
2023-08-11 17:05:57.947438,-14.0
2023-08-11 17:05:57.955127,-14.0
2023-08-11 17:05:57.962816,-31.0
2023-08-11 17:05:57.970506,-50.0
2023-08-11 17:05:57.978195,-55.0
2023-08-11 17:05:57.985884,-62.0
2023-08-11 17:05:57.993574,-58.0
2023-08-11 17:05:58.001263,-41.0
2023-08-11 17:05:58.008953,-31.0
2023-08-11 17:05:58.016642,-26.0
2023-08-11 17:05:58.024331,-16.0
2023-08-11 17:05:58.032021,-4.0
2023-08-11 17:05:58.039710,-2.0
2023-08-11 17:05:58.047399,-9.0
2023-08-11 17:05:58.055089,-9.0
2023-08-11 17:05:58.062778,-4.0
2023-08-11 17:05:58.070468,-4.0
2023-08-11 17:05:58.078157,-7.0
2023-08-11 17:05:58.085846,-7.0
2023-08-11 17:05:58.093536,-2.0
2023-08-11 17:05:58.101225,-36.0
2023-08-11 17:05:58.108914,-270.0
2023-08-11 17:05:58.116604,-768.0
2023-08-11 17:05:58.124293,-1123.0
2023-08-11 17:05:58.131983,-843.0
2023-08-11 17:05:58.139672,-89.0
2023-08-11 17:05:58.147361,406.0
2023-08-11 17:05:58.155051,294.0
2023-08-11 17:05:58.162740,84.0
2023-08-11 17:05:58.170429,91.0
2023-08-11 17:05:58.178119,65.0
2023-08-11 17:05:58.185808,7.0
2023-08-11 17:05:58.193498,26.0
2023-08-11 17:05:58.201187,31.0
2023-08-11 17:05:58.208876,2.0
2023-08-11 17:05:58.216566,-4.0
2023-08-11 17:05:58.224255,-9.0
2023-08-11 17:05:58.231944,-29.0
2023-08-11 17:05:58.239634,-41.0
2023-08-11 17:05:58.247323,-48.0
2023-08-11 17:05:58.255013,-60.0
2023-08-11 17:05:58.262702,-77.0
2023-08-11 17:05:58.270391,-96.0
2023-08-11 17:05:58.278081,-125.0
2023-08-11 17:05:58.285770,-157.0
2023-08-11 17:05:58.293459,-183.0
2023-08-11 17:05:58.301149,-207.0
2023-08-11 17:05:58.308838,-236.0
2023-08-11 17:05:58.316528,-268.0
2023-08-11 17:05:58.324217,-282.0
2023-08-11 17:05:58.331906,-285.0
2023-08-11 17:05:58.339596,-275.0
2023-08-11 17:05:58.347285,-251.0
2023-08-11 17:05:58.354974,-195.0
2023-08-11 17:05:58.362664,-128.0
2023-08-11 17:05:58.370353,-67.0
2023-08-11 17:05:58.378043,-12.0
2023-08-11 17:05:58.385732,29.0
2023-08-11 17:05:58.393421,53.0
2023-08-11 17:05:58.401111,60.0
2023-08-11 17:05:58.408800,58.0
2023-08-11 17:05:58.416490,55.0
2023-08-11 17:05:58.424179,53.0
2023-08-11 17:05:58.431868,50.0
2023-08-11 17:05:58.439558,45.0
2023-08-11 17:05:58.447247,41.0
2023-08-11 17:05:58.454936,38.0
2023-08-11 17:05:58.462626,36.0
2023-08-11 17:05:58.470315,31.0
2023-08-11 17:05:58.478005,33.0
2023-08-11 17:05:58.485694,29.0
2023-08-11 17:05:58.493383,16.0
2023-08-11 17:05:58.501073,14.0
2023-08-11 17:05:58.508762,14.0
2023-08-11 17:05:58.516451,4.0
2023-08-11 17:05:58.524141,2.0
2023-08-11 17:05:58.531830,4.0
2023-08-11 17:05:58.539520,2.0
2023-08-11 17:05:58.547209,-7.0
2023-08-11 17:05:58.554898,-9.0
2023-08-11 17:05:58.562588,-9.0
2023-08-11 17:05:58.570277,-7.0
2023-08-11 17:05:58.577966,-4.0
2023-08-11 17:05:58.585656,-14.0
2023-08-11 17:05:58.593345,-29.0
2023-08-11 17:05:58.601035,-26.0
2023-08-11 17:05:58.608724,-14.0
2023-08-11 17:05:58.616413,-14.0
2023-08-11 17:05:58.624103,-14.0
2023-08-11 17:05:58.631792,-14.0
2023-08-11 17:05:58.639481,-19.0
2023-08-11 17:05:58.647171,-31.0
2023-08-11 17:05:58.654860,-58.0
2023-08-11 17:05:58.662550,-74.0
2023-08-11 17:05:58.670239,-74.0
2023-08-11 17:05:58.677928,-74.0
2023-08-11 17:05:58.685618,-62.0
2023-08-11 17:05:58.693307,-33.0
2023-08-11 17:05:58.700996,-21.0
2023-08-11 17:05:58.708686,-29.0
2023-08-11 17:05:58.716375,-29.0
2023-08-11 17:05:58.724065,-19.0
2023-08-11 17:05:58.731754,-16.0
2023-08-11 17:05:58.739443,-12.0
2023-08-11 17:05:58.747133,-14.0
2023-08-11 17:05:58.754822,-29.0
2023-08-11 17:05:58.762511,-33.0
2023-08-11 17:05:58.770201,-21.0
2023-08-11 17:05:58.777890,-14.0
2023-08-11 17:05:58.785580,-82.0
2023-08-11 17:05:58.793269,-389.0
2023-08-11 17:05:58.800958,-925.0
2023-08-11 17:05:58.808648,-1186.0
2023-08-11 17:05:58.816337,-754.0
2023-08-11 17:05:58.824026,41.0
2023-08-11 17:05:58.831716,437.0
2023-08-11 17:05:58.839405,246.0
2023-08-11 17:05:58.847095,67.0
2023-08-11 17:05:58.854784,91.0
2023-08-11 17:05:58.862473,45.0
2023-08-11 17:05:58.870163,-4.0
2023-08-11 17:05:58.877852,21.0
2023-08-11 17:05:58.885542,14.0
2023-08-11 17:05:58.893231,-24.0
2023-08-11 17:05:58.900920,-29.0
2023-08-11 17:05:58.908610,-21.0
2023-08-11 17:05:58.916299,-24.0
2023-08-11 17:05:58.923988,-33.0
2023-08-11 17:05:58.931678,-53.0
2023-08-11 17:05:58.939367,-77.0
2023-08-11 17:05:58.947057,-87.0
2023-08-11 17:05:58.954746,-99.0
2023-08-11 17:05:58.962435,-128.0
2023-08-11 17:05:58.970125,-161.0
2023-08-11 17:05:58.977814,-198.0
2023-08-11 17:05:58.985503,-224.0
2023-08-11 17:05:58.993193,-246.0
2023-08-11 17:05:59.000882,-285.0
2023-08-11 17:05:59.008572,-319.0
2023-08-11 17:05:59.016261,-316.0
2023-08-11 17:05:59.023950,-290.0
2023-08-11 17:05:59.031640,-246.0
2023-08-11 17:05:59.039329,-181.0
2023-08-11 17:05:59.047018,-118.0
2023-08-11 17:05:59.054708,-67.0
2023-08-11 17:05:59.062397,-7.0
2023-08-11 17:05:59.070087,33.0
2023-08-11 17:05:59.077776,33.0
2023-08-11 17:05:59.085465,36.0
2023-08-11 17:05:59.093155,50.0
2023-08-11 17:05:59.100844,41.0
2023-08-11 17:05:59.108533,33.0
2023-08-11 17:05:59.116223,45.0
2023-08-11 17:05:59.123912,48.0
2023-08-11 17:05:59.131602,38.0
2023-08-11 17:05:59.139291,29.0
2023-08-11 17:05:59.146980,16.0
2023-08-11 17:05:59.154670,9.0
2023-08-11 17:05:59.162359,9.0
2023-08-11 17:05:59.170048,12.0
2023-08-11 17:05:59.177738,7.0
2023-08-11 17:05:59.185427,-2.0
2023-08-11 17:05:59.193117,-2.0
2023-08-11 17:05:59.200806,2.0
2023-08-11 17:05:59.208495,-2.0
2023-08-11 17:05:59.216185,-24.0
2023-08-11 17:05:59.223874,-29.0
2023-08-11 17:05:59.231563,-16.0
2023-08-11 17:05:59.239253,-16.0
2023-08-11 17:05:59.246942,-33.0
2023-08-11 17:05:59.254632,-43.0
2023-08-11 17:05:59.262321,-31.0
2023-08-11 17:05:59.270010,-12.0
2023-08-11 17:05:59.277700,-16.0
2023-08-11 17:05:59.285389,-31.0
2023-08-11 17:05:59.293078,-24.0
2023-08-11 17:05:59.300768,-24.0
2023-08-11 17:05:59.308457,-48.0
2023-08-11 17:05:59.316147,-55.0
2023-08-11 17:05:59.323836,-50.0
2023-08-11 17:05:59.331525,-72.0
2023-08-11 17:05:59.339215,-99.0
2023-08-11 17:05:59.346904,-87.0
2023-08-11 17:05:59.354594,-58.0
2023-08-11 17:05:59.362283,-50.0
2023-08-11 17:05:59.369972,-53.0
2023-08-11 17:05:59.377662,-33.0
2023-08-11 17:05:59.385351,-24.0
2023-08-11 17:05:59.393040,-38.0
2023-08-11 17:05:59.400730,-50.0
2023-08-11 17:05:59.408419,-38.0
2023-08-11 17:05:59.416109,-31.0
2023-08-11 17:05:59.423798,-38.0
2023-08-11 17:05:59.431487,-36.0
2023-08-11 17:05:59.439177,-33.0
2023-08-11 17:05:59.446866,-29.0
2023-08-11 17:05:59.454555,-19.0
2023-08-11 17:05:59.462245,-137.0
2023-08-11 17:05:59.469934,-534.0
2023-08-11 17:05:59.477624,-1015.0
2023-08-11 17:05:59.485313,-1046.0
2023-08-11 17:05:59.493002,-451.0
2023-08-11 17:05:59.500692,234.0
2023-08-11 17:05:59.508381,393.0
2023-08-11 17:05:59.516070,159.0
2023-08-11 17:05:59.523760,58.0
2023-08-11 17:05:59.531449,60.0
2023-08-11 17:05:59.539139,14.0
2023-08-11 17:05:59.546828,12.0
2023-08-11 17:05:59.554517,24.0
2023-08-11 17:05:59.562207,-4.0
2023-08-11 17:05:59.569896,-19.0
2023-08-11 17:05:59.577585,-21.0
2023-08-11 17:05:59.585275,-43.0
2023-08-11 17:05:59.592964,-50.0
2023-08-11 17:05:59.600654,-43.0
2023-08-11 17:05:59.608343,-55.0
2023-08-11 17:05:59.616032,-79.0
2023-08-11 17:05:59.623722,-96.0
2023-08-11 17:05:59.631411,-118.0
2023-08-11 17:05:59.639100,-159.0
2023-08-11 17:05:59.646790,-198.0
2023-08-11 17:05:59.654479,-215.0
2023-08-11 17:05:59.662169,-232.0
2023-08-11 17:05:59.669858,-258.0
2023-08-11 17:05:59.677547,-275.0
2023-08-11 17:05:59.685237,-302.0
2023-08-11 17:05:59.692926,-304.0
2023-08-11 17:05:59.700615,-256.0
2023-08-11 17:05:59.708305,-212.0
2023-08-11 17:05:59.715994,-171.0
2023-08-11 17:05:59.723684,-106.0
2023-08-11 17:05:59.731373,-38.0
2023-08-11 17:05:59.739062,12.0
2023-08-11 17:05:59.746752,38.0
2023-08-11 17:05:59.754441,31.0
2023-08-11 17:05:59.762131,29.0
2023-08-11 17:05:59.769820,55.0
2023-08-11 17:05:59.777509,65.0
2023-08-11 17:05:59.785199,50.0
2023-08-11 17:05:59.792888,45.0
2023-08-11 17:05:59.800577,45.0
2023-08-11 17:05:59.808267,41.0
2023-08-11 17:05:59.815956,31.0
2023-08-11 17:05:59.823646,26.0
2023-08-11 17:05:59.831335,29.0
2023-08-11 17:05:59.839024,31.0
2023-08-11 17:05:59.846714,26.0
2023-08-11 17:05:59.854403,7.0
2023-08-11 17:05:59.862092,-12.0
2023-08-11 17:05:59.869782,-7.0
2023-08-11 17:05:59.877471,-4.0
2023-08-11 17:05:59.885161,-14.0
2023-08-11 17:05:59.892850,-26.0
2023-08-11 17:05:59.900539,-33.0
2023-08-11 17:05:59.908229,-29.0
2023-08-11 17:05:59.915918,-26.0
2023-08-11 17:05:59.923607,-45.0
2023-08-11 17:05:59.931297,-48.0
2023-08-11 17:05:59.938986,-31.0
2023-08-11 17:05:59.946676,-31.0
2023-08-11 17:05:59.954365,-48.0
2023-08-11 17:05:59.962054,-41.0
2023-08-11 17:05:59.969744,-31.0
2023-08-11 17:05:59.977433,-41.0
2023-08-11 17:05:59.985122,-50.0
2023-08-11 17:05:59.992812,-58.0
2023-08-11 17:06:00.000501,-72.0
2023-08-11 17:06:00.008191,-89.0
2023-08-11 17:06:00.015880,-101.0
2023-08-11 17:06:00.023569,-91.0
2023-08-11 17:06:00.031259,-62.0
2023-08-11 17:06:00.038948,-31.0
2023-08-11 17:06:00.046637,-33.0
2023-08-11 17:06:00.054327,-50.0
2023-08-11 17:06:00.062016,-38.0
2023-08-11 17:06:00.069706,-16.0
2023-08-11 17:06:00.077395,-19.0
2023-08-11 17:06:00.085084,-24.0
2023-08-11 17:06:00.092774,-24.0
2023-08-11 17:06:00.100463,-36.0
2023-08-11 17:06:00.108152,-53.0
2023-08-11 17:06:00.115842,-41.0
2023-08-11 17:06:00.123531,-19.0
2023-08-11 17:06:00.131221,-77.0
2023-08-11 17:06:00.138910,-340.0
2023-08-11 17:06:00.146599,-797.0
2023-08-11 17:06:00.154289,-1034.0
2023-08-11 17:06:00.161978,-669.0
2023-08-11 17:06:00.169667,19.0
2023-08-11 17:06:00.177357,374.0
2023-08-11 17:06:00.185046,232.0
2023-08-11 17:06:00.192736,65.0
2023-08-11 17:06:00.200425,65.0
2023-08-11 17:06:00.208114,31.0
2023-08-11 17:06:00.215804,-9.0
2023-08-11 17:06:00.223493,-4.0
2023-08-11 17:06:00.231183,-12.0
2023-08-11 17:06:00.238872,-24.0
2023-08-11 17:06:00.246561,-24.0
2023-08-11 17:06:00.254251,-26.0
2023-08-11 17:06:00.261940,-36.0
2023-08-11 17:06:00.269629,-43.0
2023-08-11 17:06:00.277319,-43.0
2023-08-11 17:06:00.285008,-53.0
2023-08-11 17:06:00.292698,-82.0
2023-08-11 17:06:00.300387,-106.0
2023-08-11 17:06:00.308076,-123.0
2023-08-11 17:06:00.315766,-152.0
2023-08-11 17:06:00.323455,-183.0
2023-08-11 17:06:00.331144,-210.0
2023-08-11 17:06:00.338834,-239.0
2023-08-11 17:06:00.346523,-261.0
2023-08-11 17:06:00.354213,-270.0
2023-08-11 17:06:00.361902,-270.0
2023-08-11 17:06:00.369591,-263.0
2023-08-11 17:06:00.377281,-227.0
2023-08-11 17:06:00.384970,-164.0
2023-08-11 17:06:00.392659,-99.0
2023-08-11 17:06:00.400349,-53.0
2023-08-11 17:06:00.408038,-9.0
2023-08-11 17:06:00.415728,33.0
2023-08-11 17:06:00.423417,43.0
2023-08-11 17:06:00.431106,33.0
2023-08-11 17:06:00.438796,36.0
2023-08-11 17:06:00.446485,48.0
2023-08-11 17:06:00.454174,58.0
2023-08-11 17:06:00.461864,58.0
2023-08-11 17:06:00.469553,41.0
2023-08-11 17:06:00.477243,21.0
2023-08-11 17:06:00.484932,21.0
2023-08-11 17:06:00.492621,31.0
2023-08-11 17:06:00.500311,33.0
2023-08-11 17:06:00.508000,21.0
2023-08-11 17:06:00.515689,9.0
2023-08-11 17:06:00.523379,7.0
2023-08-11 17:06:00.531068,7.0
2023-08-11 17:06:00.538758,7.0
2023-08-11 17:06:00.546447,-2.0
2023-08-11 17:06:00.554136,-14.0
2023-08-11 17:06:00.561826,-24.0
2023-08-11 17:06:00.569515,-21.0
2023-08-11 17:06:00.577204,-14.0
2023-08-11 17:06:00.584894,-4.0
2023-08-11 17:06:00.592583,-7.0
2023-08-11 17:06:00.600273,-16.0
2023-08-11 17:06:00.607962,-19.0
2023-08-11 17:06:00.615651,-21.0
2023-08-11 17:06:00.623341,-21.0
2023-08-11 17:06:00.631030,-21.0
2023-08-11 17:06:00.638719,-26.0
2023-08-11 17:06:00.646409,-38.0
2023-08-11 17:06:00.654098,-53.0
2023-08-11 17:06:00.661788,-58.0
2023-08-11 17:06:00.669477,-65.0
2023-08-11 17:06:00.677166,-77.0
2023-08-11 17:06:00.684856,-58.0
2023-08-11 17:06:00.692545,-26.0
2023-08-11 17:06:00.700235,-19.0
2023-08-11 17:06:00.707924,-21.0
2023-08-11 17:06:00.715613,-9.0
2023-08-11 17:06:00.723303,-2.0
2023-08-11 17:06:00.730992,-9.0
2023-08-11 17:06:00.738681,-9.0
2023-08-11 17:06:00.746371,-7.0
2023-08-11 17:06:00.754060,-16.0
2023-08-11 17:06:00.761750,-16.0
2023-08-11 17:06:00.769439,-12.0
2023-08-11 17:06:00.777128,-2.0
2023-08-11 17:06:00.784818,4.0
2023-08-11 17:06:00.792507,-84.0
2023-08-11 17:06:00.800196,-420.0
2023-08-11 17:06:00.807886,-916.0
2023-08-11 17:06:00.815575,-1056.0
2023-08-11 17:06:00.823265,-553.0
2023-08-11 17:06:00.830954,159.0
2023-08-11 17:06:00.838643,425.0
2023-08-11 17:06:00.846333,222.0
2023-08-11 17:06:00.854022,84.0
2023-08-11 17:06:00.861711,94.0
2023-08-11 17:06:00.869401,33.0
2023-08-11 17:06:00.877090,9.0
2023-08-11 17:06:00.884780,41.0
2023-08-11 17:06:00.892469,19.0
2023-08-11 17:06:00.900158,-7.0
2023-08-11 17:06:00.907848,-2.0
2023-08-11 17:06:00.915537,-16.0
2023-08-11 17:06:00.923226,-26.0
2023-08-11 17:06:00.930916,-24.0
2023-08-11 17:06:00.938605,-50.0
2023-08-11 17:06:00.946295,-74.0
2023-08-11 17:06:00.953984,-67.0
2023-08-11 17:06:00.961673,-77.0
2023-08-11 17:06:00.969363,-116.0
2023-08-11 17:06:00.977052,-152.0
2023-08-11 17:06:00.984741,-178.0
2023-08-11 17:06:00.992431,-212.0
2023-08-11 17:06:01.000120,-244.0
2023-08-11 17:06:01.007810,-265.0
2023-08-11 17:06:01.015499,-285.0
2023-08-11 17:06:01.023188,-292.0
2023-08-11 17:06:01.030878,-273.0
2023-08-11 17:06:01.038567,-229.0
2023-08-11 17:06:01.046256,-159.0
2023-08-11 17:06:01.053946,-89.0
2023-08-11 17:06:01.061635,-41.0
2023-08-11 17:06:01.069325,0.0
2023-08-11 17:06:01.077014,41.0
2023-08-11 17:06:01.084703,60.0
2023-08-11 17:06:01.092393,60.0
2023-08-11 17:06:01.100082,60.0
2023-08-11 17:06:01.107772,50.0
2023-08-11 17:06:01.115461,41.0
2023-08-11 17:06:01.123150,41.0
2023-08-11 17:06:01.130840,41.0
2023-08-11 17:06:01.138529,24.0
2023-08-11 17:06:01.146218,14.0
2023-08-11 17:06:01.153908,24.0
2023-08-11 17:06:01.161597,24.0
2023-08-11 17:06:01.169287,12.0
2023-08-11 17:06:01.176976,7.0
2023-08-11 17:06:01.184665,16.0
2023-08-11 17:06:01.192355,9.0
2023-08-11 17:06:01.200044,-14.0
2023-08-11 17:06:01.207733,-12.0
2023-08-11 17:06:01.215423,-4.0
2023-08-11 17:06:01.223112,-21.0
2023-08-11 17:06:01.230802,-31.0
2023-08-11 17:06:01.238491,-14.0
2023-08-11 17:06:01.246180,-12.0
2023-08-11 17:06:01.253870,-24.0
2023-08-11 17:06:01.261559,-31.0
2023-08-11 17:06:01.269248,-26.0
2023-08-11 17:06:01.276938,-14.0
2023-08-11 17:06:01.284627,-2.0
2023-08-11 17:06:01.292317,-4.0
2023-08-11 17:06:01.300006,-21.0
2023-08-11 17:06:01.307695,-33.0
2023-08-11 17:06:01.315385,-41.0
2023-08-11 17:06:01.323074,-60.0
2023-08-11 17:06:01.330763,-74.0
2023-08-11 17:06:01.338453,-62.0
2023-08-11 17:06:01.346142,-33.0
2023-08-11 17:06:01.353832,-16.0
2023-08-11 17:06:01.361521,-16.0
2023-08-11 17:06:01.369210,-24.0
2023-08-11 17:06:01.376900,-16.0
2023-08-11 17:06:01.384589,-16.0
2023-08-11 17:06:01.392278,-21.0
2023-08-11 17:06:01.399968,-4.0
2023-08-11 17:06:01.407657,0.0
2023-08-11 17:06:01.415347,-21.0
2023-08-11 17:06:01.423036,-29.0
2023-08-11 17:06:01.430725,-12.0
2023-08-11 17:06:01.438415,7.0
2023-08-11 17:06:01.446104,-45.0
2023-08-11 17:06:01.453793,-326.0
2023-08-11 17:06:01.461483,-843.0
2023-08-11 17:06:01.469172,-1164.0
2023-08-11 17:06:01.476862,-836.0
2023-08-11 17:06:01.484551,-45.0
2023-08-11 17:06:01.492240,456.0
2023-08-11 17:06:01.499930,319.0
2023-08-11 17:06:01.507619,96.0
2023-08-11 17:06:01.515308,106.0
2023-08-11 17:06:01.522998,72.0
2023-08-11 17:06:01.530687,2.0
2023-08-11 17:06:01.538377,21.0
2023-08-11 17:06:01.546066,31.0
2023-08-11 17:06:01.553755,0.0
2023-08-11 17:06:01.561445,-9.0
2023-08-11 17:06:01.569134,-2.0
2023-08-11 17:06:01.576824,-16.0
2023-08-11 17:06:01.584513,-36.0
2023-08-11 17:06:01.592202,-41.0
2023-08-11 17:06:01.599892,-48.0
2023-08-11 17:06:01.607581,-72.0
2023-08-11 17:06:01.615270,-106.0
2023-08-11 17:06:01.622960,-137.0
2023-08-11 17:06:01.630649,-161.0
2023-08-11 17:06:01.638339,-188.0
2023-08-11 17:06:01.646028,-236.0
2023-08-11 17:06:01.653717,-287.0
2023-08-11 17:06:01.661407,-304.0
2023-08-11 17:06:01.669096,-302.0
2023-08-11 17:06:01.676785,-302.0
2023-08-11 17:06:01.684475,-290.0
2023-08-11 17:06:01.692164,-246.0
2023-08-11 17:06:01.699854,-178.0
2023-08-11 17:06:01.707543,-103.0
2023-08-11 17:06:01.715232,-45.0
2023-08-11 17:06:01.722922,-4.0
2023-08-11 17:06:01.730611,24.0
2023-08-11 17:06:01.738300,45.0
2023-08-11 17:06:01.745990,50.0
2023-08-11 17:06:01.753679,55.0
2023-08-11 17:06:01.761369,65.0
2023-08-11 17:06:01.769058,60.0
2023-08-11 17:06:01.776747,43.0
2023-08-11 17:06:01.784437,31.0
2023-08-11 17:06:01.792126,26.0
2023-08-11 17:06:01.799815,29.0
2023-08-11 17:06:01.807505,33.0
2023-08-11 17:06:01.815194,31.0
2023-08-11 17:06:01.822884,21.0
2023-08-11 17:06:01.830573,12.0
2023-08-11 17:06:01.838262,0.0
2023-08-11 17:06:01.845952,-4.0
2023-08-11 17:06:01.853641,0.0
2023-08-11 17:06:01.861330,2.0
2023-08-11 17:06:01.869020,-7.0
2023-08-11 17:06:01.876709,-24.0
2023-08-11 17:06:01.884399,-31.0
2023-08-11 17:06:01.892088,-31.0
2023-08-11 17:06:01.899777,-31.0
2023-08-11 17:06:01.907467,-31.0
2023-08-11 17:06:01.915156,-29.0
2023-08-11 17:06:01.922845,-31.0
2023-08-11 17:06:01.930535,-26.0
2023-08-11 17:06:01.938224,-19.0
2023-08-11 17:06:01.945914,-21.0
2023-08-11 17:06:01.953603,-38.0
2023-08-11 17:06:01.961292,-45.0
2023-08-11 17:06:01.968982,-50.0
2023-08-11 17:06:01.976671,-65.0
2023-08-11 17:06:01.984360,-82.0
2023-08-11 17:06:01.992050,-82.0
2023-08-11 17:06:01.999739,-62.0
2023-08-11 17:06:02.007429,-41.0
2023-08-11 17:06:02.015118,-33.0
2023-08-11 17:06:02.022807,-33.0
2023-08-11 17:06:02.030497,-21.0
2023-08-11 17:06:02.038186,-12.0
2023-08-11 17:06:02.045876,-16.0
2023-08-11 17:06:02.053565,-21.0
2023-08-11 17:06:02.061254,-24.0
2023-08-11 17:06:02.068944,-33.0
2023-08-11 17:06:02.076633,-41.0
2023-08-11 17:06:02.084322,-36.0
2023-08-11 17:06:02.092012,-14.0
2023-08-11 17:06:02.099701,-21.0
2023-08-11 17:06:02.107391,-203.0
2023-08-11 17:06:02.115080,-662.0
2023-08-11 17:06:02.122769,-1119.0
2023-08-11 17:06:02.130459,-1029.0
2023-08-11 17:06:02.138148,-338.0
2023-08-11 17:06:02.145837,302.0
2023-08-11 17:06:02.153527,331.0
2023-08-11 17:06:02.161216,87.0
2023-08-11 17:06:02.168906,43.0
2023-08-11 17:06:02.176595,50.0
2023-08-11 17:06:02.184284,-12.0
2023-08-11 17:06:02.191974,-16.0
2023-08-11 17:06:02.199663,2.0
2023-08-11 17:06:02.207352,-12.0
2023-08-11 17:06:02.215042,-19.0
2023-08-11 17:06:02.222731,-24.0
2023-08-11 17:06:02.230421,-43.0
2023-08-11 17:06:02.238110,-53.0
2023-08-11 17:06:02.245799,-62.0
2023-08-11 17:06:02.253489,-77.0
2023-08-11 17:06:02.261178,-87.0
2023-08-11 17:06:02.268867,-99.0
2023-08-11 17:06:02.276557,-118.0
2023-08-11 17:06:02.284246,-140.0
2023-08-11 17:06:02.291936,-176.0
2023-08-11 17:06:02.299625,-219.0
2023-08-11 17:06:02.307314,-248.0
2023-08-11 17:06:02.315004,-270.0
2023-08-11 17:06:02.322693,-292.0
2023-08-11 17:06:02.330382,-306.0
2023-08-11 17:06:02.338072,-290.0
2023-08-11 17:06:02.345761,-244.0
2023-08-11 17:06:02.353451,-190.0
2023-08-11 17:06:02.361140,-132.0
2023-08-11 17:06:02.368829,-65.0
2023-08-11 17:06:02.376519,0.0
2023-08-11 17:06:02.384208,33.0
2023-08-11 17:06:02.391897,43.0
2023-08-11 17:06:02.399587,58.0
2023-08-11 17:06:02.407276,72.0
2023-08-11 17:06:02.414966,62.0
2023-08-11 17:06:02.422655,50.0
2023-08-11 17:06:02.430344,50.0
2023-08-11 17:06:02.438034,53.0
2023-08-11 17:06:02.445723,48.0
2023-08-11 17:06:02.453413,31.0
2023-08-11 17:06:02.461102,21.0
2023-08-11 17:06:02.468791,29.0
2023-08-11 17:06:02.476481,26.0
2023-08-11 17:06:02.484170,16.0
2023-08-11 17:06:02.491859,21.0
2023-08-11 17:06:02.499549,21.0
2023-08-11 17:06:02.507238,4.0
2023-08-11 17:06:02.514928,-7.0
2023-08-11 17:06:02.522617,-9.0
2023-08-11 17:06:02.530306,-19.0
2023-08-11 17:06:02.537996,-29.0
2023-08-11 17:06:02.545685,-24.0
2023-08-11 17:06:02.553374,-12.0
2023-08-11 17:06:02.561064,-12.0
2023-08-11 17:06:02.568753,-21.0
2023-08-11 17:06:02.576443,-36.0
2023-08-11 17:06:02.584132,-41.0
2023-08-11 17:06:02.591821,-43.0
2023-08-11 17:06:02.599511,-43.0
2023-08-11 17:06:02.607200,-36.0
2023-08-11 17:06:02.614889,-29.0
2023-08-11 17:06:02.622579,-41.0
2023-08-11 17:06:02.630268,-65.0
2023-08-11 17:06:02.637958,-77.0
2023-08-11 17:06:02.645647,-74.0
2023-08-11 17:06:02.653336,-84.0
2023-08-11 17:06:02.661026,-91.0
2023-08-11 17:06:02.668715,-70.0
2023-08-11 17:06:02.676404,-55.0
2023-08-11 17:06:02.684094,-60.0
2023-08-11 17:06:02.691783,-50.0
2023-08-11 17:06:02.699473,-29.0
2023-08-11 17:06:02.707162,-31.0
2023-08-11 17:06:02.714851,-48.0
2023-08-11 17:06:02.722541,-50.0
2023-08-11 17:06:02.730230,-45.0
2023-08-11 17:06:02.737919,-48.0
2023-08-11 17:06:02.745609,-50.0
2023-08-11 17:06:02.753298,-43.0
2023-08-11 17:06:02.760988,-33.0
2023-08-11 17:06:02.768677,-84.0
2023-08-11 17:06:02.776366,-364.0
2023-08-11 17:06:02.784056,-870.0
2023-08-11 17:06:02.791745,-1121.0
2023-08-11 17:06:02.799434,-705.0
2023-08-11 17:06:02.807124,43.0
2023-08-11 17:06:02.814813,396.0
2023-08-11 17:06:02.822503,215.0
2023-08-11 17:06:02.830192,60.0
2023-08-11 17:06:02.837881,74.0
2023-08-11 17:06:02.845571,19.0
2023-08-11 17:06:02.853260,-24.0
2023-08-11 17:06:02.860949,-4.0
2023-08-11 17:06:02.868639,-7.0
2023-08-11 17:06:02.876328,-16.0
2023-08-11 17:06:02.884018,-16.0
2023-08-11 17:06:02.891707,-31.0
2023-08-11 17:06:02.899396,-48.0
2023-08-11 17:06:02.907086,-41.0
2023-08-11 17:06:02.914775,-38.0
2023-08-11 17:06:02.922465,-65.0
2023-08-11 17:06:02.930154,-99.0
2023-08-11 17:06:02.937843,-111.0
2023-08-11 17:06:02.945533,-123.0
2023-08-11 17:06:02.953222,-154.0
2023-08-11 17:06:02.960911,-190.0
2023-08-11 17:06:02.968601,-227.0
2023-08-11 17:06:02.976290,-253.0
2023-08-11 17:06:02.983980,-265.0
2023-08-11 17:06:02.991669,-273.0
2023-08-11 17:06:02.999358,-268.0
2023-08-11 17:06:03.007048,-251.0
2023-08-11 17:06:03.014737,-217.0
2023-08-11 17:06:03.022426,-152.0
2023-08-11 17:06:03.030116,-74.0
2023-08-11 17:06:03.037805,-21.0
2023-08-11 17:06:03.045495,2.0
2023-08-11 17:06:03.053184,36.0
2023-08-11 17:06:03.060873,70.0
2023-08-11 17:06:03.068563,72.0
2023-08-11 17:06:03.076252,62.0
2023-08-11 17:06:03.083941,58.0
2023-08-11 17:06:03.091631,58.0
2023-08-11 17:06:03.099320,62.0
2023-08-11 17:06:03.107010,58.0
2023-08-11 17:06:03.114699,45.0
2023-08-11 17:06:03.122388,33.0
2023-08-11 17:06:03.130078,26.0
2023-08-11 17:06:03.137767,21.0
2023-08-11 17:06:03.145456,16.0
2023-08-11 17:06:03.153146,14.0
2023-08-11 17:06:03.160835,4.0
2023-08-11 17:06:03.168525,-4.0
2023-08-11 17:06:03.176214,-2.0
2023-08-11 17:06:03.183903,2.0
2023-08-11 17:06:03.191593,-14.0
2023-08-11 17:06:03.199282,-26.0
2023-08-11 17:06:03.206971,-24.0
2023-08-11 17:06:03.214661,-29.0
2023-08-11 17:06:03.222350,-33.0
2023-08-11 17:06:03.230040,-26.0
2023-08-11 17:06:03.237729,-16.0
2023-08-11 17:06:03.245418,-16.0
2023-08-11 17:06:03.253108,-29.0
2023-08-11 17:06:03.260797,-43.0
2023-08-11 17:06:03.268486,-48.0
2023-08-11 17:06:03.276176,-45.0
2023-08-11 17:06:03.283865,-41.0
2023-08-11 17:06:03.291555,-36.0
2023-08-11 17:06:03.299244,-26.0
2023-08-11 17:06:03.306933,-41.0
2023-08-11 17:06:03.314623,-70.0
2023-08-11 17:06:03.322312,-84.0
2023-08-11 17:06:03.330001,-87.0
2023-08-11 17:06:03.337691,-84.0
2023-08-11 17:06:03.345380,-70.0
2023-08-11 17:06:03.353070,-60.0
2023-08-11 17:06:03.360759,-58.0
2023-08-11 17:06:03.368448,-41.0
2023-08-11 17:06:03.376138,-16.0
2023-08-11 17:06:03.383827,-12.0
2023-08-11 17:06:03.391517,-21.0
2023-08-11 17:06:03.399206,-14.0
2023-08-11 17:06:03.406895,-14.0
2023-08-11 17:06:03.414585,-31.0
2023-08-11 17:06:03.422274,-31.0
2023-08-11 17:06:03.429963,-16.0
2023-08-11 17:06:03.437653,-4.0
2023-08-11 17:06:03.445342,-14.0
2023-08-11 17:06:03.453032,-147.0
2023-08-11 17:06:03.460721,-551.0
2023-08-11 17:06:03.468410,-1032.0
2023-08-11 17:06:03.476100,-1034.0
2023-08-11 17:06:03.483789,-401.0
2023-08-11 17:06:03.491478,268.0
2023-08-11 17:06:03.499168,374.0
2023-08-11 17:06:03.506857,157.0
2023-08-11 17:06:03.514547,91.0
2023-08-11 17:06:03.522236,77.0
2023-08-11 17:06:03.529925,21.0
2023-08-11 17:06:03.537615,29.0
2023-08-11 17:06:03.545304,41.0
2023-08-11 17:06:03.552993,4.0
2023-08-11 17:06:03.560683,-12.0
2023-08-11 17:06:03.568372,2.0
2023-08-11 17:06:03.576062,-4.0
2023-08-11 17:06:03.583751,-24.0
2023-08-11 17:06:03.591440,-26.0
2023-08-11 17:06:03.599130,-33.0
2023-08-11 17:06:03.606819,-55.0
2023-08-11 17:06:03.614508,-74.0
2023-08-11 17:06:03.622198,-87.0
2023-08-11 17:06:03.629887,-111.0
2023-08-11 17:06:03.637577,-147.0
2023-08-11 17:06:03.645266,-198.0
2023-08-11 17:06:03.652955,-239.0
2023-08-11 17:06:03.660645,-261.0
2023-08-11 17:06:03.668334,-285.0
2023-08-11 17:06:03.676023,-294.0
2023-08-11 17:06:03.683713,-273.0
2023-08-11 17:06:03.691402,-236.0
2023-08-11 17:06:03.699092,-188.0
2023-08-11 17:06:03.706781,-118.0
2023-08-11 17:06:03.714470,-48.0
2023-08-11 17:06:03.722160,-2.0
2023-08-11 17:06:03.729849,38.0
2023-08-11 17:06:03.737538,70.0
2023-08-11 17:06:03.745228,77.0
2023-08-11 17:06:03.752917,74.0
2023-08-11 17:06:03.760607,74.0
2023-08-11 17:06:03.768296,74.0
2023-08-11 17:06:03.775985,67.0
2023-08-11 17:06:03.783675,60.0
2023-08-11 17:06:03.791364,55.0
2023-08-11 17:06:03.799053,50.0
2023-08-11 17:06:03.806743,50.0
2023-08-11 17:06:03.814432,48.0
2023-08-11 17:06:03.822122,38.0
2023-08-11 17:06:03.829811,31.0
2023-08-11 17:06:03.837500,29.0
2023-08-11 17:06:03.845190,19.0
2023-08-11 17:06:03.852879,4.0
2023-08-11 17:06:03.860569,-2.0
2023-08-11 17:06:03.868258,-9.0
2023-08-11 17:06:03.875947,-14.0
2023-08-11 17:06:03.883637,-14.0
2023-08-11 17:06:03.891326,-14.0
2023-08-11 17:06:03.899015,-12.0
2023-08-11 17:06:03.906705,-16.0
2023-08-11 17:06:03.914394,-21.0
2023-08-11 17:06:03.922084,-21.0
2023-08-11 17:06:03.929773,-21.0
2023-08-11 17:06:03.937462,-19.0
2023-08-11 17:06:03.945152,-16.0
2023-08-11 17:06:03.952841,-24.0
2023-08-11 17:06:03.960530,-29.0
2023-08-11 17:06:03.968220,-21.0
2023-08-11 17:06:03.975909,-19.0
2023-08-11 17:06:03.983599,-31.0
2023-08-11 17:06:03.991288,-45.0
2023-08-11 17:06:03.998977,-50.0
2023-08-11 17:06:04.006667,-60.0
2023-08-11 17:06:04.014356,-72.0
2023-08-11 17:06:04.022045,-65.0
2023-08-11 17:06:04.029735,-43.0
2023-08-11 17:06:04.037424,-26.0
2023-08-11 17:06:04.045114,-21.0
2023-08-11 17:06:04.052803,-16.0
2023-08-11 17:06:04.060492,-9.0
2023-08-11 17:06:04.068182,-19.0
2023-08-11 17:06:04.075871,-31.0
2023-08-11 17:06:04.083560,-26.0
2023-08-11 17:06:04.091250,-24.0
2023-08-11 17:06:04.098939,-36.0
2023-08-11 17:06:04.106629,-38.0
2023-08-11 17:06:04.114318,-19.0
2023-08-11 17:06:04.122007,-19.0
2023-08-11 17:06:04.129697,-145.0
2023-08-11 17:06:04.137386,-553.0
2023-08-11 17:06:04.145075,-1094.0
2023-08-11 17:06:04.152765,-1179.0
2023-08-11 17:06:04.160454,-546.0
2023-08-11 17:06:04.168144,236.0
2023-08-11 17:06:04.175833,435.0
2023-08-11 17:06:04.183522,166.0
2023-08-11 17:06:04.191212,62.0
2023-08-11 17:06:04.198901,87.0
2023-08-11 17:06:04.206590,19.0
2023-08-11 17:06:04.214280,4.0
2023-08-11 17:06:04.221969,36.0
2023-08-11 17:06:04.229659,9.0
2023-08-11 17:06:04.237348,-7.0
2023-08-11 17:06:04.245037,7.0
2023-08-11 17:06:04.252727,-4.0
2023-08-11 17:06:04.260416,-33.0
2023-08-11 17:06:04.268106,-43.0
2023-08-11 17:06:04.275795,-50.0
2023-08-11 17:06:04.283484,-67.0
2023-08-11 17:06:04.291174,-82.0
2023-08-11 17:06:04.298863,-99.0
2023-08-11 17:06:04.306552,-128.0
2023-08-11 17:06:04.314242,-166.0
2023-08-11 17:06:04.321931,-207.0
2023-08-11 17:06:04.329621,-239.0
2023-08-11 17:06:04.337310,-263.0
2023-08-11 17:06:04.344999,-275.0
2023-08-11 17:06:04.352689,-280.0
2023-08-11 17:06:04.360378,-285.0
2023-08-11 17:06:04.368067,-265.0
2023-08-11 17:06:04.375757,-205.0
2023-08-11 17:06:04.383446,-132.0
2023-08-11 17:06:04.391136,-74.0
2023-08-11 17:06:04.398825,-19.0
2023-08-11 17:06:04.406514,24.0
2023-08-11 17:06:04.414204,48.0
2023-08-11 17:06:04.421893,62.0
2023-08-11 17:06:04.429582,72.0
2023-08-11 17:06:04.437272,74.0
2023-08-11 17:06:04.444961,74.0
2023-08-11 17:06:04.452651,72.0
2023-08-11 17:06:04.460340,65.0
2023-08-11 17:06:04.468029,55.0
2023-08-11 17:06:04.475719,43.0
2023-08-11 17:06:04.483408,36.0
2023-08-11 17:06:04.491097,38.0
2023-08-11 17:06:04.498787,36.0
2023-08-11 17:06:04.506476,24.0
2023-08-11 17:06:04.514166,16.0
2023-08-11 17:06:04.521855,16.0
2023-08-11 17:06:04.529544,16.0
2023-08-11 17:06:04.537234,14.0
2023-08-11 17:06:04.544923,9.0
2023-08-11 17:06:04.552612,4.0
2023-08-11 17:06:04.560302,0.0
2023-08-11 17:06:04.567991,-9.0
2023-08-11 17:06:04.575681,-12.0
2023-08-11 17:06:04.583370,-9.0
2023-08-11 17:06:04.591059,-14.0
2023-08-11 17:06:04.598749,-21.0
2023-08-11 17:06:04.606438,-24.0
2023-08-11 17:06:04.614127,-19.0
2023-08-11 17:06:04.621817,-21.0
2023-08-11 17:06:04.629506,-24.0
2023-08-11 17:06:04.637196,-19.0
2023-08-11 17:06:04.644885,-19.0
2023-08-11 17:06:04.652574,-24.0
2023-08-11 17:06:04.660264,-33.0
2023-08-11 17:06:04.667953,-45.0
2023-08-11 17:06:04.675642,-58.0
2023-08-11 17:06:04.683332,-70.0
2023-08-11 17:06:04.691021,-77.0
2023-08-11 17:06:04.698711,-67.0
2023-08-11 17:06:04.706400,-45.0
2023-08-11 17:06:04.714089,-29.0
2023-08-11 17:06:04.721779,-29.0
2023-08-11 17:06:04.729468,-29.0
2023-08-11 17:06:04.737158,-21.0
2023-08-11 17:06:04.744847,-21.0
2023-08-11 17:06:04.752536,-29.0
2023-08-11 17:06:04.760226,-31.0
2023-08-11 17:06:04.767915,-26.0
2023-08-11 17:06:04.775604,-21.0
2023-08-11 17:06:04.783294,-16.0
2023-08-11 17:06:04.790983,-2.0
2023-08-11 17:06:04.798673,9.0
2023-08-11 17:06:04.806362,-108.0
2023-08-11 17:06:04.814051,-512.0
2023-08-11 17:06:04.821741,-1053.0
2023-08-11 17:06:04.829430,-1169.0
2023-08-11 17:06:04.837119,-582.0
2023-08-11 17:06:04.844809,200.0
2023-08-11 17:06:04.852498,425.0
2023-08-11 17:06:04.860188,164.0
2023-08-11 17:06:04.867877,58.0
2023-08-11 17:06:04.875566,94.0
2023-08-11 17:06:04.883256,31.0
2023-08-11 17:06:04.890945,0.0
2023-08-11 17:06:04.898634,33.0
2023-08-11 17:06:04.906324,24.0
2023-08-11 17:06:04.914013,2.0
2023-08-11 17:06:04.921703,0.0
2023-08-11 17:06:04.929392,-16.0
2023-08-11 17:06:04.937081,-41.0
2023-08-11 17:06:04.944771,-41.0
2023-08-11 17:06:04.952460,-48.0
2023-08-11 17:06:04.960149,-67.0
2023-08-11 17:06:04.967839,-84.0
2023-08-11 17:06:04.975528,-101.0
2023-08-11 17:06:04.983218,-120.0
2023-08-11 17:06:04.990907,-149.0
2023-08-11 17:06:04.998596,-193.0
2023-08-11 17:06:05.006286,-232.0
2023-08-11 17:06:05.013975,-258.0
2023-08-11 17:06:05.021664,-280.0
2023-08-11 17:06:05.029354,-287.0
2023-08-11 17:06:05.037043,-273.0
2023-08-11 17:06:05.044733,-241.0
2023-08-11 17:06:05.052422,-195.0
2023-08-11 17:06:05.060111,-132.0
2023-08-11 17:06:05.067801,-70.0
2023-08-11 17:06:05.075490,-12.0
2023-08-11 17:06:05.083179,29.0
2023-08-11 17:06:05.090869,50.0
2023-08-11 17:06:05.098558,62.0
2023-08-11 17:06:05.106248,70.0
2023-08-11 17:06:05.113937,72.0
2023-08-11 17:06:05.121626,67.0
2023-08-11 17:06:05.129316,65.0
2023-08-11 17:06:05.137005,65.0
2023-08-11 17:06:05.144694,58.0
2023-08-11 17:06:05.152384,50.0
2023-08-11 17:06:05.160073,45.0
2023-08-11 17:06:05.167763,33.0
2023-08-11 17:06:05.175452,21.0
2023-08-11 17:06:05.183141,19.0
2023-08-11 17:06:05.190831,24.0
2023-08-11 17:06:05.198520,24.0
2023-08-11 17:06:05.206210,19.0
2023-08-11 17:06:05.213899,16.0
2023-08-11 17:06:05.221588,14.0
2023-08-11 17:06:05.229278,7.0
2023-08-11 17:06:05.236967,-2.0
2023-08-11 17:06:05.244656,-12.0
2023-08-11 17:06:05.252346,-14.0
2023-08-11 17:06:05.260035,-16.0
2023-08-11 17:06:05.267725,-21.0
2023-08-11 17:06:05.275414,-21.0
2023-08-11 17:06:05.283103,-19.0
2023-08-11 17:06:05.290793,-16.0
2023-08-11 17:06:05.298482,-19.0
2023-08-11 17:06:05.306171,-24.0
2023-08-11 17:06:05.313861,-24.0
2023-08-11 17:06:05.321550,-16.0
2023-08-11 17:06:05.329240,-9.0
2023-08-11 17:06:05.336929,-9.0
2023-08-11 17:06:05.344618,-31.0
2023-08-11 17:06:05.352308,-58.0
2023-08-11 17:06:05.359997,-67.0
2023-08-11 17:06:05.367686,-72.0
2023-08-11 17:06:05.375376,-74.0
2023-08-11 17:06:05.383065,-58.0
2023-08-11 17:06:05.390755,-36.0
2023-08-11 17:06:05.398444,-29.0
2023-08-11 17:06:05.406133,-26.0
2023-08-11 17:06:05.413823,-16.0
2023-08-11 17:06:05.421512,-12.0
2023-08-11 17:06:05.429201,-14.0
2023-08-11 17:06:05.436891,-14.0
2023-08-11 17:06:05.444580,-9.0
2023-08-11 17:06:05.452270,-14.0
2023-08-11 17:06:05.459959,-19.0
2023-08-11 17:06:05.467648,-16.0
2023-08-11 17:06:05.475338,0.0
2023-08-11 17:06:05.483027,2.0
2023-08-11 17:06:05.490716,-132.0
2023-08-11 17:06:05.498406,-546.0
2023-08-11 17:06:05.506095,-1061.0
2023-08-11 17:06:05.513785,-1123.0
2023-08-11 17:06:05.521474,-500.0
2023-08-11 17:06:05.529163,246.0
2023-08-11 17:06:05.536853,391.0
2023-08-11 17:06:05.544542,128.0
2023-08-11 17:06:05.552231,55.0
2023-08-11 17:06:05.559921,74.0
2023-08-11 17:06:05.567610,7.0
2023-08-11 17:06:05.575300,-4.0
2023-08-11 17:06:05.582989,21.0
2023-08-11 17:06:05.590678,0.0
2023-08-11 17:06:05.598368,-21.0
2023-08-11 17:06:05.606057,-19.0
2023-08-11 17:06:05.613747,-24.0
2023-08-11 17:06:05.621436,-36.0
2023-08-11 17:06:05.629125,-43.0
2023-08-11 17:06:05.636815,-53.0
2023-08-11 17:06:05.644504,-70.0
2023-08-11 17:06:05.652193,-91.0
2023-08-11 17:06:05.659883,-116.0
2023-08-11 17:06:05.667572,-142.0
2023-08-11 17:06:05.675262,-166.0
2023-08-11 17:06:05.682951,-195.0
2023-08-11 17:06:05.690640,-224.0
2023-08-11 17:06:05.698330,-248.0
2023-08-11 17:06:05.706019,-270.0
2023-08-11 17:06:05.713708,-287.0
2023-08-11 17:06:05.721398,-285.0
2023-08-11 17:06:05.729087,-258.0
2023-08-11 17:06:05.736777,-210.0
2023-08-11 17:06:05.744466,-142.0
2023-08-11 17:06:05.752155,-77.0
2023-08-11 17:06:05.759845,-21.0
2023-08-11 17:06:05.767534,14.0
2023-08-11 17:06:05.775223,43.0
2023-08-11 17:06:05.782913,60.0
2023-08-11 17:06:05.790602,62.0
2023-08-11 17:06:05.798292,60.0
2023-08-11 17:06:05.805981,60.0
2023-08-11 17:06:05.813670,58.0
2023-08-11 17:06:05.821360,53.0
2023-08-11 17:06:05.829049,50.0
2023-08-11 17:06:05.836738,48.0
2023-08-11 17:06:05.844428,45.0
2023-08-11 17:06:05.852117,41.0
2023-08-11 17:06:05.859807,33.0
2023-08-11 17:06:05.867496,33.0
2023-08-11 17:06:05.875185,31.0
2023-08-11 17:06:05.882875,21.0
2023-08-11 17:06:05.890564,16.0
2023-08-11 17:06:05.898253,19.0
2023-08-11 17:06:05.905943,21.0
2023-08-11 17:06:05.913632,16.0
2023-08-11 17:06:05.921322,14.0
2023-08-11 17:06:05.929011,9.0
2023-08-11 17:06:05.936700,2.0
2023-08-11 17:06:05.944390,-2.0
2023-08-11 17:06:05.952079,0.0
2023-08-11 17:06:05.959768,2.0
2023-08-11 17:06:05.967458,0.0
2023-08-11 17:06:05.975147,-7.0
2023-08-11 17:06:05.982837,-12.0
2023-08-11 17:06:05.990526,-14.0
2023-08-11 17:06:05.998215,-7.0
2023-08-11 17:06:06.005905,-4.0
2023-08-11 17:06:06.013594,-7.0
2023-08-11 17:06:06.021283,-2.0
2023-08-11 17:06:06.028973,-4.0
2023-08-11 17:06:06.036662,-29.0
2023-08-11 17:06:06.044352,-53.0
2023-08-11 17:06:06.052041,-65.0
2023-08-11 17:06:06.059730,-79.0
2023-08-11 17:06:06.067420,-77.0
2023-08-11 17:06:06.075109,-53.0
2023-08-11 17:06:06.082799,-41.0
2023-08-11 17:06:06.090488,-43.0
2023-08-11 17:06:06.098177,-43.0
2023-08-11 17:06:06.105867,-33.0
2023-08-11 17:06:06.113556,-19.0
2023-08-11 17:06:06.121245,-21.0
2023-08-11 17:06:06.128935,-29.0
2023-08-11 17:06:06.136624,-33.0
2023-08-11 17:06:06.144314,-43.0
2023-08-11 17:06:06.152003,-50.0
2023-08-11 17:06:06.159692,-31.0
2023-08-11 17:06:06.167382,-2.0
2023-08-11 17:06:06.175071,-50.0
2023-08-11 17:06:06.182760,-321.0
2023-08-11 17:06:06.190450,-843.0
2023-08-11 17:06:06.198139,-1206.0
2023-08-11 17:06:06.205829,-911.0
2023-08-11 17:06:06.213518,-120.0
2023-08-11 17:06:06.221207,391.0
2023-08-11 17:06:06.228897,258.0
2023-08-11 17:06:06.236586,53.0
2023-08-11 17:06:06.244275,79.0
2023-08-11 17:06:06.251965,58.0
2023-08-11 17:06:06.259654,2.0
2023-08-11 17:06:06.267344,26.0
2023-08-11 17:06:06.275033,33.0
2023-08-11 17:06:06.282722,0.0
2023-08-11 17:06:06.290412,-16.0
2023-08-11 17:06:06.298101,-14.0
2023-08-11 17:06:06.305790,-19.0
2023-08-11 17:06:06.313480,-33.0
2023-08-11 17:06:06.321169,-45.0
2023-08-11 17:06:06.328859,-53.0
2023-08-11 17:06:06.336548,-65.0
2023-08-11 17:06:06.344237,-87.0
2023-08-11 17:06:06.351927,-108.0
2023-08-11 17:06:06.359616,-137.0
2023-08-11 17:06:06.367305,-169.0
2023-08-11 17:06:06.374995,-205.0
2023-08-11 17:06:06.382684,-241.0
2023-08-11 17:06:06.390374,-265.0
2023-08-11 17:06:06.398063,-275.0
2023-08-11 17:06:06.405752,-277.0
2023-08-11 17:06:06.413442,-270.0
2023-08-11 17:06:06.421131,-241.0
2023-08-11 17:06:06.428820,-176.0
2023-08-11 17:06:06.436510,-103.0
2023-08-11 17:06:06.444199,-45.0
2023-08-11 17:06:06.451889,0.0
2023-08-11 17:06:06.459578,41.0
2023-08-11 17:06:06.467267,62.0
2023-08-11 17:06:06.474957,74.0
2023-08-11 17:06:06.482646,77.0
2023-08-11 17:06:06.490335,72.0
2023-08-11 17:06:06.498025,67.0
2023-08-11 17:06:06.505714,67.0
2023-08-11 17:06:06.513404,65.0
2023-08-11 17:06:06.521093,62.0
2023-08-11 17:06:06.528782,60.0
2023-08-11 17:06:06.536472,48.0
2023-08-11 17:06:06.544161,43.0
2023-08-11 17:06:06.551851,43.0
2023-08-11 17:06:06.559540,36.0
2023-08-11 17:06:06.567229,26.0
2023-08-11 17:06:06.574919,21.0
2023-08-11 17:06:06.582608,24.0
2023-08-11 17:06:06.590297,12.0
2023-08-11 17:06:06.597987,-7.0
2023-08-11 17:06:06.605676,-9.0
2023-08-11 17:06:06.613366,-7.0
2023-08-11 17:06:06.621055,-7.0
2023-08-11 17:06:06.628744,-7.0
2023-08-11 17:06:06.636434,-14.0
2023-08-11 17:06:06.644123,-16.0
2023-08-11 17:06:06.651812,-12.0
2023-08-11 17:06:06.659502,-9.0
2023-08-11 17:06:06.667191,-7.0
2023-08-11 17:06:06.674881,-7.0
2023-08-11 17:06:06.682570,-19.0
2023-08-11 17:06:06.690259,-29.0
2023-08-11 17:06:06.697949,-19.0
2023-08-11 17:06:06.705638,-9.0
2023-08-11 17:06:06.713327,-16.0
2023-08-11 17:06:06.721017,-31.0
2023-08-11 17:06:06.728706,-48.0
2023-08-11 17:06:06.736396,-58.0
2023-08-11 17:06:06.744085,-62.0
2023-08-11 17:06:06.751774,-58.0
2023-08-11 17:06:06.759464,-38.0
2023-08-11 17:06:06.767153,-24.0
2023-08-11 17:06:06.774842,-29.0
2023-08-11 17:06:06.782532,-24.0
2023-08-11 17:06:06.790221,-4.0
2023-08-11 17:06:06.797911,-2.0
2023-08-11 17:06:06.805600,-9.0
2023-08-11 17:06:06.813289,-9.0
2023-08-11 17:06:06.820979,-9.0
2023-08-11 17:06:06.828668,-14.0
2023-08-11 17:06:06.836357,-16.0
2023-08-11 17:06:06.844047,-2.0
2023-08-11 17:06:06.851736,16.0
2023-08-11 17:06:06.859426,-43.0
2023-08-11 17:06:06.867115,-357.0
2023-08-11 17:06:06.874804,-901.0
2023-08-11 17:06:06.882494,-1191.0
2023-08-11 17:06:06.890183,-787.0
2023-08-11 17:06:06.897872,33.0
2023-08-11 17:06:06.905562,471.0
2023-08-11 17:06:06.913251,273.0
2023-08-11 17:06:06.920941,79.0
2023-08-11 17:06:06.928630,116.0
2023-08-11 17:06:06.936319,72.0
2023-08-11 17:06:06.944009,16.0
2023-08-11 17:06:06.951698,41.0
2023-08-11 17:06:06.959388,31.0
2023-08-11 17:06:06.967077,2.0
2023-08-11 17:06:06.974766,7.0
2023-08-11 17:06:06.982456,4.0
2023-08-11 17:06:06.990145,-7.0
2023-08-11 17:06:06.997834,-14.0
2023-08-11 17:06:07.005524,-24.0
2023-08-11 17:06:07.013213,-38.0
2023-08-11 17:06:07.020903,-58.0
2023-08-11 17:06:07.028592,-82.0
2023-08-11 17:06:07.036281,-108.0
2023-08-11 17:06:07.043971,-137.0
2023-08-11 17:06:07.051660,-181.0
2023-08-11 17:06:07.059349,-222.0
2023-08-11 17:06:07.067039,-248.0
2023-08-11 17:06:07.074728,-268.0
2023-08-11 17:06:07.082418,-277.0
2023-08-11 17:06:07.090107,-277.0
2023-08-11 17:06:07.097796,-265.0
2023-08-11 17:06:07.105486,-224.0
2023-08-11 17:06:07.113175,-159.0
2023-08-11 17:06:07.120864,-91.0
2023-08-11 17:06:07.128554,-33.0
2023-08-11 17:06:07.136243,9.0
2023-08-11 17:06:07.143933,38.0
2023-08-11 17:06:07.151622,65.0
2023-08-11 17:06:07.159311,79.0
2023-08-11 17:06:07.167001,74.0
2023-08-11 17:06:07.174690,70.0
2023-08-11 17:06:07.182379,65.0
2023-08-11 17:06:07.190069,58.0
2023-08-11 17:06:07.197758,53.0
2023-08-11 17:06:07.205448,53.0
2023-08-11 17:06:07.213137,48.0
2023-08-11 17:06:07.220826,36.0
2023-08-11 17:06:07.228516,26.0
2023-08-11 17:06:07.236205,26.0
2023-08-11 17:06:07.243894,26.0
2023-08-11 17:06:07.251584,16.0
2023-08-11 17:06:07.259273,9.0
2023-08-11 17:06:07.266963,7.0
2023-08-11 17:06:07.274652,0.0
2023-08-11 17:06:07.282341,-7.0
2023-08-11 17:06:07.290031,-9.0
2023-08-11 17:06:07.297720,-12.0
2023-08-11 17:06:07.305409,-16.0
2023-08-11 17:06:07.313099,-14.0
2023-08-11 17:06:07.320788,-16.0
2023-08-11 17:06:07.328478,-16.0
2023-08-11 17:06:07.336167,-14.0
2023-08-11 17:06:07.343856,-14.0
2023-08-11 17:06:07.351546,-16.0
2023-08-11 17:06:07.359235,-16.0
2023-08-11 17:06:07.366924,-16.0
2023-08-11 17:06:07.374614,-14.0
2023-08-11 17:06:07.382303,-14.0
2023-08-11 17:06:07.389993,-14.0
2023-08-11 17:06:07.397682,-19.0
2023-08-11 17:06:07.405371,-36.0
2023-08-11 17:06:07.413061,-50.0
2023-08-11 17:06:07.420750,-60.0
2023-08-11 17:06:07.428440,-72.0
2023-08-11 17:06:07.436129,-67.0
2023-08-11 17:06:07.443818,-43.0
2023-08-11 17:06:07.451508,-33.0
2023-08-11 17:06:07.459197,-36.0
2023-08-11 17:06:07.466886,-29.0
2023-08-11 17:06:07.474576,-9.0
2023-08-11 17:06:07.482265,-4.0
2023-08-11 17:06:07.489955,-12.0
2023-08-11 17:06:07.497644,-14.0
2023-08-11 17:06:07.505333,-16.0
2023-08-11 17:06:07.513023,-19.0
2023-08-11 17:06:07.520712,-24.0
2023-08-11 17:06:07.528401,-14.0
2023-08-11 17:06:07.536091,7.0
2023-08-11 17:06:07.543780,-41.0
2023-08-11 17:06:07.551470,-328.0
2023-08-11 17:06:07.559159,-853.0
2023-08-11 17:06:07.566848,-1145.0
2023-08-11 17:06:07.574538,-763.0
2023-08-11 17:06:07.582227,14.0
2023-08-11 17:06:07.589916,425.0
2023-08-11 17:06:07.597606,239.0
2023-08-11 17:06:07.605295,55.0
2023-08-11 17:06:07.612985,87.0
2023-08-11 17:06:07.620674,55.0
2023-08-11 17:06:07.628363,0.0
2023-08-11 17:06:07.636053,19.0
2023-08-11 17:06:07.643742,24.0
2023-08-11 17:06:07.651431,2.0
2023-08-11 17:06:07.659121,-2.0
2023-08-11 17:06:07.666810,-4.0
2023-08-11 17:06:07.674500,-14.0
2023-08-11 17:06:07.682189,-26.0
2023-08-11 17:06:07.689878,-38.0
2023-08-11 17:06:07.697568,-55.0
2023-08-11 17:06:07.705257,-70.0
2023-08-11 17:06:07.712946,-89.0
2023-08-11 17:06:07.720636,-116.0
2023-08-11 17:06:07.728325,-145.0
2023-08-11 17:06:07.736015,-178.0
2023-08-11 17:06:07.743704,-212.0
2023-08-11 17:06:07.751393,-246.0
2023-08-11 17:06:07.759083,-275.0
2023-08-11 17:06:07.766772,-294.0
2023-08-11 17:06:07.774461,-297.0
2023-08-11 17:06:07.782151,-280.0
2023-08-11 17:06:07.789840,-246.0
2023-08-11 17:06:07.797530,-193.0
2023-08-11 17:06:07.805219,-123.0
2023-08-11 17:06:07.812908,-62.0
2023-08-11 17:06:07.820598,-14.0
2023-08-11 17:06:07.828287,21.0
2023-08-11 17:06:07.835976,41.0
2023-08-11 17:06:07.843666,48.0
2023-08-11 17:06:07.851355,50.0
2023-08-11 17:06:07.859045,50.0
2023-08-11 17:06:07.866734,50.0
2023-08-11 17:06:07.874423,53.0
2023-08-11 17:06:07.882113,48.0
2023-08-11 17:06:07.889802,41.0
2023-08-11 17:06:07.897492,38.0
2023-08-11 17:06:07.905181,36.0
2023-08-11 17:06:07.912870,36.0
2023-08-11 17:06:07.920560,33.0
2023-08-11 17:06:07.928249,24.0
2023-08-11 17:06:07.935938,14.0
2023-08-11 17:06:07.943628,12.0
2023-08-11 17:06:07.951317,4.0
2023-08-11 17:06:07.959007,0.0
2023-08-11 17:06:07.966696,-2.0
2023-08-11 17:06:07.974385,-4.0
2023-08-11 17:06:07.982075,-2.0
2023-08-11 17:06:07.989764,-7.0
2023-08-11 17:06:07.997453,-12.0
2023-08-11 17:06:08.005143,-14.0
2023-08-11 17:06:08.012832,-16.0
2023-08-11 17:06:08.020522,-19.0
2023-08-11 17:06:08.028211,-19.0
2023-08-11 17:06:08.035900,-19.0
2023-08-11 17:06:08.043590,-19.0
2023-08-11 17:06:08.051279,-19.0
2023-08-11 17:06:08.058968,-16.0
2023-08-11 17:06:08.066658,-14.0
2023-08-11 17:06:08.074347,-16.0
2023-08-11 17:06:08.082037,-21.0
2023-08-11 17:06:08.089726,-26.0
2023-08-11 17:06:08.097415,-41.0
2023-08-11 17:06:08.105105,-55.0
2023-08-11 17:06:08.112794,-65.0
2023-08-11 17:06:08.120483,-72.0
2023-08-11 17:06:08.128173,-62.0
2023-08-11 17:06:08.135862,-38.0
2023-08-11 17:06:08.143552,-31.0
2023-08-11 17:06:08.151241,-38.0
2023-08-11 17:06:08.158930,-26.0
2023-08-11 17:06:08.166620,-9.0
2023-08-11 17:06:08.174309,-12.0
2023-08-11 17:06:08.181998,-14.0
2023-08-11 17:06:08.189688,-16.0
2023-08-11 17:06:08.197377,-24.0
2023-08-11 17:06:08.205067,-31.0
2023-08-11 17:06:08.212756,-31.0
2023-08-11 17:06:08.220445,-16.0
2023-08-11 17:06:08.228135,7.0
2023-08-11 17:06:08.235824,-33.0
2023-08-11 17:06:08.243513,-311.0
2023-08-11 17:06:08.251203,-826.0
2023-08-11 17:06:08.258892,-1106.0
2023-08-11 17:06:08.266582,-725.0
2023-08-11 17:06:08.274271,31.0
2023-08-11 17:06:08.281960,413.0
2023-08-11 17:06:08.289650,224.0
2023-08-11 17:06:08.297339,41.0
2023-08-11 17:06:08.305028,62.0
2023-08-11 17:06:08.312718,33.0
2023-08-11 17:06:08.320407,-2.0
2023-08-11 17:06:08.328097,14.0
2023-08-11 17:06:08.335786,2.0
2023-08-11 17:06:08.343475,-24.0
2023-08-11 17:06:08.351165,-29.0
2023-08-11 17:06:08.358854,-33.0
2023-08-11 17:06:08.366544,-43.0
2023-08-11 17:06:08.374233,-48.0
2023-08-11 17:06:08.381922,-58.0
2023-08-11 17:06:08.389612,-72.0
2023-08-11 17:06:08.397301,-84.0
2023-08-11 17:06:08.404990,-101.0
2023-08-11 17:06:08.412680,-128.0
2023-08-11 17:06:08.420369,-154.0
2023-08-11 17:06:08.428059,-186.0
2023-08-11 17:06:08.435748,-219.0
2023-08-11 17:06:08.443437,-251.0
2023-08-11 17:06:08.451127,-270.0
2023-08-11 17:06:08.458816,-282.0
2023-08-11 17:06:08.466505,-285.0
2023-08-11 17:06:08.474195,-273.0
2023-08-11 17:06:08.481884,-239.0
2023-08-11 17:06:08.489574,-183.0
2023-08-11 17:06:08.497263,-120.0
2023-08-11 17:06:08.504952,-60.0
2023-08-11 17:06:08.512642,-7.0
2023-08-11 17:06:08.520331,29.0
2023-08-11 17:06:08.528020,43.0
2023-08-11 17:06:08.535710,53.0
2023-08-11 17:06:08.543399,62.0
2023-08-11 17:06:08.551089,62.0
2023-08-11 17:06:08.558778,55.0
2023-08-11 17:06:08.566467,58.0
2023-08-11 17:06:08.574157,55.0
2023-08-11 17:06:08.581846,48.0
2023-08-11 17:06:08.589535,45.0
2023-08-11 17:06:08.597225,43.0
2023-08-11 17:06:08.604914,36.0
2023-08-11 17:06:08.612604,33.0
2023-08-11 17:06:08.620293,29.0
2023-08-11 17:06:08.627982,24.0
2023-08-11 17:06:08.635672,24.0
2023-08-11 17:06:08.643361,24.0
2023-08-11 17:06:08.651050,16.0
2023-08-11 17:06:08.658740,12.0
2023-08-11 17:06:08.666429,9.0
2023-08-11 17:06:08.674119,9.0
2023-08-11 17:06:08.681808,9.0
2023-08-11 17:06:08.689497,4.0
2023-08-11 17:06:08.697187,-4.0
2023-08-11 17:06:08.704876,-12.0
2023-08-11 17:06:08.712565,-16.0
2023-08-11 17:06:08.720255,-14.0
2023-08-11 17:06:08.727944,-12.0
2023-08-11 17:06:08.735634,-9.0
2023-08-11 17:06:08.743323,-9.0
2023-08-11 17:06:08.751012,-16.0
2023-08-11 17:06:08.758702,-21.0
2023-08-11 17:06:08.766391,-16.0
2023-08-11 17:06:08.774081,-9.0
2023-08-11 17:06:08.781770,-4.0
2023-08-11 17:06:08.789459,-16.0
2023-08-11 17:06:08.797149,-43.0
2023-08-11 17:06:08.804838,-58.0
2023-08-11 17:06:08.812527,-65.0
2023-08-11 17:06:08.820217,-67.0
2023-08-11 17:06:08.827906,-55.0
2023-08-11 17:06:08.835596,-33.0
2023-08-11 17:06:08.843285,-24.0
2023-08-11 17:06:08.850974,-29.0
2023-08-11 17:06:08.858664,-16.0
2023-08-11 17:06:08.866353,2.0
2023-08-11 17:06:08.874042,2.0
2023-08-11 17:06:08.881732,-9.0
2023-08-11 17:06:08.889421,-21.0
2023-08-11 17:06:08.897111,-29.0
2023-08-11 17:06:08.904800,-31.0
2023-08-11 17:06:08.912489,-24.0
2023-08-11 17:06:08.920179,-7.0
2023-08-11 17:06:08.927868,4.0
2023-08-11 17:06:08.935557,-113.0
2023-08-11 17:06:08.943247,-509.0
2023-08-11 17:06:08.950936,-1005.0
2023-08-11 17:06:08.958626,-1034.0
2023-08-11 17:06:08.966315,-415.0
2023-08-11 17:06:08.974004,265.0
2023-08-11 17:06:08.981694,391.0
2023-08-11 17:06:08.989383,147.0
2023-08-11 17:06:08.997072,62.0
2023-08-11 17:06:09.004762,87.0
2023-08-11 17:06:09.012451,36.0
2023-08-11 17:06:09.020141,14.0
2023-08-11 17:06:09.027830,21.0
2023-08-11 17:06:09.035519,4.0
2023-08-11 17:06:09.043209,-7.0
2023-08-11 17:06:09.050898,-4.0
2023-08-11 17:06:09.058587,-16.0
2023-08-11 17:06:09.066277,-29.0
2023-08-11 17:06:09.073966,-33.0
2023-08-11 17:06:09.081656,-43.0
2023-08-11 17:06:09.089345,-58.0
2023-08-11 17:06:09.097034,-70.0
2023-08-11 17:06:09.104724,-94.0
2023-08-11 17:06:09.112413,-123.0
2023-08-11 17:06:09.120102,-159.0
2023-08-11 17:06:09.127792,-198.0
2023-08-11 17:06:09.135481,-227.0
2023-08-11 17:06:09.143171,-246.0
2023-08-11 17:06:09.150860,-263.0
2023-08-11 17:06:09.158549,-273.0
2023-08-11 17:06:09.166239,-270.0
2023-08-11 17:06:09.173928,-253.0
2023-08-11 17:06:09.181617,-210.0
2023-08-11 17:06:09.189307,-149.0
2023-08-11 17:06:09.196996,-89.0
2023-08-11 17:06:09.204686,-45.0
2023-08-11 17:06:09.212375,-2.0
2023-08-11 17:06:09.220064,33.0
2023-08-11 17:06:09.227754,53.0
2023-08-11 17:06:09.235443,53.0
2023-08-11 17:06:09.243133,55.0
2023-08-11 17:06:09.250822,60.0
2023-08-11 17:06:09.258511,58.0
2023-08-11 17:06:09.266201,48.0
2023-08-11 17:06:09.273890,36.0
2023-08-11 17:06:09.281579,29.0
2023-08-11 17:06:09.289269,33.0
2023-08-11 17:06:09.296958,33.0
2023-08-11 17:06:09.304648,26.0
2023-08-11 17:06:09.312337,24.0
2023-08-11 17:06:09.320026,16.0
2023-08-11 17:06:09.327716,14.0
2023-08-11 17:06:09.335405,14.0
2023-08-11 17:06:09.343094,4.0
2023-08-11 17:06:09.350784,2.0
2023-08-11 17:06:09.358473,12.0
2023-08-11 17:06:09.366163,7.0
2023-08-11 17:06:09.373852,-14.0
2023-08-11 17:06:09.381541,-19.0
2023-08-11 17:06:09.389231,-14.0
2023-08-11 17:06:09.396920,-21.0
2023-08-11 17:06:09.404609,-16.0
2023-08-11 17:06:09.412299,-9.0
2023-08-11 17:06:09.419988,-14.0
2023-08-11 17:06:09.427678,-24.0
2023-08-11 17:06:09.435367,-31.0
2023-08-11 17:06:09.443056,-16.0
2023-08-11 17:06:09.450746,-2.0
2023-08-11 17:06:09.458435,-2.0
2023-08-11 17:06:09.466124,2.0
2023-08-11 17:06:09.473814,-9.0
2023-08-11 17:06:09.481503,-38.0
2023-08-11 17:06:09.489193,-58.0
2023-08-11 17:06:09.496882,-65.0
2023-08-11 17:06:09.504571,-67.0
2023-08-11 17:06:09.512261,-72.0
2023-08-11 17:06:09.519950,-84.0
2023-08-11 17:06:09.527639,-84.0
2023-08-11 17:06:09.535329,-50.0
2023-08-11 17:06:09.543018,-36.0
2023-08-11 17:06:09.550708,-43.0
2023-08-11 17:06:09.558397,-29.0
2023-08-11 17:06:09.566086,-12.0
2023-08-11 17:06:09.573776,-26.0
2023-08-11 17:06:09.581465,-31.0
2023-08-11 17:06:09.589154,-21.0
2023-08-11 17:06:09.596844,-29.0
2023-08-11 17:06:09.604533,-41.0
2023-08-11 17:06:09.612223,-24.0
2023-08-11 17:06:09.619912,2.0
2023-08-11 17:06:09.627601,-14.0
2023-08-11 17:06:09.635291,-205.0
2023-08-11 17:06:09.642980,-686.0
2023-08-11 17:06:09.650669,-1119.0
2023-08-11 17:06:09.658359,-932.0
2023-08-11 17:06:09.666048,-198.0
2023-08-11 17:06:09.673738,362.0
2023-08-11 17:06:09.681427,309.0
2023-08-11 17:06:09.689116,89.0
2023-08-11 17:06:09.696806,87.0
2023-08-11 17:06:09.704495,74.0
2023-08-11 17:06:09.712185,2.0
2023-08-11 17:06:09.719874,12.0
2023-08-11 17:06:09.727563,26.0
2023-08-11 17:06:09.735253,-7.0
2023-08-11 17:06:09.742942,-24.0
2023-08-11 17:06:09.750631,-14.0
2023-08-11 17:06:09.758321,-16.0
2023-08-11 17:06:09.766010,-36.0
2023-08-11 17:06:09.773700,-48.0
2023-08-11 17:06:09.781389,-53.0
2023-08-11 17:06:09.789078,-72.0
2023-08-11 17:06:09.796768,-101.0
2023-08-11 17:06:09.804457,-125.0
2023-08-11 17:06:09.812146,-147.0
2023-08-11 17:06:09.819836,-181.0
2023-08-11 17:06:09.827525,-215.0
2023-08-11 17:06:09.835215,-246.0
2023-08-11 17:06:09.842904,-273.0
2023-08-11 17:06:09.850593,-282.0
2023-08-11 17:06:09.858283,-280.0
2023-08-11 17:06:09.865972,-270.0
2023-08-11 17:06:09.873661,-244.0
2023-08-11 17:06:09.881351,-193.0
2023-08-11 17:06:09.889040,-130.0
2023-08-11 17:06:09.896730,-62.0
2023-08-11 17:06:09.904419,-7.0
2023-08-11 17:06:09.912108,26.0
2023-08-11 17:06:09.919798,48.0
2023-08-11 17:06:09.927487,60.0
2023-08-11 17:06:09.935176,53.0
2023-08-11 17:06:09.942866,58.0
2023-08-11 17:06:09.950555,79.0
2023-08-11 17:06:09.958245,74.0
2023-08-11 17:06:09.965934,58.0
2023-08-11 17:06:09.973623,48.0
2023-08-11 17:06:09.981313,38.0
2023-08-11 17:06:09.989002,33.0
2023-08-11 17:06:09.996691,31.0
2023-08-11 17:06:10.004381,29.0
2023-08-11 17:06:10.012070,21.0
2023-08-11 17:06:10.019760,7.0
2023-08-11 17:06:10.027449,4.0
2023-08-11 17:06:10.035138,7.0
2023-08-11 17:06:10.042828,-4.0
2023-08-11 17:06:10.050517,-16.0
2023-08-11 17:06:10.058206,-19.0
2023-08-11 17:06:10.065896,-26.0
2023-08-11 17:06:10.073585,-31.0
2023-08-11 17:06:10.081275,-33.0
2023-08-11 17:06:10.088964,-36.0
2023-08-11 17:06:10.096653,-29.0
2023-08-11 17:06:10.104343,-36.0
2023-08-11 17:06:10.112032,-53.0
2023-08-11 17:06:10.119722,-41.0
2023-08-11 17:06:10.127411,-16.0
2023-08-11 17:06:10.135100,-19.0
2023-08-11 17:06:10.142790,-19.0
2023-08-11 17:06:10.150479,-16.0
2023-08-11 17:06:10.158168,-33.0
2023-08-11 17:06:10.165858,-43.0
2023-08-11 17:06:10.173547,-41.0
2023-08-11 17:06:10.181237,-55.0
2023-08-11 17:06:10.188926,-70.0
2023-08-11 17:06:10.196615,-70.0
2023-08-11 17:06:10.204305,-72.0
2023-08-11 17:06:10.211994,-53.0
2023-08-11 17:06:10.219683,-31.0
2023-08-11 17:06:10.227373,-33.0
2023-08-11 17:06:10.235062,-33.0
2023-08-11 17:06:10.242752,-21.0
2023-08-11 17:06:10.250441,-19.0
2023-08-11 17:06:10.258130,-24.0
2023-08-11 17:06:10.265820,-19.0
2023-08-11 17:06:10.273509,-19.0
2023-08-11 17:06:10.281198,-26.0
2023-08-11 17:06:10.288888,-21.0
2023-08-11 17:06:10.296577,-2.0
2023-08-11 17:06:10.304267,-19.0
2023-08-11 17:06:10.311956,-193.0
2023-08-11 17:06:10.319645,-630.0
2023-08-11 17:06:10.327335,-1046.0
2023-08-11 17:06:10.335024,-889.0
2023-08-11 17:06:10.342713,-188.0
2023-08-11 17:06:10.350403,331.0
2023-08-11 17:06:10.358092,273.0
2023-08-11 17:06:10.365782,77.0
2023-08-11 17:06:10.373471,84.0
2023-08-11 17:06:10.381160,79.0
2023-08-11 17:06:10.388850,31.0
2023-08-11 17:06:10.396539,38.0
2023-08-11 17:06:10.404228,36.0
2023-08-11 17:06:10.411918,14.0
2023-08-11 17:06:10.419607,16.0
2023-08-11 17:06:10.427297,9.0
2023-08-11 17:06:10.434986,0.0
2023-08-11 17:06:10.442675,-12.0
2023-08-11 17:06:10.450365,-26.0
2023-08-11 17:06:10.458054,-21.0
2023-08-11 17:06:10.465743,-26.0
2023-08-11 17:06:10.473433,-60.0
2023-08-11 17:06:10.481122,-89.0
2023-08-11 17:06:10.488812,-116.0
2023-08-11 17:06:10.496501,-142.0
2023-08-11 17:06:10.504190,-176.0
2023-08-11 17:06:10.511880,-207.0
2023-08-11 17:06:10.519569,-224.0
2023-08-11 17:06:10.527258,-239.0
2023-08-11 17:06:10.534948,-251.0
2023-08-11 17:06:10.542637,-232.0
2023-08-11 17:06:10.550327,-203.0
2023-08-11 17:06:10.558016,-174.0
2023-08-11 17:06:10.565705,-103.0
2023-08-11 17:06:10.573395,-29.0
2023-08-11 17:06:10.581084,12.0
2023-08-11 17:06:10.588774,48.0
2023-08-11 17:06:10.596463,70.0
2023-08-11 17:06:10.604152,62.0
2023-08-11 17:06:10.611842,50.0
2023-08-11 17:06:10.619531,53.0
2023-08-11 17:06:10.627220,62.0
2023-08-11 17:06:10.634910,70.0
2023-08-11 17:06:10.642599,70.0
2023-08-11 17:06:10.650289,67.0
2023-08-11 17:06:10.657978,58.0
2023-08-11 17:06:10.665667,50.0
2023-08-11 17:06:10.673357,48.0
2023-08-11 17:06:10.681046,38.0
2023-08-11 17:06:10.688735,29.0
2023-08-11 17:06:10.696425,26.0
2023-08-11 17:06:10.704114,16.0
2023-08-11 17:06:10.711804,2.0
2023-08-11 17:06:10.719493,0.0
2023-08-11 17:06:10.727182,4.0
2023-08-11 17:06:10.734872,0.0
2023-08-11 17:06:10.742561,-12.0
2023-08-11 17:06:10.750250,-12.0
2023-08-11 17:06:10.757940,-2.0
2023-08-11 17:06:10.765629,-2.0
2023-08-11 17:06:10.773319,-16.0
2023-08-11 17:06:10.781008,-21.0
2023-08-11 17:06:10.788697,-12.0
2023-08-11 17:06:10.796387,4.0
2023-08-11 17:06:10.804076,2.0
2023-08-11 17:06:10.811765,-16.0
2023-08-11 17:06:10.819455,-24.0
2023-08-11 17:06:10.827144,-14.0
2023-08-11 17:06:10.834834,-19.0
2023-08-11 17:06:10.842523,-31.0
2023-08-11 17:06:10.850212,-45.0
2023-08-11 17:06:10.857902,-60.0
2023-08-11 17:06:10.865591,-62.0
2023-08-11 17:06:10.873280,-58.0
2023-08-11 17:06:10.880970,-48.0
2023-08-11 17:06:10.888659,-31.0
2023-08-11 17:06:10.896349,-19.0
2023-08-11 17:06:10.904038,-16.0
2023-08-11 17:06:10.911727,-2.0
2023-08-11 17:06:10.919417,9.0
2023-08-11 17:06:10.927106,-4.0
2023-08-11 17:06:10.934795,-24.0
2023-08-11 17:06:10.942485,-19.0
2023-08-11 17:06:10.950174,-12.0
2023-08-11 17:06:10.957864,-14.0
2023-08-11 17:06:10.965553,-4.0
2023-08-11 17:06:10.973242,4.0
2023-08-11 17:06:10.980932,-84.0
2023-08-11 17:06:10.988621,-418.0
2023-08-11 17:06:10.996310,-877.0
2023-08-11 17:06:11.004000,-954.0
2023-08-11 17:06:11.011689,-425.0
2023-08-11 17:06:11.019379,200.0
2023-08-11 17:06:11.027068,355.0
2023-08-11 17:06:11.034757,161.0
2023-08-11 17:06:11.042447,70.0
2023-08-11 17:06:11.050136,70.0
2023-08-11 17:06:11.057826,24.0
2023-08-11 17:06:11.065515,12.0
2023-08-11 17:06:11.073204,19.0
2023-08-11 17:06:11.080894,-4.0
2023-08-11 17:06:11.088583,-16.0
2023-08-11 17:06:11.096272,-9.0
2023-08-11 17:06:11.103962,-14.0
2023-08-11 17:06:11.111651,-36.0
2023-08-11 17:06:11.119341,-48.0
2023-08-11 17:06:11.127030,-45.0
2023-08-11 17:06:11.134719,-60.0
2023-08-11 17:06:11.142409,-82.0
2023-08-11 17:06:11.150098,-99.0
2023-08-11 17:06:11.157787,-123.0
2023-08-11 17:06:11.165477,-157.0
2023-08-11 17:06:11.173166,-190.0
2023-08-11 17:06:11.180856,-222.0
2023-08-11 17:06:11.188545,-256.0
2023-08-11 17:06:11.196234,-277.0
2023-08-11 17:06:11.203924,-282.0
2023-08-11 17:06:11.211613,-285.0
2023-08-11 17:06:11.219302,-273.0
2023-08-11 17:06:11.226992,-219.0
2023-08-11 17:06:11.234681,-142.0
2023-08-11 17:06:11.242371,-96.0
2023-08-11 17:06:11.250060,-62.0
2023-08-11 17:06:11.257749,-12.0
2023-08-11 17:06:11.265439,14.0
2023-08-11 17:06:11.273128,21.0
2023-08-11 17:06:11.280817,48.0
2023-08-11 17:06:11.288507,62.0
2023-08-11 17:06:11.296196,45.0
2023-08-11 17:06:11.303886,45.0
2023-08-11 17:06:11.311575,60.0
2023-08-11 17:06:11.319264,55.0
2023-08-11 17:06:11.326954,41.0
2023-08-11 17:06:11.334643,36.0
2023-08-11 17:06:11.342332,36.0
2023-08-11 17:06:11.350022,36.0
2023-08-11 17:06:11.357711,36.0
2023-08-11 17:06:11.365401,21.0
2023-08-11 17:06:11.373090,9.0
2023-08-11 17:06:11.380779,4.0
2023-08-11 17:06:11.388469,4.0
2023-08-11 17:06:11.396158,2.0
2023-08-11 17:06:11.403847,2.0
2023-08-11 17:06:11.411537,0.0
2023-08-11 17:06:11.419226,-9.0
2023-08-11 17:06:11.426916,-16.0
2023-08-11 17:06:11.434605,-12.0
2023-08-11 17:06:11.442294,-14.0
2023-08-11 17:06:11.449984,-21.0
2023-08-11 17:06:11.457673,-9.0
2023-08-11 17:06:11.465362,-7.0
2023-08-11 17:06:11.473052,-24.0
2023-08-11 17:06:11.480741,-14.0
2023-08-11 17:06:11.488431,7.0
2023-08-11 17:06:11.496120,9.0
2023-08-11 17:06:11.503809,-19.0
2023-08-11 17:06:11.511499,-48.0
2023-08-11 17:06:11.519188,-50.0
2023-08-11 17:06:11.526878,-48.0
2023-08-11 17:06:11.534567,-45.0
2023-08-11 17:06:11.542256,-38.0
2023-08-11 17:06:11.549946,-26.0
2023-08-11 17:06:11.557635,-21.0
2023-08-11 17:06:11.565324,-14.0
2023-08-11 17:06:11.573014,4.0
2023-08-11 17:06:11.580703,14.0
2023-08-11 17:06:11.588393,4.0
2023-08-11 17:06:11.596082,-7.0
2023-08-11 17:06:11.603771,-7.0
2023-08-11 17:06:11.611461,-4.0
2023-08-11 17:06:11.619150,-7.0
2023-08-11 17:06:11.626839,-14.0
2023-08-11 17:06:11.634529,-4.0
2023-08-11 17:06:11.642218,-16.0
2023-08-11 17:06:11.649908,-205.0
2023-08-11 17:06:11.657597,-667.0
2023-08-11 17:06:11.665286,-1082.0
2023-08-11 17:06:11.672976,-916.0
2023-08-11 17:06:11.680665,-210.0
2023-08-11 17:06:11.688354,355.0
2023-08-11 17:06:11.696044,338.0
2023-08-11 17:06:11.703733,111.0
2023-08-11 17:06:11.711423,72.0
2023-08-11 17:06:11.719112,50.0
2023-08-11 17:06:11.726801,-14.0
2023-08-11 17:06:11.734491,-2.0
2023-08-11 17:06:11.742180,14.0
2023-08-11 17:06:11.749869,-12.0
2023-08-11 17:06:11.757559,-29.0
2023-08-11 17:06:11.765248,-31.0
2023-08-11 17:06:11.772938,-45.0
2023-08-11 17:06:11.780627,-55.0
2023-08-11 17:06:11.788316,-55.0
2023-08-11 17:06:11.796006,-67.0
2023-08-11 17:06:11.803695,-91.0
2023-08-11 17:06:11.811384,-111.0
2023-08-11 17:06:11.819074,-128.0
2023-08-11 17:06:11.826763,-147.0
2023-08-11 17:06:11.834453,-176.0
2023-08-11 17:06:11.842142,-212.0
2023-08-11 17:06:11.849831,-256.0
2023-08-11 17:06:11.857521,-292.0
2023-08-11 17:06:11.865210,-302.0
2023-08-11 17:06:11.872899,-297.0
2023-08-11 17:06:11.880589,-285.0
2023-08-11 17:06:11.888278,-261.0
2023-08-11 17:06:11.895968,-205.0
2023-08-11 17:06:11.903657,-125.0
2023-08-11 17:06:11.911346,-60.0
2023-08-11 17:06:11.919036,-21.0
2023-08-11 17:06:11.926725,16.0
2023-08-11 17:06:11.934415,45.0
2023-08-11 17:06:11.942104,45.0
2023-08-11 17:06:11.949793,50.0
2023-08-11 17:06:11.957483,60.0
2023-08-11 17:06:11.965172,45.0
2023-08-11 17:06:11.972861,36.0
2023-08-11 17:06:11.980551,41.0
2023-08-11 17:06:11.988240,41.0
2023-08-11 17:06:11.995930,41.0
2023-08-11 17:06:12.003619,41.0
2023-08-11 17:06:12.011308,36.0
2023-08-11 17:06:12.018998,29.0
2023-08-11 17:06:12.026687,21.0
2023-08-11 17:06:12.034376,14.0
2023-08-11 17:06:12.042066,7.0
2023-08-11 17:06:12.049755,0.0
2023-08-11 17:06:12.057445,0.0
2023-08-11 17:06:12.065134,2.0
2023-08-11 17:06:12.072823,-4.0
2023-08-11 17:06:12.080513,-14.0
2023-08-11 17:06:12.088202,-14.0
2023-08-11 17:06:12.095891,-9.0
2023-08-11 17:06:12.103581,-16.0
2023-08-11 17:06:12.111270,-33.0
2023-08-11 17:06:12.118960,-36.0
2023-08-11 17:06:12.126649,-19.0
2023-08-11 17:06:12.134338,-16.0
2023-08-11 17:06:12.142028,-29.0
2023-08-11 17:06:12.149717,-24.0
2023-08-11 17:06:12.157406,-14.0
2023-08-11 17:06:12.165096,-26.0
2023-08-11 17:06:12.172785,-45.0
2023-08-11 17:06:12.180475,-58.0
2023-08-11 17:06:12.188164,-67.0
2023-08-11 17:06:12.195853,-62.0
2023-08-11 17:06:12.203543,-43.0
2023-08-11 17:06:12.211232,-41.0
2023-08-11 17:06:12.218921,-48.0
2023-08-11 17:06:12.226611,-38.0
2023-08-11 17:06:12.234300,-26.0
2023-08-11 17:06:12.241990,-26.0
2023-08-11 17:06:12.249679,-26.0
2023-08-11 17:06:12.257368,-24.0
2023-08-11 17:06:12.265058,-41.0
2023-08-11 17:06:12.272747,-50.0
2023-08-11 17:06:12.280436,-43.0
2023-08-11 17:06:12.288126,-31.0
2023-08-11 17:06:12.295815,-21.0
2023-08-11 17:06:12.303505,-111.0
2023-08-11 17:06:12.311194,-471.0
2023-08-11 17:06:12.318883,-1032.0
2023-08-11 17:06:12.326573,-1271.0
2023-08-11 17:06:12.334262,-790.0
2023-08-11 17:06:12.341951,72.0
2023-08-11 17:06:12.349641,478.0
2023-08-11 17:06:12.357330,229.0
2023-08-11 17:06:12.365020,50.0
2023-08-11 17:06:12.372709,111.0
2023-08-11 17:06:12.380398,60.0
2023-08-11 17:06:12.388088,0.0
2023-08-11 17:06:12.395777,33.0
2023-08-11 17:06:12.403467,31.0
2023-08-11 17:06:12.411156,-2.0
2023-08-11 17:06:12.418845,-7.0
2023-08-11 17:06:12.426535,-7.0
2023-08-11 17:06:12.434224,-24.0
2023-08-11 17:06:12.441913,-33.0
2023-08-11 17:06:12.449603,-45.0
2023-08-11 17:06:12.457292,-62.0
2023-08-11 17:06:12.464982,-70.0
2023-08-11 17:06:12.472671,-87.0
2023-08-11 17:06:12.480360,-118.0
2023-08-11 17:06:12.488050,-159.0
2023-08-11 17:06:12.495739,-195.0
2023-08-11 17:06:12.503428,-229.0
2023-08-11 17:06:12.511118,-253.0
2023-08-11 17:06:12.518807,-275.0
2023-08-11 17:06:12.526497,-285.0
2023-08-11 17:06:12.534186,-280.0
2023-08-11 17:06:12.541875,-263.0
2023-08-11 17:06:12.549565,-212.0
2023-08-11 17:06:12.557254,-130.0
2023-08-11 17:06:12.564943,-60.0
2023-08-11 17:06:12.572633,-16.0
2023-08-11 17:06:12.580322,21.0
2023-08-11 17:06:12.588012,58.0
2023-08-11 17:06:12.595701,72.0
2023-08-11 17:06:12.603390,74.0
2023-08-11 17:06:12.611080,77.0
2023-08-11 17:06:12.618769,72.0
2023-08-11 17:06:12.626458,55.0
2023-08-11 17:06:12.634148,45.0
2023-08-11 17:06:12.641837,55.0
2023-08-11 17:06:12.649527,62.0
2023-08-11 17:06:12.657216,58.0
2023-08-11 17:06:12.664905,58.0
2023-08-11 17:06:12.672595,48.0
2023-08-11 17:06:12.680284,21.0
2023-08-11 17:06:12.687973,21.0
2023-08-11 17:06:12.695663,31.0
2023-08-11 17:06:12.703352,16.0
2023-08-11 17:06:12.711042,2.0
2023-08-11 17:06:12.718731,-4.0
2023-08-11 17:06:12.726420,-12.0
2023-08-11 17:06:12.734110,-19.0
2023-08-11 17:06:12.741799,-21.0
2023-08-11 17:06:12.749488,-19.0
2023-08-11 17:06:12.757178,-21.0
2023-08-11 17:06:12.764867,-26.0
2023-08-11 17:06:12.772557,-19.0
2023-08-11 17:06:12.780246,-9.0
2023-08-11 17:06:12.787935,-14.0
2023-08-11 17:06:12.795625,-24.0
2023-08-11 17:06:12.803314,-24.0
2023-08-11 17:06:12.811003,-33.0
2023-08-11 17:06:12.818693,-43.0
2023-08-11 17:06:12.826382,-45.0
2023-08-11 17:06:12.834072,-62.0
2023-08-11 17:06:12.841761,-79.0
2023-08-11 17:06:12.849450,-65.0
2023-08-11 17:06:12.857140,-43.0
2023-08-11 17:06:12.864829,-41.0
2023-08-11 17:06:12.872519,-41.0
2023-08-11 17:06:12.880208,-36.0
2023-08-11 17:06:12.887897,-26.0
2023-08-11 17:06:12.895587,-9.0
2023-08-11 17:06:12.903276,-9.0
2023-08-11 17:06:12.910965,-24.0
2023-08-11 17:06:12.918655,-21.0
2023-08-11 17:06:12.926344,-14.0
2023-08-11 17:06:12.934034,-36.0
2023-08-11 17:06:12.941723,-43.0
2023-08-11 17:06:12.949412,-12.0
2023-08-11 17:06:12.957102,-111.0
2023-08-11 17:06:12.964791,-519.0
2023-08-11 17:06:12.972480,-1094.0
2023-08-11 17:06:12.980170,-1310.0
2023-08-11 17:06:12.987859,-775.0
2023-08-11 17:06:12.995549,142.0
2023-08-11 17:06:13.003238,519.0
2023-08-11 17:06:13.010927,224.0
2023-08-11 17:06:13.018617,58.0
2023-08-11 17:06:13.026306,128.0
2023-08-11 17:06:13.033995,65.0
2023-08-11 17:06:13.041685,14.0
2023-08-11 17:06:13.049374,50.0
2023-08-11 17:06:13.057064,45.0
2023-08-11 17:06:13.064753,19.0
2023-08-11 17:06:13.072442,12.0
2023-08-11 17:06:13.080132,2.0
2023-08-11 17:06:13.087821,-2.0
2023-08-11 17:06:13.095510,-9.0
2023-08-11 17:06:13.103200,-31.0
2023-08-11 17:06:13.110889,-41.0
2023-08-11 17:06:13.118579,-50.0
2023-08-11 17:06:13.126268,-87.0
2023-08-11 17:06:13.133957,-111.0
2023-08-11 17:06:13.141647,-120.0
2023-08-11 17:06:13.149336,-171.0
2023-08-11 17:06:13.157025,-232.0
2023-08-11 17:06:13.164715,-246.0
2023-08-11 17:06:13.172404,-253.0
2023-08-11 17:06:13.180094,-270.0
2023-08-11 17:06:13.187783,-256.0
2023-08-11 17:06:13.195472,-219.0
2023-08-11 17:06:13.203162,-183.0
2023-08-11 17:06:13.210851,-120.0
2023-08-11 17:06:13.218540,-36.0
2023-08-11 17:06:13.226230,16.0
2023-08-11 17:06:13.233919,38.0
2023-08-11 17:06:13.241609,55.0
2023-08-11 17:06:13.249298,77.0
2023-08-11 17:06:13.256987,91.0
2023-08-11 17:06:13.264677,74.0
2023-08-11 17:06:13.272366,62.0
2023-08-11 17:06:13.280056,70.0
2023-08-11 17:06:13.287745,74.0
2023-08-11 17:06:13.295434,62.0
2023-08-11 17:06:13.303124,53.0
2023-08-11 17:06:13.310813,58.0
2023-08-11 17:06:13.318502,60.0
2023-08-11 17:06:13.326192,45.0
2023-08-11 17:06:13.333881,31.0
2023-08-11 17:06:13.341571,31.0
2023-08-11 17:06:13.349260,21.0
2023-08-11 17:06:13.356949,14.0
2023-08-11 17:06:13.364639,12.0
2023-08-11 17:06:13.372328,-2.0
2023-08-11 17:06:13.380017,-4.0
2023-08-11 17:06:13.387707,-4.0
2023-08-11 17:06:13.395396,-21.0
2023-08-11 17:06:13.403086,-24.0
2023-08-11 17:06:13.410775,-14.0
2023-08-11 17:06:13.418464,-21.0
2023-08-11 17:06:13.426154,-33.0
2023-08-11 17:06:13.433843,-36.0
2023-08-11 17:06:13.441532,-31.0
2023-08-11 17:06:13.449222,-24.0
2023-08-11 17:06:13.456911,-31.0
2023-08-11 17:06:13.464601,-43.0
2023-08-11 17:06:13.472290,-48.0
2023-08-11 17:06:13.479979,-55.0
2023-08-11 17:06:13.487669,-67.0
2023-08-11 17:06:13.495358,-77.0
2023-08-11 17:06:13.503047,-70.0
2023-08-11 17:06:13.510737,-53.0
2023-08-11 17:06:13.518426,-48.0
2023-08-11 17:06:13.526116,-48.0
2023-08-11 17:06:13.533805,-36.0
2023-08-11 17:06:13.541494,-24.0
2023-08-11 17:06:13.549184,-24.0
2023-08-11 17:06:13.556873,-29.0
2023-08-11 17:06:13.564562,-31.0
2023-08-11 17:06:13.572252,-36.0
2023-08-11 17:06:13.579941,-41.0
2023-08-11 17:06:13.587631,-36.0
2023-08-11 17:06:13.595320,-16.0
2023-08-11 17:06:13.603009,-21.0
2023-08-11 17:06:13.610699,-212.0
2023-08-11 17:06:13.618388,-710.0
2023-08-11 17:06:13.626077,-1235.0
2023-08-11 17:06:13.633767,-1213.0
2023-08-11 17:06:13.641456,-473.0
2023-08-11 17:06:13.649146,333.0
2023-08-11 17:06:13.656835,418.0
2023-08-11 17:06:13.664524,91.0
2023-08-11 17:06:13.672214,43.0
2023-08-11 17:06:13.679903,101.0
2023-08-11 17:06:13.687592,36.0
2023-08-11 17:06:13.695282,14.0
2023-08-11 17:06:13.702971,41.0
2023-08-11 17:06:13.710661,21.0
2023-08-11 17:06:13.718350,2.0
2023-08-11 17:06:13.726039,2.0
2023-08-11 17:06:13.733729,-12.0
2023-08-11 17:06:13.741418,-29.0
2023-08-11 17:06:13.749108,-24.0
2023-08-11 17:06:13.756797,-31.0
2023-08-11 17:06:13.764486,-55.0
2023-08-11 17:06:13.772176,-74.0
2023-08-11 17:06:13.779865,-91.0
2023-08-11 17:06:13.787554,-118.0
2023-08-11 17:06:13.795244,-157.0
2023-08-11 17:06:13.802933,-190.0
2023-08-11 17:06:13.810623,-212.0
2023-08-11 17:06:13.818312,-234.0
2023-08-11 17:06:13.826001,-258.0
2023-08-11 17:06:13.833691,-270.0
2023-08-11 17:06:13.841380,-258.0
2023-08-11 17:06:13.849069,-217.0
2023-08-11 17:06:13.856759,-154.0
2023-08-11 17:06:13.864448,-79.0
2023-08-11 17:06:13.872138,-16.0
2023-08-11 17:06:13.879827,29.0
2023-08-11 17:06:13.887516,67.0
2023-08-11 17:06:13.895206,91.0
2023-08-11 17:06:13.902895,101.0
2023-08-11 17:06:13.910584,103.0
2023-08-11 17:06:13.918274,101.0
2023-08-11 17:06:13.925963,89.0
2023-08-11 17:06:13.933653,74.0
2023-08-11 17:06:13.941342,67.0
2023-08-11 17:06:13.949031,60.0
2023-08-11 17:06:13.956721,55.0
2023-08-11 17:06:13.964410,48.0
2023-08-11 17:06:13.972099,33.0
2023-08-11 17:06:13.979789,19.0
2023-08-11 17:06:13.987478,19.0
2023-08-11 17:06:13.995168,21.0
2023-08-11 17:06:14.002857,14.0
2023-08-11 17:06:14.010546,9.0
2023-08-11 17:06:14.018236,4.0
2023-08-11 17:06:14.025925,-2.0
2023-08-11 17:06:14.033614,-2.0
2023-08-11 17:06:14.041304,-4.0
2023-08-11 17:06:14.048993,-4.0
2023-08-11 17:06:14.056683,-4.0
2023-08-11 17:06:14.064372,-9.0
2023-08-11 17:06:14.072061,-14.0
2023-08-11 17:06:14.079751,-16.0
2023-08-11 17:06:14.087440,-16.0
2023-08-11 17:06:14.095129,-12.0
2023-08-11 17:06:14.102819,-12.0
2023-08-11 17:06:14.110508,-14.0
2023-08-11 17:06:14.118198,-14.0
2023-08-11 17:06:14.125887,-16.0
2023-08-11 17:06:14.133576,-19.0
2023-08-11 17:06:14.141266,-14.0
2023-08-11 17:06:14.148955,-9.0
2023-08-11 17:06:14.156644,-14.0
2023-08-11 17:06:14.164334,-19.0
2023-08-11 17:06:14.172023,-24.0
2023-08-11 17:06:14.179713,-33.0
2023-08-11 17:06:14.187402,-45.0
2023-08-11 17:06:14.195091,-60.0
2023-08-11 17:06:14.202781,-65.0
2023-08-11 17:06:14.210470,-50.0
2023-08-11 17:06:14.218160,-36.0
2023-08-11 17:06:14.225849,-31.0
2023-08-11 17:06:14.233538,-31.0
2023-08-11 17:06:14.241228,-29.0
2023-08-11 17:06:14.248917,-21.0
2023-08-11 17:06:14.256606,-21.0
2023-08-11 17:06:14.264296,-26.0
2023-08-11 17:06:14.271985,-26.0
2023-08-11 17:06:14.279675,-26.0
2023-08-11 17:06:14.287364,-29.0
2023-08-11 17:06:14.295053,-24.0
2023-08-11 17:06:14.302743,7.0
2023-08-11 17:06:14.310432,-19.0
2023-08-11 17:06:14.318121,-304.0
2023-08-11 17:06:14.325811,-884.0
2023-08-11 17:06:14.333500,-1314.0
2023-08-11 17:06:14.341190,-1053.0
2023-08-11 17:06:14.348879,-171.0
2023-08-11 17:06:14.356568,461.0
2023-08-11 17:06:14.364258,311.0
2023-08-11 17:06:14.371947,48.0
2023-08-11 17:06:14.379636,96.0
2023-08-11 17:06:14.387326,99.0
2023-08-11 17:06:14.395015,31.0
2023-08-11 17:06:14.402705,48.0
2023-08-11 17:06:14.410394,53.0
2023-08-11 17:06:14.418083,24.0
2023-08-11 17:06:14.425773,16.0
2023-08-11 17:06:14.433462,19.0
2023-08-11 17:06:14.441151,7.0
2023-08-11 17:06:14.448841,-2.0
2023-08-11 17:06:14.456530,-9.0
2023-08-11 17:06:14.464220,-21.0
2023-08-11 17:06:14.471909,-43.0
2023-08-11 17:06:14.479598,-62.0
2023-08-11 17:06:14.487288,-82.0
2023-08-11 17:06:14.494977,-108.0
2023-08-11 17:06:14.502666,-145.0
2023-08-11 17:06:14.510356,-188.0
2023-08-11 17:06:14.518045,-232.0
2023-08-11 17:06:14.525735,-256.0
2023-08-11 17:06:14.533424,-263.0
2023-08-11 17:06:14.541113,-265.0
2023-08-11 17:06:14.548803,-256.0
2023-08-11 17:06:14.556492,-219.0
2023-08-11 17:06:14.564181,-166.0
2023-08-11 17:06:14.571871,-94.0
2023-08-11 17:06:14.579560,-26.0
2023-08-11 17:06:14.587250,21.0
2023-08-11 17:06:14.594939,53.0
2023-08-11 17:06:14.602628,74.0
2023-08-11 17:06:14.610318,87.0
2023-08-11 17:06:14.618007,89.0
2023-08-11 17:06:14.625697,87.0
2023-08-11 17:06:14.633386,82.0
2023-08-11 17:06:14.641075,77.0
2023-08-11 17:06:14.648765,70.0
2023-08-11 17:06:14.656454,60.0
2023-08-11 17:06:14.664143,53.0
2023-08-11 17:06:14.671833,48.0
2023-08-11 17:06:14.679522,45.0
2023-08-11 17:06:14.687212,41.0
2023-08-11 17:06:14.694901,33.0
2023-08-11 17:06:14.702590,29.0
2023-08-11 17:06:14.710280,24.0
2023-08-11 17:06:14.717969,21.0
2023-08-11 17:06:14.725658,19.0
2023-08-11 17:06:14.733348,14.0
2023-08-11 17:06:14.741037,4.0
2023-08-11 17:06:14.748727,-2.0
2023-08-11 17:06:14.756416,-7.0
2023-08-11 17:06:14.764105,-7.0
2023-08-11 17:06:14.771795,-7.0
2023-08-11 17:06:14.779484,-9.0
2023-08-11 17:06:14.787173,-9.0
2023-08-11 17:06:14.794863,-9.0
2023-08-11 17:06:14.802552,-14.0
2023-08-11 17:06:14.810242,-14.0
2023-08-11 17:06:14.817931,-12.0
2023-08-11 17:06:14.825620,-12.0
2023-08-11 17:06:14.833310,-12.0
2023-08-11 17:06:14.840999,-14.0
2023-08-11 17:06:14.848688,-16.0
2023-08-11 17:06:14.856378,-16.0
2023-08-11 17:06:14.864067,-16.0
2023-08-11 17:06:14.871757,-19.0
2023-08-11 17:06:14.879446,-19.0
2023-08-11 17:06:14.887135,-14.0
2023-08-11 17:06:14.894825,-19.0
2023-08-11 17:06:14.902514,-33.0
2023-08-11 17:06:14.910203,-50.0
2023-08-11 17:06:14.917893,-62.0
2023-08-11 17:06:14.925582,-77.0
2023-08-11 17:06:14.933272,-72.0
2023-08-11 17:06:14.940961,-53.0
2023-08-11 17:06:14.948650,-41.0
2023-08-11 17:06:14.956340,-38.0
2023-08-11 17:06:14.964029,-33.0
2023-08-11 17:06:14.971718,-21.0
2023-08-11 17:06:14.979408,-14.0
2023-08-11 17:06:14.987097,-19.0
2023-08-11 17:06:14.994787,-19.0
2023-08-11 17:06:15.002476,-16.0
2023-08-11 17:06:15.010165,-21.0
2023-08-11 17:06:15.017855,-24.0
2023-08-11 17:06:15.025544,-9.0
2023-08-11 17:06:15.033233,14.0
2023-08-11 17:06:15.040923,-53.0
2023-08-11 17:06:15.048612,-403.0
2023-08-11 17:06:15.056302,-978.0
2023-08-11 17:06:15.063991,-1235.0
2023-08-11 17:06:15.071680,-771.0
2023-08-11 17:06:15.079370,65.0
2023-08-11 17:06:15.087059,449.0
2023-08-11 17:06:15.094749,207.0
2023-08-11 17:06:15.102438,31.0
2023-08-11 17:06:15.110127,87.0
2023-08-11 17:06:15.117817,58.0
2023-08-11 17:06:15.125506,12.0
2023-08-11 17:06:15.133195,36.0
2023-08-11 17:06:15.140885,31.0
2023-08-11 17:06:15.148574,2.0
2023-08-11 17:06:15.156264,2.0
2023-08-11 17:06:15.163953,0.0
2023-08-11 17:06:15.171642,-14.0
2023-08-11 17:06:15.179332,-24.0
2023-08-11 17:06:15.187021,-29.0
2023-08-11 17:06:15.194710,-45.0
2023-08-11 17:06:15.202400,-65.0
2023-08-11 17:06:15.210089,-82.0
2023-08-11 17:06:15.217779,-106.0
2023-08-11 17:06:15.225468,-135.0
2023-08-11 17:06:15.233157,-166.0
2023-08-11 17:06:15.240847,-203.0
2023-08-11 17:06:15.248536,-236.0
2023-08-11 17:06:15.256225,-261.0
2023-08-11 17:06:15.263915,-270.0
2023-08-11 17:06:15.271604,-268.0
2023-08-11 17:06:15.279294,-253.0
2023-08-11 17:06:15.286983,-222.0
2023-08-11 17:06:15.294672,-164.0
2023-08-11 17:06:15.302362,-99.0
2023-08-11 17:06:15.310051,-43.0
2023-08-11 17:06:15.317740,0.0
2023-08-11 17:06:15.325430,31.0
2023-08-11 17:06:15.333119,53.0
2023-08-11 17:06:15.340809,65.0
2023-08-11 17:06:15.348498,67.0
2023-08-11 17:06:15.356187,65.0
2023-08-11 17:06:15.363877,62.0
2023-08-11 17:06:15.371566,58.0
2023-08-11 17:06:15.379255,55.0
2023-08-11 17:06:15.386945,53.0
2023-08-11 17:06:15.394634,45.0
2023-08-11 17:06:15.402324,38.0
2023-08-11 17:06:15.410013,31.0
2023-08-11 17:06:15.417702,26.0
2023-08-11 17:06:15.425392,24.0
2023-08-11 17:06:15.433081,21.0
2023-08-11 17:06:15.440770,16.0
2023-08-11 17:06:15.448460,9.0
2023-08-11 17:06:15.456149,7.0
2023-08-11 17:06:15.463839,-2.0
2023-08-11 17:06:15.471528,-9.0
2023-08-11 17:06:15.479217,-14.0
2023-08-11 17:06:15.486907,-14.0
2023-08-11 17:06:15.494596,-16.0
2023-08-11 17:06:15.502285,-19.0
2023-08-11 17:06:15.509975,-19.0
2023-08-11 17:06:15.517664,-19.0
2023-08-11 17:06:15.525354,-21.0
2023-08-11 17:06:15.533043,-21.0
2023-08-11 17:06:15.540732,-21.0
2023-08-11 17:06:15.548422,-21.0
2023-08-11 17:06:15.556111,-21.0
2023-08-11 17:06:15.563801,-19.0
2023-08-11 17:06:15.571490,-19.0
2023-08-11 17:06:15.579179,-19.0
2023-08-11 17:06:15.586869,-29.0
2023-08-11 17:06:15.594558,-50.0
2023-08-11 17:06:15.602247,-70.0
2023-08-11 17:06:15.609937,-82.0
2023-08-11 17:06:15.617626,-84.0
2023-08-11 17:06:15.625316,-70.0
2023-08-11 17:06:15.633005,-53.0
2023-08-11 17:06:15.640694,-48.0
2023-08-11 17:06:15.648384,-45.0
2023-08-11 17:06:15.656073,-33.0
2023-08-11 17:06:15.663762,-24.0
2023-08-11 17:06:15.671452,-24.0
2023-08-11 17:06:15.679141,-29.0
2023-08-11 17:06:15.686831,-31.0
2023-08-11 17:06:15.694520,-29.0
2023-08-11 17:06:15.702209,-29.0
2023-08-11 17:06:15.709899,-26.0
2023-08-11 17:06:15.717588,-7.0
2023-08-11 17:06:15.725277,0.0
2023-08-11 17:06:15.732967,-157.0
2023-08-11 17:06:15.740656,-604.0
2023-08-11 17:06:15.748346,-1075.0
2023-08-11 17:06:15.756035,-1007.0
2023-08-11 17:06:15.763724,-321.0
2023-08-11 17:06:15.771414,335.0
2023-08-11 17:06:15.779103,379.0
2023-08-11 17:06:15.786792,120.0
2023-08-11 17:06:15.794482,67.0
2023-08-11 17:06:15.802171,82.0
2023-08-11 17:06:15.809861,24.0
2023-08-11 17:06:15.817550,16.0
2023-08-11 17:06:15.825239,33.0
2023-08-11 17:06:15.832929,14.0
2023-08-11 17:06:15.840618,4.0
2023-08-11 17:06:15.848307,4.0
2023-08-11 17:06:15.855997,-4.0
2023-08-11 17:06:15.863686,-19.0
2023-08-11 17:06:15.871376,-24.0
2023-08-11 17:06:15.879065,-36.0
2023-08-11 17:06:15.886754,-53.0
2023-08-11 17:06:15.894444,-70.0
2023-08-11 17:06:15.902133,-87.0
2023-08-11 17:06:15.909822,-118.0
2023-08-11 17:06:15.917512,-157.0
2023-08-11 17:06:15.925201,-188.0
2023-08-11 17:06:15.932891,-215.0
2023-08-11 17:06:15.940580,-241.0
2023-08-11 17:06:15.948269,-261.0
2023-08-11 17:06:15.955959,-265.0
2023-08-11 17:06:15.963648,-265.0
2023-08-11 17:06:15.971337,-248.0
2023-08-11 17:06:15.979027,-200.0
2023-08-11 17:06:15.986716,-132.0
2023-08-11 17:06:15.994406,-67.0
2023-08-11 17:06:16.002095,-19.0
2023-08-11 17:06:16.009784,19.0
2023-08-11 17:06:16.017474,45.0
2023-08-11 17:06:16.025163,60.0
2023-08-11 17:06:16.032853,65.0
2023-08-11 17:06:16.040542,65.0
2023-08-11 17:06:16.048231,60.0
2023-08-11 17:06:16.055921,60.0
2023-08-11 17:06:16.063610,58.0
2023-08-11 17:06:16.071299,55.0
2023-08-11 17:06:16.078989,48.0
2023-08-11 17:06:16.086678,43.0
2023-08-11 17:06:16.094368,38.0
2023-08-11 17:06:16.102057,33.0
2023-08-11 17:06:16.109746,31.0
2023-08-11 17:06:16.117436,26.0
2023-08-11 17:06:16.125125,16.0
2023-08-11 17:06:16.132814,9.0
2023-08-11 17:06:16.140504,4.0
2023-08-11 17:06:16.148193,2.0
2023-08-11 17:06:16.155883,0.0
2023-08-11 17:06:16.163572,0.0
2023-08-11 17:06:16.171261,-4.0
2023-08-11 17:06:16.178951,-12.0
2023-08-11 17:06:16.186640,-19.0
2023-08-11 17:06:16.194329,-19.0
2023-08-11 17:06:16.202019,-16.0
2023-08-11 17:06:16.209708,-16.0
2023-08-11 17:06:16.217398,-16.0
2023-08-11 17:06:16.225087,-16.0
2023-08-11 17:06:16.232776,-16.0
2023-08-11 17:06:16.240466,-12.0
2023-08-11 17:06:16.248155,-12.0
2023-08-11 17:06:16.255844,-19.0
2023-08-11 17:06:16.263534,-31.0
2023-08-11 17:06:16.271223,-45.0
2023-08-11 17:06:16.278913,-60.0
2023-08-11 17:06:16.286602,-70.0
2023-08-11 17:06:16.294291,-58.0
2023-08-11 17:06:16.301981,-38.0
2023-08-11 17:06:16.309670,-29.0
2023-08-11 17:06:16.317359,-29.0
2023-08-11 17:06:16.325049,-19.0
2023-08-11 17:06:16.332738,-7.0
2023-08-11 17:06:16.340428,-9.0
2023-08-11 17:06:16.348117,-14.0
2023-08-11 17:06:16.355806,-16.0
2023-08-11 17:06:16.363496,-19.0
2023-08-11 17:06:16.371185,-24.0
2023-08-11 17:06:16.378874,-24.0
2023-08-11 17:06:16.386564,-4.0
2023-08-11 17:06:16.394253,2.0
2023-08-11 17:06:16.401943,-154.0
2023-08-11 17:06:16.409632,-599.0
2023-08-11 17:06:16.417321,-1058.0
2023-08-11 17:06:16.425011,-974.0
2023-08-11 17:06:16.432700,-282.0
2023-08-11 17:06:16.440390,357.0
2023-08-11 17:06:16.448079,386.0
2023-08-11 17:06:16.455768,120.0
2023-08-11 17:06:16.463458,62.0
2023-08-11 17:06:16.471147,74.0
2023-08-11 17:06:16.478836,12.0
2023-08-11 17:06:16.486526,2.0
2023-08-11 17:06:16.494215,14.0
2023-08-11 17:06:16.501905,-7.0
2023-08-11 17:06:16.509594,-21.0
2023-08-11 17:06:16.517283,-16.0
2023-08-11 17:06:16.524973,-21.0
2023-08-11 17:06:16.532662,-36.0
2023-08-11 17:06:16.540351,-43.0
2023-08-11 17:06:16.548041,-50.0
2023-08-11 17:06:16.555730,-67.0
2023-08-11 17:06:16.563420,-89.0
2023-08-11 17:06:16.571109,-113.0
2023-08-11 17:06:16.578798,-140.0
2023-08-11 17:06:16.586488,-171.0
2023-08-11 17:06:16.594177,-205.0
2023-08-11 17:06:16.601866,-239.0
2023-08-11 17:06:16.609556,-263.0
2023-08-11 17:06:16.617245,-277.0
2023-08-11 17:06:16.624935,-290.0
2023-08-11 17:06:16.632624,-287.0
2023-08-11 17:06:16.640313,-258.0
2023-08-11 17:06:16.648003,-210.0
2023-08-11 17:06:16.655692,-147.0
2023-08-11 17:06:16.663381,-82.0
2023-08-11 17:06:16.671071,-29.0
2023-08-11 17:06:16.678760,9.0
2023-08-11 17:06:16.686450,33.0
2023-08-11 17:06:16.694139,48.0
2023-08-11 17:06:16.701828,55.0
2023-08-11 17:06:16.709518,58.0
2023-08-11 17:06:16.717207,50.0
2023-08-11 17:06:16.724896,41.0
2023-08-11 17:06:16.732586,33.0
2023-08-11 17:06:16.740275,33.0
2023-08-11 17:06:16.747965,33.0
2023-08-11 17:06:16.755654,29.0
2023-08-11 17:06:16.763343,16.0
2023-08-11 17:06:16.771033,7.0
2023-08-11 17:06:16.778722,2.0
2023-08-11 17:06:16.786411,2.0
2023-08-11 17:06:16.794101,-4.0
2023-08-11 17:06:16.801790,-7.0
2023-08-11 17:06:16.809480,-9.0
2023-08-11 17:06:16.817169,-12.0
2023-08-11 17:06:16.824858,-16.0
2023-08-11 17:06:16.832548,-19.0
2023-08-11 17:06:16.840237,-19.0
2023-08-11 17:06:16.847926,-21.0
2023-08-11 17:06:16.855616,-21.0
2023-08-11 17:06:16.863305,-26.0
2023-08-11 17:06:16.870995,-29.0
2023-08-11 17:06:16.878684,-31.0
2023-08-11 17:06:16.886373,-31.0
2023-08-11 17:06:16.894063,-29.0
2023-08-11 17:06:16.901752,-31.0
2023-08-11 17:06:16.909442,-41.0
2023-08-11 17:06:16.917131,-55.0
2023-08-11 17:06:16.924820,-70.0
2023-08-11 17:06:16.932510,-82.0
2023-08-11 17:06:16.940199,-84.0
2023-08-11 17:06:16.947888,-65.0
2023-08-11 17:06:16.955578,-43.0
2023-08-11 17:06:16.963267,-38.0
2023-08-11 17:06:16.970957,-33.0
2023-08-11 17:06:16.978646,-26.0
2023-08-11 17:06:16.986335,-26.0
2023-08-11 17:06:16.994025,-31.0
2023-08-11 17:06:17.001714,-31.0
2023-08-11 17:06:17.009403,-31.0
2023-08-11 17:06:17.017093,-36.0
2023-08-11 17:06:17.024782,-38.0
2023-08-11 17:06:17.032472,-31.0
2023-08-11 17:06:17.040161,-12.0
2023-08-11 17:06:17.047850,-45.0
2023-08-11 17:06:17.055540,-299.0
2023-08-11 17:06:17.063229,-792.0
2023-08-11 17:06:17.070918,-1070.0
2023-08-11 17:06:17.078608,-708.0
2023-08-11 17:06:17.086297,26.0
2023-08-11 17:06:17.093987,425.0
2023-08-11 17:06:17.101676,253.0
2023-08-11 17:06:17.109365,45.0
2023-08-11 17:06:17.117055,50.0
2023-08-11 17:06:17.124744,26.0
2023-08-11 17:06:17.132433,-16.0
2023-08-11 17:06:17.140123,2.0
2023-08-11 17:06:17.147812,0.0
2023-08-11 17:06:17.155502,-24.0
2023-08-11 17:06:17.163191,-26.0
2023-08-11 17:06:17.170880,-26.0
2023-08-11 17:06:17.178570,-41.0
2023-08-11 17:06:17.186259,-50.0
2023-08-11 17:06:17.193948,-55.0
2023-08-11 17:06:17.201638,-67.0
2023-08-11 17:06:17.209327,-84.0
2023-08-11 17:06:17.217017,-103.0
2023-08-11 17:06:17.224706,-128.0
2023-08-11 17:06:17.232395,-157.0
2023-08-11 17:06:17.240085,-188.0
2023-08-11 17:06:17.247774,-222.0
2023-08-11 17:06:17.255463,-253.0
2023-08-11 17:06:17.263153,-270.0
2023-08-11 17:06:17.270842,-280.0
2023-08-11 17:06:17.278532,-282.0
2023-08-11 17:06:17.286221,-268.0
2023-08-11 17:06:17.293910,-234.0
2023-08-11 17:06:17.301600,-186.0
2023-08-11 17:06:17.309289,-130.0
2023-08-11 17:06:17.316978,-72.0
2023-08-11 17:06:17.324668,-21.0
2023-08-11 17:06:17.332357,12.0
2023-08-11 17:06:17.340047,31.0
2023-08-11 17:06:17.347736,41.0
2023-08-11 17:06:17.355425,43.0
2023-08-11 17:06:17.363115,43.0
2023-08-11 17:06:17.370804,41.0
2023-08-11 17:06:17.378494,36.0
2023-08-11 17:06:17.386183,31.0
2023-08-11 17:06:17.393872,26.0
2023-08-11 17:06:17.401562,24.0
2023-08-11 17:06:17.409251,21.0
2023-08-11 17:06:17.416940,19.0
2023-08-11 17:06:17.424630,16.0
2023-08-11 17:06:17.432319,9.0
2023-08-11 17:06:17.440009,7.0
2023-08-11 17:06:17.447698,2.0
2023-08-11 17:06:17.455387,0.0
2023-08-11 17:06:17.463077,-2.0
2023-08-11 17:06:17.470766,-7.0
2023-08-11 17:06:17.478455,-12.0
2023-08-11 17:06:17.486145,-16.0
2023-08-11 17:06:17.493834,-24.0
2023-08-11 17:06:17.501524,-26.0
2023-08-11 17:06:17.509213,-24.0
2023-08-11 17:06:17.516902,-24.0
2023-08-11 17:06:17.524592,-26.0
2023-08-11 17:06:17.532281,-26.0
2023-08-11 17:06:17.539970,-26.0
2023-08-11 17:06:17.547660,-29.0
2023-08-11 17:06:17.555349,-38.0
2023-08-11 17:06:17.563039,-58.0
2023-08-11 17:06:17.570728,-72.0
2023-08-11 17:06:17.578417,-82.0
2023-08-11 17:06:17.586107,-77.0
2023-08-11 17:06:17.593796,-58.0
2023-08-11 17:06:17.601485,-38.0
2023-08-11 17:06:17.609175,-41.0
2023-08-11 17:06:17.616864,-38.0
2023-08-11 17:06:17.624554,-24.0
2023-08-11 17:06:17.632243,-16.0
2023-08-11 17:06:17.639932,-21.0
2023-08-11 17:06:17.647622,-24.0
2023-08-11 17:06:17.655311,-24.0
2023-08-11 17:06:17.663000,-29.0
2023-08-11 17:06:17.670690,-31.0
2023-08-11 17:06:17.678379,-19.0
2023-08-11 17:06:17.686069,2.0
2023-08-11 17:06:17.693758,-38.0
2023-08-11 17:06:17.701447,-309.0
2023-08-11 17:06:17.709137,-804.0
2023-08-11 17:06:17.716826,-1056.0
2023-08-11 17:06:17.724515,-655.0
2023-08-11 17:06:17.732205,77.0
2023-08-11 17:06:17.739894,422.0
2023-08-11 17:06:17.747584,224.0
2023-08-11 17:06:17.755273,41.0
2023-08-11 17:06:17.762962,62.0
2023-08-11 17:06:17.770652,38.0
2023-08-11 17:06:17.778341,2.0
2023-08-11 17:06:17.786031,16.0
2023-08-11 17:06:17.793720,12.0
2023-08-11 17:06:17.801409,-12.0
2023-08-11 17:06:17.809099,-14.0
2023-08-11 17:06:17.816788,-14.0
2023-08-11 17:06:17.824477,-26.0
2023-08-11 17:06:17.832167,-31.0
2023-08-11 17:06:17.839856,-45.0
2023-08-11 17:06:17.847546,-70.0
2023-08-11 17:06:17.855235,-89.0
2023-08-11 17:06:17.862924,-106.0
2023-08-11 17:06:17.870614,-128.0
2023-08-11 17:06:17.878303,-157.0
2023-08-11 17:06:17.885992,-188.0
2023-08-11 17:06:17.893682,-219.0
2023-08-11 17:06:17.901371,-241.0
2023-08-11 17:06:17.909061,-256.0
2023-08-11 17:06:17.916750,-265.0
2023-08-11 17:06:17.924439,-265.0
2023-08-11 17:06:17.932129,-253.0
2023-08-11 17:06:17.939818,-219.0
2023-08-11 17:06:17.947507,-164.0
2023-08-11 17:06:17.955197,-103.0
2023-08-11 17:06:17.962886,-48.0
2023-08-11 17:06:17.970576,-2.0
2023-08-11 17:06:17.978265,26.0
2023-08-11 17:06:17.985954,41.0
2023-08-11 17:06:17.993644,48.0
2023-08-11 17:06:18.001333,45.0
2023-08-11 17:06:18.009022,43.0
2023-08-11 17:06:18.016712,43.0
2023-08-11 17:06:18.024401,36.0
2023-08-11 17:06:18.032091,31.0
2023-08-11 17:06:18.039780,26.0
2023-08-11 17:06:18.047469,24.0
2023-08-11 17:06:18.055159,21.0
2023-08-11 17:06:18.062848,14.0
2023-08-11 17:06:18.070537,9.0
2023-08-11 17:06:18.078227,7.0
2023-08-11 17:06:18.085916,4.0
2023-08-11 17:06:18.093606,0.0
2023-08-11 17:06:18.101295,-4.0
2023-08-11 17:06:18.108984,-12.0
2023-08-11 17:06:18.116674,-19.0
2023-08-11 17:06:18.124363,-21.0
2023-08-11 17:06:18.132052,-19.0
2023-08-11 17:06:18.139742,-19.0
2023-08-11 17:06:18.147431,-21.0
2023-08-11 17:06:18.155121,-24.0
2023-08-11 17:06:18.162810,-26.0
2023-08-11 17:06:18.170499,-26.0
2023-08-11 17:06:18.178189,-24.0
2023-08-11 17:06:18.185878,-24.0
2023-08-11 17:06:18.193567,-29.0
2023-08-11 17:06:18.201257,-43.0
2023-08-11 17:06:18.208946,-62.0
2023-08-11 17:06:18.216636,-72.0
2023-08-11 17:06:18.224325,-77.0
2023-08-11 17:06:18.232014,-70.0
2023-08-11 17:06:18.239704,-48.0
2023-08-11 17:06:18.247393,-38.0
2023-08-11 17:06:18.255083,-36.0
2023-08-11 17:06:18.262772,-26.0
2023-08-11 17:06:18.270461,-12.0
2023-08-11 17:06:18.278151,-9.0
2023-08-11 17:06:18.285840,-12.0
2023-08-11 17:06:18.293529,-12.0
2023-08-11 17:06:18.301219,-16.0
2023-08-11 17:06:18.308908,-21.0
2023-08-11 17:06:18.316598,-21.0
2023-08-11 17:06:18.324287,-9.0
2023-08-11 17:06:18.331976,12.0
2023-08-11 17:06:18.339666,-55.0
2023-08-11 17:06:18.347355,-379.0
2023-08-11 17:06:18.355044,-877.0
2023-08-11 17:06:18.362734,-1015.0
2023-08-11 17:06:18.370423,-500.0
2023-08-11 17:06:18.378113,198.0
2023-08-11 17:06:18.385802,410.0
2023-08-11 17:06:18.393491,169.0
2023-08-11 17:06:18.401181,36.0
2023-08-11 17:06:18.408870,65.0
2023-08-11 17:06:18.416559,24.0
2023-08-11 17:06:18.424249,-9.0
2023-08-11 17:06:18.431938,2.0
2023-08-11 17:06:18.439628,-9.0
2023-08-11 17:06:18.447317,-26.0
2023-08-11 17:06:18.455006,-24.0
2023-08-11 17:06:18.462696,-29.0
2023-08-11 17:06:18.470385,-41.0
2023-08-11 17:06:18.478074,-50.0
2023-08-11 17:06:18.485764,-60.0
2023-08-11 17:06:18.493453,-74.0
2023-08-11 17:06:18.501143,-96.0
2023-08-11 17:06:18.508832,-118.0
2023-08-11 17:06:18.516521,-142.0
2023-08-11 17:06:18.524211,-171.0
2023-08-11 17:06:18.531900,-203.0
2023-08-11 17:06:18.539589,-229.0
2023-08-11 17:06:18.547279,-251.0
2023-08-11 17:06:18.554968,-263.0
2023-08-11 17:06:18.562658,-268.0
2023-08-11 17:06:18.570347,-268.0
2023-08-11 17:06:18.578036,-248.0
2023-08-11 17:06:18.585726,-207.0
2023-08-11 17:06:18.593415,-152.0
2023-08-11 17:06:18.601104,-94.0
2023-08-11 17:06:18.608794,-33.0
2023-08-11 17:06:18.616483,16.0
2023-08-11 17:06:18.624173,48.0
2023-08-11 17:06:18.631862,60.0
2023-08-11 17:06:18.639551,67.0
2023-08-11 17:06:18.647241,70.0
2023-08-11 17:06:18.654930,67.0
2023-08-11 17:06:18.662619,62.0
2023-08-11 17:06:18.670309,62.0
2023-08-11 17:06:18.677998,58.0
2023-08-11 17:06:18.685688,50.0
2023-08-11 17:06:18.693377,43.0
2023-08-11 17:06:18.701066,36.0
2023-08-11 17:06:18.708756,29.0
2023-08-11 17:06:18.716445,24.0
2023-08-11 17:06:18.724135,21.0
2023-08-11 17:06:18.731824,16.0
2023-08-11 17:06:18.739513,12.0
2023-08-11 17:06:18.747203,7.0
2023-08-11 17:06:18.754892,-2.0
2023-08-11 17:06:18.762581,-7.0
2023-08-11 17:06:18.770271,-4.0
2023-08-11 17:06:18.777960,-4.0
2023-08-11 17:06:18.785650,-7.0
2023-08-11 17:06:18.793339,-12.0
2023-08-11 17:06:18.801028,-9.0
2023-08-11 17:06:18.808718,-9.0
2023-08-11 17:06:18.816407,-7.0
2023-08-11 17:06:18.824096,-9.0
2023-08-11 17:06:18.831786,-12.0
2023-08-11 17:06:18.839475,-14.0
2023-08-11 17:06:18.847165,-29.0
2023-08-11 17:06:18.854854,-43.0
2023-08-11 17:06:18.862543,-53.0
2023-08-11 17:06:18.870233,-65.0
2023-08-11 17:06:18.877922,-67.0
2023-08-11 17:06:18.885611,-48.0
2023-08-11 17:06:18.893301,-26.0
2023-08-11 17:06:18.900990,-26.0
2023-08-11 17:06:18.908680,-19.0
2023-08-11 17:06:18.916369,-7.0
2023-08-11 17:06:18.924058,-2.0
2023-08-11 17:06:18.931748,-12.0
2023-08-11 17:06:18.939437,-14.0
2023-08-11 17:06:18.947126,-12.0
2023-08-11 17:06:18.954816,-16.0
2023-08-11 17:06:18.962505,-21.0
2023-08-11 17:06:18.970195,-19.0
2023-08-11 17:06:18.977884,-9.0
2023-08-11 17:06:18.985573,-60.0
2023-08-11 17:06:18.993263,-350.0
2023-08-11 17:06:19.000952,-855.0
2023-08-11 17:06:19.008641,-1061.0
2023-08-11 17:06:19.016331,-594.0
2023-08-11 17:06:19.024020,145.0
2023-08-11 17:06:19.031710,444.0
2023-08-11 17:06:19.039399,229.0
2023-08-11 17:06:19.047088,55.0
2023-08-11 17:06:19.054778,67.0
2023-08-11 17:06:19.062467,24.0
2023-08-11 17:06:19.070156,-12.0
2023-08-11 17:06:19.077846,7.0
2023-08-11 17:06:19.085535,0.0
2023-08-11 17:06:19.093225,-26.0
2023-08-11 17:06:19.100914,-26.0
2023-08-11 17:06:19.108603,-29.0
2023-08-11 17:06:19.116293,-43.0
2023-08-11 17:06:19.123982,-53.0
2023-08-11 17:06:19.131672,-60.0
2023-08-11 17:06:19.139361,-74.0
2023-08-11 17:06:19.147050,-89.0
2023-08-11 17:06:19.154740,-106.0
2023-08-11 17:06:19.162429,-128.0
2023-08-11 17:06:19.170118,-157.0
2023-08-11 17:06:19.177808,-190.0
2023-08-11 17:06:19.185497,-219.0
2023-08-11 17:06:19.193187,-244.0
2023-08-11 17:06:19.200876,-256.0
2023-08-11 17:06:19.208565,-256.0
2023-08-11 17:06:19.216255,-253.0
2023-08-11 17:06:19.223944,-241.0
2023-08-11 17:06:19.231633,-205.0
2023-08-11 17:06:19.239323,-147.0
2023-08-11 17:06:19.247012,-84.0
2023-08-11 17:06:19.254702,-29.0
2023-08-11 17:06:19.262391,19.0
2023-08-11 17:06:19.270080,50.0
2023-08-11 17:06:19.277770,65.0
2023-08-11 17:06:19.285459,72.0
2023-08-11 17:06:19.293148,79.0
2023-08-11 17:06:19.300838,79.0
2023-08-11 17:06:19.308527,79.0
2023-08-11 17:06:19.316217,74.0
2023-08-11 17:06:19.323906,70.0
2023-08-11 17:06:19.331595,60.0
2023-08-11 17:06:19.339285,50.0
2023-08-11 17:06:19.346974,45.0
2023-08-11 17:06:19.354663,43.0
2023-08-11 17:06:19.362353,33.0
2023-08-11 17:06:19.370042,26.0
2023-08-11 17:06:19.377732,21.0
2023-08-11 17:06:19.385421,16.0
2023-08-11 17:06:19.393110,9.0
2023-08-11 17:06:19.400800,4.0
2023-08-11 17:06:19.408489,-2.0
2023-08-11 17:06:19.416178,-9.0
2023-08-11 17:06:19.423868,-12.0
2023-08-11 17:06:19.431557,-9.0
2023-08-11 17:06:19.439247,-9.0
2023-08-11 17:06:19.446936,-12.0
2023-08-11 17:06:19.454625,-14.0
2023-08-11 17:06:19.462315,-16.0
2023-08-11 17:06:19.470004,-16.0
2023-08-11 17:06:19.477693,-14.0
2023-08-11 17:06:19.485383,-14.0
2023-08-11 17:06:19.493072,-14.0
2023-08-11 17:06:19.500762,-19.0
2023-08-11 17:06:19.508451,-38.0
2023-08-11 17:06:19.516140,-60.0
2023-08-11 17:06:19.523830,-72.0
2023-08-11 17:06:19.531519,-77.0
2023-08-11 17:06:19.539208,-67.0
2023-08-11 17:06:19.546898,-50.0
2023-08-11 17:06:19.554587,-45.0
2023-08-11 17:06:19.562277,-50.0
2023-08-11 17:06:19.569966,-38.0
2023-08-11 17:06:19.577655,-24.0
2023-08-11 17:06:19.585345,-29.0
2023-08-11 17:06:19.593034,-31.0
2023-08-11 17:06:19.600724,-33.0
2023-08-11 17:06:19.608413,-38.0
2023-08-11 17:06:19.616102,-38.0
2023-08-11 17:06:19.623792,-33.0
2023-08-11 17:06:19.631481,-14.0
2023-08-11 17:06:19.639170,-14.0
2023-08-11 17:06:19.646860,-181.0
2023-08-11 17:06:19.654549,-626.0
2023-08-11 17:06:19.662239,-1046.0
2023-08-11 17:06:19.669928,-903.0
2023-08-11 17:06:19.677617,-195.0
2023-08-11 17:06:19.685307,391.0
2023-08-11 17:06:19.692996,360.0
2023-08-11 17:06:19.700685,91.0
2023-08-11 17:06:19.708375,45.0
2023-08-11 17:06:19.716064,58.0
2023-08-11 17:06:19.723754,2.0
2023-08-11 17:06:19.731443,0.0
2023-08-11 17:06:19.739132,9.0
2023-08-11 17:06:19.746822,-12.0
2023-08-11 17:06:19.754511,-21.0
2023-08-11 17:06:19.762200,-19.0
2023-08-11 17:06:19.769890,-31.0
2023-08-11 17:06:19.777579,-45.0
2023-08-11 17:06:19.785269,-55.0
2023-08-11 17:06:19.792958,-65.0
2023-08-11 17:06:19.800647,-82.0
2023-08-11 17:06:19.808337,-99.0
2023-08-11 17:06:19.816026,-118.0
2023-08-11 17:06:19.823715,-149.0
2023-08-11 17:06:19.831405,-181.0
2023-08-11 17:06:19.839094,-210.0
2023-08-11 17:06:19.846784,-234.0
2023-08-11 17:06:19.854473,-253.0
2023-08-11 17:06:19.862162,-261.0
2023-08-11 17:06:19.869852,-263.0
2023-08-11 17:06:19.877541,-258.0
2023-08-11 17:06:19.885230,-227.0
2023-08-11 17:06:19.892920,-176.0
2023-08-11 17:06:19.900609,-116.0
2023-08-11 17:06:19.908299,-55.0
2023-08-11 17:06:19.915988,-2.0
2023-08-11 17:06:19.923677,36.0
2023-08-11 17:06:19.931367,60.0
2023-08-11 17:06:19.939056,72.0
2023-08-11 17:06:19.946745,79.0
2023-08-11 17:06:19.954435,82.0
2023-08-11 17:06:19.962124,77.0
2023-08-11 17:06:19.969814,72.0
2023-08-11 17:06:19.977503,70.0
2023-08-11 17:06:19.985192,65.0
2023-08-11 17:06:19.992882,62.0
2023-08-11 17:06:20.000571,55.0
2023-08-11 17:06:20.008260,45.0
2023-08-11 17:06:20.015950,33.0
2023-08-11 17:06:20.023639,26.0
2023-08-11 17:06:20.031329,24.0
2023-08-11 17:06:20.039018,19.0
2023-08-11 17:06:20.046707,9.0
2023-08-11 17:06:20.054397,4.0
2023-08-11 17:06:20.062086,-4.0
2023-08-11 17:06:20.069776,-12.0
2023-08-11 17:06:20.077465,-16.0
2023-08-11 17:06:20.085154,-21.0
2023-08-11 17:06:20.092844,-31.0
2023-08-11 17:06:20.100533,-38.0
2023-08-11 17:06:20.108222,-38.0
2023-08-11 17:06:20.115912,-38.0
2023-08-11 17:06:20.123601,-43.0
2023-08-11 17:06:20.131291,-45.0
2023-08-11 17:06:20.138980,-50.0
2023-08-11 17:06:20.146669,-58.0
2023-08-11 17:06:20.154359,-55.0
2023-08-11 17:06:20.162048,-50.0
2023-08-11 17:06:20.169737,-53.0
2023-08-11 17:06:20.177427,-53.0
2023-08-11 17:06:20.185116,-65.0
2023-08-11 17:06:20.192806,-84.0
2023-08-11 17:06:20.200495,-96.0
2023-08-11 17:06:20.208184,-103.0
2023-08-11 17:06:20.215874,-99.0
2023-08-11 17:06:20.223563,-79.0
2023-08-11 17:06:20.231252,-62.0
2023-08-11 17:06:20.238942,-58.0
2023-08-11 17:06:20.246631,-50.0
2023-08-11 17:06:20.254321,-38.0
2023-08-11 17:06:20.262010,-31.0
2023-08-11 17:06:20.269699,-33.0
2023-08-11 17:06:20.277389,-38.0
2023-08-11 17:06:20.285078,-41.0
2023-08-11 17:06:20.292767,-43.0
2023-08-11 17:06:20.300457,-43.0
2023-08-11 17:06:20.308146,-26.0
2023-08-11 17:06:20.315836,-7.0
2023-08-11 17:06:20.323525,-87.0
2023-08-11 17:06:20.331214,-432.0
2023-08-11 17:06:20.338904,-930.0
2023-08-11 17:06:20.346593,-1044.0
2023-08-11 17:06:20.354282,-500.0
2023-08-11 17:06:20.361972,215.0
2023-08-11 17:06:20.369661,415.0
2023-08-11 17:06:20.377351,154.0
2023-08-11 17:06:20.385040,24.0
2023-08-11 17:06:20.392729,58.0
2023-08-11 17:06:20.400419,19.0
2023-08-11 17:06:20.408108,-9.0
2023-08-11 17:06:20.415797,9.0
2023-08-11 17:06:20.423487,-2.0
2023-08-11 17:06:20.431176,-21.0
2023-08-11 17:06:20.438866,-21.0
2023-08-11 17:06:20.446555,-26.0
2023-08-11 17:06:20.454244,-38.0
2023-08-11 17:06:20.461934,-48.0
2023-08-11 17:06:20.469623,-55.0
2023-08-11 17:06:20.477312,-72.0
2023-08-11 17:06:20.485002,-91.0
2023-08-11 17:06:20.492691,-108.0
2023-08-11 17:06:20.500381,-135.0
2023-08-11 17:06:20.508070,-166.0
2023-08-11 17:06:20.515759,-203.0
2023-08-11 17:06:20.523449,-236.0
2023-08-11 17:06:20.531138,-258.0
2023-08-11 17:06:20.538828,-268.0
2023-08-11 17:06:20.546517,-275.0
2023-08-11 17:06:20.554206,-270.0
2023-08-11 17:06:20.561896,-251.0
2023-08-11 17:06:20.569585,-212.0
2023-08-11 17:06:20.577274,-152.0
2023-08-11 17:06:20.584964,-87.0
2023-08-11 17:06:20.592653,-31.0
2023-08-11 17:06:20.600343,12.0
2023-08-11 17:06:20.608032,43.0
2023-08-11 17:06:20.615721,60.0
2023-08-11 17:06:20.623411,70.0
2023-08-11 17:06:20.631100,70.0
2023-08-11 17:06:20.638789,70.0
2023-08-11 17:06:20.646479,67.0
2023-08-11 17:06:20.654168,62.0
2023-08-11 17:06:20.661858,55.0
2023-08-11 17:06:20.669547,53.0
2023-08-11 17:06:20.677236,41.0
2023-08-11 17:06:20.684926,26.0
2023-08-11 17:06:20.692615,19.0
2023-08-11 17:06:20.700304,16.0
2023-08-11 17:06:20.707994,7.0
2023-08-11 17:06:20.715683,0.0
2023-08-11 17:06:20.723373,-4.0
2023-08-11 17:06:20.731062,-9.0
2023-08-11 17:06:20.738751,-12.0
2023-08-11 17:06:20.746441,-14.0
2023-08-11 17:06:20.754130,-19.0
2023-08-11 17:06:20.761819,-24.0
2023-08-11 17:06:20.769509,-26.0
2023-08-11 17:06:20.777198,-29.0
2023-08-11 17:06:20.784888,-29.0
2023-08-11 17:06:20.792577,-29.0
2023-08-11 17:06:20.800266,-31.0
2023-08-11 17:06:20.807956,-33.0
2023-08-11 17:06:20.815645,-38.0
2023-08-11 17:06:20.823334,-36.0
2023-08-11 17:06:20.831024,-33.0
2023-08-11 17:06:20.838713,-36.0
2023-08-11 17:06:20.846403,-38.0
2023-08-11 17:06:20.854092,-38.0
2023-08-11 17:06:20.861781,-36.0
2023-08-11 17:06:20.869471,-33.0
2023-08-11 17:06:20.877160,-33.0
2023-08-11 17:06:20.884849,-38.0
2023-08-11 17:06:20.892539,-53.0
2023-08-11 17:06:20.900228,-70.0
2023-08-11 17:06:20.907918,-84.0
2023-08-11 17:06:20.915607,-91.0
2023-08-11 17:06:20.923296,-79.0
2023-08-11 17:06:20.930986,-60.0
2023-08-11 17:06:20.938675,-50.0
2023-08-11 17:06:20.946365,-43.0
2023-08-11 17:06:20.954054,-36.0
2023-08-11 17:06:20.961743,-26.0
2023-08-11 17:06:20.969433,-21.0
2023-08-11 17:06:20.977122,-24.0
2023-08-11 17:06:20.984811,-26.0
2023-08-11 17:06:20.992501,-26.0
2023-08-11 17:06:21.000190,-29.0
2023-08-11 17:06:21.007880,-29.0
2023-08-11 17:06:21.015569,-16.0
2023-08-11 17:06:21.023258,-2.0
2023-08-11 17:06:21.030948,-103.0
2023-08-11 17:06:21.038637,-488.0
2023-08-11 17:06:21.046326,-978.0
2023-08-11 17:06:21.054016,-1017.0
2023-08-11 17:06:21.061705,-410.0
2023-08-11 17:06:21.069395,268.0
2023-08-11 17:06:21.077084,377.0
2023-08-11 17:06:21.084773,108.0
2023-08-11 17:06:21.092463,21.0
2023-08-11 17:06:21.100152,55.0
2023-08-11 17:06:21.107841,9.0
2023-08-11 17:06:21.115531,-9.0
2023-08-11 17:06:21.123220,7.0
2023-08-11 17:06:21.130910,-7.0
2023-08-11 17:06:21.138599,-24.0
2023-08-11 17:06:21.146288,-19.0
2023-08-11 17:06:21.153978,-26.0
2023-08-11 17:06:21.161667,-41.0
2023-08-11 17:06:21.169356,-48.0
2023-08-11 17:06:21.177046,-60.0
2023-08-11 17:06:21.184735,-72.0
2023-08-11 17:06:21.192425,-89.0
2023-08-11 17:06:21.200114,-111.0
2023-08-11 17:06:21.207803,-140.0
2023-08-11 17:06:21.215493,-174.0
2023-08-11 17:06:21.223182,-212.0
2023-08-11 17:06:21.230871,-239.0
2023-08-11 17:06:21.238561,-256.0
2023-08-11 17:06:21.246250,-268.0
2023-08-11 17:06:21.253940,-273.0
2023-08-11 17:06:21.261629,-268.0
2023-08-11 17:06:21.269318,-246.0
2023-08-11 17:06:21.277008,-203.0
2023-08-11 17:06:21.284697,-142.0
2023-08-11 17:06:21.292386,-79.0
2023-08-11 17:06:21.300076,-26.0
2023-08-11 17:06:21.307765,7.0
