time,ECG
2023-08-17 19:38:06.021328,-62.0
2023-08-17 19:38:06.029017,-64.0
2023-08-17 19:38:06.036706,-67.0
2023-08-17 19:38:06.044396,-69.0
2023-08-17 19:38:06.052085,-67.0
2023-08-17 19:38:06.059774,-67.0
2023-08-17 19:38:06.067464,-76.0
2023-08-17 19:38:06.075153,-76.0
2023-08-17 19:38:06.082842,-59.0
2023-08-17 19:38:06.090531,-52.0
2023-08-17 19:38:06.098221,-50.0
2023-08-17 19:38:06.105910,-40.0
2023-08-17 19:38:06.113599,-23.0
2023-08-17 19:38:06.121289,-4.0
2023-08-17 19:38:06.128978,-7.0
2023-08-17 19:38:06.136667,-38.0
2023-08-17 19:38:06.144356,-52.0
2023-08-17 19:38:06.152046,-50.0
2023-08-17 19:38:06.159735,-69.0
2023-08-17 19:38:06.167424,-95.0
2023-08-17 19:38:06.175114,-88.0
2023-08-17 19:38:06.182803,-76.0
2023-08-17 19:38:06.190492,-83.0
2023-08-17 19:38:06.198181,-93.0
2023-08-17 19:38:06.205871,-86.0
2023-08-17 19:38:06.213560,-16.0
2023-08-17 19:38:06.221249,196.0
2023-08-17 19:38:06.228938,496.0
2023-08-17 19:38:06.236628,613.0
2023-08-17 19:38:06.244317,349.0
2023-08-17 19:38:06.252006,-81.0
2023-08-17 19:38:06.259696,-316.0
2023-08-17 19:38:06.267385,-246.0
2023-08-17 19:38:06.275074,-74.0
2023-08-17 19:38:06.282763,-50.0
2023-08-17 19:38:06.290453,-103.0
2023-08-17 19:38:06.298142,-88.0
2023-08-17 19:38:06.305831,-69.0
2023-08-17 19:38:06.313521,-83.0
2023-08-17 19:38:06.321210,-76.0
2023-08-17 19:38:06.328899,-55.0
2023-08-17 19:38:06.336588,-50.0
2023-08-17 19:38:06.344278,-52.0
2023-08-17 19:38:06.351967,-43.0
2023-08-17 19:38:06.359656,-33.0
2023-08-17 19:38:06.367345,-21.0
2023-08-17 19:38:06.375035,4.0
2023-08-17 19:38:06.382724,16.0
2023-08-17 19:38:06.390413,21.0
2023-08-17 19:38:06.398103,40.0
2023-08-17 19:38:06.405792,55.0
2023-08-17 19:38:06.413481,62.0
2023-08-17 19:38:06.421170,88.0
2023-08-17 19:38:06.428860,112.0
2023-08-17 19:38:06.436549,131.0
2023-08-17 19:38:06.444238,160.0
2023-08-17 19:38:06.451928,191.0
2023-08-17 19:38:06.459617,210.0
2023-08-17 19:38:06.467306,225.0
2023-08-17 19:38:06.474995,242.0
2023-08-17 19:38:06.482685,254.0
2023-08-17 19:38:06.490374,246.0
2023-08-17 19:38:06.498063,215.0
2023-08-17 19:38:06.505752,170.0
2023-08-17 19:38:06.513442,103.0
2023-08-17 19:38:06.521131,19.0
2023-08-17 19:38:06.528820,-52.0
2023-08-17 19:38:06.536510,-103.0
2023-08-17 19:38:06.544199,-139.0
2023-08-17 19:38:06.551888,-177.0
2023-08-17 19:38:06.559577,-210.0
2023-08-17 19:38:06.567267,-210.0
2023-08-17 19:38:06.574956,-203.0
2023-08-17 19:38:06.582645,-215.0
2023-08-17 19:38:06.590335,-218.0
2023-08-17 19:38:06.598024,-198.0
2023-08-17 19:38:06.605713,-196.0
2023-08-17 19:38:06.613402,-203.0
2023-08-17 19:38:06.621092,-191.0
2023-08-17 19:38:06.628781,-179.0
2023-08-17 19:38:06.636470,-179.0
2023-08-17 19:38:06.644159,-177.0
2023-08-17 19:38:06.651849,-167.0
2023-08-17 19:38:06.659538,-162.0
2023-08-17 19:38:06.667227,-162.0
2023-08-17 19:38:06.674917,-160.0
2023-08-17 19:38:06.682606,-150.0
2023-08-17 19:38:06.690295,-139.0
2023-08-17 19:38:06.697984,-134.0
2023-08-17 19:38:06.705674,-134.0
2023-08-17 19:38:06.713363,-139.0
2023-08-17 19:38:06.721052,-146.0
2023-08-17 19:38:06.728742,-143.0
2023-08-17 19:38:06.736431,-136.0
2023-08-17 19:38:06.744120,-129.0
2023-08-17 19:38:06.751809,-136.0
2023-08-17 19:38:06.759499,-143.0
2023-08-17 19:38:06.767188,-129.0
2023-08-17 19:38:06.774877,-112.0
2023-08-17 19:38:06.782566,-122.0
2023-08-17 19:38:06.790256,-127.0
2023-08-17 19:38:06.797945,-115.0
2023-08-17 19:38:06.805634,-112.0
2023-08-17 19:38:06.813324,-115.0
2023-08-17 19:38:06.821013,-112.0
2023-08-17 19:38:06.828702,-115.0
2023-08-17 19:38:06.836391,-117.0
2023-08-17 19:38:06.844081,-112.0
2023-08-17 19:38:06.851770,-110.0
2023-08-17 19:38:06.859459,-105.0
2023-08-17 19:38:06.867149,-103.0
2023-08-17 19:38:06.874838,-100.0
2023-08-17 19:38:06.882527,-91.0
2023-08-17 19:38:06.890216,-81.0
2023-08-17 19:38:06.897906,-86.0
2023-08-17 19:38:06.905595,-91.0
2023-08-17 19:38:06.913284,-95.0
2023-08-17 19:38:06.920973,-103.0
2023-08-17 19:38:06.928663,-100.0
2023-08-17 19:38:06.936352,-98.0
2023-08-17 19:38:06.944041,-95.0
2023-08-17 19:38:06.951731,-86.0
2023-08-17 19:38:06.959420,-86.0
2023-08-17 19:38:06.967109,-88.0
2023-08-17 19:38:06.974798,-76.0
2023-08-17 19:38:06.982488,-74.0
2023-08-17 19:38:06.990177,-83.0
2023-08-17 19:38:06.997866,-86.0
2023-08-17 19:38:07.005556,-83.0
2023-08-17 19:38:07.013245,-83.0
2023-08-17 19:38:07.020934,-79.0
2023-08-17 19:38:07.028623,-71.0
2023-08-17 19:38:07.036313,-69.0
2023-08-17 19:38:07.044002,-74.0
2023-08-17 19:38:07.051691,-79.0
2023-08-17 19:38:07.059381,-74.0
2023-08-17 19:38:07.067070,-71.0
2023-08-17 19:38:07.074759,-71.0
2023-08-17 19:38:07.082448,-57.0
2023-08-17 19:38:07.090138,-38.0
2023-08-17 19:38:07.097827,-35.0
2023-08-17 19:38:07.105516,-31.0
2023-08-17 19:38:07.113205,-14.0
2023-08-17 19:38:07.120895,-11.0
2023-08-17 19:38:07.128584,-35.0
2023-08-17 19:38:07.136273,-62.0
2023-08-17 19:38:07.143963,-71.0
2023-08-17 19:38:07.151652,-83.0
2023-08-17 19:38:07.159341,-95.0
2023-08-17 19:38:07.167030,-93.0
2023-08-17 19:38:07.174720,-91.0
2023-08-17 19:38:07.182409,-98.0
2023-08-17 19:38:07.190098,-95.0
2023-08-17 19:38:07.197788,-95.0
2023-08-17 19:38:07.205477,-91.0
2023-08-17 19:38:07.213166,2.0
2023-08-17 19:38:07.220855,258.0
2023-08-17 19:38:07.228545,536.0
2023-08-17 19:38:07.236234,532.0
2023-08-17 19:38:07.243923,158.0
2023-08-17 19:38:07.251612,-258.0
2023-08-17 19:38:07.259302,-364.0
2023-08-17 19:38:07.266991,-194.0
2023-08-17 19:38:07.274680,-50.0
2023-08-17 19:38:07.282370,-67.0
2023-08-17 19:38:07.290059,-100.0
2023-08-17 19:38:07.297748,-79.0
2023-08-17 19:38:07.305437,-71.0
2023-08-17 19:38:07.313127,-74.0
2023-08-17 19:38:07.320816,-57.0
2023-08-17 19:38:07.328505,-50.0
2023-08-17 19:38:07.336195,-50.0
2023-08-17 19:38:07.343884,-40.0
2023-08-17 19:38:07.351573,-31.0
2023-08-17 19:38:07.359262,-26.0
2023-08-17 19:38:07.366952,-9.0
2023-08-17 19:38:07.374641,4.0
2023-08-17 19:38:07.382330,11.0
2023-08-17 19:38:07.390019,31.0
2023-08-17 19:38:07.397709,55.0
2023-08-17 19:38:07.405398,64.0
2023-08-17 19:38:07.413087,79.0
2023-08-17 19:38:07.420777,110.0
2023-08-17 19:38:07.428466,131.0
2023-08-17 19:38:07.436155,158.0
2023-08-17 19:38:07.443844,191.0
2023-08-17 19:38:07.451534,215.0
2023-08-17 19:38:07.459223,239.0
2023-08-17 19:38:07.466912,263.0
2023-08-17 19:38:07.474602,270.0
2023-08-17 19:38:07.482291,261.0
2023-08-17 19:38:07.489980,246.0
2023-08-17 19:38:07.497669,206.0
2023-08-17 19:38:07.505359,131.0
2023-08-17 19:38:07.513048,59.0
2023-08-17 19:38:07.520737,-2.0
2023-08-17 19:38:07.528426,-69.0
2023-08-17 19:38:07.536116,-129.0
2023-08-17 19:38:07.543805,-170.0
2023-08-17 19:38:07.551494,-198.0
2023-08-17 19:38:07.559184,-218.0
2023-08-17 19:38:07.566873,-222.0
2023-08-17 19:38:07.574562,-210.0
2023-08-17 19:38:07.582251,-198.0
2023-08-17 19:38:07.589941,-201.0
2023-08-17 19:38:07.597630,-208.0
2023-08-17 19:38:07.605319,-203.0
2023-08-17 19:38:07.613009,-184.0
2023-08-17 19:38:07.620698,-177.0
2023-08-17 19:38:07.628387,-179.0
2023-08-17 19:38:07.636076,-182.0
2023-08-17 19:38:07.643766,-179.0
2023-08-17 19:38:07.651455,-160.0
2023-08-17 19:38:07.659144,-136.0
2023-08-17 19:38:07.666833,-139.0
2023-08-17 19:38:07.674523,-146.0
2023-08-17 19:38:07.682212,-143.0
2023-08-17 19:38:07.689901,-141.0
2023-08-17 19:38:07.697591,-136.0
2023-08-17 19:38:07.705280,-129.0
2023-08-17 19:38:07.712969,-134.0
2023-08-17 19:38:07.720658,-136.0
2023-08-17 19:38:07.728348,-129.0
2023-08-17 19:38:07.736037,-127.0
2023-08-17 19:38:07.743726,-131.0
2023-08-17 19:38:07.751416,-129.0
2023-08-17 19:38:07.759105,-122.0
2023-08-17 19:38:07.766794,-124.0
2023-08-17 19:38:07.774483,-136.0
2023-08-17 19:38:07.782173,-134.0
2023-08-17 19:38:07.789862,-119.0
2023-08-17 19:38:07.797551,-117.0
2023-08-17 19:38:07.805241,-119.0
2023-08-17 19:38:07.812930,-117.0
2023-08-17 19:38:07.820619,-119.0
2023-08-17 19:38:07.828308,-129.0
2023-08-17 19:38:07.835998,-119.0
2023-08-17 19:38:07.843687,-100.0
2023-08-17 19:38:07.851376,-103.0
2023-08-17 19:38:07.859065,-115.0
2023-08-17 19:38:07.866755,-107.0
2023-08-17 19:38:07.874444,-93.0
2023-08-17 19:38:07.882133,-86.0
2023-08-17 19:38:07.889823,-86.0
2023-08-17 19:38:07.897512,-86.0
2023-08-17 19:38:07.905201,-91.0
2023-08-17 19:38:07.912890,-98.0
2023-08-17 19:38:07.920580,-103.0
2023-08-17 19:38:07.928269,-100.0
2023-08-17 19:38:07.935958,-95.0
2023-08-17 19:38:07.943648,-88.0
2023-08-17 19:38:07.951337,-86.0
2023-08-17 19:38:07.959026,-86.0
2023-08-17 19:38:07.966715,-86.0
2023-08-17 19:38:07.974405,-83.0
2023-08-17 19:38:07.982094,-83.0
2023-08-17 19:38:07.989783,-81.0
2023-08-17 19:38:07.997472,-83.0
2023-08-17 19:38:08.005162,-88.0
2023-08-17 19:38:08.012851,-81.0
2023-08-17 19:38:08.020540,-76.0
2023-08-17 19:38:08.028230,-76.0
2023-08-17 19:38:08.035919,-69.0
2023-08-17 19:38:08.043608,-67.0
2023-08-17 19:38:08.051297,-76.0
2023-08-17 19:38:08.058987,-74.0
2023-08-17 19:38:08.066676,-69.0
2023-08-17 19:38:08.074365,-64.0
2023-08-17 19:38:08.082055,-52.0
2023-08-17 19:38:08.089744,-43.0
2023-08-17 19:38:08.097433,-40.0
2023-08-17 19:38:08.105122,-23.0
2023-08-17 19:38:08.112812,-7.0
2023-08-17 19:38:08.120501,-28.0
2023-08-17 19:38:08.128190,-55.0
2023-08-17 19:38:08.135879,-55.0
2023-08-17 19:38:08.143569,-67.0
2023-08-17 19:38:08.151258,-88.0
2023-08-17 19:38:08.158947,-76.0
2023-08-17 19:38:08.166637,-74.0
2023-08-17 19:38:08.174326,-98.0
2023-08-17 19:38:08.182015,-103.0
2023-08-17 19:38:08.189704,-95.0
2023-08-17 19:38:08.197394,-76.0
2023-08-17 19:38:08.205083,31.0
2023-08-17 19:38:08.212772,297.0
2023-08-17 19:38:08.220462,587.0
2023-08-17 19:38:08.228151,560.0
2023-08-17 19:38:08.235840,127.0
2023-08-17 19:38:08.243529,-333.0
2023-08-17 19:38:08.251219,-400.0
2023-08-17 19:38:08.258908,-160.0
2023-08-17 19:38:08.266597,-21.0
2023-08-17 19:38:08.274286,-69.0
2023-08-17 19:38:08.281976,-91.0
2023-08-17 19:38:08.289665,-57.0
2023-08-17 19:38:08.297354,-57.0
2023-08-17 19:38:08.305044,-69.0
2023-08-17 19:38:08.312733,-67.0
2023-08-17 19:38:08.320422,-67.0
2023-08-17 19:38:08.328111,-55.0
2023-08-17 19:38:08.335801,-38.0
2023-08-17 19:38:08.343490,-26.0
2023-08-17 19:38:08.351179,-9.0
2023-08-17 19:38:08.358869,2.0
2023-08-17 19:38:08.366558,4.0
2023-08-17 19:38:08.374247,14.0
2023-08-17 19:38:08.381936,38.0
2023-08-17 19:38:08.389626,52.0
2023-08-17 19:38:08.397315,62.0
2023-08-17 19:38:08.405004,91.0
2023-08-17 19:38:08.412693,122.0
2023-08-17 19:38:08.420383,141.0
2023-08-17 19:38:08.428072,165.0
2023-08-17 19:38:08.435761,191.0
2023-08-17 19:38:08.443451,213.0
2023-08-17 19:38:08.451140,234.0
2023-08-17 19:38:08.458829,254.0
2023-08-17 19:38:08.466518,254.0
2023-08-17 19:38:08.474208,239.0
2023-08-17 19:38:08.481897,215.0
2023-08-17 19:38:08.489586,172.0
2023-08-17 19:38:08.497276,115.0
2023-08-17 19:38:08.504965,45.0
2023-08-17 19:38:08.512654,-28.0
2023-08-17 19:38:08.520343,-88.0
2023-08-17 19:38:08.528033,-131.0
2023-08-17 19:38:08.535722,-170.0
2023-08-17 19:38:08.543411,-198.0
2023-08-17 19:38:08.551100,-206.0
2023-08-17 19:38:08.558790,-206.0
2023-08-17 19:38:08.566479,-210.0
2023-08-17 19:38:08.574168,-208.0
2023-08-17 19:38:08.581858,-208.0
2023-08-17 19:38:08.589547,-206.0
2023-08-17 19:38:08.597236,-194.0
2023-08-17 19:38:08.604925,-179.0
2023-08-17 19:38:08.612615,-174.0
2023-08-17 19:38:08.620304,-170.0
2023-08-17 19:38:08.627993,-162.0
2023-08-17 19:38:08.635683,-160.0
2023-08-17 19:38:08.643372,-150.0
2023-08-17 19:38:08.651061,-143.0
2023-08-17 19:38:08.658750,-146.0
2023-08-17 19:38:08.666440,-146.0
2023-08-17 19:38:08.674129,-131.0
2023-08-17 19:38:08.681818,-124.0
2023-08-17 19:38:08.689508,-131.0
2023-08-17 19:38:08.697197,-131.0
2023-08-17 19:38:08.704886,-122.0
2023-08-17 19:38:08.712575,-119.0
2023-08-17 19:38:08.720265,-124.0
2023-08-17 19:38:08.727954,-124.0
2023-08-17 19:38:08.735643,-122.0
2023-08-17 19:38:08.743332,-115.0
2023-08-17 19:38:08.751022,-115.0
2023-08-17 19:38:08.758711,-127.0
2023-08-17 19:38:08.766400,-131.0
2023-08-17 19:38:08.774090,-117.0
2023-08-17 19:38:08.781779,-98.0
2023-08-17 19:38:08.789468,-107.0
2023-08-17 19:38:08.797157,-119.0
2023-08-17 19:38:08.804847,-107.0
2023-08-17 19:38:08.812536,-93.0
2023-08-17 19:38:08.820225,-100.0
2023-08-17 19:38:08.827915,-107.0
2023-08-17 19:38:08.835604,-100.0
2023-08-17 19:38:08.843293,-98.0
2023-08-17 19:38:08.850982,-112.0
2023-08-17 19:38:08.858672,-117.0
2023-08-17 19:38:08.866361,-100.0
2023-08-17 19:38:08.874050,-86.0
2023-08-17 19:38:08.881739,-91.0
2023-08-17 19:38:08.889429,-98.0
2023-08-17 19:38:08.897118,-95.0
2023-08-17 19:38:08.904807,-88.0
2023-08-17 19:38:08.912497,-83.0
2023-08-17 19:38:08.920186,-83.0
2023-08-17 19:38:08.927875,-88.0
2023-08-17 19:38:08.935564,-93.0
2023-08-17 19:38:08.943254,-98.0
2023-08-17 19:38:08.950943,-95.0
2023-08-17 19:38:08.958632,-88.0
2023-08-17 19:38:08.966322,-81.0
2023-08-17 19:38:08.974011,-86.0
2023-08-17 19:38:08.981700,-93.0
2023-08-17 19:38:08.989389,-100.0
2023-08-17 19:38:08.997079,-93.0
2023-08-17 19:38:09.004768,-81.0
2023-08-17 19:38:09.012457,-81.0
2023-08-17 19:38:09.020146,-88.0
2023-08-17 19:38:09.027836,-88.0
2023-08-17 19:38:09.035525,-81.0
2023-08-17 19:38:09.043214,-74.0
2023-08-17 19:38:09.050904,-76.0
2023-08-17 19:38:09.058593,-86.0
2023-08-17 19:38:09.066282,-88.0
2023-08-17 19:38:09.073971,-81.0
2023-08-17 19:38:09.081661,-76.0
2023-08-17 19:38:09.089350,-67.0
2023-08-17 19:38:09.097039,-52.0
2023-08-17 19:38:09.104729,-45.0
2023-08-17 19:38:09.112418,-47.0
2023-08-17 19:38:09.120107,-38.0
2023-08-17 19:38:09.127796,-26.0
2023-08-17 19:38:09.135486,-40.0
2023-08-17 19:38:09.143175,-62.0
2023-08-17 19:38:09.150864,-67.0
2023-08-17 19:38:09.158553,-79.0
2023-08-17 19:38:09.166243,-91.0
2023-08-17 19:38:09.173932,-93.0
2023-08-17 19:38:09.181621,-98.0
2023-08-17 19:38:09.189311,-93.0
2023-08-17 19:38:09.197000,-81.0
2023-08-17 19:38:09.204689,-81.0
2023-08-17 19:38:09.212378,-45.0
2023-08-17 19:38:09.220068,117.0
2023-08-17 19:38:09.227757,414.0
2023-08-17 19:38:09.235446,594.0
2023-08-17 19:38:09.243136,373.0
2023-08-17 19:38:09.250825,-79.0
2023-08-17 19:38:09.258514,-342.0
2023-08-17 19:38:09.266203,-273.0
2023-08-17 19:38:09.273893,-71.0
2023-08-17 19:38:09.281582,-4.0
2023-08-17 19:38:09.289271,-69.0
2023-08-17 19:38:09.296960,-83.0
2023-08-17 19:38:09.304650,-57.0
2023-08-17 19:38:09.312339,-57.0
2023-08-17 19:38:09.320028,-59.0
2023-08-17 19:38:09.327718,-43.0
2023-08-17 19:38:09.335407,-33.0
2023-08-17 19:38:09.343096,-28.0
2023-08-17 19:38:09.350785,-28.0
2023-08-17 19:38:09.358475,-19.0
2023-08-17 19:38:09.366164,2.0
2023-08-17 19:38:09.373853,14.0
2023-08-17 19:38:09.381543,23.0
2023-08-17 19:38:09.389232,31.0
2023-08-17 19:38:09.396921,31.0
2023-08-17 19:38:09.404610,43.0
2023-08-17 19:38:09.412300,79.0
2023-08-17 19:38:09.419989,110.0
2023-08-17 19:38:09.427678,122.0
2023-08-17 19:38:09.435367,136.0
2023-08-17 19:38:09.443057,158.0
2023-08-17 19:38:09.450746,186.0
2023-08-17 19:38:09.458435,218.0
2023-08-17 19:38:09.466125,234.0
2023-08-17 19:38:09.473814,244.0
2023-08-17 19:38:09.481503,244.0
2023-08-17 19:38:09.489192,232.0
2023-08-17 19:38:09.496882,206.0
2023-08-17 19:38:09.504571,170.0
2023-08-17 19:38:09.512260,110.0
2023-08-17 19:38:09.519950,28.0
2023-08-17 19:38:09.527639,-47.0
2023-08-17 19:38:09.535328,-98.0
2023-08-17 19:38:09.543017,-143.0
2023-08-17 19:38:09.550707,-179.0
2023-08-17 19:38:09.558396,-194.0
2023-08-17 19:38:09.566085,-196.0
2023-08-17 19:38:09.573775,-203.0
2023-08-17 19:38:09.581464,-206.0
2023-08-17 19:38:09.589153,-198.0
2023-08-17 19:38:09.596842,-198.0
2023-08-17 19:38:09.604532,-196.0
2023-08-17 19:38:09.612221,-184.0
2023-08-17 19:38:09.619910,-179.0
2023-08-17 19:38:09.627599,-179.0
2023-08-17 19:38:09.635289,-170.0
2023-08-17 19:38:09.642978,-150.0
2023-08-17 19:38:09.650667,-136.0
2023-08-17 19:38:09.658357,-141.0
2023-08-17 19:38:09.666046,-141.0
2023-08-17 19:38:09.673735,-131.0
2023-08-17 19:38:09.681424,-127.0
2023-08-17 19:38:09.689114,-131.0
2023-08-17 19:38:09.696803,-134.0
2023-08-17 19:38:09.704492,-131.0
2023-08-17 19:38:09.712182,-134.0
2023-08-17 19:38:09.719871,-119.0
2023-08-17 19:38:09.727560,-107.0
2023-08-17 19:38:09.735249,-117.0
2023-08-17 19:38:09.742939,-119.0
2023-08-17 19:38:09.750628,-122.0
2023-08-17 19:38:09.758317,-129.0
2023-08-17 19:38:09.766006,-115.0
2023-08-17 19:38:09.773696,-98.0
2023-08-17 19:38:09.781385,-107.0
2023-08-17 19:38:09.789074,-115.0
2023-08-17 19:38:09.796764,-107.0
2023-08-17 19:38:09.804453,-100.0
2023-08-17 19:38:09.812142,-98.0
2023-08-17 19:38:09.819831,-105.0
2023-08-17 19:38:09.827521,-110.0
2023-08-17 19:38:09.835210,-105.0
2023-08-17 19:38:09.842899,-105.0
2023-08-17 19:38:09.850589,-105.0
2023-08-17 19:38:09.858278,-100.0
2023-08-17 19:38:09.865967,-95.0
2023-08-17 19:38:09.873656,-98.0
2023-08-17 19:38:09.881346,-98.0
2023-08-17 19:38:09.889035,-95.0
2023-08-17 19:38:09.896724,-95.0
2023-08-17 19:38:09.904413,-93.0
2023-08-17 19:38:09.912103,-81.0
2023-08-17 19:38:09.919792,-83.0
2023-08-17 19:38:09.927481,-100.0
2023-08-17 19:38:09.935171,-100.0
2023-08-17 19:38:09.942860,-98.0
2023-08-17 19:38:09.950549,-103.0
2023-08-17 19:38:09.958238,-103.0
2023-08-17 19:38:09.965928,-100.0
2023-08-17 19:38:09.973617,-98.0
2023-08-17 19:38:09.981306,-117.0
2023-08-17 19:38:09.988996,-134.0
2023-08-17 19:38:09.996685,-115.0
2023-08-17 19:38:10.004374,-100.0
2023-08-17 19:38:10.012063,-100.0
2023-08-17 19:38:10.019753,-95.0
2023-08-17 19:38:10.027442,-93.0
2023-08-17 19:38:10.035131,-100.0
2023-08-17 19:38:10.042820,-100.0
2023-08-17 19:38:10.050510,-91.0
2023-08-17 19:38:10.058199,-83.0
2023-08-17 19:38:10.065888,-91.0
2023-08-17 19:38:10.073578,-95.0
2023-08-17 19:38:10.081267,-86.0
2023-08-17 19:38:10.088956,-67.0
2023-08-17 19:38:10.096645,-55.0
2023-08-17 19:38:10.104335,-50.0
2023-08-17 19:38:10.112024,-35.0
2023-08-17 19:38:10.119713,-19.0
2023-08-17 19:38:10.127403,-33.0
2023-08-17 19:38:10.135092,-55.0
2023-08-17 19:38:10.142781,-57.0
2023-08-17 19:38:10.150470,-59.0
2023-08-17 19:38:10.158160,-76.0
2023-08-17 19:38:10.165849,-91.0
2023-08-17 19:38:10.173538,-91.0
2023-08-17 19:38:10.181227,-88.0
2023-08-17 19:38:10.188917,-79.0
2023-08-17 19:38:10.196606,-76.0
2023-08-17 19:38:10.204295,-88.0
2023-08-17 19:38:10.211985,-52.0
2023-08-17 19:38:10.219674,119.0
2023-08-17 19:38:10.227363,421.0
2023-08-17 19:38:10.235052,603.0
2023-08-17 19:38:10.242742,371.0
2023-08-17 19:38:10.250431,-131.0
2023-08-17 19:38:10.258120,-417.0
2023-08-17 19:38:10.265810,-268.0
2023-08-17 19:38:10.273499,-35.0
2023-08-17 19:38:10.281188,-28.0
2023-08-17 19:38:10.288877,-76.0
2023-08-17 19:38:10.296567,-40.0
2023-08-17 19:38:10.304256,-21.0
2023-08-17 19:38:10.311945,-43.0
2023-08-17 19:38:10.319634,-33.0
2023-08-17 19:38:10.327324,-16.0
2023-08-17 19:38:10.335013,-19.0
2023-08-17 19:38:10.342702,-21.0
2023-08-17 19:38:10.350392,-11.0
2023-08-17 19:38:10.358081,-2.0
2023-08-17 19:38:10.365770,2.0
2023-08-17 19:38:10.373459,16.0
2023-08-17 19:38:10.381149,43.0
2023-08-17 19:38:10.388838,69.0
2023-08-17 19:38:10.396527,83.0
2023-08-17 19:38:10.404217,88.0
2023-08-17 19:38:10.411906,103.0
2023-08-17 19:38:10.419595,131.0
2023-08-17 19:38:10.427284,155.0
2023-08-17 19:38:10.434974,182.0
2023-08-17 19:38:10.442663,208.0
2023-08-17 19:38:10.450352,227.0
2023-08-17 19:38:10.458042,251.0
2023-08-17 19:38:10.465731,278.0
2023-08-17 19:38:10.473420,280.0
2023-08-17 19:38:10.481109,278.0
2023-08-17 19:38:10.488799,275.0
2023-08-17 19:38:10.496488,246.0
2023-08-17 19:38:10.504177,191.0
2023-08-17 19:38:10.511866,119.0
2023-08-17 19:38:10.519556,31.0
2023-08-17 19:38:10.527245,-31.0
2023-08-17 19:38:10.534934,-59.0
2023-08-17 19:38:10.542624,-110.0
2023-08-17 19:38:10.550313,-170.0
2023-08-17 19:38:10.558002,-182.0
2023-08-17 19:38:10.565691,-174.0
2023-08-17 19:38:10.573381,-189.0
2023-08-17 19:38:10.581070,-218.0
2023-08-17 19:38:10.588759,-230.0
2023-08-17 19:38:10.596449,-218.0
2023-08-17 19:38:10.604138,-206.0
2023-08-17 19:38:10.611827,-203.0
2023-08-17 19:38:10.619516,-198.0
2023-08-17 19:38:10.627206,-191.0
2023-08-17 19:38:10.634895,-189.0
2023-08-17 19:38:10.642584,-184.0
2023-08-17 19:38:10.650273,-167.0
2023-08-17 19:38:10.657963,-117.0
2023-08-17 19:38:10.665652,81.0
2023-08-17 19:38:10.673341,445.0
2023-08-17 19:38:10.681031,601.0
2023-08-17 19:38:10.688720,220.0
2023-08-17 19:38:10.696409,-340.0
2023-08-17 19:38:10.704098,-534.0
2023-08-17 19:38:10.711788,-328.0
2023-08-17 19:38:10.719477,-88.0
2023-08-17 19:38:10.727166,-79.0
2023-08-17 19:38:10.734856,-139.0
2023-08-17 19:38:10.742545,-117.0
2023-08-17 19:38:10.750234,-95.0
2023-08-17 19:38:10.757923,-98.0
2023-08-17 19:38:10.765613,-86.0
2023-08-17 19:38:10.773302,-83.0
2023-08-17 19:38:10.780991,-91.0
2023-08-17 19:38:10.788680,-81.0
2023-08-17 19:38:10.796370,-62.0
2023-08-17 19:38:10.804059,-47.0
2023-08-17 19:38:10.811748,-38.0
2023-08-17 19:38:10.819438,-28.0
2023-08-17 19:38:10.827127,-21.0
2023-08-17 19:38:10.834816,-14.0
2023-08-17 19:38:10.842505,2.0
2023-08-17 19:38:10.850195,19.0
2023-08-17 19:38:10.857884,28.0
2023-08-17 19:38:10.865573,45.0
2023-08-17 19:38:10.873263,71.0
2023-08-17 19:38:10.880952,91.0
2023-08-17 19:38:10.888641,107.0
2023-08-17 19:38:10.896330,119.0
2023-08-17 19:38:10.904020,122.0
2023-08-17 19:38:10.911709,127.0
2023-08-17 19:38:10.919398,136.0
2023-08-17 19:38:10.927087,127.0
2023-08-17 19:38:10.934777,103.0
2023-08-17 19:38:10.942466,71.0
2023-08-17 19:38:10.950155,23.0
2023-08-17 19:38:10.957845,-43.0
2023-08-17 19:38:10.965534,-112.0
2023-08-17 19:38:10.973223,-148.0
2023-08-17 19:38:10.980912,-174.0
2023-08-17 19:38:10.988602,-208.0
2023-08-17 19:38:10.996291,-222.0
2023-08-17 19:38:11.003980,-208.0
2023-08-17 19:38:11.011670,-208.0
2023-08-17 19:38:11.019359,-215.0
2023-08-17 19:38:11.027048,-210.0
2023-08-17 19:38:11.034737,-206.0
2023-08-17 19:38:11.042427,-201.0
2023-08-17 19:38:11.050116,-191.0
2023-08-17 19:38:11.057805,-184.0
2023-08-17 19:38:11.065494,-177.0
2023-08-17 19:38:11.073184,-174.0
2023-08-17 19:38:11.080873,-170.0
2023-08-17 19:38:11.088562,-167.0
2023-08-17 19:38:11.096252,-174.0
2023-08-17 19:38:11.103941,-179.0
2023-08-17 19:38:11.111630,-170.0
2023-08-17 19:38:11.119319,-162.0
2023-08-17 19:38:11.127009,-172.0
2023-08-17 19:38:11.134698,-167.0
2023-08-17 19:38:11.142387,-150.0
2023-08-17 19:38:11.150077,-146.0
2023-08-17 19:38:11.157766,-150.0
2023-08-17 19:38:11.165455,-143.0
2023-08-17 19:38:11.173144,-141.0
2023-08-17 19:38:11.180834,-150.0
2023-08-17 19:38:11.188523,-150.0
2023-08-17 19:38:11.196212,-141.0
2023-08-17 19:38:11.203902,-136.0
2023-08-17 19:38:11.211591,-134.0
2023-08-17 19:38:11.219280,-119.0
2023-08-17 19:38:11.226969,-107.0
2023-08-17 19:38:11.234659,-117.0
2023-08-17 19:38:11.242348,-122.0
2023-08-17 19:38:11.250037,-110.0
2023-08-17 19:38:11.257726,-112.0
2023-08-17 19:38:11.265416,-115.0
2023-08-17 19:38:11.273105,-105.0
2023-08-17 19:38:11.280794,-100.0
2023-08-17 19:38:11.288484,-103.0
2023-08-17 19:38:11.296173,-100.0
2023-08-17 19:38:11.303862,-95.0
2023-08-17 19:38:11.311551,-95.0
2023-08-17 19:38:11.319241,-98.0
2023-08-17 19:38:11.326930,-93.0
2023-08-17 19:38:11.334619,-86.0
2023-08-17 19:38:11.342309,-83.0
2023-08-17 19:38:11.349998,-81.0
2023-08-17 19:38:11.357687,-69.0
2023-08-17 19:38:11.365376,-69.0
2023-08-17 19:38:11.373066,-81.0
2023-08-17 19:38:11.380755,-76.0
2023-08-17 19:38:11.388444,-62.0
2023-08-17 19:38:11.396133,-67.0
2023-08-17 19:38:11.403823,-76.0
2023-08-17 19:38:11.411512,-76.0
2023-08-17 19:38:11.419201,-76.0
2023-08-17 19:38:11.426891,-71.0
2023-08-17 19:38:11.434580,-59.0
2023-08-17 19:38:11.442269,-59.0
2023-08-17 19:38:11.449958,-64.0
2023-08-17 19:38:11.457648,-67.0
2023-08-17 19:38:11.465337,-69.0
2023-08-17 19:38:11.473026,-76.0
2023-08-17 19:38:11.480716,-74.0
2023-08-17 19:38:11.488405,-62.0
2023-08-17 19:38:11.496094,-59.0
2023-08-17 19:38:11.503783,-64.0
2023-08-17 19:38:11.511473,-57.0
2023-08-17 19:38:11.519162,-55.0
2023-08-17 19:38:11.526851,-57.0
2023-08-17 19:38:11.534540,-57.0
2023-08-17 19:38:11.542230,-47.0
2023-08-17 19:38:11.549919,-50.0
2023-08-17 19:38:11.557608,-59.0
2023-08-17 19:38:11.565298,-62.0
2023-08-17 19:38:11.572987,-55.0
2023-08-17 19:38:11.580676,-52.0
2023-08-17 19:38:11.588365,-50.0
2023-08-17 19:38:11.596055,-52.0
2023-08-17 19:38:11.603744,-55.0
2023-08-17 19:38:11.611433,-47.0
2023-08-17 19:38:11.619123,-28.0
2023-08-17 19:38:11.626812,-23.0
2023-08-17 19:38:11.634501,-26.0
2023-08-17 19:38:11.642190,-9.0
2023-08-17 19:38:11.649880,2.0
2023-08-17 19:38:11.657569,-4.0
2023-08-17 19:38:11.665258,-16.0
2023-08-17 19:38:11.672947,-31.0
2023-08-17 19:38:11.680637,-45.0
2023-08-17 19:38:11.688326,-59.0
2023-08-17 19:38:11.696015,-71.0
2023-08-17 19:38:11.703705,-81.0
2023-08-17 19:38:11.711394,-83.0
2023-08-17 19:38:11.719083,-74.0
2023-08-17 19:38:11.726772,-59.0
2023-08-17 19:38:11.734462,-33.0
2023-08-17 19:38:11.742151,105.0
2023-08-17 19:38:11.749840,393.0
2023-08-17 19:38:11.757530,594.0
2023-08-17 19:38:11.765219,450.0
2023-08-17 19:38:11.772908,59.0
2023-08-17 19:38:11.780597,-242.0
2023-08-17 19:38:11.788287,-258.0
2023-08-17 19:38:11.795976,-86.0
2023-08-17 19:38:11.803665,-7.0
2023-08-17 19:38:11.811354,-57.0
2023-08-17 19:38:11.819044,-67.0
2023-08-17 19:38:11.826733,-38.0
2023-08-17 19:38:11.834422,-40.0
2023-08-17 19:38:11.842112,-47.0
2023-08-17 19:38:11.849801,-31.0
2023-08-17 19:38:11.857490,-19.0
2023-08-17 19:38:11.865179,-26.0
2023-08-17 19:38:11.872869,-23.0
2023-08-17 19:38:11.880558,-2.0
2023-08-17 19:38:11.888247,7.0
2023-08-17 19:38:11.895937,2.0
2023-08-17 19:38:11.903626,9.0
2023-08-17 19:38:11.911315,33.0
2023-08-17 19:38:11.919004,50.0
2023-08-17 19:38:11.926694,55.0
2023-08-17 19:38:11.934383,71.0
2023-08-17 19:38:11.942072,93.0
2023-08-17 19:38:11.949761,105.0
2023-08-17 19:38:11.957451,115.0
2023-08-17 19:38:11.965140,136.0
2023-08-17 19:38:11.972829,162.0
2023-08-17 19:38:11.980519,179.0
2023-08-17 19:38:11.988208,194.0
2023-08-17 19:38:11.995897,201.0
2023-08-17 19:38:12.003586,210.0
2023-08-17 19:38:12.011276,222.0
2023-08-17 19:38:12.018965,230.0
2023-08-17 19:38:12.026654,210.0
2023-08-17 19:38:12.034344,167.0
2023-08-17 19:38:12.042033,110.0
2023-08-17 19:38:12.049722,45.0
2023-08-17 19:38:12.057411,-14.0
2023-08-17 19:38:12.065101,-64.0
2023-08-17 19:38:12.072790,-105.0
2023-08-17 19:38:12.080479,-139.0
2023-08-17 19:38:12.088169,-160.0
2023-08-17 19:38:12.095858,-182.0
2023-08-17 19:38:12.103547,-198.0
2023-08-17 19:38:12.111236,-206.0
2023-08-17 19:38:12.118926,-203.0
2023-08-17 19:38:12.126615,-189.0
2023-08-17 19:38:12.134304,-177.0
2023-08-17 19:38:12.141993,-179.0
2023-08-17 19:38:12.149683,-177.0
2023-08-17 19:38:12.157372,-162.0
2023-08-17 19:38:12.165061,-162.0
2023-08-17 19:38:12.172751,-172.0
2023-08-17 19:38:12.180440,-170.0
2023-08-17 19:38:12.188129,-162.0
2023-08-17 19:38:12.195818,-162.0
2023-08-17 19:38:12.203508,-158.0
2023-08-17 19:38:12.211197,-146.0
2023-08-17 19:38:12.218886,-146.0
2023-08-17 19:38:12.226576,-155.0
2023-08-17 19:38:12.234265,-158.0
2023-08-17 19:38:12.241954,-148.0
2023-08-17 19:38:12.249643,-146.0
2023-08-17 19:38:12.257333,-150.0
2023-08-17 19:38:12.265022,-148.0
2023-08-17 19:38:12.272711,-153.0
2023-08-17 19:38:12.280400,-160.0
2023-08-17 19:38:12.288090,-160.0
2023-08-17 19:38:12.295779,-150.0
2023-08-17 19:38:12.303468,-139.0
2023-08-17 19:38:12.311158,-134.0
2023-08-17 19:38:12.318847,-136.0
2023-08-17 19:38:12.326536,-134.0
2023-08-17 19:38:12.334225,-127.0
2023-08-17 19:38:12.341915,-119.0
2023-08-17 19:38:12.349604,-122.0
2023-08-17 19:38:12.357293,-129.0
2023-08-17 19:38:12.364983,-129.0
2023-08-17 19:38:12.372672,-122.0
2023-08-17 19:38:12.380361,-112.0
2023-08-17 19:38:12.388050,-105.0
2023-08-17 19:38:12.395740,-100.0
2023-08-17 19:38:12.403429,-103.0
2023-08-17 19:38:12.411118,-103.0
2023-08-17 19:38:12.418807,-103.0
2023-08-17 19:38:12.426497,-105.0
2023-08-17 19:38:12.434186,-107.0
2023-08-17 19:38:12.441875,-105.0
2023-08-17 19:38:12.449565,-86.0
2023-08-17 19:38:12.457254,-71.0
2023-08-17 19:38:12.464943,-74.0
2023-08-17 19:38:12.472632,-88.0
2023-08-17 19:38:12.480322,-105.0
2023-08-17 19:38:12.488011,-110.0
2023-08-17 19:38:12.495700,-95.0
2023-08-17 19:38:12.503390,-86.0
2023-08-17 19:38:12.511079,-79.0
2023-08-17 19:38:12.518768,-71.0
2023-08-17 19:38:12.526457,-69.0
2023-08-17 19:38:12.534147,-74.0
2023-08-17 19:38:12.541836,-76.0
2023-08-17 19:38:12.549525,-64.0
2023-08-17 19:38:12.557214,-52.0
2023-08-17 19:38:12.564904,-45.0
2023-08-17 19:38:12.572593,-33.0
2023-08-17 19:38:12.580282,-21.0
2023-08-17 19:38:12.587972,-31.0
2023-08-17 19:38:12.595661,-57.0
2023-08-17 19:38:12.603350,-74.0
2023-08-17 19:38:12.611039,-62.0
2023-08-17 19:38:12.618729,-50.0
2023-08-17 19:38:12.626418,-74.0
2023-08-17 19:38:12.634107,-93.0
2023-08-17 19:38:12.641797,-69.0
2023-08-17 19:38:12.649486,-52.0
2023-08-17 19:38:12.657175,-67.0
2023-08-17 19:38:12.664864,-23.0
2023-08-17 19:38:12.672554,160.0
2023-08-17 19:38:12.680243,452.0
2023-08-17 19:38:12.687932,596.0
2023-08-17 19:38:12.695621,364.0
2023-08-17 19:38:12.703311,-110.0
2023-08-17 19:38:12.711000,-388.0
2023-08-17 19:38:12.718689,-246.0
2023-08-17 19:38:12.726379,-14.0
2023-08-17 19:38:12.734068,-7.0
2023-08-17 19:38:12.741757,-69.0
2023-08-17 19:38:12.749446,-47.0
2023-08-17 19:38:12.757136,-21.0
2023-08-17 19:38:12.764825,-23.0
2023-08-17 19:38:12.772514,-28.0
2023-08-17 19:38:12.780204,-31.0
2023-08-17 19:38:12.787893,-31.0
2023-08-17 19:38:12.795582,-19.0
2023-08-17 19:38:12.803271,-7.0
2023-08-17 19:38:12.810961,-7.0
2023-08-17 19:38:12.818650,-2.0
2023-08-17 19:38:12.826339,16.0
2023-08-17 19:38:12.834028,33.0
2023-08-17 19:38:12.841718,38.0
2023-08-17 19:38:12.849407,52.0
2023-08-17 19:38:12.857096,71.0
2023-08-17 19:38:12.864786,74.0
2023-08-17 19:38:12.872475,79.0
2023-08-17 19:38:12.880164,115.0
2023-08-17 19:38:12.887853,160.0
2023-08-17 19:38:12.895543,189.0
2023-08-17 19:38:12.903232,198.0
2023-08-17 19:38:12.910921,220.0
2023-08-17 19:38:12.918611,251.0
2023-08-17 19:38:12.926300,270.0
2023-08-17 19:38:12.933989,275.0
2023-08-17 19:38:12.941678,256.0
2023-08-17 19:38:12.949368,203.0
2023-08-17 19:38:12.957057,153.0
2023-08-17 19:38:12.964746,105.0
2023-08-17 19:38:12.972436,31.0
2023-08-17 19:38:12.980125,-52.0
2023-08-17 19:38:12.987814,-110.0
2023-08-17 19:38:12.995503,-150.0
2023-08-17 19:38:13.003193,-184.0
2023-08-17 19:38:13.010882,-198.0
2023-08-17 19:38:13.018571,-210.0
2023-08-17 19:38:13.026260,-206.0
2023-08-17 19:38:13.033950,-194.0
2023-08-17 19:38:13.041639,-206.0
2023-08-17 19:38:13.049328,-220.0
2023-08-17 19:38:13.057018,-201.0
2023-08-17 19:38:13.064707,-172.0
2023-08-17 19:38:13.072396,-182.0
2023-08-17 19:38:13.080085,-196.0
2023-08-17 19:38:13.087775,-172.0
2023-08-17 19:38:13.095464,-150.0
2023-08-17 19:38:13.103153,-153.0
2023-08-17 19:38:13.110843,-143.0
2023-08-17 19:38:13.118532,-131.0
2023-08-17 19:38:13.126221,-141.0
2023-08-17 19:38:13.133910,-148.0
2023-08-17 19:38:13.141600,-146.0
2023-08-17 19:38:13.149289,-153.0
2023-08-17 19:38:13.156978,-153.0
2023-08-17 19:38:13.164667,-124.0
2023-08-17 19:38:13.172357,-107.0
2023-08-17 19:38:13.180046,-129.0
2023-08-17 19:38:13.187735,-143.0
2023-08-17 19:38:13.195425,-131.0
2023-08-17 19:38:13.203114,-127.0
2023-08-17 19:38:13.210803,-143.0
2023-08-17 19:38:13.218492,-155.0
2023-08-17 19:38:13.226182,-131.0
2023-08-17 19:38:13.233871,-98.0
2023-08-17 19:38:13.241560,-100.0
2023-08-17 19:38:13.249250,-103.0
2023-08-17 19:38:13.256939,-100.0
2023-08-17 19:38:13.264628,-110.0
2023-08-17 19:38:13.272317,-110.0
2023-08-17 19:38:13.280007,-100.0
2023-08-17 19:38:13.287696,-115.0
2023-08-17 19:38:13.295385,-122.0
2023-08-17 19:38:13.303074,-105.0
2023-08-17 19:38:13.310764,-98.0
2023-08-17 19:38:13.318453,-105.0
2023-08-17 19:38:13.326142,-112.0
2023-08-17 19:38:13.333832,-119.0
2023-08-17 19:38:13.341521,-95.0
2023-08-17 19:38:13.349210,-74.0
2023-08-17 19:38:13.356899,-107.0
2023-08-17 19:38:13.364589,-129.0
2023-08-17 19:38:13.372278,-95.0
2023-08-17 19:38:13.379967,-76.0
2023-08-17 19:38:13.387657,-95.0
2023-08-17 19:38:13.395346,-103.0
2023-08-17 19:38:13.403035,-88.0
2023-08-17 19:38:13.410724,-91.0
2023-08-17 19:38:13.418414,-95.0
2023-08-17 19:38:13.426103,-81.0
2023-08-17 19:38:13.433792,-71.0
2023-08-17 19:38:13.441481,-74.0
2023-08-17 19:38:13.449171,-74.0
2023-08-17 19:38:13.456860,-71.0
2023-08-17 19:38:13.464549,-50.0
2023-08-17 19:38:13.472239,-9.0
2023-08-17 19:38:13.479928,-11.0
2023-08-17 19:38:13.487617,-52.0
2023-08-17 19:38:13.495306,-59.0
2023-08-17 19:38:13.502996,-59.0
2023-08-17 19:38:13.510685,-79.0
2023-08-17 19:38:13.518374,-93.0
2023-08-17 19:38:13.526064,-100.0
2023-08-17 19:38:13.533753,-95.0
2023-08-17 19:38:13.541442,-86.0
2023-08-17 19:38:13.549131,-91.0
2023-08-17 19:38:13.556821,-86.0
2023-08-17 19:38:13.564510,14.0
2023-08-17 19:38:13.572199,244.0
2023-08-17 19:38:13.579888,505.0
2023-08-17 19:38:13.587578,546.0
2023-08-17 19:38:13.595267,210.0
2023-08-17 19:38:13.602956,-251.0
2023-08-17 19:38:13.610646,-395.0
2023-08-17 19:38:13.618335,-189.0
2023-08-17 19:38:13.626024,-26.0
2023-08-17 19:38:13.633713,-45.0
2023-08-17 19:38:13.641403,-50.0
2023-08-17 19:38:13.649092,-23.0
2023-08-17 19:38:13.656781,-55.0
2023-08-17 19:38:13.664471,-64.0
2023-08-17 19:38:13.672160,-43.0
2023-08-17 19:38:13.679849,-43.0
2023-08-17 19:38:13.687538,-38.0
2023-08-17 19:38:13.695228,-19.0
2023-08-17 19:38:13.702917,-9.0
2023-08-17 19:38:13.710606,0.0
2023-08-17 19:38:13.718296,9.0
2023-08-17 19:38:13.725985,19.0
2023-08-17 19:38:13.733674,28.0
2023-08-17 19:38:13.741363,40.0
2023-08-17 19:38:13.749053,59.0
2023-08-17 19:38:13.756742,81.0
2023-08-17 19:38:13.764431,100.0
2023-08-17 19:38:13.772120,131.0
2023-08-17 19:38:13.779810,150.0
2023-08-17 19:38:13.787499,160.0
2023-08-17 19:38:13.795188,179.0
2023-08-17 19:38:13.802878,203.0
2023-08-17 19:38:13.810567,215.0
2023-08-17 19:38:13.818256,222.0
2023-08-17 19:38:13.825945,239.0
2023-08-17 19:38:13.833635,246.0
2023-08-17 19:38:13.841324,232.0
2023-08-17 19:38:13.849013,206.0
2023-08-17 19:38:13.856703,160.0
2023-08-17 19:38:13.864392,83.0
2023-08-17 19:38:13.872081,14.0
2023-08-17 19:38:13.879770,-38.0
2023-08-17 19:38:13.887460,-95.0
2023-08-17 19:38:13.895149,-148.0
2023-08-17 19:38:13.902838,-182.0
2023-08-17 19:38:13.910527,-203.0
2023-08-17 19:38:13.918217,-206.0
2023-08-17 19:38:13.925906,-182.0
2023-08-17 19:38:13.933595,-174.0
2023-08-17 19:38:13.941285,-194.0
2023-08-17 19:38:13.948974,-191.0
2023-08-17 19:38:13.956663,-174.0
2023-08-17 19:38:13.964352,-182.0
2023-08-17 19:38:13.972042,-198.0
2023-08-17 19:38:13.979731,-198.0
2023-08-17 19:38:13.987420,-184.0
2023-08-17 19:38:13.995110,-170.0
2023-08-17 19:38:14.002799,-165.0
2023-08-17 19:38:14.010488,-167.0
2023-08-17 19:38:14.018177,-158.0
2023-08-17 19:38:14.025867,-155.0
2023-08-17 19:38:14.033556,-170.0
2023-08-17 19:38:14.041245,-177.0
2023-08-17 19:38:14.048934,-170.0
2023-08-17 19:38:14.056624,-155.0
2023-08-17 19:38:14.064313,-141.0
2023-08-17 19:38:14.072002,-134.0
2023-08-17 19:38:14.079692,-141.0
2023-08-17 19:38:14.087381,-150.0
2023-08-17 19:38:14.095070,-150.0
2023-08-17 19:38:14.102759,-136.0
2023-08-17 19:38:14.110449,-134.0
2023-08-17 19:38:14.118138,-148.0
2023-08-17 19:38:14.125827,-150.0
2023-08-17 19:38:14.133517,-136.0
2023-08-17 19:38:14.141206,-134.0
2023-08-17 19:38:14.148895,-136.0
2023-08-17 19:38:14.156584,-129.0
2023-08-17 19:38:14.164274,-131.0
2023-08-17 19:38:14.171963,-131.0
2023-08-17 19:38:14.179652,-117.0
2023-08-17 19:38:14.187341,-112.0
2023-08-17 19:38:14.195031,-119.0
2023-08-17 19:38:14.202720,-117.0
2023-08-17 19:38:14.210409,-117.0
2023-08-17 19:38:14.218099,-115.0
2023-08-17 19:38:14.225788,-105.0
2023-08-17 19:38:14.233477,-107.0
2023-08-17 19:38:14.241166,-112.0
2023-08-17 19:38:14.248856,-103.0
2023-08-17 19:38:14.256545,-100.0
2023-08-17 19:38:14.264234,-100.0
2023-08-17 19:38:14.271924,-91.0
2023-08-17 19:38:14.279613,-81.0
2023-08-17 19:38:14.287302,-83.0
2023-08-17 19:38:14.294991,-86.0
2023-08-17 19:38:14.302681,-88.0
2023-08-17 19:38:14.310370,-95.0
2023-08-17 19:38:14.318059,-86.0
2023-08-17 19:38:14.325748,-71.0
2023-08-17 19:38:14.333438,-71.0
2023-08-17 19:38:14.341127,-79.0
2023-08-17 19:38:14.348816,-74.0
2023-08-17 19:38:14.356506,-64.0
2023-08-17 19:38:14.364195,-67.0
2023-08-17 19:38:14.371884,-62.0
2023-08-17 19:38:14.379573,-52.0
2023-08-17 19:38:14.387263,-38.0
2023-08-17 19:38:14.394952,-28.0
2023-08-17 19:38:14.402641,-28.0
2023-08-17 19:38:14.410331,-43.0
2023-08-17 19:38:14.418020,-43.0
2023-08-17 19:38:14.425709,-47.0
2023-08-17 19:38:14.433398,-76.0
2023-08-17 19:38:14.441088,-91.0
2023-08-17 19:38:14.448777,-81.0
2023-08-17 19:38:14.456466,-79.0
2023-08-17 19:38:14.464155,-83.0
2023-08-17 19:38:14.471845,-81.0
2023-08-17 19:38:14.479534,-83.0
2023-08-17 19:38:14.487223,-33.0
2023-08-17 19:38:14.494913,148.0
2023-08-17 19:38:14.502602,428.0
2023-08-17 19:38:14.510291,553.0
2023-08-17 19:38:14.517980,299.0
2023-08-17 19:38:14.525670,-160.0
2023-08-17 19:38:14.533359,-405.0
2023-08-17 19:38:14.541048,-270.0
2023-08-17 19:38:14.548738,-59.0
2023-08-17 19:38:14.556427,-43.0
2023-08-17 19:38:14.564116,-95.0
2023-08-17 19:38:14.571805,-83.0
2023-08-17 19:38:14.579495,-69.0
2023-08-17 19:38:14.587184,-71.0
2023-08-17 19:38:14.594873,-59.0
2023-08-17 19:38:14.602563,-45.0
2023-08-17 19:38:14.610252,-43.0
2023-08-17 19:38:14.617941,-45.0
2023-08-17 19:38:14.625630,-33.0
2023-08-17 19:38:14.633320,-16.0
2023-08-17 19:38:14.641009,-14.0
2023-08-17 19:38:14.648698,-4.0
2023-08-17 19:38:14.656387,21.0
2023-08-17 19:38:14.664077,40.0
2023-08-17 19:38:14.671766,50.0
2023-08-17 19:38:14.679455,67.0
2023-08-17 19:38:14.687145,83.0
2023-08-17 19:38:14.694834,100.0
2023-08-17 19:38:14.702523,127.0
2023-08-17 19:38:14.710212,155.0
2023-08-17 19:38:14.717902,186.0
2023-08-17 19:38:14.725591,220.0
2023-08-17 19:38:14.733280,244.0
2023-08-17 19:38:14.740970,254.0
2023-08-17 19:38:14.748659,263.0
2023-08-17 19:38:14.756348,270.0
2023-08-17 19:38:14.764037,261.0
2023-08-17 19:38:14.771727,227.0
2023-08-17 19:38:14.779416,167.0
2023-08-17 19:38:14.787105,95.0
2023-08-17 19:38:14.794794,35.0
2023-08-17 19:38:14.802484,-28.0
2023-08-17 19:38:14.810173,-98.0
2023-08-17 19:38:14.817862,-141.0
2023-08-17 19:38:14.825552,-165.0
2023-08-17 19:38:14.833241,-186.0
2023-08-17 19:38:14.840930,-196.0
2023-08-17 19:38:14.848619,-196.0
2023-08-17 19:38:14.856309,-201.0
2023-08-17 19:38:14.863998,-196.0
2023-08-17 19:38:14.871687,-189.0
2023-08-17 19:38:14.879377,-189.0
2023-08-17 19:38:14.887066,-182.0
2023-08-17 19:38:14.894755,-170.0
2023-08-17 19:38:14.902444,-170.0
2023-08-17 19:38:14.910134,-174.0
2023-08-17 19:38:14.917823,-170.0
2023-08-17 19:38:14.925512,-158.0
2023-08-17 19:38:14.933201,-155.0
2023-08-17 19:38:14.940891,-150.0
2023-08-17 19:38:14.948580,-139.0
2023-08-17 19:38:14.956269,-139.0
2023-08-17 19:38:14.963959,-153.0
2023-08-17 19:38:14.971648,-143.0
2023-08-17 19:38:14.979337,-131.0
2023-08-17 19:38:14.987026,-143.0
2023-08-17 19:38:14.994716,-150.0
2023-08-17 19:38:15.002405,-146.0
2023-08-17 19:38:15.010094,-155.0
2023-08-17 19:38:15.017784,-167.0
2023-08-17 19:38:15.025473,-170.0
2023-08-17 19:38:15.033162,-165.0
2023-08-17 19:38:15.040851,-155.0
2023-08-17 19:38:15.048541,-141.0
2023-08-17 19:38:15.056230,-141.0
2023-08-17 19:38:15.063919,-155.0
2023-08-17 19:38:15.071608,-158.0
2023-08-17 19:38:15.079298,-146.0
2023-08-17 19:38:15.086987,-139.0
2023-08-17 19:38:15.094676,-131.0
2023-08-17 19:38:15.102366,-119.0
2023-08-17 19:38:15.110055,-122.0
2023-08-17 19:38:15.117744,-129.0
2023-08-17 19:38:15.125433,-131.0
2023-08-17 19:38:15.133123,-131.0
2023-08-17 19:38:15.140812,-127.0
2023-08-17 19:38:15.148501,-117.0
2023-08-17 19:38:15.156191,-119.0
2023-08-17 19:38:15.163880,-117.0
2023-08-17 19:38:15.171569,-100.0
2023-08-17 19:38:15.179258,-98.0
2023-08-17 19:38:15.186948,-112.0
2023-08-17 19:38:15.194637,-110.0
2023-08-17 19:38:15.202326,-98.0
2023-08-17 19:38:15.210015,-95.0
2023-08-17 19:38:15.217705,-88.0
2023-08-17 19:38:15.225394,-81.0
2023-08-17 19:38:15.233083,-91.0
2023-08-17 19:38:15.240773,-91.0
2023-08-17 19:38:15.248462,-69.0
2023-08-17 19:38:15.256151,-57.0
2023-08-17 19:38:15.263840,-47.0
2023-08-17 19:38:15.271530,-38.0
2023-08-17 19:38:15.279219,-43.0
2023-08-17 19:38:15.286908,-57.0
2023-08-17 19:38:15.294598,-64.0
2023-08-17 19:38:15.302287,-76.0
2023-08-17 19:38:15.309976,-91.0
2023-08-17 19:38:15.317665,-95.0
2023-08-17 19:38:15.325355,-93.0
2023-08-17 19:38:15.333044,-88.0
2023-08-17 19:38:15.340733,-88.0
2023-08-17 19:38:15.348422,-91.0
2023-08-17 19:38:15.356112,-57.0
2023-08-17 19:38:15.363801,95.0
2023-08-17 19:38:15.371490,390.0
2023-08-17 19:38:15.379180,608.0
2023-08-17 19:38:15.386869,464.0
2023-08-17 19:38:15.394558,7.0
2023-08-17 19:38:15.402247,-371.0
2023-08-17 19:38:15.409937,-345.0
2023-08-17 19:38:15.417626,-103.0
2023-08-17 19:38:15.425315,-28.0
2023-08-17 19:38:15.433005,-88.0
2023-08-17 19:38:15.440694,-91.0
2023-08-17 19:38:15.448383,-62.0
2023-08-17 19:38:15.456072,-67.0
2023-08-17 19:38:15.463762,-69.0
2023-08-17 19:38:15.471451,-50.0
2023-08-17 19:38:15.479140,-38.0
2023-08-17 19:38:15.486830,-45.0
2023-08-17 19:38:15.494519,-45.0
2023-08-17 19:38:15.502208,-26.0
2023-08-17 19:38:15.509897,-4.0
2023-08-17 19:38:15.517587,2.0
2023-08-17 19:38:15.525276,7.0
2023-08-17 19:38:15.532965,19.0
2023-08-17 19:38:15.540654,38.0
2023-08-17 19:38:15.548344,62.0
2023-08-17 19:38:15.556033,83.0
2023-08-17 19:38:15.563722,103.0
2023-08-17 19:38:15.571412,127.0
2023-08-17 19:38:15.579101,148.0
2023-08-17 19:38:15.586790,167.0
2023-08-17 19:38:15.594479,191.0
2023-08-17 19:38:15.602169,213.0
2023-08-17 19:38:15.609858,220.0
2023-08-17 19:38:15.617547,234.0
2023-08-17 19:38:15.625237,246.0
2023-08-17 19:38:15.632926,230.0
2023-08-17 19:38:15.640615,189.0
2023-08-17 19:38:15.648304,134.0
2023-08-17 19:38:15.655994,59.0
2023-08-17 19:38:15.663683,-16.0
2023-08-17 19:38:15.671372,-76.0
2023-08-17 19:38:15.679061,-131.0
2023-08-17 19:38:15.686751,-179.0
2023-08-17 19:38:15.694440,-215.0
2023-08-17 19:38:15.702129,-232.0
2023-08-17 19:38:15.709819,-244.0
2023-08-17 19:38:15.717508,-254.0
2023-08-17 19:38:15.725197,-237.0
2023-08-17 19:38:15.732886,-213.0
2023-08-17 19:38:15.740576,-208.0
2023-08-17 19:38:15.748265,-201.0
2023-08-17 19:38:15.755954,-196.0
2023-08-17 19:38:15.763644,-198.0
2023-08-17 19:38:15.771333,-196.0
2023-08-17 19:38:15.779022,-182.0
2023-08-17 19:38:15.786711,-172.0
2023-08-17 19:38:15.794401,-174.0
2023-08-17 19:38:15.802090,-177.0
2023-08-17 19:38:15.809779,-170.0
2023-08-17 19:38:15.817468,-158.0
2023-08-17 19:38:15.825158,-136.0
2023-08-17 19:38:15.832847,-127.0
2023-08-17 19:38:15.840536,-139.0
2023-08-17 19:38:15.848226,-143.0
2023-08-17 19:38:15.855915,-136.0
2023-08-17 19:38:15.863604,-141.0
2023-08-17 19:38:15.871293,-148.0
2023-08-17 19:38:15.878983,-136.0
2023-08-17 19:38:15.886672,-122.0
2023-08-17 19:38:15.894361,-122.0
2023-08-17 19:38:15.902051,-122.0
2023-08-17 19:38:15.909740,-122.0
2023-08-17 19:38:15.917429,-129.0
2023-08-17 19:38:15.925118,-129.0
2023-08-17 19:38:15.932808,-119.0
2023-08-17 19:38:15.940497,-119.0
2023-08-17 19:38:15.948186,-122.0
2023-08-17 19:38:15.955875,-115.0
2023-08-17 19:38:15.963565,-115.0
2023-08-17 19:38:15.971254,-112.0
2023-08-17 19:38:15.978943,-100.0
2023-08-17 19:38:15.986633,-100.0
2023-08-17 19:38:15.994322,-105.0
2023-08-17 19:38:16.002011,-91.0
2023-08-17 19:38:16.009700,-86.0
2023-08-17 19:38:16.017390,-100.0
2023-08-17 19:38:16.025079,-103.0
2023-08-17 19:38:16.032768,-93.0
2023-08-17 19:38:16.040458,-95.0
2023-08-17 19:38:16.048147,-93.0
2023-08-17 19:38:16.055836,-81.0
2023-08-17 19:38:16.063525,-88.0
2023-08-17 19:38:16.071215,-103.0
2023-08-17 19:38:16.078904,-91.0
2023-08-17 19:38:16.086593,-81.0
2023-08-17 19:38:16.094282,-86.0
2023-08-17 19:38:16.101972,-76.0
2023-08-17 19:38:16.109661,-52.0
2023-08-17 19:38:16.117350,-67.0
2023-08-17 19:38:16.125040,-86.0
2023-08-17 19:38:16.132729,-81.0
2023-08-17 19:38:16.140418,-86.0
2023-08-17 19:38:16.148107,-100.0
2023-08-17 19:38:16.155797,-86.0
2023-08-17 19:38:16.163486,-67.0
2023-08-17 19:38:16.171175,-76.0
2023-08-17 19:38:16.178865,-83.0
2023-08-17 19:38:16.186554,-76.0
2023-08-17 19:38:16.194243,-81.0
2023-08-17 19:38:16.201932,-79.0
2023-08-17 19:38:16.209622,-55.0
2023-08-17 19:38:16.217311,-33.0
2023-08-17 19:38:16.225000,-31.0
2023-08-17 19:38:16.232690,-35.0
2023-08-17 19:38:16.240379,-45.0
2023-08-17 19:38:16.248068,-57.0
2023-08-17 19:38:16.255757,-67.0
2023-08-17 19:38:16.263447,-79.0
2023-08-17 19:38:16.271136,-93.0
2023-08-17 19:38:16.278825,-91.0
2023-08-17 19:38:16.286514,-79.0
2023-08-17 19:38:16.294204,-74.0
2023-08-17 19:38:16.301893,-67.0
2023-08-17 19:38:16.309582,-52.0
2023-08-17 19:38:16.317272,26.0
2023-08-17 19:38:16.324961,266.0
2023-08-17 19:38:16.332650,556.0
2023-08-17 19:38:16.340339,568.0
2023-08-17 19:38:16.348029,208.0
2023-08-17 19:38:16.355718,-210.0
2023-08-17 19:38:16.363407,-335.0
2023-08-17 19:38:16.371097,-172.0
2023-08-17 19:38:16.378786,-21.0
2023-08-17 19:38:16.386475,-40.0
2023-08-17 19:38:16.394164,-76.0
2023-08-17 19:38:16.401854,-50.0
2023-08-17 19:38:16.409543,-40.0
2023-08-17 19:38:16.417232,-45.0
2023-08-17 19:38:16.424921,-38.0
2023-08-17 19:38:16.432611,-35.0
2023-08-17 19:38:16.440300,-45.0
2023-08-17 19:38:16.447989,-33.0
2023-08-17 19:38:16.455679,-7.0
2023-08-17 19:38:16.463368,2.0
2023-08-17 19:38:16.471057,7.0
2023-08-17 19:38:16.478746,23.0
2023-08-17 19:38:16.486436,43.0
2023-08-17 19:38:16.494125,55.0
2023-08-17 19:38:16.501814,57.0
2023-08-17 19:38:16.509504,59.0
2023-08-17 19:38:16.517193,76.0
2023-08-17 19:38:16.524882,110.0
2023-08-17 19:38:16.532571,129.0
2023-08-17 19:38:16.540261,148.0
2023-08-17 19:38:16.547950,174.0
2023-08-17 19:38:16.555639,206.0
2023-08-17 19:38:16.563328,234.0
2023-08-17 19:38:16.571018,249.0
2023-08-17 19:38:16.578707,254.0
2023-08-17 19:38:16.586396,249.0
2023-08-17 19:38:16.594086,227.0
2023-08-17 19:38:16.601775,177.0
2023-08-17 19:38:16.609464,110.0
2023-08-17 19:38:16.617153,55.0
2023-08-17 19:38:16.624843,-2.0
2023-08-17 19:38:16.632532,-76.0
2023-08-17 19:38:16.640221,-134.0
2023-08-17 19:38:16.647911,-155.0
2023-08-17 19:38:16.655600,-172.0
2023-08-17 19:38:16.663289,-198.0
2023-08-17 19:38:16.670978,-210.0
2023-08-17 19:38:16.678668,-203.0
2023-08-17 19:38:16.686357,-210.0
2023-08-17 19:38:16.694046,-218.0
2023-08-17 19:38:16.701735,-210.0
2023-08-17 19:38:16.709425,-203.0
2023-08-17 19:38:16.717114,-196.0
2023-08-17 19:38:16.724803,-186.0
2023-08-17 19:38:16.732493,-184.0
2023-08-17 19:38:16.740182,-174.0
2023-08-17 19:38:16.747871,-160.0
2023-08-17 19:38:16.755560,-160.0
2023-08-17 19:38:16.763250,-170.0
2023-08-17 19:38:16.770939,-167.0
2023-08-17 19:38:16.778628,-155.0
2023-08-17 19:38:16.786318,-143.0
2023-08-17 19:38:16.794007,-134.0
2023-08-17 19:38:16.801696,-129.0
2023-08-17 19:38:16.809385,-129.0
2023-08-17 19:38:16.817075,-136.0
2023-08-17 19:38:16.824764,-139.0
2023-08-17 19:38:16.832453,-134.0
2023-08-17 19:38:16.840142,-131.0
2023-08-17 19:38:16.847832,-136.0
2023-08-17 19:38:16.855521,-134.0
2023-08-17 19:38:16.863210,-129.0
2023-08-17 19:38:16.870900,-129.0
2023-08-17 19:38:16.878589,-122.0
2023-08-17 19:38:16.886278,-124.0
2023-08-17 19:38:16.893967,-136.0
2023-08-17 19:38:16.901657,-131.0
2023-08-17 19:38:16.909346,-107.0
2023-08-17 19:38:16.917035,-93.0
2023-08-17 19:38:16.924725,-100.0
2023-08-17 19:38:16.932414,-103.0
2023-08-17 19:38:16.940103,-95.0
2023-08-17 19:38:16.947792,-103.0
2023-08-17 19:38:16.955482,-107.0
2023-08-17 19:38:16.963171,-105.0
2023-08-17 19:38:16.970860,-103.0
2023-08-17 19:38:16.978549,-98.0
2023-08-17 19:38:16.986239,-86.0
2023-08-17 19:38:16.993928,-81.0
2023-08-17 19:38:17.001617,-88.0
2023-08-17 19:38:17.009307,-93.0
2023-08-17 19:38:17.016996,-91.0
2023-08-17 19:38:17.024685,-79.0
2023-08-17 19:38:17.032374,-69.0
2023-08-17 19:38:17.040064,-81.0
2023-08-17 19:38:17.047753,-91.0
2023-08-17 19:38:17.055442,-93.0
2023-08-17 19:38:17.063132,-93.0
2023-08-17 19:38:17.070821,-86.0
2023-08-17 19:38:17.078510,-76.0
2023-08-17 19:38:17.086199,-74.0
2023-08-17 19:38:17.093889,-76.0
2023-08-17 19:38:17.101578,-79.0
2023-08-17 19:38:17.109267,-79.0
2023-08-17 19:38:17.116957,-76.0
2023-08-17 19:38:17.124646,-76.0
2023-08-17 19:38:17.132335,-79.0
2023-08-17 19:38:17.140024,-88.0
2023-08-17 19:38:17.147714,-81.0
2023-08-17 19:38:17.155403,-59.0
2023-08-17 19:38:17.163092,-55.0
2023-08-17 19:38:17.170781,-64.0
2023-08-17 19:38:17.178471,-71.0
2023-08-17 19:38:17.186160,-69.0
2023-08-17 19:38:17.193849,-62.0
2023-08-17 19:38:17.201539,-50.0
2023-08-17 19:38:17.209228,-38.0
2023-08-17 19:38:17.216917,-40.0
2023-08-17 19:38:17.224606,-31.0
2023-08-17 19:38:17.232296,-4.0
2023-08-17 19:38:17.239985,-7.0
2023-08-17 19:38:17.247674,-38.0
2023-08-17 19:38:17.255364,-57.0
2023-08-17 19:38:17.263053,-55.0
2023-08-17 19:38:17.270742,-69.0
2023-08-17 19:38:17.278431,-91.0
2023-08-17 19:38:17.286121,-88.0
2023-08-17 19:38:17.293810,-71.0
2023-08-17 19:38:17.301499,-71.0
2023-08-17 19:38:17.309188,-76.0
2023-08-17 19:38:17.316878,-79.0
2023-08-17 19:38:17.324567,-62.0
2023-08-17 19:38:17.332256,55.0
2023-08-17 19:38:17.339946,325.0
2023-08-17 19:38:17.347635,579.0
2023-08-17 19:38:17.355324,505.0
2023-08-17 19:38:17.363013,81.0
2023-08-17 19:38:17.370703,-337.0
2023-08-17 19:38:17.378392,-371.0
2023-08-17 19:38:17.386081,-107.0
2023-08-17 19:38:17.393771,4.0
2023-08-17 19:38:17.401460,-71.0
2023-08-17 19:38:17.409149,-88.0
2023-08-17 19:38:17.416838,-57.0
2023-08-17 19:38:17.424528,-67.0
2023-08-17 19:38:17.432217,-74.0
2023-08-17 19:38:17.439906,-64.0
2023-08-17 19:38:17.447595,-50.0
2023-08-17 19:38:17.455285,-26.0
2023-08-17 19:38:17.462974,-23.0
2023-08-17 19:38:17.470663,-26.0
2023-08-17 19:38:17.478353,-9.0
2023-08-17 19:38:17.486042,7.0
2023-08-17 19:38:17.493731,4.0
2023-08-17 19:38:17.501420,4.0
2023-08-17 19:38:17.509110,28.0
2023-08-17 19:38:17.516799,62.0
2023-08-17 19:38:17.524488,86.0
2023-08-17 19:38:17.532178,98.0
2023-08-17 19:38:17.539867,117.0
2023-08-17 19:38:17.547556,143.0
2023-08-17 19:38:17.555245,162.0
2023-08-17 19:38:17.562935,191.0
2023-08-17 19:38:17.570624,237.0
2023-08-17 19:38:17.578313,273.0
2023-08-17 19:38:17.586002,282.0
2023-08-17 19:38:17.593692,275.0
2023-08-17 19:38:17.601381,261.0
2023-08-17 19:38:17.609070,239.0
2023-08-17 19:38:17.616760,194.0
2023-08-17 19:38:17.624449,119.0
2023-08-17 19:38:17.632138,43.0
2023-08-17 19:38:17.639827,-23.0
2023-08-17 19:38:17.647517,-98.0
2023-08-17 19:38:17.655206,-148.0
2023-08-17 19:38:17.662895,-179.0
2023-08-17 19:38:17.670585,-198.0
2023-08-17 19:38:17.678274,-186.0
2023-08-17 19:38:17.685963,-191.0
2023-08-17 19:38:17.693652,-232.0
2023-08-17 19:38:17.701342,-244.0
2023-08-17 19:38:17.709031,-198.0
2023-08-17 19:38:17.716720,-153.0
2023-08-17 19:38:17.724409,-172.0
2023-08-17 19:38:17.732099,-218.0
2023-08-17 19:38:17.739788,-203.0
2023-08-17 19:38:17.747477,-167.0
2023-08-17 19:38:17.755167,-160.0
2023-08-17 19:38:17.762856,-172.0
2023-08-17 19:38:17.770545,-160.0
2023-08-17 19:38:17.778234,-119.0
2023-08-17 19:38:17.785924,-117.0
2023-08-17 19:38:17.793613,-153.0
2023-08-17 19:38:17.801302,-158.0
2023-08-17 19:38:17.808992,-134.0
2023-08-17 19:38:17.816681,-129.0
2023-08-17 19:38:17.824370,-146.0
2023-08-17 19:38:17.832059,-150.0
2023-08-17 19:38:17.839749,-141.0
2023-08-17 19:38:17.847438,-139.0
2023-08-17 19:38:17.855127,-134.0
2023-08-17 19:38:17.862816,-129.0
2023-08-17 19:38:17.870506,-148.0
2023-08-17 19:38:17.878195,-162.0
2023-08-17 19:38:17.885884,-136.0
2023-08-17 19:38:17.893574,-124.0
2023-08-17 19:38:17.901263,-146.0
2023-08-17 19:38:17.908952,-158.0
2023-08-17 19:38:17.916641,-139.0
2023-08-17 19:38:17.924331,-129.0
2023-08-17 19:38:17.932020,-139.0
2023-08-17 19:38:17.939709,-131.0
2023-08-17 19:38:17.947399,-117.0
2023-08-17 19:38:17.955088,-112.0
2023-08-17 19:38:17.962777,-112.0
2023-08-17 19:38:17.970466,-122.0
2023-08-17 19:38:17.978156,-124.0
2023-08-17 19:38:17.985845,-110.0
2023-08-17 19:38:17.993534,-110.0
2023-08-17 19:38:18.001224,-112.0
2023-08-17 19:38:18.008913,-91.0
2023-08-17 19:38:18.016602,-83.0
2023-08-17 19:38:18.024291,-93.0
2023-08-17 19:38:18.031981,-103.0
2023-08-17 19:38:18.039670,-110.0
2023-08-17 19:38:18.047359,-117.0
2023-08-17 19:38:18.055048,-112.0
2023-08-17 19:38:18.062738,-88.0
2023-08-17 19:38:18.070427,-76.0
2023-08-17 19:38:18.078116,-93.0
2023-08-17 19:38:18.085806,-95.0
2023-08-17 19:38:18.093495,-81.0
2023-08-17 19:38:18.101184,-91.0
2023-08-17 19:38:18.108873,-107.0
2023-08-17 19:38:18.116563,-95.0
2023-08-17 19:38:18.124252,-81.0
2023-08-17 19:38:18.131941,-83.0
2023-08-17 19:38:18.139631,-83.0
2023-08-17 19:38:18.147320,-76.0
2023-08-17 19:38:18.155009,-69.0
2023-08-17 19:38:18.162698,-57.0
2023-08-17 19:38:18.170388,-38.0
2023-08-17 19:38:18.178077,-26.0
2023-08-17 19:38:18.185766,-19.0
2023-08-17 19:38:18.193455,-33.0
2023-08-17 19:38:18.201145,-59.0
2023-08-17 19:38:18.208834,-79.0
2023-08-17 19:38:18.216523,-67.0
2023-08-17 19:38:18.224213,-43.0
2023-08-17 19:38:18.231902,-62.0
2023-08-17 19:38:18.239591,-100.0
2023-08-17 19:38:18.247280,-107.0
2023-08-17 19:38:18.254970,-83.0
2023-08-17 19:38:18.262659,-74.0
2023-08-17 19:38:18.270348,-69.0
2023-08-17 19:38:18.278038,4.0
2023-08-17 19:38:18.285727,227.0
2023-08-17 19:38:18.293416,534.0
2023-08-17 19:38:18.301105,632.0
2023-08-17 19:38:18.308795,294.0
2023-08-17 19:38:18.316484,-206.0
2023-08-17 19:38:18.324173,-409.0
2023-08-17 19:38:18.331862,-249.0
2023-08-17 19:38:18.339552,-59.0
2023-08-17 19:38:18.347241,-45.0
2023-08-17 19:38:18.354930,-74.0
2023-08-17 19:38:18.362620,-59.0
2023-08-17 19:38:18.370309,-59.0
2023-08-17 19:38:18.377998,-81.0
2023-08-17 19:38:18.385687,-76.0
2023-08-17 19:38:18.393377,-50.0
2023-08-17 19:38:18.401066,-40.0
2023-08-17 19:38:18.408755,-52.0
2023-08-17 19:38:18.416445,-52.0
2023-08-17 19:38:18.424134,-21.0
2023-08-17 19:38:18.431823,23.0
2023-08-17 19:38:18.439512,16.0
2023-08-17 19:38:18.447202,-9.0
2023-08-17 19:38:18.454891,16.0
2023-08-17 19:38:18.462580,47.0
2023-08-17 19:38:18.470269,50.0
2023-08-17 19:38:18.477959,52.0
2023-08-17 19:38:18.485648,88.0
2023-08-17 19:38:18.493337,136.0
2023-08-17 19:38:18.501027,155.0
2023-08-17 19:38:18.508716,160.0
2023-08-17 19:38:18.516405,191.0
2023-08-17 19:38:18.524094,220.0
2023-08-17 19:38:18.531784,234.0
2023-08-17 19:38:18.539473,242.0
2023-08-17 19:38:18.547162,237.0
2023-08-17 19:38:18.554852,215.0
2023-08-17 19:38:18.562541,186.0
2023-08-17 19:38:18.570230,131.0
2023-08-17 19:38:18.577919,47.0
2023-08-17 19:38:18.585609,-33.0
2023-08-17 19:38:18.593298,-86.0
2023-08-17 19:38:18.600987,-141.0
2023-08-17 19:38:18.608676,-182.0
2023-08-17 19:38:18.616366,-174.0
2023-08-17 19:38:18.624055,-172.0
2023-08-17 19:38:18.631744,-203.0
2023-08-17 19:38:18.639434,-215.0
2023-08-17 19:38:18.647123,-203.0
2023-08-17 19:38:18.654812,-203.0
2023-08-17 19:38:18.662501,-203.0
2023-08-17 19:38:18.670191,-186.0
2023-08-17 19:38:18.677880,-182.0
2023-08-17 19:38:18.685569,-191.0
2023-08-17 19:38:18.693259,-177.0
2023-08-17 19:38:18.700948,-167.0
2023-08-17 19:38:18.708637,-172.0
2023-08-17 19:38:18.716326,-162.0
2023-08-17 19:38:18.724016,-136.0
2023-08-17 19:38:18.731705,-141.0
2023-08-17 19:38:18.739394,-160.0
2023-08-17 19:38:18.747084,-141.0
2023-08-17 19:38:18.754773,-115.0
2023-08-17 19:38:18.762462,-124.0
2023-08-17 19:38:18.770151,-136.0
2023-08-17 19:38:18.777841,-129.0
2023-08-17 19:38:18.785530,-134.0
2023-08-17 19:38:18.793219,-129.0
2023-08-17 19:38:18.800908,-110.0
2023-08-17 19:38:18.808598,-115.0
2023-08-17 19:38:18.816287,-129.0
2023-08-17 19:38:18.823976,-112.0
2023-08-17 19:38:18.831666,-103.0
2023-08-17 19:38:18.839355,-119.0
2023-08-17 19:38:18.847044,-124.0
2023-08-17 19:38:18.854733,-107.0
2023-08-17 19:38:18.862423,-110.0
2023-08-17 19:38:18.870112,-122.0
2023-08-17 19:38:18.877801,-98.0
2023-08-17 19:38:18.885491,-74.0
2023-08-17 19:38:18.893180,-93.0
2023-08-17 19:38:18.900869,-115.0
2023-08-17 19:38:18.908558,-103.0
2023-08-17 19:38:18.916248,-103.0
2023-08-17 19:38:18.923937,-112.0
2023-08-17 19:38:18.931626,-95.0
2023-08-17 19:38:18.939315,-69.0
2023-08-17 19:38:18.947005,-76.0
2023-08-17 19:38:18.954694,-88.0
2023-08-17 19:38:18.962383,-79.0
2023-08-17 19:38:18.970073,-71.0
2023-08-17 19:38:18.977762,-79.0
2023-08-17 19:38:18.985451,-83.0
2023-08-17 19:38:18.993140,-81.0
2023-08-17 19:38:19.000830,-71.0
2023-08-17 19:38:19.008519,-69.0
2023-08-17 19:38:19.016208,-76.0
2023-08-17 19:38:19.023898,-95.0
2023-08-17 19:38:19.031587,-110.0
2023-08-17 19:38:19.039276,-81.0
2023-08-17 19:38:19.046965,-52.0
2023-08-17 19:38:19.054655,-74.0
2023-08-17 19:38:19.062344,-95.0
2023-08-17 19:38:19.070033,-86.0
2023-08-17 19:38:19.077722,-86.0
2023-08-17 19:38:19.085412,-91.0
2023-08-17 19:38:19.093101,-81.0
2023-08-17 19:38:19.100790,-74.0
2023-08-17 19:38:19.108480,-74.0
2023-08-17 19:38:19.116169,-76.0
2023-08-17 19:38:19.123858,-76.0
2023-08-17 19:38:19.131547,-74.0
2023-08-17 19:38:19.139237,-76.0
2023-08-17 19:38:19.146926,-86.0
2023-08-17 19:38:19.154615,-79.0
2023-08-17 19:38:19.162305,-64.0
2023-08-17 19:38:19.169994,-64.0
2023-08-17 19:38:19.177683,-62.0
2023-08-17 19:38:19.185372,-35.0
2023-08-17 19:38:19.193062,-9.0
2023-08-17 19:38:19.200751,-7.0
2023-08-17 19:38:19.208440,-16.0
2023-08-17 19:38:19.216129,-40.0
2023-08-17 19:38:19.223819,-67.0
2023-08-17 19:38:19.231508,-69.0
2023-08-17 19:38:19.239197,-71.0
2023-08-17 19:38:19.246887,-81.0
2023-08-17 19:38:19.254576,-88.0
2023-08-17 19:38:19.262265,-93.0
2023-08-17 19:38:19.269954,-83.0
2023-08-17 19:38:19.277644,-69.0
2023-08-17 19:38:19.285333,-81.0
2023-08-17 19:38:19.293022,-79.0
2023-08-17 19:38:19.300712,14.0
2023-08-17 19:38:19.308401,251.0
2023-08-17 19:38:19.316090,522.0
2023-08-17 19:38:19.323779,524.0
2023-08-17 19:38:19.331469,153.0
2023-08-17 19:38:19.339158,-278.0
2023-08-17 19:38:19.346847,-371.0
2023-08-17 19:38:19.354536,-153.0
2023-08-17 19:38:19.362226,-11.0
2023-08-17 19:38:19.369915,-69.0
2023-08-17 19:38:19.377604,-100.0
2023-08-17 19:38:19.385294,-57.0
2023-08-17 19:38:19.392983,-59.0
2023-08-17 19:38:19.400672,-71.0
2023-08-17 19:38:19.408361,-52.0
2023-08-17 19:38:19.416051,-50.0
2023-08-17 19:38:19.423740,-55.0
2023-08-17 19:38:19.431429,-35.0
2023-08-17 19:38:19.439119,-11.0
2023-08-17 19:38:19.446808,-9.0
2023-08-17 19:38:19.454497,-4.0
2023-08-17 19:38:19.462186,11.0
2023-08-17 19:38:19.469876,19.0
2023-08-17 19:38:19.477565,31.0
2023-08-17 19:38:19.485254,62.0
2023-08-17 19:38:19.492943,79.0
2023-08-17 19:38:19.500633,81.0
2023-08-17 19:38:19.508322,105.0
2023-08-17 19:38:19.516011,131.0
2023-08-17 19:38:19.523701,148.0
2023-08-17 19:38:19.531390,172.0
2023-08-17 19:38:19.539079,198.0
2023-08-17 19:38:19.546768,215.0
2023-08-17 19:38:19.554458,234.0
2023-08-17 19:38:19.562147,251.0
2023-08-17 19:38:19.569836,246.0
2023-08-17 19:38:19.577526,218.0
2023-08-17 19:38:19.585215,172.0
2023-08-17 19:38:19.592904,122.0
2023-08-17 19:38:19.600593,62.0
2023-08-17 19:38:19.608283,-4.0
2023-08-17 19:38:19.615972,-62.0
2023-08-17 19:38:19.623661,-107.0
2023-08-17 19:38:19.631351,-143.0
2023-08-17 19:38:19.639040,-172.0
2023-08-17 19:38:19.646729,-189.0
2023-08-17 19:38:19.654418,-196.0
2023-08-17 19:38:19.662108,-196.0
2023-08-17 19:38:19.669797,-196.0
2023-08-17 19:38:19.677486,-198.0
2023-08-17 19:38:19.685175,-198.0
2023-08-17 19:38:19.692865,-189.0
2023-08-17 19:38:19.700554,-177.0
2023-08-17 19:38:19.708243,-170.0
2023-08-17 19:38:19.715933,-162.0
2023-08-17 19:38:19.723622,-153.0
2023-08-17 19:38:19.731311,-143.0
2023-08-17 19:38:19.739000,-141.0
2023-08-17 19:38:19.746690,-143.0
2023-08-17 19:38:19.754379,-139.0
2023-08-17 19:38:19.762068,-136.0
2023-08-17 19:38:19.769758,-141.0
2023-08-17 19:38:19.777447,-134.0
2023-08-17 19:38:19.785136,-124.0
2023-08-17 19:38:19.792825,-124.0
2023-08-17 19:38:19.800515,-124.0
2023-08-17 19:38:19.808204,-122.0
2023-08-17 19:38:19.815893,-124.0
2023-08-17 19:38:19.823582,-129.0
2023-08-17 19:38:19.831272,-131.0
2023-08-17 19:38:19.838961,-122.0
2023-08-17 19:38:19.846650,-110.0
2023-08-17 19:38:19.854340,-119.0
2023-08-17 19:38:19.862029,-129.0
2023-08-17 19:38:19.869718,-115.0
2023-08-17 19:38:19.877407,-103.0
2023-08-17 19:38:19.885097,-107.0
2023-08-17 19:38:19.892786,-107.0
2023-08-17 19:38:19.900475,-95.0
2023-08-17 19:38:19.908165,-95.0
2023-08-17 19:38:19.915854,-103.0
2023-08-17 19:38:19.923543,-105.0
2023-08-17 19:38:19.931232,-107.0
2023-08-17 19:38:19.938922,-103.0
2023-08-17 19:38:19.946611,-83.0
2023-08-17 19:38:19.954300,-76.0
2023-08-17 19:38:19.961989,-91.0
2023-08-17 19:38:19.969679,-86.0
2023-08-17 19:38:19.977368,-69.0
2023-08-17 19:38:19.985057,-76.0
2023-08-17 19:38:19.992747,-91.0
2023-08-17 19:38:20.000436,-86.0
2023-08-17 19:38:20.008125,-79.0
2023-08-17 19:38:20.015814,-86.0
2023-08-17 19:38:20.023504,-88.0
2023-08-17 19:38:20.031193,-88.0
2023-08-17 19:38:20.038882,-93.0
2023-08-17 19:38:20.046572,-91.0
2023-08-17 19:38:20.054261,-81.0
2023-08-17 19:38:20.061950,-83.0
2023-08-17 19:38:20.069639,-93.0
2023-08-17 19:38:20.077329,-86.0
2023-08-17 19:38:20.085018,-86.0
2023-08-17 19:38:20.092707,-88.0
2023-08-17 19:38:20.100396,-93.0
2023-08-17 19:38:20.108086,-105.0
2023-08-17 19:38:20.115775,-107.0
2023-08-17 19:38:20.123464,-105.0
2023-08-17 19:38:20.131154,-107.0
2023-08-17 19:38:20.138843,-110.0
2023-08-17 19:38:20.146532,-95.0
2023-08-17 19:38:20.154221,-79.0
2023-08-17 19:38:20.161911,-86.0
2023-08-17 19:38:20.169600,-95.0
2023-08-17 19:38:20.177289,-95.0
2023-08-17 19:38:20.184979,-88.0
2023-08-17 19:38:20.192668,-79.0
2023-08-17 19:38:20.200357,-71.0
2023-08-17 19:38:20.208046,-67.0
2023-08-17 19:38:20.215736,-50.0
2023-08-17 19:38:20.223425,-45.0
2023-08-17 19:38:20.231114,-59.0
2023-08-17 19:38:20.238803,-59.0
2023-08-17 19:38:20.246493,-57.0
2023-08-17 19:38:20.254182,-69.0
2023-08-17 19:38:20.261871,-83.0
2023-08-17 19:38:20.269561,-95.0
2023-08-17 19:38:20.277250,-105.0
2023-08-17 19:38:20.284939,-103.0
2023-08-17 19:38:20.292628,-88.0
2023-08-17 19:38:20.300318,-93.0
2023-08-17 19:38:20.308007,-95.0
2023-08-17 19:38:20.315696,-23.0
2023-08-17 19:38:20.323386,198.0
2023-08-17 19:38:20.331075,500.0
2023-08-17 19:38:20.338764,579.0
2023-08-17 19:38:20.346453,246.0
2023-08-17 19:38:20.354143,-222.0
2023-08-17 19:38:20.361832,-385.0
2023-08-17 19:38:20.369521,-198.0
2023-08-17 19:38:20.377210,-31.0
2023-08-17 19:38:20.384900,-50.0
2023-08-17 19:38:20.392589,-93.0
2023-08-17 19:38:20.400278,-67.0
2023-08-17 19:38:20.407968,-28.0
2023-08-17 19:38:20.415657,-19.0
2023-08-17 19:38:20.423346,-31.0
2023-08-17 19:38:20.431035,-35.0
2023-08-17 19:38:20.438725,-31.0
2023-08-17 19:38:20.446414,-26.0
2023-08-17 19:38:20.454103,-21.0
2023-08-17 19:38:20.461793,-4.0
2023-08-17 19:38:20.469482,9.0
2023-08-17 19:38:20.477171,14.0
2023-08-17 19:38:20.484860,33.0
2023-08-17 19:38:20.492550,64.0
2023-08-17 19:38:20.500239,79.0
2023-08-17 19:38:20.507928,74.0
2023-08-17 19:38:20.515618,88.0
2023-08-17 19:38:20.523307,127.0
2023-08-17 19:38:20.530996,153.0
2023-08-17 19:38:20.538685,170.0
2023-08-17 19:38:20.546375,194.0
2023-08-17 19:38:20.554064,218.0
2023-08-17 19:38:20.561753,244.0
2023-08-17 19:38:20.569442,270.0
2023-08-17 19:38:20.577132,285.0
2023-08-17 19:38:20.584821,280.0
2023-08-17 19:38:20.592510,254.0
2023-08-17 19:38:20.600200,213.0
2023-08-17 19:38:20.607889,150.0
2023-08-17 19:38:20.615578,81.0
2023-08-17 19:38:20.623267,11.0
2023-08-17 19:38:20.630957,-59.0
2023-08-17 19:38:20.638646,-119.0
2023-08-17 19:38:20.646335,-167.0
2023-08-17 19:38:20.654025,-206.0
2023-08-17 19:38:20.661714,-222.0
2023-08-17 19:38:20.669403,-222.0
2023-08-17 19:38:20.677092,-220.0
2023-08-17 19:38:20.684782,-225.0
2023-08-17 19:38:20.692471,-239.0
2023-08-17 19:38:20.700160,-237.0
2023-08-17 19:38:20.707849,-210.0
2023-08-17 19:38:20.715539,-194.0
2023-08-17 19:38:20.723228,-198.0
2023-08-17 19:38:20.730917,-201.0
2023-08-17 19:38:20.738607,-186.0
2023-08-17 19:38:20.746296,-174.0
2023-08-17 19:38:20.753985,-174.0
2023-08-17 19:38:20.761674,-172.0
2023-08-17 19:38:20.769364,-158.0
2023-08-17 19:38:20.777053,-158.0
2023-08-17 19:38:20.784742,-165.0
2023-08-17 19:38:20.792432,-155.0
2023-08-17 19:38:20.800121,-148.0
2023-08-17 19:38:20.807810,-153.0
2023-08-17 19:38:20.815499,-148.0
2023-08-17 19:38:20.823189,-141.0
2023-08-17 19:38:20.830878,-139.0
2023-08-17 19:38:20.838567,-139.0
2023-08-17 19:38:20.846256,-139.0
2023-08-17 19:38:20.853946,-139.0
2023-08-17 19:38:20.861635,-131.0
2023-08-17 19:38:20.869324,-129.0
2023-08-17 19:38:20.877014,-134.0
2023-08-17 19:38:20.884703,-131.0
2023-08-17 19:38:20.892392,-127.0
2023-08-17 19:38:20.900081,-127.0
2023-08-17 19:38:20.907771,-117.0
2023-08-17 19:38:20.915460,-110.0
2023-08-17 19:38:20.923149,-112.0
2023-08-17 19:38:20.930839,-112.0
2023-08-17 19:38:20.938528,-110.0
2023-08-17 19:38:20.946217,-107.0
2023-08-17 19:38:20.953906,-105.0
2023-08-17 19:38:20.961596,-107.0
2023-08-17 19:38:20.969285,-103.0
2023-08-17 19:38:20.976974,-88.0
2023-08-17 19:38:20.984663,-88.0
2023-08-17 19:38:20.992353,-91.0
2023-08-17 19:38:21.000042,-91.0
2023-08-17 19:38:21.007731,-100.0
2023-08-17 19:38:21.015421,-100.0
2023-08-17 19:38:21.023110,-91.0
2023-08-17 19:38:21.030799,-86.0
2023-08-17 19:38:21.038488,-91.0
2023-08-17 19:38:21.046178,-88.0
2023-08-17 19:38:21.053867,-83.0
2023-08-17 19:38:21.061556,-93.0
2023-08-17 19:38:21.069246,-105.0
2023-08-17 19:38:21.076935,-98.0
2023-08-17 19:38:21.084624,-88.0
2023-08-17 19:38:21.092313,-95.0
2023-08-17 19:38:21.100003,-100.0
2023-08-17 19:38:21.107692,-95.0
2023-08-17 19:38:21.115381,-93.0
2023-08-17 19:38:21.123070,-88.0
2023-08-17 19:38:21.130760,-79.0
2023-08-17 19:38:21.138449,-69.0
2023-08-17 19:38:21.146138,-57.0
2023-08-17 19:38:21.153828,-47.0
2023-08-17 19:38:21.161517,-45.0
2023-08-17 19:38:21.169206,-59.0
2023-08-17 19:38:21.176895,-79.0
2023-08-17 19:38:21.184585,-93.0
2023-08-17 19:38:21.192274,-93.0
2023-08-17 19:38:21.199963,-91.0
2023-08-17 19:38:21.207653,-100.0
2023-08-17 19:38:21.215342,-98.0
2023-08-17 19:38:21.223031,-88.0
2023-08-17 19:38:21.230720,-105.0
2023-08-17 19:38:21.238410,-98.0
2023-08-17 19:38:21.246099,23.0
2023-08-17 19:38:21.253788,285.0
2023-08-17 19:38:21.261478,539.0
2023-08-17 19:38:21.269167,536.0
2023-08-17 19:38:21.276856,201.0
2023-08-17 19:38:21.284545,-218.0
2023-08-17 19:38:21.292235,-366.0
2023-08-17 19:38:21.299924,-198.0
2023-08-17 19:38:21.307613,-31.0
2023-08-17 19:38:21.315302,-55.0
2023-08-17 19:38:21.322992,-100.0
2023-08-17 19:38:21.330681,-67.0
2023-08-17 19:38:21.338370,-55.0
2023-08-17 19:38:21.346060,-71.0
2023-08-17 19:38:21.353749,-55.0
2023-08-17 19:38:21.361438,-33.0
2023-08-17 19:38:21.369127,-35.0
2023-08-17 19:38:21.376817,-31.0
2023-08-17 19:38:21.384506,-16.0
2023-08-17 19:38:21.392195,-7.0
2023-08-17 19:38:21.399885,2.0
2023-08-17 19:38:21.407574,7.0
2023-08-17 19:38:21.415263,21.0
2023-08-17 19:38:21.422952,43.0
2023-08-17 19:38:21.430642,55.0
2023-08-17 19:38:21.438331,74.0
2023-08-17 19:38:21.446020,100.0
2023-08-17 19:38:21.453709,115.0
2023-08-17 19:38:21.461399,141.0
2023-08-17 19:38:21.469088,174.0
2023-08-17 19:38:21.476777,196.0
2023-08-17 19:38:21.484467,215.0
2023-08-17 19:38:21.492156,244.0
2023-08-17 19:38:21.499845,275.0
2023-08-17 19:38:21.507534,278.0
2023-08-17 19:38:21.515224,256.0
2023-08-17 19:38:21.522913,246.0
2023-08-17 19:38:21.530602,220.0
2023-08-17 19:38:21.538292,146.0
2023-08-17 19:38:21.545981,67.0
2023-08-17 19:38:21.553670,7.0
2023-08-17 19:38:21.561359,-55.0
2023-08-17 19:38:21.569049,-122.0
2023-08-17 19:38:21.576738,-160.0
2023-08-17 19:38:21.584427,-172.0
2023-08-17 19:38:21.592116,-191.0
2023-08-17 19:38:21.599806,-201.0
2023-08-17 19:38:21.607495,-194.0
2023-08-17 19:38:21.615184,-189.0
2023-08-17 19:38:21.622874,-194.0
2023-08-17 19:38:21.630563,-198.0
2023-08-17 19:38:21.638252,-186.0
2023-08-17 19:38:21.645941,-170.0
2023-08-17 19:38:21.653631,-160.0
2023-08-17 19:38:21.661320,-162.0
2023-08-17 19:38:21.669009,-162.0
2023-08-17 19:38:21.676699,-158.0
2023-08-17 19:38:21.684388,-153.0
2023-08-17 19:38:21.692077,-146.0
2023-08-17 19:38:21.699766,-139.0
2023-08-17 19:38:21.707456,-139.0
2023-08-17 19:38:21.715145,-134.0
2023-08-17 19:38:21.722834,-129.0
2023-08-17 19:38:21.730523,-127.0
2023-08-17 19:38:21.738213,-119.0
2023-08-17 19:38:21.745902,-124.0
2023-08-17 19:38:21.753591,-127.0
2023-08-17 19:38:21.761281,-115.0
2023-08-17 19:38:21.768970,-110.0
2023-08-17 19:38:21.776659,-122.0
2023-08-17 19:38:21.784348,-127.0
2023-08-17 19:38:21.792038,-127.0
2023-08-17 19:38:21.799727,-124.0
2023-08-17 19:38:21.807416,-122.0
2023-08-17 19:38:21.815106,-117.0
2023-08-17 19:38:21.822795,-112.0
2023-08-17 19:38:21.830484,-119.0
2023-08-17 19:38:21.838173,-122.0
2023-08-17 19:38:21.845863,-110.0
2023-08-17 19:38:21.853552,-110.0
2023-08-17 19:38:21.861241,-124.0
2023-08-17 19:38:21.868930,-119.0
2023-08-17 19:38:21.876620,-115.0
2023-08-17 19:38:21.884309,-124.0
2023-08-17 19:38:21.891998,-131.0
2023-08-17 19:38:21.899688,-115.0
2023-08-17 19:38:21.907377,-98.0
2023-08-17 19:38:21.915066,-95.0
2023-08-17 19:38:21.922755,-95.0
2023-08-17 19:38:21.930445,-93.0
2023-08-17 19:38:21.938134,-91.0
2023-08-17 19:38:21.945823,-103.0
2023-08-17 19:38:21.953513,-107.0
2023-08-17 19:38:21.961202,-95.0
2023-08-17 19:38:21.968891,-107.0
2023-08-17 19:38:21.976580,-129.0
2023-08-17 19:38:21.984270,-103.0
2023-08-17 19:38:21.991959,-59.0
2023-08-17 19:38:21.999648,-64.0
2023-08-17 19:38:22.007337,-86.0
2023-08-17 19:38:22.015027,-76.0
2023-08-17 19:38:22.022716,-76.0
2023-08-17 19:38:22.030405,-100.0
2023-08-17 19:38:22.038095,-100.0
2023-08-17 19:38:22.045784,-83.0
2023-08-17 19:38:22.053473,-79.0
2023-08-17 19:38:22.061162,-83.0
2023-08-17 19:38:22.068852,-67.0
2023-08-17 19:38:22.076541,-50.0
2023-08-17 19:38:22.084230,-47.0
2023-08-17 19:38:22.091920,-38.0
2023-08-17 19:38:22.099609,-33.0
2023-08-17 19:38:22.107298,-62.0
2023-08-17 19:38:22.114987,-74.0
2023-08-17 19:38:22.122677,-52.0
2023-08-17 19:38:22.130366,-74.0
2023-08-17 19:38:22.138055,-105.0
2023-08-17 19:38:22.145745,-83.0
2023-08-17 19:38:22.153434,-100.0
2023-08-17 19:38:22.161123,-131.0
2023-08-17 19:38:22.168812,-86.0
2023-08-17 19:38:22.176502,-40.0
2023-08-17 19:38:22.184191,-19.0
2023-08-17 19:38:22.191880,119.0
2023-08-17 19:38:22.199569,400.0
2023-08-17 19:38:22.207259,558.0
2023-08-17 19:38:22.214948,335.0
2023-08-17 19:38:22.222637,-86.0
2023-08-17 19:38:22.230327,-328.0
2023-08-17 19:38:22.238016,-266.0
2023-08-17 19:38:22.245705,-91.0
2023-08-17 19:38:22.253394,-43.0
2023-08-17 19:38:22.261084,-79.0
2023-08-17 19:38:22.268773,-64.0
2023-08-17 19:38:22.276462,-45.0
2023-08-17 19:38:22.284152,-57.0
2023-08-17 19:38:22.291841,-55.0
2023-08-17 19:38:22.299530,-50.0
2023-08-17 19:38:22.307219,-64.0
2023-08-17 19:38:22.314909,-59.0
2023-08-17 19:38:22.322598,-21.0
2023-08-17 19:38:22.330287,-4.0
2023-08-17 19:38:22.337976,-19.0
2023-08-17 19:38:22.345666,-7.0
2023-08-17 19:38:22.353355,16.0
2023-08-17 19:38:22.361044,23.0
2023-08-17 19:38:22.368734,28.0
2023-08-17 19:38:22.376423,35.0
2023-08-17 19:38:22.384112,55.0
2023-08-17 19:38:22.391801,88.0
2023-08-17 19:38:22.399491,119.0
2023-08-17 19:38:22.407180,141.0
2023-08-17 19:38:22.414869,155.0
2023-08-17 19:38:22.422559,172.0
2023-08-17 19:38:22.430248,215.0
2023-08-17 19:38:22.437937,254.0
2023-08-17 19:38:22.445626,246.0
2023-08-17 19:38:22.453316,220.0
2023-08-17 19:38:22.461005,215.0
2023-08-17 19:38:22.468694,206.0
2023-08-17 19:38:22.476383,172.0
2023-08-17 19:38:22.484073,127.0
2023-08-17 19:38:22.491762,62.0
2023-08-17 19:38:22.499451,-28.0
2023-08-17 19:38:22.507141,-83.0
2023-08-17 19:38:22.514830,-115.0
2023-08-17 19:38:22.522519,-158.0
2023-08-17 19:38:22.530208,-184.0
2023-08-17 19:38:22.537898,-196.0
2023-08-17 19:38:22.545587,-206.0
2023-08-17 19:38:22.553276,-201.0
2023-08-17 19:38:22.560966,-196.0
2023-08-17 19:38:22.568655,-191.0
2023-08-17 19:38:22.576344,-172.0
2023-08-17 19:38:22.584033,-177.0
2023-08-17 19:38:22.591723,-203.0
2023-08-17 19:38:22.599412,-191.0
2023-08-17 19:38:22.607101,-155.0
2023-08-17 19:38:22.614790,-146.0
2023-08-17 19:38:22.622480,-150.0
2023-08-17 19:38:22.630169,-150.0
2023-08-17 19:38:22.637858,-160.0
2023-08-17 19:38:22.645548,-170.0
2023-08-17 19:38:22.653237,-155.0
2023-08-17 19:38:22.660926,-146.0
2023-08-17 19:38:22.668615,-141.0
2023-08-17 19:38:22.676305,-129.0
2023-08-17 19:38:22.683994,-127.0
2023-08-17 19:38:22.691683,-139.0
2023-08-17 19:38:22.699373,-143.0
2023-08-17 19:38:22.707062,-139.0
2023-08-17 19:38:22.714751,-127.0
2023-08-17 19:38:22.722440,-127.0
2023-08-17 19:38:22.730130,-131.0
2023-08-17 19:38:22.737819,-127.0
2023-08-17 19:38:22.745508,-112.0
2023-08-17 19:38:22.753197,-117.0
2023-08-17 19:38:22.760887,-127.0
2023-08-17 19:38:22.768576,-117.0
2023-08-17 19:38:22.776265,-103.0
2023-08-17 19:38:22.783955,-105.0
2023-08-17 19:38:22.791644,-107.0
2023-08-17 19:38:22.799333,-100.0
2023-08-17 19:38:22.807022,-105.0
2023-08-17 19:38:22.814712,-112.0
2023-08-17 19:38:22.822401,-100.0
2023-08-17 19:38:22.830090,-88.0
2023-08-17 19:38:22.837780,-91.0
2023-08-17 19:38:22.845469,-95.0
2023-08-17 19:38:22.853158,-91.0
2023-08-17 19:38:22.860847,-76.0
2023-08-17 19:38:22.868537,-81.0
2023-08-17 19:38:22.876226,-86.0
2023-08-17 19:38:22.883915,-79.0
2023-08-17 19:38:22.891604,-83.0
2023-08-17 19:38:22.899294,-98.0
2023-08-17 19:38:22.906983,-86.0
2023-08-17 19:38:22.914672,-62.0
2023-08-17 19:38:22.922362,-67.0
2023-08-17 19:38:22.930051,-79.0
2023-08-17 19:38:22.937740,-79.0
2023-08-17 19:38:22.945429,-83.0
2023-08-17 19:38:22.953119,-83.0
2023-08-17 19:38:22.960808,-59.0
2023-08-17 19:38:22.968497,-38.0
2023-08-17 19:38:22.976187,-35.0
2023-08-17 19:38:22.983876,-40.0
2023-08-17 19:38:22.991565,-55.0
2023-08-17 19:38:22.999254,-79.0
2023-08-17 19:38:23.006944,-81.0
2023-08-17 19:38:23.014633,-69.0
2023-08-17 19:38:23.022322,-79.0
2023-08-17 19:38:23.030012,-91.0
2023-08-17 19:38:23.037701,-91.0
2023-08-17 19:38:23.045390,-93.0
2023-08-17 19:38:23.053079,-103.0
2023-08-17 19:38:23.060769,-95.0
2023-08-17 19:38:23.068458,-31.0
2023-08-17 19:38:23.076147,167.0
2023-08-17 19:38:23.083836,467.0
2023-08-17 19:38:23.091526,587.0
2023-08-17 19:38:23.099215,287.0
2023-08-17 19:38:23.106904,-230.0
2023-08-17 19:38:23.114594,-464.0
2023-08-17 19:38:23.122283,-261.0
2023-08-17 19:38:23.129972,-43.0
2023-08-17 19:38:23.137661,-57.0
2023-08-17 19:38:23.145351,-95.0
2023-08-17 19:38:23.153040,-71.0
2023-08-17 19:38:23.160729,-59.0
2023-08-17 19:38:23.168419,-52.0
2023-08-17 19:38:23.176108,-40.0
2023-08-17 19:38:23.183797,-40.0
2023-08-17 19:38:23.191486,-43.0
2023-08-17 19:38:23.199176,-33.0
2023-08-17 19:38:23.206865,-26.0
2023-08-17 19:38:23.214554,-23.0
2023-08-17 19:38:23.222243,-14.0
2023-08-17 19:38:23.229933,9.0
2023-08-17 19:38:23.237622,33.0
2023-08-17 19:38:23.245311,38.0
2023-08-17 19:38:23.253001,52.0
2023-08-17 19:38:23.260690,81.0
2023-08-17 19:38:23.268379,95.0
2023-08-17 19:38:23.276068,110.0
2023-08-17 19:38:23.283758,124.0
2023-08-17 19:38:23.291447,150.0
2023-08-17 19:38:23.299136,196.0
2023-08-17 19:38:23.306826,230.0
2023-08-17 19:38:23.314515,244.0
2023-08-17 19:38:23.322204,249.0
2023-08-17 19:38:23.329893,246.0
2023-08-17 19:38:23.337583,258.0
2023-08-17 19:38:23.345272,268.0
2023-08-17 19:38:23.352961,222.0
2023-08-17 19:38:23.360650,146.0
2023-08-17 19:38:23.368340,81.0
2023-08-17 19:38:23.376029,11.0
2023-08-17 19:38:23.383718,-59.0
2023-08-17 19:38:23.391408,-105.0
2023-08-17 19:38:23.399097,-139.0
2023-08-17 19:38:23.406786,-174.0
2023-08-17 19:38:23.414475,-196.0
2023-08-17 19:38:23.422165,-196.0
2023-08-17 19:38:23.429854,-196.0
2023-08-17 19:38:23.437543,-210.0
2023-08-17 19:38:23.445233,-215.0
2023-08-17 19:38:23.452922,-196.0
2023-08-17 19:38:23.460611,-182.0
2023-08-17 19:38:23.468300,-182.0
2023-08-17 19:38:23.475990,-182.0
2023-08-17 19:38:23.483679,-177.0
2023-08-17 19:38:23.491368,-170.0
2023-08-17 19:38:23.499057,-158.0
2023-08-17 19:38:23.506747,-146.0
2023-08-17 19:38:23.514436,-141.0
2023-08-17 19:38:23.522125,-141.0
2023-08-17 19:38:23.529815,-141.0
2023-08-17 19:38:23.537504,-143.0
2023-08-17 19:38:23.545193,-143.0
2023-08-17 19:38:23.552882,-136.0
2023-08-17 19:38:23.560572,-127.0
2023-08-17 19:38:23.568261,-129.0
2023-08-17 19:38:23.575950,-141.0
2023-08-17 19:38:23.583640,-139.0
2023-08-17 19:38:23.591329,-134.0
2023-08-17 19:38:23.599018,-136.0
2023-08-17 19:38:23.606707,-136.0
2023-08-17 19:38:23.614397,-129.0
2023-08-17 19:38:23.622086,-119.0
2023-08-17 19:38:23.629775,-124.0
2023-08-17 19:38:23.637464,-131.0
2023-08-17 19:38:23.645154,-124.0
2023-08-17 19:38:23.652843,-110.0
2023-08-17 19:38:23.660532,-105.0
2023-08-17 19:38:23.668222,-110.0
2023-08-17 19:38:23.675911,-110.0
2023-08-17 19:38:23.683600,-112.0
2023-08-17 19:38:23.691289,-105.0
2023-08-17 19:38:23.698979,-93.0
2023-08-17 19:38:23.706668,-93.0
2023-08-17 19:38:23.714357,-98.0
2023-08-17 19:38:23.722047,-88.0
2023-08-17 19:38:23.729736,-83.0
2023-08-17 19:38:23.737425,-95.0
2023-08-17 19:38:23.745114,-100.0
2023-08-17 19:38:23.752804,-91.0
2023-08-17 19:38:23.760493,-83.0
2023-08-17 19:38:23.768182,-86.0
2023-08-17 19:38:23.775872,-83.0
2023-08-17 19:38:23.783561,-71.0
2023-08-17 19:38:23.791250,-71.0
2023-08-17 19:38:23.798939,-79.0
2023-08-17 19:38:23.806629,-64.0
2023-08-17 19:38:23.814318,-40.0
2023-08-17 19:38:23.822007,-28.0
2023-08-17 19:38:23.829696,-26.0
2023-08-17 19:38:23.837386,-38.0
2023-08-17 19:38:23.845075,-57.0
2023-08-17 19:38:23.852764,-55.0
2023-08-17 19:38:23.860454,-59.0
2023-08-17 19:38:23.868143,-76.0
2023-08-17 19:38:23.875832,-86.0
2023-08-17 19:38:23.883521,-88.0
2023-08-17 19:38:23.891211,-86.0
2023-08-17 19:38:23.898900,-71.0
2023-08-17 19:38:23.906589,-69.0
2023-08-17 19:38:23.914279,-59.0
2023-08-17 19:38:23.921968,52.0
2023-08-17 19:38:23.929657,330.0
2023-08-17 19:38:23.937346,594.0
2023-08-17 19:38:23.945036,532.0
2023-08-17 19:38:23.952725,139.0
2023-08-17 19:38:23.960414,-251.0
2023-08-17 19:38:23.968103,-325.0
2023-08-17 19:38:23.975793,-148.0
2023-08-17 19:38:23.983482,-33.0
2023-08-17 19:38:23.991171,-79.0
2023-08-17 19:38:23.998861,-107.0
2023-08-17 19:38:24.006550,-71.0
2023-08-17 19:38:24.014239,-57.0
2023-08-17 19:38:24.021928,-67.0
2023-08-17 19:38:24.029618,-57.0
2023-08-17 19:38:24.037307,-47.0
2023-08-17 19:38:24.044996,-45.0
2023-08-17 19:38:24.052686,-38.0
2023-08-17 19:38:24.060375,-28.0
2023-08-17 19:38:24.068064,-26.0
2023-08-17 19:38:24.075753,-19.0
2023-08-17 19:38:24.083443,2.0
2023-08-17 19:38:24.091132,19.0
2023-08-17 19:38:24.098821,26.0
2023-08-17 19:38:24.106510,35.0
2023-08-17 19:38:24.114200,50.0
2023-08-17 19:38:24.121889,64.0
2023-08-17 19:38:24.129578,91.0
2023-08-17 19:38:24.137268,122.0
2023-08-17 19:38:24.144957,160.0
2023-08-17 19:38:24.152646,184.0
2023-08-17 19:38:24.160335,196.0
2023-08-17 19:38:24.168025,218.0
2023-08-17 19:38:24.175714,242.0
2023-08-17 19:38:24.183403,242.0
2023-08-17 19:38:24.191093,227.0
2023-08-17 19:38:24.198782,213.0
2023-08-17 19:38:24.206471,177.0
2023-08-17 19:38:24.214160,115.0
2023-08-17 19:38:24.221850,43.0
2023-08-17 19:38:24.229539,-31.0
2023-08-17 19:38:24.237228,-98.0
2023-08-17 19:38:24.244917,-148.0
2023-08-17 19:38:24.252607,-184.0
2023-08-17 19:38:24.260296,-201.0
2023-08-17 19:38:24.267985,-198.0
2023-08-17 19:38:24.275675,-196.0
2023-08-17 19:38:24.283364,-203.0
2023-08-17 19:38:24.291053,-203.0
2023-08-17 19:38:24.298742,-191.0
2023-08-17 19:38:24.306432,-184.0
2023-08-17 19:38:24.314121,-186.0
2023-08-17 19:38:24.321810,-184.0
2023-08-17 19:38:24.329500,-174.0
2023-08-17 19:38:24.337189,-158.0
2023-08-17 19:38:24.344878,-153.0
2023-08-17 19:38:24.352567,-160.0
2023-08-17 19:38:24.360257,-155.0
2023-08-17 19:38:24.367946,-143.0
2023-08-17 19:38:24.375635,-150.0
2023-08-17 19:38:24.383324,-153.0
2023-08-17 19:38:24.391014,-141.0
2023-08-17 19:38:24.398703,-136.0
2023-08-17 19:38:24.406392,-139.0
2023-08-17 19:38:24.414082,-129.0
2023-08-17 19:38:24.421771,-117.0
2023-08-17 19:38:24.429460,-117.0
2023-08-17 19:38:24.437149,-117.0
2023-08-17 19:38:24.444839,-115.0
2023-08-17 19:38:24.452528,-115.0
2023-08-17 19:38:24.460217,-117.0
2023-08-17 19:38:24.467907,-119.0
2023-08-17 19:38:24.475596,-122.0
2023-08-17 19:38:24.483285,-124.0
2023-08-17 19:38:24.490974,-117.0
2023-08-17 19:38:24.498664,-110.0
2023-08-17 19:38:24.506353,-110.0
2023-08-17 19:38:24.514042,-107.0
2023-08-17 19:38:24.521731,-100.0
2023-08-17 19:38:24.529421,-93.0
2023-08-17 19:38:24.537110,-95.0
2023-08-17 19:38:24.544799,-100.0
2023-08-17 19:38:24.552489,-107.0
2023-08-17 19:38:24.560178,-105.0
2023-08-17 19:38:24.567867,-98.0
2023-08-17 19:38:24.575556,-91.0
2023-08-17 19:38:24.583246,-81.0
2023-08-17 19:38:24.590935,-71.0
2023-08-17 19:38:24.598624,-91.0
2023-08-17 19:38:24.606314,-112.0
2023-08-17 19:38:24.614003,-100.0
2023-08-17 19:38:24.621692,-91.0
2023-08-17 19:38:24.629381,-98.0
2023-08-17 19:38:24.637071,-91.0
2023-08-17 19:38:24.644760,-81.0
2023-08-17 19:38:24.652449,-91.0
2023-08-17 19:38:24.660139,-98.0
2023-08-17 19:38:24.667828,-91.0
2023-08-17 19:38:24.675517,-81.0
2023-08-17 19:38:24.683206,-76.0
2023-08-17 19:38:24.690896,-57.0
2023-08-17 19:38:24.698585,-28.0
2023-08-17 19:38:24.706274,-28.0
2023-08-17 19:38:24.713963,-45.0
2023-08-17 19:38:24.721653,-43.0
2023-08-17 19:38:24.729342,-50.0
2023-08-17 19:38:24.737031,-81.0
2023-08-17 19:38:24.744721,-91.0
2023-08-17 19:38:24.752410,-88.0
2023-08-17 19:38:24.760099,-98.0
2023-08-17 19:38:24.767788,-91.0
2023-08-17 19:38:24.775478,-79.0
2023-08-17 19:38:24.783167,-86.0
2023-08-17 19:38:24.790856,-71.0
2023-08-17 19:38:24.798546,62.0
2023-08-17 19:38:24.806235,347.0
2023-08-17 19:38:24.813924,589.0
2023-08-17 19:38:24.821613,496.0
2023-08-17 19:38:24.829303,81.0
2023-08-17 19:38:24.836992,-289.0
2023-08-17 19:38:24.844681,-313.0
2023-08-17 19:38:24.852370,-105.0
2023-08-17 19:38:24.860060,-4.0
2023-08-17 19:38:24.867749,-59.0
2023-08-17 19:38:24.875438,-76.0
2023-08-17 19:38:24.883128,-40.0
2023-08-17 19:38:24.890817,-40.0
2023-08-17 19:38:24.898506,-55.0
2023-08-17 19:38:24.906195,-47.0
2023-08-17 19:38:24.913885,-40.0
2023-08-17 19:38:24.921574,-31.0
2023-08-17 19:38:24.929263,-9.0
2023-08-17 19:38:24.936953,4.0
2023-08-17 19:38:24.944642,9.0
2023-08-17 19:38:24.952331,11.0
2023-08-17 19:38:24.960020,19.0
2023-08-17 19:38:24.967710,31.0
2023-08-17 19:38:24.975399,45.0
2023-08-17 19:38:24.983088,57.0
2023-08-17 19:38:24.990777,67.0
2023-08-17 19:38:24.998467,91.0
2023-08-17 19:38:25.006156,131.0
2023-08-17 19:38:25.013845,160.0
2023-08-17 19:38:25.021535,177.0
2023-08-17 19:38:25.029224,194.0
2023-08-17 19:38:25.036913,218.0
2023-08-17 19:38:25.044602,246.0
2023-08-17 19:38:25.052292,254.0
2023-08-17 19:38:25.059981,249.0
2023-08-17 19:38:25.067670,244.0
2023-08-17 19:38:25.075360,227.0
2023-08-17 19:38:25.083049,182.0
2023-08-17 19:38:25.090738,115.0
2023-08-17 19:38:25.098427,28.0
2023-08-17 19:38:25.106117,-52.0
2023-08-17 19:38:25.113806,-110.0
2023-08-17 19:38:25.121495,-143.0
2023-08-17 19:38:25.129184,-177.0
2023-08-17 19:38:25.136874,-203.0
2023-08-17 19:38:25.144563,-213.0
2023-08-17 19:38:25.152252,-225.0
2023-08-17 19:38:25.159942,-230.0
2023-08-17 19:38:25.167631,-227.0
2023-08-17 19:38:25.175320,-227.0
2023-08-17 19:38:25.183009,-215.0
2023-08-17 19:38:25.190699,-201.0
2023-08-17 19:38:25.198388,-206.0
2023-08-17 19:38:25.206077,-210.0
2023-08-17 19:38:25.213767,-201.0
2023-08-17 19:38:25.221456,-194.0
2023-08-17 19:38:25.229145,-194.0
2023-08-17 19:38:25.236834,-191.0
2023-08-17 19:38:25.244524,-182.0
2023-08-17 19:38:25.252213,-179.0
2023-08-17 19:38:25.259902,-179.0
2023-08-17 19:38:25.267591,-174.0
2023-08-17 19:38:25.275281,-174.0
2023-08-17 19:38:25.282970,-174.0
2023-08-17 19:38:25.290659,-162.0
2023-08-17 19:38:25.298349,-150.0
2023-08-17 19:38:25.306038,-150.0
2023-08-17 19:38:25.313727,-153.0
2023-08-17 19:38:25.321416,-153.0
2023-08-17 19:38:25.329106,-150.0
2023-08-17 19:38:25.336795,-143.0
2023-08-17 19:38:25.344484,-139.0
2023-08-17 19:38:25.352174,-141.0
2023-08-17 19:38:25.359863,-139.0
2023-08-17 19:38:25.367552,-136.0
2023-08-17 19:38:25.375241,-131.0
2023-08-17 19:38:25.382931,-115.0
2023-08-17 19:38:25.390620,-117.0
2023-08-17 19:38:25.398309,-134.0
2023-08-17 19:38:25.405998,-127.0
2023-08-17 19:38:25.413688,-112.0
2023-08-17 19:38:25.421377,-115.0
2023-08-17 19:38:25.429066,-105.0
2023-08-17 19:38:25.436756,-100.0
2023-08-17 19:38:25.444445,-115.0
2023-08-17 19:38:25.452134,-110.0
2023-08-17 19:38:25.459823,-95.0
2023-08-17 19:38:25.467513,-95.0
2023-08-17 19:38:25.475202,-100.0
2023-08-17 19:38:25.482891,-103.0
2023-08-17 19:38:25.490581,-88.0
2023-08-17 19:38:25.498270,-79.0
2023-08-17 19:38:25.505959,-103.0
2023-08-17 19:38:25.513648,-115.0
2023-08-17 19:38:25.521338,-83.0
2023-08-17 19:38:25.529027,-47.0
2023-08-17 19:38:25.536716,-57.0
2023-08-17 19:38:25.544406,-83.0
2023-08-17 19:38:25.552095,-86.0
2023-08-17 19:38:25.559784,-81.0
2023-08-17 19:38:25.567473,-71.0
2023-08-17 19:38:25.575163,-69.0
2023-08-17 19:38:25.582852,-62.0
2023-08-17 19:38:25.590541,-31.0
2023-08-17 19:38:25.598230,-23.0
2023-08-17 19:38:25.605920,-55.0
2023-08-17 19:38:25.613609,-71.0
2023-08-17 19:38:25.621298,-76.0
2023-08-17 19:38:25.628988,-83.0
2023-08-17 19:38:25.636677,-88.0
2023-08-17 19:38:25.644366,-95.0
2023-08-17 19:38:25.652055,-103.0
2023-08-17 19:38:25.659745,-98.0
2023-08-17 19:38:25.667434,-103.0
2023-08-17 19:38:25.675123,-98.0
2023-08-17 19:38:25.682813,-26.0
2023-08-17 19:38:25.690502,174.0
2023-08-17 19:38:25.698191,481.0
2023-08-17 19:38:25.705880,611.0
2023-08-17 19:38:25.713570,301.0
2023-08-17 19:38:25.721259,-218.0
2023-08-17 19:38:25.728948,-433.0
2023-08-17 19:38:25.736637,-237.0
2023-08-17 19:38:25.744327,-40.0
2023-08-17 19:38:25.752016,-59.0
2023-08-17 19:38:25.759705,-95.0
2023-08-17 19:38:25.767395,-71.0
2023-08-17 19:38:25.775084,-64.0
2023-08-17 19:38:25.782773,-57.0
2023-08-17 19:38:25.790462,-43.0
2023-08-17 19:38:25.798152,-45.0
2023-08-17 19:38:25.805841,-43.0
2023-08-17 19:38:25.813530,-26.0
2023-08-17 19:38:25.821220,-11.0
2023-08-17 19:38:25.828909,-7.0
2023-08-17 19:38:25.836598,2.0
2023-08-17 19:38:25.844287,19.0
2023-08-17 19:38:25.851977,33.0
2023-08-17 19:38:25.859666,47.0
2023-08-17 19:38:25.867355,64.0
2023-08-17 19:38:25.875044,83.0
2023-08-17 19:38:25.882734,107.0
2023-08-17 19:38:25.890423,127.0
2023-08-17 19:38:25.898112,148.0
2023-08-17 19:38:25.905802,174.0
2023-08-17 19:38:25.913491,203.0
2023-08-17 19:38:25.921180,232.0
2023-08-17 19:38:25.928869,266.0
2023-08-17 19:38:25.936559,282.0
2023-08-17 19:38:25.944248,273.0
2023-08-17 19:38:25.951937,258.0
2023-08-17 19:38:25.959627,244.0
2023-08-17 19:38:25.967316,210.0
2023-08-17 19:38:25.975005,150.0
2023-08-17 19:38:25.982694,64.0
2023-08-17 19:38:25.990384,-11.0
2023-08-17 19:38:25.998073,-69.0
2023-08-17 19:38:26.005762,-122.0
2023-08-17 19:38:26.013451,-170.0
2023-08-17 19:38:26.021141,-194.0
2023-08-17 19:38:26.028830,-210.0
2023-08-17 19:38:26.036519,-230.0
2023-08-17 19:38:26.044209,-230.0
2023-08-17 19:38:26.051898,-220.0
2023-08-17 19:38:26.059587,-213.0
2023-08-17 19:38:26.067276,-201.0
2023-08-17 19:38:26.074966,-191.0
2023-08-17 19:38:26.082655,-196.0
2023-08-17 19:38:26.090344,-203.0
2023-08-17 19:38:26.098034,-194.0
2023-08-17 19:38:26.105723,-184.0
2023-08-17 19:38:26.113412,-182.0
2023-08-17 19:38:26.121101,-182.0
2023-08-17 19:38:26.128791,-174.0
2023-08-17 19:38:26.136480,-170.0
2023-08-17 19:38:26.144169,-165.0
2023-08-17 19:38:26.151858,-153.0
2023-08-17 19:38:26.159548,-150.0
2023-08-17 19:38:26.167237,-160.0
2023-08-17 19:38:26.174926,-158.0
2023-08-17 19:38:26.182616,-148.0
2023-08-17 19:38:26.190305,-143.0
2023-08-17 19:38:26.197994,-141.0
2023-08-17 19:38:26.205683,-143.0
2023-08-17 19:38:26.213373,-143.0
2023-08-17 19:38:26.221062,-141.0
2023-08-17 19:38:26.228751,-143.0
2023-08-17 19:38:26.236441,-146.0
2023-08-17 19:38:26.244130,-143.0
2023-08-17 19:38:26.251819,-129.0
2023-08-17 19:38:26.259508,-117.0
2023-08-17 19:38:26.267198,-124.0
2023-08-17 19:38:26.274887,-141.0
2023-08-17 19:38:26.282576,-141.0
2023-08-17 19:38:26.290266,-136.0
2023-08-17 19:38:26.297955,-129.0
2023-08-17 19:38:26.305644,-117.0
2023-08-17 19:38:26.313333,-115.0
2023-08-17 19:38:26.321023,-122.0
2023-08-17 19:38:26.328712,-115.0
2023-08-17 19:38:26.336401,-110.0
2023-08-17 19:38:26.344090,-112.0
2023-08-17 19:38:26.351780,-98.0
2023-08-17 19:38:26.359469,-91.0
2023-08-17 19:38:26.367158,-98.0
2023-08-17 19:38:26.374848,-95.0
2023-08-17 19:38:26.382537,-88.0
2023-08-17 19:38:26.390226,-95.0
2023-08-17 19:38:26.397915,-98.0
2023-08-17 19:38:26.405605,-88.0
2023-08-17 19:38:26.413294,-76.0
2023-08-17 19:38:26.420983,-64.0
2023-08-17 19:38:26.428673,-59.0
2023-08-17 19:38:26.436362,-59.0
2023-08-17 19:38:26.444051,-38.0
2023-08-17 19:38:26.451740,-28.0
2023-08-17 19:38:26.459430,-59.0
2023-08-17 19:38:26.467119,-74.0
2023-08-17 19:38:26.474808,-74.0
2023-08-17 19:38:26.482497,-93.0
2023-08-17 19:38:26.490187,-103.0
2023-08-17 19:38:26.497876,-98.0
2023-08-17 19:38:26.505565,-93.0
2023-08-17 19:38:26.513255,-88.0
2023-08-17 19:38:26.520944,-95.0
2023-08-17 19:38:26.528633,-91.0
2023-08-17 19:38:26.536322,2.0
2023-08-17 19:38:26.544012,237.0
2023-08-17 19:38:26.551701,512.0
2023-08-17 19:38:26.559390,568.0
2023-08-17 19:38:26.567080,249.0
2023-08-17 19:38:26.574769,-203.0
2023-08-17 19:38:26.582458,-376.0
2023-08-17 19:38:26.590147,-198.0
2023-08-17 19:38:26.597837,-26.0
2023-08-17 19:38:26.605526,-40.0
2023-08-17 19:38:26.613215,-81.0
2023-08-17 19:38:26.620904,-64.0
2023-08-17 19:38:26.628594,-64.0
2023-08-17 19:38:26.636283,-71.0
2023-08-17 19:38:26.643972,-52.0
2023-08-17 19:38:26.651662,-35.0
2023-08-17 19:38:26.659351,-35.0
2023-08-17 19:38:26.667040,-31.0
2023-08-17 19:38:26.674729,-26.0
2023-08-17 19:38:26.682419,-19.0
2023-08-17 19:38:26.690108,-7.0
2023-08-17 19:38:26.697797,16.0
2023-08-17 19:38:26.705487,31.0
2023-08-17 19:38:26.713176,35.0
2023-08-17 19:38:26.720865,40.0
2023-08-17 19:38:26.728554,57.0
2023-08-17 19:38:26.736244,91.0
2023-08-17 19:38:26.743933,117.0
2023-08-17 19:38:26.751622,131.0
2023-08-17 19:38:26.759311,148.0
2023-08-17 19:38:26.767001,177.0
2023-08-17 19:38:26.774690,203.0
2023-08-17 19:38:26.782379,218.0
2023-08-17 19:38:26.790069,237.0
2023-08-17 19:38:26.797758,263.0
2023-08-17 19:38:26.805447,254.0
2023-08-17 19:38:26.813136,210.0
2023-08-17 19:38:26.820826,162.0
2023-08-17 19:38:26.828515,110.0
2023-08-17 19:38:26.836204,35.0
2023-08-17 19:38:26.843894,-38.0
2023-08-17 19:38:26.851583,-103.0
2023-08-17 19:38:26.859272,-162.0
2023-08-17 19:38:26.866961,-189.0
2023-08-17 19:38:26.874651,-194.0
2023-08-17 19:38:26.882340,-203.0
2023-08-17 19:38:26.890029,-208.0
2023-08-17 19:38:26.897718,-210.0
2023-08-17 19:38:26.905408,-206.0
2023-08-17 19:38:26.913097,-194.0
2023-08-17 19:38:26.920786,-191.0
2023-08-17 19:38:26.928476,-198.0
2023-08-17 19:38:26.936165,-194.0
2023-08-17 19:38:26.943854,-189.0
2023-08-17 19:38:26.951543,-191.0
2023-08-17 19:38:26.959233,-198.0
2023-08-17 19:38:26.966922,-194.0
2023-08-17 19:38:26.974611,-177.0
2023-08-17 19:38:26.982301,-167.0
2023-08-17 19:38:26.989990,-165.0
2023-08-17 19:38:26.997679,-158.0
2023-08-17 19:38:27.005368,-155.0
2023-08-17 19:38:27.013058,-162.0
2023-08-17 19:38:27.020747,-160.0
2023-08-17 19:38:27.028436,-148.0
2023-08-17 19:38:27.036125,-146.0
2023-08-17 19:38:27.043815,-150.0
2023-08-17 19:38:27.051504,-155.0
2023-08-17 19:38:27.059193,-158.0
2023-08-17 19:38:27.066883,-153.0
2023-08-17 19:38:27.074572,-143.0
2023-08-17 19:38:27.082261,-139.0
2023-08-17 19:38:27.089950,-129.0
2023-08-17 19:38:27.097640,-127.0
2023-08-17 19:38:27.105329,-134.0
2023-08-17 19:38:27.113018,-129.0
2023-08-17 19:38:27.120708,-129.0
2023-08-17 19:38:27.128397,-134.0
2023-08-17 19:38:27.136086,-124.0
2023-08-17 19:38:27.143775,-122.0
2023-08-17 19:38:27.151465,-129.0
2023-08-17 19:38:27.159154,-124.0
2023-08-17 19:38:27.166843,-117.0
2023-08-17 19:38:27.174533,-115.0
2023-08-17 19:38:27.182222,-110.0
2023-08-17 19:38:27.189911,-98.0
2023-08-17 19:38:27.197600,-98.0
2023-08-17 19:38:27.205290,-107.0
2023-08-17 19:38:27.212979,-110.0
2023-08-17 19:38:27.220668,-112.0
2023-08-17 19:38:27.228357,-98.0
2023-08-17 19:38:27.236047,-79.0
2023-08-17 19:38:27.243736,-83.0
2023-08-17 19:38:27.251425,-95.0
2023-08-17 19:38:27.259115,-98.0
2023-08-17 19:38:27.266804,-95.0
2023-08-17 19:38:27.274493,-91.0
2023-08-17 19:38:27.282182,-81.0
2023-08-17 19:38:27.289872,-76.0
2023-08-17 19:38:27.297561,-79.0
2023-08-17 19:38:27.305250,-74.0
2023-08-17 19:38:27.312940,-62.0
2023-08-17 19:38:27.320629,-62.0
2023-08-17 19:38:27.328318,-71.0
2023-08-17 19:38:27.336007,-67.0
2023-08-17 19:38:27.343697,-57.0
2023-08-17 19:38:27.351386,-59.0
2023-08-17 19:38:27.359075,-57.0
2023-08-17 19:38:27.366764,-43.0
2023-08-17 19:38:27.374454,-35.0
2023-08-17 19:38:27.382143,-43.0
2023-08-17 19:38:27.389832,-62.0
2023-08-17 19:38:27.397522,-74.0
2023-08-17 19:38:27.405211,-79.0
2023-08-17 19:38:27.412900,-86.0
2023-08-17 19:38:27.420589,-91.0
2023-08-17 19:38:27.428279,-88.0
2023-08-17 19:38:27.435968,-79.0
2023-08-17 19:38:27.443657,-79.0
2023-08-17 19:38:27.451347,-86.0
2023-08-17 19:38:27.459036,-57.0
2023-08-17 19:38:27.466725,91.0
2023-08-17 19:38:27.474414,373.0
2023-08-17 19:38:27.482104,587.0
2023-08-17 19:38:27.489793,448.0
2023-08-17 19:38:27.497482,21.0
2023-08-17 19:38:27.505171,-306.0
2023-08-17 19:38:27.512861,-287.0
2023-08-17 19:38:27.520550,-98.0
2023-08-17 19:38:27.528239,-31.0
2023-08-17 19:38:27.535929,-71.0
2023-08-17 19:38:27.543618,-67.0
2023-08-17 19:38:27.551307,-43.0
2023-08-17 19:38:27.558996,-55.0
2023-08-17 19:38:27.566686,-57.0
2023-08-17 19:38:27.574375,-43.0
2023-08-17 19:38:27.582064,-33.0
2023-08-17 19:38:27.589754,-26.0
2023-08-17 19:38:27.597443,-16.0
2023-08-17 19:38:27.605132,-14.0
2023-08-17 19:38:27.612821,-9.0
2023-08-17 19:38:27.620511,4.0
2023-08-17 19:38:27.628200,21.0
2023-08-17 19:38:27.635889,28.0
2023-08-17 19:38:27.643578,38.0
2023-08-17 19:38:27.651268,62.0
2023-08-17 19:38:27.658957,79.0
2023-08-17 19:38:27.666646,88.0
2023-08-17 19:38:27.674336,117.0
2023-08-17 19:38:27.682025,153.0
2023-08-17 19:38:27.689714,170.0
2023-08-17 19:38:27.697403,182.0
2023-08-17 19:38:27.705093,218.0
2023-08-17 19:38:27.712782,249.0
2023-08-17 19:38:27.720471,254.0
2023-08-17 19:38:27.728161,249.0
2023-08-17 19:38:27.735850,239.0
2023-08-17 19:38:27.743539,210.0
2023-08-17 19:38:27.751228,160.0
2023-08-17 19:38:27.758918,100.0
2023-08-17 19:38:27.766607,40.0
2023-08-17 19:38:27.774296,-19.0
2023-08-17 19:38:27.781985,-71.0
2023-08-17 19:38:27.789675,-119.0
2023-08-17 19:38:27.797364,-167.0
2023-08-17 19:38:27.805053,-191.0
2023-08-17 19:38:27.812743,-179.0
2023-08-17 19:38:27.820432,-182.0
2023-08-17 19:38:27.828121,-208.0
2023-08-17 19:38:27.835810,-218.0
2023-08-17 19:38:27.843500,-210.0
2023-08-17 19:38:27.851189,-215.0
2023-08-17 19:38:27.858878,-215.0
2023-08-17 19:38:27.866568,-203.0
2023-08-17 19:38:27.874257,-203.0
2023-08-17 19:38:27.881946,-201.0
2023-08-17 19:38:27.889635,-184.0
2023-08-17 19:38:27.897325,-174.0
2023-08-17 19:38:27.905014,-158.0
2023-08-17 19:38:27.912703,-40.0
2023-08-17 19:38:27.920392,242.0
2023-08-17 19:38:27.928082,448.0
2023-08-17 19:38:27.935771,215.0
2023-08-17 19:38:27.943460,-306.0
2023-08-17 19:38:27.951150,-553.0
2023-08-17 19:38:27.958839,-342.0
2023-08-17 19:38:27.966528,-79.0
2023-08-17 19:38:27.974217,-83.0
2023-08-17 19:38:27.981907,-167.0
2023-08-17 19:38:27.989596,-141.0
2023-08-17 19:38:27.997285,-105.0
2023-08-17 19:38:28.004975,-107.0
2023-08-17 19:38:28.012664,-98.0
2023-08-17 19:38:28.020353,-93.0
2023-08-17 19:38:28.028042,-98.0
2023-08-17 19:38:28.035732,-93.0
2023-08-17 19:38:28.043421,-83.0
2023-08-17 19:38:28.051110,-74.0
2023-08-17 19:38:28.058800,-59.0
2023-08-17 19:38:28.066489,-52.0
2023-08-17 19:38:28.074178,-45.0
2023-08-17 19:38:28.081867,-26.0
2023-08-17 19:38:28.089557,-9.0
2023-08-17 19:38:28.097246,2.0
2023-08-17 19:38:28.104935,21.0
2023-08-17 19:38:28.112624,50.0
2023-08-17 19:38:28.120314,59.0
2023-08-17 19:38:28.128003,69.0
2023-08-17 19:38:28.135692,88.0
2023-08-17 19:38:28.143382,100.0
2023-08-17 19:38:28.151071,103.0
2023-08-17 19:38:28.158760,117.0
2023-08-17 19:38:28.166449,131.0
2023-08-17 19:38:28.174139,124.0
2023-08-17 19:38:28.181828,100.0
2023-08-17 19:38:28.189517,52.0
2023-08-17 19:38:28.197207,-11.0
2023-08-17 19:38:28.204896,-69.0
2023-08-17 19:38:28.212585,-112.0
2023-08-17 19:38:28.220274,-146.0
2023-08-17 19:38:28.227964,-172.0
2023-08-17 19:38:28.235653,-186.0
2023-08-17 19:38:28.243342,-191.0
2023-08-17 19:38:28.251031,-196.0
2023-08-17 19:38:28.258721,-206.0
2023-08-17 19:38:28.266410,-206.0
2023-08-17 19:38:28.274099,-191.0
2023-08-17 19:38:28.281789,-182.0
2023-08-17 19:38:28.289478,-179.0
2023-08-17 19:38:28.297167,-174.0
2023-08-17 19:38:28.304856,-167.0
2023-08-17 19:38:28.312546,-160.0
2023-08-17 19:38:28.320235,-155.0
2023-08-17 19:38:28.327924,-150.0
2023-08-17 19:38:28.335614,-150.0
2023-08-17 19:38:28.343303,-155.0
2023-08-17 19:38:28.350992,-153.0
2023-08-17 19:38:28.358681,-131.0
2023-08-17 19:38:28.366371,-127.0
2023-08-17 19:38:28.374060,-143.0
2023-08-17 19:38:28.381749,-143.0
2023-08-17 19:38:28.389438,-124.0
2023-08-17 19:38:28.397128,-115.0
2023-08-17 19:38:28.404817,-119.0
2023-08-17 19:38:28.412506,-122.0
2023-08-17 19:38:28.420196,-117.0
2023-08-17 19:38:28.427885,-119.0
2023-08-17 19:38:28.435574,-124.0
2023-08-17 19:38:28.443263,-117.0
2023-08-17 19:38:28.450953,-110.0
2023-08-17 19:38:28.458642,-110.0
2023-08-17 19:38:28.466331,-112.0
2023-08-17 19:38:28.474021,-112.0
2023-08-17 19:38:28.481710,-110.0
2023-08-17 19:38:28.489399,-112.0
2023-08-17 19:38:28.497088,-110.0
2023-08-17 19:38:28.504778,-98.0
2023-08-17 19:38:28.512467,-95.0
2023-08-17 19:38:28.520156,-93.0
2023-08-17 19:38:28.527845,-86.0
2023-08-17 19:38:28.535535,-83.0
2023-08-17 19:38:28.543224,-86.0
2023-08-17 19:38:28.550913,-81.0
2023-08-17 19:38:28.558603,-79.0
2023-08-17 19:38:28.566292,-95.0
2023-08-17 19:38:28.573981,-107.0
2023-08-17 19:38:28.581670,-105.0
2023-08-17 19:38:28.589360,-103.0
2023-08-17 19:38:28.597049,-95.0
2023-08-17 19:38:28.604738,-86.0
2023-08-17 19:38:28.612428,-86.0
2023-08-17 19:38:28.620117,-86.0
2023-08-17 19:38:28.627806,-79.0
2023-08-17 19:38:28.635495,-91.0
2023-08-17 19:38:28.643185,-105.0
2023-08-17 19:38:28.650874,-93.0
2023-08-17 19:38:28.658563,-79.0
2023-08-17 19:38:28.666252,-81.0
2023-08-17 19:38:28.673942,-98.0
2023-08-17 19:38:28.681631,-107.0
2023-08-17 19:38:28.689320,-103.0
2023-08-17 19:38:28.697010,-98.0
2023-08-17 19:38:28.704699,-95.0
2023-08-17 19:38:28.712388,-93.0
2023-08-17 19:38:28.720077,-88.0
2023-08-17 19:38:28.727767,-83.0
2023-08-17 19:38:28.735456,-81.0
2023-08-17 19:38:28.743145,-83.0
2023-08-17 19:38:28.750835,-88.0
2023-08-17 19:38:28.758524,-93.0
2023-08-17 19:38:28.766213,-91.0
2023-08-17 19:38:28.773902,-83.0
2023-08-17 19:38:28.781592,-83.0
2023-08-17 19:38:28.789281,-81.0
2023-08-17 19:38:28.796970,-71.0
2023-08-17 19:38:28.804660,-69.0
2023-08-17 19:38:28.812349,-71.0
2023-08-17 19:38:28.820038,-67.0
2023-08-17 19:38:28.827727,-59.0
2023-08-17 19:38:28.835417,-43.0
2023-08-17 19:38:28.843106,-28.0
2023-08-17 19:38:28.850795,-28.0
2023-08-17 19:38:28.858484,-40.0
2023-08-17 19:38:28.866174,-47.0
2023-08-17 19:38:28.873863,-55.0
2023-08-17 19:38:28.881552,-71.0
2023-08-17 19:38:28.889242,-81.0
2023-08-17 19:38:28.896931,-71.0
2023-08-17 19:38:28.904620,-71.0
2023-08-17 19:38:28.912309,-81.0
2023-08-17 19:38:28.919999,-86.0
2023-08-17 19:38:28.927688,-71.0
2023-08-17 19:38:28.935377,11.0
2023-08-17 19:38:28.943067,251.0
2023-08-17 19:38:28.950756,548.0
2023-08-17 19:38:28.958445,601.0
2023-08-17 19:38:28.966134,280.0
2023-08-17 19:38:28.973824,-153.0
2023-08-17 19:38:28.981513,-330.0
2023-08-17 19:38:28.989202,-182.0
2023-08-17 19:38:28.996891,-26.0
2023-08-17 19:38:29.004581,-47.0
2023-08-17 19:38:29.012270,-76.0
2023-08-17 19:38:29.019959,-50.0
2023-08-17 19:38:29.027649,-45.0
2023-08-17 19:38:29.035338,-40.0
2023-08-17 19:38:29.043027,-26.0
2023-08-17 19:38:29.050716,-28.0
2023-08-17 19:38:29.058406,-38.0
2023-08-17 19:38:29.066095,-31.0
2023-08-17 19:38:29.073784,-19.0
2023-08-17 19:38:29.081474,-9.0
2023-08-17 19:38:29.089163,2.0
2023-08-17 19:38:29.096852,16.0
2023-08-17 19:38:29.104541,19.0
2023-08-17 19:38:29.112231,23.0
2023-08-17 19:38:29.119920,45.0
2023-08-17 19:38:29.127609,71.0
2023-08-17 19:38:29.135298,91.0
2023-08-17 19:38:29.142988,103.0
2023-08-17 19:38:29.150677,112.0
2023-08-17 19:38:29.158366,131.0
2023-08-17 19:38:29.166056,153.0
2023-08-17 19:38:29.173745,174.0
2023-08-17 19:38:29.181434,201.0
2023-08-17 19:38:29.189123,225.0
2023-08-17 19:38:29.196813,230.0
2023-08-17 19:38:29.204502,225.0
2023-08-17 19:38:29.212191,227.0
2023-08-17 19:38:29.219881,230.0
2023-08-17 19:38:29.227570,210.0
2023-08-17 19:38:29.235259,155.0
2023-08-17 19:38:29.242948,91.0
2023-08-17 19:38:29.250638,33.0
2023-08-17 19:38:29.258327,-16.0
2023-08-17 19:38:29.266016,-74.0
2023-08-17 19:38:29.273705,-122.0
2023-08-17 19:38:29.281395,-143.0
2023-08-17 19:38:29.289084,-158.0
2023-08-17 19:38:29.296773,-174.0
2023-08-17 19:38:29.304463,-179.0
2023-08-17 19:38:29.312152,-177.0
2023-08-17 19:38:29.319841,-172.0
2023-08-17 19:38:29.327530,-165.0
2023-08-17 19:38:29.335220,-160.0
2023-08-17 19:38:29.342909,-155.0
2023-08-17 19:38:29.350598,-155.0
2023-08-17 19:38:29.358288,-155.0
2023-08-17 19:38:29.365977,-153.0
2023-08-17 19:38:29.373666,-146.0
2023-08-17 19:38:29.381355,-131.0
2023-08-17 19:38:29.389045,-117.0
2023-08-17 19:38:29.396734,-122.0
2023-08-17 19:38:29.404423,-139.0
2023-08-17 19:38:29.412112,-139.0
2023-08-17 19:38:29.419802,-136.0
2023-08-17 19:38:29.427491,-131.0
2023-08-17 19:38:29.435180,-122.0
2023-08-17 19:38:29.442870,-119.0
2023-08-17 19:38:29.450559,-129.0
2023-08-17 19:38:29.458248,-134.0
2023-08-17 19:38:29.465937,-134.0
2023-08-17 19:38:29.473627,-134.0
2023-08-17 19:38:29.481316,-134.0
2023-08-17 19:38:29.489005,-131.0
2023-08-17 19:38:29.496695,-129.0
2023-08-17 19:38:29.504384,-127.0
2023-08-17 19:38:29.512073,-117.0
2023-08-17 19:38:29.519762,-112.0
2023-08-17 19:38:29.527452,-115.0
2023-08-17 19:38:29.535141,-115.0
2023-08-17 19:38:29.542830,-110.0
2023-08-17 19:38:29.550519,-112.0
2023-08-17 19:38:29.558209,-115.0
2023-08-17 19:38:29.565898,-115.0
2023-08-17 19:38:29.573587,-117.0
2023-08-17 19:38:29.581277,-122.0
2023-08-17 19:38:29.588966,-115.0
2023-08-17 19:38:29.596655,-112.0
2023-08-17 19:38:29.604344,-122.0
2023-08-17 19:38:29.612034,-117.0
2023-08-17 19:38:29.619723,-100.0
2023-08-17 19:38:29.627412,-103.0
2023-08-17 19:38:29.635102,-107.0
2023-08-17 19:38:29.642791,-105.0
2023-08-17 19:38:29.650480,-112.0
2023-08-17 19:38:29.658169,-122.0
2023-08-17 19:38:29.665859,-119.0
2023-08-17 19:38:29.673548,-107.0
2023-08-17 19:38:29.681237,-98.0
2023-08-17 19:38:29.688927,-98.0
2023-08-17 19:38:29.696616,-103.0
2023-08-17 19:38:29.704305,-103.0
2023-08-17 19:38:29.711994,-100.0
2023-08-17 19:38:29.719684,-100.0
2023-08-17 19:38:29.727373,-91.0
2023-08-17 19:38:29.735062,-71.0
2023-08-17 19:38:29.742751,-57.0
2023-08-17 19:38:29.750441,-55.0
2023-08-17 19:38:29.758130,-38.0
2023-08-17 19:38:29.765819,-26.0
2023-08-17 19:38:29.773509,-45.0
2023-08-17 19:38:29.781198,-69.0
2023-08-17 19:38:29.788887,-71.0
2023-08-17 19:38:29.796576,-71.0
2023-08-17 19:38:29.804266,-81.0
2023-08-17 19:38:29.811955,-88.0
2023-08-17 19:38:29.819644,-93.0
2023-08-17 19:38:29.827334,-91.0
2023-08-17 19:38:29.835023,-76.0
2023-08-17 19:38:29.842712,-74.0
2023-08-17 19:38:29.850401,-62.0
2023-08-17 19:38:29.858091,67.0
2023-08-17 19:38:29.865780,349.0
2023-08-17 19:38:29.873469,575.0
2023-08-17 19:38:29.881158,467.0
2023-08-17 19:38:29.888848,76.0
2023-08-17 19:38:29.896537,-256.0
2023-08-17 19:38:29.904226,-285.0
2023-08-17 19:38:29.911916,-112.0
2023-08-17 19:38:29.919605,-21.0
2023-08-17 19:38:29.927294,-62.0
2023-08-17 19:38:29.934983,-74.0
2023-08-17 19:38:29.942673,-45.0
2023-08-17 19:38:29.950362,-45.0
2023-08-17 19:38:29.958051,-52.0
2023-08-17 19:38:29.965741,-35.0
2023-08-17 19:38:29.973430,-21.0
2023-08-17 19:38:29.981119,-19.0
2023-08-17 19:38:29.988808,-16.0
2023-08-17 19:38:29.996498,-9.0
2023-08-17 19:38:30.004187,4.0
2023-08-17 19:38:30.011876,21.0
2023-08-17 19:38:30.019565,28.0
2023-08-17 19:38:30.027255,38.0
2023-08-17 19:38:30.034944,59.0
2023-08-17 19:38:30.042633,74.0
2023-08-17 19:38:30.050323,81.0
2023-08-17 19:38:30.058012,100.0
2023-08-17 19:38:30.065701,131.0
2023-08-17 19:38:30.073390,150.0
2023-08-17 19:38:30.081080,162.0
2023-08-17 19:38:30.088769,189.0
2023-08-17 19:38:30.096458,220.0
2023-08-17 19:38:30.104148,234.0
2023-08-17 19:38:30.111837,246.0
2023-08-17 19:38:30.119526,256.0
2023-08-17 19:38:30.127215,249.0
2023-08-17 19:38:30.134905,230.0
2023-08-17 19:38:30.142594,191.0
2023-08-17 19:38:30.150283,122.0
2023-08-17 19:38:30.157972,47.0
2023-08-17 19:38:30.165662,-16.0
2023-08-17 19:38:30.173351,-79.0
2023-08-17 19:38:30.181040,-127.0
2023-08-17 19:38:30.188730,-165.0
2023-08-17 19:38:30.196419,-194.0
2023-08-17 19:38:30.204108,-203.0
2023-08-17 19:38:30.211797,-198.0
2023-08-17 19:38:30.219487,-186.0
2023-08-17 19:38:30.227176,-186.0
2023-08-17 19:38:30.234865,-198.0
2023-08-17 19:38:30.242555,-196.0
2023-08-17 19:38:30.250244,-186.0
2023-08-17 19:38:30.257933,-189.0
2023-08-17 19:38:30.265622,-189.0
2023-08-17 19:38:30.273312,-174.0
2023-08-17 19:38:30.281001,-165.0
2023-08-17 19:38:30.288690,-167.0
2023-08-17 19:38:30.296379,-160.0
2023-08-17 19:38:30.304069,-141.0
2023-08-17 19:38:30.311758,-131.0
2023-08-17 19:38:30.319447,-148.0
2023-08-17 19:38:30.327137,-150.0
2023-08-17 19:38:30.334826,-139.0
2023-08-17 19:38:30.342515,-139.0
2023-08-17 19:38:30.350204,-143.0
2023-08-17 19:38:30.357894,-136.0
2023-08-17 19:38:30.365583,-134.0
2023-08-17 19:38:30.373272,-136.0
2023-08-17 19:38:30.380962,-139.0
2023-08-17 19:38:30.388651,-136.0
2023-08-17 19:38:30.396340,-136.0
2023-08-17 19:38:30.404029,-139.0
2023-08-17 19:38:30.411719,-143.0
2023-08-17 19:38:30.419408,-139.0
2023-08-17 19:38:30.427097,-127.0
2023-08-17 19:38:30.434786,-119.0
2023-08-17 19:38:30.442476,-119.0
2023-08-17 19:38:30.450165,-122.0
2023-08-17 19:38:30.457854,-124.0
2023-08-17 19:38:30.465544,-124.0
2023-08-17 19:38:30.473233,-122.0
2023-08-17 19:38:30.480922,-124.0
2023-08-17 19:38:30.488611,-122.0
2023-08-17 19:38:30.496301,-117.0
2023-08-17 19:38:30.503990,-115.0
2023-08-17 19:38:30.511679,-112.0
2023-08-17 19:38:30.519369,-117.0
2023-08-17 19:38:30.527058,-115.0
2023-08-17 19:38:30.534747,-95.0
2023-08-17 19:38:30.542436,-91.0
2023-08-17 19:38:30.550126,-100.0
2023-08-17 19:38:30.557815,-103.0
2023-08-17 19:38:30.565504,-100.0
2023-08-17 19:38:30.573194,-95.0
2023-08-17 19:38:30.580883,-93.0
2023-08-17 19:38:30.588572,-93.0
2023-08-17 19:38:30.596261,-98.0
2023-08-17 19:38:30.603951,-95.0
2023-08-17 19:38:30.611640,-83.0
2023-08-17 19:38:30.619329,-79.0
2023-08-17 19:38:30.627018,-83.0
2023-08-17 19:38:30.634708,-83.0
2023-08-17 19:38:30.642397,-81.0
2023-08-17 19:38:30.650086,-88.0
2023-08-17 19:38:30.657776,-95.0
2023-08-17 19:38:30.665465,-93.0
2023-08-17 19:38:30.673154,-91.0
2023-08-17 19:38:30.680843,-91.0
2023-08-17 19:38:30.688533,-88.0
2023-08-17 19:38:30.696222,-86.0
2023-08-17 19:38:30.703911,-69.0
2023-08-17 19:38:30.711601,-45.0
2023-08-17 19:38:30.719290,-38.0
2023-08-17 19:38:30.726979,-45.0
2023-08-17 19:38:30.734668,-47.0
2023-08-17 19:38:30.742358,-50.0
2023-08-17 19:38:30.750047,-62.0
2023-08-17 19:38:30.757736,-67.0
2023-08-17 19:38:30.765425,-83.0
2023-08-17 19:38:30.773115,-103.0
2023-08-17 19:38:30.780804,-98.0
2023-08-17 19:38:30.788493,-88.0
2023-08-17 19:38:30.796183,-91.0
2023-08-17 19:38:30.803872,-88.0
2023-08-17 19:38:30.811561,-86.0
2023-08-17 19:38:30.819250,-69.0
2023-08-17 19:38:30.826940,38.0
2023-08-17 19:38:30.834629,299.0
2023-08-17 19:38:30.842318,546.0
2023-08-17 19:38:30.850008,467.0
2023-08-17 19:38:30.857697,55.0
2023-08-17 19:38:30.865386,-306.0
2023-08-17 19:38:30.873075,-311.0
2023-08-17 19:38:30.880765,-110.0
2023-08-17 19:38:30.888454,-21.0
2023-08-17 19:38:30.896143,-62.0
2023-08-17 19:38:30.903832,-76.0
2023-08-17 19:38:30.911522,-59.0
2023-08-17 19:38:30.919211,-55.0
2023-08-17 19:38:30.926900,-45.0
2023-08-17 19:38:30.934590,-33.0
2023-08-17 19:38:30.942279,-33.0
2023-08-17 19:38:30.949968,-40.0
2023-08-17 19:38:30.957657,-47.0
2023-08-17 19:38:30.965347,-28.0
2023-08-17 19:38:30.973036,11.0
2023-08-17 19:38:30.980725,28.0
2023-08-17 19:38:30.988415,40.0
2023-08-17 19:38:30.996104,64.0
2023-08-17 19:38:31.003793,76.0
2023-08-17 19:38:31.011482,81.0
2023-08-17 19:38:31.019172,95.0
2023-08-17 19:38:31.026861,110.0
2023-08-17 19:38:31.034550,124.0
2023-08-17 19:38:31.042239,153.0
2023-08-17 19:38:31.049929,186.0
2023-08-17 19:38:31.057618,210.0
2023-08-17 19:38:31.065307,227.0
2023-08-17 19:38:31.072997,244.0
2023-08-17 19:38:31.080686,258.0
2023-08-17 19:38:31.088375,270.0
2023-08-17 19:38:31.096064,270.0
2023-08-17 19:38:31.103754,249.0
2023-08-17 19:38:31.111443,196.0
2023-08-17 19:38:31.119132,131.0
2023-08-17 19:38:31.126822,62.0
2023-08-17 19:38:31.134511,-4.0
2023-08-17 19:38:31.142200,-57.0
2023-08-17 19:38:31.149889,-112.0
2023-08-17 19:38:31.157579,-167.0
2023-08-17 19:38:31.165268,-189.0
2023-08-17 19:38:31.172957,-189.0
2023-08-17 19:38:31.180646,-198.0
2023-08-17 19:38:31.188336,-203.0
2023-08-17 19:38:31.196025,-208.0
2023-08-17 19:38:31.203714,-218.0
2023-08-17 19:38:31.211404,-218.0
2023-08-17 19:38:31.219093,-210.0
2023-08-17 19:38:31.226782,-186.0
2023-08-17 19:38:31.234471,-167.0
2023-08-17 19:38:31.242161,-172.0
2023-08-17 19:38:31.249850,-179.0
2023-08-17 19:38:31.257539,-167.0
2023-08-17 19:38:31.265229,-162.0
2023-08-17 19:38:31.272918,-165.0
2023-08-17 19:38:31.280607,-170.0
2023-08-17 19:38:31.288296,-167.0
2023-08-17 19:38:31.295986,-158.0
2023-08-17 19:38:31.303675,-158.0
2023-08-17 19:38:31.311364,-170.0
2023-08-17 19:38:31.319054,-170.0
2023-08-17 19:38:31.326743,-165.0
2023-08-17 19:38:31.334432,-172.0
2023-08-17 19:38:31.342121,-174.0
2023-08-17 19:38:31.349811,-165.0
2023-08-17 19:38:31.357500,-160.0
2023-08-17 19:38:31.365189,-160.0
2023-08-17 19:38:31.372878,-153.0
2023-08-17 19:38:31.380568,-148.0
2023-08-17 19:38:31.388257,-153.0
2023-08-17 19:38:31.395946,-155.0
2023-08-17 19:38:31.403636,-150.0
2023-08-17 19:38:31.411325,-150.0
2023-08-17 19:38:31.419014,-150.0
2023-08-17 19:38:31.426703,-143.0
2023-08-17 19:38:31.434393,-134.0
2023-08-17 19:38:31.442082,-131.0
2023-08-17 19:38:31.449771,-124.0
2023-08-17 19:38:31.457461,-119.0
2023-08-17 19:38:31.465150,-119.0
2023-08-17 19:38:31.472839,-117.0
2023-08-17 19:38:31.480528,-115.0
2023-08-17 19:38:31.488218,-112.0
2023-08-17 19:38:31.495907,-107.0
2023-08-17 19:38:31.503596,-110.0
2023-08-17 19:38:31.511285,-117.0
2023-08-17 19:38:31.518975,-98.0
2023-08-17 19:38:31.526664,-79.0
2023-08-17 19:38:31.534353,-91.0
2023-08-17 19:38:31.542043,-105.0
2023-08-17 19:38:31.549732,-98.0
2023-08-17 19:38:31.557421,-86.0
2023-08-17 19:38:31.565110,-83.0
2023-08-17 19:38:31.572800,-91.0
2023-08-17 19:38:31.580489,-83.0
2023-08-17 19:38:31.588178,-57.0
2023-08-17 19:38:31.595868,-47.0
2023-08-17 19:38:31.603557,-50.0
2023-08-17 19:38:31.611246,-33.0
2023-08-17 19:38:31.618935,-33.0
2023-08-17 19:38:31.626625,-52.0
2023-08-17 19:38:31.634314,-57.0
2023-08-17 19:38:31.642003,-62.0
2023-08-17 19:38:31.649692,-76.0
2023-08-17 19:38:31.657382,-83.0
2023-08-17 19:38:31.665071,-95.0
2023-08-17 19:38:31.672760,-117.0
2023-08-17 19:38:31.680450,-110.0
2023-08-17 19:38:31.688139,-86.0
2023-08-17 19:38:31.695828,-83.0
2023-08-17 19:38:31.703517,-55.0
2023-08-17 19:38:31.711207,107.0
2023-08-17 19:38:31.718896,400.0
2023-08-17 19:38:31.726585,589.0
2023-08-17 19:38:31.734275,400.0
2023-08-17 19:38:31.741964,-55.0
2023-08-17 19:38:31.749653,-357.0
2023-08-17 19:38:31.757342,-292.0
2023-08-17 19:38:31.765032,-86.0
2023-08-17 19:38:31.772721,-23.0
2023-08-17 19:38:31.780410,-59.0
2023-08-17 19:38:31.788099,-59.0
2023-08-17 19:38:31.795789,-47.0
2023-08-17 19:38:31.803478,-57.0
2023-08-17 19:38:31.811167,-55.0
2023-08-17 19:38:31.818857,-43.0
2023-08-17 19:38:31.826546,-35.0
2023-08-17 19:38:31.834235,-23.0
2023-08-17 19:38:31.841924,-11.0
2023-08-17 19:38:31.849614,-2.0
2023-08-17 19:38:31.857303,9.0
2023-08-17 19:38:31.864992,11.0
2023-08-17 19:38:31.872682,7.0
2023-08-17 19:38:31.880371,21.0
2023-08-17 19:38:31.888060,35.0
2023-08-17 19:38:31.895749,35.0
2023-08-17 19:38:31.903439,57.0
2023-08-17 19:38:31.911128,103.0
2023-08-17 19:38:31.918817,131.0
2023-08-17 19:38:31.926506,136.0
2023-08-17 19:38:31.934196,158.0
2023-08-17 19:38:31.941885,206.0
2023-08-17 19:38:31.949574,232.0
2023-08-17 19:38:31.957264,230.0
2023-08-17 19:38:31.964953,242.0
2023-08-17 19:38:31.972642,254.0
2023-08-17 19:38:31.980331,230.0
2023-08-17 19:38:31.988021,177.0
2023-08-17 19:38:31.995710,131.0
2023-08-17 19:38:32.003399,91.0
2023-08-17 19:38:32.011089,28.0
2023-08-17 19:38:32.018778,-55.0
2023-08-17 19:38:32.026467,-122.0
2023-08-17 19:38:32.034156,-158.0
2023-08-17 19:38:32.041846,-177.0
2023-08-17 19:38:32.049535,-186.0
2023-08-17 19:38:32.057224,-186.0
2023-08-17 19:38:32.064913,-198.0
2023-08-17 19:38:32.072603,-215.0
2023-08-17 19:38:32.080292,-208.0
2023-08-17 19:38:32.087981,-179.0
2023-08-17 19:38:32.095671,-167.0
2023-08-17 19:38:32.103360,-174.0
2023-08-17 19:38:32.111049,-174.0
2023-08-17 19:38:32.118738,-170.0
2023-08-17 19:38:32.126428,-170.0
2023-08-17 19:38:32.134117,-174.0
2023-08-17 19:38:32.141806,-172.0
2023-08-17 19:38:32.149496,-158.0
2023-08-17 19:38:32.157185,-146.0
2023-08-17 19:38:32.164874,-143.0
2023-08-17 19:38:32.172563,-146.0
2023-08-17 19:38:32.180253,-141.0
2023-08-17 19:38:32.187942,-134.0
2023-08-17 19:38:32.195631,-131.0
2023-08-17 19:38:32.203321,-134.0
2023-08-17 19:38:32.211010,-139.0
2023-08-17 19:38:32.218699,-139.0
2023-08-17 19:38:32.226388,-129.0
2023-08-17 19:38:32.234078,-129.0
2023-08-17 19:38:32.241767,-139.0
2023-08-17 19:38:32.249456,-139.0
2023-08-17 19:38:32.257145,-136.0
2023-08-17 19:38:32.264835,-146.0
2023-08-17 19:38:32.272524,-146.0
2023-08-17 19:38:32.280213,-127.0
2023-08-17 19:38:32.287903,-122.0
2023-08-17 19:38:32.295592,-129.0
2023-08-17 19:38:32.303281,-124.0
2023-08-17 19:38:32.310970,-115.0
2023-08-17 19:38:32.318660,-115.0
2023-08-17 19:38:32.326349,-110.0
2023-08-17 19:38:32.334038,-105.0
2023-08-17 19:38:32.341728,-105.0
2023-08-17 19:38:32.349417,-110.0
2023-08-17 19:38:32.357106,-115.0
2023-08-17 19:38:32.364795,-115.0
2023-08-17 19:38:32.372485,-107.0
2023-08-17 19:38:32.380174,-110.0
2023-08-17 19:38:32.387863,-117.0
2023-08-17 19:38:32.395552,-117.0
2023-08-17 19:38:32.403242,-112.0
2023-08-17 19:38:32.410931,-107.0
2023-08-17 19:38:32.418620,-100.0
2023-08-17 19:38:32.426310,-100.0
2023-08-17 19:38:32.433999,-107.0
2023-08-17 19:38:32.441688,-110.0
2023-08-17 19:38:32.449377,-103.0
2023-08-17 19:38:32.457067,-100.0
2023-08-17 19:38:32.464756,-103.0
2023-08-17 19:38:32.472445,-98.0
2023-08-17 19:38:32.480135,-95.0
2023-08-17 19:38:32.487824,-100.0
2023-08-17 19:38:32.495513,-95.0
2023-08-17 19:38:32.503202,-88.0
2023-08-17 19:38:32.510892,-83.0
2023-08-17 19:38:32.518581,-76.0
2023-08-17 19:38:32.526270,-67.0
2023-08-17 19:38:32.533959,-59.0
2023-08-17 19:38:32.541649,-50.0
2023-08-17 19:38:32.549338,-31.0
2023-08-17 19:38:32.557027,-21.0
2023-08-17 19:38:32.564717,-40.0
2023-08-17 19:38:32.572406,-59.0
2023-08-17 19:38:32.580095,-57.0
2023-08-17 19:38:32.587784,-67.0
2023-08-17 19:38:32.595474,-93.0
2023-08-17 19:38:32.603163,-95.0
2023-08-17 19:38:32.610852,-86.0
2023-08-17 19:38:32.618542,-93.0
2023-08-17 19:38:32.626231,-98.0
2023-08-17 19:38:32.633920,-93.0
2023-08-17 19:38:32.641609,-83.0
2023-08-17 19:38:32.649299,4.0
2023-08-17 19:38:32.656988,251.0
2023-08-17 19:38:32.664677,520.0
2023-08-17 19:38:32.672366,493.0
2023-08-17 19:38:32.680056,105.0
2023-08-17 19:38:32.687745,-282.0
2023-08-17 19:38:32.695434,-333.0
2023-08-17 19:38:32.703124,-148.0
2023-08-17 19:38:32.710813,-38.0
2023-08-17 19:38:32.718502,-67.0
2023-08-17 19:38:32.726191,-91.0
2023-08-17 19:38:32.733881,-64.0
2023-08-17 19:38:32.741570,-59.0
2023-08-17 19:38:32.749259,-67.0
2023-08-17 19:38:32.756949,-55.0
2023-08-17 19:38:32.764638,-50.0
2023-08-17 19:38:32.772327,-52.0
2023-08-17 19:38:32.780016,-43.0
2023-08-17 19:38:32.787706,-35.0
2023-08-17 19:38:32.795395,-26.0
2023-08-17 19:38:32.803084,-4.0
2023-08-17 19:38:32.810773,19.0
2023-08-17 19:38:32.818463,23.0
2023-08-17 19:38:32.826152,33.0
2023-08-17 19:38:32.833841,64.0
2023-08-17 19:38:32.841531,88.0
2023-08-17 19:38:32.849220,98.0
2023-08-17 19:38:32.856909,115.0
2023-08-17 19:38:32.864598,127.0
2023-08-17 19:38:32.872288,136.0
2023-08-17 19:38:32.879977,177.0
2023-08-17 19:38:32.887666,225.0
2023-08-17 19:38:32.895356,234.0
2023-08-17 19:38:32.903045,232.0
2023-08-17 19:38:32.910734,246.0
2023-08-17 19:38:32.918423,254.0
2023-08-17 19:38:32.926113,232.0
2023-08-17 19:38:32.933802,189.0
2023-08-17 19:38:32.941491,119.0
2023-08-17 19:38:32.949180,38.0
2023-08-17 19:38:32.956870,-23.0
2023-08-17 19:38:32.964559,-79.0
2023-08-17 19:38:32.972248,-146.0
2023-08-17 19:38:32.979938,-189.0
2023-08-17 19:38:32.987627,-186.0
2023-08-17 19:38:32.995316,-179.0
2023-08-17 19:38:33.003005,-196.0
2023-08-17 19:38:33.010695,-210.0
2023-08-17 19:38:33.018384,-201.0
2023-08-17 19:38:33.026073,-184.0
2023-08-17 19:38:33.033763,-186.0
2023-08-17 19:38:33.041452,-189.0
2023-08-17 19:38:33.049141,-174.0
2023-08-17 19:38:33.056830,-165.0
2023-08-17 19:38:33.064520,-167.0
2023-08-17 19:38:33.072209,-162.0
2023-08-17 19:38:33.079898,-155.0
2023-08-17 19:38:33.087588,-155.0
2023-08-17 19:38:33.095277,-150.0
2023-08-17 19:38:33.102966,-134.0
2023-08-17 19:38:33.110655,-131.0
2023-08-17 19:38:33.118345,-136.0
2023-08-17 19:38:33.126034,-134.0
2023-08-17 19:38:33.133723,-134.0
2023-08-17 19:38:33.141412,-136.0
2023-08-17 19:38:33.149102,-134.0
2023-08-17 19:38:33.156791,-129.0
2023-08-17 19:38:33.164480,-131.0
2023-08-17 19:38:33.172170,-129.0
2023-08-17 19:38:33.179859,-119.0
2023-08-17 19:38:33.187548,-115.0
2023-08-17 19:38:33.195237,-112.0
2023-08-17 19:38:33.202927,-115.0
2023-08-17 19:38:33.210616,-112.0
2023-08-17 19:38:33.218305,-100.0
2023-08-17 19:38:33.225995,-103.0
2023-08-17 19:38:33.233684,-110.0
2023-08-17 19:38:33.241373,-105.0
2023-08-17 19:38:33.249062,-98.0
2023-08-17 19:38:33.256752,-98.0
2023-08-17 19:38:33.264441,-98.0
2023-08-17 19:38:33.272130,-93.0
2023-08-17 19:38:33.279819,-91.0
2023-08-17 19:38:33.287509,-91.0
2023-08-17 19:38:33.295198,-93.0
2023-08-17 19:38:33.302887,-93.0
2023-08-17 19:38:33.310577,-93.0
2023-08-17 19:38:33.318266,-93.0
2023-08-17 19:38:33.325955,-79.0
2023-08-17 19:38:33.333644,-71.0
2023-08-17 19:38:33.341334,-86.0
2023-08-17 19:38:33.349023,-86.0
2023-08-17 19:38:33.356712,-71.0
2023-08-17 19:38:33.364402,-76.0
2023-08-17 19:38:33.372091,-91.0
2023-08-17 19:38:33.379780,-88.0
2023-08-17 19:38:33.387469,-83.0
2023-08-17 19:38:33.395159,-88.0
2023-08-17 19:38:33.402848,-93.0
2023-08-17 19:38:33.410537,-100.0
2023-08-17 19:38:33.418226,-100.0
2023-08-17 19:38:33.425916,-71.0
2023-08-17 19:38:33.433605,-50.0
2023-08-17 19:38:33.441294,-74.0
2023-08-17 19:38:33.448984,-91.0
2023-08-17 19:38:33.456673,-74.0
2023-08-17 19:38:33.464362,-62.0
2023-08-17 19:38:33.472051,-69.0
2023-08-17 19:38:33.479741,-71.0
2023-08-17 19:38:33.487430,-67.0
2023-08-17 19:38:33.495119,-71.0
2023-08-17 19:38:33.502809,-74.0
2023-08-17 19:38:33.510498,-79.0
2023-08-17 19:38:33.518187,-79.0
2023-08-17 19:38:33.525876,-59.0
2023-08-17 19:38:33.533566,-50.0
2023-08-17 19:38:33.541255,-59.0
2023-08-17 19:38:33.548944,-59.0
2023-08-17 19:38:33.556633,-43.0
2023-08-17 19:38:33.564323,-21.0
2023-08-17 19:38:33.572012,-21.0
2023-08-17 19:38:33.579701,-43.0
2023-08-17 19:38:33.587391,-57.0
2023-08-17 19:38:33.595080,-59.0
2023-08-17 19:38:33.602769,-69.0
2023-08-17 19:38:33.610458,-74.0
2023-08-17 19:38:33.618148,-79.0
2023-08-17 19:38:33.625837,-95.0
2023-08-17 19:38:33.633526,-105.0
2023-08-17 19:38:33.641216,-100.0
2023-08-17 19:38:33.648905,-95.0
2023-08-17 19:38:33.656594,-71.0
2023-08-17 19:38:33.664283,23.0
2023-08-17 19:38:33.671973,266.0
2023-08-17 19:38:33.679662,546.0
2023-08-17 19:38:33.687351,541.0
2023-08-17 19:38:33.695040,141.0
2023-08-17 19:38:33.702730,-311.0
2023-08-17 19:38:33.710419,-393.0
