time,ECG
2023-08-09 17:47:58.132087,-112.0
2023-08-09 17:47:58.139778,-109.0
2023-08-09 17:47:58.147468,-117.0
2023-08-09 17:47:58.155159,-114.0
2023-08-09 17:47:58.162849,-107.0
2023-08-09 17:47:58.170540,-105.0
2023-08-09 17:47:58.178230,-107.0
2023-08-09 17:47:58.185921,-107.0
2023-08-09 17:47:58.193611,-102.0
2023-08-09 17:47:58.201302,-100.0
2023-08-09 17:47:58.208993,-97.0
2023-08-09 17:47:58.216683,-97.0
2023-08-09 17:47:58.224374,-97.0
2023-08-09 17:47:58.232064,-95.0
2023-08-09 17:47:58.239755,-85.0
2023-08-09 17:47:58.247445,-71.0
2023-08-09 17:47:58.255136,-50.0
2023-08-09 17:47:58.262826,-33.0
2023-08-09 17:47:58.270517,-35.0
2023-08-09 17:47:58.278207,-62.0
2023-08-09 17:47:58.285898,-78.0
2023-08-09 17:47:58.293589,-83.0
2023-08-09 17:47:58.301279,-83.0
2023-08-09 17:47:58.308970,-83.0
2023-08-09 17:47:58.316660,-83.0
2023-08-09 17:47:58.324351,-85.0
2023-08-09 17:47:58.332041,-81.0
2023-08-09 17:47:58.339732,-71.0
2023-08-09 17:47:58.347422,-76.0
2023-08-09 17:47:58.355113,-83.0
2023-08-09 17:47:58.362803,42.0
2023-08-09 17:47:58.370494,460.0
2023-08-09 17:47:58.378185,1043.0
2023-08-09 17:47:58.385875,1366.0
2023-08-09 17:47:58.393566,1096.0
2023-08-09 17:47:58.401256,425.0
2023-08-09 17:47:58.408947,-85.0
2023-08-09 17:47:58.416637,-186.0
2023-08-09 17:47:58.424328,-140.0
2023-08-09 17:47:58.432018,-188.0
2023-08-09 17:47:58.439709,-231.0
2023-08-09 17:47:58.447399,-214.0
2023-08-09 17:47:58.455090,-217.0
2023-08-09 17:47:58.462781,-222.0
2023-08-09 17:47:58.470471,-198.0
2023-08-09 17:47:58.478162,-179.0
2023-08-09 17:47:58.485852,-171.0
2023-08-09 17:47:58.493543,-155.0
2023-08-09 17:47:58.501233,-131.0
2023-08-09 17:47:58.508924,-117.0
2023-08-09 17:47:58.516614,-102.0
2023-08-09 17:47:58.524305,-81.0
2023-08-09 17:47:58.531995,-64.0
2023-08-09 17:47:58.539686,-45.0
2023-08-09 17:47:58.547376,-16.0
2023-08-09 17:47:58.555067,9.0
2023-08-09 17:47:58.562758,31.0
2023-08-09 17:47:58.570448,54.0
2023-08-09 17:47:58.578139,81.0
2023-08-09 17:47:58.585829,102.0
2023-08-09 17:47:58.593520,119.0
2023-08-09 17:47:58.601210,140.0
2023-08-09 17:47:58.608901,155.0
2023-08-09 17:47:58.616591,145.0
2023-08-09 17:47:58.624282,126.0
2023-08-09 17:47:58.631972,107.0
2023-08-09 17:47:58.639663,69.0
2023-08-09 17:47:58.647354,16.0
2023-08-09 17:47:58.655044,-33.0
2023-08-09 17:47:58.662735,-85.0
2023-08-09 17:47:58.670425,-131.0
2023-08-09 17:47:58.678116,-162.0
2023-08-09 17:47:58.685806,-183.0
2023-08-09 17:47:58.693497,-203.0
2023-08-09 17:47:58.701187,-212.0
2023-08-09 17:47:58.708878,-210.0
2023-08-09 17:47:58.716568,-212.0
2023-08-09 17:47:58.724259,-212.0
2023-08-09 17:47:58.731950,-210.0
2023-08-09 17:47:58.739640,-203.0
2023-08-09 17:47:58.747331,-191.0
2023-08-09 17:47:58.755021,-179.0
2023-08-09 17:47:58.762712,-176.0
2023-08-09 17:47:58.770402,-174.0
2023-08-09 17:47:58.778093,-167.0
2023-08-09 17:47:58.785783,-162.0
2023-08-09 17:47:58.793474,-157.0
2023-08-09 17:47:58.801164,-150.0
2023-08-09 17:47:58.808855,-145.0
2023-08-09 17:47:58.816545,-145.0
2023-08-09 17:47:58.824236,-148.0
2023-08-09 17:47:58.831927,-140.0
2023-08-09 17:47:58.839617,-138.0
2023-08-09 17:47:58.847308,-140.0
2023-08-09 17:47:58.854998,-136.0
2023-08-09 17:47:58.862689,-126.0
2023-08-09 17:47:58.870379,-131.0
2023-08-09 17:47:58.878070,-133.0
2023-08-09 17:47:58.885760,-128.0
2023-08-09 17:47:58.893451,-128.0
2023-08-09 17:47:58.901141,-133.0
2023-08-09 17:47:58.908832,-131.0
2023-08-09 17:47:58.916523,-121.0
2023-08-09 17:47:58.924213,-124.0
2023-08-09 17:47:58.931904,-126.0
2023-08-09 17:47:58.939594,-119.0
2023-08-09 17:47:58.947285,-117.0
2023-08-09 17:47:58.954975,-117.0
2023-08-09 17:47:58.962666,-114.0
2023-08-09 17:47:58.970356,-112.0
2023-08-09 17:47:58.978047,-107.0
2023-08-09 17:47:58.985737,-105.0
2023-08-09 17:47:58.993428,-102.0
2023-08-09 17:47:59.001119,-97.0
2023-08-09 17:47:59.008809,-93.0
2023-08-09 17:47:59.016500,-93.0
2023-08-09 17:47:59.024190,-93.0
2023-08-09 17:47:59.031881,-93.0
2023-08-09 17:47:59.039571,-95.0
2023-08-09 17:47:59.047262,-95.0
2023-08-09 17:47:59.054952,-90.0
2023-08-09 17:47:59.062643,-90.0
2023-08-09 17:47:59.070333,-88.0
2023-08-09 17:47:59.078024,-85.0
2023-08-09 17:47:59.085714,-85.0
2023-08-09 17:47:59.093405,-74.0
2023-08-09 17:47:59.101096,-54.0
2023-08-09 17:47:59.108786,-42.0
2023-08-09 17:47:59.116477,-38.0
2023-08-09 17:47:59.124167,-33.0
2023-08-09 17:47:59.131858,-35.0
2023-08-09 17:47:59.139548,-57.0
2023-08-09 17:47:59.147239,-78.0
2023-08-09 17:47:59.154929,-78.0
2023-08-09 17:47:59.162620,-71.0
2023-08-09 17:47:59.170310,-74.0
2023-08-09 17:47:59.178001,-78.0
2023-08-09 17:47:59.185692,-74.0
2023-08-09 17:47:59.193382,-76.0
2023-08-09 17:47:59.201073,-81.0
2023-08-09 17:47:59.208763,-81.0
2023-08-09 17:47:59.216454,-47.0
2023-08-09 17:47:59.224144,179.0
2023-08-09 17:47:59.231835,659.0
2023-08-09 17:47:59.239525,1156.0
2023-08-09 17:47:59.247216,1299.0
2023-08-09 17:47:59.254906,917.0
2023-08-09 17:47:59.262597,281.0
2023-08-09 17:47:59.270288,-128.0
2023-08-09 17:47:59.277978,-174.0
2023-08-09 17:47:59.285669,-138.0
2023-08-09 17:47:59.293359,-191.0
2023-08-09 17:47:59.301050,-219.0
2023-08-09 17:47:59.308740,-195.0
2023-08-09 17:47:59.316431,-191.0
2023-08-09 17:47:59.324121,-183.0
2023-08-09 17:47:59.331812,-164.0
2023-08-09 17:47:59.339502,-150.0
2023-08-09 17:47:59.347193,-140.0
2023-08-09 17:47:59.354883,-126.0
2023-08-09 17:47:59.362574,-112.0
2023-08-09 17:47:59.370265,-97.0
2023-08-09 17:47:59.377955,-81.0
2023-08-09 17:47:59.385646,-57.0
2023-08-09 17:47:59.393336,-38.0
2023-08-09 17:47:59.401027,-26.0
2023-08-09 17:47:59.408717,-11.0
2023-08-09 17:47:59.416408,11.0
2023-08-09 17:47:59.424098,31.0
2023-08-09 17:47:59.431789,50.0
2023-08-09 17:47:59.439479,78.0
2023-08-09 17:47:59.447170,97.0
2023-08-09 17:47:59.454861,109.0
2023-08-09 17:47:59.462551,131.0
2023-08-09 17:47:59.470242,143.0
2023-08-09 17:47:59.477932,133.0
2023-08-09 17:47:59.485623,109.0
2023-08-09 17:47:59.493313,78.0
2023-08-09 17:47:59.501004,40.0
2023-08-09 17:47:59.508694,-9.0
2023-08-09 17:47:59.516385,-62.0
2023-08-09 17:47:59.524075,-112.0
2023-08-09 17:47:59.531766,-152.0
2023-08-09 17:47:59.539457,-181.0
2023-08-09 17:47:59.547147,-195.0
2023-08-09 17:47:59.554838,-207.0
2023-08-09 17:47:59.562528,-212.0
2023-08-09 17:47:59.570219,-210.0
2023-08-09 17:47:59.577909,-212.0
2023-08-09 17:47:59.585600,-217.0
2023-08-09 17:47:59.593290,-212.0
2023-08-09 17:47:59.600981,-200.0
2023-08-09 17:47:59.608671,-191.0
2023-08-09 17:47:59.616362,-186.0
2023-08-09 17:47:59.624053,-183.0
2023-08-09 17:47:59.631743,-179.0
2023-08-09 17:47:59.639434,-169.0
2023-08-09 17:47:59.647124,-162.0
2023-08-09 17:47:59.654815,-160.0
2023-08-09 17:47:59.662505,-157.0
2023-08-09 17:47:59.670196,-160.0
2023-08-09 17:47:59.677886,-162.0
2023-08-09 17:47:59.685577,-157.0
2023-08-09 17:47:59.693267,-148.0
2023-08-09 17:47:59.700958,-148.0
2023-08-09 17:47:59.708648,-152.0
2023-08-09 17:47:59.716339,-148.0
2023-08-09 17:47:59.724030,-140.0
2023-08-09 17:47:59.731720,-133.0
2023-08-09 17:47:59.739411,-128.0
2023-08-09 17:47:59.747101,-133.0
2023-08-09 17:47:59.754792,-136.0
2023-08-09 17:47:59.762482,-131.0
2023-08-09 17:47:59.770173,-124.0
2023-08-09 17:47:59.777863,-124.0
2023-08-09 17:47:59.785554,-119.0
2023-08-09 17:47:59.793244,-112.0
2023-08-09 17:47:59.800935,-112.0
2023-08-09 17:47:59.808626,-114.0
2023-08-09 17:47:59.816316,-114.0
2023-08-09 17:47:59.824007,-107.0
2023-08-09 17:47:59.831697,-100.0
2023-08-09 17:47:59.839388,-100.0
2023-08-09 17:47:59.847078,-95.0
2023-08-09 17:47:59.854769,-95.0
2023-08-09 17:47:59.862459,-97.0
2023-08-09 17:47:59.870150,-95.0
2023-08-09 17:47:59.877840,-90.0
2023-08-09 17:47:59.885531,-88.0
2023-08-09 17:47:59.893222,-88.0
2023-08-09 17:47:59.900912,-88.0
2023-08-09 17:47:59.908603,-88.0
2023-08-09 17:47:59.916293,-90.0
2023-08-09 17:47:59.923984,-93.0
2023-08-09 17:47:59.931674,-95.0
2023-08-09 17:47:59.939365,-97.0
2023-08-09 17:47:59.947055,-90.0
2023-08-09 17:47:59.954746,-78.0
2023-08-09 17:47:59.962436,-81.0
2023-08-09 17:47:59.970127,-85.0
2023-08-09 17:47:59.977817,-85.0
2023-08-09 17:47:59.985508,-85.0
2023-08-09 17:47:59.993199,-81.0
2023-08-09 17:48:00.000889,-64.0
2023-08-09 17:48:00.008580,-42.0
2023-08-09 17:48:00.016270,-33.0
2023-08-09 17:48:00.023961,-35.0
2023-08-09 17:48:00.031651,-35.0
2023-08-09 17:48:00.039342,-47.0
2023-08-09 17:48:00.047032,-64.0
2023-08-09 17:48:00.054723,-71.0
2023-08-09 17:48:00.062413,-76.0
2023-08-09 17:48:00.070104,-83.0
2023-08-09 17:48:00.077795,-83.0
2023-08-09 17:48:00.085485,-76.0
2023-08-09 17:48:00.093176,-66.0
2023-08-09 17:48:00.100866,-62.0
2023-08-09 17:48:00.108557,-74.0
2023-08-09 17:48:00.116247,-88.0
2023-08-09 17:48:00.123938,26.0
2023-08-09 17:48:00.131628,403.0
2023-08-09 17:48:00.139319,926.0
2023-08-09 17:48:00.147009,1251.0
2023-08-09 17:48:00.154700,1089.0
2023-08-09 17:48:00.162391,525.0
2023-08-09 17:48:00.170081,-4.0
2023-08-09 17:48:00.177772,-181.0
2023-08-09 17:48:00.185462,-143.0
2023-08-09 17:48:00.193153,-164.0
2023-08-09 17:48:00.200843,-224.0
2023-08-09 17:48:00.208534,-219.0
2023-08-09 17:48:00.216224,-203.0
2023-08-09 17:48:00.223915,-207.0
2023-08-09 17:48:00.231605,-195.0
2023-08-09 17:48:00.239296,-171.0
2023-08-09 17:48:00.246986,-162.0
2023-08-09 17:48:00.254677,-155.0
2023-08-09 17:48:00.262368,-140.0
2023-08-09 17:48:00.270058,-124.0
2023-08-09 17:48:00.277749,-105.0
2023-08-09 17:48:00.285439,-83.0
2023-08-09 17:48:00.293130,-69.0
2023-08-09 17:48:00.300820,-54.0
2023-08-09 17:48:00.308511,-35.0
2023-08-09 17:48:00.316201,-14.0
2023-08-09 17:48:00.323892,4.0
2023-08-09 17:48:00.331582,28.0
2023-08-09 17:48:00.339273,54.0
2023-08-09 17:48:00.346964,69.0
2023-08-09 17:48:00.354654,85.0
2023-08-09 17:48:00.362345,105.0
2023-08-09 17:48:00.370035,114.0
2023-08-09 17:48:00.377726,112.0
2023-08-09 17:48:00.385416,100.0
2023-08-09 17:48:00.393107,81.0
2023-08-09 17:48:00.400797,54.0
2023-08-09 17:48:00.408488,19.0
2023-08-09 17:48:00.416178,-35.0
2023-08-09 17:48:00.423869,-90.0
2023-08-09 17:48:00.431560,-131.0
2023-08-09 17:48:00.439250,-162.0
2023-08-09 17:48:00.446941,-183.0
2023-08-09 17:48:00.454631,-200.0
2023-08-09 17:48:00.462322,-207.0
2023-08-09 17:48:00.470012,-207.0
2023-08-09 17:48:00.477703,-210.0
2023-08-09 17:48:00.485393,-210.0
2023-08-09 17:48:00.493084,-198.0
2023-08-09 17:48:00.500774,-188.0
2023-08-09 17:48:00.508465,-186.0
2023-08-09 17:48:00.516155,-176.0
2023-08-09 17:48:00.523846,-171.0
2023-08-09 17:48:00.531537,-174.0
2023-08-09 17:48:00.539227,-169.0
2023-08-09 17:48:00.546918,-157.0
2023-08-09 17:48:00.554608,-152.0
2023-08-09 17:48:00.562299,-155.0
2023-08-09 17:48:00.569989,-155.0
2023-08-09 17:48:00.577680,-155.0
2023-08-09 17:48:00.585370,-150.0
2023-08-09 17:48:00.593061,-140.0
2023-08-09 17:48:00.600751,-140.0
2023-08-09 17:48:00.608442,-145.0
2023-08-09 17:48:00.616133,-145.0
2023-08-09 17:48:00.623823,-140.0
2023-08-09 17:48:00.631514,-136.0
2023-08-09 17:48:00.639204,-138.0
2023-08-09 17:48:00.646895,-136.0
2023-08-09 17:48:00.654585,-126.0
2023-08-09 17:48:00.662276,-128.0
2023-08-09 17:48:00.669966,-131.0
2023-08-09 17:48:00.677657,-128.0
2023-08-09 17:48:00.685347,-121.0
2023-08-09 17:48:00.693038,-117.0
2023-08-09 17:48:00.700729,-114.0
2023-08-09 17:48:00.708419,-114.0
2023-08-09 17:48:00.716110,-117.0
2023-08-09 17:48:00.723800,-117.0
2023-08-09 17:48:00.731491,-114.0
2023-08-09 17:48:00.739181,-112.0
2023-08-09 17:48:00.746872,-114.0
2023-08-09 17:48:00.754562,-117.0
2023-08-09 17:48:00.762253,-114.0
2023-08-09 17:48:00.769943,-112.0
2023-08-09 17:48:00.777634,-112.0
2023-08-09 17:48:00.785325,-112.0
2023-08-09 17:48:00.793015,-112.0
2023-08-09 17:48:00.800706,-117.0
2023-08-09 17:48:00.808396,-114.0
2023-08-09 17:48:00.816087,-109.0
2023-08-09 17:48:00.823777,-107.0
2023-08-09 17:48:00.831468,-102.0
2023-08-09 17:48:00.839158,-97.0
2023-08-09 17:48:00.846849,-102.0
2023-08-09 17:48:00.854539,-105.0
2023-08-09 17:48:00.862230,-102.0
2023-08-09 17:48:00.869920,-97.0
2023-08-09 17:48:00.877611,-93.0
2023-08-09 17:48:00.885302,-93.0
2023-08-09 17:48:00.892992,-93.0
2023-08-09 17:48:00.900683,-81.0
2023-08-09 17:48:00.908373,-69.0
2023-08-09 17:48:00.916064,-64.0
2023-08-09 17:48:00.923754,-57.0
2023-08-09 17:48:00.931445,-59.0
2023-08-09 17:48:00.939135,-76.0
2023-08-09 17:48:00.946826,-88.0
2023-08-09 17:48:00.954516,-95.0
2023-08-09 17:48:00.962207,-105.0
2023-08-09 17:48:00.969898,-102.0
2023-08-09 17:48:00.977588,-90.0
2023-08-09 17:48:00.985279,-90.0
2023-08-09 17:48:00.992969,-95.0
2023-08-09 17:48:01.000660,-93.0
2023-08-09 17:48:01.008350,-93.0
2023-08-09 17:48:01.016041,-83.0
2023-08-09 17:48:01.023731,88.0
2023-08-09 17:48:01.031422,544.0
2023-08-09 17:48:01.039112,1079.0
2023-08-09 17:48:01.046803,1280.0
2023-08-09 17:48:01.054494,931.0
2023-08-09 17:48:01.062184,298.0
2023-08-09 17:48:01.069875,-114.0
2023-08-09 17:48:01.077565,-169.0
2023-08-09 17:48:01.085256,-143.0
2023-08-09 17:48:01.092946,-198.0
2023-08-09 17:48:01.100637,-226.0
2023-08-09 17:48:01.108327,-207.0
2023-08-09 17:48:01.116018,-207.0
2023-08-09 17:48:01.123708,-203.0
2023-08-09 17:48:01.131399,-179.0
2023-08-09 17:48:01.139089,-167.0
2023-08-09 17:48:01.146780,-160.0
2023-08-09 17:48:01.154471,-148.0
2023-08-09 17:48:01.162161,-131.0
2023-08-09 17:48:01.169852,-117.0
2023-08-09 17:48:01.177542,-102.0
2023-08-09 17:48:01.185233,-88.0
2023-08-09 17:48:01.192923,-69.0
2023-08-09 17:48:01.200614,-52.0
2023-08-09 17:48:01.208304,-28.0
2023-08-09 17:48:01.215995,-7.0
2023-08-09 17:48:01.223685,14.0
2023-08-09 17:48:01.231376,38.0
2023-08-09 17:48:01.239067,62.0
2023-08-09 17:48:01.246757,83.0
2023-08-09 17:48:01.254448,100.0
2023-08-09 17:48:01.262138,112.0
2023-08-09 17:48:01.269829,112.0
2023-08-09 17:48:01.277519,112.0
2023-08-09 17:48:01.285210,109.0
2023-08-09 17:48:01.292900,81.0
2023-08-09 17:48:01.300591,33.0
2023-08-09 17:48:01.308281,-11.0
2023-08-09 17:48:01.315972,-59.0
2023-08-09 17:48:01.323663,-107.0
2023-08-09 17:48:01.331353,-152.0
2023-08-09 17:48:01.339044,-188.0
2023-08-09 17:48:01.346734,-207.0
2023-08-09 17:48:01.354425,-224.0
2023-08-09 17:48:01.362115,-234.0
2023-08-09 17:48:01.369806,-226.0
2023-08-09 17:48:01.377496,-222.0
2023-08-09 17:48:01.385187,-224.0
2023-08-09 17:48:01.392877,-222.0
2023-08-09 17:48:01.400568,-210.0
2023-08-09 17:48:01.408258,-198.0
2023-08-09 17:48:01.415949,-191.0
2023-08-09 17:48:01.423640,-191.0
2023-08-09 17:48:01.431330,-191.0
2023-08-09 17:48:01.439021,-179.0
2023-08-09 17:48:01.446711,-171.0
2023-08-09 17:48:01.454402,-169.0
2023-08-09 17:48:01.462092,-167.0
2023-08-09 17:48:01.469783,-162.0
2023-08-09 17:48:01.477473,-162.0
2023-08-09 17:48:01.485164,-157.0
2023-08-09 17:48:01.492854,-155.0
2023-08-09 17:48:01.500545,-155.0
2023-08-09 17:48:01.508236,-150.0
2023-08-09 17:48:01.515926,-145.0
2023-08-09 17:48:01.523617,-145.0
2023-08-09 17:48:01.531307,-143.0
2023-08-09 17:48:01.538998,-136.0
2023-08-09 17:48:01.546688,-131.0
2023-08-09 17:48:01.554379,-131.0
2023-08-09 17:48:01.562069,-133.0
2023-08-09 17:48:01.569760,-131.0
2023-08-09 17:48:01.577450,-128.0
2023-08-09 17:48:01.585141,-124.0
2023-08-09 17:48:01.592832,-117.0
2023-08-09 17:48:01.600522,-114.0
2023-08-09 17:48:01.608213,-117.0
2023-08-09 17:48:01.615903,-109.0
2023-08-09 17:48:01.623594,-102.0
2023-08-09 17:48:01.631284,-102.0
2023-08-09 17:48:01.638975,-102.0
2023-08-09 17:48:01.646665,-105.0
2023-08-09 17:48:01.654356,-100.0
2023-08-09 17:48:01.662046,-95.0
2023-08-09 17:48:01.669737,-95.0
2023-08-09 17:48:01.677428,-95.0
2023-08-09 17:48:01.685118,-95.0
2023-08-09 17:48:01.692809,-90.0
2023-08-09 17:48:01.700499,-81.0
2023-08-09 17:48:01.708190,-81.0
2023-08-09 17:48:01.715880,-85.0
2023-08-09 17:48:01.723571,-81.0
2023-08-09 17:48:01.731261,-64.0
2023-08-09 17:48:01.738952,-50.0
2023-08-09 17:48:01.746642,-38.0
2023-08-09 17:48:01.754333,-28.0
2023-08-09 17:48:01.762023,-35.0
2023-08-09 17:48:01.769714,-59.0
2023-08-09 17:48:01.777405,-74.0
2023-08-09 17:48:01.785095,-76.0
2023-08-09 17:48:01.792786,-78.0
2023-08-09 17:48:01.800476,-81.0
2023-08-09 17:48:01.808167,-76.0
2023-08-09 17:48:01.815857,-71.0
2023-08-09 17:48:01.823548,-74.0
2023-08-09 17:48:01.831238,-81.0
2023-08-09 17:48:01.838929,-100.0
2023-08-09 17:48:01.846619,-50.0
2023-08-09 17:48:01.854310,255.0
2023-08-09 17:48:01.862001,807.0
2023-08-09 17:48:01.869691,1265.0
2023-08-09 17:48:01.877382,1251.0
2023-08-09 17:48:01.885072,735.0
2023-08-09 17:48:01.892763,112.0
2023-08-09 17:48:01.900453,-183.0
2023-08-09 17:48:01.908144,-164.0
2023-08-09 17:48:01.915834,-157.0
2023-08-09 17:48:01.923525,-229.0
2023-08-09 17:48:01.931215,-238.0
2023-08-09 17:48:01.938906,-210.0
2023-08-09 17:48:01.946597,-205.0
2023-08-09 17:48:01.954287,-195.0
2023-08-09 17:48:01.961978,-179.0
2023-08-09 17:48:01.969668,-169.0
2023-08-09 17:48:01.977359,-160.0
2023-08-09 17:48:01.985049,-145.0
2023-08-09 17:48:01.992740,-124.0
2023-08-09 17:48:02.000430,-105.0
2023-08-09 17:48:02.008121,-95.0
2023-08-09 17:48:02.015811,-78.0
2023-08-09 17:48:02.023502,-47.0
2023-08-09 17:48:02.031192,-21.0
2023-08-09 17:48:02.038883,0.0
2023-08-09 17:48:02.046574,19.0
2023-08-09 17:48:02.054264,40.0
2023-08-09 17:48:02.061955,64.0
2023-08-09 17:48:02.069645,90.0
2023-08-09 17:48:02.077336,107.0
2023-08-09 17:48:02.085026,119.0
2023-08-09 17:48:02.092717,131.0
2023-08-09 17:48:02.100407,131.0
2023-08-09 17:48:02.108098,119.0
2023-08-09 17:48:02.115788,97.0
2023-08-09 17:48:02.123479,62.0
2023-08-09 17:48:02.131170,19.0
2023-08-09 17:48:02.138860,-35.0
2023-08-09 17:48:02.146551,-95.0
2023-08-09 17:48:02.154241,-143.0
2023-08-09 17:48:02.161932,-176.0
2023-08-09 17:48:02.169622,-200.0
2023-08-09 17:48:02.177313,-212.0
2023-08-09 17:48:02.185003,-219.0
2023-08-09 17:48:02.192694,-224.0
2023-08-09 17:48:02.200384,-226.0
2023-08-09 17:48:02.208075,-219.0
2023-08-09 17:48:02.215766,-205.0
2023-08-09 17:48:02.223456,-191.0
2023-08-09 17:48:02.231147,-188.0
2023-08-09 17:48:02.238837,-191.0
2023-08-09 17:48:02.246528,-181.0
2023-08-09 17:48:02.254218,-167.0
2023-08-09 17:48:02.261909,-164.0
2023-08-09 17:48:02.269599,-160.0
2023-08-09 17:48:02.277290,-152.0
2023-08-09 17:48:02.284980,-152.0
2023-08-09 17:48:02.292671,-152.0
2023-08-09 17:48:02.300361,-145.0
2023-08-09 17:48:02.308052,-136.0
2023-08-09 17:48:02.315743,-133.0
2023-08-09 17:48:02.323433,-138.0
2023-08-09 17:48:02.331124,-138.0
2023-08-09 17:48:02.338814,-133.0
2023-08-09 17:48:02.346505,-133.0
2023-08-09 17:48:02.354195,-131.0
2023-08-09 17:48:02.361886,-121.0
2023-08-09 17:48:02.369576,-119.0
2023-08-09 17:48:02.377267,-124.0
2023-08-09 17:48:02.384957,-126.0
2023-08-09 17:48:02.392648,-128.0
2023-08-09 17:48:02.400339,-124.0
2023-08-09 17:48:02.408029,-117.0
2023-08-09 17:48:02.415720,-124.0
2023-08-09 17:48:02.423410,-131.0
2023-08-09 17:48:02.431101,-124.0
2023-08-09 17:48:02.438791,-124.0
2023-08-09 17:48:02.446482,-126.0
2023-08-09 17:48:02.454172,-126.0
2023-08-09 17:48:02.461863,-126.0
2023-08-09 17:48:02.469553,-128.0
2023-08-09 17:48:02.477244,-121.0
2023-08-09 17:48:02.484935,-117.0
2023-08-09 17:48:02.492625,-112.0
2023-08-09 17:48:02.500316,-109.0
2023-08-09 17:48:02.508006,-112.0
2023-08-09 17:48:02.515697,-107.0
2023-08-09 17:48:02.523387,-100.0
2023-08-09 17:48:02.531078,-100.0
2023-08-09 17:48:02.538768,-100.0
2023-08-09 17:48:02.546459,-95.0
2023-08-09 17:48:02.554149,-95.0
2023-08-09 17:48:02.561840,-93.0
2023-08-09 17:48:02.569530,-88.0
2023-08-09 17:48:02.577221,-83.0
2023-08-09 17:48:02.584912,-74.0
2023-08-09 17:48:02.592602,-54.0
2023-08-09 17:48:02.600293,-40.0
2023-08-09 17:48:02.607983,-38.0
2023-08-09 17:48:02.615674,-38.0
2023-08-09 17:48:02.623364,-52.0
2023-08-09 17:48:02.631055,-76.0
2023-08-09 17:48:02.638745,-88.0
2023-08-09 17:48:02.646436,-81.0
2023-08-09 17:48:02.654126,-81.0
2023-08-09 17:48:02.661817,-85.0
2023-08-09 17:48:02.669508,-78.0
2023-08-09 17:48:02.677198,-66.0
2023-08-09 17:48:02.684889,-69.0
2023-08-09 17:48:02.692579,-88.0
2023-08-09 17:48:02.700270,-76.0
2023-08-09 17:48:02.707960,114.0
2023-08-09 17:48:02.715651,570.0
2023-08-09 17:48:02.723341,1089.0
2023-08-09 17:48:02.731032,1296.0
2023-08-09 17:48:02.738722,979.0
2023-08-09 17:48:02.746413,353.0
2023-08-09 17:48:02.754104,-90.0
2023-08-09 17:48:02.761794,-169.0
2023-08-09 17:48:02.769485,-140.0
2023-08-09 17:48:02.777175,-188.0
2023-08-09 17:48:02.784866,-217.0
2023-08-09 17:48:02.792556,-195.0
2023-08-09 17:48:02.800247,-191.0
2023-08-09 17:48:02.807937,-191.0
2023-08-09 17:48:02.815628,-174.0
2023-08-09 17:48:02.823318,-157.0
2023-08-09 17:48:02.831009,-140.0
2023-08-09 17:48:02.838700,-124.0
2023-08-09 17:48:02.846390,-114.0
2023-08-09 17:48:02.854081,-102.0
2023-08-09 17:48:02.861771,-83.0
2023-08-09 17:48:02.869462,-66.0
2023-08-09 17:48:02.877152,-52.0
2023-08-09 17:48:02.884843,-38.0
2023-08-09 17:48:02.892533,-14.0
2023-08-09 17:48:02.900224,11.0
2023-08-09 17:48:02.907914,35.0
2023-08-09 17:48:02.915605,59.0
2023-08-09 17:48:02.923295,83.0
2023-08-09 17:48:02.930986,100.0
2023-08-09 17:48:02.938677,117.0
2023-08-09 17:48:02.946367,126.0
2023-08-09 17:48:02.954058,121.0
2023-08-09 17:48:02.961748,109.0
2023-08-09 17:48:02.969439,93.0
2023-08-09 17:48:02.977129,66.0
2023-08-09 17:48:02.984820,28.0
2023-08-09 17:48:02.992510,-16.0
2023-08-09 17:48:03.000201,-69.0
2023-08-09 17:48:03.007891,-119.0
2023-08-09 17:48:03.015582,-152.0
2023-08-09 17:48:03.023273,-181.0
2023-08-09 17:48:03.030963,-207.0
2023-08-09 17:48:03.038654,-219.0
2023-08-09 17:48:03.046344,-224.0
2023-08-09 17:48:03.054035,-224.0
2023-08-09 17:48:03.061725,-217.0
2023-08-09 17:48:03.069416,-207.0
2023-08-09 17:48:03.077106,-200.0
2023-08-09 17:48:03.084797,-198.0
2023-08-09 17:48:03.092487,-188.0
2023-08-09 17:48:03.100178,-181.0
2023-08-09 17:48:03.107869,-176.0
2023-08-09 17:48:03.115559,-167.0
2023-08-09 17:48:03.123250,-162.0
2023-08-09 17:48:03.130940,-167.0
2023-08-09 17:48:03.138631,-164.0
2023-08-09 17:48:03.146321,-155.0
2023-08-09 17:48:03.154012,-148.0
2023-08-09 17:48:03.161702,-145.0
2023-08-09 17:48:03.169393,-143.0
2023-08-09 17:48:03.177083,-143.0
2023-08-09 17:48:03.184774,-143.0
2023-08-09 17:48:03.192464,-138.0
2023-08-09 17:48:03.200155,-136.0
2023-08-09 17:48:03.207846,-133.0
2023-08-09 17:48:03.215536,-133.0
2023-08-09 17:48:03.223227,-128.0
2023-08-09 17:48:03.230917,-121.0
2023-08-09 17:48:03.238608,-119.0
2023-08-09 17:48:03.246298,-119.0
2023-08-09 17:48:03.253989,-117.0
2023-08-09 17:48:03.261679,-114.0
2023-08-09 17:48:03.269370,-117.0
2023-08-09 17:48:03.277060,-117.0
2023-08-09 17:48:03.284751,-105.0
2023-08-09 17:48:03.292442,-97.0
2023-08-09 17:48:03.300132,-100.0
2023-08-09 17:48:03.307823,-102.0
2023-08-09 17:48:03.315513,-100.0
2023-08-09 17:48:03.323204,-97.0
2023-08-09 17:48:03.330894,-95.0
2023-08-09 17:48:03.338585,-90.0
2023-08-09 17:48:03.346275,-88.0
2023-08-09 17:48:03.353966,-88.0
2023-08-09 17:48:03.361656,-90.0
2023-08-09 17:48:03.369347,-90.0
2023-08-09 17:48:03.377038,-90.0
2023-08-09 17:48:03.384728,-88.0
2023-08-09 17:48:03.392419,-88.0
2023-08-09 17:48:03.400109,-83.0
2023-08-09 17:48:03.407800,-83.0
2023-08-09 17:48:03.415490,-83.0
2023-08-09 17:48:03.423181,-78.0
2023-08-09 17:48:03.430871,-76.0
2023-08-09 17:48:03.438562,-81.0
2023-08-09 17:48:03.446252,-83.0
2023-08-09 17:48:03.453943,-83.0
2023-08-09 17:48:03.461633,-81.0
2023-08-09 17:48:03.469324,-78.0
2023-08-09 17:48:03.477015,-81.0
2023-08-09 17:48:03.484705,-81.0
2023-08-09 17:48:03.492396,-71.0
2023-08-09 17:48:03.500086,-54.0
2023-08-09 17:48:03.507777,-40.0
2023-08-09 17:48:03.515467,-31.0
2023-08-09 17:48:03.523158,-33.0
2023-08-09 17:48:03.530848,-45.0
2023-08-09 17:48:03.538539,-71.0
2023-08-09 17:48:03.546229,-90.0
2023-08-09 17:48:03.553920,-90.0
2023-08-09 17:48:03.561611,-90.0
2023-08-09 17:48:03.569301,-93.0
2023-08-09 17:48:03.576992,-93.0
2023-08-09 17:48:03.584682,-85.0
2023-08-09 17:48:03.592373,-81.0
2023-08-09 17:48:03.600063,-88.0
2023-08-09 17:48:03.607754,-88.0
2023-08-09 17:48:03.615444,47.0
2023-08-09 17:48:03.623135,460.0
2023-08-09 17:48:03.630825,1003.0
2023-08-09 17:48:03.638516,1277.0
2023-08-09 17:48:03.646207,1027.0
2023-08-09 17:48:03.653897,420.0
2023-08-09 17:48:03.661588,-66.0
2023-08-09 17:48:03.669278,-183.0
2023-08-09 17:48:03.676969,-145.0
2023-08-09 17:48:03.684659,-191.0
2023-08-09 17:48:03.692350,-231.0
2023-08-09 17:48:03.700040,-207.0
2023-08-09 17:48:03.707731,-200.0
2023-08-09 17:48:03.715421,-210.0
2023-08-09 17:48:03.723112,-188.0
2023-08-09 17:48:03.730802,-164.0
2023-08-09 17:48:03.738493,-162.0
2023-08-09 17:48:03.746184,-155.0
2023-08-09 17:48:03.753874,-133.0
2023-08-09 17:48:03.761565,-119.0
2023-08-09 17:48:03.769255,-107.0
2023-08-09 17:48:03.776946,-83.0
2023-08-09 17:48:03.784636,-62.0
2023-08-09 17:48:03.792327,-42.0
2023-08-09 17:48:03.800017,-23.0
2023-08-09 17:48:03.807708,-4.0
2023-08-09 17:48:03.815398,16.0
2023-08-09 17:48:03.823089,42.0
2023-08-09 17:48:03.830780,66.0
2023-08-09 17:48:03.838470,85.0
2023-08-09 17:48:03.846161,107.0
2023-08-09 17:48:03.853851,119.0
2023-08-09 17:48:03.861542,121.0
2023-08-09 17:48:03.869232,124.0
2023-08-09 17:48:03.876923,117.0
2023-08-09 17:48:03.884613,90.0
2023-08-09 17:48:03.892304,50.0
2023-08-09 17:48:03.899994,7.0
2023-08-09 17:48:03.907685,-42.0
2023-08-09 17:48:03.915376,-100.0
2023-08-09 17:48:03.923066,-150.0
2023-08-09 17:48:03.930757,-183.0
2023-08-09 17:48:03.938447,-212.0
2023-08-09 17:48:03.946138,-231.0
2023-08-09 17:48:03.953828,-243.0
2023-08-09 17:48:03.961519,-241.0
2023-08-09 17:48:03.969209,-234.0
2023-08-09 17:48:03.976900,-234.0
2023-08-09 17:48:03.984590,-231.0
2023-08-09 17:48:03.992281,-214.0
2023-08-09 17:48:03.999972,-203.0
2023-08-09 17:48:04.007662,-205.0
2023-08-09 17:48:04.015353,-191.0
2023-08-09 17:48:04.023043,-171.0
2023-08-09 17:48:04.030734,-176.0
2023-08-09 17:48:04.038424,-181.0
2023-08-09 17:48:04.046115,-169.0
2023-08-09 17:48:04.053805,-164.0
2023-08-09 17:48:04.061496,-167.0
2023-08-09 17:48:04.069186,-164.0
2023-08-09 17:48:04.076877,-155.0
2023-08-09 17:48:04.084567,-155.0
2023-08-09 17:48:04.092258,-155.0
2023-08-09 17:48:04.099949,-150.0
2023-08-09 17:48:04.107639,-155.0
2023-08-09 17:48:04.115330,-157.0
2023-08-09 17:48:04.123020,-155.0
2023-08-09 17:48:04.130711,-160.0
2023-08-09 17:48:04.138401,-162.0
2023-08-09 17:48:04.146092,-148.0
2023-08-09 17:48:04.153782,-145.0
2023-08-09 17:48:04.161473,-150.0
2023-08-09 17:48:04.169163,-143.0
2023-08-09 17:48:04.176854,-138.0
2023-08-09 17:48:04.184545,-140.0
2023-08-09 17:48:04.192235,-136.0
2023-08-09 17:48:04.199926,-128.0
2023-08-09 17:48:04.207616,-131.0
2023-08-09 17:48:04.215307,-128.0
2023-08-09 17:48:04.222997,-121.0
2023-08-09 17:48:04.230688,-119.0
2023-08-09 17:48:04.238378,-117.0
2023-08-09 17:48:04.246069,-112.0
2023-08-09 17:48:04.253759,-112.0
2023-08-09 17:48:04.261450,-114.0
2023-08-09 17:48:04.269141,-109.0
2023-08-09 17:48:04.276831,-100.0
2023-08-09 17:48:04.284522,-95.0
2023-08-09 17:48:04.292212,-97.0
2023-08-09 17:48:04.299903,-97.0
2023-08-09 17:48:04.307593,-93.0
2023-08-09 17:48:04.315284,-93.0
2023-08-09 17:48:04.322974,-95.0
2023-08-09 17:48:04.330665,-90.0
2023-08-09 17:48:04.338355,-83.0
2023-08-09 17:48:04.346046,-78.0
2023-08-09 17:48:04.353736,-69.0
2023-08-09 17:48:04.361427,-52.0
2023-08-09 17:48:04.369118,-38.0
2023-08-09 17:48:04.376808,-38.0
2023-08-09 17:48:04.384499,-47.0
2023-08-09 17:48:04.392189,-64.0
2023-08-09 17:48:04.399880,-83.0
2023-08-09 17:48:04.407570,-83.0
2023-08-09 17:48:04.415261,-78.0
2023-08-09 17:48:04.422951,-76.0
2023-08-09 17:48:04.430642,-76.0
2023-08-09 17:48:04.438332,-76.0
2023-08-09 17:48:04.446023,-74.0
2023-08-09 17:48:04.453714,-81.0
2023-08-09 17:48:04.461404,-95.0
2023-08-09 17:48:04.469095,-31.0
2023-08-09 17:48:04.476785,296.0
2023-08-09 17:48:04.484476,867.0
2023-08-09 17:48:04.492166,1311.0
2023-08-09 17:48:04.499857,1237.0
2023-08-09 17:48:04.507547,678.0
2023-08-09 17:48:04.515238,69.0
2023-08-09 17:48:04.522928,-191.0
2023-08-09 17:48:04.530619,-148.0
2023-08-09 17:48:04.538310,-150.0
2023-08-09 17:48:04.546000,-224.0
2023-08-09 17:48:04.553691,-217.0
2023-08-09 17:48:04.561381,-193.0
2023-08-09 17:48:04.569072,-198.0
2023-08-09 17:48:04.576762,-183.0
2023-08-09 17:48:04.584453,-162.0
2023-08-09 17:48:04.592143,-160.0
2023-08-09 17:48:04.599834,-145.0
2023-08-09 17:48:04.607524,-121.0
2023-08-09 17:48:04.615215,-105.0
2023-08-09 17:48:04.622905,-93.0
2023-08-09 17:48:04.630596,-78.0
2023-08-09 17:48:04.638287,-62.0
2023-08-09 17:48:04.645977,-38.0
2023-08-09 17:48:04.653668,-19.0
2023-08-09 17:48:04.661358,-2.0
2023-08-09 17:48:04.669049,19.0
2023-08-09 17:48:04.676739,42.0
2023-08-09 17:48:04.684430,66.0
2023-08-09 17:48:04.692120,93.0
2023-08-09 17:48:04.699811,119.0
2023-08-09 17:48:04.707501,136.0
2023-08-09 17:48:04.715192,140.0
2023-08-09 17:48:04.722883,138.0
2023-08-09 17:48:04.730573,128.0
2023-08-09 17:48:04.738264,109.0
2023-08-09 17:48:04.745954,71.0
2023-08-09 17:48:04.753645,19.0
2023-08-09 17:48:04.761335,-40.0
2023-08-09 17:48:04.769026,-97.0
2023-08-09 17:48:04.776716,-145.0
2023-08-09 17:48:04.784407,-179.0
2023-08-09 17:48:04.792097,-205.0
2023-08-09 17:48:04.799788,-226.0
2023-08-09 17:48:04.807479,-236.0
2023-08-09 17:48:04.815169,-236.0
2023-08-09 17:48:04.822860,-226.0
2023-08-09 17:48:04.830550,-217.0
2023-08-09 17:48:04.838241,-214.0
2023-08-09 17:48:04.845931,-214.0
2023-08-09 17:48:04.853622,-205.0
2023-08-09 17:48:04.861312,-195.0
2023-08-09 17:48:04.869003,-191.0
2023-08-09 17:48:04.876693,-183.0
2023-08-09 17:48:04.884384,-176.0
2023-08-09 17:48:04.892075,-171.0
2023-08-09 17:48:04.899765,-162.0
2023-08-09 17:48:04.907456,-152.0
2023-08-09 17:48:04.915146,-148.0
2023-08-09 17:48:04.922837,-145.0
2023-08-09 17:48:04.930527,-143.0
2023-08-09 17:48:04.938218,-143.0
2023-08-09 17:48:04.945908,-138.0
2023-08-09 17:48:04.953599,-140.0
2023-08-09 17:48:04.961289,-145.0
2023-08-09 17:48:04.968980,-143.0
2023-08-09 17:48:04.976670,-140.0
2023-08-09 17:48:04.984361,-143.0
2023-08-09 17:48:04.992052,-140.0
2023-08-09 17:48:04.999742,-136.0
2023-08-09 17:48:05.007433,-138.0
2023-08-09 17:48:05.015123,-138.0
2023-08-09 17:48:05.022814,-128.0
2023-08-09 17:48:05.030504,-124.0
2023-08-09 17:48:05.038195,-124.0
2023-08-09 17:48:05.045885,-121.0
2023-08-09 17:48:05.053576,-121.0
2023-08-09 17:48:05.061266,-119.0
2023-08-09 17:48:05.068957,-117.0
2023-08-09 17:48:05.076648,-112.0
2023-08-09 17:48:05.084338,-107.0
2023-08-09 17:48:05.092029,-109.0
2023-08-09 17:48:05.099719,-109.0
2023-08-09 17:48:05.107410,-102.0
2023-08-09 17:48:05.115100,-100.0
2023-08-09 17:48:05.122791,-102.0
2023-08-09 17:48:05.130481,-100.0
2023-08-09 17:48:05.138172,-100.0
2023-08-09 17:48:05.145862,-100.0
2023-08-09 17:48:05.153553,-95.0
2023-08-09 17:48:05.161244,-88.0
2023-08-09 17:48:05.168934,-90.0
2023-08-09 17:48:05.176625,-93.0
2023-08-09 17:48:05.184315,-88.0
2023-08-09 17:48:05.192006,-83.0
2023-08-09 17:48:05.199696,-83.0
2023-08-09 17:48:05.207387,-90.0
2023-08-09 17:48:05.215077,-95.0
2023-08-09 17:48:05.222768,-93.0
2023-08-09 17:48:05.230458,-93.0
2023-08-09 17:48:05.238149,-88.0
2023-08-09 17:48:05.245839,-71.0
2023-08-09 17:48:05.253530,-57.0
2023-08-09 17:48:05.261221,-42.0
2023-08-09 17:48:05.268911,-33.0
2023-08-09 17:48:05.276602,-42.0
2023-08-09 17:48:05.284292,-69.0
2023-08-09 17:48:05.291983,-81.0
2023-08-09 17:48:05.299673,-83.0
2023-08-09 17:48:05.307364,-88.0
2023-08-09 17:48:05.315054,-88.0
2023-08-09 17:48:05.322745,-85.0
2023-08-09 17:48:05.330435,-85.0
2023-08-09 17:48:05.338126,-81.0
2023-08-09 17:48:05.345817,-78.0
2023-08-09 17:48:05.353507,-90.0
2023-08-09 17:48:05.361198,-45.0
2023-08-09 17:48:05.368888,229.0
2023-08-09 17:48:05.376579,730.0
2023-08-09 17:48:05.384269,1187.0
2023-08-09 17:48:05.391960,1237.0
2023-08-09 17:48:05.399650,778.0
2023-08-09 17:48:05.407341,160.0
2023-08-09 17:48:05.415031,-164.0
2023-08-09 17:48:05.422722,-162.0
2023-08-09 17:48:05.430413,-150.0
2023-08-09 17:48:05.438103,-217.0
2023-08-09 17:48:05.445794,-224.0
2023-08-09 17:48:05.453484,-195.0
2023-08-09 17:48:05.461175,-203.0
2023-08-09 17:48:05.468865,-205.0
2023-08-09 17:48:05.476556,-186.0
2023-08-09 17:48:05.484246,-171.0
2023-08-09 17:48:05.491937,-162.0
2023-08-09 17:48:05.499627,-140.0
2023-08-09 17:48:05.507318,-124.0
2023-08-09 17:48:05.515008,-117.0
2023-08-09 17:48:05.522699,-100.0
2023-08-09 17:48:05.530390,-78.0
2023-08-09 17:48:05.538080,-62.0
2023-08-09 17:48:05.545771,-40.0
2023-08-09 17:48:05.553461,-11.0
2023-08-09 17:48:05.561152,9.0
2023-08-09 17:48:05.568842,26.0
2023-08-09 17:48:05.576533,47.0
2023-08-09 17:48:05.584223,66.0
2023-08-09 17:48:05.591914,85.0
2023-08-09 17:48:05.599604,107.0
2023-08-09 17:48:05.607295,119.0
2023-08-09 17:48:05.614986,119.0
2023-08-09 17:48:05.622676,112.0
2023-08-09 17:48:05.630367,97.0
2023-08-09 17:48:05.638057,74.0
2023-08-09 17:48:05.645748,28.0
2023-08-09 17:48:05.653438,-23.0
2023-08-09 17:48:05.661129,-76.0
2023-08-09 17:48:05.668819,-121.0
2023-08-09 17:48:05.676510,-160.0
2023-08-09 17:48:05.684200,-186.0
2023-08-09 17:48:05.691891,-205.0
2023-08-09 17:48:05.699582,-219.0
2023-08-09 17:48:05.707272,-222.0
2023-08-09 17:48:05.714963,-214.0
2023-08-09 17:48:05.722653,-214.0
2023-08-09 17:48:05.730344,-212.0
2023-08-09 17:48:05.738034,-205.0
2023-08-09 17:48:05.745725,-207.0
2023-08-09 17:48:05.753415,-205.0
2023-08-09 17:48:05.761106,-186.0
2023-08-09 17:48:05.768796,-174.0
2023-08-09 17:48:05.776487,-179.0
2023-08-09 17:48:05.784177,-179.0
2023-08-09 17:48:05.791868,-183.0
2023-08-09 17:48:05.799559,-181.0
2023-08-09 17:48:05.807249,-169.0
2023-08-09 17:48:05.814940,-157.0
2023-08-09 17:48:05.822630,-155.0
2023-08-09 17:48:05.830321,-155.0
2023-08-09 17:48:05.838011,-157.0
2023-08-09 17:48:05.845702,-152.0
2023-08-09 17:48:05.853392,-150.0
2023-08-09 17:48:05.861083,-145.0
2023-08-09 17:48:05.868773,-143.0
2023-08-09 17:48:05.876464,-150.0
2023-08-09 17:48:05.884155,-155.0
2023-08-09 17:48:05.891845,-145.0
2023-08-09 17:48:05.899536,-138.0
2023-08-09 17:48:05.907226,-138.0
2023-08-09 17:48:05.914917,-136.0
2023-08-09 17:48:05.922607,-133.0
2023-08-09 17:48:05.930298,-133.0
2023-08-09 17:48:05.937988,-131.0
2023-08-09 17:48:05.945679,-124.0
2023-08-09 17:48:05.953369,-117.0
2023-08-09 17:48:05.961060,-117.0
2023-08-09 17:48:05.968751,-119.0
2023-08-09 17:48:05.976441,-121.0
2023-08-09 17:48:05.984132,-117.0
2023-08-09 17:48:05.991822,-114.0
2023-08-09 17:48:05.999513,-112.0
2023-08-09 17:48:06.007203,-109.0
2023-08-09 17:48:06.014894,-105.0
2023-08-09 17:48:06.022584,-102.0
2023-08-09 17:48:06.030275,-102.0
2023-08-09 17:48:06.037965,-97.0
2023-08-09 17:48:06.045656,-95.0
2023-08-09 17:48:06.053347,-93.0
2023-08-09 17:48:06.061037,-95.0
2023-08-09 17:48:06.068728,-93.0
2023-08-09 17:48:06.076418,-90.0
2023-08-09 17:48:06.084109,-90.0
2023-08-09 17:48:06.091799,-85.0
2023-08-09 17:48:06.099490,-85.0
2023-08-09 17:48:06.107180,-85.0
2023-08-09 17:48:06.114871,-88.0
2023-08-09 17:48:06.122561,-83.0
2023-08-09 17:48:06.130252,-78.0
2023-08-09 17:48:06.137942,-76.0
2023-08-09 17:48:06.145633,-78.0
2023-08-09 17:48:06.153324,-81.0
2023-08-09 17:48:06.161014,-81.0
2023-08-09 17:48:06.168705,-69.0
2023-08-09 17:48:06.176395,-45.0
2023-08-09 17:48:06.184086,-33.0
2023-08-09 17:48:06.191776,-33.0
2023-08-09 17:48:06.199467,-31.0
2023-08-09 17:48:06.207157,-35.0
2023-08-09 17:48:06.214848,-54.0
2023-08-09 17:48:06.222538,-69.0
2023-08-09 17:48:06.230229,-71.0
2023-08-09 17:48:06.237920,-74.0
2023-08-09 17:48:06.245610,-76.0
2023-08-09 17:48:06.253301,-74.0
2023-08-09 17:48:06.260991,-71.0
2023-08-09 17:48:06.268682,-66.0
2023-08-09 17:48:06.276372,-69.0
2023-08-09 17:48:06.284063,-78.0
2023-08-09 17:48:06.291753,0.0
2023-08-09 17:48:06.299444,332.0
2023-08-09 17:48:06.307134,859.0
2023-08-09 17:48:06.314825,1244.0
2023-08-09 17:48:06.322516,1148.0
2023-08-09 17:48:06.330206,609.0
2023-08-09 17:48:06.337897,47.0
2023-08-09 17:48:06.345587,-176.0
2023-08-09 17:48:06.353278,-150.0
2023-08-09 17:48:06.360968,-162.0
2023-08-09 17:48:06.368659,-224.0
2023-08-09 17:48:06.376349,-226.0
2023-08-09 17:48:06.384040,-210.0
2023-08-09 17:48:06.391730,-212.0
2023-08-09 17:48:06.399421,-203.0
2023-08-09 17:48:06.407111,-183.0
2023-08-09 17:48:06.414802,-174.0
2023-08-09 17:48:06.422493,-167.0
2023-08-09 17:48:06.430183,-152.0
2023-08-09 17:48:06.437874,-138.0
2023-08-09 17:48:06.445564,-119.0
2023-08-09 17:48:06.453255,-97.0
2023-08-09 17:48:06.460945,-78.0
2023-08-09 17:48:06.468636,-64.0
2023-08-09 17:48:06.476326,-50.0
2023-08-09 17:48:06.484017,-28.0
2023-08-09 17:48:06.491707,0.0
2023-08-09 17:48:06.499398,23.0
2023-08-09 17:48:06.507089,45.0
2023-08-09 17:48:06.514779,71.0
2023-08-09 17:48:06.522470,93.0
2023-08-09 17:48:06.530160,109.0
2023-08-09 17:48:06.537851,126.0
2023-08-09 17:48:06.545541,131.0
2023-08-09 17:48:06.553232,121.0
2023-08-09 17:48:06.560922,100.0
2023-08-09 17:48:06.568613,66.0
2023-08-09 17:48:06.576303,21.0
2023-08-09 17:48:06.583994,-28.0
2023-08-09 17:48:06.591685,-78.0
2023-08-09 17:48:06.599375,-128.0
2023-08-09 17:48:06.607066,-164.0
2023-08-09 17:48:06.614756,-188.0
2023-08-09 17:48:06.622447,-210.0
2023-08-09 17:48:06.630137,-222.0
2023-08-09 17:48:06.637828,-222.0
2023-08-09 17:48:06.645518,-222.0
2023-08-09 17:48:06.653209,-219.0
2023-08-09 17:48:06.660899,-212.0
2023-08-09 17:48:06.668590,-207.0
2023-08-09 17:48:06.676280,-200.0
2023-08-09 17:48:06.683971,-191.0
2023-08-09 17:48:06.691662,-186.0
2023-08-09 17:48:06.699352,-183.0
2023-08-09 17:48:06.707043,-176.0
2023-08-09 17:48:06.714733,-171.0
2023-08-09 17:48:06.722424,-169.0
2023-08-09 17:48:06.730114,-167.0
2023-08-09 17:48:06.737805,-164.0
2023-08-09 17:48:06.745495,-160.0
2023-08-09 17:48:06.753186,-155.0
2023-08-09 17:48:06.760876,-152.0
2023-08-09 17:48:06.768567,-148.0
2023-08-09 17:48:06.776258,-143.0
2023-08-09 17:48:06.783948,-140.0
2023-08-09 17:48:06.791639,-138.0
2023-08-09 17:48:06.799329,-138.0
2023-08-09 17:48:06.807020,-143.0
2023-08-09 17:48:06.814710,-143.0
2023-08-09 17:48:06.822401,-140.0
2023-08-09 17:48:06.830091,-143.0
2023-08-09 17:48:06.837782,-140.0
2023-08-09 17:48:06.845472,-136.0
2023-08-09 17:48:06.853163,-133.0
2023-08-09 17:48:06.860854,-131.0
2023-08-09 17:48:06.868544,-128.0
2023-08-09 17:48:06.876235,-128.0
2023-08-09 17:48:06.883925,-124.0
2023-08-09 17:48:06.891616,-117.0
2023-08-09 17:48:06.899306,-117.0
2023-08-09 17:48:06.906997,-121.0
2023-08-09 17:48:06.914687,-124.0
2023-08-09 17:48:06.922378,-126.0
2023-08-09 17:48:06.930068,-124.0
2023-08-09 17:48:06.937759,-117.0
2023-08-09 17:48:06.945450,-121.0
2023-08-09 17:48:06.953140,-121.0
2023-08-09 17:48:06.960831,-114.0
2023-08-09 17:48:06.968521,-114.0
2023-08-09 17:48:06.976212,-119.0
2023-08-09 17:48:06.983902,-119.0
2023-08-09 17:48:06.991593,-109.0
2023-08-09 17:48:06.999283,-105.0
2023-08-09 17:48:07.006974,-109.0
2023-08-09 17:48:07.014664,-114.0
2023-08-09 17:48:07.022355,-107.0
2023-08-09 17:48:07.030045,-102.0
2023-08-09 17:48:07.037736,-105.0
2023-08-09 17:48:07.045427,-102.0
2023-08-09 17:48:07.053117,-100.0
2023-08-09 17:48:07.060808,-95.0
2023-08-09 17:48:07.068498,-88.0
2023-08-09 17:48:07.076189,-74.0
2023-08-09 17:48:07.083879,-59.0
2023-08-09 17:48:07.091570,-54.0
2023-08-09 17:48:07.099260,-52.0
2023-08-09 17:48:07.106951,-62.0
2023-08-09 17:48:07.114641,-83.0
2023-08-09 17:48:07.122332,-95.0
2023-08-09 17:48:07.130023,-93.0
2023-08-09 17:48:07.137713,-90.0
2023-08-09 17:48:07.145404,-93.0
2023-08-09 17:48:07.153094,-90.0
2023-08-09 17:48:07.160785,-88.0
2023-08-09 17:48:07.168475,-83.0
2023-08-09 17:48:07.176166,-90.0
2023-08-09 17:48:07.183856,-78.0
2023-08-09 17:48:07.191547,117.0
2023-08-09 17:48:07.199237,625.0
2023-08-09 17:48:07.206928,1210.0
2023-08-09 17:48:07.214619,1380.0
2023-08-09 17:48:07.222309,933.0
2023-08-09 17:48:07.230000,243.0
2023-08-09 17:48:07.237690,-157.0
2023-08-09 17:48:07.245381,-179.0
2023-08-09 17:48:07.253071,-145.0
2023-08-09 17:48:07.260762,-207.0
2023-08-09 17:48:07.268452,-234.0
2023-08-09 17:48:07.276143,-207.0
2023-08-09 17:48:07.283833,-205.0
2023-08-09 17:48:07.291524,-200.0
2023-08-09 17:48:07.299214,-179.0
2023-08-09 17:48:07.306905,-164.0
2023-08-09 17:48:07.314596,-162.0
2023-08-09 17:48:07.322286,-150.0
2023-08-09 17:48:07.329977,-133.0
2023-08-09 17:48:07.337667,-119.0
2023-08-09 17:48:07.345358,-102.0
2023-08-09 17:48:07.353048,-83.0
2023-08-09 17:48:07.360739,-66.0
2023-08-09 17:48:07.368429,-47.0
2023-08-09 17:48:07.376120,-19.0
2023-08-09 17:48:07.383810,7.0
2023-08-09 17:48:07.391501,31.0
2023-08-09 17:48:07.399192,62.0
2023-08-09 17:48:07.406882,85.0
2023-08-09 17:48:07.414573,109.0
2023-08-09 17:48:07.422263,133.0
2023-08-09 17:48:07.429954,157.0
2023-08-09 17:48:07.437644,164.0
2023-08-09 17:48:07.445335,157.0
2023-08-09 17:48:07.453025,133.0
2023-08-09 17:48:07.460716,100.0
2023-08-09 17:48:07.468406,57.0
2023-08-09 17:48:07.476097,-2.0
2023-08-09 17:48:07.483788,-69.0
2023-08-09 17:48:07.491478,-131.0
2023-08-09 17:48:07.499169,-179.0
2023-08-09 17:48:07.506859,-212.0
2023-08-09 17:48:07.514550,-234.0
2023-08-09 17:48:07.522240,-248.0
2023-08-09 17:48:07.529931,-253.0
2023-08-09 17:48:07.537621,-253.0
2023-08-09 17:48:07.545312,-253.0
2023-08-09 17:48:07.553002,-248.0
2023-08-09 17:48:07.560693,-241.0
2023-08-09 17:48:07.568383,-234.0
2023-08-09 17:48:07.576074,-224.0
2023-08-09 17:48:07.583765,-214.0
2023-08-09 17:48:07.591455,-207.0
2023-08-09 17:48:07.599146,-195.0
2023-08-09 17:48:07.606836,-183.0
2023-08-09 17:48:07.614527,-179.0
2023-08-09 17:48:07.622217,-174.0
2023-08-09 17:48:07.629908,-167.0
2023-08-09 17:48:07.637598,-162.0
2023-08-09 17:48:07.645289,-160.0
2023-08-09 17:48:07.652979,-152.0
2023-08-09 17:48:07.660670,-152.0
2023-08-09 17:48:07.668361,-150.0
2023-08-09 17:48:07.676051,-148.0
2023-08-09 17:48:07.683742,-148.0
2023-08-09 17:48:07.691432,-145.0
2023-08-09 17:48:07.699123,-140.0
2023-08-09 17:48:07.706813,-138.0
2023-08-09 17:48:07.714504,-136.0
2023-08-09 17:48:07.722194,-133.0
2023-08-09 17:48:07.729885,-131.0
2023-08-09 17:48:07.737575,-128.0
2023-08-09 17:48:07.745266,-126.0
2023-08-09 17:48:07.752957,-121.0
2023-08-09 17:48:07.760647,-119.0
2023-08-09 17:48:07.768338,-117.0
2023-08-09 17:48:07.776028,-117.0
2023-08-09 17:48:07.783719,-112.0
2023-08-09 17:48:07.791409,-109.0
2023-08-09 17:48:07.799100,-105.0
2023-08-09 17:48:07.806790,-105.0
2023-08-09 17:48:07.814481,-107.0
2023-08-09 17:48:07.822171,-105.0
2023-08-09 17:48:07.829862,-100.0
2023-08-09 17:48:07.837552,-97.0
2023-08-09 17:48:07.845243,-95.0
2023-08-09 17:48:07.852934,-93.0
2023-08-09 17:48:07.860624,-93.0
2023-08-09 17:48:07.868315,-93.0
2023-08-09 17:48:07.876005,-93.0
2023-08-09 17:48:07.883696,-85.0
2023-08-09 17:48:07.891386,-69.0
2023-08-09 17:48:07.899077,-52.0
2023-08-09 17:48:07.906767,-42.0
2023-08-09 17:48:07.914458,-38.0
2023-08-09 17:48:07.922148,-40.0
2023-08-09 17:48:07.929839,-59.0
2023-08-09 17:48:07.937530,-76.0
2023-08-09 17:48:07.945220,-78.0
2023-08-09 17:48:07.952911,-81.0
2023-08-09 17:48:07.960601,-83.0
2023-08-09 17:48:07.968292,-81.0
2023-08-09 17:48:07.975982,-78.0
2023-08-09 17:48:07.983673,-83.0
2023-08-09 17:48:07.991363,-85.0
2023-08-09 17:48:07.999054,-100.0
2023-08-09 17:48:08.006744,-69.0
2023-08-09 17:48:08.014435,191.0
2023-08-09 17:48:08.022126,721.0
2023-08-09 17:48:08.029816,1234.0
2023-08-09 17:48:08.037507,1328.0
2023-08-09 17:48:08.045197,867.0
2023-08-09 17:48:08.052888,203.0
2023-08-09 17:48:08.060578,-174.0
2023-08-09 17:48:08.068269,-183.0
2023-08-09 17:48:08.075959,-160.0
2023-08-09 17:48:08.083650,-229.0
2023-08-09 17:48:08.091340,-246.0
2023-08-09 17:48:08.099031,-214.0
2023-08-09 17:48:08.106722,-212.0
2023-08-09 17:48:08.114412,-207.0
2023-08-09 17:48:08.122103,-186.0
2023-08-09 17:48:08.129793,-171.0
2023-08-09 17:48:08.137484,-160.0
2023-08-09 17:48:08.145174,-143.0
2023-08-09 17:48:08.152865,-126.0
2023-08-09 17:48:08.160555,-109.0
2023-08-09 17:48:08.168246,-93.0
2023-08-09 17:48:08.175936,-76.0
2023-08-09 17:48:08.183627,-57.0
2023-08-09 17:48:08.191317,-35.0
2023-08-09 17:48:08.199008,-16.0
2023-08-09 17:48:08.206699,9.0
2023-08-09 17:48:08.214389,38.0
2023-08-09 17:48:08.222080,59.0
2023-08-09 17:48:08.229770,83.0
2023-08-09 17:48:08.237461,109.0
2023-08-09 17:48:08.245151,131.0
2023-08-09 17:48:08.252842,145.0
2023-08-09 17:48:08.260532,148.0
2023-08-09 17:48:08.268223,138.0
2023-08-09 17:48:08.275913,117.0
2023-08-09 17:48:08.283604,83.0
2023-08-09 17:48:08.291295,35.0
2023-08-09 17:48:08.298985,-23.0
2023-08-09 17:48:08.306676,-83.0
2023-08-09 17:48:08.314366,-133.0
2023-08-09 17:48:08.322057,-171.0
2023-08-09 17:48:08.329747,-200.0
2023-08-09 17:48:08.337438,-219.0
2023-08-09 17:48:08.345128,-226.0
2023-08-09 17:48:08.352819,-229.0
2023-08-09 17:48:08.360509,-231.0
2023-08-09 17:48:08.368200,-226.0
2023-08-09 17:48:08.375891,-219.0
2023-08-09 17:48:08.383581,-210.0
2023-08-09 17:48:08.391272,-200.0
2023-08-09 17:48:08.398962,-195.0
2023-08-09 17:48:08.406653,-186.0
2023-08-09 17:48:08.414343,-179.0
2023-08-09 17:48:08.422034,-174.0
2023-08-09 17:48:08.429724,-164.0
2023-08-09 17:48:08.437415,-160.0
2023-08-09 17:48:08.445105,-155.0
2023-08-09 17:48:08.452796,-150.0
2023-08-09 17:48:08.460486,-145.0
2023-08-09 17:48:08.468177,-143.0
2023-08-09 17:48:08.475868,-138.0
2023-08-09 17:48:08.483558,-136.0
2023-08-09 17:48:08.491249,-138.0
2023-08-09 17:48:08.498939,-140.0
2023-08-09 17:48:08.506630,-138.0
2023-08-09 17:48:08.514320,-136.0
2023-08-09 17:48:08.522011,-138.0
2023-08-09 17:48:08.529701,-136.0
2023-08-09 17:48:08.537392,-131.0
2023-08-09 17:48:08.545082,-131.0
2023-08-09 17:48:08.552773,-131.0
2023-08-09 17:48:08.560464,-126.0
2023-08-09 17:48:08.568154,-121.0
2023-08-09 17:48:08.575845,-126.0
2023-08-09 17:48:08.583535,-133.0
2023-08-09 17:48:08.591226,-128.0
2023-08-09 17:48:08.598916,-124.0
2023-08-09 17:48:08.606607,-121.0
2023-08-09 17:48:08.614297,-119.0
2023-08-09 17:48:08.621988,-114.0
2023-08-09 17:48:08.629678,-112.0
2023-08-09 17:48:08.637369,-109.0
2023-08-09 17:48:08.645060,-105.0
2023-08-09 17:48:08.652750,-105.0
2023-08-09 17:48:08.660441,-102.0
2023-08-09 17:48:08.668131,-100.0
2023-08-09 17:48:08.675822,-97.0
2023-08-09 17:48:08.683512,-95.0
2023-08-09 17:48:08.691203,-93.0
2023-08-09 17:48:08.698893,-90.0
2023-08-09 17:48:08.706584,-88.0
2023-08-09 17:48:08.714274,-88.0
2023-08-09 17:48:08.721965,-88.0
2023-08-09 17:48:08.729655,-88.0
2023-08-09 17:48:08.737346,-83.0
2023-08-09 17:48:08.745037,-74.0
2023-08-09 17:48:08.752727,-57.0
2023-08-09 17:48:08.760418,-47.0
2023-08-09 17:48:08.768108,-38.0
2023-08-09 17:48:08.775799,-35.0
2023-08-09 17:48:08.783489,-52.0
2023-08-09 17:48:08.791180,-76.0
2023-08-09 17:48:08.798870,-83.0
2023-08-09 17:48:08.806561,-83.0
2023-08-09 17:48:08.814251,-83.0
2023-08-09 17:48:08.821942,-83.0
2023-08-09 17:48:08.829633,-81.0
2023-08-09 17:48:08.837323,-78.0
2023-08-09 17:48:08.845014,-74.0
2023-08-09 17:48:08.852704,-78.0
2023-08-09 17:48:08.860395,-83.0
2023-08-09 17:48:08.868085,31.0
2023-08-09 17:48:08.875776,413.0
2023-08-09 17:48:08.883466,948.0
2023-08-09 17:48:08.891157,1273.0
2023-08-09 17:48:08.898847,1089.0
2023-08-09 17:48:08.906538,506.0
2023-08-09 17:48:08.914229,-9.0
2023-08-09 17:48:08.921919,-174.0
2023-08-09 17:48:08.929610,-143.0
2023-08-09 17:48:08.937300,-167.0
2023-08-09 17:48:08.944991,-217.0
2023-08-09 17:48:08.952681,-200.0
2023-08-09 17:48:08.960372,-183.0
2023-08-09 17:48:08.968062,-188.0
2023-08-09 17:48:08.975753,-179.0
2023-08-09 17:48:08.983443,-162.0
2023-08-09 17:48:08.991134,-152.0
2023-08-09 17:48:08.998824,-143.0
2023-08-09 17:48:09.006515,-128.0
2023-08-09 17:48:09.014206,-114.0
2023-08-09 17:48:09.021896,-97.0
2023-08-09 17:48:09.029587,-81.0
2023-08-09 17:48:09.037277,-64.0
2023-08-09 17:48:09.044968,-47.0
2023-08-09 17:48:09.052658,-23.0
2023-08-09 17:48:09.060349,0.0
2023-08-09 17:48:09.068039,19.0
2023-08-09 17:48:09.075730,42.0
2023-08-09 17:48:09.083420,66.0
2023-08-09 17:48:09.091111,88.0
2023-08-09 17:48:09.098802,112.0
2023-08-09 17:48:09.106492,128.0
2023-08-09 17:48:09.114183,133.0
2023-08-09 17:48:09.121873,128.0
2023-08-09 17:48:09.129564,114.0
2023-08-09 17:48:09.137254,95.0
2023-08-09 17:48:09.144945,59.0
2023-08-09 17:48:09.152635,11.0
2023-08-09 17:48:09.160326,-45.0
2023-08-09 17:48:09.168016,-97.0
2023-08-09 17:48:09.175707,-140.0
2023-08-09 17:48:09.183398,-174.0
2023-08-09 17:48:09.191088,-198.0
2023-08-09 17:48:09.198779,-212.0
2023-08-09 17:48:09.206469,-219.0
2023-08-09 17:48:09.214160,-222.0
2023-08-09 17:48:09.221850,-219.0
2023-08-09 17:48:09.229541,-212.0
2023-08-09 17:48:09.237231,-203.0
2023-08-09 17:48:09.244922,-195.0
2023-08-09 17:48:09.252612,-193.0
2023-08-09 17:48:09.260303,-186.0
2023-08-09 17:48:09.267994,-179.0
2023-08-09 17:48:09.275684,-171.0
2023-08-09 17:48:09.283375,-169.0
2023-08-09 17:48:09.291065,-164.0
2023-08-09 17:48:09.298756,-160.0
2023-08-09 17:48:09.306446,-155.0
2023-08-09 17:48:09.314137,-150.0
2023-08-09 17:48:09.321827,-143.0
2023-08-09 17:48:09.329518,-140.0
2023-08-09 17:48:09.337208,-140.0
2023-08-09 17:48:09.344899,-138.0
2023-08-09 17:48:09.352589,-133.0
2023-08-09 17:48:09.360280,-128.0
2023-08-09 17:48:09.367971,-128.0
2023-08-09 17:48:09.375661,-126.0
2023-08-09 17:48:09.383352,-124.0
2023-08-09 17:48:09.391042,-126.0
2023-08-09 17:48:09.398733,-124.0
2023-08-09 17:48:09.406423,-117.0
2023-08-09 17:48:09.414114,-114.0
2023-08-09 17:48:09.421804,-112.0
2023-08-09 17:48:09.429495,-112.0
2023-08-09 17:48:09.437185,-109.0
2023-08-09 17:48:09.444876,-105.0
2023-08-09 17:48:09.452567,-100.0
2023-08-09 17:48:09.460257,-100.0
2023-08-09 17:48:09.467948,-97.0
2023-08-09 17:48:09.475638,-93.0
2023-08-09 17:48:09.483329,-95.0
2023-08-09 17:48:09.491019,-93.0
2023-08-09 17:48:09.498710,-90.0
2023-08-09 17:48:09.506400,-95.0
2023-08-09 17:48:09.514091,-95.0
2023-08-09 17:48:09.521781,-90.0
2023-08-09 17:48:09.529472,-93.0
2023-08-09 17:48:09.537163,-93.0
2023-08-09 17:48:09.544853,-88.0
2023-08-09 17:48:09.552544,-85.0
2023-08-09 17:48:09.560234,-83.0
2023-08-09 17:48:09.567925,-83.0
2023-08-09 17:48:09.575615,-83.0
2023-08-09 17:48:09.583306,-81.0
2023-08-09 17:48:09.590996,-78.0
2023-08-09 17:48:09.598687,-76.0
2023-08-09 17:48:09.606377,-76.0
2023-08-09 17:48:09.614068,-74.0
2023-08-09 17:48:09.621758,-74.0
2023-08-09 17:48:09.629449,-74.0
2023-08-09 17:48:09.637140,-71.0
2023-08-09 17:48:09.644830,-66.0
2023-08-09 17:48:09.652521,-52.0
2023-08-09 17:48:09.660211,-40.0
2023-08-09 17:48:09.667902,-31.0
2023-08-09 17:48:09.675592,-26.0
2023-08-09 17:48:09.683283,-28.0
2023-08-09 17:48:09.690973,-42.0
2023-08-09 17:48:09.698664,-64.0
2023-08-09 17:48:09.706354,-81.0
2023-08-09 17:48:09.714045,-88.0
2023-08-09 17:48:09.721736,-83.0
2023-08-09 17:48:09.729426,-78.0
2023-08-09 17:48:09.737117,-78.0
2023-08-09 17:48:09.744807,-76.0
2023-08-09 17:48:09.752498,-76.0
2023-08-09 17:48:09.760188,-83.0
2023-08-09 17:48:09.767879,-69.0
2023-08-09 17:48:09.775569,114.0
2023-08-09 17:48:09.783260,549.0
2023-08-09 17:48:09.790950,1050.0
2023-08-09 17:48:09.798641,1251.0
2023-08-09 17:48:09.806332,933.0
2023-08-09 17:48:09.814022,327.0
2023-08-09 17:48:09.821713,-95.0
2023-08-09 17:48:09.829403,-171.0
2023-08-09 17:48:09.837094,-145.0
2023-08-09 17:48:09.844784,-188.0
2023-08-09 17:48:09.852475,-219.0
2023-08-09 17:48:09.860165,-200.0
2023-08-09 17:48:09.867856,-191.0
2023-08-09 17:48:09.875546,-191.0
2023-08-09 17:48:09.883237,-174.0
2023-08-09 17:48:09.890927,-160.0
2023-08-09 17:48:09.898618,-148.0
2023-08-09 17:48:09.906309,-136.0
2023-08-09 17:48:09.913999,-121.0
2023-08-09 17:48:09.921690,-109.0
2023-08-09 17:48:09.929380,-90.0
2023-08-09 17:48:09.937071,-71.0
2023-08-09 17:48:09.944761,-54.0
2023-08-09 17:48:09.952452,-35.0
2023-08-09 17:48:09.960142,-14.0
2023-08-09 17:48:09.967833,9.0
2023-08-09 17:48:09.975523,31.0
2023-08-09 17:48:09.983214,54.0
2023-08-09 17:48:09.990905,78.0
2023-08-09 17:48:09.998595,100.0
2023-08-09 17:48:10.006286,114.0
2023-08-09 17:48:10.013976,124.0
2023-08-09 17:48:10.021667,128.0
2023-08-09 17:48:10.029357,126.0
2023-08-09 17:48:10.037048,114.0
2023-08-09 17:48:10.044738,90.0
2023-08-09 17:48:10.052429,57.0
2023-08-09 17:48:10.060119,9.0
2023-08-09 17:48:10.067810,-45.0
2023-08-09 17:48:10.075501,-97.0
2023-08-09 17:48:10.083191,-143.0
2023-08-09 17:48:10.090882,-176.0
2023-08-09 17:48:10.098572,-198.0
2023-08-09 17:48:10.106263,-212.0
2023-08-09 17:48:10.113953,-219.0
2023-08-09 17:48:10.121644,-217.0
2023-08-09 17:48:10.129334,-217.0
2023-08-09 17:48:10.137025,-210.0
2023-08-09 17:48:10.144715,-200.0
2023-08-09 17:48:10.152406,-193.0
2023-08-09 17:48:10.160097,-186.0
2023-08-09 17:48:10.167787,-181.0
2023-08-09 17:48:10.175478,-176.0
2023-08-09 17:48:10.183168,-171.0
2023-08-09 17:48:10.190859,-160.0
2023-08-09 17:48:10.198549,-155.0
2023-08-09 17:48:10.206240,-152.0
2023-08-09 17:48:10.213930,-152.0
2023-08-09 17:48:10.221621,-148.0
2023-08-09 17:48:10.229311,-145.0
2023-08-09 17:48:10.237002,-143.0
2023-08-09 17:48:10.244692,-140.0
2023-08-09 17:48:10.252383,-143.0
2023-08-09 17:48:10.260074,-143.0
2023-08-09 17:48:10.267764,-143.0
2023-08-09 17:48:10.275455,-143.0
2023-08-09 17:48:10.283145,-140.0
2023-08-09 17:48:10.290836,-145.0
2023-08-09 17:48:10.298526,-148.0
2023-08-09 17:48:10.306217,-143.0
2023-08-09 17:48:10.313907,-138.0
2023-08-09 17:48:10.321598,-133.0
2023-08-09 17:48:10.329288,-131.0
2023-08-09 17:48:10.336979,-128.0
2023-08-09 17:48:10.344670,-128.0
2023-08-09 17:48:10.352360,-124.0
2023-08-09 17:48:10.360051,-121.0
2023-08-09 17:48:10.367741,-119.0
2023-08-09 17:48:10.375432,-114.0
2023-08-09 17:48:10.383122,-114.0
2023-08-09 17:48:10.390813,-109.0
2023-08-09 17:48:10.398503,-105.0
2023-08-09 17:48:10.406194,-105.0
2023-08-09 17:48:10.413884,-102.0
2023-08-09 17:48:10.421575,-100.0
2023-08-09 17:48:10.429266,-97.0
2023-08-09 17:48:10.436956,-97.0
2023-08-09 17:48:10.444647,-95.0
2023-08-09 17:48:10.452337,-95.0
2023-08-09 17:48:10.460028,-93.0
2023-08-09 17:48:10.467718,-90.0
2023-08-09 17:48:10.475409,-90.0
2023-08-09 17:48:10.483099,-88.0
2023-08-09 17:48:10.490790,-85.0
2023-08-09 17:48:10.498480,-85.0
2023-08-09 17:48:10.506171,-88.0
2023-08-09 17:48:10.513861,-93.0
2023-08-09 17:48:10.521552,-90.0
2023-08-09 17:48:10.529243,-81.0
2023-08-09 17:48:10.536933,-78.0
2023-08-09 17:48:10.544624,-83.0
2023-08-09 17:48:10.552314,-83.0
2023-08-09 17:48:10.560005,-81.0
2023-08-09 17:48:10.567695,-78.0
2023-08-09 17:48:10.575386,-64.0
2023-08-09 17:48:10.583076,-50.0
2023-08-09 17:48:10.590767,-40.0
2023-08-09 17:48:10.598457,-31.0
2023-08-09 17:48:10.606148,-40.0
2023-08-09 17:48:10.613839,-59.0
2023-08-09 17:48:10.621529,-66.0
2023-08-09 17:48:10.629220,-69.0
2023-08-09 17:48:10.636910,-78.0
2023-08-09 17:48:10.644601,-81.0
2023-08-09 17:48:10.652291,-78.0
2023-08-09 17:48:10.659982,-78.0
2023-08-09 17:48:10.667672,-76.0
2023-08-09 17:48:10.675363,-74.0
2023-08-09 17:48:10.683053,-83.0
2023-08-09 17:48:10.690744,-26.0
2023-08-09 17:48:10.698435,274.0
2023-08-09 17:48:10.706125,826.0
2023-08-09 17:48:10.713816,1294.0
2023-08-09 17:48:10.721506,1263.0
2023-08-09 17:48:10.729197,711.0
2023-08-09 17:48:10.736887,90.0
2023-08-09 17:48:10.744578,-174.0
2023-08-09 17:48:10.752268,-148.0
2023-08-09 17:48:10.759959,-157.0
2023-08-09 17:48:10.767649,-222.0
2023-08-09 17:48:10.775340,-214.0
2023-08-09 17:48:10.783030,-193.0
2023-08-09 17:48:10.790721,-200.0
2023-08-09 17:48:10.798412,-188.0
2023-08-09 17:48:10.806102,-169.0
2023-08-09 17:48:10.813793,-164.0
2023-08-09 17:48:10.821483,-155.0
2023-08-09 17:48:10.829174,-143.0
2023-08-09 17:48:10.836864,-133.0
2023-08-09 17:48:10.844555,-117.0
2023-08-09 17:48:10.852245,-93.0
2023-08-09 17:48:10.859936,-74.0
2023-08-09 17:48:10.867626,-59.0
2023-08-09 17:48:10.875317,-40.0
2023-08-09 17:48:10.883008,-14.0
2023-08-09 17:48:10.890698,9.0
2023-08-09 17:48:10.898389,33.0
2023-08-09 17:48:10.906079,57.0
2023-08-09 17:48:10.913770,76.0
2023-08-09 17:48:10.921460,102.0
2023-08-09 17:48:10.929151,126.0
2023-08-09 17:48:10.936841,140.0
2023-08-09 17:48:10.944532,145.0
2023-08-09 17:48:10.952222,138.0
2023-08-09 17:48:10.959913,117.0
2023-08-09 17:48:10.967604,83.0
2023-08-09 17:48:10.975294,35.0
2023-08-09 17:48:10.982985,-16.0
2023-08-09 17:48:10.990675,-71.0
2023-08-09 17:48:10.998366,-128.0
2023-08-09 17:48:11.006056,-183.0
2023-08-09 17:48:11.013747,-222.0
2023-08-09 17:48:11.021437,-241.0
2023-08-09 17:48:11.029128,-253.0
2023-08-09 17:48:11.036818,-262.0
2023-08-09 17:48:11.044509,-267.0
2023-08-09 17:48:11.052199,-267.0
2023-08-09 17:48:11.059890,-265.0
2023-08-09 17:48:11.067581,-250.0
2023-08-09 17:48:11.075271,-241.0
2023-08-09 17:48:11.082962,-231.0
2023-08-09 17:48:11.090652,-207.0
2023-08-09 17:48:11.098343,-198.0
2023-08-09 17:48:11.106033,-200.0
2023-08-09 17:48:11.113724,-198.0
2023-08-09 17:48:11.121414,-193.0
2023-08-09 17:48:11.129105,-181.0
2023-08-09 17:48:11.136795,-167.0
2023-08-09 17:48:11.144486,-160.0
2023-08-09 17:48:11.152177,-155.0
2023-08-09 17:48:11.159867,-155.0
2023-08-09 17:48:11.167558,-155.0
2023-08-09 17:48:11.175248,-145.0
2023-08-09 17:48:11.182939,-138.0
2023-08-09 17:48:11.190629,-145.0
2023-08-09 17:48:11.198320,-150.0
2023-08-09 17:48:11.206010,-145.0
2023-08-09 17:48:11.213701,-145.0
2023-08-09 17:48:11.221391,-145.0
2023-08-09 17:48:11.229082,-143.0
2023-08-09 17:48:11.236773,-140.0
2023-08-09 17:48:11.244463,-143.0
2023-08-09 17:48:11.252154,-140.0
2023-08-09 17:48:11.259844,-124.0
2023-08-09 17:48:11.267535,-112.0
2023-08-09 17:48:11.275225,-119.0
2023-08-09 17:48:11.282916,-133.0
2023-08-09 17:48:11.290606,-121.0
2023-08-09 17:48:11.298297,-107.0
2023-08-09 17:48:11.305987,-109.0
2023-08-09 17:48:11.313678,-109.0
2023-08-09 17:48:11.321369,-109.0
2023-08-09 17:48:11.329059,-112.0
2023-08-09 17:48:11.336750,-105.0
2023-08-09 17:48:11.344440,-90.0
2023-08-09 17:48:11.352131,-100.0
2023-08-09 17:48:11.359821,-109.0
2023-08-09 17:48:11.367512,-90.0
2023-08-09 17:48:11.375202,-85.0
2023-08-09 17:48:11.382893,-102.0
2023-08-09 17:48:11.390583,-95.0
2023-08-09 17:48:11.398274,-83.0
2023-08-09 17:48:11.405964,-95.0
2023-08-09 17:48:11.413655,-97.0
2023-08-09 17:48:11.421346,-83.0
2023-08-09 17:48:11.429036,-69.0
2023-08-09 17:48:11.436727,-59.0
2023-08-09 17:48:11.444417,-54.0
2023-08-09 17:48:11.452108,-57.0
2023-08-09 17:48:11.459798,-85.0
2023-08-09 17:48:11.467489,-117.0
2023-08-09 17:48:11.475179,-102.0
2023-08-09 17:48:11.482870,-85.0
2023-08-09 17:48:11.490560,-102.0
2023-08-09 17:48:11.498251,-119.0
2023-08-09 17:48:11.505942,-107.0
2023-08-09 17:48:11.513632,-95.0
2023-08-09 17:48:11.521323,-102.0
2023-08-09 17:48:11.529013,-114.0
2023-08-09 17:48:11.536704,-93.0
2023-08-09 17:48:11.544394,117.0
2023-08-09 17:48:11.552085,621.0
2023-08-09 17:48:11.559775,1172.0
2023-08-09 17:48:11.567466,1292.0
2023-08-09 17:48:11.575156,843.0
2023-08-09 17:48:11.582847,226.0
2023-08-09 17:48:11.590538,-138.0
2023-08-09 17:48:11.598228,-198.0
2023-08-09 17:48:11.605919,-171.0
2023-08-09 17:48:11.613609,-214.0
2023-08-09 17:48:11.621300,-253.0
2023-08-09 17:48:11.628990,-229.0
2023-08-09 17:48:11.636681,-207.0
2023-08-09 17:48:11.644371,-210.0
2023-08-09 17:48:11.652062,-200.0
2023-08-09 17:48:11.659752,-188.0
2023-08-09 17:48:11.667443,-174.0
2023-08-09 17:48:11.675133,-140.0
2023-08-09 17:48:11.682824,-121.0
2023-08-09 17:48:11.690515,-114.0
2023-08-09 17:48:11.698205,-95.0
2023-08-09 17:48:11.705896,-85.0
2023-08-09 17:48:11.713586,-71.0
2023-08-09 17:48:11.721277,-35.0
2023-08-09 17:48:11.728967,-19.0
2023-08-09 17:48:11.736658,-11.0
2023-08-09 17:48:11.744348,26.0
2023-08-09 17:48:11.752039,59.0
2023-08-09 17:48:11.759729,66.0
2023-08-09 17:48:11.767420,81.0
2023-08-09 17:48:11.775111,126.0
2023-08-09 17:48:11.782801,160.0
2023-08-09 17:48:11.790492,157.0
2023-08-09 17:48:11.798182,148.0
2023-08-09 17:48:11.805873,145.0
2023-08-09 17:48:11.813563,105.0
2023-08-09 17:48:11.821254,28.0
2023-08-09 17:48:11.828944,-21.0
2023-08-09 17:48:11.836635,-50.0
2023-08-09 17:48:11.844325,-107.0
2023-08-09 17:48:11.852016,-169.0
2023-08-09 17:48:11.859707,-188.0
2023-08-09 17:48:11.867397,-195.0
2023-08-09 17:48:11.875088,-219.0
2023-08-09 17:48:11.882778,-226.0
2023-08-09 17:48:11.890469,-222.0
2023-08-09 17:48:11.898159,-219.0
2023-08-09 17:48:11.905850,-207.0
2023-08-09 17:48:11.913540,-200.0
2023-08-09 17:48:11.921231,-198.0
2023-08-09 17:48:11.928921,-186.0
2023-08-09 17:48:11.936612,-179.0
2023-08-09 17:48:11.944302,-174.0
2023-08-09 17:48:11.951993,-157.0
2023-08-09 17:48:11.959684,-152.0
2023-08-09 17:48:11.967374,-164.0
2023-08-09 17:48:11.975065,-160.0
2023-08-09 17:48:11.982755,-150.0
2023-08-09 17:48:11.990446,-148.0
2023-08-09 17:48:11.998136,-136.0
2023-08-09 17:48:12.005827,-138.0
2023-08-09 17:48:12.013517,-138.0
2023-08-09 17:48:12.021208,-128.0
2023-08-09 17:48:12.028898,-128.0
2023-08-09 17:48:12.036589,-131.0
2023-08-09 17:48:12.044280,-121.0
2023-08-09 17:48:12.051970,-112.0
2023-08-09 17:48:12.059661,-117.0
2023-08-09 17:48:12.067351,-128.0
2023-08-09 17:48:12.075042,-128.0
2023-08-09 17:48:12.082732,-112.0
2023-08-09 17:48:12.090423,-109.0
2023-08-09 17:48:12.098113,-107.0
2023-08-09 17:48:12.105804,-100.0
2023-08-09 17:48:12.113494,-105.0
2023-08-09 17:48:12.121185,-100.0
2023-08-09 17:48:12.128876,-93.0
2023-08-09 17:48:12.136566,-97.0
2023-08-09 17:48:12.144257,-97.0
2023-08-09 17:48:12.151947,-88.0
2023-08-09 17:48:12.159638,-88.0
2023-08-09 17:48:12.167328,-112.0
2023-08-09 17:48:12.175019,-109.0
2023-08-09 17:48:12.182709,-66.0
2023-08-09 17:48:12.190400,-64.0
2023-08-09 17:48:12.198090,-97.0
2023-08-09 17:48:12.205781,-93.0
2023-08-09 17:48:12.213471,-71.0
2023-08-09 17:48:12.221162,-69.0
2023-08-09 17:48:12.228853,-81.0
2023-08-09 17:48:12.236543,-76.0
2023-08-09 17:48:12.244234,-69.0
2023-08-09 17:48:12.251924,-78.0
2023-08-09 17:48:12.259615,-76.0
2023-08-09 17:48:12.267305,-57.0
2023-08-09 17:48:12.274996,-42.0
2023-08-09 17:48:12.282686,-31.0
2023-08-09 17:48:12.290377,-28.0
2023-08-09 17:48:12.298067,-42.0
2023-08-09 17:48:12.305758,-64.0
2023-08-09 17:48:12.313449,-66.0
2023-08-09 17:48:12.321139,-62.0
2023-08-09 17:48:12.328830,-71.0
2023-08-09 17:48:12.336520,-76.0
2023-08-09 17:48:12.344211,-66.0
2023-08-09 17:48:12.351901,-66.0
2023-08-09 17:48:12.359592,-71.0
2023-08-09 17:48:12.367282,-62.0
2023-08-09 17:48:12.374973,-52.0
2023-08-09 17:48:12.382663,-40.0
2023-08-09 17:48:12.390354,126.0
2023-08-09 17:48:12.398045,575.0
2023-08-09 17:48:12.405735,1089.0
2023-08-09 17:48:12.413426,1220.0
2023-08-09 17:48:12.421116,816.0
2023-08-09 17:48:12.428807,241.0
2023-08-09 17:48:12.436497,-93.0
2023-08-09 17:48:12.444188,-157.0
2023-08-09 17:48:12.451878,-145.0
2023-08-09 17:48:12.459569,-167.0
2023-08-09 17:48:12.467259,-186.0
2023-08-09 17:48:12.474950,-181.0
2023-08-09 17:48:12.482641,-186.0
2023-08-09 17:48:12.490331,-188.0
2023-08-09 17:48:12.498022,-171.0
2023-08-09 17:48:12.505712,-160.0
2023-08-09 17:48:12.513403,-155.0
2023-08-09 17:48:12.521093,-140.0
2023-08-09 17:48:12.528784,-119.0
2023-08-09 17:48:12.536474,-114.0
2023-08-09 17:48:12.544165,-107.0
2023-08-09 17:48:12.551855,-78.0
2023-08-09 17:48:12.559546,-54.0
2023-08-09 17:48:12.567236,-40.0
2023-08-09 17:48:12.574927,-23.0
2023-08-09 17:48:12.582618,-11.0
2023-08-09 17:48:12.590308,4.0
2023-08-09 17:48:12.597999,42.0
2023-08-09 17:48:12.605689,74.0
2023-08-09 17:48:12.613380,78.0
2023-08-09 17:48:12.621070,105.0
2023-08-09 17:48:12.628761,140.0
2023-08-09 17:48:12.636451,138.0
2023-08-09 17:48:12.644142,117.0
2023-08-09 17:48:12.651832,93.0
2023-08-09 17:48:12.659523,78.0
2023-08-09 17:48:12.667214,59.0
2023-08-09 17:48:12.674904,-2.0
2023-08-09 17:48:12.682595,-76.0
2023-08-09 17:48:12.690285,-109.0
2023-08-09 17:48:12.697976,-136.0
2023-08-09 17:48:12.705666,-169.0
2023-08-09 17:48:12.713357,-195.0
2023-08-09 17:48:12.721047,-214.0
2023-08-09 17:48:12.728738,-222.0
2023-08-09 17:48:12.736428,-217.0
2023-08-09 17:48:12.744119,-212.0
2023-08-09 17:48:12.751810,-212.0
2023-08-09 17:48:12.759500,-205.0
2023-08-09 17:48:12.767191,-195.0
2023-08-09 17:48:12.774881,-188.0
2023-08-09 17:48:12.782572,-179.0
2023-08-09 17:48:12.790262,-164.0
2023-08-09 17:48:12.797953,-162.0
2023-08-09 17:48:12.805643,-171.0
2023-08-09 17:48:12.813334,-160.0
2023-08-09 17:48:12.821024,-138.0
2023-08-09 17:48:12.828715,-138.0
2023-08-09 17:48:12.836405,-145.0
2023-08-09 17:48:12.844096,-143.0
2023-08-09 17:48:12.851787,-131.0
2023-08-09 17:48:12.859477,-119.0
2023-08-09 17:48:12.867168,-133.0
2023-08-09 17:48:12.874858,-131.0
2023-08-09 17:48:12.882549,-107.0
2023-08-09 17:48:12.890239,-114.0
2023-08-09 17:48:12.897930,-128.0
2023-08-09 17:48:12.905620,-117.0
2023-08-09 17:48:12.913311,-93.0
2023-08-09 17:48:12.921001,-95.0
2023-08-09 17:48:12.928692,-114.0
2023-08-09 17:48:12.936383,-112.0
2023-08-09 17:48:12.944073,-97.0
2023-08-09 17:48:12.951764,-114.0
2023-08-09 17:48:12.959454,-128.0
2023-08-09 17:48:12.967145,-112.0
2023-08-09 17:48:12.974835,-85.0
2023-08-09 17:48:12.982526,-95.0
2023-08-09 17:48:12.990216,-124.0
2023-08-09 17:48:12.997907,-119.0
2023-08-09 17:48:13.005597,-90.0
2023-08-09 17:48:13.013288,-83.0
2023-08-09 17:48:13.020979,-95.0
2023-08-09 17:48:13.028669,-112.0
2023-08-09 17:48:13.036360,-119.0
2023-08-09 17:48:13.044050,-100.0
2023-08-09 17:48:13.051741,-97.0
2023-08-09 17:48:13.059431,-117.0
2023-08-09 17:48:13.067122,-114.0
2023-08-09 17:48:13.074812,-102.0
2023-08-09 17:48:13.082503,-100.0
2023-08-09 17:48:13.090193,-100.0
2023-08-09 17:48:13.097884,-97.0
2023-08-09 17:48:13.105574,-90.0
2023-08-09 17:48:13.113265,-97.0
2023-08-09 17:48:13.120956,-109.0
2023-08-09 17:48:13.128646,-109.0
2023-08-09 17:48:13.136337,-102.0
2023-08-09 17:48:13.144027,-93.0
2023-08-09 17:48:13.151718,-76.0
2023-08-09 17:48:13.159408,-62.0
2023-08-09 17:48:13.167099,-64.0
2023-08-09 17:48:13.174789,-66.0
2023-08-09 17:48:13.182480,-66.0
2023-08-09 17:48:13.190170,-83.0
2023-08-09 17:48:13.197861,-105.0
2023-08-09 17:48:13.205552,-119.0
2023-08-09 17:48:13.213242,-109.0
2023-08-09 17:48:13.220933,-90.0
2023-08-09 17:48:13.228623,-93.0
2023-08-09 17:48:13.236314,-102.0
2023-08-09 17:48:13.244004,-93.0
2023-08-09 17:48:13.251695,-88.0
2023-08-09 17:48:13.259385,-109.0
2023-08-09 17:48:13.267076,-66.0
2023-08-09 17:48:13.274766,212.0
2023-08-09 17:48:13.282457,714.0
2023-08-09 17:48:13.290148,1139.0
2023-08-09 17:48:13.297838,1144.0
2023-08-09 17:48:13.305529,673.0
2023-08-09 17:48:13.313219,95.0
2023-08-09 17:48:13.320910,-181.0
2023-08-09 17:48:13.328600,-171.0
2023-08-09 17:48:13.336291,-164.0
2023-08-09 17:48:13.343981,-222.0
2023-08-09 17:48:13.351672,-224.0
2023-08-09 17:48:13.359362,-200.0
2023-08-09 17:48:13.367053,-207.0
2023-08-09 17:48:13.374744,-205.0
2023-08-09 17:48:13.382434,-186.0
2023-08-09 17:48:13.390125,-174.0
2023-08-09 17:48:13.397815,-162.0
2023-08-09 17:48:13.405506,-148.0
2023-08-09 17:48:13.413196,-133.0
2023-08-09 17:48:13.420887,-114.0
2023-08-09 17:48:13.428577,-107.0
2023-08-09 17:48:13.436268,-93.0
2023-08-09 17:48:13.443958,-62.0
2023-08-09 17:48:13.451649,-52.0
2023-08-09 17:48:13.459339,-47.0
2023-08-09 17:48:13.467030,-11.0
2023-08-09 17:48:13.474721,26.0
2023-08-09 17:48:13.482411,35.0
2023-08-09 17:48:13.490102,54.0
2023-08-09 17:48:13.497792,95.0
2023-08-09 17:48:13.505483,117.0
2023-08-09 17:48:13.513173,117.0
2023-08-09 17:48:13.520864,121.0
2023-08-09 17:48:13.528554,114.0
2023-08-09 17:48:13.536245,100.0
2023-08-09 17:48:13.543935,83.0
2023-08-09 17:48:13.551626,28.0
2023-08-09 17:48:13.559317,-45.0
2023-08-09 17:48:13.567007,-93.0
2023-08-09 17:48:13.574698,-133.0
2023-08-09 17:48:13.582388,-181.0
2023-08-09 17:48:13.590079,-217.0
2023-08-09 17:48:13.597769,-236.0
2023-08-09 17:48:13.605460,-238.0
2023-08-09 17:48:13.613150,-238.0
2023-08-09 17:48:13.620841,-248.0
2023-08-09 17:48:13.628531,-250.0
2023-08-09 17:48:13.636222,-234.0
2023-08-09 17:48:13.643913,-226.0
2023-08-09 17:48:13.651603,-224.0
2023-08-09 17:48:13.659294,-210.0
2023-08-09 17:48:13.666984,-217.0
2023-08-09 17:48:13.674675,-229.0
2023-08-09 17:48:13.682365,-214.0
2023-08-09 17:48:13.690056,-191.0
2023-08-09 17:48:13.697746,-186.0
2023-08-09 17:48:13.705437,-188.0
2023-08-09 17:48:13.713127,-183.0
2023-08-09 17:48:13.720818,-179.0
2023-08-09 17:48:13.728508,-179.0
2023-08-09 17:48:13.736199,-174.0
2023-08-09 17:48:13.743890,-167.0
2023-08-09 17:48:13.751580,-169.0
2023-08-09 17:48:13.759271,-164.0
2023-08-09 17:48:13.766961,-155.0
2023-08-09 17:48:13.774652,-160.0
2023-08-09 17:48:13.782342,-164.0
2023-08-09 17:48:13.790033,-155.0
2023-08-09 17:48:13.797723,-148.0
2023-08-09 17:48:13.805414,-152.0
2023-08-09 17:48:13.813104,-152.0
2023-08-09 17:48:13.820795,-148.0
2023-08-09 17:48:13.828486,-143.0
2023-08-09 17:48:13.836176,-148.0
2023-08-09 17:48:13.843867,-148.0
2023-08-09 17:48:13.851557,-143.0
2023-08-09 17:48:13.859248,-143.0
2023-08-09 17:48:13.866938,-138.0
2023-08-09 17:48:13.874629,-128.0
2023-08-09 17:48:13.882319,-128.0
2023-08-09 17:48:13.890010,-126.0
2023-08-09 17:48:13.897700,-121.0
2023-08-09 17:48:13.905391,-126.0
2023-08-09 17:48:13.913082,-131.0
2023-08-09 17:48:13.920772,-121.0
2023-08-09 17:48:13.928463,-119.0
2023-08-09 17:48:13.936153,-126.0
2023-08-09 17:48:13.943844,-126.0
2023-08-09 17:48:13.951534,-133.0
2023-08-09 17:48:13.959225,-133.0
2023-08-09 17:48:13.966915,-107.0
2023-08-09 17:48:13.974606,-100.0
2023-08-09 17:48:13.982296,-117.0
2023-08-09 17:48:13.989987,-114.0
2023-08-09 17:48:13.997677,-97.0
2023-08-09 17:48:14.005368,-102.0
2023-08-09 17:48:14.013059,-112.0
2023-08-09 17:48:14.020749,-97.0
2023-08-09 17:48:14.028440,-76.0
2023-08-09 17:48:14.036130,-64.0
2023-08-09 17:48:14.043821,-57.0
2023-08-09 17:48:14.051511,-59.0
2023-08-09 17:48:14.059202,-74.0
2023-08-09 17:48:14.066892,-85.0
2023-08-09 17:48:14.074583,-95.0
2023-08-09 17:48:14.082273,-107.0
2023-08-09 17:48:14.089964,-107.0
2023-08-09 17:48:14.097655,-97.0
2023-08-09 17:48:14.105345,-100.0
2023-08-09 17:48:14.113036,-105.0
2023-08-09 17:48:14.120726,-97.0
2023-08-09 17:48:14.128417,-102.0
2023-08-09 17:48:14.136107,-112.0
2023-08-09 17:48:14.143798,0.0
2023-08-09 17:48:14.151488,374.0
2023-08-09 17:48:14.159179,921.0
2023-08-09 17:48:14.166869,1275.0
2023-08-09 17:48:14.174560,1101.0
2023-08-09 17:48:14.182251,508.0
2023-08-09 17:48:14.189941,-14.0
2023-08-09 17:48:14.197632,-186.0
2023-08-09 17:48:14.205322,-157.0
2023-08-09 17:48:14.213013,-183.0
2023-08-09 17:48:14.220703,-236.0
2023-08-09 17:48:14.228394,-224.0
2023-08-09 17:48:14.236084,-210.0
2023-08-09 17:48:14.243775,-217.0
2023-08-09 17:48:14.251465,-212.0
2023-08-09 17:48:14.259156,-188.0
2023-08-09 17:48:14.266846,-167.0
2023-08-09 17:48:14.274537,-155.0
2023-08-09 17:48:14.282228,-140.0
2023-08-09 17:48:14.289918,-126.0
2023-08-09 17:48:14.297609,-107.0
2023-08-09 17:48:14.305299,-88.0
2023-08-09 17:48:14.312990,-71.0
2023-08-09 17:48:14.320680,-52.0
2023-08-09 17:48:14.328371,-28.0
2023-08-09 17:48:14.336061,-4.0
2023-08-09 17:48:14.343752,19.0
2023-08-09 17:48:14.351442,50.0
2023-08-09 17:48:14.359133,76.0
2023-08-09 17:48:14.366824,100.0
2023-08-09 17:48:14.374514,128.0
2023-08-09 17:48:14.382205,150.0
2023-08-09 17:48:14.389895,157.0
2023-08-09 17:48:14.397586,155.0
2023-08-09 17:48:14.405276,148.0
2023-08-09 17:48:14.412967,119.0
2023-08-09 17:48:14.420657,81.0
2023-08-09 17:48:14.428348,31.0
2023-08-09 17:48:14.436038,-31.0
2023-08-09 17:48:14.443729,-90.0
2023-08-09 17:48:14.451420,-143.0
2023-08-09 17:48:14.459110,-183.0
2023-08-09 17:48:14.466801,-210.0
2023-08-09 17:48:14.474491,-226.0
2023-08-09 17:48:14.482182,-234.0
2023-08-09 17:48:14.489872,-238.0
2023-08-09 17:48:14.497563,-238.0
2023-08-09 17:48:14.505253,-229.0
2023-08-09 17:48:14.512944,-219.0
2023-08-09 17:48:14.520634,-212.0
2023-08-09 17:48:14.528325,-205.0
2023-08-09 17:48:14.536016,-195.0
2023-08-09 17:48:14.543706,-191.0
2023-08-09 17:48:14.551397,-191.0
2023-08-09 17:48:14.559087,-188.0
2023-08-09 17:48:14.566778,-181.0
2023-08-09 17:48:14.574468,-174.0
2023-08-09 17:48:14.582159,-167.0
2023-08-09 17:48:14.589849,-160.0
2023-08-09 17:48:14.597540,-157.0
2023-08-09 17:48:14.605230,-155.0
2023-08-09 17:48:14.612921,-152.0
2023-08-09 17:48:14.620611,-150.0
2023-08-09 17:48:14.628302,-148.0
2023-08-09 17:48:14.635993,-145.0
2023-08-09 17:48:14.643683,-140.0
2023-08-09 17:48:14.651374,-143.0
2023-08-09 17:48:14.659064,-143.0
2023-08-09 17:48:14.666755,-140.0
2023-08-09 17:48:14.674445,-138.0
2023-08-09 17:48:14.682136,-133.0
2023-08-09 17:48:14.689826,-128.0
2023-08-09 17:48:14.697517,-128.0
2023-08-09 17:48:14.705207,-131.0
2023-08-09 17:48:14.712898,-126.0
2023-08-09 17:48:14.720589,-124.0
2023-08-09 17:48:14.728279,-121.0
2023-08-09 17:48:14.735970,-119.0
2023-08-09 17:48:14.743660,-114.0
2023-08-09 17:48:14.751351,-112.0
2023-08-09 17:48:14.759041,-107.0
2023-08-09 17:48:14.766732,-105.0
2023-08-09 17:48:14.774422,-107.0
2023-08-09 17:48:14.782113,-109.0
2023-08-09 17:48:14.789803,-117.0
2023-08-09 17:48:14.797494,-117.0
2023-08-09 17:48:14.805185,-112.0
2023-08-09 17:48:14.812875,-109.0
2023-08-09 17:48:14.820566,-109.0
2023-08-09 17:48:14.828256,-102.0
2023-08-09 17:48:14.835947,-102.0
2023-08-09 17:48:14.843637,-105.0
2023-08-09 17:48:14.851328,-100.0
2023-08-09 17:48:14.859018,-95.0
2023-08-09 17:48:14.866709,-93.0
2023-08-09 17:48:14.874399,-90.0
2023-08-09 17:48:14.882090,-88.0
2023-08-09 17:48:14.889780,-85.0
2023-08-09 17:48:14.897471,-85.0
2023-08-09 17:48:14.905162,-83.0
2023-08-09 17:48:14.912852,-71.0
2023-08-09 17:48:14.920543,-54.0
2023-08-09 17:48:14.928233,-45.0
2023-08-09 17:48:14.935924,-38.0
2023-08-09 17:48:14.943614,-38.0
2023-08-09 17:48:14.951305,-50.0
2023-08-09 17:48:14.958995,-69.0
2023-08-09 17:48:14.966686,-83.0
2023-08-09 17:48:14.974376,-88.0
2023-08-09 17:48:14.982067,-85.0
2023-08-09 17:48:14.989758,-81.0
2023-08-09 17:48:14.997448,-81.0
2023-08-09 17:48:15.005139,-81.0
2023-08-09 17:48:15.012829,-78.0
2023-08-09 17:48:15.020520,-81.0
2023-08-09 17:48:15.028210,-90.0
2023-08-09 17:48:15.035901,-7.0
2023-08-09 17:48:15.043591,308.0
2023-08-09 17:48:15.051282,804.0
2023-08-09 17:48:15.058972,1194.0
2023-08-09 17:48:15.066663,1148.0
2023-08-09 17:48:15.074354,649.0
2023-08-09 17:48:15.082044,78.0
2023-08-09 17:48:15.089735,-176.0
2023-08-09 17:48:15.097425,-160.0
2023-08-09 17:48:15.105116,-162.0
2023-08-09 17:48:15.112806,-222.0
2023-08-09 17:48:15.120497,-219.0
2023-08-09 17:48:15.128187,-195.0
2023-08-09 17:48:15.135878,-195.0
2023-08-09 17:48:15.143568,-183.0
2023-08-09 17:48:15.151259,-167.0
2023-08-09 17:48:15.158949,-160.0
2023-08-09 17:48:15.166640,-148.0
2023-08-09 17:48:15.174331,-128.0
2023-08-09 17:48:15.182021,-114.0
2023-08-09 17:48:15.189712,-102.0
2023-08-09 17:48:15.197402,-88.0
2023-08-09 17:48:15.205093,-71.0
2023-08-09 17:48:15.212783,-50.0
2023-08-09 17:48:15.220474,-28.0
2023-08-09 17:48:15.228164,-4.0
2023-08-09 17:48:15.235855,19.0
2023-08-09 17:48:15.243545,40.0
2023-08-09 17:48:15.251236,62.0
2023-08-09 17:48:15.258927,85.0
2023-08-09 17:48:15.266617,109.0
2023-08-09 17:48:15.274308,126.0
2023-08-09 17:48:15.281998,138.0
2023-08-09 17:48:15.289689,140.0
2023-08-09 17:48:15.297379,128.0
2023-08-09 17:48:15.305070,112.0
2023-08-09 17:48:15.312760,85.0
2023-08-09 17:48:15.320451,42.0
2023-08-09 17:48:15.328141,-16.0
2023-08-09 17:48:15.335832,-78.0
2023-08-09 17:48:15.343523,-128.0
2023-08-09 17:48:15.351213,-167.0
2023-08-09 17:48:15.358904,-195.0
2023-08-09 17:48:15.366594,-212.0
2023-08-09 17:48:15.374285,-224.0
2023-08-09 17:48:15.381975,-231.0
2023-08-09 17:48:15.389666,-229.0
2023-08-09 17:48:15.397356,-224.0
2023-08-09 17:48:15.405047,-214.0
2023-08-09 17:48:15.412737,-207.0
2023-08-09 17:48:15.420428,-200.0
2023-08-09 17:48:15.428118,-193.0
2023-08-09 17:48:15.435809,-188.0
2023-08-09 17:48:15.443500,-186.0
2023-08-09 17:48:15.451190,-179.0
2023-08-09 17:48:15.458881,-174.0
2023-08-09 17:48:15.466571,-171.0
2023-08-09 17:48:15.474262,-164.0
2023-08-09 17:48:15.481952,-157.0
2023-08-09 17:48:15.489643,-155.0
2023-08-09 17:48:15.497333,-152.0
2023-08-09 17:48:15.505024,-148.0
2023-08-09 17:48:15.512714,-145.0
2023-08-09 17:48:15.520405,-143.0
2023-08-09 17:48:15.528096,-143.0
2023-08-09 17:48:15.535786,-140.0
2023-08-09 17:48:15.543477,-133.0
2023-08-09 17:48:15.551167,-131.0
2023-08-09 17:48:15.558858,-136.0
2023-08-09 17:48:15.566548,-138.0
2023-08-09 17:48:15.574239,-136.0
2023-08-09 17:48:15.581929,-131.0
2023-08-09 17:48:15.589620,-128.0
2023-08-09 17:48:15.597310,-124.0
2023-08-09 17:48:15.605001,-121.0
2023-08-09 17:48:15.612692,-119.0
2023-08-09 17:48:15.620382,-117.0
2023-08-09 17:48:15.628073,-114.0
2023-08-09 17:48:15.635763,-109.0
2023-08-09 17:48:15.643454,-107.0
2023-08-09 17:48:15.651144,-105.0
2023-08-09 17:48:15.658835,-102.0
2023-08-09 17:48:15.666525,-100.0
2023-08-09 17:48:15.674216,-95.0
2023-08-09 17:48:15.681906,-95.0
2023-08-09 17:48:15.689597,-97.0
2023-08-09 17:48:15.697288,-97.0
2023-08-09 17:48:15.704978,-95.0
2023-08-09 17:48:15.712669,-95.0
2023-08-09 17:48:15.720359,-93.0
2023-08-09 17:48:15.728050,-88.0
2023-08-09 17:48:15.735740,-88.0
2023-08-09 17:48:15.743431,-88.0
2023-08-09 17:48:15.751121,-83.0
2023-08-09 17:48:15.758812,-81.0
2023-08-09 17:48:15.766502,-83.0
2023-08-09 17:48:15.774193,-78.0
2023-08-09 17:48:15.781883,-76.0
2023-08-09 17:48:15.789574,-74.0
2023-08-09 17:48:15.797265,-74.0
2023-08-09 17:48:15.804955,-74.0
2023-08-09 17:48:15.812646,-71.0
2023-08-09 17:48:15.820336,-71.0
2023-08-09 17:48:15.828027,-69.0
2023-08-09 17:48:15.835717,-57.0
2023-08-09 17:48:15.843408,-40.0
2023-08-09 17:48:15.851098,-31.0
2023-08-09 17:48:15.858789,-26.0
2023-08-09 17:48:15.866479,-33.0
2023-08-09 17:48:15.874170,-54.0
2023-08-09 17:48:15.881861,-71.0
2023-08-09 17:48:15.889551,-78.0
2023-08-09 17:48:15.897242,-83.0
2023-08-09 17:48:15.904932,-83.0
2023-08-09 17:48:15.912623,-88.0
2023-08-09 17:48:15.920313,-93.0
2023-08-09 17:48:15.928004,-90.0
2023-08-09 17:48:15.935694,-90.0
2023-08-09 17:48:15.943385,-95.0
2023-08-09 17:48:15.951075,-100.0
2023-08-09 17:48:15.958766,2.0
2023-08-09 17:48:15.966457,341.0
2023-08-09 17:48:15.974147,833.0
2023-08-09 17:48:15.981838,1175.0
2023-08-09 17:48:15.989528,1065.0
2023-08-09 17:48:15.997219,544.0
2023-08-09 17:48:16.004909,21.0
2023-08-09 17:48:16.012600,-183.0
2023-08-09 17:48:16.020290,-162.0
2023-08-09 17:48:16.027981,-171.0
2023-08-09 17:48:16.035671,-226.0
2023-08-09 17:48:16.043362,-222.0
2023-08-09 17:48:16.051052,-203.0
2023-08-09 17:48:16.058743,-205.0
2023-08-09 17:48:16.066434,-200.0
2023-08-09 17:48:16.074124,-181.0
2023-08-09 17:48:16.081815,-169.0
2023-08-09 17:48:16.089505,-160.0
2023-08-09 17:48:16.097196,-145.0
2023-08-09 17:48:16.104886,-131.0
2023-08-09 17:48:16.112577,-117.0
2023-08-09 17:48:16.120267,-102.0
2023-08-09 17:48:16.127958,-83.0
2023-08-09 17:48:16.135648,-66.0
2023-08-09 17:48:16.143339,-45.0
2023-08-09 17:48:16.151030,-23.0
2023-08-09 17:48:16.158720,2.0
2023-08-09 17:48:16.166411,26.0
2023-08-09 17:48:16.174101,42.0
2023-08-09 17:48:16.181792,64.0
2023-08-09 17:48:16.189482,90.0
2023-08-09 17:48:16.197173,112.0
2023-08-09 17:48:16.204863,121.0
2023-08-09 17:48:16.212554,124.0
2023-08-09 17:48:16.220244,117.0
2023-08-09 17:48:16.227935,100.0
2023-08-09 17:48:16.235626,71.0
2023-08-09 17:48:16.243316,33.0
2023-08-09 17:48:16.251007,-11.0
2023-08-09 17:48:16.258697,-62.0
2023-08-09 17:48:16.266388,-112.0
2023-08-09 17:48:16.274078,-152.0
2023-08-09 17:48:16.281769,-179.0
2023-08-09 17:48:16.289459,-198.0
2023-08-09 17:48:16.297150,-207.0
2023-08-09 17:48:16.304840,-212.0
2023-08-09 17:48:16.312531,-212.0
2023-08-09 17:48:16.320221,-207.0
2023-08-09 17:48:16.327912,-203.0
2023-08-09 17:48:16.335603,-195.0
2023-08-09 17:48:16.343293,-188.0
2023-08-09 17:48:16.350984,-181.0
2023-08-09 17:48:16.358674,-176.0
2023-08-09 17:48:16.366365,-169.0
2023-08-09 17:48:16.374055,-162.0
2023-08-09 17:48:16.381746,-160.0
2023-08-09 17:48:16.389436,-155.0
2023-08-09 17:48:16.397127,-152.0
2023-08-09 17:48:16.404817,-155.0
2023-08-09 17:48:16.412508,-160.0
2023-08-09 17:48:16.420199,-160.0
2023-08-09 17:48:16.427889,-160.0
2023-08-09 17:48:16.435580,-155.0
2023-08-09 17:48:16.443270,-152.0
2023-08-09 17:48:16.450961,-155.0
2023-08-09 17:48:16.458651,-152.0
2023-08-09 17:48:16.466342,-148.0
2023-08-09 17:48:16.474032,-143.0
2023-08-09 17:48:16.481723,-140.0
2023-08-09 17:48:16.489413,-138.0
2023-08-09 17:48:16.497104,-136.0
2023-08-09 17:48:16.504795,-136.0
2023-08-09 17:48:16.512485,-131.0
2023-08-09 17:48:16.520176,-126.0
2023-08-09 17:48:16.527866,-124.0
2023-08-09 17:48:16.535557,-124.0
2023-08-09 17:48:16.543247,-121.0
2023-08-09 17:48:16.550938,-119.0
2023-08-09 17:48:16.558628,-114.0
2023-08-09 17:48:16.566319,-112.0
2023-08-09 17:48:16.574009,-121.0
2023-08-09 17:48:16.581700,-121.0
2023-08-09 17:48:16.589391,-117.0
2023-08-09 17:48:16.597081,-117.0
2023-08-09 17:48:16.604772,-117.0
2023-08-09 17:48:16.612462,-109.0
2023-08-09 17:48:16.620153,-105.0
2023-08-09 17:48:16.627843,-107.0
2023-08-09 17:48:16.635534,-109.0
2023-08-09 17:48:16.643224,-109.0
2023-08-09 17:48:16.650915,-105.0
2023-08-09 17:48:16.658605,-102.0
2023-08-09 17:48:16.666296,-100.0
2023-08-09 17:48:16.673986,-97.0
2023-08-09 17:48:16.681677,-95.0
2023-08-09 17:48:16.689368,-97.0
2023-08-09 17:48:16.697058,-102.0
2023-08-09 17:48:16.704749,-97.0
2023-08-09 17:48:16.712439,-83.0
2023-08-09 17:48:16.720130,-85.0
2023-08-09 17:48:16.727820,-102.0
2023-08-09 17:48:16.735511,-97.0
2023-08-09 17:48:16.743201,-81.0
2023-08-09 17:48:16.750892,-78.0
2023-08-09 17:48:16.758582,-76.0
2023-08-09 17:48:16.766273,-64.0
2023-08-09 17:48:16.773964,-52.0
2023-08-09 17:48:16.781654,-45.0
2023-08-09 17:48:16.789345,-40.0
2023-08-09 17:48:16.797035,-50.0
2023-08-09 17:48:16.804726,-59.0
2023-08-09 17:48:16.812416,-74.0
2023-08-09 17:48:16.820107,-88.0
2023-08-09 17:48:16.827797,-83.0
2023-08-09 17:48:16.835488,-66.0
2023-08-09 17:48:16.843178,-69.0
2023-08-09 17:48:16.850869,-85.0
2023-08-09 17:48:16.858560,-85.0
2023-08-09 17:48:16.866250,-71.0
2023-08-09 17:48:16.873941,-76.0
2023-08-09 17:48:16.881631,-52.0
2023-08-09 17:48:16.889322,157.0
2023-08-09 17:48:16.897012,623.0
2023-08-09 17:48:16.904703,1124.0
2023-08-09 17:48:16.912393,1256.0
2023-08-09 17:48:16.920084,843.0
2023-08-09 17:48:16.927774,214.0
2023-08-09 17:48:16.935465,-140.0
2023-08-09 17:48:16.943155,-164.0
2023-08-09 17:48:16.950846,-150.0
2023-08-09 17:48:16.958537,-203.0
2023-08-09 17:48:16.966227,-222.0
2023-08-09 17:48:16.973918,-200.0
2023-08-09 17:48:16.981608,-198.0
2023-08-09 17:48:16.989299,-205.0
2023-08-09 17:48:16.996989,-198.0
2023-08-09 17:48:17.004680,-171.0
2023-08-09 17:48:17.012370,-152.0
2023-08-09 17:48:17.020061,-152.0
2023-08-09 17:48:17.027751,-138.0
2023-08-09 17:48:17.035442,-112.0
2023-08-09 17:48:17.043133,-112.0
2023-08-09 17:48:17.050823,-109.0
2023-08-09 17:48:17.058514,-83.0
2023-08-09 17:48:17.066204,-54.0
2023-08-09 17:48:17.073895,-38.0
2023-08-09 17:48:17.081585,-26.0
2023-08-09 17:48:17.089276,0.0
2023-08-09 17:48:17.096966,26.0
2023-08-09 17:48:17.104657,50.0
2023-08-09 17:48:17.112347,85.0
2023-08-09 17:48:17.120038,109.0
2023-08-09 17:48:17.127729,119.0
2023-08-09 17:48:17.135419,145.0
2023-08-09 17:48:17.143110,148.0
2023-08-09 17:48:17.150800,121.0
2023-08-09 17:48:17.158491,97.0
2023-08-09 17:48:17.166181,74.0
2023-08-09 17:48:17.173872,23.0
2023-08-09 17:48:17.181562,-42.0
2023-08-09 17:48:17.189253,-97.0
2023-08-09 17:48:17.196943,-143.0
2023-08-09 17:48:17.204634,-183.0
2023-08-09 17:48:17.212324,-210.0
2023-08-09 17:48:17.220015,-222.0
2023-08-09 17:48:17.227706,-236.0
2023-08-09 17:48:17.235396,-243.0
2023-08-09 17:48:17.243087,-234.0
2023-08-09 17:48:17.250777,-222.0
2023-08-09 17:48:17.258468,-224.0
2023-08-09 17:48:17.266158,-226.0
2023-08-09 17:48:17.273849,-210.0
2023-08-09 17:48:17.281539,-200.0
2023-08-09 17:48:17.289230,-200.0
2023-08-09 17:48:17.296920,-195.0
2023-08-09 17:48:17.304611,-198.0
2023-08-09 17:48:17.312302,-183.0
2023-08-09 17:48:17.319992,-157.0
2023-08-09 17:48:17.327683,-160.0
2023-08-09 17:48:17.335373,-174.0
2023-08-09 17:48:17.343064,-164.0
2023-08-09 17:48:17.350754,-155.0
2023-08-09 17:48:17.358445,-152.0
2023-08-09 17:48:17.366135,-150.0
2023-08-09 17:48:17.373826,-164.0
2023-08-09 17:48:17.381516,-171.0
2023-08-09 17:48:17.389207,-152.0
2023-08-09 17:48:17.396898,-148.0
2023-08-09 17:48:17.404588,-150.0
2023-08-09 17:48:17.412279,-138.0
2023-08-09 17:48:17.419969,-133.0
2023-08-09 17:48:17.427660,-140.0
2023-08-09 17:48:17.435350,-155.0
2023-08-09 17:48:17.443041,-155.0
2023-08-09 17:48:17.450731,-131.0
2023-08-09 17:48:17.458422,-121.0
2023-08-09 17:48:17.466112,-131.0
2023-08-09 17:48:17.473803,-128.0
2023-08-09 17:48:17.481493,-136.0
2023-08-09 17:48:17.489184,-136.0
2023-08-09 17:48:17.496875,-102.0
2023-08-09 17:48:17.504565,-85.0
2023-08-09 17:48:17.512256,-109.0
2023-08-09 17:48:17.519946,-124.0
2023-08-09 17:48:17.527637,-107.0
2023-08-09 17:48:17.535327,-105.0
2023-08-09 17:48:17.543018,-124.0
2023-08-09 17:48:17.550708,-112.0
2023-08-09 17:48:17.558399,-78.0
2023-08-09 17:48:17.566089,-69.0
2023-08-09 17:48:17.573780,-85.0
2023-08-09 17:48:17.581471,-90.0
2023-08-09 17:48:17.589161,-81.0
2023-08-09 17:48:17.596852,-71.0
2023-08-09 17:48:17.604542,-69.0
2023-08-09 17:48:17.612233,-64.0
2023-08-09 17:48:17.619923,-50.0
2023-08-09 17:48:17.627614,-50.0
2023-08-09 17:48:17.635304,-62.0
2023-08-09 17:48:17.642995,-62.0
2023-08-09 17:48:17.650685,-59.0
2023-08-09 17:48:17.658376,-71.0
2023-08-09 17:48:17.666067,-90.0
2023-08-09 17:48:17.673757,-88.0
2023-08-09 17:48:17.681448,-85.0
2023-08-09 17:48:17.689138,-88.0
2023-08-09 17:48:17.696829,-71.0
2023-08-09 17:48:17.704519,-69.0
2023-08-09 17:48:17.712210,-95.0
2023-08-09 17:48:17.719900,-50.0
2023-08-09 17:48:17.727591,234.0
2023-08-09 17:48:17.735281,754.0
2023-08-09 17:48:17.742972,1210.0
2023-08-09 17:48:17.750663,1206.0
2023-08-09 17:48:17.758353,714.0
2023-08-09 17:48:17.766044,136.0
2023-08-09 17:48:17.773734,-138.0
2023-08-09 17:48:17.781425,-133.0
2023-08-09 17:48:17.789115,-136.0
2023-08-09 17:48:17.796806,-193.0
2023-08-09 17:48:17.804496,-183.0
2023-08-09 17:48:17.812187,-157.0
2023-08-09 17:48:17.819877,-171.0
2023-08-09 17:48:17.827568,-157.0
2023-08-09 17:48:17.835258,-124.0
2023-08-09 17:48:17.842949,-124.0
2023-08-09 17:48:17.850640,-119.0
2023-08-09 17:48:17.858330,-105.0
2023-08-09 17:48:17.866021,-90.0
2023-08-09 17:48:17.873711,-76.0
2023-08-09 17:48:17.881402,-57.0
2023-08-09 17:48:17.889092,-38.0
2023-08-09 17:48:17.896783,-21.0
2023-08-09 17:48:17.904473,-4.0
2023-08-09 17:48:17.912164,11.0
2023-08-09 17:48:17.919854,33.0
2023-08-09 17:48:17.927545,62.0
2023-08-09 17:48:17.935236,90.0
2023-08-09 17:48:17.942926,114.0
2023-08-09 17:48:17.950617,138.0
2023-08-09 17:48:17.958307,162.0
2023-08-09 17:48:17.965998,169.0
2023-08-09 17:48:17.973688,169.0
2023-08-09 17:48:17.981379,167.0
2023-08-09 17:48:17.989069,152.0
2023-08-09 17:48:17.996760,114.0
2023-08-09 17:48:18.004450,76.0
2023-08-09 17:48:18.012141,42.0
2023-08-09 17:48:18.019832,-2.0
2023-08-09 17:48:18.027522,-69.0
2023-08-09 17:48:18.035213,-124.0
2023-08-09 17:48:18.042903,-143.0
2023-08-09 17:48:18.050594,-152.0
2023-08-09 17:48:18.058284,-171.0
2023-08-09 17:48:18.065975,-181.0
2023-08-09 17:48:18.073665,-174.0
2023-08-09 17:48:18.081356,-164.0
2023-08-09 17:48:18.089046,-169.0
2023-08-09 17:48:18.096737,-169.0
2023-08-09 17:48:18.104427,-157.0
2023-08-09 17:48:18.112118,-150.0
2023-08-09 17:48:18.119809,-143.0
2023-08-09 17:48:18.127499,-133.0
2023-08-09 17:48:18.135190,-133.0
2023-08-09 17:48:18.142880,-133.0
2023-08-09 17:48:18.150571,-119.0
2023-08-09 17:48:18.158261,-95.0
2023-08-09 17:48:18.165952,-95.0
2023-08-09 17:48:18.173642,-121.0
2023-08-09 17:48:18.181333,-119.0
2023-08-09 17:48:18.189023,-100.0
2023-08-09 17:48:18.196714,-112.0
2023-08-09 17:48:18.204405,-126.0
2023-08-09 17:48:18.212095,-109.0
2023-08-09 17:48:18.219786,-95.0
2023-08-09 17:48:18.227476,-105.0
2023-08-09 17:48:18.235167,-105.0
2023-08-09 17:48:18.242857,-90.0
2023-08-09 17:48:18.250548,-81.0
2023-08-09 17:48:18.258238,-93.0
2023-08-09 17:48:18.265929,-97.0
2023-08-09 17:48:18.273619,-85.0
2023-08-09 17:48:18.281310,-71.0
2023-08-09 17:48:18.289001,-76.0
2023-08-09 17:48:18.296691,-95.0
2023-08-09 17:48:18.304382,-93.0
2023-08-09 17:48:18.312072,-78.0
2023-08-09 17:48:18.319763,-81.0
2023-08-09 17:48:18.327453,-95.0
2023-08-09 17:48:18.335144,-97.0
2023-08-09 17:48:18.342834,-78.0
2023-08-09 17:48:18.350525,-59.0
2023-08-09 17:48:18.358215,-64.0
2023-08-09 17:48:18.365906,-76.0
2023-08-09 17:48:18.373596,-69.0
2023-08-09 17:48:18.381287,-62.0
2023-08-09 17:48:18.388978,-69.0
2023-08-09 17:48:18.396668,-71.0
2023-08-09 17:48:18.404359,-54.0
2023-08-09 17:48:18.412049,-52.0
2023-08-09 17:48:18.419740,-45.0
2023-08-09 17:48:18.427430,-16.0
2023-08-09 17:48:18.435121,-11.0
2023-08-09 17:48:18.442811,-45.0
2023-08-09 17:48:18.450502,-69.0
2023-08-09 17:48:18.458192,-66.0
2023-08-09 17:48:18.465883,-69.0
2023-08-09 17:48:18.473574,-83.0
2023-08-09 17:48:18.481264,-97.0
2023-08-09 17:48:18.488955,-83.0
2023-08-09 17:48:18.496645,-66.0
2023-08-09 17:48:18.504336,-64.0
2023-08-09 17:48:18.512026,-62.0
2023-08-09 17:48:18.519717,-76.0
2023-08-09 17:48:18.527407,-40.0
2023-08-09 17:48:18.535098,217.0
2023-08-09 17:48:18.542788,721.0
2023-08-09 17:48:18.550479,1148.0
2023-08-09 17:48:18.558170,1108.0
2023-08-09 17:48:18.565860,623.0
2023-08-09 17:48:18.573551,97.0
2023-08-09 17:48:18.581241,-138.0
2023-08-09 17:48:18.588932,-133.0
2023-08-09 17:48:18.596622,-143.0
2023-08-09 17:48:18.604313,-200.0
2023-08-09 17:48:18.612003,-207.0
2023-08-09 17:48:18.619694,-186.0
2023-08-09 17:48:18.627384,-181.0
2023-08-09 17:48:18.635075,-176.0
2023-08-09 17:48:18.642765,-162.0
2023-08-09 17:48:18.650456,-140.0
2023-08-09 17:48:18.658147,-128.0
2023-08-09 17:48:18.665837,-131.0
2023-08-09 17:48:18.673528,-119.0
2023-08-09 17:48:18.681218,-97.0
2023-08-09 17:48:18.688909,-83.0
2023-08-09 17:48:18.696599,-76.0
2023-08-09 17:48:18.704290,-64.0
2023-08-09 17:48:18.711980,-47.0
2023-08-09 17:48:18.719671,-23.0
2023-08-09 17:48:18.727361,0.0
2023-08-09 17:48:18.735052,26.0
2023-08-09 17:48:18.742743,42.0
2023-08-09 17:48:18.750433,52.0
2023-08-09 17:48:18.758124,66.0
2023-08-09 17:48:18.765814,88.0
2023-08-09 17:48:18.773505,107.0
2023-08-09 17:48:18.781195,114.0
2023-08-09 17:48:18.788886,107.0
2023-08-09 17:48:18.796576,90.0
2023-08-09 17:48:18.804267,59.0
2023-08-09 17:48:18.811957,19.0
2023-08-09 17:48:18.819648,-33.0
2023-08-09 17:48:18.827339,-88.0
2023-08-09 17:48:18.835029,-131.0
2023-08-09 17:48:18.842720,-171.0
2023-08-09 17:48:18.850410,-200.0
2023-08-09 17:48:18.858101,-214.0
2023-08-09 17:48:18.865791,-222.0
2023-08-09 17:48:18.873482,-229.0
2023-08-09 17:48:18.881172,-226.0
2023-08-09 17:48:18.888863,-222.0
2023-08-09 17:48:18.896553,-217.0
2023-08-09 17:48:18.904244,-207.0
2023-08-09 17:48:18.911935,-198.0
2023-08-09 17:48:18.919625,-193.0
2023-08-09 17:48:18.927316,-191.0
2023-08-09 17:48:18.935006,-188.0
2023-08-09 17:48:18.942697,-181.0
2023-08-09 17:48:18.950387,-176.0
2023-08-09 17:48:18.958078,-171.0
2023-08-09 17:48:18.965768,-160.0
2023-08-09 17:48:18.973459,-155.0
2023-08-09 17:48:18.981149,-160.0
2023-08-09 17:48:18.988840,-152.0
2023-08-09 17:48:18.996530,-143.0
2023-08-09 17:48:19.004221,-145.0
2023-08-09 17:48:19.011912,-150.0
2023-08-09 17:48:19.019602,-148.0
2023-08-09 17:48:19.027293,-145.0
2023-08-09 17:48:19.034983,-145.0
2023-08-09 17:48:19.042674,-143.0
2023-08-09 17:48:19.050364,-140.0
2023-08-09 17:48:19.058055,-140.0
2023-08-09 17:48:19.065745,-136.0
2023-08-09 17:48:19.073436,-138.0
2023-08-09 17:48:19.081126,-140.0
2023-08-09 17:48:19.088817,-131.0
2023-08-09 17:48:19.096508,-126.0
2023-08-09 17:48:19.104198,-131.0
2023-08-09 17:48:19.111889,-133.0
2023-08-09 17:48:19.119579,-128.0
2023-08-09 17:48:19.127270,-126.0
2023-08-09 17:48:19.134960,-133.0
2023-08-09 17:48:19.142651,-131.0
2023-08-09 17:48:19.150341,-126.0
2023-08-09 17:48:19.158032,-124.0
2023-08-09 17:48:19.165722,-126.0
2023-08-09 17:48:19.173413,-126.0
2023-08-09 17:48:19.181104,-121.0
2023-08-09 17:48:19.188794,-117.0
2023-08-09 17:48:19.196485,-112.0
2023-08-09 17:48:19.204175,-114.0
2023-08-09 17:48:19.211866,-114.0
2023-08-09 17:48:19.219556,-109.0
2023-08-09 17:48:19.227247,-100.0
2023-08-09 17:48:19.234937,-83.0
2023-08-09 17:48:19.242628,-71.0
2023-08-09 17:48:19.250318,-74.0
2023-08-09 17:48:19.258009,-74.0
2023-08-09 17:48:19.265699,-81.0
2023-08-09 17:48:19.273390,-100.0
2023-08-09 17:48:19.281081,-112.0
2023-08-09 17:48:19.288771,-112.0
2023-08-09 17:48:19.296462,-112.0
2023-08-09 17:48:19.304152,-114.0
2023-08-09 17:48:19.311843,-109.0
2023-08-09 17:48:19.319533,-105.0
2023-08-09 17:48:19.327224,-97.0
2023-08-09 17:48:19.334914,-100.0
2023-08-09 17:48:19.342605,-107.0
2023-08-09 17:48:19.350295,-2.0
2023-08-09 17:48:19.357986,372.0
2023-08-09 17:48:19.365677,919.0
2023-08-09 17:48:19.373367,1265.0
2023-08-09 17:48:19.381058,1081.0
2023-08-09 17:48:19.388748,487.0
2023-08-09 17:48:19.396439,-31.0
2023-08-09 17:48:19.404129,-193.0
2023-08-09 17:48:19.411820,-162.0
2023-08-09 17:48:19.419510,-186.0
2023-08-09 17:48:19.427201,-231.0
2023-08-09 17:48:19.434891,-217.0
2023-08-09 17:48:19.442582,-203.0
2023-08-09 17:48:19.450273,-203.0
2023-08-09 17:48:19.457963,-188.0
2023-08-09 17:48:19.465654,-169.0
2023-08-09 17:48:19.473344,-157.0
2023-08-09 17:48:19.481035,-140.0
2023-08-09 17:48:19.488725,-124.0
2023-08-09 17:48:19.496416,-107.0
2023-08-09 17:48:19.504106,-93.0
2023-08-09 17:48:19.511797,-78.0
2023-08-09 17:48:19.519487,-57.0
2023-08-09 17:48:19.527178,-35.0
2023-08-09 17:48:19.534868,-16.0
2023-08-09 17:48:19.542559,4.0
2023-08-09 17:48:19.550250,35.0
2023-08-09 17:48:19.557940,64.0
2023-08-09 17:48:19.565631,85.0
2023-08-09 17:48:19.573321,107.0
2023-08-09 17:48:19.581012,131.0
2023-08-09 17:48:19.588702,150.0
2023-08-09 17:48:19.596393,160.0
2023-08-09 17:48:19.604083,157.0
2023-08-09 17:48:19.611774,143.0
2023-08-09 17:48:19.619464,121.0
2023-08-09 17:48:19.627155,83.0
2023-08-09 17:48:19.634846,28.0
2023-08-09 17:48:19.642536,-31.0
2023-08-09 17:48:19.650227,-88.0
2023-08-09 17:48:19.657917,-133.0
2023-08-09 17:48:19.665608,-174.0
2023-08-09 17:48:19.673298,-210.0
2023-08-09 17:48:19.680989,-229.0
2023-08-09 17:48:19.688679,-234.0
2023-08-09 17:48:19.696370,-241.0
2023-08-09 17:48:19.704060,-241.0
2023-08-09 17:48:19.711751,-234.0
2023-08-09 17:48:19.719442,-229.0
2023-08-09 17:48:19.727132,-224.0
2023-08-09 17:48:19.734823,-214.0
2023-08-09 17:48:19.742513,-212.0
2023-08-09 17:48:19.750204,-205.0
2023-08-09 17:48:19.757894,-198.0
2023-08-09 17:48:19.765585,-193.0
2023-08-09 17:48:19.773275,-186.0
2023-08-09 17:48:19.780966,-181.0
2023-08-09 17:48:19.788656,-183.0
2023-08-09 17:48:19.796347,-181.0
2023-08-09 17:48:19.804038,-171.0
2023-08-09 17:48:19.811728,-171.0
2023-08-09 17:48:19.819419,-174.0
2023-08-09 17:48:19.827109,-171.0
2023-08-09 17:48:19.834800,-169.0
2023-08-09 17:48:19.842490,-167.0
2023-08-09 17:48:19.850181,-160.0
2023-08-09 17:48:19.857871,-155.0
2023-08-09 17:48:19.865562,-157.0
2023-08-09 17:48:19.873252,-160.0
2023-08-09 17:48:19.880943,-152.0
2023-08-09 17:48:19.888633,-145.0
2023-08-09 17:48:19.896324,-145.0
2023-08-09 17:48:19.904015,-143.0
2023-08-09 17:48:19.911705,-136.0
2023-08-09 17:48:19.919396,-133.0
2023-08-09 17:48:19.927086,-133.0
2023-08-09 17:48:19.934777,-128.0
2023-08-09 17:48:19.942467,-124.0
2023-08-09 17:48:19.950158,-124.0
2023-08-09 17:48:19.957848,-121.0
2023-08-09 17:48:19.965539,-114.0
2023-08-09 17:48:19.973229,-112.0
2023-08-09 17:48:19.980920,-112.0
2023-08-09 17:48:19.988611,-109.0
2023-08-09 17:48:19.996301,-100.0
2023-08-09 17:48:20.003992,-90.0
2023-08-09 17:48:20.011682,-74.0
2023-08-09 17:48:20.019373,-54.0
2023-08-09 17:48:20.027063,-45.0
2023-08-09 17:48:20.034754,-50.0
2023-08-09 17:48:20.042444,-69.0
2023-08-09 17:48:20.050135,-85.0
2023-08-09 17:48:20.057825,-93.0
2023-08-09 17:48:20.065516,-95.0
2023-08-09 17:48:20.073207,-93.0
2023-08-09 17:48:20.080897,-85.0
2023-08-09 17:48:20.088588,-78.0
2023-08-09 17:48:20.096278,-81.0
2023-08-09 17:48:20.103969,-83.0
2023-08-09 17:48:20.111659,-97.0
2023-08-09 17:48:20.119350,-102.0
2023-08-09 17:48:20.127040,57.0
2023-08-09 17:48:20.134731,494.0
2023-08-09 17:48:20.142421,1034.0
2023-08-09 17:48:20.150112,1311.0
2023-08-09 17:48:20.157802,1055.0
2023-08-09 17:48:20.165493,434.0
2023-08-09 17:48:20.173184,-66.0
2023-08-09 17:48:20.180874,-195.0
2023-08-09 17:48:20.188565,-152.0
2023-08-09 17:48:20.196255,-186.0
2023-08-09 17:48:20.203946,-229.0
2023-08-09 17:48:20.211636,-207.0
2023-08-09 17:48:20.219327,-193.0
2023-08-09 17:48:20.227017,-198.0
2023-08-09 17:48:20.234708,-181.0
2023-08-09 17:48:20.242398,-160.0
2023-08-09 17:48:20.250089,-150.0
2023-08-09 17:48:20.257780,-131.0
2023-08-09 17:48:20.265470,-105.0
2023-08-09 17:48:20.273161,-95.0
2023-08-09 17:48:20.280851,-85.0
2023-08-09 17:48:20.288542,-64.0
2023-08-09 17:48:20.296232,-42.0
2023-08-09 17:48:20.303923,-21.0
2023-08-09 17:48:20.311613,2.0
2023-08-09 17:48:20.319304,26.0
2023-08-09 17:48:20.326994,47.0
2023-08-09 17:48:20.334685,74.0
2023-08-09 17:48:20.342376,100.0
2023-08-09 17:48:20.350066,128.0
2023-08-09 17:48:20.357757,150.0
2023-08-09 17:48:20.365447,160.0
2023-08-09 17:48:20.373138,155.0
2023-08-09 17:48:20.380828,150.0
2023-08-09 17:48:20.388519,138.0
2023-08-09 17:48:20.396209,112.0
2023-08-09 17:48:20.403900,69.0
2023-08-09 17:48:20.411590,14.0
2023-08-09 17:48:20.419281,-47.0
2023-08-09 17:48:20.426971,-100.0
2023-08-09 17:48:20.434662,-140.0
2023-08-09 17:48:20.442353,-176.0
2023-08-09 17:48:20.450043,-198.0
2023-08-09 17:48:20.457734,-210.0
2023-08-09 17:48:20.465424,-217.0
2023-08-09 17:48:20.473115,-217.0
2023-08-09 17:48:20.480805,-210.0
2023-08-09 17:48:20.488496,-203.0
2023-08-09 17:48:20.496186,-198.0
2023-08-09 17:48:20.503877,-188.0
2023-08-09 17:48:20.511567,-181.0
2023-08-09 17:48:20.519258,-179.0
2023-08-09 17:48:20.526949,-174.0
2023-08-09 17:48:20.534639,-164.0
2023-08-09 17:48:20.542330,-160.0
2023-08-09 17:48:20.550020,-157.0
2023-08-09 17:48:20.557711,-150.0
2023-08-09 17:48:20.565401,-148.0
2023-08-09 17:48:20.573092,-143.0
2023-08-09 17:48:20.580782,-143.0
2023-08-09 17:48:20.588473,-143.0
2023-08-09 17:48:20.596163,-140.0
2023-08-09 17:48:20.603854,-140.0
2023-08-09 17:48:20.611545,-145.0
2023-08-09 17:48:20.619235,-150.0
2023-08-09 17:48:20.626926,-145.0
2023-08-09 17:48:20.634616,-140.0
2023-08-09 17:48:20.642307,-143.0
2023-08-09 17:48:20.649997,-140.0
2023-08-09 17:48:20.657688,-136.0
2023-08-09 17:48:20.665378,-136.0
2023-08-09 17:48:20.673069,-133.0
2023-08-09 17:48:20.680759,-128.0
2023-08-09 17:48:20.688450,-126.0
2023-08-09 17:48:20.696140,-121.0
2023-08-09 17:48:20.703831,-119.0
2023-08-09 17:48:20.711522,-117.0
2023-08-09 17:48:20.719212,-112.0
2023-08-09 17:48:20.726903,-107.0
2023-08-09 17:48:20.734593,-109.0
2023-08-09 17:48:20.742284,-109.0
2023-08-09 17:48:20.749974,-105.0
2023-08-09 17:48:20.757665,-105.0
2023-08-09 17:48:20.765355,-100.0
2023-08-09 17:48:20.773046,-95.0
2023-08-09 17:48:20.780736,-95.0
2023-08-09 17:48:20.788427,-93.0
2023-08-09 17:48:20.796118,-88.0
2023-08-09 17:48:20.803808,-88.0
2023-08-09 17:48:20.811499,-83.0
2023-08-09 17:48:20.819189,-69.0
2023-08-09 17:48:20.826880,-52.0
2023-08-09 17:48:20.834570,-42.0
2023-08-09 17:48:20.842261,-35.0
2023-08-09 17:48:20.849951,-40.0
2023-08-09 17:48:20.857642,-64.0
2023-08-09 17:48:20.865332,-83.0
2023-08-09 17:48:20.873023,-85.0
2023-08-09 17:48:20.880714,-83.0
2023-08-09 17:48:20.888404,-83.0
2023-08-09 17:48:20.896095,-83.0
2023-08-09 17:48:20.903785,-81.0
2023-08-09 17:48:20.911476,-74.0
2023-08-09 17:48:20.919166,-74.0
2023-08-09 17:48:20.926857,-85.0
2023-08-09 17:48:20.934547,-74.0
2023-08-09 17:48:20.942238,93.0
2023-08-09 17:48:20.949928,508.0
2023-08-09 17:48:20.957619,1010.0
2023-08-09 17:48:20.965310,1258.0
2023-08-09 17:48:20.973000,1012.0
2023-08-09 17:48:20.980691,417.0
2023-08-09 17:48:20.988381,-62.0
2023-08-09 17:48:20.996072,-181.0
2023-08-09 17:48:21.003762,-148.0
2023-08-09 17:48:21.011453,-186.0
2023-08-09 17:48:21.019143,-226.0
2023-08-09 17:48:21.026834,-207.0
2023-08-09 17:48:21.034524,-193.0
2023-08-09 17:48:21.042215,-191.0
2023-08-09 17:48:21.049905,-176.0
2023-08-09 17:48:21.057596,-160.0
2023-08-09 17:48:21.065287,-150.0
2023-08-09 17:48:21.072977,-138.0
2023-08-09 17:48:21.080668,-117.0
2023-08-09 17:48:21.088358,-97.0
2023-08-09 17:48:21.096049,-81.0
2023-08-09 17:48:21.103739,-69.0
2023-08-09 17:48:21.111430,-57.0
2023-08-09 17:48:21.119120,-45.0
2023-08-09 17:48:21.126811,-21.0
2023-08-09 17:48:21.134501,7.0
2023-08-09 17:48:21.142192,31.0
2023-08-09 17:48:21.149883,52.0
2023-08-09 17:48:21.157573,76.0
2023-08-09 17:48:21.165264,105.0
2023-08-09 17:48:21.172954,126.0
2023-08-09 17:48:21.180645,140.0
2023-08-09 17:48:21.188335,155.0
2023-08-09 17:48:21.196026,157.0
2023-08-09 17:48:21.203716,143.0
2023-08-09 17:48:21.211407,117.0
2023-08-09 17:48:21.219097,81.0
2023-08-09 17:48:21.226788,31.0
2023-08-09 17:48:21.234479,-23.0
2023-08-09 17:48:21.242169,-74.0
2023-08-09 17:48:21.249860,-117.0
2023-08-09 17:48:21.257550,-150.0
2023-08-09 17:48:21.265241,-176.0
2023-08-09 17:48:21.272931,-191.0
2023-08-09 17:48:21.280622,-193.0
2023-08-09 17:48:21.288312,-191.0
2023-08-09 17:48:21.296003,-193.0
2023-08-09 17:48:21.303693,-188.0
2023-08-09 17:48:21.311384,-176.0
2023-08-09 17:48:21.319074,-171.0
2023-08-09 17:48:21.326765,-164.0
2023-08-09 17:48:21.334456,-160.0
2023-08-09 17:48:21.342146,-162.0
2023-08-09 17:48:21.349837,-162.0
2023-08-09 17:48:21.357527,-155.0
2023-08-09 17:48:21.365218,-150.0
2023-08-09 17:48:21.372908,-150.0
2023-08-09 17:48:21.380599,-145.0
2023-08-09 17:48:21.388289,-140.0
2023-08-09 17:48:21.395980,-138.0
2023-08-09 17:48:21.403670,-133.0
2023-08-09 17:48:21.411361,-133.0
2023-08-09 17:48:21.419052,-133.0
2023-08-09 17:48:21.426742,-138.0
2023-08-09 17:48:21.434433,-140.0
2023-08-09 17:48:21.442123,-136.0
2023-08-09 17:48:21.449814,-133.0
2023-08-09 17:48:21.457504,-136.0
2023-08-09 17:48:21.465195,-133.0
2023-08-09 17:48:21.472885,-131.0
2023-08-09 17:48:21.480576,-131.0
2023-08-09 17:48:21.488266,-133.0
2023-08-09 17:48:21.495957,-136.0
2023-08-09 17:48:21.503648,-136.0
2023-08-09 17:48:21.511338,-131.0
2023-08-09 17:48:21.519029,-126.0
2023-08-09 17:48:21.526719,-126.0
2023-08-09 17:48:21.534410,-126.0
2023-08-09 17:48:21.542100,-121.0
2023-08-09 17:48:21.549791,-117.0
2023-08-09 17:48:21.557481,-117.0
2023-08-09 17:48:21.565172,-117.0
2023-08-09 17:48:21.572862,-114.0
2023-08-09 17:48:21.580553,-107.0
2023-08-09 17:48:21.588243,-105.0
2023-08-09 17:48:21.595934,-107.0
2023-08-09 17:48:21.603625,-107.0
2023-08-09 17:48:21.611315,-105.0
2023-08-09 17:48:21.619006,-109.0
2023-08-09 17:48:21.626696,-112.0
2023-08-09 17:48:21.634387,-107.0
2023-08-09 17:48:21.642077,-102.0
2023-08-09 17:48:21.649768,-100.0
2023-08-09 17:48:21.657458,-93.0
2023-08-09 17:48:21.665149,-90.0
2023-08-09 17:48:21.672839,-93.0
2023-08-09 17:48:21.680530,-83.0
2023-08-09 17:48:21.688221,-66.0
2023-08-09 17:48:21.695911,-52.0
2023-08-09 17:48:21.703602,-45.0
2023-08-09 17:48:21.711292,-40.0
2023-08-09 17:48:21.718983,-50.0
2023-08-09 17:48:21.726673,-71.0
2023-08-09 17:48:21.734364,-88.0
2023-08-09 17:48:21.742054,-88.0
2023-08-09 17:48:21.749745,-81.0
2023-08-09 17:48:21.757435,-81.0
2023-08-09 17:48:21.765126,-83.0
2023-08-09 17:48:21.772817,-81.0
2023-08-09 17:48:21.780507,-74.0
2023-08-09 17:48:21.788198,-74.0
2023-08-09 17:48:21.795888,-81.0
2023-08-09 17:48:21.803579,-38.0
2023-08-09 17:48:21.811269,210.0
2023-08-09 17:48:21.818960,685.0
2023-08-09 17:48:21.826650,1127.0
2023-08-09 17:48:21.834341,1177.0
2023-08-09 17:48:21.842031,747.0
2023-08-09 17:48:21.849722,167.0
2023-08-09 17:48:21.857412,-143.0
2023-08-09 17:48:21.865103,-150.0
2023-08-09 17:48:21.872794,-140.0
2023-08-09 17:48:21.880484,-198.0
2023-08-09 17:48:21.888175,-207.0
2023-08-09 17:48:21.895865,-183.0
2023-08-09 17:48:21.903556,-179.0
2023-08-09 17:48:21.911246,-174.0
2023-08-09 17:48:21.918937,-152.0
2023-08-09 17:48:21.926627,-138.0
2023-08-09 17:48:21.934318,-131.0
2023-08-09 17:48:21.942008,-121.0
2023-08-09 17:48:21.949699,-105.0
2023-08-09 17:48:21.957390,-93.0
2023-08-09 17:48:21.965080,-76.0
2023-08-09 17:48:21.972771,-52.0
2023-08-09 17:48:21.980461,-33.0
2023-08-09 17:48:21.988152,-16.0
2023-08-09 17:48:21.995842,2.0
2023-08-09 17:48:22.003533,23.0
2023-08-09 17:48:22.011223,50.0
2023-08-09 17:48:22.018914,76.0
2023-08-09 17:48:22.026604,100.0
2023-08-09 17:48:22.034295,117.0
2023-08-09 17:48:22.041986,128.0
2023-08-09 17:48:22.049676,140.0
2023-08-09 17:48:22.057367,152.0
2023-08-09 17:48:22.065057,148.0
2023-08-09 17:48:22.072748,128.0
2023-08-09 17:48:22.080438,105.0
2023-08-09 17:48:22.088129,69.0
2023-08-09 17:48:22.095819,23.0
2023-08-09 17:48:22.103510,-28.0
2023-08-09 17:48:22.111200,-76.0
2023-08-09 17:48:22.118891,-117.0
2023-08-09 17:48:22.126582,-152.0
2023-08-09 17:48:22.134272,-176.0
2023-08-09 17:48:22.141963,-186.0
2023-08-09 17:48:22.149653,-188.0
2023-08-09 17:48:22.157344,-191.0
2023-08-09 17:48:22.165034,-191.0
2023-08-09 17:48:22.172725,-188.0
2023-08-09 17:48:22.180415,-179.0
2023-08-09 17:48:22.188106,-167.0
2023-08-09 17:48:22.195796,-160.0
2023-08-09 17:48:22.203487,-155.0
2023-08-09 17:48:22.211177,-150.0
2023-08-09 17:48:22.218868,-150.0
2023-08-09 17:48:22.226559,-148.0
2023-08-09 17:48:22.234249,-143.0
2023-08-09 17:48:22.241940,-140.0
2023-08-09 17:48:22.249630,-143.0
2023-08-09 17:48:22.257321,-143.0
2023-08-09 17:48:22.265011,-140.0
2023-08-09 17:48:22.272702,-138.0
2023-08-09 17:48:22.280392,-138.0
2023-08-09 17:48:22.288083,-133.0
2023-08-09 17:48:22.295773,-128.0
2023-08-09 17:48:22.303464,-131.0
2023-08-09 17:48:22.311155,-133.0
2023-08-09 17:48:22.318845,-128.0
2023-08-09 17:48:22.326536,-128.0
2023-08-09 17:48:22.334226,-133.0
2023-08-09 17:48:22.341917,-131.0
2023-08-09 17:48:22.349607,-124.0
2023-08-09 17:48:22.357298,-124.0
2023-08-09 17:48:22.364988,-124.0
2023-08-09 17:48:22.372679,-119.0
2023-08-09 17:48:22.380369,-114.0
2023-08-09 17:48:22.388060,-114.0
2023-08-09 17:48:22.395751,-117.0
2023-08-09 17:48:22.403441,-117.0
2023-08-09 17:48:22.411132,-109.0
2023-08-09 17:48:22.418822,-100.0
2023-08-09 17:48:22.426513,-102.0
2023-08-09 17:48:22.434203,-107.0
2023-08-09 17:48:22.441894,-105.0
2023-08-09 17:48:22.449584,-97.0
2023-08-09 17:48:22.457275,-93.0
2023-08-09 17:48:22.464965,-90.0
2023-08-09 17:48:22.472656,-93.0
2023-08-09 17:48:22.480346,-95.0
2023-08-09 17:48:22.488037,-90.0
2023-08-09 17:48:22.495728,-88.0
2023-08-09 17:48:22.503418,-88.0
2023-08-09 17:48:22.511109,-85.0
2023-08-09 17:48:22.518799,-83.0
2023-08-09 17:48:22.526490,-83.0
2023-08-09 17:48:22.534180,-83.0
2023-08-09 17:48:22.541871,-81.0
2023-08-09 17:48:22.549561,-83.0
2023-08-09 17:48:22.557252,-83.0
2023-08-09 17:48:22.564942,-78.0
2023-08-09 17:48:22.572633,-78.0
2023-08-09 17:48:22.580324,-78.0
2023-08-09 17:48:22.588014,-69.0
2023-08-09 17:48:22.595705,-52.0
2023-08-09 17:48:22.603395,-42.0
2023-08-09 17:48:22.611086,-35.0
2023-08-09 17:48:22.618776,-47.0
2023-08-09 17:48:22.626467,-81.0
2023-08-09 17:48:22.634157,-100.0
2023-08-09 17:48:22.641848,-100.0
2023-08-09 17:48:22.649538,-100.0
2023-08-09 17:48:22.657229,-102.0
2023-08-09 17:48:22.664920,-100.0
2023-08-09 17:48:22.672610,-100.0
2023-08-09 17:48:22.680301,-100.0
2023-08-09 17:48:22.687991,-90.0
2023-08-09 17:48:22.695682,-95.0
2023-08-09 17:48:22.703372,-64.0
2023-08-09 17:48:22.711063,174.0
2023-08-09 17:48:22.718753,673.0
2023-08-09 17:48:22.726444,1156.0
2023-08-09 17:48:22.734134,1232.0
2023-08-09 17:48:22.741825,781.0
2023-08-09 17:48:22.749515,164.0
2023-08-09 17:48:22.757206,-152.0
2023-08-09 17:48:22.764897,-160.0
2023-08-09 17:48:22.772587,-157.0
2023-08-09 17:48:22.780278,-214.0
2023-08-09 17:48:22.787968,-222.0
2023-08-09 17:48:22.795659,-203.0
2023-08-09 17:48:22.803349,-205.0
2023-08-09 17:48:22.811040,-195.0
2023-08-09 17:48:22.818730,-176.0
2023-08-09 17:48:22.826421,-169.0
2023-08-09 17:48:22.834111,-160.0
2023-08-09 17:48:22.841802,-140.0
2023-08-09 17:48:22.849493,-128.0
2023-08-09 17:48:22.857183,-117.0
2023-08-09 17:48:22.864874,-90.0
2023-08-09 17:48:22.872564,-69.0
2023-08-09 17:48:22.880255,-54.0
2023-08-09 17:48:22.887945,-35.0
2023-08-09 17:48:22.895636,-14.0
2023-08-09 17:48:22.903326,9.0
2023-08-09 17:48:22.911017,33.0
2023-08-09 17:48:22.918707,64.0
2023-08-09 17:48:22.926398,90.0
2023-08-09 17:48:22.934089,112.0
2023-08-09 17:48:22.941779,131.0
2023-08-09 17:48:22.949470,148.0
2023-08-09 17:48:22.957160,157.0
2023-08-09 17:48:22.964851,152.0
2023-08-09 17:48:22.972541,133.0
2023-08-09 17:48:22.980232,107.0
2023-08-09 17:48:22.987922,71.0
2023-08-09 17:48:22.995613,23.0
2023-08-09 17:48:23.003303,-35.0
2023-08-09 17:48:23.010994,-95.0
2023-08-09 17:48:23.018685,-140.0
2023-08-09 17:48:23.026375,-176.0
2023-08-09 17:48:23.034066,-203.0
2023-08-09 17:48:23.041756,-217.0
2023-08-09 17:48:23.049447,-219.0
2023-08-09 17:48:23.057137,-222.0
2023-08-09 17:48:23.064828,-226.0
2023-08-09 17:48:23.072518,-226.0
2023-08-09 17:48:23.080209,-224.0
2023-08-09 17:48:23.087899,-217.0
2023-08-09 17:48:23.095590,-210.0
2023-08-09 17:48:23.103280,-203.0
2023-08-09 17:48:23.110971,-193.0
2023-08-09 17:48:23.118662,-188.0
2023-08-09 17:48:23.126352,-181.0
2023-08-09 17:48:23.134043,-181.0
2023-08-09 17:48:23.141733,-188.0
2023-08-09 17:48:23.149424,-183.0
2023-08-09 17:48:23.157114,-179.0
2023-08-09 17:48:23.164805,-183.0
2023-08-09 17:48:23.172495,-186.0
2023-08-09 17:48:23.180186,-179.0
2023-08-09 17:48:23.187876,-174.0
2023-08-09 17:48:23.195567,-171.0
2023-08-09 17:48:23.203258,-171.0
2023-08-09 17:48:23.210948,-169.0
2023-08-09 17:48:23.218639,-167.0
2023-08-09 17:48:23.226329,-164.0
2023-08-09 17:48:23.234020,-162.0
2023-08-09 17:48:23.241710,-155.0
2023-08-09 17:48:23.249401,-152.0
2023-08-09 17:48:23.257091,-152.0
2023-08-09 17:48:23.264782,-148.0
2023-08-09 17:48:23.272472,-145.0
2023-08-09 17:48:23.280163,-143.0
2023-08-09 17:48:23.287854,-140.0
2023-08-09 17:48:23.295544,-133.0
2023-08-09 17:48:23.303235,-131.0
2023-08-09 17:48:23.310925,-131.0
2023-08-09 17:48:23.318616,-131.0
2023-08-09 17:48:23.326306,-128.0
2023-08-09 17:48:23.333997,-126.0
2023-08-09 17:48:23.341687,-128.0
2023-08-09 17:48:23.349378,-126.0
2023-08-09 17:48:23.357068,-114.0
2023-08-09 17:48:23.364759,-109.0
2023-08-09 17:48:23.372449,-112.0
2023-08-09 17:48:23.380140,-112.0
2023-08-09 17:48:23.387831,-109.0
2023-08-09 17:48:23.395521,-109.0
2023-08-09 17:48:23.403212,-107.0
2023-08-09 17:48:23.410902,-97.0
2023-08-09 17:48:23.418593,-81.0
2023-08-09 17:48:23.426283,-64.0
2023-08-09 17:48:23.433974,-57.0
2023-08-09 17:48:23.441664,-54.0
2023-08-09 17:48:23.449355,-64.0
2023-08-09 17:48:23.457045,-81.0
2023-08-09 17:48:23.464736,-93.0
2023-08-09 17:48:23.472427,-95.0
2023-08-09 17:48:23.480117,-97.0
2023-08-09 17:48:23.487808,-95.0
2023-08-09 17:48:23.495498,-93.0
2023-08-09 17:48:23.503189,-90.0
2023-08-09 17:48:23.510879,-85.0
2023-08-09 17:48:23.518570,-90.0
2023-08-09 17:48:23.526260,-102.0
2023-08-09 17:48:23.533951,-9.0
2023-08-09 17:48:23.541641,358.0
2023-08-09 17:48:23.549332,912.0
2023-08-09 17:48:23.557023,1294.0
2023-08-09 17:48:23.564713,1165.0
2023-08-09 17:48:23.572404,585.0
2023-08-09 17:48:23.580094,14.0
2023-08-09 17:48:23.587785,-191.0
2023-08-09 17:48:23.595475,-148.0
2023-08-09 17:48:23.603166,-164.0
2023-08-09 17:48:23.610856,-231.0
2023-08-09 17:48:23.618547,-219.0
2023-08-09 17:48:23.626237,-195.0
2023-08-09 17:48:23.633928,-200.0
2023-08-09 17:48:23.641618,-191.0
2023-08-09 17:48:23.649309,-174.0
2023-08-09 17:48:23.657000,-169.0
2023-08-09 17:48:23.664690,-152.0
2023-08-09 17:48:23.672381,-133.0
2023-08-09 17:48:23.680071,-117.0
2023-08-09 17:48:23.687762,-97.0
2023-08-09 17:48:23.695452,-81.0
2023-08-09 17:48:23.703143,-69.0
2023-08-09 17:48:23.710833,-47.0
2023-08-09 17:48:23.718524,-21.0
2023-08-09 17:48:23.726214,2.0
2023-08-09 17:48:23.733905,31.0
2023-08-09 17:48:23.741596,45.0
2023-08-09 17:48:23.749286,54.0
2023-08-09 17:48:23.756977,78.0
2023-08-09 17:48:23.764667,107.0
2023-08-09 17:48:23.772358,124.0
2023-08-09 17:48:23.780048,133.0
2023-08-09 17:48:23.787739,136.0
2023-08-09 17:48:23.795429,126.0
2023-08-09 17:48:23.803120,102.0
2023-08-09 17:48:23.810810,62.0
2023-08-09 17:48:23.818501,11.0
2023-08-09 17:48:23.826192,-42.0
2023-08-09 17:48:23.833882,-105.0
2023-08-09 17:48:23.841573,-157.0
2023-08-09 17:48:23.849263,-193.0
2023-08-09 17:48:23.856954,-214.0
2023-08-09 17:48:23.864644,-234.0
2023-08-09 17:48:23.872335,-241.0
2023-08-09 17:48:23.880025,-243.0
2023-08-09 17:48:23.887716,-243.0
2023-08-09 17:48:23.895406,-234.0
2023-08-09 17:48:23.903097,-224.0
2023-08-09 17:48:23.910787,-219.0
2023-08-09 17:48:23.918478,-214.0
2023-08-09 17:48:23.926169,-207.0
2023-08-09 17:48:23.933859,-198.0
2023-08-09 17:48:23.941550,-193.0
2023-08-09 17:48:23.949240,-183.0
2023-08-09 17:48:23.956931,-176.0
2023-08-09 17:48:23.964621,-174.0
2023-08-09 17:48:23.972312,-174.0
2023-08-09 17:48:23.980002,-164.0
2023-08-09 17:48:23.987693,-157.0
2023-08-09 17:48:23.995383,-157.0
2023-08-09 17:48:24.003074,-152.0
2023-08-09 17:48:24.010765,-150.0
2023-08-09 17:48:24.018455,-150.0
2023-08-09 17:48:24.026146,-148.0
2023-08-09 17:48:24.033836,-143.0
2023-08-09 17:48:24.041527,-140.0
2023-08-09 17:48:24.049217,-140.0
2023-08-09 17:48:24.056908,-138.0
2023-08-09 17:48:24.064598,-136.0
2023-08-09 17:48:24.072289,-136.0
2023-08-09 17:48:24.079979,-133.0
2023-08-09 17:48:24.087670,-126.0
2023-08-09 17:48:24.095361,-121.0
2023-08-09 17:48:24.103051,-124.0
2023-08-09 17:48:24.110742,-126.0
2023-08-09 17:48:24.118432,-121.0
2023-08-09 17:48:24.126123,-117.0
2023-08-09 17:48:24.133813,-114.0
2023-08-09 17:48:24.141504,-112.0
2023-08-09 17:48:24.149194,-112.0
2023-08-09 17:48:24.156885,-117.0
2023-08-09 17:48:24.164575,-114.0
2023-08-09 17:48:24.172266,-109.0
2023-08-09 17:48:24.179957,-107.0
2023-08-09 17:48:24.187647,-105.0
2023-08-09 17:48:24.195338,-102.0
2023-08-09 17:48:24.203028,-105.0
2023-08-09 17:48:24.210719,-100.0
2023-08-09 17:48:24.218409,-93.0
2023-08-09 17:48:24.226100,-93.0
2023-08-09 17:48:24.233790,-95.0
2023-08-09 17:48:24.241481,-95.0
2023-08-09 17:48:24.249171,-93.0
2023-08-09 17:48:24.256862,-88.0
2023-08-09 17:48:24.264552,-85.0
2023-08-09 17:48:24.272243,-76.0
2023-08-09 17:48:24.279934,-62.0
2023-08-09 17:48:24.287624,-50.0
2023-08-09 17:48:24.295315,-42.0
2023-08-09 17:48:24.303005,-42.0
2023-08-09 17:48:24.310696,-52.0
2023-08-09 17:48:24.318386,-71.0
2023-08-09 17:48:24.326077,-88.0
2023-08-09 17:48:24.333767,-100.0
2023-08-09 17:48:24.341458,-102.0
2023-08-09 17:48:24.349148,-97.0
2023-08-09 17:48:24.356839,-97.0
2023-08-09 17:48:24.364530,-93.0
2023-08-09 17:48:24.372220,-88.0
2023-08-09 17:48:24.379911,-90.0
2023-08-09 17:48:24.387601,-97.0
2023-08-09 17:48:24.395292,-19.0
2023-08-09 17:48:24.402982,296.0
2023-08-09 17:48:24.410673,807.0
2023-08-09 17:48:24.418363,1210.0
2023-08-09 17:48:24.426054,1167.0
2023-08-09 17:48:24.433744,656.0
2023-08-09 17:48:24.441435,78.0
2023-08-09 17:48:24.449126,-176.0
2023-08-09 17:48:24.456816,-155.0
2023-08-09 17:48:24.464507,-157.0
2023-08-09 17:48:24.472197,-217.0
2023-08-09 17:48:24.479888,-214.0
2023-08-09 17:48:24.487578,-191.0
2023-08-09 17:48:24.495269,-193.0
2023-08-09 17:48:24.502959,-183.0
2023-08-09 17:48:24.510650,-162.0
2023-08-09 17:48:24.518340,-150.0
2023-08-09 17:48:24.526031,-143.0
2023-08-09 17:48:24.533721,-124.0
2023-08-09 17:48:24.541412,-105.0
2023-08-09 17:48:24.549103,-93.0
2023-08-09 17:48:24.556793,-85.0
2023-08-09 17:48:24.564484,-66.0
2023-08-09 17:48:24.572174,-45.0
2023-08-09 17:48:24.579865,-28.0
2023-08-09 17:48:24.587555,-7.0
2023-08-09 17:48:24.595246,19.0
2023-08-09 17:48:24.602936,40.0
2023-08-09 17:48:24.610627,62.0
2023-08-09 17:48:24.618317,88.0
2023-08-09 17:48:24.626008,117.0
2023-08-09 17:48:24.633699,136.0
2023-08-09 17:48:24.641389,140.0
2023-08-09 17:48:24.649080,138.0
2023-08-09 17:48:24.656770,126.0
2023-08-09 17:48:24.664461,107.0
2023-08-09 17:48:24.672151,76.0
2023-08-09 17:48:24.679842,35.0
2023-08-09 17:48:24.687532,-14.0
2023-08-09 17:48:24.695223,-69.0
2023-08-09 17:48:24.702913,-121.0
2023-08-09 17:48:24.710604,-162.0
2023-08-09 17:48:24.718295,-186.0
2023-08-09 17:48:24.725985,-205.0
2023-08-09 17:48:24.733676,-217.0
2023-08-09 17:48:24.741366,-219.0
2023-08-09 17:48:24.749057,-212.0
2023-08-09 17:48:24.756747,-210.0
2023-08-09 17:48:24.764438,-205.0
2023-08-09 17:48:24.772128,-195.0
2023-08-09 17:48:24.779819,-191.0
2023-08-09 17:48:24.787509,-181.0
2023-08-09 17:48:24.795200,-176.0
2023-08-09 17:48:24.802890,-176.0
2023-08-09 17:48:24.810581,-171.0
2023-08-09 17:48:24.818272,-162.0
2023-08-09 17:48:24.825962,-157.0
2023-08-09 17:48:24.833653,-155.0
2023-08-09 17:48:24.841343,-150.0
2023-08-09 17:48:24.849034,-145.0
2023-08-09 17:48:24.856724,-143.0
2023-08-09 17:48:24.864415,-143.0
2023-08-09 17:48:24.872105,-148.0
2023-08-09 17:48:24.879796,-145.0
2023-08-09 17:48:24.887486,-140.0
2023-08-09 17:48:24.895177,-140.0
2023-08-09 17:48:24.902868,-138.0
2023-08-09 17:48:24.910558,-136.0
2023-08-09 17:48:24.918249,-138.0
2023-08-09 17:48:24.925939,-133.0
2023-08-09 17:48:24.933630,-124.0
2023-08-09 17:48:24.941320,-121.0
2023-08-09 17:48:24.949011,-124.0
2023-08-09 17:48:24.956701,-121.0
2023-08-09 17:48:24.964392,-117.0
2023-08-09 17:48:24.972082,-114.0
2023-08-09 17:48:24.979773,-112.0
2023-08-09 17:48:24.987464,-112.0
2023-08-09 17:48:24.995154,-109.0
2023-08-09 17:48:25.002845,-107.0
2023-08-09 17:48:25.010535,-107.0
2023-08-09 17:48:25.018226,-105.0
2023-08-09 17:48:25.025916,-100.0
2023-08-09 17:48:25.033607,-93.0
2023-08-09 17:48:25.041297,-95.0
2023-08-09 17:48:25.048988,-97.0
2023-08-09 17:48:25.056678,-97.0
2023-08-09 17:48:25.064369,-95.0
2023-08-09 17:48:25.072059,-95.0
2023-08-09 17:48:25.079750,-93.0
2023-08-09 17:48:25.087441,-85.0
2023-08-09 17:48:25.095131,-85.0
2023-08-09 17:48:25.102822,-85.0
2023-08-09 17:48:25.110512,-83.0
2023-08-09 17:48:25.118203,-83.0
2023-08-09 17:48:25.125893,-83.0
2023-08-09 17:48:25.133584,-81.0
2023-08-09 17:48:25.141274,-78.0
2023-08-09 17:48:25.148965,-81.0
2023-08-09 17:48:25.156655,-83.0
2023-08-09 17:48:25.164346,-85.0
2023-08-09 17:48:25.172037,-81.0
2023-08-09 17:48:25.179727,-78.0
2023-08-09 17:48:25.187418,-81.0
2023-08-09 17:48:25.195108,-78.0
2023-08-09 17:48:25.202799,-74.0
2023-08-09 17:48:25.210489,-69.0
2023-08-09 17:48:25.218180,-59.0
2023-08-09 17:48:25.225870,-45.0
2023-08-09 17:48:25.233561,-35.0
2023-08-09 17:48:25.241251,-28.0
2023-08-09 17:48:25.248942,-26.0
2023-08-09 17:48:25.256633,-45.0
2023-08-09 17:48:25.264323,-66.0
2023-08-09 17:48:25.272014,-76.0
2023-08-09 17:48:25.279704,-74.0
2023-08-09 17:48:25.287395,-74.0
2023-08-09 17:48:25.295085,-74.0
2023-08-09 17:48:25.302776,-76.0
2023-08-09 17:48:25.310466,-74.0
2023-08-09 17:48:25.318157,-71.0
2023-08-09 17:48:25.325847,-76.0
2023-08-09 17:48:25.333538,-66.0
2023-08-09 17:48:25.341229,105.0
2023-08-09 17:48:25.348919,530.0
2023-08-09 17:48:25.356610,1029.0
2023-08-09 17:48:25.364300,1244.0
2023-08-09 17:48:25.371991,953.0
2023-08-09 17:48:25.379681,360.0
2023-08-09 17:48:25.387372,-71.0
2023-08-09 17:48:25.395062,-164.0
2023-08-09 17:48:25.402753,-136.0
2023-08-09 17:48:25.410443,-183.0
2023-08-09 17:48:25.418134,-226.0
2023-08-09 17:48:25.425824,-207.0
2023-08-09 17:48:25.433515,-200.0
2023-08-09 17:48:25.441206,-203.0
2023-08-09 17:48:25.448896,-181.0
2023-08-09 17:48:25.456587,-164.0
2023-08-09 17:48:25.464277,-157.0
2023-08-09 17:48:25.471968,-145.0
2023-08-09 17:48:25.479658,-128.0
2023-08-09 17:48:25.487349,-114.0
2023-08-09 17:48:25.495039,-97.0
2023-08-09 17:48:25.502730,-78.0
2023-08-09 17:48:25.510420,-64.0
2023-08-09 17:48:25.518111,-47.0
2023-08-09 17:48:25.525802,-28.0
2023-08-09 17:48:25.533492,-14.0
2023-08-09 17:48:25.541183,2.0
2023-08-09 17:48:25.548873,26.0
2023-08-09 17:48:25.556564,54.0
2023-08-09 17:48:25.564254,81.0
2023-08-09 17:48:25.571945,102.0
2023-08-09 17:48:25.579635,114.0
2023-08-09 17:48:25.587326,124.0
2023-08-09 17:48:25.595016,124.0
2023-08-09 17:48:25.602707,117.0
2023-08-09 17:48:25.610398,100.0
2023-08-09 17:48:25.618088,74.0
2023-08-09 17:48:25.625779,28.0
2023-08-09 17:48:25.633469,-23.0
2023-08-09 17:48:25.641160,-74.0
2023-08-09 17:48:25.648850,-117.0
2023-08-09 17:48:25.656541,-155.0
2023-08-09 17:48:25.664231,-186.0
2023-08-09 17:48:25.671922,-205.0
2023-08-09 17:48:25.679612,-214.0
