time,ECG
2023-08-10 11:45:08.787027,33.0
2023-08-10 11:45:08.794717,26.0
2023-08-10 11:45:08.802407,11.0
2023-08-10 11:45:08.810097,11.0
2023-08-10 11:45:08.817786,31.0
2023-08-10 11:45:08.825476,31.0
2023-08-10 11:45:08.833166,14.0
2023-08-10 11:45:08.840855,-2.0
2023-08-10 11:45:08.848545,2.0
2023-08-10 11:45:08.856235,16.0
2023-08-10 11:45:08.863925,2.0
2023-08-10 11:45:08.871614,-7.0
2023-08-10 11:45:08.879304,14.0
2023-08-10 11:45:08.886994,7.0
2023-08-10 11:45:08.894683,-11.0
2023-08-10 11:45:08.902373,-2.0
2023-08-10 11:45:08.910063,4.0
2023-08-10 11:45:08.917753,-7.0
2023-08-10 11:45:08.925442,-16.0
2023-08-10 11:45:08.933132,-9.0
2023-08-10 11:45:08.940822,-7.0
2023-08-10 11:45:08.948511,-4.0
2023-08-10 11:45:08.956201,7.0
2023-08-10 11:45:08.963891,-7.0
2023-08-10 11:45:08.971581,-21.0
2023-08-10 11:45:08.979270,-11.0
2023-08-10 11:45:08.986960,-16.0
2023-08-10 11:45:08.994650,-21.0
2023-08-10 11:45:09.002339,-9.0
2023-08-10 11:45:09.010029,-28.0
2023-08-10 11:45:09.017719,-57.0
2023-08-10 11:45:09.025409,-57.0
2023-08-10 11:45:09.033098,-35.0
2023-08-10 11:45:09.040788,-16.0
2023-08-10 11:45:09.048478,-21.0
2023-08-10 11:45:09.056167,-38.0
2023-08-10 11:45:09.063857,-40.0
2023-08-10 11:45:09.071547,-23.0
2023-08-10 11:45:09.079237,0.0
2023-08-10 11:45:09.086926,0.0
2023-08-10 11:45:09.094616,-11.0
2023-08-10 11:45:09.102306,-14.0
2023-08-10 11:45:09.109995,-23.0
2023-08-10 11:45:09.117685,-28.0
2023-08-10 11:45:09.125375,-14.0
2023-08-10 11:45:09.133064,-19.0
2023-08-10 11:45:09.140754,-88.0
2023-08-10 11:45:09.148444,-272.0
2023-08-10 11:45:09.156134,-523.0
2023-08-10 11:45:09.163823,-681.0
2023-08-10 11:45:09.171513,-612.0
2023-08-10 11:45:09.179203,-287.0
2023-08-10 11:45:09.186892,45.0
2023-08-10 11:45:09.194582,102.0
2023-08-10 11:45:09.202272,-11.0
2023-08-10 11:45:09.209962,-21.0
2023-08-10 11:45:09.217651,26.0
2023-08-10 11:45:09.225341,9.0
2023-08-10 11:45:09.233031,-16.0
2023-08-10 11:45:09.240720,-9.0
2023-08-10 11:45:09.248410,-2.0
2023-08-10 11:45:09.256100,-19.0
2023-08-10 11:45:09.263790,-40.0
2023-08-10 11:45:09.271479,-33.0
2023-08-10 11:45:09.279169,-33.0
2023-08-10 11:45:09.286859,-43.0
2023-08-10 11:45:09.294548,-40.0
2023-08-10 11:45:09.302238,-43.0
2023-08-10 11:45:09.309928,-69.0
2023-08-10 11:45:09.317618,-93.0
2023-08-10 11:45:09.325307,-90.0
2023-08-10 11:45:09.332997,-95.0
2023-08-10 11:45:09.340687,-112.0
2023-08-10 11:45:09.348376,-110.0
2023-08-10 11:45:09.356066,-110.0
2023-08-10 11:45:09.363756,-129.0
2023-08-10 11:45:09.371446,-157.0
2023-08-10 11:45:09.379135,-186.0
2023-08-10 11:45:09.386825,-198.0
2023-08-10 11:45:09.394515,-208.0
2023-08-10 11:45:09.402204,-222.0
2023-08-10 11:45:09.409894,-236.0
2023-08-10 11:45:09.417584,-256.0
2023-08-10 11:45:09.425274,-287.0
2023-08-10 11:45:09.432963,-294.0
2023-08-10 11:45:09.440653,-277.0
2023-08-10 11:45:09.448343,-256.0
2023-08-10 11:45:09.456032,-191.0
2023-08-10 11:45:09.463722,-117.0
2023-08-10 11:45:09.471412,-78.0
2023-08-10 11:45:09.479102,-31.0
2023-08-10 11:45:09.486791,4.0
2023-08-10 11:45:09.494481,11.0
2023-08-10 11:45:09.502171,28.0
2023-08-10 11:45:09.509860,47.0
2023-08-10 11:45:09.517550,40.0
2023-08-10 11:45:09.525240,40.0
2023-08-10 11:45:09.532930,57.0
2023-08-10 11:45:09.540619,50.0
2023-08-10 11:45:09.548309,23.0
2023-08-10 11:45:09.555999,23.0
2023-08-10 11:45:09.563688,38.0
2023-08-10 11:45:09.571378,21.0
2023-08-10 11:45:09.579068,11.0
2023-08-10 11:45:09.586758,45.0
2023-08-10 11:45:09.594447,47.0
2023-08-10 11:45:09.602137,9.0
2023-08-10 11:45:09.609827,0.0
2023-08-10 11:45:09.617516,19.0
2023-08-10 11:45:09.625206,7.0
2023-08-10 11:45:09.632896,-28.0
2023-08-10 11:45:09.640586,-26.0
2023-08-10 11:45:09.648275,21.0
2023-08-10 11:45:09.655965,26.0
2023-08-10 11:45:09.663655,-19.0
2023-08-10 11:45:09.671344,-28.0
2023-08-10 11:45:09.679034,-7.0
2023-08-10 11:45:09.686724,-9.0
2023-08-10 11:45:09.694414,-14.0
2023-08-10 11:45:09.702103,0.0
2023-08-10 11:45:09.709793,0.0
2023-08-10 11:45:09.717483,-11.0
2023-08-10 11:45:09.725172,-21.0
2023-08-10 11:45:09.732862,-4.0
2023-08-10 11:45:09.740552,16.0
2023-08-10 11:45:09.748242,-21.0
2023-08-10 11:45:09.755931,-47.0
2023-08-10 11:45:09.763621,-21.0
2023-08-10 11:45:09.771311,-14.0
2023-08-10 11:45:09.779000,-19.0
2023-08-10 11:45:09.786690,-11.0
2023-08-10 11:45:09.794380,-26.0
2023-08-10 11:45:09.802069,-28.0
2023-08-10 11:45:09.809759,-21.0
2023-08-10 11:45:09.817449,-38.0
2023-08-10 11:45:09.825139,-40.0
2023-08-10 11:45:09.832828,-16.0
2023-08-10 11:45:09.840518,-2.0
2023-08-10 11:45:09.848208,-14.0
2023-08-10 11:45:09.855897,-28.0
2023-08-10 11:45:09.863587,-28.0
2023-08-10 11:45:09.871277,-40.0
2023-08-10 11:45:09.878967,-62.0
2023-08-10 11:45:09.886656,-47.0
2023-08-10 11:45:09.894346,-38.0
2023-08-10 11:45:09.902036,-59.0
2023-08-10 11:45:09.909725,-76.0
2023-08-10 11:45:09.917415,-69.0
2023-08-10 11:45:09.925105,-47.0
2023-08-10 11:45:09.932795,-47.0
2023-08-10 11:45:09.940484,-50.0
2023-08-10 11:45:09.948174,-23.0
2023-08-10 11:45:09.955864,-33.0
2023-08-10 11:45:09.963553,-45.0
2023-08-10 11:45:09.971243,-23.0
2023-08-10 11:45:09.978933,-33.0
2023-08-10 11:45:09.986623,-52.0
2023-08-10 11:45:09.994312,-40.0
2023-08-10 11:45:10.002002,-35.0
2023-08-10 11:45:10.009692,-40.0
2023-08-10 11:45:10.017381,-102.0
2023-08-10 11:45:10.025071,-291.0
2023-08-10 11:45:10.032761,-523.0
2023-08-10 11:45:10.040451,-672.0
2023-08-10 11:45:10.048140,-610.0
2023-08-10 11:45:10.055830,-282.0
2023-08-10 11:45:10.063520,55.0
2023-08-10 11:45:10.071209,100.0
2023-08-10 11:45:10.078899,-9.0
2023-08-10 11:45:10.086589,-19.0
2023-08-10 11:45:10.094279,14.0
2023-08-10 11:45:10.101968,-4.0
2023-08-10 11:45:10.109658,-4.0
2023-08-10 11:45:10.117348,16.0
2023-08-10 11:45:10.125037,-2.0
2023-08-10 11:45:10.132727,-33.0
2023-08-10 11:45:10.140417,-38.0
2023-08-10 11:45:10.148107,-21.0
2023-08-10 11:45:10.155796,-14.0
2023-08-10 11:45:10.163486,-38.0
2023-08-10 11:45:10.171176,-55.0
2023-08-10 11:45:10.178865,-43.0
2023-08-10 11:45:10.186555,-55.0
2023-08-10 11:45:10.194245,-83.0
2023-08-10 11:45:10.201935,-88.0
2023-08-10 11:45:10.209624,-83.0
2023-08-10 11:45:10.217314,-90.0
2023-08-10 11:45:10.225004,-102.0
2023-08-10 11:45:10.232693,-117.0
2023-08-10 11:45:10.240383,-145.0
2023-08-10 11:45:10.248073,-162.0
2023-08-10 11:45:10.255763,-165.0
2023-08-10 11:45:10.263452,-191.0
2023-08-10 11:45:10.271142,-227.0
2023-08-10 11:45:10.278832,-224.0
2023-08-10 11:45:10.286521,-217.0
2023-08-10 11:45:10.294211,-241.0
2023-08-10 11:45:10.301901,-275.0
2023-08-10 11:45:10.309591,-279.0
2023-08-10 11:45:10.317280,-236.0
2023-08-10 11:45:10.324970,-191.0
2023-08-10 11:45:10.332660,-162.0
2023-08-10 11:45:10.340349,-119.0
2023-08-10 11:45:10.348039,-57.0
2023-08-10 11:45:10.355729,4.0
2023-08-10 11:45:10.363419,40.0
2023-08-10 11:45:10.371108,43.0
2023-08-10 11:45:10.378798,45.0
2023-08-10 11:45:10.386488,62.0
2023-08-10 11:45:10.394177,66.0
2023-08-10 11:45:10.401867,45.0
2023-08-10 11:45:10.409557,38.0
2023-08-10 11:45:10.417247,66.0
2023-08-10 11:45:10.424936,69.0
2023-08-10 11:45:10.432626,43.0
2023-08-10 11:45:10.440316,57.0
2023-08-10 11:45:10.448005,64.0
2023-08-10 11:45:10.455695,40.0
2023-08-10 11:45:10.463385,26.0
2023-08-10 11:45:10.471075,21.0
2023-08-10 11:45:10.478764,31.0
2023-08-10 11:45:10.486454,52.0
2023-08-10 11:45:10.494144,38.0
2023-08-10 11:45:10.501833,2.0
2023-08-10 11:45:10.509523,0.0
2023-08-10 11:45:10.517213,26.0
2023-08-10 11:45:10.524902,38.0
2023-08-10 11:45:10.532592,14.0
2023-08-10 11:45:10.540282,-2.0
2023-08-10 11:45:10.547972,11.0
2023-08-10 11:45:10.555661,23.0
2023-08-10 11:45:10.563351,16.0
2023-08-10 11:45:10.571041,16.0
2023-08-10 11:45:10.578730,16.0
2023-08-10 11:45:10.586420,4.0
2023-08-10 11:45:10.594110,-7.0
2023-08-10 11:45:10.601800,4.0
2023-08-10 11:45:10.609489,19.0
2023-08-10 11:45:10.617179,7.0
2023-08-10 11:45:10.624869,-2.0
2023-08-10 11:45:10.632558,11.0
2023-08-10 11:45:10.640248,0.0
2023-08-10 11:45:10.647938,-19.0
2023-08-10 11:45:10.655628,-2.0
2023-08-10 11:45:10.663317,11.0
2023-08-10 11:45:10.671007,-2.0
2023-08-10 11:45:10.678697,-4.0
2023-08-10 11:45:10.686386,-4.0
2023-08-10 11:45:10.694076,-11.0
2023-08-10 11:45:10.701766,-11.0
2023-08-10 11:45:10.709456,-14.0
2023-08-10 11:45:10.717145,-16.0
2023-08-10 11:45:10.724835,-7.0
2023-08-10 11:45:10.732525,-9.0
2023-08-10 11:45:10.740214,-16.0
2023-08-10 11:45:10.747904,-4.0
2023-08-10 11:45:10.755594,-16.0
2023-08-10 11:45:10.763284,-33.0
2023-08-10 11:45:10.770973,-7.0
2023-08-10 11:45:10.778663,-4.0
2023-08-10 11:45:10.786353,-11.0
2023-08-10 11:45:10.794042,-4.0
2023-08-10 11:45:10.801732,-4.0
2023-08-10 11:45:10.809422,-11.0
2023-08-10 11:45:10.817112,-26.0
2023-08-10 11:45:10.824801,-26.0
2023-08-10 11:45:10.832491,0.0
2023-08-10 11:45:10.840181,-16.0
2023-08-10 11:45:10.847870,-52.0
2023-08-10 11:45:10.855560,-45.0
2023-08-10 11:45:10.863250,-35.0
2023-08-10 11:45:10.870940,-50.0
2023-08-10 11:45:10.878629,-52.0
2023-08-10 11:45:10.886319,-31.0
2023-08-10 11:45:10.894009,-21.0
2023-08-10 11:45:10.901698,-23.0
2023-08-10 11:45:10.909388,-9.0
2023-08-10 11:45:10.917078,2.0
2023-08-10 11:45:10.924768,-2.0
2023-08-10 11:45:10.932457,-9.0
2023-08-10 11:45:10.940147,-14.0
2023-08-10 11:45:10.947837,-9.0
2023-08-10 11:45:10.955526,-9.0
2023-08-10 11:45:10.963216,-26.0
2023-08-10 11:45:10.970906,-55.0
2023-08-10 11:45:10.978596,-184.0
2023-08-10 11:45:10.986285,-423.0
2023-08-10 11:45:10.993975,-600.0
2023-08-10 11:45:11.001665,-619.0
2023-08-10 11:45:11.009354,-413.0
2023-08-10 11:45:11.017044,-45.0
2023-08-10 11:45:11.024734,129.0
2023-08-10 11:45:11.032424,33.0
2023-08-10 11:45:11.040113,-28.0
2023-08-10 11:45:11.047803,0.0
2023-08-10 11:45:11.055493,2.0
2023-08-10 11:45:11.063182,21.0
2023-08-10 11:45:11.070872,52.0
2023-08-10 11:45:11.078562,23.0
2023-08-10 11:45:11.086252,-7.0
2023-08-10 11:45:11.093941,-7.0
2023-08-10 11:45:11.101631,-11.0
2023-08-10 11:45:11.109321,-19.0
2023-08-10 11:45:11.117010,-31.0
2023-08-10 11:45:11.124700,-40.0
2023-08-10 11:45:11.132390,-33.0
2023-08-10 11:45:11.140080,-35.0
2023-08-10 11:45:11.147769,-52.0
2023-08-10 11:45:11.155459,-69.0
2023-08-10 11:45:11.163149,-78.0
2023-08-10 11:45:11.170838,-86.0
2023-08-10 11:45:11.178528,-107.0
2023-08-10 11:45:11.186218,-133.0
2023-08-10 11:45:11.193907,-129.0
2023-08-10 11:45:11.201597,-114.0
2023-08-10 11:45:11.209287,-143.0
2023-08-10 11:45:11.216977,-189.0
2023-08-10 11:45:11.224666,-210.0
2023-08-10 11:45:11.232356,-234.0
2023-08-10 11:45:11.240046,-258.0
2023-08-10 11:45:11.247735,-253.0
2023-08-10 11:45:11.255425,-267.0
2023-08-10 11:45:11.263115,-287.0
2023-08-10 11:45:11.270805,-265.0
2023-08-10 11:45:11.278494,-239.0
2023-08-10 11:45:11.286184,-210.0
2023-08-10 11:45:11.293874,-150.0
2023-08-10 11:45:11.301563,-86.0
2023-08-10 11:45:11.309253,-40.0
2023-08-10 11:45:11.316943,-4.0
2023-08-10 11:45:11.324633,14.0
2023-08-10 11:45:11.332322,33.0
2023-08-10 11:45:11.340012,47.0
2023-08-10 11:45:11.347702,38.0
2023-08-10 11:45:11.355391,38.0
2023-08-10 11:45:11.363081,57.0
2023-08-10 11:45:11.370771,45.0
2023-08-10 11:45:11.378461,21.0
2023-08-10 11:45:11.386150,33.0
2023-08-10 11:45:11.393840,40.0
2023-08-10 11:45:11.401530,31.0
2023-08-10 11:45:11.409219,28.0
2023-08-10 11:45:11.416909,16.0
2023-08-10 11:45:11.424599,7.0
2023-08-10 11:45:11.432289,19.0
2023-08-10 11:45:11.439978,19.0
2023-08-10 11:45:11.447668,16.0
2023-08-10 11:45:11.455358,19.0
2023-08-10 11:45:11.463047,16.0
2023-08-10 11:45:11.470737,11.0
2023-08-10 11:45:11.478427,14.0
2023-08-10 11:45:11.486117,4.0
2023-08-10 11:45:11.493806,-9.0
2023-08-10 11:45:11.501496,-7.0
2023-08-10 11:45:11.509186,16.0
2023-08-10 11:45:11.516875,21.0
2023-08-10 11:45:11.524565,4.0
2023-08-10 11:45:11.532255,2.0
2023-08-10 11:45:11.539945,4.0
2023-08-10 11:45:11.547634,-4.0
2023-08-10 11:45:11.555324,-7.0
2023-08-10 11:45:11.563014,0.0
2023-08-10 11:45:11.570703,0.0
2023-08-10 11:45:11.578393,-11.0
2023-08-10 11:45:11.586083,2.0
2023-08-10 11:45:11.593773,9.0
2023-08-10 11:45:11.601462,-9.0
2023-08-10 11:45:11.609152,-16.0
2023-08-10 11:45:11.616842,-9.0
2023-08-10 11:45:11.624531,-19.0
2023-08-10 11:45:11.632221,-28.0
2023-08-10 11:45:11.639911,-14.0
2023-08-10 11:45:11.647601,-14.0
2023-08-10 11:45:11.655290,-43.0
2023-08-10 11:45:11.662980,-47.0
2023-08-10 11:45:11.670670,-19.0
2023-08-10 11:45:11.678359,-14.0
2023-08-10 11:45:11.686049,-38.0
2023-08-10 11:45:11.693739,-50.0
2023-08-10 11:45:11.701429,-45.0
2023-08-10 11:45:11.709118,-33.0
2023-08-10 11:45:11.716808,-33.0
2023-08-10 11:45:11.724498,-43.0
2023-08-10 11:45:11.732187,-40.0
2023-08-10 11:45:11.739877,-38.0
2023-08-10 11:45:11.747567,-33.0
2023-08-10 11:45:11.755257,-33.0
2023-08-10 11:45:11.762946,-52.0
2023-08-10 11:45:11.770636,-62.0
2023-08-10 11:45:11.778326,-59.0
2023-08-10 11:45:11.786015,-62.0
2023-08-10 11:45:11.793705,-64.0
2023-08-10 11:45:11.801395,-62.0
2023-08-10 11:45:11.809085,-55.0
2023-08-10 11:45:11.816774,-38.0
2023-08-10 11:45:11.824464,-19.0
2023-08-10 11:45:11.832154,-14.0
2023-08-10 11:45:11.839843,-21.0
2023-08-10 11:45:11.847533,-21.0
2023-08-10 11:45:11.855223,-31.0
2023-08-10 11:45:11.862913,-40.0
2023-08-10 11:45:11.870602,-43.0
2023-08-10 11:45:11.878292,-43.0
2023-08-10 11:45:11.885982,-31.0
2023-08-10 11:45:11.893671,-33.0
2023-08-10 11:45:11.901361,-165.0
2023-08-10 11:45:11.909051,-406.0
2023-08-10 11:45:11.916740,-602.0
2023-08-10 11:45:11.924430,-669.0
2023-08-10 11:45:11.932120,-485.0
2023-08-10 11:45:11.939810,-98.0
2023-08-10 11:45:11.947499,126.0
2023-08-10 11:45:11.955189,57.0
2023-08-10 11:45:11.962879,-31.0
2023-08-10 11:45:11.970568,14.0
2023-08-10 11:45:11.978258,43.0
2023-08-10 11:45:11.985948,7.0
2023-08-10 11:45:11.993638,-7.0
2023-08-10 11:45:12.001327,4.0
2023-08-10 11:45:12.009017,-4.0
2023-08-10 11:45:12.016707,-21.0
2023-08-10 11:45:12.024396,-7.0
2023-08-10 11:45:12.032086,-4.0
2023-08-10 11:45:12.039776,-23.0
2023-08-10 11:45:12.047466,-19.0
2023-08-10 11:45:12.055155,-16.0
2023-08-10 11:45:12.062845,-40.0
2023-08-10 11:45:12.070535,-62.0
2023-08-10 11:45:12.078224,-74.0
2023-08-10 11:45:12.085914,-69.0
2023-08-10 11:45:12.093604,-69.0
2023-08-10 11:45:12.101294,-90.0
2023-08-10 11:45:12.108983,-112.0
2023-08-10 11:45:12.116673,-114.0
2023-08-10 11:45:12.124363,-117.0
2023-08-10 11:45:12.132052,-136.0
2023-08-10 11:45:12.139742,-160.0
2023-08-10 11:45:12.147432,-189.0
2023-08-10 11:45:12.155122,-224.0
2023-08-10 11:45:12.162811,-246.0
2023-08-10 11:45:12.170501,-239.0
2023-08-10 11:45:12.178191,-244.0
2023-08-10 11:45:12.185880,-253.0
2023-08-10 11:45:12.193570,-239.0
2023-08-10 11:45:12.201260,-222.0
2023-08-10 11:45:12.208950,-210.0
2023-08-10 11:45:12.216639,-160.0
2023-08-10 11:45:12.224329,-93.0
2023-08-10 11:45:12.232019,-43.0
2023-08-10 11:45:12.239708,-4.0
2023-08-10 11:45:12.247398,28.0
2023-08-10 11:45:12.255088,47.0
2023-08-10 11:45:12.262778,52.0
2023-08-10 11:45:12.270467,62.0
2023-08-10 11:45:12.278157,57.0
2023-08-10 11:45:12.285847,47.0
2023-08-10 11:45:12.293536,47.0
2023-08-10 11:45:12.301226,43.0
2023-08-10 11:45:12.308916,21.0
2023-08-10 11:45:12.316606,26.0
2023-08-10 11:45:12.324295,59.0
2023-08-10 11:45:12.331985,59.0
2023-08-10 11:45:12.339675,31.0
2023-08-10 11:45:12.347364,19.0
2023-08-10 11:45:12.355054,16.0
2023-08-10 11:45:12.362744,2.0
2023-08-10 11:45:12.370434,0.0
2023-08-10 11:45:12.378123,21.0
2023-08-10 11:45:12.385813,19.0
2023-08-10 11:45:12.393503,4.0
2023-08-10 11:45:12.401192,21.0
2023-08-10 11:45:12.408882,33.0
2023-08-10 11:45:12.416572,11.0
2023-08-10 11:45:12.424262,2.0
2023-08-10 11:45:12.431951,-9.0
2023-08-10 11:45:12.439641,-26.0
2023-08-10 11:45:12.447331,-2.0
2023-08-10 11:45:12.455020,21.0
2023-08-10 11:45:12.462710,9.0
2023-08-10 11:45:12.470400,9.0
2023-08-10 11:45:12.478090,26.0
2023-08-10 11:45:12.485779,7.0
2023-08-10 11:45:12.493469,-28.0
2023-08-10 11:45:12.501159,-19.0
2023-08-10 11:45:12.508848,14.0
2023-08-10 11:45:12.516538,7.0
2023-08-10 11:45:12.524228,-19.0
2023-08-10 11:45:12.531918,-14.0
2023-08-10 11:45:12.539607,4.0
2023-08-10 11:45:12.547297,11.0
2023-08-10 11:45:12.554987,-2.0
2023-08-10 11:45:12.562676,-23.0
2023-08-10 11:45:12.570366,-16.0
2023-08-10 11:45:12.578056,0.0
2023-08-10 11:45:12.585745,-9.0
2023-08-10 11:45:12.593435,-11.0
2023-08-10 11:45:12.601125,-9.0
2023-08-10 11:45:12.608815,-19.0
2023-08-10 11:45:12.616504,-9.0
2023-08-10 11:45:12.624194,-7.0
2023-08-10 11:45:12.631884,-28.0
2023-08-10 11:45:12.639573,-26.0
2023-08-10 11:45:12.647263,-2.0
2023-08-10 11:45:12.654953,-11.0
2023-08-10 11:45:12.662643,-28.0
2023-08-10 11:45:12.670332,-28.0
2023-08-10 11:45:12.678022,-31.0
2023-08-10 11:45:12.685712,-21.0
2023-08-10 11:45:12.693401,-14.0
2023-08-10 11:45:12.701091,-45.0
2023-08-10 11:45:12.708781,-55.0
2023-08-10 11:45:12.716471,-35.0
2023-08-10 11:45:12.724160,-35.0
2023-08-10 11:45:12.731850,-52.0
2023-08-10 11:45:12.739540,-52.0
2023-08-10 11:45:12.747229,-52.0
2023-08-10 11:45:12.754919,-55.0
2023-08-10 11:45:12.762609,-52.0
2023-08-10 11:45:12.770299,-33.0
2023-08-10 11:45:12.777988,-9.0
2023-08-10 11:45:12.785678,-14.0
2023-08-10 11:45:12.793368,-40.0
2023-08-10 11:45:12.801057,-45.0
2023-08-10 11:45:12.808747,-31.0
2023-08-10 11:45:12.816437,-23.0
2023-08-10 11:45:12.824127,-33.0
2023-08-10 11:45:12.831816,-43.0
2023-08-10 11:45:12.839506,-57.0
2023-08-10 11:45:12.847196,-177.0
2023-08-10 11:45:12.854885,-411.0
2023-08-10 11:45:12.862575,-617.0
2023-08-10 11:45:12.870265,-693.0
2023-08-10 11:45:12.877955,-495.0
2023-08-10 11:45:12.885644,-66.0
2023-08-10 11:45:12.893334,145.0
2023-08-10 11:45:12.901024,31.0
2023-08-10 11:45:12.908713,-47.0
2023-08-10 11:45:12.916403,14.0
2023-08-10 11:45:12.924093,23.0
2023-08-10 11:45:12.931783,-14.0
2023-08-10 11:45:12.939472,2.0
2023-08-10 11:45:12.947162,23.0
2023-08-10 11:45:12.954852,0.0
2023-08-10 11:45:12.962541,-14.0
2023-08-10 11:45:12.970231,-9.0
2023-08-10 11:45:12.977921,-21.0
2023-08-10 11:45:12.985611,-28.0
2023-08-10 11:45:12.993300,-16.0
2023-08-10 11:45:13.000990,-31.0
2023-08-10 11:45:13.008680,-50.0
2023-08-10 11:45:13.016369,-47.0
2023-08-10 11:45:13.024059,-64.0
2023-08-10 11:45:13.031749,-83.0
2023-08-10 11:45:13.039439,-71.0
2023-08-10 11:45:13.047128,-83.0
2023-08-10 11:45:13.054818,-114.0
2023-08-10 11:45:13.062508,-102.0
2023-08-10 11:45:13.070197,-112.0
2023-08-10 11:45:13.077887,-167.0
2023-08-10 11:45:13.085577,-198.0
2023-08-10 11:45:13.093267,-191.0
2023-08-10 11:45:13.100956,-193.0
2023-08-10 11:45:13.108646,-217.0
2023-08-10 11:45:13.116336,-241.0
2023-08-10 11:45:13.124025,-251.0
2023-08-10 11:45:13.131715,-251.0
2023-08-10 11:45:13.139405,-251.0
2023-08-10 11:45:13.147095,-241.0
2023-08-10 11:45:13.154784,-196.0
2023-08-10 11:45:13.162474,-131.0
2023-08-10 11:45:13.170164,-100.0
2023-08-10 11:45:13.177853,-50.0
2023-08-10 11:45:13.185543,19.0
2023-08-10 11:45:13.193233,35.0
2023-08-10 11:45:13.200923,23.0
2023-08-10 11:45:13.208612,38.0
2023-08-10 11:45:13.216302,57.0
2023-08-10 11:45:13.223992,50.0
2023-08-10 11:45:13.231681,38.0
2023-08-10 11:45:13.239371,28.0
2023-08-10 11:45:13.247061,21.0
2023-08-10 11:45:13.254751,31.0
2023-08-10 11:45:13.262440,35.0
2023-08-10 11:45:13.270130,31.0
2023-08-10 11:45:13.277820,28.0
2023-08-10 11:45:13.285509,21.0
2023-08-10 11:45:13.293199,23.0
2023-08-10 11:45:13.300889,16.0
2023-08-10 11:45:13.308578,4.0
2023-08-10 11:45:13.316268,26.0
2023-08-10 11:45:13.323958,21.0
2023-08-10 11:45:13.331648,-11.0
2023-08-10 11:45:13.339337,0.0
2023-08-10 11:45:13.347027,7.0
2023-08-10 11:45:13.354717,-33.0
2023-08-10 11:45:13.362406,-35.0
2023-08-10 11:45:13.370096,0.0
2023-08-10 11:45:13.377786,4.0
2023-08-10 11:45:13.385476,-14.0
2023-08-10 11:45:13.393165,-19.0
2023-08-10 11:45:13.400855,-21.0
2023-08-10 11:45:13.408545,-26.0
2023-08-10 11:45:13.416234,-19.0
2023-08-10 11:45:13.423924,-4.0
2023-08-10 11:45:13.431614,-9.0
2023-08-10 11:45:13.439304,-35.0
2023-08-10 11:45:13.446993,-23.0
2023-08-10 11:45:13.454683,2.0
2023-08-10 11:45:13.462373,-16.0
2023-08-10 11:45:13.470062,-33.0
2023-08-10 11:45:13.477752,-16.0
2023-08-10 11:45:13.485442,-14.0
2023-08-10 11:45:13.493132,-16.0
2023-08-10 11:45:13.500821,-11.0
2023-08-10 11:45:13.508511,-26.0
2023-08-10 11:45:13.516201,-28.0
2023-08-10 11:45:13.523890,-9.0
2023-08-10 11:45:13.531580,-21.0
2023-08-10 11:45:13.539270,-45.0
2023-08-10 11:45:13.546960,-35.0
2023-08-10 11:45:13.554649,-9.0
2023-08-10 11:45:13.562339,-14.0
2023-08-10 11:45:13.570029,-31.0
2023-08-10 11:45:13.577718,-23.0
2023-08-10 11:45:13.585408,-14.0
2023-08-10 11:45:13.593098,-31.0
2023-08-10 11:45:13.600788,-35.0
2023-08-10 11:45:13.608477,-23.0
2023-08-10 11:45:13.616167,-19.0
2023-08-10 11:45:13.623857,-19.0
2023-08-10 11:45:13.631546,-23.0
2023-08-10 11:45:13.639236,-28.0
2023-08-10 11:45:13.646926,-45.0
2023-08-10 11:45:13.654616,-43.0
2023-08-10 11:45:13.662305,-26.0
2023-08-10 11:45:13.669995,-26.0
2023-08-10 11:45:13.677685,-38.0
2023-08-10 11:45:13.685374,-62.0
2023-08-10 11:45:13.693064,-71.0
2023-08-10 11:45:13.700754,-52.0
2023-08-10 11:45:13.708444,-62.0
2023-08-10 11:45:13.716133,-83.0
2023-08-10 11:45:13.723823,-43.0
2023-08-10 11:45:13.731513,-14.0
2023-08-10 11:45:13.739202,-35.0
2023-08-10 11:45:13.746892,-23.0
2023-08-10 11:45:13.754582,-9.0
2023-08-10 11:45:13.762272,-26.0
2023-08-10 11:45:13.769961,-38.0
2023-08-10 11:45:13.777651,-31.0
2023-08-10 11:45:13.785341,-11.0
2023-08-10 11:45:13.793030,-19.0
2023-08-10 11:45:13.800720,-45.0
2023-08-10 11:45:13.808410,-81.0
2023-08-10 11:45:13.816100,-229.0
2023-08-10 11:45:13.823789,-495.0
2023-08-10 11:45:13.831479,-674.0
2023-08-10 11:45:13.839169,-653.0
2023-08-10 11:45:13.846858,-397.0
2023-08-10 11:45:13.854548,-9.0
2023-08-10 11:45:13.862238,148.0
2023-08-10 11:45:13.869928,28.0
2023-08-10 11:45:13.877617,-50.0
2023-08-10 11:45:13.885307,-2.0
2023-08-10 11:45:13.892997,7.0
2023-08-10 11:45:13.900686,-19.0
2023-08-10 11:45:13.908376,-2.0
2023-08-10 11:45:13.916066,7.0
2023-08-10 11:45:13.923756,-19.0
2023-08-10 11:45:13.931445,-26.0
2023-08-10 11:45:13.939135,-21.0
2023-08-10 11:45:13.946825,-55.0
2023-08-10 11:45:13.954514,-78.0
2023-08-10 11:45:13.962204,-62.0
2023-08-10 11:45:13.969894,-45.0
2023-08-10 11:45:13.977583,-64.0
2023-08-10 11:45:13.985273,-76.0
2023-08-10 11:45:13.992963,-78.0
2023-08-10 11:45:14.000653,-98.0
2023-08-10 11:45:14.008342,-105.0
2023-08-10 11:45:14.016032,-122.0
2023-08-10 11:45:14.023722,-126.0
2023-08-10 11:45:14.031411,-119.0
2023-08-10 11:45:14.039101,-150.0
2023-08-10 11:45:14.046791,-184.0
2023-08-10 11:45:14.054481,-181.0
2023-08-10 11:45:14.062170,-186.0
2023-08-10 11:45:14.069860,-244.0
2023-08-10 11:45:14.077550,-282.0
2023-08-10 11:45:14.085239,-253.0
2023-08-10 11:45:14.092929,-246.0
2023-08-10 11:45:14.100619,-270.0
2023-08-10 11:45:14.108309,-263.0
2023-08-10 11:45:14.115998,-241.0
2023-08-10 11:45:14.123688,-217.0
2023-08-10 11:45:14.131378,-155.0
2023-08-10 11:45:14.139067,-59.0
2023-08-10 11:45:14.146757,0.0
2023-08-10 11:45:14.154447,7.0
2023-08-10 11:45:14.162137,16.0
2023-08-10 11:45:14.169826,31.0
2023-08-10 11:45:14.177516,14.0
2023-08-10 11:45:14.185206,14.0
2023-08-10 11:45:14.192895,40.0
2023-08-10 11:45:14.200585,47.0
2023-08-10 11:45:14.208275,31.0
2023-08-10 11:45:14.215965,33.0
2023-08-10 11:45:14.223654,43.0
2023-08-10 11:45:14.231344,21.0
2023-08-10 11:45:14.239034,-7.0
2023-08-10 11:45:14.246723,14.0
2023-08-10 11:45:14.254413,40.0
2023-08-10 11:45:14.262103,19.0
2023-08-10 11:45:14.269793,9.0
2023-08-10 11:45:14.277482,43.0
2023-08-10 11:45:14.285172,28.0
2023-08-10 11:45:14.292862,-11.0
2023-08-10 11:45:14.300551,7.0
2023-08-10 11:45:14.308241,26.0
2023-08-10 11:45:14.315931,2.0
2023-08-10 11:45:14.323621,9.0
2023-08-10 11:45:14.331310,21.0
2023-08-10 11:45:14.339000,9.0
2023-08-10 11:45:14.346690,33.0
2023-08-10 11:45:14.354379,31.0
2023-08-10 11:45:14.362069,-7.0
2023-08-10 11:45:14.369759,-2.0
2023-08-10 11:45:14.377449,19.0
2023-08-10 11:45:14.385138,14.0
2023-08-10 11:45:14.392828,7.0
2023-08-10 11:45:14.400518,19.0
2023-08-10 11:45:14.408207,21.0
2023-08-10 11:45:14.415897,7.0
2023-08-10 11:45:14.423587,16.0
2023-08-10 11:45:14.431277,14.0
2023-08-10 11:45:14.438966,-16.0
2023-08-10 11:45:14.446656,-11.0
2023-08-10 11:45:14.454346,0.0
2023-08-10 11:45:14.462035,-16.0
2023-08-10 11:45:14.469725,0.0
2023-08-10 11:45:14.477415,4.0
2023-08-10 11:45:14.485105,-19.0
2023-08-10 11:45:14.492794,-11.0
2023-08-10 11:45:14.500484,-21.0
2023-08-10 11:45:14.508174,-43.0
2023-08-10 11:45:14.515863,-26.0
2023-08-10 11:45:14.523553,-9.0
2023-08-10 11:45:14.531243,-19.0
2023-08-10 11:45:14.538933,-14.0
2023-08-10 11:45:14.546622,0.0
2023-08-10 11:45:14.554312,-2.0
2023-08-10 11:45:14.562002,-26.0
2023-08-10 11:45:14.569691,-31.0
2023-08-10 11:45:14.577381,-16.0
2023-08-10 11:45:14.585071,-19.0
2023-08-10 11:45:14.592761,-28.0
2023-08-10 11:45:14.600450,-21.0
2023-08-10 11:45:14.608140,-14.0
2023-08-10 11:45:14.615830,-9.0
2023-08-10 11:45:14.623519,4.0
2023-08-10 11:45:14.631209,2.0
2023-08-10 11:45:14.638899,-23.0
2023-08-10 11:45:14.646589,-45.0
2023-08-10 11:45:14.654278,-55.0
2023-08-10 11:45:14.661968,-55.0
2023-08-10 11:45:14.669658,-47.0
2023-08-10 11:45:14.677347,-43.0
2023-08-10 11:45:14.685037,-38.0
2023-08-10 11:45:14.692727,-19.0
2023-08-10 11:45:14.700416,-7.0
2023-08-10 11:45:14.708106,-4.0
2023-08-10 11:45:14.715796,-4.0
2023-08-10 11:45:14.723486,-16.0
2023-08-10 11:45:14.731175,-23.0
2023-08-10 11:45:14.738865,-19.0
2023-08-10 11:45:14.746555,-19.0
2023-08-10 11:45:14.754244,-16.0
2023-08-10 11:45:14.761934,0.0
2023-08-10 11:45:14.769624,-4.0
2023-08-10 11:45:14.777314,-124.0
2023-08-10 11:45:14.785003,-349.0
2023-08-10 11:45:14.792693,-545.0
2023-08-10 11:45:14.800383,-648.0
2023-08-10 11:45:14.808072,-526.0
2023-08-10 11:45:14.815762,-160.0
2023-08-10 11:45:14.823452,110.0
2023-08-10 11:45:14.831142,83.0
2023-08-10 11:45:14.838831,-19.0
2023-08-10 11:45:14.846521,0.0
2023-08-10 11:45:14.854211,38.0
2023-08-10 11:45:14.861900,26.0
2023-08-10 11:45:14.869590,23.0
2023-08-10 11:45:14.877280,26.0
2023-08-10 11:45:14.884970,7.0
2023-08-10 11:45:14.892659,0.0
2023-08-10 11:45:14.900349,11.0
2023-08-10 11:45:14.908039,-7.0
2023-08-10 11:45:14.915728,-28.0
2023-08-10 11:45:14.923418,-14.0
2023-08-10 11:45:14.931108,-11.0
2023-08-10 11:45:14.938798,-33.0
2023-08-10 11:45:14.946487,-52.0
2023-08-10 11:45:14.954177,-62.0
2023-08-10 11:45:14.961867,-64.0
2023-08-10 11:45:14.969556,-78.0
2023-08-10 11:45:14.977246,-107.0
2023-08-10 11:45:14.984936,-112.0
2023-08-10 11:45:14.992626,-95.0
2023-08-10 11:45:15.000315,-114.0
2023-08-10 11:45:15.008005,-155.0
2023-08-10 11:45:15.015695,-162.0
2023-08-10 11:45:15.023384,-165.0
2023-08-10 11:45:15.031074,-205.0
2023-08-10 11:45:15.038764,-234.0
2023-08-10 11:45:15.046454,-234.0
2023-08-10 11:45:15.054143,-253.0
2023-08-10 11:45:15.061833,-260.0
2023-08-10 11:45:15.069523,-236.0
2023-08-10 11:45:15.077212,-222.0
2023-08-10 11:45:15.084902,-198.0
2023-08-10 11:45:15.092592,-143.0
2023-08-10 11:45:15.100282,-100.0
2023-08-10 11:45:15.107971,-62.0
2023-08-10 11:45:15.115661,-2.0
2023-08-10 11:45:15.123351,38.0
2023-08-10 11:45:15.131040,40.0
2023-08-10 11:45:15.138730,50.0
2023-08-10 11:45:15.146420,74.0
2023-08-10 11:45:15.154110,74.0
2023-08-10 11:45:15.161799,55.0
2023-08-10 11:45:15.169489,50.0
2023-08-10 11:45:15.177179,52.0
2023-08-10 11:45:15.184868,28.0
2023-08-10 11:45:15.192558,23.0
2023-08-10 11:45:15.200248,62.0
2023-08-10 11:45:15.207938,55.0
2023-08-10 11:45:15.215627,23.0
2023-08-10 11:45:15.223317,23.0
2023-08-10 11:45:15.231007,19.0
2023-08-10 11:45:15.238696,11.0
2023-08-10 11:45:15.246386,33.0
2023-08-10 11:45:15.254076,35.0
2023-08-10 11:45:15.261766,0.0
2023-08-10 11:45:15.269455,-9.0
2023-08-10 11:45:15.277145,14.0
2023-08-10 11:45:15.284835,26.0
2023-08-10 11:45:15.292524,4.0
2023-08-10 11:45:15.300214,-4.0
2023-08-10 11:45:15.307904,14.0
2023-08-10 11:45:15.315594,19.0
2023-08-10 11:45:15.323283,-9.0
2023-08-10 11:45:15.330973,-16.0
2023-08-10 11:45:15.338663,0.0
2023-08-10 11:45:15.346352,-2.0
2023-08-10 11:45:15.354042,0.0
2023-08-10 11:45:15.361732,7.0
2023-08-10 11:45:15.369421,-9.0
2023-08-10 11:45:15.377111,-11.0
2023-08-10 11:45:15.384801,9.0
2023-08-10 11:45:15.392491,2.0
2023-08-10 11:45:15.400180,-14.0
2023-08-10 11:45:15.407870,-4.0
2023-08-10 11:45:15.415560,-7.0
2023-08-10 11:45:15.423249,-19.0
2023-08-10 11:45:15.430939,-7.0
2023-08-10 11:45:15.438629,2.0
2023-08-10 11:45:15.446319,0.0
2023-08-10 11:45:15.454008,-9.0
2023-08-10 11:45:15.461698,-16.0
2023-08-10 11:45:15.469388,-14.0
2023-08-10 11:45:15.477077,-16.0
2023-08-10 11:45:15.484767,-14.0
2023-08-10 11:45:15.492457,-19.0
2023-08-10 11:45:15.500147,-31.0
2023-08-10 11:45:15.507836,-19.0
2023-08-10 11:45:15.515526,-9.0
2023-08-10 11:45:15.523216,-11.0
2023-08-10 11:45:15.530905,-23.0
2023-08-10 11:45:15.538595,-43.0
2023-08-10 11:45:15.546285,-35.0
2023-08-10 11:45:15.553975,-28.0
2023-08-10 11:45:15.561664,-55.0
2023-08-10 11:45:15.569354,-62.0
2023-08-10 11:45:15.577044,-38.0
2023-08-10 11:45:15.584733,-47.0
2023-08-10 11:45:15.592423,-66.0
2023-08-10 11:45:15.600113,-59.0
2023-08-10 11:45:15.607803,-45.0
2023-08-10 11:45:15.615492,-26.0
2023-08-10 11:45:15.623182,-26.0
2023-08-10 11:45:15.630872,-47.0
2023-08-10 11:45:15.638561,-38.0
2023-08-10 11:45:15.646251,-21.0
2023-08-10 11:45:15.653941,-52.0
2023-08-10 11:45:15.661631,-57.0
2023-08-10 11:45:15.669320,-23.0
2023-08-10 11:45:15.677010,-52.0
2023-08-10 11:45:15.684700,-203.0
2023-08-10 11:45:15.692389,-416.0
2023-08-10 11:45:15.700079,-614.0
2023-08-10 11:45:15.707769,-703.0
2023-08-10 11:45:15.715459,-526.0
2023-08-10 11:45:15.723148,-136.0
2023-08-10 11:45:15.730838,102.0
2023-08-10 11:45:15.738528,55.0
2023-08-10 11:45:15.746217,-31.0
2023-08-10 11:45:15.753907,-9.0
2023-08-10 11:45:15.761597,14.0
2023-08-10 11:45:15.769287,-11.0
2023-08-10 11:45:15.776976,-16.0
2023-08-10 11:45:15.784666,0.0
2023-08-10 11:45:15.792356,-2.0
2023-08-10 11:45:15.800045,-19.0
2023-08-10 11:45:15.807735,-21.0
2023-08-10 11:45:15.815425,-31.0
2023-08-10 11:45:15.823115,-40.0
2023-08-10 11:45:15.830804,-33.0
2023-08-10 11:45:15.838494,-45.0
2023-08-10 11:45:15.846184,-64.0
2023-08-10 11:45:15.853873,-74.0
2023-08-10 11:45:15.861563,-90.0
2023-08-10 11:45:15.869253,-88.0
2023-08-10 11:45:15.876943,-76.0
2023-08-10 11:45:15.884632,-107.0
2023-08-10 11:45:15.892322,-138.0
2023-08-10 11:45:15.900012,-138.0
2023-08-10 11:45:15.907701,-136.0
2023-08-10 11:45:15.915391,-162.0
2023-08-10 11:45:15.923081,-196.0
2023-08-10 11:45:15.930771,-203.0
2023-08-10 11:45:15.938460,-208.0
2023-08-10 11:45:15.946150,-227.0
2023-08-10 11:45:15.953840,-256.0
2023-08-10 11:45:15.961529,-270.0
2023-08-10 11:45:15.969219,-270.0
2023-08-10 11:45:15.976909,-267.0
2023-08-10 11:45:15.984599,-248.0
2023-08-10 11:45:15.992288,-196.0
2023-08-10 11:45:15.999978,-133.0
2023-08-10 11:45:16.007668,-88.0
2023-08-10 11:45:16.015357,-31.0
2023-08-10 11:45:16.023047,23.0
2023-08-10 11:45:16.030737,26.0
2023-08-10 11:45:16.038427,31.0
2023-08-10 11:45:16.046116,62.0
2023-08-10 11:45:16.053806,59.0
2023-08-10 11:45:16.061496,50.0
2023-08-10 11:45:16.069185,66.0
2023-08-10 11:45:16.076875,76.0
2023-08-10 11:45:16.084565,62.0
2023-08-10 11:45:16.092254,50.0
2023-08-10 11:45:16.099944,45.0
2023-08-10 11:45:16.107634,35.0
2023-08-10 11:45:16.115324,28.0
2023-08-10 11:45:16.123013,33.0
2023-08-10 11:45:16.130703,35.0
2023-08-10 11:45:16.138393,26.0
2023-08-10 11:45:16.146082,19.0
2023-08-10 11:45:16.153772,21.0
2023-08-10 11:45:16.161462,23.0
2023-08-10 11:45:16.169152,9.0
2023-08-10 11:45:16.176841,-16.0
2023-08-10 11:45:16.184531,-9.0
2023-08-10 11:45:16.192221,14.0
2023-08-10 11:45:16.199910,2.0
2023-08-10 11:45:16.207600,-26.0
2023-08-10 11:45:16.215290,-14.0
2023-08-10 11:45:16.222980,16.0
2023-08-10 11:45:16.230669,4.0
2023-08-10 11:45:16.238359,-21.0
2023-08-10 11:45:16.246049,-23.0
2023-08-10 11:45:16.253738,-9.0
2023-08-10 11:45:16.261428,4.0
2023-08-10 11:45:16.269118,-2.0
2023-08-10 11:45:16.276808,-26.0
2023-08-10 11:45:16.284497,-23.0
2023-08-10 11:45:16.292187,2.0
2023-08-10 11:45:16.299877,2.0
2023-08-10 11:45:16.307566,-21.0
2023-08-10 11:45:16.315256,-23.0
2023-08-10 11:45:16.322946,-9.0
2023-08-10 11:45:16.330636,-11.0
2023-08-10 11:45:16.338325,-9.0
2023-08-10 11:45:16.346015,-2.0
2023-08-10 11:45:16.353705,-16.0
2023-08-10 11:45:16.361394,-23.0
2023-08-10 11:45:16.369084,-11.0
2023-08-10 11:45:16.376774,-14.0
2023-08-10 11:45:16.384464,-26.0
2023-08-10 11:45:16.392153,-23.0
2023-08-10 11:45:16.399843,-11.0
2023-08-10 11:45:16.407533,-11.0
2023-08-10 11:45:16.415222,-28.0
2023-08-10 11:45:16.422912,-26.0
2023-08-10 11:45:16.430602,2.0
2023-08-10 11:45:16.438292,-2.0
2023-08-10 11:45:16.445981,-35.0
2023-08-10 11:45:16.453671,-33.0
2023-08-10 11:45:16.461361,-4.0
2023-08-10 11:45:16.469050,-2.0
2023-08-10 11:45:16.476740,-16.0
2023-08-10 11:45:16.484430,-23.0
2023-08-10 11:45:16.492120,-33.0
2023-08-10 11:45:16.499809,-52.0
2023-08-10 11:45:16.507499,-50.0
2023-08-10 11:45:16.515189,-33.0
2023-08-10 11:45:16.522878,-33.0
2023-08-10 11:45:16.530568,-38.0
2023-08-10 11:45:16.538258,-38.0
2023-08-10 11:45:16.545948,-31.0
2023-08-10 11:45:16.553637,-21.0
2023-08-10 11:45:16.561327,-28.0
2023-08-10 11:45:16.569017,-16.0
2023-08-10 11:45:16.576706,11.0
2023-08-10 11:45:16.584396,4.0
2023-08-10 11:45:16.592086,-21.0
2023-08-10 11:45:16.599776,-26.0
2023-08-10 11:45:16.607465,-14.0
2023-08-10 11:45:16.615155,-14.0
2023-08-10 11:45:16.622845,-86.0
2023-08-10 11:45:16.630534,-263.0
2023-08-10 11:45:16.638224,-480.0
2023-08-10 11:45:16.645914,-650.0
2023-08-10 11:45:16.653604,-636.0
2023-08-10 11:45:16.661293,-322.0
2023-08-10 11:45:16.668983,55.0
2023-08-10 11:45:16.676673,136.0
2023-08-10 11:45:16.684362,2.0
2023-08-10 11:45:16.692052,-23.0
2023-08-10 11:45:16.699742,23.0
2023-08-10 11:45:16.707432,9.0
2023-08-10 11:45:16.715121,-4.0
2023-08-10 11:45:16.722811,4.0
2023-08-10 11:45:16.730501,-9.0
2023-08-10 11:45:16.738190,-16.0
2023-08-10 11:45:16.745880,-7.0
2023-08-10 11:45:16.753570,-16.0
2023-08-10 11:45:16.761259,-40.0
2023-08-10 11:45:16.768949,-40.0
2023-08-10 11:45:16.776639,-38.0
2023-08-10 11:45:16.784329,-59.0
2023-08-10 11:45:16.792018,-78.0
2023-08-10 11:45:16.799708,-66.0
2023-08-10 11:45:16.807398,-62.0
2023-08-10 11:45:16.815087,-90.0
2023-08-10 11:45:16.822777,-114.0
2023-08-10 11:45:16.830467,-112.0
2023-08-10 11:45:16.838157,-124.0
2023-08-10 11:45:16.845846,-150.0
2023-08-10 11:45:16.853536,-165.0
2023-08-10 11:45:16.861226,-181.0
2023-08-10 11:45:16.868915,-205.0
2023-08-10 11:45:16.876605,-210.0
2023-08-10 11:45:16.884295,-220.0
2023-08-10 11:45:16.891985,-248.0
2023-08-10 11:45:16.899674,-258.0
2023-08-10 11:45:16.907364,-260.0
2023-08-10 11:45:16.915054,-277.0
2023-08-10 11:45:16.922743,-272.0
2023-08-10 11:45:16.930433,-224.0
2023-08-10 11:45:16.938123,-167.0
2023-08-10 11:45:16.945813,-117.0
2023-08-10 11:45:16.953502,-59.0
2023-08-10 11:45:16.961192,-7.0
2023-08-10 11:45:16.968882,23.0
2023-08-10 11:45:16.976571,35.0
2023-08-10 11:45:16.984261,45.0
2023-08-10 11:45:16.991951,45.0
2023-08-10 11:45:16.999641,55.0
2023-08-10 11:45:17.007330,71.0
2023-08-10 11:45:17.015020,64.0
2023-08-10 11:45:17.022710,45.0
2023-08-10 11:45:17.030399,43.0
2023-08-10 11:45:17.038089,45.0
2023-08-10 11:45:17.045779,35.0
2023-08-10 11:45:17.053469,31.0
2023-08-10 11:45:17.061158,23.0
2023-08-10 11:45:17.068848,23.0
2023-08-10 11:45:17.076538,38.0
2023-08-10 11:45:17.084227,40.0
2023-08-10 11:45:17.091917,28.0
2023-08-10 11:45:17.099607,21.0
2023-08-10 11:45:17.107297,28.0
2023-08-10 11:45:17.114986,23.0
2023-08-10 11:45:17.122676,2.0
2023-08-10 11:45:17.130366,2.0
2023-08-10 11:45:17.138055,14.0
2023-08-10 11:45:17.145745,23.0
2023-08-10 11:45:17.153435,21.0
2023-08-10 11:45:17.161125,7.0
2023-08-10 11:45:17.168814,2.0
2023-08-10 11:45:17.176504,2.0
2023-08-10 11:45:17.184194,9.0
2023-08-10 11:45:17.191883,19.0
2023-08-10 11:45:17.199573,7.0
2023-08-10 11:45:17.207263,-7.0
2023-08-10 11:45:17.214953,-11.0
2023-08-10 11:45:17.222642,4.0
2023-08-10 11:45:17.230332,21.0
2023-08-10 11:45:17.238022,2.0
2023-08-10 11:45:17.245711,-21.0
2023-08-10 11:45:17.253401,-14.0
2023-08-10 11:45:17.261091,4.0
2023-08-10 11:45:17.268781,-2.0
2023-08-10 11:45:17.276470,-28.0
2023-08-10 11:45:17.284160,-28.0
2023-08-10 11:45:17.291850,-11.0
2023-08-10 11:45:17.299539,-16.0
2023-08-10 11:45:17.307229,-23.0
2023-08-10 11:45:17.314919,-9.0
2023-08-10 11:45:17.322609,-21.0
2023-08-10 11:45:17.330298,-43.0
2023-08-10 11:45:17.337988,-35.0
2023-08-10 11:45:17.345678,-14.0
2023-08-10 11:45:17.353367,-14.0
2023-08-10 11:45:17.361057,-38.0
2023-08-10 11:45:17.368747,-45.0
2023-08-10 11:45:17.376437,-33.0
2023-08-10 11:45:17.384126,-28.0
2023-08-10 11:45:17.391816,-28.0
2023-08-10 11:45:17.399506,-26.0
2023-08-10 11:45:17.407195,-26.0
2023-08-10 11:45:17.414885,-35.0
2023-08-10 11:45:17.422575,-31.0
2023-08-10 11:45:17.430265,-16.0
2023-08-10 11:45:17.437954,-26.0
2023-08-10 11:45:17.445644,-55.0
2023-08-10 11:45:17.453334,-69.0
2023-08-10 11:45:17.461023,-62.0
2023-08-10 11:45:17.468713,-52.0
2023-08-10 11:45:17.476403,-50.0
2023-08-10 11:45:17.484092,-62.0
2023-08-10 11:45:17.491782,-47.0
2023-08-10 11:45:17.499472,-33.0
2023-08-10 11:45:17.507162,-40.0
2023-08-10 11:45:17.514851,-23.0
2023-08-10 11:45:17.522541,-7.0
2023-08-10 11:45:17.530231,-26.0
2023-08-10 11:45:17.537920,-40.0
2023-08-10 11:45:17.545610,-45.0
2023-08-10 11:45:17.553300,-33.0
2023-08-10 11:45:17.560990,-21.0
2023-08-10 11:45:17.568679,-33.0
2023-08-10 11:45:17.576369,-81.0
2023-08-10 11:45:17.584059,-227.0
2023-08-10 11:45:17.591748,-466.0
2023-08-10 11:45:17.599438,-655.0
2023-08-10 11:45:17.607128,-674.0
2023-08-10 11:45:17.614818,-423.0
2023-08-10 11:45:17.622507,-38.0
2023-08-10 11:45:17.630197,114.0
2023-08-10 11:45:17.637887,16.0
2023-08-10 11:45:17.645576,-31.0
2023-08-10 11:45:17.653266,16.0
2023-08-10 11:45:17.660956,21.0
2023-08-10 11:45:17.668646,2.0
2023-08-10 11:45:17.676335,7.0
2023-08-10 11:45:17.684025,2.0
2023-08-10 11:45:17.691715,-16.0
2023-08-10 11:45:17.699404,-26.0
2023-08-10 11:45:17.707094,-43.0
2023-08-10 11:45:17.714784,-59.0
2023-08-10 11:45:17.722474,-47.0
2023-08-10 11:45:17.730163,-33.0
2023-08-10 11:45:17.737853,-57.0
2023-08-10 11:45:17.745543,-76.0
2023-08-10 11:45:17.753232,-62.0
2023-08-10 11:45:17.760922,-69.0
2023-08-10 11:45:17.768612,-98.0
2023-08-10 11:45:17.776302,-114.0
2023-08-10 11:45:17.783991,-124.0
2023-08-10 11:45:17.791681,-131.0
2023-08-10 11:45:17.799371,-145.0
2023-08-10 11:45:17.807060,-174.0
2023-08-10 11:45:17.814750,-193.0
2023-08-10 11:45:17.822440,-203.0
2023-08-10 11:45:17.830130,-217.0
2023-08-10 11:45:17.837819,-246.0
2023-08-10 11:45:17.845509,-275.0
2023-08-10 11:45:17.853199,-284.0
2023-08-10 11:45:17.860888,-284.0
2023-08-10 11:45:17.868578,-296.0
2023-08-10 11:45:17.876268,-315.0
2023-08-10 11:45:17.883958,-291.0
2023-08-10 11:45:17.891647,-212.0
2023-08-10 11:45:17.899337,-143.0
2023-08-10 11:45:17.907027,-105.0
2023-08-10 11:45:17.914716,-59.0
2023-08-10 11:45:17.922406,-11.0
2023-08-10 11:45:17.930096,16.0
2023-08-10 11:45:17.937786,23.0
2023-08-10 11:45:17.945475,26.0
2023-08-10 11:45:17.953165,35.0
2023-08-10 11:45:17.960855,50.0
2023-08-10 11:45:17.968544,50.0
2023-08-10 11:45:17.976234,31.0
2023-08-10 11:45:17.983924,26.0
2023-08-10 11:45:17.991614,33.0
2023-08-10 11:45:17.999303,28.0
2023-08-10 11:45:18.006993,21.0
2023-08-10 11:45:18.014683,23.0
2023-08-10 11:45:18.022372,19.0
2023-08-10 11:45:18.030062,-4.0
2023-08-10 11:45:18.037752,4.0
2023-08-10 11:45:18.045442,33.0
2023-08-10 11:45:18.053131,14.0
2023-08-10 11:45:18.060821,-7.0
2023-08-10 11:45:18.068511,11.0
2023-08-10 11:45:18.076200,9.0
2023-08-10 11:45:18.083890,-11.0
2023-08-10 11:45:18.091580,7.0
2023-08-10 11:45:18.099270,23.0
2023-08-10 11:45:18.106959,0.0
2023-08-10 11:45:18.114649,-14.0
2023-08-10 11:45:18.122339,2.0
2023-08-10 11:45:18.130028,14.0
2023-08-10 11:45:18.137718,4.0
2023-08-10 11:45:18.145408,-4.0
2023-08-10 11:45:18.153097,0.0
2023-08-10 11:45:18.160787,4.0
2023-08-10 11:45:18.168477,2.0
2023-08-10 11:45:18.176167,2.0
2023-08-10 11:45:18.183856,7.0
2023-08-10 11:45:18.191546,4.0
2023-08-10 11:45:18.199236,-4.0
2023-08-10 11:45:18.206925,-9.0
2023-08-10 11:45:18.214615,0.0
2023-08-10 11:45:18.222305,-2.0
2023-08-10 11:45:18.229995,-21.0
2023-08-10 11:45:18.237684,-23.0
2023-08-10 11:45:18.245374,0.0
2023-08-10 11:45:18.253064,9.0
2023-08-10 11:45:18.260753,-14.0
2023-08-10 11:45:18.268443,-35.0
2023-08-10 11:45:18.276133,-33.0
2023-08-10 11:45:18.283823,-16.0
2023-08-10 11:45:18.291512,-11.0
2023-08-10 11:45:18.299202,-16.0
2023-08-10 11:45:18.306892,-28.0
2023-08-10 11:45:18.314581,-40.0
2023-08-10 11:45:18.322271,-31.0
2023-08-10 11:45:18.329961,-28.0
2023-08-10 11:45:18.337651,-50.0
2023-08-10 11:45:18.345340,-50.0
2023-08-10 11:45:18.353030,-43.0
2023-08-10 11:45:18.360720,-52.0
2023-08-10 11:45:18.368409,-45.0
2023-08-10 11:45:18.376099,-28.0
2023-08-10 11:45:18.383789,-23.0
2023-08-10 11:45:18.391479,-19.0
2023-08-10 11:45:18.399168,-7.0
2023-08-10 11:45:18.406858,-2.0
2023-08-10 11:45:18.414548,-16.0
2023-08-10 11:45:18.422237,-38.0
2023-08-10 11:45:18.429927,-40.0
2023-08-10 11:45:18.437617,-26.0
2023-08-10 11:45:18.445307,-21.0
2023-08-10 11:45:18.452996,-64.0
2023-08-10 11:45:18.460686,-212.0
2023-08-10 11:45:18.468376,-447.0
2023-08-10 11:45:18.476065,-648.0
2023-08-10 11:45:18.483755,-686.0
2023-08-10 11:45:18.491445,-435.0
2023-08-10 11:45:18.499135,-23.0
2023-08-10 11:45:18.506824,141.0
2023-08-10 11:45:18.514514,21.0
2023-08-10 11:45:18.522204,-28.0
2023-08-10 11:45:18.529893,26.0
2023-08-10 11:45:18.537583,14.0
2023-08-10 11:45:18.545273,-7.0
2023-08-10 11:45:18.552963,7.0
2023-08-10 11:45:18.560652,4.0
2023-08-10 11:45:18.568342,-4.0
2023-08-10 11:45:18.576032,-4.0
2023-08-10 11:45:18.583721,-11.0
2023-08-10 11:45:18.591411,-14.0
2023-08-10 11:45:18.599101,-16.0
2023-08-10 11:45:18.606791,-28.0
2023-08-10 11:45:18.614480,-40.0
2023-08-10 11:45:18.622170,-52.0
2023-08-10 11:45:18.629860,-62.0
2023-08-10 11:45:18.637549,-57.0
2023-08-10 11:45:18.645239,-59.0
2023-08-10 11:45:18.652929,-90.0
2023-08-10 11:45:18.660619,-100.0
2023-08-10 11:45:18.668308,-88.0
2023-08-10 11:45:18.675998,-110.0
2023-08-10 11:45:18.683688,-138.0
2023-08-10 11:45:18.691377,-153.0
2023-08-10 11:45:18.699067,-167.0
2023-08-10 11:45:18.706757,-186.0
2023-08-10 11:45:18.714447,-200.0
2023-08-10 11:45:18.722136,-220.0
2023-08-10 11:45:18.729826,-246.0
2023-08-10 11:45:18.737516,-265.0
2023-08-10 11:45:18.745205,-272.0
2023-08-10 11:45:18.752895,-263.0
2023-08-10 11:45:18.760585,-222.0
2023-08-10 11:45:18.768275,-172.0
2023-08-10 11:45:18.775964,-124.0
2023-08-10 11:45:18.783654,-66.0
2023-08-10 11:45:18.791344,-19.0
2023-08-10 11:45:18.799033,16.0
2023-08-10 11:45:18.806723,45.0
2023-08-10 11:45:18.814413,52.0
2023-08-10 11:45:18.822103,52.0
2023-08-10 11:45:18.829792,52.0
2023-08-10 11:45:18.837482,43.0
2023-08-10 11:45:18.845172,33.0
2023-08-10 11:45:18.852861,43.0
2023-08-10 11:45:18.860551,57.0
2023-08-10 11:45:18.868241,40.0
2023-08-10 11:45:18.875930,23.0
2023-08-10 11:45:18.883620,26.0
2023-08-10 11:45:18.891310,38.0
2023-08-10 11:45:18.899000,43.0
2023-08-10 11:45:18.906689,26.0
2023-08-10 11:45:18.914379,11.0
2023-08-10 11:45:18.922069,21.0
2023-08-10 11:45:18.929758,16.0
2023-08-10 11:45:18.937448,-4.0
2023-08-10 11:45:18.945138,2.0
2023-08-10 11:45:18.952828,21.0
2023-08-10 11:45:18.960517,14.0
2023-08-10 11:45:18.968207,-4.0
2023-08-10 11:45:18.975897,-2.0
2023-08-10 11:45:18.983586,2.0
2023-08-10 11:45:18.991276,-11.0
2023-08-10 11:45:18.998966,-11.0
2023-08-10 11:45:19.006656,0.0
2023-08-10 11:45:19.014345,-21.0
2023-08-10 11:45:19.022035,-38.0
2023-08-10 11:45:19.029725,-4.0
2023-08-10 11:45:19.037414,9.0
2023-08-10 11:45:19.045104,-16.0
2023-08-10 11:45:19.052794,-19.0
2023-08-10 11:45:19.060484,-7.0
2023-08-10 11:45:19.068173,-16.0
2023-08-10 11:45:19.075863,-16.0
2023-08-10 11:45:19.083553,-4.0
2023-08-10 11:45:19.091242,-9.0
2023-08-10 11:45:19.098932,-28.0
2023-08-10 11:45:19.106622,-28.0
2023-08-10 11:45:19.114312,-11.0
2023-08-10 11:45:19.122001,-9.0
2023-08-10 11:45:19.129691,-14.0
2023-08-10 11:45:19.137381,-11.0
2023-08-10 11:45:19.145070,-19.0
2023-08-10 11:45:19.152760,-21.0
2023-08-10 11:45:19.160450,-19.0
2023-08-10 11:45:19.168140,-16.0
2023-08-10 11:45:19.175829,-19.0
2023-08-10 11:45:19.183519,-28.0
2023-08-10 11:45:19.191209,-35.0
2023-08-10 11:45:19.198898,-31.0
2023-08-10 11:45:19.206588,-21.0
2023-08-10 11:45:19.214278,-23.0
2023-08-10 11:45:19.221968,-21.0
2023-08-10 11:45:19.229657,-11.0
2023-08-10 11:45:19.237347,-26.0
2023-08-10 11:45:19.245037,-45.0
2023-08-10 11:45:19.252726,-33.0
2023-08-10 11:45:19.260416,-21.0
2023-08-10 11:45:19.268106,-31.0
2023-08-10 11:45:19.275796,-35.0
2023-08-10 11:45:19.283485,-35.0
2023-08-10 11:45:19.291175,-47.0
2023-08-10 11:45:19.298865,-64.0
2023-08-10 11:45:19.306554,-69.0
2023-08-10 11:45:19.314244,-57.0
2023-08-10 11:45:19.321934,-52.0
2023-08-10 11:45:19.329624,-57.0
2023-08-10 11:45:19.337313,-45.0
2023-08-10 11:45:19.345003,-33.0
2023-08-10 11:45:19.352693,-23.0
2023-08-10 11:45:19.360382,-21.0
2023-08-10 11:45:19.368072,-26.0
2023-08-10 11:45:19.375762,-31.0
2023-08-10 11:45:19.383452,-33.0
2023-08-10 11:45:19.391141,-35.0
2023-08-10 11:45:19.398831,-33.0
2023-08-10 11:45:19.406521,-28.0
2023-08-10 11:45:19.414210,-26.0
2023-08-10 11:45:19.421900,-93.0
2023-08-10 11:45:19.429590,-291.0
2023-08-10 11:45:19.437280,-528.0
2023-08-10 11:45:19.444969,-674.0
2023-08-10 11:45:19.452659,-622.0
2023-08-10 11:45:19.460349,-303.0
2023-08-10 11:45:19.468038,45.0
2023-08-10 11:45:19.475728,98.0
2023-08-10 11:45:19.483418,-19.0
2023-08-10 11:45:19.491108,-23.0
2023-08-10 11:45:19.498797,14.0
2023-08-10 11:45:19.506487,-7.0
2023-08-10 11:45:19.514177,-19.0
2023-08-10 11:45:19.521866,-11.0
2023-08-10 11:45:19.529556,-21.0
2023-08-10 11:45:19.537246,-33.0
2023-08-10 11:45:19.544935,-33.0
2023-08-10 11:45:19.552625,-35.0
2023-08-10 11:45:19.560315,-38.0
2023-08-10 11:45:19.568005,-43.0
2023-08-10 11:45:19.575694,-52.0
2023-08-10 11:45:19.583384,-59.0
2023-08-10 11:45:19.591074,-71.0
2023-08-10 11:45:19.598763,-86.0
2023-08-10 11:45:19.606453,-95.0
2023-08-10 11:45:19.614143,-100.0
2023-08-10 11:45:19.621833,-105.0
2023-08-10 11:45:19.629522,-117.0
2023-08-10 11:45:19.637212,-138.0
2023-08-10 11:45:19.644902,-155.0
2023-08-10 11:45:19.652591,-165.0
2023-08-10 11:45:19.660281,-184.0
2023-08-10 11:45:19.667971,-203.0
2023-08-10 11:45:19.675661,-217.0
2023-08-10 11:45:19.683350,-248.0
2023-08-10 11:45:19.691040,-275.0
2023-08-10 11:45:19.698730,-275.0
2023-08-10 11:45:19.706419,-275.0
2023-08-10 11:45:19.714109,-284.0
2023-08-10 11:45:19.721799,-287.0
2023-08-10 11:45:19.729489,-258.0
2023-08-10 11:45:19.737178,-203.0
2023-08-10 11:45:19.744868,-143.0
2023-08-10 11:45:19.752558,-93.0
2023-08-10 11:45:19.760247,-43.0
2023-08-10 11:45:19.767937,-11.0
2023-08-10 11:45:19.775627,-2.0
2023-08-10 11:45:19.783317,11.0
2023-08-10 11:45:19.791006,19.0
2023-08-10 11:45:19.798696,16.0
2023-08-10 11:45:19.806386,19.0
2023-08-10 11:45:19.814075,26.0
2023-08-10 11:45:19.821765,21.0
2023-08-10 11:45:19.829455,9.0
2023-08-10 11:45:19.837145,4.0
2023-08-10 11:45:19.844834,7.0
2023-08-10 11:45:19.852524,2.0
2023-08-10 11:45:19.860214,0.0
2023-08-10 11:45:19.867903,0.0
2023-08-10 11:45:19.875593,2.0
2023-08-10 11:45:19.883283,-4.0
2023-08-10 11:45:19.890973,-9.0
2023-08-10 11:45:19.898662,-7.0
2023-08-10 11:45:19.906352,-7.0
2023-08-10 11:45:19.914042,-14.0
2023-08-10 11:45:19.921731,-16.0
2023-08-10 11:45:19.929421,-9.0
2023-08-10 11:45:19.937111,-9.0
2023-08-10 11:45:19.944801,-19.0
2023-08-10 11:45:19.952490,-21.0
2023-08-10 11:45:19.960180,-19.0
2023-08-10 11:45:19.967870,-21.0
2023-08-10 11:45:19.975559,-19.0
2023-08-10 11:45:19.983249,-11.0
2023-08-10 11:45:19.990939,-19.0
2023-08-10 11:45:19.998629,-28.0
2023-08-10 11:45:20.006318,-23.0
2023-08-10 11:45:20.014008,-19.0
2023-08-10 11:45:20.021698,-21.0
2023-08-10 11:45:20.029387,-23.0
2023-08-10 11:45:20.037077,-23.0
2023-08-10 11:45:20.044767,-33.0
2023-08-10 11:45:20.052457,-43.0
2023-08-10 11:45:20.060146,-35.0
2023-08-10 11:45:20.067836,-26.0
2023-08-10 11:45:20.075526,-31.0
2023-08-10 11:45:20.083215,-35.0
2023-08-10 11:45:20.090905,-35.0
2023-08-10 11:45:20.098595,-38.0
2023-08-10 11:45:20.106285,-38.0
2023-08-10 11:45:20.113974,-33.0
2023-08-10 11:45:20.121664,-28.0
2023-08-10 11:45:20.129354,-33.0
2023-08-10 11:45:20.137043,-35.0
2023-08-10 11:45:20.144733,-35.0
2023-08-10 11:45:20.152423,-38.0
2023-08-10 11:45:20.160113,-40.0
2023-08-10 11:45:20.167802,-55.0
2023-08-10 11:45:20.175492,-69.0
2023-08-10 11:45:20.183182,-62.0
2023-08-10 11:45:20.190871,-52.0
2023-08-10 11:45:20.198561,-57.0
2023-08-10 11:45:20.206251,-57.0
2023-08-10 11:45:20.213941,-50.0
2023-08-10 11:45:20.221630,-47.0
2023-08-10 11:45:20.229320,-35.0
2023-08-10 11:45:20.237010,-21.0
2023-08-10 11:45:20.244699,-26.0
2023-08-10 11:45:20.252389,-33.0
2023-08-10 11:45:20.260079,-35.0
2023-08-10 11:45:20.267768,-38.0
2023-08-10 11:45:20.275458,-43.0
2023-08-10 11:45:20.283148,-43.0
2023-08-10 11:45:20.290838,-43.0
2023-08-10 11:45:20.298527,-124.0
2023-08-10 11:45:20.306217,-342.0
2023-08-10 11:45:20.313907,-576.0
2023-08-10 11:45:20.321596,-698.0
2023-08-10 11:45:20.329286,-581.0
2023-08-10 11:45:20.336976,-210.0
2023-08-10 11:45:20.344666,93.0
2023-08-10 11:45:20.352355,88.0
2023-08-10 11:45:20.360045,-21.0
2023-08-10 11:45:20.367735,-19.0
2023-08-10 11:45:20.375424,16.0
2023-08-10 11:45:20.383114,0.0
2023-08-10 11:45:20.390804,-9.0
2023-08-10 11:45:20.398494,0.0
2023-08-10 11:45:20.406183,-7.0
2023-08-10 11:45:20.413873,-16.0
2023-08-10 11:45:20.421563,-19.0
2023-08-10 11:45:20.429252,-23.0
2023-08-10 11:45:20.436942,-31.0
2023-08-10 11:45:20.444632,-38.0
2023-08-10 11:45:20.452322,-45.0
2023-08-10 11:45:20.460011,-52.0
2023-08-10 11:45:20.467701,-62.0
2023-08-10 11:45:20.475391,-71.0
2023-08-10 11:45:20.483080,-74.0
2023-08-10 11:45:20.490770,-86.0
2023-08-10 11:45:20.498460,-102.0
2023-08-10 11:45:20.506150,-107.0
2023-08-10 11:45:20.513839,-112.0
2023-08-10 11:45:20.521529,-129.0
2023-08-10 11:45:20.529219,-148.0
2023-08-10 11:45:20.536908,-165.0
2023-08-10 11:45:20.544598,-186.0
2023-08-10 11:45:20.552288,-208.0
2023-08-10 11:45:20.559978,-227.0
2023-08-10 11:45:20.567667,-241.0
2023-08-10 11:45:20.575357,-253.0
2023-08-10 11:45:20.583047,-263.0
2023-08-10 11:45:20.590736,-263.0
2023-08-10 11:45:20.598426,-246.0
2023-08-10 11:45:20.606116,-198.0
2023-08-10 11:45:20.613806,-138.0
2023-08-10 11:45:20.621495,-81.0
2023-08-10 11:45:20.629185,-33.0
2023-08-10 11:45:20.636875,4.0
2023-08-10 11:45:20.644564,33.0
2023-08-10 11:45:20.652254,50.0
2023-08-10 11:45:20.659944,55.0
2023-08-10 11:45:20.667634,55.0
2023-08-10 11:45:20.675323,50.0
2023-08-10 11:45:20.683013,40.0
2023-08-10 11:45:20.690703,38.0
2023-08-10 11:45:20.698392,40.0
2023-08-10 11:45:20.706082,35.0
2023-08-10 11:45:20.713772,26.0
2023-08-10 11:45:20.721462,23.0
2023-08-10 11:45:20.729151,23.0
2023-08-10 11:45:20.736841,26.0
2023-08-10 11:45:20.744531,23.0
2023-08-10 11:45:20.752220,21.0
2023-08-10 11:45:20.759910,11.0
2023-08-10 11:45:20.767600,7.0
2023-08-10 11:45:20.775290,11.0
2023-08-10 11:45:20.782979,9.0
2023-08-10 11:45:20.790669,0.0
2023-08-10 11:45:20.798359,2.0
2023-08-10 11:45:20.806048,7.0
2023-08-10 11:45:20.813738,4.0
2023-08-10 11:45:20.821428,7.0
2023-08-10 11:45:20.829118,9.0
2023-08-10 11:45:20.836807,7.0
2023-08-10 11:45:20.844497,-2.0
2023-08-10 11:45:20.852187,-4.0
2023-08-10 11:45:20.859876,0.0
2023-08-10 11:45:20.867566,0.0
2023-08-10 11:45:20.875256,-2.0
2023-08-10 11:45:20.882946,-4.0
2023-08-10 11:45:20.890635,-7.0
2023-08-10 11:45:20.898325,-7.0
2023-08-10 11:45:20.906015,-4.0
2023-08-10 11:45:20.913704,-2.0
2023-08-10 11:45:20.921394,-7.0
2023-08-10 11:45:20.929084,-11.0
2023-08-10 11:45:20.936773,-14.0
2023-08-10 11:45:20.944463,-14.0
2023-08-10 11:45:20.952153,-11.0
2023-08-10 11:45:20.959843,-9.0
2023-08-10 11:45:20.967532,-11.0
2023-08-10 11:45:20.975222,-14.0
2023-08-10 11:45:20.982912,-11.0
2023-08-10 11:45:20.990601,-14.0
2023-08-10 11:45:20.998291,-19.0
2023-08-10 11:45:21.005981,-23.0
2023-08-10 11:45:21.013671,-21.0
2023-08-10 11:45:21.021360,-16.0
2023-08-10 11:45:21.029050,-21.0
2023-08-10 11:45:21.036740,-23.0
2023-08-10 11:45:21.044429,-14.0
2023-08-10 11:45:21.052119,-19.0
2023-08-10 11:45:21.059809,-21.0
2023-08-10 11:45:21.067499,-14.0
2023-08-10 11:45:21.075188,-16.0
2023-08-10 11:45:21.082878,-26.0
2023-08-10 11:45:21.090568,-26.0
2023-08-10 11:45:21.098257,-26.0
2023-08-10 11:45:21.105947,-28.0
2023-08-10 11:45:21.113637,-21.0
2023-08-10 11:45:21.121327,-19.0
2023-08-10 11:45:21.129016,-31.0
2023-08-10 11:45:21.136706,-40.0
2023-08-10 11:45:21.144396,-47.0
2023-08-10 11:45:21.152085,-50.0
2023-08-10 11:45:21.159775,-50.0
2023-08-10 11:45:21.167465,-47.0
2023-08-10 11:45:21.175155,-45.0
2023-08-10 11:45:21.182844,-35.0
2023-08-10 11:45:21.190534,-21.0
2023-08-10 11:45:21.198224,-16.0
2023-08-10 11:45:21.205913,-28.0
2023-08-10 11:45:21.213603,-43.0
2023-08-10 11:45:21.221293,-43.0
2023-08-10 11:45:21.228983,-31.0
2023-08-10 11:45:21.236672,-26.0
2023-08-10 11:45:21.244362,-38.0
2023-08-10 11:45:21.252052,-43.0
2023-08-10 11:45:21.259741,-45.0
2023-08-10 11:45:21.267431,-133.0
2023-08-10 11:45:21.275121,-346.0
2023-08-10 11:45:21.282811,-564.0
2023-08-10 11:45:21.290500,-686.0
2023-08-10 11:45:21.298190,-588.0
2023-08-10 11:45:21.305880,-224.0
2023-08-10 11:45:21.313569,78.0
2023-08-10 11:45:21.321259,55.0
2023-08-10 11:45:21.328949,-59.0
2023-08-10 11:45:21.336639,-28.0
2023-08-10 11:45:21.344328,14.0
2023-08-10 11:45:21.352018,-16.0
2023-08-10 11:45:21.359708,-21.0
2023-08-10 11:45:21.367397,0.0
2023-08-10 11:45:21.375087,-11.0
2023-08-10 11:45:21.382777,-28.0
2023-08-10 11:45:21.390467,-28.0
2023-08-10 11:45:21.398156,-31.0
2023-08-10 11:45:21.405846,-43.0
2023-08-10 11:45:21.413536,-43.0
2023-08-10 11:45:21.421225,-38.0
2023-08-10 11:45:21.428915,-52.0
2023-08-10 11:45:21.436605,-66.0
2023-08-10 11:45:21.444295,-71.0
2023-08-10 11:45:21.451984,-76.0
2023-08-10 11:45:21.459674,-88.0
2023-08-10 11:45:21.467364,-102.0
2023-08-10 11:45:21.475053,-112.0
2023-08-10 11:45:21.482743,-122.0
2023-08-10 11:45:21.490433,-131.0
2023-08-10 11:45:21.498123,-148.0
2023-08-10 11:45:21.505812,-169.0
2023-08-10 11:45:21.513502,-189.0
2023-08-10 11:45:21.521192,-205.0
2023-08-10 11:45:21.528881,-220.0
2023-08-10 11:45:21.536571,-239.0
2023-08-10 11:45:21.544261,-253.0
2023-08-10 11:45:21.551951,-258.0
2023-08-10 11:45:21.559640,-260.0
2023-08-10 11:45:21.567330,-248.0
2023-08-10 11:45:21.575020,-210.0
2023-08-10 11:45:21.582709,-148.0
2023-08-10 11:45:21.590399,-83.0
2023-08-10 11:45:21.598089,-31.0
2023-08-10 11:45:21.605779,7.0
2023-08-10 11:45:21.613468,31.0
2023-08-10 11:45:21.621158,45.0
2023-08-10 11:45:21.628848,57.0
2023-08-10 11:45:21.636537,66.0
2023-08-10 11:45:21.644227,66.0
2023-08-10 11:45:21.651917,62.0
2023-08-10 11:45:21.659606,57.0
2023-08-10 11:45:21.667296,52.0
2023-08-10 11:45:21.674986,52.0
2023-08-10 11:45:21.682676,50.0
2023-08-10 11:45:21.690365,43.0
2023-08-10 11:45:21.698055,38.0
2023-08-10 11:45:21.705745,35.0
2023-08-10 11:45:21.713434,33.0
2023-08-10 11:45:21.721124,31.0
2023-08-10 11:45:21.728814,26.0
2023-08-10 11:45:21.736504,23.0
2023-08-10 11:45:21.744193,21.0
2023-08-10 11:45:21.751883,11.0
2023-08-10 11:45:21.759573,2.0
2023-08-10 11:45:21.767262,2.0
2023-08-10 11:45:21.774952,4.0
2023-08-10 11:45:21.782642,2.0
2023-08-10 11:45:21.790332,-7.0
2023-08-10 11:45:21.798021,-16.0
2023-08-10 11:45:21.805711,-16.0
2023-08-10 11:45:21.813401,-11.0
2023-08-10 11:45:21.821090,-16.0
2023-08-10 11:45:21.828780,-19.0
2023-08-10 11:45:21.836470,-14.0
2023-08-10 11:45:21.844160,-16.0
2023-08-10 11:45:21.851849,-14.0
2023-08-10 11:45:21.859539,-11.0
2023-08-10 11:45:21.867229,-16.0
2023-08-10 11:45:21.874918,-19.0
2023-08-10 11:45:21.882608,-14.0
2023-08-10 11:45:21.890298,-16.0
2023-08-10 11:45:21.897988,-21.0
2023-08-10 11:45:21.905677,-19.0
2023-08-10 11:45:21.913367,-16.0
2023-08-10 11:45:21.921057,-14.0
2023-08-10 11:45:21.928746,-11.0
2023-08-10 11:45:21.936436,-16.0
2023-08-10 11:45:21.944126,-21.0
2023-08-10 11:45:21.951816,-23.0
2023-08-10 11:45:21.959505,-23.0
2023-08-10 11:45:21.967195,-26.0
2023-08-10 11:45:21.974885,-23.0
2023-08-10 11:45:21.982574,-19.0
2023-08-10 11:45:21.990264,-21.0
2023-08-10 11:45:21.997954,-23.0
2023-08-10 11:45:22.005644,-19.0
2023-08-10 11:45:22.013333,-19.0
2023-08-10 11:45:22.021023,-23.0
2023-08-10 11:45:22.028713,-26.0
2023-08-10 11:45:22.036402,-28.0
2023-08-10 11:45:22.044092,-43.0
2023-08-10 11:45:22.051782,-57.0
2023-08-10 11:45:22.059472,-45.0
2023-08-10 11:45:22.067161,-35.0
2023-08-10 11:45:22.074851,-47.0
2023-08-10 11:45:22.082541,-45.0
2023-08-10 11:45:22.090230,-33.0
2023-08-10 11:45:22.097920,-23.0
2023-08-10 11:45:22.105610,-14.0
2023-08-10 11:45:22.113300,-9.0
2023-08-10 11:45:22.120989,-16.0
2023-08-10 11:45:22.128679,-19.0
2023-08-10 11:45:22.136369,-16.0
2023-08-10 11:45:22.144058,-16.0
2023-08-10 11:45:22.151748,-14.0
2023-08-10 11:45:22.159438,-14.0
2023-08-10 11:45:22.167128,-26.0
2023-08-10 11:45:22.174817,-119.0
2023-08-10 11:45:22.182507,-339.0
2023-08-10 11:45:22.190197,-571.0
2023-08-10 11:45:22.197886,-684.0
2023-08-10 11:45:22.205576,-555.0
2023-08-10 11:45:22.213266,-177.0
2023-08-10 11:45:22.220956,114.0
2023-08-10 11:45:22.228645,86.0
2023-08-10 11:45:22.236335,-23.0
2023-08-10 11:45:22.244025,-2.0
2023-08-10 11:45:22.251714,35.0
2023-08-10 11:45:22.259404,11.0
2023-08-10 11:45:22.267094,-2.0
2023-08-10 11:45:22.274784,7.0
2023-08-10 11:45:22.282473,0.0
2023-08-10 11:45:22.290163,-11.0
2023-08-10 11:45:22.297853,-16.0
2023-08-10 11:45:22.305542,-19.0
2023-08-10 11:45:22.313232,-23.0
2023-08-10 11:45:22.320922,-31.0
2023-08-10 11:45:22.328611,-40.0
2023-08-10 11:45:22.336301,-52.0
2023-08-10 11:45:22.343991,-64.0
2023-08-10 11:45:22.351681,-66.0
2023-08-10 11:45:22.359370,-76.0
2023-08-10 11:45:22.367060,-90.0
2023-08-10 11:45:22.374750,-98.0
2023-08-10 11:45:22.382439,-110.0
2023-08-10 11:45:22.390129,-129.0
2023-08-10 11:45:22.397819,-145.0
2023-08-10 11:45:22.405509,-155.0
2023-08-10 11:45:22.413198,-177.0
2023-08-10 11:45:22.420888,-200.0
2023-08-10 11:45:22.428578,-222.0
2023-08-10 11:45:22.436267,-241.0
2023-08-10 11:45:22.443957,-260.0
2023-08-10 11:45:22.451647,-275.0
2023-08-10 11:45:22.459337,-287.0
2023-08-10 11:45:22.467026,-289.0
2023-08-10 11:45:22.474716,-263.0
2023-08-10 11:45:22.482406,-208.0
2023-08-10 11:45:22.490095,-148.0
2023-08-10 11:45:22.497785,-93.0
2023-08-10 11:45:22.505475,-38.0
2023-08-10 11:45:22.513165,2.0
2023-08-10 11:45:22.520854,26.0
2023-08-10 11:45:22.528544,43.0
2023-08-10 11:45:22.536234,52.0
2023-08-10 11:45:22.543923,52.0
2023-08-10 11:45:22.551613,52.0
2023-08-10 11:45:22.559303,47.0
2023-08-10 11:45:22.566993,45.0
2023-08-10 11:45:22.574682,45.0
2023-08-10 11:45:22.582372,45.0
2023-08-10 11:45:22.590062,38.0
2023-08-10 11:45:22.597751,35.0
2023-08-10 11:45:22.605441,33.0
2023-08-10 11:45:22.613131,31.0
2023-08-10 11:45:22.620821,31.0
2023-08-10 11:45:22.628510,28.0
2023-08-10 11:45:22.636200,23.0
2023-08-10 11:45:22.643890,16.0
2023-08-10 11:45:22.651579,14.0
2023-08-10 11:45:22.659269,16.0
2023-08-10 11:45:22.666959,14.0
2023-08-10 11:45:22.674649,9.0
2023-08-10 11:45:22.682338,7.0
2023-08-10 11:45:22.690028,7.0
2023-08-10 11:45:22.697718,4.0
2023-08-10 11:45:22.705407,4.0
2023-08-10 11:45:22.713097,9.0
2023-08-10 11:45:22.720787,7.0
2023-08-10 11:45:22.728477,0.0
2023-08-10 11:45:22.736166,-2.0
2023-08-10 11:45:22.743856,0.0
2023-08-10 11:45:22.751546,-2.0
2023-08-10 11:45:22.759235,-2.0
2023-08-10 11:45:22.766925,0.0
2023-08-10 11:45:22.774615,-4.0
2023-08-10 11:45:22.782305,-9.0
2023-08-10 11:45:22.789994,-7.0
2023-08-10 11:45:22.797684,-9.0
2023-08-10 11:45:22.805374,-14.0
2023-08-10 11:45:22.813063,-14.0
2023-08-10 11:45:22.820753,-11.0
2023-08-10 11:45:22.828443,-14.0
2023-08-10 11:45:22.836133,-14.0
2023-08-10 11:45:22.843822,-11.0
2023-08-10 11:45:22.851512,-14.0
2023-08-10 11:45:22.859202,-16.0
2023-08-10 11:45:22.866891,-14.0
2023-08-10 11:45:22.874581,-16.0
2023-08-10 11:45:22.882271,-26.0
2023-08-10 11:45:22.889961,-31.0
2023-08-10 11:45:22.897650,-31.0
2023-08-10 11:45:22.905340,-26.0
2023-08-10 11:45:22.913030,-23.0
2023-08-10 11:45:22.920719,-26.0
2023-08-10 11:45:22.928409,-33.0
2023-08-10 11:45:22.936099,-43.0
2023-08-10 11:45:22.943789,-55.0
2023-08-10 11:45:22.951478,-59.0
2023-08-10 11:45:22.959168,-45.0
2023-08-10 11:45:22.966858,-43.0
2023-08-10 11:45:22.974547,-52.0
2023-08-10 11:45:22.982237,-52.0
2023-08-10 11:45:22.989927,-38.0
2023-08-10 11:45:22.997617,-26.0
2023-08-10 11:45:23.005306,-16.0
2023-08-10 11:45:23.012996,-14.0
2023-08-10 11:45:23.020686,-16.0
2023-08-10 11:45:23.028375,-16.0
2023-08-10 11:45:23.036065,-16.0
2023-08-10 11:45:23.043755,-19.0
2023-08-10 11:45:23.051444,-21.0
2023-08-10 11:45:23.059134,-21.0
2023-08-10 11:45:23.066824,-43.0
2023-08-10 11:45:23.074514,-177.0
2023-08-10 11:45:23.082203,-413.0
2023-08-10 11:45:23.089893,-626.0
2023-08-10 11:45:23.097583,-693.0
2023-08-10 11:45:23.105272,-473.0
2023-08-10 11:45:23.112962,-52.0
2023-08-10 11:45:23.120652,141.0
2023-08-10 11:45:23.128342,35.0
2023-08-10 11:45:23.136031,-26.0
2023-08-10 11:45:23.143721,23.0
2023-08-10 11:45:23.151411,31.0
2023-08-10 11:45:23.159100,7.0
2023-08-10 11:45:23.166790,14.0
2023-08-10 11:45:23.174480,14.0
2023-08-10 11:45:23.182170,0.0
2023-08-10 11:45:23.189859,-2.0
2023-08-10 11:45:23.197549,-4.0
2023-08-10 11:45:23.205239,-14.0
2023-08-10 11:45:23.212928,-19.0
2023-08-10 11:45:23.220618,-21.0
2023-08-10 11:45:23.228308,-28.0
2023-08-10 11:45:23.235998,-40.0
2023-08-10 11:45:23.243687,-50.0
2023-08-10 11:45:23.251377,-57.0
2023-08-10 11:45:23.259067,-62.0
2023-08-10 11:45:23.266756,-71.0
2023-08-10 11:45:23.274446,-86.0
2023-08-10 11:45:23.282136,-102.0
2023-08-10 11:45:23.289826,-117.0
2023-08-10 11:45:23.297515,-131.0
2023-08-10 11:45:23.305205,-145.0
2023-08-10 11:45:23.312895,-162.0
2023-08-10 11:45:23.320584,-184.0
2023-08-10 11:45:23.328274,-208.0
2023-08-10 11:45:23.335964,-220.0
2023-08-10 11:45:23.343654,-232.0
2023-08-10 11:45:23.351343,-248.0
2023-08-10 11:45:23.359033,-260.0
2023-08-10 11:45:23.366723,-251.0
2023-08-10 11:45:23.374412,-217.0
2023-08-10 11:45:23.382102,-162.0
2023-08-10 11:45:23.389792,-102.0
2023-08-10 11:45:23.397482,-50.0
2023-08-10 11:45:23.405171,-11.0
2023-08-10 11:45:23.412861,19.0
2023-08-10 11:45:23.420551,35.0
2023-08-10 11:45:23.428240,43.0
2023-08-10 11:45:23.435930,50.0
2023-08-10 11:45:23.443620,55.0
2023-08-10 11:45:23.451310,55.0
2023-08-10 11:45:23.458999,52.0
2023-08-10 11:45:23.466689,50.0
2023-08-10 11:45:23.474379,45.0
2023-08-10 11:45:23.482068,40.0
2023-08-10 11:45:23.489758,33.0
2023-08-10 11:45:23.497448,26.0
2023-08-10 11:45:23.505138,21.0
2023-08-10 11:45:23.512827,19.0
2023-08-10 11:45:23.520517,16.0
2023-08-10 11:45:23.528207,14.0
2023-08-10 11:45:23.535896,16.0
2023-08-10 11:45:23.543586,11.0
2023-08-10 11:45:23.551276,2.0
2023-08-10 11:45:23.558966,0.0
2023-08-10 11:45:23.566655,7.0
2023-08-10 11:45:23.574345,7.0
2023-08-10 11:45:23.582035,2.0
2023-08-10 11:45:23.589724,0.0
2023-08-10 11:45:23.597414,0.0
2023-08-10 11:45:23.605104,-2.0
2023-08-10 11:45:23.612794,0.0
2023-08-10 11:45:23.620483,0.0
2023-08-10 11:45:23.628173,-2.0
2023-08-10 11:45:23.635863,-2.0
2023-08-10 11:45:23.643552,-4.0
2023-08-10 11:45:23.651242,-11.0
2023-08-10 11:45:23.658932,-14.0
2023-08-10 11:45:23.666622,-14.0
2023-08-10 11:45:23.674311,-16.0
2023-08-10 11:45:23.682001,-14.0
2023-08-10 11:45:23.689691,-14.0
2023-08-10 11:45:23.697380,-23.0
2023-08-10 11:45:23.705070,-23.0
2023-08-10 11:45:23.712760,-14.0
2023-08-10 11:45:23.720449,-16.0
2023-08-10 11:45:23.728139,-23.0
2023-08-10 11:45:23.735829,-19.0
2023-08-10 11:45:23.743519,-14.0
2023-08-10 11:45:23.751208,-16.0
2023-08-10 11:45:23.758898,-19.0
2023-08-10 11:45:23.766588,-16.0
2023-08-10 11:45:23.774277,-21.0
2023-08-10 11:45:23.781967,-31.0
2023-08-10 11:45:23.789657,-33.0
2023-08-10 11:45:23.797347,-28.0
2023-08-10 11:45:23.805036,-26.0
2023-08-10 11:45:23.812726,-28.0
2023-08-10 11:45:23.820416,-31.0
2023-08-10 11:45:23.828105,-35.0
2023-08-10 11:45:23.835795,-35.0
2023-08-10 11:45:23.843485,-31.0
2023-08-10 11:45:23.851175,-33.0
2023-08-10 11:45:23.858864,-38.0
2023-08-10 11:45:23.866554,-35.0
2023-08-10 11:45:23.874244,-33.0
2023-08-10 11:45:23.881933,-33.0
2023-08-10 11:45:23.889623,-33.0
2023-08-10 11:45:23.897313,-31.0
2023-08-10 11:45:23.905003,-31.0
2023-08-10 11:45:23.912692,-33.0
2023-08-10 11:45:23.920382,-35.0
2023-08-10 11:45:23.928072,-43.0
2023-08-10 11:45:23.935761,-52.0
2023-08-10 11:45:23.943451,-59.0
2023-08-10 11:45:23.951141,-57.0
2023-08-10 11:45:23.958831,-57.0
2023-08-10 11:45:23.966520,-57.0
2023-08-10 11:45:23.974210,-52.0
2023-08-10 11:45:23.981900,-45.0
2023-08-10 11:45:23.989589,-40.0
2023-08-10 11:45:23.997279,-35.0
2023-08-10 11:45:24.004969,-38.0
2023-08-10 11:45:24.012659,-38.0
2023-08-10 11:45:24.020348,-35.0
2023-08-10 11:45:24.028038,-38.0
2023-08-10 11:45:24.035728,-40.0
2023-08-10 11:45:24.043417,-38.0
2023-08-10 11:45:24.051107,-40.0
2023-08-10 11:45:24.058797,-43.0
2023-08-10 11:45:24.066487,-105.0
2023-08-10 11:45:24.074176,-287.0
2023-08-10 11:45:24.081866,-519.0
2023-08-10 11:45:24.089556,-691.0
2023-08-10 11:45:24.097245,-657.0
2023-08-10 11:45:24.104935,-311.0
2023-08-10 11:45:24.112625,57.0
2023-08-10 11:45:24.120315,86.0
2023-08-10 11:45:24.128004,-38.0
2023-08-10 11:45:24.135694,-26.0
2023-08-10 11:45:24.143384,23.0
2023-08-10 11:45:24.151073,0.0
2023-08-10 11:45:24.158763,-7.0
2023-08-10 11:45:24.166453,14.0
2023-08-10 11:45:24.174143,11.0
2023-08-10 11:45:24.181832,-14.0
2023-08-10 11:45:24.189522,-38.0
2023-08-10 11:45:24.197212,-43.0
2023-08-10 11:45:24.204901,-33.0
2023-08-10 11:45:24.212591,-35.0
2023-08-10 11:45:24.220281,-57.0
2023-08-10 11:45:24.227971,-74.0
2023-08-10 11:45:24.235660,-71.0
2023-08-10 11:45:24.243350,-74.0
2023-08-10 11:45:24.251040,-86.0
2023-08-10 11:45:24.258729,-90.0
2023-08-10 11:45:24.266419,-98.0
2023-08-10 11:45:24.274109,-117.0
2023-08-10 11:45:24.281799,-138.0
2023-08-10 11:45:24.289488,-162.0
2023-08-10 11:45:24.297178,-179.0
2023-08-10 11:45:24.304868,-191.0
2023-08-10 11:45:24.312557,-205.0
2023-08-10 11:45:24.320247,-227.0
2023-08-10 11:45:24.327937,-244.0
2023-08-10 11:45:24.335627,-256.0
2023-08-10 11:45:24.343316,-267.0
2023-08-10 11:45:24.351006,-291.0
2023-08-10 11:45:24.358696,-301.0
2023-08-10 11:45:24.366385,-277.0
2023-08-10 11:45:24.374075,-234.0
2023-08-10 11:45:24.381765,-186.0
2023-08-10 11:45:24.389455,-131.0
2023-08-10 11:45:24.397144,-83.0
2023-08-10 11:45:24.404834,-43.0
2023-08-10 11:45:24.412524,-9.0
2023-08-10 11:45:24.420213,16.0
2023-08-10 11:45:24.427903,26.0
2023-08-10 11:45:24.435593,35.0
2023-08-10 11:45:24.443282,43.0
2023-08-10 11:45:24.450972,40.0
2023-08-10 11:45:24.458662,38.0
2023-08-10 11:45:24.466352,35.0
2023-08-10 11:45:24.474041,23.0
2023-08-10 11:45:24.481731,19.0
2023-08-10 11:45:24.489421,21.0
2023-08-10 11:45:24.497110,21.0
2023-08-10 11:45:24.504800,19.0
2023-08-10 11:45:24.512490,19.0
2023-08-10 11:45:24.520180,21.0
2023-08-10 11:45:24.527869,19.0
2023-08-10 11:45:24.535559,11.0
2023-08-10 11:45:24.543249,4.0
2023-08-10 11:45:24.550938,9.0
2023-08-10 11:45:24.558628,14.0
2023-08-10 11:45:24.566318,14.0
2023-08-10 11:45:24.574008,11.0
2023-08-10 11:45:24.581697,9.0
2023-08-10 11:45:24.589387,-4.0
2023-08-10 11:45:24.597077,-11.0
2023-08-10 11:45:24.604766,-9.0
2023-08-10 11:45:24.612456,-7.0
2023-08-10 11:45:24.620146,0.0
2023-08-10 11:45:24.627836,2.0
2023-08-10 11:45:24.635525,-16.0
2023-08-10 11:45:24.643215,-31.0
2023-08-10 11:45:24.650905,-19.0
2023-08-10 11:45:24.658594,-19.0
2023-08-10 11:45:24.666284,-33.0
2023-08-10 11:45:24.673974,-31.0
2023-08-10 11:45:24.681664,-26.0
2023-08-10 11:45:24.689353,-26.0
2023-08-10 11:45:24.697043,-16.0
2023-08-10 11:45:24.704733,-19.0
2023-08-10 11:45:24.712422,-38.0
2023-08-10 11:45:24.720112,-40.0
2023-08-10 11:45:24.727802,-28.0
2023-08-10 11:45:24.735492,-26.0
2023-08-10 11:45:24.743181,-31.0
2023-08-10 11:45:24.750871,-28.0
2023-08-10 11:45:24.758561,-28.0
2023-08-10 11:45:24.766250,-35.0
2023-08-10 11:45:24.773940,-38.0
2023-08-10 11:45:24.781630,-31.0
2023-08-10 11:45:24.789320,-31.0
2023-08-10 11:45:24.797009,-35.0
2023-08-10 11:45:24.804699,-38.0
2023-08-10 11:45:24.812389,-40.0
2023-08-10 11:45:24.820078,-43.0
2023-08-10 11:45:24.827768,-43.0
2023-08-10 11:45:24.835458,-40.0
2023-08-10 11:45:24.843148,-33.0
2023-08-10 11:45:24.850837,-35.0
2023-08-10 11:45:24.858527,-50.0
2023-08-10 11:45:24.866217,-62.0
2023-08-10 11:45:24.873906,-64.0
2023-08-10 11:45:24.881596,-59.0
2023-08-10 11:45:24.889286,-57.0
2023-08-10 11:45:24.896976,-66.0
2023-08-10 11:45:24.904665,-62.0
2023-08-10 11:45:24.912355,-45.0
2023-08-10 11:45:24.920045,-40.0
2023-08-10 11:45:24.927734,-43.0
2023-08-10 11:45:24.935424,-33.0
2023-08-10 11:45:24.943114,-26.0
2023-08-10 11:45:24.950804,-26.0
2023-08-10 11:45:24.958493,-28.0
2023-08-10 11:45:24.966183,-33.0
2023-08-10 11:45:24.973873,-31.0
2023-08-10 11:45:24.981562,-26.0
2023-08-10 11:45:24.989252,-43.0
2023-08-10 11:45:24.996942,-157.0
2023-08-10 11:45:25.004632,-380.0
2023-08-10 11:45:25.012321,-602.0
2023-08-10 11:45:25.020011,-693.0
2023-08-10 11:45:25.027701,-512.0
2023-08-10 11:45:25.035390,-114.0
2023-08-10 11:45:25.043080,119.0
2023-08-10 11:45:25.050770,62.0
2023-08-10 11:45:25.058460,-14.0
2023-08-10 11:45:25.066149,7.0
2023-08-10 11:45:25.073839,23.0
2023-08-10 11:45:25.081529,4.0
2023-08-10 11:45:25.089218,7.0
2023-08-10 11:45:25.096908,11.0
2023-08-10 11:45:25.104598,2.0
2023-08-10 11:45:25.112287,-7.0
2023-08-10 11:45:25.119977,-11.0
2023-08-10 11:45:25.127667,-26.0
2023-08-10 11:45:25.135357,-40.0
2023-08-10 11:45:25.143046,-45.0
2023-08-10 11:45:25.150736,-47.0
2023-08-10 11:45:25.158426,-52.0
2023-08-10 11:45:25.166115,-64.0
2023-08-10 11:45:25.173805,-74.0
2023-08-10 11:45:25.181495,-81.0
2023-08-10 11:45:25.189185,-88.0
2023-08-10 11:45:25.196874,-100.0
2023-08-10 11:45:25.204564,-114.0
2023-08-10 11:45:25.212254,-124.0
2023-08-10 11:45:25.219943,-138.0
2023-08-10 11:45:25.227633,-162.0
2023-08-10 11:45:25.235323,-179.0
2023-08-10 11:45:25.243013,-193.0
2023-08-10 11:45:25.250702,-217.0
2023-08-10 11:45:25.258392,-239.0
2023-08-10 11:45:25.266082,-251.0
2023-08-10 11:45:25.273771,-263.0
2023-08-10 11:45:25.281461,-272.0
2023-08-10 11:45:25.289151,-270.0
2023-08-10 11:45:25.296841,-251.0
2023-08-10 11:45:25.304530,-205.0
2023-08-10 11:45:25.312220,-143.0
2023-08-10 11:45:25.319910,-81.0
2023-08-10 11:45:25.327599,-31.0
2023-08-10 11:45:25.335289,7.0
2023-08-10 11:45:25.342979,35.0
2023-08-10 11:45:25.350669,47.0
2023-08-10 11:45:25.358358,52.0
2023-08-10 11:45:25.366048,57.0
2023-08-10 11:45:25.373738,62.0
2023-08-10 11:45:25.381427,59.0
2023-08-10 11:45:25.389117,55.0
2023-08-10 11:45:25.396807,50.0
2023-08-10 11:45:25.404497,47.0
2023-08-10 11:45:25.412186,47.0
2023-08-10 11:45:25.419876,45.0
2023-08-10 11:45:25.427566,43.0
2023-08-10 11:45:25.435255,38.0
2023-08-10 11:45:25.442945,35.0
2023-08-10 11:45:25.450635,31.0
2023-08-10 11:45:25.458325,28.0
2023-08-10 11:45:25.466014,28.0
2023-08-10 11:45:25.473704,31.0
2023-08-10 11:45:25.481394,31.0
2023-08-10 11:45:25.489083,26.0
2023-08-10 11:45:25.496773,23.0
2023-08-10 11:45:25.504463,26.0
2023-08-10 11:45:25.512153,21.0
2023-08-10 11:45:25.519842,19.0
2023-08-10 11:45:25.527532,19.0
2023-08-10 11:45:25.535222,19.0
2023-08-10 11:45:25.542911,14.0
2023-08-10 11:45:25.550601,16.0
2023-08-10 11:45:25.558291,19.0
2023-08-10 11:45:25.565981,19.0
2023-08-10 11:45:25.573670,21.0
2023-08-10 11:45:25.581360,19.0
2023-08-10 11:45:25.589050,16.0
2023-08-10 11:45:25.596739,14.0
2023-08-10 11:45:25.604429,16.0
2023-08-10 11:45:25.612119,16.0
2023-08-10 11:45:25.619809,11.0
2023-08-10 11:45:25.627498,9.0
2023-08-10 11:45:25.635188,7.0
2023-08-10 11:45:25.642878,7.0
2023-08-10 11:45:25.650567,9.0
2023-08-10 11:45:25.658257,7.0
2023-08-10 11:45:25.665947,0.0
2023-08-10 11:45:25.673637,0.0
2023-08-10 11:45:25.681326,4.0
2023-08-10 11:45:25.689016,-2.0
2023-08-10 11:45:25.696706,-4.0
2023-08-10 11:45:25.704395,0.0
2023-08-10 11:45:25.712085,-11.0
2023-08-10 11:45:25.719775,-21.0
2023-08-10 11:45:25.727465,-11.0
2023-08-10 11:45:25.735154,-9.0
2023-08-10 11:45:25.742844,-16.0
2023-08-10 11:45:25.750534,-16.0
2023-08-10 11:45:25.758223,-11.0
2023-08-10 11:45:25.765913,-11.0
2023-08-10 11:45:25.773603,-14.0
2023-08-10 11:45:25.781292,-16.0
2023-08-10 11:45:25.788982,-16.0
2023-08-10 11:45:25.796672,-19.0
2023-08-10 11:45:25.804362,-26.0
2023-08-10 11:45:25.812051,-26.0
2023-08-10 11:45:25.819741,-21.0
2023-08-10 11:45:25.827431,-21.0
2023-08-10 11:45:25.835120,-21.0
2023-08-10 11:45:25.842810,-19.0
2023-08-10 11:45:25.850500,-21.0
2023-08-10 11:45:25.858190,-33.0
2023-08-10 11:45:25.865879,-47.0
2023-08-10 11:45:25.873569,-55.0
2023-08-10 11:45:25.881259,-47.0
2023-08-10 11:45:25.888948,-47.0
2023-08-10 11:45:25.896638,-55.0
2023-08-10 11:45:25.904328,-43.0
2023-08-10 11:45:25.912018,-19.0
2023-08-10 11:45:25.919707,-7.0
2023-08-10 11:45:25.927397,-9.0
2023-08-10 11:45:25.935087,-7.0
2023-08-10 11:45:25.942776,-14.0
2023-08-10 11:45:25.950466,-28.0
2023-08-10 11:45:25.958156,-26.0
2023-08-10 11:45:25.965846,-16.0
2023-08-10 11:45:25.973535,-16.0
2023-08-10 11:45:25.981225,-28.0
2023-08-10 11:45:25.988915,-122.0
2023-08-10 11:45:25.996604,-332.0
2023-08-10 11:45:26.004294,-550.0
2023-08-10 11:45:26.011984,-672.0
2023-08-10 11:45:26.019674,-555.0
2023-08-10 11:45:26.027363,-169.0
2023-08-10 11:45:26.035053,119.0
2023-08-10 11:45:26.042743,78.0
2023-08-10 11:45:26.050432,-26.0
2023-08-10 11:45:26.058122,9.0
2023-08-10 11:45:26.065812,45.0
2023-08-10 11:45:26.073502,11.0
2023-08-10 11:45:26.081191,2.0
2023-08-10 11:45:26.088881,16.0
2023-08-10 11:45:26.096571,9.0
2023-08-10 11:45:26.104260,-4.0
2023-08-10 11:45:26.111950,-4.0
2023-08-10 11:45:26.119640,-7.0
2023-08-10 11:45:26.127330,-19.0
2023-08-10 11:45:26.135019,-28.0
2023-08-10 11:45:26.142709,-35.0
2023-08-10 11:45:26.150399,-45.0
2023-08-10 11:45:26.158088,-50.0
2023-08-10 11:45:26.165778,-57.0
2023-08-10 11:45:26.173468,-71.0
2023-08-10 11:45:26.181158,-88.0
2023-08-10 11:45:26.188847,-98.0
2023-08-10 11:45:26.196537,-100.0
2023-08-10 11:45:26.204227,-112.0
2023-08-10 11:45:26.211916,-131.0
2023-08-10 11:45:26.219606,-145.0
2023-08-10 11:45:26.227296,-160.0
2023-08-10 11:45:26.234986,-177.0
2023-08-10 11:45:26.242675,-196.0
2023-08-10 11:45:26.250365,-224.0
2023-08-10 11:45:26.258055,-248.0
2023-08-10 11:45:26.265744,-258.0
2023-08-10 11:45:26.273434,-263.0
2023-08-10 11:45:26.281124,-265.0
2023-08-10 11:45:26.288814,-248.0
2023-08-10 11:45:26.296503,-208.0
2023-08-10 11:45:26.304193,-157.0
2023-08-10 11:45:26.311883,-105.0
2023-08-10 11:45:26.319572,-52.0
2023-08-10 11:45:26.327262,-9.0
2023-08-10 11:45:26.334952,21.0
2023-08-10 11:45:26.342642,38.0
2023-08-10 11:45:26.350331,50.0
2023-08-10 11:45:26.358021,59.0
2023-08-10 11:45:26.365711,57.0
2023-08-10 11:45:26.373400,45.0
2023-08-10 11:45:26.381090,47.0
2023-08-10 11:45:26.388780,55.0
2023-08-10 11:45:26.396470,50.0
2023-08-10 11:45:26.404159,43.0
2023-08-10 11:45:26.411849,40.0
2023-08-10 11:45:26.419539,38.0
2023-08-10 11:45:26.427228,31.0
2023-08-10 11:45:26.434918,31.0
2023-08-10 11:45:26.442608,33.0
2023-08-10 11:45:26.450298,33.0
2023-08-10 11:45:26.457987,28.0
2023-08-10 11:45:26.465677,26.0
2023-08-10 11:45:26.473367,26.0
2023-08-10 11:45:26.481056,26.0
2023-08-10 11:45:26.488746,19.0
2023-08-10 11:45:26.496436,14.0
2023-08-10 11:45:26.504125,19.0
2023-08-10 11:45:26.511815,19.0
2023-08-10 11:45:26.519505,9.0
2023-08-10 11:45:26.527195,7.0
2023-08-10 11:45:26.534884,11.0
2023-08-10 11:45:26.542574,9.0
2023-08-10 11:45:26.550264,7.0
2023-08-10 11:45:26.557953,4.0
2023-08-10 11:45:26.565643,4.0
2023-08-10 11:45:26.573333,9.0
2023-08-10 11:45:26.581023,11.0
2023-08-10 11:45:26.588712,4.0
2023-08-10 11:45:26.596402,0.0
2023-08-10 11:45:26.604092,2.0
2023-08-10 11:45:26.611781,2.0
2023-08-10 11:45:26.619471,-2.0
2023-08-10 11:45:26.627161,-2.0
2023-08-10 11:45:26.634851,-2.0
2023-08-10 11:45:26.642540,-2.0
2023-08-10 11:45:26.650230,-7.0
2023-08-10 11:45:26.657920,-9.0
2023-08-10 11:45:26.665609,-14.0
2023-08-10 11:45:26.673299,-9.0
2023-08-10 11:45:26.680989,2.0
2023-08-10 11:45:26.688679,0.0
2023-08-10 11:45:26.696368,-9.0
2023-08-10 11:45:26.704058,-9.0
2023-08-10 11:45:26.711748,-9.0
2023-08-10 11:45:26.719437,-11.0
2023-08-10 11:45:26.727127,-11.0
2023-08-10 11:45:26.734817,-14.0
2023-08-10 11:45:26.742507,-21.0
2023-08-10 11:45:26.750196,-31.0
2023-08-10 11:45:26.757886,-45.0
2023-08-10 11:45:26.765576,-47.0
2023-08-10 11:45:26.773265,-38.0
2023-08-10 11:45:26.780955,-38.0
2023-08-10 11:45:26.788645,-38.0
2023-08-10 11:45:26.796335,-33.0
2023-08-10 11:45:26.804024,-33.0
2023-08-10 11:45:26.811714,-23.0
2023-08-10 11:45:26.819404,-9.0
2023-08-10 11:45:26.827093,-11.0
2023-08-10 11:45:26.834783,-23.0
2023-08-10 11:45:26.842473,-28.0
2023-08-10 11:45:26.850163,-23.0
2023-08-10 11:45:26.857852,-19.0
2023-08-10 11:45:26.865542,-19.0
2023-08-10 11:45:26.873232,-21.0
2023-08-10 11:45:26.880921,-62.0
2023-08-10 11:45:26.888611,-227.0
2023-08-10 11:45:26.896301,-464.0
2023-08-10 11:45:26.903991,-638.0
2023-08-10 11:45:26.911680,-648.0
2023-08-10 11:45:26.919370,-380.0
2023-08-10 11:45:26.927060,7.0
2023-08-10 11:45:26.934749,136.0
2023-08-10 11:45:26.942439,21.0
2023-08-10 11:45:26.950129,-21.0
2023-08-10 11:45:26.957819,28.0
2023-08-10 11:45:26.965508,28.0
2023-08-10 11:45:26.973198,2.0
2023-08-10 11:45:26.980888,9.0
2023-08-10 11:45:26.988577,14.0
2023-08-10 11:45:26.996267,4.0
2023-08-10 11:45:27.003957,-9.0
2023-08-10 11:45:27.011647,-21.0
2023-08-10 11:45:27.019336,-23.0
2023-08-10 11:45:27.027026,-26.0
2023-08-10 11:45:27.034716,-33.0
2023-08-10 11:45:27.042405,-47.0
2023-08-10 11:45:27.050095,-55.0
2023-08-10 11:45:27.057785,-57.0
2023-08-10 11:45:27.065475,-69.0
2023-08-10 11:45:27.073164,-83.0
2023-08-10 11:45:27.080854,-90.0
2023-08-10 11:45:27.088544,-102.0
2023-08-10 11:45:27.096233,-119.0
2023-08-10 11:45:27.103923,-133.0
2023-08-10 11:45:27.111613,-143.0
2023-08-10 11:45:27.119303,-165.0
2023-08-10 11:45:27.126992,-186.0
2023-08-10 11:45:27.134682,-196.0
2023-08-10 11:45:27.142372,-210.0
2023-08-10 11:45:27.150061,-232.0
2023-08-10 11:45:27.157751,-251.0
2023-08-10 11:45:27.165441,-258.0
2023-08-10 11:45:27.173130,-260.0
2023-08-10 11:45:27.180820,-253.0
2023-08-10 11:45:27.188510,-222.0
2023-08-10 11:45:27.196200,-162.0
2023-08-10 11:45:27.203889,-98.0
2023-08-10 11:45:27.211579,-45.0
2023-08-10 11:45:27.219269,0.0
2023-08-10 11:45:27.226958,33.0
2023-08-10 11:45:27.234648,50.0
2023-08-10 11:45:27.242338,62.0
2023-08-10 11:45:27.250028,74.0
2023-08-10 11:45:27.257717,74.0
2023-08-10 11:45:27.265407,69.0
2023-08-10 11:45:27.273097,69.0
2023-08-10 11:45:27.280786,66.0
2023-08-10 11:45:27.288476,59.0
2023-08-10 11:45:27.296166,59.0
2023-08-10 11:45:27.303856,57.0
2023-08-10 11:45:27.311545,45.0
2023-08-10 11:45:27.319235,35.0
2023-08-10 11:45:27.326925,33.0
2023-08-10 11:45:27.334614,23.0
2023-08-10 11:45:27.342304,11.0
2023-08-10 11:45:27.349994,0.0
2023-08-10 11:45:27.357684,-7.0
2023-08-10 11:45:27.365373,2.0
2023-08-10 11:45:27.373063,21.0
2023-08-10 11:45:27.380753,14.0
2023-08-10 11:45:27.388442,2.0
2023-08-10 11:45:27.396132,-2.0
2023-08-10 11:45:27.403822,4.0
2023-08-10 11:45:27.411512,19.0
2023-08-10 11:45:27.419201,9.0
2023-08-10 11:45:27.426891,-9.0
2023-08-10 11:45:27.434581,0.0
2023-08-10 11:45:27.442270,7.0
2023-08-10 11:45:27.449960,2.0
2023-08-10 11:45:27.457650,4.0
2023-08-10 11:45:27.465340,2.0
2023-08-10 11:45:27.473029,-16.0
2023-08-10 11:45:27.480719,-19.0
2023-08-10 11:45:27.488409,2.0
2023-08-10 11:45:27.496098,2.0
2023-08-10 11:45:27.503788,-9.0
2023-08-10 11:45:27.511478,-9.0
2023-08-10 11:45:27.519168,-7.0
2023-08-10 11:45:27.526857,-11.0
2023-08-10 11:45:27.534547,-9.0
2023-08-10 11:45:27.542237,-9.0
2023-08-10 11:45:27.549926,-7.0
2023-08-10 11:45:27.557616,-4.0
2023-08-10 11:45:27.565306,-14.0
2023-08-10 11:45:27.572996,-16.0
2023-08-10 11:45:27.580685,-11.0
2023-08-10 11:45:27.588375,-19.0
2023-08-10 11:45:27.596065,-19.0
2023-08-10 11:45:27.603754,-9.0
2023-08-10 11:45:27.611444,-11.0
2023-08-10 11:45:27.619134,-21.0
2023-08-10 11:45:27.626824,-16.0
2023-08-10 11:45:27.634513,-9.0
2023-08-10 11:45:27.642203,-11.0
2023-08-10 11:45:27.649893,-21.0
2023-08-10 11:45:27.657582,-21.0
2023-08-10 11:45:27.665272,-19.0
2023-08-10 11:45:27.672962,-33.0
2023-08-10 11:45:27.680652,-43.0
2023-08-10 11:45:27.688341,-38.0
2023-08-10 11:45:27.696031,-35.0
2023-08-10 11:45:27.703721,-43.0
2023-08-10 11:45:27.711410,-45.0
2023-08-10 11:45:27.719100,-35.0
2023-08-10 11:45:27.726790,-14.0
2023-08-10 11:45:27.734480,-4.0
2023-08-10 11:45:27.742169,-9.0
2023-08-10 11:45:27.749859,-11.0
2023-08-10 11:45:27.757549,-11.0
2023-08-10 11:45:27.765238,-14.0
2023-08-10 11:45:27.772928,-9.0
2023-08-10 11:45:27.780618,-9.0
2023-08-10 11:45:27.788308,-21.0
2023-08-10 11:45:27.795997,-16.0
2023-08-10 11:45:27.803687,-45.0
2023-08-10 11:45:27.811377,-196.0
2023-08-10 11:45:27.819066,-428.0
2023-08-10 11:45:27.826756,-622.0
2023-08-10 11:45:27.834446,-679.0
2023-08-10 11:45:27.842136,-464.0
2023-08-10 11:45:27.849825,-59.0
2023-08-10 11:45:27.857515,131.0
2023-08-10 11:45:27.865205,33.0
2023-08-10 11:45:27.872894,-28.0
2023-08-10 11:45:27.880584,33.0
2023-08-10 11:45:27.888274,43.0
2023-08-10 11:45:27.895963,4.0
2023-08-10 11:45:27.903653,9.0
2023-08-10 11:45:27.911343,19.0
2023-08-10 11:45:27.919033,2.0
2023-08-10 11:45:27.926722,-7.0
2023-08-10 11:45:27.934412,-7.0
2023-08-10 11:45:27.942102,-9.0
2023-08-10 11:45:27.949791,-16.0
2023-08-10 11:45:27.957481,-28.0
2023-08-10 11:45:27.965171,-40.0
2023-08-10 11:45:27.972861,-52.0
2023-08-10 11:45:27.980550,-66.0
2023-08-10 11:45:27.988240,-74.0
2023-08-10 11:45:27.995930,-74.0
2023-08-10 11:45:28.003619,-81.0
2023-08-10 11:45:28.011309,-100.0
2023-08-10 11:45:28.018999,-112.0
2023-08-10 11:45:28.026689,-126.0
2023-08-10 11:45:28.034378,-145.0
2023-08-10 11:45:28.042068,-157.0
2023-08-10 11:45:28.049758,-177.0
2023-08-10 11:45:28.057447,-198.0
2023-08-10 11:45:28.065137,-208.0
2023-08-10 11:45:28.072827,-232.0
2023-08-10 11:45:28.080517,-251.0
2023-08-10 11:45:28.088206,-258.0
2023-08-10 11:45:28.095896,-267.0
2023-08-10 11:45:28.103586,-267.0
2023-08-10 11:45:28.111275,-244.0
2023-08-10 11:45:28.118965,-193.0
2023-08-10 11:45:28.126655,-117.0
2023-08-10 11:45:28.134345,-62.0
2023-08-10 11:45:28.142034,-31.0
2023-08-10 11:45:28.149724,9.0
2023-08-10 11:45:28.157414,47.0
2023-08-10 11:45:28.165103,50.0
2023-08-10 11:45:28.172793,43.0
2023-08-10 11:45:28.180483,50.0
2023-08-10 11:45:28.188173,62.0
2023-08-10 11:45:28.195862,57.0
2023-08-10 11:45:28.203552,50.0
2023-08-10 11:45:28.211242,50.0
2023-08-10 11:45:28.218931,43.0
2023-08-10 11:45:28.226621,38.0
2023-08-10 11:45:28.234311,43.0
2023-08-10 11:45:28.242001,43.0
2023-08-10 11:45:28.249690,33.0
2023-08-10 11:45:28.257380,26.0
2023-08-10 11:45:28.265070,26.0
2023-08-10 11:45:28.272759,26.0
2023-08-10 11:45:28.280449,19.0
2023-08-10 11:45:28.288139,28.0
2023-08-10 11:45:28.295829,31.0
2023-08-10 11:45:28.303518,16.0
2023-08-10 11:45:28.311208,19.0
2023-08-10 11:45:28.318898,16.0
2023-08-10 11:45:28.326587,0.0
2023-08-10 11:45:28.334277,2.0
2023-08-10 11:45:28.341967,11.0
2023-08-10 11:45:28.349657,0.0
2023-08-10 11:45:28.357346,-14.0
2023-08-10 11:45:28.365036,-11.0
2023-08-10 11:45:28.372726,0.0
2023-08-10 11:45:28.380415,4.0
2023-08-10 11:45:28.388105,0.0
2023-08-10 11:45:28.395795,-2.0
2023-08-10 11:45:28.403485,-2.0
2023-08-10 11:45:28.411174,-9.0
2023-08-10 11:45:28.418864,-16.0
2023-08-10 11:45:28.426554,-14.0
2023-08-10 11:45:28.434243,-2.0
2023-08-10 11:45:28.441933,0.0
2023-08-10 11:45:28.449623,-9.0
2023-08-10 11:45:28.457313,-16.0
2023-08-10 11:45:28.465002,-14.0
2023-08-10 11:45:28.472692,-7.0
2023-08-10 11:45:28.480382,-2.0
2023-08-10 11:45:28.488071,-7.0
2023-08-10 11:45:28.495761,-21.0
2023-08-10 11:45:28.503451,-33.0
2023-08-10 11:45:28.511141,-33.0
2023-08-10 11:45:28.518830,-31.0
2023-08-10 11:45:28.526520,-33.0
2023-08-10 11:45:28.534210,-28.0
2023-08-10 11:45:28.541899,-28.0
2023-08-10 11:45:28.549589,-35.0
2023-08-10 11:45:28.557279,-38.0
2023-08-10 11:45:28.564968,-33.0
2023-08-10 11:45:28.572658,-33.0
2023-08-10 11:45:28.580348,-33.0
2023-08-10 11:45:28.588038,-33.0
2023-08-10 11:45:28.595727,-40.0
2023-08-10 11:45:28.603417,-59.0
2023-08-10 11:45:28.611107,-64.0
2023-08-10 11:45:28.618796,-59.0
2023-08-10 11:45:28.626486,-64.0
2023-08-10 11:45:28.634176,-66.0
2023-08-10 11:45:28.641866,-50.0
2023-08-10 11:45:28.649555,-26.0
2023-08-10 11:45:28.657245,-23.0
2023-08-10 11:45:28.664935,-31.0
2023-08-10 11:45:28.672624,-28.0
2023-08-10 11:45:28.680314,-26.0
2023-08-10 11:45:28.688004,-31.0
2023-08-10 11:45:28.695694,-31.0
2023-08-10 11:45:28.703383,-33.0
2023-08-10 11:45:28.711073,-33.0
2023-08-10 11:45:28.718763,-26.0
2023-08-10 11:45:28.726452,-95.0
2023-08-10 11:45:28.734142,-287.0
2023-08-10 11:45:28.741832,-504.0
2023-08-10 11:45:28.749522,-655.0
2023-08-10 11:45:28.757211,-617.0
2023-08-10 11:45:28.764901,-289.0
2023-08-10 11:45:28.772591,55.0
2023-08-10 11:45:28.780280,88.0
2023-08-10 11:45:28.787970,-26.0
2023-08-10 11:45:28.795660,-21.0
2023-08-10 11:45:28.803350,19.0
2023-08-10 11:45:28.811039,0.0
2023-08-10 11:45:28.818729,-4.0
2023-08-10 11:45:28.826419,0.0
2023-08-10 11:45:28.834108,-16.0
2023-08-10 11:45:28.841798,-26.0
2023-08-10 11:45:28.849488,-19.0
2023-08-10 11:45:28.857178,-23.0
2023-08-10 11:45:28.864867,-35.0
2023-08-10 11:45:28.872557,-38.0
2023-08-10 11:45:28.880247,-43.0
2023-08-10 11:45:28.887936,-55.0
2023-08-10 11:45:28.895626,-59.0
2023-08-10 11:45:28.903316,-69.0
2023-08-10 11:45:28.911006,-78.0
2023-08-10 11:45:28.918695,-83.0
2023-08-10 11:45:28.926385,-93.0
2023-08-10 11:45:28.934075,-110.0
2023-08-10 11:45:28.941764,-122.0
2023-08-10 11:45:28.949454,-136.0
2023-08-10 11:45:28.957144,-155.0
2023-08-10 11:45:28.964834,-172.0
2023-08-10 11:45:28.972523,-186.0
2023-08-10 11:45:28.980213,-208.0
2023-08-10 11:45:28.987903,-224.0
2023-08-10 11:45:28.995592,-239.0
2023-08-10 11:45:29.003282,-253.0
2023-08-10 11:45:29.010972,-265.0
2023-08-10 11:45:29.018662,-267.0
2023-08-10 11:45:29.026351,-253.0
2023-08-10 11:45:29.034041,-220.0
2023-08-10 11:45:29.041731,-169.0
2023-08-10 11:45:29.049420,-117.0
2023-08-10 11:45:29.057110,-66.0
2023-08-10 11:45:29.064800,-23.0
2023-08-10 11:45:29.072490,7.0
2023-08-10 11:45:29.080179,19.0
2023-08-10 11:45:29.087869,23.0
2023-08-10 11:45:29.095559,33.0
2023-08-10 11:45:29.103248,31.0
2023-08-10 11:45:29.110938,26.0
2023-08-10 11:45:29.118628,28.0
2023-08-10 11:45:29.126318,28.0
2023-08-10 11:45:29.134007,21.0
2023-08-10 11:45:29.141697,19.0
2023-08-10 11:45:29.149387,21.0
2023-08-10 11:45:29.157076,16.0
2023-08-10 11:45:29.164766,14.0
2023-08-10 11:45:29.172456,14.0
2023-08-10 11:45:29.180146,7.0
2023-08-10 11:45:29.187835,2.0
2023-08-10 11:45:29.195525,9.0
2023-08-10 11:45:29.203215,14.0
2023-08-10 11:45:29.210904,7.0
2023-08-10 11:45:29.218594,2.0
2023-08-10 11:45:29.226284,2.0
2023-08-10 11:45:29.233974,4.0
2023-08-10 11:45:29.241663,2.0
2023-08-10 11:45:29.249353,-2.0
2023-08-10 11:45:29.257043,-2.0
2023-08-10 11:45:29.264732,0.0
2023-08-10 11:45:29.272422,-7.0
2023-08-10 11:45:29.280112,-9.0
2023-08-10 11:45:29.287801,-4.0
2023-08-10 11:45:29.295491,2.0
2023-08-10 11:45:29.303181,-2.0
2023-08-10 11:45:29.310871,-9.0
2023-08-10 11:45:29.318560,-11.0
2023-08-10 11:45:29.326250,-11.0
2023-08-10 11:45:29.333940,-16.0
2023-08-10 11:45:29.341629,-14.0
2023-08-10 11:45:29.349319,-14.0
2023-08-10 11:45:29.357009,-23.0
2023-08-10 11:45:29.364699,-28.0
2023-08-10 11:45:29.372388,-19.0
2023-08-10 11:45:29.380078,-19.0
2023-08-10 11:45:29.387768,-28.0
2023-08-10 11:45:29.395457,-26.0
2023-08-10 11:45:29.403147,-21.0
2023-08-10 11:45:29.410837,-28.0
2023-08-10 11:45:29.418527,-33.0
2023-08-10 11:45:29.426216,-28.0
2023-08-10 11:45:29.433906,-33.0
2023-08-10 11:45:29.441596,-45.0
2023-08-10 11:45:29.449285,-57.0
2023-08-10 11:45:29.456975,-59.0
2023-08-10 11:45:29.464665,-50.0
2023-08-10 11:45:29.472355,-47.0
2023-08-10 11:45:29.480044,-50.0
2023-08-10 11:45:29.487734,-45.0
2023-08-10 11:45:29.495424,-33.0
2023-08-10 11:45:29.503113,-21.0
2023-08-10 11:45:29.510803,-16.0
2023-08-10 11:45:29.518493,-23.0
2023-08-10 11:45:29.526183,-28.0
2023-08-10 11:45:29.533872,-23.0
2023-08-10 11:45:29.541562,-28.0
2023-08-10 11:45:29.549252,-40.0
2023-08-10 11:45:29.556941,-35.0
2023-08-10 11:45:29.564631,-33.0
2023-08-10 11:45:29.572321,-122.0
2023-08-10 11:45:29.580011,-339.0
2023-08-10 11:45:29.587700,-571.0
2023-08-10 11:45:29.595390,-693.0
2023-08-10 11:45:29.603080,-602.0
2023-08-10 11:45:29.610769,-263.0
2023-08-10 11:45:29.618459,66.0
2023-08-10 11:45:29.626149,95.0
2023-08-10 11:45:29.633839,-31.0
2023-08-10 11:45:29.641528,-43.0
2023-08-10 11:45:29.649218,7.0
2023-08-10 11:45:29.656908,-2.0
2023-08-10 11:45:29.664597,-26.0
2023-08-10 11:45:29.672287,-16.0
2023-08-10 11:45:29.679977,-9.0
2023-08-10 11:45:29.687667,-23.0
2023-08-10 11:45:29.695356,-31.0
2023-08-10 11:45:29.703046,-23.0
2023-08-10 11:45:29.710736,-31.0
2023-08-10 11:45:29.718425,-55.0
2023-08-10 11:45:29.726115,-62.0
2023-08-10 11:45:29.733805,-52.0
2023-08-10 11:45:29.741495,-57.0
2023-08-10 11:45:29.749184,-76.0
2023-08-10 11:45:29.756874,-81.0
2023-08-10 11:45:29.764564,-86.0
2023-08-10 11:45:29.772253,-102.0
2023-08-10 11:45:29.779943,-117.0
2023-08-10 11:45:29.787633,-114.0
2023-08-10 11:45:29.795323,-126.0
2023-08-10 11:45:29.803012,-155.0
2023-08-10 11:45:29.810702,-177.0
2023-08-10 11:45:29.818392,-189.0
2023-08-10 11:45:29.826081,-215.0
2023-08-10 11:45:29.833771,-236.0
2023-08-10 11:45:29.841461,-256.0
2023-08-10 11:45:29.849151,-277.0
2023-08-10 11:45:29.856840,-282.0
2023-08-10 11:45:29.864530,-260.0
2023-08-10 11:45:29.872220,-227.0
2023-08-10 11:45:29.879909,-191.0
2023-08-10 11:45:29.887599,-133.0
2023-08-10 11:45:29.895289,-62.0
2023-08-10 11:45:29.902979,-16.0
2023-08-10 11:45:29.910668,9.0
2023-08-10 11:45:29.918358,38.0
2023-08-10 11:45:29.926048,52.0
2023-08-10 11:45:29.933737,50.0
2023-08-10 11:45:29.941427,57.0
2023-08-10 11:45:29.949117,66.0
2023-08-10 11:45:29.956806,59.0
2023-08-10 11:45:29.964496,47.0
2023-08-10 11:45:29.972186,43.0
2023-08-10 11:45:29.979876,35.0
2023-08-10 11:45:29.987565,35.0
2023-08-10 11:45:29.995255,38.0
2023-08-10 11:45:30.002945,31.0
2023-08-10 11:45:30.010634,14.0
2023-08-10 11:45:30.018324,16.0
2023-08-10 11:45:30.026014,23.0
2023-08-10 11:45:30.033704,14.0
2023-08-10 11:45:30.041393,2.0
2023-08-10 11:45:30.049083,4.0
2023-08-10 11:45:30.056773,4.0
2023-08-10 11:45:30.064462,0.0
2023-08-10 11:45:30.072152,-2.0
2023-08-10 11:45:30.079842,-2.0
2023-08-10 11:45:30.087532,-4.0
2023-08-10 11:45:30.095221,-11.0
2023-08-10 11:45:30.102911,-7.0
2023-08-10 11:45:30.110601,-2.0
2023-08-10 11:45:30.118290,-7.0
2023-08-10 11:45:30.125980,-14.0
2023-08-10 11:45:30.133670,-11.0
2023-08-10 11:45:30.141360,-4.0
2023-08-10 11:45:30.149049,-11.0
2023-08-10 11:45:30.156739,-14.0
2023-08-10 11:45:30.164429,-9.0
2023-08-10 11:45:30.172118,-11.0
2023-08-10 11:45:30.179808,-23.0
2023-08-10 11:45:30.187498,-26.0
2023-08-10 11:45:30.195188,-19.0
2023-08-10 11:45:30.202877,-21.0
2023-08-10 11:45:30.210567,-23.0
2023-08-10 11:45:30.218257,-21.0
2023-08-10 11:45:30.225946,-21.0
2023-08-10 11:45:30.233636,-26.0
2023-08-10 11:45:30.241326,-31.0
2023-08-10 11:45:30.249016,-28.0
2023-08-10 11:45:30.256705,-23.0
2023-08-10 11:45:30.264395,-21.0
2023-08-10 11:45:30.272085,-19.0
2023-08-10 11:45:30.279774,-16.0
2023-08-10 11:45:30.287464,-19.0
2023-08-10 11:45:30.295154,-26.0
2023-08-10 11:45:30.302844,-38.0
2023-08-10 11:45:30.310533,-59.0
2023-08-10 11:45:30.318223,-69.0
2023-08-10 11:45:30.325913,-59.0
2023-08-10 11:45:30.333602,-50.0
2023-08-10 11:45:30.341292,-45.0
2023-08-10 11:45:30.348982,-40.0
2023-08-10 11:45:30.356672,-33.0
2023-08-10 11:45:30.364361,-33.0
2023-08-10 11:45:30.372051,-33.0
2023-08-10 11:45:30.379741,-33.0
2023-08-10 11:45:30.387430,-35.0
2023-08-10 11:45:30.395120,-43.0
2023-08-10 11:45:30.402810,-38.0
2023-08-10 11:45:30.410500,-28.0
2023-08-10 11:45:30.418189,-76.0
2023-08-10 11:45:30.425879,-251.0
2023-08-10 11:45:30.433569,-495.0
2023-08-10 11:45:30.441258,-691.0
2023-08-10 11:45:30.448948,-701.0
2023-08-10 11:45:30.456638,-394.0
2023-08-10 11:45:30.464328,14.0
2023-08-10 11:45:30.472017,126.0
2023-08-10 11:45:30.479707,-2.0
2023-08-10 11:45:30.487397,-26.0
2023-08-10 11:45:30.495086,33.0
2023-08-10 11:45:30.502776,26.0
2023-08-10 11:45:30.510466,7.0
2023-08-10 11:45:30.518156,19.0
2023-08-10 11:45:30.525845,11.0
2023-08-10 11:45:30.533535,-2.0
2023-08-10 11:45:30.541225,2.0
2023-08-10 11:45:30.548914,-4.0
2023-08-10 11:45:30.556604,-21.0
2023-08-10 11:45:30.564294,-31.0
2023-08-10 11:45:30.571984,-28.0
2023-08-10 11:45:30.579673,-28.0
2023-08-10 11:45:30.587363,-38.0
2023-08-10 11:45:30.595053,-50.0
2023-08-10 11:45:30.602742,-57.0
2023-08-10 11:45:30.610432,-66.0
2023-08-10 11:45:30.618122,-78.0
2023-08-10 11:45:30.625812,-88.0
2023-08-10 11:45:30.633501,-100.0
2023-08-10 11:45:30.641191,-114.0
2023-08-10 11:45:30.648881,-131.0
2023-08-10 11:45:30.656570,-153.0
2023-08-10 11:45:30.664260,-172.0
2023-08-10 11:45:30.671950,-189.0
2023-08-10 11:45:30.679639,-208.0
2023-08-10 11:45:30.687329,-220.0
2023-08-10 11:45:30.695019,-232.0
2023-08-10 11:45:30.702709,-253.0
2023-08-10 11:45:30.710398,-265.0
2023-08-10 11:45:30.718088,-236.0
2023-08-10 11:45:30.725778,-181.0
2023-08-10 11:45:30.733467,-124.0
2023-08-10 11:45:30.741157,-69.0
2023-08-10 11:45:30.748847,-16.0
2023-08-10 11:45:30.756537,23.0
2023-08-10 11:45:30.764226,43.0
2023-08-10 11:45:30.771916,57.0
2023-08-10 11:45:30.779606,74.0
2023-08-10 11:45:30.787295,76.0
2023-08-10 11:45:30.794985,69.0
2023-08-10 11:45:30.802675,66.0
2023-08-10 11:45:30.810365,62.0
2023-08-10 11:45:30.818054,59.0
2023-08-10 11:45:30.825744,52.0
2023-08-10 11:45:30.833434,47.0
2023-08-10 11:45:30.841123,43.0
2023-08-10 11:45:30.848813,35.0
2023-08-10 11:45:30.856503,26.0
2023-08-10 11:45:30.864193,19.0
2023-08-10 11:45:30.871882,19.0
2023-08-10 11:45:30.879572,19.0
2023-08-10 11:45:30.887262,14.0
2023-08-10 11:45:30.894951,7.0
2023-08-10 11:45:30.902641,4.0
2023-08-10 11:45:30.910331,0.0
2023-08-10 11:45:30.918021,2.0
2023-08-10 11:45:30.925710,2.0
2023-08-10 11:45:30.933400,-2.0
2023-08-10 11:45:30.941090,-7.0
2023-08-10 11:45:30.948779,-7.0
2023-08-10 11:45:30.956469,-7.0
2023-08-10 11:45:30.964159,-7.0
2023-08-10 11:45:30.971849,-7.0
2023-08-10 11:45:30.979538,-9.0
2023-08-10 11:45:30.987228,-9.0
2023-08-10 11:45:30.994918,-9.0
2023-08-10 11:45:31.002607,-14.0
2023-08-10 11:45:31.010297,-11.0
2023-08-10 11:45:31.017987,-9.0
2023-08-10 11:45:31.025677,-9.0
2023-08-10 11:45:31.033366,-11.0
2023-08-10 11:45:31.041056,-14.0
2023-08-10 11:45:31.048746,-14.0
2023-08-10 11:45:31.056435,-11.0
2023-08-10 11:45:31.064125,-11.0
2023-08-10 11:45:31.071815,-16.0
2023-08-10 11:45:31.079505,-19.0
2023-08-10 11:45:31.087194,-16.0
2023-08-10 11:45:31.094884,-11.0
2023-08-10 11:45:31.102574,-14.0
2023-08-10 11:45:31.110263,-23.0
2023-08-10 11:45:31.117953,-23.0
2023-08-10 11:45:31.125643,-19.0
2023-08-10 11:45:31.133333,-21.0
2023-08-10 11:45:31.141022,-21.0
2023-08-10 11:45:31.148712,-19.0
2023-08-10 11:45:31.156402,-21.0
2023-08-10 11:45:31.164091,-26.0
2023-08-10 11:45:31.171781,-23.0
2023-08-10 11:45:31.179471,-23.0
2023-08-10 11:45:31.187161,-35.0
2023-08-10 11:45:31.194850,-45.0
2023-08-10 11:45:31.202540,-55.0
2023-08-10 11:45:31.210230,-57.0
2023-08-10 11:45:31.217919,-40.0
2023-08-10 11:45:31.225609,-16.0
2023-08-10 11:45:31.233299,-11.0
2023-08-10 11:45:31.240989,-21.0
2023-08-10 11:45:31.248678,-19.0
2023-08-10 11:45:31.256368,-11.0
2023-08-10 11:45:31.264058,-19.0
2023-08-10 11:45:31.271747,-23.0
2023-08-10 11:45:31.279437,-19.0
2023-08-10 11:45:31.287127,-14.0
2023-08-10 11:45:31.294817,-14.0
2023-08-10 11:45:31.302506,-59.0
2023-08-10 11:45:31.310196,-222.0
2023-08-10 11:45:31.317886,-466.0
2023-08-10 11:45:31.325575,-662.0
2023-08-10 11:45:31.333265,-679.0
2023-08-10 11:45:31.340955,-389.0
2023-08-10 11:45:31.348644,11.0
2023-08-10 11:45:31.356334,124.0
2023-08-10 11:45:31.364024,0.0
2023-08-10 11:45:31.371714,-23.0
2023-08-10 11:45:31.379403,35.0
2023-08-10 11:45:31.387093,26.0
2023-08-10 11:45:31.394783,0.0
2023-08-10 11:45:31.402472,9.0
2023-08-10 11:45:31.410162,9.0
2023-08-10 11:45:31.417852,0.0
2023-08-10 11:45:31.425542,2.0
2023-08-10 11:45:31.433231,0.0
2023-08-10 11:45:31.440921,-14.0
2023-08-10 11:45:31.448611,-21.0
2023-08-10 11:45:31.456300,-23.0
2023-08-10 11:45:31.463990,-28.0
2023-08-10 11:45:31.471680,-38.0
2023-08-10 11:45:31.479370,-45.0
2023-08-10 11:45:31.487059,-50.0
2023-08-10 11:45:31.494749,-57.0
2023-08-10 11:45:31.502439,-69.0
2023-08-10 11:45:31.510128,-83.0
2023-08-10 11:45:31.517818,-95.0
2023-08-10 11:45:31.525508,-112.0
2023-08-10 11:45:31.533198,-129.0
2023-08-10 11:45:31.540887,-145.0
2023-08-10 11:45:31.548577,-162.0
2023-08-10 11:45:31.556267,-184.0
2023-08-10 11:45:31.563956,-205.0
2023-08-10 11:45:31.571646,-224.0
2023-08-10 11:45:31.579336,-239.0
2023-08-10 11:45:31.587026,-244.0
2023-08-10 11:45:31.594715,-241.0
2023-08-10 11:45:31.602405,-227.0
2023-08-10 11:45:31.610095,-189.0
2023-08-10 11:45:31.617784,-126.0
2023-08-10 11:45:31.625474,-62.0
2023-08-10 11:45:31.633164,-14.0
2023-08-10 11:45:31.640854,21.0
2023-08-10 11:45:31.648543,52.0
2023-08-10 11:45:31.656233,66.0
2023-08-10 11:45:31.663923,76.0
2023-08-10 11:45:31.671612,81.0
2023-08-10 11:45:31.679302,83.0
2023-08-10 11:45:31.686992,78.0
2023-08-10 11:45:31.694682,71.0
2023-08-10 11:45:31.702371,66.0
2023-08-10 11:45:31.710061,64.0
2023-08-10 11:45:31.717751,64.0
2023-08-10 11:45:31.725440,62.0
2023-08-10 11:45:31.733130,52.0
2023-08-10 11:45:31.740820,45.0
2023-08-10 11:45:31.748510,40.0
2023-08-10 11:45:31.756199,38.0
2023-08-10 11:45:31.763889,35.0
2023-08-10 11:45:31.771579,31.0
2023-08-10 11:45:31.779268,26.0
2023-08-10 11:45:31.786958,19.0
2023-08-10 11:45:31.794648,14.0
2023-08-10 11:45:31.802338,11.0
2023-08-10 11:45:31.810027,9.0
2023-08-10 11:45:31.817717,4.0
2023-08-10 11:45:31.825407,0.0
2023-08-10 11:45:31.833096,-2.0
2023-08-10 11:45:31.840786,-7.0
2023-08-10 11:45:31.848476,-14.0
2023-08-10 11:45:31.856166,-16.0
2023-08-10 11:45:31.863855,-14.0
2023-08-10 11:45:31.871545,-21.0
2023-08-10 11:45:31.879235,-33.0
2023-08-10 11:45:31.886924,-35.0
2023-08-10 11:45:31.894614,-28.0
2023-08-10 11:45:31.902304,-33.0
2023-08-10 11:45:31.909994,-35.0
2023-08-10 11:45:31.917683,-33.0
2023-08-10 11:45:31.925373,-33.0
2023-08-10 11:45:31.933063,-33.0
2023-08-10 11:45:31.940752,-31.0
2023-08-10 11:45:31.948442,-33.0
2023-08-10 11:45:31.956132,-35.0
2023-08-10 11:45:31.963822,-31.0
2023-08-10 11:45:31.971511,-28.0
2023-08-10 11:45:31.979201,-33.0
2023-08-10 11:45:31.986891,-35.0
2023-08-10 11:45:31.994580,-33.0
2023-08-10 11:45:32.002270,-33.0
2023-08-10 11:45:32.009960,-33.0
2023-08-10 11:45:32.017650,-35.0
2023-08-10 11:45:32.025339,-33.0
2023-08-10 11:45:32.033029,-31.0
2023-08-10 11:45:32.040719,-33.0
2023-08-10 11:45:32.048408,-38.0
2023-08-10 11:45:32.056098,-40.0
2023-08-10 11:45:32.063788,-45.0
2023-08-10 11:45:32.071477,-55.0
2023-08-10 11:45:32.079167,-71.0
2023-08-10 11:45:32.086857,-69.0
2023-08-10 11:45:32.094547,-55.0
2023-08-10 11:45:32.102236,-57.0
2023-08-10 11:45:32.109926,-59.0
2023-08-10 11:45:32.117616,-50.0
2023-08-10 11:45:32.125305,-43.0
2023-08-10 11:45:32.132995,-33.0
2023-08-10 11:45:32.140685,-23.0
2023-08-10 11:45:32.148375,-23.0
2023-08-10 11:45:32.156064,-23.0
2023-08-10 11:45:32.163754,-21.0
2023-08-10 11:45:32.171444,-26.0
2023-08-10 11:45:32.179133,-33.0
2023-08-10 11:45:32.186823,-31.0
2023-08-10 11:45:32.194513,-28.0
2023-08-10 11:45:32.202203,-88.0
2023-08-10 11:45:32.209892,-275.0
2023-08-10 11:45:32.217582,-516.0
2023-08-10 11:45:32.225272,-686.0
2023-08-10 11:45:32.232961,-653.0
2023-08-10 11:45:32.240651,-325.0
2023-08-10 11:45:32.248341,57.0
2023-08-10 11:45:32.256031,133.0
2023-08-10 11:45:32.263720,4.0
2023-08-10 11:45:32.271410,-23.0
2023-08-10 11:45:32.279100,28.0
2023-08-10 11:45:32.286789,23.0
2023-08-10 11:45:32.294479,4.0
2023-08-10 11:45:32.302169,9.0
2023-08-10 11:45:32.309859,4.0
2023-08-10 11:45:32.317548,-2.0
2023-08-10 11:45:32.325238,-2.0
2023-08-10 11:45:32.332928,-9.0
2023-08-10 11:45:32.340617,-19.0
2023-08-10 11:45:32.348307,-26.0
2023-08-10 11:45:32.355997,-38.0
2023-08-10 11:45:32.363687,-50.0
2023-08-10 11:45:32.371376,-52.0
2023-08-10 11:45:32.379066,-55.0
2023-08-10 11:45:32.386756,-69.0
2023-08-10 11:45:32.394445,-81.0
2023-08-10 11:45:32.402135,-88.0
2023-08-10 11:45:32.409825,-100.0
2023-08-10 11:45:32.417515,-119.0
2023-08-10 11:45:32.425204,-133.0
2023-08-10 11:45:32.432894,-150.0
2023-08-10 11:45:32.440584,-172.0
2023-08-10 11:45:32.448273,-189.0
2023-08-10 11:45:32.455963,-208.0
2023-08-10 11:45:32.463653,-227.0
2023-08-10 11:45:32.471343,-241.0
2023-08-10 11:45:32.479032,-253.0
2023-08-10 11:45:32.486722,-263.0
2023-08-10 11:45:32.494412,-265.0
2023-08-10 11:45:32.502101,-248.0
2023-08-10 11:45:32.509791,-203.0
2023-08-10 11:45:32.517481,-138.0
2023-08-10 11:45:32.525171,-76.0
2023-08-10 11:45:32.532860,-28.0
2023-08-10 11:45:32.540550,9.0
2023-08-10 11:45:32.548240,38.0
2023-08-10 11:45:32.555929,57.0
2023-08-10 11:45:32.563619,69.0
2023-08-10 11:45:32.571309,71.0
2023-08-10 11:45:32.578999,71.0
2023-08-10 11:45:32.586688,74.0
2023-08-10 11:45:32.594378,71.0
2023-08-10 11:45:32.602068,64.0
2023-08-10 11:45:32.609757,57.0
2023-08-10 11:45:32.617447,57.0
2023-08-10 11:45:32.625137,59.0
2023-08-10 11:45:32.632827,57.0
2023-08-10 11:45:32.640516,50.0
2023-08-10 11:45:32.648206,45.0
2023-08-10 11:45:32.655896,40.0
2023-08-10 11:45:32.663585,40.0
2023-08-10 11:45:32.671275,38.0
2023-08-10 11:45:32.678965,33.0
2023-08-10 11:45:32.686655,28.0
2023-08-10 11:45:32.694344,23.0
2023-08-10 11:45:32.702034,21.0
2023-08-10 11:45:32.709724,16.0
2023-08-10 11:45:32.717413,14.0
2023-08-10 11:45:32.725103,11.0
2023-08-10 11:45:32.732793,9.0
2023-08-10 11:45:32.740482,4.0
2023-08-10 11:45:32.748172,2.0
2023-08-10 11:45:32.755862,4.0
2023-08-10 11:45:32.763552,4.0
2023-08-10 11:45:32.771241,2.0
2023-08-10 11:45:32.778931,-2.0
2023-08-10 11:45:32.786621,-7.0
2023-08-10 11:45:32.794310,-7.0
2023-08-10 11:45:32.802000,-2.0
2023-08-10 11:45:32.809690,-2.0
2023-08-10 11:45:32.817380,-4.0
2023-08-10 11:45:32.825069,-7.0
2023-08-10 11:45:32.832759,-11.0
2023-08-10 11:45:32.840449,-14.0
2023-08-10 11:45:32.848138,-11.0
2023-08-10 11:45:32.855828,-11.0
2023-08-10 11:45:32.863518,-19.0
2023-08-10 11:45:32.871208,-23.0
2023-08-10 11:45:32.878897,-23.0
2023-08-10 11:45:32.886587,-21.0
2023-08-10 11:45:32.894277,-21.0
2023-08-10 11:45:32.901966,-21.0
2023-08-10 11:45:32.909656,-23.0
2023-08-10 11:45:32.917346,-21.0
2023-08-10 11:45:32.925036,-21.0
2023-08-10 11:45:32.932725,-21.0
2023-08-10 11:45:32.940415,-21.0
2023-08-10 11:45:32.948105,-19.0
2023-08-10 11:45:32.955794,-23.0
2023-08-10 11:45:32.963484,-28.0
2023-08-10 11:45:32.971174,-38.0
2023-08-10 11:45:32.978864,-52.0
2023-08-10 11:45:32.986553,-57.0
2023-08-10 11:45:32.994243,-50.0
2023-08-10 11:45:33.001933,-45.0
2023-08-10 11:45:33.009622,-40.0
2023-08-10 11:45:33.017312,-28.0
2023-08-10 11:45:33.025002,-26.0
2023-08-10 11:45:33.032692,-28.0
2023-08-10 11:45:33.040381,-26.0
2023-08-10 11:45:33.048071,-26.0
2023-08-10 11:45:33.055761,-35.0
2023-08-10 11:45:33.063450,-35.0
2023-08-10 11:45:33.071140,-28.0
2023-08-10 11:45:33.078830,-28.0
2023-08-10 11:45:33.086520,-62.0
2023-08-10 11:45:33.094209,-208.0
2023-08-10 11:45:33.101899,-447.0
2023-08-10 11:45:33.109589,-655.0
2023-08-10 11:45:33.117278,-708.0
2023-08-10 11:45:33.124968,-466.0
2023-08-10 11:45:33.132658,-45.0
2023-08-10 11:45:33.140348,136.0
2023-08-10 11:45:33.148037,33.0
2023-08-10 11:45:33.155727,-26.0
2023-08-10 11:45:33.163417,21.0
2023-08-10 11:45:33.171106,28.0
2023-08-10 11:45:33.178796,7.0
2023-08-10 11:45:33.186486,14.0
2023-08-10 11:45:33.194176,16.0
2023-08-10 11:45:33.201865,2.0
2023-08-10 11:45:33.209555,2.0
2023-08-10 11:45:33.217245,0.0
2023-08-10 11:45:33.224934,-14.0
2023-08-10 11:45:33.232624,-21.0
2023-08-10 11:45:33.240314,-21.0
2023-08-10 11:45:33.248004,-23.0
2023-08-10 11:45:33.255693,-33.0
2023-08-10 11:45:33.263383,-40.0
2023-08-10 11:45:33.271073,-50.0
2023-08-10 11:45:33.278762,-64.0
2023-08-10 11:45:33.286452,-74.0
2023-08-10 11:45:33.294142,-78.0
2023-08-10 11:45:33.301832,-90.0
2023-08-10 11:45:33.309521,-107.0
2023-08-10 11:45:33.317211,-124.0
2023-08-10 11:45:33.324901,-141.0
2023-08-10 11:45:33.332590,-157.0
2023-08-10 11:45:33.340280,-174.0
2023-08-10 11:45:33.347970,-193.0
2023-08-10 11:45:33.355660,-215.0
2023-08-10 11:45:33.363349,-234.0
2023-08-10 11:45:33.371039,-244.0
2023-08-10 11:45:33.378729,-244.0
2023-08-10 11:45:33.386418,-232.0
2023-08-10 11:45:33.394108,-193.0
2023-08-10 11:45:33.401798,-136.0
2023-08-10 11:45:33.409488,-76.0
2023-08-10 11:45:33.417177,-19.0
2023-08-10 11:45:33.424867,23.0
2023-08-10 11:45:33.432557,47.0
2023-08-10 11:45:33.440246,66.0
2023-08-10 11:45:33.447936,78.0
2023-08-10 11:45:33.455626,81.0
2023-08-10 11:45:33.463315,83.0
2023-08-10 11:45:33.471005,86.0
2023-08-10 11:45:33.478695,81.0
2023-08-10 11:45:33.486385,74.0
2023-08-10 11:45:33.494074,69.0
2023-08-10 11:45:33.501764,64.0
2023-08-10 11:45:33.509454,59.0
2023-08-10 11:45:33.517143,55.0
2023-08-10 11:45:33.524833,50.0
2023-08-10 11:45:33.532523,43.0
2023-08-10 11:45:33.540213,31.0
2023-08-10 11:45:33.547902,23.0
2023-08-10 11:45:33.555592,19.0
2023-08-10 11:45:33.563282,16.0
2023-08-10 11:45:33.570971,16.0
2023-08-10 11:45:33.578661,14.0
2023-08-10 11:45:33.586351,7.0
2023-08-10 11:45:33.594041,2.0
2023-08-10 11:45:33.601730,2.0
2023-08-10 11:45:33.609420,4.0
2023-08-10 11:45:33.617110,2.0
2023-08-10 11:45:33.624799,0.0
2023-08-10 11:45:33.632489,2.0
2023-08-10 11:45:33.640179,4.0
2023-08-10 11:45:33.647869,7.0
2023-08-10 11:45:33.655558,0.0
2023-08-10 11:45:33.663248,-11.0
2023-08-10 11:45:33.670938,-9.0
2023-08-10 11:45:33.678627,0.0
2023-08-10 11:45:33.686317,-4.0
2023-08-10 11:45:33.694007,-9.0
2023-08-10 11:45:33.701697,-9.0
2023-08-10 11:45:33.709386,-7.0
2023-08-10 11:45:33.717076,-7.0
2023-08-10 11:45:33.724766,-14.0
2023-08-10 11:45:33.732455,-14.0
2023-08-10 11:45:33.740145,-11.0
2023-08-10 11:45:33.747835,-9.0
2023-08-10 11:45:33.755525,-11.0
2023-08-10 11:45:33.763214,-16.0
2023-08-10 11:45:33.770904,-16.0
2023-08-10 11:45:33.778594,-16.0
2023-08-10 11:45:33.786283,-16.0
2023-08-10 11:45:33.793973,-19.0
2023-08-10 11:45:33.801663,-21.0
2023-08-10 11:45:33.809353,-23.0
2023-08-10 11:45:33.817042,-16.0
2023-08-10 11:45:33.824732,-16.0
2023-08-10 11:45:33.832422,-21.0
2023-08-10 11:45:33.840111,-21.0
2023-08-10 11:45:33.847801,-19.0
2023-08-10 11:45:33.855491,-26.0
2023-08-10 11:45:33.863181,-31.0
2023-08-10 11:45:33.870870,-23.0
2023-08-10 11:45:33.878560,-21.0
2023-08-10 11:45:33.886250,-28.0
2023-08-10 11:45:33.893939,-33.0
2023-08-10 11:45:33.901629,-40.0
2023-08-10 11:45:33.909319,-55.0
2023-08-10 11:45:33.917009,-59.0
2023-08-10 11:45:33.924698,-55.0
2023-08-10 11:45:33.932388,-50.0
2023-08-10 11:45:33.940078,-33.0
2023-08-10 11:45:33.947767,-16.0
2023-08-10 11:45:33.955457,-21.0
2023-08-10 11:45:33.963147,-21.0
2023-08-10 11:45:33.970837,-14.0
2023-08-10 11:45:33.978526,-14.0
2023-08-10 11:45:33.986216,-19.0
2023-08-10 11:45:33.993906,-21.0
2023-08-10 11:45:34.001595,-26.0
2023-08-10 11:45:34.009285,-31.0
2023-08-10 11:45:34.016975,-50.0
2023-08-10 11:45:34.024665,-167.0
2023-08-10 11:45:34.032354,-394.0
2023-08-10 11:45:34.040044,-617.0
2023-08-10 11:45:34.047734,-715.0
2023-08-10 11:45:34.055423,-526.0
2023-08-10 11:45:34.063113,-105.0
2023-08-10 11:45:34.070803,124.0
2023-08-10 11:45:34.078493,28.0
2023-08-10 11:45:34.086182,-50.0
2023-08-10 11:45:34.093872,2.0
2023-08-10 11:45:34.101562,21.0
2023-08-10 11:45:34.109251,-2.0
2023-08-10 11:45:34.116941,2.0
2023-08-10 11:45:34.124631,7.0
2023-08-10 11:45:34.132320,-7.0
2023-08-10 11:45:34.140010,-11.0
2023-08-10 11:45:34.147700,-9.0
2023-08-10 11:45:34.155390,-19.0
2023-08-10 11:45:34.163079,-26.0
2023-08-10 11:45:34.170769,-33.0
2023-08-10 11:45:34.178459,-38.0
2023-08-10 11:45:34.186148,-43.0
2023-08-10 11:45:34.193838,-47.0
2023-08-10 11:45:34.201528,-59.0
2023-08-10 11:45:34.209218,-69.0
2023-08-10 11:45:34.216907,-78.0
2023-08-10 11:45:34.224597,-88.0
2023-08-10 11:45:34.232287,-98.0
2023-08-10 11:45:34.239976,-110.0
2023-08-10 11:45:34.247666,-126.0
2023-08-10 11:45:34.255356,-145.0
2023-08-10 11:45:34.263046,-167.0
2023-08-10 11:45:34.270735,-189.0
2023-08-10 11:45:34.278425,-203.0
2023-08-10 11:45:34.286115,-215.0
2023-08-10 11:45:34.293804,-232.0
2023-08-10 11:45:34.301494,-251.0
2023-08-10 11:45:34.309184,-256.0
2023-08-10 11:45:34.316874,-246.0
2023-08-10 11:45:34.324563,-215.0
2023-08-10 11:45:34.332253,-162.0
2023-08-10 11:45:34.339943,-105.0
2023-08-10 11:45:34.347632,-50.0
2023-08-10 11:45:34.355322,-4.0
2023-08-10 11:45:34.363012,23.0
2023-08-10 11:45:34.370702,40.0
2023-08-10 11:45:34.378391,55.0
2023-08-10 11:45:34.386081,59.0
2023-08-10 11:45:34.393771,55.0
2023-08-10 11:45:34.401460,52.0
2023-08-10 11:45:34.409150,50.0
2023-08-10 11:45:34.416840,45.0
2023-08-10 11:45:34.424530,43.0
2023-08-10 11:45:34.432219,38.0
2023-08-10 11:45:34.439909,33.0
2023-08-10 11:45:34.447599,28.0
2023-08-10 11:45:34.455288,28.0
2023-08-10 11:45:34.462978,23.0
2023-08-10 11:45:34.470668,19.0
2023-08-10 11:45:34.478358,19.0
2023-08-10 11:45:34.486047,16.0
2023-08-10 11:45:34.493737,11.0
2023-08-10 11:45:34.501427,4.0
2023-08-10 11:45:34.509116,2.0
2023-08-10 11:45:34.516806,2.0
2023-08-10 11:45:34.524496,0.0
2023-08-10 11:45:34.532186,-4.0
2023-08-10 11:45:34.539875,-4.0
2023-08-10 11:45:34.547565,-2.0
2023-08-10 11:45:34.555255,-4.0
2023-08-10 11:45:34.562944,-7.0
2023-08-10 11:45:34.570634,-7.0
2023-08-10 11:45:34.578324,-4.0
2023-08-10 11:45:34.586014,-9.0
2023-08-10 11:45:34.593703,-16.0
2023-08-10 11:45:34.601393,-16.0
2023-08-10 11:45:34.609083,-11.0
2023-08-10 11:45:34.616772,-11.0
2023-08-10 11:45:34.624462,-16.0
2023-08-10 11:45:34.632152,-14.0
2023-08-10 11:45:34.639842,-11.0
2023-08-10 11:45:34.647531,-11.0
2023-08-10 11:45:34.655221,-16.0
2023-08-10 11:45:34.662911,-21.0
2023-08-10 11:45:34.670600,-23.0
2023-08-10 11:45:34.678290,-26.0
2023-08-10 11:45:34.685980,-31.0
2023-08-10 11:45:34.693670,-35.0
2023-08-10 11:45:34.701359,-33.0
2023-08-10 11:45:34.709049,-31.0
2023-08-10 11:45:34.716739,-33.0
2023-08-10 11:45:34.724428,-35.0
2023-08-10 11:45:34.732118,-31.0
2023-08-10 11:45:34.739808,-33.0
2023-08-10 11:45:34.747498,-40.0
2023-08-10 11:45:34.755187,-40.0
2023-08-10 11:45:34.762877,-38.0
2023-08-10 11:45:34.770567,-38.0
2023-08-10 11:45:34.778256,-40.0
2023-08-10 11:45:34.785946,-43.0
2023-08-10 11:45:34.793636,-52.0
2023-08-10 11:45:34.801326,-69.0
2023-08-10 11:45:34.809015,-74.0
2023-08-10 11:45:34.816705,-59.0
2023-08-10 11:45:34.824395,-55.0
2023-08-10 11:45:34.832084,-59.0
2023-08-10 11:45:34.839774,-55.0
2023-08-10 11:45:34.847464,-47.0
2023-08-10 11:45:34.855153,-38.0
2023-08-10 11:45:34.862843,-26.0
2023-08-10 11:45:34.870533,-31.0
2023-08-10 11:45:34.878223,-40.0
2023-08-10 11:45:34.885912,-33.0
2023-08-10 11:45:34.893602,-33.0
2023-08-10 11:45:34.901292,-45.0
2023-08-10 11:45:34.908981,-47.0
2023-08-10 11:45:34.916671,-38.0
2023-08-10 11:45:34.924361,-71.0
2023-08-10 11:45:34.932051,-232.0
2023-08-10 11:45:34.939740,-480.0
2023-08-10 11:45:34.947430,-674.0
2023-08-10 11:45:34.955120,-698.0
2023-08-10 11:45:34.962809,-433.0
2023-08-10 11:45:34.970499,-23.0
2023-08-10 11:45:34.978189,124.0
2023-08-10 11:45:34.985879,7.0
2023-08-10 11:45:34.993568,-45.0
2023-08-10 11:45:35.001258,4.0
2023-08-10 11:45:35.008948,9.0
2023-08-10 11:45:35.016637,-11.0
2023-08-10 11:45:35.024327,-4.0
2023-08-10 11:45:35.032017,-7.0
2023-08-10 11:45:35.039707,-19.0
2023-08-10 11:45:35.047396,-16.0
2023-08-10 11:45:35.055086,-14.0
2023-08-10 11:45:35.062776,-26.0
2023-08-10 11:45:35.070465,-38.0
2023-08-10 11:45:35.078155,-43.0
2023-08-10 11:45:35.085845,-47.0
2023-08-10 11:45:35.093535,-50.0
2023-08-10 11:45:35.101224,-57.0
2023-08-10 11:45:35.108914,-71.0
2023-08-10 11:45:35.116604,-86.0
2023-08-10 11:45:35.124293,-90.0
2023-08-10 11:45:35.131983,-98.0
2023-08-10 11:45:35.139673,-110.0
2023-08-10 11:45:35.147363,-124.0
2023-08-10 11:45:35.155052,-141.0
2023-08-10 11:45:35.162742,-160.0
2023-08-10 11:45:35.170432,-177.0
2023-08-10 11:45:35.178121,-193.0
2023-08-10 11:45:35.185811,-212.0
2023-08-10 11:45:35.193501,-229.0
2023-08-10 11:45:35.201191,-241.0
2023-08-10 11:45:35.208880,-256.0
2023-08-10 11:45:35.216570,-263.0
2023-08-10 11:45:35.224260,-251.0
2023-08-10 11:45:35.231949,-217.0
2023-08-10 11:45:35.239639,-165.0
2023-08-10 11:45:35.247329,-110.0
2023-08-10 11:45:35.255019,-62.0
2023-08-10 11:45:35.262708,-21.0
2023-08-10 11:45:35.270398,11.0
2023-08-10 11:45:35.278088,33.0
2023-08-10 11:45:35.285777,43.0
2023-08-10 11:45:35.293467,45.0
2023-08-10 11:45:35.301157,40.0
2023-08-10 11:45:35.308847,35.0
2023-08-10 11:45:35.316536,38.0
2023-08-10 11:45:35.324226,38.0
2023-08-10 11:45:35.331916,33.0
2023-08-10 11:45:35.339605,28.0
2023-08-10 11:45:35.347295,26.0
2023-08-10 11:45:35.354985,21.0
2023-08-10 11:45:35.362675,19.0
2023-08-10 11:45:35.370364,16.0
2023-08-10 11:45:35.378054,7.0
2023-08-10 11:45:35.385744,0.0
2023-08-10 11:45:35.393433,2.0
2023-08-10 11:45:35.401123,0.0
2023-08-10 11:45:35.408813,-2.0
2023-08-10 11:45:35.416503,-7.0
2023-08-10 11:45:35.424192,-9.0
2023-08-10 11:45:35.431882,-4.0
2023-08-10 11:45:35.439572,-2.0
2023-08-10 11:45:35.447261,-7.0
2023-08-10 11:45:35.454951,-11.0
2023-08-10 11:45:35.462641,-11.0
2023-08-10 11:45:35.470331,-7.0
2023-08-10 11:45:35.478020,-4.0
2023-08-10 11:45:35.485710,-11.0
2023-08-10 11:45:35.493400,-16.0
2023-08-10 11:45:35.501089,-16.0
2023-08-10 11:45:35.508779,-16.0
2023-08-10 11:45:35.516469,-14.0
2023-08-10 11:45:35.524158,-16.0
2023-08-10 11:45:35.531848,-19.0
2023-08-10 11:45:35.539538,-19.0
2023-08-10 11:45:35.547228,-14.0
2023-08-10 11:45:35.554917,-11.0
2023-08-10 11:45:35.562607,-16.0
2023-08-10 11:45:35.570297,-16.0
2023-08-10 11:45:35.577986,-16.0
2023-08-10 11:45:35.585676,-19.0
2023-08-10 11:45:35.593366,-19.0
2023-08-10 11:45:35.601056,-16.0
2023-08-10 11:45:35.608745,-14.0
2023-08-10 11:45:35.616435,-19.0
2023-08-10 11:45:35.624125,-21.0
2023-08-10 11:45:35.631814,-21.0
2023-08-10 11:45:35.639504,-23.0
2023-08-10 11:45:35.647194,-35.0
2023-08-10 11:45:35.654884,-55.0
2023-08-10 11:45:35.662573,-45.0
2023-08-10 11:45:35.670263,-31.0
2023-08-10 11:45:35.677953,-40.0
2023-08-10 11:45:35.685642,-45.0
2023-08-10 11:45:35.693332,-31.0
2023-08-10 11:45:35.701022,-21.0
2023-08-10 11:45:35.708712,-14.0
2023-08-10 11:45:35.716401,-7.0
2023-08-10 11:45:35.724091,-11.0
2023-08-10 11:45:35.731781,-14.0
2023-08-10 11:45:35.739470,-11.0
2023-08-10 11:45:35.747160,-21.0
2023-08-10 11:45:35.754850,-31.0
2023-08-10 11:45:35.762540,-21.0
2023-08-10 11:45:35.770229,-21.0
2023-08-10 11:45:35.777919,-122.0
2023-08-10 11:45:35.785609,-349.0
2023-08-10 11:45:35.793298,-588.0
2023-08-10 11:45:35.800988,-712.0
2023-08-10 11:45:35.808678,-588.0
2023-08-10 11:45:35.816368,-200.0
2023-08-10 11:45:35.824057,102.0
2023-08-10 11:45:35.831747,88.0
2023-08-10 11:45:35.839437,-21.0
2023-08-10 11:45:35.847126,-11.0
2023-08-10 11:45:35.854816,26.0
2023-08-10 11:45:35.862506,9.0
2023-08-10 11:45:35.870196,2.0
2023-08-10 11:45:35.877885,9.0
2023-08-10 11:45:35.885575,-2.0
2023-08-10 11:45:35.893265,-9.0
2023-08-10 11:45:35.900954,-14.0
2023-08-10 11:45:35.908644,-21.0
2023-08-10 11:45:35.916334,-26.0
2023-08-10 11:45:35.924024,-28.0
2023-08-10 11:45:35.931713,-38.0
2023-08-10 11:45:35.939403,-45.0
2023-08-10 11:45:35.947093,-50.0
2023-08-10 11:45:35.954782,-59.0
2023-08-10 11:45:35.962472,-69.0
2023-08-10 11:45:35.970162,-76.0
2023-08-10 11:45:35.977852,-88.0
2023-08-10 11:45:35.985541,-98.0
2023-08-10 11:45:35.993231,-110.0
2023-08-10 11:45:36.000921,-131.0
2023-08-10 11:45:36.008610,-150.0
2023-08-10 11:45:36.016300,-162.0
2023-08-10 11:45:36.023990,-179.0
2023-08-10 11:45:36.031680,-198.0
2023-08-10 11:45:36.039369,-212.0
2023-08-10 11:45:36.047059,-229.0
2023-08-10 11:45:36.054749,-246.0
2023-08-10 11:45:36.062438,-251.0
2023-08-10 11:45:36.070128,-244.0
2023-08-10 11:45:36.077818,-215.0
2023-08-10 11:45:36.085508,-162.0
2023-08-10 11:45:36.093197,-102.0
2023-08-10 11:45:36.100887,-47.0
2023-08-10 11:45:36.108577,-4.0
2023-08-10 11:45:36.116266,33.0
2023-08-10 11:45:36.123956,55.0
2023-08-10 11:45:36.131646,66.0
2023-08-10 11:45:36.139336,71.0
2023-08-10 11:45:36.147025,69.0
2023-08-10 11:45:36.154715,64.0
2023-08-10 11:45:36.162405,62.0
2023-08-10 11:45:36.170094,57.0
2023-08-10 11:45:36.177784,50.0
2023-08-10 11:45:36.185474,50.0
2023-08-10 11:45:36.193164,47.0
2023-08-10 11:45:36.200853,40.0
2023-08-10 11:45:36.208543,33.0
2023-08-10 11:45:36.216233,28.0
2023-08-10 11:45:36.223922,23.0
2023-08-10 11:45:36.231612,19.0
2023-08-10 11:45:36.239302,16.0
2023-08-10 11:45:36.246991,11.0
2023-08-10 11:45:36.254681,9.0
2023-08-10 11:45:36.262371,7.0
2023-08-10 11:45:36.270061,4.0
2023-08-10 11:45:36.277750,2.0
2023-08-10 11:45:36.285440,2.0
2023-08-10 11:45:36.293130,2.0
2023-08-10 11:45:36.300819,0.0
2023-08-10 11:45:36.308509,0.0
2023-08-10 11:45:36.316199,0.0
2023-08-10 11:45:36.323889,-4.0
2023-08-10 11:45:36.331578,-11.0
2023-08-10 11:45:36.339268,-19.0
2023-08-10 11:45:36.346958,-16.0
2023-08-10 11:45:36.354647,-16.0
2023-08-10 11:45:36.362337,-16.0
2023-08-10 11:45:36.370027,-16.0
2023-08-10 11:45:36.377717,-26.0
2023-08-10 11:45:36.385406,-38.0
2023-08-10 11:45:36.393096,-35.0
2023-08-10 11:45:36.400786,-33.0
2023-08-10 11:45:36.408475,-33.0
2023-08-10 11:45:36.416165,-33.0
2023-08-10 11:45:36.423855,-33.0
2023-08-10 11:45:36.431545,-35.0
2023-08-10 11:45:36.439234,-38.0
2023-08-10 11:45:36.446924,-33.0
2023-08-10 11:45:36.454614,-33.0
2023-08-10 11:45:36.462303,-38.0
2023-08-10 11:45:36.469993,-35.0
2023-08-10 11:45:36.477683,-35.0
2023-08-10 11:45:36.485373,-38.0
2023-08-10 11:45:36.493062,-38.0
2023-08-10 11:45:36.500752,-35.0
2023-08-10 11:45:36.508442,-33.0
2023-08-10 11:45:36.516131,-38.0
2023-08-10 11:45:36.523821,-38.0
2023-08-10 11:45:36.531511,-33.0
2023-08-10 11:45:36.539201,-33.0
2023-08-10 11:45:36.546890,-33.0
2023-08-10 11:45:36.554580,-33.0
2023-08-10 11:45:36.562270,-31.0
2023-08-10 11:45:36.569959,-33.0
2023-08-10 11:45:36.577649,-38.0
2023-08-10 11:45:36.585339,-47.0
2023-08-10 11:45:36.593029,-57.0
2023-08-10 11:45:36.600718,-62.0
2023-08-10 11:45:36.608408,-64.0
2023-08-10 11:45:36.616098,-62.0
2023-08-10 11:45:36.623787,-55.0
2023-08-10 11:45:36.631477,-40.0
2023-08-10 11:45:36.639167,-26.0
2023-08-10 11:45:36.646857,-23.0
2023-08-10 11:45:36.654546,-26.0
2023-08-10 11:45:36.662236,-26.0
2023-08-10 11:45:36.669926,-26.0
2023-08-10 11:45:36.677615,-28.0
2023-08-10 11:45:36.685305,-31.0
2023-08-10 11:45:36.692995,-35.0
2023-08-10 11:45:36.700685,-35.0
2023-08-10 11:45:36.708374,-64.0
2023-08-10 11:45:36.716064,-210.0
2023-08-10 11:45:36.723754,-454.0
2023-08-10 11:45:36.731443,-667.0
2023-08-10 11:45:36.739133,-727.0
2023-08-10 11:45:36.746823,-478.0
2023-08-10 11:45:36.754513,-43.0
2023-08-10 11:45:36.762202,131.0
2023-08-10 11:45:36.769892,11.0
2023-08-10 11:45:36.777582,-40.0
2023-08-10 11:45:36.785271,16.0
2023-08-10 11:45:36.792961,21.0
2023-08-10 11:45:36.800651,0.0
2023-08-10 11:45:36.808341,11.0
2023-08-10 11:45:36.816030,11.0
2023-08-10 11:45:36.823720,-2.0
2023-08-10 11:45:36.831410,-7.0
2023-08-10 11:45:36.839099,-9.0
2023-08-10 11:45:36.846789,-19.0
2023-08-10 11:45:36.854479,-26.0
2023-08-10 11:45:36.862169,-28.0
2023-08-10 11:45:36.869858,-35.0
2023-08-10 11:45:36.877548,-47.0
2023-08-10 11:45:36.885238,-57.0
2023-08-10 11:45:36.892927,-66.0
2023-08-10 11:45:36.900617,-76.0
2023-08-10 11:45:36.908307,-88.0
2023-08-10 11:45:36.915996,-105.0
2023-08-10 11:45:36.923686,-122.0
2023-08-10 11:45:36.931376,-136.0
2023-08-10 11:45:36.939066,-150.0
2023-08-10 11:45:36.946755,-165.0
2023-08-10 11:45:36.954445,-179.0
2023-08-10 11:45:36.962135,-200.0
2023-08-10 11:45:36.969824,-222.0
2023-08-10 11:45:36.977514,-239.0
