time,ECG
2023-08-12 15:08:06.106329,-83.0
2023-08-12 15:08:06.114019,-80.0
2023-08-12 15:08:06.121709,-80.0
2023-08-12 15:08:06.129399,-80.0
2023-08-12 15:08:06.137089,-80.0
2023-08-12 15:08:06.144779,-78.0
2023-08-12 15:08:06.152469,-78.0
2023-08-12 15:08:06.160159,-73.0
2023-08-12 15:08:06.167849,-69.0
2023-08-12 15:08:06.175539,-78.0
2023-08-12 15:08:06.183229,-83.0
2023-08-12 15:08:06.190919,-73.0
2023-08-12 15:08:06.198609,-73.0
2023-08-12 15:08:06.206299,-78.0
2023-08-12 15:08:06.213988,-73.0
2023-08-12 15:08:06.221678,-71.0
2023-08-12 15:08:06.229368,-73.0
2023-08-12 15:08:06.237058,-73.0
2023-08-12 15:08:06.244748,-69.0
2023-08-12 15:08:06.252438,-59.0
2023-08-12 15:08:06.260128,-61.0
2023-08-12 15:08:06.267818,-66.0
2023-08-12 15:08:06.275508,-66.0
2023-08-12 15:08:06.283198,-64.0
2023-08-12 15:08:06.290888,-59.0
2023-08-12 15:08:06.298578,-54.0
2023-08-12 15:08:06.306268,-54.0
2023-08-12 15:08:06.313958,-61.0
2023-08-12 15:08:06.321648,-59.0
2023-08-12 15:08:06.329338,-57.0
2023-08-12 15:08:06.337028,-59.0
2023-08-12 15:08:06.344718,-52.0
2023-08-12 15:08:06.352408,-47.0
2023-08-12 15:08:06.360098,-54.0
2023-08-12 15:08:06.367788,-57.0
2023-08-12 15:08:06.375478,-54.0
2023-08-12 15:08:06.383168,-49.0
2023-08-12 15:08:06.390858,-47.0
2023-08-12 15:08:06.398548,-45.0
2023-08-12 15:08:06.406238,-54.0
2023-08-12 15:08:06.413928,-61.0
2023-08-12 15:08:06.421618,-54.0
2023-08-12 15:08:06.429308,-45.0
2023-08-12 15:08:06.436997,-47.0
2023-08-12 15:08:06.444687,-47.0
2023-08-12 15:08:06.452377,-52.0
2023-08-12 15:08:06.460067,-57.0
2023-08-12 15:08:06.467757,-54.0
2023-08-12 15:08:06.475447,-47.0
2023-08-12 15:08:06.483137,-45.0
2023-08-12 15:08:06.490827,-42.0
2023-08-12 15:08:06.498517,-28.0
2023-08-12 15:08:06.506207,-16.0
2023-08-12 15:08:06.513897,-14.0
2023-08-12 15:08:06.521587,-21.0
2023-08-12 15:08:06.529277,-26.0
2023-08-12 15:08:06.536967,-26.0
2023-08-12 15:08:06.544657,-38.0
2023-08-12 15:08:06.552347,-54.0
2023-08-12 15:08:06.560037,-66.0
2023-08-12 15:08:06.567727,-78.0
2023-08-12 15:08:06.575417,-76.0
2023-08-12 15:08:06.583107,-66.0
2023-08-12 15:08:06.590797,-61.0
2023-08-12 15:08:06.598487,-64.0
2023-08-12 15:08:06.606177,-66.0
2023-08-12 15:08:06.613867,-26.0
2023-08-12 15:08:06.621557,166.0
2023-08-12 15:08:06.629247,480.0
2023-08-12 15:08:06.636937,661.0
2023-08-12 15:08:06.644627,468.0
2023-08-12 15:08:06.652317,52.0
2023-08-12 15:08:06.660006,-178.0
2023-08-12 15:08:06.667696,-171.0
2023-08-12 15:08:06.675386,-180.0
2023-08-12 15:08:06.683076,-190.0
2023-08-12 15:08:06.690766,-133.0
2023-08-12 15:08:06.698456,-114.0
2023-08-12 15:08:06.706146,-130.0
2023-08-12 15:08:06.713836,-114.0
2023-08-12 15:08:06.721526,-102.0
2023-08-12 15:08:06.729216,-107.0
2023-08-12 15:08:06.736906,-95.0
2023-08-12 15:08:06.744596,-83.0
2023-08-12 15:08:06.752286,-78.0
2023-08-12 15:08:06.759976,-69.0
2023-08-12 15:08:06.767666,-57.0
2023-08-12 15:08:06.775356,-52.0
2023-08-12 15:08:06.783046,-47.0
2023-08-12 15:08:06.790736,-33.0
2023-08-12 15:08:06.798426,-19.0
2023-08-12 15:08:06.806116,-9.0
2023-08-12 15:08:06.813806,7.0
2023-08-12 15:08:06.821496,19.0
2023-08-12 15:08:06.829186,28.0
2023-08-12 15:08:06.836876,45.0
2023-08-12 15:08:06.844566,64.0
2023-08-12 15:08:06.852256,78.0
2023-08-12 15:08:06.859946,85.0
2023-08-12 15:08:06.867636,76.0
2023-08-12 15:08:06.875326,69.0
2023-08-12 15:08:06.883015,61.0
2023-08-12 15:08:06.890705,45.0
2023-08-12 15:08:06.898395,14.0
2023-08-12 15:08:06.906085,-19.0
2023-08-12 15:08:06.913775,-49.0
2023-08-12 15:08:06.921465,-80.0
2023-08-12 15:08:06.929155,-104.0
2023-08-12 15:08:06.936845,-123.0
2023-08-12 15:08:06.944535,-133.0
2023-08-12 15:08:06.952225,-135.0
2023-08-12 15:08:06.959915,-133.0
2023-08-12 15:08:06.967605,-128.0
2023-08-12 15:08:06.975295,-126.0
2023-08-12 15:08:06.982985,-121.0
2023-08-12 15:08:06.990675,-119.0
2023-08-12 15:08:06.998365,-128.0
2023-08-12 15:08:07.006055,-128.0
2023-08-12 15:08:07.013745,-111.0
2023-08-12 15:08:07.021435,-107.0
2023-08-12 15:08:07.029125,-104.0
2023-08-12 15:08:07.036815,-92.0
2023-08-12 15:08:07.044505,-83.0
2023-08-12 15:08:07.052195,-90.0
2023-08-12 15:08:07.059885,-92.0
2023-08-12 15:08:07.067575,-88.0
2023-08-12 15:08:07.075265,-80.0
2023-08-12 15:08:07.082955,-78.0
2023-08-12 15:08:07.090645,-73.0
2023-08-12 15:08:07.098335,-76.0
2023-08-12 15:08:07.106025,-85.0
2023-08-12 15:08:07.113714,-80.0
2023-08-12 15:08:07.121404,-66.0
2023-08-12 15:08:07.129094,-66.0
2023-08-12 15:08:07.136784,-85.0
2023-08-12 15:08:07.144474,-95.0
2023-08-12 15:08:07.152164,-90.0
2023-08-12 15:08:07.159854,-85.0
2023-08-12 15:08:07.167544,-80.0
2023-08-12 15:08:07.175234,-83.0
2023-08-12 15:08:07.182924,-95.0
2023-08-12 15:08:07.190614,-97.0
2023-08-12 15:08:07.198304,-88.0
2023-08-12 15:08:07.205994,-85.0
2023-08-12 15:08:07.213684,-80.0
2023-08-12 15:08:07.221374,-78.0
2023-08-12 15:08:07.229064,-80.0
2023-08-12 15:08:07.236754,-83.0
2023-08-12 15:08:07.244444,-80.0
2023-08-12 15:08:07.252134,-73.0
2023-08-12 15:08:07.259824,-73.0
2023-08-12 15:08:07.267514,-73.0
2023-08-12 15:08:07.275204,-71.0
2023-08-12 15:08:07.282894,-66.0
2023-08-12 15:08:07.290584,-64.0
2023-08-12 15:08:07.298274,-66.0
2023-08-12 15:08:07.305964,-66.0
2023-08-12 15:08:07.313654,-61.0
2023-08-12 15:08:07.321344,-66.0
2023-08-12 15:08:07.329034,-66.0
2023-08-12 15:08:07.336723,-57.0
2023-08-12 15:08:07.344413,-54.0
2023-08-12 15:08:07.352103,-61.0
2023-08-12 15:08:07.359793,-64.0
2023-08-12 15:08:07.367483,-59.0
2023-08-12 15:08:07.375173,-59.0
2023-08-12 15:08:07.382863,-59.0
2023-08-12 15:08:07.390553,-52.0
2023-08-12 15:08:07.398243,-54.0
2023-08-12 15:08:07.405933,-64.0
2023-08-12 15:08:07.413623,-66.0
2023-08-12 15:08:07.421313,-59.0
2023-08-12 15:08:07.429003,-49.0
2023-08-12 15:08:07.436693,-57.0
2023-08-12 15:08:07.444383,-54.0
2023-08-12 15:08:07.452073,-38.0
2023-08-12 15:08:07.459763,-30.0
2023-08-12 15:08:07.467453,-28.0
2023-08-12 15:08:07.475143,-28.0
2023-08-12 15:08:07.482833,-30.0
2023-08-12 15:08:07.490523,-30.0
2023-08-12 15:08:07.498213,-30.0
2023-08-12 15:08:07.505903,-40.0
2023-08-12 15:08:07.513593,-52.0
2023-08-12 15:08:07.521283,-61.0
2023-08-12 15:08:07.528973,-69.0
2023-08-12 15:08:07.536663,-71.0
2023-08-12 15:08:07.544353,-69.0
2023-08-12 15:08:07.552043,-69.0
2023-08-12 15:08:07.559732,-71.0
2023-08-12 15:08:07.567422,-61.0
2023-08-12 15:08:07.575112,23.0
2023-08-12 15:08:07.582802,271.0
2023-08-12 15:08:07.590492,599.0
2023-08-12 15:08:07.598182,685.0
2023-08-12 15:08:07.605872,352.0
2023-08-12 15:08:07.613562,-73.0
2023-08-12 15:08:07.621252,-192.0
2023-08-12 15:08:07.628942,-152.0
2023-08-12 15:08:07.636632,-192.0
2023-08-12 15:08:07.644322,-183.0
2023-08-12 15:08:07.652012,-111.0
2023-08-12 15:08:07.659702,-114.0
2023-08-12 15:08:07.667392,-130.0
2023-08-12 15:08:07.675082,-102.0
2023-08-12 15:08:07.682772,-95.0
2023-08-12 15:08:07.690462,-104.0
2023-08-12 15:08:07.698152,-90.0
2023-08-12 15:08:07.705842,-76.0
2023-08-12 15:08:07.713532,-80.0
2023-08-12 15:08:07.721222,-76.0
2023-08-12 15:08:07.728912,-66.0
2023-08-12 15:08:07.736602,-61.0
2023-08-12 15:08:07.744292,-52.0
2023-08-12 15:08:07.751982,-40.0
2023-08-12 15:08:07.759672,-33.0
2023-08-12 15:08:07.767362,-21.0
2023-08-12 15:08:07.775052,0.0
2023-08-12 15:08:07.782741,16.0
2023-08-12 15:08:07.790431,30.0
2023-08-12 15:08:07.798121,47.0
2023-08-12 15:08:07.805811,69.0
2023-08-12 15:08:07.813501,76.0
2023-08-12 15:08:07.821191,73.0
2023-08-12 15:08:07.828881,73.0
2023-08-12 15:08:07.836571,66.0
2023-08-12 15:08:07.844261,49.0
2023-08-12 15:08:07.851951,33.0
2023-08-12 15:08:07.859641,7.0
2023-08-12 15:08:07.867331,-28.0
2023-08-12 15:08:07.875021,-64.0
2023-08-12 15:08:07.882711,-95.0
2023-08-12 15:08:07.890401,-119.0
2023-08-12 15:08:07.898091,-135.0
2023-08-12 15:08:07.905781,-145.0
2023-08-12 15:08:07.913471,-145.0
2023-08-12 15:08:07.921161,-142.0
2023-08-12 15:08:07.928851,-142.0
2023-08-12 15:08:07.936541,-138.0
2023-08-12 15:08:07.944231,-135.0
2023-08-12 15:08:07.951921,-138.0
2023-08-12 15:08:07.959611,-128.0
2023-08-12 15:08:07.967301,-119.0
2023-08-12 15:08:07.974991,-121.0
2023-08-12 15:08:07.982681,-116.0
2023-08-12 15:08:07.990371,-107.0
2023-08-12 15:08:07.998061,-109.0
2023-08-12 15:08:08.005751,-102.0
2023-08-12 15:08:08.013440,-90.0
2023-08-12 15:08:08.021130,-90.0
2023-08-12 15:08:08.028820,-92.0
2023-08-12 15:08:08.036510,-92.0
2023-08-12 15:08:08.044200,-88.0
2023-08-12 15:08:08.051890,-83.0
2023-08-12 15:08:08.059580,-78.0
2023-08-12 15:08:08.067270,-80.0
2023-08-12 15:08:08.074960,-83.0
2023-08-12 15:08:08.082650,-83.0
2023-08-12 15:08:08.090340,-85.0
2023-08-12 15:08:08.098030,-90.0
2023-08-12 15:08:08.105720,-83.0
2023-08-12 15:08:08.113410,-76.0
2023-08-12 15:08:08.121100,-80.0
2023-08-12 15:08:08.128790,-85.0
2023-08-12 15:08:08.136480,-85.0
2023-08-12 15:08:08.144170,-88.0
2023-08-12 15:08:08.151860,-85.0
2023-08-12 15:08:08.159550,-78.0
2023-08-12 15:08:08.167240,-80.0
2023-08-12 15:08:08.174930,-88.0
2023-08-12 15:08:08.182620,-88.0
2023-08-12 15:08:08.190310,-83.0
2023-08-12 15:08:08.198000,-83.0
2023-08-12 15:08:08.205690,-83.0
2023-08-12 15:08:08.213380,-80.0
2023-08-12 15:08:08.221070,-80.0
2023-08-12 15:08:08.228760,-78.0
2023-08-12 15:08:08.236449,-76.0
2023-08-12 15:08:08.244139,-78.0
2023-08-12 15:08:08.251829,-78.0
2023-08-12 15:08:08.259519,-76.0
2023-08-12 15:08:08.267209,-78.0
2023-08-12 15:08:08.274899,-85.0
2023-08-12 15:08:08.282589,-83.0
2023-08-12 15:08:08.290279,-80.0
2023-08-12 15:08:08.297969,-76.0
2023-08-12 15:08:08.305659,-73.0
2023-08-12 15:08:08.313349,-76.0
2023-08-12 15:08:08.321039,-78.0
2023-08-12 15:08:08.328729,-71.0
2023-08-12 15:08:08.336419,-66.0
2023-08-12 15:08:08.344109,-71.0
2023-08-12 15:08:08.351799,-73.0
2023-08-12 15:08:08.359489,-69.0
2023-08-12 15:08:08.367179,-66.0
2023-08-12 15:08:08.374869,-69.0
2023-08-12 15:08:08.382559,-69.0
2023-08-12 15:08:08.390249,-69.0
2023-08-12 15:08:08.397939,-71.0
2023-08-12 15:08:08.405629,-66.0
2023-08-12 15:08:08.413319,-64.0
2023-08-12 15:08:08.421009,-69.0
2023-08-12 15:08:08.428699,-71.0
2023-08-12 15:08:08.436389,-66.0
2023-08-12 15:08:08.444079,-69.0
2023-08-12 15:08:08.451769,-66.0
2023-08-12 15:08:08.459458,-52.0
2023-08-12 15:08:08.467148,-42.0
2023-08-12 15:08:08.474838,-40.0
2023-08-12 15:08:08.482528,-35.0
2023-08-12 15:08:08.490218,-30.0
2023-08-12 15:08:08.497908,-35.0
2023-08-12 15:08:08.505598,-35.0
2023-08-12 15:08:08.513288,-33.0
2023-08-12 15:08:08.520978,-40.0
2023-08-12 15:08:08.528668,-57.0
2023-08-12 15:08:08.536358,-64.0
2023-08-12 15:08:08.544048,-73.0
2023-08-12 15:08:08.551738,-76.0
2023-08-12 15:08:08.559428,-71.0
2023-08-12 15:08:08.567118,-66.0
2023-08-12 15:08:08.574808,-73.0
2023-08-12 15:08:08.582498,-71.0
2023-08-12 15:08:08.590188,9.0
2023-08-12 15:08:08.597878,242.0
2023-08-12 15:08:08.605568,542.0
2023-08-12 15:08:08.613258,645.0
2023-08-12 15:08:08.620948,385.0
2023-08-12 15:08:08.628638,-26.0
2023-08-12 15:08:08.636328,-211.0
2023-08-12 15:08:08.644018,-183.0
2023-08-12 15:08:08.651708,-171.0
2023-08-12 15:08:08.659398,-157.0
2023-08-12 15:08:08.667088,-119.0
2023-08-12 15:08:08.674778,-121.0
2023-08-12 15:08:08.682467,-126.0
2023-08-12 15:08:08.690157,-111.0
2023-08-12 15:08:08.697847,-107.0
2023-08-12 15:08:08.705537,-107.0
2023-08-12 15:08:08.713227,-97.0
2023-08-12 15:08:08.720917,-88.0
2023-08-12 15:08:08.728607,-85.0
2023-08-12 15:08:08.736297,-80.0
2023-08-12 15:08:08.743987,-71.0
2023-08-12 15:08:08.751677,-61.0
2023-08-12 15:08:08.759367,-54.0
2023-08-12 15:08:08.767057,-45.0
2023-08-12 15:08:08.774747,-30.0
2023-08-12 15:08:08.782437,-16.0
2023-08-12 15:08:08.790127,-7.0
2023-08-12 15:08:08.797817,-2.0
2023-08-12 15:08:08.805507,9.0
2023-08-12 15:08:08.813197,28.0
2023-08-12 15:08:08.820887,40.0
2023-08-12 15:08:08.828577,49.0
2023-08-12 15:08:08.836267,54.0
2023-08-12 15:08:08.843957,45.0
2023-08-12 15:08:08.851647,28.0
2023-08-12 15:08:08.859337,21.0
2023-08-12 15:08:08.867027,7.0
2023-08-12 15:08:08.874717,-23.0
2023-08-12 15:08:08.882407,-49.0
2023-08-12 15:08:08.890097,-76.0
2023-08-12 15:08:08.897787,-104.0
2023-08-12 15:08:08.905477,-123.0
2023-08-12 15:08:08.913166,-135.0
2023-08-12 15:08:08.920856,-142.0
2023-08-12 15:08:08.928546,-145.0
2023-08-12 15:08:08.936236,-142.0
2023-08-12 15:08:08.943926,-140.0
2023-08-12 15:08:08.951616,-135.0
2023-08-12 15:08:08.959306,-128.0
2023-08-12 15:08:08.966996,-123.0
2023-08-12 15:08:08.974686,-121.0
2023-08-12 15:08:08.982376,-119.0
2023-08-12 15:08:08.990066,-114.0
2023-08-12 15:08:08.997756,-111.0
2023-08-12 15:08:09.005446,-111.0
2023-08-12 15:08:09.013136,-104.0
2023-08-12 15:08:09.020826,-97.0
2023-08-12 15:08:09.028516,-99.0
2023-08-12 15:08:09.036206,-102.0
2023-08-12 15:08:09.043896,-97.0
2023-08-12 15:08:09.051586,-88.0
2023-08-12 15:08:09.059276,-83.0
2023-08-12 15:08:09.066966,-83.0
2023-08-12 15:08:09.074656,-88.0
2023-08-12 15:08:09.082346,-90.0
2023-08-12 15:08:09.090036,-85.0
2023-08-12 15:08:09.097726,-80.0
2023-08-12 15:08:09.105416,-78.0
2023-08-12 15:08:09.113106,-80.0
2023-08-12 15:08:09.120796,-83.0
2023-08-12 15:08:09.128486,-76.0
2023-08-12 15:08:09.136175,-73.0
2023-08-12 15:08:09.143865,-78.0
2023-08-12 15:08:09.151555,-78.0
2023-08-12 15:08:09.159245,-76.0
2023-08-12 15:08:09.166935,-76.0
2023-08-12 15:08:09.174625,-73.0
2023-08-12 15:08:09.182315,-73.0
2023-08-12 15:08:09.190005,-80.0
2023-08-12 15:08:09.197695,-83.0
2023-08-12 15:08:09.205385,-76.0
2023-08-12 15:08:09.213075,-76.0
2023-08-12 15:08:09.220765,-80.0
2023-08-12 15:08:09.228455,-73.0
2023-08-12 15:08:09.236145,-66.0
2023-08-12 15:08:09.243835,-66.0
2023-08-12 15:08:09.251525,-69.0
2023-08-12 15:08:09.259215,-66.0
2023-08-12 15:08:09.266905,-69.0
2023-08-12 15:08:09.274595,-69.0
2023-08-12 15:08:09.282285,-64.0
2023-08-12 15:08:09.289975,-61.0
2023-08-12 15:08:09.297665,-66.0
2023-08-12 15:08:09.305355,-69.0
2023-08-12 15:08:09.313045,-61.0
2023-08-12 15:08:09.320735,-52.0
2023-08-12 15:08:09.328425,-54.0
2023-08-12 15:08:09.336115,-59.0
2023-08-12 15:08:09.343805,-57.0
2023-08-12 15:08:09.351495,-57.0
2023-08-12 15:08:09.359184,-59.0
2023-08-12 15:08:09.366874,-59.0
2023-08-12 15:08:09.374564,-57.0
2023-08-12 15:08:09.382254,-61.0
2023-08-12 15:08:09.389944,-69.0
2023-08-12 15:08:09.397634,-66.0
2023-08-12 15:08:09.405324,-61.0
2023-08-12 15:08:09.413014,-64.0
2023-08-12 15:08:09.420704,-61.0
2023-08-12 15:08:09.428394,-64.0
2023-08-12 15:08:09.436084,-73.0
2023-08-12 15:08:09.443774,-73.0
2023-08-12 15:08:09.451464,-66.0
2023-08-12 15:08:09.459154,-69.0
2023-08-12 15:08:09.466844,-69.0
2023-08-12 15:08:09.474534,-69.0
2023-08-12 15:08:09.482224,-66.0
2023-08-12 15:08:09.489914,-66.0
2023-08-12 15:08:09.497604,-69.0
2023-08-12 15:08:09.505294,-61.0
2023-08-12 15:08:09.512984,-52.0
2023-08-12 15:08:09.520674,-52.0
2023-08-12 15:08:09.528364,-42.0
2023-08-12 15:08:09.536054,-23.0
2023-08-12 15:08:09.543744,-21.0
2023-08-12 15:08:09.551434,-30.0
2023-08-12 15:08:09.559124,-42.0
2023-08-12 15:08:09.566814,-45.0
2023-08-12 15:08:09.574504,-42.0
2023-08-12 15:08:09.582193,-49.0
2023-08-12 15:08:09.589883,-66.0
2023-08-12 15:08:09.597573,-71.0
2023-08-12 15:08:09.605263,-64.0
2023-08-12 15:08:09.612953,-69.0
2023-08-12 15:08:09.620643,-76.0
2023-08-12 15:08:09.628333,-78.0
2023-08-12 15:08:09.636023,-83.0
2023-08-12 15:08:09.643713,-42.0
2023-08-12 15:08:09.651403,126.0
2023-08-12 15:08:09.659093,426.0
2023-08-12 15:08:09.666783,659.0
2023-08-12 15:08:09.674473,542.0
2023-08-12 15:08:09.682163,126.0
2023-08-12 15:08:09.689853,-159.0
2023-08-12 15:08:09.697543,-176.0
2023-08-12 15:08:09.705233,-178.0
2023-08-12 15:08:09.712923,-195.0
2023-08-12 15:08:09.720613,-142.0
2023-08-12 15:08:09.728303,-111.0
2023-08-12 15:08:09.735993,-126.0
2023-08-12 15:08:09.743683,-119.0
2023-08-12 15:08:09.751373,-102.0
2023-08-12 15:08:09.759063,-95.0
2023-08-12 15:08:09.766753,-90.0
2023-08-12 15:08:09.774443,-78.0
2023-08-12 15:08:09.782133,-73.0
2023-08-12 15:08:09.789823,-71.0
2023-08-12 15:08:09.797513,-64.0
2023-08-12 15:08:09.805203,-52.0
2023-08-12 15:08:09.812892,-45.0
2023-08-12 15:08:09.820582,-35.0
2023-08-12 15:08:09.828272,-19.0
2023-08-12 15:08:09.835962,-4.0
2023-08-12 15:08:09.843652,0.0
2023-08-12 15:08:09.851342,9.0
2023-08-12 15:08:09.859032,26.0
2023-08-12 15:08:09.866722,40.0
2023-08-12 15:08:09.874412,57.0
2023-08-12 15:08:09.882102,73.0
2023-08-12 15:08:09.889792,80.0
2023-08-12 15:08:09.897482,76.0
2023-08-12 15:08:09.905172,69.0
2023-08-12 15:08:09.912862,61.0
2023-08-12 15:08:09.920552,45.0
2023-08-12 15:08:09.928242,16.0
2023-08-12 15:08:09.935932,-11.0
2023-08-12 15:08:09.943622,-47.0
2023-08-12 15:08:09.951312,-83.0
2023-08-12 15:08:09.959002,-107.0
2023-08-12 15:08:09.966692,-123.0
2023-08-12 15:08:09.974382,-145.0
2023-08-12 15:08:09.982072,-152.0
2023-08-12 15:08:09.989762,-147.0
2023-08-12 15:08:09.997452,-149.0
2023-08-12 15:08:10.005142,-152.0
2023-08-12 15:08:10.012832,-147.0
2023-08-12 15:08:10.020522,-145.0
2023-08-12 15:08:10.028212,-145.0
2023-08-12 15:08:10.035901,-145.0
2023-08-12 15:08:10.043591,-135.0
2023-08-12 15:08:10.051281,-121.0
2023-08-12 15:08:10.058971,-123.0
2023-08-12 15:08:10.066661,-135.0
2023-08-12 15:08:10.074351,-128.0
2023-08-12 15:08:10.082041,-119.0
2023-08-12 15:08:10.089731,-119.0
2023-08-12 15:08:10.097421,-116.0
2023-08-12 15:08:10.105111,-104.0
2023-08-12 15:08:10.112801,-95.0
2023-08-12 15:08:10.120491,-97.0
2023-08-12 15:08:10.128181,-102.0
2023-08-12 15:08:10.135871,-97.0
2023-08-12 15:08:10.143561,-97.0
2023-08-12 15:08:10.151251,-102.0
2023-08-12 15:08:10.158941,-102.0
2023-08-12 15:08:10.166631,-99.0
2023-08-12 15:08:10.174321,-99.0
2023-08-12 15:08:10.182011,-102.0
2023-08-12 15:08:10.189701,-99.0
2023-08-12 15:08:10.197391,-95.0
2023-08-12 15:08:10.205081,-102.0
2023-08-12 15:08:10.212771,-107.0
2023-08-12 15:08:10.220461,-95.0
2023-08-12 15:08:10.228151,-90.0
2023-08-12 15:08:10.235841,-95.0
2023-08-12 15:08:10.243531,-90.0
2023-08-12 15:08:10.251221,-83.0
2023-08-12 15:08:10.258910,-88.0
2023-08-12 15:08:10.266600,-90.0
2023-08-12 15:08:10.274290,-85.0
2023-08-12 15:08:10.281980,-88.0
2023-08-12 15:08:10.289670,-88.0
2023-08-12 15:08:10.297360,-83.0
2023-08-12 15:08:10.305050,-76.0
2023-08-12 15:08:10.312740,-73.0
2023-08-12 15:08:10.320430,-73.0
2023-08-12 15:08:10.328120,-73.0
2023-08-12 15:08:10.335810,-71.0
2023-08-12 15:08:10.343500,-71.0
2023-08-12 15:08:10.351190,-73.0
2023-08-12 15:08:10.358880,-73.0
2023-08-12 15:08:10.366570,-69.0
2023-08-12 15:08:10.374260,-69.0
2023-08-12 15:08:10.381950,-76.0
2023-08-12 15:08:10.389640,-78.0
2023-08-12 15:08:10.397330,-73.0
2023-08-12 15:08:10.405020,-69.0
2023-08-12 15:08:10.412710,-69.0
2023-08-12 15:08:10.420400,-69.0
2023-08-12 15:08:10.428090,-66.0
2023-08-12 15:08:10.435780,-61.0
2023-08-12 15:08:10.443470,-61.0
2023-08-12 15:08:10.451160,-66.0
2023-08-12 15:08:10.458850,-71.0
2023-08-12 15:08:10.466540,-71.0
2023-08-12 15:08:10.474230,-66.0
2023-08-12 15:08:10.481919,-54.0
2023-08-12 15:08:10.489609,-47.0
2023-08-12 15:08:10.497299,-40.0
2023-08-12 15:08:10.504989,-35.0
2023-08-12 15:08:10.512679,-45.0
2023-08-12 15:08:10.520369,-59.0
2023-08-12 15:08:10.528059,-57.0
2023-08-12 15:08:10.535749,-54.0
2023-08-12 15:08:10.543439,-61.0
2023-08-12 15:08:10.551129,-76.0
2023-08-12 15:08:10.558819,-92.0
2023-08-12 15:08:10.566509,-95.0
2023-08-12 15:08:10.574199,-88.0
2023-08-12 15:08:10.581889,-85.0
2023-08-12 15:08:10.589579,-88.0
2023-08-12 15:08:10.597269,-92.0
2023-08-12 15:08:10.604959,-66.0
2023-08-12 15:08:10.612649,92.0
2023-08-12 15:08:10.620339,407.0
2023-08-12 15:08:10.628029,652.0
2023-08-12 15:08:10.635719,533.0
2023-08-12 15:08:10.643409,119.0
2023-08-12 15:08:10.651099,-178.0
2023-08-12 15:08:10.658789,-199.0
2023-08-12 15:08:10.666479,-185.0
2023-08-12 15:08:10.674169,-195.0
2023-08-12 15:08:10.681859,-140.0
2023-08-12 15:08:10.689549,-111.0
2023-08-12 15:08:10.697239,-130.0
2023-08-12 15:08:10.704929,-123.0
2023-08-12 15:08:10.712618,-109.0
2023-08-12 15:08:10.720308,-107.0
2023-08-12 15:08:10.727998,-97.0
2023-08-12 15:08:10.735688,-92.0
2023-08-12 15:08:10.743378,-90.0
2023-08-12 15:08:10.751068,-80.0
2023-08-12 15:08:10.758758,-69.0
2023-08-12 15:08:10.766448,-57.0
2023-08-12 15:08:10.774138,-49.0
2023-08-12 15:08:10.781828,-40.0
2023-08-12 15:08:10.789518,-33.0
2023-08-12 15:08:10.797208,-23.0
2023-08-12 15:08:10.804898,-4.0
2023-08-12 15:08:10.812588,14.0
2023-08-12 15:08:10.820278,28.0
2023-08-12 15:08:10.827968,35.0
2023-08-12 15:08:10.835658,47.0
2023-08-12 15:08:10.843348,61.0
2023-08-12 15:08:10.851038,69.0
2023-08-12 15:08:10.858728,69.0
2023-08-12 15:08:10.866418,57.0
2023-08-12 15:08:10.874108,47.0
2023-08-12 15:08:10.881798,38.0
2023-08-12 15:08:10.889488,21.0
2023-08-12 15:08:10.897178,-11.0
2023-08-12 15:08:10.904868,-47.0
2023-08-12 15:08:10.912558,-76.0
2023-08-12 15:08:10.920248,-99.0
2023-08-12 15:08:10.927938,-123.0
2023-08-12 15:08:10.935627,-133.0
2023-08-12 15:08:10.943317,-135.0
2023-08-12 15:08:10.951007,-138.0
2023-08-12 15:08:10.958697,-135.0
2023-08-12 15:08:10.966387,-130.0
2023-08-12 15:08:10.974077,-130.0
2023-08-12 15:08:10.981767,-128.0
2023-08-12 15:08:10.989457,-121.0
2023-08-12 15:08:10.997147,-114.0
2023-08-12 15:08:11.004837,-111.0
2023-08-12 15:08:11.012527,-111.0
2023-08-12 15:08:11.020217,-107.0
2023-08-12 15:08:11.027907,-102.0
2023-08-12 15:08:11.035597,-97.0
2023-08-12 15:08:11.043287,-95.0
2023-08-12 15:08:11.050977,-99.0
2023-08-12 15:08:11.058667,-104.0
2023-08-12 15:08:11.066357,-97.0
2023-08-12 15:08:11.074047,-88.0
2023-08-12 15:08:11.081737,-88.0
2023-08-12 15:08:11.089427,-92.0
2023-08-12 15:08:11.097117,-95.0
2023-08-12 15:08:11.104807,-90.0
2023-08-12 15:08:11.112497,-88.0
2023-08-12 15:08:11.120187,-88.0
2023-08-12 15:08:11.127877,-88.0
2023-08-12 15:08:11.135567,-90.0
2023-08-12 15:08:11.143257,-88.0
2023-08-12 15:08:11.150947,-83.0
2023-08-12 15:08:11.158636,-85.0
2023-08-12 15:08:11.166326,-85.0
2023-08-12 15:08:11.174016,-83.0
2023-08-12 15:08:11.181706,-80.0
2023-08-12 15:08:11.189396,-78.0
2023-08-12 15:08:11.197086,-80.0
2023-08-12 15:08:11.204776,-80.0
2023-08-12 15:08:11.212466,-80.0
2023-08-12 15:08:11.220156,-85.0
2023-08-12 15:08:11.227846,-85.0
2023-08-12 15:08:11.235536,-78.0
2023-08-12 15:08:11.243226,-78.0
2023-08-12 15:08:11.250916,-80.0
2023-08-12 15:08:11.258606,-73.0
2023-08-12 15:08:11.266296,-69.0
2023-08-12 15:08:11.273986,-73.0
2023-08-12 15:08:11.281676,-73.0
2023-08-12 15:08:11.289366,-69.0
2023-08-12 15:08:11.297056,-66.0
2023-08-12 15:08:11.304746,-71.0
2023-08-12 15:08:11.312436,-71.0
2023-08-12 15:08:11.320126,-61.0
2023-08-12 15:08:11.327816,-61.0
2023-08-12 15:08:11.335506,-69.0
2023-08-12 15:08:11.343196,-69.0
2023-08-12 15:08:11.350886,-69.0
2023-08-12 15:08:11.358576,-64.0
2023-08-12 15:08:11.366266,-61.0
2023-08-12 15:08:11.373956,-66.0
2023-08-12 15:08:11.381645,-69.0
2023-08-12 15:08:11.389335,-64.0
2023-08-12 15:08:11.397025,-61.0
2023-08-12 15:08:11.404715,-64.0
2023-08-12 15:08:11.412405,-66.0
2023-08-12 15:08:11.420095,-66.0
2023-08-12 15:08:11.427785,-61.0
2023-08-12 15:08:11.435475,-59.0
2023-08-12 15:08:11.443165,-59.0
2023-08-12 15:08:11.450855,-59.0
2023-08-12 15:08:11.458545,-54.0
2023-08-12 15:08:11.466235,-52.0
2023-08-12 15:08:11.473925,-54.0
2023-08-12 15:08:11.481615,-52.0
2023-08-12 15:08:11.489305,-47.0
2023-08-12 15:08:11.496995,-45.0
2023-08-12 15:08:11.504685,-35.0
2023-08-12 15:08:11.512375,-26.0
2023-08-12 15:08:11.520065,-16.0
2023-08-12 15:08:11.527755,-16.0
2023-08-12 15:08:11.535445,-28.0
2023-08-12 15:08:11.543135,-38.0
2023-08-12 15:08:11.550825,-42.0
2023-08-12 15:08:11.558515,-57.0
2023-08-12 15:08:11.566205,-64.0
2023-08-12 15:08:11.573895,-73.0
2023-08-12 15:08:11.581585,-83.0
2023-08-12 15:08:11.589275,-76.0
2023-08-12 15:08:11.596965,-69.0
2023-08-12 15:08:11.604655,-76.0
2023-08-12 15:08:11.612344,-78.0
2023-08-12 15:08:11.620034,-28.0
2023-08-12 15:08:11.627724,164.0
2023-08-12 15:08:11.635414,454.0
2023-08-12 15:08:11.643104,618.0
2023-08-12 15:08:11.650794,449.0
2023-08-12 15:08:11.658484,52.0
2023-08-12 15:08:11.666174,-190.0
2023-08-12 15:08:11.673864,-183.0
2023-08-12 15:08:11.681554,-178.0
2023-08-12 15:08:11.689244,-188.0
2023-08-12 15:08:11.696934,-133.0
2023-08-12 15:08:11.704624,-109.0
2023-08-12 15:08:11.712314,-130.0
2023-08-12 15:08:11.720004,-126.0
2023-08-12 15:08:11.727694,-109.0
2023-08-12 15:08:11.735384,-109.0
2023-08-12 15:08:11.743074,-107.0
2023-08-12 15:08:11.750764,-99.0
2023-08-12 15:08:11.758454,-85.0
2023-08-12 15:08:11.766144,-80.0
2023-08-12 15:08:11.773834,-83.0
2023-08-12 15:08:11.781524,-78.0
2023-08-12 15:08:11.789214,-57.0
2023-08-12 15:08:11.796904,-42.0
2023-08-12 15:08:11.804594,-38.0
2023-08-12 15:08:11.812284,-35.0
2023-08-12 15:08:11.819974,-23.0
2023-08-12 15:08:11.827664,-9.0
2023-08-12 15:08:11.835353,2.0
2023-08-12 15:08:11.843043,16.0
2023-08-12 15:08:11.850733,28.0
2023-08-12 15:08:11.858423,33.0
2023-08-12 15:08:11.866113,35.0
2023-08-12 15:08:11.873803,35.0
2023-08-12 15:08:11.881493,28.0
2023-08-12 15:08:11.889183,23.0
2023-08-12 15:08:11.896873,16.0
2023-08-12 15:08:11.904563,-7.0
2023-08-12 15:08:11.912253,-42.0
2023-08-12 15:08:11.919943,-73.0
2023-08-12 15:08:11.927633,-97.0
2023-08-12 15:08:11.935323,-116.0
2023-08-12 15:08:11.943013,-128.0
2023-08-12 15:08:11.950703,-138.0
2023-08-12 15:08:11.958393,-145.0
2023-08-12 15:08:11.966083,-142.0
2023-08-12 15:08:11.973773,-138.0
2023-08-12 15:08:11.981463,-135.0
2023-08-12 15:08:11.989153,-135.0
2023-08-12 15:08:11.996843,-123.0
2023-08-12 15:08:12.004533,-111.0
2023-08-12 15:08:12.012223,-116.0
2023-08-12 15:08:12.019913,-121.0
2023-08-12 15:08:12.027603,-111.0
2023-08-12 15:08:12.035293,-102.0
2023-08-12 15:08:12.042983,-102.0
2023-08-12 15:08:12.050673,-104.0
2023-08-12 15:08:12.058362,-97.0
2023-08-12 15:08:12.066052,-88.0
2023-08-12 15:08:12.073742,-83.0
2023-08-12 15:08:12.081432,-88.0
2023-08-12 15:08:12.089122,-90.0
2023-08-12 15:08:12.096812,-88.0
2023-08-12 15:08:12.104502,-83.0
2023-08-12 15:08:12.112192,-80.0
2023-08-12 15:08:12.119882,-78.0
2023-08-12 15:08:12.127572,-78.0
2023-08-12 15:08:12.135262,-80.0
2023-08-12 15:08:12.142952,-80.0
2023-08-12 15:08:12.150642,-76.0
2023-08-12 15:08:12.158332,-76.0
2023-08-12 15:08:12.166022,-76.0
2023-08-12 15:08:12.173712,-76.0
2023-08-12 15:08:12.181402,-85.0
2023-08-12 15:08:12.189092,-90.0
2023-08-12 15:08:12.196782,-80.0
2023-08-12 15:08:12.204472,-76.0
2023-08-12 15:08:12.212162,-78.0
2023-08-12 15:08:12.219852,-78.0
2023-08-12 15:08:12.227542,-80.0
2023-08-12 15:08:12.235232,-85.0
2023-08-12 15:08:12.242922,-78.0
2023-08-12 15:08:12.250612,-69.0
2023-08-12 15:08:12.258302,-73.0
2023-08-12 15:08:12.265992,-80.0
2023-08-12 15:08:12.273682,-73.0
2023-08-12 15:08:12.281371,-69.0
2023-08-12 15:08:12.289061,-73.0
2023-08-12 15:08:12.296751,-76.0
2023-08-12 15:08:12.304441,-73.0
2023-08-12 15:08:12.312131,-71.0
2023-08-12 15:08:12.319821,-66.0
2023-08-12 15:08:12.327511,-61.0
2023-08-12 15:08:12.335201,-64.0
2023-08-12 15:08:12.342891,-66.0
2023-08-12 15:08:12.350581,-66.0
2023-08-12 15:08:12.358271,-69.0
2023-08-12 15:08:12.365961,-61.0
2023-08-12 15:08:12.373651,-54.0
2023-08-12 15:08:12.381341,-57.0
2023-08-12 15:08:12.389031,-59.0
2023-08-12 15:08:12.396721,-64.0
2023-08-12 15:08:12.404411,-64.0
2023-08-12 15:08:12.412101,-59.0
2023-08-12 15:08:12.419791,-57.0
2023-08-12 15:08:12.427481,-61.0
2023-08-12 15:08:12.435171,-64.0
2023-08-12 15:08:12.442861,-64.0
2023-08-12 15:08:12.450551,-59.0
2023-08-12 15:08:12.458241,-49.0
2023-08-12 15:08:12.465931,-38.0
2023-08-12 15:08:12.473621,-33.0
2023-08-12 15:08:12.481311,-33.0
2023-08-12 15:08:12.489001,-30.0
2023-08-12 15:08:12.496691,-21.0
2023-08-12 15:08:12.504381,-21.0
2023-08-12 15:08:12.512070,-35.0
2023-08-12 15:08:12.519760,-35.0
2023-08-12 15:08:12.527450,-28.0
2023-08-12 15:08:12.535140,-45.0
2023-08-12 15:08:12.542830,-64.0
2023-08-12 15:08:12.550520,-66.0
2023-08-12 15:08:12.558210,-64.0
2023-08-12 15:08:12.565900,-66.0
2023-08-12 15:08:12.573590,-73.0
2023-08-12 15:08:12.581280,-83.0
2023-08-12 15:08:12.588970,-85.0
2023-08-12 15:08:12.596660,-33.0
2023-08-12 15:08:12.604350,161.0
2023-08-12 15:08:12.612040,499.0
2023-08-12 15:08:12.619730,714.0
2023-08-12 15:08:12.627420,514.0
2023-08-12 15:08:12.635110,59.0
2023-08-12 15:08:12.642800,-185.0
2023-08-12 15:08:12.650490,-173.0
2023-08-12 15:08:12.658180,-188.0
2023-08-12 15:08:12.665870,-197.0
2023-08-12 15:08:12.673560,-128.0
2023-08-12 15:08:12.681250,-99.0
2023-08-12 15:08:12.688940,-119.0
2023-08-12 15:08:12.696630,-107.0
2023-08-12 15:08:12.704320,-90.0
2023-08-12 15:08:12.712010,-90.0
2023-08-12 15:08:12.719700,-83.0
2023-08-12 15:08:12.727390,-73.0
2023-08-12 15:08:12.735079,-71.0
2023-08-12 15:08:12.742769,-69.0
2023-08-12 15:08:12.750459,-64.0
2023-08-12 15:08:12.758149,-57.0
2023-08-12 15:08:12.765839,-54.0
2023-08-12 15:08:12.773529,-49.0
2023-08-12 15:08:12.781219,-38.0
2023-08-12 15:08:12.788909,-16.0
2023-08-12 15:08:12.796599,-4.0
2023-08-12 15:08:12.804289,4.0
2023-08-12 15:08:12.811979,23.0
2023-08-12 15:08:12.819669,47.0
2023-08-12 15:08:12.827359,61.0
2023-08-12 15:08:12.835049,71.0
2023-08-12 15:08:12.842739,83.0
2023-08-12 15:08:12.850429,78.0
2023-08-12 15:08:12.858119,69.0
2023-08-12 15:08:12.865809,64.0
2023-08-12 15:08:12.873499,45.0
2023-08-12 15:08:12.881189,14.0
2023-08-12 15:08:12.888879,-11.0
2023-08-12 15:08:12.896569,-49.0
2023-08-12 15:08:12.904259,-88.0
2023-08-12 15:08:12.911949,-109.0
2023-08-12 15:08:12.919639,-123.0
2023-08-12 15:08:12.927329,-135.0
2023-08-12 15:08:12.935019,-142.0
2023-08-12 15:08:12.942709,-145.0
2023-08-12 15:08:12.950399,-145.0
2023-08-12 15:08:12.958088,-138.0
2023-08-12 15:08:12.965778,-135.0
2023-08-12 15:08:12.973468,-135.0
2023-08-12 15:08:12.981158,-133.0
2023-08-12 15:08:12.988848,-123.0
2023-08-12 15:08:12.996538,-116.0
2023-08-12 15:08:13.004228,-111.0
2023-08-12 15:08:13.011918,-107.0
2023-08-12 15:08:13.019608,-102.0
2023-08-12 15:08:13.027298,-102.0
2023-08-12 15:08:13.034988,-97.0
2023-08-12 15:08:13.042678,-92.0
2023-08-12 15:08:13.050368,-88.0
2023-08-12 15:08:13.058058,-83.0
2023-08-12 15:08:13.065748,-85.0
2023-08-12 15:08:13.073438,-83.0
2023-08-12 15:08:13.081128,-78.0
2023-08-12 15:08:13.088818,-83.0
2023-08-12 15:08:13.096508,-80.0
2023-08-12 15:08:13.104198,-73.0
2023-08-12 15:08:13.111888,-78.0
2023-08-12 15:08:13.119578,-83.0
2023-08-12 15:08:13.127268,-83.0
2023-08-12 15:08:13.134958,-83.0
2023-08-12 15:08:13.142648,-80.0
2023-08-12 15:08:13.150338,-80.0
2023-08-12 15:08:13.158028,-80.0
2023-08-12 15:08:13.165718,-83.0
2023-08-12 15:08:13.173408,-80.0
2023-08-12 15:08:13.181097,-76.0
2023-08-12 15:08:13.188787,-71.0
2023-08-12 15:08:13.196477,-71.0
2023-08-12 15:08:13.204167,-73.0
2023-08-12 15:08:13.211857,-73.0
2023-08-12 15:08:13.219547,-73.0
2023-08-12 15:08:13.227237,-69.0
2023-08-12 15:08:13.234927,-69.0
2023-08-12 15:08:13.242617,-73.0
2023-08-12 15:08:13.250307,-78.0
2023-08-12 15:08:13.257997,-78.0
2023-08-12 15:08:13.265687,-71.0
2023-08-12 15:08:13.273377,-71.0
2023-08-12 15:08:13.281067,-71.0
2023-08-12 15:08:13.288757,-71.0
2023-08-12 15:08:13.296447,-71.0
2023-08-12 15:08:13.304137,-66.0
2023-08-12 15:08:13.311827,-61.0
2023-08-12 15:08:13.319517,-61.0
2023-08-12 15:08:13.327207,-54.0
2023-08-12 15:08:13.334897,-40.0
2023-08-12 15:08:13.342587,-35.0
2023-08-12 15:08:13.350277,-38.0
2023-08-12 15:08:13.357967,-47.0
2023-08-12 15:08:13.365657,-54.0
2023-08-12 15:08:13.373347,-52.0
2023-08-12 15:08:13.381037,-59.0
2023-08-12 15:08:13.388727,-69.0
2023-08-12 15:08:13.396417,-80.0
2023-08-12 15:08:13.404107,-90.0
2023-08-12 15:08:13.411796,-90.0
2023-08-12 15:08:13.419486,-83.0
2023-08-12 15:08:13.427176,-80.0
2023-08-12 15:08:13.434866,-80.0
2023-08-12 15:08:13.442556,-80.0
2023-08-12 15:08:13.450246,-35.0
2023-08-12 15:08:13.457936,171.0
2023-08-12 15:08:13.465626,511.0
2023-08-12 15:08:13.473316,695.0
2023-08-12 15:08:13.481006,461.0
2023-08-12 15:08:13.488696,9.0
2023-08-12 15:08:13.496386,-209.0
2023-08-12 15:08:13.504076,-180.0
2023-08-12 15:08:13.511766,-183.0
2023-08-12 15:08:13.519456,-190.0
2023-08-12 15:08:13.527146,-130.0
2023-08-12 15:08:13.534836,-111.0
2023-08-12 15:08:13.542526,-128.0
2023-08-12 15:08:13.550216,-114.0
2023-08-12 15:08:13.557906,-102.0
2023-08-12 15:08:13.565596,-107.0
2023-08-12 15:08:13.573286,-99.0
2023-08-12 15:08:13.580976,-88.0
2023-08-12 15:08:13.588666,-83.0
2023-08-12 15:08:13.596356,-80.0
2023-08-12 15:08:13.604046,-71.0
2023-08-12 15:08:13.611736,-59.0
2023-08-12 15:08:13.619426,-47.0
2023-08-12 15:08:13.627116,-38.0
2023-08-12 15:08:13.634805,-30.0
2023-08-12 15:08:13.642495,-19.0
2023-08-12 15:08:13.650185,-7.0
2023-08-12 15:08:13.657875,7.0
2023-08-12 15:08:13.665565,30.0
2023-08-12 15:08:13.673255,52.0
2023-08-12 15:08:13.680945,64.0
2023-08-12 15:08:13.688635,71.0
2023-08-12 15:08:13.696325,83.0
2023-08-12 15:08:13.704015,83.0
2023-08-12 15:08:13.711705,69.0
2023-08-12 15:08:13.719395,52.0
2023-08-12 15:08:13.727085,40.0
2023-08-12 15:08:13.734775,9.0
2023-08-12 15:08:13.742465,-33.0
2023-08-12 15:08:13.750155,-71.0
2023-08-12 15:08:13.757845,-99.0
2023-08-12 15:08:13.765535,-121.0
2023-08-12 15:08:13.773225,-135.0
2023-08-12 15:08:13.780915,-142.0
2023-08-12 15:08:13.788605,-149.0
2023-08-12 15:08:13.796295,-152.0
2023-08-12 15:08:13.803985,-154.0
2023-08-12 15:08:13.811675,-152.0
2023-08-12 15:08:13.819365,-140.0
2023-08-12 15:08:13.827055,-140.0
2023-08-12 15:08:13.834745,-145.0
2023-08-12 15:08:13.842435,-145.0
2023-08-12 15:08:13.850125,-130.0
2023-08-12 15:08:13.857814,-123.0
2023-08-12 15:08:13.865504,-126.0
2023-08-12 15:08:13.873194,-121.0
2023-08-12 15:08:13.880884,-114.0
2023-08-12 15:08:13.888574,-114.0
2023-08-12 15:08:13.896264,-109.0
2023-08-12 15:08:13.903954,-102.0
2023-08-12 15:08:13.911644,-99.0
2023-08-12 15:08:13.919334,-99.0
2023-08-12 15:08:13.927024,-97.0
2023-08-12 15:08:13.934714,-90.0
2023-08-12 15:08:13.942404,-90.0
2023-08-12 15:08:13.950094,-83.0
2023-08-12 15:08:13.957784,-76.0
2023-08-12 15:08:13.965474,-83.0
2023-08-12 15:08:13.973164,-90.0
2023-08-12 15:08:13.980854,-88.0
2023-08-12 15:08:13.988544,-83.0
2023-08-12 15:08:13.996234,-83.0
2023-08-12 15:08:14.003924,-83.0
2023-08-12 15:08:14.011614,-78.0
2023-08-12 15:08:14.019304,-78.0
2023-08-12 15:08:14.026994,-80.0
2023-08-12 15:08:14.034684,-83.0
2023-08-12 15:08:14.042374,-78.0
2023-08-12 15:08:14.050064,-71.0
2023-08-12 15:08:14.057754,-71.0
2023-08-12 15:08:14.065444,-80.0
2023-08-12 15:08:14.073134,-78.0
2023-08-12 15:08:14.080823,-73.0
2023-08-12 15:08:14.088513,-71.0
2023-08-12 15:08:14.096203,-71.0
2023-08-12 15:08:14.103893,-66.0
2023-08-12 15:08:14.111583,-69.0
2023-08-12 15:08:14.119273,-66.0
2023-08-12 15:08:14.126963,-64.0
2023-08-12 15:08:14.134653,-66.0
2023-08-12 15:08:14.142343,-66.0
2023-08-12 15:08:14.150033,-64.0
2023-08-12 15:08:14.157723,-64.0
2023-08-12 15:08:14.165413,-61.0
2023-08-12 15:08:14.173103,-57.0
2023-08-12 15:08:14.180793,-59.0
2023-08-12 15:08:14.188483,-59.0
2023-08-12 15:08:14.196173,-54.0
2023-08-12 15:08:14.203863,-47.0
2023-08-12 15:08:14.211553,-45.0
2023-08-12 15:08:14.219243,-45.0
2023-08-12 15:08:14.226933,-38.0
2023-08-12 15:08:14.234623,-26.0
2023-08-12 15:08:14.242313,-16.0
2023-08-12 15:08:14.250003,-16.0
2023-08-12 15:08:14.257693,-28.0
2023-08-12 15:08:14.265383,-40.0
2023-08-12 15:08:14.273073,-42.0
2023-08-12 15:08:14.280763,-45.0
2023-08-12 15:08:14.288453,-54.0
2023-08-12 15:08:14.296143,-66.0
2023-08-12 15:08:14.303833,-78.0
2023-08-12 15:08:14.311522,-76.0
2023-08-12 15:08:14.319212,-61.0
2023-08-12 15:08:14.326902,-61.0
2023-08-12 15:08:14.334592,-71.0
2023-08-12 15:08:14.342282,-59.0
2023-08-12 15:08:14.349972,47.0
2023-08-12 15:08:14.357662,309.0
2023-08-12 15:08:14.365352,609.0
2023-08-12 15:08:14.373042,654.0
2023-08-12 15:08:14.380732,311.0
2023-08-12 15:08:14.388422,-95.0
2023-08-12 15:08:14.396112,-204.0
2023-08-12 15:08:14.403802,-159.0
2023-08-12 15:08:14.411492,-171.0
2023-08-12 15:08:14.419182,-152.0
2023-08-12 15:08:14.426872,-109.0
2023-08-12 15:08:14.434562,-121.0
2023-08-12 15:08:14.442252,-126.0
2023-08-12 15:08:14.449942,-99.0
2023-08-12 15:08:14.457632,-88.0
2023-08-12 15:08:14.465322,-88.0
2023-08-12 15:08:14.473012,-85.0
2023-08-12 15:08:14.480702,-78.0
2023-08-12 15:08:14.488392,-66.0
2023-08-12 15:08:14.496082,-54.0
2023-08-12 15:08:14.503772,-52.0
2023-08-12 15:08:14.511462,-45.0
2023-08-12 15:08:14.519152,-33.0
2023-08-12 15:08:14.526842,-23.0
2023-08-12 15:08:14.534531,-19.0
2023-08-12 15:08:14.542221,-14.0
2023-08-12 15:08:14.549911,-2.0
2023-08-12 15:08:14.557601,9.0
2023-08-12 15:08:14.565291,26.0
2023-08-12 15:08:14.572981,42.0
2023-08-12 15:08:14.580671,49.0
2023-08-12 15:08:14.588361,54.0
2023-08-12 15:08:14.596051,59.0
2023-08-12 15:08:14.603741,57.0
2023-08-12 15:08:14.611431,45.0
2023-08-12 15:08:14.619121,30.0
2023-08-12 15:08:14.626811,11.0
2023-08-12 15:08:14.634501,-14.0
2023-08-12 15:08:14.642191,-42.0
2023-08-12 15:08:14.649881,-73.0
2023-08-12 15:08:14.657571,-102.0
2023-08-12 15:08:14.665261,-119.0
2023-08-12 15:08:14.672951,-126.0
2023-08-12 15:08:14.680641,-133.0
2023-08-12 15:08:14.688331,-135.0
2023-08-12 15:08:14.696021,-138.0
2023-08-12 15:08:14.703711,-135.0
2023-08-12 15:08:14.711401,-126.0
2023-08-12 15:08:14.719091,-116.0
2023-08-12 15:08:14.726781,-111.0
2023-08-12 15:08:14.734471,-111.0
2023-08-12 15:08:14.742161,-111.0
2023-08-12 15:08:14.749851,-109.0
2023-08-12 15:08:14.757540,-111.0
2023-08-12 15:08:14.765230,-107.0
2023-08-12 15:08:14.772920,-99.0
2023-08-12 15:08:14.780610,-99.0
2023-08-12 15:08:14.788300,-102.0
2023-08-12 15:08:14.795990,-99.0
2023-08-12 15:08:14.803680,-97.0
2023-08-12 15:08:14.811370,-95.0
2023-08-12 15:08:14.819060,-92.0
2023-08-12 15:08:14.826750,-88.0
2023-08-12 15:08:14.834440,-88.0
2023-08-12 15:08:14.842130,-88.0
2023-08-12 15:08:14.849820,-85.0
2023-08-12 15:08:14.857510,-76.0
2023-08-12 15:08:14.865200,-76.0
2023-08-12 15:08:14.872890,-83.0
2023-08-12 15:08:14.880580,-88.0
2023-08-12 15:08:14.888270,-80.0
2023-08-12 15:08:14.895960,-73.0
2023-08-12 15:08:14.903650,-76.0
2023-08-12 15:08:14.911340,-80.0
2023-08-12 15:08:14.919030,-76.0
2023-08-12 15:08:14.926720,-64.0
2023-08-12 15:08:14.934410,-64.0
2023-08-12 15:08:14.942100,-73.0
2023-08-12 15:08:14.949790,-69.0
2023-08-12 15:08:14.957480,-59.0
2023-08-12 15:08:14.965170,-64.0
2023-08-12 15:08:14.972860,-71.0
2023-08-12 15:08:14.980549,-66.0
2023-08-12 15:08:14.988239,-66.0
2023-08-12 15:08:14.995929,-64.0
2023-08-12 15:08:15.003619,-57.0
2023-08-12 15:08:15.011309,-64.0
2023-08-12 15:08:15.018999,-73.0
2023-08-12 15:08:15.026689,-71.0
2023-08-12 15:08:15.034379,-66.0
2023-08-12 15:08:15.042069,-69.0
2023-08-12 15:08:15.049759,-71.0
2023-08-12 15:08:15.057449,-69.0
2023-08-12 15:08:15.065139,-61.0
2023-08-12 15:08:15.072829,-64.0
2023-08-12 15:08:15.080519,-69.0
2023-08-12 15:08:15.088209,-64.0
2023-08-12 15:08:15.095899,-57.0
2023-08-12 15:08:15.103589,-57.0
2023-08-12 15:08:15.111279,-57.0
2023-08-12 15:08:15.118969,-54.0
2023-08-12 15:08:15.126659,-54.0
2023-08-12 15:08:15.134349,-52.0
2023-08-12 15:08:15.142039,-47.0
2023-08-12 15:08:15.149729,-47.0
2023-08-12 15:08:15.157419,-47.0
2023-08-12 15:08:15.165109,-47.0
2023-08-12 15:08:15.172799,-35.0
2023-08-12 15:08:15.180489,-14.0
2023-08-12 15:08:15.188179,-4.0
2023-08-12 15:08:15.195869,-11.0
2023-08-12 15:08:15.203559,-26.0
2023-08-12 15:08:15.211248,-33.0
2023-08-12 15:08:15.218938,-30.0
2023-08-12 15:08:15.226628,-35.0
2023-08-12 15:08:15.234318,-47.0
2023-08-12 15:08:15.242008,-59.0
2023-08-12 15:08:15.249698,-64.0
2023-08-12 15:08:15.257388,-57.0
2023-08-12 15:08:15.265078,-52.0
2023-08-12 15:08:15.272768,-64.0
2023-08-12 15:08:15.280458,-73.0
2023-08-12 15:08:15.288148,-40.0
2023-08-12 15:08:15.295838,119.0
2023-08-12 15:08:15.303528,416.0
2023-08-12 15:08:15.311218,666.0
2023-08-12 15:08:15.318908,576.0
2023-08-12 15:08:15.326598,171.0
2023-08-12 15:08:15.334288,-138.0
2023-08-12 15:08:15.341978,-161.0
2023-08-12 15:08:15.349668,-147.0
2023-08-12 15:08:15.357358,-176.0
2023-08-12 15:08:15.365048,-135.0
2023-08-12 15:08:15.372738,-92.0
2023-08-12 15:08:15.380428,-104.0
2023-08-12 15:08:15.388118,-99.0
2023-08-12 15:08:15.395808,-78.0
2023-08-12 15:08:15.403498,-76.0
2023-08-12 15:08:15.411188,-76.0
2023-08-12 15:08:15.418878,-64.0
2023-08-12 15:08:15.426568,-59.0
2023-08-12 15:08:15.434257,-59.0
2023-08-12 15:08:15.441947,-54.0
2023-08-12 15:08:15.449637,-45.0
2023-08-12 15:08:15.457327,-30.0
2023-08-12 15:08:15.465017,-21.0
2023-08-12 15:08:15.472707,-11.0
2023-08-12 15:08:15.480397,0.0
2023-08-12 15:08:15.488087,9.0
2023-08-12 15:08:15.495777,16.0
2023-08-12 15:08:15.503467,33.0
2023-08-12 15:08:15.511157,52.0
2023-08-12 15:08:15.518847,61.0
2023-08-12 15:08:15.526537,73.0
2023-08-12 15:08:15.534227,80.0
2023-08-12 15:08:15.541917,76.0
2023-08-12 15:08:15.549607,71.0
2023-08-12 15:08:15.557297,57.0
2023-08-12 15:08:15.564987,33.0
2023-08-12 15:08:15.572677,11.0
2023-08-12 15:08:15.580367,-14.0
2023-08-12 15:08:15.588057,-47.0
2023-08-12 15:08:15.595747,-88.0
2023-08-12 15:08:15.603437,-121.0
2023-08-12 15:08:15.611127,-133.0
2023-08-12 15:08:15.618817,-140.0
2023-08-12 15:08:15.626507,-145.0
2023-08-12 15:08:15.634197,-149.0
2023-08-12 15:08:15.641887,-152.0
2023-08-12 15:08:15.649577,-145.0
2023-08-12 15:08:15.657266,-135.0
2023-08-12 15:08:15.664956,-133.0
2023-08-12 15:08:15.672646,-135.0
2023-08-12 15:08:15.680336,-130.0
2023-08-12 15:08:15.688026,-126.0
2023-08-12 15:08:15.695716,-126.0
2023-08-12 15:08:15.703406,-116.0
2023-08-12 15:08:15.711096,-97.0
2023-08-12 15:08:15.718786,-92.0
2023-08-12 15:08:15.726476,-104.0
2023-08-12 15:08:15.734166,-104.0
2023-08-12 15:08:15.741856,-102.0
2023-08-12 15:08:15.749546,-90.0
2023-08-12 15:08:15.757236,-83.0
2023-08-12 15:08:15.764926,-92.0
2023-08-12 15:08:15.772616,-102.0
2023-08-12 15:08:15.780306,-95.0
2023-08-12 15:08:15.787996,-92.0
2023-08-12 15:08:15.795686,-92.0
2023-08-12 15:08:15.803376,-83.0
2023-08-12 15:08:15.811066,-85.0
2023-08-12 15:08:15.818756,-97.0
2023-08-12 15:08:15.826446,-95.0
2023-08-12 15:08:15.834136,-80.0
2023-08-12 15:08:15.841826,-73.0
2023-08-12 15:08:15.849516,-80.0
2023-08-12 15:08:15.857206,-85.0
2023-08-12 15:08:15.864896,-83.0
2023-08-12 15:08:15.872586,-80.0
2023-08-12 15:08:15.880275,-78.0
2023-08-12 15:08:15.887965,-76.0
2023-08-12 15:08:15.895655,-76.0
2023-08-12 15:08:15.903345,-76.0
2023-08-12 15:08:15.911035,-73.0
2023-08-12 15:08:15.918725,-66.0
2023-08-12 15:08:15.926415,-66.0
2023-08-12 15:08:15.934105,-69.0
2023-08-12 15:08:15.941795,-69.0
2023-08-12 15:08:15.949485,-66.0
2023-08-12 15:08:15.957175,-61.0
2023-08-12 15:08:15.964865,-57.0
2023-08-12 15:08:15.972555,-61.0
2023-08-12 15:08:15.980245,-69.0
2023-08-12 15:08:15.987935,-61.0
2023-08-12 15:08:15.995625,-57.0
2023-08-12 15:08:16.003315,-57.0
2023-08-12 15:08:16.011005,-59.0
2023-08-12 15:08:16.018695,-61.0
2023-08-12 15:08:16.026385,-61.0
2023-08-12 15:08:16.034075,-54.0
2023-08-12 15:08:16.041765,-52.0
2023-08-12 15:08:16.049455,-57.0
2023-08-12 15:08:16.057145,-54.0
2023-08-12 15:08:16.064835,-33.0
2023-08-12 15:08:16.072525,-16.0
2023-08-12 15:08:16.080215,-16.0
2023-08-12 15:08:16.087905,-26.0
2023-08-12 15:08:16.095595,-40.0
2023-08-12 15:08:16.103285,-42.0
2023-08-12 15:08:16.110974,-35.0
2023-08-12 15:08:16.118664,-40.0
2023-08-12 15:08:16.126354,-57.0
2023-08-12 15:08:16.134044,-71.0
2023-08-12 15:08:16.141734,-73.0
2023-08-12 15:08:16.149424,-69.0
2023-08-12 15:08:16.157114,-61.0
2023-08-12 15:08:16.164804,-61.0
2023-08-12 15:08:16.172494,-69.0
2023-08-12 15:08:16.180184,-52.0
2023-08-12 15:08:16.187874,61.0
2023-08-12 15:08:16.195564,347.0
2023-08-12 15:08:16.203254,656.0
2023-08-12 15:08:16.210944,652.0
2023-08-12 15:08:16.218634,254.0
2023-08-12 15:08:16.226324,-121.0
2023-08-12 15:08:16.234014,-176.0
2023-08-12 15:08:16.241704,-138.0
2023-08-12 15:08:16.249394,-171.0
2023-08-12 15:08:16.257084,-142.0
2023-08-12 15:08:16.264774,-83.0
2023-08-12 15:08:16.272464,-102.0
2023-08-12 15:08:16.280154,-119.0
2023-08-12 15:08:16.287844,-88.0
2023-08-12 15:08:16.295534,-78.0
2023-08-12 15:08:16.303224,-83.0
2023-08-12 15:08:16.310914,-73.0
2023-08-12 15:08:16.318604,-66.0
2023-08-12 15:08:16.326294,-59.0
2023-08-12 15:08:16.333983,-45.0
2023-08-12 15:08:16.341673,-35.0
2023-08-12 15:08:16.349363,-33.0
2023-08-12 15:08:16.357053,-23.0
2023-08-12 15:08:16.364743,-4.0
2023-08-12 15:08:16.372433,4.0
2023-08-12 15:08:16.380123,11.0
2023-08-12 15:08:16.387813,26.0
2023-08-12 15:08:16.395503,42.0
2023-08-12 15:08:16.403193,54.0
2023-08-12 15:08:16.410883,64.0
2023-08-12 15:08:16.418573,76.0
2023-08-12 15:08:16.426263,85.0
2023-08-12 15:08:16.433953,85.0
2023-08-12 15:08:16.441643,85.0
2023-08-12 15:08:16.449333,78.0
2023-08-12 15:08:16.457023,52.0
2023-08-12 15:08:16.464713,26.0
2023-08-12 15:08:16.472403,2.0
2023-08-12 15:08:16.480093,-30.0
2023-08-12 15:08:16.487783,-61.0
2023-08-12 15:08:16.495473,-90.0
2023-08-12 15:08:16.503163,-114.0
2023-08-12 15:08:16.510853,-130.0
2023-08-12 15:08:16.518543,-138.0
2023-08-12 15:08:16.526233,-135.0
2023-08-12 15:08:16.533923,-133.0
2023-08-12 15:08:16.541613,-126.0
2023-08-12 15:08:16.549303,-121.0
2023-08-12 15:08:16.556992,-130.0
2023-08-12 15:08:16.564682,-130.0
2023-08-12 15:08:16.572372,-119.0
2023-08-12 15:08:16.580062,-111.0
2023-08-12 15:08:16.587752,-116.0
2023-08-12 15:08:16.595442,-116.0
2023-08-12 15:08:16.603132,-107.0
2023-08-12 15:08:16.610822,-92.0
2023-08-12 15:08:16.618512,-92.0
2023-08-12 15:08:16.626202,-99.0
2023-08-12 15:08:16.633892,-97.0
2023-08-12 15:08:16.641582,-92.0
2023-08-12 15:08:16.649272,-88.0
2023-08-12 15:08:16.656962,-80.0
2023-08-12 15:08:16.664652,-78.0
2023-08-12 15:08:16.672342,-90.0
2023-08-12 15:08:16.680032,-97.0
2023-08-12 15:08:16.687722,-88.0
2023-08-12 15:08:16.695412,-78.0
2023-08-12 15:08:16.703102,-88.0
2023-08-12 15:08:16.710792,-90.0
2023-08-12 15:08:16.718482,-80.0
2023-08-12 15:08:16.726172,-88.0
2023-08-12 15:08:16.733862,-99.0
2023-08-12 15:08:16.741552,-88.0
2023-08-12 15:08:16.749242,-76.0
2023-08-12 15:08:16.756932,-90.0
2023-08-12 15:08:16.764622,-97.0
2023-08-12 15:08:16.772312,-85.0
2023-08-12 15:08:16.780001,-85.0
2023-08-12 15:08:16.787691,-92.0
2023-08-12 15:08:16.795381,-90.0
2023-08-12 15:08:16.803071,-88.0
2023-08-12 15:08:16.810761,-88.0
2023-08-12 15:08:16.818451,-83.0
2023-08-12 15:08:16.826141,-78.0
2023-08-12 15:08:16.833831,-80.0
2023-08-12 15:08:16.841521,-78.0
2023-08-12 15:08:16.849211,-73.0
2023-08-12 15:08:16.856901,-73.0
2023-08-12 15:08:16.864591,-78.0
2023-08-12 15:08:16.872281,-71.0
2023-08-12 15:08:16.879971,-64.0
2023-08-12 15:08:16.887661,-66.0
2023-08-12 15:08:16.895351,-69.0
2023-08-12 15:08:16.903041,-66.0
2023-08-12 15:08:16.910731,-59.0
2023-08-12 15:08:16.918421,-64.0
2023-08-12 15:08:16.926111,-69.0
2023-08-12 15:08:16.933801,-64.0
2023-08-12 15:08:16.941491,-57.0
2023-08-12 15:08:16.949181,-57.0
2023-08-12 15:08:16.956871,-64.0
2023-08-12 15:08:16.964561,-66.0
2023-08-12 15:08:16.972251,-57.0
2023-08-12 15:08:16.979941,-45.0
2023-08-12 15:08:16.987631,-52.0
2023-08-12 15:08:16.995321,-61.0
2023-08-12 15:08:17.003011,-59.0
2023-08-12 15:08:17.010700,-59.0
2023-08-12 15:08:17.018390,-54.0
2023-08-12 15:08:17.026080,-47.0
2023-08-12 15:08:17.033770,-45.0
2023-08-12 15:08:17.041460,-42.0
2023-08-12 15:08:17.049150,-33.0
2023-08-12 15:08:17.056840,-16.0
2023-08-12 15:08:17.064530,-16.0
2023-08-12 15:08:17.072220,-28.0
2023-08-12 15:08:17.079910,-30.0
2023-08-12 15:08:17.087600,-28.0
2023-08-12 15:08:17.095290,-35.0
2023-08-12 15:08:17.102980,-47.0
2023-08-12 15:08:17.110670,-61.0
2023-08-12 15:08:17.118360,-71.0
2023-08-12 15:08:17.126050,-66.0
2023-08-12 15:08:17.133740,-54.0
2023-08-12 15:08:17.141430,-52.0
2023-08-12 15:08:17.149120,-71.0
2023-08-12 15:08:17.156810,-64.0
2023-08-12 15:08:17.164500,49.0
2023-08-12 15:08:17.172190,314.0
2023-08-12 15:08:17.179880,602.0
2023-08-12 15:08:17.187570,630.0
2023-08-12 15:08:17.195260,295.0
2023-08-12 15:08:17.202950,-85.0
2023-08-12 15:08:17.210640,-190.0
2023-08-12 15:08:17.218330,-159.0
2023-08-12 15:08:17.226020,-173.0
2023-08-12 15:08:17.233709,-152.0
2023-08-12 15:08:17.241399,-107.0
2023-08-12 15:08:17.249089,-111.0
2023-08-12 15:08:17.256779,-126.0
2023-08-12 15:08:17.264469,-116.0
2023-08-12 15:08:17.272159,-104.0
2023-08-12 15:08:17.279849,-102.0
2023-08-12 15:08:17.287539,-102.0
2023-08-12 15:08:17.295229,-90.0
2023-08-12 15:08:17.302919,-83.0
2023-08-12 15:08:17.310609,-78.0
2023-08-12 15:08:17.318299,-69.0
2023-08-12 15:08:17.325989,-57.0
2023-08-12 15:08:17.333679,-49.0
2023-08-12 15:08:17.341369,-45.0
2023-08-12 15:08:17.349059,-30.0
2023-08-12 15:08:17.356749,-16.0
2023-08-12 15:08:17.364439,-7.0
2023-08-12 15:08:17.372129,9.0
2023-08-12 15:08:17.379819,35.0
2023-08-12 15:08:17.387509,47.0
2023-08-12 15:08:17.395199,47.0
2023-08-12 15:08:17.402889,54.0
2023-08-12 15:08:17.410579,52.0
2023-08-12 15:08:17.418269,52.0
2023-08-12 15:08:17.425959,52.0
2023-08-12 15:08:17.433649,38.0
2023-08-12 15:08:17.441339,9.0
2023-08-12 15:08:17.449029,-19.0
2023-08-12 15:08:17.456718,-42.0
2023-08-12 15:08:17.464408,-71.0
2023-08-12 15:08:17.472098,-97.0
2023-08-12 15:08:17.479788,-119.0
2023-08-12 15:08:17.487478,-133.0
2023-08-12 15:08:17.495168,-138.0
2023-08-12 15:08:17.502858,-133.0
2023-08-12 15:08:17.510548,-133.0
2023-08-12 15:08:17.518238,-138.0
2023-08-12 15:08:17.525928,-138.0
2023-08-12 15:08:17.533618,-126.0
2023-08-12 15:08:17.541308,-116.0
2023-08-12 15:08:17.548998,-119.0
2023-08-12 15:08:17.556688,-116.0
2023-08-12 15:08:17.564378,-111.0
2023-08-12 15:08:17.572068,-114.0
2023-08-12 15:08:17.579758,-116.0
2023-08-12 15:08:17.587448,-109.0
2023-08-12 15:08:17.595138,-104.0
2023-08-12 15:08:17.602828,-107.0
2023-08-12 15:08:17.610518,-104.0
2023-08-12 15:08:17.618208,-97.0
2023-08-12 15:08:17.625898,-99.0
2023-08-12 15:08:17.633588,-104.0
2023-08-12 15:08:17.641278,-95.0
2023-08-12 15:08:17.648968,-88.0
2023-08-12 15:08:17.656658,-90.0
2023-08-12 15:08:17.664348,-92.0
2023-08-12 15:08:17.672038,-88.0
2023-08-12 15:08:17.679727,-90.0
2023-08-12 15:08:17.687417,-90.0
2023-08-12 15:08:17.695107,-85.0
2023-08-12 15:08:17.702797,-88.0
2023-08-12 15:08:17.710487,-90.0
2023-08-12 15:08:17.718177,-85.0
2023-08-12 15:08:17.725867,-83.0
2023-08-12 15:08:17.733557,-85.0
2023-08-12 15:08:17.741247,-90.0
2023-08-12 15:08:17.748937,-95.0
2023-08-12 15:08:17.756627,-95.0
2023-08-12 15:08:17.764317,-90.0
2023-08-12 15:08:17.772007,-90.0
2023-08-12 15:08:17.779697,-90.0
2023-08-12 15:08:17.787387,-85.0
2023-08-12 15:08:17.795077,-88.0
2023-08-12 15:08:17.802767,-97.0
2023-08-12 15:08:17.810457,-97.0
2023-08-12 15:08:17.818147,-85.0
2023-08-12 15:08:17.825837,-80.0
2023-08-12 15:08:17.833527,-85.0
2023-08-12 15:08:17.841217,-85.0
2023-08-12 15:08:17.848907,-83.0
2023-08-12 15:08:17.856597,-80.0
2023-08-12 15:08:17.864287,-76.0
2023-08-12 15:08:17.871977,-76.0
2023-08-12 15:08:17.879667,-73.0
2023-08-12 15:08:17.887357,-71.0
2023-08-12 15:08:17.895047,-66.0
2023-08-12 15:08:17.902737,-64.0
2023-08-12 15:08:17.910426,-66.0
2023-08-12 15:08:17.918116,-61.0
2023-08-12 15:08:17.925806,-59.0
2023-08-12 15:08:17.933496,-59.0
2023-08-12 15:08:17.941186,-61.0
2023-08-12 15:08:17.948876,-66.0
2023-08-12 15:08:17.956566,-61.0
2023-08-12 15:08:17.964256,-52.0
2023-08-12 15:08:17.971946,-47.0
2023-08-12 15:08:17.979636,-52.0
2023-08-12 15:08:17.987326,-61.0
2023-08-12 15:08:17.995016,-66.0
2023-08-12 15:08:18.002706,-57.0
2023-08-12 15:08:18.010396,-52.0
2023-08-12 15:08:18.018086,-49.0
2023-08-12 15:08:18.025776,-42.0
2023-08-12 15:08:18.033466,-30.0
2023-08-12 15:08:18.041156,-26.0
2023-08-12 15:08:18.048846,-23.0
2023-08-12 15:08:18.056536,-14.0
2023-08-12 15:08:18.064226,-19.0
2023-08-12 15:08:18.071916,-35.0
2023-08-12 15:08:18.079606,-35.0
2023-08-12 15:08:18.087296,-33.0
2023-08-12 15:08:18.094986,-42.0
2023-08-12 15:08:18.102676,-59.0
2023-08-12 15:08:18.110366,-64.0
2023-08-12 15:08:18.118056,-61.0
2023-08-12 15:08:18.125746,-57.0
2023-08-12 15:08:18.133435,-57.0
2023-08-12 15:08:18.141125,-64.0
2023-08-12 15:08:18.148815,-64.0
2023-08-12 15:08:18.156505,-4.0
2023-08-12 15:08:18.164195,209.0
2023-08-12 15:08:18.171885,552.0
2023-08-12 15:08:18.179575,723.0
2023-08-12 15:08:18.187265,471.0
2023-08-12 15:08:18.194955,26.0
2023-08-12 15:08:18.202645,-180.0
2023-08-12 15:08:18.210335,-157.0
2023-08-12 15:08:18.218025,-161.0
2023-08-12 15:08:18.225715,-164.0
2023-08-12 15:08:18.233405,-107.0
2023-08-12 15:08:18.241095,-99.0
2023-08-12 15:08:18.248785,-116.0
2023-08-12 15:08:18.256475,-99.0
2023-08-12 15:08:18.264165,-80.0
2023-08-12 15:08:18.271855,-76.0
2023-08-12 15:08:18.279545,-73.0
2023-08-12 15:08:18.287235,-73.0
2023-08-12 15:08:18.294925,-73.0
2023-08-12 15:08:18.302615,-64.0
2023-08-12 15:08:18.310305,-57.0
2023-08-12 15:08:18.317995,-52.0
2023-08-12 15:08:18.325685,-38.0
2023-08-12 15:08:18.333375,-19.0
2023-08-12 15:08:18.341065,-11.0
2023-08-12 15:08:18.348755,-9.0
2023-08-12 15:08:18.356444,7.0
2023-08-12 15:08:18.364134,26.0
2023-08-12 15:08:18.371824,42.0
2023-08-12 15:08:18.379514,54.0
2023-08-12 15:08:18.387204,61.0
2023-08-12 15:08:18.394894,66.0
2023-08-12 15:08:18.402584,71.0
2023-08-12 15:08:18.410274,78.0
2023-08-12 15:08:18.417964,73.0
2023-08-12 15:08:18.425654,49.0
2023-08-12 15:08:18.433344,19.0
2023-08-12 15:08:18.441034,-7.0
2023-08-12 15:08:18.448724,-38.0
2023-08-12 15:08:18.456414,-71.0
2023-08-12 15:08:18.464104,-97.0
2023-08-12 15:08:18.471794,-119.0
2023-08-12 15:08:18.479484,-140.0
2023-08-12 15:08:18.487174,-157.0
2023-08-12 15:08:18.494864,-164.0
2023-08-12 15:08:18.502554,-152.0
2023-08-12 15:08:18.510244,-145.0
2023-08-12 15:08:18.517934,-147.0
2023-08-12 15:08:18.525624,-147.0
2023-08-12 15:08:18.533314,-145.0
2023-08-12 15:08:18.541004,-140.0
2023-08-12 15:08:18.548694,-130.0
2023-08-12 15:08:18.556384,-130.0
2023-08-12 15:08:18.564074,-130.0
2023-08-12 15:08:18.571764,-126.0
2023-08-12 15:08:18.579453,-123.0
2023-08-12 15:08:18.587143,-116.0
2023-08-12 15:08:18.594833,-107.0
2023-08-12 15:08:18.602523,-104.0
2023-08-12 15:08:18.610213,-104.0
2023-08-12 15:08:18.617903,-104.0
2023-08-12 15:08:18.625593,-104.0
2023-08-12 15:08:18.633283,-99.0
2023-08-12 15:08:18.640973,-95.0
2023-08-12 15:08:18.648663,-92.0
2023-08-12 15:08:18.656353,-85.0
2023-08-12 15:08:18.664043,-92.0
2023-08-12 15:08:18.671733,-95.0
2023-08-12 15:08:18.679423,-92.0
2023-08-12 15:08:18.687113,-95.0
2023-08-12 15:08:18.694803,-90.0
2023-08-12 15:08:18.702493,-85.0
2023-08-12 15:08:18.710183,-90.0
2023-08-12 15:08:18.717873,-95.0
2023-08-12 15:08:18.725563,-92.0
2023-08-12 15:08:18.733253,-95.0
2023-08-12 15:08:18.740943,-92.0
2023-08-12 15:08:18.748633,-88.0
2023-08-12 15:08:18.756323,-83.0
2023-08-12 15:08:18.764013,-80.0
2023-08-12 15:08:18.771703,-83.0
2023-08-12 15:08:18.779393,-85.0
2023-08-12 15:08:18.787083,-83.0
2023-08-12 15:08:18.794773,-80.0
2023-08-12 15:08:18.802463,-83.0
2023-08-12 15:08:18.810152,-80.0
2023-08-12 15:08:18.817842,-78.0
2023-08-12 15:08:18.825532,-83.0
2023-08-12 15:08:18.833222,-83.0
2023-08-12 15:08:18.840912,-73.0
2023-08-12 15:08:18.848602,-71.0
2023-08-12 15:08:18.856292,-73.0
2023-08-12 15:08:18.863982,-71.0
2023-08-12 15:08:18.871672,-66.0
2023-08-12 15:08:18.879362,-69.0
2023-08-12 15:08:18.887052,-71.0
2023-08-12 15:08:18.894742,-64.0
2023-08-12 15:08:18.902432,-64.0
2023-08-12 15:08:18.910122,-71.0
2023-08-12 15:08:18.917812,-69.0
2023-08-12 15:08:18.925502,-64.0
2023-08-12 15:08:18.933192,-71.0
2023-08-12 15:08:18.940882,-73.0
2023-08-12 15:08:18.948572,-66.0
2023-08-12 15:08:18.956262,-61.0
2023-08-12 15:08:18.963952,-57.0
2023-08-12 15:08:18.971642,-47.0
2023-08-12 15:08:18.979332,-35.0
2023-08-12 15:08:18.987022,-30.0
2023-08-12 15:08:18.994712,-33.0
2023-08-12 15:08:19.002402,-42.0
2023-08-12 15:08:19.010092,-42.0
2023-08-12 15:08:19.017782,-40.0
2023-08-12 15:08:19.025472,-47.0
2023-08-12 15:08:19.033161,-61.0
2023-08-12 15:08:19.040851,-73.0
2023-08-12 15:08:19.048541,-78.0
2023-08-12 15:08:19.056231,-76.0
2023-08-12 15:08:19.063921,-69.0
2023-08-12 15:08:19.071611,-64.0
2023-08-12 15:08:19.079301,-71.0
2023-08-12 15:08:19.086991,-66.0
2023-08-12 15:08:19.094681,47.0
2023-08-12 15:08:19.102371,335.0
2023-08-12 15:08:19.110061,642.0
2023-08-12 15:08:19.117751,668.0
2023-08-12 15:08:19.125441,314.0
2023-08-12 15:08:19.133131,-88.0
2023-08-12 15:08:19.140821,-190.0
2023-08-12 15:08:19.148511,-152.0
2023-08-12 15:08:19.156201,-178.0
2023-08-12 15:08:19.163891,-152.0
2023-08-12 15:08:19.171581,-90.0
2023-08-12 15:08:19.179271,-99.0
2023-08-12 15:08:19.186961,-109.0
2023-08-12 15:08:19.194651,-88.0
2023-08-12 15:08:19.202341,-78.0
2023-08-12 15:08:19.210031,-78.0
2023-08-12 15:08:19.217721,-73.0
2023-08-12 15:08:19.225411,-73.0
2023-08-12 15:08:19.233101,-69.0
2023-08-12 15:08:19.240791,-57.0
2023-08-12 15:08:19.248481,-52.0
2023-08-12 15:08:19.256170,-49.0
2023-08-12 15:08:19.263860,-38.0
2023-08-12 15:08:19.271550,-21.0
2023-08-12 15:08:19.279240,-11.0
2023-08-12 15:08:19.286930,0.0
2023-08-12 15:08:19.294620,14.0
2023-08-12 15:08:19.302310,23.0
2023-08-12 15:08:19.310000,33.0
2023-08-12 15:08:19.317690,49.0
2023-08-12 15:08:19.325380,61.0
2023-08-12 15:08:19.333070,71.0
2023-08-12 15:08:19.340760,73.0
2023-08-12 15:08:19.348450,64.0
2023-08-12 15:08:19.356140,57.0
2023-08-12 15:08:19.363830,47.0
2023-08-12 15:08:19.371520,26.0
2023-08-12 15:08:19.379210,-2.0
2023-08-12 15:08:19.386900,-38.0
2023-08-12 15:08:19.394590,-73.0
2023-08-12 15:08:19.402280,-97.0
2023-08-12 15:08:19.409970,-121.0
2023-08-12 15:08:19.417660,-145.0
2023-08-12 15:08:19.425350,-149.0
2023-08-12 15:08:19.433040,-142.0
2023-08-12 15:08:19.440730,-140.0
2023-08-12 15:08:19.448420,-138.0
2023-08-12 15:08:19.456110,-135.0
2023-08-12 15:08:19.463800,-135.0
2023-08-12 15:08:19.471490,-135.0
2023-08-12 15:08:19.479179,-130.0
2023-08-12 15:08:19.486869,-123.0
2023-08-12 15:08:19.494559,-121.0
2023-08-12 15:08:19.502249,-119.0
2023-08-12 15:08:19.509939,-121.0
2023-08-12 15:08:19.517629,-126.0
2023-08-12 15:08:19.525319,-123.0
2023-08-12 15:08:19.533009,-114.0
2023-08-12 15:08:19.540699,-107.0
2023-08-12 15:08:19.548389,-99.0
2023-08-12 15:08:19.556079,-102.0
2023-08-12 15:08:19.563769,-102.0
2023-08-12 15:08:19.571459,-97.0
2023-08-12 15:08:19.579149,-92.0
2023-08-12 15:08:19.586839,-92.0
2023-08-12 15:08:19.594529,-92.0
2023-08-12 15:08:19.602219,-90.0
2023-08-12 15:08:19.609909,-90.0
2023-08-12 15:08:19.617599,-90.0
2023-08-12 15:08:19.625289,-90.0
2023-08-12 15:08:19.632979,-90.0
2023-08-12 15:08:19.640669,-90.0
2023-08-12 15:08:19.648359,-80.0
2023-08-12 15:08:19.656049,-76.0
2023-08-12 15:08:19.663739,-80.0
2023-08-12 15:08:19.671429,-88.0
2023-08-12 15:08:19.679119,-83.0
2023-08-12 15:08:19.686809,-80.0
2023-08-12 15:08:19.694499,-80.0
2023-08-12 15:08:19.702189,-76.0
2023-08-12 15:08:19.709878,-73.0
2023-08-12 15:08:19.717568,-83.0
2023-08-12 15:08:19.725258,-83.0
2023-08-12 15:08:19.732948,-73.0
2023-08-12 15:08:19.740638,-71.0
2023-08-12 15:08:19.748328,-73.0
2023-08-12 15:08:19.756018,-71.0
2023-08-12 15:08:19.763708,-69.0
2023-08-12 15:08:19.771398,-69.0
2023-08-12 15:08:19.779088,-69.0
2023-08-12 15:08:19.786778,-69.0
2023-08-12 15:08:19.794468,-69.0
2023-08-12 15:08:19.802158,-69.0
2023-08-12 15:08:19.809848,-66.0
2023-08-12 15:08:19.817538,-66.0
2023-08-12 15:08:19.825228,-71.0
2023-08-12 15:08:19.832918,-71.0
2023-08-12 15:08:19.840608,-69.0
2023-08-12 15:08:19.848298,-69.0
2023-08-12 15:08:19.855988,-64.0
2023-08-12 15:08:19.863678,-59.0
2023-08-12 15:08:19.871368,-61.0
2023-08-12 15:08:19.879058,-61.0
2023-08-12 15:08:19.886748,-59.0
2023-08-12 15:08:19.894438,-61.0
2023-08-12 15:08:19.902128,-61.0
2023-08-12 15:08:19.909818,-49.0
2023-08-12 15:08:19.917508,-47.0
2023-08-12 15:08:19.925198,-59.0
2023-08-12 15:08:19.932887,-57.0
2023-08-12 15:08:19.940577,-52.0
2023-08-12 15:08:19.948267,-57.0
2023-08-12 15:08:19.955957,-54.0
2023-08-12 15:08:19.963647,-54.0
2023-08-12 15:08:19.971337,-54.0
2023-08-12 15:08:19.979027,-47.0
2023-08-12 15:08:19.986717,-49.0
2023-08-12 15:08:19.994407,-52.0
2023-08-12 15:08:20.002097,-40.0
2023-08-12 15:08:20.009787,-33.0
2023-08-12 15:08:20.017477,-30.0
2023-08-12 15:08:20.025167,-23.0
2023-08-12 15:08:20.032857,-14.0
2023-08-12 15:08:20.040547,-19.0
2023-08-12 15:08:20.048237,-33.0
2023-08-12 15:08:20.055927,-38.0
2023-08-12 15:08:20.063617,-40.0
2023-08-12 15:08:20.071307,-47.0
2023-08-12 15:08:20.078997,-61.0
2023-08-12 15:08:20.086687,-73.0
2023-08-12 15:08:20.094377,-69.0
2023-08-12 15:08:20.102067,-59.0
2023-08-12 15:08:20.109757,-61.0
2023-08-12 15:08:20.117447,-66.0
2023-08-12 15:08:20.125137,-66.0
2023-08-12 15:08:20.132827,-11.0
2023-08-12 15:08:20.140517,192.0
2023-08-12 15:08:20.148207,514.0
2023-08-12 15:08:20.155896,680.0
2023-08-12 15:08:20.163586,466.0
2023-08-12 15:08:20.171276,45.0
2023-08-12 15:08:20.178966,-180.0
2023-08-12 15:08:20.186656,-169.0
2023-08-12 15:08:20.194346,-166.0
2023-08-12 15:08:20.202036,-166.0
2023-08-12 15:08:20.209726,-119.0
2023-08-12 15:08:20.217416,-102.0
2023-08-12 15:08:20.225106,-119.0
2023-08-12 15:08:20.232796,-107.0
2023-08-12 15:08:20.240486,-88.0
2023-08-12 15:08:20.248176,-85.0
2023-08-12 15:08:20.255866,-83.0
2023-08-12 15:08:20.263556,-73.0
2023-08-12 15:08:20.271246,-61.0
2023-08-12 15:08:20.278936,-59.0
2023-08-12 15:08:20.286626,-57.0
2023-08-12 15:08:20.294316,-47.0
2023-08-12 15:08:20.302006,-42.0
2023-08-12 15:08:20.309696,-38.0
2023-08-12 15:08:20.317386,-33.0
2023-08-12 15:08:20.325076,-26.0
2023-08-12 15:08:20.332766,-11.0
2023-08-12 15:08:20.340456,4.0
2023-08-12 15:08:20.348146,21.0
2023-08-12 15:08:20.355836,38.0
2023-08-12 15:08:20.363526,45.0
2023-08-12 15:08:20.371216,52.0
2023-08-12 15:08:20.378905,57.0
2023-08-12 15:08:20.386595,54.0
2023-08-12 15:08:20.394285,47.0
2023-08-12 15:08:20.401975,42.0
2023-08-12 15:08:20.409665,28.0
2023-08-12 15:08:20.417355,0.0
2023-08-12 15:08:20.425045,-28.0
2023-08-12 15:08:20.432735,-54.0
2023-08-12 15:08:20.440425,-88.0
2023-08-12 15:08:20.448115,-109.0
2023-08-12 15:08:20.455805,-116.0
2023-08-12 15:08:20.463495,-128.0
2023-08-12 15:08:20.471185,-142.0
2023-08-12 15:08:20.478875,-142.0
2023-08-12 15:08:20.486565,-135.0
2023-08-12 15:08:20.494255,-130.0
2023-08-12 15:08:20.501945,-128.0
2023-08-12 15:08:20.509635,-116.0
2023-08-12 15:08:20.517325,-111.0
2023-08-12 15:08:20.525015,-116.0
2023-08-12 15:08:20.532705,-109.0
2023-08-12 15:08:20.540395,-99.0
2023-08-12 15:08:20.548085,-97.0
2023-08-12 15:08:20.555775,-97.0
2023-08-12 15:08:20.563465,-95.0
2023-08-12 15:08:20.571155,-95.0
2023-08-12 15:08:20.578845,-95.0
2023-08-12 15:08:20.586535,-92.0
2023-08-12 15:08:20.594225,-90.0
2023-08-12 15:08:20.601915,-85.0
2023-08-12 15:08:20.609604,-88.0
2023-08-12 15:08:20.617294,-95.0
2023-08-12 15:08:20.624984,-88.0
2023-08-12 15:08:20.632674,-83.0
2023-08-12 15:08:20.640364,-83.0
2023-08-12 15:08:20.648054,-80.0
2023-08-12 15:08:20.655744,-78.0
2023-08-12 15:08:20.663434,-78.0
2023-08-12 15:08:20.671124,-78.0
2023-08-12 15:08:20.678814,-78.0
2023-08-12 15:08:20.686504,-80.0
2023-08-12 15:08:20.694194,-83.0
2023-08-12 15:08:20.701884,-88.0
2023-08-12 15:08:20.709574,-83.0
2023-08-12 15:08:20.717264,-73.0
2023-08-12 15:08:20.724954,-73.0
2023-08-12 15:08:20.732644,-78.0
2023-08-12 15:08:20.740334,-78.0
2023-08-12 15:08:20.748024,-73.0
2023-08-12 15:08:20.755714,-66.0
2023-08-12 15:08:20.763404,-61.0
2023-08-12 15:08:20.771094,-69.0
2023-08-12 15:08:20.778784,-69.0
2023-08-12 15:08:20.786474,-64.0
2023-08-12 15:08:20.794164,-64.0
2023-08-12 15:08:20.801854,-66.0
2023-08-12 15:08:20.809544,-59.0
2023-08-12 15:08:20.817234,-54.0
2023-08-12 15:08:20.824924,-61.0
2023-08-12 15:08:20.832613,-69.0
2023-08-12 15:08:20.840303,-66.0
2023-08-12 15:08:20.847993,-69.0
2023-08-12 15:08:20.855683,-66.0
2023-08-12 15:08:20.863373,-57.0
2023-08-12 15:08:20.871063,-54.0
2023-08-12 15:08:20.878753,-61.0
2023-08-12 15:08:20.886443,-59.0
2023-08-12 15:08:20.894133,-54.0
2023-08-12 15:08:20.901823,-57.0
2023-08-12 15:08:20.909513,-61.0
2023-08-12 15:08:20.917203,-57.0
2023-08-12 15:08:20.924893,-54.0
2023-08-12 15:08:20.932583,-57.0
2023-08-12 15:08:20.940273,-52.0
2023-08-12 15:08:20.947963,-52.0
2023-08-12 15:08:20.955653,-59.0
2023-08-12 15:08:20.963343,-54.0
2023-08-12 15:08:20.971033,-54.0
2023-08-12 15:08:20.978723,-61.0
2023-08-12 15:08:20.986413,-59.0
2023-08-12 15:08:20.994103,-54.0
2023-08-12 15:08:21.001793,-52.0
2023-08-12 15:08:21.009483,-47.0
2023-08-12 15:08:21.017173,-45.0
2023-08-12 15:08:21.024863,-38.0
2023-08-12 15:08:21.032553,-26.0
2023-08-12 15:08:21.040243,-19.0
2023-08-12 15:08:21.047933,-19.0
2023-08-12 15:08:21.055622,-26.0
2023-08-12 15:08:21.063312,-33.0
2023-08-12 15:08:21.071002,-30.0
2023-08-12 15:08:21.078692,-28.0
2023-08-12 15:08:21.086382,-47.0
2023-08-12 15:08:21.094072,-69.0
2023-08-12 15:08:21.101762,-73.0
2023-08-12 15:08:21.109452,-61.0
2023-08-12 15:08:21.117142,-59.0
2023-08-12 15:08:21.124832,-66.0
2023-08-12 15:08:21.132522,-71.0
2023-08-12 15:08:21.140212,-73.0
2023-08-12 15:08:21.147902,-19.0
2023-08-12 15:08:21.155592,192.0
2023-08-12 15:08:21.163282,528.0
2023-08-12 15:08:21.170972,714.0
2023-08-12 15:08:21.178662,483.0
2023-08-12 15:08:21.186352,23.0
2023-08-12 15:08:21.194042,-197.0
2023-08-12 15:08:21.201732,-171.0
2023-08-12 15:08:21.209422,-188.0
2023-08-12 15:08:21.217112,-207.0
2023-08-12 15:08:21.224802,-135.0
2023-08-12 15:08:21.232492,-104.0
2023-08-12 15:08:21.240182,-130.0
2023-08-12 15:08:21.247872,-121.0
2023-08-12 15:08:21.255562,-102.0
2023-08-12 15:08:21.263252,-102.0
2023-08-12 15:08:21.270942,-99.0
2023-08-12 15:08:21.278631,-92.0
2023-08-12 15:08:21.286321,-85.0
2023-08-12 15:08:21.294011,-73.0
2023-08-12 15:08:21.301701,-64.0
2023-08-12 15:08:21.309391,-59.0
2023-08-12 15:08:21.317081,-52.0
2023-08-12 15:08:21.324771,-47.0
2023-08-12 15:08:21.332461,-40.0
2023-08-12 15:08:21.340151,-23.0
2023-08-12 15:08:21.347841,-4.0
2023-08-12 15:08:21.355531,4.0
2023-08-12 15:08:21.363221,19.0
2023-08-12 15:08:21.370911,38.0
2023-08-12 15:08:21.378601,49.0
2023-08-12 15:08:21.386291,66.0
2023-08-12 15:08:21.393981,76.0
2023-08-12 15:08:21.401671,69.0
2023-08-12 15:08:21.409361,59.0
2023-08-12 15:08:21.417051,54.0
2023-08-12 15:08:21.424741,35.0
2023-08-12 15:08:21.432431,7.0
2023-08-12 15:08:21.440121,-30.0
2023-08-12 15:08:21.447811,-69.0
2023-08-12 15:08:21.455501,-92.0
2023-08-12 15:08:21.463191,-111.0
2023-08-12 15:08:21.470881,-130.0
2023-08-12 15:08:21.478571,-145.0
2023-08-12 15:08:21.486261,-149.0
2023-08-12 15:08:21.493951,-157.0
2023-08-12 15:08:21.501641,-154.0
2023-08-12 15:08:21.509330,-138.0
2023-08-12 15:08:21.517020,-130.0
2023-08-12 15:08:21.524710,-138.0
2023-08-12 15:08:21.532400,-138.0
2023-08-12 15:08:21.540090,-126.0
2023-08-12 15:08:21.547780,-119.0
2023-08-12 15:08:21.555470,-116.0
2023-08-12 15:08:21.563160,-109.0
2023-08-12 15:08:21.570850,-102.0
2023-08-12 15:08:21.578540,-102.0
2023-08-12 15:08:21.586230,-102.0
2023-08-12 15:08:21.593920,-95.0
2023-08-12 15:08:21.601610,-85.0
2023-08-12 15:08:21.609300,-85.0
2023-08-12 15:08:21.616990,-85.0
2023-08-12 15:08:21.624680,-83.0
2023-08-12 15:08:21.632370,-88.0
2023-08-12 15:08:21.640060,-83.0
2023-08-12 15:08:21.647750,-71.0
2023-08-12 15:08:21.655440,-76.0
2023-08-12 15:08:21.663130,-85.0
2023-08-12 15:08:21.670820,-80.0
2023-08-12 15:08:21.678510,-83.0
2023-08-12 15:08:21.686200,-95.0
2023-08-12 15:08:21.693890,-88.0
2023-08-12 15:08:21.701580,-76.0
2023-08-12 15:08:21.709270,-78.0
2023-08-12 15:08:21.716960,-90.0
2023-08-12 15:08:21.724650,-92.0
2023-08-12 15:08:21.732339,-80.0
2023-08-12 15:08:21.740029,-78.0
2023-08-12 15:08:21.747719,-85.0
2023-08-12 15:08:21.755409,-78.0
2023-08-12 15:08:21.763099,-83.0
2023-08-12 15:08:21.770789,-92.0
2023-08-12 15:08:21.778479,-83.0
2023-08-12 15:08:21.786169,-71.0
2023-08-12 15:08:21.793859,-76.0
2023-08-12 15:08:21.801549,-85.0
2023-08-12 15:08:21.809239,-90.0
2023-08-12 15:08:21.816929,-85.0
2023-08-12 15:08:21.824619,-83.0
2023-08-12 15:08:21.832309,-92.0
2023-08-12 15:08:21.839999,-95.0
2023-08-12 15:08:21.847689,-88.0
2023-08-12 15:08:21.855379,-85.0
2023-08-12 15:08:21.863069,-80.0
2023-08-12 15:08:21.870759,-78.0
2023-08-12 15:08:21.878449,-83.0
2023-08-12 15:08:21.886139,-83.0
2023-08-12 15:08:21.893829,-78.0
2023-08-12 15:08:21.901519,-78.0
2023-08-12 15:08:21.909209,-78.0
2023-08-12 15:08:21.916899,-71.0
2023-08-12 15:08:21.924589,-69.0
2023-08-12 15:08:21.932279,-73.0
2023-08-12 15:08:21.939969,-71.0
2023-08-12 15:08:21.947659,-69.0
2023-08-12 15:08:21.955348,-69.0
2023-08-12 15:08:21.963038,-61.0
2023-08-12 15:08:21.970728,-49.0
2023-08-12 15:08:21.978418,-40.0
2023-08-12 15:08:21.986108,-38.0
2023-08-12 15:08:21.993798,-33.0
2023-08-12 15:08:22.001488,-42.0
2023-08-12 15:08:22.009178,-49.0
2023-08-12 15:08:22.016868,-49.0
2023-08-12 15:08:22.024558,-57.0
2023-08-12 15:08:22.032248,-71.0
2023-08-12 15:08:22.039938,-83.0
2023-08-12 15:08:22.047628,-85.0
2023-08-12 15:08:22.055318,-76.0
2023-08-12 15:08:22.063008,-73.0
2023-08-12 15:08:22.070698,-78.0
2023-08-12 15:08:22.078388,-80.0
2023-08-12 15:08:22.086078,-76.0
2023-08-12 15:08:22.093768,-19.0
2023-08-12 15:08:22.101458,185.0
2023-08-12 15:08:22.109148,509.0
2023-08-12 15:08:22.116838,687.0
2023-08-12 15:08:22.124528,471.0
2023-08-12 15:08:22.132218,30.0
2023-08-12 15:08:22.139908,-192.0
2023-08-12 15:08:22.147598,-169.0
2023-08-12 15:08:22.155288,-178.0
2023-08-12 15:08:22.162978,-188.0
2023-08-12 15:08:22.170668,-126.0
2023-08-12 15:08:22.178357,-111.0
2023-08-12 15:08:22.186047,-135.0
2023-08-12 15:08:22.193737,-116.0
2023-08-12 15:08:22.201427,-92.0
2023-08-12 15:08:22.209117,-90.0
2023-08-12 15:08:22.216807,-88.0
2023-08-12 15:08:22.224497,-80.0
2023-08-12 15:08:22.232187,-76.0
2023-08-12 15:08:22.239877,-66.0
2023-08-12 15:08:22.247567,-61.0
2023-08-12 15:08:22.255257,-57.0
2023-08-12 15:08:22.262947,-42.0
2023-08-12 15:08:22.270637,-30.0
2023-08-12 15:08:22.278327,-21.0
2023-08-12 15:08:22.286017,-7.0
2023-08-12 15:08:22.293707,7.0
2023-08-12 15:08:22.301397,11.0
2023-08-12 15:08:22.309087,19.0
2023-08-12 15:08:22.316777,38.0
2023-08-12 15:08:22.324467,57.0
2023-08-12 15:08:22.332157,64.0
2023-08-12 15:08:22.339847,69.0
2023-08-12 15:08:22.347537,66.0
2023-08-12 15:08:22.355227,59.0
2023-08-12 15:08:22.362917,49.0
2023-08-12 15:08:22.370607,30.0
2023-08-12 15:08:22.378297,9.0
2023-08-12 15:08:22.385987,-19.0
2023-08-12 15:08:22.393677,-57.0
2023-08-12 15:08:22.401367,-88.0
2023-08-12 15:08:22.409056,-107.0
2023-08-12 15:08:22.416746,-121.0
2023-08-12 15:08:22.424436,-138.0
2023-08-12 15:08:22.432126,-142.0
2023-08-12 15:08:22.439816,-140.0
2023-08-12 15:08:22.447506,-138.0
2023-08-12 15:08:22.455196,-135.0
2023-08-12 15:08:22.462886,-130.0
2023-08-12 15:08:22.470576,-126.0
2023-08-12 15:08:22.478266,-119.0
2023-08-12 15:08:22.485956,-116.0
2023-08-12 15:08:22.493646,-114.0
2023-08-12 15:08:22.501336,-111.0
2023-08-12 15:08:22.509026,-107.0
2023-08-12 15:08:22.516716,-102.0
2023-08-12 15:08:22.524406,-102.0
2023-08-12 15:08:22.532096,-99.0
2023-08-12 15:08:22.539786,-92.0
2023-08-12 15:08:22.547476,-92.0
2023-08-12 15:08:22.555166,-92.0
2023-08-12 15:08:22.562856,-85.0
2023-08-12 15:08:22.570546,-85.0
2023-08-12 15:08:22.578236,-88.0
2023-08-12 15:08:22.585926,-83.0
2023-08-12 15:08:22.593616,-83.0
2023-08-12 15:08:22.601306,-83.0
2023-08-12 15:08:22.608996,-78.0
2023-08-12 15:08:22.616686,-78.0
2023-08-12 15:08:22.624376,-83.0
2023-08-12 15:08:22.632065,-76.0
2023-08-12 15:08:22.639755,-71.0
2023-08-12 15:08:22.647445,-78.0
2023-08-12 15:08:22.655135,-80.0
2023-08-12 15:08:22.662825,-80.0
2023-08-12 15:08:22.670515,-78.0
2023-08-12 15:08:22.678205,-76.0
2023-08-12 15:08:22.685895,-71.0
2023-08-12 15:08:22.693585,-73.0
2023-08-12 15:08:22.701275,-76.0
2023-08-12 15:08:22.708965,-73.0
2023-08-12 15:08:22.716655,-69.0
2023-08-12 15:08:22.724345,-69.0
2023-08-12 15:08:22.732035,-64.0
2023-08-12 15:08:22.739725,-64.0
2023-08-12 15:08:22.747415,-69.0
2023-08-12 15:08:22.755105,-69.0
2023-08-12 15:08:22.762795,-66.0
2023-08-12 15:08:22.770485,-66.0
2023-08-12 15:08:22.778175,-66.0
2023-08-12 15:08:22.785865,-59.0
2023-08-12 15:08:22.793555,-54.0
2023-08-12 15:08:22.801245,-64.0
2023-08-12 15:08:22.808935,-64.0
2023-08-12 15:08:22.816625,-54.0
2023-08-12 15:08:22.824315,-57.0
2023-08-12 15:08:22.832005,-64.0
2023-08-12 15:08:22.839695,-64.0
2023-08-12 15:08:22.847385,-69.0
2023-08-12 15:08:22.855074,-69.0
2023-08-12 15:08:22.862764,-64.0
2023-08-12 15:08:22.870454,-61.0
2023-08-12 15:08:22.878144,-61.0
2023-08-12 15:08:22.885834,-66.0
2023-08-12 15:08:22.893524,-71.0
2023-08-12 15:08:22.901214,-73.0
2023-08-12 15:08:22.908904,-73.0
2023-08-12 15:08:22.916594,-71.0
2023-08-12 15:08:22.924284,-66.0
2023-08-12 15:08:22.931974,-73.0
2023-08-12 15:08:22.939664,-71.0
2023-08-12 15:08:22.947354,-57.0
2023-08-12 15:08:22.955044,-49.0
2023-08-12 15:08:22.962734,-40.0
2023-08-12 15:08:22.970424,-33.0
2023-08-12 15:08:22.978114,-49.0
2023-08-12 15:08:22.985804,-59.0
2023-08-12 15:08:22.993494,-54.0
2023-08-12 15:08:23.001184,-59.0
2023-08-12 15:08:23.008874,-73.0
2023-08-12 15:08:23.016564,-83.0
2023-08-12 15:08:23.024254,-88.0
2023-08-12 15:08:23.031944,-85.0
2023-08-12 15:08:23.039634,-73.0
2023-08-12 15:08:23.047324,-69.0
2023-08-12 15:08:23.055014,-88.0
2023-08-12 15:08:23.062704,-76.0
2023-08-12 15:08:23.070394,54.0
2023-08-12 15:08:23.078083,335.0
2023-08-12 15:08:23.085773,621.0
2023-08-12 15:08:23.093463,623.0
2023-08-12 15:08:23.101153,257.0
2023-08-12 15:08:23.108843,-121.0
2023-08-12 15:08:23.116533,-202.0
2023-08-12 15:08:23.124223,-164.0
2023-08-12 15:08:23.131913,-178.0
2023-08-12 15:08:23.139603,-149.0
2023-08-12 15:08:23.147293,-107.0
2023-08-12 15:08:23.154983,-119.0
2023-08-12 15:08:23.162673,-121.0
2023-08-12 15:08:23.170363,-99.0
2023-08-12 15:08:23.178053,-95.0
2023-08-12 15:08:23.185743,-92.0
2023-08-12 15:08:23.193433,-83.0
2023-08-12 15:08:23.201123,-73.0
2023-08-12 15:08:23.208813,-59.0
2023-08-12 15:08:23.216503,-42.0
2023-08-12 15:08:23.224193,-40.0
2023-08-12 15:08:23.231883,-42.0
2023-08-12 15:08:23.239573,-33.0
2023-08-12 15:08:23.247263,-21.0
2023-08-12 15:08:23.254953,-4.0
2023-08-12 15:08:23.262643,14.0
2023-08-12 15:08:23.270333,21.0
2023-08-12 15:08:23.278023,33.0
2023-08-12 15:08:23.285713,52.0
2023-08-12 15:08:23.293403,61.0
2023-08-12 15:08:23.301093,71.0
2023-08-12 15:08:23.308782,85.0
2023-08-12 15:08:23.316472,88.0
2023-08-12 15:08:23.324162,80.0
2023-08-12 15:08:23.331852,73.0
2023-08-12 15:08:23.339542,61.0
2023-08-12 15:08:23.347232,40.0
2023-08-12 15:08:23.354922,11.0
2023-08-12 15:08:23.362612,-19.0
2023-08-12 15:08:23.370302,-45.0
2023-08-12 15:08:23.377992,-73.0
2023-08-12 15:08:23.385682,-107.0
2023-08-12 15:08:23.393372,-123.0
2023-08-12 15:08:23.401062,-126.0
2023-08-12 15:08:23.408752,-130.0
2023-08-12 15:08:23.416442,-128.0
2023-08-12 15:08:23.424132,-123.0
2023-08-12 15:08:23.431822,-126.0
2023-08-12 15:08:23.439512,-121.0
2023-08-12 15:08:23.447202,-111.0
2023-08-12 15:08:23.454892,-107.0
2023-08-12 15:08:23.462582,-104.0
2023-08-12 15:08:23.470272,-97.0
2023-08-12 15:08:23.477962,-95.0
2023-08-12 15:08:23.485652,-97.0
2023-08-12 15:08:23.493342,-90.0
2023-08-12 15:08:23.501032,-78.0
2023-08-12 15:08:23.508722,-78.0
2023-08-12 15:08:23.516412,-88.0
2023-08-12 15:08:23.524102,-92.0
2023-08-12 15:08:23.531791,-88.0
2023-08-12 15:08:23.539481,-76.0
2023-08-12 15:08:23.547171,-73.0
2023-08-12 15:08:23.554861,-78.0
2023-08-12 15:08:23.562551,-76.0
2023-08-12 15:08:23.570241,-78.0
2023-08-12 15:08:23.577931,-78.0
2023-08-12 15:08:23.585621,-76.0
2023-08-12 15:08:23.593311,-76.0
2023-08-12 15:08:23.601001,-76.0
2023-08-12 15:08:23.608691,-76.0
2023-08-12 15:08:23.616381,-76.0
2023-08-12 15:08:23.624071,-73.0
2023-08-12 15:08:23.631761,-73.0
2023-08-12 15:08:23.639451,-73.0
2023-08-12 15:08:23.647141,-69.0
2023-08-12 15:08:23.654831,-71.0
2023-08-12 15:08:23.662521,-80.0
2023-08-12 15:08:23.670211,-76.0
2023-08-12 15:08:23.677901,-64.0
2023-08-12 15:08:23.685591,-69.0
2023-08-12 15:08:23.693281,-73.0
2023-08-12 15:08:23.700971,-66.0
2023-08-12 15:08:23.708661,-66.0
2023-08-12 15:08:23.716351,-64.0
2023-08-12 15:08:23.724041,-61.0
2023-08-12 15:08:23.731731,-71.0
2023-08-12 15:08:23.739421,-71.0
2023-08-12 15:08:23.747111,-61.0
2023-08-12 15:08:23.754800,-61.0
2023-08-12 15:08:23.762490,-66.0
2023-08-12 15:08:23.770180,-59.0
2023-08-12 15:08:23.777870,-57.0
2023-08-12 15:08:23.785560,-64.0
2023-08-12 15:08:23.793250,-64.0
2023-08-12 15:08:23.800940,-54.0
2023-08-12 15:08:23.808630,-52.0
2023-08-12 15:08:23.816320,-59.0
2023-08-12 15:08:23.824010,-59.0
2023-08-12 15:08:23.831700,-52.0
2023-08-12 15:08:23.839390,-47.0
2023-08-12 15:08:23.847080,-42.0
2023-08-12 15:08:23.854770,-30.0
2023-08-12 15:08:23.862460,-19.0
2023-08-12 15:08:23.870150,-19.0
2023-08-12 15:08:23.877840,-30.0
2023-08-12 15:08:23.885530,-35.0
2023-08-12 15:08:23.893220,-35.0
2023-08-12 15:08:23.900910,-47.0
2023-08-12 15:08:23.908600,-57.0
2023-08-12 15:08:23.916290,-64.0
2023-08-12 15:08:23.923980,-73.0
2023-08-12 15:08:23.931670,-76.0
2023-08-12 15:08:23.939360,-66.0
2023-08-12 15:08:23.947050,-59.0
2023-08-12 15:08:23.954740,-64.0
2023-08-12 15:08:23.962430,-71.0
2023-08-12 15:08:23.970120,7.0
2023-08-12 15:08:23.977809,283.0
2023-08-12 15:08:23.985499,637.0
2023-08-12 15:08:23.993189,718.0
2023-08-12 15:08:24.000879,359.0
2023-08-12 15:08:24.008569,-85.0
2023-08-12 15:08:24.016259,-209.0
2023-08-12 15:08:24.023949,-164.0
2023-08-12 15:08:24.031639,-197.0
2023-08-12 15:08:24.039329,-190.0
2023-08-12 15:08:24.047019,-119.0
2023-08-12 15:08:24.054709,-114.0
2023-08-12 15:08:24.062399,-128.0
2023-08-12 15:08:24.070089,-99.0
2023-08-12 15:08:24.077779,-85.0
2023-08-12 15:08:24.085469,-90.0
2023-08-12 15:08:24.093159,-80.0
2023-08-12 15:08:24.100849,-71.0
2023-08-12 15:08:24.108539,-69.0
2023-08-12 15:08:24.116229,-64.0
2023-08-12 15:08:24.123919,-54.0
2023-08-12 15:08:24.131609,-49.0
2023-08-12 15:08:24.139299,-42.0
2023-08-12 15:08:24.146989,-33.0
2023-08-12 15:08:24.154679,-19.0
2023-08-12 15:08:24.162369,-7.0
2023-08-12 15:08:24.170059,9.0
2023-08-12 15:08:24.177749,28.0
2023-08-12 15:08:24.185439,40.0
2023-08-12 15:08:24.193129,57.0
2023-08-12 15:08:24.200819,78.0
2023-08-12 15:08:24.208508,83.0
2023-08-12 15:08:24.216198,78.0
2023-08-12 15:08:24.223888,78.0
2023-08-12 15:08:24.231578,78.0
2023-08-12 15:08:24.239268,61.0
2023-08-12 15:08:24.246958,33.0
2023-08-12 15:08:24.254648,2.0
2023-08-12 15:08:24.262338,-30.0
2023-08-12 15:08:24.270028,-64.0
2023-08-12 15:08:24.277718,-99.0
2023-08-12 15:08:24.285408,-126.0
2023-08-12 15:08:24.293098,-138.0
2023-08-12 15:08:24.300788,-142.0
2023-08-12 15:08:24.308478,-147.0
2023-08-12 15:08:24.316168,-145.0
2023-08-12 15:08:24.323858,-138.0
2023-08-12 15:08:24.331548,-140.0
2023-08-12 15:08:24.339238,-140.0
2023-08-12 15:08:24.346928,-128.0
2023-08-12 15:08:24.354618,-123.0
2023-08-12 15:08:24.362308,-123.0
2023-08-12 15:08:24.369998,-119.0
2023-08-12 15:08:24.377688,-116.0
2023-08-12 15:08:24.385378,-116.0
2023-08-12 15:08:24.393068,-104.0
2023-08-12 15:08:24.400758,-99.0
2023-08-12 15:08:24.408448,-107.0
2023-08-12 15:08:24.416138,-97.0
2023-08-12 15:08:24.423828,-85.0
2023-08-12 15:08:24.431517,-88.0
2023-08-12 15:08:24.439207,-88.0
2023-08-12 15:08:24.446897,-83.0
2023-08-12 15:08:24.454587,-85.0
2023-08-12 15:08:24.462277,-88.0
2023-08-12 15:08:24.469967,-85.0
2023-08-12 15:08:24.477657,-80.0
2023-08-12 15:08:24.485347,-80.0
2023-08-12 15:08:24.493037,-88.0
2023-08-12 15:08:24.500727,-88.0
2023-08-12 15:08:24.508417,-90.0
2023-08-12 15:08:24.516107,-97.0
2023-08-12 15:08:24.523797,-95.0
2023-08-12 15:08:24.531487,-90.0
2023-08-12 15:08:24.539177,-95.0
2023-08-12 15:08:24.546867,-104.0
2023-08-12 15:08:24.554557,-107.0
2023-08-12 15:08:24.562247,-99.0
2023-08-12 15:08:24.569937,-95.0
2023-08-12 15:08:24.577627,-95.0
2023-08-12 15:08:24.585317,-95.0
2023-08-12 15:08:24.593007,-90.0
2023-08-12 15:08:24.600697,-88.0
2023-08-12 15:08:24.608387,-85.0
2023-08-12 15:08:24.616077,-83.0
2023-08-12 15:08:24.623767,-83.0
2023-08-12 15:08:24.631457,-85.0
2023-08-12 15:08:24.639147,-83.0
2023-08-12 15:08:24.646837,-80.0
2023-08-12 15:08:24.654526,-76.0
2023-08-12 15:08:24.662216,-76.0
2023-08-12 15:08:24.669906,-80.0
2023-08-12 15:08:24.677596,-80.0
2023-08-12 15:08:24.685286,-73.0
2023-08-12 15:08:24.692976,-66.0
2023-08-12 15:08:24.700666,-61.0
2023-08-12 15:08:24.708356,-52.0
2023-08-12 15:08:24.716046,-47.0
2023-08-12 15:08:24.723736,-42.0
2023-08-12 15:08:24.731426,-35.0
2023-08-12 15:08:24.739116,-33.0
2023-08-12 15:08:24.746806,-38.0
2023-08-12 15:08:24.754496,-38.0
2023-08-12 15:08:24.762186,-42.0
2023-08-12 15:08:24.769876,-57.0
2023-08-12 15:08:24.777566,-69.0
2023-08-12 15:08:24.785256,-73.0
2023-08-12 15:08:24.792946,-76.0
2023-08-12 15:08:24.800636,-73.0
2023-08-12 15:08:24.808326,-66.0
2023-08-12 15:08:24.816016,-66.0
2023-08-12 15:08:24.823706,-71.0
2023-08-12 15:08:24.831396,-35.0
2023-08-12 15:08:24.839086,138.0
2023-08-12 15:08:24.846776,466.0
2023-08-12 15:08:24.854466,718.0
2023-08-12 15:08:24.862156,583.0
2023-08-12 15:08:24.869846,128.0
2023-08-12 15:08:24.877535,-188.0
2023-08-12 15:08:24.885225,-197.0
2023-08-12 15:08:24.892915,-171.0
2023-08-12 15:08:24.900605,-188.0
2023-08-12 15:08:24.908295,-138.0
2023-08-12 15:08:24.915985,-97.0
2023-08-12 15:08:24.923675,-119.0
2023-08-12 15:08:24.931365,-116.0
2023-08-12 15:08:24.939055,-88.0
2023-08-12 15:08:24.946745,-80.0
2023-08-12 15:08:24.954435,-83.0
2023-08-12 15:08:24.962125,-76.0
2023-08-12 15:08:24.969815,-64.0
2023-08-12 15:08:24.977505,-54.0
2023-08-12 15:08:24.985195,-52.0
2023-08-12 15:08:24.992885,-49.0
2023-08-12 15:08:25.000575,-35.0
2023-08-12 15:08:25.008265,-26.0
2023-08-12 15:08:25.015955,-19.0
2023-08-12 15:08:25.023645,-2.0
2023-08-12 15:08:25.031335,9.0
2023-08-12 15:08:25.039025,11.0
2023-08-12 15:08:25.046715,19.0
2023-08-12 15:08:25.054405,38.0
2023-08-12 15:08:25.062095,57.0
2023-08-12 15:08:25.069785,71.0
2023-08-12 15:08:25.077475,76.0
2023-08-12 15:08:25.085165,69.0
2023-08-12 15:08:25.092855,54.0
2023-08-12 15:08:25.100545,40.0
2023-08-12 15:08:25.108234,26.0
2023-08-12 15:08:25.115924,4.0
2023-08-12 15:08:25.123614,-28.0
2023-08-12 15:08:25.131304,-69.0
2023-08-12 15:08:25.138994,-102.0
2023-08-12 15:08:25.146684,-121.0
2023-08-12 15:08:25.154374,-140.0
2023-08-12 15:08:25.162064,-157.0
2023-08-12 15:08:25.169754,-157.0
2023-08-12 15:08:25.177444,-157.0
2023-08-12 15:08:25.185134,-159.0
2023-08-12 15:08:25.192824,-152.0
2023-08-12 15:08:25.200514,-145.0
2023-08-12 15:08:25.208204,-145.0
2023-08-12 15:08:25.215894,-135.0
2023-08-12 15:08:25.223584,-130.0
2023-08-12 15:08:25.231274,-123.0
2023-08-12 15:08:25.238964,-116.0
2023-08-12 15:08:25.246654,-111.0
2023-08-12 15:08:25.254344,-111.0
2023-08-12 15:08:25.262034,-114.0
2023-08-12 15:08:25.269724,-114.0
2023-08-12 15:08:25.277414,-109.0
2023-08-12 15:08:25.285104,-102.0
2023-08-12 15:08:25.292794,-97.0
2023-08-12 15:08:25.300484,-92.0
2023-08-12 15:08:25.308174,-88.0
2023-08-12 15:08:25.315864,-90.0
2023-08-12 15:08:25.323554,-88.0
2023-08-12 15:08:25.331243,-83.0
2023-08-12 15:08:25.338933,-85.0
2023-08-12 15:08:25.346623,-88.0
2023-08-12 15:08:25.354313,-88.0
2023-08-12 15:08:25.362003,-88.0
2023-08-12 15:08:25.369693,-90.0
2023-08-12 15:08:25.377383,-88.0
2023-08-12 15:08:25.385073,-88.0
2023-08-12 15:08:25.392763,-90.0
2023-08-12 15:08:25.400453,-85.0
2023-08-12 15:08:25.408143,-78.0
2023-08-12 15:08:25.415833,-83.0
2023-08-12 15:08:25.423523,-83.0
2023-08-12 15:08:25.431213,-76.0
2023-08-12 15:08:25.438903,-73.0
2023-08-12 15:08:25.446593,-76.0
2023-08-12 15:08:25.454283,-78.0
2023-08-12 15:08:25.461973,-80.0
2023-08-12 15:08:25.469663,-76.0
2023-08-12 15:08:25.477353,-66.0
2023-08-12 15:08:25.485043,-64.0
2023-08-12 15:08:25.492733,-71.0
2023-08-12 15:08:25.500423,-73.0
2023-08-12 15:08:25.508113,-69.0
2023-08-12 15:08:25.515803,-66.0
2023-08-12 15:08:25.523493,-61.0
2023-08-12 15:08:25.531183,-61.0
2023-08-12 15:08:25.538873,-71.0
2023-08-12 15:08:25.546563,-76.0
2023-08-12 15:08:25.554252,-71.0
2023-08-12 15:08:25.561942,-71.0
2023-08-12 15:08:25.569632,-73.0
2023-08-12 15:08:25.577322,-66.0
2023-08-12 15:08:25.585012,-61.0
2023-08-12 15:08:25.592702,-69.0
2023-08-12 15:08:25.600392,-69.0
2023-08-12 15:08:25.608082,-64.0
2023-08-12 15:08:25.615772,-64.0
2023-08-12 15:08:25.623462,-59.0
2023-08-12 15:08:25.631152,-57.0
2023-08-12 15:08:25.638842,-54.0
2023-08-12 15:08:25.646532,-47.0
2023-08-12 15:08:25.654222,-38.0
2023-08-12 15:08:25.661912,-35.0
2023-08-12 15:08:25.669602,-33.0
2023-08-12 15:08:25.677292,-45.0
2023-08-12 15:08:25.684982,-57.0
2023-08-12 15:08:25.692672,-52.0
2023-08-12 15:08:25.700362,-49.0
2023-08-12 15:08:25.708052,-66.0
2023-08-12 15:08:25.715742,-83.0
2023-08-12 15:08:25.723432,-83.0
2023-08-12 15:08:25.731122,-78.0
2023-08-12 15:08:25.738812,-78.0
2023-08-12 15:08:25.746502,-76.0
2023-08-12 15:08:25.754192,-78.0
2023-08-12 15:08:25.761882,-66.0
2023-08-12 15:08:25.769572,52.0
2023-08-12 15:08:25.777261,338.0
2023-08-12 15:08:25.784951,635.0
2023-08-12 15:08:25.792641,633.0
2023-08-12 15:08:25.800331,257.0
2023-08-12 15:08:25.808021,-119.0
2023-08-12 15:08:25.815711,-199.0
2023-08-12 15:08:25.823401,-171.0
2023-08-12 15:08:25.831091,-185.0
2023-08-12 15:08:25.838781,-147.0
2023-08-12 15:08:25.846471,-92.0
2023-08-12 15:08:25.854161,-107.0
2023-08-12 15:08:25.861851,-119.0
2023-08-12 15:08:25.869541,-97.0
2023-08-12 15:08:25.877231,-90.0
2023-08-12 15:08:25.884921,-90.0
2023-08-12 15:08:25.892611,-80.0
2023-08-12 15:08:25.900301,-73.0
2023-08-12 15:08:25.907991,-69.0
2023-08-12 15:08:25.915681,-61.0
2023-08-12 15:08:25.923371,-54.0
2023-08-12 15:08:25.931061,-45.0
2023-08-12 15:08:25.938751,-38.0
2023-08-12 15:08:25.946441,-30.0
2023-08-12 15:08:25.954131,-16.0
2023-08-12 15:08:25.961821,-4.0
2023-08-12 15:08:25.969511,4.0
2023-08-12 15:08:25.977201,21.0
2023-08-12 15:08:25.984891,38.0
2023-08-12 15:08:25.992581,49.0
2023-08-12 15:08:26.000271,57.0
2023-08-12 15:08:26.007960,61.0
2023-08-12 15:08:26.015650,64.0
2023-08-12 15:08:26.023340,59.0
2023-08-12 15:08:26.031030,52.0
2023-08-12 15:08:26.038720,35.0
2023-08-12 15:08:26.046410,11.0
2023-08-12 15:08:26.054100,-16.0
2023-08-12 15:08:26.061790,-47.0
2023-08-12 15:08:26.069480,-80.0
2023-08-12 15:08:26.077170,-109.0
2023-08-12 15:08:26.084860,-128.0
2023-08-12 15:08:26.092550,-140.0
2023-08-12 15:08:26.100240,-145.0
2023-08-12 15:08:26.107930,-149.0
2023-08-12 15:08:26.115620,-157.0
2023-08-12 15:08:26.123310,-159.0
2023-08-12 15:08:26.131000,-149.0
2023-08-12 15:08:26.138690,-142.0
2023-08-12 15:08:26.146380,-140.0
2023-08-12 15:08:26.154070,-133.0
2023-08-12 15:08:26.161760,-128.0
2023-08-12 15:08:26.169450,-128.0
2023-08-12 15:08:26.177140,-126.0
2023-08-12 15:08:26.184830,-119.0
2023-08-12 15:08:26.192520,-116.0
2023-08-12 15:08:26.200210,-116.0
2023-08-12 15:08:26.207900,-111.0
2023-08-12 15:08:26.215590,-114.0
2023-08-12 15:08:26.223280,-123.0
2023-08-12 15:08:26.230969,-119.0
2023-08-12 15:08:26.238659,-109.0
2023-08-12 15:08:26.246349,-109.0
2023-08-12 15:08:26.254039,-107.0
2023-08-12 15:08:26.261729,-104.0
2023-08-12 15:08:26.269419,-104.0
2023-08-12 15:08:26.277109,-104.0
2023-08-12 15:08:26.284799,-107.0
2023-08-12 15:08:26.292489,-109.0
2023-08-12 15:08:26.300179,-102.0
2023-08-12 15:08:26.307869,-97.0
2023-08-12 15:08:26.315559,-97.0
2023-08-12 15:08:26.323249,-97.0
2023-08-12 15:08:26.330939,-95.0
2023-08-12 15:08:26.338629,-92.0
2023-08-12 15:08:26.346319,-90.0
2023-08-12 15:08:26.354009,-90.0
2023-08-12 15:08:26.361699,-88.0
2023-08-12 15:08:26.369389,-85.0
2023-08-12 15:08:26.377079,-85.0
2023-08-12 15:08:26.384769,-85.0
2023-08-12 15:08:26.392459,-85.0
2023-08-12 15:08:26.400149,-83.0
2023-08-12 15:08:26.407839,-80.0
2023-08-12 15:08:26.415529,-78.0
2023-08-12 15:08:26.423219,-76.0
2023-08-12 15:08:26.430909,-73.0
2023-08-12 15:08:26.438599,-73.0
2023-08-12 15:08:26.446289,-73.0
2023-08-12 15:08:26.453978,-73.0
2023-08-12 15:08:26.461668,-71.0
2023-08-12 15:08:26.469358,-66.0
2023-08-12 15:08:26.477048,-69.0
2023-08-12 15:08:26.484738,-71.0
2023-08-12 15:08:26.492428,-66.0
2023-08-12 15:08:26.500118,-59.0
2023-08-12 15:08:26.507808,-57.0
2023-08-12 15:08:26.515498,-61.0
2023-08-12 15:08:26.523188,-61.0
2023-08-12 15:08:26.530878,-59.0
2023-08-12 15:08:26.538568,-59.0
2023-08-12 15:08:26.546258,-66.0
2023-08-12 15:08:26.553948,-69.0
2023-08-12 15:08:26.561638,-66.0
2023-08-12 15:08:26.569328,-61.0
2023-08-12 15:08:26.577018,-61.0
2023-08-12 15:08:26.584708,-61.0
2023-08-12 15:08:26.592398,-59.0
2023-08-12 15:08:26.600088,-57.0
2023-08-12 15:08:26.607778,-54.0
2023-08-12 15:08:26.615468,-52.0
2023-08-12 15:08:26.623158,-45.0
2023-08-12 15:08:26.630848,-33.0
2023-08-12 15:08:26.638538,-21.0
2023-08-12 15:08:26.646228,-16.0
2023-08-12 15:08:26.653918,-28.0
2023-08-12 15:08:26.661608,-38.0
2023-08-12 15:08:26.669298,-35.0
2023-08-12 15:08:26.676987,-35.0
2023-08-12 15:08:26.684677,-42.0
2023-08-12 15:08:26.692367,-54.0
2023-08-12 15:08:26.700057,-66.0
2023-08-12 15:08:26.707747,-71.0
2023-08-12 15:08:26.715437,-61.0
2023-08-12 15:08:26.723127,-52.0
2023-08-12 15:08:26.730817,-59.0
2023-08-12 15:08:26.738507,-66.0
2023-08-12 15:08:26.746197,-11.0
2023-08-12 15:08:26.753887,190.0
2023-08-12 15:08:26.761577,511.0
2023-08-12 15:08:26.769267,702.0
2023-08-12 15:08:26.776957,504.0
2023-08-12 15:08:26.784647,64.0
2023-08-12 15:08:26.792337,-183.0
2023-08-12 15:08:26.800027,-171.0
2023-08-12 15:08:26.807717,-169.0
2023-08-12 15:08:26.815407,-178.0
2023-08-12 15:08:26.823097,-119.0
2023-08-12 15:08:26.830787,-92.0
2023-08-12 15:08:26.838477,-114.0
2023-08-12 15:08:26.846167,-99.0
2023-08-12 15:08:26.853857,-78.0
2023-08-12 15:08:26.861547,-83.0
2023-08-12 15:08:26.869237,-78.0
2023-08-12 15:08:26.876927,-59.0
2023-08-12 15:08:26.884617,-54.0
2023-08-12 15:08:26.892307,-59.0
2023-08-12 15:08:26.899997,-49.0
2023-08-12 15:08:26.907686,-33.0
2023-08-12 15:08:26.915376,-28.0
2023-08-12 15:08:26.923066,-21.0
2023-08-12 15:08:26.930756,-7.0
2023-08-12 15:08:26.938446,-2.0
2023-08-12 15:08:26.946136,9.0
2023-08-12 15:08:26.953826,28.0
2023-08-12 15:08:26.961516,45.0
2023-08-12 15:08:26.969206,59.0
2023-08-12 15:08:26.976896,71.0
2023-08-12 15:08:26.984586,73.0
2023-08-12 15:08:26.992276,76.0
2023-08-12 15:08:26.999966,78.0
2023-08-12 15:08:27.007656,71.0
2023-08-12 15:08:27.015346,57.0
2023-08-12 15:08:27.023036,42.0
2023-08-12 15:08:27.030726,21.0
2023-08-12 15:08:27.038416,-14.0
2023-08-12 15:08:27.046106,-47.0
2023-08-12 15:08:27.053796,-80.0
2023-08-12 15:08:27.061486,-104.0
2023-08-12 15:08:27.069176,-116.0
2023-08-12 15:08:27.076866,-130.0
2023-08-12 15:08:27.084556,-142.0
2023-08-12 15:08:27.092246,-145.0
2023-08-12 15:08:27.099936,-142.0
2023-08-12 15:08:27.107626,-140.0
2023-08-12 15:08:27.115316,-142.0
2023-08-12 15:08:27.123006,-145.0
2023-08-12 15:08:27.130695,-138.0
2023-08-12 15:08:27.138385,-126.0
2023-08-12 15:08:27.146075,-119.0
2023-08-12 15:08:27.153765,-111.0
2023-08-12 15:08:27.161455,-111.0
2023-08-12 15:08:27.169145,-114.0
2023-08-12 15:08:27.176835,-111.0
2023-08-12 15:08:27.184525,-102.0
2023-08-12 15:08:27.192215,-97.0
2023-08-12 15:08:27.199905,-99.0
2023-08-12 15:08:27.207595,-95.0
2023-08-12 15:08:27.215285,-90.0
2023-08-12 15:08:27.222975,-90.0
2023-08-12 15:08:27.230665,-92.0
2023-08-12 15:08:27.238355,-88.0
2023-08-12 15:08:27.246045,-88.0
2023-08-12 15:08:27.253735,-92.0
2023-08-12 15:08:27.261425,-92.0
2023-08-12 15:08:27.269115,-88.0
2023-08-12 15:08:27.276805,-88.0
2023-08-12 15:08:27.284495,-90.0
2023-08-12 15:08:27.292185,-88.0
2023-08-12 15:08:27.299875,-85.0
2023-08-12 15:08:27.307565,-83.0
2023-08-12 15:08:27.315255,-83.0
2023-08-12 15:08:27.322945,-83.0
2023-08-12 15:08:27.330635,-78.0
2023-08-12 15:08:27.338325,-73.0
2023-08-12 15:08:27.346015,-80.0
2023-08-12 15:08:27.353704,-80.0
2023-08-12 15:08:27.361394,-76.0
2023-08-12 15:08:27.369084,-73.0
2023-08-12 15:08:27.376774,-71.0
2023-08-12 15:08:27.384464,-71.0
2023-08-12 15:08:27.392154,-78.0
2023-08-12 15:08:27.399844,-78.0
2023-08-12 15:08:27.407534,-71.0
2023-08-12 15:08:27.415224,-71.0
2023-08-12 15:08:27.422914,-73.0
2023-08-12 15:08:27.430604,-76.0
2023-08-12 15:08:27.438294,-80.0
2023-08-12 15:08:27.445984,-76.0
2023-08-12 15:08:27.453674,-69.0
2023-08-12 15:08:27.461364,-71.0
2023-08-12 15:08:27.469054,-73.0
2023-08-12 15:08:27.476744,-71.0
2023-08-12 15:08:27.484434,-66.0
2023-08-12 15:08:27.492124,-64.0
2023-08-12 15:08:27.499814,-61.0
2023-08-12 15:08:27.507504,-64.0
2023-08-12 15:08:27.515194,-66.0
2023-08-12 15:08:27.522884,-59.0
2023-08-12 15:08:27.530574,-52.0
2023-08-12 15:08:27.538264,-52.0
2023-08-12 15:08:27.545954,-45.0
2023-08-12 15:08:27.553644,-35.0
2023-08-12 15:08:27.561334,-33.0
2023-08-12 15:08:27.569024,-23.0
2023-08-12 15:08:27.576713,-21.0
2023-08-12 15:08:27.584403,-33.0
2023-08-12 15:08:27.592093,-38.0
2023-08-12 15:08:27.599783,-38.0
2023-08-12 15:08:27.607473,-45.0
2023-08-12 15:08:27.615163,-59.0
2023-08-12 15:08:27.622853,-69.0
2023-08-12 15:08:27.630543,-66.0
2023-08-12 15:08:27.638233,-59.0
2023-08-12 15:08:27.645923,-57.0
2023-08-12 15:08:27.653613,-61.0
2023-08-12 15:08:27.661303,-64.0
2023-08-12 15:08:27.668993,-45.0
2023-08-12 15:08:27.676683,85.0
2023-08-12 15:08:27.684373,388.0
2023-08-12 15:08:27.692063,687.0
2023-08-12 15:08:27.699753,647.0
2023-08-12 15:08:27.707443,238.0
2023-08-12 15:08:27.715133,-123.0
2023-08-12 15:08:27.722823,-178.0
2023-08-12 15:08:27.730513,-147.0
2023-08-12 15:08:27.738203,-166.0
2023-08-12 15:08:27.745893,-128.0
2023-08-12 15:08:27.753583,-85.0
2023-08-12 15:08:27.761273,-97.0
2023-08-12 15:08:27.768963,-97.0
2023-08-12 15:08:27.776653,-76.0
2023-08-12 15:08:27.784343,-69.0
2023-08-12 15:08:27.792033,-66.0
2023-08-12 15:08:27.799723,-59.0
2023-08-12 15:08:27.807412,-52.0
2023-08-12 15:08:27.815102,-45.0
2023-08-12 15:08:27.822792,-33.0
2023-08-12 15:08:27.830482,-26.0
2023-08-12 15:08:27.838172,-23.0
2023-08-12 15:08:27.845862,-16.0
2023-08-12 15:08:27.853552,-4.0
2023-08-12 15:08:27.861242,7.0
2023-08-12 15:08:27.868932,16.0
2023-08-12 15:08:27.876622,30.0
2023-08-12 15:08:27.884312,38.0
2023-08-12 15:08:27.892002,45.0
2023-08-12 15:08:27.899692,61.0
2023-08-12 15:08:27.907382,73.0
2023-08-12 15:08:27.915072,73.0
2023-08-12 15:08:27.922762,76.0
2023-08-12 15:08:27.930452,73.0
2023-08-12 15:08:27.938142,64.0
2023-08-12 15:08:27.945832,49.0
2023-08-12 15:08:27.953522,23.0
2023-08-12 15:08:27.961212,-4.0
2023-08-12 15:08:27.968902,-30.0
2023-08-12 15:08:27.976592,-64.0
2023-08-12 15:08:27.984282,-90.0
2023-08-12 15:08:27.991972,-104.0
2023-08-12 15:08:27.999662,-119.0
2023-08-12 15:08:28.007352,-128.0
2023-08-12 15:08:28.015042,-128.0
2023-08-12 15:08:28.022732,-126.0
2023-08-12 15:08:28.030421,-128.0
2023-08-12 15:08:28.038111,-128.0
2023-08-12 15:08:28.045801,-123.0
2023-08-12 15:08:28.053491,-123.0
2023-08-12 15:08:28.061181,-126.0
2023-08-12 15:08:28.068871,-123.0
2023-08-12 15:08:28.076561,-114.0
2023-08-12 15:08:28.084251,-111.0
2023-08-12 15:08:28.091941,-111.0
2023-08-12 15:08:28.099631,-107.0
2023-08-12 15:08:28.107321,-107.0
2023-08-12 15:08:28.115011,-107.0
2023-08-12 15:08:28.122701,-97.0
2023-08-12 15:08:28.130391,-97.0
2023-08-12 15:08:28.138081,-102.0
2023-08-12 15:08:28.145771,-97.0
2023-08-12 15:08:28.153461,-92.0
2023-08-12 15:08:28.161151,-99.0
2023-08-12 15:08:28.168841,-97.0
2023-08-12 15:08:28.176531,-92.0
2023-08-12 15:08:28.184221,-90.0
2023-08-12 15:08:28.191911,-92.0
2023-08-12 15:08:28.199601,-90.0
2023-08-12 15:08:28.207291,-90.0
2023-08-12 15:08:28.214981,-92.0
2023-08-12 15:08:28.222671,-90.0
2023-08-12 15:08:28.230361,-88.0
2023-08-12 15:08:28.238051,-85.0
2023-08-12 15:08:28.245741,-90.0
2023-08-12 15:08:28.253430,-85.0
2023-08-12 15:08:28.261120,-80.0
2023-08-12 15:08:28.268810,-80.0
2023-08-12 15:08:28.276500,-78.0
2023-08-12 15:08:28.284190,-76.0
2023-08-12 15:08:28.291880,-78.0
2023-08-12 15:08:28.299570,-78.0
2023-08-12 15:08:28.307260,-71.0
2023-08-12 15:08:28.314950,-71.0
2023-08-12 15:08:28.322640,-73.0
2023-08-12 15:08:28.330330,-76.0
2023-08-12 15:08:28.338020,-76.0
2023-08-12 15:08:28.345710,-71.0
2023-08-12 15:08:28.353400,-71.0
2023-08-12 15:08:28.361090,-73.0
2023-08-12 15:08:28.368780,-71.0
2023-08-12 15:08:28.376470,-66.0
2023-08-12 15:08:28.384160,-69.0
2023-08-12 15:08:28.391850,-71.0
2023-08-12 15:08:28.399540,-66.0
2023-08-12 15:08:28.407230,-61.0
2023-08-12 15:08:28.414920,-64.0
2023-08-12 15:08:28.422610,-64.0
2023-08-12 15:08:28.430300,-64.0
2023-08-12 15:08:28.437990,-61.0
2023-08-12 15:08:28.445680,-57.0
2023-08-12 15:08:28.453370,-59.0
2023-08-12 15:08:28.461060,-66.0
2023-08-12 15:08:28.468750,-69.0
2023-08-12 15:08:28.476439,-69.0
2023-08-12 15:08:28.484129,-69.0
2023-08-12 15:08:28.491819,-64.0
2023-08-12 15:08:28.499509,-59.0
2023-08-12 15:08:28.507199,-52.0
2023-08-12 15:08:28.514889,-45.0
2023-08-12 15:08:28.522579,-38.0
2023-08-12 15:08:28.530269,-26.0
2023-08-12 15:08:28.537959,-26.0
2023-08-12 15:08:28.545649,-40.0
2023-08-12 15:08:28.553339,-45.0
2023-08-12 15:08:28.561029,-40.0
2023-08-12 15:08:28.568719,-47.0
2023-08-12 15:08:28.576409,-64.0
2023-08-12 15:08:28.584099,-76.0
2023-08-12 15:08:28.591789,-83.0
2023-08-12 15:08:28.599479,-83.0
2023-08-12 15:08:28.607169,-76.0
2023-08-12 15:08:28.614859,-73.0
2023-08-12 15:08:28.622549,-76.0
2023-08-12 15:08:28.630239,-57.0
2023-08-12 15:08:28.637929,69.0
2023-08-12 15:08:28.645619,349.0
2023-08-12 15:08:28.653309,630.0
2023-08-12 15:08:28.660999,614.0
2023-08-12 15:08:28.668689,242.0
2023-08-12 15:08:28.676379,-121.0
2023-08-12 15:08:28.684069,-192.0
2023-08-12 15:08:28.691759,-164.0
2023-08-12 15:08:28.699449,-180.0
2023-08-12 15:08:28.707138,-142.0
2023-08-12 15:08:28.714828,-97.0
2023-08-12 15:08:28.722518,-111.0
2023-08-12 15:08:28.730208,-111.0
2023-08-12 15:08:28.737898,-88.0
2023-08-12 15:08:28.745588,-83.0
2023-08-12 15:08:28.753278,-83.0
2023-08-12 15:08:28.760968,-73.0
2023-08-12 15:08:28.768658,-66.0
2023-08-12 15:08:28.776348,-61.0
2023-08-12 15:08:28.784038,-54.0
2023-08-12 15:08:28.791728,-45.0
2023-08-12 15:08:28.799418,-33.0
2023-08-12 15:08:28.807108,-23.0
2023-08-12 15:08:28.814798,-16.0
2023-08-12 15:08:28.822488,-9.0
2023-08-12 15:08:28.830178,0.0
2023-08-12 15:08:28.837868,14.0
2023-08-12 15:08:28.845558,28.0
2023-08-12 15:08:28.853248,40.0
2023-08-12 15:08:28.860938,47.0
2023-08-12 15:08:28.868628,54.0
2023-08-12 15:08:28.876318,61.0
2023-08-12 15:08:28.884008,61.0
2023-08-12 15:08:28.891698,52.0
2023-08-12 15:08:28.899388,47.0
2023-08-12 15:08:28.907078,40.0
2023-08-12 15:08:28.914768,19.0
2023-08-12 15:08:28.922458,-11.0
2023-08-12 15:08:28.930147,-38.0
2023-08-12 15:08:28.937837,-64.0
2023-08-12 15:08:28.945527,-90.0
2023-08-12 15:08:28.953217,-107.0
2023-08-12 15:08:28.960907,-119.0
2023-08-12 15:08:28.968597,-126.0
2023-08-12 15:08:28.976287,-123.0
2023-08-12 15:08:28.983977,-126.0
2023-08-12 15:08:28.991667,-126.0
2023-08-12 15:08:28.999357,-119.0
2023-08-12 15:08:29.007047,-116.0
2023-08-12 15:08:29.014737,-119.0
2023-08-12 15:08:29.022427,-116.0
2023-08-12 15:08:29.030117,-114.0
2023-08-12 15:08:29.037807,-111.0
2023-08-12 15:08:29.045497,-109.0
2023-08-12 15:08:29.053187,-104.0
2023-08-12 15:08:29.060877,-107.0
2023-08-12 15:08:29.068567,-109.0
2023-08-12 15:08:29.076257,-109.0
2023-08-12 15:08:29.083947,-107.0
2023-08-12 15:08:29.091637,-109.0
2023-08-12 15:08:29.099327,-111.0
2023-08-12 15:08:29.107017,-116.0
2023-08-12 15:08:29.114707,-111.0
2023-08-12 15:08:29.122397,-107.0
2023-08-12 15:08:29.130087,-107.0
2023-08-12 15:08:29.137777,-107.0
2023-08-12 15:08:29.145467,-104.0
2023-08-12 15:08:29.153156,-102.0
2023-08-12 15:08:29.160846,-102.0
2023-08-12 15:08:29.168536,-99.0
2023-08-12 15:08:29.176226,-99.0
2023-08-12 15:08:29.183916,-99.0
2023-08-12 15:08:29.191606,-97.0
2023-08-12 15:08:29.199296,-92.0
2023-08-12 15:08:29.206986,-88.0
2023-08-12 15:08:29.214676,-90.0
2023-08-12 15:08:29.222366,-92.0
2023-08-12 15:08:29.230056,-90.0
2023-08-12 15:08:29.237746,-88.0
2023-08-12 15:08:29.245436,-85.0
2023-08-12 15:08:29.253126,-83.0
2023-08-12 15:08:29.260816,-80.0
2023-08-12 15:08:29.268506,-80.0
2023-08-12 15:08:29.276196,-78.0
2023-08-12 15:08:29.283886,-78.0
2023-08-12 15:08:29.291576,-78.0
2023-08-12 15:08:29.299266,-76.0
2023-08-12 15:08:29.306956,-71.0
2023-08-12 15:08:29.314646,-73.0
2023-08-12 15:08:29.322336,-78.0
2023-08-12 15:08:29.330026,-76.0
2023-08-12 15:08:29.337716,-73.0
2023-08-12 15:08:29.345406,-73.0
2023-08-12 15:08:29.353096,-69.0
2023-08-12 15:08:29.360786,-64.0
2023-08-12 15:08:29.368476,-66.0
2023-08-12 15:08:29.376165,-69.0
2023-08-12 15:08:29.383855,-66.0
2023-08-12 15:08:29.391545,-59.0
2023-08-12 15:08:29.399235,-57.0
2023-08-12 15:08:29.406925,-61.0
2023-08-12 15:08:29.414615,-61.0
2023-08-12 15:08:29.422305,-57.0
2023-08-12 15:08:29.429995,-59.0
2023-08-12 15:08:29.437685,-59.0
2023-08-12 15:08:29.445375,-52.0
2023-08-12 15:08:29.453065,-49.0
2023-08-12 15:08:29.460755,-45.0
2023-08-12 15:08:29.468445,-40.0
2023-08-12 15:08:29.476135,-33.0
2023-08-12 15:08:29.483825,-26.0
2023-08-12 15:08:29.491515,-16.0
2023-08-12 15:08:29.499205,-14.0
2023-08-12 15:08:29.506895,-23.0
2023-08-12 15:08:29.514585,-28.0
2023-08-12 15:08:29.522275,-35.0
2023-08-12 15:08:29.529965,-42.0
2023-08-12 15:08:29.537655,-47.0
2023-08-12 15:08:29.545345,-57.0
2023-08-12 15:08:29.553035,-64.0
2023-08-12 15:08:29.560725,-64.0
2023-08-12 15:08:29.568415,-69.0
2023-08-12 15:08:29.576105,-76.0
2023-08-12 15:08:29.583795,-76.0
2023-08-12 15:08:29.591485,-47.0
2023-08-12 15:08:29.599175,99.0
2023-08-12 15:08:29.606864,404.0
2023-08-12 15:08:29.614554,659.0
2023-08-12 15:08:29.622244,564.0
2023-08-12 15:08:29.629934,149.0
2023-08-12 15:08:29.637624,-161.0
2023-08-12 15:08:29.645314,-183.0
2023-08-12 15:08:29.653004,-164.0
2023-08-12 15:08:29.660694,-185.0
2023-08-12 15:08:29.668384,-138.0
2023-08-12 15:08:29.676074,-97.0
2023-08-12 15:08:29.683764,-114.0
2023-08-12 15:08:29.691454,-109.0
2023-08-12 15:08:29.699144,-88.0
2023-08-12 15:08:29.706834,-88.0
2023-08-12 15:08:29.714524,-83.0
2023-08-12 15:08:29.722214,-71.0
2023-08-12 15:08:29.729904,-73.0
2023-08-12 15:08:29.737594,-66.0
2023-08-12 15:08:29.745284,-49.0
2023-08-12 15:08:29.752974,-42.0
2023-08-12 15:08:29.760664,-35.0
2023-08-12 15:08:29.768354,-28.0
2023-08-12 15:08:29.776044,-26.0
2023-08-12 15:08:29.783734,-16.0
2023-08-12 15:08:29.791424,4.0
2023-08-12 15:08:29.799114,19.0
2023-08-12 15:08:29.806804,23.0
2023-08-12 15:08:29.814494,38.0
2023-08-12 15:08:29.822184,54.0
2023-08-12 15:08:29.829873,64.0
2023-08-12 15:08:29.837563,64.0
2023-08-12 15:08:29.845253,64.0
2023-08-12 15:08:29.852943,61.0
2023-08-12 15:08:29.860633,54.0
2023-08-12 15:08:29.868323,35.0
2023-08-12 15:08:29.876013,14.0
2023-08-12 15:08:29.883703,-9.0
2023-08-12 15:08:29.891393,-38.0
2023-08-12 15:08:29.899083,-69.0
2023-08-12 15:08:29.906773,-97.0
2023-08-12 15:08:29.914463,-116.0
2023-08-12 15:08:29.922153,-130.0
2023-08-12 15:08:29.929843,-138.0
2023-08-12 15:08:29.937533,-140.0
2023-08-12 15:08:29.945223,-135.0
2023-08-12 15:08:29.952913,-140.0
2023-08-12 15:08:29.960603,-145.0
2023-08-12 15:08:29.968293,-133.0
2023-08-12 15:08:29.975983,-123.0
2023-08-12 15:08:29.983673,-121.0
2023-08-12 15:08:29.991363,-119.0
2023-08-12 15:08:29.999053,-121.0
2023-08-12 15:08:30.006743,-121.0
2023-08-12 15:08:30.014433,-109.0
2023-08-12 15:08:30.022123,-99.0
2023-08-12 15:08:30.029813,-107.0
2023-08-12 15:08:30.037503,-109.0
2023-08-12 15:08:30.045193,-102.0
2023-08-12 15:08:30.052882,-102.0
2023-08-12 15:08:30.060572,-102.0
2023-08-12 15:08:30.068262,-99.0
2023-08-12 15:08:30.075952,-109.0
2023-08-12 15:08:30.083642,-116.0
2023-08-12 15:08:30.091332,-109.0
2023-08-12 15:08:30.099022,-102.0
2023-08-12 15:08:30.106712,-102.0
2023-08-12 15:08:30.114402,-104.0
2023-08-12 15:08:30.122092,-102.0
2023-08-12 15:08:30.129782,-104.0
2023-08-12 15:08:30.137472,-109.0
2023-08-12 15:08:30.145162,-107.0
2023-08-12 15:08:30.152852,-107.0
2023-08-12 15:08:30.160542,-109.0
2023-08-12 15:08:30.168232,-104.0
2023-08-12 15:08:30.175922,-99.0
2023-08-12 15:08:30.183612,-99.0
2023-08-12 15:08:30.191302,-99.0
2023-08-12 15:08:30.198992,-92.0
2023-08-12 15:08:30.206682,-85.0
2023-08-12 15:08:30.214372,-92.0
2023-08-12 15:08:30.222062,-95.0
2023-08-12 15:08:30.229752,-88.0
2023-08-12 15:08:30.237442,-83.0
2023-08-12 15:08:30.245132,-83.0
2023-08-12 15:08:30.252822,-78.0
2023-08-12 15:08:30.260512,-80.0
2023-08-12 15:08:30.268202,-76.0
2023-08-12 15:08:30.275891,-71.0
2023-08-12 15:08:30.283581,-78.0
2023-08-12 15:08:30.291271,-80.0
2023-08-12 15:08:30.298961,-76.0
2023-08-12 15:08:30.306651,-83.0
2023-08-12 15:08:30.314341,-85.0
2023-08-12 15:08:30.322031,-73.0
2023-08-12 15:08:30.329721,-69.0
2023-08-12 15:08:30.337411,-69.0
2023-08-12 15:08:30.345101,-61.0
2023-08-12 15:08:30.352791,-47.0
2023-08-12 15:08:30.360481,-40.0
2023-08-12 15:08:30.368171,-35.0
2023-08-12 15:08:30.375861,-33.0
2023-08-12 15:08:30.383551,-38.0
2023-08-12 15:08:30.391241,-40.0
2023-08-12 15:08:30.398931,-45.0
2023-08-12 15:08:30.406621,-52.0
2023-08-12 15:08:30.414311,-59.0
2023-08-12 15:08:30.422001,-66.0
2023-08-12 15:08:30.429691,-73.0
2023-08-12 15:08:30.437381,-71.0
2023-08-12 15:08:30.445071,-66.0
2023-08-12 15:08:30.452761,-66.0
2023-08-12 15:08:30.460451,-64.0
2023-08-12 15:08:30.468141,-54.0
2023-08-12 15:08:30.475831,57.0
2023-08-12 15:08:30.483521,359.0
2023-08-12 15:08:30.491211,680.0
2023-08-12 15:08:30.498901,664.0
2023-08-12 15:08:30.506590,252.0
2023-08-12 15:08:30.514280,-130.0
2023-08-12 15:08:30.521970,-185.0
2023-08-12 15:08:30.529660,-154.0
2023-08-12 15:08:30.537350,-195.0
2023-08-12 15:08:30.545040,-159.0
2023-08-12 15:08:30.552730,-92.0
2023-08-12 15:08:30.560420,-102.0
2023-08-12 15:08:30.568110,-109.0
2023-08-12 15:08:30.575800,-90.0
2023-08-12 15:08:30.583490,-92.0
2023-08-12 15:08:30.591180,-88.0
2023-08-12 15:08:30.598870,-71.0
2023-08-12 15:08:30.606560,-66.0
2023-08-12 15:08:30.614250,-64.0
2023-08-12 15:08:30.621940,-59.0
2023-08-12 15:08:30.629630,-52.0
2023-08-12 15:08:30.637320,-40.0
2023-08-12 15:08:30.645010,-28.0
2023-08-12 15:08:30.652700,-21.0
2023-08-12 15:08:30.660390,-14.0
2023-08-12 15:08:30.668080,-4.0
2023-08-12 15:08:30.675770,2.0
2023-08-12 15:08:30.683460,16.0
2023-08-12 15:08:30.691150,38.0
2023-08-12 15:08:30.698840,59.0
2023-08-12 15:08:30.706530,71.0
2023-08-12 15:08:30.714220,73.0
2023-08-12 15:08:30.721910,64.0
2023-08-12 15:08:30.729599,57.0
2023-08-12 15:08:30.737289,52.0
2023-08-12 15:08:30.744979,42.0
2023-08-12 15:08:30.752669,21.0
2023-08-12 15:08:30.760359,-11.0
2023-08-12 15:08:30.768049,-52.0
2023-08-12 15:08:30.775739,-83.0
2023-08-12 15:08:30.783429,-107.0
2023-08-12 15:08:30.791119,-133.0
2023-08-12 15:08:30.798809,-152.0
2023-08-12 15:08:30.806499,-161.0
2023-08-12 15:08:30.814189,-169.0
2023-08-12 15:08:30.821879,-169.0
2023-08-12 15:08:30.829569,-161.0
2023-08-12 15:08:30.837259,-154.0
2023-08-12 15:08:30.844949,-149.0
2023-08-12 15:08:30.852639,-145.0
2023-08-12 15:08:30.860329,-140.0
2023-08-12 15:08:30.868019,-135.0
2023-08-12 15:08:30.875709,-130.0
2023-08-12 15:08:30.883399,-123.0
2023-08-12 15:08:30.891089,-119.0
2023-08-12 15:08:30.898779,-116.0
2023-08-12 15:08:30.906469,-111.0
2023-08-12 15:08:30.914159,-104.0
2023-08-12 15:08:30.921849,-104.0
2023-08-12 15:08:30.929539,-97.0
2023-08-12 15:08:30.937229,-92.0
2023-08-12 15:08:30.944919,-99.0
2023-08-12 15:08:30.952608,-102.0
2023-08-12 15:08:30.960298,-97.0
2023-08-12 15:08:30.967988,-92.0
2023-08-12 15:08:30.975678,-95.0
2023-08-12 15:08:30.983368,-92.0
2023-08-12 15:08:30.991058,-95.0
2023-08-12 15:08:30.998748,-97.0
2023-08-12 15:08:31.006438,-97.0
2023-08-12 15:08:31.014128,-92.0
2023-08-12 15:08:31.021818,-92.0
2023-08-12 15:08:31.029508,-88.0
2023-08-12 15:08:31.037198,-80.0
2023-08-12 15:08:31.044888,-83.0
2023-08-12 15:08:31.052578,-88.0
2023-08-12 15:08:31.060268,-83.0
2023-08-12 15:08:31.067958,-80.0
2023-08-12 15:08:31.075648,-83.0
2023-08-12 15:08:31.083338,-88.0
2023-08-12 15:08:31.091028,-88.0
2023-08-12 15:08:31.098718,-85.0
2023-08-12 15:08:31.106408,-83.0
2023-08-12 15:08:31.114098,-80.0
2023-08-12 15:08:31.121788,-76.0
2023-08-12 15:08:31.129478,-78.0
2023-08-12 15:08:31.137168,-83.0
2023-08-12 15:08:31.144858,-73.0
2023-08-12 15:08:31.152548,-66.0
2023-08-12 15:08:31.160238,-66.0
2023-08-12 15:08:31.167928,-64.0
2023-08-12 15:08:31.175617,-47.0
2023-08-12 15:08:31.183307,-33.0
2023-08-12 15:08:31.190997,-30.0
2023-08-12 15:08:31.198687,-35.0
2023-08-12 15:08:31.206377,-40.0
2023-08-12 15:08:31.214067,-42.0
2023-08-12 15:08:31.221757,-52.0
2023-08-12 15:08:31.229447,-64.0
2023-08-12 15:08:31.237137,-71.0
2023-08-12 15:08:31.244827,-80.0
2023-08-12 15:08:31.252517,-85.0
2023-08-12 15:08:31.260207,-88.0
2023-08-12 15:08:31.267897,-88.0
2023-08-12 15:08:31.275587,-85.0
2023-08-12 15:08:31.283277,-90.0
2023-08-12 15:08:31.290967,-64.0
2023-08-12 15:08:31.298657,95.0
2023-08-12 15:08:31.306347,407.0
2023-08-12 15:08:31.314037,659.0
2023-08-12 15:08:31.321727,542.0
2023-08-12 15:08:31.329417,107.0
2023-08-12 15:08:31.337107,-195.0
2023-08-12 15:08:31.344797,-195.0
2023-08-12 15:08:31.352487,-176.0
2023-08-12 15:08:31.360177,-195.0
2023-08-12 15:08:31.367867,-138.0
2023-08-12 15:08:31.375557,-97.0
2023-08-12 15:08:31.383247,-111.0
2023-08-12 15:08:31.390937,-102.0
2023-08-12 15:08:31.398627,-88.0
2023-08-12 15:08:31.406316,-92.0
2023-08-12 15:08:31.414006,-85.0
2023-08-12 15:08:31.421696,-69.0
2023-08-12 15:08:31.429386,-64.0
2023-08-12 15:08:31.437076,-64.0
2023-08-12 15:08:31.444766,-54.0
2023-08-12 15:08:31.452456,-42.0
2023-08-12 15:08:31.460146,-33.0
2023-08-12 15:08:31.467836,-26.0
2023-08-12 15:08:31.475526,-16.0
2023-08-12 15:08:31.483216,-7.0
2023-08-12 15:08:31.490906,11.0
2023-08-12 15:08:31.498596,28.0
2023-08-12 15:08:31.506286,40.0
2023-08-12 15:08:31.513976,57.0
2023-08-12 15:08:31.521666,73.0
2023-08-12 15:08:31.529356,83.0
2023-08-12 15:08:31.537046,83.0
2023-08-12 15:08:31.544736,78.0
2023-08-12 15:08:31.552426,71.0
2023-08-12 15:08:31.560116,59.0
2023-08-12 15:08:31.567806,38.0
2023-08-12 15:08:31.575496,11.0
2023-08-12 15:08:31.583186,-23.0
2023-08-12 15:08:31.590876,-59.0
2023-08-12 15:08:31.598566,-95.0
2023-08-12 15:08:31.606256,-119.0
2023-08-12 15:08:31.613946,-133.0
2023-08-12 15:08:31.621636,-140.0
2023-08-12 15:08:31.629325,-145.0
2023-08-12 15:08:31.637015,-147.0
2023-08-12 15:08:31.644705,-142.0
2023-08-12 15:08:31.652395,-142.0
2023-08-12 15:08:31.660085,-140.0
2023-08-12 15:08:31.667775,-135.0
2023-08-12 15:08:31.675465,-133.0
2023-08-12 15:08:31.683155,-128.0
2023-08-12 15:08:31.690845,-121.0
2023-08-12 15:08:31.698535,-114.0
2023-08-12 15:08:31.706225,-116.0
2023-08-12 15:08:31.713915,-119.0
2023-08-12 15:08:31.721605,-116.0
2023-08-12 15:08:31.729295,-109.0
2023-08-12 15:08:31.736985,-102.0
2023-08-12 15:08:31.744675,-102.0
2023-08-12 15:08:31.752365,-104.0
2023-08-12 15:08:31.760055,-99.0
2023-08-12 15:08:31.767745,-97.0
2023-08-12 15:08:31.775435,-102.0
2023-08-12 15:08:31.783125,-97.0
2023-08-12 15:08:31.790815,-95.0
2023-08-12 15:08:31.798505,-104.0
2023-08-12 15:08:31.806195,-104.0
2023-08-12 15:08:31.813885,-95.0
2023-08-12 15:08:31.821575,-97.0
2023-08-12 15:08:31.829265,-99.0
2023-08-12 15:08:31.836955,-97.0
2023-08-12 15:08:31.844645,-102.0
2023-08-12 15:08:31.852334,-107.0
2023-08-12 15:08:31.860024,-99.0
2023-08-12 15:08:31.867714,-95.0
2023-08-12 15:08:31.875404,-95.0
2023-08-12 15:08:31.883094,-97.0
2023-08-12 15:08:31.890784,-95.0
2023-08-12 15:08:31.898474,-92.0
2023-08-12 15:08:31.906164,-90.0
2023-08-12 15:08:31.913854,-90.0
2023-08-12 15:08:31.921544,-88.0
2023-08-12 15:08:31.929234,-88.0
2023-08-12 15:08:31.936924,-83.0
2023-08-12 15:08:31.944614,-78.0
2023-08-12 15:08:31.952304,-73.0
2023-08-12 15:08:31.959994,-71.0
2023-08-12 15:08:31.967684,-76.0
2023-08-12 15:08:31.975374,-80.0
2023-08-12 15:08:31.983064,-76.0
2023-08-12 15:08:31.990754,-71.0
2023-08-12 15:08:31.998444,-71.0
2023-08-12 15:08:32.006134,-71.0
2023-08-12 15:08:32.013824,-66.0
2023-08-12 15:08:32.021514,-61.0
2023-08-12 15:08:32.029204,-59.0
2023-08-12 15:08:32.036894,-47.0
2023-08-12 15:08:32.044584,-33.0
2023-08-12 15:08:32.052274,-28.0
2023-08-12 15:08:32.059964,-30.0
2023-08-12 15:08:32.067654,-38.0
2023-08-12 15:08:32.075343,-42.0
2023-08-12 15:08:32.083033,-42.0
2023-08-12 15:08:32.090723,-52.0
2023-08-12 15:08:32.098413,-69.0
2023-08-12 15:08:32.106103,-80.0
2023-08-12 15:08:32.113793,-83.0
2023-08-12 15:08:32.121483,-78.0
2023-08-12 15:08:32.129173,-76.0
2023-08-12 15:08:32.136863,-73.0
2023-08-12 15:08:32.144553,-78.0
2023-08-12 15:08:32.152243,-69.0
2023-08-12 15:08:32.159933,45.0
2023-08-12 15:08:32.167623,316.0
2023-08-12 15:08:32.175313,602.0
2023-08-12 15:08:32.183003,621.0
2023-08-12 15:08:32.190693,278.0
2023-08-12 15:08:32.198383,-102.0
2023-08-12 15:08:32.206073,-199.0
2023-08-12 15:08:32.213763,-164.0
2023-08-12 15:08:32.221453,-173.0
2023-08-12 15:08:32.229143,-145.0
2023-08-12 15:08:32.236833,-95.0
2023-08-12 15:08:32.244523,-99.0
2023-08-12 15:08:32.252213,-104.0
2023-08-12 15:08:32.259903,-90.0
2023-08-12 15:08:32.267593,-83.0
2023-08-12 15:08:32.275283,-78.0
2023-08-12 15:08:32.282973,-71.0
2023-08-12 15:08:32.290663,-69.0
2023-08-12 15:08:32.298353,-64.0
2023-08-12 15:08:32.306042,-54.0
2023-08-12 15:08:32.313732,-42.0
2023-08-12 15:08:32.321422,-33.0
2023-08-12 15:08:32.329112,-26.0
2023-08-12 15:08:32.336802,-21.0
2023-08-12 15:08:32.344492,-11.0
2023-08-12 15:08:32.352182,4.0
2023-08-12 15:08:32.359872,21.0
2023-08-12 15:08:32.367562,35.0
2023-08-12 15:08:32.375252,49.0
2023-08-12 15:08:32.382942,54.0
2023-08-12 15:08:32.390632,59.0
2023-08-12 15:08:32.398322,66.0
2023-08-12 15:08:32.406012,71.0
2023-08-12 15:08:32.413702,66.0
2023-08-12 15:08:32.421392,57.0
2023-08-12 15:08:32.429082,40.0
2023-08-12 15:08:32.436772,16.0
2023-08-12 15:08:32.444462,-9.0
2023-08-12 15:08:32.452152,-38.0
2023-08-12 15:08:32.459842,-66.0
2023-08-12 15:08:32.467532,-90.0
2023-08-12 15:08:32.475222,-111.0
2023-08-12 15:08:32.482912,-123.0
2023-08-12 15:08:32.490602,-128.0
2023-08-12 15:08:32.498292,-128.0
2023-08-12 15:08:32.505982,-126.0
2023-08-12 15:08:32.513672,-126.0
2023-08-12 15:08:32.521362,-128.0
2023-08-12 15:08:32.529051,-123.0
2023-08-12 15:08:32.536741,-116.0
2023-08-12 15:08:32.544431,-114.0
2023-08-12 15:08:32.552121,-111.0
2023-08-12 15:08:32.559811,-111.0
2023-08-12 15:08:32.567501,-109.0
2023-08-12 15:08:32.575191,-102.0
2023-08-12 15:08:32.582881,-97.0
2023-08-12 15:08:32.590571,-99.0
2023-08-12 15:08:32.598261,-102.0
2023-08-12 15:08:32.605951,-104.0
2023-08-12 15:08:32.613641,-99.0
2023-08-12 15:08:32.621331,-92.0
2023-08-12 15:08:32.629021,-90.0
2023-08-12 15:08:32.636711,-90.0
2023-08-12 15:08:32.644401,-88.0
2023-08-12 15:08:32.652091,-88.0
2023-08-12 15:08:32.659781,-90.0
2023-08-12 15:08:32.667471,-85.0
2023-08-12 15:08:32.675161,-83.0
2023-08-12 15:08:32.682851,-85.0
2023-08-12 15:08:32.690541,-88.0
2023-08-12 15:08:32.698231,-92.0
2023-08-12 15:08:32.705921,-90.0
2023-08-12 15:08:32.713611,-90.0
2023-08-12 15:08:32.721301,-95.0
2023-08-12 15:08:32.728991,-92.0
2023-08-12 15:08:32.736681,-88.0
2023-08-12 15:08:32.744371,-92.0
2023-08-12 15:08:32.752060,-97.0
2023-08-12 15:08:32.759750,-92.0
2023-08-12 15:08:32.767440,-85.0
2023-08-12 15:08:32.775130,-85.0
2023-08-12 15:08:32.782820,-88.0
2023-08-12 15:08:32.790510,-90.0
2023-08-12 15:08:32.798200,-90.0
2023-08-12 15:08:32.805890,-88.0
2023-08-12 15:08:32.813580,-83.0
2023-08-12 15:08:32.821270,-80.0
2023-08-12 15:08:32.828960,-80.0
2023-08-12 15:08:32.836650,-83.0
2023-08-12 15:08:32.844340,-80.0
2023-08-12 15:08:32.852030,-80.0
2023-08-12 15:08:32.859720,-78.0
2023-08-12 15:08:32.867410,-76.0
2023-08-12 15:08:32.875100,-78.0
2023-08-12 15:08:32.882790,-76.0
2023-08-12 15:08:32.890480,-69.0
2023-08-12 15:08:32.898170,-61.0
2023-08-12 15:08:32.905860,-61.0
2023-08-12 15:08:32.913550,-64.0
2023-08-12 15:08:32.921240,-54.0
2023-08-12 15:08:32.928930,-40.0
2023-08-12 15:08:32.936620,-28.0
2023-08-12 15:08:32.944310,-23.0
2023-08-12 15:08:32.952000,-30.0
2023-08-12 15:08:32.959690,-45.0
2023-08-12 15:08:32.967380,-54.0
2023-08-12 15:08:32.975069,-57.0
2023-08-12 15:08:32.982759,-64.0
2023-08-12 15:08:32.990449,-76.0
2023-08-12 15:08:32.998139,-85.0
2023-08-12 15:08:33.005829,-85.0
2023-08-12 15:08:33.013519,-80.0
2023-08-12 15:08:33.021209,-73.0
2023-08-12 15:08:33.028899,-76.0
2023-08-12 15:08:33.036589,-85.0
2023-08-12 15:08:33.044279,-59.0
2023-08-12 15:08:33.051969,88.0
2023-08-12 15:08:33.059659,392.0
2023-08-12 15:08:33.067349,666.0
2023-08-12 15:08:33.075039,585.0
2023-08-12 15:08:33.082729,164.0
2023-08-12 15:08:33.090419,-159.0
2023-08-12 15:08:33.098109,-188.0
2023-08-12 15:08:33.105799,-178.0
2023-08-12 15:08:33.113489,-199.0
2023-08-12 15:08:33.121179,-138.0
2023-08-12 15:08:33.128869,-99.0
2023-08-12 15:08:33.136559,-123.0
2023-08-12 15:08:33.144249,-116.0
2023-08-12 15:08:33.151939,-90.0
2023-08-12 15:08:33.159629,-90.0
2023-08-12 15:08:33.167319,-83.0
2023-08-12 15:08:33.175009,-69.0
2023-08-12 15:08:33.182699,-64.0
2023-08-12 15:08:33.190389,-61.0
2023-08-12 15:08:33.198079,-49.0
2023-08-12 15:08:33.205768,-42.0
2023-08-12 15:08:33.213458,-38.0
2023-08-12 15:08:33.221148,-26.0
2023-08-12 15:08:33.228838,-11.0
2023-08-12 15:08:33.236528,-4.0
2023-08-12 15:08:33.244218,4.0
2023-08-12 15:08:33.251908,23.0
2023-08-12 15:08:33.259598,38.0
2023-08-12 15:08:33.267288,54.0
2023-08-12 15:08:33.274978,73.0
2023-08-12 15:08:33.282668,85.0
2023-08-12 15:08:33.290358,80.0
2023-08-12 15:08:33.298048,78.0
2023-08-12 15:08:33.305738,80.0
2023-08-12 15:08:33.313428,73.0
2023-08-12 15:08:33.321118,57.0
2023-08-12 15:08:33.328808,26.0
2023-08-12 15:08:33.336498,-14.0
2023-08-12 15:08:33.344188,-47.0
2023-08-12 15:08:33.351878,-78.0
2023-08-12 15:08:33.359568,-99.0
2023-08-12 15:08:33.367258,-119.0
2023-08-12 15:08:33.374948,-140.0
2023-08-12 15:08:33.382638,-142.0
2023-08-12 15:08:33.390328,-130.0
2023-08-12 15:08:33.398018,-135.0
2023-08-12 15:08:33.405708,-140.0
2023-08-12 15:08:33.413398,-128.0
2023-08-12 15:08:33.421088,-121.0
2023-08-12 15:08:33.428777,-126.0
2023-08-12 15:08:33.436467,-123.0
2023-08-12 15:08:33.444157,-116.0
2023-08-12 15:08:33.451847,-111.0
2023-08-12 15:08:33.459537,-109.0
2023-08-12 15:08:33.467227,-107.0
2023-08-12 15:08:33.474917,-107.0
2023-08-12 15:08:33.482607,-104.0
2023-08-12 15:08:33.490297,-104.0
2023-08-12 15:08:33.497987,-99.0
2023-08-12 15:08:33.505677,-99.0
2023-08-12 15:08:33.513367,-111.0
2023-08-12 15:08:33.521057,-111.0
2023-08-12 15:08:33.528747,-102.0
2023-08-12 15:08:33.536437,-97.0
2023-08-12 15:08:33.544127,-99.0
2023-08-12 15:08:33.551817,-104.0
2023-08-12 15:08:33.559507,-107.0
2023-08-12 15:08:33.567197,-99.0
2023-08-12 15:08:33.574887,-95.0
2023-08-12 15:08:33.582577,-99.0
2023-08-12 15:08:33.590267,-99.0
2023-08-12 15:08:33.597957,-97.0
2023-08-12 15:08:33.605647,-102.0
2023-08-12 15:08:33.613337,-104.0
2023-08-12 15:08:33.621027,-104.0
2023-08-12 15:08:33.628717,-104.0
2023-08-12 15:08:33.636407,-104.0
2023-08-12 15:08:33.644097,-109.0
2023-08-12 15:08:33.651786,-104.0
2023-08-12 15:08:33.659476,-97.0
2023-08-12 15:08:33.667166,-95.0
2023-08-12 15:08:33.674856,-99.0
2023-08-12 15:08:33.682546,-99.0
2023-08-12 15:08:33.690236,-95.0
2023-08-12 15:08:33.697926,-92.0
2023-08-12 15:08:33.705616,-92.0
2023-08-12 15:08:33.713306,-90.0
2023-08-12 15:08:33.720996,-88.0
2023-08-12 15:08:33.728686,-85.0
2023-08-12 15:08:33.736376,-88.0
2023-08-12 15:08:33.744066,-90.0
2023-08-12 15:08:33.751756,-90.0
2023-08-12 15:08:33.759446,-80.0
2023-08-12 15:08:33.767136,-71.0
2023-08-12 15:08:33.774826,-64.0
2023-08-12 15:08:33.782516,-57.0
2023-08-12 15:08:33.790206,-47.0
2023-08-12 15:08:33.797896,-42.0
2023-08-12 15:08:33.805586,-47.0
2023-08-12 15:08:33.813276,-54.0
2023-08-12 15:08:33.820966,-54.0
2023-08-12 15:08:33.828656,-49.0
2023-08-12 15:08:33.836346,-59.0
2023-08-12 15:08:33.844036,-78.0
2023-08-12 15:08:33.851726,-95.0
2023-08-12 15:08:33.859416,-90.0
2023-08-12 15:08:33.867106,-78.0
2023-08-12 15:08:33.874795,-73.0
2023-08-12 15:08:33.882485,-78.0
2023-08-12 15:08:33.890175,-85.0
2023-08-12 15:08:33.897865,-69.0
2023-08-12 15:08:33.905555,52.0
2023-08-12 15:08:33.913245,340.0
2023-08-12 15:08:33.920935,656.0
2023-08-12 15:08:33.928625,656.0
2023-08-12 15:08:33.936315,252.0
2023-08-12 15:08:33.944005,-133.0
2023-08-12 15:08:33.951695,-190.0
2023-08-12 15:08:33.959385,-161.0
2023-08-12 15:08:33.967075,-197.0
2023-08-12 15:08:33.974765,-154.0
