time,ECG
2023-08-10 17:15:39.886050,-223.0
2023-08-10 17:15:39.893740,-230.0
2023-08-10 17:15:39.901430,-238.0
2023-08-10 17:15:39.909120,-235.0
2023-08-10 17:15:39.916811,-226.0
2023-08-10 17:15:39.924501,-218.0
2023-08-10 17:15:39.932191,-211.0
2023-08-10 17:15:39.939882,-202.0
2023-08-10 17:15:39.947572,-195.0
2023-08-10 17:15:39.955262,-192.0
2023-08-10 17:15:39.962953,-192.0
2023-08-10 17:15:39.970643,-183.0
2023-08-10 17:15:39.978333,-169.0
2023-08-10 17:15:39.986024,-166.0
2023-08-10 17:15:39.993714,-166.0
2023-08-10 17:15:40.001404,-159.0
2023-08-10 17:15:40.009095,-154.0
2023-08-10 17:15:40.016785,-159.0
2023-08-10 17:15:40.024475,-159.0
2023-08-10 17:15:40.032165,-154.0
2023-08-10 17:15:40.039856,-149.0
2023-08-10 17:15:40.047546,-149.0
2023-08-10 17:15:40.055236,-154.0
2023-08-10 17:15:40.062927,-152.0
2023-08-10 17:15:40.070617,-147.0
2023-08-10 17:15:40.078307,-149.0
2023-08-10 17:15:40.085998,-152.0
2023-08-10 17:15:40.093688,-149.0
2023-08-10 17:15:40.101378,-149.0
2023-08-10 17:15:40.109069,-147.0
2023-08-10 17:15:40.116759,-145.0
2023-08-10 17:15:40.124449,-147.0
2023-08-10 17:15:40.132139,-140.0
2023-08-10 17:15:40.139830,-138.0
2023-08-10 17:15:40.147520,-140.0
2023-08-10 17:15:40.155210,-138.0
2023-08-10 17:15:40.162901,-133.0
2023-08-10 17:15:40.170591,-133.0
2023-08-10 17:15:40.178281,-133.0
2023-08-10 17:15:40.185972,-130.0
2023-08-10 17:15:40.193662,-130.0
2023-08-10 17:15:40.201352,-126.0
2023-08-10 17:15:40.209043,-116.0
2023-08-10 17:15:40.216733,-119.0
2023-08-10 17:15:40.224423,-123.0
2023-08-10 17:15:40.232114,-111.0
2023-08-10 17:15:40.239804,-107.0
2023-08-10 17:15:40.247494,-111.0
2023-08-10 17:15:40.255184,-109.0
2023-08-10 17:15:40.262875,-107.0
2023-08-10 17:15:40.270565,-111.0
2023-08-10 17:15:40.278255,-121.0
2023-08-10 17:15:40.285946,-119.0
2023-08-10 17:15:40.293636,-104.0
2023-08-10 17:15:40.301326,-104.0
2023-08-10 17:15:40.309017,-114.0
2023-08-10 17:15:40.316707,-109.0
2023-08-10 17:15:40.324397,-90.0
2023-08-10 17:15:40.332088,-76.0
2023-08-10 17:15:40.339778,-64.0
2023-08-10 17:15:40.347468,-66.0
2023-08-10 17:15:40.355158,-88.0
2023-08-10 17:15:40.362849,-85.0
2023-08-10 17:15:40.370539,-64.0
2023-08-10 17:15:40.378229,-78.0
2023-08-10 17:15:40.385920,-114.0
2023-08-10 17:15:40.393610,-119.0
2023-08-10 17:15:40.401300,-104.0
2023-08-10 17:15:40.408991,-104.0
2023-08-10 17:15:40.416681,-114.0
2023-08-10 17:15:40.424371,-114.0
2023-08-10 17:15:40.432062,-114.0
2023-08-10 17:15:40.439752,-109.0
2023-08-10 17:15:40.447442,-97.0
2023-08-10 17:15:40.455132,-99.0
2023-08-10 17:15:40.462823,-95.0
2023-08-10 17:15:40.470513,23.0
2023-08-10 17:15:40.478203,366.0
2023-08-10 17:15:40.485894,818.0
2023-08-10 17:15:40.493584,1004.0
2023-08-10 17:15:40.501274,580.0
2023-08-10 17:15:40.508965,-164.0
2023-08-10 17:15:40.516655,-340.0
2023-08-10 17:15:40.524345,-9.0
2023-08-10 17:15:40.532036,14.0
2023-08-10 17:15:40.539726,-157.0
2023-08-10 17:15:40.547416,-119.0
2023-08-10 17:15:40.555107,-71.0
2023-08-10 17:15:40.562797,-116.0
2023-08-10 17:15:40.570487,-104.0
2023-08-10 17:15:40.578177,-59.0
2023-08-10 17:15:40.585868,-61.0
2023-08-10 17:15:40.593558,-73.0
2023-08-10 17:15:40.601248,-64.0
2023-08-10 17:15:40.608939,-47.0
2023-08-10 17:15:40.616629,-40.0
2023-08-10 17:15:40.624319,-30.0
2023-08-10 17:15:40.632010,-4.0
2023-08-10 17:15:40.639700,14.0
2023-08-10 17:15:40.647390,28.0
2023-08-10 17:15:40.655081,57.0
2023-08-10 17:15:40.662771,83.0
2023-08-10 17:15:40.670461,102.0
2023-08-10 17:15:40.678151,138.0
2023-08-10 17:15:40.685842,164.0
2023-08-10 17:15:40.693532,183.0
2023-08-10 17:15:40.701222,214.0
2023-08-10 17:15:40.708913,240.0
2023-08-10 17:15:40.716603,257.0
2023-08-10 17:15:40.724293,271.0
2023-08-10 17:15:40.731984,276.0
2023-08-10 17:15:40.739674,264.0
2023-08-10 17:15:40.747364,233.0
2023-08-10 17:15:40.755055,180.0
2023-08-10 17:15:40.762745,99.0
2023-08-10 17:15:40.770435,14.0
2023-08-10 17:15:40.778126,-54.0
2023-08-10 17:15:40.785816,-119.0
2023-08-10 17:15:40.793506,-171.0
2023-08-10 17:15:40.801196,-204.0
2023-08-10 17:15:40.808887,-230.0
2023-08-10 17:15:40.816577,-245.0
2023-08-10 17:15:40.824267,-247.0
2023-08-10 17:15:40.831958,-245.0
2023-08-10 17:15:40.839648,-240.0
2023-08-10 17:15:40.847338,-230.0
2023-08-10 17:15:40.855029,-230.0
2023-08-10 17:15:40.862719,-228.0
2023-08-10 17:15:40.870409,-218.0
2023-08-10 17:15:40.878100,-211.0
2023-08-10 17:15:40.885790,-202.0
2023-08-10 17:15:40.893480,-188.0
2023-08-10 17:15:40.901170,-180.0
2023-08-10 17:15:40.908861,-185.0
2023-08-10 17:15:40.916551,-190.0
2023-08-10 17:15:40.924241,-185.0
2023-08-10 17:15:40.931932,-173.0
2023-08-10 17:15:40.939622,-166.0
2023-08-10 17:15:40.947312,-169.0
2023-08-10 17:15:40.955003,-169.0
2023-08-10 17:15:40.962693,-166.0
2023-08-10 17:15:40.970383,-161.0
2023-08-10 17:15:40.978074,-161.0
2023-08-10 17:15:40.985764,-159.0
2023-08-10 17:15:40.993454,-157.0
2023-08-10 17:15:41.001144,-159.0
2023-08-10 17:15:41.008835,-157.0
2023-08-10 17:15:41.016525,-152.0
2023-08-10 17:15:41.024215,-152.0
2023-08-10 17:15:41.031906,-149.0
2023-08-10 17:15:41.039596,-145.0
2023-08-10 17:15:41.047286,-147.0
2023-08-10 17:15:41.054977,-147.0
2023-08-10 17:15:41.062667,-138.0
2023-08-10 17:15:41.070357,-135.0
2023-08-10 17:15:41.078048,-135.0
2023-08-10 17:15:41.085738,-130.0
2023-08-10 17:15:41.093428,-133.0
2023-08-10 17:15:41.101119,-140.0
2023-08-10 17:15:41.108809,-133.0
2023-08-10 17:15:41.116499,-128.0
2023-08-10 17:15:41.124189,-128.0
2023-08-10 17:15:41.131880,-123.0
2023-08-10 17:15:41.139570,-123.0
2023-08-10 17:15:41.147260,-128.0
2023-08-10 17:15:41.154951,-126.0
2023-08-10 17:15:41.162641,-114.0
2023-08-10 17:15:41.170331,-107.0
2023-08-10 17:15:41.178022,-95.0
2023-08-10 17:15:41.185712,-78.0
2023-08-10 17:15:41.193402,-66.0
2023-08-10 17:15:41.201093,-76.0
2023-08-10 17:15:41.208783,-95.0
2023-08-10 17:15:41.216473,-88.0
2023-08-10 17:15:41.224163,-76.0
2023-08-10 17:15:41.231854,-102.0
2023-08-10 17:15:41.239544,-126.0
2023-08-10 17:15:41.247234,-121.0
2023-08-10 17:15:41.254925,-116.0
2023-08-10 17:15:41.262615,-123.0
2023-08-10 17:15:41.270305,-126.0
2023-08-10 17:15:41.277996,-119.0
2023-08-10 17:15:41.285686,-109.0
2023-08-10 17:15:41.293376,-102.0
2023-08-10 17:15:41.301067,-104.0
2023-08-10 17:15:41.308757,-111.0
2023-08-10 17:15:41.316447,-52.0
2023-08-10 17:15:41.324138,214.0
2023-08-10 17:15:41.331828,661.0
2023-08-10 17:15:41.339518,997.0
2023-08-10 17:15:41.347208,847.0
2023-08-10 17:15:41.354899,159.0
2023-08-10 17:15:41.362589,-338.0
2023-08-10 17:15:41.370279,-130.0
2023-08-10 17:15:41.377970,66.0
2023-08-10 17:15:41.385660,-107.0
2023-08-10 17:15:41.393350,-157.0
2023-08-10 17:15:41.401041,-69.0
2023-08-10 17:15:41.408731,-97.0
2023-08-10 17:15:41.416421,-123.0
2023-08-10 17:15:41.424112,-85.0
2023-08-10 17:15:41.431802,-73.0
2023-08-10 17:15:41.439492,-78.0
2023-08-10 17:15:41.447182,-64.0
2023-08-10 17:15:41.454873,-47.0
2023-08-10 17:15:41.462563,-38.0
2023-08-10 17:15:41.470253,-23.0
2023-08-10 17:15:41.477944,-4.0
2023-08-10 17:15:41.485634,4.0
2023-08-10 17:15:41.493324,11.0
2023-08-10 17:15:41.501015,28.0
2023-08-10 17:15:41.508705,54.0
2023-08-10 17:15:41.516395,78.0
2023-08-10 17:15:41.524086,99.0
2023-08-10 17:15:41.531776,133.0
2023-08-10 17:15:41.539466,159.0
2023-08-10 17:15:41.547156,183.0
2023-08-10 17:15:41.554847,209.0
2023-08-10 17:15:41.562537,233.0
2023-08-10 17:15:41.570227,245.0
2023-08-10 17:15:41.577918,247.0
2023-08-10 17:15:41.585608,238.0
2023-08-10 17:15:41.593298,207.0
2023-08-10 17:15:41.600989,152.0
2023-08-10 17:15:41.608679,90.0
2023-08-10 17:15:41.616369,16.0
2023-08-10 17:15:41.624060,-52.0
2023-08-10 17:15:41.631750,-114.0
2023-08-10 17:15:41.639440,-166.0
2023-08-10 17:15:41.647131,-202.0
2023-08-10 17:15:41.654821,-223.0
2023-08-10 17:15:41.662511,-240.0
2023-08-10 17:15:41.670201,-249.0
2023-08-10 17:15:41.677892,-249.0
2023-08-10 17:15:41.685582,-242.0
2023-08-10 17:15:41.693272,-235.0
2023-08-10 17:15:41.700963,-230.0
2023-08-10 17:15:41.708653,-218.0
2023-08-10 17:15:41.716343,-211.0
2023-08-10 17:15:41.724034,-209.0
2023-08-10 17:15:41.731724,-202.0
2023-08-10 17:15:41.739414,-190.0
2023-08-10 17:15:41.747105,-180.0
2023-08-10 17:15:41.754795,-180.0
2023-08-10 17:15:41.762485,-176.0
2023-08-10 17:15:41.770175,-169.0
2023-08-10 17:15:41.777866,-169.0
2023-08-10 17:15:41.785556,-164.0
2023-08-10 17:15:41.793246,-157.0
2023-08-10 17:15:41.800937,-154.0
2023-08-10 17:15:41.808627,-154.0
2023-08-10 17:15:41.816317,-154.0
2023-08-10 17:15:41.824008,-152.0
2023-08-10 17:15:41.831698,-145.0
2023-08-10 17:15:41.839388,-140.0
2023-08-10 17:15:41.847079,-140.0
2023-08-10 17:15:41.854769,-142.0
2023-08-10 17:15:41.862459,-138.0
2023-08-10 17:15:41.870150,-133.0
2023-08-10 17:15:41.877840,-130.0
2023-08-10 17:15:41.885530,-130.0
2023-08-10 17:15:41.893220,-126.0
2023-08-10 17:15:41.900911,-121.0
2023-08-10 17:15:41.908601,-119.0
2023-08-10 17:15:41.916291,-119.0
2023-08-10 17:15:41.923982,-116.0
2023-08-10 17:15:41.931672,-111.0
2023-08-10 17:15:41.939362,-107.0
2023-08-10 17:15:41.947053,-107.0
2023-08-10 17:15:41.954743,-107.0
2023-08-10 17:15:41.962433,-104.0
2023-08-10 17:15:41.970124,-99.0
2023-08-10 17:15:41.977814,-97.0
2023-08-10 17:15:41.985504,-95.0
2023-08-10 17:15:41.993194,-95.0
2023-08-10 17:15:42.000885,-97.0
2023-08-10 17:15:42.008575,-95.0
2023-08-10 17:15:42.016265,-92.0
2023-08-10 17:15:42.023956,-92.0
2023-08-10 17:15:42.031646,-97.0
2023-08-10 17:15:42.039336,-97.0
2023-08-10 17:15:42.047027,-83.0
2023-08-10 17:15:42.054717,-64.0
2023-08-10 17:15:42.062407,-52.0
2023-08-10 17:15:42.070098,-57.0
2023-08-10 17:15:42.077788,-78.0
2023-08-10 17:15:42.085478,-76.0
2023-08-10 17:15:42.093168,-57.0
2023-08-10 17:15:42.100859,-78.0
2023-08-10 17:15:42.108549,-116.0
2023-08-10 17:15:42.116239,-111.0
2023-08-10 17:15:42.123930,-97.0
2023-08-10 17:15:42.131620,-104.0
2023-08-10 17:15:42.139310,-102.0
2023-08-10 17:15:42.147001,-97.0
2023-08-10 17:15:42.154691,-95.0
2023-08-10 17:15:42.162381,-92.0
2023-08-10 17:15:42.170072,-92.0
2023-08-10 17:15:42.177762,-104.0
2023-08-10 17:15:42.185452,-76.0
2023-08-10 17:15:42.193143,97.0
2023-08-10 17:15:42.200833,466.0
2023-08-10 17:15:42.208523,868.0
2023-08-10 17:15:42.216213,983.0
2023-08-10 17:15:42.223904,490.0
2023-08-10 17:15:42.231594,-164.0
2023-08-10 17:15:42.239284,-178.0
2023-08-10 17:15:42.246975,49.0
2023-08-10 17:15:42.254665,-73.0
2023-08-10 17:15:42.262355,-176.0
2023-08-10 17:15:42.270046,-95.0
2023-08-10 17:15:42.277736,-92.0
2023-08-10 17:15:42.285426,-128.0
2023-08-10 17:15:42.293117,-99.0
2023-08-10 17:15:42.300807,-83.0
2023-08-10 17:15:42.308497,-92.0
2023-08-10 17:15:42.316187,-73.0
2023-08-10 17:15:42.323878,-54.0
2023-08-10 17:15:42.331568,-49.0
2023-08-10 17:15:42.339258,-40.0
2023-08-10 17:15:42.346949,-21.0
2023-08-10 17:15:42.354639,-9.0
2023-08-10 17:15:42.362329,7.0
2023-08-10 17:15:42.370020,28.0
2023-08-10 17:15:42.377710,47.0
2023-08-10 17:15:42.385400,71.0
2023-08-10 17:15:42.393091,99.0
2023-08-10 17:15:42.400781,123.0
2023-08-10 17:15:42.408471,154.0
2023-08-10 17:15:42.416162,183.0
2023-08-10 17:15:42.423852,207.0
2023-08-10 17:15:42.431542,226.0
2023-08-10 17:15:42.439232,238.0
2023-08-10 17:15:42.446923,245.0
2023-08-10 17:15:42.454613,242.0
2023-08-10 17:15:42.462303,226.0
2023-08-10 17:15:42.469994,183.0
2023-08-10 17:15:42.477684,121.0
2023-08-10 17:15:42.485374,52.0
2023-08-10 17:15:42.493065,-21.0
2023-08-10 17:15:42.500755,-85.0
2023-08-10 17:15:42.508445,-138.0
2023-08-10 17:15:42.516136,-178.0
2023-08-10 17:15:42.523826,-207.0
2023-08-10 17:15:42.531516,-223.0
2023-08-10 17:15:42.539206,-230.0
2023-08-10 17:15:42.546897,-228.0
2023-08-10 17:15:42.554587,-226.0
2023-08-10 17:15:42.562277,-223.0
2023-08-10 17:15:42.569968,-216.0
2023-08-10 17:15:42.577658,-209.0
2023-08-10 17:15:42.585348,-204.0
2023-08-10 17:15:42.593039,-195.0
2023-08-10 17:15:42.600729,-190.0
2023-08-10 17:15:42.608419,-192.0
2023-08-10 17:15:42.616110,-192.0
2023-08-10 17:15:42.623800,-190.0
2023-08-10 17:15:42.631490,-180.0
2023-08-10 17:15:42.639180,-173.0
2023-08-10 17:15:42.646871,-171.0
2023-08-10 17:15:42.654561,-169.0
2023-08-10 17:15:42.662251,-161.0
2023-08-10 17:15:42.669942,-159.0
2023-08-10 17:15:42.677632,-157.0
2023-08-10 17:15:42.685322,-152.0
2023-08-10 17:15:42.693013,-152.0
2023-08-10 17:15:42.700703,-149.0
2023-08-10 17:15:42.708393,-145.0
2023-08-10 17:15:42.716084,-145.0
2023-08-10 17:15:42.723774,-140.0
2023-08-10 17:15:42.731464,-138.0
2023-08-10 17:15:42.739155,-140.0
2023-08-10 17:15:42.746845,-142.0
2023-08-10 17:15:42.754535,-138.0
2023-08-10 17:15:42.762225,-135.0
2023-08-10 17:15:42.769916,-135.0
2023-08-10 17:15:42.777606,-130.0
2023-08-10 17:15:42.785296,-128.0
2023-08-10 17:15:42.792987,-126.0
2023-08-10 17:15:42.800677,-123.0
2023-08-10 17:15:42.808367,-121.0
2023-08-10 17:15:42.816058,-116.0
2023-08-10 17:15:42.823748,-111.0
2023-08-10 17:15:42.831438,-107.0
2023-08-10 17:15:42.839129,-107.0
2023-08-10 17:15:42.846819,-107.0
2023-08-10 17:15:42.854509,-104.0
2023-08-10 17:15:42.862199,-99.0
2023-08-10 17:15:42.869890,-97.0
2023-08-10 17:15:42.877580,-95.0
2023-08-10 17:15:42.885270,-92.0
2023-08-10 17:15:42.892961,-92.0
2023-08-10 17:15:42.900651,-90.0
2023-08-10 17:15:42.908341,-85.0
2023-08-10 17:15:42.916032,-83.0
2023-08-10 17:15:42.923722,-83.0
2023-08-10 17:15:42.931412,-85.0
2023-08-10 17:15:42.939103,-83.0
2023-08-10 17:15:42.946793,-76.0
2023-08-10 17:15:42.954483,-66.0
2023-08-10 17:15:42.962174,-49.0
2023-08-10 17:15:42.969864,-30.0
2023-08-10 17:15:42.977554,-35.0
2023-08-10 17:15:42.985244,-59.0
2023-08-10 17:15:42.992935,-64.0
2023-08-10 17:15:43.000625,-38.0
2023-08-10 17:15:43.008315,-47.0
2023-08-10 17:15:43.016006,-88.0
2023-08-10 17:15:43.023696,-99.0
2023-08-10 17:15:43.031386,-85.0
2023-08-10 17:15:43.039077,-85.0
2023-08-10 17:15:43.046767,-88.0
2023-08-10 17:15:43.054457,-83.0
2023-08-10 17:15:43.062148,-80.0
2023-08-10 17:15:43.069838,-80.0
2023-08-10 17:15:43.077528,-78.0
2023-08-10 17:15:43.085218,-80.0
2023-08-10 17:15:43.092909,-83.0
2023-08-10 17:15:43.100599,2.0
2023-08-10 17:15:43.108289,283.0
2023-08-10 17:15:43.115980,683.0
2023-08-10 17:15:43.123670,961.0
2023-08-10 17:15:43.131360,759.0
2023-08-10 17:15:43.139051,88.0
2023-08-10 17:15:43.146741,-240.0
2023-08-10 17:15:43.154431,-11.0
2023-08-10 17:15:43.162122,23.0
2023-08-10 17:15:43.169812,-152.0
2023-08-10 17:15:43.177502,-130.0
2023-08-10 17:15:43.185192,-73.0
2023-08-10 17:15:43.192883,-116.0
2023-08-10 17:15:43.200573,-123.0
2023-08-10 17:15:43.208263,-97.0
2023-08-10 17:15:43.215954,-97.0
2023-08-10 17:15:43.223644,-92.0
2023-08-10 17:15:43.231334,-78.0
2023-08-10 17:15:43.239025,-69.0
2023-08-10 17:15:43.246715,-59.0
2023-08-10 17:15:43.254405,-47.0
2023-08-10 17:15:43.262096,-33.0
2023-08-10 17:15:43.269786,-14.0
2023-08-10 17:15:43.277476,4.0
2023-08-10 17:15:43.285167,21.0
2023-08-10 17:15:43.292857,42.0
2023-08-10 17:15:43.300547,66.0
2023-08-10 17:15:43.308237,92.0
2023-08-10 17:15:43.315928,121.0
2023-08-10 17:15:43.323618,149.0
2023-08-10 17:15:43.331308,176.0
2023-08-10 17:15:43.338999,199.0
2023-08-10 17:15:43.346689,214.0
2023-08-10 17:15:43.354379,226.0
2023-08-10 17:15:43.362070,230.0
2023-08-10 17:15:43.369760,221.0
2023-08-10 17:15:43.377450,190.0
2023-08-10 17:15:43.385141,142.0
2023-08-10 17:15:43.392831,78.0
2023-08-10 17:15:43.400521,7.0
2023-08-10 17:15:43.408211,-59.0
2023-08-10 17:15:43.415902,-114.0
2023-08-10 17:15:43.423592,-159.0
2023-08-10 17:15:43.431282,-192.0
2023-08-10 17:15:43.438973,-214.0
2023-08-10 17:15:43.446663,-226.0
2023-08-10 17:15:43.454353,-228.0
2023-08-10 17:15:43.462044,-228.0
2023-08-10 17:15:43.469734,-228.0
2023-08-10 17:15:43.477424,-226.0
2023-08-10 17:15:43.485115,-218.0
2023-08-10 17:15:43.492805,-209.0
2023-08-10 17:15:43.500495,-202.0
2023-08-10 17:15:43.508186,-192.0
2023-08-10 17:15:43.515876,-188.0
2023-08-10 17:15:43.523566,-183.0
2023-08-10 17:15:43.531256,-178.0
2023-08-10 17:15:43.538947,-171.0
2023-08-10 17:15:43.546637,-164.0
2023-08-10 17:15:43.554327,-159.0
2023-08-10 17:15:43.562018,-157.0
2023-08-10 17:15:43.569708,-157.0
2023-08-10 17:15:43.577398,-157.0
2023-08-10 17:15:43.585089,-152.0
2023-08-10 17:15:43.592779,-147.0
2023-08-10 17:15:43.600469,-145.0
2023-08-10 17:15:43.608160,-147.0
2023-08-10 17:15:43.615850,-149.0
2023-08-10 17:15:43.623540,-152.0
2023-08-10 17:15:43.631230,-147.0
2023-08-10 17:15:43.638921,-145.0
2023-08-10 17:15:43.646611,-145.0
2023-08-10 17:15:43.654301,-145.0
2023-08-10 17:15:43.661992,-142.0
2023-08-10 17:15:43.669682,-140.0
2023-08-10 17:15:43.677372,-138.0
2023-08-10 17:15:43.685063,-130.0
2023-08-10 17:15:43.692753,-128.0
2023-08-10 17:15:43.700443,-128.0
2023-08-10 17:15:43.708134,-128.0
2023-08-10 17:15:43.715824,-128.0
2023-08-10 17:15:43.723514,-126.0
2023-08-10 17:15:43.731204,-123.0
2023-08-10 17:15:43.738895,-126.0
2023-08-10 17:15:43.746585,-128.0
2023-08-10 17:15:43.754275,-128.0
2023-08-10 17:15:43.761966,-126.0
2023-08-10 17:15:43.769656,-123.0
2023-08-10 17:15:43.777346,-123.0
2023-08-10 17:15:43.785037,-121.0
2023-08-10 17:15:43.792727,-116.0
2023-08-10 17:15:43.800417,-111.0
2023-08-10 17:15:43.808108,-114.0
2023-08-10 17:15:43.815798,-114.0
2023-08-10 17:15:43.823488,-109.0
2023-08-10 17:15:43.831179,-102.0
2023-08-10 17:15:43.838869,-99.0
2023-08-10 17:15:43.846559,-102.0
2023-08-10 17:15:43.854249,-102.0
2023-08-10 17:15:43.861940,-97.0
2023-08-10 17:15:43.869630,-97.0
2023-08-10 17:15:43.877320,-97.0
2023-08-10 17:15:43.885011,-95.0
2023-08-10 17:15:43.892701,-90.0
2023-08-10 17:15:43.900391,-90.0
2023-08-10 17:15:43.908082,-88.0
2023-08-10 17:15:43.915772,-83.0
2023-08-10 17:15:43.923462,-83.0
2023-08-10 17:15:43.931153,-88.0
2023-08-10 17:15:43.938843,-90.0
2023-08-10 17:15:43.946533,-80.0
2023-08-10 17:15:43.954223,-64.0
2023-08-10 17:15:43.961914,-47.0
2023-08-10 17:15:43.969604,-40.0
2023-08-10 17:15:43.977294,-49.0
2023-08-10 17:15:43.984985,-71.0
2023-08-10 17:15:43.992675,-66.0
2023-08-10 17:15:44.000365,-49.0
2023-08-10 17:15:44.008056,-71.0
2023-08-10 17:15:44.015746,-102.0
2023-08-10 17:15:44.023436,-97.0
2023-08-10 17:15:44.031127,-88.0
2023-08-10 17:15:44.038817,-92.0
2023-08-10 17:15:44.046507,-95.0
2023-08-10 17:15:44.054198,-92.0
2023-08-10 17:15:44.061888,-90.0
2023-08-10 17:15:44.069578,-83.0
2023-08-10 17:15:44.077268,-85.0
2023-08-10 17:15:44.084959,-97.0
2023-08-10 17:15:44.092649,-80.0
2023-08-10 17:15:44.100339,54.0
2023-08-10 17:15:44.108030,399.0
2023-08-10 17:15:44.115720,816.0
2023-08-10 17:15:44.123410,975.0
2023-08-10 17:15:44.131101,549.0
2023-08-10 17:15:44.138791,-140.0
2023-08-10 17:15:44.146481,-245.0
2023-08-10 17:15:44.154172,30.0
2023-08-10 17:15:44.161862,-35.0
2023-08-10 17:15:44.169552,-178.0
2023-08-10 17:15:44.177242,-111.0
2023-08-10 17:15:44.184933,-88.0
2023-08-10 17:15:44.192623,-133.0
2023-08-10 17:15:44.200313,-111.0
2023-08-10 17:15:44.208004,-85.0
2023-08-10 17:15:44.215694,-95.0
2023-08-10 17:15:44.223384,-92.0
2023-08-10 17:15:44.231075,-73.0
2023-08-10 17:15:44.238765,-59.0
2023-08-10 17:15:44.246455,-49.0
2023-08-10 17:15:44.254146,-35.0
2023-08-10 17:15:44.261836,-21.0
2023-08-10 17:15:44.269526,-9.0
2023-08-10 17:15:44.277216,9.0
2023-08-10 17:15:44.284907,26.0
2023-08-10 17:15:44.292597,49.0
2023-08-10 17:15:44.300287,76.0
2023-08-10 17:15:44.307978,102.0
2023-08-10 17:15:44.315668,130.0
2023-08-10 17:15:44.323358,154.0
2023-08-10 17:15:44.331049,176.0
2023-08-10 17:15:44.338739,202.0
2023-08-10 17:15:44.346429,218.0
2023-08-10 17:15:44.354120,216.0
2023-08-10 17:15:44.361810,221.0
2023-08-10 17:15:44.369500,223.0
2023-08-10 17:15:44.377191,192.0
2023-08-10 17:15:44.384881,135.0
2023-08-10 17:15:44.392571,73.0
2023-08-10 17:15:44.400261,4.0
2023-08-10 17:15:44.407952,-66.0
2023-08-10 17:15:44.415642,-126.0
2023-08-10 17:15:44.423332,-171.0
2023-08-10 17:15:44.431023,-209.0
2023-08-10 17:15:44.438713,-233.0
2023-08-10 17:15:44.446403,-238.0
2023-08-10 17:15:44.454094,-242.0
2023-08-10 17:15:44.461784,-252.0
2023-08-10 17:15:44.469474,-247.0
2023-08-10 17:15:44.477165,-233.0
2023-08-10 17:15:44.484855,-226.0
2023-08-10 17:15:44.492545,-216.0
2023-08-10 17:15:44.500235,-207.0
2023-08-10 17:15:44.507926,-202.0
2023-08-10 17:15:44.515616,-197.0
2023-08-10 17:15:44.523306,-195.0
2023-08-10 17:15:44.530997,-188.0
2023-08-10 17:15:44.538687,-178.0
2023-08-10 17:15:44.546377,-173.0
2023-08-10 17:15:44.554068,-169.0
2023-08-10 17:15:44.561758,-166.0
2023-08-10 17:15:44.569448,-161.0
2023-08-10 17:15:44.577139,-157.0
2023-08-10 17:15:44.584829,-157.0
2023-08-10 17:15:44.592519,-154.0
2023-08-10 17:15:44.600210,-154.0
2023-08-10 17:15:44.607900,-152.0
2023-08-10 17:15:44.615590,-149.0
2023-08-10 17:15:44.623280,-149.0
2023-08-10 17:15:44.630971,-147.0
2023-08-10 17:15:44.638661,-147.0
2023-08-10 17:15:44.646351,-145.0
2023-08-10 17:15:44.654042,-145.0
2023-08-10 17:15:44.661732,-140.0
2023-08-10 17:15:44.669422,-133.0
2023-08-10 17:15:44.677113,-128.0
2023-08-10 17:15:44.684803,-128.0
2023-08-10 17:15:44.692493,-126.0
2023-08-10 17:15:44.700184,-128.0
2023-08-10 17:15:44.707874,-133.0
2023-08-10 17:15:44.715564,-130.0
2023-08-10 17:15:44.723254,-123.0
2023-08-10 17:15:44.730945,-119.0
2023-08-10 17:15:44.738635,-119.0
2023-08-10 17:15:44.746325,-111.0
2023-08-10 17:15:44.754016,-109.0
2023-08-10 17:15:44.761706,-109.0
2023-08-10 17:15:44.769396,-111.0
2023-08-10 17:15:44.777087,-104.0
2023-08-10 17:15:44.784777,-97.0
2023-08-10 17:15:44.792467,-97.0
2023-08-10 17:15:44.800158,-102.0
2023-08-10 17:15:44.807848,-97.0
2023-08-10 17:15:44.815538,-95.0
2023-08-10 17:15:44.823228,-97.0
2023-08-10 17:15:44.830919,-97.0
2023-08-10 17:15:44.838609,-92.0
2023-08-10 17:15:44.846299,-85.0
2023-08-10 17:15:44.853990,-85.0
2023-08-10 17:15:44.861680,-90.0
2023-08-10 17:15:44.869370,-92.0
2023-08-10 17:15:44.877061,-88.0
2023-08-10 17:15:44.884751,-85.0
2023-08-10 17:15:44.892441,-85.0
2023-08-10 17:15:44.900132,-76.0
2023-08-10 17:15:44.907822,-59.0
2023-08-10 17:15:44.915512,-45.0
2023-08-10 17:15:44.923203,-38.0
2023-08-10 17:15:44.930893,-47.0
2023-08-10 17:15:44.938583,-66.0
2023-08-10 17:15:44.946273,-59.0
2023-08-10 17:15:44.953964,-52.0
2023-08-10 17:15:44.961654,-85.0
2023-08-10 17:15:44.969344,-116.0
2023-08-10 17:15:44.977035,-107.0
2023-08-10 17:15:44.984725,-97.0
2023-08-10 17:15:44.992415,-104.0
2023-08-10 17:15:45.000106,-99.0
2023-08-10 17:15:45.007796,-95.0
2023-08-10 17:15:45.015486,-95.0
2023-08-10 17:15:45.023177,-88.0
2023-08-10 17:15:45.030867,-83.0
2023-08-10 17:15:45.038557,-92.0
2023-08-10 17:15:45.046247,-73.0
2023-08-10 17:15:45.053938,92.0
2023-08-10 17:15:45.061628,483.0
2023-08-10 17:15:45.069318,902.0
2023-08-10 17:15:45.077009,992.0
2023-08-10 17:15:45.084699,485.0
2023-08-10 17:15:45.092389,-185.0
2023-08-10 17:15:45.100080,-207.0
2023-08-10 17:15:45.107770,69.0
2023-08-10 17:15:45.115460,-33.0
2023-08-10 17:15:45.123151,-161.0
2023-08-10 17:15:45.130841,-83.0
2023-08-10 17:15:45.138531,-71.0
2023-08-10 17:15:45.146222,-114.0
2023-08-10 17:15:45.153912,-88.0
2023-08-10 17:15:45.161602,-64.0
2023-08-10 17:15:45.169292,-71.0
2023-08-10 17:15:45.176983,-59.0
2023-08-10 17:15:45.184673,-42.0
2023-08-10 17:15:45.192363,-35.0
2023-08-10 17:15:45.200054,-26.0
2023-08-10 17:15:45.207744,-11.0
2023-08-10 17:15:45.215434,2.0
2023-08-10 17:15:45.223125,21.0
2023-08-10 17:15:45.230815,42.0
2023-08-10 17:15:45.238505,61.0
2023-08-10 17:15:45.246196,83.0
2023-08-10 17:15:45.253886,111.0
2023-08-10 17:15:45.261576,140.0
2023-08-10 17:15:45.269266,166.0
2023-08-10 17:15:45.276957,190.0
2023-08-10 17:15:45.284647,214.0
2023-08-10 17:15:45.292337,235.0
2023-08-10 17:15:45.300028,249.0
2023-08-10 17:15:45.307718,259.0
2023-08-10 17:15:45.315408,257.0
2023-08-10 17:15:45.323099,238.0
2023-08-10 17:15:45.330789,202.0
2023-08-10 17:15:45.338479,145.0
2023-08-10 17:15:45.346170,78.0
2023-08-10 17:15:45.353860,9.0
2023-08-10 17:15:45.361550,-59.0
2023-08-10 17:15:45.369240,-121.0
2023-08-10 17:15:45.376931,-166.0
2023-08-10 17:15:45.384621,-192.0
2023-08-10 17:15:45.392311,-209.0
2023-08-10 17:15:45.400002,-223.0
2023-08-10 17:15:45.407692,-233.0
2023-08-10 17:15:45.415382,-235.0
2023-08-10 17:15:45.423073,-230.0
2023-08-10 17:15:45.430763,-221.0
2023-08-10 17:15:45.438453,-216.0
2023-08-10 17:15:45.446144,-211.0
2023-08-10 17:15:45.453834,-207.0
2023-08-10 17:15:45.461524,-199.0
2023-08-10 17:15:45.469215,-192.0
2023-08-10 17:15:45.476905,-185.0
2023-08-10 17:15:45.484595,-176.0
2023-08-10 17:15:45.492285,-171.0
2023-08-10 17:15:45.499976,-169.0
2023-08-10 17:15:45.507666,-164.0
2023-08-10 17:15:45.515356,-161.0
2023-08-10 17:15:45.523047,-157.0
2023-08-10 17:15:45.530737,-152.0
2023-08-10 17:15:45.538427,-149.0
2023-08-10 17:15:45.546118,-147.0
2023-08-10 17:15:45.553808,-145.0
2023-08-10 17:15:45.561498,-142.0
2023-08-10 17:15:45.569189,-142.0
2023-08-10 17:15:45.576879,-142.0
2023-08-10 17:15:45.584569,-142.0
2023-08-10 17:15:45.592259,-138.0
2023-08-10 17:15:45.599950,-135.0
2023-08-10 17:15:45.607640,-133.0
2023-08-10 17:15:45.615330,-133.0
2023-08-10 17:15:45.623021,-128.0
2023-08-10 17:15:45.630711,-126.0
2023-08-10 17:15:45.638401,-123.0
2023-08-10 17:15:45.646092,-121.0
2023-08-10 17:15:45.653782,-119.0
2023-08-10 17:15:45.661472,-116.0
2023-08-10 17:15:45.669163,-114.0
2023-08-10 17:15:45.676853,-114.0
2023-08-10 17:15:45.684543,-111.0
2023-08-10 17:15:45.692234,-114.0
2023-08-10 17:15:45.699924,-114.0
2023-08-10 17:15:45.707614,-111.0
2023-08-10 17:15:45.715304,-109.0
2023-08-10 17:15:45.722995,-107.0
2023-08-10 17:15:45.730685,-107.0
2023-08-10 17:15:45.738375,-104.0
2023-08-10 17:15:45.746066,-102.0
2023-08-10 17:15:45.753756,-97.0
2023-08-10 17:15:45.761446,-95.0
2023-08-10 17:15:45.769137,-95.0
2023-08-10 17:15:45.776827,-92.0
2023-08-10 17:15:45.784517,-92.0
2023-08-10 17:15:45.792208,-92.0
2023-08-10 17:15:45.799898,-90.0
2023-08-10 17:15:45.807588,-88.0
2023-08-10 17:15:45.815278,-90.0
2023-08-10 17:15:45.822969,-90.0
2023-08-10 17:15:45.830659,-88.0
2023-08-10 17:15:45.838349,-88.0
2023-08-10 17:15:45.846040,-85.0
2023-08-10 17:15:45.853730,-85.0
2023-08-10 17:15:45.861420,-88.0
2023-08-10 17:15:45.869111,-85.0
2023-08-10 17:15:45.876801,-76.0
2023-08-10 17:15:45.884491,-61.0
2023-08-10 17:15:45.892182,-45.0
2023-08-10 17:15:45.899872,-47.0
2023-08-10 17:15:45.907562,-71.0
2023-08-10 17:15:45.915252,-73.0
2023-08-10 17:15:45.922943,-54.0
2023-08-10 17:15:45.930633,-66.0
2023-08-10 17:15:45.938323,-104.0
2023-08-10 17:15:45.946014,-109.0
2023-08-10 17:15:45.953704,-95.0
2023-08-10 17:15:45.961394,-95.0
2023-08-10 17:15:45.969085,-99.0
2023-08-10 17:15:45.976775,-92.0
2023-08-10 17:15:45.984465,-90.0
2023-08-10 17:15:45.992156,-95.0
2023-08-10 17:15:45.999846,-97.0
2023-08-10 17:15:46.007536,-99.0
2023-08-10 17:15:46.015227,-88.0
2023-08-10 17:15:46.022917,33.0
2023-08-10 17:15:46.030607,354.0
2023-08-10 17:15:46.038297,756.0
2023-08-10 17:15:46.045988,959.0
2023-08-10 17:15:46.053678,635.0
2023-08-10 17:15:46.061368,-38.0
2023-08-10 17:15:46.069059,-226.0
2023-08-10 17:15:46.076749,28.0
2023-08-10 17:15:46.084439,-4.0
2023-08-10 17:15:46.092130,-159.0
2023-08-10 17:15:46.099820,-107.0
2023-08-10 17:15:46.107510,-71.0
2023-08-10 17:15:46.115201,-114.0
2023-08-10 17:15:46.122891,-99.0
2023-08-10 17:15:46.130581,-73.0
2023-08-10 17:15:46.138271,-80.0
2023-08-10 17:15:46.145962,-73.0
2023-08-10 17:15:46.153652,-54.0
2023-08-10 17:15:46.161342,-45.0
2023-08-10 17:15:46.169033,-35.0
2023-08-10 17:15:46.176723,-21.0
2023-08-10 17:15:46.184413,-9.0
2023-08-10 17:15:46.192104,2.0
2023-08-10 17:15:46.199794,21.0
2023-08-10 17:15:46.207484,40.0
2023-08-10 17:15:46.215175,59.0
2023-08-10 17:15:46.222865,83.0
2023-08-10 17:15:46.230555,111.0
2023-08-10 17:15:46.238246,140.0
2023-08-10 17:15:46.245936,166.0
2023-08-10 17:15:46.253626,188.0
2023-08-10 17:15:46.261316,209.0
2023-08-10 17:15:46.269007,230.0
2023-08-10 17:15:46.276697,240.0
2023-08-10 17:15:46.284387,242.0
2023-08-10 17:15:46.292078,230.0
2023-08-10 17:15:46.299768,202.0
2023-08-10 17:15:46.307458,149.0
2023-08-10 17:15:46.315149,85.0
2023-08-10 17:15:46.322839,16.0
2023-08-10 17:15:46.330529,-49.0
2023-08-10 17:15:46.338220,-107.0
2023-08-10 17:15:46.345910,-152.0
2023-08-10 17:15:46.353600,-188.0
2023-08-10 17:15:46.361290,-211.0
2023-08-10 17:15:46.368981,-226.0
2023-08-10 17:15:46.376671,-235.0
2023-08-10 17:15:46.384361,-235.0
2023-08-10 17:15:46.392052,-230.0
2023-08-10 17:15:46.399742,-228.0
2023-08-10 17:15:46.407432,-221.0
2023-08-10 17:15:46.415123,-211.0
2023-08-10 17:15:46.422813,-202.0
2023-08-10 17:15:46.430503,-199.0
2023-08-10 17:15:46.438194,-197.0
2023-08-10 17:15:46.445884,-190.0
2023-08-10 17:15:46.453574,-180.0
2023-08-10 17:15:46.461264,-173.0
2023-08-10 17:15:46.468955,-173.0
2023-08-10 17:15:46.476645,-169.0
2023-08-10 17:15:46.484335,-164.0
2023-08-10 17:15:46.492026,-161.0
2023-08-10 17:15:46.499716,-154.0
2023-08-10 17:15:46.507406,-149.0
2023-08-10 17:15:46.515097,-149.0
2023-08-10 17:15:46.522787,-149.0
2023-08-10 17:15:46.530477,-152.0
2023-08-10 17:15:46.538168,-154.0
2023-08-10 17:15:46.545858,-154.0
2023-08-10 17:15:46.553548,-152.0
2023-08-10 17:15:46.561239,-149.0
2023-08-10 17:15:46.568929,-147.0
2023-08-10 17:15:46.576619,-149.0
2023-08-10 17:15:46.584309,-149.0
2023-08-10 17:15:46.592000,-145.0
2023-08-10 17:15:46.599690,-145.0
2023-08-10 17:15:46.607380,-142.0
2023-08-10 17:15:46.615071,-138.0
2023-08-10 17:15:46.622761,-135.0
2023-08-10 17:15:46.630451,-135.0
2023-08-10 17:15:46.638142,-130.0
2023-08-10 17:15:46.645832,-126.0
2023-08-10 17:15:46.653522,-123.0
2023-08-10 17:15:46.661213,-119.0
2023-08-10 17:15:46.668903,-119.0
2023-08-10 17:15:46.676593,-121.0
2023-08-10 17:15:46.684283,-119.0
2023-08-10 17:15:46.691974,-114.0
2023-08-10 17:15:46.699664,-114.0
2023-08-10 17:15:46.707354,-116.0
2023-08-10 17:15:46.715045,-116.0
2023-08-10 17:15:46.722735,-114.0
2023-08-10 17:15:46.730425,-111.0
2023-08-10 17:15:46.738116,-111.0
2023-08-10 17:15:46.745806,-107.0
2023-08-10 17:15:46.753496,-104.0
2023-08-10 17:15:46.761187,-104.0
2023-08-10 17:15:46.768877,-104.0
2023-08-10 17:15:46.776567,-102.0
2023-08-10 17:15:46.784258,-97.0
2023-08-10 17:15:46.791948,-95.0
2023-08-10 17:15:46.799638,-95.0
2023-08-10 17:15:46.807328,-92.0
2023-08-10 17:15:46.815019,-90.0
2023-08-10 17:15:46.822709,-88.0
2023-08-10 17:15:46.830399,-85.0
2023-08-10 17:15:46.838090,-85.0
2023-08-10 17:15:46.845780,-83.0
2023-08-10 17:15:46.853470,-73.0
2023-08-10 17:15:46.861161,-59.0
2023-08-10 17:15:46.868851,-45.0
2023-08-10 17:15:46.876541,-42.0
2023-08-10 17:15:46.884232,-61.0
2023-08-10 17:15:46.891922,-73.0
2023-08-10 17:15:46.899612,-57.0
2023-08-10 17:15:46.907302,-52.0
2023-08-10 17:15:46.914993,-85.0
2023-08-10 17:15:46.922683,-104.0
2023-08-10 17:15:46.930373,-92.0
2023-08-10 17:15:46.938064,-90.0
2023-08-10 17:15:46.945754,-95.0
2023-08-10 17:15:46.953444,-90.0
2023-08-10 17:15:46.961135,-83.0
2023-08-10 17:15:46.968825,-83.0
2023-08-10 17:15:46.976515,-80.0
2023-08-10 17:15:46.984206,-83.0
2023-08-10 17:15:46.991896,-88.0
2023-08-10 17:15:46.999586,-30.0
2023-08-10 17:15:47.007276,204.0
2023-08-10 17:15:47.014967,602.0
2023-08-10 17:15:47.022657,928.0
2023-08-10 17:15:47.030347,840.0
2023-08-10 17:15:47.038038,228.0
2023-08-10 17:15:47.045728,-221.0
2023-08-10 17:15:47.053418,-61.0
2023-08-10 17:15:47.061109,64.0
2023-08-10 17:15:47.068799,-99.0
2023-08-10 17:15:47.076489,-130.0
2023-08-10 17:15:47.084180,-64.0
2023-08-10 17:15:47.091870,-88.0
2023-08-10 17:15:47.099560,-102.0
2023-08-10 17:15:47.107251,-69.0
2023-08-10 17:15:47.114941,-69.0
2023-08-10 17:15:47.122631,-80.0
2023-08-10 17:15:47.130321,-64.0
2023-08-10 17:15:47.138012,-47.0
2023-08-10 17:15:47.145702,-42.0
2023-08-10 17:15:47.153392,-28.0
2023-08-10 17:15:47.161083,-9.0
2023-08-10 17:15:47.168773,0.0
2023-08-10 17:15:47.176463,11.0
2023-08-10 17:15:47.184154,35.0
2023-08-10 17:15:47.191844,59.0
2023-08-10 17:15:47.199534,78.0
2023-08-10 17:15:47.207225,97.0
2023-08-10 17:15:47.214915,119.0
2023-08-10 17:15:47.222605,145.0
2023-08-10 17:15:47.230295,173.0
2023-08-10 17:15:47.237986,199.0
2023-08-10 17:15:47.245676,218.0
2023-08-10 17:15:47.253366,230.0
2023-08-10 17:15:47.261057,235.0
2023-08-10 17:15:47.268747,228.0
2023-08-10 17:15:47.276437,211.0
2023-08-10 17:15:47.284128,173.0
2023-08-10 17:15:47.291818,116.0
2023-08-10 17:15:47.299508,47.0
2023-08-10 17:15:47.307199,-23.0
2023-08-10 17:15:47.314889,-83.0
2023-08-10 17:15:47.322579,-128.0
2023-08-10 17:15:47.330270,-169.0
2023-08-10 17:15:47.337960,-197.0
2023-08-10 17:15:47.345650,-214.0
2023-08-10 17:15:47.353340,-223.0
2023-08-10 17:15:47.361031,-223.0
2023-08-10 17:15:47.368721,-223.0
2023-08-10 17:15:47.376411,-226.0
2023-08-10 17:15:47.384102,-221.0
2023-08-10 17:15:47.391792,-209.0
2023-08-10 17:15:47.399482,-204.0
2023-08-10 17:15:47.407173,-202.0
2023-08-10 17:15:47.414863,-199.0
2023-08-10 17:15:47.422553,-190.0
2023-08-10 17:15:47.430244,-180.0
2023-08-10 17:15:47.437934,-176.0
2023-08-10 17:15:47.445624,-173.0
2023-08-10 17:15:47.453314,-169.0
2023-08-10 17:15:47.461005,-161.0
2023-08-10 17:15:47.468695,-157.0
2023-08-10 17:15:47.476385,-154.0
2023-08-10 17:15:47.484076,-147.0
2023-08-10 17:15:47.491766,-147.0
2023-08-10 17:15:47.499456,-152.0
2023-08-10 17:15:47.507147,-149.0
2023-08-10 17:15:47.514837,-142.0
2023-08-10 17:15:47.522527,-145.0
2023-08-10 17:15:47.530218,-147.0
2023-08-10 17:15:47.537908,-142.0
2023-08-10 17:15:47.545598,-142.0
2023-08-10 17:15:47.553288,-140.0
2023-08-10 17:15:47.560979,-133.0
2023-08-10 17:15:47.568669,-130.0
2023-08-10 17:15:47.576359,-133.0
2023-08-10 17:15:47.584050,-130.0
2023-08-10 17:15:47.591740,-130.0
2023-08-10 17:15:47.599430,-128.0
2023-08-10 17:15:47.607121,-123.0
2023-08-10 17:15:47.614811,-123.0
2023-08-10 17:15:47.622501,-126.0
2023-08-10 17:15:47.630192,-123.0
2023-08-10 17:15:47.637882,-123.0
2023-08-10 17:15:47.645572,-121.0
2023-08-10 17:15:47.653263,-111.0
2023-08-10 17:15:47.660953,-107.0
2023-08-10 17:15:47.668643,-111.0
2023-08-10 17:15:47.676333,-114.0
2023-08-10 17:15:47.684024,-104.0
2023-08-10 17:15:47.691714,-102.0
2023-08-10 17:15:47.699404,-111.0
2023-08-10 17:15:47.707095,-116.0
2023-08-10 17:15:47.714785,-111.0
2023-08-10 17:15:47.722475,-111.0
2023-08-10 17:15:47.730166,-111.0
2023-08-10 17:15:47.737856,-111.0
2023-08-10 17:15:47.745546,-116.0
2023-08-10 17:15:47.753237,-114.0
2023-08-10 17:15:47.760927,-109.0
2023-08-10 17:15:47.768617,-104.0
2023-08-10 17:15:47.776307,-104.0
2023-08-10 17:15:47.783998,-102.0
2023-08-10 17:15:47.791688,-102.0
2023-08-10 17:15:47.799378,-102.0
2023-08-10 17:15:47.807069,-97.0
2023-08-10 17:15:47.814759,-95.0
2023-08-10 17:15:47.822449,-97.0
2023-08-10 17:15:47.830140,-92.0
2023-08-10 17:15:47.837830,-83.0
2023-08-10 17:15:47.845520,-66.0
2023-08-10 17:15:47.853211,-49.0
2023-08-10 17:15:47.860901,-42.0
2023-08-10 17:15:47.868591,-59.0
2023-08-10 17:15:47.876282,-78.0
2023-08-10 17:15:47.883972,-69.0
2023-08-10 17:15:47.891662,-61.0
2023-08-10 17:15:47.899352,-90.0
2023-08-10 17:15:47.907043,-114.0
2023-08-10 17:15:47.914733,-102.0
2023-08-10 17:15:47.922423,-92.0
2023-08-10 17:15:47.930114,-97.0
2023-08-10 17:15:47.937804,-97.0
2023-08-10 17:15:47.945494,-92.0
2023-08-10 17:15:47.953185,-90.0
2023-08-10 17:15:47.960875,-90.0
2023-08-10 17:15:47.968565,-90.0
2023-08-10 17:15:47.976256,-85.0
2023-08-10 17:15:47.983946,-16.0
2023-08-10 17:15:47.991636,240.0
2023-08-10 17:15:47.999326,666.0
2023-08-10 17:15:48.007017,983.0
2023-08-10 17:15:48.014707,795.0
2023-08-10 17:15:48.022397,88.0
2023-08-10 17:15:48.030088,-318.0
2023-08-10 17:15:48.037778,-61.0
2023-08-10 17:15:48.045468,80.0
2023-08-10 17:15:48.053159,-102.0
2023-08-10 17:15:48.060849,-130.0
2023-08-10 17:15:48.068539,-57.0
2023-08-10 17:15:48.076230,-85.0
2023-08-10 17:15:48.083920,-102.0
2023-08-10 17:15:48.091610,-66.0
2023-08-10 17:15:48.099300,-57.0
2023-08-10 17:15:48.106991,-59.0
2023-08-10 17:15:48.114681,-45.0
2023-08-10 17:15:48.122371,-30.0
2023-08-10 17:15:48.130062,-26.0
2023-08-10 17:15:48.137752,-11.0
2023-08-10 17:15:48.145442,9.0
2023-08-10 17:15:48.153133,26.0
2023-08-10 17:15:48.160823,35.0
2023-08-10 17:15:48.168513,49.0
2023-08-10 17:15:48.176204,71.0
2023-08-10 17:15:48.183894,97.0
2023-08-10 17:15:48.191584,123.0
2023-08-10 17:15:48.199275,145.0
2023-08-10 17:15:48.206965,166.0
2023-08-10 17:15:48.214655,192.0
2023-08-10 17:15:48.222345,223.0
2023-08-10 17:15:48.230036,245.0
2023-08-10 17:15:48.237726,257.0
2023-08-10 17:15:48.245416,261.0
2023-08-10 17:15:48.253107,254.0
2023-08-10 17:15:48.260797,235.0
2023-08-10 17:15:48.268487,197.0
2023-08-10 17:15:48.276178,138.0
2023-08-10 17:15:48.283868,61.0
2023-08-10 17:15:48.291558,-14.0
2023-08-10 17:15:48.299249,-80.0
2023-08-10 17:15:48.306939,-138.0
2023-08-10 17:15:48.314629,-176.0
2023-08-10 17:15:48.322319,-195.0
2023-08-10 17:15:48.330010,-214.0
2023-08-10 17:15:48.337700,-230.0
2023-08-10 17:15:48.345390,-233.0
2023-08-10 17:15:48.353081,-226.0
2023-08-10 17:15:48.360771,-223.0
2023-08-10 17:15:48.368461,-218.0
2023-08-10 17:15:48.376152,-214.0
2023-08-10 17:15:48.383842,-214.0
2023-08-10 17:15:48.391532,-207.0
2023-08-10 17:15:48.399223,-195.0
2023-08-10 17:15:48.406913,-190.0
2023-08-10 17:15:48.414603,-190.0
2023-08-10 17:15:48.422294,-185.0
2023-08-10 17:15:48.429984,-178.0
2023-08-10 17:15:48.437674,-171.0
2023-08-10 17:15:48.445364,-164.0
2023-08-10 17:15:48.453055,-159.0
2023-08-10 17:15:48.460745,-157.0
2023-08-10 17:15:48.468435,-159.0
2023-08-10 17:15:48.476126,-154.0
2023-08-10 17:15:48.483816,-149.0
2023-08-10 17:15:48.491506,-149.0
2023-08-10 17:15:48.499197,-149.0
2023-08-10 17:15:48.506887,-147.0
2023-08-10 17:15:48.514577,-145.0
2023-08-10 17:15:48.522268,-142.0
2023-08-10 17:15:48.529958,-145.0
2023-08-10 17:15:48.537648,-145.0
2023-08-10 17:15:48.545338,-140.0
2023-08-10 17:15:48.553029,-138.0
2023-08-10 17:15:48.560719,-140.0
2023-08-10 17:15:48.568409,-135.0
2023-08-10 17:15:48.576100,-128.0
2023-08-10 17:15:48.583790,-126.0
2023-08-10 17:15:48.591480,-128.0
2023-08-10 17:15:48.599171,-126.0
2023-08-10 17:15:48.606861,-123.0
2023-08-10 17:15:48.614551,-121.0
2023-08-10 17:15:48.622242,-116.0
2023-08-10 17:15:48.629932,-111.0
2023-08-10 17:15:48.637622,-114.0
2023-08-10 17:15:48.645313,-116.0
2023-08-10 17:15:48.653003,-116.0
2023-08-10 17:15:48.660693,-109.0
2023-08-10 17:15:48.668383,-107.0
2023-08-10 17:15:48.676074,-109.0
2023-08-10 17:15:48.683764,-111.0
2023-08-10 17:15:48.691454,-109.0
2023-08-10 17:15:48.699145,-109.0
2023-08-10 17:15:48.706835,-107.0
2023-08-10 17:15:48.714525,-102.0
2023-08-10 17:15:48.722216,-99.0
2023-08-10 17:15:48.729906,-102.0
2023-08-10 17:15:48.737596,-104.0
2023-08-10 17:15:48.745287,-102.0
2023-08-10 17:15:48.752977,-90.0
2023-08-10 17:15:48.760667,-76.0
2023-08-10 17:15:48.768357,-57.0
2023-08-10 17:15:48.776048,-45.0
2023-08-10 17:15:48.783738,-59.0
2023-08-10 17:15:48.791428,-90.0
2023-08-10 17:15:48.799119,-83.0
2023-08-10 17:15:48.806809,-61.0
2023-08-10 17:15:48.814499,-83.0
2023-08-10 17:15:48.822190,-114.0
2023-08-10 17:15:48.829880,-109.0
2023-08-10 17:15:48.837570,-97.0
2023-08-10 17:15:48.845261,-102.0
2023-08-10 17:15:48.852951,-97.0
2023-08-10 17:15:48.860641,-88.0
2023-08-10 17:15:48.868331,-85.0
2023-08-10 17:15:48.876022,-88.0
2023-08-10 17:15:48.883712,-92.0
2023-08-10 17:15:48.891402,-99.0
2023-08-10 17:15:48.899093,-76.0
2023-08-10 17:15:48.906783,104.0
2023-08-10 17:15:48.914473,492.0
2023-08-10 17:15:48.922164,885.0
2023-08-10 17:15:48.929854,945.0
2023-08-10 17:15:48.937544,426.0
2023-08-10 17:15:48.945235,-204.0
2023-08-10 17:15:48.952925,-185.0
2023-08-10 17:15:48.960615,66.0
2023-08-10 17:15:48.968306,-49.0
2023-08-10 17:15:48.975996,-161.0
2023-08-10 17:15:48.983686,-80.0
2023-08-10 17:15:48.991376,-73.0
2023-08-10 17:15:48.999067,-111.0
2023-08-10 17:15:49.006757,-85.0
2023-08-10 17:15:49.014447,-66.0
2023-08-10 17:15:49.022138,-73.0
2023-08-10 17:15:49.029828,-59.0
2023-08-10 17:15:49.037518,-40.0
2023-08-10 17:15:49.045209,-33.0
2023-08-10 17:15:49.052899,-23.0
2023-08-10 17:15:49.060589,-9.0
2023-08-10 17:15:49.068280,2.0
2023-08-10 17:15:49.075970,21.0
2023-08-10 17:15:49.083660,42.0
2023-08-10 17:15:49.091350,61.0
2023-08-10 17:15:49.099041,83.0
2023-08-10 17:15:49.106731,109.0
2023-08-10 17:15:49.114421,133.0
2023-08-10 17:15:49.122112,161.0
2023-08-10 17:15:49.129802,192.0
2023-08-10 17:15:49.137492,216.0
2023-08-10 17:15:49.145183,233.0
2023-08-10 17:15:49.152873,242.0
2023-08-10 17:15:49.160563,252.0
2023-08-10 17:15:49.168254,252.0
2023-08-10 17:15:49.175944,238.0
2023-08-10 17:15:49.183634,197.0
2023-08-10 17:15:49.191325,138.0
2023-08-10 17:15:49.199015,71.0
2023-08-10 17:15:49.206705,0.0
2023-08-10 17:15:49.214395,-66.0
2023-08-10 17:15:49.222086,-121.0
2023-08-10 17:15:49.229776,-164.0
2023-08-10 17:15:49.237466,-192.0
2023-08-10 17:15:49.245157,-214.0
2023-08-10 17:15:49.252847,-223.0
2023-08-10 17:15:49.260537,-226.0
2023-08-10 17:15:49.268228,-223.0
2023-08-10 17:15:49.275918,-221.0
2023-08-10 17:15:49.283608,-216.0
2023-08-10 17:15:49.291299,-209.0
2023-08-10 17:15:49.298989,-199.0
2023-08-10 17:15:49.306679,-192.0
2023-08-10 17:15:49.314369,-188.0
2023-08-10 17:15:49.322060,-183.0
2023-08-10 17:15:49.329750,-176.0
2023-08-10 17:15:49.337440,-169.0
2023-08-10 17:15:49.345131,-169.0
2023-08-10 17:15:49.352821,-164.0
2023-08-10 17:15:49.360511,-157.0
2023-08-10 17:15:49.368202,-159.0
2023-08-10 17:15:49.375892,-161.0
2023-08-10 17:15:49.383582,-159.0
2023-08-10 17:15:49.391273,-157.0
2023-08-10 17:15:49.398963,-152.0
2023-08-10 17:15:49.406653,-152.0
2023-08-10 17:15:49.414343,-152.0
2023-08-10 17:15:49.422034,-147.0
2023-08-10 17:15:49.429724,-145.0
2023-08-10 17:15:49.437414,-147.0
2023-08-10 17:15:49.445105,-145.0
2023-08-10 17:15:49.452795,-140.0
2023-08-10 17:15:49.460485,-140.0
2023-08-10 17:15:49.468176,-135.0
2023-08-10 17:15:49.475866,-130.0
2023-08-10 17:15:49.483556,-130.0
2023-08-10 17:15:49.491247,-130.0
2023-08-10 17:15:49.498937,-128.0
2023-08-10 17:15:49.506627,-128.0
2023-08-10 17:15:49.514318,-126.0
2023-08-10 17:15:49.522008,-123.0
2023-08-10 17:15:49.529698,-121.0
2023-08-10 17:15:49.537388,-116.0
2023-08-10 17:15:49.545079,-116.0
2023-08-10 17:15:49.552769,-114.0
2023-08-10 17:15:49.560459,-109.0
2023-08-10 17:15:49.568150,-107.0
2023-08-10 17:15:49.575840,-107.0
2023-08-10 17:15:49.583530,-102.0
2023-08-10 17:15:49.591221,-99.0
2023-08-10 17:15:49.598911,-99.0
2023-08-10 17:15:49.606601,-97.0
2023-08-10 17:15:49.614292,-95.0
2023-08-10 17:15:49.621982,-97.0
2023-08-10 17:15:49.629672,-97.0
2023-08-10 17:15:49.637362,-97.0
2023-08-10 17:15:49.645053,-99.0
2023-08-10 17:15:49.652743,-99.0
2023-08-10 17:15:49.660433,-99.0
2023-08-10 17:15:49.668124,-95.0
2023-08-10 17:15:49.675814,-90.0
2023-08-10 17:15:49.683504,-78.0
2023-08-10 17:15:49.691195,-59.0
2023-08-10 17:15:49.698885,-45.0
2023-08-10 17:15:49.706575,-57.0
2023-08-10 17:15:49.714266,-78.0
2023-08-10 17:15:49.721956,-71.0
2023-08-10 17:15:49.729646,-54.0
2023-08-10 17:15:49.737337,-80.0
2023-08-10 17:15:49.745027,-107.0
2023-08-10 17:15:49.752717,-99.0
2023-08-10 17:15:49.760407,-92.0
2023-08-10 17:15:49.768098,-97.0
2023-08-10 17:15:49.775788,-95.0
2023-08-10 17:15:49.783478,-90.0
2023-08-10 17:15:49.791169,-90.0
2023-08-10 17:15:49.798859,-85.0
2023-08-10 17:15:49.806549,-85.0
2023-08-10 17:15:49.814240,-95.0
2023-08-10 17:15:49.821930,-57.0
2023-08-10 17:15:49.829620,145.0
2023-08-10 17:15:49.837311,528.0
2023-08-10 17:15:49.845001,885.0
2023-08-10 17:15:49.852691,890.0
2023-08-10 17:15:49.860381,340.0
2023-08-10 17:15:49.868072,-207.0
2023-08-10 17:15:49.875762,-121.0
2023-08-10 17:15:49.883452,61.0
2023-08-10 17:15:49.891143,-88.0
2023-08-10 17:15:49.898833,-161.0
2023-08-10 17:15:49.906523,-92.0
2023-08-10 17:15:49.914214,-107.0
2023-08-10 17:15:49.921904,-133.0
2023-08-10 17:15:49.929594,-102.0
2023-08-10 17:15:49.937285,-85.0
2023-08-10 17:15:49.944975,-92.0
2023-08-10 17:15:49.952665,-80.0
2023-08-10 17:15:49.960355,-64.0
2023-08-10 17:15:49.968046,-52.0
2023-08-10 17:15:49.975736,-40.0
2023-08-10 17:15:49.983426,-26.0
2023-08-10 17:15:49.991117,-14.0
2023-08-10 17:15:49.998807,0.0
2023-08-10 17:15:50.006497,19.0
2023-08-10 17:15:50.014188,42.0
2023-08-10 17:15:50.021878,69.0
2023-08-10 17:15:50.029568,92.0
2023-08-10 17:15:50.037259,119.0
2023-08-10 17:15:50.044949,145.0
2023-08-10 17:15:50.052639,173.0
2023-08-10 17:15:50.060330,199.0
2023-08-10 17:15:50.068020,221.0
2023-08-10 17:15:50.075710,235.0
2023-08-10 17:15:50.083400,240.0
2023-08-10 17:15:50.091091,235.0
2023-08-10 17:15:50.098781,216.0
2023-08-10 17:15:50.106471,178.0
2023-08-10 17:15:50.114162,121.0
2023-08-10 17:15:50.121852,49.0
2023-08-10 17:15:50.129542,-23.0
2023-08-10 17:15:50.137233,-88.0
2023-08-10 17:15:50.144923,-138.0
2023-08-10 17:15:50.152613,-176.0
2023-08-10 17:15:50.160304,-204.0
2023-08-10 17:15:50.167994,-221.0
2023-08-10 17:15:50.175684,-230.0
2023-08-10 17:15:50.183374,-233.0
2023-08-10 17:15:50.191065,-228.0
2023-08-10 17:15:50.198755,-226.0
2023-08-10 17:15:50.206445,-221.0
2023-08-10 17:15:50.214136,-211.0
2023-08-10 17:15:50.221826,-204.0
2023-08-10 17:15:50.229516,-199.0
2023-08-10 17:15:50.237207,-190.0
2023-08-10 17:15:50.244897,-183.0
2023-08-10 17:15:50.252587,-178.0
2023-08-10 17:15:50.260278,-171.0
2023-08-10 17:15:50.267968,-166.0
2023-08-10 17:15:50.275658,-164.0
2023-08-10 17:15:50.283349,-157.0
2023-08-10 17:15:50.291039,-152.0
2023-08-10 17:15:50.298729,-149.0
2023-08-10 17:15:50.306419,-145.0
2023-08-10 17:15:50.314110,-142.0
2023-08-10 17:15:50.321800,-142.0
2023-08-10 17:15:50.329490,-140.0
2023-08-10 17:15:50.337181,-135.0
2023-08-10 17:15:50.344871,-135.0
2023-08-10 17:15:50.352561,-135.0
2023-08-10 17:15:50.360252,-135.0
2023-08-10 17:15:50.367942,-135.0
2023-08-10 17:15:50.375632,-135.0
2023-08-10 17:15:50.383323,-133.0
2023-08-10 17:15:50.391013,-130.0
2023-08-10 17:15:50.398703,-135.0
2023-08-10 17:15:50.406393,-138.0
2023-08-10 17:15:50.414084,-135.0
2023-08-10 17:15:50.421774,-130.0
2023-08-10 17:15:50.429464,-128.0
2023-08-10 17:15:50.437155,-126.0
2023-08-10 17:15:50.444845,-123.0
2023-08-10 17:15:50.452535,-121.0
2023-08-10 17:15:50.460226,-119.0
2023-08-10 17:15:50.467916,-116.0
2023-08-10 17:15:50.475606,-114.0
2023-08-10 17:15:50.483297,-114.0
2023-08-10 17:15:50.490987,-116.0
2023-08-10 17:15:50.498677,-121.0
2023-08-10 17:15:50.506367,-119.0
2023-08-10 17:15:50.514058,-114.0
2023-08-10 17:15:50.521748,-111.0
2023-08-10 17:15:50.529438,-109.0
2023-08-10 17:15:50.537129,-111.0
2023-08-10 17:15:50.544819,-116.0
2023-08-10 17:15:50.552509,-114.0
2023-08-10 17:15:50.560200,-109.0
2023-08-10 17:15:50.567890,-107.0
2023-08-10 17:15:50.575580,-102.0
2023-08-10 17:15:50.583271,-102.0
2023-08-10 17:15:50.590961,-99.0
2023-08-10 17:15:50.598651,-97.0
2023-08-10 17:15:50.606342,-97.0
2023-08-10 17:15:50.614032,-97.0
2023-08-10 17:15:50.621722,-90.0
2023-08-10 17:15:50.629412,-78.0
2023-08-10 17:15:50.637103,-64.0
2023-08-10 17:15:50.644793,-54.0
2023-08-10 17:15:50.652483,-66.0
2023-08-10 17:15:50.660174,-83.0
2023-08-10 17:15:50.667864,-69.0
2023-08-10 17:15:50.675554,-59.0
2023-08-10 17:15:50.683245,-92.0
2023-08-10 17:15:50.690935,-114.0
2023-08-10 17:15:50.698625,-102.0
2023-08-10 17:15:50.706316,-95.0
2023-08-10 17:15:50.714006,-99.0
2023-08-10 17:15:50.721696,-97.0
2023-08-10 17:15:50.729386,-97.0
2023-08-10 17:15:50.737077,-95.0
2023-08-10 17:15:50.744767,-88.0
2023-08-10 17:15:50.752457,-85.0
2023-08-10 17:15:50.760148,-92.0
2023-08-10 17:15:50.767838,-47.0
2023-08-10 17:15:50.775528,169.0
2023-08-10 17:15:50.783219,557.0
2023-08-10 17:15:50.790909,899.0
2023-08-10 17:15:50.798599,852.0
2023-08-10 17:15:50.806290,266.0
2023-08-10 17:15:50.813980,-221.0
2023-08-10 17:15:50.821670,-88.0
2023-08-10 17:15:50.829361,66.0
2023-08-10 17:15:50.837051,-90.0
2023-08-10 17:15:50.844741,-138.0
2023-08-10 17:15:50.852431,-69.0
2023-08-10 17:15:50.860122,-90.0
2023-08-10 17:15:50.867812,-111.0
2023-08-10 17:15:50.875502,-80.0
2023-08-10 17:15:50.883193,-69.0
2023-08-10 17:15:50.890883,-73.0
2023-08-10 17:15:50.898573,-59.0
2023-08-10 17:15:50.906264,-49.0
2023-08-10 17:15:50.913954,-42.0
2023-08-10 17:15:50.921644,-26.0
2023-08-10 17:15:50.929335,-11.0
2023-08-10 17:15:50.937025,0.0
2023-08-10 17:15:50.944715,16.0
2023-08-10 17:15:50.952405,35.0
2023-08-10 17:15:50.960096,57.0
2023-08-10 17:15:50.967786,80.0
2023-08-10 17:15:50.975476,104.0
2023-08-10 17:15:50.983167,130.0
2023-08-10 17:15:50.990857,157.0
2023-08-10 17:15:50.998547,180.0
2023-08-10 17:15:51.006238,207.0
2023-08-10 17:15:51.013928,228.0
2023-08-10 17:15:51.021618,242.0
2023-08-10 17:15:51.029309,242.0
2023-08-10 17:15:51.036999,230.0
2023-08-10 17:15:51.044689,211.0
2023-08-10 17:15:51.052379,173.0
2023-08-10 17:15:51.060070,116.0
2023-08-10 17:15:51.067760,47.0
2023-08-10 17:15:51.075450,-21.0
2023-08-10 17:15:51.083141,-85.0
2023-08-10 17:15:51.090831,-133.0
2023-08-10 17:15:51.098521,-171.0
2023-08-10 17:15:51.106212,-202.0
2023-08-10 17:15:51.113902,-223.0
2023-08-10 17:15:51.121592,-230.0
2023-08-10 17:15:51.129283,-233.0
2023-08-10 17:15:51.136973,-230.0
2023-08-10 17:15:51.144663,-223.0
2023-08-10 17:15:51.152354,-214.0
2023-08-10 17:15:51.160044,-209.0
2023-08-10 17:15:51.167734,-207.0
2023-08-10 17:15:51.175424,-204.0
2023-08-10 17:15:51.183115,-195.0
2023-08-10 17:15:51.190805,-185.0
2023-08-10 17:15:51.198495,-176.0
2023-08-10 17:15:51.206186,-169.0
2023-08-10 17:15:51.213876,-164.0
2023-08-10 17:15:51.221566,-166.0
2023-08-10 17:15:51.229257,-169.0
2023-08-10 17:15:51.236947,-161.0
2023-08-10 17:15:51.244637,-154.0
2023-08-10 17:15:51.252328,-154.0
2023-08-10 17:15:51.260018,-154.0
2023-08-10 17:15:51.267708,-149.0
2023-08-10 17:15:51.275398,-142.0
2023-08-10 17:15:51.283089,-142.0
2023-08-10 17:15:51.290779,-145.0
2023-08-10 17:15:51.298469,-142.0
2023-08-10 17:15:51.306160,-145.0
2023-08-10 17:15:51.313850,-147.0
2023-08-10 17:15:51.321540,-145.0
2023-08-10 17:15:51.329231,-142.0
2023-08-10 17:15:51.336921,-140.0
2023-08-10 17:15:51.344611,-133.0
2023-08-10 17:15:51.352302,-130.0
2023-08-10 17:15:51.359992,-133.0
2023-08-10 17:15:51.367682,-130.0
2023-08-10 17:15:51.375373,-130.0
2023-08-10 17:15:51.383063,-130.0
2023-08-10 17:15:51.390753,-126.0
2023-08-10 17:15:51.398443,-126.0
2023-08-10 17:15:51.406134,-130.0
2023-08-10 17:15:51.413824,-130.0
2023-08-10 17:15:51.421514,-126.0
2023-08-10 17:15:51.429205,-123.0
2023-08-10 17:15:51.436895,-119.0
2023-08-10 17:15:51.444585,-114.0
2023-08-10 17:15:51.452276,-111.0
2023-08-10 17:15:51.459966,-116.0
2023-08-10 17:15:51.467656,-116.0
2023-08-10 17:15:51.475347,-114.0
2023-08-10 17:15:51.483037,-114.0
2023-08-10 17:15:51.490727,-116.0
2023-08-10 17:15:51.498417,-111.0
2023-08-10 17:15:51.506108,-107.0
2023-08-10 17:15:51.513798,-102.0
2023-08-10 17:15:51.521488,-102.0
2023-08-10 17:15:51.529179,-104.0
2023-08-10 17:15:51.536869,-104.0
2023-08-10 17:15:51.544559,-102.0
2023-08-10 17:15:51.552250,-99.0
2023-08-10 17:15:51.559940,-97.0
2023-08-10 17:15:51.567630,-97.0
2023-08-10 17:15:51.575321,-107.0
2023-08-10 17:15:51.583011,-107.0
2023-08-10 17:15:51.590701,-83.0
2023-08-10 17:15:51.598391,-59.0
2023-08-10 17:15:51.606082,-59.0
2023-08-10 17:15:51.613772,-80.0
2023-08-10 17:15:51.621462,-99.0
2023-08-10 17:15:51.629153,-92.0
2023-08-10 17:15:51.636843,-78.0
2023-08-10 17:15:51.644533,-97.0
2023-08-10 17:15:51.652224,-126.0
2023-08-10 17:15:51.659914,-119.0
2023-08-10 17:15:51.667604,-99.0
2023-08-10 17:15:51.675295,-107.0
2023-08-10 17:15:51.682985,-128.0
2023-08-10 17:15:51.690675,-119.0
2023-08-10 17:15:51.698366,-92.0
2023-08-10 17:15:51.706056,-88.0
2023-08-10 17:15:51.713746,-97.0
2023-08-10 17:15:51.721436,-102.0
2023-08-10 17:15:51.729127,-45.0
2023-08-10 17:15:51.736817,199.0
2023-08-10 17:15:51.744507,633.0
2023-08-10 17:15:51.752198,983.0
2023-08-10 17:15:51.759888,856.0
2023-08-10 17:15:51.767578,161.0
2023-08-10 17:15:51.775269,-357.0
2023-08-10 17:15:51.782959,-140.0
2023-08-10 17:15:51.790649,76.0
2023-08-10 17:15:51.798340,-104.0
2023-08-10 17:15:51.806030,-159.0
2023-08-10 17:15:51.813720,-64.0
2023-08-10 17:15:51.821410,-88.0
2023-08-10 17:15:51.829101,-121.0
2023-08-10 17:15:51.836791,-88.0
2023-08-10 17:15:51.844481,-73.0
2023-08-10 17:15:51.852172,-83.0
2023-08-10 17:15:51.859862,-69.0
2023-08-10 17:15:51.867552,-42.0
2023-08-10 17:15:51.875243,-33.0
2023-08-10 17:15:51.882933,-26.0
2023-08-10 17:15:51.890623,-4.0
2023-08-10 17:15:51.898314,16.0
2023-08-10 17:15:51.906004,30.0
2023-08-10 17:15:51.913694,38.0
2023-08-10 17:15:51.921385,61.0
2023-08-10 17:15:51.929075,95.0
2023-08-10 17:15:51.936765,121.0
2023-08-10 17:15:51.944455,152.0
2023-08-10 17:15:51.952146,188.0
2023-08-10 17:15:51.959836,221.0
2023-08-10 17:15:51.967526,247.0
2023-08-10 17:15:51.975217,266.0
2023-08-10 17:15:51.982907,285.0
2023-08-10 17:15:51.990597,299.0
2023-08-10 17:15:51.998288,304.0
2023-08-10 17:15:52.005978,285.0
2023-08-10 17:15:52.013668,235.0
2023-08-10 17:15:52.021359,161.0
2023-08-10 17:15:52.029049,78.0
2023-08-10 17:15:52.036739,-7.0
2023-08-10 17:15:52.044429,-80.0
2023-08-10 17:15:52.052120,-138.0
2023-08-10 17:15:52.059810,-190.0
2023-08-10 17:15:52.067500,-233.0
2023-08-10 17:15:52.075191,-247.0
2023-08-10 17:15:52.082881,-252.0
2023-08-10 17:15:52.090571,-254.0
2023-08-10 17:15:52.098262,-257.0
2023-08-10 17:15:52.105952,-254.0
2023-08-10 17:15:52.113642,-254.0
2023-08-10 17:15:52.121333,-257.0
2023-08-10 17:15:52.129023,-252.0
2023-08-10 17:15:52.136713,-235.0
2023-08-10 17:15:52.144403,-218.0
2023-08-10 17:15:52.152094,-214.0
2023-08-10 17:15:52.159784,-214.0
2023-08-10 17:15:52.167474,-207.0
2023-08-10 17:15:52.175165,-204.0
2023-08-10 17:15:52.182855,-195.0
2023-08-10 17:15:52.190545,-183.0
2023-08-10 17:15:52.198236,-188.0
2023-08-10 17:15:52.205926,-192.0
2023-08-10 17:15:52.213616,-183.0
2023-08-10 17:15:52.221307,-183.0
2023-08-10 17:15:52.228997,-183.0
2023-08-10 17:15:52.236687,-173.0
2023-08-10 17:15:52.244378,-176.0
2023-08-10 17:15:52.252068,-176.0
2023-08-10 17:15:52.259758,-166.0
2023-08-10 17:15:52.267448,-164.0
2023-08-10 17:15:52.275139,-166.0
2023-08-10 17:15:52.282829,-164.0
2023-08-10 17:15:52.290519,-159.0
2023-08-10 17:15:52.298210,-154.0
2023-08-10 17:15:52.305900,-154.0
2023-08-10 17:15:52.313590,-161.0
2023-08-10 17:15:52.321281,-157.0
2023-08-10 17:15:52.328971,-140.0
2023-08-10 17:15:52.336661,-135.0
2023-08-10 17:15:52.344352,-147.0
2023-08-10 17:15:52.352042,-145.0
2023-08-10 17:15:52.359732,-135.0
2023-08-10 17:15:52.367422,-135.0
2023-08-10 17:15:52.375113,-138.0
2023-08-10 17:15:52.382803,-138.0
2023-08-10 17:15:52.390493,-138.0
2023-08-10 17:15:52.398184,-135.0
2023-08-10 17:15:52.405874,-130.0
2023-08-10 17:15:52.413564,-130.0
2023-08-10 17:15:52.421255,-135.0
2023-08-10 17:15:52.428945,-142.0
2023-08-10 17:15:52.436635,-135.0
2023-08-10 17:15:52.444326,-123.0
2023-08-10 17:15:52.452016,-107.0
2023-08-10 17:15:52.459706,-83.0
2023-08-10 17:15:52.467397,-66.0
2023-08-10 17:15:52.475087,-80.0
2023-08-10 17:15:52.482777,-104.0
2023-08-10 17:15:52.490467,-97.0
2023-08-10 17:15:52.498158,-78.0
2023-08-10 17:15:52.505848,-102.0
2023-08-10 17:15:52.513538,-138.0
2023-08-10 17:15:52.521229,-135.0
2023-08-10 17:15:52.528919,-126.0
2023-08-10 17:15:52.536609,-126.0
2023-08-10 17:15:52.544300,-128.0
2023-08-10 17:15:52.551990,-128.0
2023-08-10 17:15:52.559680,-123.0
2023-08-10 17:15:52.567371,-114.0
2023-08-10 17:15:52.575061,-116.0
2023-08-10 17:15:52.582751,-123.0
2023-08-10 17:15:52.590441,-85.0
2023-08-10 17:15:52.598132,116.0
2023-08-10 17:15:52.605822,535.0
2023-08-10 17:15:52.613512,921.0
2023-08-10 17:15:52.621203,890.0
2023-08-10 17:15:52.628893,288.0
2023-08-10 17:15:52.636583,-333.0
2023-08-10 17:15:52.644274,-247.0
2023-08-10 17:15:52.651964,52.0
2023-08-10 17:15:52.659654,-66.0
2023-08-10 17:15:52.667345,-180.0
2023-08-10 17:15:52.675035,-92.0
2023-08-10 17:15:52.682725,-85.0
2023-08-10 17:15:52.690415,-126.0
2023-08-10 17:15:52.698106,-97.0
2023-08-10 17:15:52.705796,-78.0
2023-08-10 17:15:52.713486,-88.0
2023-08-10 17:15:52.721177,-73.0
2023-08-10 17:15:52.728867,-57.0
2023-08-10 17:15:52.736557,-49.0
2023-08-10 17:15:52.744248,-40.0
2023-08-10 17:15:52.751938,-28.0
2023-08-10 17:15:52.759628,-11.0
2023-08-10 17:15:52.767319,7.0
2023-08-10 17:15:52.775009,23.0
2023-08-10 17:15:52.782699,47.0
2023-08-10 17:15:52.790390,71.0
2023-08-10 17:15:52.798080,95.0
2023-08-10 17:15:52.805770,128.0
2023-08-10 17:15:52.813460,161.0
2023-08-10 17:15:52.821151,190.0
2023-08-10 17:15:52.828841,209.0
2023-08-10 17:15:52.836531,226.0
2023-08-10 17:15:52.844222,245.0
2023-08-10 17:15:52.851912,257.0
2023-08-10 17:15:52.859602,249.0
2023-08-10 17:15:52.867293,228.0
2023-08-10 17:15:52.874983,185.0
2023-08-10 17:15:52.882673,119.0
2023-08-10 17:15:52.890364,42.0
2023-08-10 17:15:52.898054,-30.0
2023-08-10 17:15:52.905744,-99.0
2023-08-10 17:15:52.913434,-154.0
2023-08-10 17:15:52.921125,-199.0
2023-08-10 17:15:52.928815,-235.0
2023-08-10 17:15:52.936505,-249.0
2023-08-10 17:15:52.944196,-257.0
2023-08-10 17:15:52.951886,-259.0
2023-08-10 17:15:52.959576,-252.0
2023-08-10 17:15:52.967267,-245.0
2023-08-10 17:15:52.974957,-242.0
2023-08-10 17:15:52.982647,-235.0
2023-08-10 17:15:52.990338,-226.0
2023-08-10 17:15:52.998028,-218.0
2023-08-10 17:15:53.005718,-214.0
2023-08-10 17:15:53.013409,-204.0
2023-08-10 17:15:53.021099,-195.0
2023-08-10 17:15:53.028789,-185.0
2023-08-10 17:15:53.036479,-180.0
2023-08-10 17:15:53.044170,-178.0
2023-08-10 17:15:53.051860,-176.0
2023-08-10 17:15:53.059550,-173.0
2023-08-10 17:15:53.067241,-171.0
2023-08-10 17:15:53.074931,-169.0
2023-08-10 17:15:53.082621,-166.0
2023-08-10 17:15:53.090312,-164.0
2023-08-10 17:15:53.098002,-161.0
2023-08-10 17:15:53.105692,-164.0
2023-08-10 17:15:53.113383,-161.0
2023-08-10 17:15:53.121073,-157.0
2023-08-10 17:15:53.128763,-154.0
2023-08-10 17:15:53.136453,-154.0
2023-08-10 17:15:53.144144,-149.0
2023-08-10 17:15:53.151834,-145.0
2023-08-10 17:15:53.159524,-142.0
2023-08-10 17:15:53.167215,-138.0
2023-08-10 17:15:53.174905,-133.0
2023-08-10 17:15:53.182595,-133.0
2023-08-10 17:15:53.190286,-128.0
2023-08-10 17:15:53.197976,-126.0
2023-08-10 17:15:53.205666,-121.0
2023-08-10 17:15:53.213357,-119.0
2023-08-10 17:15:53.221047,-119.0
2023-08-10 17:15:53.228737,-116.0
2023-08-10 17:15:53.236427,-109.0
2023-08-10 17:15:53.244118,-107.0
2023-08-10 17:15:53.251808,-109.0
2023-08-10 17:15:53.259498,-104.0
2023-08-10 17:15:53.267189,-102.0
2023-08-10 17:15:53.274879,-102.0
2023-08-10 17:15:53.282569,-107.0
2023-08-10 17:15:53.290260,-111.0
2023-08-10 17:15:53.297950,-107.0
2023-08-10 17:15:53.305640,-95.0
2023-08-10 17:15:53.313331,-80.0
2023-08-10 17:15:53.321021,-66.0
2023-08-10 17:15:53.328711,-64.0
2023-08-10 17:15:53.336402,-88.0
2023-08-10 17:15:53.344092,-90.0
2023-08-10 17:15:53.351782,-69.0
2023-08-10 17:15:53.359472,-76.0
2023-08-10 17:15:53.367163,-109.0
2023-08-10 17:15:53.374853,-116.0
2023-08-10 17:15:53.382543,-102.0
2023-08-10 17:15:53.390234,-102.0
2023-08-10 17:15:53.397924,-104.0
2023-08-10 17:15:53.405614,-97.0
2023-08-10 17:15:53.413305,-92.0
2023-08-10 17:15:53.420995,-92.0
2023-08-10 17:15:53.428685,-97.0
2023-08-10 17:15:53.436376,-104.0
2023-08-10 17:15:53.444066,-88.0
2023-08-10 17:15:53.451756,59.0
2023-08-10 17:15:53.459446,416.0
2023-08-10 17:15:53.467137,821.0
2023-08-10 17:15:53.474827,940.0
2023-08-10 17:15:53.482517,504.0
2023-08-10 17:15:53.490208,-152.0
2023-08-10 17:15:53.497898,-230.0
2023-08-10 17:15:53.505588,35.0
2023-08-10 17:15:53.513279,-35.0
2023-08-10 17:15:53.520969,-169.0
2023-08-10 17:15:53.528659,-102.0
2023-08-10 17:15:53.536350,-83.0
2023-08-10 17:15:53.544040,-123.0
2023-08-10 17:15:53.551730,-104.0
2023-08-10 17:15:53.559421,-80.0
2023-08-10 17:15:53.567111,-88.0
2023-08-10 17:15:53.574801,-80.0
2023-08-10 17:15:53.582491,-61.0
2023-08-10 17:15:53.590182,-52.0
2023-08-10 17:15:53.597872,-42.0
2023-08-10 17:15:53.605562,-28.0
2023-08-10 17:15:53.613253,-14.0
2023-08-10 17:15:53.620943,2.0
2023-08-10 17:15:53.628633,21.0
2023-08-10 17:15:53.636324,38.0
2023-08-10 17:15:53.644014,61.0
2023-08-10 17:15:53.651704,90.0
2023-08-10 17:15:53.659395,116.0
2023-08-10 17:15:53.667085,145.0
2023-08-10 17:15:53.674775,171.0
2023-08-10 17:15:53.682465,192.0
2023-08-10 17:15:53.690156,211.0
2023-08-10 17:15:53.697846,228.0
2023-08-10 17:15:53.705536,240.0
2023-08-10 17:15:53.713227,238.0
2023-08-10 17:15:53.720917,221.0
2023-08-10 17:15:53.728607,188.0
2023-08-10 17:15:53.736298,133.0
2023-08-10 17:15:53.743988,61.0
2023-08-10 17:15:53.751678,-7.0
2023-08-10 17:15:53.759369,-69.0
2023-08-10 17:15:53.767059,-121.0
2023-08-10 17:15:53.774749,-164.0
2023-08-10 17:15:53.782439,-192.0
2023-08-10 17:15:53.790130,-209.0
2023-08-10 17:15:53.797820,-216.0
2023-08-10 17:15:53.805510,-218.0
2023-08-10 17:15:53.813201,-221.0
2023-08-10 17:15:53.820891,-226.0
2023-08-10 17:15:53.828581,-228.0
2023-08-10 17:15:53.836272,-218.0
2023-08-10 17:15:53.843962,-209.0
2023-08-10 17:15:53.851652,-202.0
2023-08-10 17:15:53.859343,-195.0
2023-08-10 17:15:53.867033,-190.0
2023-08-10 17:15:53.874723,-185.0
2023-08-10 17:15:53.882414,-178.0
2023-08-10 17:15:53.890104,-169.0
2023-08-10 17:15:53.897794,-164.0
2023-08-10 17:15:53.905484,-157.0
2023-08-10 17:15:53.913175,-152.0
2023-08-10 17:15:53.920865,-154.0
2023-08-10 17:15:53.928555,-152.0
2023-08-10 17:15:53.936246,-152.0
2023-08-10 17:15:53.943936,-149.0
2023-08-10 17:15:53.951626,-147.0
2023-08-10 17:15:53.959317,-145.0
2023-08-10 17:15:53.967007,-147.0
2023-08-10 17:15:53.974697,-145.0
2023-08-10 17:15:53.982388,-140.0
2023-08-10 17:15:53.990078,-138.0
2023-08-10 17:15:53.997768,-135.0
2023-08-10 17:15:54.005458,-135.0
2023-08-10 17:15:54.013149,-133.0
2023-08-10 17:15:54.020839,-126.0
2023-08-10 17:15:54.028529,-123.0
2023-08-10 17:15:54.036220,-123.0
2023-08-10 17:15:54.043910,-121.0
2023-08-10 17:15:54.051600,-119.0
2023-08-10 17:15:54.059291,-116.0
2023-08-10 17:15:54.066981,-114.0
2023-08-10 17:15:54.074671,-111.0
2023-08-10 17:15:54.082362,-107.0
2023-08-10 17:15:54.090052,-109.0
2023-08-10 17:15:54.097742,-109.0
2023-08-10 17:15:54.105433,-104.0
2023-08-10 17:15:54.113123,-102.0
2023-08-10 17:15:54.120813,-97.0
2023-08-10 17:15:54.128503,-95.0
2023-08-10 17:15:54.136194,-95.0
2023-08-10 17:15:54.143884,-95.0
2023-08-10 17:15:54.151574,-92.0
2023-08-10 17:15:54.159265,-85.0
2023-08-10 17:15:54.166955,-71.0
2023-08-10 17:15:54.174645,-57.0
2023-08-10 17:15:54.182336,-42.0
2023-08-10 17:15:54.190026,-42.0
2023-08-10 17:15:54.197716,-61.0
2023-08-10 17:15:54.205407,-69.0
2023-08-10 17:15:54.213097,-49.0
2023-08-10 17:15:54.220787,-45.0
2023-08-10 17:15:54.228477,-80.0
2023-08-10 17:15:54.236168,-97.0
2023-08-10 17:15:54.243858,-85.0
2023-08-10 17:15:54.251548,-80.0
2023-08-10 17:15:54.259239,-85.0
2023-08-10 17:15:54.266929,-83.0
2023-08-10 17:15:54.274619,-80.0
2023-08-10 17:15:54.282310,-78.0
2023-08-10 17:15:54.290000,-76.0
2023-08-10 17:15:54.297690,-80.0
2023-08-10 17:15:54.305381,-76.0
2023-08-10 17:15:54.313071,38.0
2023-08-10 17:15:54.320761,357.0
2023-08-10 17:15:54.328451,768.0
2023-08-10 17:15:54.336142,978.0
2023-08-10 17:15:54.343832,652.0
2023-08-10 17:15:54.351522,-28.0
2023-08-10 17:15:54.359213,-230.0
2023-08-10 17:15:54.366903,26.0
2023-08-10 17:15:54.374593,7.0
2023-08-10 17:15:54.382284,-154.0
2023-08-10 17:15:54.389974,-107.0
2023-08-10 17:15:54.397664,-66.0
2023-08-10 17:15:54.405355,-116.0
2023-08-10 17:15:54.413045,-114.0
2023-08-10 17:15:54.420735,-85.0
2023-08-10 17:15:54.428426,-88.0
2023-08-10 17:15:54.436116,-88.0
2023-08-10 17:15:54.443806,-71.0
2023-08-10 17:15:54.451496,-61.0
2023-08-10 17:15:54.459187,-54.0
2023-08-10 17:15:54.466877,-40.0
2023-08-10 17:15:54.474567,-23.0
2023-08-10 17:15:54.482258,-7.0
2023-08-10 17:15:54.489948,14.0
2023-08-10 17:15:54.497638,35.0
2023-08-10 17:15:54.505329,57.0
2023-08-10 17:15:54.513019,83.0
2023-08-10 17:15:54.520709,111.0
2023-08-10 17:15:54.528400,140.0
2023-08-10 17:15:54.536090,166.0
2023-08-10 17:15:54.543780,192.0
2023-08-10 17:15:54.551470,214.0
2023-08-10 17:15:54.559161,226.0
2023-08-10 17:15:54.566851,235.0
2023-08-10 17:15:54.574541,240.0
2023-08-10 17:15:54.582232,226.0
2023-08-10 17:15:54.589922,192.0
2023-08-10 17:15:54.597612,142.0
2023-08-10 17:15:54.605303,76.0
2023-08-10 17:15:54.612993,4.0
2023-08-10 17:15:54.620683,-59.0
2023-08-10 17:15:54.628374,-114.0
2023-08-10 17:15:54.636064,-159.0
2023-08-10 17:15:54.643754,-190.0
2023-08-10 17:15:54.651445,-207.0
2023-08-10 17:15:54.659135,-218.0
2023-08-10 17:15:54.666825,-223.0
2023-08-10 17:15:54.674515,-223.0
2023-08-10 17:15:54.682206,-218.0
2023-08-10 17:15:54.689896,-211.0
2023-08-10 17:15:54.697586,-207.0
2023-08-10 17:15:54.705277,-199.0
2023-08-10 17:15:54.712967,-192.0
2023-08-10 17:15:54.720657,-188.0
2023-08-10 17:15:54.728348,-180.0
2023-08-10 17:15:54.736038,-173.0
2023-08-10 17:15:54.743728,-169.0
2023-08-10 17:15:54.751419,-164.0
2023-08-10 17:15:54.759109,-154.0
2023-08-10 17:15:54.766799,-149.0
2023-08-10 17:15:54.774489,-149.0
2023-08-10 17:15:54.782180,-147.0
2023-08-10 17:15:54.789870,-145.0
2023-08-10 17:15:54.797560,-142.0
2023-08-10 17:15:54.805251,-145.0
2023-08-10 17:15:54.812941,-145.0
2023-08-10 17:15:54.820631,-140.0
2023-08-10 17:15:54.828322,-138.0
2023-08-10 17:15:54.836012,-138.0
2023-08-10 17:15:54.843702,-135.0
2023-08-10 17:15:54.851393,-130.0
2023-08-10 17:15:54.859083,-130.0
2023-08-10 17:15:54.866773,-133.0
2023-08-10 17:15:54.874463,-130.0
2023-08-10 17:15:54.882154,-130.0
2023-08-10 17:15:54.889844,-126.0
2023-08-10 17:15:54.897534,-119.0
2023-08-10 17:15:54.905225,-119.0
2023-08-10 17:15:54.912915,-119.0
2023-08-10 17:15:54.920605,-116.0
2023-08-10 17:15:54.928296,-116.0
2023-08-10 17:15:54.935986,-116.0
2023-08-10 17:15:54.943676,-119.0
2023-08-10 17:15:54.951367,-123.0
2023-08-10 17:15:54.959057,-121.0
2023-08-10 17:15:54.966747,-116.0
2023-08-10 17:15:54.974438,-116.0
2023-08-10 17:15:54.982128,-114.0
2023-08-10 17:15:54.989818,-116.0
2023-08-10 17:15:54.997508,-126.0
2023-08-10 17:15:55.005199,-121.0
2023-08-10 17:15:55.012889,-107.0
2023-08-10 17:15:55.020579,-109.0
2023-08-10 17:15:55.028270,-114.0
2023-08-10 17:15:55.035960,-104.0
2023-08-10 17:15:55.043650,-90.0
2023-08-10 17:15:55.051341,-78.0
2023-08-10 17:15:55.059031,-69.0
2023-08-10 17:15:55.066721,-78.0
2023-08-10 17:15:55.074412,-97.0
2023-08-10 17:15:55.082102,-88.0
2023-08-10 17:15:55.089792,-71.0
2023-08-10 17:15:55.097482,-95.0
2023-08-10 17:15:55.105173,-123.0
2023-08-10 17:15:55.112863,-116.0
2023-08-10 17:15:55.120553,-104.0
2023-08-10 17:15:55.128244,-109.0
2023-08-10 17:15:55.135934,-109.0
2023-08-10 17:15:55.143624,-102.0
2023-08-10 17:15:55.151315,-95.0
2023-08-10 17:15:55.159005,-92.0
2023-08-10 17:15:55.166695,-95.0
2023-08-10 17:15:55.174386,-107.0
2023-08-10 17:15:55.182076,-76.0
2023-08-10 17:15:55.189766,107.0
2023-08-10 17:15:55.197457,478.0
2023-08-10 17:15:55.205147,871.0
2023-08-10 17:15:55.212837,940.0
2023-08-10 17:15:55.220527,418.0
2023-08-10 17:15:55.228218,-204.0
2023-08-10 17:15:55.235908,-183.0
2023-08-10 17:15:55.243598,59.0
2023-08-10 17:15:55.251289,-57.0
2023-08-10 17:15:55.258979,-166.0
2023-08-10 17:15:55.266669,-88.0
2023-08-10 17:15:55.274360,-83.0
2023-08-10 17:15:55.282050,-126.0
2023-08-10 17:15:55.289740,-99.0
2023-08-10 17:15:55.297431,-78.0
2023-08-10 17:15:55.305121,-80.0
2023-08-10 17:15:55.312811,-71.0
2023-08-10 17:15:55.320501,-54.0
2023-08-10 17:15:55.328192,-47.0
2023-08-10 17:15:55.335882,-38.0
2023-08-10 17:15:55.343572,-16.0
2023-08-10 17:15:55.351263,0.0
2023-08-10 17:15:55.358953,7.0
2023-08-10 17:15:55.366643,19.0
2023-08-10 17:15:55.374334,42.0
2023-08-10 17:15:55.382024,66.0
2023-08-10 17:15:55.389714,88.0
2023-08-10 17:15:55.397405,116.0
2023-08-10 17:15:55.405095,147.0
2023-08-10 17:15:55.412785,178.0
2023-08-10 17:15:55.420475,197.0
2023-08-10 17:15:55.428166,211.0
2023-08-10 17:15:55.435856,233.0
2023-08-10 17:15:55.443546,245.0
2023-08-10 17:15:55.451237,233.0
2023-08-10 17:15:55.458927,216.0
2023-08-10 17:15:55.466617,183.0
2023-08-10 17:15:55.474308,116.0
2023-08-10 17:15:55.481998,38.0
2023-08-10 17:15:55.489688,-28.0
2023-08-10 17:15:55.497379,-97.0
2023-08-10 17:15:55.505069,-152.0
2023-08-10 17:15:55.512759,-190.0
2023-08-10 17:15:55.520450,-218.0
2023-08-10 17:15:55.528140,-238.0
2023-08-10 17:15:55.535830,-245.0
2023-08-10 17:15:55.543520,-249.0
2023-08-10 17:15:55.551211,-247.0
2023-08-10 17:15:55.558901,-238.0
2023-08-10 17:15:55.566591,-233.0
2023-08-10 17:15:55.574282,-233.0
2023-08-10 17:15:55.581972,-221.0
2023-08-10 17:15:55.589662,-207.0
2023-08-10 17:15:55.597353,-202.0
2023-08-10 17:15:55.605043,-199.0
2023-08-10 17:15:55.612733,-190.0
2023-08-10 17:15:55.620424,-180.0
2023-08-10 17:15:55.628114,-180.0
2023-08-10 17:15:55.635804,-176.0
2023-08-10 17:15:55.643494,-164.0
2023-08-10 17:15:55.651185,-161.0
2023-08-10 17:15:55.658875,-164.0
2023-08-10 17:15:55.666565,-161.0
2023-08-10 17:15:55.674256,-152.0
2023-08-10 17:15:55.681946,-149.0
2023-08-10 17:15:55.689636,-154.0
2023-08-10 17:15:55.697327,-157.0
2023-08-10 17:15:55.705017,-147.0
2023-08-10 17:15:55.712707,-142.0
2023-08-10 17:15:55.720398,-142.0
2023-08-10 17:15:55.728088,-147.0
2023-08-10 17:15:55.735778,-145.0
2023-08-10 17:15:55.743469,-135.0
2023-08-10 17:15:55.751159,-133.0
2023-08-10 17:15:55.758849,-133.0
2023-08-10 17:15:55.766539,-128.0
2023-08-10 17:15:55.774230,-126.0
2023-08-10 17:15:55.781920,-123.0
2023-08-10 17:15:55.789610,-123.0
2023-08-10 17:15:55.797301,-123.0
2023-08-10 17:15:55.804991,-121.0
2023-08-10 17:15:55.812681,-116.0
2023-08-10 17:15:55.820372,-116.0
2023-08-10 17:15:55.828062,-114.0
2023-08-10 17:15:55.835752,-107.0
2023-08-10 17:15:55.843443,-109.0
2023-08-10 17:15:55.851133,-109.0
2023-08-10 17:15:55.858823,-104.0
2023-08-10 17:15:55.866513,-99.0
2023-08-10 17:15:55.874204,-99.0
2023-08-10 17:15:55.881894,-95.0
2023-08-10 17:15:55.889584,-95.0
2023-08-10 17:15:55.897275,-95.0
2023-08-10 17:15:55.904965,-85.0
2023-08-10 17:15:55.912655,-66.0
2023-08-10 17:15:55.920346,-47.0
2023-08-10 17:15:55.928036,-40.0
2023-08-10 17:15:55.935726,-57.0
2023-08-10 17:15:55.943417,-73.0
2023-08-10 17:15:55.951107,-61.0
2023-08-10 17:15:55.958797,-57.0
2023-08-10 17:15:55.966487,-85.0
2023-08-10 17:15:55.974178,-102.0
2023-08-10 17:15:55.981868,-90.0
2023-08-10 17:15:55.989558,-83.0
2023-08-10 17:15:55.997249,-88.0
2023-08-10 17:15:56.004939,-85.0
2023-08-10 17:15:56.012629,-78.0
2023-08-10 17:15:56.020320,-78.0
2023-08-10 17:15:56.028010,-76.0
2023-08-10 17:15:56.035700,-78.0
2023-08-10 17:15:56.043391,-76.0
2023-08-10 17:15:56.051081,14.0
2023-08-10 17:15:56.058771,316.0
2023-08-10 17:15:56.066462,756.0
2023-08-10 17:15:56.074152,1014.0
2023-08-10 17:15:56.081842,735.0
2023-08-10 17:15:56.089532,16.0
2023-08-10 17:15:56.097223,-297.0
2023-08-10 17:15:56.104913,-21.0
2023-08-10 17:15:56.112603,47.0
2023-08-10 17:15:56.120294,-142.0
2023-08-10 17:15:56.127984,-133.0
2023-08-10 17:15:56.135674,-66.0
2023-08-10 17:15:56.143365,-107.0
2023-08-10 17:15:56.151055,-111.0
2023-08-10 17:15:56.158745,-76.0
2023-08-10 17:15:56.166436,-73.0
2023-08-10 17:15:56.174126,-78.0
2023-08-10 17:15:56.181816,-59.0
2023-08-10 17:15:56.189506,-42.0
2023-08-10 17:15:56.197197,-38.0
2023-08-10 17:15:56.204887,-28.0
2023-08-10 17:15:56.212577,-11.0
2023-08-10 17:15:56.220268,2.0
2023-08-10 17:15:56.227958,19.0
2023-08-10 17:15:56.235648,38.0
2023-08-10 17:15:56.243339,61.0
2023-08-10 17:15:56.251029,88.0
2023-08-10 17:15:56.258719,111.0
2023-08-10 17:15:56.266410,138.0
2023-08-10 17:15:56.274100,166.0
2023-08-10 17:15:56.281790,190.0
2023-08-10 17:15:56.289481,209.0
2023-08-10 17:15:56.297171,226.0
2023-08-10 17:15:56.304861,238.0
2023-08-10 17:15:56.312551,238.0
2023-08-10 17:15:56.320242,228.0
2023-08-10 17:15:56.327932,199.0
2023-08-10 17:15:56.335622,149.0
2023-08-10 17:15:56.343313,80.0
2023-08-10 17:15:56.351003,11.0
2023-08-10 17:15:56.358693,-57.0
2023-08-10 17:15:56.366384,-114.0
2023-08-10 17:15:56.374074,-157.0
2023-08-10 17:15:56.381764,-188.0
2023-08-10 17:15:56.389455,-211.0
2023-08-10 17:15:56.397145,-223.0
2023-08-10 17:15:56.404835,-228.0
2023-08-10 17:15:56.412525,-228.0
2023-08-10 17:15:56.420216,-223.0
2023-08-10 17:15:56.427906,-216.0
2023-08-10 17:15:56.435596,-211.0
2023-08-10 17:15:56.443287,-209.0
2023-08-10 17:15:56.450977,-204.0
2023-08-10 17:15:56.458667,-195.0
2023-08-10 17:15:56.466358,-188.0
2023-08-10 17:15:56.474048,-180.0
2023-08-10 17:15:56.481738,-176.0
2023-08-10 17:15:56.489429,-169.0
2023-08-10 17:15:56.497119,-164.0
2023-08-10 17:15:56.504809,-159.0
2023-08-10 17:15:56.512499,-154.0
2023-08-10 17:15:56.520190,-152.0
2023-08-10 17:15:56.527880,-149.0
2023-08-10 17:15:56.535570,-149.0
2023-08-10 17:15:56.543261,-147.0
2023-08-10 17:15:56.550951,-145.0
2023-08-10 17:15:56.558641,-142.0
2023-08-10 17:15:56.566332,-140.0
2023-08-10 17:15:56.574022,-140.0
2023-08-10 17:15:56.581712,-138.0
2023-08-10 17:15:56.589403,-135.0
2023-08-10 17:15:56.597093,-133.0
2023-08-10 17:15:56.604783,-128.0
2023-08-10 17:15:56.612474,-126.0
2023-08-10 17:15:56.620164,-121.0
2023-08-10 17:15:56.627854,-119.0
2023-08-10 17:15:56.635544,-116.0
2023-08-10 17:15:56.643235,-114.0
2023-08-10 17:15:56.650925,-114.0
2023-08-10 17:15:56.658615,-119.0
2023-08-10 17:15:56.666306,-121.0
2023-08-10 17:15:56.673996,-114.0
2023-08-10 17:15:56.681686,-111.0
2023-08-10 17:15:56.689377,-111.0
2023-08-10 17:15:56.697067,-107.0
2023-08-10 17:15:56.704757,-104.0
2023-08-10 17:15:56.712448,-102.0
2023-08-10 17:15:56.720138,-99.0
2023-08-10 17:15:56.727828,-95.0
2023-08-10 17:15:56.735518,-92.0
2023-08-10 17:15:56.743209,-90.0
2023-08-10 17:15:56.750899,-88.0
2023-08-10 17:15:56.758589,-85.0
2023-08-10 17:15:56.766280,-83.0
2023-08-10 17:15:56.773970,-83.0
2023-08-10 17:15:56.781660,-83.0
2023-08-10 17:15:56.789351,-76.0
2023-08-10 17:15:56.797041,-66.0
2023-08-10 17:15:56.804731,-47.0
2023-08-10 17:15:56.812422,-33.0
2023-08-10 17:15:56.820112,-40.0
2023-08-10 17:15:56.827802,-59.0
2023-08-10 17:15:56.835493,-54.0
2023-08-10 17:15:56.843183,-42.0
2023-08-10 17:15:56.850873,-54.0
2023-08-10 17:15:56.858563,-80.0
2023-08-10 17:15:56.866254,-85.0
2023-08-10 17:15:56.873944,-76.0
2023-08-10 17:15:56.881634,-76.0
2023-08-10 17:15:56.889325,-78.0
2023-08-10 17:15:56.897015,-71.0
2023-08-10 17:15:56.904705,-66.0
2023-08-10 17:15:56.912396,-66.0
2023-08-10 17:15:56.920086,-69.0
2023-08-10 17:15:56.927776,-78.0
2023-08-10 17:15:56.935467,-40.0
2023-08-10 17:15:56.943157,166.0
2023-08-10 17:15:56.950847,545.0
2023-08-10 17:15:56.958537,897.0
2023-08-10 17:15:56.966228,904.0
2023-08-10 17:15:56.973918,349.0
2023-08-10 17:15:56.981608,-202.0
2023-08-10 17:15:56.989299,-116.0
2023-08-10 17:15:56.996989,71.0
2023-08-10 17:15:57.004679,-76.0
2023-08-10 17:15:57.012370,-145.0
2023-08-10 17:15:57.020060,-69.0
2023-08-10 17:15:57.027750,-83.0
2023-08-10 17:15:57.035441,-111.0
2023-08-10 17:15:57.043131,-80.0
2023-08-10 17:15:57.050821,-71.0
2023-08-10 17:15:57.058511,-76.0
2023-08-10 17:15:57.066202,-61.0
2023-08-10 17:15:57.073892,-47.0
2023-08-10 17:15:57.081582,-42.0
2023-08-10 17:15:57.089273,-30.0
2023-08-10 17:15:57.096963,-16.0
2023-08-10 17:15:57.104653,-4.0
2023-08-10 17:15:57.112344,11.0
2023-08-10 17:15:57.120034,30.0
2023-08-10 17:15:57.127724,49.0
2023-08-10 17:15:57.135415,71.0
2023-08-10 17:15:57.143105,95.0
2023-08-10 17:15:57.150795,121.0
2023-08-10 17:15:57.158486,147.0
2023-08-10 17:15:57.166176,171.0
2023-08-10 17:15:57.173866,195.0
2023-08-10 17:15:57.181556,211.0
2023-08-10 17:15:57.189247,223.0
2023-08-10 17:15:57.196937,226.0
2023-08-10 17:15:57.204627,216.0
2023-08-10 17:15:57.212318,197.0
2023-08-10 17:15:57.220008,161.0
2023-08-10 17:15:57.227698,107.0
2023-08-10 17:15:57.235389,38.0
2023-08-10 17:15:57.243079,-30.0
2023-08-10 17:15:57.250769,-90.0
2023-08-10 17:15:57.258460,-138.0
2023-08-10 17:15:57.266150,-178.0
2023-08-10 17:15:57.273840,-211.0
2023-08-10 17:15:57.281530,-228.0
2023-08-10 17:15:57.289221,-235.0
2023-08-10 17:15:57.296911,-238.0
2023-08-10 17:15:57.304601,-233.0
2023-08-10 17:15:57.312292,-228.0
2023-08-10 17:15:57.319982,-221.0
2023-08-10 17:15:57.327672,-216.0
2023-08-10 17:15:57.335363,-207.0
2023-08-10 17:15:57.343053,-199.0
2023-08-10 17:15:57.350743,-192.0
2023-08-10 17:15:57.358434,-185.0
2023-08-10 17:15:57.366124,-180.0
2023-08-10 17:15:57.373814,-176.0
2023-08-10 17:15:57.381505,-171.0
2023-08-10 17:15:57.389195,-164.0
2023-08-10 17:15:57.396885,-157.0
2023-08-10 17:15:57.404575,-154.0
2023-08-10 17:15:57.412266,-154.0
2023-08-10 17:15:57.419956,-152.0
2023-08-10 17:15:57.427646,-149.0
2023-08-10 17:15:57.435337,-145.0
2023-08-10 17:15:57.443027,-147.0
2023-08-10 17:15:57.450717,-149.0
2023-08-10 17:15:57.458408,-154.0
2023-08-10 17:15:57.466098,-152.0
2023-08-10 17:15:57.473788,-149.0
2023-08-10 17:15:57.481479,-147.0
2023-08-10 17:15:57.489169,-142.0
2023-08-10 17:15:57.496859,-140.0
2023-08-10 17:15:57.504549,-140.0
2023-08-10 17:15:57.512240,-140.0
2023-08-10 17:15:57.519930,-138.0
2023-08-10 17:15:57.527620,-133.0
2023-08-10 17:15:57.535311,-130.0
2023-08-10 17:15:57.543001,-128.0
2023-08-10 17:15:57.550691,-126.0
2023-08-10 17:15:57.558382,-123.0
2023-08-10 17:15:57.566072,-123.0
2023-08-10 17:15:57.573762,-119.0
2023-08-10 17:15:57.581453,-114.0
2023-08-10 17:15:57.589143,-114.0
2023-08-10 17:15:57.596833,-111.0
2023-08-10 17:15:57.604523,-109.0
2023-08-10 17:15:57.612214,-107.0
2023-08-10 17:15:57.619904,-102.0
2023-08-10 17:15:57.627594,-99.0
2023-08-10 17:15:57.635285,-95.0
2023-08-10 17:15:57.642975,-97.0
2023-08-10 17:15:57.650665,-99.0
2023-08-10 17:15:57.658356,-95.0
2023-08-10 17:15:57.666046,-90.0
2023-08-10 17:15:57.673736,-90.0
2023-08-10 17:15:57.681427,-88.0
2023-08-10 17:15:57.689117,-85.0
2023-08-10 17:15:57.696807,-76.0
2023-08-10 17:15:57.704498,-61.0
2023-08-10 17:15:57.712188,-45.0
2023-08-10 17:15:57.719878,-30.0
2023-08-10 17:15:57.727568,-42.0
2023-08-10 17:15:57.735259,-64.0
2023-08-10 17:15:57.742949,-57.0
2023-08-10 17:15:57.750639,-42.0
2023-08-10 17:15:57.758330,-66.0
2023-08-10 17:15:57.766020,-95.0
2023-08-10 17:15:57.773710,-90.0
2023-08-10 17:15:57.781401,-88.0
2023-08-10 17:15:57.789091,-102.0
2023-08-10 17:15:57.796781,-102.0
2023-08-10 17:15:57.804472,-92.0
2023-08-10 17:15:57.812162,-92.0
2023-08-10 17:15:57.819852,-90.0
2023-08-10 17:15:57.827542,-95.0
2023-08-10 17:15:57.835233,-109.0
2023-08-10 17:15:57.842923,-78.0
2023-08-10 17:15:57.850613,107.0
2023-08-10 17:15:57.858304,473.0
2023-08-10 17:15:57.865994,849.0
2023-08-10 17:15:57.873684,904.0
2023-08-10 17:15:57.881375,397.0
2023-08-10 17:15:57.889065,-185.0
2023-08-10 17:15:57.896755,-154.0
2023-08-10 17:15:57.904446,49.0
2023-08-10 17:15:57.912136,-78.0
2023-08-10 17:15:57.919826,-169.0
2023-08-10 17:15:57.927517,-97.0
2023-08-10 17:15:57.935207,-99.0
2023-08-10 17:15:57.942897,-133.0
2023-08-10 17:15:57.950587,-109.0
2023-08-10 17:15:57.958278,-97.0
2023-08-10 17:15:57.965968,-104.0
2023-08-10 17:15:57.973658,-92.0
2023-08-10 17:15:57.981349,-76.0
2023-08-10 17:15:57.989039,-66.0
2023-08-10 17:15:57.996729,-49.0
2023-08-10 17:15:58.004420,-35.0
2023-08-10 17:15:58.012110,-26.0
2023-08-10 17:15:58.019800,-9.0
2023-08-10 17:15:58.027491,9.0
2023-08-10 17:15:58.035181,28.0
2023-08-10 17:15:58.042871,49.0
2023-08-10 17:15:58.050561,78.0
2023-08-10 17:15:58.058252,102.0
2023-08-10 17:15:58.065942,126.0
2023-08-10 17:15:58.073632,152.0
2023-08-10 17:15:58.081323,176.0
2023-08-10 17:15:58.089013,197.0
2023-08-10 17:15:58.096703,211.0
2023-08-10 17:15:58.104394,216.0
2023-08-10 17:15:58.112084,211.0
2023-08-10 17:15:58.119774,199.0
2023-08-10 17:15:58.127465,166.0
2023-08-10 17:15:58.135155,116.0
2023-08-10 17:15:58.142845,52.0
2023-08-10 17:15:58.150535,-16.0
2023-08-10 17:15:58.158226,-83.0
2023-08-10 17:15:58.165916,-135.0
2023-08-10 17:15:58.173606,-173.0
2023-08-10 17:15:58.181297,-199.0
2023-08-10 17:15:58.188987,-216.0
2023-08-10 17:15:58.196677,-226.0
2023-08-10 17:15:58.204368,-230.0
2023-08-10 17:15:58.212058,-228.0
2023-08-10 17:15:58.219748,-223.0
2023-08-10 17:15:58.227439,-218.0
2023-08-10 17:15:58.235129,-214.0
2023-08-10 17:15:58.242819,-209.0
2023-08-10 17:15:58.250510,-204.0
2023-08-10 17:15:58.258200,-197.0
2023-08-10 17:15:58.265890,-188.0
2023-08-10 17:15:58.273580,-183.0
2023-08-10 17:15:58.281271,-180.0
2023-08-10 17:15:58.288961,-176.0
2023-08-10 17:15:58.296651,-169.0
2023-08-10 17:15:58.304342,-164.0
2023-08-10 17:15:58.312032,-164.0
2023-08-10 17:15:58.319722,-166.0
2023-08-10 17:15:58.327413,-171.0
2023-08-10 17:15:58.335103,-171.0
2023-08-10 17:15:58.342793,-166.0
2023-08-10 17:15:58.350484,-161.0
2023-08-10 17:15:58.358174,-157.0
2023-08-10 17:15:58.365864,-154.0
2023-08-10 17:15:58.373554,-159.0
2023-08-10 17:15:58.381245,-159.0
2023-08-10 17:15:58.388935,-157.0
2023-08-10 17:15:58.396625,-152.0
2023-08-10 17:15:58.404316,-147.0
2023-08-10 17:15:58.412006,-145.0
2023-08-10 17:15:58.419696,-145.0
2023-08-10 17:15:58.427387,-145.0
2023-08-10 17:15:58.435077,-142.0
2023-08-10 17:15:58.442767,-135.0
2023-08-10 17:15:58.450458,-126.0
2023-08-10 17:15:58.458148,-130.0
2023-08-10 17:15:58.465838,-138.0
2023-08-10 17:15:58.473529,-135.0
2023-08-10 17:15:58.481219,-126.0
2023-08-10 17:15:58.488909,-123.0
2023-08-10 17:15:58.496599,-126.0
2023-08-10 17:15:58.504290,-126.0
2023-08-10 17:15:58.511980,-126.0
2023-08-10 17:15:58.519670,-119.0
2023-08-10 17:15:58.527361,-109.0
2023-08-10 17:15:58.535051,-109.0
2023-08-10 17:15:58.542741,-116.0
2023-08-10 17:15:58.550432,-116.0
2023-08-10 17:15:58.558122,-107.0
2023-08-10 17:15:58.565812,-104.0
2023-08-10 17:15:58.573503,-99.0
2023-08-10 17:15:58.581193,-95.0
2023-08-10 17:15:58.588883,-99.0
2023-08-10 17:15:58.596573,-102.0
2023-08-10 17:15:58.604264,-83.0
2023-08-10 17:15:58.611954,-59.0
2023-08-10 17:15:58.619644,-49.0
2023-08-10 17:15:58.627335,-52.0
2023-08-10 17:15:58.635025,-61.0
2023-08-10 17:15:58.642715,-73.0
2023-08-10 17:15:58.650406,-61.0
2023-08-10 17:15:58.658096,-61.0
2023-08-10 17:15:58.665786,-92.0
2023-08-10 17:15:58.673477,-104.0
2023-08-10 17:15:58.681167,-95.0
2023-08-10 17:15:58.688857,-95.0
2023-08-10 17:15:58.696547,-95.0
2023-08-10 17:15:58.704238,-90.0
2023-08-10 17:15:58.711928,-90.0
2023-08-10 17:15:58.719618,-88.0
2023-08-10 17:15:58.727309,-83.0
2023-08-10 17:15:58.734999,-90.0
2023-08-10 17:15:58.742689,-90.0
2023-08-10 17:15:58.750380,9.0
2023-08-10 17:15:58.758070,316.0
2023-08-10 17:15:58.765760,747.0
2023-08-10 17:15:58.773451,985.0
2023-08-10 17:15:58.781141,668.0
2023-08-10 17:15:58.788831,-49.0
2023-08-10 17:15:58.796522,-302.0
2023-08-10 17:15:58.804212,-11.0
2023-08-10 17:15:58.811902,26.0
2023-08-10 17:15:58.819592,-152.0
2023-08-10 17:15:58.827283,-123.0
2023-08-10 17:15:58.834973,-71.0
2023-08-10 17:15:58.842663,-109.0
2023-08-10 17:15:58.850354,-107.0
2023-08-10 17:15:58.858044,-80.0
2023-08-10 17:15:58.865734,-88.0
2023-08-10 17:15:58.873425,-88.0
2023-08-10 17:15:58.881115,-69.0
2023-08-10 17:15:58.888805,-59.0
2023-08-10 17:15:58.896496,-49.0
2023-08-10 17:15:58.904186,-33.0
2023-08-10 17:15:58.911876,-19.0
2023-08-10 17:15:58.919566,-4.0
2023-08-10 17:15:58.927257,14.0
2023-08-10 17:15:58.934947,33.0
2023-08-10 17:15:58.942637,54.0
2023-08-10 17:15:58.950328,80.0
2023-08-10 17:15:58.958018,102.0
2023-08-10 17:15:58.965708,121.0
2023-08-10 17:15:58.973399,149.0
2023-08-10 17:15:58.981089,176.0
2023-08-10 17:15:58.988779,197.0
2023-08-10 17:15:58.996470,211.0
2023-08-10 17:15:59.004160,218.0
2023-08-10 17:15:59.011850,221.0
2023-08-10 17:15:59.019541,221.0
2023-08-10 17:15:59.027231,202.0
2023-08-10 17:15:59.034921,152.0
2023-08-10 17:15:59.042611,88.0
2023-08-10 17:15:59.050302,19.0
2023-08-10 17:15:59.057992,-52.0
2023-08-10 17:15:59.065682,-114.0
2023-08-10 17:15:59.073373,-161.0
2023-08-10 17:15:59.081063,-197.0
2023-08-10 17:15:59.088753,-223.0
2023-08-10 17:15:59.096444,-240.0
2023-08-10 17:15:59.104134,-247.0
2023-08-10 17:15:59.111824,-242.0
2023-08-10 17:15:59.119515,-235.0
2023-08-10 17:15:59.127205,-230.0
2023-08-10 17:15:59.134895,-230.0
2023-08-10 17:15:59.142585,-223.0
2023-08-10 17:15:59.150276,-209.0
2023-08-10 17:15:59.157966,-202.0
2023-08-10 17:15:59.165656,-195.0
2023-08-10 17:15:59.173347,-190.0
2023-08-10 17:15:59.181037,-185.0
2023-08-10 17:15:59.188727,-183.0
2023-08-10 17:15:59.196418,-173.0
2023-08-10 17:15:59.204108,-166.0
2023-08-10 17:15:59.211798,-166.0
2023-08-10 17:15:59.219489,-164.0
2023-08-10 17:15:59.227179,-161.0
2023-08-10 17:15:59.234869,-161.0
2023-08-10 17:15:59.242559,-161.0
2023-08-10 17:15:59.250250,-157.0
2023-08-10 17:15:59.257940,-157.0
2023-08-10 17:15:59.265630,-161.0
2023-08-10 17:15:59.273321,-157.0
2023-08-10 17:15:59.281011,-149.0
2023-08-10 17:15:59.288701,-145.0
2023-08-10 17:15:59.296392,-142.0
2023-08-10 17:15:59.304082,-140.0
2023-08-10 17:15:59.311772,-138.0
2023-08-10 17:15:59.319463,-138.0
2023-08-10 17:15:59.327153,-135.0
2023-08-10 17:15:59.334843,-128.0
2023-08-10 17:15:59.342534,-126.0
2023-08-10 17:15:59.350224,-123.0
2023-08-10 17:15:59.357914,-121.0
2023-08-10 17:15:59.365604,-119.0
2023-08-10 17:15:59.373295,-114.0
2023-08-10 17:15:59.380985,-109.0
2023-08-10 17:15:59.388675,-109.0
2023-08-10 17:15:59.396366,-111.0
2023-08-10 17:15:59.404056,-111.0
2023-08-10 17:15:59.411746,-107.0
2023-08-10 17:15:59.419437,-102.0
2023-08-10 17:15:59.427127,-99.0
2023-08-10 17:15:59.434817,-95.0
2023-08-10 17:15:59.442508,-95.0
2023-08-10 17:15:59.450198,-104.0
2023-08-10 17:15:59.457888,-107.0
2023-08-10 17:15:59.465578,-99.0
2023-08-10 17:15:59.473269,-88.0
2023-08-10 17:15:59.480959,-73.0
2023-08-10 17:15:59.488649,-61.0
2023-08-10 17:15:59.496340,-61.0
2023-08-10 17:15:59.504030,-83.0
2023-08-10 17:15:59.511720,-83.0
2023-08-10 17:15:59.519411,-64.0
2023-08-10 17:15:59.527101,-76.0
2023-08-10 17:15:59.534791,-109.0
2023-08-10 17:15:59.542482,-114.0
2023-08-10 17:15:59.550172,-99.0
2023-08-10 17:15:59.557862,-99.0
2023-08-10 17:15:59.565553,-99.0
2023-08-10 17:15:59.573243,-95.0
2023-08-10 17:15:59.580933,-95.0
2023-08-10 17:15:59.588623,-90.0
2023-08-10 17:15:59.596314,-85.0
2023-08-10 17:15:59.604004,-88.0
2023-08-10 17:15:59.611694,-71.0
2023-08-10 17:15:59.619385,78.0
2023-08-10 17:15:59.627075,440.0
2023-08-10 17:15:59.634765,847.0
2023-08-10 17:15:59.642456,978.0
2023-08-10 17:15:59.650146,537.0
2023-08-10 17:15:59.657836,-142.0
2023-08-10 17:15:59.665527,-226.0
2023-08-10 17:15:59.673217,49.0
2023-08-10 17:15:59.680907,-26.0
2023-08-10 17:15:59.688597,-166.0
2023-08-10 17:15:59.696288,-95.0
2023-08-10 17:15:59.703978,-73.0
2023-08-10 17:15:59.711668,-121.0
2023-08-10 17:15:59.719359,-102.0
2023-08-10 17:15:59.727049,-80.0
2023-08-10 17:15:59.734739,-88.0
2023-08-10 17:15:59.742430,-76.0
2023-08-10 17:15:59.750120,-57.0
2023-08-10 17:15:59.757810,-49.0
2023-08-10 17:15:59.765501,-40.0
2023-08-10 17:15:59.773191,-26.0
2023-08-10 17:15:59.780881,-9.0
2023-08-10 17:15:59.788571,9.0
2023-08-10 17:15:59.796262,30.0
2023-08-10 17:15:59.803952,49.0
2023-08-10 17:15:59.811642,66.0
2023-08-10 17:15:59.819333,90.0
2023-08-10 17:15:59.827023,121.0
2023-08-10 17:15:59.834713,147.0
2023-08-10 17:15:59.842404,173.0
2023-08-10 17:15:59.850094,195.0
2023-08-10 17:15:59.857784,214.0
2023-08-10 17:15:59.865475,228.0
2023-08-10 17:15:59.873165,238.0
2023-08-10 17:15:59.880855,238.0
2023-08-10 17:15:59.888546,221.0
2023-08-10 17:15:59.896236,185.0
2023-08-10 17:15:59.903926,135.0
2023-08-10 17:15:59.911616,69.0
2023-08-10 17:15:59.919307,0.0
2023-08-10 17:15:59.926997,-64.0
2023-08-10 17:15:59.934687,-119.0
2023-08-10 17:15:59.942378,-159.0
2023-08-10 17:15:59.950068,-188.0
2023-08-10 17:15:59.957758,-207.0
2023-08-10 17:15:59.965449,-218.0
2023-08-10 17:15:59.973139,-226.0
2023-08-10 17:15:59.980829,-228.0
2023-08-10 17:15:59.988520,-223.0
2023-08-10 17:15:59.996210,-216.0
2023-08-10 17:16:00.003900,-209.0
2023-08-10 17:16:00.011590,-202.0
2023-08-10 17:16:00.019281,-192.0
2023-08-10 17:16:00.026971,-190.0
2023-08-10 17:16:00.034661,-192.0
2023-08-10 17:16:00.042352,-188.0
2023-08-10 17:16:00.050042,-176.0
2023-08-10 17:16:00.057732,-169.0
2023-08-10 17:16:00.065423,-169.0
2023-08-10 17:16:00.073113,-166.0
2023-08-10 17:16:00.080803,-161.0
2023-08-10 17:16:00.088494,-159.0
2023-08-10 17:16:00.096184,-154.0
2023-08-10 17:16:00.103874,-152.0
2023-08-10 17:16:00.111565,-149.0
2023-08-10 17:16:00.119255,-152.0
2023-08-10 17:16:00.126945,-149.0
2023-08-10 17:16:00.134635,-147.0
2023-08-10 17:16:00.142326,-142.0
2023-08-10 17:16:00.150016,-138.0
2023-08-10 17:16:00.157706,-135.0
2023-08-10 17:16:00.165397,-135.0
2023-08-10 17:16:00.173087,-133.0
2023-08-10 17:16:00.180777,-130.0
2023-08-10 17:16:00.188468,-126.0
2023-08-10 17:16:00.196158,-123.0
2023-08-10 17:16:00.203848,-121.0
2023-08-10 17:16:00.211539,-116.0
2023-08-10 17:16:00.219229,-116.0
2023-08-10 17:16:00.226919,-116.0
2023-08-10 17:16:00.234609,-114.0
2023-08-10 17:16:00.242300,-109.0
2023-08-10 17:16:00.249990,-109.0
2023-08-10 17:16:00.257680,-109.0
2023-08-10 17:16:00.265371,-107.0
2023-08-10 17:16:00.273061,-99.0
2023-08-10 17:16:00.280751,-97.0
2023-08-10 17:16:00.288442,-97.0
2023-08-10 17:16:00.296132,-92.0
2023-08-10 17:16:00.303822,-88.0
2023-08-10 17:16:00.311513,-90.0
2023-08-10 17:16:00.319203,-88.0
2023-08-10 17:16:00.326893,-85.0
2023-08-10 17:16:00.334583,-83.0
2023-08-10 17:16:00.342274,-80.0
2023-08-10 17:16:00.349964,-73.0
2023-08-10 17:16:00.357654,-61.0
2023-08-10 17:16:00.365345,-45.0
2023-08-10 17:16:00.373035,-30.0
2023-08-10 17:16:00.380725,-33.0
2023-08-10 17:16:00.388416,-57.0
2023-08-10 17:16:00.396106,-59.0
2023-08-10 17:16:00.403796,-38.0
2023-08-10 17:16:00.411487,-54.0
2023-08-10 17:16:00.419177,-92.0
2023-08-10 17:16:00.426867,-92.0
2023-08-10 17:16:00.434558,-78.0
2023-08-10 17:16:00.442248,-85.0
2023-08-10 17:16:00.449938,-88.0
2023-08-10 17:16:00.457628,-80.0
2023-08-10 17:16:00.465319,-83.0
2023-08-10 17:16:00.473009,-88.0
2023-08-10 17:16:00.480699,-88.0
2023-08-10 17:16:00.488390,-95.0
2023-08-10 17:16:00.496080,-73.0
2023-08-10 17:16:00.503770,85.0
2023-08-10 17:16:00.511461,435.0
2023-08-10 17:16:00.519151,816.0
2023-08-10 17:16:00.526841,921.0
2023-08-10 17:16:00.534532,468.0
2023-08-10 17:16:00.542222,-149.0
2023-08-10 17:16:00.549912,-180.0
2023-08-10 17:16:00.557602,52.0
2023-08-10 17:16:00.565293,-54.0
2023-08-10 17:16:00.572983,-173.0
2023-08-10 17:16:00.580673,-107.0
2023-08-10 17:16:00.588364,-97.0
2023-08-10 17:16:00.596054,-133.0
2023-08-10 17:16:00.603744,-109.0
2023-08-10 17:16:00.611435,-90.0
2023-08-10 17:16:00.619125,-95.0
2023-08-10 17:16:00.626815,-83.0
2023-08-10 17:16:00.634506,-66.0
2023-08-10 17:16:00.642196,-59.0
2023-08-10 17:16:00.649886,-49.0
2023-08-10 17:16:00.657577,-33.0
2023-08-10 17:16:00.665267,-19.0
2023-08-10 17:16:00.672957,-4.0
2023-08-10 17:16:00.680647,19.0
2023-08-10 17:16:00.688338,38.0
2023-08-10 17:16:00.696028,54.0
2023-08-10 17:16:00.703718,80.0
2023-08-10 17:16:00.711409,109.0
2023-08-10 17:16:00.719099,133.0
2023-08-10 17:16:00.726789,159.0
2023-08-10 17:16:00.734480,185.0
2023-08-10 17:16:00.742170,204.0
2023-08-10 17:16:00.749860,216.0
2023-08-10 17:16:00.757551,223.0
2023-08-10 17:16:00.765241,221.0
2023-08-10 17:16:00.772931,207.0
2023-08-10 17:16:00.780621,176.0
2023-08-10 17:16:00.788312,123.0
2023-08-10 17:16:00.796002,59.0
2023-08-10 17:16:00.803692,-9.0
2023-08-10 17:16:00.811383,-71.0
2023-08-10 17:16:00.819073,-121.0
2023-08-10 17:16:00.826763,-166.0
2023-08-10 17:16:00.834454,-195.0
2023-08-10 17:16:00.842144,-211.0
2023-08-10 17:16:00.849834,-221.0
2023-08-10 17:16:00.857525,-226.0
2023-08-10 17:16:00.865215,-223.0
2023-08-10 17:16:00.872905,-216.0
2023-08-10 17:16:00.880595,-214.0
2023-08-10 17:16:00.888286,-207.0
2023-08-10 17:16:00.895976,-197.0
2023-08-10 17:16:00.903666,-190.0
2023-08-10 17:16:00.911357,-183.0
2023-08-10 17:16:00.919047,-176.0
2023-08-10 17:16:00.926737,-171.0
2023-08-10 17:16:00.934428,-166.0
2023-08-10 17:16:00.942118,-161.0
2023-08-10 17:16:00.949808,-157.0
2023-08-10 17:16:00.957499,-154.0
2023-08-10 17:16:00.965189,-157.0
2023-08-10 17:16:00.972879,-154.0
2023-08-10 17:16:00.980570,-154.0
2023-08-10 17:16:00.988260,-157.0
2023-08-10 17:16:00.995950,-152.0
2023-08-10 17:16:01.003640,-147.0
2023-08-10 17:16:01.011331,-149.0
2023-08-10 17:16:01.019021,-149.0
2023-08-10 17:16:01.026711,-145.0
2023-08-10 17:16:01.034402,-142.0
2023-08-10 17:16:01.042092,-142.0
2023-08-10 17:16:01.049782,-140.0
2023-08-10 17:16:01.057473,-135.0
2023-08-10 17:16:01.065163,-133.0
2023-08-10 17:16:01.072853,-133.0
2023-08-10 17:16:01.080544,-128.0
2023-08-10 17:16:01.088234,-123.0
2023-08-10 17:16:01.095924,-121.0
2023-08-10 17:16:01.103614,-121.0
2023-08-10 17:16:01.111305,-123.0
2023-08-10 17:16:01.118995,-128.0
2023-08-10 17:16:01.126685,-126.0
2023-08-10 17:16:01.134376,-119.0
2023-08-10 17:16:01.142066,-114.0
2023-08-10 17:16:01.149756,-114.0
2023-08-10 17:16:01.157447,-119.0
2023-08-10 17:16:01.165137,-121.0
2023-08-10 17:16:01.172827,-116.0
2023-08-10 17:16:01.180518,-111.0
2023-08-10 17:16:01.188208,-111.0
2023-08-10 17:16:01.195898,-107.0
2023-08-10 17:16:01.203589,-107.0
2023-08-10 17:16:01.211279,-104.0
2023-08-10 17:16:01.218969,-102.0
2023-08-10 17:16:01.226659,-102.0
2023-08-10 17:16:01.234350,-97.0
2023-08-10 17:16:01.242040,-88.0
2023-08-10 17:16:01.249730,-78.0
2023-08-10 17:16:01.257421,-69.0
2023-08-10 17:16:01.265111,-54.0
2023-08-10 17:16:01.272801,-64.0
2023-08-10 17:16:01.280492,-83.0
2023-08-10 17:16:01.288182,-69.0
2023-08-10 17:16:01.295872,-59.0
2023-08-10 17:16:01.303563,-88.0
2023-08-10 17:16:01.311253,-111.0
2023-08-10 17:16:01.318943,-102.0
2023-08-10 17:16:01.326633,-95.0
2023-08-10 17:16:01.334324,-99.0
2023-08-10 17:16:01.342014,-99.0
2023-08-10 17:16:01.349704,-95.0
2023-08-10 17:16:01.357395,-90.0
2023-08-10 17:16:01.365085,-85.0
2023-08-10 17:16:01.372775,-85.0
2023-08-10 17:16:01.380466,-92.0
2023-08-10 17:16:01.388156,-61.0
2023-08-10 17:16:01.395846,130.0
2023-08-10 17:16:01.403537,504.0
2023-08-10 17:16:01.411227,864.0
2023-08-10 17:16:01.418917,875.0
2023-08-10 17:16:01.426607,340.0
2023-08-10 17:16:01.434298,-197.0
2023-08-10 17:16:01.441988,-121.0
2023-08-10 17:16:01.449678,61.0
2023-08-10 17:16:01.457369,-80.0
2023-08-10 17:16:01.465059,-154.0
2023-08-10 17:16:01.472749,-83.0
2023-08-10 17:16:01.480440,-97.0
2023-08-10 17:16:01.488130,-128.0
2023-08-10 17:16:01.495820,-99.0
2023-08-10 17:16:01.503511,-85.0
2023-08-10 17:16:01.511201,-88.0
2023-08-10 17:16:01.518891,-80.0
2023-08-10 17:16:01.526582,-66.0
2023-08-10 17:16:01.534272,-54.0
2023-08-10 17:16:01.541962,-42.0
2023-08-10 17:16:01.549652,-26.0
2023-08-10 17:16:01.557343,-9.0
2023-08-10 17:16:01.565033,2.0
2023-08-10 17:16:01.572723,19.0
2023-08-10 17:16:01.580414,42.0
2023-08-10 17:16:01.588104,66.0
2023-08-10 17:16:01.595794,88.0
2023-08-10 17:16:01.603485,111.0
2023-08-10 17:16:01.611175,140.0
2023-08-10 17:16:01.618865,166.0
2023-08-10 17:16:01.626556,188.0
2023-08-10 17:16:01.634246,207.0
2023-08-10 17:16:01.641936,218.0
2023-08-10 17:16:01.649626,226.0
2023-08-10 17:16:01.657317,218.0
2023-08-10 17:16:01.665007,202.0
2023-08-10 17:16:01.672697,169.0
2023-08-10 17:16:01.680388,114.0
2023-08-10 17:16:01.688078,49.0
2023-08-10 17:16:01.695768,-16.0
2023-08-10 17:16:01.703459,-80.0
2023-08-10 17:16:01.711149,-133.0
2023-08-10 17:16:01.718839,-169.0
2023-08-10 17:16:01.726530,-192.0
2023-08-10 17:16:01.734220,-211.0
2023-08-10 17:16:01.741910,-226.0
2023-08-10 17:16:01.749601,-235.0
2023-08-10 17:16:01.757291,-233.0
2023-08-10 17:16:01.764981,-226.0
2023-08-10 17:16:01.772671,-221.0
2023-08-10 17:16:01.780362,-214.0
2023-08-10 17:16:01.788052,-204.0
2023-08-10 17:16:01.795742,-195.0
2023-08-10 17:16:01.803433,-188.0
2023-08-10 17:16:01.811123,-183.0
2023-08-10 17:16:01.818813,-176.0
2023-08-10 17:16:01.826504,-171.0
2023-08-10 17:16:01.834194,-171.0
2023-08-10 17:16:01.841884,-169.0
2023-08-10 17:16:01.849575,-164.0
2023-08-10 17:16:01.857265,-157.0
2023-08-10 17:16:01.864955,-152.0
2023-08-10 17:16:01.872645,-149.0
2023-08-10 17:16:01.880336,-147.0
2023-08-10 17:16:01.888026,-147.0
2023-08-10 17:16:01.895716,-149.0
2023-08-10 17:16:01.903407,-147.0
2023-08-10 17:16:01.911097,-145.0
2023-08-10 17:16:01.918787,-142.0
2023-08-10 17:16:01.926478,-142.0
2023-08-10 17:16:01.934168,-140.0
2023-08-10 17:16:01.941858,-140.0
2023-08-10 17:16:01.949549,-140.0
2023-08-10 17:16:01.957239,-140.0
2023-08-10 17:16:01.964929,-138.0
2023-08-10 17:16:01.972619,-138.0
2023-08-10 17:16:01.980310,-133.0
2023-08-10 17:16:01.988000,-130.0
2023-08-10 17:16:01.995690,-135.0
2023-08-10 17:16:02.003381,-140.0
2023-08-10 17:16:02.011071,-130.0
2023-08-10 17:16:02.018761,-126.0
2023-08-10 17:16:02.026452,-128.0
2023-08-10 17:16:02.034142,-126.0
2023-08-10 17:16:02.041832,-119.0
2023-08-10 17:16:02.049523,-119.0
2023-08-10 17:16:02.057213,-121.0
2023-08-10 17:16:02.064903,-119.0
2023-08-10 17:16:02.072594,-111.0
2023-08-10 17:16:02.080284,-104.0
2023-08-10 17:16:02.087974,-102.0
2023-08-10 17:16:02.095664,-102.0
2023-08-10 17:16:02.103355,-99.0
2023-08-10 17:16:02.111045,-99.0
2023-08-10 17:16:02.118735,-104.0
2023-08-10 17:16:02.126426,-99.0
2023-08-10 17:16:02.134116,-83.0
2023-08-10 17:16:02.141806,-66.0
2023-08-10 17:16:02.149497,-57.0
2023-08-10 17:16:02.157187,-54.0
2023-08-10 17:16:02.164877,-71.0
2023-08-10 17:16:02.172568,-80.0
2023-08-10 17:16:02.180258,-61.0
2023-08-10 17:16:02.187948,-61.0
2023-08-10 17:16:02.195638,-99.0
2023-08-10 17:16:02.203329,-114.0
2023-08-10 17:16:02.211019,-99.0
2023-08-10 17:16:02.218709,-99.0
2023-08-10 17:16:02.226400,-107.0
2023-08-10 17:16:02.234090,-107.0
2023-08-10 17:16:02.241780,-114.0
2023-08-10 17:16:02.249471,-114.0
2023-08-10 17:16:02.257161,-107.0
2023-08-10 17:16:02.264851,-107.0
2023-08-10 17:16:02.272542,-107.0
2023-08-10 17:16:02.280232,-30.0
2023-08-10 17:16:02.287922,242.0
2023-08-10 17:16:02.295613,664.0
2023-08-10 17:16:02.303303,940.0
2023-08-10 17:16:02.310993,695.0
2023-08-10 17:16:02.318683,2.0
2023-08-10 17:16:02.326374,-311.0
2023-08-10 17:16:02.334064,-42.0
2023-08-10 17:16:02.341754,30.0
2023-08-10 17:16:02.349445,-154.0
2023-08-10 17:16:02.357135,-154.0
2023-08-10 17:16:02.364825,-88.0
2023-08-10 17:16:02.372516,-121.0
2023-08-10 17:16:02.380206,-123.0
2023-08-10 17:16:02.387896,-85.0
2023-08-10 17:16:02.395587,-88.0
2023-08-10 17:16:02.403277,-92.0
2023-08-10 17:16:02.410967,-71.0
2023-08-10 17:16:02.418657,-54.0
2023-08-10 17:16:02.426348,-49.0
2023-08-10 17:16:02.434038,-35.0
2023-08-10 17:16:02.441728,-19.0
2023-08-10 17:16:02.449419,-14.0
2023-08-10 17:16:02.457109,2.0
2023-08-10 17:16:02.464799,23.0
2023-08-10 17:16:02.472490,45.0
2023-08-10 17:16:02.480180,71.0
2023-08-10 17:16:02.487870,95.0
2023-08-10 17:16:02.495561,116.0
2023-08-10 17:16:02.503251,145.0
2023-08-10 17:16:02.510941,171.0
2023-08-10 17:16:02.518632,190.0
2023-08-10 17:16:02.526322,207.0
2023-08-10 17:16:02.534012,221.0
2023-08-10 17:16:02.541702,223.0
2023-08-10 17:16:02.549393,214.0
2023-08-10 17:16:02.557083,195.0
2023-08-10 17:16:02.564773,149.0
2023-08-10 17:16:02.572464,83.0
2023-08-10 17:16:02.580154,14.0
2023-08-10 17:16:02.587844,-47.0
2023-08-10 17:16:02.595535,-107.0
2023-08-10 17:16:02.603225,-164.0
2023-08-10 17:16:02.610915,-202.0
2023-08-10 17:16:02.618606,-226.0
2023-08-10 17:16:02.626296,-238.0
2023-08-10 17:16:02.633986,-240.0
2023-08-10 17:16:02.641676,-242.0
2023-08-10 17:16:02.649367,-247.0
2023-08-10 17:16:02.657057,-242.0
2023-08-10 17:16:02.664747,-228.0
2023-08-10 17:16:02.672438,-216.0
2023-08-10 17:16:02.680128,-214.0
2023-08-10 17:16:02.687818,-214.0
2023-08-10 17:16:02.695509,-207.0
2023-08-10 17:16:02.703199,-192.0
2023-08-10 17:16:02.710889,-185.0
2023-08-10 17:16:02.718580,-188.0
2023-08-10 17:16:02.726270,-183.0
2023-08-10 17:16:02.733960,-176.0
2023-08-10 17:16:02.741650,-173.0
2023-08-10 17:16:02.749341,-171.0
2023-08-10 17:16:02.757031,-166.0
2023-08-10 17:16:02.764721,-164.0
2023-08-10 17:16:02.772412,-164.0
2023-08-10 17:16:02.780102,-164.0
2023-08-10 17:16:02.787792,-159.0
2023-08-10 17:16:02.795483,-157.0
2023-08-10 17:16:02.803173,-154.0
2023-08-10 17:16:02.810863,-154.0
2023-08-10 17:16:02.818554,-154.0
2023-08-10 17:16:02.826244,-157.0
2023-08-10 17:16:02.833934,-159.0
2023-08-10 17:16:02.841625,-152.0
2023-08-10 17:16:02.849315,-142.0
2023-08-10 17:16:02.857005,-142.0
2023-08-10 17:16:02.864695,-149.0
2023-08-10 17:16:02.872386,-145.0
2023-08-10 17:16:02.880076,-138.0
2023-08-10 17:16:02.887766,-133.0
2023-08-10 17:16:02.895457,-133.0
2023-08-10 17:16:02.903147,-128.0
2023-08-10 17:16:02.910837,-126.0
2023-08-10 17:16:02.918528,-123.0
2023-08-10 17:16:02.926218,-121.0
2023-08-10 17:16:02.933908,-121.0
2023-08-10 17:16:02.941599,-119.0
2023-08-10 17:16:02.949289,-114.0
2023-08-10 17:16:02.956979,-116.0
2023-08-10 17:16:02.964669,-116.0
2023-08-10 17:16:02.972360,-107.0
2023-08-10 17:16:02.980050,-92.0
2023-08-10 17:16:02.987740,-78.0
2023-08-10 17:16:02.995431,-64.0
2023-08-10 17:16:03.003121,-61.0
2023-08-10 17:16:03.010811,-80.0
2023-08-10 17:16:03.018502,-92.0
2023-08-10 17:16:03.026192,-71.0
2023-08-10 17:16:03.033882,-69.0
2023-08-10 17:16:03.041573,-107.0
2023-08-10 17:16:03.049263,-123.0
2023-08-10 17:16:03.056953,-104.0
2023-08-10 17:16:03.064644,-99.0
2023-08-10 17:16:03.072334,-104.0
2023-08-10 17:16:03.080024,-99.0
2023-08-10 17:16:03.087714,-95.0
2023-08-10 17:16:03.095405,-97.0
2023-08-10 17:16:03.103095,-95.0
2023-08-10 17:16:03.110785,-92.0
2023-08-10 17:16:03.118476,-92.0
2023-08-10 17:16:03.126166,-26.0
2023-08-10 17:16:03.133856,238.0
2023-08-10 17:16:03.141547,673.0
2023-08-10 17:16:03.149237,978.0
2023-08-10 17:16:03.156927,773.0
2023-08-10 17:16:03.164618,76.0
2023-08-10 17:16:03.172308,-323.0
2023-08-10 17:16:03.179998,-71.0
2023-08-10 17:16:03.187688,66.0
2023-08-10 17:16:03.195379,-114.0
2023-08-10 17:16:03.203069,-135.0
2023-08-10 17:16:03.210759,-61.0
2023-08-10 17:16:03.218450,-95.0
2023-08-10 17:16:03.226140,-114.0
2023-08-10 17:16:03.233830,-78.0
2023-08-10 17:16:03.241521,-71.0
2023-08-10 17:16:03.249211,-76.0
2023-08-10 17:16:03.256901,-59.0
2023-08-10 17:16:03.264592,-47.0
2023-08-10 17:16:03.272282,-40.0
2023-08-10 17:16:03.279972,-28.0
2023-08-10 17:16:03.287662,-11.0
2023-08-10 17:16:03.295353,2.0
2023-08-10 17:16:03.303043,21.0
2023-08-10 17:16:03.310733,45.0
2023-08-10 17:16:03.318424,64.0
2023-08-10 17:16:03.326114,83.0
2023-08-10 17:16:03.333804,111.0
2023-08-10 17:16:03.341495,140.0
2023-08-10 17:16:03.349185,166.0
2023-08-10 17:16:03.356875,190.0
2023-08-10 17:16:03.364566,209.0
2023-08-10 17:16:03.372256,223.0
2023-08-10 17:16:03.379946,235.0
2023-08-10 17:16:03.387637,240.0
2023-08-10 17:16:03.395327,233.0
2023-08-10 17:16:03.403017,202.0
2023-08-10 17:16:03.410707,147.0
2023-08-10 17:16:03.418398,76.0
2023-08-10 17:16:03.426088,4.0
2023-08-10 17:16:03.433778,-59.0
2023-08-10 17:16:03.441469,-116.0
2023-08-10 17:16:03.449159,-166.0
2023-08-10 17:16:03.456849,-204.0
2023-08-10 17:16:03.464540,-228.0
2023-08-10 17:16:03.472230,-240.0
2023-08-10 17:16:03.479920,-242.0
2023-08-10 17:16:03.487611,-240.0
2023-08-10 17:16:03.495301,-238.0
2023-08-10 17:16:03.502991,-235.0
2023-08-10 17:16:03.510681,-230.0
2023-08-10 17:16:03.518372,-226.0
2023-08-10 17:16:03.526062,-216.0
2023-08-10 17:16:03.533752,-209.0
2023-08-10 17:16:03.541443,-199.0
2023-08-10 17:16:03.549133,-195.0
2023-08-10 17:16:03.556823,-190.0
2023-08-10 17:16:03.564514,-183.0
2023-08-10 17:16:03.572204,-176.0
2023-08-10 17:16:03.579894,-171.0
2023-08-10 17:16:03.587585,-169.0
2023-08-10 17:16:03.595275,-166.0
2023-08-10 17:16:03.602965,-159.0
2023-08-10 17:16:03.610656,-157.0
2023-08-10 17:16:03.618346,-157.0
2023-08-10 17:16:03.626036,-152.0
2023-08-10 17:16:03.633726,-149.0
2023-08-10 17:16:03.641417,-149.0
2023-08-10 17:16:03.649107,-147.0
2023-08-10 17:16:03.656797,-142.0
2023-08-10 17:16:03.664488,-140.0
2023-08-10 17:16:03.672178,-140.0
2023-08-10 17:16:03.679868,-140.0
2023-08-10 17:16:03.687559,-135.0
2023-08-10 17:16:03.695249,-133.0
2023-08-10 17:16:03.702939,-128.0
2023-08-10 17:16:03.710630,-128.0
2023-08-10 17:16:03.718320,-126.0
2023-08-10 17:16:03.726010,-121.0
2023-08-10 17:16:03.733700,-119.0
2023-08-10 17:16:03.741391,-119.0
2023-08-10 17:16:03.749081,-116.0
2023-08-10 17:16:03.756771,-111.0
2023-08-10 17:16:03.764462,-111.0
2023-08-10 17:16:03.772152,-109.0
2023-08-10 17:16:03.779842,-107.0
2023-08-10 17:16:03.787533,-104.0
2023-08-10 17:16:03.795223,-102.0
2023-08-10 17:16:03.802913,-97.0
2023-08-10 17:16:03.810604,-97.0
2023-08-10 17:16:03.818294,-95.0
2023-08-10 17:16:03.825984,-90.0
2023-08-10 17:16:03.833674,-88.0
2023-08-10 17:16:03.841365,-80.0
2023-08-10 17:16:03.849055,-66.0
2023-08-10 17:16:03.856745,-47.0
2023-08-10 17:16:03.864436,-38.0
2023-08-10 17:16:03.872126,-52.0
2023-08-10 17:16:03.879816,-71.0
2023-08-10 17:16:03.887507,-54.0
2023-08-10 17:16:03.895197,-45.0
2023-08-10 17:16:03.902887,-78.0
2023-08-10 17:16:03.910578,-104.0
2023-08-10 17:16:03.918268,-92.0
2023-08-10 17:16:03.925958,-88.0
2023-08-10 17:16:03.933649,-95.0
2023-08-10 17:16:03.941339,-90.0
2023-08-10 17:16:03.949029,-90.0
2023-08-10 17:16:03.956719,-95.0
2023-08-10 17:16:03.964410,-90.0
2023-08-10 17:16:03.972100,-90.0
2023-08-10 17:16:03.979790,-102.0
2023-08-10 17:16:03.987481,-61.0
2023-08-10 17:16:03.995171,152.0
2023-08-10 17:16:04.002861,537.0
2023-08-10 17:16:04.010552,895.0
2023-08-10 17:16:04.018242,880.0
2023-08-10 17:16:04.025932,299.0
2023-08-10 17:16:04.033623,-228.0
2023-08-10 17:16:04.041313,-114.0
2023-08-10 17:16:04.049003,54.0
2023-08-10 17:16:04.056693,-102.0
2023-08-10 17:16:04.064384,-154.0
2023-08-10 17:16:04.072074,-78.0
2023-08-10 17:16:04.079764,-97.0
2023-08-10 17:16:04.087455,-119.0
2023-08-10 17:16:04.095145,-90.0
2023-08-10 17:16:04.102835,-83.0
2023-08-10 17:16:04.110526,-88.0
2023-08-10 17:16:04.118216,-71.0
2023-08-10 17:16:04.125906,-59.0
2023-08-10 17:16:04.133597,-54.0
2023-08-10 17:16:04.141287,-40.0
2023-08-10 17:16:04.148977,-26.0
2023-08-10 17:16:04.156668,-14.0
2023-08-10 17:16:04.164358,-2.0
2023-08-10 17:16:04.172048,16.0
2023-08-10 17:16:04.179738,38.0
2023-08-10 17:16:04.187429,64.0
2023-08-10 17:16:04.195119,85.0
2023-08-10 17:16:04.202809,109.0
2023-08-10 17:16:04.210500,140.0
2023-08-10 17:16:04.218190,166.0
2023-08-10 17:16:04.225880,185.0
2023-08-10 17:16:04.233571,204.0
2023-08-10 17:16:04.241261,218.0
2023-08-10 17:16:04.248951,218.0
2023-08-10 17:16:04.256642,211.0
2023-08-10 17:16:04.264332,192.0
2023-08-10 17:16:04.272022,152.0
2023-08-10 17:16:04.279712,92.0
2023-08-10 17:16:04.287403,23.0
2023-08-10 17:16:04.295093,-45.0
2023-08-10 17:16:04.302783,-107.0
2023-08-10 17:16:04.310474,-152.0
2023-08-10 17:16:04.318164,-190.0
2023-08-10 17:16:04.325854,-214.0
2023-08-10 17:16:04.333545,-228.0
2023-08-10 17:16:04.341235,-235.0
2023-08-10 17:16:04.348925,-233.0
2023-08-10 17:16:04.356616,-230.0
2023-08-10 17:16:04.364306,-228.0
2023-08-10 17:16:04.371996,-221.0
2023-08-10 17:16:04.379686,-211.0
2023-08-10 17:16:04.387377,-207.0
2023-08-10 17:16:04.395067,-199.0
2023-08-10 17:16:04.402757,-192.0
2023-08-10 17:16:04.410448,-188.0
2023-08-10 17:16:04.418138,-185.0
2023-08-10 17:16:04.425828,-180.0
2023-08-10 17:16:04.433519,-173.0
2023-08-10 17:16:04.441209,-169.0
2023-08-10 17:16:04.448899,-164.0
2023-08-10 17:16:04.456590,-161.0
2023-08-10 17:16:04.464280,-159.0
2023-08-10 17:16:04.471970,-157.0
2023-08-10 17:16:04.479661,-157.0
2023-08-10 17:16:04.487351,-161.0
2023-08-10 17:16:04.495041,-164.0
2023-08-10 17:16:04.502731,-159.0
2023-08-10 17:16:04.510422,-154.0
2023-08-10 17:16:04.518112,-159.0
2023-08-10 17:16:04.525802,-164.0
2023-08-10 17:16:04.533493,-157.0
2023-08-10 17:16:04.541183,-154.0
2023-08-10 17:16:04.548873,-152.0
2023-08-10 17:16:04.556564,-147.0
2023-08-10 17:16:04.564254,-142.0
2023-08-10 17:16:04.571944,-142.0
2023-08-10 17:16:04.579635,-140.0
2023-08-10 17:16:04.587325,-135.0
2023-08-10 17:16:04.595015,-130.0
2023-08-10 17:16:04.602705,-128.0
2023-08-10 17:16:04.610396,-126.0
2023-08-10 17:16:04.618086,-123.0
2023-08-10 17:16:04.625776,-119.0
2023-08-10 17:16:04.633467,-116.0
2023-08-10 17:16:04.641157,-116.0
2023-08-10 17:16:04.648847,-114.0
2023-08-10 17:16:04.656538,-111.0
2023-08-10 17:16:04.664228,-111.0
2023-08-10 17:16:04.671918,-109.0
2023-08-10 17:16:04.679609,-107.0
2023-08-10 17:16:04.687299,-102.0
2023-08-10 17:16:04.694989,-99.0
2023-08-10 17:16:04.702680,-97.0
2023-08-10 17:16:04.710370,-97.0
2023-08-10 17:16:04.718060,-97.0
2023-08-10 17:16:04.725750,-95.0
2023-08-10 17:16:04.733441,-85.0
2023-08-10 17:16:04.741131,-69.0
2023-08-10 17:16:04.748821,-54.0
2023-08-10 17:16:04.756512,-42.0
2023-08-10 17:16:04.764202,-45.0
2023-08-10 17:16:04.771892,-64.0
2023-08-10 17:16:04.779583,-61.0
2023-08-10 17:16:04.787273,-42.0
2023-08-10 17:16:04.794963,-59.0
2023-08-10 17:16:04.802654,-95.0
2023-08-10 17:16:04.810344,-95.0
2023-08-10 17:16:04.818034,-78.0
2023-08-10 17:16:04.825724,-80.0
2023-08-10 17:16:04.833415,-85.0
2023-08-10 17:16:04.841105,-83.0
2023-08-10 17:16:04.848795,-80.0
2023-08-10 17:16:04.856486,-78.0
2023-08-10 17:16:04.864176,-76.0
2023-08-10 17:16:04.871866,-83.0
2023-08-10 17:16:04.879557,-80.0
2023-08-10 17:16:04.887247,4.0
2023-08-10 17:16:04.894937,283.0
2023-08-10 17:16:04.902628,683.0
2023-08-10 17:16:04.910318,949.0
2023-08-10 17:16:04.918008,733.0
2023-08-10 17:16:04.925698,76.0
2023-08-10 17:16:04.933389,-230.0
2023-08-10 17:16:04.941079,-2.0
2023-08-10 17:16:04.948769,33.0
2023-08-10 17:16:04.956460,-133.0
2023-08-10 17:16:04.964150,-111.0
2023-08-10 17:16:04.971840,-61.0
2023-08-10 17:16:04.979531,-102.0
2023-08-10 17:16:04.987221,-104.0
2023-08-10 17:16:04.994911,-76.0
2023-08-10 17:16:05.002602,-76.0
2023-08-10 17:16:05.010292,-73.0
2023-08-10 17:16:05.017982,-59.0
2023-08-10 17:16:05.025673,-57.0
2023-08-10 17:16:05.033363,-54.0
2023-08-10 17:16:05.041053,-38.0
2023-08-10 17:16:05.048743,-21.0
2023-08-10 17:16:05.056434,-7.0
2023-08-10 17:16:05.064124,11.0
2023-08-10 17:16:05.071814,23.0
2023-08-10 17:16:05.079505,33.0
2023-08-10 17:16:05.087195,59.0
2023-08-10 17:16:05.094885,90.0
2023-08-10 17:16:05.102576,111.0
2023-08-10 17:16:05.110266,135.0
2023-08-10 17:16:05.117956,164.0
2023-08-10 17:16:05.125647,185.0
2023-08-10 17:16:05.133337,199.0
2023-08-10 17:16:05.141027,207.0
2023-08-10 17:16:05.148717,209.0
2023-08-10 17:16:05.156408,197.0
2023-08-10 17:16:05.164098,171.0
2023-08-10 17:16:05.171788,126.0
2023-08-10 17:16:05.179479,59.0
2023-08-10 17:16:05.187169,-7.0
2023-08-10 17:16:05.194859,-66.0
2023-08-10 17:16:05.202550,-121.0
2023-08-10 17:16:05.210240,-171.0
2023-08-10 17:16:05.217930,-209.0
2023-08-10 17:16:05.225621,-221.0
2023-08-10 17:16:05.233311,-226.0
2023-08-10 17:16:05.241001,-235.0
2023-08-10 17:16:05.248692,-238.0
2023-08-10 17:16:05.256382,-235.0
2023-08-10 17:16:05.264072,-233.0
2023-08-10 17:16:05.271762,-226.0
2023-08-10 17:16:05.279453,-216.0
2023-08-10 17:16:05.287143,-209.0
2023-08-10 17:16:05.294833,-202.0
2023-08-10 17:16:05.302524,-195.0
2023-08-10 17:16:05.310214,-192.0
2023-08-10 17:16:05.317904,-188.0
2023-08-10 17:16:05.325595,-180.0
2023-08-10 17:16:05.333285,-176.0
2023-08-10 17:16:05.340975,-171.0
2023-08-10 17:16:05.348666,-166.0
2023-08-10 17:16:05.356356,-159.0
2023-08-10 17:16:05.364046,-157.0
2023-08-10 17:16:05.371736,-161.0
2023-08-10 17:16:05.379427,-161.0
2023-08-10 17:16:05.387117,-154.0
2023-08-10 17:16:05.394807,-149.0
2023-08-10 17:16:05.402498,-154.0
2023-08-10 17:16:05.410188,-157.0
2023-08-10 17:16:05.417878,-154.0
2023-08-10 17:16:05.425569,-152.0
2023-08-10 17:16:05.433259,-147.0
2023-08-10 17:16:05.440949,-142.0
2023-08-10 17:16:05.448640,-140.0
2023-08-10 17:16:05.456330,-138.0
2023-08-10 17:16:05.464020,-135.0
2023-08-10 17:16:05.471710,-133.0
2023-08-10 17:16:05.479401,-130.0
2023-08-10 17:16:05.487091,-128.0
2023-08-10 17:16:05.494781,-128.0
2023-08-10 17:16:05.502472,-126.0
2023-08-10 17:16:05.510162,-126.0
2023-08-10 17:16:05.517852,-123.0
2023-08-10 17:16:05.525543,-119.0
2023-08-10 17:16:05.533233,-116.0
2023-08-10 17:16:05.540923,-121.0
2023-08-10 17:16:05.548614,-121.0
2023-08-10 17:16:05.556304,-109.0
2023-08-10 17:16:05.563994,-102.0
2023-08-10 17:16:05.571685,-107.0
2023-08-10 17:16:05.579375,-104.0
2023-08-10 17:16:05.587065,-97.0
2023-08-10 17:16:05.594755,-95.0
2023-08-10 17:16:05.602446,-99.0
2023-08-10 17:16:05.610136,-107.0
2023-08-10 17:16:05.617826,-107.0
2023-08-10 17:16:05.625517,-99.0
2023-08-10 17:16:05.633207,-97.0
2023-08-10 17:16:05.640897,-104.0
2023-08-10 17:16:05.648588,-102.0
2023-08-10 17:16:05.656278,-88.0
2023-08-10 17:16:05.663968,-71.0
2023-08-10 17:16:05.671659,-49.0
2023-08-10 17:16:05.679349,-40.0
2023-08-10 17:16:05.687039,-64.0
2023-08-10 17:16:05.694729,-80.0
2023-08-10 17:16:05.702420,-59.0
2023-08-10 17:16:05.710110,-52.0
2023-08-10 17:16:05.717800,-83.0
2023-08-10 17:16:05.725491,-99.0
2023-08-10 17:16:05.733181,-88.0
2023-08-10 17:16:05.740871,-83.0
2023-08-10 17:16:05.748562,-92.0
2023-08-10 17:16:05.756252,-90.0
2023-08-10 17:16:05.763942,-88.0
2023-08-10 17:16:05.771633,-88.0
2023-08-10 17:16:05.779323,-80.0
2023-08-10 17:16:05.787013,-76.0
2023-08-10 17:16:05.794704,-83.0
2023-08-10 17:16:05.802394,-64.0
2023-08-10 17:16:05.810084,90.0
2023-08-10 17:16:05.817774,461.0
2023-08-10 17:16:05.825465,878.0
2023-08-10 17:16:05.833155,947.0
2023-08-10 17:16:05.840845,416.0
2023-08-10 17:16:05.848536,-233.0
2023-08-10 17:16:05.856226,-216.0
2023-08-10 17:16:05.863916,73.0
2023-08-10 17:16:05.871607,-23.0
2023-08-10 17:16:05.879297,-154.0
2023-08-10 17:16:05.886987,-85.0
2023-08-10 17:16:05.894678,-73.0
2023-08-10 17:16:05.902368,-114.0
2023-08-10 17:16:05.910058,-92.0
2023-08-10 17:16:05.917748,-69.0
2023-08-10 17:16:05.925439,-76.0
2023-08-10 17:16:05.933129,-69.0
2023-08-10 17:16:05.940819,-54.0
2023-08-10 17:16:05.948510,-47.0
2023-08-10 17:16:05.956200,-38.0
2023-08-10 17:16:05.963890,-16.0
2023-08-10 17:16:05.971581,-2.0
2023-08-10 17:16:05.979271,11.0
2023-08-10 17:16:05.986961,33.0
2023-08-10 17:16:05.994652,57.0
2023-08-10 17:16:06.002342,78.0
2023-08-10 17:16:06.010032,102.0
2023-08-10 17:16:06.017722,121.0
2023-08-10 17:16:06.025413,142.0
2023-08-10 17:16:06.033103,173.0
2023-08-10 17:16:06.040793,202.0
2023-08-10 17:16:06.048484,218.0
2023-08-10 17:16:06.056174,230.0
2023-08-10 17:16:06.063864,235.0
2023-08-10 17:16:06.071555,235.0
2023-08-10 17:16:06.079245,221.0
2023-08-10 17:16:06.086935,190.0
2023-08-10 17:16:06.094626,138.0
2023-08-10 17:16:06.102316,66.0
2023-08-10 17:16:06.110006,-7.0
2023-08-10 17:16:06.117697,-71.0
2023-08-10 17:16:06.125387,-128.0
2023-08-10 17:16:06.133077,-176.0
2023-08-10 17:16:06.140767,-207.0
2023-08-10 17:16:06.148458,-226.0
2023-08-10 17:16:06.156148,-240.0
2023-08-10 17:16:06.163838,-247.0
2023-08-10 17:16:06.171529,-242.0
2023-08-10 17:16:06.179219,-233.0
2023-08-10 17:16:06.186909,-226.0
2023-08-10 17:16:06.194600,-223.0
2023-08-10 17:16:06.202290,-226.0
2023-08-10 17:16:06.209980,-221.0
2023-08-10 17:16:06.217671,-207.0
2023-08-10 17:16:06.225361,-199.0
2023-08-10 17:16:06.233051,-197.0
2023-08-10 17:16:06.240741,-192.0
2023-08-10 17:16:06.248432,-192.0
2023-08-10 17:16:06.256122,-190.0
2023-08-10 17:16:06.263812,-183.0
2023-08-10 17:16:06.271503,-178.0
2023-08-10 17:16:06.279193,-176.0
2023-08-10 17:16:06.286883,-176.0
2023-08-10 17:16:06.294574,-183.0
2023-08-10 17:16:06.302264,-180.0
2023-08-10 17:16:06.309954,-171.0
2023-08-10 17:16:06.317645,-171.0
2023-08-10 17:16:06.325335,-169.0
2023-08-10 17:16:06.333025,-164.0
2023-08-10 17:16:06.340716,-161.0
2023-08-10 17:16:06.348406,-161.0
2023-08-10 17:16:06.356096,-157.0
2023-08-10 17:16:06.363786,-154.0
2023-08-10 17:16:06.371477,-149.0
2023-08-10 17:16:06.379167,-147.0
2023-08-10 17:16:06.386857,-147.0
2023-08-10 17:16:06.394548,-145.0
2023-08-10 17:16:06.402238,-138.0
2023-08-10 17:16:06.409928,-133.0
2023-08-10 17:16:06.417619,-133.0
2023-08-10 17:16:06.425309,-130.0
2023-08-10 17:16:06.432999,-123.0
2023-08-10 17:16:06.440690,-121.0
2023-08-10 17:16:06.448380,-119.0
2023-08-10 17:16:06.456070,-114.0
2023-08-10 17:16:06.463760,-111.0
2023-08-10 17:16:06.471451,-109.0
2023-08-10 17:16:06.479141,-109.0
2023-08-10 17:16:06.486831,-107.0
2023-08-10 17:16:06.494522,-102.0
2023-08-10 17:16:06.502212,-97.0
2023-08-10 17:16:06.509902,-95.0
2023-08-10 17:16:06.517593,-92.0
2023-08-10 17:16:06.525283,-95.0
2023-08-10 17:16:06.532973,-97.0
2023-08-10 17:16:06.540664,-95.0
2023-08-10 17:16:06.548354,-88.0
2023-08-10 17:16:06.556044,-76.0
2023-08-10 17:16:06.563734,-57.0
2023-08-10 17:16:06.571425,-40.0
2023-08-10 17:16:06.579115,-40.0
2023-08-10 17:16:06.586805,-61.0
2023-08-10 17:16:06.594496,-64.0
2023-08-10 17:16:06.602186,-45.0
2023-08-10 17:16:06.609876,-59.0
2023-08-10 17:16:06.617567,-92.0
2023-08-10 17:16:06.625257,-97.0
2023-08-10 17:16:06.632947,-85.0
2023-08-10 17:16:06.640638,-88.0
2023-08-10 17:16:06.648328,-90.0
2023-08-10 17:16:06.656018,-85.0
2023-08-10 17:16:06.663709,-80.0
2023-08-10 17:16:06.671399,-76.0
2023-08-10 17:16:06.679089,-73.0
2023-08-10 17:16:06.686779,-78.0
2023-08-10 17:16:06.694470,-80.0
2023-08-10 17:16:06.702160,-2.0
2023-08-10 17:16:06.709850,285.0
2023-08-10 17:16:06.717541,711.0
2023-08-10 17:16:06.725231,992.0
2023-08-10 17:16:06.732921,764.0
2023-08-10 17:16:06.740612,61.0
2023-08-10 17:16:06.748302,-283.0
2023-08-10 17:16:06.755992,-26.0
2023-08-10 17:16:06.763683,45.0
2023-08-10 17:16:06.771373,-140.0
2023-08-10 17:16:06.779063,-128.0
2023-08-10 17:16:06.786753,-64.0
2023-08-10 17:16:06.794444,-107.0
2023-08-10 17:16:06.802134,-111.0
2023-08-10 17:16:06.809824,-73.0
2023-08-10 17:16:06.817515,-73.0
2023-08-10 17:16:06.825205,-73.0
2023-08-10 17:16:06.832895,-57.0
2023-08-10 17:16:06.840586,-42.0
2023-08-10 17:16:06.848276,-35.0
2023-08-10 17:16:06.855966,-19.0
2023-08-10 17:16:06.863657,-2.0
2023-08-10 17:16:06.871347,9.0
2023-08-10 17:16:06.879037,23.0
2023-08-10 17:16:06.886728,42.0
2023-08-10 17:16:06.894418,64.0
2023-08-10 17:16:06.902108,88.0
2023-08-10 17:16:06.909798,114.0
2023-08-10 17:16:06.917489,140.0
2023-08-10 17:16:06.925179,166.0
2023-08-10 17:16:06.932869,190.0
2023-08-10 17:16:06.940560,214.0
2023-08-10 17:16:06.948250,235.0
2023-08-10 17:16:06.955940,240.0
2023-08-10 17:16:06.963631,238.0
2023-08-10 17:16:06.971321,228.0
2023-08-10 17:16:06.979011,204.0
2023-08-10 17:16:06.986702,157.0
2023-08-10 17:16:06.994392,95.0
2023-08-10 17:16:07.002082,26.0
2023-08-10 17:16:07.009772,-45.0
2023-08-10 17:16:07.017463,-102.0
2023-08-10 17:16:07.025153,-147.0
2023-08-10 17:16:07.032843,-185.0
2023-08-10 17:16:07.040534,-211.0
2023-08-10 17:16:07.048224,-218.0
2023-08-10 17:16:07.055914,-223.0
2023-08-10 17:16:07.063605,-226.0
2023-08-10 17:16:07.071295,-221.0
2023-08-10 17:16:07.078985,-216.0
2023-08-10 17:16:07.086676,-209.0
2023-08-10 17:16:07.094366,-202.0
2023-08-10 17:16:07.102056,-195.0
2023-08-10 17:16:07.109746,-190.0
2023-08-10 17:16:07.117437,-183.0
2023-08-10 17:16:07.125127,-176.0
2023-08-10 17:16:07.132817,-171.0
2023-08-10 17:16:07.140508,-169.0
2023-08-10 17:16:07.148198,-166.0
2023-08-10 17:16:07.155888,-161.0
2023-08-10 17:16:07.163579,-157.0
2023-08-10 17:16:07.171269,-152.0
2023-08-10 17:16:07.178959,-149.0
2023-08-10 17:16:07.186650,-147.0
2023-08-10 17:16:07.194340,-145.0
2023-08-10 17:16:07.202030,-145.0
2023-08-10 17:16:07.209721,-142.0
2023-08-10 17:16:07.217411,-140.0
2023-08-10 17:16:07.225101,-138.0
2023-08-10 17:16:07.232791,-140.0
2023-08-10 17:16:07.240482,-138.0
2023-08-10 17:16:07.248172,-135.0
2023-08-10 17:16:07.255862,-133.0
2023-08-10 17:16:07.263553,-128.0
2023-08-10 17:16:07.271243,-126.0
2023-08-10 17:16:07.278933,-126.0
2023-08-10 17:16:07.286624,-123.0
2023-08-10 17:16:07.294314,-121.0
2023-08-10 17:16:07.302004,-116.0
2023-08-10 17:16:07.309695,-114.0
2023-08-10 17:16:07.317385,-114.0
2023-08-10 17:16:07.325075,-116.0
2023-08-10 17:16:07.332765,-119.0
2023-08-10 17:16:07.340456,-116.0
2023-08-10 17:16:07.348146,-109.0
2023-08-10 17:16:07.355836,-107.0
2023-08-10 17:16:07.363527,-109.0
2023-08-10 17:16:07.371217,-109.0
2023-08-10 17:16:07.378907,-107.0
2023-08-10 17:16:07.386598,-104.0
2023-08-10 17:16:07.394288,-102.0
2023-08-10 17:16:07.401978,-99.0
2023-08-10 17:16:07.409669,-95.0
2023-08-10 17:16:07.417359,-95.0
2023-08-10 17:16:07.425049,-95.0
2023-08-10 17:16:07.432740,-92.0
2023-08-10 17:16:07.440430,-90.0
2023-08-10 17:16:07.448120,-85.0
2023-08-10 17:16:07.455810,-83.0
2023-08-10 17:16:07.463501,-73.0
2023-08-10 17:16:07.471191,-57.0
2023-08-10 17:16:07.478881,-40.0
