time,ECG
2023-08-21 17:39:17.732827,-2.0
2023-08-21 17:39:17.740515,-314.0
2023-08-21 17:39:17.748203,-187.0
2023-08-21 17:39:17.755892,-91.0
2023-08-21 17:39:17.763580,-163.0
2023-08-21 17:39:17.771268,-168.0
2023-08-21 17:39:17.778957,-129.0
2023-08-21 17:39:17.786645,-141.0
2023-08-21 17:39:17.794333,-141.0
2023-08-21 17:39:17.802022,-117.0
2023-08-21 17:39:17.809710,-112.0
2023-08-21 17:39:17.817398,-115.0
2023-08-21 17:39:17.825086,-103.0
2023-08-21 17:39:17.832775,-96.0
2023-08-21 17:39:17.840463,-96.0
2023-08-21 17:39:17.848151,-98.0
2023-08-21 17:39:17.855840,-93.0
2023-08-21 17:39:17.863528,-84.0
2023-08-21 17:39:17.871216,-81.0
2023-08-21 17:39:17.878905,-84.0
2023-08-21 17:39:17.886593,-76.0
2023-08-21 17:39:17.894281,-74.0
2023-08-21 17:39:17.901970,-72.0
2023-08-21 17:39:17.909658,-67.0
2023-08-21 17:39:17.917346,-69.0
2023-08-21 17:39:17.925035,-64.0
2023-08-21 17:39:17.932723,-52.0
2023-08-21 17:39:17.940411,-48.0
2023-08-21 17:39:17.948100,-36.0
2023-08-21 17:39:17.955788,-21.0
2023-08-21 17:39:17.963476,-9.0
2023-08-21 17:39:17.971165,4.0
2023-08-21 17:39:17.978853,19.0
2023-08-21 17:39:17.986541,28.0
2023-08-21 17:39:17.994230,43.0
2023-08-21 17:39:18.001918,64.0
2023-08-21 17:39:18.009606,76.0
2023-08-21 17:39:18.017295,84.0
2023-08-21 17:39:18.024983,93.0
2023-08-21 17:39:18.032671,96.0
2023-08-21 17:39:18.040360,86.0
2023-08-21 17:39:18.048048,64.0
2023-08-21 17:39:18.055736,36.0
2023-08-21 17:39:18.063425,2.0
2023-08-21 17:39:18.071113,-36.0
2023-08-21 17:39:18.078801,-67.0
2023-08-21 17:39:18.086489,-88.0
2023-08-21 17:39:18.094178,-105.0
2023-08-21 17:39:18.101866,-120.0
2023-08-21 17:39:18.109554,-120.0
2023-08-21 17:39:18.117243,-117.0
2023-08-21 17:39:18.124931,-117.0
2023-08-21 17:39:18.132619,-117.0
2023-08-21 17:39:18.140308,-117.0
2023-08-21 17:39:18.147996,-117.0
2023-08-21 17:39:18.155684,-110.0
2023-08-21 17:39:18.163373,-105.0
2023-08-21 17:39:18.171061,-103.0
2023-08-21 17:39:18.178749,-100.0
2023-08-21 17:39:18.186438,-96.0
2023-08-21 17:39:18.194126,-91.0
2023-08-21 17:39:18.201814,-86.0
2023-08-21 17:39:18.209503,-81.0
2023-08-21 17:39:18.217191,-79.0
2023-08-21 17:39:18.224879,-76.0
2023-08-21 17:39:18.232568,-79.0
2023-08-21 17:39:18.240256,-81.0
2023-08-21 17:39:18.247944,-79.0
2023-08-21 17:39:18.255633,-79.0
2023-08-21 17:39:18.263321,-81.0
2023-08-21 17:39:18.271009,-81.0
2023-08-21 17:39:18.278698,-81.0
2023-08-21 17:39:18.286386,-84.0
2023-08-21 17:39:18.294074,-81.0
2023-08-21 17:39:18.301763,-79.0
2023-08-21 17:39:18.309451,-84.0
2023-08-21 17:39:18.317139,-86.0
2023-08-21 17:39:18.324828,-84.0
2023-08-21 17:39:18.332516,-81.0
2023-08-21 17:39:18.340204,-81.0
2023-08-21 17:39:18.347892,-81.0
2023-08-21 17:39:18.355581,-88.0
2023-08-21 17:39:18.363269,-91.0
2023-08-21 17:39:18.370957,-91.0
2023-08-21 17:39:18.378646,-88.0
2023-08-21 17:39:18.386334,-91.0
2023-08-21 17:39:18.394022,-93.0
2023-08-21 17:39:18.401711,-93.0
2023-08-21 17:39:18.409399,-88.0
2023-08-21 17:39:18.417087,-88.0
2023-08-21 17:39:18.424776,-91.0
2023-08-21 17:39:18.432464,-91.0
2023-08-21 17:39:18.440152,-86.0
2023-08-21 17:39:18.447841,-86.0
2023-08-21 17:39:18.455529,-93.0
2023-08-21 17:39:18.463217,-100.0
2023-08-21 17:39:18.470906,-91.0
2023-08-21 17:39:18.478594,-84.0
2023-08-21 17:39:18.486282,-93.0
2023-08-21 17:39:18.493971,-96.0
2023-08-21 17:39:18.501659,-91.0
2023-08-21 17:39:18.509347,-91.0
2023-08-21 17:39:18.517036,-91.0
2023-08-21 17:39:18.524724,-91.0
2023-08-21 17:39:18.532412,-88.0
2023-08-21 17:39:18.540101,-91.0
2023-08-21 17:39:18.547789,-88.0
2023-08-21 17:39:18.555477,-81.0
2023-08-21 17:39:18.563166,-84.0
2023-08-21 17:39:18.570854,-84.0
2023-08-21 17:39:18.578542,-81.0
2023-08-21 17:39:18.586231,-79.0
2023-08-21 17:39:18.593919,-79.0
2023-08-21 17:39:18.601607,-79.0
2023-08-21 17:39:18.609295,-79.0
2023-08-21 17:39:18.616984,-81.0
2023-08-21 17:39:18.624672,-81.0
2023-08-21 17:39:18.632360,-74.0
2023-08-21 17:39:18.640049,-69.0
2023-08-21 17:39:18.647737,-72.0
2023-08-21 17:39:18.655425,-74.0
2023-08-21 17:39:18.663114,-74.0
2023-08-21 17:39:18.670802,-72.0
2023-08-21 17:39:18.678490,-64.0
2023-08-21 17:39:18.686179,-52.0
2023-08-21 17:39:18.693867,-31.0
2023-08-21 17:39:18.701555,-12.0
2023-08-21 17:39:18.709244,-21.0
2023-08-21 17:39:18.716932,-45.0
2023-08-21 17:39:18.724620,-55.0
2023-08-21 17:39:18.732309,-67.0
2023-08-21 17:39:18.739997,-84.0
2023-08-21 17:39:18.747685,-86.0
2023-08-21 17:39:18.755374,-74.0
2023-08-21 17:39:18.763062,-69.0
2023-08-21 17:39:18.770750,-74.0
2023-08-21 17:39:18.778439,-76.0
2023-08-21 17:39:18.786127,-67.0
2023-08-21 17:39:18.793815,-45.0
2023-08-21 17:39:18.801504,79.0
2023-08-21 17:39:18.809192,432.0
2023-08-21 17:39:18.816880,799.0
2023-08-21 17:39:18.824569,703.0
2023-08-21 17:39:18.832257,134.0
2023-08-21 17:39:18.839945,-285.0
2023-08-21 17:39:18.847634,-230.0
2023-08-21 17:39:18.855322,-103.0
2023-08-21 17:39:18.863010,-148.0
2023-08-21 17:39:18.870698,-175.0
2023-08-21 17:39:18.878387,-141.0
2023-08-21 17:39:18.886075,-136.0
2023-08-21 17:39:18.893763,-139.0
2023-08-21 17:39:18.901452,-127.0
2023-08-21 17:39:18.909140,-122.0
2023-08-21 17:39:18.916828,-115.0
2023-08-21 17:39:18.924517,-105.0
2023-08-21 17:39:18.932205,-98.0
2023-08-21 17:39:18.939893,-93.0
2023-08-21 17:39:18.947582,-88.0
2023-08-21 17:39:18.955270,-91.0
2023-08-21 17:39:18.962958,-84.0
2023-08-21 17:39:18.970647,-74.0
2023-08-21 17:39:18.978335,-67.0
2023-08-21 17:39:18.986023,-60.0
2023-08-21 17:39:18.993712,-60.0
2023-08-21 17:39:19.001400,-60.0
2023-08-21 17:39:19.009088,-50.0
2023-08-21 17:39:19.016777,-43.0
2023-08-21 17:39:19.024465,-40.0
2023-08-21 17:39:19.032153,-33.0
2023-08-21 17:39:19.039842,-33.0
2023-08-21 17:39:19.047530,-31.0
2023-08-21 17:39:19.055218,-14.0
2023-08-21 17:39:19.062907,4.0
2023-08-21 17:39:19.070595,16.0
2023-08-21 17:39:19.078283,26.0
2023-08-21 17:39:19.085972,36.0
2023-08-21 17:39:19.093660,52.0
2023-08-21 17:39:19.101348,67.0
2023-08-21 17:39:19.109037,84.0
2023-08-21 17:39:19.116725,98.0
2023-08-21 17:39:19.124413,103.0
2023-08-21 17:39:19.132101,103.0
2023-08-21 17:39:19.139790,100.0
2023-08-21 17:39:19.147478,84.0
2023-08-21 17:39:19.155166,52.0
2023-08-21 17:39:19.162855,16.0
2023-08-21 17:39:19.170543,-24.0
2023-08-21 17:39:19.178231,-62.0
2023-08-21 17:39:19.185920,-88.0
2023-08-21 17:39:19.193608,-110.0
2023-08-21 17:39:19.201296,-122.0
2023-08-21 17:39:19.208985,-122.0
2023-08-21 17:39:19.216673,-124.0
2023-08-21 17:39:19.224361,-129.0
2023-08-21 17:39:19.232050,-129.0
2023-08-21 17:39:19.239738,-122.0
2023-08-21 17:39:19.247426,-112.0
2023-08-21 17:39:19.255115,-108.0
2023-08-21 17:39:19.262803,-108.0
2023-08-21 17:39:19.270491,-108.0
2023-08-21 17:39:19.278180,-105.0
2023-08-21 17:39:19.285868,-98.0
2023-08-21 17:39:19.293556,-88.0
2023-08-21 17:39:19.301245,-86.0
2023-08-21 17:39:19.308933,-86.0
2023-08-21 17:39:19.316621,-86.0
2023-08-21 17:39:19.324310,-84.0
2023-08-21 17:39:19.331998,-84.0
2023-08-21 17:39:19.339686,-84.0
2023-08-21 17:39:19.347375,-84.0
2023-08-21 17:39:19.355063,-91.0
2023-08-21 17:39:19.362751,-96.0
2023-08-21 17:39:19.370440,-96.0
2023-08-21 17:39:19.378128,-100.0
2023-08-21 17:39:19.385816,-100.0
2023-08-21 17:39:19.393504,-96.0
2023-08-21 17:39:19.401193,-98.0
2023-08-21 17:39:19.408881,-103.0
2023-08-21 17:39:19.416569,-103.0
2023-08-21 17:39:19.424258,-103.0
2023-08-21 17:39:19.431946,-103.0
2023-08-21 17:39:19.439634,-103.0
2023-08-21 17:39:19.447323,-100.0
2023-08-21 17:39:19.455011,-98.0
2023-08-21 17:39:19.462699,-100.0
2023-08-21 17:39:19.470388,-100.0
2023-08-21 17:39:19.478076,-96.0
2023-08-21 17:39:19.485764,-93.0
2023-08-21 17:39:19.493453,-93.0
2023-08-21 17:39:19.501141,-93.0
2023-08-21 17:39:19.508829,-91.0
2023-08-21 17:39:19.516518,-93.0
2023-08-21 17:39:19.524206,-98.0
2023-08-21 17:39:19.531894,-96.0
2023-08-21 17:39:19.539583,-91.0
2023-08-21 17:39:19.547271,-91.0
2023-08-21 17:39:19.554959,-93.0
2023-08-21 17:39:19.562648,-91.0
2023-08-21 17:39:19.570336,-88.0
2023-08-21 17:39:19.578024,-91.0
2023-08-21 17:39:19.585713,-93.0
2023-08-21 17:39:19.593401,-86.0
2023-08-21 17:39:19.601089,-86.0
2023-08-21 17:39:19.608778,-91.0
2023-08-21 17:39:19.616466,-96.0
2023-08-21 17:39:19.624154,-98.0
2023-08-21 17:39:19.631843,-103.0
2023-08-21 17:39:19.639531,-100.0
2023-08-21 17:39:19.647219,-98.0
2023-08-21 17:39:19.654907,-96.0
2023-08-21 17:39:19.662596,-93.0
2023-08-21 17:39:19.670284,-93.0
2023-08-21 17:39:19.677972,-93.0
2023-08-21 17:39:19.685661,-88.0
2023-08-21 17:39:19.693349,-84.0
2023-08-21 17:39:19.701037,-81.0
2023-08-21 17:39:19.708726,-76.0
2023-08-21 17:39:19.716414,-60.0
2023-08-21 17:39:19.724102,-38.0
2023-08-21 17:39:19.731791,-28.0
2023-08-21 17:39:19.739479,-43.0
2023-08-21 17:39:19.747167,-55.0
2023-08-21 17:39:19.754856,-64.0
2023-08-21 17:39:19.762544,-86.0
2023-08-21 17:39:19.770232,-96.0
2023-08-21 17:39:19.777921,-86.0
2023-08-21 17:39:19.785609,-84.0
2023-08-21 17:39:19.793297,-86.0
2023-08-21 17:39:19.800986,-86.0
2023-08-21 17:39:19.808674,-79.0
2023-08-21 17:39:19.816362,-76.0
2023-08-21 17:39:19.824051,-45.0
2023-08-21 17:39:19.831739,134.0
2023-08-21 17:39:19.839427,530.0
2023-08-21 17:39:19.847116,828.0
2023-08-21 17:39:19.854804,592.0
2023-08-21 17:39:19.862492,-14.0
2023-08-21 17:39:19.870181,-340.0
2023-08-21 17:39:19.877869,-216.0
2023-08-21 17:39:19.885557,-105.0
2023-08-21 17:39:19.893246,-168.0
2023-08-21 17:39:19.900934,-177.0
2023-08-21 17:39:19.908622,-139.0
2023-08-21 17:39:19.916310,-141.0
2023-08-21 17:39:19.923999,-146.0
2023-08-21 17:39:19.931687,-129.0
2023-08-21 17:39:19.939375,-127.0
2023-08-21 17:39:19.947064,-129.0
2023-08-21 17:39:19.954752,-115.0
2023-08-21 17:39:19.962440,-105.0
2023-08-21 17:39:19.970129,-103.0
2023-08-21 17:39:19.977817,-98.0
2023-08-21 17:39:19.985505,-91.0
2023-08-21 17:39:19.993194,-84.0
2023-08-21 17:39:20.000882,-76.0
2023-08-21 17:39:20.008570,-74.0
2023-08-21 17:39:20.016259,-74.0
2023-08-21 17:39:20.023947,-67.0
2023-08-21 17:39:20.031635,-62.0
2023-08-21 17:39:20.039324,-57.0
2023-08-21 17:39:20.047012,-48.0
2023-08-21 17:39:20.054700,-40.0
2023-08-21 17:39:20.062389,-38.0
2023-08-21 17:39:20.070077,-28.0
2023-08-21 17:39:20.077765,-16.0
2023-08-21 17:39:20.085454,-9.0
2023-08-21 17:39:20.093142,0.0
2023-08-21 17:39:20.100830,16.0
2023-08-21 17:39:20.108519,31.0
2023-08-21 17:39:20.116207,36.0
2023-08-21 17:39:20.123895,40.0
2023-08-21 17:39:20.131584,55.0
2023-08-21 17:39:20.139272,69.0
2023-08-21 17:39:20.146960,81.0
2023-08-21 17:39:20.154649,91.0
2023-08-21 17:39:20.162337,88.0
2023-08-21 17:39:20.170025,69.0
2023-08-21 17:39:20.177713,40.0
2023-08-21 17:39:20.185402,12.0
2023-08-21 17:39:20.193090,-24.0
2023-08-21 17:39:20.200778,-60.0
2023-08-21 17:39:20.208467,-88.0
2023-08-21 17:39:20.216155,-108.0
2023-08-21 17:39:20.223843,-122.0
2023-08-21 17:39:20.231532,-134.0
2023-08-21 17:39:20.239220,-134.0
2023-08-21 17:39:20.246908,-132.0
2023-08-21 17:39:20.254597,-136.0
2023-08-21 17:39:20.262285,-134.0
2023-08-21 17:39:20.269973,-127.0
2023-08-21 17:39:20.277662,-122.0
2023-08-21 17:39:20.285350,-117.0
2023-08-21 17:39:20.293038,-112.0
2023-08-21 17:39:20.300727,-110.0
2023-08-21 17:39:20.308415,-105.0
2023-08-21 17:39:20.316103,-98.0
2023-08-21 17:39:20.323792,-91.0
2023-08-21 17:39:20.331480,-88.0
2023-08-21 17:39:20.339168,-88.0
2023-08-21 17:39:20.346857,-86.0
2023-08-21 17:39:20.354545,-88.0
2023-08-21 17:39:20.362233,-91.0
2023-08-21 17:39:20.369922,-96.0
2023-08-21 17:39:20.377610,-98.0
2023-08-21 17:39:20.385298,-103.0
2023-08-21 17:39:20.392987,-105.0
2023-08-21 17:39:20.400675,-98.0
2023-08-21 17:39:20.408363,-96.0
2023-08-21 17:39:20.416052,-96.0
2023-08-21 17:39:20.423740,-96.0
2023-08-21 17:39:20.431428,-98.0
2023-08-21 17:39:20.439116,-103.0
2023-08-21 17:39:20.446805,-98.0
2023-08-21 17:39:20.454493,-91.0
2023-08-21 17:39:20.462181,-96.0
2023-08-21 17:39:20.469870,-96.0
2023-08-21 17:39:20.477558,-93.0
2023-08-21 17:39:20.485246,-91.0
2023-08-21 17:39:20.492935,-91.0
2023-08-21 17:39:20.500623,-91.0
2023-08-21 17:39:20.508311,-91.0
2023-08-21 17:39:20.516000,-88.0
2023-08-21 17:39:20.523688,-93.0
2023-08-21 17:39:20.531376,-96.0
2023-08-21 17:39:20.539065,-93.0
2023-08-21 17:39:20.546753,-86.0
2023-08-21 17:39:20.554441,-86.0
2023-08-21 17:39:20.562130,-84.0
2023-08-21 17:39:20.569818,-84.0
2023-08-21 17:39:20.577506,-84.0
2023-08-21 17:39:20.585195,-84.0
2023-08-21 17:39:20.592883,-88.0
2023-08-21 17:39:20.600571,-88.0
2023-08-21 17:39:20.608260,-91.0
2023-08-21 17:39:20.615948,-96.0
2023-08-21 17:39:20.623636,-96.0
2023-08-21 17:39:20.631325,-93.0
2023-08-21 17:39:20.639013,-91.0
2023-08-21 17:39:20.646701,-88.0
2023-08-21 17:39:20.654390,-91.0
2023-08-21 17:39:20.662078,-103.0
2023-08-21 17:39:20.669766,-103.0
2023-08-21 17:39:20.677455,-91.0
2023-08-21 17:39:20.685143,-93.0
2023-08-21 17:39:20.692831,-93.0
2023-08-21 17:39:20.700519,-93.0
2023-08-21 17:39:20.708208,-105.0
2023-08-21 17:39:20.715896,-105.0
2023-08-21 17:39:20.723584,-96.0
2023-08-21 17:39:20.731273,-93.0
2023-08-21 17:39:20.738961,-93.0
2023-08-21 17:39:20.746649,-93.0
2023-08-21 17:39:20.754338,-91.0
2023-08-21 17:39:20.762026,-86.0
2023-08-21 17:39:20.769714,-81.0
2023-08-21 17:39:20.777403,-79.0
2023-08-21 17:39:20.785091,-81.0
2023-08-21 17:39:20.792779,-86.0
2023-08-21 17:39:20.800468,-93.0
2023-08-21 17:39:20.808156,-88.0
2023-08-21 17:39:20.815844,-76.0
2023-08-21 17:39:20.823533,-67.0
2023-08-21 17:39:20.831221,-48.0
2023-08-21 17:39:20.838909,-36.0
2023-08-21 17:39:20.846598,-50.0
2023-08-21 17:39:20.854286,-69.0
2023-08-21 17:39:20.861974,-76.0
2023-08-21 17:39:20.869663,-93.0
2023-08-21 17:39:20.877351,-115.0
2023-08-21 17:39:20.885039,-120.0
2023-08-21 17:39:20.892728,-112.0
2023-08-21 17:39:20.900416,-108.0
2023-08-21 17:39:20.908104,-100.0
2023-08-21 17:39:20.915793,-91.0
2023-08-21 17:39:20.923481,-88.0
2023-08-21 17:39:20.931169,-88.0
2023-08-21 17:39:20.938858,0.0
2023-08-21 17:39:20.946546,312.0
2023-08-21 17:39:20.954234,715.0
2023-08-21 17:39:20.961922,765.0
2023-08-21 17:39:20.969611,290.0
2023-08-21 17:39:20.977299,-235.0
2023-08-21 17:39:20.984987,-295.0
2023-08-21 17:39:20.992676,-117.0
2023-08-21 17:39:21.000364,-122.0
2023-08-21 17:39:21.008052,-184.0
2023-08-21 17:39:21.015741,-153.0
2023-08-21 17:39:21.023429,-136.0
2023-08-21 17:39:21.031117,-151.0
2023-08-21 17:39:21.038806,-132.0
2023-08-21 17:39:21.046494,-115.0
2023-08-21 17:39:21.054182,-117.0
2023-08-21 17:39:21.061871,-112.0
2023-08-21 17:39:21.069559,-100.0
2023-08-21 17:39:21.077247,-98.0
2023-08-21 17:39:21.084936,-91.0
2023-08-21 17:39:21.092624,-88.0
2023-08-21 17:39:21.100312,-91.0
2023-08-21 17:39:21.108001,-84.0
2023-08-21 17:39:21.115689,-69.0
2023-08-21 17:39:21.123377,-67.0
2023-08-21 17:39:21.131066,-67.0
2023-08-21 17:39:21.138754,-62.0
2023-08-21 17:39:21.146442,-60.0
2023-08-21 17:39:21.154131,-55.0
2023-08-21 17:39:21.161819,-45.0
2023-08-21 17:39:21.169507,-36.0
2023-08-21 17:39:21.177196,-24.0
2023-08-21 17:39:21.184884,-21.0
2023-08-21 17:39:21.192572,-16.0
2023-08-21 17:39:21.200261,-2.0
2023-08-21 17:39:21.207949,12.0
2023-08-21 17:39:21.215637,24.0
2023-08-21 17:39:21.223325,43.0
2023-08-21 17:39:21.231014,62.0
2023-08-21 17:39:21.238702,74.0
2023-08-21 17:39:21.246390,88.0
2023-08-21 17:39:21.254079,103.0
2023-08-21 17:39:21.261767,108.0
2023-08-21 17:39:21.269455,112.0
2023-08-21 17:39:21.277144,120.0
2023-08-21 17:39:21.284832,105.0
2023-08-21 17:39:21.292520,64.0
2023-08-21 17:39:21.300209,21.0
2023-08-21 17:39:21.307897,-14.0
2023-08-21 17:39:21.315585,-43.0
2023-08-21 17:39:21.323274,-67.0
2023-08-21 17:39:21.330962,-86.0
2023-08-21 17:39:21.338650,-100.0
2023-08-21 17:39:21.346339,-112.0
2023-08-21 17:39:21.354027,-117.0
2023-08-21 17:39:21.361715,-117.0
2023-08-21 17:39:21.369404,-117.0
2023-08-21 17:39:21.377092,-112.0
2023-08-21 17:39:21.384780,-108.0
2023-08-21 17:39:21.392469,-110.0
2023-08-21 17:39:21.400157,-110.0
2023-08-21 17:39:21.407845,-105.0
2023-08-21 17:39:21.415534,-98.0
2023-08-21 17:39:21.423222,-91.0
2023-08-21 17:39:21.430910,-88.0
2023-08-21 17:39:21.438599,-86.0
2023-08-21 17:39:21.446287,-81.0
2023-08-21 17:39:21.453975,-79.0
2023-08-21 17:39:21.461664,-84.0
2023-08-21 17:39:21.469352,-84.0
2023-08-21 17:39:21.477040,-76.0
2023-08-21 17:39:21.484728,-74.0
2023-08-21 17:39:21.492417,-76.0
2023-08-21 17:39:21.500105,-76.0
2023-08-21 17:39:21.507793,-76.0
2023-08-21 17:39:21.515482,-76.0
2023-08-21 17:39:21.523170,-79.0
2023-08-21 17:39:21.530858,-79.0
2023-08-21 17:39:21.538547,-79.0
2023-08-21 17:39:21.546235,-81.0
2023-08-21 17:39:21.553923,-79.0
2023-08-21 17:39:21.561612,-81.0
2023-08-21 17:39:21.569300,-86.0
2023-08-21 17:39:21.576988,-81.0
2023-08-21 17:39:21.584677,-79.0
2023-08-21 17:39:21.592365,-86.0
2023-08-21 17:39:21.600053,-91.0
2023-08-21 17:39:21.607742,-84.0
2023-08-21 17:39:21.615430,-81.0
2023-08-21 17:39:21.623118,-86.0
2023-08-21 17:39:21.630807,-88.0
2023-08-21 17:39:21.638495,-84.0
2023-08-21 17:39:21.646183,-81.0
2023-08-21 17:39:21.653872,-76.0
2023-08-21 17:39:21.661560,-72.0
2023-08-21 17:39:21.669248,-76.0
2023-08-21 17:39:21.676937,-81.0
2023-08-21 17:39:21.684625,-76.0
2023-08-21 17:39:21.692313,-72.0
2023-08-21 17:39:21.700002,-81.0
2023-08-21 17:39:21.707690,-88.0
2023-08-21 17:39:21.715378,-79.0
2023-08-21 17:39:21.723067,-72.0
2023-08-21 17:39:21.730755,-79.0
2023-08-21 17:39:21.738443,-84.0
2023-08-21 17:39:21.746131,-76.0
2023-08-21 17:39:21.753820,-76.0
2023-08-21 17:39:21.761508,-81.0
2023-08-21 17:39:21.769196,-84.0
2023-08-21 17:39:21.776885,-76.0
2023-08-21 17:39:21.784573,-69.0
2023-08-21 17:39:21.792261,-74.0
2023-08-21 17:39:21.799950,-76.0
2023-08-21 17:39:21.807638,-74.0
2023-08-21 17:39:21.815326,-69.0
2023-08-21 17:39:21.823015,-67.0
2023-08-21 17:39:21.830703,-72.0
2023-08-21 17:39:21.838391,-74.0
2023-08-21 17:39:21.846080,-60.0
2023-08-21 17:39:21.853768,-55.0
2023-08-21 17:39:21.861456,-60.0
2023-08-21 17:39:21.869145,-43.0
2023-08-21 17:39:21.876833,-26.0
2023-08-21 17:39:21.884521,-43.0
2023-08-21 17:39:21.892210,-60.0
2023-08-21 17:39:21.899898,-62.0
2023-08-21 17:39:21.907586,-84.0
2023-08-21 17:39:21.915275,-110.0
2023-08-21 17:39:21.922963,-115.0
2023-08-21 17:39:21.930651,-105.0
2023-08-21 17:39:21.938340,-96.0
2023-08-21 17:39:21.946028,-93.0
2023-08-21 17:39:21.953716,-88.0
2023-08-21 17:39:21.961405,-79.0
2023-08-21 17:39:21.969093,-72.0
2023-08-21 17:39:21.976781,26.0
2023-08-21 17:39:21.984470,352.0
2023-08-21 17:39:21.992158,741.0
2023-08-21 17:39:21.999846,689.0
2023-08-21 17:39:22.007534,122.0
2023-08-21 17:39:22.015223,-316.0
2023-08-21 17:39:22.022911,-261.0
2023-08-21 17:39:22.030599,-110.0
2023-08-21 17:39:22.038288,-136.0
2023-08-21 17:39:22.045976,-165.0
2023-08-21 17:39:22.053664,-136.0
2023-08-21 17:39:22.061353,-134.0
2023-08-21 17:39:22.069041,-136.0
2023-08-21 17:39:22.076729,-122.0
2023-08-21 17:39:22.084418,-120.0
2023-08-21 17:39:22.092106,-122.0
2023-08-21 17:39:22.099794,-110.0
2023-08-21 17:39:22.107483,-103.0
2023-08-21 17:39:22.115171,-98.0
2023-08-21 17:39:22.122859,-84.0
2023-08-21 17:39:22.130548,-72.0
2023-08-21 17:39:22.138236,-76.0
2023-08-21 17:39:22.145924,-79.0
2023-08-21 17:39:22.153613,-64.0
2023-08-21 17:39:22.161301,-60.0
2023-08-21 17:39:22.168989,-62.0
2023-08-21 17:39:22.176678,-60.0
2023-08-21 17:39:22.184366,-52.0
2023-08-21 17:39:22.192054,-48.0
2023-08-21 17:39:22.199743,-38.0
2023-08-21 17:39:22.207431,-26.0
2023-08-21 17:39:22.215119,-19.0
2023-08-21 17:39:22.222808,-14.0
2023-08-21 17:39:22.230496,-4.0
2023-08-21 17:39:22.238184,7.0
2023-08-21 17:39:22.245872,14.0
2023-08-21 17:39:22.253561,24.0
2023-08-21 17:39:22.261249,43.0
2023-08-21 17:39:22.268937,64.0
2023-08-21 17:39:22.276626,74.0
2023-08-21 17:39:22.284314,81.0
2023-08-21 17:39:22.292002,96.0
2023-08-21 17:39:22.299691,108.0
2023-08-21 17:39:22.307379,110.0
2023-08-21 17:39:22.315067,100.0
2023-08-21 17:39:22.322756,79.0
2023-08-21 17:39:22.330444,48.0
2023-08-21 17:39:22.338132,9.0
2023-08-21 17:39:22.345821,-28.0
2023-08-21 17:39:22.353509,-62.0
2023-08-21 17:39:22.361197,-88.0
2023-08-21 17:39:22.368886,-115.0
2023-08-21 17:39:22.376574,-134.0
2023-08-21 17:39:22.384262,-136.0
2023-08-21 17:39:22.391951,-144.0
2023-08-21 17:39:22.399639,-151.0
2023-08-21 17:39:22.407327,-148.0
2023-08-21 17:39:22.415016,-139.0
2023-08-21 17:39:22.422704,-134.0
2023-08-21 17:39:22.430392,-127.0
2023-08-21 17:39:22.438081,-122.0
2023-08-21 17:39:22.445769,-117.0
2023-08-21 17:39:22.453457,-112.0
2023-08-21 17:39:22.461146,-110.0
2023-08-21 17:39:22.468834,-105.0
2023-08-21 17:39:22.476522,-96.0
2023-08-21 17:39:22.484211,-91.0
2023-08-21 17:39:22.491899,-91.0
2023-08-21 17:39:22.499587,-93.0
2023-08-21 17:39:22.507275,-96.0
2023-08-21 17:39:22.514964,-96.0
2023-08-21 17:39:22.522652,-91.0
2023-08-21 17:39:22.530340,-91.0
2023-08-21 17:39:22.538029,-88.0
2023-08-21 17:39:22.545717,-88.0
2023-08-21 17:39:22.553405,-96.0
2023-08-21 17:39:22.561094,-98.0
2023-08-21 17:39:22.568782,-93.0
2023-08-21 17:39:22.576470,-93.0
2023-08-21 17:39:22.584159,-93.0
2023-08-21 17:39:22.591847,-98.0
2023-08-21 17:39:22.599535,-100.0
2023-08-21 17:39:22.607224,-93.0
2023-08-21 17:39:22.614912,-91.0
2023-08-21 17:39:22.622600,-88.0
2023-08-21 17:39:22.630289,-88.0
2023-08-21 17:39:22.637977,-91.0
2023-08-21 17:39:22.645665,-88.0
2023-08-21 17:39:22.653354,-84.0
2023-08-21 17:39:22.661042,-84.0
2023-08-21 17:39:22.668730,-86.0
2023-08-21 17:39:22.676419,-84.0
2023-08-21 17:39:22.684107,-84.0
2023-08-21 17:39:22.691795,-88.0
2023-08-21 17:39:22.699484,-91.0
2023-08-21 17:39:22.707172,-88.0
2023-08-21 17:39:22.714860,-81.0
2023-08-21 17:39:22.722549,-79.0
2023-08-21 17:39:22.730237,-84.0
2023-08-21 17:39:22.737925,-86.0
2023-08-21 17:39:22.745614,-81.0
2023-08-21 17:39:22.753302,-81.0
2023-08-21 17:39:22.760990,-81.0
2023-08-21 17:39:22.768678,-79.0
2023-08-21 17:39:22.776367,-79.0
2023-08-21 17:39:22.784055,-79.0
2023-08-21 17:39:22.791743,-79.0
2023-08-21 17:39:22.799432,-79.0
2023-08-21 17:39:22.807120,-81.0
2023-08-21 17:39:22.814808,-84.0
2023-08-21 17:39:22.822497,-86.0
2023-08-21 17:39:22.830185,-86.0
2023-08-21 17:39:22.837873,-81.0
2023-08-21 17:39:22.845562,-79.0
2023-08-21 17:39:22.853250,-79.0
2023-08-21 17:39:22.860938,-79.0
2023-08-21 17:39:22.868627,-79.0
2023-08-21 17:39:22.876315,-74.0
2023-08-21 17:39:22.884003,-69.0
2023-08-21 17:39:22.891692,-72.0
2023-08-21 17:39:22.899380,-84.0
2023-08-21 17:39:22.907068,-81.0
2023-08-21 17:39:22.914757,-62.0
2023-08-21 17:39:22.922445,-40.0
2023-08-21 17:39:22.930133,-28.0
2023-08-21 17:39:22.937822,-31.0
2023-08-21 17:39:22.945510,-50.0
2023-08-21 17:39:22.953198,-67.0
2023-08-21 17:39:22.960887,-86.0
2023-08-21 17:39:22.968575,-100.0
2023-08-21 17:39:22.976263,-98.0
2023-08-21 17:39:22.983952,-91.0
2023-08-21 17:39:22.991640,-88.0
2023-08-21 17:39:22.999328,-96.0
2023-08-21 17:39:23.007017,-100.0
2023-08-21 17:39:23.014705,-96.0
2023-08-21 17:39:23.022393,-81.0
2023-08-21 17:39:23.030081,14.0
2023-08-21 17:39:23.037770,336.0
2023-08-21 17:39:23.045458,739.0
2023-08-21 17:39:23.053146,768.0
2023-08-21 17:39:23.060835,273.0
2023-08-21 17:39:23.068523,-256.0
2023-08-21 17:39:23.076211,-309.0
2023-08-21 17:39:23.083900,-124.0
2023-08-21 17:39:23.091588,-134.0
2023-08-21 17:39:23.099276,-199.0
2023-08-21 17:39:23.106965,-156.0
2023-08-21 17:39:23.114653,-136.0
2023-08-21 17:39:23.122341,-151.0
2023-08-21 17:39:23.130030,-134.0
2023-08-21 17:39:23.137718,-124.0
2023-08-21 17:39:23.145406,-129.0
2023-08-21 17:39:23.153095,-117.0
2023-08-21 17:39:23.160783,-103.0
2023-08-21 17:39:23.168471,-98.0
2023-08-21 17:39:23.176160,-98.0
2023-08-21 17:39:23.183848,-91.0
2023-08-21 17:39:23.191536,-86.0
2023-08-21 17:39:23.199225,-81.0
2023-08-21 17:39:23.206913,-74.0
2023-08-21 17:39:23.214601,-67.0
2023-08-21 17:39:23.222290,-64.0
2023-08-21 17:39:23.229978,-62.0
2023-08-21 17:39:23.237666,-57.0
2023-08-21 17:39:23.245355,-48.0
2023-08-21 17:39:23.253043,-38.0
2023-08-21 17:39:23.260731,-36.0
2023-08-21 17:39:23.268420,-28.0
2023-08-21 17:39:23.276108,-12.0
2023-08-21 17:39:23.283796,-4.0
2023-08-21 17:39:23.291484,2.0
2023-08-21 17:39:23.299173,19.0
2023-08-21 17:39:23.306861,33.0
2023-08-21 17:39:23.314549,36.0
2023-08-21 17:39:23.322238,52.0
2023-08-21 17:39:23.329926,79.0
2023-08-21 17:39:23.337614,91.0
2023-08-21 17:39:23.345303,96.0
2023-08-21 17:39:23.352991,110.0
2023-08-21 17:39:23.360679,115.0
2023-08-21 17:39:23.368368,103.0
2023-08-21 17:39:23.376056,91.0
2023-08-21 17:39:23.383744,72.0
2023-08-21 17:39:23.391433,36.0
2023-08-21 17:39:23.399121,-12.0
2023-08-21 17:39:23.406809,-52.0
2023-08-21 17:39:23.414498,-74.0
2023-08-21 17:39:23.422186,-91.0
2023-08-21 17:39:23.429874,-103.0
2023-08-21 17:39:23.437563,-103.0
2023-08-21 17:39:23.445251,-105.0
2023-08-21 17:39:23.452939,-108.0
2023-08-21 17:39:23.460628,-108.0
2023-08-21 17:39:23.468316,-103.0
2023-08-21 17:39:23.476004,-105.0
2023-08-21 17:39:23.483693,-105.0
2023-08-21 17:39:23.491381,-103.0
2023-08-21 17:39:23.499069,-105.0
2023-08-21 17:39:23.506758,-100.0
2023-08-21 17:39:23.514446,-96.0
2023-08-21 17:39:23.522134,-91.0
2023-08-21 17:39:23.529823,-84.0
2023-08-21 17:39:23.537511,-79.0
2023-08-21 17:39:23.545199,-79.0
2023-08-21 17:39:23.552887,-76.0
2023-08-21 17:39:23.560576,-79.0
2023-08-21 17:39:23.568264,-79.0
2023-08-21 17:39:23.575952,-79.0
2023-08-21 17:39:23.583641,-79.0
2023-08-21 17:39:23.591329,-79.0
2023-08-21 17:39:23.599017,-79.0
2023-08-21 17:39:23.606706,-76.0
2023-08-21 17:39:23.614394,-79.0
2023-08-21 17:39:23.622082,-81.0
2023-08-21 17:39:23.629771,-81.0
2023-08-21 17:39:23.637459,-79.0
2023-08-21 17:39:23.645147,-76.0
2023-08-21 17:39:23.652836,-76.0
2023-08-21 17:39:23.660524,-79.0
2023-08-21 17:39:23.668212,-76.0
2023-08-21 17:39:23.675901,-76.0
2023-08-21 17:39:23.683589,-76.0
2023-08-21 17:39:23.691277,-74.0
2023-08-21 17:39:23.698966,-69.0
2023-08-21 17:39:23.706654,-76.0
2023-08-21 17:39:23.714342,-79.0
2023-08-21 17:39:23.722031,-76.0
2023-08-21 17:39:23.729719,-76.0
2023-08-21 17:39:23.737407,-74.0
2023-08-21 17:39:23.745096,-72.0
2023-08-21 17:39:23.752784,-76.0
2023-08-21 17:39:23.760472,-74.0
2023-08-21 17:39:23.768161,-69.0
2023-08-21 17:39:23.775849,-69.0
2023-08-21 17:39:23.783537,-72.0
2023-08-21 17:39:23.791226,-72.0
2023-08-21 17:39:23.798914,-69.0
2023-08-21 17:39:23.806602,-72.0
2023-08-21 17:39:23.814290,-72.0
2023-08-21 17:39:23.821979,-72.0
2023-08-21 17:39:23.829667,-72.0
2023-08-21 17:39:23.837355,-74.0
2023-08-21 17:39:23.845044,-72.0
2023-08-21 17:39:23.852732,-76.0
2023-08-21 17:39:23.860420,-81.0
2023-08-21 17:39:23.868109,-72.0
2023-08-21 17:39:23.875797,-67.0
2023-08-21 17:39:23.883485,-72.0
2023-08-21 17:39:23.891174,-72.0
2023-08-21 17:39:23.898862,-69.0
2023-08-21 17:39:23.906550,-72.0
2023-08-21 17:39:23.914239,-74.0
2023-08-21 17:39:23.921927,-74.0
2023-08-21 17:39:23.929615,-74.0
2023-08-21 17:39:23.937304,-76.0
2023-08-21 17:39:23.944992,-72.0
2023-08-21 17:39:23.952680,-67.0
2023-08-21 17:39:23.960369,-67.0
2023-08-21 17:39:23.968057,-64.0
2023-08-21 17:39:23.975745,-64.0
2023-08-21 17:39:23.983434,-64.0
2023-08-21 17:39:23.991122,-64.0
2023-08-21 17:39:23.998810,-62.0
2023-08-21 17:39:24.006499,-55.0
2023-08-21 17:39:24.014187,-55.0
2023-08-21 17:39:24.021875,-57.0
2023-08-21 17:39:24.029564,-52.0
2023-08-21 17:39:24.037252,-38.0
2023-08-21 17:39:24.044940,-24.0
2023-08-21 17:39:24.052629,-28.0
2023-08-21 17:39:24.060317,-43.0
2023-08-21 17:39:24.068005,-55.0
2023-08-21 17:39:24.075693,-72.0
2023-08-21 17:39:24.083382,-91.0
2023-08-21 17:39:24.091070,-86.0
2023-08-21 17:39:24.098758,-72.0
2023-08-21 17:39:24.106447,-64.0
2023-08-21 17:39:24.114135,-64.0
2023-08-21 17:39:24.121823,-74.0
2023-08-21 17:39:24.129512,-79.0
2023-08-21 17:39:24.137200,-62.0
2023-08-21 17:39:24.144888,36.0
2023-08-21 17:39:24.152577,340.0
2023-08-21 17:39:24.160265,734.0
2023-08-21 17:39:24.167953,773.0
2023-08-21 17:39:24.175642,300.0
2023-08-21 17:39:24.183330,-211.0
2023-08-21 17:39:24.191018,-273.0
2023-08-21 17:39:24.198707,-105.0
2023-08-21 17:39:24.206395,-110.0
2023-08-21 17:39:24.214083,-168.0
2023-08-21 17:39:24.221772,-134.0
2023-08-21 17:39:24.229460,-117.0
2023-08-21 17:39:24.237148,-129.0
2023-08-21 17:39:24.244837,-112.0
2023-08-21 17:39:24.252525,-105.0
2023-08-21 17:39:24.260213,-115.0
2023-08-21 17:39:24.267902,-100.0
2023-08-21 17:39:24.275590,-86.0
2023-08-21 17:39:24.283278,-88.0
2023-08-21 17:39:24.290967,-86.0
2023-08-21 17:39:24.298655,-79.0
2023-08-21 17:39:24.306343,-76.0
2023-08-21 17:39:24.314032,-76.0
2023-08-21 17:39:24.321720,-74.0
2023-08-21 17:39:24.329408,-69.0
2023-08-21 17:39:24.337096,-57.0
2023-08-21 17:39:24.344785,-48.0
2023-08-21 17:39:24.352473,-40.0
2023-08-21 17:39:24.360161,-40.0
2023-08-21 17:39:24.367850,-43.0
2023-08-21 17:39:24.375538,-33.0
2023-08-21 17:39:24.383226,-14.0
2023-08-21 17:39:24.390915,-2.0
2023-08-21 17:39:24.398603,-7.0
2023-08-21 17:39:24.406291,-9.0
2023-08-21 17:39:24.413980,4.0
2023-08-21 17:39:24.421668,26.0
2023-08-21 17:39:24.429356,40.0
2023-08-21 17:39:24.437045,50.0
2023-08-21 17:39:24.444733,67.0
2023-08-21 17:39:24.452421,86.0
2023-08-21 17:39:24.460110,100.0
2023-08-21 17:39:24.467798,110.0
2023-08-21 17:39:24.475486,122.0
2023-08-21 17:39:24.483175,122.0
2023-08-21 17:39:24.490863,105.0
2023-08-21 17:39:24.498551,84.0
2023-08-21 17:39:24.506240,50.0
2023-08-21 17:39:24.513928,7.0
2023-08-21 17:39:24.521616,-26.0
2023-08-21 17:39:24.529305,-52.0
2023-08-21 17:39:24.536993,-81.0
2023-08-21 17:39:24.544681,-100.0
2023-08-21 17:39:24.552370,-108.0
2023-08-21 17:39:24.560058,-108.0
2023-08-21 17:39:24.567746,-110.0
2023-08-21 17:39:24.575435,-112.0
2023-08-21 17:39:24.583123,-105.0
2023-08-21 17:39:24.590811,-100.0
2023-08-21 17:39:24.598499,-100.0
2023-08-21 17:39:24.606188,-93.0
2023-08-21 17:39:24.613876,-91.0
2023-08-21 17:39:24.621564,-91.0
2023-08-21 17:39:24.629253,-84.0
2023-08-21 17:39:24.636941,-79.0
2023-08-21 17:39:24.644629,-79.0
2023-08-21 17:39:24.652318,-76.0
2023-08-21 17:39:24.660006,-76.0
2023-08-21 17:39:24.667694,-81.0
2023-08-21 17:39:24.675383,-84.0
2023-08-21 17:39:24.683071,-76.0
2023-08-21 17:39:24.690759,-76.0
2023-08-21 17:39:24.698448,-86.0
2023-08-21 17:39:24.706136,-86.0
2023-08-21 17:39:24.713824,-84.0
2023-08-21 17:39:24.721513,-86.0
2023-08-21 17:39:24.729201,-84.0
2023-08-21 17:39:24.736889,-81.0
2023-08-21 17:39:24.744578,-79.0
2023-08-21 17:39:24.752266,-79.0
2023-08-21 17:39:24.759954,-86.0
2023-08-21 17:39:24.767643,-86.0
2023-08-21 17:39:24.775331,-79.0
2023-08-21 17:39:24.783019,-81.0
2023-08-21 17:39:24.790708,-86.0
2023-08-21 17:39:24.798396,-86.0
2023-08-21 17:39:24.806084,-84.0
2023-08-21 17:39:24.813773,-81.0
2023-08-21 17:39:24.821461,-79.0
2023-08-21 17:39:24.829149,-79.0
2023-08-21 17:39:24.836838,-81.0
2023-08-21 17:39:24.844526,-81.0
2023-08-21 17:39:24.852214,-81.0
2023-08-21 17:39:24.859902,-88.0
2023-08-21 17:39:24.867591,-79.0
2023-08-21 17:39:24.875279,-67.0
2023-08-21 17:39:24.882967,-74.0
2023-08-21 17:39:24.890656,-79.0
2023-08-21 17:39:24.898344,-76.0
2023-08-21 17:39:24.906032,-79.0
2023-08-21 17:39:24.913721,-84.0
2023-08-21 17:39:24.921409,-81.0
2023-08-21 17:39:24.929097,-81.0
2023-08-21 17:39:24.936786,-81.0
2023-08-21 17:39:24.944474,-86.0
2023-08-21 17:39:24.952162,-86.0
2023-08-21 17:39:24.959851,-84.0
2023-08-21 17:39:24.967539,-81.0
2023-08-21 17:39:24.975227,-79.0
2023-08-21 17:39:24.982916,-76.0
2023-08-21 17:39:24.990604,-76.0
2023-08-21 17:39:24.998292,-79.0
2023-08-21 17:39:25.005981,-79.0
2023-08-21 17:39:25.013669,-79.0
2023-08-21 17:39:25.021357,-81.0
2023-08-21 17:39:25.029046,-76.0
2023-08-21 17:39:25.036734,-76.0
2023-08-21 17:39:25.044422,-79.0
2023-08-21 17:39:25.052111,-76.0
2023-08-21 17:39:25.059799,-72.0
2023-08-21 17:39:25.067487,-67.0
2023-08-21 17:39:25.075176,-60.0
2023-08-21 17:39:25.082864,-43.0
2023-08-21 17:39:25.090552,-21.0
2023-08-21 17:39:25.098241,-21.0
2023-08-21 17:39:25.105929,-33.0
2023-08-21 17:39:25.113617,-48.0
2023-08-21 17:39:25.121305,-67.0
2023-08-21 17:39:25.128994,-86.0
2023-08-21 17:39:25.136682,-88.0
2023-08-21 17:39:25.144370,-76.0
2023-08-21 17:39:25.152059,-74.0
2023-08-21 17:39:25.159747,-76.0
2023-08-21 17:39:25.167435,-69.0
2023-08-21 17:39:25.175124,-62.0
2023-08-21 17:39:25.182812,-55.0
2023-08-21 17:39:25.190500,12.0
2023-08-21 17:39:25.198189,261.0
2023-08-21 17:39:25.205877,662.0
2023-08-21 17:39:25.213565,765.0
2023-08-21 17:39:25.221254,302.0
2023-08-21 17:39:25.228942,-237.0
2023-08-21 17:39:25.236630,-302.0
2023-08-21 17:39:25.244319,-127.0
2023-08-21 17:39:25.252007,-115.0
2023-08-21 17:39:25.259695,-165.0
2023-08-21 17:39:25.267384,-139.0
2023-08-21 17:39:25.275072,-122.0
2023-08-21 17:39:25.282760,-136.0
2023-08-21 17:39:25.290449,-127.0
2023-08-21 17:39:25.298137,-112.0
2023-08-21 17:39:25.305825,-112.0
2023-08-21 17:39:25.313514,-110.0
2023-08-21 17:39:25.321202,-98.0
2023-08-21 17:39:25.328890,-93.0
2023-08-21 17:39:25.336579,-93.0
2023-08-21 17:39:25.344267,-91.0
2023-08-21 17:39:25.351955,-84.0
2023-08-21 17:39:25.359644,-74.0
2023-08-21 17:39:25.367332,-67.0
2023-08-21 17:39:25.375020,-64.0
2023-08-21 17:39:25.382708,-62.0
2023-08-21 17:39:25.390397,-62.0
2023-08-21 17:39:25.398085,-50.0
2023-08-21 17:39:25.405773,-43.0
2023-08-21 17:39:25.413462,-45.0
2023-08-21 17:39:25.421150,-45.0
2023-08-21 17:39:25.428838,-38.0
2023-08-21 17:39:25.436527,-28.0
2023-08-21 17:39:25.444215,-19.0
2023-08-21 17:39:25.451903,-7.0
2023-08-21 17:39:25.459592,2.0
2023-08-21 17:39:25.467280,14.0
2023-08-21 17:39:25.474968,28.0
2023-08-21 17:39:25.482657,40.0
2023-08-21 17:39:25.490345,57.0
2023-08-21 17:39:25.498033,69.0
2023-08-21 17:39:25.505722,76.0
2023-08-21 17:39:25.513410,88.0
2023-08-21 17:39:25.521098,96.0
2023-08-21 17:39:25.528787,93.0
2023-08-21 17:39:25.536475,84.0
2023-08-21 17:39:25.544163,62.0
2023-08-21 17:39:25.551852,26.0
2023-08-21 17:39:25.559540,-9.0
2023-08-21 17:39:25.567228,-40.0
2023-08-21 17:39:25.574917,-67.0
2023-08-21 17:39:25.582605,-88.0
2023-08-21 17:39:25.590293,-108.0
2023-08-21 17:39:25.597982,-120.0
2023-08-21 17:39:25.605670,-120.0
2023-08-21 17:39:25.613358,-122.0
2023-08-21 17:39:25.621047,-124.0
2023-08-21 17:39:25.628735,-117.0
2023-08-21 17:39:25.636423,-110.0
2023-08-21 17:39:25.644111,-105.0
2023-08-21 17:39:25.651800,-103.0
2023-08-21 17:39:25.659488,-98.0
2023-08-21 17:39:25.667176,-93.0
2023-08-21 17:39:25.674865,-93.0
2023-08-21 17:39:25.682553,-93.0
2023-08-21 17:39:25.690241,-84.0
2023-08-21 17:39:25.697930,-81.0
2023-08-21 17:39:25.705618,-81.0
2023-08-21 17:39:25.713306,-76.0
2023-08-21 17:39:25.720995,-74.0
2023-08-21 17:39:25.728683,-79.0
2023-08-21 17:39:25.736371,-84.0
2023-08-21 17:39:25.744060,-93.0
2023-08-21 17:39:25.751748,-98.0
2023-08-21 17:39:25.759436,-93.0
2023-08-21 17:39:25.767125,-96.0
2023-08-21 17:39:25.774813,-108.0
2023-08-21 17:39:25.782501,-110.0
2023-08-21 17:39:25.790190,-110.0
2023-08-21 17:39:25.797878,-112.0
2023-08-21 17:39:25.805566,-108.0
2023-08-21 17:39:25.813255,-105.0
2023-08-21 17:39:25.820943,-105.0
2023-08-21 17:39:25.828631,-105.0
2023-08-21 17:39:25.836320,-108.0
2023-08-21 17:39:25.844008,-105.0
2023-08-21 17:39:25.851696,-98.0
2023-08-21 17:39:25.859385,-96.0
2023-08-21 17:39:25.867073,-98.0
2023-08-21 17:39:25.874761,-98.0
2023-08-21 17:39:25.882450,-96.0
2023-08-21 17:39:25.890138,-93.0
2023-08-21 17:39:25.897826,-93.0
2023-08-21 17:39:25.905514,-93.0
2023-08-21 17:39:25.913203,-98.0
2023-08-21 17:39:25.920891,-103.0
2023-08-21 17:39:25.928579,-98.0
2023-08-21 17:39:25.936268,-93.0
2023-08-21 17:39:25.943956,-96.0
2023-08-21 17:39:25.951644,-96.0
2023-08-21 17:39:25.959333,-93.0
2023-08-21 17:39:25.967021,-93.0
2023-08-21 17:39:25.974709,-91.0
2023-08-21 17:39:25.982398,-96.0
2023-08-21 17:39:25.990086,-98.0
2023-08-21 17:39:25.997774,-96.0
2023-08-21 17:39:26.005463,-88.0
2023-08-21 17:39:26.013151,-88.0
2023-08-21 17:39:26.020839,-98.0
2023-08-21 17:39:26.028528,-98.0
2023-08-21 17:39:26.036216,-88.0
2023-08-21 17:39:26.043904,-84.0
2023-08-21 17:39:26.051593,-88.0
2023-08-21 17:39:26.059281,-88.0
2023-08-21 17:39:26.066969,-81.0
2023-08-21 17:39:26.074658,-76.0
2023-08-21 17:39:26.082346,-79.0
2023-08-21 17:39:26.090034,-84.0
2023-08-21 17:39:26.097723,-81.0
2023-08-21 17:39:26.105411,-79.0
2023-08-21 17:39:26.113099,-74.0
2023-08-21 17:39:26.120788,-69.0
2023-08-21 17:39:26.128476,-74.0
2023-08-21 17:39:26.136164,-76.0
2023-08-21 17:39:26.143853,-67.0
2023-08-21 17:39:26.151541,-67.0
2023-08-21 17:39:26.159229,-60.0
2023-08-21 17:39:26.166917,-38.0
2023-08-21 17:39:26.174606,-14.0
2023-08-21 17:39:26.182294,-12.0
2023-08-21 17:39:26.189982,-31.0
2023-08-21 17:39:26.197671,-45.0
2023-08-21 17:39:26.205359,-52.0
2023-08-21 17:39:26.213047,-72.0
2023-08-21 17:39:26.220736,-86.0
2023-08-21 17:39:26.228424,-76.0
2023-08-21 17:39:26.236112,-72.0
2023-08-21 17:39:26.243801,-74.0
2023-08-21 17:39:26.251489,-69.0
2023-08-21 17:39:26.259177,-62.0
2023-08-21 17:39:26.266866,-62.0
2023-08-21 17:39:26.274554,-28.0
2023-08-21 17:39:26.282242,184.0
2023-08-21 17:39:26.289931,585.0
2023-08-21 17:39:26.297619,816.0
2023-08-21 17:39:26.305307,530.0
2023-08-21 17:39:26.312996,-43.0
2023-08-21 17:39:26.320684,-309.0
2023-08-21 17:39:26.328372,-177.0
2023-08-21 17:39:26.336061,-105.0
2023-08-21 17:39:26.343749,-175.0
2023-08-21 17:39:26.351437,-172.0
2023-08-21 17:39:26.359126,-129.0
2023-08-21 17:39:26.366814,-134.0
2023-08-21 17:39:26.374502,-141.0
2023-08-21 17:39:26.382191,-124.0
2023-08-21 17:39:26.389879,-112.0
2023-08-21 17:39:26.397567,-110.0
2023-08-21 17:39:26.405256,-103.0
2023-08-21 17:39:26.412944,-93.0
2023-08-21 17:39:26.420632,-96.0
2023-08-21 17:39:26.428320,-96.0
2023-08-21 17:39:26.436009,-91.0
2023-08-21 17:39:26.443697,-84.0
2023-08-21 17:39:26.451385,-79.0
2023-08-21 17:39:26.459074,-74.0
2023-08-21 17:39:26.466762,-69.0
2023-08-21 17:39:26.474450,-60.0
2023-08-21 17:39:26.482139,-55.0
2023-08-21 17:39:26.489827,-52.0
2023-08-21 17:39:26.497515,-48.0
2023-08-21 17:39:26.505204,-40.0
2023-08-21 17:39:26.512892,-33.0
2023-08-21 17:39:26.520580,-26.0
2023-08-21 17:39:26.528269,-14.0
2023-08-21 17:39:26.535957,-4.0
2023-08-21 17:39:26.543645,2.0
2023-08-21 17:39:26.551334,14.0
2023-08-21 17:39:26.559022,26.0
2023-08-21 17:39:26.566710,38.0
2023-08-21 17:39:26.574399,52.0
2023-08-21 17:39:26.582087,62.0
2023-08-21 17:39:26.589775,74.0
2023-08-21 17:39:26.597464,91.0
2023-08-21 17:39:26.605152,98.0
2023-08-21 17:39:26.612840,100.0
2023-08-21 17:39:26.620529,96.0
2023-08-21 17:39:26.628217,81.0
2023-08-21 17:39:26.635905,55.0
2023-08-21 17:39:26.643594,19.0
2023-08-21 17:39:26.651282,-21.0
2023-08-21 17:39:26.658970,-48.0
2023-08-21 17:39:26.666659,-64.0
2023-08-21 17:39:26.674347,-86.0
2023-08-21 17:39:26.682035,-98.0
2023-08-21 17:39:26.689723,-100.0
2023-08-21 17:39:26.697412,-103.0
2023-08-21 17:39:26.705100,-105.0
2023-08-21 17:39:26.712788,-103.0
2023-08-21 17:39:26.720477,-100.0
2023-08-21 17:39:26.728165,-100.0
2023-08-21 17:39:26.735853,-96.0
2023-08-21 17:39:26.743542,-88.0
2023-08-21 17:39:26.751230,-88.0
2023-08-21 17:39:26.758918,-96.0
2023-08-21 17:39:26.766607,-98.0
2023-08-21 17:39:26.774295,-88.0
2023-08-21 17:39:26.781983,-74.0
2023-08-21 17:39:26.789672,-69.0
2023-08-21 17:39:26.797360,-79.0
2023-08-21 17:39:26.805048,-81.0
2023-08-21 17:39:26.812737,-76.0
2023-08-21 17:39:26.820425,-79.0
2023-08-21 17:39:26.828113,-81.0
2023-08-21 17:39:26.835802,-76.0
2023-08-21 17:39:26.843490,-76.0
2023-08-21 17:39:26.851178,-79.0
2023-08-21 17:39:26.858867,-76.0
2023-08-21 17:39:26.866555,-88.0
2023-08-21 17:39:26.874243,-98.0
2023-08-21 17:39:26.881932,-93.0
2023-08-21 17:39:26.889620,-86.0
2023-08-21 17:39:26.897308,-88.0
2023-08-21 17:39:26.904997,-86.0
2023-08-21 17:39:26.912685,-81.0
2023-08-21 17:39:26.920373,-81.0
2023-08-21 17:39:26.928061,-96.0
2023-08-21 17:39:26.935750,-108.0
2023-08-21 17:39:26.943438,-103.0
2023-08-21 17:39:26.951126,-91.0
2023-08-21 17:39:26.958815,-91.0
2023-08-21 17:39:26.966503,-96.0
2023-08-21 17:39:26.974191,-91.0
2023-08-21 17:39:26.981880,-86.0
2023-08-21 17:39:26.989568,-84.0
2023-08-21 17:39:26.997256,-81.0
2023-08-21 17:39:27.004945,-84.0
2023-08-21 17:39:27.012633,-84.0
2023-08-21 17:39:27.020321,-84.0
2023-08-21 17:39:27.028010,-91.0
2023-08-21 17:39:27.035698,-93.0
2023-08-21 17:39:27.043386,-93.0
2023-08-21 17:39:27.051075,-93.0
2023-08-21 17:39:27.058763,-84.0
2023-08-21 17:39:27.066451,-76.0
2023-08-21 17:39:27.074140,-86.0
2023-08-21 17:39:27.081828,-91.0
2023-08-21 17:39:27.089516,-79.0
2023-08-21 17:39:27.097205,-76.0
2023-08-21 17:39:27.104893,-76.0
2023-08-21 17:39:27.112581,-76.0
2023-08-21 17:39:27.120270,-74.0
2023-08-21 17:39:27.127958,-74.0
2023-08-21 17:39:27.135646,-72.0
2023-08-21 17:39:27.143335,-72.0
2023-08-21 17:39:27.151023,-69.0
2023-08-21 17:39:27.158711,-64.0
2023-08-21 17:39:27.166400,-67.0
2023-08-21 17:39:27.174088,-69.0
2023-08-21 17:39:27.181776,-64.0
2023-08-21 17:39:27.189464,-64.0
2023-08-21 17:39:27.197153,-64.0
2023-08-21 17:39:27.204841,-62.0
2023-08-21 17:39:27.212529,-62.0
2023-08-21 17:39:27.220218,-57.0
2023-08-21 17:39:27.227906,-38.0
2023-08-21 17:39:27.235594,-19.0
2023-08-21 17:39:27.243283,-14.0
2023-08-21 17:39:27.250971,-26.0
2023-08-21 17:39:27.258659,-40.0
2023-08-21 17:39:27.266348,-50.0
2023-08-21 17:39:27.274036,-67.0
2023-08-21 17:39:27.281724,-79.0
2023-08-21 17:39:27.289413,-76.0
2023-08-21 17:39:27.297101,-72.0
2023-08-21 17:39:27.304789,-74.0
2023-08-21 17:39:27.312478,-74.0
2023-08-21 17:39:27.320166,-62.0
2023-08-21 17:39:27.327854,-52.0
2023-08-21 17:39:27.335543,-31.0
2023-08-21 17:39:27.343231,139.0
2023-08-21 17:39:27.350919,528.0
2023-08-21 17:39:27.358608,813.0
2023-08-21 17:39:27.366296,549.0
2023-08-21 17:39:27.373984,-48.0
2023-08-21 17:39:27.381673,-312.0
2023-08-21 17:39:27.389361,-172.0
2023-08-21 17:39:27.397049,-88.0
2023-08-21 17:39:27.404738,-144.0
2023-08-21 17:39:27.412426,-151.0
2023-08-21 17:39:27.420114,-132.0
2023-08-21 17:39:27.427803,-134.0
2023-08-21 17:39:27.435491,-132.0
2023-08-21 17:39:27.443179,-122.0
2023-08-21 17:39:27.450867,-127.0
2023-08-21 17:39:27.458556,-129.0
2023-08-21 17:39:27.466244,-117.0
2023-08-21 17:39:27.473932,-108.0
2023-08-21 17:39:27.481621,-105.0
2023-08-21 17:39:27.489309,-100.0
2023-08-21 17:39:27.496997,-93.0
2023-08-21 17:39:27.504686,-86.0
2023-08-21 17:39:27.512374,-81.0
2023-08-21 17:39:27.520062,-74.0
2023-08-21 17:39:27.527751,-69.0
2023-08-21 17:39:27.535439,-69.0
2023-08-21 17:39:27.543127,-64.0
2023-08-21 17:39:27.550816,-55.0
2023-08-21 17:39:27.558504,-48.0
2023-08-21 17:39:27.566192,-43.0
2023-08-21 17:39:27.573881,-36.0
2023-08-21 17:39:27.581569,-28.0
2023-08-21 17:39:27.589257,-19.0
2023-08-21 17:39:27.596946,-9.0
2023-08-21 17:39:27.604634,0.0
2023-08-21 17:39:27.612322,9.0
2023-08-21 17:39:27.620011,24.0
2023-08-21 17:39:27.627699,38.0
2023-08-21 17:39:27.635387,55.0
2023-08-21 17:39:27.643076,64.0
2023-08-21 17:39:27.650764,72.0
2023-08-21 17:39:27.658452,86.0
2023-08-21 17:39:27.666141,96.0
2023-08-21 17:39:27.673829,96.0
2023-08-21 17:39:27.681517,93.0
2023-08-21 17:39:27.689206,84.0
2023-08-21 17:39:27.696894,52.0
2023-08-21 17:39:27.704582,14.0
2023-08-21 17:39:27.712270,-19.0
2023-08-21 17:39:27.719959,-55.0
2023-08-21 17:39:27.727647,-84.0
2023-08-21 17:39:27.735335,-105.0
2023-08-21 17:39:27.743024,-117.0
2023-08-21 17:39:27.750712,-122.0
2023-08-21 17:39:27.758400,-132.0
2023-08-21 17:39:27.766089,-136.0
2023-08-21 17:39:27.773777,-129.0
2023-08-21 17:39:27.781465,-117.0
2023-08-21 17:39:27.789154,-115.0
2023-08-21 17:39:27.796842,-112.0
2023-08-21 17:39:27.804530,-103.0
2023-08-21 17:39:27.812219,-96.0
2023-08-21 17:39:27.819907,-98.0
2023-08-21 17:39:27.827595,-91.0
2023-08-21 17:39:27.835284,-86.0
2023-08-21 17:39:27.842972,-84.0
2023-08-21 17:39:27.850660,-79.0
2023-08-21 17:39:27.858349,-79.0
2023-08-21 17:39:27.866037,-84.0
2023-08-21 17:39:27.873725,-81.0
2023-08-21 17:39:27.881414,-79.0
2023-08-21 17:39:27.889102,-84.0
2023-08-21 17:39:27.896790,-86.0
2023-08-21 17:39:27.904479,-88.0
2023-08-21 17:39:27.912167,-88.0
2023-08-21 17:39:27.919855,-91.0
2023-08-21 17:39:27.927544,-88.0
2023-08-21 17:39:27.935232,-86.0
2023-08-21 17:39:27.942920,-93.0
2023-08-21 17:39:27.950609,-98.0
2023-08-21 17:39:27.958297,-96.0
2023-08-21 17:39:27.965985,-93.0
2023-08-21 17:39:27.973673,-96.0
2023-08-21 17:39:27.981362,-93.0
2023-08-21 17:39:27.989050,-98.0
2023-08-21 17:39:27.996738,-110.0
2023-08-21 17:39:28.004427,-110.0
2023-08-21 17:39:28.012115,-100.0
2023-08-21 17:39:28.019803,-103.0
2023-08-21 17:39:28.027492,-108.0
2023-08-21 17:39:28.035180,-105.0
2023-08-21 17:39:28.042868,-110.0
2023-08-21 17:39:28.050557,-112.0
2023-08-21 17:39:28.058245,-108.0
2023-08-21 17:39:28.065933,-100.0
2023-08-21 17:39:28.073622,-100.0
2023-08-21 17:39:28.081310,-103.0
2023-08-21 17:39:28.088998,-100.0
2023-08-21 17:39:28.096687,-96.0
2023-08-21 17:39:28.104375,-91.0
2023-08-21 17:39:28.112063,-96.0
2023-08-21 17:39:28.119752,-103.0
2023-08-21 17:39:28.127440,-98.0
2023-08-21 17:39:28.135128,-96.0
2023-08-21 17:39:28.142817,-93.0
2023-08-21 17:39:28.150505,-93.0
2023-08-21 17:39:28.158193,-96.0
2023-08-21 17:39:28.165882,-88.0
2023-08-21 17:39:28.173570,-86.0
2023-08-21 17:39:28.181258,-96.0
2023-08-21 17:39:28.188947,-96.0
2023-08-21 17:39:28.196635,-86.0
2023-08-21 17:39:28.204323,-91.0
2023-08-21 17:39:28.212012,-96.0
2023-08-21 17:39:28.219700,-91.0
2023-08-21 17:39:28.227388,-84.0
2023-08-21 17:39:28.235076,-86.0
2023-08-21 17:39:28.242765,-86.0
2023-08-21 17:39:28.250453,-76.0
2023-08-21 17:39:28.258141,-67.0
2023-08-21 17:39:28.265830,-50.0
2023-08-21 17:39:28.273518,-36.0
2023-08-21 17:39:28.281206,-43.0
2023-08-21 17:39:28.288895,-57.0
2023-08-21 17:39:28.296583,-64.0
2023-08-21 17:39:28.304271,-84.0
2023-08-21 17:39:28.311960,-105.0
2023-08-21 17:39:28.319648,-103.0
2023-08-21 17:39:28.327336,-88.0
2023-08-21 17:39:28.335025,-86.0
2023-08-21 17:39:28.342713,-84.0
2023-08-21 17:39:28.350401,-81.0
2023-08-21 17:39:28.358090,-81.0
2023-08-21 17:39:28.365778,-62.0
2023-08-21 17:39:28.373466,88.0
2023-08-21 17:39:28.381155,460.0
2023-08-21 17:39:28.388843,809.0
2023-08-21 17:39:28.396531,679.0
2023-08-21 17:39:28.404220,96.0
2023-08-21 17:39:28.411908,-321.0
2023-08-21 17:39:28.419596,-244.0
2023-08-21 17:39:28.427285,-91.0
2023-08-21 17:39:28.434973,-148.0
2023-08-21 17:39:28.442661,-187.0
2023-08-21 17:39:28.450350,-146.0
2023-08-21 17:39:28.458038,-146.0
2023-08-21 17:39:28.465726,-156.0
2023-08-21 17:39:28.473415,-139.0
2023-08-21 17:39:28.481103,-132.0
2023-08-21 17:39:28.488791,-134.0
2023-08-21 17:39:28.496479,-124.0
2023-08-21 17:39:28.504168,-115.0
2023-08-21 17:39:28.511856,-112.0
2023-08-21 17:39:28.519544,-105.0
2023-08-21 17:39:28.527233,-98.0
2023-08-21 17:39:28.534921,-93.0
2023-08-21 17:39:28.542609,-88.0
2023-08-21 17:39:28.550298,-84.0
2023-08-21 17:39:28.557986,-79.0
2023-08-21 17:39:28.565674,-74.0
2023-08-21 17:39:28.573363,-74.0
2023-08-21 17:39:28.581051,-72.0
2023-08-21 17:39:28.588739,-72.0
2023-08-21 17:39:28.596428,-67.0
2023-08-21 17:39:28.604116,-52.0
2023-08-21 17:39:28.611804,-40.0
2023-08-21 17:39:28.619493,-38.0
2023-08-21 17:39:28.627181,-36.0
2023-08-21 17:39:28.634869,-26.0
2023-08-21 17:39:28.642558,-14.0
2023-08-21 17:39:28.650246,4.0
2023-08-21 17:39:28.657934,21.0
2023-08-21 17:39:28.665623,36.0
2023-08-21 17:39:28.673311,48.0
2023-08-21 17:39:28.680999,60.0
2023-08-21 17:39:28.688688,69.0
2023-08-21 17:39:28.696376,76.0
2023-08-21 17:39:28.704064,84.0
2023-08-21 17:39:28.711753,84.0
2023-08-21 17:39:28.719441,69.0
2023-08-21 17:39:28.727129,40.0
2023-08-21 17:39:28.734818,2.0
2023-08-21 17:39:28.742506,-36.0
2023-08-21 17:39:28.750194,-69.0
2023-08-21 17:39:28.757882,-98.0
2023-08-21 17:39:28.765571,-112.0
2023-08-21 17:39:28.773259,-122.0
2023-08-21 17:39:28.780947,-129.0
2023-08-21 17:39:28.788636,-129.0
2023-08-21 17:39:28.796324,-127.0
2023-08-21 17:39:28.804012,-127.0
2023-08-21 17:39:28.811701,-127.0
2023-08-21 17:39:28.819389,-124.0
2023-08-21 17:39:28.827077,-117.0
2023-08-21 17:39:28.834766,-108.0
2023-08-21 17:39:28.842454,-98.0
2023-08-21 17:39:28.850142,-96.0
2023-08-21 17:39:28.857831,-93.0
2023-08-21 17:39:28.865519,-91.0
2023-08-21 17:39:28.873207,-93.0
2023-08-21 17:39:28.880896,-86.0
2023-08-21 17:39:28.888584,-79.0
2023-08-21 17:39:28.896272,-81.0
2023-08-21 17:39:28.903961,-86.0
2023-08-21 17:39:28.911649,-84.0
2023-08-21 17:39:28.919337,-81.0
2023-08-21 17:39:28.927026,-79.0
2023-08-21 17:39:28.934714,-79.0
2023-08-21 17:39:28.942402,-81.0
2023-08-21 17:39:28.950091,-84.0
2023-08-21 17:39:28.957779,-93.0
2023-08-21 17:39:28.965467,-100.0
2023-08-21 17:39:28.973156,-100.0
2023-08-21 17:39:28.980844,-98.0
2023-08-21 17:39:28.988532,-100.0
2023-08-21 17:39:28.996221,-98.0
2023-08-21 17:39:29.003909,-96.0
2023-08-21 17:39:29.011597,-96.0
2023-08-21 17:39:29.019285,-93.0
2023-08-21 17:39:29.026974,-91.0
2023-08-21 17:39:29.034662,-93.0
2023-08-21 17:39:29.042350,-93.0
2023-08-21 17:39:29.050039,-88.0
2023-08-21 17:39:29.057727,-86.0
2023-08-21 17:39:29.065415,-91.0
2023-08-21 17:39:29.073104,-91.0
2023-08-21 17:39:29.080792,-86.0
2023-08-21 17:39:29.088480,-86.0
2023-08-21 17:39:29.096169,-84.0
2023-08-21 17:39:29.103857,-84.0
2023-08-21 17:39:29.111545,-88.0
2023-08-21 17:39:29.119234,-96.0
2023-08-21 17:39:29.126922,-93.0
2023-08-21 17:39:29.134610,-91.0
2023-08-21 17:39:29.142299,-96.0
2023-08-21 17:39:29.149987,-96.0
2023-08-21 17:39:29.157675,-93.0
2023-08-21 17:39:29.165364,-100.0
2023-08-21 17:39:29.173052,-105.0
2023-08-21 17:39:29.180740,-100.0
2023-08-21 17:39:29.188429,-100.0
2023-08-21 17:39:29.196117,-112.0
2023-08-21 17:39:29.203805,-115.0
2023-08-21 17:39:29.211494,-103.0
2023-08-21 17:39:29.219182,-103.0
2023-08-21 17:39:29.226870,-115.0
2023-08-21 17:39:29.234559,-110.0
2023-08-21 17:39:29.242247,-103.0
2023-08-21 17:39:29.249935,-105.0
2023-08-21 17:39:29.257624,-105.0
2023-08-21 17:39:29.265312,-100.0
2023-08-21 17:39:29.273000,-96.0
2023-08-21 17:39:29.280688,-91.0
2023-08-21 17:39:29.288377,-93.0
2023-08-21 17:39:29.296065,-91.0
2023-08-21 17:39:29.303753,-81.0
2023-08-21 17:39:29.311442,-76.0
2023-08-21 17:39:29.319130,-72.0
2023-08-21 17:39:29.326818,-48.0
2023-08-21 17:39:29.334507,-26.0
2023-08-21 17:39:29.342195,-38.0
2023-08-21 17:39:29.349883,-62.0
2023-08-21 17:39:29.357572,-64.0
2023-08-21 17:39:29.365260,-74.0
2023-08-21 17:39:29.372948,-91.0
2023-08-21 17:39:29.380637,-93.0
2023-08-21 17:39:29.388325,-88.0
2023-08-21 17:39:29.396013,-88.0
2023-08-21 17:39:29.403702,-86.0
2023-08-21 17:39:29.411390,-81.0
2023-08-21 17:39:29.419078,-74.0
2023-08-21 17:39:29.426767,-55.0
2023-08-21 17:39:29.434455,74.0
2023-08-21 17:39:29.442143,432.0
2023-08-21 17:39:29.449832,789.0
2023-08-21 17:39:29.457520,689.0
2023-08-21 17:39:29.465208,129.0
2023-08-21 17:39:29.472897,-288.0
2023-08-21 17:39:29.480585,-237.0
2023-08-21 17:39:29.488273,-103.0
2023-08-21 17:39:29.495962,-148.0
2023-08-21 17:39:29.503650,-172.0
2023-08-21 17:39:29.511338,-129.0
2023-08-21 17:39:29.519027,-127.0
2023-08-21 17:39:29.526715,-136.0
2023-08-21 17:39:29.534403,-117.0
2023-08-21 17:39:29.542091,-108.0
2023-08-21 17:39:29.549780,-110.0
2023-08-21 17:39:29.557468,-100.0
2023-08-21 17:39:29.565156,-93.0
2023-08-21 17:39:29.572845,-91.0
2023-08-21 17:39:29.580533,-86.0
2023-08-21 17:39:29.588221,-74.0
2023-08-21 17:39:29.595910,-62.0
2023-08-21 17:39:29.603598,-62.0
2023-08-21 17:39:29.611286,-67.0
2023-08-21 17:39:29.618975,-60.0
2023-08-21 17:39:29.626663,-57.0
2023-08-21 17:39:29.634351,-48.0
2023-08-21 17:39:29.642040,-36.0
2023-08-21 17:39:29.649728,-33.0
2023-08-21 17:39:29.657416,-36.0
2023-08-21 17:39:29.665105,-33.0
2023-08-21 17:39:29.672793,-28.0
2023-08-21 17:39:29.680481,-19.0
2023-08-21 17:39:29.688170,-7.0
2023-08-21 17:39:29.695858,-2.0
2023-08-21 17:39:29.703546,7.0
2023-08-21 17:39:29.711235,21.0
2023-08-21 17:39:29.718923,33.0
2023-08-21 17:39:29.726611,45.0
2023-08-21 17:39:29.734300,64.0
2023-08-21 17:39:29.741988,81.0
2023-08-21 17:39:29.749676,81.0
2023-08-21 17:39:29.757365,91.0
2023-08-21 17:39:29.765053,108.0
2023-08-21 17:39:29.772741,105.0
2023-08-21 17:39:29.780430,84.0
2023-08-21 17:39:29.788118,55.0
2023-08-21 17:39:29.795806,19.0
2023-08-21 17:39:29.803494,-16.0
2023-08-21 17:39:29.811183,-48.0
2023-08-21 17:39:29.818871,-76.0
2023-08-21 17:39:29.826559,-98.0
2023-08-21 17:39:29.834248,-115.0
2023-08-21 17:39:29.841936,-120.0
2023-08-21 17:39:29.849624,-120.0
2023-08-21 17:39:29.857313,-124.0
2023-08-21 17:39:29.865001,-124.0
2023-08-21 17:39:29.872689,-120.0
2023-08-21 17:39:29.880378,-108.0
2023-08-21 17:39:29.888066,-103.0
2023-08-21 17:39:29.895754,-98.0
2023-08-21 17:39:29.903443,-93.0
2023-08-21 17:39:29.911131,-96.0
2023-08-21 17:39:29.918819,-93.0
2023-08-21 17:39:29.926508,-88.0
2023-08-21 17:39:29.934196,-88.0
2023-08-21 17:39:29.941884,-84.0
2023-08-21 17:39:29.949573,-76.0
2023-08-21 17:39:29.957261,-79.0
2023-08-21 17:39:29.964949,-86.0
2023-08-21 17:39:29.972638,-91.0
2023-08-21 17:39:29.980326,-91.0
2023-08-21 17:39:29.988014,-88.0
2023-08-21 17:39:29.995703,-91.0
2023-08-21 17:39:30.003391,-88.0
2023-08-21 17:39:30.011079,-86.0
2023-08-21 17:39:30.018768,-88.0
2023-08-21 17:39:30.026456,-88.0
2023-08-21 17:39:30.034144,-91.0
2023-08-21 17:39:30.041833,-91.0
2023-08-21 17:39:30.049521,-84.0
2023-08-21 17:39:30.057209,-81.0
2023-08-21 17:39:30.064897,-81.0
2023-08-21 17:39:30.072586,-84.0
2023-08-21 17:39:30.080274,-86.0
2023-08-21 17:39:30.087962,-81.0
2023-08-21 17:39:30.095651,-76.0
2023-08-21 17:39:30.103339,-79.0
2023-08-21 17:39:30.111027,-76.0
2023-08-21 17:39:30.118716,-76.0
2023-08-21 17:39:30.126404,-76.0
2023-08-21 17:39:30.134092,-76.0
2023-08-21 17:39:30.141781,-76.0
2023-08-21 17:39:30.149469,-76.0
2023-08-21 17:39:30.157157,-76.0
2023-08-21 17:39:30.164846,-79.0
2023-08-21 17:39:30.172534,-76.0
2023-08-21 17:39:30.180222,-72.0
2023-08-21 17:39:30.187911,-74.0
2023-08-21 17:39:30.195599,-74.0
2023-08-21 17:39:30.203287,-74.0
2023-08-21 17:39:30.210976,-81.0
2023-08-21 17:39:30.218664,-79.0
2023-08-21 17:39:30.226352,-76.0
2023-08-21 17:39:30.234041,-81.0
2023-08-21 17:39:30.241729,-88.0
2023-08-21 17:39:30.249417,-88.0
2023-08-21 17:39:30.257106,-86.0
2023-08-21 17:39:30.264794,-91.0
2023-08-21 17:39:30.272482,-88.0
2023-08-21 17:39:30.280171,-84.0
2023-08-21 17:39:30.287859,-91.0
2023-08-21 17:39:30.295547,-103.0
2023-08-21 17:39:30.303236,-96.0
2023-08-21 17:39:30.310924,-86.0
2023-08-21 17:39:30.318612,-81.0
2023-08-21 17:39:30.326300,-64.0
2023-08-21 17:39:30.333989,-50.0
2023-08-21 17:39:30.341677,-50.0
2023-08-21 17:39:30.349365,-64.0
2023-08-21 17:39:30.357054,-76.0
2023-08-21 17:39:30.364742,-88.0
2023-08-21 17:39:30.372430,-103.0
2023-08-21 17:39:30.380119,-105.0
2023-08-21 17:39:30.387807,-100.0
2023-08-21 17:39:30.395495,-96.0
2023-08-21 17:39:30.403184,-93.0
2023-08-21 17:39:30.410872,-91.0
2023-08-21 17:39:30.418560,-86.0
2023-08-21 17:39:30.426249,-74.0
2023-08-21 17:39:30.433937,19.0
2023-08-21 17:39:30.441625,331.0
2023-08-21 17:39:30.449314,725.0
2023-08-21 17:39:30.457002,717.0
2023-08-21 17:39:30.464690,187.0
2023-08-21 17:39:30.472379,-292.0
2023-08-21 17:39:30.480067,-285.0
2023-08-21 17:39:30.487755,-122.0
2023-08-21 17:39:30.495444,-136.0
2023-08-21 17:39:30.503132,-175.0
2023-08-21 17:39:30.510820,-141.0
2023-08-21 17:39:30.518509,-132.0
2023-08-21 17:39:30.526197,-144.0
2023-08-21 17:39:30.533885,-134.0
2023-08-21 17:39:30.541574,-122.0
2023-08-21 17:39:30.549262,-115.0
2023-08-21 17:39:30.556950,-103.0
2023-08-21 17:39:30.564639,-103.0
2023-08-21 17:39:30.572327,-103.0
2023-08-21 17:39:30.580015,-93.0
2023-08-21 17:39:30.587703,-86.0
2023-08-21 17:39:30.595392,-79.0
2023-08-21 17:39:30.603080,-72.0
2023-08-21 17:39:30.610768,-72.0
2023-08-21 17:39:30.618457,-67.0
2023-08-21 17:39:30.626145,-55.0
2023-08-21 17:39:30.633833,-50.0
2023-08-21 17:39:30.641522,-50.0
2023-08-21 17:39:30.649210,-43.0
2023-08-21 17:39:30.656898,-40.0
2023-08-21 17:39:30.664587,-33.0
2023-08-21 17:39:30.672275,-21.0
2023-08-21 17:39:30.679963,-16.0
2023-08-21 17:39:30.687652,-12.0
2023-08-21 17:39:30.695340,4.0
2023-08-21 17:39:30.703028,16.0
2023-08-21 17:39:30.710717,16.0
2023-08-21 17:39:30.718405,26.0
2023-08-21 17:39:30.726093,43.0
2023-08-21 17:39:30.733782,57.0
2023-08-21 17:39:30.741470,67.0
2023-08-21 17:39:30.749158,74.0
2023-08-21 17:39:30.756847,84.0
2023-08-21 17:39:30.764535,91.0
2023-08-21 17:39:30.772223,91.0
2023-08-21 17:39:30.779912,72.0
2023-08-21 17:39:30.787600,40.0
2023-08-21 17:39:30.795288,2.0
2023-08-21 17:39:30.802977,-33.0
2023-08-21 17:39:30.810665,-67.0
2023-08-21 17:39:30.818353,-88.0
2023-08-21 17:39:30.826042,-108.0
2023-08-21 17:39:30.833730,-124.0
2023-08-21 17:39:30.841418,-132.0
2023-08-21 17:39:30.849106,-132.0
2023-08-21 17:39:30.856795,-132.0
2023-08-21 17:39:30.864483,-129.0
2023-08-21 17:39:30.872171,-120.0
2023-08-21 17:39:30.879860,-117.0
2023-08-21 17:39:30.887548,-115.0
2023-08-21 17:39:30.895236,-105.0
2023-08-21 17:39:30.902925,-100.0
2023-08-21 17:39:30.910613,-96.0
2023-08-21 17:39:30.918301,-91.0
2023-08-21 17:39:30.925990,-88.0
2023-08-21 17:39:30.933678,-93.0
2023-08-21 17:39:30.941366,-91.0
2023-08-21 17:39:30.949055,-88.0
2023-08-21 17:39:30.956743,-86.0
2023-08-21 17:39:30.964431,-86.0
2023-08-21 17:39:30.972120,-86.0
2023-08-21 17:39:30.979808,-81.0
2023-08-21 17:39:30.987496,-84.0
2023-08-21 17:39:30.995185,-86.0
2023-08-21 17:39:31.002873,-84.0
2023-08-21 17:39:31.010561,-88.0
2023-08-21 17:39:31.018250,-93.0
2023-08-21 17:39:31.025938,-93.0
2023-08-21 17:39:31.033626,-88.0
2023-08-21 17:39:31.041315,-88.0
2023-08-21 17:39:31.049003,-86.0
2023-08-21 17:39:31.056691,-86.0
2023-08-21 17:39:31.064380,-84.0
2023-08-21 17:39:31.072068,-81.0
2023-08-21 17:39:31.079756,-81.0
2023-08-21 17:39:31.087445,-81.0
2023-08-21 17:39:31.095133,-79.0
2023-08-21 17:39:31.102821,-81.0
2023-08-21 17:39:31.110509,-81.0
2023-08-21 17:39:31.118198,-79.0
2023-08-21 17:39:31.125886,-76.0
2023-08-21 17:39:31.133574,-74.0
2023-08-21 17:39:31.141263,-74.0
2023-08-21 17:39:31.148951,-76.0
2023-08-21 17:39:31.156639,-76.0
2023-08-21 17:39:31.164328,-69.0
2023-08-21 17:39:31.172016,-67.0
2023-08-21 17:39:31.179704,-69.0
2023-08-21 17:39:31.187393,-74.0
2023-08-21 17:39:31.195081,-72.0
2023-08-21 17:39:31.202769,-64.0
2023-08-21 17:39:31.210458,-64.0
2023-08-21 17:39:31.218146,-79.0
2023-08-21 17:39:31.225834,-81.0
2023-08-21 17:39:31.233523,-79.0
2023-08-21 17:39:31.241211,-81.0
2023-08-21 17:39:31.248899,-81.0
2023-08-21 17:39:31.256588,-74.0
2023-08-21 17:39:31.264276,-74.0
2023-08-21 17:39:31.271964,-79.0
2023-08-21 17:39:31.279653,-76.0
2023-08-21 17:39:31.287341,-69.0
2023-08-21 17:39:31.295029,-72.0
2023-08-21 17:39:31.302718,-76.0
2023-08-21 17:39:31.310406,-69.0
2023-08-21 17:39:31.318094,-69.0
2023-08-21 17:39:31.325783,-74.0
2023-08-21 17:39:31.333471,-76.0
2023-08-21 17:39:31.341159,-76.0
2023-08-21 17:39:31.348848,-74.0
2023-08-21 17:39:31.356536,-74.0
2023-08-21 17:39:31.364224,-76.0
2023-08-21 17:39:31.371912,-76.0
2023-08-21 17:39:31.379601,-60.0
2023-08-21 17:39:31.387289,-36.0
2023-08-21 17:39:31.394977,-33.0
2023-08-21 17:39:31.402666,-55.0
2023-08-21 17:39:31.410354,-64.0
2023-08-21 17:39:31.418042,-72.0
2023-08-21 17:39:31.425731,-96.0
2023-08-21 17:39:31.433419,-105.0
2023-08-21 17:39:31.441107,-98.0
2023-08-21 17:39:31.448796,-96.0
2023-08-21 17:39:31.456484,-98.0
2023-08-21 17:39:31.464172,-93.0
2023-08-21 17:39:31.471861,-88.0
2023-08-21 17:39:31.479549,-86.0
2023-08-21 17:39:31.487237,-40.0
2023-08-21 17:39:31.494926,182.0
2023-08-21 17:39:31.502614,592.0
2023-08-21 17:39:31.510302,806.0
2023-08-21 17:39:31.517991,487.0
2023-08-21 17:39:31.525679,-93.0
2023-08-21 17:39:31.533367,-328.0
2023-08-21 17:39:31.541056,-172.0
2023-08-21 17:39:31.548744,-103.0
2023-08-21 17:39:31.556432,-180.0
2023-08-21 17:39:31.564121,-168.0
2023-08-21 17:39:31.571809,-127.0
2023-08-21 17:39:31.579497,-141.0
2023-08-21 17:39:31.587186,-144.0
2023-08-21 17:39:31.594874,-127.0
2023-08-21 17:39:31.602562,-120.0
2023-08-21 17:39:31.610250,-115.0
2023-08-21 17:39:31.617939,-105.0
2023-08-21 17:39:31.625627,-98.0
2023-08-21 17:39:31.633315,-96.0
2023-08-21 17:39:31.641004,-96.0
2023-08-21 17:39:31.648692,-93.0
2023-08-21 17:39:31.656380,-81.0
2023-08-21 17:39:31.664069,-74.0
2023-08-21 17:39:31.671757,-69.0
2023-08-21 17:39:31.679445,-67.0
2023-08-21 17:39:31.687134,-64.0
2023-08-21 17:39:31.694822,-57.0
2023-08-21 17:39:31.702510,-52.0
2023-08-21 17:39:31.710199,-48.0
2023-08-21 17:39:31.717887,-48.0
2023-08-21 17:39:31.725575,-45.0
2023-08-21 17:39:31.733264,-33.0
2023-08-21 17:39:31.740952,-24.0
2023-08-21 17:39:31.748640,-16.0
2023-08-21 17:39:31.756329,-4.0
2023-08-21 17:39:31.764017,9.0
2023-08-21 17:39:31.771705,19.0
2023-08-21 17:39:31.779394,31.0
2023-08-21 17:39:31.787082,50.0
2023-08-21 17:39:31.794770,62.0
2023-08-21 17:39:31.802459,74.0
2023-08-21 17:39:31.810147,86.0
2023-08-21 17:39:31.817835,91.0
2023-08-21 17:39:31.825524,91.0
2023-08-21 17:39:31.833212,84.0
2023-08-21 17:39:31.840900,64.0
2023-08-21 17:39:31.848589,38.0
2023-08-21 17:39:31.856277,7.0
2023-08-21 17:39:31.863965,-31.0
2023-08-21 17:39:31.871653,-62.0
2023-08-21 17:39:31.879342,-81.0
2023-08-21 17:39:31.887030,-96.0
2023-08-21 17:39:31.894718,-103.0
2023-08-21 17:39:31.902407,-108.0
2023-08-21 17:39:31.910095,-115.0
2023-08-21 17:39:31.917783,-120.0
2023-08-21 17:39:31.925472,-115.0
2023-08-21 17:39:31.933160,-108.0
2023-08-21 17:39:31.940848,-110.0
2023-08-21 17:39:31.948537,-110.0
2023-08-21 17:39:31.956225,-110.0
2023-08-21 17:39:31.963913,-115.0
2023-08-21 17:39:31.971602,-110.0
2023-08-21 17:39:31.979290,-98.0
2023-08-21 17:39:31.986978,-96.0
2023-08-21 17:39:31.994667,-93.0
2023-08-21 17:39:32.002355,-91.0
2023-08-21 17:39:32.010043,-88.0
2023-08-21 17:39:32.017732,-86.0
2023-08-21 17:39:32.025420,-86.0
2023-08-21 17:39:32.033108,-88.0
2023-08-21 17:39:32.040797,-93.0
2023-08-21 17:39:32.048485,-93.0
2023-08-21 17:39:32.056173,-91.0
2023-08-21 17:39:32.063862,-91.0
2023-08-21 17:39:32.071550,-88.0
2023-08-21 17:39:32.079238,-84.0
2023-08-21 17:39:32.086927,-86.0
2023-08-21 17:39:32.094615,-98.0
2023-08-21 17:39:32.102303,-96.0
2023-08-21 17:39:32.109992,-88.0
2023-08-21 17:39:32.117680,-88.0
2023-08-21 17:39:32.125368,-84.0
2023-08-21 17:39:32.133056,-81.0
2023-08-21 17:39:32.140745,-88.0
2023-08-21 17:39:32.148433,-86.0
2023-08-21 17:39:32.156121,-81.0
2023-08-21 17:39:32.163810,-81.0
2023-08-21 17:39:32.171498,-81.0
2023-08-21 17:39:32.179186,-79.0
2023-08-21 17:39:32.186875,-84.0
2023-08-21 17:39:32.194563,-86.0
2023-08-21 17:39:32.202251,-79.0
2023-08-21 17:39:32.209940,-76.0
2023-08-21 17:39:32.217628,-76.0
2023-08-21 17:39:32.225316,-79.0
2023-08-21 17:39:32.233005,-81.0
2023-08-21 17:39:32.240693,-76.0
2023-08-21 17:39:32.248381,-72.0
2023-08-21 17:39:32.256070,-81.0
2023-08-21 17:39:32.263758,-84.0
2023-08-21 17:39:32.271446,-76.0
2023-08-21 17:39:32.279135,-72.0
2023-08-21 17:39:32.286823,-79.0
2023-08-21 17:39:32.294511,-84.0
2023-08-21 17:39:32.302200,-76.0
2023-08-21 17:39:32.309888,-69.0
2023-08-21 17:39:32.317576,-69.0
2023-08-21 17:39:32.325265,-69.0
2023-08-21 17:39:32.332953,-72.0
2023-08-21 17:39:32.340641,-69.0
2023-08-21 17:39:32.348330,-67.0
2023-08-21 17:39:32.356018,-69.0
2023-08-21 17:39:32.363706,-72.0
2023-08-21 17:39:32.371395,-72.0
2023-08-21 17:39:32.379083,-76.0
2023-08-21 17:39:32.386771,-84.0
2023-08-21 17:39:32.394459,-79.0
2023-08-21 17:39:32.402148,-76.0
2023-08-21 17:39:32.409836,-74.0
2023-08-21 17:39:32.417524,-74.0
2023-08-21 17:39:32.425213,-76.0
2023-08-21 17:39:32.432901,-79.0
2023-08-21 17:39:32.440589,-67.0
2023-08-21 17:39:32.448278,-50.0
2023-08-21 17:39:32.455966,-28.0
2023-08-21 17:39:32.463654,-28.0
2023-08-21 17:39:32.471343,-48.0
2023-08-21 17:39:32.479031,-57.0
2023-08-21 17:39:32.486719,-64.0
2023-08-21 17:39:32.494408,-91.0
2023-08-21 17:39:32.502096,-108.0
2023-08-21 17:39:32.509784,-98.0
2023-08-21 17:39:32.517473,-93.0
2023-08-21 17:39:32.525161,-93.0
2023-08-21 17:39:32.532849,-86.0
2023-08-21 17:39:32.540538,-91.0
2023-08-21 17:39:32.548226,-98.0
2023-08-21 17:39:32.555914,-45.0
2023-08-21 17:39:32.563603,192.0
2023-08-21 17:39:32.571291,616.0
2023-08-21 17:39:32.578979,806.0
2023-08-21 17:39:32.586668,410.0
2023-08-21 17:39:32.594356,-184.0
2023-08-21 17:39:32.602044,-348.0
2023-08-21 17:39:32.609733,-177.0
2023-08-21 17:39:32.617421,-129.0
2023-08-21 17:39:32.625109,-184.0
2023-08-21 17:39:32.632798,-170.0
2023-08-21 17:39:32.640486,-144.0
2023-08-21 17:39:32.648174,-148.0
2023-08-21 17:39:32.655862,-139.0
2023-08-21 17:39:32.663551,-129.0
2023-08-21 17:39:32.671239,-134.0
2023-08-21 17:39:32.678927,-134.0
2023-08-21 17:39:32.686616,-127.0
2023-08-21 17:39:32.694304,-115.0
2023-08-21 17:39:32.701992,-103.0
2023-08-21 17:39:32.709681,-93.0
2023-08-21 17:39:32.717369,-93.0
2023-08-21 17:39:32.725057,-96.0
2023-08-21 17:39:32.732746,-91.0
2023-08-21 17:39:32.740434,-86.0
2023-08-21 17:39:32.748122,-81.0
2023-08-21 17:39:32.755811,-72.0
2023-08-21 17:39:32.763499,-67.0
2023-08-21 17:39:32.771187,-62.0
2023-08-21 17:39:32.778876,-57.0
2023-08-21 17:39:32.786564,-55.0
2023-08-21 17:39:32.794252,-48.0
2023-08-21 17:39:32.801941,-36.0
2023-08-21 17:39:32.809629,-21.0
2023-08-21 17:39:32.817317,-7.0
2023-08-21 17:39:32.825006,0.0
2023-08-21 17:39:32.832694,7.0
2023-08-21 17:39:32.840382,21.0
2023-08-21 17:39:32.848071,36.0
2023-08-21 17:39:32.855759,50.0
2023-08-21 17:39:32.863447,64.0
2023-08-21 17:39:32.871136,79.0
2023-08-21 17:39:32.878824,88.0
2023-08-21 17:39:32.886512,91.0
2023-08-21 17:39:32.894201,93.0
2023-08-21 17:39:32.901889,88.0
2023-08-21 17:39:32.909577,67.0
2023-08-21 17:39:32.917265,38.0
2023-08-21 17:39:32.924954,-2.0
2023-08-21 17:39:32.932642,-40.0
2023-08-21 17:39:32.940330,-72.0
2023-08-21 17:39:32.948019,-96.0
2023-08-21 17:39:32.955707,-112.0
2023-08-21 17:39:32.963395,-120.0
2023-08-21 17:39:32.971084,-124.0
2023-08-21 17:39:32.978772,-129.0
2023-08-21 17:39:32.986460,-127.0
2023-08-21 17:39:32.994149,-122.0
2023-08-21 17:39:33.001837,-122.0
2023-08-21 17:39:33.009525,-115.0
2023-08-21 17:39:33.017214,-108.0
2023-08-21 17:39:33.024902,-105.0
2023-08-21 17:39:33.032590,-105.0
2023-08-21 17:39:33.040279,-108.0
2023-08-21 17:39:33.047967,-105.0
2023-08-21 17:39:33.055655,-100.0
2023-08-21 17:39:33.063344,-98.0
2023-08-21 17:39:33.071032,-91.0
2023-08-21 17:39:33.078720,-93.0
2023-08-21 17:39:33.086409,-93.0
2023-08-21 17:39:33.094097,-88.0
2023-08-21 17:39:33.101785,-91.0
2023-08-21 17:39:33.109474,-96.0
2023-08-21 17:39:33.117162,-96.0
2023-08-21 17:39:33.124850,-96.0
2023-08-21 17:39:33.132539,-96.0
2023-08-21 17:39:33.140227,-96.0
2023-08-21 17:39:33.147915,-96.0
2023-08-21 17:39:33.155604,-100.0
2023-08-21 17:39:33.163292,-103.0
2023-08-21 17:39:33.170980,-96.0
2023-08-21 17:39:33.178668,-96.0
2023-08-21 17:39:33.186357,-100.0
2023-08-21 17:39:33.194045,-96.0
2023-08-21 17:39:33.201733,-88.0
2023-08-21 17:39:33.209422,-88.0
2023-08-21 17:39:33.217110,-91.0
2023-08-21 17:39:33.224798,-91.0
2023-08-21 17:39:33.232487,-93.0
2023-08-21 17:39:33.240175,-98.0
2023-08-21 17:39:33.247863,-96.0
2023-08-21 17:39:33.255552,-91.0
2023-08-21 17:39:33.263240,-93.0
2023-08-21 17:39:33.270928,-88.0
2023-08-21 17:39:33.278617,-81.0
2023-08-21 17:39:33.286305,-81.0
2023-08-21 17:39:33.293993,-84.0
2023-08-21 17:39:33.301682,-86.0
2023-08-21 17:39:33.309370,-81.0
2023-08-21 17:39:33.317058,-76.0
2023-08-21 17:39:33.324747,-76.0
2023-08-21 17:39:33.332435,-76.0
2023-08-21 17:39:33.340123,-74.0
2023-08-21 17:39:33.347812,-81.0
2023-08-21 17:39:33.355500,-84.0
2023-08-21 17:39:33.363188,-79.0
2023-08-21 17:39:33.370877,-74.0
2023-08-21 17:39:33.378565,-69.0
2023-08-21 17:39:33.386253,-67.0
2023-08-21 17:39:33.393942,-69.0
2023-08-21 17:39:33.401630,-74.0
2023-08-21 17:39:33.409318,-74.0
2023-08-21 17:39:33.417007,-74.0
2023-08-21 17:39:33.424695,-79.0
2023-08-21 17:39:33.432383,-79.0
2023-08-21 17:39:33.440071,-76.0
2023-08-21 17:39:33.447760,-79.0
2023-08-21 17:39:33.455448,-81.0
2023-08-21 17:39:33.463136,-74.0
2023-08-21 17:39:33.470825,-72.0
2023-08-21 17:39:33.478513,-76.0
2023-08-21 17:39:33.486201,-79.0
2023-08-21 17:39:33.493890,-76.0
2023-08-21 17:39:33.501578,-72.0
2023-08-21 17:39:33.509266,-62.0
2023-08-21 17:39:33.516955,-45.0
2023-08-21 17:39:33.524643,-28.0
2023-08-21 17:39:33.532331,-31.0
2023-08-21 17:39:33.540020,-43.0
2023-08-21 17:39:33.547708,-50.0
2023-08-21 17:39:33.555396,-60.0
2023-08-21 17:39:33.563085,-81.0
2023-08-21 17:39:33.570773,-96.0
2023-08-21 17:39:33.578461,-96.0
2023-08-21 17:39:33.586150,-98.0
2023-08-21 17:39:33.593838,-88.0
2023-08-21 17:39:33.601526,-79.0
2023-08-21 17:39:33.609215,-84.0
2023-08-21 17:39:33.616903,-86.0
2023-08-21 17:39:33.624591,-33.0
2023-08-21 17:39:33.632280,206.0
2023-08-21 17:39:33.639968,619.0
2023-08-21 17:39:33.647656,818.0
2023-08-21 17:39:33.655345,468.0
2023-08-21 17:39:33.663033,-129.0
2023-08-21 17:39:33.670721,-340.0
2023-08-21 17:39:33.678410,-165.0
2023-08-21 17:39:33.686098,-105.0
2023-08-21 17:39:33.693786,-184.0
2023-08-21 17:39:33.701474,-170.0
2023-08-21 17:39:33.709163,-134.0
2023-08-21 17:39:33.716851,-151.0
2023-08-21 17:39:33.724539,-148.0
2023-08-21 17:39:33.732228,-124.0
2023-08-21 17:39:33.739916,-127.0
2023-08-21 17:39:33.747604,-132.0
2023-08-21 17:39:33.755293,-120.0
2023-08-21 17:39:33.762981,-110.0
2023-08-21 17:39:33.770669,-105.0
2023-08-21 17:39:33.778358,-98.0
2023-08-21 17:39:33.786046,-91.0
2023-08-21 17:39:33.793734,-86.0
2023-08-21 17:39:33.801423,-88.0
2023-08-21 17:39:33.809111,-88.0
2023-08-21 17:39:33.816799,-81.0
2023-08-21 17:39:33.824488,-72.0
2023-08-21 17:39:33.832176,-64.0
2023-08-21 17:39:33.839864,-57.0
2023-08-21 17:39:33.847553,-55.0
2023-08-21 17:39:33.855241,-43.0
2023-08-21 17:39:33.862929,-33.0
2023-08-21 17:39:33.870618,-28.0
2023-08-21 17:39:33.878306,-21.0
2023-08-21 17:39:33.885994,-9.0
2023-08-21 17:39:33.893683,0.0
2023-08-21 17:39:33.901371,9.0
2023-08-21 17:39:33.909059,21.0
2023-08-21 17:39:33.916748,36.0
2023-08-21 17:39:33.924436,50.0
2023-08-21 17:39:33.932124,57.0
2023-08-21 17:39:33.939813,69.0
2023-08-21 17:39:33.947501,79.0
2023-08-21 17:39:33.955189,84.0
2023-08-21 17:39:33.962877,86.0
2023-08-21 17:39:33.970566,81.0
2023-08-21 17:39:33.978254,64.0
2023-08-21 17:39:33.985942,36.0
2023-08-21 17:39:33.993631,0.0
2023-08-21 17:39:34.001319,-33.0
2023-08-21 17:39:34.009007,-64.0
2023-08-21 17:39:34.016696,-88.0
2023-08-21 17:39:34.024384,-103.0
2023-08-21 17:39:34.032072,-117.0
2023-08-21 17:39:34.039761,-124.0
2023-08-21 17:39:34.047449,-122.0
2023-08-21 17:39:34.055137,-120.0
2023-08-21 17:39:34.062826,-117.0
2023-08-21 17:39:34.070514,-115.0
2023-08-21 17:39:34.078202,-112.0
2023-08-21 17:39:34.085891,-108.0
2023-08-21 17:39:34.093579,-105.0
2023-08-21 17:39:34.101267,-100.0
2023-08-21 17:39:34.108956,-96.0
2023-08-21 17:39:34.116644,-93.0
2023-08-21 17:39:34.124332,-91.0
2023-08-21 17:39:34.132021,-88.0
2023-08-21 17:39:34.139709,-81.0
2023-08-21 17:39:34.147397,-81.0
2023-08-21 17:39:34.155086,-91.0
2023-08-21 17:39:34.162774,-98.0
2023-08-21 17:39:34.170462,-98.0
2023-08-21 17:39:34.178151,-98.0
2023-08-21 17:39:34.185839,-98.0
2023-08-21 17:39:34.193527,-98.0
2023-08-21 17:39:34.201216,-98.0
2023-08-21 17:39:34.208904,-96.0
2023-08-21 17:39:34.216592,-96.0
2023-08-21 17:39:34.224280,-98.0
2023-08-21 17:39:34.231969,-93.0
2023-08-21 17:39:34.239657,-96.0
2023-08-21 17:39:34.247345,-105.0
2023-08-21 17:39:34.255034,-103.0
2023-08-21 17:39:34.262722,-96.0
2023-08-21 17:39:34.270410,-98.0
2023-08-21 17:39:34.278099,-100.0
2023-08-21 17:39:34.285787,-93.0
2023-08-21 17:39:34.293475,-93.0
2023-08-21 17:39:34.301164,-98.0
2023-08-21 17:39:34.308852,-93.0
2023-08-21 17:39:34.316540,-88.0
2023-08-21 17:39:34.324229,-91.0
2023-08-21 17:39:34.331917,-91.0
2023-08-21 17:39:34.339605,-96.0
2023-08-21 17:39:34.347294,-96.0
2023-08-21 17:39:34.354982,-91.0
2023-08-21 17:39:34.362670,-86.0
2023-08-21 17:39:34.370359,-84.0
2023-08-21 17:39:34.378047,-86.0
2023-08-21 17:39:34.385735,-86.0
2023-08-21 17:39:34.393424,-84.0
2023-08-21 17:39:34.401112,-86.0
2023-08-21 17:39:34.408800,-84.0
2023-08-21 17:39:34.416489,-81.0
2023-08-21 17:39:34.424177,-84.0
2023-08-21 17:39:34.431865,-86.0
2023-08-21 17:39:34.439554,-91.0
2023-08-21 17:39:34.447242,-91.0
2023-08-21 17:39:34.454930,-86.0
2023-08-21 17:39:34.462619,-88.0
2023-08-21 17:39:34.470307,-88.0
2023-08-21 17:39:34.477995,-86.0
2023-08-21 17:39:34.485683,-81.0
2023-08-21 17:39:34.493372,-79.0
2023-08-21 17:39:34.501060,-84.0
2023-08-21 17:39:34.508748,-86.0
2023-08-21 17:39:34.516437,-76.0
2023-08-21 17:39:34.524125,-74.0
2023-08-21 17:39:34.531813,-79.0
2023-08-21 17:39:34.539502,-76.0
2023-08-21 17:39:34.547190,-76.0
2023-08-21 17:39:34.554878,-76.0
2023-08-21 17:39:34.562567,-76.0
2023-08-21 17:39:34.570255,-79.0
2023-08-21 17:39:34.577943,-72.0
2023-08-21 17:39:34.585632,-64.0
2023-08-21 17:39:34.593320,-72.0
2023-08-21 17:39:34.601008,-74.0
2023-08-21 17:39:34.608697,-62.0
2023-08-21 17:39:34.616385,-50.0
2023-08-21 17:39:34.624073,-36.0
2023-08-21 17:39:34.631762,-14.0
2023-08-21 17:39:34.639450,-16.0
2023-08-21 17:39:34.647138,-43.0
2023-08-21 17:39:34.654827,-55.0
2023-08-21 17:39:34.662515,-64.0
2023-08-21 17:39:34.670203,-81.0
2023-08-21 17:39:34.677892,-91.0
2023-08-21 17:39:34.685580,-79.0
2023-08-21 17:39:34.693268,-74.0
2023-08-21 17:39:34.700957,-74.0
2023-08-21 17:39:34.708645,-67.0
2023-08-21 17:39:34.716333,-69.0
2023-08-21 17:39:34.724022,-67.0
2023-08-21 17:39:34.731710,9.0
2023-08-21 17:39:34.739398,295.0
2023-08-21 17:39:34.747086,698.0
2023-08-21 17:39:34.754775,787.0
2023-08-21 17:39:34.762463,345.0
2023-08-21 17:39:34.770151,-196.0
2023-08-21 17:39:34.777840,-300.0
2023-08-21 17:39:34.785528,-139.0
2023-08-21 17:39:34.793216,-132.0
2023-08-21 17:39:34.800905,-194.0
2023-08-21 17:39:34.808593,-163.0
2023-08-21 17:39:34.816281,-136.0
2023-08-21 17:39:34.823970,-141.0
2023-08-21 17:39:34.831658,-136.0
2023-08-21 17:39:34.839346,-132.0
2023-08-21 17:39:34.847035,-129.0
2023-08-21 17:39:34.854723,-117.0
2023-08-21 17:39:34.862411,-100.0
2023-08-21 17:39:34.870100,-100.0
2023-08-21 17:39:34.877788,-98.0
2023-08-21 17:39:34.885476,-91.0
2023-08-21 17:39:34.893165,-86.0
2023-08-21 17:39:34.900853,-84.0
2023-08-21 17:39:34.908541,-79.0
2023-08-21 17:39:34.916230,-69.0
2023-08-21 17:39:34.923918,-67.0
2023-08-21 17:39:34.931606,-64.0
2023-08-21 17:39:34.939295,-57.0
2023-08-21 17:39:34.946983,-50.0
2023-08-21 17:39:34.954671,-38.0
2023-08-21 17:39:34.962360,-33.0
2023-08-21 17:39:34.970048,-40.0
2023-08-21 17:39:34.977736,-38.0
2023-08-21 17:39:34.985425,-16.0
2023-08-21 17:39:34.993113,2.0
2023-08-21 17:39:35.000801,14.0
2023-08-21 17:39:35.008489,21.0
2023-08-21 17:39:35.016178,31.0
2023-08-21 17:39:35.023866,48.0
2023-08-21 17:39:35.031554,64.0
2023-08-21 17:39:35.039243,79.0
2023-08-21 17:39:35.046931,88.0
2023-08-21 17:39:35.054619,91.0
2023-08-21 17:39:35.062308,98.0
2023-08-21 17:39:35.069996,100.0
2023-08-21 17:39:35.077684,96.0
2023-08-21 17:39:35.085373,76.0
2023-08-21 17:39:35.093061,43.0
2023-08-21 17:39:35.100749,7.0
2023-08-21 17:39:35.108438,-28.0
2023-08-21 17:39:35.116126,-69.0
2023-08-21 17:39:35.123814,-91.0
2023-08-21 17:39:35.131503,-100.0
2023-08-21 17:39:35.139191,-120.0
2023-08-21 17:39:35.146879,-134.0
2023-08-21 17:39:35.154568,-134.0
2023-08-21 17:39:35.162256,-129.0
2023-08-21 17:39:35.169944,-120.0
2023-08-21 17:39:35.177633,-112.0
2023-08-21 17:39:35.185321,-112.0
2023-08-21 17:39:35.193009,-112.0
2023-08-21 17:39:35.200698,-105.0
2023-08-21 17:39:35.208386,-98.0
2023-08-21 17:39:35.216074,-96.0
2023-08-21 17:39:35.223763,-93.0
2023-08-21 17:39:35.231451,-88.0
2023-08-21 17:39:35.239139,-84.0
2023-08-21 17:39:35.246828,-86.0
2023-08-21 17:39:35.254516,-86.0
2023-08-21 17:39:35.262204,-91.0
2023-08-21 17:39:35.269892,-96.0
2023-08-21 17:39:35.277581,-98.0
2023-08-21 17:39:35.285269,-100.0
2023-08-21 17:39:35.292957,-108.0
2023-08-21 17:39:35.300646,-108.0
2023-08-21 17:39:35.308334,-110.0
2023-08-21 17:39:35.316022,-112.0
2023-08-21 17:39:35.323711,-110.0
2023-08-21 17:39:35.331399,-117.0
2023-08-21 17:39:35.339087,-122.0
2023-08-21 17:39:35.346776,-112.0
2023-08-21 17:39:35.354464,-110.0
2023-08-21 17:39:35.362152,-115.0
2023-08-21 17:39:35.369841,-112.0
2023-08-21 17:39:35.377529,-108.0
2023-08-21 17:39:35.385217,-112.0
2023-08-21 17:39:35.392906,-120.0
2023-08-21 17:39:35.400594,-115.0
2023-08-21 17:39:35.408282,-100.0
2023-08-21 17:39:35.415971,-100.0
2023-08-21 17:39:35.423659,-110.0
2023-08-21 17:39:35.431347,-103.0
2023-08-21 17:39:35.439036,-96.0
2023-08-21 17:39:35.446724,-98.0
2023-08-21 17:39:35.454412,-96.0
2023-08-21 17:39:35.462101,-98.0
2023-08-21 17:39:35.469789,-103.0
2023-08-21 17:39:35.477477,-98.0
2023-08-21 17:39:35.485166,-93.0
2023-08-21 17:39:35.492854,-98.0
2023-08-21 17:39:35.500542,-100.0
2023-08-21 17:39:35.508231,-98.0
2023-08-21 17:39:35.515919,-96.0
2023-08-21 17:39:35.523607,-93.0
2023-08-21 17:39:35.531295,-93.0
2023-08-21 17:39:35.538984,-91.0
2023-08-21 17:39:35.546672,-84.0
2023-08-21 17:39:35.554360,-84.0
2023-08-21 17:39:35.562049,-88.0
2023-08-21 17:39:35.569737,-91.0
2023-08-21 17:39:35.577425,-88.0
2023-08-21 17:39:35.585114,-84.0
2023-08-21 17:39:35.592802,-81.0
2023-08-21 17:39:35.600490,-84.0
2023-08-21 17:39:35.608179,-84.0
2023-08-21 17:39:35.615867,-76.0
2023-08-21 17:39:35.623555,-76.0
2023-08-21 17:39:35.631244,-76.0
2023-08-21 17:39:35.638932,-74.0
2023-08-21 17:39:35.646620,-62.0
2023-08-21 17:39:35.654309,-38.0
2023-08-21 17:39:35.661997,-21.0
2023-08-21 17:39:35.669685,-33.0
2023-08-21 17:39:35.677374,-52.0
2023-08-21 17:39:35.685062,-57.0
2023-08-21 17:39:35.692750,-74.0
2023-08-21 17:39:35.700439,-91.0
2023-08-21 17:39:35.708127,-86.0
2023-08-21 17:39:35.715815,-76.0
2023-08-21 17:39:35.723504,-81.0
2023-08-21 17:39:35.731192,-84.0
2023-08-21 17:39:35.738880,-74.0
2023-08-21 17:39:35.746569,-64.0
2023-08-21 17:39:35.754257,-45.0
2023-08-21 17:39:35.761945,67.0
2023-08-21 17:39:35.769634,405.0
2023-08-21 17:39:35.777322,773.0
2023-08-21 17:39:35.785010,669.0
2023-08-21 17:39:35.792698,96.0
2023-08-21 17:39:35.800387,-309.0
2023-08-21 17:39:35.808075,-240.0
2023-08-21 17:39:35.815763,-100.0
2023-08-21 17:39:35.823452,-139.0
2023-08-21 17:39:35.831140,-163.0
2023-08-21 17:39:35.838828,-129.0
2023-08-21 17:39:35.846517,-129.0
2023-08-21 17:39:35.854205,-136.0
2023-08-21 17:39:35.861893,-115.0
2023-08-21 17:39:35.869582,-105.0
2023-08-21 17:39:35.877270,-112.0
2023-08-21 17:39:35.884958,-105.0
2023-08-21 17:39:35.892647,-91.0
2023-08-21 17:39:35.900335,-86.0
2023-08-21 17:39:35.908023,-88.0
2023-08-21 17:39:35.915712,-93.0
2023-08-21 17:39:35.923400,-88.0
2023-08-21 17:39:35.931088,-79.0
2023-08-21 17:39:35.938777,-76.0
2023-08-21 17:39:35.946465,-76.0
2023-08-21 17:39:35.954153,-69.0
2023-08-21 17:39:35.961842,-62.0
2023-08-21 17:39:35.969530,-57.0
2023-08-21 17:39:35.977218,-45.0
2023-08-21 17:39:35.984907,-38.0
2023-08-21 17:39:35.992595,-38.0
2023-08-21 17:39:36.000283,-31.0
2023-08-21 17:39:36.007972,-21.0
2023-08-21 17:39:36.015660,-14.0
2023-08-21 17:39:36.023348,-2.0
2023-08-21 17:39:36.031037,14.0
2023-08-21 17:39:36.038725,21.0
2023-08-21 17:39:36.046413,31.0
2023-08-21 17:39:36.054101,50.0
2023-08-21 17:39:36.061790,67.0
2023-08-21 17:39:36.069478,72.0
2023-08-21 17:39:36.077166,84.0
2023-08-21 17:39:36.084855,96.0
2023-08-21 17:39:36.092543,91.0
2023-08-21 17:39:36.100231,84.0
2023-08-21 17:39:36.107920,74.0
2023-08-21 17:39:36.115608,45.0
2023-08-21 17:39:36.123296,4.0
2023-08-21 17:39:36.130985,-26.0
2023-08-21 17:39:36.138673,-50.0
2023-08-21 17:39:36.146361,-79.0
2023-08-21 17:39:36.154050,-105.0
2023-08-21 17:39:36.161738,-120.0
2023-08-21 17:39:36.169426,-120.0
2023-08-21 17:39:36.177115,-117.0
2023-08-21 17:39:36.184803,-117.0
2023-08-21 17:39:36.192491,-117.0
2023-08-21 17:39:36.200180,-115.0
2023-08-21 17:39:36.207868,-110.0
2023-08-21 17:39:36.215556,-103.0
2023-08-21 17:39:36.223245,-98.0
2023-08-21 17:39:36.230933,-96.0
2023-08-21 17:39:36.238621,-91.0
2023-08-21 17:39:36.246310,-86.0
2023-08-21 17:39:36.253998,-81.0
2023-08-21 17:39:36.261686,-79.0
2023-08-21 17:39:36.269375,-76.0
2023-08-21 17:39:36.277063,-81.0
2023-08-21 17:39:36.284751,-88.0
2023-08-21 17:39:36.292439,-86.0
2023-08-21 17:39:36.300128,-81.0
2023-08-21 17:39:36.307816,-79.0
2023-08-21 17:39:36.315504,-81.0
2023-08-21 17:39:36.323193,-84.0
2023-08-21 17:39:36.330881,-84.0
2023-08-21 17:39:36.338569,-86.0
2023-08-21 17:39:36.346258,-86.0
2023-08-21 17:39:36.353946,-86.0
2023-08-21 17:39:36.361634,-84.0
2023-08-21 17:39:36.369323,-86.0
2023-08-21 17:39:36.377011,-93.0
2023-08-21 17:39:36.384699,-91.0
2023-08-21 17:39:36.392388,-84.0
2023-08-21 17:39:36.400076,-86.0
2023-08-21 17:39:36.407764,-96.0
2023-08-21 17:39:36.415453,-100.0
2023-08-21 17:39:36.423141,-96.0
2023-08-21 17:39:36.430829,-91.0
2023-08-21 17:39:36.438518,-91.0
2023-08-21 17:39:36.446206,-93.0
2023-08-21 17:39:36.453894,-100.0
2023-08-21 17:39:36.461583,-98.0
2023-08-21 17:39:36.469271,-88.0
2023-08-21 17:39:36.476959,-86.0
2023-08-21 17:39:36.484648,-88.0
2023-08-21 17:39:36.492336,-86.0
2023-08-21 17:39:36.500024,-86.0
2023-08-21 17:39:36.507713,-88.0
2023-08-21 17:39:36.515401,-84.0
2023-08-21 17:39:36.523089,-81.0
2023-08-21 17:39:36.530778,-81.0
2023-08-21 17:39:36.538466,-81.0
2023-08-21 17:39:36.546154,-81.0
2023-08-21 17:39:36.553842,-84.0
2023-08-21 17:39:36.561531,-84.0
2023-08-21 17:39:36.569219,-84.0
2023-08-21 17:39:36.576907,-86.0
2023-08-21 17:39:36.584596,-86.0
2023-08-21 17:39:36.592284,-86.0
2023-08-21 17:39:36.599972,-84.0
2023-08-21 17:39:36.607661,-86.0
2023-08-21 17:39:36.615349,-88.0
2023-08-21 17:39:36.623037,-86.0
2023-08-21 17:39:36.630726,-84.0
2023-08-21 17:39:36.638414,-81.0
2023-08-21 17:39:36.646102,-79.0
2023-08-21 17:39:36.653791,-76.0
2023-08-21 17:39:36.661479,-74.0
2023-08-21 17:39:36.669167,-76.0
2023-08-21 17:39:36.676856,-79.0
2023-08-21 17:39:36.684544,-79.0
2023-08-21 17:39:36.692232,-74.0
2023-08-21 17:39:36.699921,-74.0
2023-08-21 17:39:36.707609,-72.0
2023-08-21 17:39:36.715297,-60.0
2023-08-21 17:39:36.722986,-43.0
2023-08-21 17:39:36.730674,-26.0
2023-08-21 17:39:36.738362,-19.0
2023-08-21 17:39:36.746051,-28.0
2023-08-21 17:39:36.753739,-40.0
2023-08-21 17:39:36.761427,-52.0
2023-08-21 17:39:36.769116,-74.0
2023-08-21 17:39:36.776804,-93.0
2023-08-21 17:39:36.784492,-91.0
2023-08-21 17:39:36.792181,-79.0
2023-08-21 17:39:36.799869,-81.0
2023-08-21 17:39:36.807557,-84.0
2023-08-21 17:39:36.815245,-76.0
2023-08-21 17:39:36.822934,-72.0
2023-08-21 17:39:36.830622,-36.0
2023-08-21 17:39:36.838310,177.0
2023-08-21 17:39:36.845999,583.0
2023-08-21 17:39:36.853687,813.0
2023-08-21 17:39:36.861375,518.0
2023-08-21 17:39:36.869064,-62.0
2023-08-21 17:39:36.876752,-319.0
2023-08-21 17:39:36.884440,-175.0
2023-08-21 17:39:36.892129,-96.0
2023-08-21 17:39:36.899817,-170.0
2023-08-21 17:39:36.907505,-168.0
2023-08-21 17:39:36.915194,-129.0
2023-08-21 17:39:36.922882,-141.0
2023-08-21 17:39:36.930570,-141.0
2023-08-21 17:39:36.938259,-120.0
2023-08-21 17:39:36.945947,-124.0
2023-08-21 17:39:36.953635,-136.0
2023-08-21 17:39:36.961324,-124.0
2023-08-21 17:39:36.969012,-112.0
2023-08-21 17:39:36.976700,-105.0
2023-08-21 17:39:36.984389,-98.0
2023-08-21 17:39:36.992077,-98.0
2023-08-21 17:39:36.999765,-96.0
2023-08-21 17:39:37.007454,-88.0
2023-08-21 17:39:37.015142,-79.0
2023-08-21 17:39:37.022830,-69.0
2023-08-21 17:39:37.030519,-60.0
2023-08-21 17:39:37.038207,-62.0
2023-08-21 17:39:37.045895,-64.0
2023-08-21 17:39:37.053584,-57.0
2023-08-21 17:39:37.061272,-50.0
2023-08-21 17:39:37.068960,-38.0
2023-08-21 17:39:37.076648,-31.0
2023-08-21 17:39:37.084337,-31.0
2023-08-21 17:39:37.092025,-19.0
2023-08-21 17:39:37.099713,2.0
2023-08-21 17:39:37.107402,14.0
2023-08-21 17:39:37.115090,21.0
2023-08-21 17:39:37.122778,31.0
2023-08-21 17:39:37.130467,40.0
2023-08-21 17:39:37.138155,52.0
2023-08-21 17:39:37.145843,69.0
2023-08-21 17:39:37.153532,81.0
2023-08-21 17:39:37.161220,88.0
2023-08-21 17:39:37.168908,96.0
2023-08-21 17:39:37.176597,93.0
2023-08-21 17:39:37.184285,72.0
2023-08-21 17:39:37.191973,40.0
2023-08-21 17:39:37.199662,12.0
2023-08-21 17:39:37.207350,-16.0
2023-08-21 17:39:37.215038,-52.0
2023-08-21 17:39:37.222727,-84.0
2023-08-21 17:39:37.230415,-96.0
2023-08-21 17:39:37.238103,-98.0
2023-08-21 17:39:37.245792,-103.0
2023-08-21 17:39:37.253480,-110.0
2023-08-21 17:39:37.261168,-112.0
2023-08-21 17:39:37.268857,-112.0
2023-08-21 17:39:37.276545,-115.0
2023-08-21 17:39:37.284233,-112.0
2023-08-21 17:39:37.291922,-108.0
2023-08-21 17:39:37.299610,-108.0
2023-08-21 17:39:37.307298,-100.0
2023-08-21 17:39:37.314987,-93.0
2023-08-21 17:39:37.322675,-96.0
2023-08-21 17:39:37.330363,-91.0
2023-08-21 17:39:37.338051,-81.0
2023-08-21 17:39:37.345740,-79.0
2023-08-21 17:39:37.353428,-88.0
2023-08-21 17:39:37.361116,-91.0
2023-08-21 17:39:37.368805,-86.0
2023-08-21 17:39:37.376493,-88.0
2023-08-21 17:39:37.384181,-91.0
2023-08-21 17:39:37.391870,-88.0
2023-08-21 17:39:37.399558,-86.0
2023-08-21 17:39:37.407246,-88.0
2023-08-21 17:39:37.414935,-93.0
2023-08-21 17:39:37.422623,-88.0
2023-08-21 17:39:37.430311,-86.0
2023-08-21 17:39:37.438000,-91.0
2023-08-21 17:39:37.445688,-93.0
2023-08-21 17:39:37.453376,-86.0
2023-08-21 17:39:37.461065,-88.0
2023-08-21 17:39:37.468753,-91.0
2023-08-21 17:39:37.476441,-81.0
2023-08-21 17:39:37.484130,-81.0
2023-08-21 17:39:37.491818,-86.0
2023-08-21 17:39:37.499506,-79.0
2023-08-21 17:39:37.507195,-74.0
2023-08-21 17:39:37.514883,-74.0
2023-08-21 17:39:37.522571,-74.0
2023-08-21 17:39:37.530260,-79.0
2023-08-21 17:39:37.537948,-81.0
2023-08-21 17:39:37.545636,-79.0
2023-08-21 17:39:37.553325,-76.0
2023-08-21 17:39:37.561013,-74.0
2023-08-21 17:39:37.568701,-74.0
2023-08-21 17:39:37.576390,-79.0
2023-08-21 17:39:37.584078,-88.0
2023-08-21 17:39:37.591766,-91.0
2023-08-21 17:39:37.599454,-86.0
2023-08-21 17:39:37.607143,-86.0
2023-08-21 17:39:37.614831,-81.0
2023-08-21 17:39:37.622519,-81.0
2023-08-21 17:39:37.630208,-91.0
2023-08-21 17:39:37.637896,-98.0
2023-08-21 17:39:37.645584,-93.0
2023-08-21 17:39:37.653273,-84.0
2023-08-21 17:39:37.660961,-84.0
2023-08-21 17:39:37.668649,-88.0
2023-08-21 17:39:37.676338,-86.0
2023-08-21 17:39:37.684026,-81.0
2023-08-21 17:39:37.691714,-84.0
2023-08-21 17:39:37.699403,-81.0
2023-08-21 17:39:37.707091,-74.0
2023-08-21 17:39:37.714779,-74.0
2023-08-21 17:39:37.722468,-74.0
2023-08-21 17:39:37.730156,-60.0
2023-08-21 17:39:37.737844,-36.0
2023-08-21 17:39:37.745533,-21.0
2023-08-21 17:39:37.753221,-36.0
2023-08-21 17:39:37.760909,-52.0
2023-08-21 17:39:37.768598,-67.0
2023-08-21 17:39:37.776286,-86.0
2023-08-21 17:39:37.783974,-98.0
2023-08-21 17:39:37.791663,-93.0
2023-08-21 17:39:37.799351,-91.0
2023-08-21 17:39:37.807039,-91.0
2023-08-21 17:39:37.814728,-93.0
2023-08-21 17:39:37.822416,-84.0
2023-08-21 17:39:37.830104,-72.0
2023-08-21 17:39:37.837793,-45.0
2023-08-21 17:39:37.845481,122.0
2023-08-21 17:39:37.853169,518.0
2023-08-21 17:39:37.860857,811.0
2023-08-21 17:39:37.868546,537.0
2023-08-21 17:39:37.876234,-76.0
2023-08-21 17:39:37.883922,-345.0
2023-08-21 17:39:37.891611,-196.0
2023-08-21 17:39:37.899299,-105.0
2023-08-21 17:39:37.906987,-160.0
2023-08-21 17:39:37.914676,-163.0
2023-08-21 17:39:37.922364,-129.0
2023-08-21 17:39:37.930052,-129.0
2023-08-21 17:39:37.937741,-129.0
2023-08-21 17:39:37.945429,-120.0
2023-08-21 17:39:37.953117,-115.0
2023-08-21 17:39:37.960806,-110.0
2023-08-21 17:39:37.968494,-110.0
2023-08-21 17:39:37.976182,-100.0
2023-08-21 17:39:37.983871,-88.0
2023-08-21 17:39:37.991559,-86.0
2023-08-21 17:39:37.999247,-84.0
2023-08-21 17:39:38.006936,-74.0
2023-08-21 17:39:38.014624,-67.0
2023-08-21 17:39:38.022312,-64.0
2023-08-21 17:39:38.030001,-64.0
2023-08-21 17:39:38.037689,-57.0
2023-08-21 17:39:38.045377,-52.0
2023-08-21 17:39:38.053066,-50.0
2023-08-21 17:39:38.060754,-40.0
2023-08-21 17:39:38.068442,-33.0
2023-08-21 17:39:38.076131,-33.0
2023-08-21 17:39:38.083819,-24.0
2023-08-21 17:39:38.091507,-14.0
2023-08-21 17:39:38.099196,-7.0
2023-08-21 17:39:38.106884,4.0
2023-08-21 17:39:38.114572,14.0
2023-08-21 17:39:38.122260,19.0
2023-08-21 17:39:38.129949,31.0
2023-08-21 17:39:38.137637,55.0
2023-08-21 17:39:38.145325,64.0
2023-08-21 17:39:38.153014,67.0
2023-08-21 17:39:38.160702,84.0
2023-08-21 17:39:38.168390,96.0
2023-08-21 17:39:38.176079,91.0
2023-08-21 17:39:38.183767,79.0
2023-08-21 17:39:38.191455,60.0
2023-08-21 17:39:38.199144,28.0
2023-08-21 17:39:38.206832,-12.0
2023-08-21 17:39:38.214520,-50.0
2023-08-21 17:39:38.222209,-81.0
2023-08-21 17:39:38.229897,-105.0
2023-08-21 17:39:38.237585,-122.0
2023-08-21 17:39:38.245274,-132.0
2023-08-21 17:39:38.252962,-136.0
2023-08-21 17:39:38.260650,-141.0
2023-08-21 17:39:38.268339,-139.0
2023-08-21 17:39:38.276027,-132.0
2023-08-21 17:39:38.283715,-129.0
2023-08-21 17:39:38.291404,-127.0
2023-08-21 17:39:38.299092,-127.0
2023-08-21 17:39:38.306780,-120.0
2023-08-21 17:39:38.314469,-110.0
2023-08-21 17:39:38.322157,-108.0
2023-08-21 17:39:38.329845,-108.0
2023-08-21 17:39:38.337534,-105.0
2023-08-21 17:39:38.345222,-100.0
2023-08-21 17:39:38.352910,-98.0
2023-08-21 17:39:38.360599,-98.0
2023-08-21 17:39:38.368287,-103.0
2023-08-21 17:39:38.375975,-103.0
2023-08-21 17:39:38.383663,-98.0
2023-08-21 17:39:38.391352,-93.0
2023-08-21 17:39:38.399040,-98.0
2023-08-21 17:39:38.406728,-98.0
2023-08-21 17:39:38.414417,-98.0
2023-08-21 17:39:38.422105,-103.0
2023-08-21 17:39:38.429793,-103.0
2023-08-21 17:39:38.437482,-103.0
2023-08-21 17:39:38.445170,-100.0
2023-08-21 17:39:38.452858,-100.0
2023-08-21 17:39:38.460547,-98.0
2023-08-21 17:39:38.468235,-96.0
2023-08-21 17:39:38.475923,-93.0
2023-08-21 17:39:38.483612,-93.0
2023-08-21 17:39:38.491300,-96.0
2023-08-21 17:39:38.498988,-93.0
2023-08-21 17:39:38.506677,-91.0
2023-08-21 17:39:38.514365,-88.0
2023-08-21 17:39:38.522053,-88.0
2023-08-21 17:39:38.529742,-91.0
2023-08-21 17:39:38.537430,-86.0
2023-08-21 17:39:38.545118,-79.0
2023-08-21 17:39:38.552807,-84.0
2023-08-21 17:39:38.560495,-91.0
2023-08-21 17:39:38.568183,-86.0
2023-08-21 17:39:38.575872,-84.0
2023-08-21 17:39:38.583560,-84.0
2023-08-21 17:39:38.591248,-81.0
2023-08-21 17:39:38.598937,-81.0
2023-08-21 17:39:38.606625,-86.0
2023-08-21 17:39:38.614313,-86.0
2023-08-21 17:39:38.622002,-79.0
2023-08-21 17:39:38.629690,-79.0
2023-08-21 17:39:38.637378,-79.0
2023-08-21 17:39:38.645066,-81.0
2023-08-21 17:39:38.652755,-88.0
2023-08-21 17:39:38.660443,-96.0
2023-08-21 17:39:38.668131,-93.0
2023-08-21 17:39:38.675820,-88.0
2023-08-21 17:39:38.683508,-86.0
2023-08-21 17:39:38.691196,-88.0
2023-08-21 17:39:38.698885,-91.0
2023-08-21 17:39:38.706573,-88.0
2023-08-21 17:39:38.714261,-81.0
2023-08-21 17:39:38.721950,-79.0
2023-08-21 17:39:38.729638,-76.0
2023-08-21 17:39:38.737326,-57.0
2023-08-21 17:39:38.745015,-40.0
2023-08-21 17:39:38.752703,-45.0
2023-08-21 17:39:38.760391,-62.0
2023-08-21 17:39:38.768080,-72.0
2023-08-21 17:39:38.775768,-88.0
2023-08-21 17:39:38.783456,-108.0
2023-08-21 17:39:38.791145,-110.0
2023-08-21 17:39:38.798833,-103.0
2023-08-21 17:39:38.806521,-105.0
2023-08-21 17:39:38.814210,-105.0
2023-08-21 17:39:38.821898,-103.0
2023-08-21 17:39:38.829586,-105.0
2023-08-21 17:39:38.837275,-98.0
2023-08-21 17:39:38.844963,-2.0
2023-08-21 17:39:38.852651,302.0
2023-08-21 17:39:38.860340,720.0
2023-08-21 17:39:38.868028,785.0
2023-08-21 17:39:38.875716,295.0
2023-08-21 17:39:38.883405,-261.0
2023-08-21 17:39:38.891093,-331.0
2023-08-21 17:39:38.898781,-139.0
2023-08-21 17:39:38.906469,-139.0
2023-08-21 17:39:38.914158,-206.0
2023-08-21 17:39:38.921846,-168.0
2023-08-21 17:39:38.929534,-146.0
2023-08-21 17:39:38.937223,-165.0
2023-08-21 17:39:38.944911,-151.0
2023-08-21 17:39:38.952599,-132.0
2023-08-21 17:39:38.960288,-134.0
2023-08-21 17:39:38.967976,-132.0
2023-08-21 17:39:38.975664,-122.0
2023-08-21 17:39:38.983353,-112.0
2023-08-21 17:39:38.991041,-110.0
2023-08-21 17:39:38.998729,-108.0
2023-08-21 17:39:39.006418,-100.0
2023-08-21 17:39:39.014106,-91.0
2023-08-21 17:39:39.021794,-88.0
2023-08-21 17:39:39.029483,-86.0
2023-08-21 17:39:39.037171,-79.0
2023-08-21 17:39:39.044859,-74.0
2023-08-21 17:39:39.052548,-69.0
2023-08-21 17:39:39.060236,-64.0
2023-08-21 17:39:39.067924,-57.0
2023-08-21 17:39:39.075613,-50.0
2023-08-21 17:39:39.083301,-40.0
2023-08-21 17:39:39.090989,-31.0
2023-08-21 17:39:39.098678,-21.0
2023-08-21 17:39:39.106366,-12.0
2023-08-21 17:39:39.114054,0.0
2023-08-21 17:39:39.121743,14.0
2023-08-21 17:39:39.129431,31.0
2023-08-21 17:39:39.137119,50.0
2023-08-21 17:39:39.144808,60.0
2023-08-21 17:39:39.152496,69.0
2023-08-21 17:39:39.160184,81.0
2023-08-21 17:39:39.167872,93.0
2023-08-21 17:39:39.175561,98.0
2023-08-21 17:39:39.183249,93.0
2023-08-21 17:39:39.190937,74.0
2023-08-21 17:39:39.198626,43.0
2023-08-21 17:39:39.206314,4.0
2023-08-21 17:39:39.214002,-31.0
2023-08-21 17:39:39.221691,-60.0
2023-08-21 17:39:39.229379,-88.0
2023-08-21 17:39:39.237067,-108.0
2023-08-21 17:39:39.244756,-127.0
2023-08-21 17:39:39.252444,-141.0
2023-08-21 17:39:39.260132,-141.0
2023-08-21 17:39:39.267821,-139.0
2023-08-21 17:39:39.275509,-141.0
2023-08-21 17:39:39.283197,-134.0
2023-08-21 17:39:39.290886,-129.0
2023-08-21 17:39:39.298574,-129.0
2023-08-21 17:39:39.306262,-129.0
2023-08-21 17:39:39.313951,-129.0
2023-08-21 17:39:39.321639,-124.0
2023-08-21 17:39:39.329327,-120.0
2023-08-21 17:39:39.337016,-115.0
2023-08-21 17:39:39.344704,-115.0
2023-08-21 17:39:39.352392,-112.0
2023-08-21 17:39:39.360081,-108.0
2023-08-21 17:39:39.367769,-103.0
2023-08-21 17:39:39.375457,-105.0
2023-08-21 17:39:39.383146,-108.0
2023-08-21 17:39:39.390834,-103.0
2023-08-21 17:39:39.398522,-100.0
2023-08-21 17:39:39.406211,-100.0
2023-08-21 17:39:39.413899,-103.0
2023-08-21 17:39:39.421587,-103.0
2023-08-21 17:39:39.429275,-108.0
2023-08-21 17:39:39.436964,-103.0
2023-08-21 17:39:39.444652,-100.0
2023-08-21 17:39:39.452340,-103.0
2023-08-21 17:39:39.460029,-100.0
2023-08-21 17:39:39.467717,-96.0
2023-08-21 17:39:39.475405,-98.0
2023-08-21 17:39:39.483094,-103.0
2023-08-21 17:39:39.490782,-100.0
2023-08-21 17:39:39.498470,-93.0
2023-08-21 17:39:39.506159,-91.0
2023-08-21 17:39:39.513847,-93.0
2023-08-21 17:39:39.521535,-88.0
2023-08-21 17:39:39.529224,-88.0
2023-08-21 17:39:39.536912,-91.0
2023-08-21 17:39:39.544600,-91.0
2023-08-21 17:39:39.552289,-86.0
2023-08-21 17:39:39.559977,-84.0
2023-08-21 17:39:39.567665,-84.0
2023-08-21 17:39:39.575354,-86.0
2023-08-21 17:39:39.583042,-88.0
2023-08-21 17:39:39.590730,-84.0
2023-08-21 17:39:39.598419,-79.0
2023-08-21 17:39:39.606107,-81.0
2023-08-21 17:39:39.613795,-84.0
2023-08-21 17:39:39.621484,-81.0
2023-08-21 17:39:39.629172,-76.0
2023-08-21 17:39:39.636860,-74.0
2023-08-21 17:39:39.644549,-76.0
2023-08-21 17:39:39.652237,-76.0
2023-08-21 17:39:39.659925,-79.0
2023-08-21 17:39:39.667614,-79.0
2023-08-21 17:39:39.675302,-74.0
2023-08-21 17:39:39.682990,-72.0
2023-08-21 17:39:39.690678,-74.0
2023-08-21 17:39:39.698367,-74.0
2023-08-21 17:39:39.706055,-72.0
2023-08-21 17:39:39.713743,-69.0
2023-08-21 17:39:39.721432,-69.0
2023-08-21 17:39:39.729120,-72.0
2023-08-21 17:39:39.736808,-74.0
2023-08-21 17:39:39.744497,-74.0
2023-08-21 17:39:39.752185,-76.0
2023-08-21 17:39:39.759873,-79.0
2023-08-21 17:39:39.767562,-74.0
2023-08-21 17:39:39.775250,-69.0
2023-08-21 17:39:39.782938,-67.0
2023-08-21 17:39:39.790627,-55.0
2023-08-21 17:39:39.798315,-43.0
2023-08-21 17:39:39.806003,-52.0
2023-08-21 17:39:39.813692,-72.0
2023-08-21 17:39:39.821380,-86.0
2023-08-21 17:39:39.829068,-105.0
2023-08-21 17:39:39.836757,-122.0
2023-08-21 17:39:39.844445,-112.0
2023-08-21 17:39:39.852133,-103.0
2023-08-21 17:39:39.859822,-108.0
2023-08-21 17:39:39.867510,-105.0
2023-08-21 17:39:39.875198,-96.0
2023-08-21 17:39:39.882887,-98.0
2023-08-21 17:39:39.890575,-76.0
2023-08-21 17:39:39.898263,93.0
2023-08-21 17:39:39.905952,482.0
2023-08-21 17:39:39.913640,813.0
2023-08-21 17:39:39.921328,648.0
2023-08-21 17:39:39.929017,62.0
2023-08-21 17:39:39.936705,-331.0
2023-08-21 17:39:39.944393,-244.0
2023-08-21 17:39:39.952081,-110.0
2023-08-21 17:39:39.959770,-165.0
2023-08-21 17:39:39.967458,-192.0
2023-08-21 17:39:39.975146,-156.0
2023-08-21 17:39:39.982835,-158.0
2023-08-21 17:39:39.990523,-163.0
2023-08-21 17:39:39.998211,-141.0
2023-08-21 17:39:40.005900,-134.0
2023-08-21 17:39:40.013588,-129.0
2023-08-21 17:39:40.021276,-120.0
2023-08-21 17:39:40.028965,-115.0
2023-08-21 17:39:40.036653,-110.0
2023-08-21 17:39:40.044341,-100.0
2023-08-21 17:39:40.052030,-93.0
2023-08-21 17:39:40.059718,-93.0
2023-08-21 17:39:40.067406,-93.0
2023-08-21 17:39:40.075095,-86.0
2023-08-21 17:39:40.082783,-79.0
2023-08-21 17:39:40.090471,-76.0
2023-08-21 17:39:40.098160,-69.0
2023-08-21 17:39:40.105848,-62.0
2023-08-21 17:39:40.113536,-55.0
2023-08-21 17:39:40.121225,-52.0
2023-08-21 17:39:40.128913,-45.0
2023-08-21 17:39:40.136601,-33.0
2023-08-21 17:39:40.144290,-24.0
2023-08-21 17:39:40.151978,-16.0
2023-08-21 17:39:40.159666,-4.0
2023-08-21 17:39:40.167355,12.0
2023-08-21 17:39:40.175043,26.0
2023-08-21 17:39:40.182731,38.0
2023-08-21 17:39:40.190420,52.0
2023-08-21 17:39:40.198108,64.0
2023-08-21 17:39:40.205796,79.0
2023-08-21 17:39:40.213484,93.0
2023-08-21 17:39:40.221173,103.0
2023-08-21 17:39:40.228861,103.0
2023-08-21 17:39:40.236549,93.0
2023-08-21 17:39:40.244238,74.0
2023-08-21 17:39:40.251926,45.0
2023-08-21 17:39:40.259614,16.0
2023-08-21 17:39:40.267303,-16.0
2023-08-21 17:39:40.274991,-55.0
2023-08-21 17:39:40.282679,-81.0
2023-08-21 17:39:40.290368,-93.0
2023-08-21 17:39:40.298056,-103.0
2023-08-21 17:39:40.305744,-115.0
2023-08-21 17:39:40.313433,-120.0
2023-08-21 17:39:40.321121,-124.0
2023-08-21 17:39:40.328809,-132.0
2023-08-21 17:39:40.336498,-124.0
2023-08-21 17:39:40.344186,-112.0
2023-08-21 17:39:40.351874,-108.0
2023-08-21 17:39:40.359563,-108.0
2023-08-21 17:39:40.367251,-110.0
2023-08-21 17:39:40.374939,-112.0
2023-08-21 17:39:40.382628,-110.0
2023-08-21 17:39:40.390316,-100.0
2023-08-21 17:39:40.398004,-93.0
2023-08-21 17:39:40.405693,-96.0
2023-08-21 17:39:40.413381,-93.0
2023-08-21 17:39:40.421069,-93.0
2023-08-21 17:39:40.428758,-96.0
2023-08-21 17:39:40.436446,-91.0
2023-08-21 17:39:40.444134,-86.0
2023-08-21 17:39:40.451823,-91.0
2023-08-21 17:39:40.459511,-93.0
2023-08-21 17:39:40.467199,-93.0
2023-08-21 17:39:40.474887,-93.0
2023-08-21 17:39:40.482576,-96.0
2023-08-21 17:39:40.490264,-91.0
2023-08-21 17:39:40.497952,-88.0
2023-08-21 17:39:40.505641,-91.0
2023-08-21 17:39:40.513329,-91.0
2023-08-21 17:39:40.521017,-84.0
2023-08-21 17:39:40.528706,-86.0
2023-08-21 17:39:40.536394,-96.0
2023-08-21 17:39:40.544082,-91.0
2023-08-21 17:39:40.551771,-81.0
2023-08-21 17:39:40.559459,-84.0
2023-08-21 17:39:40.567147,-84.0
2023-08-21 17:39:40.574836,-81.0
2023-08-21 17:39:40.582524,-81.0
2023-08-21 17:39:40.590212,-81.0
2023-08-21 17:39:40.597901,-79.0
2023-08-21 17:39:40.605589,-81.0
2023-08-21 17:39:40.613277,-76.0
2023-08-21 17:39:40.620966,-69.0
2023-08-21 17:39:40.628654,-74.0
2023-08-21 17:39:40.636342,-79.0
2023-08-21 17:39:40.644031,-72.0
2023-08-21 17:39:40.651719,-67.0
2023-08-21 17:39:40.659407,-69.0
2023-08-21 17:39:40.667096,-74.0
2023-08-21 17:39:40.674784,-72.0
2023-08-21 17:39:40.682472,-72.0
2023-08-21 17:39:40.690161,-64.0
2023-08-21 17:39:40.697849,-57.0
2023-08-21 17:39:40.705537,-67.0
2023-08-21 17:39:40.713226,-69.0
2023-08-21 17:39:40.720914,-60.0
2023-08-21 17:39:40.728602,-62.0
2023-08-21 17:39:40.736290,-72.0
2023-08-21 17:39:40.743979,-64.0
2023-08-21 17:39:40.751667,-64.0
2023-08-21 17:39:40.759355,-72.0
2023-08-21 17:39:40.767044,-64.0
2023-08-21 17:39:40.774732,-52.0
2023-08-21 17:39:40.782420,-52.0
2023-08-21 17:39:40.790109,-57.0
2023-08-21 17:39:40.797797,-64.0
2023-08-21 17:39:40.805485,-62.0
2023-08-21 17:39:40.813174,-55.0
2023-08-21 17:39:40.820862,-52.0
2023-08-21 17:39:40.828550,-31.0
2023-08-21 17:39:40.836239,-21.0
2023-08-21 17:39:40.843927,-38.0
2023-08-21 17:39:40.851615,-52.0
2023-08-21 17:39:40.859304,-69.0
2023-08-21 17:39:40.866992,-105.0
2023-08-21 17:39:40.874680,-120.0
2023-08-21 17:39:40.882369,-103.0
2023-08-21 17:39:40.890057,-96.0
2023-08-21 17:39:40.897745,-96.0
2023-08-21 17:39:40.905434,-88.0
2023-08-21 17:39:40.913122,-84.0
2023-08-21 17:39:40.920810,-86.0
2023-08-21 17:39:40.928499,-64.0
2023-08-21 17:39:40.936187,96.0
2023-08-21 17:39:40.943875,487.0
2023-08-21 17:39:40.951564,804.0
2023-08-21 17:39:40.959252,580.0
2023-08-21 17:39:40.966940,-24.0
2023-08-21 17:39:40.974628,-331.0
2023-08-21 17:39:40.982317,-204.0
2023-08-21 17:39:40.990005,-100.0
2023-08-21 17:39:40.997693,-156.0
2023-08-21 17:39:41.005382,-163.0
2023-08-21 17:39:41.013070,-124.0
2023-08-21 17:39:41.020758,-127.0
2023-08-21 17:39:41.028447,-134.0
2023-08-21 17:39:41.036135,-122.0
2023-08-21 17:39:41.043823,-117.0
2023-08-21 17:39:41.051512,-112.0
2023-08-21 17:39:41.059200,-100.0
2023-08-21 17:39:41.066888,-93.0
2023-08-21 17:39:41.074577,-91.0
2023-08-21 17:39:41.082265,-81.0
2023-08-21 17:39:41.089953,-76.0
2023-08-21 17:39:41.097642,-74.0
2023-08-21 17:39:41.105330,-64.0
2023-08-21 17:39:41.113018,-60.0
2023-08-21 17:39:41.120707,-57.0
2023-08-21 17:39:41.128395,-52.0
2023-08-21 17:39:41.136083,-48.0
2023-08-21 17:39:41.143772,-45.0
2023-08-21 17:39:41.151460,-36.0
2023-08-21 17:39:41.159148,-26.0
2023-08-21 17:39:41.166837,-19.0
2023-08-21 17:39:41.174525,-16.0
2023-08-21 17:39:41.182213,-12.0
2023-08-21 17:39:41.189902,0.0
2023-08-21 17:39:41.197590,14.0
2023-08-21 17:39:41.205278,26.0
2023-08-21 17:39:41.212967,40.0
2023-08-21 17:39:41.220655,57.0
2023-08-21 17:39:41.228343,67.0
2023-08-21 17:39:41.236031,79.0
2023-08-21 17:39:41.243720,91.0
2023-08-21 17:39:41.251408,105.0
2023-08-21 17:39:41.259096,110.0
2023-08-21 17:39:41.266785,112.0
2023-08-21 17:39:41.274473,108.0
2023-08-21 17:39:41.282161,84.0
2023-08-21 17:39:41.289850,48.0
2023-08-21 17:39:41.297538,14.0
2023-08-21 17:39:41.305226,-16.0
2023-08-21 17:39:41.312915,-52.0
2023-08-21 17:39:41.320603,-81.0
2023-08-21 17:39:41.328291,-96.0
2023-08-21 17:39:41.335980,-112.0
2023-08-21 17:39:41.343668,-122.0
2023-08-21 17:39:41.351356,-122.0
2023-08-21 17:39:41.359045,-124.0
2023-08-21 17:39:41.366733,-122.0
2023-08-21 17:39:41.374421,-112.0
2023-08-21 17:39:41.382110,-105.0
2023-08-21 17:39:41.389798,-100.0
2023-08-21 17:39:41.397486,-96.0
2023-08-21 17:39:41.405175,-88.0
2023-08-21 17:39:41.412863,-86.0
2023-08-21 17:39:41.420551,-86.0
2023-08-21 17:39:41.428240,-79.0
2023-08-21 17:39:41.435928,-72.0
2023-08-21 17:39:41.443616,-74.0
2023-08-21 17:39:41.451305,-79.0
2023-08-21 17:39:41.458993,-79.0
2023-08-21 17:39:41.466681,-74.0
2023-08-21 17:39:41.474370,-72.0
2023-08-21 17:39:41.482058,-72.0
2023-08-21 17:39:41.489746,-81.0
2023-08-21 17:39:41.497434,-96.0
2023-08-21 17:39:41.505123,-93.0
2023-08-21 17:39:41.512811,-88.0
2023-08-21 17:39:41.520499,-88.0
2023-08-21 17:39:41.528188,-88.0
2023-08-21 17:39:41.535876,-88.0
2023-08-21 17:39:41.543564,-91.0
2023-08-21 17:39:41.551253,-96.0
2023-08-21 17:39:41.558941,-96.0
2023-08-21 17:39:41.566629,-91.0
2023-08-21 17:39:41.574318,-88.0
2023-08-21 17:39:41.582006,-91.0
2023-08-21 17:39:41.589694,-86.0
2023-08-21 17:39:41.597383,-81.0
2023-08-21 17:39:41.605071,-81.0
2023-08-21 17:39:41.612759,-81.0
2023-08-21 17:39:41.620448,-79.0
2023-08-21 17:39:41.628136,-76.0
2023-08-21 17:39:41.635824,-74.0
2023-08-21 17:39:41.643513,-74.0
2023-08-21 17:39:41.651201,-76.0
2023-08-21 17:39:41.658889,-74.0
2023-08-21 17:39:41.666578,-72.0
2023-08-21 17:39:41.674266,-72.0
2023-08-21 17:39:41.681954,-69.0
2023-08-21 17:39:41.689643,-64.0
2023-08-21 17:39:41.697331,-64.0
2023-08-21 17:39:41.705019,-67.0
2023-08-21 17:39:41.712708,-64.0
2023-08-21 17:39:41.720396,-62.0
2023-08-21 17:39:41.728084,-60.0
2023-08-21 17:39:41.735773,-60.0
2023-08-21 17:39:41.743461,-62.0
2023-08-21 17:39:41.751149,-67.0
2023-08-21 17:39:41.758837,-64.0
2023-08-21 17:39:41.766526,-62.0
2023-08-21 17:39:41.774214,-64.0
2023-08-21 17:39:41.781902,-67.0
2023-08-21 17:39:41.789591,-67.0
2023-08-21 17:39:41.797279,-67.0
2023-08-21 17:39:41.804967,-64.0
2023-08-21 17:39:41.812656,-67.0
2023-08-21 17:39:41.820344,-64.0
2023-08-21 17:39:41.828032,-64.0
2023-08-21 17:39:41.835721,-67.0
2023-08-21 17:39:41.843409,-69.0
2023-08-21 17:39:41.851097,-67.0
2023-08-21 17:39:41.858786,-43.0
2023-08-21 17:39:41.866474,-21.0
2023-08-21 17:39:41.874162,-33.0
2023-08-21 17:39:41.881851,-60.0
2023-08-21 17:39:41.889539,-64.0
2023-08-21 17:39:41.897227,-72.0
2023-08-21 17:39:41.904916,-91.0
2023-08-21 17:39:41.912604,-91.0
2023-08-21 17:39:41.920292,-81.0
2023-08-21 17:39:41.927981,-86.0
2023-08-21 17:39:41.935669,-86.0
2023-08-21 17:39:41.943357,-79.0
2023-08-21 17:39:41.951046,-79.0
2023-08-21 17:39:41.958734,-74.0
2023-08-21 17:39:41.966422,19.0
2023-08-21 17:39:41.974111,331.0
2023-08-21 17:39:41.981799,741.0
2023-08-21 17:39:41.989487,789.0
2023-08-21 17:39:41.997176,302.0
2023-08-21 17:39:42.004864,-240.0
2023-08-21 17:39:42.012552,-304.0
2023-08-21 17:39:42.020240,-120.0
2023-08-21 17:39:42.027929,-129.0
2023-08-21 17:39:42.035617,-204.0
2023-08-21 17:39:42.043305,-170.0
2023-08-21 17:39:42.050994,-146.0
2023-08-21 17:39:42.058682,-163.0
2023-08-21 17:39:42.066370,-156.0
2023-08-21 17:39:42.074059,-136.0
2023-08-21 17:39:42.081747,-139.0
2023-08-21 17:39:42.089435,-141.0
2023-08-21 17:39:42.097124,-129.0
2023-08-21 17:39:42.104812,-122.0
2023-08-21 17:39:42.112500,-115.0
2023-08-21 17:39:42.120189,-112.0
2023-08-21 17:39:42.127877,-115.0
2023-08-21 17:39:42.135565,-110.0
2023-08-21 17:39:42.143254,-98.0
2023-08-21 17:39:42.150942,-93.0
2023-08-21 17:39:42.158630,-91.0
2023-08-21 17:39:42.166319,-84.0
2023-08-21 17:39:42.174007,-76.0
2023-08-21 17:39:42.181695,-67.0
2023-08-21 17:39:42.189384,-60.0
2023-08-21 17:39:42.197072,-52.0
2023-08-21 17:39:42.204760,-43.0
2023-08-21 17:39:42.212449,-33.0
2023-08-21 17:39:42.220137,-28.0
2023-08-21 17:39:42.227825,-16.0
2023-08-21 17:39:42.235514,-2.0
2023-08-21 17:39:42.243202,14.0
2023-08-21 17:39:42.250890,28.0
2023-08-21 17:39:42.258579,45.0
2023-08-21 17:39:42.266267,57.0
2023-08-21 17:39:42.273955,62.0
2023-08-21 17:39:42.281643,74.0
2023-08-21 17:39:42.289332,88.0
2023-08-21 17:39:42.297020,96.0
2023-08-21 17:39:42.304708,91.0
2023-08-21 17:39:42.312397,76.0
2023-08-21 17:39:42.320085,52.0
2023-08-21 17:39:42.327773,19.0
2023-08-21 17:39:42.335462,-14.0
2023-08-21 17:39:42.343150,-50.0
2023-08-21 17:39:42.350838,-84.0
2023-08-21 17:39:42.358527,-105.0
2023-08-21 17:39:42.366215,-112.0
2023-08-21 17:39:42.373903,-117.0
2023-08-21 17:39:42.381592,-120.0
2023-08-21 17:39:42.389280,-120.0
2023-08-21 17:39:42.396968,-117.0
2023-08-21 17:39:42.404657,-115.0
2023-08-21 17:39:42.412345,-112.0
2023-08-21 17:39:42.420033,-105.0
2023-08-21 17:39:42.427722,-96.0
2023-08-21 17:39:42.435410,-98.0
2023-08-21 17:39:42.443098,-100.0
2023-08-21 17:39:42.450787,-91.0
2023-08-21 17:39:42.458475,-81.0
2023-08-21 17:39:42.466163,-84.0
2023-08-21 17:39:42.473852,-84.0
2023-08-21 17:39:42.481540,-79.0
2023-08-21 17:39:42.489228,-74.0
2023-08-21 17:39:42.496917,-74.0
2023-08-21 17:39:42.504605,-69.0
2023-08-21 17:39:42.512293,-69.0
2023-08-21 17:39:42.519982,-79.0
2023-08-21 17:39:42.527670,-86.0
2023-08-21 17:39:42.535358,-81.0
2023-08-21 17:39:42.543046,-79.0
2023-08-21 17:39:42.550735,-81.0
2023-08-21 17:39:42.558423,-79.0
2023-08-21 17:39:42.566111,-84.0
2023-08-21 17:39:42.573800,-93.0
2023-08-21 17:39:42.581488,-98.0
2023-08-21 17:39:42.589176,-91.0
2023-08-21 17:39:42.596865,-91.0
2023-08-21 17:39:42.604553,-88.0
2023-08-21 17:39:42.612241,-84.0
2023-08-21 17:39:42.619930,-84.0
2023-08-21 17:39:42.627618,-86.0
2023-08-21 17:39:42.635306,-81.0
2023-08-21 17:39:42.642995,-76.0
2023-08-21 17:39:42.650683,-76.0
2023-08-21 17:39:42.658371,-79.0
2023-08-21 17:39:42.666060,-81.0
2023-08-21 17:39:42.673748,-81.0
2023-08-21 17:39:42.681436,-74.0
2023-08-21 17:39:42.689125,-72.0
2023-08-21 17:39:42.696813,-72.0
2023-08-21 17:39:42.704501,-74.0
2023-08-21 17:39:42.712190,-74.0
2023-08-21 17:39:42.719878,-72.0
2023-08-21 17:39:42.727566,-64.0
2023-08-21 17:39:42.735255,-64.0
2023-08-21 17:39:42.742943,-69.0
2023-08-21 17:39:42.750631,-74.0
2023-08-21 17:39:42.758320,-74.0
2023-08-21 17:39:42.766008,-72.0
2023-08-21 17:39:42.773696,-72.0
2023-08-21 17:39:42.781385,-72.0
2023-08-21 17:39:42.789073,-72.0
2023-08-21 17:39:42.796761,-69.0
2023-08-21 17:39:42.804449,-67.0
2023-08-21 17:39:42.812138,-62.0
2023-08-21 17:39:42.819826,-64.0
2023-08-21 17:39:42.827514,-67.0
2023-08-21 17:39:42.835203,-67.0
2023-08-21 17:39:42.842891,-72.0
2023-08-21 17:39:42.850579,-79.0
2023-08-21 17:39:42.858268,-79.0
2023-08-21 17:39:42.865956,-74.0
2023-08-21 17:39:42.873644,-74.0
2023-08-21 17:39:42.881333,-74.0
2023-08-21 17:39:42.889021,-74.0
2023-08-21 17:39:42.896709,-74.0
2023-08-21 17:39:42.904398,-74.0
2023-08-21 17:39:42.912086,-74.0
2023-08-21 17:39:42.919774,-72.0
2023-08-21 17:39:42.927463,-67.0
2023-08-21 17:39:42.935151,-62.0
2023-08-21 17:39:42.942839,-52.0
2023-08-21 17:39:42.950528,-31.0
2023-08-21 17:39:42.958216,-16.0
2023-08-21 17:39:42.965904,-26.0
2023-08-21 17:39:42.973593,-45.0
2023-08-21 17:39:42.981281,-52.0
2023-08-21 17:39:42.988969,-69.0
2023-08-21 17:39:42.996658,-86.0
2023-08-21 17:39:43.004346,-84.0
2023-08-21 17:39:43.012034,-81.0
2023-08-21 17:39:43.019723,-86.0
2023-08-21 17:39:43.027411,-81.0
2023-08-21 17:39:43.035099,-74.0
2023-08-21 17:39:43.042788,-72.0
2023-08-21 17:39:43.050476,-55.0
2023-08-21 17:39:43.058164,76.0
2023-08-21 17:39:43.065852,439.0
2023-08-21 17:39:43.073541,799.0
2023-08-21 17:39:43.081229,705.0
2023-08-21 17:39:43.088917,153.0
2023-08-21 17:39:43.096606,-278.0
2023-08-21 17:39:43.104294,-237.0
2023-08-21 17:39:43.111982,-100.0
2023-08-21 17:39:43.119671,-146.0
2023-08-21 17:39:43.127359,-177.0
2023-08-21 17:39:43.135047,-134.0
2023-08-21 17:39:43.142736,-136.0
2023-08-21 17:39:43.150424,-146.0
2023-08-21 17:39:43.158112,-132.0
2023-08-21 17:39:43.165801,-127.0
2023-08-21 17:39:43.173489,-124.0
2023-08-21 17:39:43.181177,-110.0
2023-08-21 17:39:43.188866,-108.0
2023-08-21 17:39:43.196554,-108.0
2023-08-21 17:39:43.204242,-98.0
2023-08-21 17:39:43.211931,-88.0
2023-08-21 17:39:43.219619,-84.0
2023-08-21 17:39:43.227307,-79.0
2023-08-21 17:39:43.234996,-74.0
2023-08-21 17:39:43.242684,-72.0
2023-08-21 17:39:43.250372,-72.0
2023-08-21 17:39:43.258061,-67.0
2023-08-21 17:39:43.265749,-55.0
2023-08-21 17:39:43.273437,-48.0
2023-08-21 17:39:43.281126,-50.0
2023-08-21 17:39:43.288814,-50.0
2023-08-21 17:39:43.296502,-36.0
2023-08-21 17:39:43.304191,-19.0
2023-08-21 17:39:43.311879,-12.0
2023-08-21 17:39:43.319567,-2.0
2023-08-21 17:39:43.327255,9.0
2023-08-21 17:39:43.334944,21.0
2023-08-21 17:39:43.342632,31.0
2023-08-21 17:39:43.350320,36.0
2023-08-21 17:39:43.358009,50.0
2023-08-21 17:39:43.365697,72.0
2023-08-21 17:39:43.373385,84.0
2023-08-21 17:39:43.381074,86.0
2023-08-21 17:39:43.388762,96.0
2023-08-21 17:39:43.396450,100.0
2023-08-21 17:39:43.404139,84.0
2023-08-21 17:39:43.411827,57.0
2023-08-21 17:39:43.419515,28.0
2023-08-21 17:39:43.427204,-14.0
2023-08-21 17:39:43.434892,-52.0
2023-08-21 17:39:43.442580,-76.0
2023-08-21 17:39:43.450269,-96.0
2023-08-21 17:39:43.457957,-110.0
2023-08-21 17:39:43.465645,-110.0
2023-08-21 17:39:43.473334,-110.0
2023-08-21 17:39:43.481022,-112.0
2023-08-21 17:39:43.488710,-110.0
2023-08-21 17:39:43.496399,-108.0
2023-08-21 17:39:43.504087,-103.0
2023-08-21 17:39:43.511775,-110.0
2023-08-21 17:39:43.519464,-112.0
2023-08-21 17:39:43.527152,-98.0
2023-08-21 17:39:43.534840,-91.0
2023-08-21 17:39:43.542529,-93.0
2023-08-21 17:39:43.550217,-84.0
2023-08-21 17:39:43.557905,-81.0
2023-08-21 17:39:43.565594,-81.0
2023-08-21 17:39:43.573282,-76.0
2023-08-21 17:39:43.580970,-81.0
2023-08-21 17:39:43.588658,-86.0
2023-08-21 17:39:43.596347,-79.0
2023-08-21 17:39:43.604035,-79.0
2023-08-21 17:39:43.611723,-84.0
2023-08-21 17:39:43.619412,-86.0
2023-08-21 17:39:43.627100,-84.0
2023-08-21 17:39:43.634788,-84.0
2023-08-21 17:39:43.642477,-79.0
2023-08-21 17:39:43.650165,-76.0
2023-08-21 17:39:43.657853,-79.0
2023-08-21 17:39:43.665542,-84.0
2023-08-21 17:39:43.673230,-86.0
2023-08-21 17:39:43.680918,-86.0
2023-08-21 17:39:43.688607,-81.0
2023-08-21 17:39:43.696295,-86.0
2023-08-21 17:39:43.703983,-96.0
2023-08-21 17:39:43.711672,-93.0
2023-08-21 17:39:43.719360,-88.0
2023-08-21 17:39:43.727048,-88.0
2023-08-21 17:39:43.734737,-84.0
2023-08-21 17:39:43.742425,-81.0
2023-08-21 17:39:43.750113,-84.0
2023-08-21 17:39:43.757802,-88.0
2023-08-21 17:39:43.765490,-84.0
2023-08-21 17:39:43.773178,-76.0
2023-08-21 17:39:43.780867,-79.0
2023-08-21 17:39:43.788555,-93.0
2023-08-21 17:39:43.796243,-98.0
2023-08-21 17:39:43.803932,-86.0
2023-08-21 17:39:43.811620,-81.0
2023-08-21 17:39:43.819308,-93.0
2023-08-21 17:39:43.826997,-96.0
2023-08-21 17:39:43.834685,-88.0
2023-08-21 17:39:43.842373,-84.0
2023-08-21 17:39:43.850061,-81.0
2023-08-21 17:39:43.857750,-86.0
2023-08-21 17:39:43.865438,-93.0
2023-08-21 17:39:43.873126,-91.0
2023-08-21 17:39:43.880815,-88.0
2023-08-21 17:39:43.888503,-88.0
2023-08-21 17:39:43.896191,-86.0
2023-08-21 17:39:43.903880,-88.0
2023-08-21 17:39:43.911568,-93.0
2023-08-21 17:39:43.919256,-91.0
2023-08-21 17:39:43.926945,-84.0
2023-08-21 17:39:43.934633,-88.0
2023-08-21 17:39:43.942321,-91.0
2023-08-21 17:39:43.950010,-84.0
2023-08-21 17:39:43.957698,-79.0
2023-08-21 17:39:43.965386,-74.0
2023-08-21 17:39:43.973075,-64.0
2023-08-21 17:39:43.980763,-45.0
2023-08-21 17:39:43.988451,-24.0
2023-08-21 17:39:43.996140,-28.0
2023-08-21 17:39:44.003828,-52.0
2023-08-21 17:39:44.011516,-64.0
2023-08-21 17:39:44.019205,-79.0
2023-08-21 17:39:44.026893,-100.0
2023-08-21 17:39:44.034581,-100.0
2023-08-21 17:39:44.042270,-84.0
2023-08-21 17:39:44.049958,-81.0
2023-08-21 17:39:44.057646,-88.0
2023-08-21 17:39:44.065335,-81.0
2023-08-21 17:39:44.073023,-72.0
2023-08-21 17:39:44.080711,-62.0
2023-08-21 17:39:44.088400,21.0
2023-08-21 17:39:44.096088,324.0
2023-08-21 17:39:44.103776,732.0
2023-08-21 17:39:44.111464,753.0
2023-08-21 17:39:44.119153,230.0
2023-08-21 17:39:44.126841,-271.0
2023-08-21 17:39:44.134529,-278.0
2023-08-21 17:39:44.142218,-108.0
2023-08-21 17:39:44.149906,-122.0
2023-08-21 17:39:44.157594,-170.0
2023-08-21 17:39:44.165283,-136.0
2023-08-21 17:39:44.172971,-124.0
2023-08-21 17:39:44.180659,-132.0
2023-08-21 17:39:44.188348,-117.0
2023-08-21 17:39:44.196036,-112.0
2023-08-21 17:39:44.203724,-112.0
2023-08-21 17:39:44.211413,-98.0
2023-08-21 17:39:44.219101,-93.0
2023-08-21 17:39:44.226789,-96.0
2023-08-21 17:39:44.234478,-88.0
2023-08-21 17:39:44.242166,-81.0
2023-08-21 17:39:44.249854,-76.0
2023-08-21 17:39:44.257543,-72.0
2023-08-21 17:39:44.265231,-69.0
2023-08-21 17:39:44.272919,-67.0
2023-08-21 17:39:44.280608,-64.0
2023-08-21 17:39:44.288296,-67.0
2023-08-21 17:39:44.295984,-64.0
2023-08-21 17:39:44.303673,-50.0
2023-08-21 17:39:44.311361,-40.0
2023-08-21 17:39:44.319049,-38.0
2023-08-21 17:39:44.326738,-36.0
2023-08-21 17:39:44.334426,-31.0
2023-08-21 17:39:44.342114,-21.0
2023-08-21 17:39:44.349803,-4.0
2023-08-21 17:39:44.357491,9.0
2023-08-21 17:39:44.365179,14.0
2023-08-21 17:39:44.372867,24.0
2023-08-21 17:39:44.380556,40.0
2023-08-21 17:39:44.388244,57.0
2023-08-21 17:39:44.395932,69.0
2023-08-21 17:39:44.403621,79.0
2023-08-21 17:39:44.411309,81.0
2023-08-21 17:39:44.418997,84.0
2023-08-21 17:39:44.426686,86.0
2023-08-21 17:39:44.434374,76.0
2023-08-21 17:39:44.442062,52.0
2023-08-21 17:39:44.449751,16.0
2023-08-21 17:39:44.457439,-21.0
2023-08-21 17:39:44.465127,-55.0
2023-08-21 17:39:44.472816,-86.0
2023-08-21 17:39:44.480504,-105.0
2023-08-21 17:39:44.488192,-115.0
2023-08-21 17:39:44.495881,-122.0
2023-08-21 17:39:44.503569,-129.0
2023-08-21 17:39:44.511257,-134.0
2023-08-21 17:39:44.518946,-134.0
2023-08-21 17:39:44.526634,-124.0
2023-08-21 17:39:44.534322,-110.0
2023-08-21 17:39:44.542011,-105.0
2023-08-21 17:39:44.549699,-108.0
2023-08-21 17:39:44.557387,-103.0
2023-08-21 17:39:44.565076,-91.0
2023-08-21 17:39:44.572764,-88.0
2023-08-21 17:39:44.580452,-91.0
2023-08-21 17:39:44.588141,-88.0
2023-08-21 17:39:44.595829,-84.0
2023-08-21 17:39:44.603517,-81.0
2023-08-21 17:39:44.611206,-84.0
2023-08-21 17:39:44.618894,-81.0
2023-08-21 17:39:44.626582,-84.0
2023-08-21 17:39:44.634270,-81.0
2023-08-21 17:39:44.641959,-84.0
2023-08-21 17:39:44.649647,-86.0
2023-08-21 17:39:44.657335,-84.0
2023-08-21 17:39:44.665024,-81.0
2023-08-21 17:39:44.672712,-84.0
2023-08-21 17:39:44.680400,-86.0
2023-08-21 17:39:44.688089,-91.0
2023-08-21 17:39:44.695777,-88.0
2023-08-21 17:39:44.703465,-84.0
2023-08-21 17:39:44.711154,-81.0
2023-08-21 17:39:44.718842,-84.0
2023-08-21 17:39:44.726530,-81.0
2023-08-21 17:39:44.734219,-81.0
2023-08-21 17:39:44.741907,-86.0
2023-08-21 17:39:44.749595,-84.0
2023-08-21 17:39:44.757284,-79.0
2023-08-21 17:39:44.764972,-76.0
2023-08-21 17:39:44.772660,-76.0
2023-08-21 17:39:44.780349,-79.0
2023-08-21 17:39:44.788037,-79.0
2023-08-21 17:39:44.795725,-72.0
2023-08-21 17:39:44.803414,-67.0
2023-08-21 17:39:44.811102,-72.0
2023-08-21 17:39:44.818790,-76.0
2023-08-21 17:39:44.826479,-79.0
2023-08-21 17:39:44.834167,-81.0
2023-08-21 17:39:44.841855,-79.0
2023-08-21 17:39:44.849544,-74.0
2023-08-21 17:39:44.857232,-76.0
2023-08-21 17:39:44.864920,-84.0
2023-08-21 17:39:44.872609,-86.0
2023-08-21 17:39:44.880297,-79.0
2023-08-21 17:39:44.887985,-76.0
2023-08-21 17:39:44.895673,-76.0
2023-08-21 17:39:44.903362,-74.0
2023-08-21 17:39:44.911050,-72.0
2023-08-21 17:39:44.918738,-76.0
2023-08-21 17:39:44.926427,-79.0
2023-08-21 17:39:44.934115,-79.0
2023-08-21 17:39:44.941803,-81.0
2023-08-21 17:39:44.949492,-86.0
2023-08-21 17:39:44.957180,-88.0
2023-08-21 17:39:44.964868,-93.0
2023-08-21 17:39:44.972557,-98.0
2023-08-21 17:39:44.980245,-98.0
2023-08-21 17:39:44.987933,-91.0
2023-08-21 17:39:44.995622,-88.0
2023-08-21 17:39:45.003310,-93.0
2023-08-21 17:39:45.010998,-96.0
2023-08-21 17:39:45.018687,-91.0
2023-08-21 17:39:45.026375,-88.0
2023-08-21 17:39:45.034063,-86.0
2023-08-21 17:39:45.041752,-84.0
2023-08-21 17:39:45.049440,-84.0
2023-08-21 17:39:45.057128,-84.0
2023-08-21 17:39:45.064817,-69.0
2023-08-21 17:39:45.072505,-50.0
2023-08-21 17:39:45.080193,-28.0
2023-08-21 17:39:45.087882,-24.0
2023-08-21 17:39:45.095570,-48.0
2023-08-21 17:39:45.103258,-64.0
2023-08-21 17:39:45.110947,-72.0
2023-08-21 17:39:45.118635,-88.0
2023-08-21 17:39:45.126323,-93.0
2023-08-21 17:39:45.134012,-86.0
2023-08-21 17:39:45.141700,-81.0
2023-08-21 17:39:45.149388,-84.0
2023-08-21 17:39:45.157076,-81.0
2023-08-21 17:39:45.164765,-76.0
2023-08-21 17:39:45.172453,-69.0
2023-08-21 17:39:45.180141,0.0
2023-08-21 17:39:45.187830,268.0
2023-08-21 17:39:45.195518,684.0
2023-08-21 17:39:45.203206,816.0
2023-08-21 17:39:45.210895,410.0
2023-08-21 17:39:45.218583,-160.0
2023-08-21 17:39:45.226271,-309.0
2023-08-21 17:39:45.233960,-136.0
2023-08-21 17:39:45.241648,-110.0
2023-08-21 17:39:45.249336,-184.0
2023-08-21 17:39:45.257025,-158.0
2023-08-21 17:39:45.264713,-132.0
2023-08-21 17:39:45.272401,-146.0
2023-08-21 17:39:45.280090,-136.0
2023-08-21 17:39:45.287778,-122.0
2023-08-21 17:39:45.295466,-124.0
2023-08-21 17:39:45.303155,-117.0
2023-08-21 17:39:45.310843,-103.0
2023-08-21 17:39:45.318531,-100.0
2023-08-21 17:39:45.326220,-98.0
2023-08-21 17:39:45.333908,-88.0
2023-08-21 17:39:45.341596,-81.0
2023-08-21 17:39:45.349285,-81.0
2023-08-21 17:39:45.356973,-76.0
2023-08-21 17:39:45.364661,-72.0
2023-08-21 17:39:45.372350,-74.0
2023-08-21 17:39:45.380038,-74.0
2023-08-21 17:39:45.387726,-64.0
2023-08-21 17:39:45.395415,-55.0
2023-08-21 17:39:45.403103,-52.0
2023-08-21 17:39:45.410791,-55.0
2023-08-21 17:39:45.418479,-55.0
2023-08-21 17:39:45.426168,-45.0
2023-08-21 17:39:45.433856,-28.0
2023-08-21 17:39:45.441544,-19.0
2023-08-21 17:39:45.449233,-9.0
2023-08-21 17:39:45.456921,4.0
2023-08-21 17:39:45.464609,19.0
2023-08-21 17:39:45.472298,33.0
2023-08-21 17:39:45.479986,40.0
2023-08-21 17:39:45.487674,50.0
2023-08-21 17:39:45.495363,69.0
2023-08-21 17:39:45.503051,81.0
2023-08-21 17:39:45.510739,86.0
2023-08-21 17:39:45.518428,88.0
2023-08-21 17:39:45.526116,79.0
2023-08-21 17:39:45.533804,57.0
2023-08-21 17:39:45.541493,28.0
2023-08-21 17:39:45.549181,-7.0
2023-08-21 17:39:45.556869,-45.0
2023-08-21 17:39:45.564558,-72.0
2023-08-21 17:39:45.572246,-91.0
2023-08-21 17:39:45.579934,-105.0
2023-08-21 17:39:45.587623,-115.0
