time,ECG
2023-08-10 11:41:14.435343,-2.0
2023-08-10 11:41:14.443033,-4.0
2023-08-10 11:41:14.450722,-9.0
2023-08-10 11:41:14.458412,-11.0
2023-08-10 11:41:14.466102,-9.0
2023-08-10 11:41:14.473792,-7.0
2023-08-10 11:41:14.481481,-9.0
2023-08-10 11:41:14.489171,-9.0
2023-08-10 11:41:14.496861,-11.0
2023-08-10 11:41:14.504550,-16.0
2023-08-10 11:41:14.512240,-14.0
2023-08-10 11:41:14.519930,-14.0
2023-08-10 11:41:14.527620,-16.0
2023-08-10 11:41:14.535309,-16.0
2023-08-10 11:41:14.542999,-14.0
2023-08-10 11:41:14.550689,-11.0
2023-08-10 11:41:14.558378,-16.0
2023-08-10 11:41:14.566068,-19.0
2023-08-10 11:41:14.573758,-14.0
2023-08-10 11:41:14.581448,-19.0
2023-08-10 11:41:14.589137,-26.0
2023-08-10 11:41:14.596827,-23.0
2023-08-10 11:41:14.604517,-21.0
2023-08-10 11:41:14.612206,-21.0
2023-08-10 11:41:14.619896,-23.0
2023-08-10 11:41:14.627586,-40.0
2023-08-10 11:41:14.635276,-55.0
2023-08-10 11:41:14.642965,-47.0
2023-08-10 11:41:14.650655,-35.0
2023-08-10 11:41:14.658345,-40.0
2023-08-10 11:41:14.666034,-45.0
2023-08-10 11:41:14.673724,-35.0
2023-08-10 11:41:14.681414,-28.0
2023-08-10 11:41:14.689104,-28.0
2023-08-10 11:41:14.696793,-33.0
2023-08-10 11:41:14.704483,-23.0
2023-08-10 11:41:14.712173,-16.0
2023-08-10 11:41:14.719862,-26.0
2023-08-10 11:41:14.727552,-33.0
2023-08-10 11:41:14.735242,-31.0
2023-08-10 11:41:14.742932,-35.0
2023-08-10 11:41:14.750621,-57.0
2023-08-10 11:41:14.758311,-165.0
2023-08-10 11:41:14.766001,-385.0
2023-08-10 11:41:14.773690,-605.0
2023-08-10 11:41:14.781380,-705.0
2023-08-10 11:41:14.789070,-547.0
2023-08-10 11:41:14.796759,-150.0
2023-08-10 11:41:14.804449,110.0
2023-08-10 11:41:14.812139,59.0
2023-08-10 11:41:14.819829,-31.0
2023-08-10 11:41:14.827518,-2.0
2023-08-10 11:41:14.835208,21.0
2023-08-10 11:41:14.842898,-4.0
2023-08-10 11:41:14.850587,-4.0
2023-08-10 11:41:14.858277,7.0
2023-08-10 11:41:14.865967,-2.0
2023-08-10 11:41:14.873657,-14.0
2023-08-10 11:41:14.881346,-19.0
2023-08-10 11:41:14.889036,-26.0
2023-08-10 11:41:14.896726,-31.0
2023-08-10 11:41:14.904415,-35.0
2023-08-10 11:41:14.912105,-38.0
2023-08-10 11:41:14.919795,-47.0
2023-08-10 11:41:14.927485,-57.0
2023-08-10 11:41:14.935174,-66.0
2023-08-10 11:41:14.942864,-76.0
2023-08-10 11:41:14.950554,-88.0
2023-08-10 11:41:14.958243,-100.0
2023-08-10 11:41:14.965933,-117.0
2023-08-10 11:41:14.973623,-136.0
2023-08-10 11:41:14.981313,-145.0
2023-08-10 11:41:14.989002,-160.0
2023-08-10 11:41:14.996692,-186.0
2023-08-10 11:41:15.004382,-205.0
2023-08-10 11:41:15.012071,-217.0
2023-08-10 11:41:15.019761,-234.0
2023-08-10 11:41:15.027451,-253.0
2023-08-10 11:41:15.035141,-270.0
2023-08-10 11:41:15.042830,-284.0
2023-08-10 11:41:15.050520,-279.0
2023-08-10 11:41:15.058210,-251.0
2023-08-10 11:41:15.065899,-205.0
2023-08-10 11:41:15.073589,-138.0
2023-08-10 11:41:15.081279,-81.0
2023-08-10 11:41:15.088969,-38.0
2023-08-10 11:41:15.096658,4.0
2023-08-10 11:41:15.104348,35.0
2023-08-10 11:41:15.112038,50.0
2023-08-10 11:41:15.119727,57.0
2023-08-10 11:41:15.127417,64.0
2023-08-10 11:41:15.135107,59.0
2023-08-10 11:41:15.142797,57.0
2023-08-10 11:41:15.150486,62.0
2023-08-10 11:41:15.158176,59.0
2023-08-10 11:41:15.165866,52.0
2023-08-10 11:41:15.173555,50.0
2023-08-10 11:41:15.181245,43.0
2023-08-10 11:41:15.188935,35.0
2023-08-10 11:41:15.196625,28.0
2023-08-10 11:41:15.204314,26.0
2023-08-10 11:41:15.212004,31.0
2023-08-10 11:41:15.219694,28.0
2023-08-10 11:41:15.227383,19.0
2023-08-10 11:41:15.235073,16.0
2023-08-10 11:41:15.242763,16.0
2023-08-10 11:41:15.250453,16.0
2023-08-10 11:41:15.258142,14.0
2023-08-10 11:41:15.265832,11.0
2023-08-10 11:41:15.273522,14.0
2023-08-10 11:41:15.281211,14.0
2023-08-10 11:41:15.288901,7.0
2023-08-10 11:41:15.296591,7.0
2023-08-10 11:41:15.304281,11.0
2023-08-10 11:41:15.311970,9.0
2023-08-10 11:41:15.319660,4.0
2023-08-10 11:41:15.327350,-2.0
2023-08-10 11:41:15.335039,-9.0
2023-08-10 11:41:15.342729,-7.0
2023-08-10 11:41:15.350419,0.0
2023-08-10 11:41:15.358109,0.0
2023-08-10 11:41:15.365798,-7.0
2023-08-10 11:41:15.373488,-14.0
2023-08-10 11:41:15.381178,-21.0
2023-08-10 11:41:15.388867,-19.0
2023-08-10 11:41:15.396557,-16.0
2023-08-10 11:41:15.404247,-14.0
2023-08-10 11:41:15.411937,-16.0
2023-08-10 11:41:15.419626,-23.0
2023-08-10 11:41:15.427316,-21.0
2023-08-10 11:41:15.435006,-16.0
2023-08-10 11:41:15.442695,-21.0
2023-08-10 11:41:15.450385,-26.0
2023-08-10 11:41:15.458075,-26.0
2023-08-10 11:41:15.465764,-33.0
2023-08-10 11:41:15.473454,-38.0
2023-08-10 11:41:15.481144,-31.0
2023-08-10 11:41:15.488834,-31.0
2023-08-10 11:41:15.496523,-31.0
2023-08-10 11:41:15.504213,-31.0
2023-08-10 11:41:15.511903,-38.0
2023-08-10 11:41:15.519592,-35.0
2023-08-10 11:41:15.527282,-31.0
2023-08-10 11:41:15.534972,-50.0
2023-08-10 11:41:15.542662,-66.0
2023-08-10 11:41:15.550351,-59.0
2023-08-10 11:41:15.558041,-52.0
2023-08-10 11:41:15.565731,-57.0
2023-08-10 11:41:15.573420,-55.0
2023-08-10 11:41:15.581110,-43.0
2023-08-10 11:41:15.588800,-35.0
2023-08-10 11:41:15.596490,-23.0
2023-08-10 11:41:15.604179,-11.0
2023-08-10 11:41:15.611869,-14.0
2023-08-10 11:41:15.619559,-21.0
2023-08-10 11:41:15.627248,-19.0
2023-08-10 11:41:15.634938,-23.0
2023-08-10 11:41:15.642628,-28.0
2023-08-10 11:41:15.650318,-23.0
2023-08-10 11:41:15.658007,-26.0
2023-08-10 11:41:15.665697,-119.0
2023-08-10 11:41:15.673387,-339.0
2023-08-10 11:41:15.681076,-567.0
2023-08-10 11:41:15.688766,-691.0
2023-08-10 11:41:15.696456,-583.0
2023-08-10 11:41:15.704146,-208.0
2023-08-10 11:41:15.711835,100.0
2023-08-10 11:41:15.719525,78.0
2023-08-10 11:41:15.727215,-40.0
2023-08-10 11:41:15.734904,-19.0
2023-08-10 11:41:15.742594,28.0
2023-08-10 11:41:15.750284,2.0
2023-08-10 11:41:15.757974,-14.0
2023-08-10 11:41:15.765663,7.0
2023-08-10 11:41:15.773353,11.0
2023-08-10 11:41:15.781043,-4.0
2023-08-10 11:41:15.788732,-16.0
2023-08-10 11:41:15.796422,-16.0
2023-08-10 11:41:15.804112,-16.0
2023-08-10 11:41:15.811802,-21.0
2023-08-10 11:41:15.819491,-35.0
2023-08-10 11:41:15.827181,-47.0
2023-08-10 11:41:15.834871,-50.0
2023-08-10 11:41:15.842560,-52.0
2023-08-10 11:41:15.850250,-62.0
2023-08-10 11:41:15.857940,-74.0
2023-08-10 11:41:15.865630,-90.0
2023-08-10 11:41:15.873319,-105.0
2023-08-10 11:41:15.881009,-114.0
2023-08-10 11:41:15.888699,-131.0
2023-08-10 11:41:15.896388,-153.0
2023-08-10 11:41:15.904078,-174.0
2023-08-10 11:41:15.911768,-193.0
2023-08-10 11:41:15.919458,-208.0
2023-08-10 11:41:15.927147,-222.0
2023-08-10 11:41:15.934837,-246.0
2023-08-10 11:41:15.942527,-263.0
2023-08-10 11:41:15.950216,-275.0
2023-08-10 11:41:15.957906,-282.0
2023-08-10 11:41:15.965596,-258.0
2023-08-10 11:41:15.973286,-205.0
2023-08-10 11:41:15.980975,-145.0
2023-08-10 11:41:15.988665,-90.0
2023-08-10 11:41:15.996355,-43.0
2023-08-10 11:41:16.004044,-7.0
2023-08-10 11:41:16.011734,21.0
2023-08-10 11:41:16.019424,38.0
2023-08-10 11:41:16.027114,47.0
2023-08-10 11:41:16.034803,47.0
2023-08-10 11:41:16.042493,43.0
2023-08-10 11:41:16.050183,40.0
2023-08-10 11:41:16.057872,45.0
2023-08-10 11:41:16.065562,43.0
2023-08-10 11:41:16.073252,35.0
2023-08-10 11:41:16.080942,31.0
2023-08-10 11:41:16.088631,28.0
2023-08-10 11:41:16.096321,21.0
2023-08-10 11:41:16.104011,21.0
2023-08-10 11:41:16.111700,26.0
2023-08-10 11:41:16.119390,19.0
2023-08-10 11:41:16.127080,11.0
2023-08-10 11:41:16.134770,9.0
2023-08-10 11:41:16.142459,14.0
2023-08-10 11:41:16.150149,16.0
2023-08-10 11:41:16.157839,2.0
2023-08-10 11:41:16.165528,-4.0
2023-08-10 11:41:16.173218,0.0
2023-08-10 11:41:16.180908,4.0
2023-08-10 11:41:16.188597,-4.0
2023-08-10 11:41:16.196287,-11.0
2023-08-10 11:41:16.203977,-14.0
2023-08-10 11:41:16.211667,-11.0
2023-08-10 11:41:16.219356,-9.0
2023-08-10 11:41:16.227046,-9.0
2023-08-10 11:41:16.234736,-16.0
2023-08-10 11:41:16.242425,-11.0
2023-08-10 11:41:16.250115,-7.0
2023-08-10 11:41:16.257805,-16.0
2023-08-10 11:41:16.265495,-19.0
2023-08-10 11:41:16.273184,-16.0
2023-08-10 11:41:16.280874,-16.0
2023-08-10 11:41:16.288564,-19.0
2023-08-10 11:41:16.296253,-16.0
2023-08-10 11:41:16.303943,-19.0
2023-08-10 11:41:16.311633,-21.0
2023-08-10 11:41:16.319323,-21.0
2023-08-10 11:41:16.327012,-16.0
2023-08-10 11:41:16.334702,-14.0
2023-08-10 11:41:16.342392,-16.0
2023-08-10 11:41:16.350081,-19.0
2023-08-10 11:41:16.357771,-19.0
2023-08-10 11:41:16.365461,-23.0
2023-08-10 11:41:16.373151,-26.0
2023-08-10 11:41:16.380840,-26.0
2023-08-10 11:41:16.388530,-28.0
2023-08-10 11:41:16.396220,-31.0
2023-08-10 11:41:16.403909,-31.0
2023-08-10 11:41:16.411599,-26.0
2023-08-10 11:41:16.419289,-19.0
2023-08-10 11:41:16.426979,-23.0
2023-08-10 11:41:16.434668,-35.0
2023-08-10 11:41:16.442358,-33.0
2023-08-10 11:41:16.450048,-28.0
2023-08-10 11:41:16.457737,-40.0
2023-08-10 11:41:16.465427,-47.0
2023-08-10 11:41:16.473117,-40.0
2023-08-10 11:41:16.480807,-38.0
2023-08-10 11:41:16.488496,-43.0
2023-08-10 11:41:16.496186,-43.0
2023-08-10 11:41:16.503876,-47.0
2023-08-10 11:41:16.511565,-47.0
2023-08-10 11:41:16.519255,-43.0
2023-08-10 11:41:16.526945,-35.0
2023-08-10 11:41:16.534635,-45.0
2023-08-10 11:41:16.542324,-64.0
2023-08-10 11:41:16.550014,-76.0
2023-08-10 11:41:16.557704,-78.0
2023-08-10 11:41:16.565393,-71.0
2023-08-10 11:41:16.573083,-59.0
2023-08-10 11:41:16.580773,-62.0
2023-08-10 11:41:16.588463,-64.0
2023-08-10 11:41:16.596152,-40.0
2023-08-10 11:41:16.603842,-23.0
2023-08-10 11:41:16.611532,-33.0
2023-08-10 11:41:16.619221,-33.0
2023-08-10 11:41:16.626911,-26.0
2023-08-10 11:41:16.634601,-33.0
2023-08-10 11:41:16.642291,-43.0
2023-08-10 11:41:16.649980,-38.0
2023-08-10 11:41:16.657670,-31.0
2023-08-10 11:41:16.665360,-43.0
2023-08-10 11:41:16.673049,-124.0
2023-08-10 11:41:16.680739,-308.0
2023-08-10 11:41:16.688429,-535.0
2023-08-10 11:41:16.696119,-698.0
2023-08-10 11:41:16.703808,-634.0
2023-08-10 11:41:16.711498,-267.0
2023-08-10 11:41:16.719188,71.0
2023-08-10 11:41:16.726877,78.0
2023-08-10 11:41:16.734567,-40.0
2023-08-10 11:41:16.742257,-21.0
2023-08-10 11:41:16.749947,21.0
2023-08-10 11:41:16.757636,-7.0
2023-08-10 11:41:16.765326,-14.0
2023-08-10 11:41:16.773016,-2.0
2023-08-10 11:41:16.780705,-11.0
2023-08-10 11:41:16.788395,-19.0
2023-08-10 11:41:16.796085,-19.0
2023-08-10 11:41:16.803775,-35.0
2023-08-10 11:41:16.811464,-47.0
2023-08-10 11:41:16.819154,-43.0
2023-08-10 11:41:16.826844,-47.0
2023-08-10 11:41:16.834533,-62.0
2023-08-10 11:41:16.842223,-74.0
2023-08-10 11:41:16.849913,-78.0
2023-08-10 11:41:16.857602,-83.0
2023-08-10 11:41:16.865292,-98.0
2023-08-10 11:41:16.872982,-105.0
2023-08-10 11:41:16.880672,-110.0
2023-08-10 11:41:16.888361,-129.0
2023-08-10 11:41:16.896051,-153.0
2023-08-10 11:41:16.903741,-165.0
2023-08-10 11:41:16.911430,-177.0
2023-08-10 11:41:16.919120,-198.0
2023-08-10 11:41:16.926810,-220.0
2023-08-10 11:41:16.934500,-227.0
2023-08-10 11:41:16.942189,-246.0
2023-08-10 11:41:16.949879,-270.0
2023-08-10 11:41:16.957569,-277.0
2023-08-10 11:41:16.965258,-272.0
2023-08-10 11:41:16.972948,-246.0
2023-08-10 11:41:16.980638,-205.0
2023-08-10 11:41:16.988328,-155.0
2023-08-10 11:41:16.996017,-102.0
2023-08-10 11:41:17.003707,-45.0
2023-08-10 11:41:17.011397,2.0
2023-08-10 11:41:17.019086,38.0
2023-08-10 11:41:17.026776,52.0
2023-08-10 11:41:17.034466,52.0
2023-08-10 11:41:17.042156,50.0
2023-08-10 11:41:17.049845,50.0
2023-08-10 11:41:17.057535,50.0
2023-08-10 11:41:17.065225,57.0
2023-08-10 11:41:17.072914,57.0
2023-08-10 11:41:17.080604,47.0
2023-08-10 11:41:17.088294,40.0
2023-08-10 11:41:17.095984,38.0
2023-08-10 11:41:17.103673,33.0
2023-08-10 11:41:17.111363,33.0
2023-08-10 11:41:17.119053,33.0
2023-08-10 11:41:17.126742,23.0
2023-08-10 11:41:17.134432,21.0
2023-08-10 11:41:17.142122,26.0
2023-08-10 11:41:17.149812,26.0
2023-08-10 11:41:17.157501,14.0
2023-08-10 11:41:17.165191,9.0
2023-08-10 11:41:17.172881,11.0
2023-08-10 11:41:17.180570,7.0
2023-08-10 11:41:17.188260,9.0
2023-08-10 11:41:17.195950,19.0
2023-08-10 11:41:17.203640,14.0
2023-08-10 11:41:17.211329,4.0
2023-08-10 11:41:17.219019,-2.0
2023-08-10 11:41:17.226709,-7.0
2023-08-10 11:41:17.234398,-7.0
2023-08-10 11:41:17.242088,2.0
2023-08-10 11:41:17.249778,7.0
2023-08-10 11:41:17.257468,-4.0
2023-08-10 11:41:17.265157,-14.0
2023-08-10 11:41:17.272847,-11.0
2023-08-10 11:41:17.280537,-7.0
2023-08-10 11:41:17.288226,-4.0
2023-08-10 11:41:17.295916,-2.0
2023-08-10 11:41:17.303606,-7.0
2023-08-10 11:41:17.311296,-14.0
2023-08-10 11:41:17.318985,-9.0
2023-08-10 11:41:17.326675,-9.0
2023-08-10 11:41:17.334365,-11.0
2023-08-10 11:41:17.342054,-7.0
2023-08-10 11:41:17.349744,-2.0
2023-08-10 11:41:17.357434,-9.0
2023-08-10 11:41:17.365124,-11.0
2023-08-10 11:41:17.372813,-9.0
2023-08-10 11:41:17.380503,-14.0
2023-08-10 11:41:17.388193,-26.0
2023-08-10 11:41:17.395882,-23.0
2023-08-10 11:41:17.403572,-16.0
2023-08-10 11:41:17.411262,-19.0
2023-08-10 11:41:17.418952,-21.0
2023-08-10 11:41:17.426641,-16.0
2023-08-10 11:41:17.434331,-11.0
2023-08-10 11:41:17.442021,-16.0
2023-08-10 11:41:17.449710,-21.0
2023-08-10 11:41:17.457400,-16.0
2023-08-10 11:41:17.465090,-19.0
2023-08-10 11:41:17.472780,-33.0
2023-08-10 11:41:17.480469,-43.0
2023-08-10 11:41:17.488159,-47.0
2023-08-10 11:41:17.495849,-47.0
2023-08-10 11:41:17.503538,-40.0
2023-08-10 11:41:17.511228,-33.0
2023-08-10 11:41:17.518918,-35.0
2023-08-10 11:41:17.526608,-33.0
2023-08-10 11:41:17.534297,-16.0
2023-08-10 11:41:17.541987,-2.0
2023-08-10 11:41:17.549677,-2.0
2023-08-10 11:41:17.557366,-2.0
2023-08-10 11:41:17.565056,-2.0
2023-08-10 11:41:17.572746,-14.0
2023-08-10 11:41:17.580435,-28.0
2023-08-10 11:41:17.588125,-31.0
2023-08-10 11:41:17.595815,-23.0
2023-08-10 11:41:17.603505,-64.0
2023-08-10 11:41:17.611194,-236.0
2023-08-10 11:41:17.618884,-485.0
2023-08-10 11:41:17.626574,-674.0
2023-08-10 11:41:17.634263,-677.0
2023-08-10 11:41:17.641953,-378.0
2023-08-10 11:41:17.649643,28.0
2023-08-10 11:41:17.657333,141.0
2023-08-10 11:41:17.665022,9.0
2023-08-10 11:41:17.672712,-28.0
2023-08-10 11:41:17.680402,28.0
2023-08-10 11:41:17.688091,19.0
2023-08-10 11:41:17.695781,-7.0
2023-08-10 11:41:17.703471,9.0
2023-08-10 11:41:17.711161,7.0
2023-08-10 11:41:17.718850,-19.0
2023-08-10 11:41:17.726540,-26.0
2023-08-10 11:41:17.734230,-23.0
2023-08-10 11:41:17.741919,-33.0
2023-08-10 11:41:17.749609,-35.0
2023-08-10 11:41:17.757299,-38.0
2023-08-10 11:41:17.764989,-55.0
2023-08-10 11:41:17.772678,-64.0
2023-08-10 11:41:17.780368,-71.0
2023-08-10 11:41:17.788058,-88.0
2023-08-10 11:41:17.795747,-102.0
2023-08-10 11:41:17.803437,-102.0
2023-08-10 11:41:17.811127,-107.0
2023-08-10 11:41:17.818817,-124.0
2023-08-10 11:41:17.826506,-141.0
2023-08-10 11:41:17.834196,-157.0
2023-08-10 11:41:17.841886,-177.0
2023-08-10 11:41:17.849575,-196.0
2023-08-10 11:41:17.857265,-210.0
2023-08-10 11:41:17.864955,-222.0
2023-08-10 11:41:17.872645,-241.0
2023-08-10 11:41:17.880334,-263.0
2023-08-10 11:41:17.888024,-277.0
2023-08-10 11:41:17.895714,-277.0
2023-08-10 11:41:17.903403,-258.0
2023-08-10 11:41:17.911093,-220.0
2023-08-10 11:41:17.918783,-165.0
2023-08-10 11:41:17.926473,-98.0
2023-08-10 11:41:17.934162,-35.0
2023-08-10 11:41:17.941852,9.0
2023-08-10 11:41:17.949542,28.0
2023-08-10 11:41:17.957231,43.0
2023-08-10 11:41:17.964921,59.0
2023-08-10 11:41:17.972611,71.0
2023-08-10 11:41:17.980301,71.0
2023-08-10 11:41:17.987990,69.0
2023-08-10 11:41:17.995680,66.0
2023-08-10 11:41:18.003370,62.0
2023-08-10 11:41:18.011059,59.0
2023-08-10 11:41:18.018749,57.0
2023-08-10 11:41:18.026439,57.0
2023-08-10 11:41:18.034129,47.0
2023-08-10 11:41:18.041818,43.0
2023-08-10 11:41:18.049508,52.0
2023-08-10 11:41:18.057198,55.0
2023-08-10 11:41:18.064887,43.0
2023-08-10 11:41:18.072577,35.0
2023-08-10 11:41:18.080267,35.0
2023-08-10 11:41:18.087957,31.0
2023-08-10 11:41:18.095646,26.0
2023-08-10 11:41:18.103336,23.0
2023-08-10 11:41:18.111026,19.0
2023-08-10 11:41:18.118715,11.0
2023-08-10 11:41:18.126405,2.0
2023-08-10 11:41:18.134095,4.0
2023-08-10 11:41:18.141785,11.0
2023-08-10 11:41:18.149474,7.0
2023-08-10 11:41:18.157164,4.0
2023-08-10 11:41:18.164854,0.0
2023-08-10 11:41:18.172543,-2.0
2023-08-10 11:41:18.180233,2.0
2023-08-10 11:41:18.187923,7.0
2023-08-10 11:41:18.195613,0.0
2023-08-10 11:41:18.203302,-7.0
2023-08-10 11:41:18.210992,-14.0
2023-08-10 11:41:18.218682,-7.0
2023-08-10 11:41:18.226371,0.0
2023-08-10 11:41:18.234061,-7.0
2023-08-10 11:41:18.241751,-9.0
2023-08-10 11:41:18.249440,-4.0
2023-08-10 11:41:18.257130,-7.0
2023-08-10 11:41:18.264820,-9.0
2023-08-10 11:41:18.272510,-14.0
2023-08-10 11:41:18.280199,-14.0
2023-08-10 11:41:18.287889,-9.0
2023-08-10 11:41:18.295579,-9.0
2023-08-10 11:41:18.303268,-19.0
2023-08-10 11:41:18.310958,-19.0
2023-08-10 11:41:18.318648,-11.0
2023-08-10 11:41:18.326338,-11.0
2023-08-10 11:41:18.334027,-19.0
2023-08-10 11:41:18.341717,-14.0
2023-08-10 11:41:18.349407,-7.0
2023-08-10 11:41:18.357096,-9.0
2023-08-10 11:41:18.364786,-19.0
2023-08-10 11:41:18.372476,-28.0
2023-08-10 11:41:18.380166,-40.0
2023-08-10 11:41:18.387855,-47.0
2023-08-10 11:41:18.395545,-50.0
2023-08-10 11:41:18.403235,-40.0
2023-08-10 11:41:18.410924,-43.0
2023-08-10 11:41:18.418614,-50.0
2023-08-10 11:41:18.426304,-35.0
2023-08-10 11:41:18.433994,-19.0
2023-08-10 11:41:18.441683,-16.0
2023-08-10 11:41:18.449373,-9.0
2023-08-10 11:41:18.457063,-9.0
2023-08-10 11:41:18.464752,-19.0
2023-08-10 11:41:18.472442,-9.0
2023-08-10 11:41:18.480132,0.0
2023-08-10 11:41:18.487822,-11.0
2023-08-10 11:41:18.495511,-21.0
2023-08-10 11:41:18.503201,-21.0
2023-08-10 11:41:18.510891,-78.0
2023-08-10 11:41:18.518580,-260.0
2023-08-10 11:41:18.526270,-497.0
2023-08-10 11:41:18.533960,-669.0
2023-08-10 11:41:18.541650,-631.0
2023-08-10 11:41:18.549339,-301.0
2023-08-10 11:41:18.557029,64.0
2023-08-10 11:41:18.564719,117.0
2023-08-10 11:41:18.572408,-9.0
2023-08-10 11:41:18.580098,-11.0
2023-08-10 11:41:18.587788,43.0
2023-08-10 11:41:18.595478,21.0
2023-08-10 11:41:18.603167,0.0
2023-08-10 11:41:18.610857,16.0
2023-08-10 11:41:18.618547,14.0
2023-08-10 11:41:18.626236,2.0
2023-08-10 11:41:18.633926,4.0
2023-08-10 11:41:18.641616,0.0
2023-08-10 11:41:18.649306,-16.0
2023-08-10 11:41:18.656995,-28.0
2023-08-10 11:41:18.664685,-26.0
2023-08-10 11:41:18.672375,-31.0
2023-08-10 11:41:18.680064,-43.0
2023-08-10 11:41:18.687754,-55.0
2023-08-10 11:41:18.695444,-69.0
2023-08-10 11:41:18.703134,-86.0
2023-08-10 11:41:18.710823,-90.0
2023-08-10 11:41:18.718513,-90.0
2023-08-10 11:41:18.726203,-110.0
2023-08-10 11:41:18.733892,-141.0
2023-08-10 11:41:18.741582,-165.0
2023-08-10 11:41:18.749272,-179.0
2023-08-10 11:41:18.756962,-191.0
2023-08-10 11:41:18.764651,-210.0
2023-08-10 11:41:18.772341,-234.0
2023-08-10 11:41:18.780031,-248.0
2023-08-10 11:41:18.787720,-265.0
2023-08-10 11:41:18.795410,-284.0
2023-08-10 11:41:18.803100,-287.0
2023-08-10 11:41:18.810790,-263.0
2023-08-10 11:41:18.818479,-217.0
2023-08-10 11:41:18.826169,-157.0
2023-08-10 11:41:18.833859,-93.0
2023-08-10 11:41:18.841548,-31.0
2023-08-10 11:41:18.849238,7.0
2023-08-10 11:41:18.856928,19.0
2023-08-10 11:41:18.864618,33.0
2023-08-10 11:41:18.872307,47.0
2023-08-10 11:41:18.879997,52.0
2023-08-10 11:41:18.887687,50.0
2023-08-10 11:41:18.895376,47.0
2023-08-10 11:41:18.903066,38.0
2023-08-10 11:41:18.910756,35.0
2023-08-10 11:41:18.918446,40.0
2023-08-10 11:41:18.926135,40.0
2023-08-10 11:41:18.933825,35.0
2023-08-10 11:41:18.941515,35.0
2023-08-10 11:41:18.949204,31.0
2023-08-10 11:41:18.956894,16.0
2023-08-10 11:41:18.964584,16.0
2023-08-10 11:41:18.972273,28.0
2023-08-10 11:41:18.979963,26.0
2023-08-10 11:41:18.987653,14.0
2023-08-10 11:41:18.995343,11.0
2023-08-10 11:41:19.003032,14.0
2023-08-10 11:41:19.010722,9.0
2023-08-10 11:41:19.018412,4.0
2023-08-10 11:41:19.026101,9.0
2023-08-10 11:41:19.033791,16.0
2023-08-10 11:41:19.041481,16.0
2023-08-10 11:41:19.049171,11.0
2023-08-10 11:41:19.056860,2.0
2023-08-10 11:41:19.064550,-2.0
2023-08-10 11:41:19.072240,4.0
2023-08-10 11:41:19.079929,0.0
2023-08-10 11:41:19.087619,-4.0
2023-08-10 11:41:19.095309,4.0
2023-08-10 11:41:19.102999,9.0
2023-08-10 11:41:19.110688,2.0
2023-08-10 11:41:19.118378,0.0
2023-08-10 11:41:19.126068,-2.0
2023-08-10 11:41:19.133757,-4.0
2023-08-10 11:41:19.141447,-9.0
2023-08-10 11:41:19.149137,-7.0
2023-08-10 11:41:19.156827,-7.0
2023-08-10 11:41:19.164516,-9.0
2023-08-10 11:41:19.172206,-11.0
2023-08-10 11:41:19.179896,-7.0
2023-08-10 11:41:19.187585,-2.0
2023-08-10 11:41:19.195275,-4.0
2023-08-10 11:41:19.202965,-14.0
2023-08-10 11:41:19.210655,-16.0
2023-08-10 11:41:19.218344,-14.0
2023-08-10 11:41:19.226034,-14.0
2023-08-10 11:41:19.233724,-16.0
2023-08-10 11:41:19.241413,-21.0
2023-08-10 11:41:19.249103,-31.0
2023-08-10 11:41:19.256793,-28.0
2023-08-10 11:41:19.264483,-21.0
2023-08-10 11:41:19.272172,-19.0
2023-08-10 11:41:19.279862,-23.0
2023-08-10 11:41:19.287552,-26.0
2023-08-10 11:41:19.295241,-23.0
2023-08-10 11:41:19.302931,-19.0
2023-08-10 11:41:19.310621,-26.0
2023-08-10 11:41:19.318311,-26.0
2023-08-10 11:41:19.326000,-21.0
2023-08-10 11:41:19.333690,-31.0
2023-08-10 11:41:19.341380,-43.0
2023-08-10 11:41:19.349069,-35.0
2023-08-10 11:41:19.356759,-28.0
2023-08-10 11:41:19.364449,-33.0
2023-08-10 11:41:19.372139,-38.0
2023-08-10 11:41:19.379828,-40.0
2023-08-10 11:41:19.387518,-47.0
2023-08-10 11:41:19.395208,-59.0
2023-08-10 11:41:19.402897,-66.0
2023-08-10 11:41:19.410587,-59.0
2023-08-10 11:41:19.418277,-47.0
2023-08-10 11:41:19.425967,-50.0
2023-08-10 11:41:19.433656,-57.0
2023-08-10 11:41:19.441346,-47.0
2023-08-10 11:41:19.449036,-35.0
2023-08-10 11:41:19.456725,-35.0
2023-08-10 11:41:19.464415,-21.0
2023-08-10 11:41:19.472105,-7.0
2023-08-10 11:41:19.479795,-23.0
2023-08-10 11:41:19.487484,-31.0
2023-08-10 11:41:19.495174,-21.0
2023-08-10 11:41:19.502864,-23.0
2023-08-10 11:41:19.510553,-23.0
2023-08-10 11:41:19.518243,-23.0
2023-08-10 11:41:19.525933,-105.0
2023-08-10 11:41:19.533623,-308.0
2023-08-10 11:41:19.541312,-540.0
2023-08-10 11:41:19.549002,-686.0
2023-08-10 11:41:19.556692,-614.0
2023-08-10 11:41:19.564381,-258.0
2023-08-10 11:41:19.572071,78.0
2023-08-10 11:41:19.579761,88.0
2023-08-10 11:41:19.587451,-33.0
2023-08-10 11:41:19.595140,-14.0
2023-08-10 11:41:19.602830,40.0
2023-08-10 11:41:19.610520,21.0
2023-08-10 11:41:19.618209,2.0
2023-08-10 11:41:19.625899,-7.0
2023-08-10 11:41:19.633589,-14.0
2023-08-10 11:41:19.641278,-16.0
2023-08-10 11:41:19.648968,-35.0
2023-08-10 11:41:19.656658,-40.0
2023-08-10 11:41:19.664348,-19.0
2023-08-10 11:41:19.672037,-35.0
2023-08-10 11:41:19.679727,-62.0
2023-08-10 11:41:19.687417,-57.0
2023-08-10 11:41:19.695106,-59.0
2023-08-10 11:41:19.702796,-78.0
2023-08-10 11:41:19.710486,-98.0
2023-08-10 11:41:19.718176,-114.0
2023-08-10 11:41:19.725865,-102.0
2023-08-10 11:41:19.733555,-95.0
2023-08-10 11:41:19.741245,-133.0
2023-08-10 11:41:19.748934,-167.0
2023-08-10 11:41:19.756624,-165.0
2023-08-10 11:41:19.764314,-172.0
2023-08-10 11:41:19.772004,-198.0
2023-08-10 11:41:19.779693,-220.0
2023-08-10 11:41:19.787383,-241.0
2023-08-10 11:41:19.795073,-263.0
2023-08-10 11:41:19.802762,-275.0
2023-08-10 11:41:19.810452,-279.0
2023-08-10 11:41:19.818142,-275.0
2023-08-10 11:41:19.825832,-253.0
2023-08-10 11:41:19.833521,-212.0
2023-08-10 11:41:19.841211,-153.0
2023-08-10 11:41:19.848901,-100.0
2023-08-10 11:41:19.856590,-66.0
2023-08-10 11:41:19.864280,-16.0
2023-08-10 11:41:19.871970,16.0
2023-08-10 11:41:19.879660,9.0
2023-08-10 11:41:19.887349,26.0
2023-08-10 11:41:19.895039,50.0
2023-08-10 11:41:19.902729,38.0
2023-08-10 11:41:19.910418,19.0
2023-08-10 11:41:19.918108,21.0
2023-08-10 11:41:19.925798,28.0
2023-08-10 11:41:19.933488,23.0
2023-08-10 11:41:19.941177,16.0
2023-08-10 11:41:19.948867,16.0
2023-08-10 11:41:19.956557,11.0
2023-08-10 11:41:19.964246,4.0
2023-08-10 11:41:19.971936,7.0
2023-08-10 11:41:19.979626,2.0
2023-08-10 11:41:19.987316,-7.0
2023-08-10 11:41:19.995005,7.0
2023-08-10 11:41:20.002695,9.0
2023-08-10 11:41:20.010385,-2.0
2023-08-10 11:41:20.018074,2.0
2023-08-10 11:41:20.025764,11.0
2023-08-10 11:41:20.033454,-9.0
2023-08-10 11:41:20.041144,-23.0
2023-08-10 11:41:20.048833,7.0
2023-08-10 11:41:20.056523,7.0
2023-08-10 11:41:20.064213,-16.0
2023-08-10 11:41:20.071902,14.0
2023-08-10 11:41:20.079592,26.0
2023-08-10 11:41:20.087282,-2.0
2023-08-10 11:41:20.094972,-2.0
2023-08-10 11:41:20.102661,7.0
2023-08-10 11:41:20.110351,-16.0
2023-08-10 11:41:20.118041,-23.0
2023-08-10 11:41:20.125730,14.0
2023-08-10 11:41:20.133420,0.0
2023-08-10 11:41:20.141110,-50.0
2023-08-10 11:41:20.148800,-26.0
2023-08-10 11:41:20.156489,14.0
2023-08-10 11:41:20.164179,-4.0
2023-08-10 11:41:20.171869,-9.0
2023-08-10 11:41:20.179558,-7.0
2023-08-10 11:41:20.187248,-21.0
2023-08-10 11:41:20.194938,-26.0
2023-08-10 11:41:20.202628,-45.0
2023-08-10 11:41:20.210317,-45.0
2023-08-10 11:41:20.218007,9.0
2023-08-10 11:41:20.225697,21.0
2023-08-10 11:41:20.233386,-45.0
2023-08-10 11:41:20.241076,-55.0
2023-08-10 11:41:20.248766,-7.0
2023-08-10 11:41:20.256456,-19.0
2023-08-10 11:41:20.264145,-33.0
2023-08-10 11:41:20.271835,-19.0
2023-08-10 11:41:20.279525,-19.0
2023-08-10 11:41:20.287214,-16.0
2023-08-10 11:41:20.294904,-38.0
2023-08-10 11:41:20.302594,-47.0
2023-08-10 11:41:20.310284,-16.0
2023-08-10 11:41:20.317973,-28.0
2023-08-10 11:41:20.325663,-52.0
2023-08-10 11:41:20.333353,-23.0
2023-08-10 11:41:20.341042,-4.0
2023-08-10 11:41:20.348732,-23.0
2023-08-10 11:41:20.356422,-45.0
2023-08-10 11:41:20.364111,-57.0
2023-08-10 11:41:20.371801,-69.0
2023-08-10 11:41:20.379491,-83.0
2023-08-10 11:41:20.387181,-83.0
2023-08-10 11:41:20.394870,-64.0
2023-08-10 11:41:20.402560,-45.0
2023-08-10 11:41:20.410250,-45.0
2023-08-10 11:41:20.417939,-55.0
2023-08-10 11:41:20.425629,-59.0
2023-08-10 11:41:20.433319,-50.0
2023-08-10 11:41:20.441009,-31.0
2023-08-10 11:41:20.448698,-31.0
2023-08-10 11:41:20.456388,-43.0
2023-08-10 11:41:20.464078,-33.0
2023-08-10 11:41:20.471767,-19.0
2023-08-10 11:41:20.479457,-14.0
2023-08-10 11:41:20.487147,-21.0
2023-08-10 11:41:20.494837,-43.0
2023-08-10 11:41:20.502526,-64.0
2023-08-10 11:41:20.510216,-143.0
2023-08-10 11:41:20.517906,-368.0
2023-08-10 11:41:20.525595,-612.0
2023-08-10 11:41:20.533285,-696.0
2023-08-10 11:41:20.540975,-531.0
2023-08-10 11:41:20.548665,-153.0
2023-08-10 11:41:20.556354,122.0
2023-08-10 11:41:20.564044,86.0
2023-08-10 11:41:20.571734,-28.0
2023-08-10 11:41:20.579423,-14.0
2023-08-10 11:41:20.587113,21.0
2023-08-10 11:41:20.594803,2.0
2023-08-10 11:41:20.602493,-7.0
2023-08-10 11:41:20.610182,4.0
2023-08-10 11:41:20.617872,4.0
2023-08-10 11:41:20.625562,2.0
2023-08-10 11:41:20.633251,-11.0
2023-08-10 11:41:20.640941,-35.0
2023-08-10 11:41:20.648631,-45.0
2023-08-10 11:41:20.656321,-40.0
2023-08-10 11:41:20.664010,-55.0
2023-08-10 11:41:20.671700,-74.0
2023-08-10 11:41:20.679390,-69.0
2023-08-10 11:41:20.687079,-55.0
2023-08-10 11:41:20.694769,-71.0
2023-08-10 11:41:20.702459,-105.0
2023-08-10 11:41:20.710149,-110.0
2023-08-10 11:41:20.717838,-117.0
2023-08-10 11:41:20.725528,-148.0
2023-08-10 11:41:20.733218,-148.0
2023-08-10 11:41:20.740907,-141.0
2023-08-10 11:41:20.748597,-165.0
2023-08-10 11:41:20.756287,-200.0
2023-08-10 11:41:20.763977,-232.0
2023-08-10 11:41:20.771666,-251.0
2023-08-10 11:41:20.779356,-256.0
2023-08-10 11:41:20.787046,-275.0
2023-08-10 11:41:20.794735,-284.0
2023-08-10 11:41:20.802425,-248.0
2023-08-10 11:41:20.810115,-220.0
2023-08-10 11:41:20.817805,-198.0
2023-08-10 11:41:20.825494,-138.0
2023-08-10 11:41:20.833184,-55.0
2023-08-10 11:41:20.840874,-9.0
2023-08-10 11:41:20.848563,2.0
2023-08-10 11:41:20.856253,28.0
2023-08-10 11:41:20.863943,55.0
2023-08-10 11:41:20.871633,47.0
2023-08-10 11:41:20.879322,52.0
2023-08-10 11:41:20.887012,74.0
2023-08-10 11:41:20.894702,55.0
2023-08-10 11:41:20.902391,40.0
2023-08-10 11:41:20.910081,57.0
2023-08-10 11:41:20.917771,57.0
2023-08-10 11:41:20.925461,50.0
2023-08-10 11:41:20.933150,45.0
2023-08-10 11:41:20.940840,28.0
2023-08-10 11:41:20.948530,28.0
2023-08-10 11:41:20.956219,35.0
2023-08-10 11:41:20.963909,26.0
2023-08-10 11:41:20.971599,31.0
2023-08-10 11:41:20.979289,26.0
2023-08-10 11:41:20.986978,11.0
2023-08-10 11:41:20.994668,9.0
2023-08-10 11:41:21.002358,7.0
2023-08-10 11:41:21.010047,7.0
2023-08-10 11:41:21.017737,7.0
2023-08-10 11:41:21.025427,-7.0
2023-08-10 11:41:21.033116,-4.0
2023-08-10 11:41:21.040806,-4.0
2023-08-10 11:41:21.048496,-7.0
2023-08-10 11:41:21.056186,9.0
2023-08-10 11:41:21.063875,14.0
2023-08-10 11:41:21.071565,4.0
2023-08-10 11:41:21.079255,-2.0
2023-08-10 11:41:21.086944,-16.0
2023-08-10 11:41:21.094634,-11.0
2023-08-10 11:41:21.102324,14.0
2023-08-10 11:41:21.110014,-2.0
2023-08-10 11:41:21.117703,-28.0
2023-08-10 11:41:21.125393,9.0
2023-08-10 11:41:21.133083,21.0
2023-08-10 11:41:21.140772,-19.0
2023-08-10 11:41:21.148462,-26.0
2023-08-10 11:41:21.156152,-2.0
2023-08-10 11:41:21.163842,4.0
2023-08-10 11:41:21.171531,0.0
2023-08-10 11:41:21.179221,-14.0
2023-08-10 11:41:21.186911,-19.0
2023-08-10 11:41:21.194600,2.0
2023-08-10 11:41:21.202290,4.0
2023-08-10 11:41:21.209980,-16.0
2023-08-10 11:41:21.217670,-23.0
2023-08-10 11:41:21.225359,-16.0
2023-08-10 11:41:21.233049,-11.0
2023-08-10 11:41:21.240739,-9.0
2023-08-10 11:41:21.248428,2.0
2023-08-10 11:41:21.256118,0.0
2023-08-10 11:41:21.263808,-19.0
2023-08-10 11:41:21.271498,-26.0
2023-08-10 11:41:21.279187,-28.0
2023-08-10 11:41:21.286877,-45.0
2023-08-10 11:41:21.294567,-33.0
2023-08-10 11:41:21.302256,0.0
2023-08-10 11:41:21.309946,-16.0
2023-08-10 11:41:21.317636,-45.0
2023-08-10 11:41:21.325326,-23.0
2023-08-10 11:41:21.333015,-7.0
2023-08-10 11:41:21.340705,-28.0
2023-08-10 11:41:21.348395,-38.0
2023-08-10 11:41:21.356084,-31.0
2023-08-10 11:41:21.363774,-28.0
2023-08-10 11:41:21.371464,-28.0
2023-08-10 11:41:21.379154,-23.0
2023-08-10 11:41:21.386843,-26.0
2023-08-10 11:41:21.394533,-38.0
2023-08-10 11:41:21.402223,-57.0
2023-08-10 11:41:21.409912,-59.0
2023-08-10 11:41:21.417602,-45.0
2023-08-10 11:41:21.425292,-38.0
2023-08-10 11:41:21.432982,-55.0
2023-08-10 11:41:21.440671,-66.0
2023-08-10 11:41:21.448361,-33.0
2023-08-10 11:41:21.456051,2.0
2023-08-10 11:41:21.463740,-11.0
2023-08-10 11:41:21.471430,-28.0
2023-08-10 11:41:21.479120,-19.0
2023-08-10 11:41:21.486810,-16.0
2023-08-10 11:41:21.494499,-33.0
2023-08-10 11:41:21.502189,-43.0
2023-08-10 11:41:21.509879,-43.0
2023-08-10 11:41:21.517568,-38.0
2023-08-10 11:41:21.525258,-62.0
2023-08-10 11:41:21.532948,-224.0
2023-08-10 11:41:21.540638,-488.0
2023-08-10 11:41:21.548327,-677.0
2023-08-10 11:41:21.556017,-679.0
2023-08-10 11:41:21.563707,-399.0
2023-08-10 11:41:21.571396,-7.0
2023-08-10 11:41:21.579086,114.0
2023-08-10 11:41:21.586776,-9.0
2023-08-10 11:41:21.594466,-45.0
2023-08-10 11:41:21.602155,9.0
2023-08-10 11:41:21.609845,-11.0
2023-08-10 11:41:21.617535,-38.0
2023-08-10 11:41:21.625224,2.0
2023-08-10 11:41:21.632914,-2.0
2023-08-10 11:41:21.640604,-43.0
2023-08-10 11:41:21.648294,-31.0
2023-08-10 11:41:21.655983,-23.0
2023-08-10 11:41:21.663673,-52.0
2023-08-10 11:41:21.671363,-45.0
2023-08-10 11:41:21.679052,-33.0
2023-08-10 11:41:21.686742,-62.0
2023-08-10 11:41:21.694432,-78.0
2023-08-10 11:41:21.702122,-64.0
2023-08-10 11:41:21.709811,-74.0
2023-08-10 11:41:21.717501,-107.0
2023-08-10 11:41:21.725191,-114.0
2023-08-10 11:41:21.732880,-100.0
2023-08-10 11:41:21.740570,-117.0
2023-08-10 11:41:21.748260,-141.0
2023-08-10 11:41:21.755949,-136.0
2023-08-10 11:41:21.763639,-157.0
2023-08-10 11:41:21.771329,-196.0
2023-08-10 11:41:21.779019,-210.0
2023-08-10 11:41:21.786708,-229.0
2023-08-10 11:41:21.794398,-248.0
2023-08-10 11:41:21.802088,-258.0
2023-08-10 11:41:21.809777,-267.0
2023-08-10 11:41:21.817467,-282.0
2023-08-10 11:41:21.825157,-270.0
2023-08-10 11:41:21.832847,-222.0
2023-08-10 11:41:21.840536,-167.0
2023-08-10 11:41:21.848226,-112.0
2023-08-10 11:41:21.855916,-43.0
2023-08-10 11:41:21.863605,7.0
2023-08-10 11:41:21.871295,21.0
2023-08-10 11:41:21.878985,33.0
2023-08-10 11:41:21.886675,43.0
2023-08-10 11:41:21.894364,47.0
2023-08-10 11:41:21.902054,57.0
2023-08-10 11:41:21.909744,74.0
2023-08-10 11:41:21.917433,78.0
2023-08-10 11:41:21.925123,69.0
2023-08-10 11:41:21.932813,52.0
2023-08-10 11:41:21.940503,50.0
2023-08-10 11:41:21.948192,47.0
2023-08-10 11:41:21.955882,50.0
2023-08-10 11:41:21.963572,43.0
2023-08-10 11:41:21.971261,23.0
2023-08-10 11:41:21.978951,28.0
2023-08-10 11:41:21.986641,40.0
2023-08-10 11:41:21.994331,23.0
2023-08-10 11:41:22.002020,9.0
2023-08-10 11:41:22.009710,33.0
2023-08-10 11:41:22.017400,47.0
2023-08-10 11:41:22.025089,21.0
2023-08-10 11:41:22.032779,7.0
2023-08-10 11:41:22.040469,16.0
2023-08-10 11:41:22.048159,21.0
2023-08-10 11:41:22.055848,21.0
2023-08-10 11:41:22.063538,11.0
2023-08-10 11:41:22.071228,-4.0
2023-08-10 11:41:22.078917,-11.0
2023-08-10 11:41:22.086607,-4.0
2023-08-10 11:41:22.094297,-9.0
2023-08-10 11:41:22.101987,-16.0
2023-08-10 11:41:22.109676,-19.0
2023-08-10 11:41:22.117366,-21.0
2023-08-10 11:41:22.125056,-21.0
2023-08-10 11:41:22.132745,-4.0
2023-08-10 11:41:22.140435,4.0
2023-08-10 11:41:22.148125,-16.0
2023-08-10 11:41:22.155815,-33.0
2023-08-10 11:41:22.163504,-11.0
2023-08-10 11:41:22.171194,2.0
2023-08-10 11:41:22.178884,-23.0
2023-08-10 11:41:22.186573,-43.0
2023-08-10 11:41:22.194263,-26.0
2023-08-10 11:41:22.201953,-4.0
2023-08-10 11:41:22.209643,-11.0
2023-08-10 11:41:22.217332,-28.0
2023-08-10 11:41:22.225022,-21.0
2023-08-10 11:41:22.232712,-23.0
2023-08-10 11:41:22.240401,-31.0
2023-08-10 11:41:22.248091,-21.0
2023-08-10 11:41:22.255781,-23.0
2023-08-10 11:41:22.263471,-33.0
2023-08-10 11:41:22.271160,-35.0
2023-08-10 11:41:22.278850,-43.0
2023-08-10 11:41:22.286540,-47.0
2023-08-10 11:41:22.294229,-31.0
2023-08-10 11:41:22.301919,-21.0
2023-08-10 11:41:22.309609,-33.0
2023-08-10 11:41:22.317299,-55.0
2023-08-10 11:41:22.324988,-57.0
2023-08-10 11:41:22.332678,-33.0
2023-08-10 11:41:22.340368,-35.0
2023-08-10 11:41:22.348057,-52.0
2023-08-10 11:41:22.355747,-43.0
2023-08-10 11:41:22.363437,-45.0
2023-08-10 11:41:22.371127,-57.0
2023-08-10 11:41:22.378816,-28.0
2023-08-10 11:41:22.386506,-21.0
2023-08-10 11:41:22.394196,-45.0
2023-08-10 11:41:22.401885,-43.0
2023-08-10 11:41:22.409575,-31.0
2023-08-10 11:41:22.417265,-40.0
2023-08-10 11:41:22.424954,-52.0
2023-08-10 11:41:22.432644,-50.0
2023-08-10 11:41:22.440334,-52.0
2023-08-10 11:41:22.448024,-59.0
2023-08-10 11:41:22.455713,-55.0
2023-08-10 11:41:22.463403,-55.0
2023-08-10 11:41:22.471093,-69.0
2023-08-10 11:41:22.478782,-83.0
2023-08-10 11:41:22.486472,-83.0
2023-08-10 11:41:22.494162,-64.0
2023-08-10 11:41:22.501852,-57.0
2023-08-10 11:41:22.509541,-59.0
2023-08-10 11:41:22.517231,-52.0
2023-08-10 11:41:22.524921,-50.0
2023-08-10 11:41:22.532610,-47.0
2023-08-10 11:41:22.540300,-43.0
2023-08-10 11:41:22.547990,-55.0
2023-08-10 11:41:22.555680,-59.0
2023-08-10 11:41:22.563369,-47.0
2023-08-10 11:41:22.571059,-47.0
2023-08-10 11:41:22.578749,-78.0
2023-08-10 11:41:22.586438,-205.0
2023-08-10 11:41:22.594128,-433.0
2023-08-10 11:41:22.601818,-650.0
2023-08-10 11:41:22.609508,-729.0
2023-08-10 11:41:22.617197,-531.0
2023-08-10 11:41:22.624887,-119.0
2023-08-10 11:41:22.632577,105.0
2023-08-10 11:41:22.640266,16.0
2023-08-10 11:41:22.647956,-57.0
2023-08-10 11:41:22.655646,-16.0
2023-08-10 11:41:22.663336,-19.0
2023-08-10 11:41:22.671025,-52.0
2023-08-10 11:41:22.678715,-38.0
2023-08-10 11:41:22.686405,-19.0
2023-08-10 11:41:22.694094,-35.0
2023-08-10 11:41:22.701784,-55.0
2023-08-10 11:41:22.709474,-57.0
2023-08-10 11:41:22.717164,-59.0
2023-08-10 11:41:22.724853,-52.0
2023-08-10 11:41:22.732543,-35.0
2023-08-10 11:41:22.740233,-59.0
2023-08-10 11:41:22.747922,-86.0
2023-08-10 11:41:22.755612,-74.0
2023-08-10 11:41:22.763302,-95.0
2023-08-10 11:41:22.770992,-126.0
2023-08-10 11:41:22.778681,-102.0
2023-08-10 11:41:22.786371,-93.0
2023-08-10 11:41:22.794061,-133.0
2023-08-10 11:41:22.801750,-150.0
2023-08-10 11:41:22.809440,-148.0
2023-08-10 11:41:22.817130,-177.0
2023-08-10 11:41:22.824820,-196.0
2023-08-10 11:41:22.832509,-203.0
2023-08-10 11:41:22.840199,-236.0
2023-08-10 11:41:22.847889,-267.0
2023-08-10 11:41:22.855578,-265.0
2023-08-10 11:41:22.863268,-260.0
2023-08-10 11:41:22.870958,-277.0
2023-08-10 11:41:22.878648,-282.0
2023-08-10 11:41:22.886337,-244.0
2023-08-10 11:41:22.894027,-191.0
2023-08-10 11:41:22.901717,-143.0
2023-08-10 11:41:22.909406,-83.0
2023-08-10 11:41:22.917096,-23.0
2023-08-10 11:41:22.924786,16.0
2023-08-10 11:41:22.932476,43.0
2023-08-10 11:41:22.940165,59.0
2023-08-10 11:41:22.947855,62.0
2023-08-10 11:41:22.955545,57.0
2023-08-10 11:41:22.963234,74.0
2023-08-10 11:41:22.970924,90.0
2023-08-10 11:41:22.978614,71.0
2023-08-10 11:41:22.986304,52.0
2023-08-10 11:41:22.993993,64.0
2023-08-10 11:41:23.001683,78.0
2023-08-10 11:41:23.009373,64.0
2023-08-10 11:41:23.017062,45.0
2023-08-10 11:41:23.024752,45.0
2023-08-10 11:41:23.032442,50.0
2023-08-10 11:41:23.040132,40.0
2023-08-10 11:41:23.047821,33.0
2023-08-10 11:41:23.055511,38.0
2023-08-10 11:41:23.063201,45.0
2023-08-10 11:41:23.070890,40.0
2023-08-10 11:41:23.078580,26.0
2023-08-10 11:41:23.086270,23.0
2023-08-10 11:41:23.093960,33.0
2023-08-10 11:41:23.101649,28.0
2023-08-10 11:41:23.109339,21.0
2023-08-10 11:41:23.117029,14.0
2023-08-10 11:41:23.124718,4.0
2023-08-10 11:41:23.132408,14.0
2023-08-10 11:41:23.140098,43.0
2023-08-10 11:41:23.147787,33.0
2023-08-10 11:41:23.155477,4.0
2023-08-10 11:41:23.163167,9.0
2023-08-10 11:41:23.170857,19.0
2023-08-10 11:41:23.178546,11.0
2023-08-10 11:41:23.186236,9.0
2023-08-10 11:41:23.193926,21.0
2023-08-10 11:41:23.201615,14.0
2023-08-10 11:41:23.209305,-4.0
2023-08-10 11:41:23.216995,-11.0
2023-08-10 11:41:23.224685,-4.0
2023-08-10 11:41:23.232374,4.0
2023-08-10 11:41:23.240064,7.0
2023-08-10 11:41:23.247754,-14.0
2023-08-10 11:41:23.255443,-26.0
2023-08-10 11:41:23.263133,-11.0
2023-08-10 11:41:23.270823,0.0
2023-08-10 11:41:23.278513,-4.0
2023-08-10 11:41:23.286202,-14.0
2023-08-10 11:41:23.293892,-19.0
2023-08-10 11:41:23.301582,-14.0
2023-08-10 11:41:23.309271,-4.0
2023-08-10 11:41:23.316961,-14.0
2023-08-10 11:41:23.324651,-26.0
2023-08-10 11:41:23.332341,-21.0
2023-08-10 11:41:23.340030,-19.0
2023-08-10 11:41:23.347720,-28.0
2023-08-10 11:41:23.355410,-23.0
2023-08-10 11:41:23.363099,-2.0
2023-08-10 11:41:23.370789,-11.0
2023-08-10 11:41:23.378479,-33.0
2023-08-10 11:41:23.386169,-26.0
2023-08-10 11:41:23.393858,-31.0
2023-08-10 11:41:23.401548,-55.0
2023-08-10 11:41:23.409238,-45.0
2023-08-10 11:41:23.416927,-23.0
2023-08-10 11:41:23.424617,-40.0
2023-08-10 11:41:23.432307,-57.0
2023-08-10 11:41:23.439997,-45.0
2023-08-10 11:41:23.447686,-28.0
2023-08-10 11:41:23.455376,-11.0
2023-08-10 11:41:23.463066,-4.0
2023-08-10 11:41:23.470755,-14.0
2023-08-10 11:41:23.478445,-16.0
2023-08-10 11:41:23.486135,-21.0
2023-08-10 11:41:23.493825,-33.0
2023-08-10 11:41:23.501514,-28.0
2023-08-10 11:41:23.509204,-14.0
2023-08-10 11:41:23.516894,-28.0
2023-08-10 11:41:23.524583,-129.0
2023-08-10 11:41:23.532273,-332.0
2023-08-10 11:41:23.539963,-555.0
2023-08-10 11:41:23.547653,-705.0
2023-08-10 11:41:23.555342,-629.0
2023-08-10 11:41:23.563032,-258.0
2023-08-10 11:41:23.570722,76.0
2023-08-10 11:41:23.578411,88.0
2023-08-10 11:41:23.586101,-28.0
2023-08-10 11:41:23.593791,-26.0
2023-08-10 11:41:23.601481,11.0
2023-08-10 11:41:23.609170,0.0
2023-08-10 11:41:23.616860,-2.0
2023-08-10 11:41:23.624550,9.0
2023-08-10 11:41:23.632239,-2.0
2023-08-10 11:41:23.639929,-4.0
2023-08-10 11:41:23.647619,-2.0
2023-08-10 11:41:23.655309,-16.0
2023-08-10 11:41:23.662998,-23.0
2023-08-10 11:41:23.670688,-26.0
2023-08-10 11:41:23.678378,-35.0
2023-08-10 11:41:23.686067,-45.0
2023-08-10 11:41:23.693757,-50.0
2023-08-10 11:41:23.701447,-52.0
2023-08-10 11:41:23.709137,-62.0
2023-08-10 11:41:23.716826,-81.0
2023-08-10 11:41:23.724516,-90.0
2023-08-10 11:41:23.732206,-90.0
2023-08-10 11:41:23.739895,-107.0
2023-08-10 11:41:23.747585,-143.0
2023-08-10 11:41:23.755275,-157.0
2023-08-10 11:41:23.762965,-150.0
2023-08-10 11:41:23.770654,-162.0
2023-08-10 11:41:23.778344,-196.0
2023-08-10 11:41:23.786034,-229.0
2023-08-10 11:41:23.793723,-246.0
2023-08-10 11:41:23.801413,-260.0
2023-08-10 11:41:23.809103,-272.0
2023-08-10 11:41:23.816792,-267.0
2023-08-10 11:41:23.824482,-241.0
2023-08-10 11:41:23.832172,-196.0
2023-08-10 11:41:23.839862,-136.0
2023-08-10 11:41:23.847551,-78.0
2023-08-10 11:41:23.855241,-21.0
2023-08-10 11:41:23.862931,23.0
2023-08-10 11:41:23.870620,33.0
2023-08-10 11:41:23.878310,47.0
2023-08-10 11:41:23.886000,88.0
2023-08-10 11:41:23.893690,95.0
2023-08-10 11:41:23.901379,76.0
2023-08-10 11:41:23.909069,74.0
2023-08-10 11:41:23.916759,76.0
2023-08-10 11:41:23.924448,66.0
2023-08-10 11:41:23.932138,57.0
2023-08-10 11:41:23.939828,59.0
2023-08-10 11:41:23.947518,59.0
2023-08-10 11:41:23.955207,50.0
2023-08-10 11:41:23.962897,50.0
2023-08-10 11:41:23.970587,52.0
2023-08-10 11:41:23.978276,50.0
2023-08-10 11:41:23.985966,52.0
2023-08-10 11:41:23.993656,52.0
2023-08-10 11:41:24.001346,40.0
2023-08-10 11:41:24.009035,35.0
2023-08-10 11:41:24.016725,31.0
2023-08-10 11:41:24.024415,28.0
2023-08-10 11:41:24.032104,31.0
2023-08-10 11:41:24.039794,26.0
2023-08-10 11:41:24.047484,19.0
2023-08-10 11:41:24.055174,26.0
2023-08-10 11:41:24.062863,23.0
2023-08-10 11:41:24.070553,7.0
2023-08-10 11:41:24.078243,16.0
2023-08-10 11:41:24.085932,38.0
2023-08-10 11:41:24.093622,31.0
2023-08-10 11:41:24.101312,9.0
2023-08-10 11:41:24.109002,11.0
2023-08-10 11:41:24.116691,21.0
2023-08-10 11:41:24.124381,16.0
2023-08-10 11:41:24.132071,14.0
2023-08-10 11:41:24.139760,19.0
2023-08-10 11:41:24.147450,14.0
2023-08-10 11:41:24.155140,2.0
2023-08-10 11:41:24.162830,7.0
2023-08-10 11:41:24.170519,19.0
2023-08-10 11:41:24.178209,14.0
2023-08-10 11:41:24.185899,2.0
2023-08-10 11:41:24.193588,2.0
2023-08-10 11:41:24.201278,9.0
2023-08-10 11:41:24.208968,9.0
2023-08-10 11:41:24.216658,0.0
2023-08-10 11:41:24.224347,0.0
2023-08-10 11:41:24.232037,4.0
2023-08-10 11:41:24.239727,-2.0
2023-08-10 11:41:24.247416,-4.0
2023-08-10 11:41:24.255106,0.0
2023-08-10 11:41:24.262796,0.0
2023-08-10 11:41:24.270486,-7.0
2023-08-10 11:41:24.278175,-11.0
2023-08-10 11:41:24.285865,-11.0
2023-08-10 11:41:24.293555,-11.0
2023-08-10 11:41:24.301244,-19.0
2023-08-10 11:41:24.308934,-21.0
2023-08-10 11:41:24.316624,-21.0
2023-08-10 11:41:24.324314,-26.0
2023-08-10 11:41:24.332003,-28.0
2023-08-10 11:41:24.339693,-28.0
2023-08-10 11:41:24.347383,-35.0
2023-08-10 11:41:24.355072,-35.0
2023-08-10 11:41:24.362762,-23.0
2023-08-10 11:41:24.370452,-28.0
2023-08-10 11:41:24.378142,-45.0
2023-08-10 11:41:24.385831,-52.0
2023-08-10 11:41:24.393521,-55.0
2023-08-10 11:41:24.401211,-50.0
2023-08-10 11:41:24.408900,-43.0
2023-08-10 11:41:24.416590,-52.0
2023-08-10 11:41:24.424280,-64.0
2023-08-10 11:41:24.431970,-55.0
2023-08-10 11:41:24.439659,-43.0
2023-08-10 11:41:24.447349,-33.0
2023-08-10 11:41:24.455039,-28.0
2023-08-10 11:41:24.462728,-33.0
2023-08-10 11:41:24.470418,-38.0
2023-08-10 11:41:24.478108,-38.0
2023-08-10 11:41:24.485798,-43.0
2023-08-10 11:41:24.493487,-45.0
2023-08-10 11:41:24.501177,-40.0
2023-08-10 11:41:24.508867,-59.0
2023-08-10 11:41:24.516556,-179.0
2023-08-10 11:41:24.524246,-397.0
2023-08-10 11:41:24.531936,-612.0
2023-08-10 11:41:24.539625,-720.0
2023-08-10 11:41:24.547315,-545.0
2023-08-10 11:41:24.555005,-129.0
2023-08-10 11:41:24.562695,105.0
2023-08-10 11:41:24.570384,19.0
2023-08-10 11:41:24.578074,-59.0
2023-08-10 11:41:24.585764,-7.0
2023-08-10 11:41:24.593453,11.0
2023-08-10 11:41:24.601143,-19.0
2023-08-10 11:41:24.608833,-11.0
2023-08-10 11:41:24.616523,0.0
2023-08-10 11:41:24.624212,-16.0
2023-08-10 11:41:24.631902,-23.0
2023-08-10 11:41:24.639592,-23.0
2023-08-10 11:41:24.647281,-26.0
2023-08-10 11:41:24.654971,-33.0
2023-08-10 11:41:24.662661,-43.0
2023-08-10 11:41:24.670351,-52.0
2023-08-10 11:41:24.678040,-55.0
2023-08-10 11:41:24.685730,-62.0
2023-08-10 11:41:24.693420,-74.0
2023-08-10 11:41:24.701109,-81.0
2023-08-10 11:41:24.708799,-93.0
2023-08-10 11:41:24.716489,-102.0
2023-08-10 11:41:24.724179,-112.0
2023-08-10 11:41:24.731868,-129.0
2023-08-10 11:41:24.739558,-143.0
2023-08-10 11:41:24.747248,-157.0
2023-08-10 11:41:24.754937,-172.0
2023-08-10 11:41:24.762627,-191.0
2023-08-10 11:41:24.770317,-210.0
2023-08-10 11:41:24.778007,-236.0
2023-08-10 11:41:24.785696,-258.0
2023-08-10 11:41:24.793386,-265.0
2023-08-10 11:41:24.801076,-267.0
2023-08-10 11:41:24.808765,-270.0
2023-08-10 11:41:24.816455,-246.0
2023-08-10 11:41:24.824145,-196.0
2023-08-10 11:41:24.831835,-141.0
2023-08-10 11:41:24.839524,-86.0
2023-08-10 11:41:24.847214,-28.0
2023-08-10 11:41:24.854904,11.0
2023-08-10 11:41:24.862593,31.0
2023-08-10 11:41:24.870283,35.0
2023-08-10 11:41:24.877973,43.0
2023-08-10 11:41:24.885663,50.0
2023-08-10 11:41:24.893352,47.0
2023-08-10 11:41:24.901042,47.0
2023-08-10 11:41:24.908732,50.0
2023-08-10 11:41:24.916421,38.0
2023-08-10 11:41:24.924111,26.0
2023-08-10 11:41:24.931801,33.0
2023-08-10 11:41:24.939491,38.0
2023-08-10 11:41:24.947180,31.0
2023-08-10 11:41:24.954870,23.0
2023-08-10 11:41:24.962560,19.0
2023-08-10 11:41:24.970249,19.0
2023-08-10 11:41:24.977939,19.0
2023-08-10 11:41:24.985629,19.0
2023-08-10 11:41:24.993319,19.0
2023-08-10 11:41:25.001008,14.0
2023-08-10 11:41:25.008698,9.0
2023-08-10 11:41:25.016388,9.0
2023-08-10 11:41:25.024077,2.0
2023-08-10 11:41:25.031767,0.0
2023-08-10 11:41:25.039457,4.0
2023-08-10 11:41:25.047147,4.0
2023-08-10 11:41:25.054836,-2.0
2023-08-10 11:41:25.062526,-4.0
2023-08-10 11:41:25.070216,-2.0
2023-08-10 11:41:25.077905,-2.0
2023-08-10 11:41:25.085595,-7.0
2023-08-10 11:41:25.093285,-7.0
2023-08-10 11:41:25.100975,-4.0
2023-08-10 11:41:25.108664,-7.0
2023-08-10 11:41:25.116354,-9.0
2023-08-10 11:41:25.124044,-11.0
2023-08-10 11:41:25.131733,-9.0
2023-08-10 11:41:25.139423,-9.0
2023-08-10 11:41:25.147113,-14.0
2023-08-10 11:41:25.154803,-14.0
2023-08-10 11:41:25.162492,-14.0
2023-08-10 11:41:25.170182,-16.0
2023-08-10 11:41:25.177872,-19.0
2023-08-10 11:41:25.185561,-16.0
2023-08-10 11:41:25.193251,-19.0
2023-08-10 11:41:25.200941,-21.0
2023-08-10 11:41:25.208630,-23.0
2023-08-10 11:41:25.216320,-23.0
2023-08-10 11:41:25.224010,-21.0
2023-08-10 11:41:25.231700,-23.0
2023-08-10 11:41:25.239389,-26.0
2023-08-10 11:41:25.247079,-21.0
2023-08-10 11:41:25.254769,-21.0
2023-08-10 11:41:25.262458,-28.0
2023-08-10 11:41:25.270148,-28.0
2023-08-10 11:41:25.277838,-33.0
2023-08-10 11:41:25.285528,-40.0
2023-08-10 11:41:25.293217,-45.0
2023-08-10 11:41:25.300907,-47.0
2023-08-10 11:41:25.308597,-57.0
2023-08-10 11:41:25.316286,-71.0
2023-08-10 11:41:25.323976,-66.0
2023-08-10 11:41:25.331666,-57.0
2023-08-10 11:41:25.339356,-62.0
2023-08-10 11:41:25.347045,-59.0
2023-08-10 11:41:25.354735,-50.0
2023-08-10 11:41:25.362425,-45.0
2023-08-10 11:41:25.370114,-35.0
2023-08-10 11:41:25.377804,-26.0
2023-08-10 11:41:25.385494,-31.0
2023-08-10 11:41:25.393184,-31.0
2023-08-10 11:41:25.400873,-31.0
2023-08-10 11:41:25.408563,-35.0
2023-08-10 11:41:25.416253,-35.0
2023-08-10 11:41:25.423942,-31.0
2023-08-10 11:41:25.431632,-47.0
2023-08-10 11:41:25.439322,-162.0
2023-08-10 11:41:25.447012,-401.0
2023-08-10 11:41:25.454701,-631.0
2023-08-10 11:41:25.462391,-715.0
2023-08-10 11:41:25.470081,-540.0
2023-08-10 11:41:25.477770,-150.0
2023-08-10 11:41:25.485460,95.0
2023-08-10 11:41:25.493150,43.0
2023-08-10 11:41:25.500840,-47.0
2023-08-10 11:41:25.508529,-28.0
2023-08-10 11:41:25.516219,-9.0
2023-08-10 11:41:25.523909,-31.0
2023-08-10 11:41:25.531598,-33.0
2023-08-10 11:41:25.539288,-26.0
2023-08-10 11:41:25.546978,-33.0
2023-08-10 11:41:25.554668,-43.0
2023-08-10 11:41:25.562357,-47.0
2023-08-10 11:41:25.570047,-50.0
2023-08-10 11:41:25.577737,-52.0
2023-08-10 11:41:25.585426,-59.0
2023-08-10 11:41:25.593116,-66.0
2023-08-10 11:41:25.600806,-71.0
2023-08-10 11:41:25.608496,-81.0
2023-08-10 11:41:25.616185,-88.0
2023-08-10 11:41:25.623875,-95.0
2023-08-10 11:41:25.631565,-102.0
2023-08-10 11:41:25.639254,-112.0
2023-08-10 11:41:25.646944,-122.0
2023-08-10 11:41:25.654634,-131.0
2023-08-10 11:41:25.662324,-145.0
2023-08-10 11:41:25.670013,-165.0
2023-08-10 11:41:25.677703,-181.0
2023-08-10 11:41:25.685393,-200.0
2023-08-10 11:41:25.693082,-220.0
2023-08-10 11:41:25.700772,-236.0
2023-08-10 11:41:25.708462,-248.0
2023-08-10 11:41:25.716152,-263.0
2023-08-10 11:41:25.723841,-272.0
2023-08-10 11:41:25.731531,-267.0
2023-08-10 11:41:25.739221,-236.0
2023-08-10 11:41:25.746910,-184.0
2023-08-10 11:41:25.754600,-119.0
2023-08-10 11:41:25.762290,-59.0
2023-08-10 11:41:25.769980,-19.0
2023-08-10 11:41:25.777669,14.0
2023-08-10 11:41:25.785359,43.0
2023-08-10 11:41:25.793049,52.0
2023-08-10 11:41:25.800738,55.0
2023-08-10 11:41:25.808428,57.0
2023-08-10 11:41:25.816118,59.0
2023-08-10 11:41:25.823808,57.0
2023-08-10 11:41:25.831497,57.0
2023-08-10 11:41:25.839187,55.0
2023-08-10 11:41:25.846877,47.0
2023-08-10 11:41:25.854566,45.0
2023-08-10 11:41:25.862256,45.0
2023-08-10 11:41:25.869946,45.0
2023-08-10 11:41:25.877636,45.0
2023-08-10 11:41:25.885325,38.0
2023-08-10 11:41:25.893015,31.0
2023-08-10 11:41:25.900705,31.0
2023-08-10 11:41:25.908394,31.0
2023-08-10 11:41:25.916084,28.0
2023-08-10 11:41:25.923774,26.0
2023-08-10 11:41:25.931463,23.0
2023-08-10 11:41:25.939153,21.0
2023-08-10 11:41:25.946843,21.0
2023-08-10 11:41:25.954533,21.0
2023-08-10 11:41:25.962222,19.0
2023-08-10 11:41:25.969912,19.0
2023-08-10 11:41:25.977602,19.0
2023-08-10 11:41:25.985291,11.0
2023-08-10 11:41:25.992981,4.0
2023-08-10 11:41:26.000671,0.0
2023-08-10 11:41:26.008361,-2.0
2023-08-10 11:41:26.016050,-4.0
2023-08-10 11:41:26.023740,-4.0
2023-08-10 11:41:26.031430,-4.0
2023-08-10 11:41:26.039119,-4.0
2023-08-10 11:41:26.046809,-7.0
2023-08-10 11:41:26.054499,-7.0
2023-08-10 11:41:26.062189,-7.0
2023-08-10 11:41:26.069878,-7.0
2023-08-10 11:41:26.077568,-7.0
2023-08-10 11:41:26.085258,-11.0
2023-08-10 11:41:26.092947,-14.0
2023-08-10 11:41:26.100637,-11.0
2023-08-10 11:41:26.108327,-9.0
2023-08-10 11:41:26.116017,-9.0
2023-08-10 11:41:26.123706,-14.0
2023-08-10 11:41:26.131396,-14.0
2023-08-10 11:41:26.139086,-11.0
2023-08-10 11:41:26.146775,-14.0
2023-08-10 11:41:26.154465,-16.0
2023-08-10 11:41:26.162155,-16.0
2023-08-10 11:41:26.169845,-19.0
2023-08-10 11:41:26.177534,-21.0
2023-08-10 11:41:26.185224,-21.0
2023-08-10 11:41:26.192914,-28.0
2023-08-10 11:41:26.200603,-23.0
2023-08-10 11:41:26.208293,-7.0
2023-08-10 11:41:26.215983,-9.0
2023-08-10 11:41:26.223673,-21.0
2023-08-10 11:41:26.231362,-19.0
2023-08-10 11:41:26.239052,-16.0
2023-08-10 11:41:26.246742,-21.0
2023-08-10 11:41:26.254431,-21.0
2023-08-10 11:41:26.262121,-23.0
2023-08-10 11:41:26.269811,-26.0
2023-08-10 11:41:26.277501,-33.0
2023-08-10 11:41:26.285190,-45.0
2023-08-10 11:41:26.292880,-59.0
2023-08-10 11:41:26.300570,-64.0
2023-08-10 11:41:26.308259,-52.0
2023-08-10 11:41:26.315949,-47.0
2023-08-10 11:41:26.323639,-50.0
2023-08-10 11:41:26.331329,-38.0
2023-08-10 11:41:26.339018,-19.0
2023-08-10 11:41:26.346708,-19.0
2023-08-10 11:41:26.354398,-26.0
2023-08-10 11:41:26.362087,-26.0
2023-08-10 11:41:26.369777,-23.0
2023-08-10 11:41:26.377467,-28.0
2023-08-10 11:41:26.385157,-28.0
2023-08-10 11:41:26.392846,-23.0
2023-08-10 11:41:26.400536,-19.0
2023-08-10 11:41:26.408226,-50.0
2023-08-10 11:41:26.415915,-200.0
2023-08-10 11:41:26.423605,-437.0
2023-08-10 11:41:26.431295,-636.0
2023-08-10 11:41:26.438985,-691.0
2023-08-10 11:41:26.446674,-454.0
2023-08-10 11:41:26.454364,-38.0
2023-08-10 11:41:26.462054,133.0
2023-08-10 11:41:26.469743,23.0
2023-08-10 11:41:26.477433,-23.0
2023-08-10 11:41:26.485123,31.0
2023-08-10 11:41:26.492813,28.0
2023-08-10 11:41:26.500502,0.0
2023-08-10 11:41:26.508192,2.0
2023-08-10 11:41:26.515882,0.0
2023-08-10 11:41:26.523571,-11.0
2023-08-10 11:41:26.531261,-9.0
2023-08-10 11:41:26.538951,-4.0
2023-08-10 11:41:26.546641,-19.0
2023-08-10 11:41:26.554330,-26.0
2023-08-10 11:41:26.562020,-28.0
2023-08-10 11:41:26.569710,-43.0
2023-08-10 11:41:26.577399,-62.0
2023-08-10 11:41:26.585089,-74.0
2023-08-10 11:41:26.592779,-83.0
2023-08-10 11:41:26.600468,-93.0
2023-08-10 11:41:26.608158,-102.0
2023-08-10 11:41:26.615848,-112.0
2023-08-10 11:41:26.623538,-122.0
2023-08-10 11:41:26.631227,-141.0
2023-08-10 11:41:26.638917,-160.0
2023-08-10 11:41:26.646607,-172.0
2023-08-10 11:41:26.654296,-184.0
2023-08-10 11:41:26.661986,-208.0
2023-08-10 11:41:26.669676,-229.0
2023-08-10 11:41:26.677366,-244.0
2023-08-10 11:41:26.685055,-256.0
2023-08-10 11:41:26.692745,-267.0
2023-08-10 11:41:26.700435,-267.0
2023-08-10 11:41:26.708124,-258.0
2023-08-10 11:41:26.715814,-232.0
2023-08-10 11:41:26.723504,-179.0
2023-08-10 11:41:26.731194,-114.0
2023-08-10 11:41:26.738883,-66.0
2023-08-10 11:41:26.746573,-21.0
2023-08-10 11:41:26.754263,21.0
2023-08-10 11:41:26.761952,38.0
2023-08-10 11:41:26.769642,43.0
2023-08-10 11:41:26.777332,52.0
2023-08-10 11:41:26.785022,62.0
2023-08-10 11:41:26.792711,66.0
2023-08-10 11:41:26.800401,62.0
2023-08-10 11:41:26.808091,50.0
2023-08-10 11:41:26.815780,43.0
2023-08-10 11:41:26.823470,43.0
2023-08-10 11:41:26.831160,45.0
2023-08-10 11:41:26.838850,40.0
2023-08-10 11:41:26.846539,35.0
2023-08-10 11:41:26.854229,38.0
2023-08-10 11:41:26.861919,33.0
2023-08-10 11:41:26.869608,26.0
2023-08-10 11:41:26.877298,28.0
2023-08-10 11:41:26.884988,26.0
2023-08-10 11:41:26.892678,19.0
2023-08-10 11:41:26.900367,21.0
2023-08-10 11:41:26.908057,23.0
2023-08-10 11:41:26.915747,14.0
2023-08-10 11:41:26.923436,9.0
2023-08-10 11:41:26.931126,14.0
2023-08-10 11:41:26.938816,9.0
2023-08-10 11:41:26.946506,2.0
2023-08-10 11:41:26.954195,11.0
2023-08-10 11:41:26.961885,16.0
2023-08-10 11:41:26.969575,7.0
2023-08-10 11:41:26.977264,0.0
2023-08-10 11:41:26.984954,4.0
2023-08-10 11:41:26.992644,4.0
2023-08-10 11:41:27.000334,0.0
2023-08-10 11:41:27.008023,-2.0
2023-08-10 11:41:27.015713,0.0
2023-08-10 11:41:27.023403,-7.0
2023-08-10 11:41:27.031092,-9.0
2023-08-10 11:41:27.038782,-7.0
2023-08-10 11:41:27.046472,-4.0
2023-08-10 11:41:27.054162,-2.0
2023-08-10 11:41:27.061851,-9.0
2023-08-10 11:41:27.069541,-16.0
2023-08-10 11:41:27.077231,-11.0
2023-08-10 11:41:27.084920,-2.0
2023-08-10 11:41:27.092610,-9.0
2023-08-10 11:41:27.100300,-21.0
2023-08-10 11:41:27.107990,-14.0
2023-08-10 11:41:27.115679,-11.0
2023-08-10 11:41:27.123369,-26.0
2023-08-10 11:41:27.131059,-33.0
2023-08-10 11:41:27.138748,-28.0
2023-08-10 11:41:27.146438,-33.0
2023-08-10 11:41:27.154128,-38.0
2023-08-10 11:41:27.161818,-28.0
2023-08-10 11:41:27.169507,-23.0
2023-08-10 11:41:27.177197,-33.0
2023-08-10 11:41:27.184887,-33.0
2023-08-10 11:41:27.192576,-26.0
2023-08-10 11:41:27.200266,-26.0
2023-08-10 11:41:27.207956,-28.0
2023-08-10 11:41:27.215646,-28.0
2023-08-10 11:41:27.223335,-33.0
2023-08-10 11:41:27.231025,-38.0
2023-08-10 11:41:27.238715,-31.0
2023-08-10 11:41:27.246404,-26.0
2023-08-10 11:41:27.254094,-33.0
2023-08-10 11:41:27.261784,-38.0
2023-08-10 11:41:27.269474,-40.0
2023-08-10 11:41:27.277163,-55.0
2023-08-10 11:41:27.284853,-66.0
2023-08-10 11:41:27.292543,-64.0
2023-08-10 11:41:27.300232,-59.0
2023-08-10 11:41:27.307922,-64.0
2023-08-10 11:41:27.315612,-62.0
2023-08-10 11:41:27.323301,-38.0
2023-08-10 11:41:27.330991,-23.0
2023-08-10 11:41:27.338681,-33.0
2023-08-10 11:41:27.346371,-35.0
2023-08-10 11:41:27.354060,-31.0
2023-08-10 11:41:27.361750,-31.0
2023-08-10 11:41:27.369440,-33.0
2023-08-10 11:41:27.377129,-35.0
2023-08-10 11:41:27.384819,-33.0
2023-08-10 11:41:27.392509,-31.0
2023-08-10 11:41:27.400199,-55.0
2023-08-10 11:41:27.407888,-179.0
2023-08-10 11:41:27.415578,-399.0
2023-08-10 11:41:27.423268,-612.0
2023-08-10 11:41:27.430957,-698.0
2023-08-10 11:41:27.438647,-514.0
2023-08-10 11:41:27.446337,-107.0
2023-08-10 11:41:27.454027,119.0
2023-08-10 11:41:27.461716,33.0
2023-08-10 11:41:27.469406,-52.0
2023-08-10 11:41:27.477096,-9.0
2023-08-10 11:41:27.484785,14.0
2023-08-10 11:41:27.492475,-16.0
2023-08-10 11:41:27.500165,-14.0
2023-08-10 11:41:27.507855,-7.0
2023-08-10 11:41:27.515544,-26.0
2023-08-10 11:41:27.523234,-31.0
2023-08-10 11:41:27.530924,-26.0
2023-08-10 11:41:27.538613,-35.0
2023-08-10 11:41:27.546303,-43.0
2023-08-10 11:41:27.553993,-43.0
2023-08-10 11:41:27.561683,-47.0
2023-08-10 11:41:27.569372,-64.0
2023-08-10 11:41:27.577062,-76.0
2023-08-10 11:41:27.584752,-90.0
2023-08-10 11:41:27.592441,-100.0
2023-08-10 11:41:27.600131,-100.0
2023-08-10 11:41:27.607821,-105.0
2023-08-10 11:41:27.615511,-122.0
2023-08-10 11:41:27.623200,-119.0
2023-08-10 11:41:27.630890,-126.0
2023-08-10 11:41:27.638580,-160.0
2023-08-10 11:41:27.646269,-184.0
2023-08-10 11:41:27.653959,-203.0
2023-08-10 11:41:27.661649,-229.0
2023-08-10 11:41:27.669339,-244.0
2023-08-10 11:41:27.677028,-260.0
2023-08-10 11:41:27.684718,-277.0
2023-08-10 11:41:27.692408,-279.0
2023-08-10 11:41:27.700097,-272.0
2023-08-10 11:41:27.707787,-256.0
2023-08-10 11:41:27.715477,-203.0
2023-08-10 11:41:27.723167,-136.0
2023-08-10 11:41:27.730856,-83.0
2023-08-10 11:41:27.738546,-38.0
2023-08-10 11:41:27.746236,-2.0
2023-08-10 11:41:27.753925,21.0
2023-08-10 11:41:27.761615,43.0
2023-08-10 11:41:27.769305,52.0
2023-08-10 11:41:27.776995,50.0
2023-08-10 11:41:27.784684,55.0
2023-08-10 11:41:27.792374,57.0
2023-08-10 11:41:27.800064,45.0
2023-08-10 11:41:27.807753,38.0
2023-08-10 11:41:27.815443,35.0
2023-08-10 11:41:27.823133,33.0
2023-08-10 11:41:27.830823,31.0
2023-08-10 11:41:27.838512,23.0
2023-08-10 11:41:27.846202,26.0
2023-08-10 11:41:27.853892,28.0
2023-08-10 11:41:27.861581,26.0
2023-08-10 11:41:27.869271,21.0
2023-08-10 11:41:27.876961,16.0
2023-08-10 11:41:27.884651,11.0
2023-08-10 11:41:27.892340,14.0
2023-08-10 11:41:27.900030,19.0
2023-08-10 11:41:27.907720,9.0
2023-08-10 11:41:27.915409,4.0
2023-08-10 11:41:27.923099,16.0
2023-08-10 11:41:27.930789,11.0
2023-08-10 11:41:27.938479,-2.0
2023-08-10 11:41:27.946168,4.0
2023-08-10 11:41:27.953858,11.0
2023-08-10 11:41:27.961548,4.0
2023-08-10 11:41:27.969237,-4.0
2023-08-10 11:41:27.976927,2.0
2023-08-10 11:41:27.984617,14.0
2023-08-10 11:41:27.992306,9.0
2023-08-10 11:41:27.999996,-2.0
2023-08-10 11:41:28.007686,-7.0
2023-08-10 11:41:28.015376,-7.0
2023-08-10 11:41:28.023065,-4.0
2023-08-10 11:41:28.030755,2.0
2023-08-10 11:41:28.038445,2.0
2023-08-10 11:41:28.046134,-7.0
2023-08-10 11:41:28.053824,-4.0
2023-08-10 11:41:28.061514,0.0
2023-08-10 11:41:28.069204,-7.0
2023-08-10 11:41:28.076893,-4.0
2023-08-10 11:41:28.084583,0.0
2023-08-10 11:41:28.092273,-2.0
2023-08-10 11:41:28.099962,-7.0
2023-08-10 11:41:28.107652,-7.0
2023-08-10 11:41:28.115342,-7.0
2023-08-10 11:41:28.123032,-11.0
2023-08-10 11:41:28.130721,-16.0
2023-08-10 11:41:28.138411,-14.0
2023-08-10 11:41:28.146101,-19.0
2023-08-10 11:41:28.153790,-33.0
2023-08-10 11:41:28.161480,-45.0
2023-08-10 11:41:28.169170,-40.0
2023-08-10 11:41:28.176860,-40.0
2023-08-10 11:41:28.184549,-40.0
2023-08-10 11:41:28.192239,-38.0
2023-08-10 11:41:28.199929,-43.0
2023-08-10 11:41:28.207618,-38.0
2023-08-10 11:41:28.215308,-19.0
2023-08-10 11:41:28.222998,-21.0
2023-08-10 11:41:28.230688,-31.0
2023-08-10 11:41:28.238377,-31.0
2023-08-10 11:41:28.246067,-35.0
2023-08-10 11:41:28.253757,-40.0
2023-08-10 11:41:28.261446,-33.0
2023-08-10 11:41:28.269136,-26.0
2023-08-10 11:41:28.276826,-40.0
2023-08-10 11:41:28.284516,-136.0
2023-08-10 11:41:28.292205,-354.0
2023-08-10 11:41:28.299895,-583.0
2023-08-10 11:41:28.307585,-698.0
2023-08-10 11:41:28.315274,-567.0
2023-08-10 11:41:28.322964,-191.0
2023-08-10 11:41:28.330654,90.0
2023-08-10 11:41:28.338344,69.0
2023-08-10 11:41:28.346033,-31.0
2023-08-10 11:41:28.353723,-21.0
2023-08-10 11:41:28.361413,9.0
2023-08-10 11:41:28.369102,-4.0
2023-08-10 11:41:28.376792,-9.0
2023-08-10 11:41:28.384482,-4.0
2023-08-10 11:41:28.392172,-16.0
2023-08-10 11:41:28.399861,-26.0
2023-08-10 11:41:28.407551,-21.0
2023-08-10 11:41:28.415241,-21.0
2023-08-10 11:41:28.422930,-33.0
2023-08-10 11:41:28.430620,-45.0
2023-08-10 11:41:28.438310,-52.0
2023-08-10 11:41:28.446000,-59.0
2023-08-10 11:41:28.453689,-64.0
2023-08-10 11:41:28.461379,-69.0
2023-08-10 11:41:28.469069,-83.0
2023-08-10 11:41:28.476758,-102.0
2023-08-10 11:41:28.484448,-110.0
2023-08-10 11:41:28.492138,-117.0
2023-08-10 11:41:28.499828,-138.0
2023-08-10 11:41:28.507517,-157.0
2023-08-10 11:41:28.515207,-169.0
2023-08-10 11:41:28.522897,-186.0
2023-08-10 11:41:28.530586,-205.0
2023-08-10 11:41:28.538276,-224.0
2023-08-10 11:41:28.545966,-244.0
2023-08-10 11:41:28.553656,-265.0
2023-08-10 11:41:28.561345,-279.0
2023-08-10 11:41:28.569035,-284.0
2023-08-10 11:41:28.576725,-275.0
2023-08-10 11:41:28.584414,-239.0
2023-08-10 11:41:28.592104,-184.0
2023-08-10 11:41:28.599794,-124.0
2023-08-10 11:41:28.607484,-74.0
2023-08-10 11:41:28.615173,-23.0
2023-08-10 11:41:28.622863,21.0
2023-08-10 11:41:28.630553,45.0
2023-08-10 11:41:28.638242,55.0
2023-08-10 11:41:28.645932,62.0
2023-08-10 11:41:28.653622,62.0
2023-08-10 11:41:28.661312,57.0
2023-08-10 11:41:28.669001,55.0
2023-08-10 11:41:28.676691,52.0
2023-08-10 11:41:28.684381,50.0
2023-08-10 11:41:28.692070,43.0
2023-08-10 11:41:28.699760,33.0
2023-08-10 11:41:28.707450,35.0
2023-08-10 11:41:28.715139,40.0
2023-08-10 11:41:28.722829,40.0
2023-08-10 11:41:28.730519,33.0
2023-08-10 11:41:28.738209,28.0
2023-08-10 11:41:28.745898,26.0
2023-08-10 11:41:28.753588,26.0
2023-08-10 11:41:28.761278,26.0
2023-08-10 11:41:28.768967,21.0
2023-08-10 11:41:28.776657,19.0
2023-08-10 11:41:28.784347,16.0
2023-08-10 11:41:28.792037,14.0
2023-08-10 11:41:28.799726,7.0
2023-08-10 11:41:28.807416,-2.0
2023-08-10 11:41:28.815106,-2.0
2023-08-10 11:41:28.822795,4.0
2023-08-10 11:41:28.830485,2.0
2023-08-10 11:41:28.838175,-11.0
2023-08-10 11:41:28.845865,-11.0
2023-08-10 11:41:28.853554,-7.0
2023-08-10 11:41:28.861244,-11.0
2023-08-10 11:41:28.868934,-14.0
2023-08-10 11:41:28.876623,-14.0
2023-08-10 11:41:28.884313,-14.0
2023-08-10 11:41:28.892003,-16.0
2023-08-10 11:41:28.899693,-21.0
2023-08-10 11:41:28.907382,-21.0
2023-08-10 11:41:28.915072,-19.0
2023-08-10 11:41:28.922762,-16.0
2023-08-10 11:41:28.930451,-16.0
2023-08-10 11:41:28.938141,-19.0
2023-08-10 11:41:28.945831,-16.0
2023-08-10 11:41:28.953521,-14.0
2023-08-10 11:41:28.961210,-19.0
2023-08-10 11:41:28.968900,-23.0
2023-08-10 11:41:28.976590,-16.0
2023-08-10 11:41:28.984279,-11.0
2023-08-10 11:41:28.991969,-21.0
2023-08-10 11:41:28.999659,-28.0
2023-08-10 11:41:29.007349,-28.0
2023-08-10 11:41:29.015038,-23.0
2023-08-10 11:41:29.022728,-14.0
2023-08-10 11:41:29.030418,-19.0
2023-08-10 11:41:29.038107,-23.0
2023-08-10 11:41:29.045797,-23.0
2023-08-10 11:41:29.053487,-23.0
2023-08-10 11:41:29.061177,-21.0
2023-08-10 11:41:29.068866,-19.0
2023-08-10 11:41:29.076556,-21.0
2023-08-10 11:41:29.084246,-21.0
2023-08-10 11:41:29.091935,-23.0
2023-08-10 11:41:29.099625,-26.0
2023-08-10 11:41:29.107315,-21.0
2023-08-10 11:41:29.115005,-21.0
2023-08-10 11:41:29.122694,-26.0
2023-08-10 11:41:29.130384,-28.0
2023-08-10 11:41:29.138074,-40.0
2023-08-10 11:41:29.145763,-62.0
2023-08-10 11:41:29.153453,-59.0
2023-08-10 11:41:29.161143,-38.0
2023-08-10 11:41:29.168833,-40.0
2023-08-10 11:41:29.176522,-55.0
2023-08-10 11:41:29.184212,-50.0
2023-08-10 11:41:29.191902,-33.0
2023-08-10 11:41:29.199591,-19.0
2023-08-10 11:41:29.207281,-16.0
2023-08-10 11:41:29.214971,-23.0
2023-08-10 11:41:29.222661,-26.0
2023-08-10 11:41:29.230350,-23.0
2023-08-10 11:41:29.238040,-23.0
2023-08-10 11:41:29.245730,-28.0
2023-08-10 11:41:29.253419,-26.0
2023-08-10 11:41:29.261109,-21.0
2023-08-10 11:41:29.268799,-71.0
2023-08-10 11:41:29.276489,-248.0
2023-08-10 11:41:29.284178,-490.0
2023-08-10 11:41:29.291868,-672.0
2023-08-10 11:41:29.299558,-684.0
2023-08-10 11:41:29.307247,-382.0
2023-08-10 11:41:29.314937,33.0
2023-08-10 11:41:29.322627,122.0
2023-08-10 11:41:29.330317,-21.0
2023-08-10 11:41:29.338006,-35.0
2023-08-10 11:41:29.345696,26.0
2023-08-10 11:41:29.353386,9.0
2023-08-10 11:41:29.361075,-11.0
2023-08-10 11:41:29.368765,-2.0
2023-08-10 11:41:29.376455,-11.0
2023-08-10 11:41:29.384144,-26.0
2023-08-10 11:41:29.391834,-28.0
2023-08-10 11:41:29.399524,-33.0
2023-08-10 11:41:29.407214,-43.0
2023-08-10 11:41:29.414903,-57.0
2023-08-10 11:41:29.422593,-69.0
2023-08-10 11:41:29.430283,-74.0
2023-08-10 11:41:29.437972,-78.0
2023-08-10 11:41:29.445662,-93.0
2023-08-10 11:41:29.453352,-107.0
2023-08-10 11:41:29.461042,-114.0
2023-08-10 11:41:29.468731,-119.0
2023-08-10 11:41:29.476421,-129.0
2023-08-10 11:41:29.484111,-141.0
2023-08-10 11:41:29.491800,-150.0
2023-08-10 11:41:29.499490,-169.0
2023-08-10 11:41:29.507180,-189.0
2023-08-10 11:41:29.514870,-203.0
2023-08-10 11:41:29.522559,-217.0
2023-08-10 11:41:29.530249,-241.0
2023-08-10 11:41:29.537939,-258.0
2023-08-10 11:41:29.545628,-270.0
2023-08-10 11:41:29.553318,-279.0
2023-08-10 11:41:29.561008,-279.0
2023-08-10 11:41:29.568698,-265.0
2023-08-10 11:41:29.576387,-232.0
2023-08-10 11:41:29.584077,-177.0
2023-08-10 11:41:29.591767,-114.0
2023-08-10 11:41:29.599456,-57.0
2023-08-10 11:41:29.607146,-4.0
2023-08-10 11:41:29.614836,28.0
2023-08-10 11:41:29.622526,45.0
2023-08-10 11:41:29.630215,52.0
2023-08-10 11:41:29.637905,55.0
2023-08-10 11:41:29.645595,55.0
2023-08-10 11:41:29.653284,57.0
2023-08-10 11:41:29.660974,59.0
2023-08-10 11:41:29.668664,57.0
2023-08-10 11:41:29.676354,50.0
2023-08-10 11:41:29.684043,40.0
2023-08-10 11:41:29.691733,43.0
2023-08-10 11:41:29.699423,40.0
2023-08-10 11:41:29.707112,31.0
2023-08-10 11:41:29.714802,26.0
2023-08-10 11:41:29.722492,28.0
2023-08-10 11:41:29.730182,28.0
2023-08-10 11:41:29.737871,23.0
2023-08-10 11:41:29.745561,14.0
2023-08-10 11:41:29.753251,16.0
2023-08-10 11:41:29.760940,31.0
2023-08-10 11:41:29.768630,26.0
2023-08-10 11:41:29.776320,11.0
2023-08-10 11:41:29.784010,11.0
2023-08-10 11:41:29.791699,16.0
2023-08-10 11:41:29.799389,11.0
2023-08-10 11:41:29.807079,9.0
2023-08-10 11:41:29.814768,7.0
2023-08-10 11:41:29.822458,7.0
2023-08-10 11:41:29.830148,-2.0
2023-08-10 11:41:29.837838,-11.0
2023-08-10 11:41:29.845527,-7.0
2023-08-10 11:41:29.853217,4.0
2023-08-10 11:41:29.860907,-2.0
2023-08-10 11:41:29.868596,-9.0
2023-08-10 11:41:29.876286,2.0
2023-08-10 11:41:29.883976,2.0
2023-08-10 11:41:29.891666,-11.0
2023-08-10 11:41:29.899355,-16.0
2023-08-10 11:41:29.907045,-11.0
2023-08-10 11:41:29.914735,-11.0
2023-08-10 11:41:29.922424,-23.0
2023-08-10 11:41:29.930114,-26.0
2023-08-10 11:41:29.937804,-21.0
2023-08-10 11:41:29.945494,-26.0
2023-08-10 11:41:29.953183,-33.0
2023-08-10 11:41:29.960873,-31.0
2023-08-10 11:41:29.968563,-26.0
2023-08-10 11:41:29.976252,-31.0
2023-08-10 11:41:29.983942,-31.0
2023-08-10 11:41:29.991632,-28.0
2023-08-10 11:41:29.999322,-33.0
2023-08-10 11:41:30.007011,-40.0
2023-08-10 11:41:30.014701,-35.0
2023-08-10 11:41:30.022391,-23.0
2023-08-10 11:41:30.030080,-19.0
2023-08-10 11:41:30.037770,-26.0
2023-08-10 11:41:30.045460,-28.0
2023-08-10 11:41:30.053150,-28.0
2023-08-10 11:41:30.060839,-35.0
2023-08-10 11:41:30.068529,-33.0
2023-08-10 11:41:30.076219,-28.0
2023-08-10 11:41:30.083908,-33.0
2023-08-10 11:41:30.091598,-38.0
2023-08-10 11:41:30.099288,-35.0
2023-08-10 11:41:30.106977,-31.0
2023-08-10 11:41:30.114667,-33.0
2023-08-10 11:41:30.122357,-35.0
2023-08-10 11:41:30.130047,-33.0
2023-08-10 11:41:30.137736,-33.0
2023-08-10 11:41:30.145426,-35.0
2023-08-10 11:41:30.153116,-35.0
2023-08-10 11:41:30.160805,-35.0
2023-08-10 11:41:30.168495,-38.0
2023-08-10 11:41:30.176185,-33.0
2023-08-10 11:41:30.183875,-38.0
2023-08-10 11:41:30.191564,-59.0
2023-08-10 11:41:30.199254,-74.0
2023-08-10 11:41:30.206944,-64.0
2023-08-10 11:41:30.214633,-59.0
2023-08-10 11:41:30.222323,-62.0
2023-08-10 11:41:30.230013,-59.0
2023-08-10 11:41:30.237703,-50.0
2023-08-10 11:41:30.245392,-40.0
2023-08-10 11:41:30.253082,-33.0
2023-08-10 11:41:30.260772,-28.0
2023-08-10 11:41:30.268461,-31.0
2023-08-10 11:41:30.276151,-28.0
2023-08-10 11:41:30.283841,-23.0
2023-08-10 11:41:30.291531,-33.0
2023-08-10 11:41:30.299220,-40.0
2023-08-10 11:41:30.306910,-26.0
2023-08-10 11:41:30.314600,-40.0
2023-08-10 11:41:30.322289,-174.0
2023-08-10 11:41:30.329979,-411.0
2023-08-10 11:41:30.337669,-624.0
2023-08-10 11:41:30.345359,-720.0
2023-08-10 11:41:30.353048,-555.0
2023-08-10 11:41:30.360738,-145.0
2023-08-10 11:41:30.368428,110.0
2023-08-10 11:41:30.376117,35.0
2023-08-10 11:41:30.383807,-59.0
2023-08-10 11:41:30.391497,-16.0
2023-08-10 11:41:30.399187,7.0
2023-08-10 11:41:30.406876,-23.0
2023-08-10 11:41:30.414566,-23.0
2023-08-10 11:41:30.422256,-9.0
2023-08-10 11:41:30.429945,-21.0
2023-08-10 11:41:30.437635,-33.0
2023-08-10 11:41:30.445325,-43.0
2023-08-10 11:41:30.453015,-50.0
2023-08-10 11:41:30.460704,-59.0
2023-08-10 11:41:30.468394,-62.0
2023-08-10 11:41:30.476084,-62.0
2023-08-10 11:41:30.483773,-66.0
2023-08-10 11:41:30.491463,-83.0
2023-08-10 11:41:30.499153,-102.0
2023-08-10 11:41:30.506843,-110.0
2023-08-10 11:41:30.514532,-107.0
2023-08-10 11:41:30.522222,-114.0
2023-08-10 11:41:30.529912,-136.0
2023-08-10 11:41:30.537601,-155.0
2023-08-10 11:41:30.545291,-160.0
2023-08-10 11:41:30.552981,-174.0
2023-08-10 11:41:30.560671,-198.0
2023-08-10 11:41:30.568360,-217.0
2023-08-10 11:41:30.576050,-224.0
2023-08-10 11:41:30.583740,-239.0
2023-08-10 11:41:30.591429,-256.0
2023-08-10 11:41:30.599119,-265.0
2023-08-10 11:41:30.606809,-275.0
2023-08-10 11:41:30.614499,-282.0
2023-08-10 11:41:30.622188,-263.0
2023-08-10 11:41:30.629878,-210.0
2023-08-10 11:41:30.637568,-148.0
2023-08-10 11:41:30.645257,-88.0
2023-08-10 11:41:30.652947,-35.0
2023-08-10 11:41:30.660637,4.0
2023-08-10 11:41:30.668327,31.0
2023-08-10 11:41:30.676016,43.0
2023-08-10 11:41:30.683706,55.0
2023-08-10 11:41:30.691396,66.0
2023-08-10 11:41:30.699085,64.0
2023-08-10 11:41:30.706775,57.0
2023-08-10 11:41:30.714465,55.0
2023-08-10 11:41:30.722155,47.0
2023-08-10 11:41:30.729844,43.0
2023-08-10 11:41:30.737534,45.0
2023-08-10 11:41:30.745224,38.0
2023-08-10 11:41:30.752913,33.0
2023-08-10 11:41:30.760603,40.0
2023-08-10 11:41:30.768293,38.0
2023-08-10 11:41:30.775982,28.0
2023-08-10 11:41:30.783672,26.0
2023-08-10 11:41:30.791362,31.0
2023-08-10 11:41:30.799052,33.0
2023-08-10 11:41:30.806741,28.0
2023-08-10 11:41:30.814431,19.0
2023-08-10 11:41:30.822121,16.0
2023-08-10 11:41:30.829810,11.0
2023-08-10 11:41:30.837500,9.0
2023-08-10 11:41:30.845190,11.0
2023-08-10 11:41:30.852880,7.0
2023-08-10 11:41:30.860569,2.0
2023-08-10 11:41:30.868259,2.0
2023-08-10 11:41:30.875949,2.0
2023-08-10 11:41:30.883638,0.0
2023-08-10 11:41:30.891328,2.0
2023-08-10 11:41:30.899018,0.0
2023-08-10 11:41:30.906708,-4.0
2023-08-10 11:41:30.914397,-4.0
2023-08-10 11:41:30.922087,0.0
2023-08-10 11:41:30.929777,-2.0
2023-08-10 11:41:30.937466,-9.0
2023-08-10 11:41:30.945156,-9.0
2023-08-10 11:41:30.952846,-9.0
2023-08-10 11:41:30.960536,-9.0
2023-08-10 11:41:30.968225,-14.0
2023-08-10 11:41:30.975915,-16.0
2023-08-10 11:41:30.983605,-14.0
2023-08-10 11:41:30.991294,-16.0
2023-08-10 11:41:30.998984,-21.0
2023-08-10 11:41:31.006674,-14.0
2023-08-10 11:41:31.014364,-7.0
2023-08-10 11:41:31.022053,-14.0
2023-08-10 11:41:31.029743,-19.0
2023-08-10 11:41:31.037433,-21.0
2023-08-10 11:41:31.045122,-26.0
2023-08-10 11:41:31.052812,-28.0
2023-08-10 11:41:31.060502,-26.0
2023-08-10 11:41:31.068192,-31.0
2023-08-10 11:41:31.075881,-31.0
2023-08-10 11:41:31.083571,-26.0
2023-08-10 11:41:31.091261,-26.0
2023-08-10 11:41:31.098950,-28.0
2023-08-10 11:41:31.106640,-28.0
2023-08-10 11:41:31.114330,-28.0
2023-08-10 11:41:31.122020,-31.0
2023-08-10 11:41:31.129709,-35.0
2023-08-10 11:41:31.137399,-38.0
2023-08-10 11:41:31.145089,-50.0
2023-08-10 11:41:31.152778,-64.0
2023-08-10 11:41:31.160468,-57.0
2023-08-10 11:41:31.168158,-47.0
2023-08-10 11:41:31.175848,-55.0
2023-08-10 11:41:31.183537,-59.0
2023-08-10 11:41:31.191227,-50.0
2023-08-10 11:41:31.198917,-43.0
2023-08-10 11:41:31.206606,-33.0
2023-08-10 11:41:31.214296,-26.0
2023-08-10 11:41:31.221986,-26.0
2023-08-10 11:41:31.229676,-28.0
2023-08-10 11:41:31.237365,-28.0
2023-08-10 11:41:31.245055,-31.0
2023-08-10 11:41:31.252745,-35.0
2023-08-10 11:41:31.260434,-31.0
2023-08-10 11:41:31.268124,-31.0
2023-08-10 11:41:31.275814,-98.0
2023-08-10 11:41:31.283504,-282.0
2023-08-10 11:41:31.291193,-519.0
2023-08-10 11:41:31.298883,-696.0
2023-08-10 11:41:31.306573,-653.0
2023-08-10 11:41:31.314262,-296.0
2023-08-10 11:41:31.321952,69.0
2023-08-10 11:41:31.329642,98.0
2023-08-10 11:41:31.337332,-31.0
2023-08-10 11:41:31.345021,-28.0
2023-08-10 11:41:31.352711,16.0
2023-08-10 11:41:31.360401,-4.0
2023-08-10 11:41:31.368090,-14.0
2023-08-10 11:41:31.375780,-4.0
2023-08-10 11:41:31.383470,-16.0
2023-08-10 11:41:31.391160,-26.0
2023-08-10 11:41:31.398849,-31.0
2023-08-10 11:41:31.406539,-35.0
2023-08-10 11:41:31.414229,-43.0
2023-08-10 11:41:31.421918,-47.0
2023-08-10 11:41:31.429608,-57.0
2023-08-10 11:41:31.437298,-71.0
2023-08-10 11:41:31.444988,-78.0
2023-08-10 11:41:31.452677,-81.0
2023-08-10 11:41:31.460367,-90.0
2023-08-10 11:41:31.468057,-102.0
2023-08-10 11:41:31.475746,-110.0
2023-08-10 11:41:31.483436,-122.0
2023-08-10 11:41:31.491126,-133.0
2023-08-10 11:41:31.498815,-150.0
2023-08-10 11:41:31.506505,-172.0
2023-08-10 11:41:31.514195,-189.0
2023-08-10 11:41:31.521885,-196.0
2023-08-10 11:41:31.529574,-205.0
2023-08-10 11:41:31.537264,-229.0
2023-08-10 11:41:31.544954,-251.0
2023-08-10 11:41:31.552643,-263.0
2023-08-10 11:41:31.560333,-277.0
2023-08-10 11:41:31.568023,-282.0
2023-08-10 11:41:31.575713,-270.0
2023-08-10 11:41:31.583402,-234.0
2023-08-10 11:41:31.591092,-169.0
2023-08-10 11:41:31.598782,-102.0
2023-08-10 11:41:31.606471,-52.0
2023-08-10 11:41:31.614161,-14.0
2023-08-10 11:41:31.621851,14.0
2023-08-10 11:41:31.629541,26.0
2023-08-10 11:41:31.637230,35.0
2023-08-10 11:41:31.644920,50.0
2023-08-10 11:41:31.652610,45.0
2023-08-10 11:41:31.660299,33.0
2023-08-10 11:41:31.667989,26.0
2023-08-10 11:41:31.675679,26.0
2023-08-10 11:41:31.683369,23.0
2023-08-10 11:41:31.691058,14.0
2023-08-10 11:41:31.698748,11.0
2023-08-10 11:41:31.706438,21.0
2023-08-10 11:41:31.714127,23.0
2023-08-10 11:41:31.721817,19.0
2023-08-10 11:41:31.729507,14.0
2023-08-10 11:41:31.737197,11.0
2023-08-10 11:41:31.744886,4.0
2023-08-10 11:41:31.752576,0.0
2023-08-10 11:41:31.760266,4.0
2023-08-10 11:41:31.767955,4.0
2023-08-10 11:41:31.775645,-2.0
2023-08-10 11:41:31.783335,2.0
2023-08-10 11:41:31.791025,9.0
2023-08-10 11:41:31.798714,2.0
2023-08-10 11:41:31.806404,-4.0
2023-08-10 11:41:31.814094,0.0
2023-08-10 11:41:31.821783,0.0
2023-08-10 11:41:31.829473,-2.0
2023-08-10 11:41:31.837163,-4.0
2023-08-10 11:41:31.844853,-14.0
2023-08-10 11:41:31.852542,-19.0
2023-08-10 11:41:31.860232,-14.0
2023-08-10 11:41:31.867922,-11.0
2023-08-10 11:41:31.875611,-14.0
2023-08-10 11:41:31.883301,-4.0
2023-08-10 11:41:31.890991,-4.0
2023-08-10 11:41:31.898681,-19.0
2023-08-10 11:41:31.906370,-21.0
2023-08-10 11:41:31.914060,-11.0
2023-08-10 11:41:31.921750,-16.0
2023-08-10 11:41:31.929439,-19.0
2023-08-10 11:41:31.937129,-19.0
2023-08-10 11:41:31.944819,-21.0
2023-08-10 11:41:31.952509,-23.0
2023-08-10 11:41:31.960198,-23.0
2023-08-10 11:41:31.967888,-23.0
2023-08-10 11:41:31.975578,-23.0
2023-08-10 11:41:31.983267,-23.0
2023-08-10 11:41:31.990957,-26.0
2023-08-10 11:41:31.998647,-26.0
2023-08-10 11:41:32.006337,-28.0
2023-08-10 11:41:32.014026,-28.0
2023-08-10 11:41:32.021716,-28.0
2023-08-10 11:41:32.029406,-31.0
2023-08-10 11:41:32.037095,-26.0
2023-08-10 11:41:32.044785,-19.0
2023-08-10 11:41:32.052475,-23.0
2023-08-10 11:41:32.060165,-33.0
2023-08-10 11:41:32.067854,-33.0
2023-08-10 11:41:32.075544,-26.0
2023-08-10 11:41:32.083234,-23.0
2023-08-10 11:41:32.090923,-28.0
2023-08-10 11:41:32.098613,-33.0
2023-08-10 11:41:32.106303,-38.0
2023-08-10 11:41:32.113993,-35.0
2023-08-10 11:41:32.121682,-28.0
2023-08-10 11:41:32.129372,-26.0
2023-08-10 11:41:32.137062,-31.0
2023-08-10 11:41:32.144751,-35.0
2023-08-10 11:41:32.152441,-35.0
2023-08-10 11:41:32.160131,-38.0
2023-08-10 11:41:32.167820,-62.0
2023-08-10 11:41:32.175510,-76.0
2023-08-10 11:41:32.183200,-64.0
2023-08-10 11:41:32.190890,-55.0
2023-08-10 11:41:32.198579,-59.0
2023-08-10 11:41:32.206269,-74.0
2023-08-10 11:41:32.213959,-66.0
2023-08-10 11:41:32.221648,-38.0
2023-08-10 11:41:32.229338,-26.0
2023-08-10 11:41:32.237028,-38.0
2023-08-10 11:41:32.244718,-52.0
2023-08-10 11:41:32.252407,-57.0
2023-08-10 11:41:32.260097,-55.0
2023-08-10 11:41:32.267787,-62.0
2023-08-10 11:41:32.275476,-66.0
2023-08-10 11:41:32.283166,-62.0
2023-08-10 11:41:32.290856,-98.0
2023-08-10 11:41:32.298546,-251.0
2023-08-10 11:41:32.306235,-480.0
2023-08-10 11:41:32.313925,-674.0
2023-08-10 11:41:32.321615,-727.0
2023-08-10 11:41:32.329304,-492.0
2023-08-10 11:41:32.336994,-78.0
2023-08-10 11:41:32.344684,86.0
2023-08-10 11:41:32.352374,-28.0
2023-08-10 11:41:32.360063,-81.0
2023-08-10 11:41:32.367753,-21.0
2023-08-10 11:41:32.375443,-14.0
2023-08-10 11:41:32.383132,-45.0
2023-08-10 11:41:32.390822,-40.0
2023-08-10 11:41:32.398512,-28.0
2023-08-10 11:41:32.406202,-33.0
2023-08-10 11:41:32.413891,-45.0
2023-08-10 11:41:32.421581,-50.0
2023-08-10 11:41:32.429271,-50.0
2023-08-10 11:41:32.436960,-57.0
2023-08-10 11:41:32.444650,-66.0
2023-08-10 11:41:32.452340,-71.0
2023-08-10 11:41:32.460030,-74.0
2023-08-10 11:41:32.467719,-81.0
2023-08-10 11:41:32.475409,-90.0
2023-08-10 11:41:32.483099,-100.0
2023-08-10 11:41:32.490788,-112.0
2023-08-10 11:41:32.498478,-119.0
2023-08-10 11:41:32.506168,-126.0
2023-08-10 11:41:32.513858,-131.0
2023-08-10 11:41:32.521547,-145.0
2023-08-10 11:41:32.529237,-169.0
2023-08-10 11:41:32.536927,-191.0
2023-08-10 11:41:32.544616,-205.0
2023-08-10 11:41:32.552306,-215.0
2023-08-10 11:41:32.559996,-227.0
2023-08-10 11:41:32.567686,-248.0
2023-08-10 11:41:32.575375,-260.0
2023-08-10 11:41:32.583065,-267.0
2023-08-10 11:41:32.590755,-265.0
2023-08-10 11:41:32.598444,-241.0
2023-08-10 11:41:32.606134,-191.0
2023-08-10 11:41:32.613824,-129.0
2023-08-10 11:41:32.621514,-66.0
2023-08-10 11:41:32.629203,-9.0
2023-08-10 11:41:32.636893,26.0
2023-08-10 11:41:32.644583,43.0
2023-08-10 11:41:32.652272,57.0
2023-08-10 11:41:32.659962,64.0
2023-08-10 11:41:32.667652,59.0
2023-08-10 11:41:32.675342,62.0
2023-08-10 11:41:32.683031,74.0
2023-08-10 11:41:32.690721,71.0
2023-08-10 11:41:32.698411,62.0
2023-08-10 11:41:32.706100,52.0
2023-08-10 11:41:32.713790,52.0
2023-08-10 11:41:32.721480,57.0
2023-08-10 11:41:32.729170,50.0
2023-08-10 11:41:32.736859,40.0
2023-08-10 11:41:32.744549,28.0
2023-08-10 11:41:32.752239,21.0
2023-08-10 11:41:32.759928,23.0
2023-08-10 11:41:32.767618,23.0
2023-08-10 11:41:32.775308,19.0
2023-08-10 11:41:32.782998,16.0
2023-08-10 11:41:32.790687,14.0
2023-08-10 11:41:32.798377,14.0
2023-08-10 11:41:32.806067,9.0
2023-08-10 11:41:32.813756,7.0
2023-08-10 11:41:32.821446,11.0
2023-08-10 11:41:32.829136,9.0
2023-08-10 11:41:32.836826,2.0
2023-08-10 11:41:32.844515,4.0
2023-08-10 11:41:32.852205,4.0
2023-08-10 11:41:32.859895,-2.0
2023-08-10 11:41:32.867584,-2.0
2023-08-10 11:41:32.875274,-2.0
2023-08-10 11:41:32.882964,-7.0
2023-08-10 11:41:32.890653,-7.0
2023-08-10 11:41:32.898343,-2.0
2023-08-10 11:41:32.906033,-7.0
2023-08-10 11:41:32.913723,-14.0
2023-08-10 11:41:32.921412,-21.0
2023-08-10 11:41:32.929102,-21.0
2023-08-10 11:41:32.936792,-7.0
2023-08-10 11:41:32.944481,-4.0
2023-08-10 11:41:32.952171,-14.0
2023-08-10 11:41:32.959861,-16.0
2023-08-10 11:41:32.967551,-11.0
2023-08-10 11:41:32.975240,-11.0
2023-08-10 11:41:32.982930,-16.0
2023-08-10 11:41:32.990620,-11.0
2023-08-10 11:41:32.998309,-7.0
2023-08-10 11:41:33.005999,-14.0
2023-08-10 11:41:33.013689,-19.0
2023-08-10 11:41:33.021379,-19.0
2023-08-10 11:41:33.029068,-19.0
2023-08-10 11:41:33.036758,-16.0
2023-08-10 11:41:33.044448,-14.0
2023-08-10 11:41:33.052137,-16.0
2023-08-10 11:41:33.059827,-23.0
2023-08-10 11:41:33.067517,-16.0
2023-08-10 11:41:33.075207,-11.0
2023-08-10 11:41:33.082896,-19.0
2023-08-10 11:41:33.090586,-31.0
2023-08-10 11:41:33.098276,-26.0
2023-08-10 11:41:33.105965,-11.0
2023-08-10 11:41:33.113655,-16.0
2023-08-10 11:41:33.121345,-28.0
2023-08-10 11:41:33.129035,-21.0
2023-08-10 11:41:33.136724,-19.0
2023-08-10 11:41:33.144414,-31.0
2023-08-10 11:41:33.152104,-31.0
2023-08-10 11:41:33.159793,-31.0
2023-08-10 11:41:33.167483,-50.0
2023-08-10 11:41:33.175173,-64.0
2023-08-10 11:41:33.182863,-47.0
2023-08-10 11:41:33.190552,-40.0
2023-08-10 11:41:33.198242,-57.0
2023-08-10 11:41:33.205932,-57.0
2023-08-10 11:41:33.213621,-43.0
2023-08-10 11:41:33.221311,-43.0
2023-08-10 11:41:33.229001,-35.0
2023-08-10 11:41:33.236691,-19.0
2023-08-10 11:41:33.244380,-19.0
2023-08-10 11:41:33.252070,-31.0
2023-08-10 11:41:33.259760,-35.0
2023-08-10 11:41:33.267449,-40.0
2023-08-10 11:41:33.275139,-50.0
2023-08-10 11:41:33.282829,-55.0
2023-08-10 11:41:33.290519,-59.0
2023-08-10 11:41:33.298208,-148.0
2023-08-10 11:41:33.305898,-366.0
2023-08-10 11:41:33.313588,-593.0
2023-08-10 11:41:33.321277,-712.0
2023-08-10 11:41:33.328967,-602.0
2023-08-10 11:41:33.336657,-227.0
2023-08-10 11:41:33.344347,78.0
2023-08-10 11:41:33.352036,62.0
2023-08-10 11:41:33.359726,-52.0
2023-08-10 11:41:33.367416,-38.0
2023-08-10 11:41:33.375105,-2.0
2023-08-10 11:41:33.382795,-23.0
2023-08-10 11:41:33.390485,-23.0
2023-08-10 11:41:33.398175,-9.0
2023-08-10 11:41:33.405864,-19.0
2023-08-10 11:41:33.413554,-38.0
2023-08-10 11:41:33.421244,-40.0
2023-08-10 11:41:33.428933,-43.0
2023-08-10 11:41:33.436623,-52.0
2023-08-10 11:41:33.444313,-52.0
2023-08-10 11:41:33.452003,-52.0
2023-08-10 11:41:33.459692,-69.0
2023-08-10 11:41:33.467382,-78.0
2023-08-10 11:41:33.475072,-69.0
2023-08-10 11:41:33.482761,-76.0
2023-08-10 11:41:33.490451,-95.0
2023-08-10 11:41:33.498141,-100.0
2023-08-10 11:41:33.505831,-107.0
2023-08-10 11:41:33.513520,-129.0
2023-08-10 11:41:33.521210,-148.0
2023-08-10 11:41:33.528900,-153.0
2023-08-10 11:41:33.536589,-157.0
2023-08-10 11:41:33.544279,-179.0
2023-08-10 11:41:33.551969,-210.0
2023-08-10 11:41:33.559658,-229.0
2023-08-10 11:41:33.567348,-244.0
2023-08-10 11:41:33.575038,-253.0
2023-08-10 11:41:33.582728,-258.0
2023-08-10 11:41:33.590417,-263.0
2023-08-10 11:41:33.598107,-248.0
2023-08-10 11:41:33.605797,-210.0
2023-08-10 11:41:33.613486,-150.0
2023-08-10 11:41:33.621176,-83.0
2023-08-10 11:41:33.628866,-23.0
2023-08-10 11:41:33.636556,19.0
2023-08-10 11:41:33.644245,40.0
2023-08-10 11:41:33.651935,55.0
2023-08-10 11:41:33.659625,71.0
2023-08-10 11:41:33.667314,74.0
2023-08-10 11:41:33.675004,71.0
2023-08-10 11:41:33.682694,74.0
2023-08-10 11:41:33.690384,71.0
2023-08-10 11:41:33.698073,64.0
2023-08-10 11:41:33.705763,59.0
2023-08-10 11:41:33.713453,57.0
2023-08-10 11:41:33.721142,52.0
2023-08-10 11:41:33.728832,50.0
2023-08-10 11:41:33.736522,45.0
2023-08-10 11:41:33.744212,43.0
2023-08-10 11:41:33.751901,45.0
2023-08-10 11:41:33.759591,40.0
2023-08-10 11:41:33.767281,38.0
2023-08-10 11:41:33.774970,31.0
2023-08-10 11:41:33.782660,26.0
2023-08-10 11:41:33.790350,31.0
2023-08-10 11:41:33.798040,31.0
2023-08-10 11:41:33.805729,23.0
2023-08-10 11:41:33.813419,21.0
2023-08-10 11:41:33.821109,19.0
2023-08-10 11:41:33.828798,11.0
2023-08-10 11:41:33.836488,11.0
2023-08-10 11:41:33.844178,21.0
2023-08-10 11:41:33.851868,16.0
2023-08-10 11:41:33.859557,4.0
2023-08-10 11:41:33.867247,-2.0
2023-08-10 11:41:33.874937,0.0
2023-08-10 11:41:33.882626,-4.0
2023-08-10 11:41:33.890316,-14.0
2023-08-10 11:41:33.898006,-14.0
2023-08-10 11:41:33.905696,-9.0
2023-08-10 11:41:33.913385,-16.0
2023-08-10 11:41:33.921075,-26.0
2023-08-10 11:41:33.928765,-26.0
2023-08-10 11:41:33.936454,-21.0
2023-08-10 11:41:33.944144,-19.0
2023-08-10 11:41:33.951834,-21.0
2023-08-10 11:41:33.959524,-28.0
2023-08-10 11:41:33.967213,-28.0
2023-08-10 11:41:33.974903,-23.0
2023-08-10 11:41:33.982593,-21.0
2023-08-10 11:41:33.990282,-26.0
2023-08-10 11:41:33.997972,-26.0
2023-08-10 11:41:34.005662,-23.0
2023-08-10 11:41:34.013352,-31.0
2023-08-10 11:41:34.021041,-35.0
2023-08-10 11:41:34.028731,-23.0
2023-08-10 11:41:34.036421,-19.0
2023-08-10 11:41:34.044110,-28.0
2023-08-10 11:41:34.051800,-33.0
2023-08-10 11:41:34.059490,-23.0
2023-08-10 11:41:34.067180,-19.0
2023-08-10 11:41:34.074869,-23.0
2023-08-10 11:41:34.082559,-26.0
2023-08-10 11:41:34.090249,-28.0
2023-08-10 11:41:34.097938,-38.0
2023-08-10 11:41:34.105628,-55.0
2023-08-10 11:41:34.113318,-66.0
2023-08-10 11:41:34.121008,-52.0
2023-08-10 11:41:34.128697,-38.0
2023-08-10 11:41:34.136387,-50.0
2023-08-10 11:41:34.144077,-52.0
2023-08-10 11:41:34.151766,-35.0
2023-08-10 11:41:34.159456,-28.0
2023-08-10 11:41:34.167146,-19.0
2023-08-10 11:41:34.174836,-14.0
2023-08-10 11:41:34.182525,-16.0
2023-08-10 11:41:34.190215,-16.0
2023-08-10 11:41:34.197905,-23.0
2023-08-10 11:41:34.205594,-28.0
2023-08-10 11:41:34.213284,-26.0
2023-08-10 11:41:34.220974,-16.0
2023-08-10 11:41:34.228664,-40.0
2023-08-10 11:41:34.236353,-167.0
2023-08-10 11:41:34.244043,-387.0
2023-08-10 11:41:34.251733,-602.0
2023-08-10 11:41:34.259422,-710.0
2023-08-10 11:41:34.267112,-547.0
2023-08-10 11:41:34.274802,-131.0
2023-08-10 11:41:34.282491,124.0
2023-08-10 11:41:34.290181,47.0
2023-08-10 11:41:34.297871,-47.0
2023-08-10 11:41:34.305561,-7.0
2023-08-10 11:41:34.313250,19.0
2023-08-10 11:41:34.320940,-4.0
2023-08-10 11:41:34.328630,-9.0
2023-08-10 11:41:34.336319,-4.0
2023-08-10 11:41:34.344009,-11.0
2023-08-10 11:41:34.351699,-16.0
2023-08-10 11:41:34.359389,-16.0
2023-08-10 11:41:34.367078,-26.0
2023-08-10 11:41:34.374768,-45.0
2023-08-10 11:41:34.382458,-52.0
2023-08-10 11:41:34.390147,-55.0
2023-08-10 11:41:34.397837,-59.0
2023-08-10 11:41:34.405527,-74.0
2023-08-10 11:41:34.413217,-95.0
2023-08-10 11:41:34.420906,-110.0
2023-08-10 11:41:34.428596,-112.0
2023-08-10 11:41:34.436286,-114.0
2023-08-10 11:41:34.443975,-124.0
2023-08-10 11:41:34.451665,-143.0
2023-08-10 11:41:34.459355,-167.0
2023-08-10 11:41:34.467045,-184.0
2023-08-10 11:41:34.474734,-196.0
2023-08-10 11:41:34.482424,-215.0
2023-08-10 11:41:34.490114,-234.0
2023-08-10 11:41:34.497803,-246.0
2023-08-10 11:41:34.505493,-263.0
2023-08-10 11:41:34.513183,-282.0
2023-08-10 11:41:34.520873,-289.0
2023-08-10 11:41:34.528562,-272.0
2023-08-10 11:41:34.536252,-241.0
2023-08-10 11:41:34.543942,-203.0
2023-08-10 11:41:34.551631,-133.0
2023-08-10 11:41:34.559321,-64.0
2023-08-10 11:41:34.567011,-21.0
2023-08-10 11:41:34.574701,14.0
2023-08-10 11:41:34.582390,43.0
2023-08-10 11:41:34.590080,50.0
2023-08-10 11:41:34.597770,52.0
2023-08-10 11:41:34.605459,64.0
2023-08-10 11:41:34.613149,74.0
2023-08-10 11:41:34.620839,64.0
2023-08-10 11:41:34.628529,50.0
2023-08-10 11:41:34.636218,52.0
2023-08-10 11:41:34.643908,55.0
2023-08-10 11:41:34.651598,45.0
2023-08-10 11:41:34.659287,45.0
2023-08-10 11:41:34.666977,45.0
2023-08-10 11:41:34.674667,35.0
2023-08-10 11:41:34.682357,31.0
2023-08-10 11:41:34.690046,28.0
2023-08-10 11:41:34.697736,26.0
2023-08-10 11:41:34.705426,31.0
2023-08-10 11:41:34.713115,28.0
2023-08-10 11:41:34.720805,19.0
2023-08-10 11:41:34.728495,16.0
2023-08-10 11:41:34.736185,26.0
2023-08-10 11:41:34.743874,21.0
2023-08-10 11:41:34.751564,14.0
2023-08-10 11:41:34.759254,14.0
2023-08-10 11:41:34.766943,14.0
2023-08-10 11:41:34.774633,9.0
2023-08-10 11:41:34.782323,2.0
2023-08-10 11:41:34.790013,4.0
2023-08-10 11:41:34.797702,11.0
2023-08-10 11:41:34.805392,7.0
2023-08-10 11:41:34.813082,4.0
2023-08-10 11:41:34.820771,4.0
2023-08-10 11:41:34.828461,0.0
2023-08-10 11:41:34.836151,2.0
2023-08-10 11:41:34.843841,9.0
2023-08-10 11:41:34.851530,7.0
2023-08-10 11:41:34.859220,-4.0
2023-08-10 11:41:34.866910,-4.0
2023-08-10 11:41:34.874599,-2.0
2023-08-10 11:41:34.882289,-7.0
2023-08-10 11:41:34.889979,-14.0
2023-08-10 11:41:34.897669,-14.0
2023-08-10 11:41:34.905358,-16.0
2023-08-10 11:41:34.913048,-16.0
2023-08-10 11:41:34.920738,-9.0
2023-08-10 11:41:34.928427,-7.0
2023-08-10 11:41:34.936117,-19.0
2023-08-10 11:41:34.943807,-28.0
2023-08-10 11:41:34.951496,-33.0
2023-08-10 11:41:34.959186,-33.0
2023-08-10 11:41:34.966876,-31.0
2023-08-10 11:41:34.974566,-23.0
2023-08-10 11:41:34.982255,-16.0
2023-08-10 11:41:34.989945,-23.0
2023-08-10 11:41:34.997635,-33.0
2023-08-10 11:41:35.005324,-28.0
2023-08-10 11:41:35.013014,-26.0
2023-08-10 11:41:35.020704,-31.0
2023-08-10 11:41:35.028394,-28.0
2023-08-10 11:41:35.036083,-33.0
2023-08-10 11:41:35.043773,-35.0
2023-08-10 11:41:35.051463,-31.0
2023-08-10 11:41:35.059152,-31.0
2023-08-10 11:41:35.066842,-26.0
2023-08-10 11:41:35.074532,-21.0
2023-08-10 11:41:35.082222,-28.0
2023-08-10 11:41:35.089911,-35.0
2023-08-10 11:41:35.097601,-35.0
2023-08-10 11:41:35.105291,-43.0
2023-08-10 11:41:35.112980,-57.0
2023-08-10 11:41:35.120670,-62.0
2023-08-10 11:41:35.128360,-57.0
2023-08-10 11:41:35.136050,-59.0
2023-08-10 11:41:35.143739,-57.0
2023-08-10 11:41:35.151429,-47.0
2023-08-10 11:41:35.159119,-43.0
2023-08-10 11:41:35.166808,-35.0
2023-08-10 11:41:35.174498,-23.0
2023-08-10 11:41:35.182188,-19.0
2023-08-10 11:41:35.189878,-26.0
2023-08-10 11:41:35.197567,-28.0
2023-08-10 11:41:35.205257,-28.0
2023-08-10 11:41:35.212947,-31.0
2023-08-10 11:41:35.220636,-31.0
2023-08-10 11:41:35.228326,-31.0
2023-08-10 11:41:35.236016,-88.0
2023-08-10 11:41:35.243706,-267.0
2023-08-10 11:41:35.251395,-509.0
2023-08-10 11:41:35.259085,-693.0
2023-08-10 11:41:35.266775,-684.0
2023-08-10 11:41:35.274464,-368.0
2023-08-10 11:41:35.282154,21.0
2023-08-10 11:41:35.289844,102.0
2023-08-10 11:41:35.297534,-31.0
2023-08-10 11:41:35.305223,-45.0
2023-08-10 11:41:35.312913,9.0
2023-08-10 11:41:35.320603,-4.0
2023-08-10 11:41:35.328292,-14.0
2023-08-10 11:41:35.335982,7.0
2023-08-10 11:41:35.343672,-4.0
2023-08-10 11:41:35.351362,-26.0
2023-08-10 11:41:35.359051,-26.0
2023-08-10 11:41:35.366741,-28.0
2023-08-10 11:41:35.374431,-38.0
2023-08-10 11:41:35.382120,-52.0
2023-08-10 11:41:35.389810,-62.0
2023-08-10 11:41:35.397500,-66.0
2023-08-10 11:41:35.405190,-78.0
2023-08-10 11:41:35.412879,-83.0
2023-08-10 11:41:35.420569,-78.0
2023-08-10 11:41:35.428259,-86.0
2023-08-10 11:41:35.435948,-107.0
2023-08-10 11:41:35.443638,-119.0
2023-08-10 11:41:35.451328,-126.0
2023-08-10 11:41:35.459018,-138.0
2023-08-10 11:41:35.466707,-155.0
2023-08-10 11:41:35.474397,-172.0
2023-08-10 11:41:35.482087,-196.0
2023-08-10 11:41:35.489776,-217.0
2023-08-10 11:41:35.497466,-229.0
2023-08-10 11:41:35.505156,-241.0
2023-08-10 11:41:35.512846,-253.0
2023-08-10 11:41:35.520535,-267.0
2023-08-10 11:41:35.528225,-277.0
2023-08-10 11:41:35.535915,-267.0
2023-08-10 11:41:35.543604,-234.0
2023-08-10 11:41:35.551294,-181.0
2023-08-10 11:41:35.558984,-117.0
2023-08-10 11:41:35.566674,-57.0
2023-08-10 11:41:35.574363,-14.0
2023-08-10 11:41:35.582053,14.0
2023-08-10 11:41:35.589743,38.0
2023-08-10 11:41:35.597432,52.0
2023-08-10 11:41:35.605122,57.0
2023-08-10 11:41:35.612812,55.0
2023-08-10 11:41:35.620502,52.0
2023-08-10 11:41:35.628191,50.0
2023-08-10 11:41:35.635881,47.0
2023-08-10 11:41:35.643571,45.0
2023-08-10 11:41:35.651260,40.0
2023-08-10 11:41:35.658950,43.0
2023-08-10 11:41:35.666640,38.0
2023-08-10 11:41:35.674329,28.0
2023-08-10 11:41:35.682019,28.0
2023-08-10 11:41:35.689709,31.0
2023-08-10 11:41:35.697399,26.0
2023-08-10 11:41:35.705088,23.0
2023-08-10 11:41:35.712778,21.0
2023-08-10 11:41:35.720468,19.0
2023-08-10 11:41:35.728157,21.0
2023-08-10 11:41:35.735847,21.0
2023-08-10 11:41:35.743537,16.0
2023-08-10 11:41:35.751227,14.0
2023-08-10 11:41:35.758916,11.0
2023-08-10 11:41:35.766606,4.0
2023-08-10 11:41:35.774296,4.0
2023-08-10 11:41:35.781985,9.0
2023-08-10 11:41:35.789675,7.0
2023-08-10 11:41:35.797365,2.0
2023-08-10 11:41:35.805055,2.0
2023-08-10 11:41:35.812744,2.0
2023-08-10 11:41:35.820434,2.0
2023-08-10 11:41:35.828124,4.0
2023-08-10 11:41:35.835813,4.0
2023-08-10 11:41:35.843503,0.0
2023-08-10 11:41:35.851193,-2.0
2023-08-10 11:41:35.858883,-4.0
2023-08-10 11:41:35.866572,-9.0
2023-08-10 11:41:35.874262,-11.0
2023-08-10 11:41:35.881952,-14.0
2023-08-10 11:41:35.889641,-19.0
2023-08-10 11:41:35.897331,-16.0
2023-08-10 11:41:35.905021,-16.0
2023-08-10 11:41:35.912711,-23.0
2023-08-10 11:41:35.920400,-26.0
2023-08-10 11:41:35.928090,-19.0
2023-08-10 11:41:35.935780,-19.0
2023-08-10 11:41:35.943469,-26.0
2023-08-10 11:41:35.951159,-23.0
2023-08-10 11:41:35.958849,-19.0
2023-08-10 11:41:35.966539,-21.0
2023-08-10 11:41:35.974228,-26.0
2023-08-10 11:41:35.981918,-28.0
2023-08-10 11:41:35.989608,-31.0
2023-08-10 11:41:35.997297,-31.0
2023-08-10 11:41:36.004987,-26.0
2023-08-10 11:41:36.012677,-23.0
2023-08-10 11:41:36.020367,-23.0
2023-08-10 11:41:36.028056,-23.0
2023-08-10 11:41:36.035746,-28.0
2023-08-10 11:41:36.043436,-33.0
2023-08-10 11:41:36.051125,-28.0
2023-08-10 11:41:36.058815,-28.0
2023-08-10 11:41:36.066505,-35.0
2023-08-10 11:41:36.074195,-35.0
2023-08-10 11:41:36.081884,-33.0
2023-08-10 11:41:36.089574,-45.0
2023-08-10 11:41:36.097264,-59.0
2023-08-10 11:41:36.104953,-66.0
2023-08-10 11:41:36.112643,-69.0
2023-08-10 11:41:36.120333,-71.0
2023-08-10 11:41:36.128023,-74.0
2023-08-10 11:41:36.135712,-66.0
2023-08-10 11:41:36.143402,-55.0
2023-08-10 11:41:36.151092,-47.0
2023-08-10 11:41:36.158781,-40.0
2023-08-10 11:41:36.166471,-35.0
2023-08-10 11:41:36.174161,-38.0
2023-08-10 11:41:36.181851,-40.0
2023-08-10 11:41:36.189540,-38.0
2023-08-10 11:41:36.197230,-35.0
2023-08-10 11:41:36.204920,-40.0
2023-08-10 11:41:36.212609,-43.0
2023-08-10 11:41:36.220299,-52.0
2023-08-10 11:41:36.227989,-150.0
2023-08-10 11:41:36.235679,-378.0
2023-08-10 11:41:36.243368,-610.0
2023-08-10 11:41:36.251058,-732.0
2023-08-10 11:41:36.258748,-593.0
2023-08-10 11:41:36.266437,-186.0
2023-08-10 11:41:36.274127,105.0
2023-08-10 11:41:36.281817,57.0
2023-08-10 11:41:36.289507,-52.0
2023-08-10 11:41:36.297196,-23.0
2023-08-10 11:41:36.304886,16.0
2023-08-10 11:41:36.312576,-11.0
2023-08-10 11:41:36.320265,-23.0
2023-08-10 11:41:36.327955,-7.0
2023-08-10 11:41:36.335645,-14.0
2023-08-10 11:41:36.343334,-31.0
2023-08-10 11:41:36.351024,-35.0
2023-08-10 11:41:36.358714,-38.0
2023-08-10 11:41:36.366404,-43.0
2023-08-10 11:41:36.374093,-45.0
2023-08-10 11:41:36.381783,-57.0
2023-08-10 11:41:36.389473,-69.0
2023-08-10 11:41:36.397162,-78.0
2023-08-10 11:41:36.404852,-83.0
2023-08-10 11:41:36.412542,-88.0
2023-08-10 11:41:36.420232,-95.0
2023-08-10 11:41:36.427921,-112.0
2023-08-10 11:41:36.435611,-126.0
2023-08-10 11:41:36.443301,-133.0
2023-08-10 11:41:36.450990,-150.0
2023-08-10 11:41:36.458680,-169.0
2023-08-10 11:41:36.466370,-181.0
2023-08-10 11:41:36.474060,-198.0
2023-08-10 11:41:36.481749,-220.0
2023-08-10 11:41:36.489439,-234.0
2023-08-10 11:41:36.497129,-251.0
2023-08-10 11:41:36.504818,-265.0
2023-08-10 11:41:36.512508,-277.0
2023-08-10 11:41:36.520198,-277.0
2023-08-10 11:41:36.527888,-253.0
2023-08-10 11:41:36.535577,-205.0
2023-08-10 11:41:36.543267,-143.0
2023-08-10 11:41:36.550957,-78.0
2023-08-10 11:41:36.558646,-26.0
2023-08-10 11:41:36.566336,16.0
2023-08-10 11:41:36.574026,50.0
2023-08-10 11:41:36.581716,69.0
2023-08-10 11:41:36.589405,74.0
2023-08-10 11:41:36.597095,74.0
2023-08-10 11:41:36.604785,66.0
2023-08-10 11:41:36.612474,62.0
2023-08-10 11:41:36.620164,62.0
2023-08-10 11:41:36.627854,64.0
2023-08-10 11:41:36.635544,59.0
2023-08-10 11:41:36.643233,50.0
2023-08-10 11:41:36.650923,47.0
2023-08-10 11:41:36.658613,47.0
2023-08-10 11:41:36.666302,43.0
2023-08-10 11:41:36.673992,40.0
2023-08-10 11:41:36.681682,45.0
2023-08-10 11:41:36.689372,38.0
2023-08-10 11:41:36.697061,28.0
2023-08-10 11:41:36.704751,26.0
2023-08-10 11:41:36.712441,21.0
2023-08-10 11:41:36.720130,16.0
2023-08-10 11:41:36.727820,16.0
2023-08-10 11:41:36.735510,14.0
2023-08-10 11:41:36.743200,9.0
2023-08-10 11:41:36.750889,9.0
2023-08-10 11:41:36.758579,9.0
2023-08-10 11:41:36.766269,7.0
2023-08-10 11:41:36.773958,9.0
2023-08-10 11:41:36.781648,4.0
2023-08-10 11:41:36.789338,2.0
2023-08-10 11:41:36.797028,7.0
2023-08-10 11:41:36.804717,9.0
2023-08-10 11:41:36.812407,4.0
2023-08-10 11:41:36.820097,0.0
2023-08-10 11:41:36.827786,0.0
2023-08-10 11:41:36.835476,4.0
2023-08-10 11:41:36.843166,4.0
2023-08-10 11:41:36.850856,-2.0
2023-08-10 11:41:36.858545,0.0
2023-08-10 11:41:36.866235,-2.0
2023-08-10 11:41:36.873925,-7.0
2023-08-10 11:41:36.881614,-9.0
2023-08-10 11:41:36.889304,-7.0
2023-08-10 11:41:36.896994,-11.0
2023-08-10 11:41:36.904684,-19.0
2023-08-10 11:41:36.912373,-19.0
2023-08-10 11:41:36.920063,-21.0
2023-08-10 11:41:36.927753,-23.0
2023-08-10 11:41:36.935442,-21.0
2023-08-10 11:41:36.943132,-16.0
2023-08-10 11:41:36.950822,-19.0
2023-08-10 11:41:36.958512,-21.0
2023-08-10 11:41:36.966201,-21.0
2023-08-10 11:41:36.973891,-23.0
2023-08-10 11:41:36.981581,-28.0
2023-08-10 11:41:36.989270,-28.0
2023-08-10 11:41:36.996960,-23.0
2023-08-10 11:41:37.004650,-21.0
2023-08-10 11:41:37.012340,-21.0
2023-08-10 11:41:37.020029,-23.0
2023-08-10 11:41:37.027719,-35.0
2023-08-10 11:41:37.035409,-47.0
2023-08-10 11:41:37.043098,-50.0
2023-08-10 11:41:37.050788,-47.0
2023-08-10 11:41:37.058478,-50.0
2023-08-10 11:41:37.066167,-52.0
2023-08-10 11:41:37.073857,-43.0
2023-08-10 11:41:37.081547,-26.0
2023-08-10 11:41:37.089237,-21.0
2023-08-10 11:41:37.096926,-28.0
2023-08-10 11:41:37.104616,-21.0
2023-08-10 11:41:37.112306,-21.0
2023-08-10 11:41:37.119995,-28.0
2023-08-10 11:41:37.127685,-23.0
2023-08-10 11:41:37.135375,-21.0
2023-08-10 11:41:37.143065,-26.0
2023-08-10 11:41:37.150754,-28.0
2023-08-10 11:41:37.158444,-71.0
2023-08-10 11:41:37.166134,-239.0
2023-08-10 11:41:37.173823,-492.0
2023-08-10 11:41:37.181513,-684.0
2023-08-10 11:41:37.189203,-681.0
2023-08-10 11:41:37.196893,-387.0
2023-08-10 11:41:37.204582,2.0
2023-08-10 11:41:37.212272,114.0
2023-08-10 11:41:37.219962,-7.0
2023-08-10 11:41:37.227651,-43.0
2023-08-10 11:41:37.235341,16.0
2023-08-10 11:41:37.243031,11.0
2023-08-10 11:41:37.250721,-14.0
2023-08-10 11:41:37.258410,-4.0
2023-08-10 11:41:37.266100,-9.0
2023-08-10 11:41:37.273790,-26.0
2023-08-10 11:41:37.281479,-23.0
2023-08-10 11:41:37.289169,-23.0
2023-08-10 11:41:37.296859,-40.0
2023-08-10 11:41:37.304549,-47.0
2023-08-10 11:41:37.312238,-45.0
2023-08-10 11:41:37.319928,-52.0
2023-08-10 11:41:37.327618,-66.0
2023-08-10 11:41:37.335307,-81.0
2023-08-10 11:41:37.342997,-83.0
2023-08-10 11:41:37.350687,-86.0
2023-08-10 11:41:37.358377,-98.0
2023-08-10 11:41:37.366066,-114.0
2023-08-10 11:41:37.373756,-129.0
2023-08-10 11:41:37.381446,-143.0
2023-08-10 11:41:37.389135,-155.0
2023-08-10 11:41:37.396825,-169.0
2023-08-10 11:41:37.404515,-193.0
2023-08-10 11:41:37.412205,-217.0
2023-08-10 11:41:37.419894,-236.0
2023-08-10 11:41:37.427584,-251.0
2023-08-10 11:41:37.435274,-267.0
2023-08-10 11:41:37.442963,-282.0
2023-08-10 11:41:37.450653,-282.0
2023-08-10 11:41:37.458343,-260.0
2023-08-10 11:41:37.466033,-222.0
2023-08-10 11:41:37.473722,-167.0
2023-08-10 11:41:37.481412,-100.0
2023-08-10 11:41:37.489102,-40.0
2023-08-10 11:41:37.496791,-2.0
2023-08-10 11:41:37.504481,31.0
2023-08-10 11:41:37.512171,50.0
2023-08-10 11:41:37.519861,57.0
2023-08-10 11:41:37.527550,59.0
2023-08-10 11:41:37.535240,64.0
2023-08-10 11:41:37.542930,62.0
2023-08-10 11:41:37.550619,59.0
2023-08-10 11:41:37.558309,57.0
2023-08-10 11:41:37.565999,50.0
2023-08-10 11:41:37.573689,45.0
2023-08-10 11:41:37.581378,47.0
2023-08-10 11:41:37.589068,40.0
2023-08-10 11:41:37.596758,33.0
2023-08-10 11:41:37.604447,38.0
2023-08-10 11:41:37.612137,35.0
2023-08-10 11:41:37.619827,28.0
2023-08-10 11:41:37.627517,28.0
2023-08-10 11:41:37.635206,31.0
2023-08-10 11:41:37.642896,23.0
2023-08-10 11:41:37.650586,16.0
2023-08-10 11:41:37.658275,16.0
2023-08-10 11:41:37.665965,21.0
2023-08-10 11:41:37.673655,19.0
2023-08-10 11:41:37.681345,11.0
2023-08-10 11:41:37.689034,9.0
2023-08-10 11:41:37.696724,9.0
2023-08-10 11:41:37.704414,9.0
2023-08-10 11:41:37.712103,9.0
2023-08-10 11:41:37.719793,7.0
2023-08-10 11:41:37.727483,9.0
2023-08-10 11:41:37.735172,9.0
2023-08-10 11:41:37.742862,2.0
2023-08-10 11:41:37.750552,-2.0
2023-08-10 11:41:37.758242,2.0
2023-08-10 11:41:37.765931,2.0
2023-08-10 11:41:37.773621,0.0
2023-08-10 11:41:37.781311,-2.0
2023-08-10 11:41:37.789000,-7.0
2023-08-10 11:41:37.796690,-14.0
2023-08-10 11:41:37.804380,-14.0
2023-08-10 11:41:37.812070,-11.0
2023-08-10 11:41:37.819759,-14.0
2023-08-10 11:41:37.827449,-19.0
2023-08-10 11:41:37.835139,-16.0
2023-08-10 11:41:37.842828,-19.0
2023-08-10 11:41:37.850518,-23.0
2023-08-10 11:41:37.858208,-21.0
2023-08-10 11:41:37.865898,-19.0
2023-08-10 11:41:37.873587,-26.0
2023-08-10 11:41:37.881277,-26.0
2023-08-10 11:41:37.888967,-19.0
2023-08-10 11:41:37.896656,-21.0
2023-08-10 11:41:37.904346,-26.0
2023-08-10 11:41:37.912036,-23.0
2023-08-10 11:41:37.919726,-21.0
2023-08-10 11:41:37.927415,-26.0
2023-08-10 11:41:37.935105,-26.0
2023-08-10 11:41:37.942795,-19.0
2023-08-10 11:41:37.950484,-23.0
2023-08-10 11:41:37.958174,-43.0
2023-08-10 11:41:37.965864,-59.0
2023-08-10 11:41:37.973554,-55.0
2023-08-10 11:41:37.981243,-47.0
2023-08-10 11:41:37.988933,-47.0
2023-08-10 11:41:37.996623,-43.0
2023-08-10 11:41:38.004312,-28.0
2023-08-10 11:41:38.012002,-21.0
2023-08-10 11:41:38.019692,-21.0
2023-08-10 11:41:38.027382,-16.0
2023-08-10 11:41:38.035071,-14.0
2023-08-10 11:41:38.042761,-16.0
2023-08-10 11:41:38.050451,-21.0
2023-08-10 11:41:38.058140,-31.0
2023-08-10 11:41:38.065830,-31.0
2023-08-10 11:41:38.073520,-23.0
2023-08-10 11:41:38.081210,-28.0
2023-08-10 11:41:38.088899,-114.0
2023-08-10 11:41:38.096589,-320.0
2023-08-10 11:41:38.104279,-555.0
2023-08-10 11:41:38.111968,-701.0
2023-08-10 11:41:38.119658,-607.0
2023-08-10 11:41:38.127348,-222.0
2023-08-10 11:41:38.135038,93.0
2023-08-10 11:41:38.142727,66.0
2023-08-10 11:41:38.150417,-45.0
2023-08-10 11:41:38.158107,-19.0
2023-08-10 11:41:38.165796,21.0
2023-08-10 11:41:38.173486,-2.0
2023-08-10 11:41:38.181176,-7.0
2023-08-10 11:41:38.188866,2.0
2023-08-10 11:41:38.196555,-7.0
2023-08-10 11:41:38.204245,-19.0
2023-08-10 11:41:38.211935,-26.0
2023-08-10 11:41:38.219624,-31.0
2023-08-10 11:41:38.227314,-35.0
2023-08-10 11:41:38.235004,-43.0
2023-08-10 11:41:38.242694,-50.0
2023-08-10 11:41:38.250383,-55.0
2023-08-10 11:41:38.258073,-64.0
2023-08-10 11:41:38.265763,-76.0
2023-08-10 11:41:38.273452,-86.0
2023-08-10 11:41:38.281142,-93.0
2023-08-10 11:41:38.288832,-105.0
2023-08-10 11:41:38.296522,-112.0
2023-08-10 11:41:38.304211,-122.0
2023-08-10 11:41:38.311901,-143.0
2023-08-10 11:41:38.319591,-157.0
2023-08-10 11:41:38.327280,-169.0
2023-08-10 11:41:38.334970,-191.0
2023-08-10 11:41:38.342660,-212.0
2023-08-10 11:41:38.350350,-227.0
2023-08-10 11:41:38.358039,-246.0
2023-08-10 11:41:38.365729,-270.0
2023-08-10 11:41:38.373419,-279.0
2023-08-10 11:41:38.381108,-272.0
2023-08-10 11:41:38.388798,-248.0
2023-08-10 11:41:38.396488,-203.0
2023-08-10 11:41:38.404178,-141.0
2023-08-10 11:41:38.411867,-86.0
2023-08-10 11:41:38.419557,-40.0
2023-08-10 11:41:38.427247,4.0
2023-08-10 11:41:38.434936,35.0
2023-08-10 11:41:38.442626,43.0
2023-08-10 11:41:38.450316,45.0
2023-08-10 11:41:38.458005,50.0
2023-08-10 11:41:38.465695,40.0
2023-08-10 11:41:38.473385,33.0
2023-08-10 11:41:38.481075,35.0
2023-08-10 11:41:38.488764,43.0
2023-08-10 11:41:38.496454,38.0
2023-08-10 11:41:38.504144,28.0
2023-08-10 11:41:38.511833,26.0
2023-08-10 11:41:38.519523,31.0
2023-08-10 11:41:38.527213,28.0
2023-08-10 11:41:38.534903,21.0
2023-08-10 11:41:38.542592,14.0
2023-08-10 11:41:38.550282,16.0
2023-08-10 11:41:38.557972,23.0
2023-08-10 11:41:38.565661,21.0
2023-08-10 11:41:38.573351,9.0
2023-08-10 11:41:38.581041,4.0
2023-08-10 11:41:38.588731,4.0
2023-08-10 11:41:38.596420,2.0
2023-08-10 11:41:38.604110,7.0
2023-08-10 11:41:38.611800,4.0
2023-08-10 11:41:38.619489,-2.0
2023-08-10 11:41:38.627179,2.0
2023-08-10 11:41:38.634869,0.0
2023-08-10 11:41:38.642559,-14.0
2023-08-10 11:41:38.650248,-11.0
2023-08-10 11:41:38.657938,4.0
2023-08-10 11:41:38.665628,4.0
2023-08-10 11:41:38.673317,-9.0
2023-08-10 11:41:38.681007,-11.0
2023-08-10 11:41:38.688697,-11.0
2023-08-10 11:41:38.696387,-11.0
2023-08-10 11:41:38.704076,-7.0
2023-08-10 11:41:38.711766,-2.0
2023-08-10 11:41:38.719456,-2.0
2023-08-10 11:41:38.727145,-2.0
2023-08-10 11:41:38.734835,-4.0
2023-08-10 11:41:38.742525,-11.0
2023-08-10 11:41:38.750215,-9.0
2023-08-10 11:41:38.757904,-4.0
2023-08-10 11:41:38.765594,-14.0
2023-08-10 11:41:38.773284,-19.0
2023-08-10 11:41:38.780973,-9.0
2023-08-10 11:41:38.788663,-2.0
2023-08-10 11:41:38.796353,-9.0
2023-08-10 11:41:38.804043,-14.0
2023-08-10 11:41:38.811732,-19.0
2023-08-10 11:41:38.819422,-21.0
2023-08-10 11:41:38.827112,-31.0
2023-08-10 11:41:38.834801,-47.0
2023-08-10 11:41:38.842491,-47.0
2023-08-10 11:41:38.850181,-35.0
2023-08-10 11:41:38.857871,-33.0
2023-08-10 11:41:38.865560,-38.0
2023-08-10 11:41:38.873250,-33.0
2023-08-10 11:41:38.880940,-26.0
2023-08-10 11:41:38.888629,-11.0
2023-08-10 11:41:38.896319,-4.0
2023-08-10 11:41:38.904009,-14.0
2023-08-10 11:41:38.911699,-26.0
2023-08-10 11:41:38.919388,-26.0
2023-08-10 11:41:38.927078,-21.0
2023-08-10 11:41:38.934768,-19.0
2023-08-10 11:41:38.942457,-16.0
2023-08-10 11:41:38.950147,-23.0
2023-08-10 11:41:38.957837,-57.0
2023-08-10 11:41:38.965527,-193.0
2023-08-10 11:41:38.973216,-423.0
2023-08-10 11:41:38.980906,-624.0
2023-08-10 11:41:38.988596,-693.0
2023-08-10 11:41:38.996285,-502.0
2023-08-10 11:41:39.003975,-100.0
2023-08-10 11:41:39.011665,124.0
2023-08-10 11:41:39.019355,31.0
2023-08-10 11:41:39.027044,-55.0
2023-08-10 11:41:39.034734,9.0
2023-08-10 11:41:39.042424,35.0
2023-08-10 11:41:39.050113,-2.0
2023-08-10 11:41:39.057803,-2.0
2023-08-10 11:41:39.065493,0.0
2023-08-10 11:41:39.073183,-11.0
2023-08-10 11:41:39.080872,-16.0
2023-08-10 11:41:39.088562,-19.0
2023-08-10 11:41:39.096252,-26.0
2023-08-10 11:41:39.103941,-38.0
2023-08-10 11:41:39.111631,-47.0
2023-08-10 11:41:39.119321,-47.0
2023-08-10 11:41:39.127010,-50.0
2023-08-10 11:41:39.134700,-62.0
2023-08-10 11:41:39.142390,-71.0
2023-08-10 11:41:39.150080,-76.0
2023-08-10 11:41:39.157769,-90.0
2023-08-10 11:41:39.165459,-102.0
2023-08-10 11:41:39.173149,-110.0
2023-08-10 11:41:39.180838,-129.0
2023-08-10 11:41:39.188528,-150.0
2023-08-10 11:41:39.196218,-167.0
2023-08-10 11:41:39.203908,-189.0
2023-08-10 11:41:39.211597,-205.0
2023-08-10 11:41:39.219287,-222.0
2023-08-10 11:41:39.226977,-251.0
2023-08-10 11:41:39.234666,-263.0
2023-08-10 11:41:39.242356,-263.0
2023-08-10 11:41:39.250046,-272.0
2023-08-10 11:41:39.257736,-263.0
2023-08-10 11:41:39.265425,-222.0
2023-08-10 11:41:39.273115,-162.0
2023-08-10 11:41:39.280805,-105.0
2023-08-10 11:41:39.288494,-47.0
2023-08-10 11:41:39.296184,2.0
2023-08-10 11:41:39.303874,35.0
2023-08-10 11:41:39.311564,45.0
2023-08-10 11:41:39.319253,47.0
2023-08-10 11:41:39.326943,55.0
2023-08-10 11:41:39.334633,62.0
2023-08-10 11:41:39.342322,64.0
2023-08-10 11:41:39.350012,62.0
2023-08-10 11:41:39.357702,55.0
2023-08-10 11:41:39.365392,52.0
2023-08-10 11:41:39.373081,47.0
2023-08-10 11:41:39.380771,43.0
2023-08-10 11:41:39.388461,52.0
2023-08-10 11:41:39.396150,52.0
2023-08-10 11:41:39.403840,38.0
2023-08-10 11:41:39.411530,33.0
2023-08-10 11:41:39.419220,40.0
2023-08-10 11:41:39.426909,33.0
2023-08-10 11:41:39.434599,26.0
2023-08-10 11:41:39.442289,31.0
2023-08-10 11:41:39.449978,28.0
2023-08-10 11:41:39.457668,19.0
2023-08-10 11:41:39.465358,21.0
2023-08-10 11:41:39.473048,26.0
2023-08-10 11:41:39.480737,21.0
2023-08-10 11:41:39.488427,16.0
2023-08-10 11:41:39.496117,16.0
2023-08-10 11:41:39.503806,14.0
2023-08-10 11:41:39.511496,16.0
2023-08-10 11:41:39.519186,21.0
2023-08-10 11:41:39.526876,16.0
2023-08-10 11:41:39.534565,9.0
2023-08-10 11:41:39.542255,0.0
2023-08-10 11:41:39.549945,-7.0
2023-08-10 11:41:39.557634,-9.0
2023-08-10 11:41:39.565324,-4.0
2023-08-10 11:41:39.573014,0.0
2023-08-10 11:41:39.580704,-4.0
2023-08-10 11:41:39.588393,-11.0
2023-08-10 11:41:39.596083,-9.0
2023-08-10 11:41:39.603773,-4.0
2023-08-10 11:41:39.611462,-7.0
2023-08-10 11:41:39.619152,-9.0
2023-08-10 11:41:39.626842,-14.0
2023-08-10 11:41:39.634532,-16.0
2023-08-10 11:41:39.642221,-19.0
2023-08-10 11:41:39.649911,-23.0
2023-08-10 11:41:39.657601,-23.0
2023-08-10 11:41:39.665290,-11.0
2023-08-10 11:41:39.672980,-9.0
2023-08-10 11:41:39.680670,-19.0
2023-08-10 11:41:39.688360,-21.0
2023-08-10 11:41:39.696049,-19.0
2023-08-10 11:41:39.703739,-16.0
2023-08-10 11:41:39.711429,-16.0
2023-08-10 11:41:39.719118,-23.0
2023-08-10 11:41:39.726808,-28.0
2023-08-10 11:41:39.734498,-26.0
2023-08-10 11:41:39.742188,-38.0
2023-08-10 11:41:39.749877,-50.0
2023-08-10 11:41:39.757567,-47.0
2023-08-10 11:41:39.765257,-40.0
2023-08-10 11:41:39.772946,-40.0
2023-08-10 11:41:39.780636,-31.0
2023-08-10 11:41:39.788326,-19.0
2023-08-10 11:41:39.796016,-14.0
2023-08-10 11:41:39.803705,-19.0
2023-08-10 11:41:39.811395,-23.0
2023-08-10 11:41:39.819085,-19.0
2023-08-10 11:41:39.826774,-14.0
2023-08-10 11:41:39.834464,-21.0
2023-08-10 11:41:39.842154,-26.0
2023-08-10 11:41:39.849843,-21.0
2023-08-10 11:41:39.857533,-35.0
2023-08-10 11:41:39.865223,-150.0
2023-08-10 11:41:39.872913,-380.0
2023-08-10 11:41:39.880602,-602.0
2023-08-10 11:41:39.888292,-705.0
2023-08-10 11:41:39.895982,-545.0
2023-08-10 11:41:39.903671,-131.0
2023-08-10 11:41:39.911361,141.0
2023-08-10 11:41:39.919051,76.0
2023-08-10 11:41:39.926741,-26.0
2023-08-10 11:41:39.934430,9.0
2023-08-10 11:41:39.942120,38.0
2023-08-10 11:41:39.949810,16.0
2023-08-10 11:41:39.957499,14.0
2023-08-10 11:41:39.965189,21.0
2023-08-10 11:41:39.972879,11.0
2023-08-10 11:41:39.980569,0.0
2023-08-10 11:41:39.988258,-9.0
2023-08-10 11:41:39.995948,-11.0
2023-08-10 11:41:40.003638,-11.0
2023-08-10 11:41:40.011327,-11.0
2023-08-10 11:41:40.019017,-23.0
2023-08-10 11:41:40.026707,-33.0
2023-08-10 11:41:40.034397,-45.0
2023-08-10 11:41:40.042086,-66.0
2023-08-10 11:41:40.049776,-83.0
2023-08-10 11:41:40.057466,-86.0
2023-08-10 11:41:40.065155,-88.0
2023-08-10 11:41:40.072845,-107.0
2023-08-10 11:41:40.080535,-124.0
2023-08-10 11:41:40.088225,-133.0
2023-08-10 11:41:40.095914,-150.0
2023-08-10 11:41:40.103604,-174.0
2023-08-10 11:41:40.111294,-193.0
2023-08-10 11:41:40.118983,-205.0
2023-08-10 11:41:40.126673,-224.0
2023-08-10 11:41:40.134363,-248.0
2023-08-10 11:41:40.142053,-270.0
2023-08-10 11:41:40.149742,-277.0
2023-08-10 11:41:40.157432,-263.0
2023-08-10 11:41:40.165122,-227.0
2023-08-10 11:41:40.172811,-169.0
2023-08-10 11:41:40.180501,-100.0
2023-08-10 11:41:40.188191,-47.0
2023-08-10 11:41:40.195881,-16.0
2023-08-10 11:41:40.203570,21.0
2023-08-10 11:41:40.211260,43.0
2023-08-10 11:41:40.218950,45.0
2023-08-10 11:41:40.226639,50.0
2023-08-10 11:41:40.234329,52.0
2023-08-10 11:41:40.242019,45.0
2023-08-10 11:41:40.249709,47.0
2023-08-10 11:41:40.257398,40.0
2023-08-10 11:41:40.265088,33.0
2023-08-10 11:41:40.272778,40.0
2023-08-10 11:41:40.280467,40.0
2023-08-10 11:41:40.288157,33.0
2023-08-10 11:41:40.295847,26.0
2023-08-10 11:41:40.303537,19.0
2023-08-10 11:41:40.311226,14.0
2023-08-10 11:41:40.318916,11.0
2023-08-10 11:41:40.326606,11.0
2023-08-10 11:41:40.334295,9.0
2023-08-10 11:41:40.341985,4.0
2023-08-10 11:41:40.349675,4.0
2023-08-10 11:41:40.357365,11.0
2023-08-10 11:41:40.365054,7.0
2023-08-10 11:41:40.372744,4.0
2023-08-10 11:41:40.380434,11.0
2023-08-10 11:41:40.388123,9.0
2023-08-10 11:41:40.395813,0.0
2023-08-10 11:41:40.403503,-2.0
2023-08-10 11:41:40.411193,-2.0
2023-08-10 11:41:40.418882,-7.0
2023-08-10 11:41:40.426572,-11.0
2023-08-10 11:41:40.434262,-7.0
2023-08-10 11:41:40.441951,-2.0
2023-08-10 11:41:40.449641,0.0
2023-08-10 11:41:40.457331,2.0
2023-08-10 11:41:40.465021,0.0
2023-08-10 11:41:40.472710,-4.0
2023-08-10 11:41:40.480400,-7.0
2023-08-10 11:41:40.488090,-9.0
2023-08-10 11:41:40.495779,-11.0
2023-08-10 11:41:40.503469,-9.0
2023-08-10 11:41:40.511159,-9.0
2023-08-10 11:41:40.518848,-19.0
2023-08-10 11:41:40.526538,-21.0
2023-08-10 11:41:40.534228,-11.0
2023-08-10 11:41:40.541918,-14.0
2023-08-10 11:41:40.549607,-14.0
2023-08-10 11:41:40.557297,-11.0
2023-08-10 11:41:40.564987,-19.0
2023-08-10 11:41:40.572676,-31.0
2023-08-10 11:41:40.580366,-35.0
2023-08-10 11:41:40.588056,-33.0
2023-08-10 11:41:40.595746,-31.0
2023-08-10 11:41:40.603435,-33.0
2023-08-10 11:41:40.611125,-35.0
2023-08-10 11:41:40.618815,-35.0
2023-08-10 11:41:40.626504,-35.0
2023-08-10 11:41:40.634194,-38.0
2023-08-10 11:41:40.641884,-43.0
2023-08-10 11:41:40.649574,-40.0
2023-08-10 11:41:40.657263,-31.0
2023-08-10 11:41:40.664953,-35.0
2023-08-10 11:41:40.672643,-43.0
2023-08-10 11:41:40.680332,-35.0
2023-08-10 11:41:40.688022,-38.0
2023-08-10 11:41:40.695712,-57.0
2023-08-10 11:41:40.703402,-64.0
2023-08-10 11:41:40.711091,-64.0
2023-08-10 11:41:40.718781,-66.0
2023-08-10 11:41:40.726471,-64.0
2023-08-10 11:41:40.734160,-52.0
2023-08-10 11:41:40.741850,-40.0
2023-08-10 11:41:40.749540,-33.0
2023-08-10 11:41:40.757230,-26.0
2023-08-10 11:41:40.764919,-23.0
2023-08-10 11:41:40.772609,-28.0
2023-08-10 11:41:40.780299,-31.0
2023-08-10 11:41:40.787988,-33.0
2023-08-10 11:41:40.795678,-35.0
2023-08-10 11:41:40.803368,-35.0
2023-08-10 11:41:40.811058,-31.0
2023-08-10 11:41:40.818747,-40.0
2023-08-10 11:41:40.826437,-136.0
2023-08-10 11:41:40.834127,-346.0
2023-08-10 11:41:40.841816,-579.0
2023-08-10 11:41:40.849506,-724.0
2023-08-10 11:41:40.857196,-614.0
2023-08-10 11:41:40.864886,-203.0
2023-08-10 11:41:40.872575,114.0
2023-08-10 11:41:40.880265,69.0
2023-08-10 11:41:40.887955,-47.0
2023-08-10 11:41:40.895644,-4.0
2023-08-10 11:41:40.903334,35.0
2023-08-10 11:41:40.911024,2.0
2023-08-10 11:41:40.918714,2.0
2023-08-10 11:41:40.926403,16.0
2023-08-10 11:41:40.934093,2.0
2023-08-10 11:41:40.941783,-7.0
2023-08-10 11:41:40.949472,-4.0
2023-08-10 11:41:40.957162,-11.0
2023-08-10 11:41:40.964852,-23.0
2023-08-10 11:41:40.972542,-23.0
2023-08-10 11:41:40.980231,-28.0
2023-08-10 11:41:40.987921,-40.0
2023-08-10 11:41:40.995611,-50.0
2023-08-10 11:41:41.003300,-52.0
2023-08-10 11:41:41.010990,-57.0
2023-08-10 11:41:41.018680,-76.0
2023-08-10 11:41:41.026370,-93.0
2023-08-10 11:41:41.034059,-98.0
2023-08-10 11:41:41.041749,-107.0
2023-08-10 11:41:41.049439,-126.0
2023-08-10 11:41:41.057128,-148.0
2023-08-10 11:41:41.064818,-169.0
2023-08-10 11:41:41.072508,-186.0
2023-08-10 11:41:41.080198,-203.0
2023-08-10 11:41:41.087887,-222.0
2023-08-10 11:41:41.095577,-241.0
2023-08-10 11:41:41.103267,-258.0
2023-08-10 11:41:41.110956,-265.0
2023-08-10 11:41:41.118646,-260.0
2023-08-10 11:41:41.126336,-236.0
2023-08-10 11:41:41.134026,-189.0
2023-08-10 11:41:41.141715,-131.0
2023-08-10 11:41:41.149405,-71.0
2023-08-10 11:41:41.157095,-26.0
2023-08-10 11:41:41.164784,0.0
2023-08-10 11:41:41.172474,21.0
2023-08-10 11:41:41.180164,35.0
2023-08-10 11:41:41.187854,45.0
2023-08-10 11:41:41.195543,47.0
2023-08-10 11:41:41.203233,43.0
2023-08-10 11:41:41.210923,40.0
2023-08-10 11:41:41.218612,40.0
2023-08-10 11:41:41.226302,35.0
2023-08-10 11:41:41.233992,31.0
2023-08-10 11:41:41.241681,28.0
2023-08-10 11:41:41.249371,21.0
2023-08-10 11:41:41.257061,16.0
2023-08-10 11:41:41.264751,16.0
2023-08-10 11:41:41.272440,14.0
2023-08-10 11:41:41.280130,14.0
2023-08-10 11:41:41.287820,16.0
2023-08-10 11:41:41.295509,11.0
2023-08-10 11:41:41.303199,9.0
2023-08-10 11:41:41.310889,9.0
2023-08-10 11:41:41.318579,4.0
2023-08-10 11:41:41.326268,0.0
2023-08-10 11:41:41.333958,-2.0
2023-08-10 11:41:41.341648,-2.0
2023-08-10 11:41:41.349337,0.0
2023-08-10 11:41:41.357027,2.0
2023-08-10 11:41:41.364717,-2.0
2023-08-10 11:41:41.372407,-4.0
2023-08-10 11:41:41.380096,-7.0
2023-08-10 11:41:41.387786,-9.0
2023-08-10 11:41:41.395476,-7.0
2023-08-10 11:41:41.403165,-2.0
2023-08-10 11:41:41.410855,-11.0
2023-08-10 11:41:41.418545,-16.0
2023-08-10 11:41:41.426235,-11.0
2023-08-10 11:41:41.433924,-9.0
2023-08-10 11:41:41.441614,-9.0
2023-08-10 11:41:41.449304,-9.0
2023-08-10 11:41:41.456993,-11.0
2023-08-10 11:41:41.464683,-11.0
2023-08-10 11:41:41.472373,-19.0
2023-08-10 11:41:41.480063,-19.0
2023-08-10 11:41:41.487752,-11.0
2023-08-10 11:41:41.495442,-11.0
2023-08-10 11:41:41.503132,-16.0
2023-08-10 11:41:41.510821,-21.0
2023-08-10 11:41:41.518511,-21.0
2023-08-10 11:41:41.526201,-21.0
2023-08-10 11:41:41.533891,-23.0
2023-08-10 11:41:41.541580,-28.0
2023-08-10 11:41:41.549270,-23.0
2023-08-10 11:41:41.556960,-21.0
2023-08-10 11:41:41.564649,-23.0
2023-08-10 11:41:41.572339,-28.0
2023-08-10 11:41:41.580029,-33.0
2023-08-10 11:41:41.587719,-33.0
2023-08-10 11:41:41.595408,-31.0
2023-08-10 11:41:41.603098,-28.0
2023-08-10 11:41:41.610788,-28.0
2023-08-10 11:41:41.618477,-26.0
2023-08-10 11:41:41.626167,-23.0
2023-08-10 11:41:41.633857,-26.0
2023-08-10 11:41:41.641547,-33.0
2023-08-10 11:41:41.649236,-40.0
2023-08-10 11:41:41.656926,-43.0
2023-08-10 11:41:41.664616,-45.0
2023-08-10 11:41:41.672305,-62.0
2023-08-10 11:41:41.679995,-71.0
2023-08-10 11:41:41.687685,-59.0
2023-08-10 11:41:41.695375,-57.0
2023-08-10 11:41:41.703064,-76.0
2023-08-10 11:41:41.710754,-81.0
2023-08-10 11:41:41.718444,-57.0
2023-08-10 11:41:41.726133,-45.0
2023-08-10 11:41:41.733823,-45.0
2023-08-10 11:41:41.741513,-50.0
2023-08-10 11:41:41.749203,-50.0
2023-08-10 11:41:41.756892,-47.0
2023-08-10 11:41:41.764582,-47.0
2023-08-10 11:41:41.772272,-47.0
2023-08-10 11:41:41.779961,-50.0
2023-08-10 11:41:41.787651,-57.0
2023-08-10 11:41:41.795341,-52.0
2023-08-10 11:41:41.803031,-102.0
2023-08-10 11:41:41.810720,-287.0
2023-08-10 11:41:41.818410,-528.0
2023-08-10 11:41:41.826100,-708.0
2023-08-10 11:41:41.833789,-703.0
2023-08-10 11:41:41.841479,-394.0
2023-08-10 11:41:41.849169,11.0
2023-08-10 11:41:41.856859,112.0
2023-08-10 11:41:41.864548,-14.0
2023-08-10 11:41:41.872238,-45.0
2023-08-10 11:41:41.879928,7.0
2023-08-10 11:41:41.887617,2.0
2023-08-10 11:41:41.895307,-11.0
2023-08-10 11:41:41.902997,-2.0
2023-08-10 11:41:41.910686,-2.0
2023-08-10 11:41:41.918376,-14.0
2023-08-10 11:41:41.926066,-21.0
2023-08-10 11:41:41.933756,-26.0
2023-08-10 11:41:41.941445,-26.0
2023-08-10 11:41:41.949135,-28.0
2023-08-10 11:41:41.956825,-38.0
2023-08-10 11:41:41.964514,-52.0
2023-08-10 11:41:41.972204,-59.0
2023-08-10 11:41:41.979894,-64.0
2023-08-10 11:41:41.987584,-71.0
2023-08-10 11:41:41.995273,-81.0
2023-08-10 11:41:42.002963,-93.0
2023-08-10 11:41:42.010653,-112.0
2023-08-10 11:41:42.018342,-133.0
2023-08-10 11:41:42.026032,-143.0
2023-08-10 11:41:42.033722,-143.0
2023-08-10 11:41:42.041412,-165.0
2023-08-10 11:41:42.049101,-196.0
2023-08-10 11:41:42.056791,-217.0
2023-08-10 11:41:42.064481,-236.0
2023-08-10 11:41:42.072170,-258.0
2023-08-10 11:41:42.079860,-270.0
2023-08-10 11:41:42.087550,-284.0
2023-08-10 11:41:42.095240,-291.0
2023-08-10 11:41:42.102929,-272.0
2023-08-10 11:41:42.110619,-224.0
2023-08-10 11:41:42.118309,-165.0
2023-08-10 11:41:42.125998,-105.0
2023-08-10 11:41:42.133688,-55.0
2023-08-10 11:41:42.141378,-9.0
2023-08-10 11:41:42.149068,23.0
2023-08-10 11:41:42.156757,40.0
2023-08-10 11:41:42.164447,50.0
2023-08-10 11:41:42.172137,55.0
2023-08-10 11:41:42.179826,55.0
2023-08-10 11:41:42.187516,55.0
2023-08-10 11:41:42.195206,57.0
2023-08-10 11:41:42.202896,47.0
2023-08-10 11:41:42.210585,35.0
2023-08-10 11:41:42.218275,38.0
2023-08-10 11:41:42.225965,45.0
2023-08-10 11:41:42.233654,38.0
2023-08-10 11:41:42.241344,33.0
2023-08-10 11:41:42.249034,33.0
2023-08-10 11:41:42.256724,31.0
2023-08-10 11:41:42.264413,26.0
2023-08-10 11:41:42.272103,21.0
2023-08-10 11:41:42.279793,19.0
2023-08-10 11:41:42.287482,9.0
2023-08-10 11:41:42.295172,2.0
2023-08-10 11:41:42.302862,2.0
2023-08-10 11:41:42.310552,0.0
2023-08-10 11:41:42.318241,-7.0
2023-08-10 11:41:42.325931,-2.0
2023-08-10 11:41:42.333621,7.0
2023-08-10 11:41:42.341310,0.0
2023-08-10 11:41:42.349000,-4.0
2023-08-10 11:41:42.356690,2.0
2023-08-10 11:41:42.364380,0.0
2023-08-10 11:41:42.372069,-4.0
2023-08-10 11:41:42.379759,0.0
2023-08-10 11:41:42.387449,7.0
2023-08-10 11:41:42.395138,2.0
2023-08-10 11:41:42.402828,0.0
2023-08-10 11:41:42.410518,0.0
2023-08-10 11:41:42.418208,-2.0
2023-08-10 11:41:42.425897,-9.0
2023-08-10 11:41:42.433587,-7.0
2023-08-10 11:41:42.441277,2.0
2023-08-10 11:41:42.448966,2.0
2023-08-10 11:41:42.456656,-4.0
2023-08-10 11:41:42.464346,-7.0
2023-08-10 11:41:42.472036,-7.0
2023-08-10 11:41:42.479725,-7.0
2023-08-10 11:41:42.487415,-7.0
2023-08-10 11:41:42.495105,-4.0
2023-08-10 11:41:42.502794,-9.0
2023-08-10 11:41:42.510484,-16.0
2023-08-10 11:41:42.518174,-11.0
2023-08-10 11:41:42.525864,-7.0
2023-08-10 11:41:42.533553,-11.0
2023-08-10 11:41:42.541243,-16.0
2023-08-10 11:41:42.548933,-14.0
2023-08-10 11:41:42.556622,-11.0
2023-08-10 11:41:42.564312,-11.0
2023-08-10 11:41:42.572002,-14.0
2023-08-10 11:41:42.579692,-11.0
2023-08-10 11:41:42.587381,-11.0
2023-08-10 11:41:42.595071,-16.0
2023-08-10 11:41:42.602761,-11.0
2023-08-10 11:41:42.610450,-9.0
2023-08-10 11:41:42.618140,-16.0
