time,ECG
2023-08-12 14:25:15.727566,-88.0
2023-08-12 14:25:15.735256,-83.0
2023-08-12 14:25:15.742946,-85.0
2023-08-12 14:25:15.750636,-83.0
2023-08-12 14:25:15.758326,-78.0
2023-08-12 14:25:15.766016,-76.0
2023-08-12 14:25:15.773706,-76.0
2023-08-12 14:25:15.781396,-73.0
2023-08-12 14:25:15.789086,-76.0
2023-08-12 14:25:15.796776,-73.0
2023-08-12 14:25:15.804466,-64.0
2023-08-12 14:25:15.812156,-61.0
2023-08-12 14:25:15.819846,-59.0
2023-08-12 14:25:15.827536,-49.0
2023-08-12 14:25:15.835226,-38.0
2023-08-12 14:25:15.842916,-33.0
2023-08-12 14:25:15.850606,-33.0
2023-08-12 14:25:15.858296,-35.0
2023-08-12 14:25:15.865986,-40.0
2023-08-12 14:25:15.873676,-49.0
2023-08-12 14:25:15.881366,-59.0
2023-08-12 14:25:15.889055,-64.0
2023-08-12 14:25:15.896745,-73.0
2023-08-12 14:25:15.904435,-76.0
2023-08-12 14:25:15.912125,-69.0
2023-08-12 14:25:15.919815,-69.0
2023-08-12 14:25:15.927505,-69.0
2023-08-12 14:25:15.935195,-69.0
2023-08-12 14:25:15.942885,-57.0
2023-08-12 14:25:15.950575,33.0
2023-08-12 14:25:15.958265,254.0
2023-08-12 14:25:15.965955,504.0
2023-08-12 14:25:15.973645,495.0
2023-08-12 14:25:15.981335,149.0
2023-08-12 14:25:15.989025,-164.0
2023-08-12 14:25:15.996715,-185.0
2023-08-12 14:25:16.004405,-147.0
2023-08-12 14:25:16.012095,-166.0
2023-08-12 14:25:16.019785,-119.0
2023-08-12 14:25:16.027475,-66.0
2023-08-12 14:25:16.035165,-78.0
2023-08-12 14:25:16.042855,-80.0
2023-08-12 14:25:16.050545,-69.0
2023-08-12 14:25:16.058235,-73.0
2023-08-12 14:25:16.065925,-71.0
2023-08-12 14:25:16.073615,-57.0
2023-08-12 14:25:16.081305,-49.0
2023-08-12 14:25:16.088995,-42.0
2023-08-12 14:25:16.096685,-35.0
2023-08-12 14:25:16.104375,-26.0
2023-08-12 14:25:16.112064,-19.0
2023-08-12 14:25:16.119754,-7.0
2023-08-12 14:25:16.127444,2.0
2023-08-12 14:25:16.135134,11.0
2023-08-12 14:25:16.142824,23.0
2023-08-12 14:25:16.150514,40.0
2023-08-12 14:25:16.158204,57.0
2023-08-12 14:25:16.165894,71.0
2023-08-12 14:25:16.173584,85.0
2023-08-12 14:25:16.181274,97.0
2023-08-12 14:25:16.188964,99.0
2023-08-12 14:25:16.196654,95.0
2023-08-12 14:25:16.204344,85.0
2023-08-12 14:25:16.212034,61.0
2023-08-12 14:25:16.219724,28.0
2023-08-12 14:25:16.227414,-9.0
2023-08-12 14:25:16.235104,-49.0
2023-08-12 14:25:16.242794,-85.0
2023-08-12 14:25:16.250484,-114.0
2023-08-12 14:25:16.258174,-133.0
2023-08-12 14:25:16.265864,-140.0
2023-08-12 14:25:16.273554,-145.0
2023-08-12 14:25:16.281244,-147.0
2023-08-12 14:25:16.288934,-147.0
2023-08-12 14:25:16.296624,-142.0
2023-08-12 14:25:16.304314,-140.0
2023-08-12 14:25:16.312004,-138.0
2023-08-12 14:25:16.319694,-138.0
2023-08-12 14:25:16.327384,-135.0
2023-08-12 14:25:16.335073,-128.0
2023-08-12 14:25:16.342763,-121.0
2023-08-12 14:25:16.350453,-116.0
2023-08-12 14:25:16.358143,-111.0
2023-08-12 14:25:16.365833,-114.0
2023-08-12 14:25:16.373523,-107.0
2023-08-12 14:25:16.381213,-95.0
2023-08-12 14:25:16.388903,-90.0
2023-08-12 14:25:16.396593,-92.0
2023-08-12 14:25:16.404283,-90.0
2023-08-12 14:25:16.411973,-88.0
2023-08-12 14:25:16.419663,-95.0
2023-08-12 14:25:16.427353,-90.0
2023-08-12 14:25:16.435043,-83.0
2023-08-12 14:25:16.442733,-83.0
2023-08-12 14:25:16.450423,-83.0
2023-08-12 14:25:16.458113,-83.0
2023-08-12 14:25:16.465803,-85.0
2023-08-12 14:25:16.473493,-85.0
2023-08-12 14:25:16.481183,-80.0
2023-08-12 14:25:16.488873,-80.0
2023-08-12 14:25:16.496563,-80.0
2023-08-12 14:25:16.504253,-76.0
2023-08-12 14:25:16.511943,-76.0
2023-08-12 14:25:16.519633,-83.0
2023-08-12 14:25:16.527323,-80.0
2023-08-12 14:25:16.535013,-71.0
2023-08-12 14:25:16.542703,-71.0
2023-08-12 14:25:16.550393,-78.0
2023-08-12 14:25:16.558082,-73.0
2023-08-12 14:25:16.565772,-66.0
2023-08-12 14:25:16.573462,-66.0
2023-08-12 14:25:16.581152,-69.0
2023-08-12 14:25:16.588842,-66.0
2023-08-12 14:25:16.596532,-64.0
2023-08-12 14:25:16.604222,-64.0
2023-08-12 14:25:16.611912,-64.0
2023-08-12 14:25:16.619602,-61.0
2023-08-12 14:25:16.627292,-59.0
2023-08-12 14:25:16.634982,-61.0
2023-08-12 14:25:16.642672,-69.0
2023-08-12 14:25:16.650362,-69.0
2023-08-12 14:25:16.658052,-69.0
2023-08-12 14:25:16.665742,-64.0
2023-08-12 14:25:16.673432,-54.0
2023-08-12 14:25:16.681122,-54.0
2023-08-12 14:25:16.688812,-52.0
2023-08-12 14:25:16.696502,-38.0
2023-08-12 14:25:16.704192,-26.0
2023-08-12 14:25:16.711882,-26.0
2023-08-12 14:25:16.719572,-35.0
2023-08-12 14:25:16.727262,-45.0
2023-08-12 14:25:16.734952,-49.0
2023-08-12 14:25:16.742642,-47.0
2023-08-12 14:25:16.750332,-52.0
2023-08-12 14:25:16.758022,-64.0
2023-08-12 14:25:16.765712,-78.0
2023-08-12 14:25:16.773402,-85.0
2023-08-12 14:25:16.781092,-83.0
2023-08-12 14:25:16.788781,-73.0
2023-08-12 14:25:16.796471,-66.0
2023-08-12 14:25:16.804161,-69.0
2023-08-12 14:25:16.811851,-59.0
2023-08-12 14:25:16.819541,28.0
2023-08-12 14:25:16.827231,240.0
2023-08-12 14:25:16.834921,478.0
2023-08-12 14:25:16.842611,487.0
2023-08-12 14:25:16.850301,176.0
2023-08-12 14:25:16.857991,-142.0
2023-08-12 14:25:16.865681,-190.0
2023-08-12 14:25:16.873371,-147.0
2023-08-12 14:25:16.881061,-154.0
2023-08-12 14:25:16.888751,-114.0
2023-08-12 14:25:16.896441,-69.0
2023-08-12 14:25:16.904131,-80.0
2023-08-12 14:25:16.911821,-83.0
2023-08-12 14:25:16.919511,-64.0
2023-08-12 14:25:16.927201,-59.0
2023-08-12 14:25:16.934891,-54.0
2023-08-12 14:25:16.942581,-47.0
2023-08-12 14:25:16.950271,-45.0
2023-08-12 14:25:16.957961,-40.0
2023-08-12 14:25:16.965651,-30.0
2023-08-12 14:25:16.973341,-21.0
2023-08-12 14:25:16.981031,-16.0
2023-08-12 14:25:16.988721,-9.0
2023-08-12 14:25:16.996411,0.0
2023-08-12 14:25:17.004101,11.0
2023-08-12 14:25:17.011790,23.0
2023-08-12 14:25:17.019480,35.0
2023-08-12 14:25:17.027170,52.0
2023-08-12 14:25:17.034860,66.0
2023-08-12 14:25:17.042550,73.0
2023-08-12 14:25:17.050240,78.0
2023-08-12 14:25:17.057930,85.0
2023-08-12 14:25:17.065620,85.0
2023-08-12 14:25:17.073310,78.0
2023-08-12 14:25:17.081000,59.0
2023-08-12 14:25:17.088690,30.0
2023-08-12 14:25:17.096380,-4.0
2023-08-12 14:25:17.104070,-42.0
2023-08-12 14:25:17.111760,-78.0
2023-08-12 14:25:17.119450,-102.0
2023-08-12 14:25:17.127140,-119.0
2023-08-12 14:25:17.134830,-130.0
2023-08-12 14:25:17.142520,-135.0
2023-08-12 14:25:17.150210,-138.0
2023-08-12 14:25:17.157900,-138.0
2023-08-12 14:25:17.165590,-133.0
2023-08-12 14:25:17.173280,-128.0
2023-08-12 14:25:17.180970,-130.0
2023-08-12 14:25:17.188660,-128.0
2023-08-12 14:25:17.196350,-121.0
2023-08-12 14:25:17.204040,-119.0
2023-08-12 14:25:17.211730,-116.0
2023-08-12 14:25:17.219420,-119.0
2023-08-12 14:25:17.227110,-116.0
2023-08-12 14:25:17.234799,-111.0
2023-08-12 14:25:17.242489,-109.0
2023-08-12 14:25:17.250179,-107.0
2023-08-12 14:25:17.257869,-104.0
2023-08-12 14:25:17.265559,-107.0
2023-08-12 14:25:17.273249,-104.0
2023-08-12 14:25:17.280939,-99.0
2023-08-12 14:25:17.288629,-102.0
2023-08-12 14:25:17.296319,-104.0
2023-08-12 14:25:17.304009,-99.0
2023-08-12 14:25:17.311699,-97.0
2023-08-12 14:25:17.319389,-99.0
2023-08-12 14:25:17.327079,-97.0
2023-08-12 14:25:17.334769,-95.0
2023-08-12 14:25:17.342459,-95.0
2023-08-12 14:25:17.350149,-95.0
2023-08-12 14:25:17.357839,-92.0
2023-08-12 14:25:17.365529,-90.0
2023-08-12 14:25:17.373219,-92.0
2023-08-12 14:25:17.380909,-88.0
2023-08-12 14:25:17.388599,-85.0
2023-08-12 14:25:17.396289,-85.0
2023-08-12 14:25:17.403979,-83.0
2023-08-12 14:25:17.411669,-78.0
2023-08-12 14:25:17.419359,-76.0
2023-08-12 14:25:17.427049,-80.0
2023-08-12 14:25:17.434739,-80.0
2023-08-12 14:25:17.442429,-76.0
2023-08-12 14:25:17.450119,-73.0
2023-08-12 14:25:17.457808,-76.0
2023-08-12 14:25:17.465498,-73.0
2023-08-12 14:25:17.473188,-69.0
2023-08-12 14:25:17.480878,-69.0
2023-08-12 14:25:17.488568,-69.0
2023-08-12 14:25:17.496258,-69.0
2023-08-12 14:25:17.503948,-71.0
2023-08-12 14:25:17.511638,-69.0
2023-08-12 14:25:17.519328,-64.0
2023-08-12 14:25:17.527018,-61.0
2023-08-12 14:25:17.534708,-64.0
2023-08-12 14:25:17.542398,-66.0
2023-08-12 14:25:17.550088,-64.0
2023-08-12 14:25:17.557778,-59.0
2023-08-12 14:25:17.565468,-61.0
2023-08-12 14:25:17.573158,-61.0
2023-08-12 14:25:17.580848,-54.0
2023-08-12 14:25:17.588538,-52.0
2023-08-12 14:25:17.596228,-57.0
2023-08-12 14:25:17.603918,-54.0
2023-08-12 14:25:17.611608,-52.0
2023-08-12 14:25:17.619298,-49.0
2023-08-12 14:25:17.626988,-45.0
2023-08-12 14:25:17.634678,-40.0
2023-08-12 14:25:17.642368,-35.0
2023-08-12 14:25:17.650058,-26.0
2023-08-12 14:25:17.657748,-16.0
2023-08-12 14:25:17.665438,-16.0
2023-08-12 14:25:17.673128,-23.0
2023-08-12 14:25:17.680818,-28.0
2023-08-12 14:25:17.688507,-30.0
2023-08-12 14:25:17.696197,-35.0
2023-08-12 14:25:17.703887,-47.0
2023-08-12 14:25:17.711577,-57.0
2023-08-12 14:25:17.719267,-66.0
2023-08-12 14:25:17.726957,-69.0
2023-08-12 14:25:17.734647,-61.0
2023-08-12 14:25:17.742337,-59.0
2023-08-12 14:25:17.750027,-64.0
2023-08-12 14:25:17.757717,-66.0
2023-08-12 14:25:17.765407,-2.0
2023-08-12 14:25:17.773097,188.0
2023-08-12 14:25:17.780787,428.0
2023-08-12 14:25:17.788477,504.0
2023-08-12 14:25:17.796167,271.0
2023-08-12 14:25:17.803857,-71.0
2023-08-12 14:25:17.811547,-197.0
2023-08-12 14:25:17.819237,-161.0
2023-08-12 14:25:17.826927,-149.0
2023-08-12 14:25:17.834617,-126.0
2023-08-12 14:25:17.842307,-88.0
2023-08-12 14:25:17.849997,-92.0
2023-08-12 14:25:17.857687,-95.0
2023-08-12 14:25:17.865377,-76.0
2023-08-12 14:25:17.873067,-71.0
2023-08-12 14:25:17.880757,-69.0
2023-08-12 14:25:17.888447,-59.0
2023-08-12 14:25:17.896137,-54.0
2023-08-12 14:25:17.903827,-52.0
2023-08-12 14:25:17.911516,-42.0
2023-08-12 14:25:17.919206,-33.0
2023-08-12 14:25:17.926896,-28.0
2023-08-12 14:25:17.934586,-19.0
2023-08-12 14:25:17.942276,-7.0
2023-08-12 14:25:17.949966,2.0
2023-08-12 14:25:17.957656,11.0
2023-08-12 14:25:17.965346,26.0
2023-08-12 14:25:17.973036,40.0
2023-08-12 14:25:17.980726,52.0
2023-08-12 14:25:17.988416,64.0
2023-08-12 14:25:17.996106,71.0
2023-08-12 14:25:18.003796,71.0
2023-08-12 14:25:18.011486,69.0
2023-08-12 14:25:18.019176,66.0
2023-08-12 14:25:18.026866,52.0
2023-08-12 14:25:18.034556,28.0
2023-08-12 14:25:18.042246,-2.0
2023-08-12 14:25:18.049936,-35.0
2023-08-12 14:25:18.057626,-69.0
2023-08-12 14:25:18.065316,-92.0
2023-08-12 14:25:18.073006,-111.0
2023-08-12 14:25:18.080696,-126.0
2023-08-12 14:25:18.088386,-138.0
2023-08-12 14:25:18.096076,-138.0
2023-08-12 14:25:18.103766,-135.0
2023-08-12 14:25:18.111456,-135.0
2023-08-12 14:25:18.119146,-130.0
2023-08-12 14:25:18.126836,-121.0
2023-08-12 14:25:18.134525,-116.0
2023-08-12 14:25:18.142215,-116.0
2023-08-12 14:25:18.149905,-114.0
2023-08-12 14:25:18.157595,-111.0
2023-08-12 14:25:18.165285,-109.0
2023-08-12 14:25:18.172975,-102.0
2023-08-12 14:25:18.180665,-95.0
2023-08-12 14:25:18.188355,-97.0
2023-08-12 14:25:18.196045,-99.0
2023-08-12 14:25:18.203735,-97.0
2023-08-12 14:25:18.211425,-92.0
2023-08-12 14:25:18.219115,-92.0
2023-08-12 14:25:18.226805,-90.0
2023-08-12 14:25:18.234495,-92.0
2023-08-12 14:25:18.242185,-99.0
2023-08-12 14:25:18.249875,-102.0
2023-08-12 14:25:18.257565,-99.0
2023-08-12 14:25:18.265255,-99.0
2023-08-12 14:25:18.272945,-102.0
2023-08-12 14:25:18.280635,-102.0
2023-08-12 14:25:18.288325,-99.0
2023-08-12 14:25:18.296015,-97.0
2023-08-12 14:25:18.303705,-97.0
2023-08-12 14:25:18.311395,-104.0
2023-08-12 14:25:18.319085,-102.0
2023-08-12 14:25:18.326775,-95.0
2023-08-12 14:25:18.334465,-95.0
2023-08-12 14:25:18.342155,-92.0
2023-08-12 14:25:18.349845,-102.0
2023-08-12 14:25:18.357534,-109.0
2023-08-12 14:25:18.365224,-102.0
2023-08-12 14:25:18.372914,-95.0
2023-08-12 14:25:18.380604,-99.0
2023-08-12 14:25:18.388294,-99.0
2023-08-12 14:25:18.395984,-102.0
2023-08-12 14:25:18.403674,-102.0
2023-08-12 14:25:18.411364,-95.0
2023-08-12 14:25:18.419054,-95.0
2023-08-12 14:25:18.426744,-97.0
2023-08-12 14:25:18.434434,-92.0
2023-08-12 14:25:18.442124,-92.0
2023-08-12 14:25:18.449814,-97.0
2023-08-12 14:25:18.457504,-90.0
2023-08-12 14:25:18.465194,-85.0
2023-08-12 14:25:18.472884,-85.0
2023-08-12 14:25:18.480574,-83.0
2023-08-12 14:25:18.488264,-78.0
2023-08-12 14:25:18.495954,-80.0
2023-08-12 14:25:18.503644,-88.0
2023-08-12 14:25:18.511334,-78.0
2023-08-12 14:25:18.519024,-73.0
2023-08-12 14:25:18.526714,-78.0
2023-08-12 14:25:18.534404,-78.0
2023-08-12 14:25:18.542094,-73.0
2023-08-12 14:25:18.549784,-73.0
2023-08-12 14:25:18.557474,-73.0
2023-08-12 14:25:18.565164,-66.0
2023-08-12 14:25:18.572854,-64.0
2023-08-12 14:25:18.580544,-71.0
2023-08-12 14:25:18.588233,-69.0
2023-08-12 14:25:18.595923,-59.0
2023-08-12 14:25:18.603613,-57.0
2023-08-12 14:25:18.611303,-59.0
2023-08-12 14:25:18.618993,-54.0
2023-08-12 14:25:18.626683,-42.0
2023-08-12 14:25:18.634373,-33.0
2023-08-12 14:25:18.642063,-28.0
2023-08-12 14:25:18.649753,-28.0
2023-08-12 14:25:18.657443,-35.0
2023-08-12 14:25:18.665133,-45.0
2023-08-12 14:25:18.672823,-52.0
2023-08-12 14:25:18.680513,-57.0
2023-08-12 14:25:18.688203,-61.0
2023-08-12 14:25:18.695893,-69.0
2023-08-12 14:25:18.703583,-76.0
2023-08-12 14:25:18.711273,-71.0
2023-08-12 14:25:18.718963,-66.0
2023-08-12 14:25:18.726653,-69.0
2023-08-12 14:25:18.734343,-78.0
2023-08-12 14:25:18.742033,-52.0
2023-08-12 14:25:18.749723,83.0
2023-08-12 14:25:18.757413,340.0
2023-08-12 14:25:18.765103,533.0
2023-08-12 14:25:18.772793,399.0
2023-08-12 14:25:18.780483,14.0
2023-08-12 14:25:18.788173,-204.0
2023-08-12 14:25:18.795863,-176.0
2023-08-12 14:25:18.803553,-161.0
2023-08-12 14:25:18.811242,-166.0
2023-08-12 14:25:18.818932,-99.0
2023-08-12 14:25:18.826622,-76.0
2023-08-12 14:25:18.834312,-102.0
2023-08-12 14:25:18.842002,-92.0
2023-08-12 14:25:18.849692,-69.0
2023-08-12 14:25:18.857382,-66.0
2023-08-12 14:25:18.865072,-61.0
2023-08-12 14:25:18.872762,-57.0
2023-08-12 14:25:18.880452,-57.0
2023-08-12 14:25:18.888142,-49.0
2023-08-12 14:25:18.895832,-42.0
2023-08-12 14:25:18.903522,-40.0
2023-08-12 14:25:18.911212,-30.0
2023-08-12 14:25:18.918902,-23.0
2023-08-12 14:25:18.926592,-14.0
2023-08-12 14:25:18.934282,2.0
2023-08-12 14:25:18.941972,19.0
2023-08-12 14:25:18.949662,30.0
2023-08-12 14:25:18.957352,49.0
2023-08-12 14:25:18.965042,71.0
2023-08-12 14:25:18.972732,85.0
2023-08-12 14:25:18.980422,90.0
2023-08-12 14:25:18.988112,88.0
2023-08-12 14:25:18.995802,80.0
2023-08-12 14:25:19.003492,64.0
2023-08-12 14:25:19.011182,42.0
2023-08-12 14:25:19.018872,21.0
2023-08-12 14:25:19.026562,-16.0
2023-08-12 14:25:19.034251,-61.0
2023-08-12 14:25:19.041941,-99.0
2023-08-12 14:25:19.049631,-126.0
2023-08-12 14:25:19.057321,-140.0
2023-08-12 14:25:19.065011,-149.0
2023-08-12 14:25:19.072701,-152.0
2023-08-12 14:25:19.080391,-152.0
2023-08-12 14:25:19.088081,-149.0
2023-08-12 14:25:19.095771,-147.0
2023-08-12 14:25:19.103461,-145.0
2023-08-12 14:25:19.111151,-140.0
2023-08-12 14:25:19.118841,-133.0
2023-08-12 14:25:19.126531,-126.0
2023-08-12 14:25:19.134221,-123.0
2023-08-12 14:25:19.141911,-121.0
2023-08-12 14:25:19.149601,-114.0
2023-08-12 14:25:19.157291,-114.0
2023-08-12 14:25:19.164981,-114.0
2023-08-12 14:25:19.172671,-111.0
2023-08-12 14:25:19.180361,-111.0
2023-08-12 14:25:19.188051,-102.0
2023-08-12 14:25:19.195741,-97.0
2023-08-12 14:25:19.203431,-102.0
2023-08-12 14:25:19.211121,-102.0
2023-08-12 14:25:19.218811,-95.0
2023-08-12 14:25:19.226501,-97.0
2023-08-12 14:25:19.234191,-104.0
2023-08-12 14:25:19.241881,-107.0
2023-08-12 14:25:19.249571,-107.0
2023-08-12 14:25:19.257260,-109.0
2023-08-12 14:25:19.264950,-109.0
2023-08-12 14:25:19.272640,-109.0
2023-08-12 14:25:19.280330,-109.0
2023-08-12 14:25:19.288020,-104.0
2023-08-12 14:25:19.295710,-104.0
2023-08-12 14:25:19.303400,-104.0
2023-08-12 14:25:19.311090,-92.0
2023-08-12 14:25:19.318780,-90.0
2023-08-12 14:25:19.326470,-92.0
2023-08-12 14:25:19.334160,-90.0
2023-08-12 14:25:19.341850,-88.0
2023-08-12 14:25:19.349540,-90.0
2023-08-12 14:25:19.357230,-88.0
2023-08-12 14:25:19.364920,-88.0
2023-08-12 14:25:19.372610,-88.0
2023-08-12 14:25:19.380300,-88.0
2023-08-12 14:25:19.387990,-85.0
2023-08-12 14:25:19.395680,-83.0
2023-08-12 14:25:19.403370,-83.0
2023-08-12 14:25:19.411060,-83.0
2023-08-12 14:25:19.418750,-83.0
2023-08-12 14:25:19.426440,-83.0
2023-08-12 14:25:19.434130,-85.0
2023-08-12 14:25:19.441820,-83.0
2023-08-12 14:25:19.449510,-80.0
2023-08-12 14:25:19.457200,-83.0
2023-08-12 14:25:19.464890,-80.0
2023-08-12 14:25:19.472580,-78.0
2023-08-12 14:25:19.480270,-80.0
2023-08-12 14:25:19.487959,-80.0
2023-08-12 14:25:19.495649,-71.0
2023-08-12 14:25:19.503339,-66.0
2023-08-12 14:25:19.511029,-69.0
2023-08-12 14:25:19.518719,-64.0
2023-08-12 14:25:19.526409,-49.0
2023-08-12 14:25:19.534099,-38.0
2023-08-12 14:25:19.541789,-33.0
2023-08-12 14:25:19.549479,-40.0
2023-08-12 14:25:19.557169,-52.0
2023-08-12 14:25:19.564859,-52.0
2023-08-12 14:25:19.572549,-52.0
2023-08-12 14:25:19.580239,-59.0
2023-08-12 14:25:19.587929,-69.0
2023-08-12 14:25:19.595619,-80.0
2023-08-12 14:25:19.603309,-83.0
2023-08-12 14:25:19.610999,-73.0
2023-08-12 14:25:19.618689,-73.0
2023-08-12 14:25:19.626379,-76.0
2023-08-12 14:25:19.634069,-76.0
2023-08-12 14:25:19.641759,-49.0
2023-08-12 14:25:19.649449,80.0
2023-08-12 14:25:19.657139,338.0
2023-08-12 14:25:19.664829,540.0
2023-08-12 14:25:19.672519,423.0
2023-08-12 14:25:19.680209,38.0
2023-08-12 14:25:19.687899,-199.0
2023-08-12 14:25:19.695589,-180.0
2023-08-12 14:25:19.703279,-157.0
2023-08-12 14:25:19.710968,-157.0
2023-08-12 14:25:19.718658,-99.0
2023-08-12 14:25:19.726348,-80.0
2023-08-12 14:25:19.734038,-99.0
2023-08-12 14:25:19.741728,-90.0
2023-08-12 14:25:19.749418,-76.0
2023-08-12 14:25:19.757108,-78.0
2023-08-12 14:25:19.764798,-71.0
2023-08-12 14:25:19.772488,-59.0
2023-08-12 14:25:19.780178,-57.0
2023-08-12 14:25:19.787868,-54.0
2023-08-12 14:25:19.795558,-45.0
2023-08-12 14:25:19.803248,-33.0
2023-08-12 14:25:19.810938,-21.0
2023-08-12 14:25:19.818628,-14.0
2023-08-12 14:25:19.826318,-7.0
2023-08-12 14:25:19.834008,4.0
2023-08-12 14:25:19.841698,21.0
2023-08-12 14:25:19.849388,35.0
2023-08-12 14:25:19.857078,49.0
2023-08-12 14:25:19.864768,66.0
2023-08-12 14:25:19.872458,80.0
2023-08-12 14:25:19.880148,83.0
2023-08-12 14:25:19.887838,83.0
2023-08-12 14:25:19.895528,80.0
2023-08-12 14:25:19.903218,71.0
2023-08-12 14:25:19.910908,47.0
2023-08-12 14:25:19.918598,11.0
2023-08-12 14:25:19.926288,-26.0
2023-08-12 14:25:19.933977,-61.0
2023-08-12 14:25:19.941667,-92.0
2023-08-12 14:25:19.949357,-116.0
2023-08-12 14:25:19.957047,-135.0
2023-08-12 14:25:19.964737,-147.0
2023-08-12 14:25:19.972427,-154.0
2023-08-12 14:25:19.980117,-152.0
2023-08-12 14:25:19.987807,-145.0
2023-08-12 14:25:19.995497,-142.0
2023-08-12 14:25:20.003187,-135.0
2023-08-12 14:25:20.010877,-133.0
2023-08-12 14:25:20.018567,-142.0
2023-08-12 14:25:20.026257,-142.0
2023-08-12 14:25:20.033947,-128.0
2023-08-12 14:25:20.041637,-121.0
2023-08-12 14:25:20.049327,-121.0
2023-08-12 14:25:20.057017,-119.0
2023-08-12 14:25:20.064707,-119.0
2023-08-12 14:25:20.072397,-116.0
2023-08-12 14:25:20.080087,-111.0
2023-08-12 14:25:20.087777,-107.0
2023-08-12 14:25:20.095467,-107.0
2023-08-12 14:25:20.103157,-107.0
2023-08-12 14:25:20.110847,-104.0
2023-08-12 14:25:20.118537,-102.0
2023-08-12 14:25:20.126227,-102.0
2023-08-12 14:25:20.133917,-102.0
2023-08-12 14:25:20.141607,-97.0
2023-08-12 14:25:20.149297,-95.0
2023-08-12 14:25:20.156986,-102.0
2023-08-12 14:25:20.164676,-99.0
2023-08-12 14:25:20.172366,-92.0
2023-08-12 14:25:20.180056,-95.0
2023-08-12 14:25:20.187746,-97.0
2023-08-12 14:25:20.195436,-95.0
2023-08-12 14:25:20.203126,-92.0
2023-08-12 14:25:20.210816,-92.0
2023-08-12 14:25:20.218506,-95.0
2023-08-12 14:25:20.226196,-95.0
2023-08-12 14:25:20.233886,-90.0
2023-08-12 14:25:20.241576,-90.0
2023-08-12 14:25:20.249266,-95.0
2023-08-12 14:25:20.256956,-95.0
2023-08-12 14:25:20.264646,-95.0
2023-08-12 14:25:20.272336,-92.0
2023-08-12 14:25:20.280026,-88.0
2023-08-12 14:25:20.287716,-88.0
2023-08-12 14:25:20.295406,-90.0
2023-08-12 14:25:20.303096,-83.0
2023-08-12 14:25:20.310786,-76.0
2023-08-12 14:25:20.318476,-76.0
2023-08-12 14:25:20.326166,-78.0
2023-08-12 14:25:20.333856,-78.0
2023-08-12 14:25:20.341546,-78.0
2023-08-12 14:25:20.349236,-76.0
2023-08-12 14:25:20.356926,-73.0
2023-08-12 14:25:20.364616,-66.0
2023-08-12 14:25:20.372306,-69.0
2023-08-12 14:25:20.379996,-73.0
2023-08-12 14:25:20.387685,-73.0
2023-08-12 14:25:20.395375,-66.0
2023-08-12 14:25:20.403065,-61.0
2023-08-12 14:25:20.410755,-61.0
2023-08-12 14:25:20.418445,-64.0
2023-08-12 14:25:20.426135,-64.0
2023-08-12 14:25:20.433825,-66.0
2023-08-12 14:25:20.441515,-61.0
2023-08-12 14:25:20.449205,-52.0
2023-08-12 14:25:20.456895,-49.0
2023-08-12 14:25:20.464585,-49.0
2023-08-12 14:25:20.472275,-38.0
2023-08-12 14:25:20.479965,-28.0
2023-08-12 14:25:20.487655,-28.0
2023-08-12 14:25:20.495345,-28.0
2023-08-12 14:25:20.503035,-33.0
2023-08-12 14:25:20.510725,-38.0
2023-08-12 14:25:20.518415,-42.0
2023-08-12 14:25:20.526105,-52.0
2023-08-12 14:25:20.533795,-66.0
2023-08-12 14:25:20.541485,-73.0
2023-08-12 14:25:20.549175,-73.0
2023-08-12 14:25:20.556865,-80.0
2023-08-12 14:25:20.564555,-80.0
2023-08-12 14:25:20.572245,-76.0
2023-08-12 14:25:20.579935,-71.0
2023-08-12 14:25:20.587625,-30.0
2023-08-12 14:25:20.595315,121.0
2023-08-12 14:25:20.603005,361.0
2023-08-12 14:25:20.610694,507.0
2023-08-12 14:25:20.618384,352.0
2023-08-12 14:25:20.626074,-7.0
2023-08-12 14:25:20.633764,-199.0
2023-08-12 14:25:20.641454,-176.0
2023-08-12 14:25:20.649144,-159.0
2023-08-12 14:25:20.656834,-149.0
2023-08-12 14:25:20.664524,-99.0
2023-08-12 14:25:20.672214,-92.0
2023-08-12 14:25:20.679904,-102.0
2023-08-12 14:25:20.687594,-85.0
2023-08-12 14:25:20.695284,-73.0
2023-08-12 14:25:20.702974,-78.0
2023-08-12 14:25:20.710664,-73.0
2023-08-12 14:25:20.718354,-69.0
2023-08-12 14:25:20.726044,-59.0
2023-08-12 14:25:20.733734,-47.0
2023-08-12 14:25:20.741424,-42.0
2023-08-12 14:25:20.749114,-38.0
2023-08-12 14:25:20.756804,-28.0
2023-08-12 14:25:20.764494,-26.0
2023-08-12 14:25:20.772184,-19.0
2023-08-12 14:25:20.779874,-4.0
2023-08-12 14:25:20.787564,7.0
2023-08-12 14:25:20.795254,21.0
2023-08-12 14:25:20.802944,38.0
2023-08-12 14:25:20.810634,52.0
2023-08-12 14:25:20.818324,59.0
2023-08-12 14:25:20.826014,66.0
2023-08-12 14:25:20.833703,66.0
2023-08-12 14:25:20.841393,61.0
2023-08-12 14:25:20.849083,52.0
2023-08-12 14:25:20.856773,33.0
2023-08-12 14:25:20.864463,2.0
2023-08-12 14:25:20.872153,-35.0
2023-08-12 14:25:20.879843,-71.0
2023-08-12 14:25:20.887533,-97.0
2023-08-12 14:25:20.895223,-119.0
2023-08-12 14:25:20.902913,-128.0
2023-08-12 14:25:20.910603,-135.0
2023-08-12 14:25:20.918293,-140.0
2023-08-12 14:25:20.925983,-140.0
2023-08-12 14:25:20.933673,-135.0
2023-08-12 14:25:20.941363,-130.0
2023-08-12 14:25:20.949053,-130.0
2023-08-12 14:25:20.956743,-133.0
2023-08-12 14:25:20.964433,-130.0
2023-08-12 14:25:20.972123,-116.0
2023-08-12 14:25:20.979813,-107.0
2023-08-12 14:25:20.987503,-109.0
2023-08-12 14:25:20.995193,-109.0
2023-08-12 14:25:21.002883,-109.0
2023-08-12 14:25:21.010573,-104.0
2023-08-12 14:25:21.018263,-99.0
2023-08-12 14:25:21.025953,-99.0
2023-08-12 14:25:21.033643,-102.0
2023-08-12 14:25:21.041333,-104.0
2023-08-12 14:25:21.049023,-99.0
2023-08-12 14:25:21.056712,-97.0
2023-08-12 14:25:21.064402,-97.0
2023-08-12 14:25:21.072092,-95.0
2023-08-12 14:25:21.079782,-92.0
2023-08-12 14:25:21.087472,-95.0
2023-08-12 14:25:21.095162,-104.0
2023-08-12 14:25:21.102852,-107.0
2023-08-12 14:25:21.110542,-97.0
2023-08-12 14:25:21.118232,-95.0
2023-08-12 14:25:21.125922,-99.0
2023-08-12 14:25:21.133612,-102.0
2023-08-12 14:25:21.141302,-107.0
2023-08-12 14:25:21.148992,-107.0
2023-08-12 14:25:21.156682,-102.0
2023-08-12 14:25:21.164372,-102.0
2023-08-12 14:25:21.172062,-99.0
2023-08-12 14:25:21.179752,-99.0
2023-08-12 14:25:21.187442,-107.0
2023-08-12 14:25:21.195132,-111.0
2023-08-12 14:25:21.202822,-109.0
2023-08-12 14:25:21.210512,-109.0
2023-08-12 14:25:21.218202,-104.0
2023-08-12 14:25:21.225892,-104.0
2023-08-12 14:25:21.233582,-111.0
2023-08-12 14:25:21.241272,-107.0
2023-08-12 14:25:21.248962,-97.0
2023-08-12 14:25:21.256652,-102.0
2023-08-12 14:25:21.264342,-111.0
2023-08-12 14:25:21.272032,-107.0
2023-08-12 14:25:21.279722,-102.0
2023-08-12 14:25:21.287411,-102.0
2023-08-12 14:25:21.295101,-97.0
2023-08-12 14:25:21.302791,-90.0
2023-08-12 14:25:21.310481,-90.0
2023-08-12 14:25:21.318171,-92.0
2023-08-12 14:25:21.325861,-90.0
2023-08-12 14:25:21.333551,-80.0
2023-08-12 14:25:21.341241,-78.0
2023-08-12 14:25:21.348931,-80.0
2023-08-12 14:25:21.356621,-78.0
2023-08-12 14:25:21.364311,-76.0
2023-08-12 14:25:21.372001,-78.0
2023-08-12 14:25:21.379691,-78.0
2023-08-12 14:25:21.387381,-76.0
2023-08-12 14:25:21.395071,-71.0
2023-08-12 14:25:21.402761,-71.0
2023-08-12 14:25:21.410451,-69.0
2023-08-12 14:25:21.418141,-61.0
2023-08-12 14:25:21.425831,-57.0
2023-08-12 14:25:21.433521,-54.0
2023-08-12 14:25:21.441211,-45.0
2023-08-12 14:25:21.448901,-35.0
2023-08-12 14:25:21.456591,-40.0
2023-08-12 14:25:21.464281,-45.0
2023-08-12 14:25:21.471971,-45.0
2023-08-12 14:25:21.479661,-47.0
2023-08-12 14:25:21.487351,-52.0
2023-08-12 14:25:21.495041,-61.0
2023-08-12 14:25:21.502731,-73.0
2023-08-12 14:25:21.510420,-78.0
2023-08-12 14:25:21.518110,-76.0
2023-08-12 14:25:21.525800,-69.0
2023-08-12 14:25:21.533490,-69.0
2023-08-12 14:25:21.541180,-73.0
2023-08-12 14:25:21.548870,-69.0
2023-08-12 14:25:21.556560,-38.0
2023-08-12 14:25:21.564250,95.0
2023-08-12 14:25:21.571940,352.0
2023-08-12 14:25:21.579630,542.0
2023-08-12 14:25:21.587320,411.0
2023-08-12 14:25:21.595010,28.0
2023-08-12 14:25:21.602700,-195.0
2023-08-12 14:25:21.610390,-169.0
2023-08-12 14:25:21.618080,-145.0
2023-08-12 14:25:21.625770,-147.0
2023-08-12 14:25:21.633460,-90.0
2023-08-12 14:25:21.641150,-69.0
2023-08-12 14:25:21.648840,-90.0
2023-08-12 14:25:21.656530,-80.0
2023-08-12 14:25:21.664220,-64.0
2023-08-12 14:25:21.671910,-66.0
2023-08-12 14:25:21.679600,-71.0
2023-08-12 14:25:21.687290,-66.0
2023-08-12 14:25:21.694980,-54.0
2023-08-12 14:25:21.702670,-45.0
2023-08-12 14:25:21.710360,-42.0
2023-08-12 14:25:21.718050,-40.0
2023-08-12 14:25:21.725740,-33.0
2023-08-12 14:25:21.733429,-30.0
2023-08-12 14:25:21.741119,-19.0
2023-08-12 14:25:21.748809,0.0
2023-08-12 14:25:21.756499,9.0
2023-08-12 14:25:21.764189,21.0
2023-08-12 14:25:21.771879,38.0
2023-08-12 14:25:21.779569,52.0
2023-08-12 14:25:21.787259,64.0
2023-08-12 14:25:21.794949,78.0
2023-08-12 14:25:21.802639,80.0
2023-08-12 14:25:21.810329,69.0
2023-08-12 14:25:21.818019,49.0
2023-08-12 14:25:21.825709,33.0
2023-08-12 14:25:21.833399,9.0
2023-08-12 14:25:21.841089,-26.0
2023-08-12 14:25:21.848779,-71.0
2023-08-12 14:25:21.856469,-107.0
2023-08-12 14:25:21.864159,-128.0
2023-08-12 14:25:21.871849,-142.0
2023-08-12 14:25:21.879539,-149.0
2023-08-12 14:25:21.887229,-154.0
2023-08-12 14:25:21.894919,-159.0
2023-08-12 14:25:21.902609,-157.0
2023-08-12 14:25:21.910299,-152.0
2023-08-12 14:25:21.917989,-149.0
2023-08-12 14:25:21.925679,-147.0
2023-08-12 14:25:21.933369,-140.0
2023-08-12 14:25:21.941059,-138.0
2023-08-12 14:25:21.948749,-142.0
2023-08-12 14:25:21.956438,-138.0
2023-08-12 14:25:21.964128,-123.0
2023-08-12 14:25:21.971818,-116.0
2023-08-12 14:25:21.979508,-119.0
2023-08-12 14:25:21.987198,-116.0
2023-08-12 14:25:21.994888,-109.0
2023-08-12 14:25:22.002578,-109.0
2023-08-12 14:25:22.010268,-107.0
2023-08-12 14:25:22.017958,-97.0
2023-08-12 14:25:22.025648,-92.0
2023-08-12 14:25:22.033338,-95.0
2023-08-12 14:25:22.041028,-97.0
2023-08-12 14:25:22.048718,-99.0
2023-08-12 14:25:22.056408,-99.0
2023-08-12 14:25:22.064098,-90.0
2023-08-12 14:25:22.071788,-83.0
2023-08-12 14:25:22.079478,-90.0
2023-08-12 14:25:22.087168,-95.0
2023-08-12 14:25:22.094858,-90.0
2023-08-12 14:25:22.102548,-85.0
2023-08-12 14:25:22.110238,-83.0
2023-08-12 14:25:22.117928,-85.0
2023-08-12 14:25:22.125618,-85.0
2023-08-12 14:25:22.133308,-88.0
2023-08-12 14:25:22.140998,-85.0
2023-08-12 14:25:22.148688,-78.0
2023-08-12 14:25:22.156378,-76.0
2023-08-12 14:25:22.164068,-76.0
2023-08-12 14:25:22.171758,-73.0
2023-08-12 14:25:22.179448,-78.0
2023-08-12 14:25:22.187137,-78.0
2023-08-12 14:25:22.194827,-71.0
2023-08-12 14:25:22.202517,-69.0
2023-08-12 14:25:22.210207,-71.0
2023-08-12 14:25:22.217897,-71.0
2023-08-12 14:25:22.225587,-71.0
2023-08-12 14:25:22.233277,-69.0
2023-08-12 14:25:22.240967,-64.0
2023-08-12 14:25:22.248657,-61.0
2023-08-12 14:25:22.256347,-64.0
2023-08-12 14:25:22.264037,-71.0
2023-08-12 14:25:22.271727,-76.0
2023-08-12 14:25:22.279417,-73.0
2023-08-12 14:25:22.287107,-66.0
2023-08-12 14:25:22.294797,-64.0
2023-08-12 14:25:22.302487,-66.0
2023-08-12 14:25:22.310177,-66.0
2023-08-12 14:25:22.317867,-64.0
2023-08-12 14:25:22.325557,-57.0
2023-08-12 14:25:22.333247,-52.0
2023-08-12 14:25:22.340937,-49.0
2023-08-12 14:25:22.348627,-38.0
2023-08-12 14:25:22.356317,-26.0
2023-08-12 14:25:22.364007,-19.0
2023-08-12 14:25:22.371697,-26.0
2023-08-12 14:25:22.379387,-33.0
2023-08-12 14:25:22.387077,-35.0
2023-08-12 14:25:22.394767,-42.0
2023-08-12 14:25:22.402457,-54.0
2023-08-12 14:25:22.410146,-59.0
2023-08-12 14:25:22.417836,-64.0
2023-08-12 14:25:22.425526,-66.0
2023-08-12 14:25:22.433216,-66.0
2023-08-12 14:25:22.440906,-64.0
2023-08-12 14:25:22.448596,-64.0
2023-08-12 14:25:22.456286,-69.0
2023-08-12 14:25:22.463976,-42.0
2023-08-12 14:25:22.471666,90.0
2023-08-12 14:25:22.479356,340.0
2023-08-12 14:25:22.487046,537.0
2023-08-12 14:25:22.494736,418.0
2023-08-12 14:25:22.502426,33.0
2023-08-12 14:25:22.510116,-202.0
2023-08-12 14:25:22.517806,-171.0
2023-08-12 14:25:22.525496,-145.0
2023-08-12 14:25:22.533186,-154.0
2023-08-12 14:25:22.540876,-97.0
2023-08-12 14:25:22.548566,-69.0
2023-08-12 14:25:22.556256,-90.0
2023-08-12 14:25:22.563946,-83.0
2023-08-12 14:25:22.571636,-64.0
2023-08-12 14:25:22.579326,-66.0
2023-08-12 14:25:22.587016,-57.0
2023-08-12 14:25:22.594706,-40.0
2023-08-12 14:25:22.602396,-45.0
2023-08-12 14:25:22.610086,-49.0
2023-08-12 14:25:22.617776,-35.0
2023-08-12 14:25:22.625466,-21.0
2023-08-12 14:25:22.633155,-16.0
2023-08-12 14:25:22.640845,-14.0
2023-08-12 14:25:22.648535,-2.0
2023-08-12 14:25:22.656225,11.0
2023-08-12 14:25:22.663915,28.0
2023-08-12 14:25:22.671605,42.0
2023-08-12 14:25:22.679295,47.0
2023-08-12 14:25:22.686985,61.0
2023-08-12 14:25:22.694675,85.0
2023-08-12 14:25:22.702365,85.0
2023-08-12 14:25:22.710055,78.0
2023-08-12 14:25:22.717745,78.0
2023-08-12 14:25:22.725435,71.0
2023-08-12 14:25:22.733125,52.0
2023-08-12 14:25:22.740815,21.0
2023-08-12 14:25:22.748505,-16.0
2023-08-12 14:25:22.756195,-57.0
2023-08-12 14:25:22.763885,-92.0
2023-08-12 14:25:22.771575,-116.0
2023-08-12 14:25:22.779265,-128.0
2023-08-12 14:25:22.786955,-140.0
2023-08-12 14:25:22.794645,-149.0
2023-08-12 14:25:22.802335,-154.0
2023-08-12 14:25:22.810025,-157.0
2023-08-12 14:25:22.817715,-152.0
2023-08-12 14:25:22.825405,-142.0
2023-08-12 14:25:22.833095,-138.0
2023-08-12 14:25:22.840785,-138.0
2023-08-12 14:25:22.848475,-133.0
2023-08-12 14:25:22.856164,-130.0
2023-08-12 14:25:22.863854,-126.0
2023-08-12 14:25:22.871544,-121.0
2023-08-12 14:25:22.879234,-116.0
2023-08-12 14:25:22.886924,-111.0
2023-08-12 14:25:22.894614,-104.0
2023-08-12 14:25:22.902304,-99.0
2023-08-12 14:25:22.909994,-97.0
2023-08-12 14:25:22.917684,-102.0
2023-08-12 14:25:22.925374,-102.0
2023-08-12 14:25:22.933064,-99.0
2023-08-12 14:25:22.940754,-95.0
2023-08-12 14:25:22.948444,-92.0
2023-08-12 14:25:22.956134,-92.0
2023-08-12 14:25:22.963824,-95.0
2023-08-12 14:25:22.971514,-95.0
2023-08-12 14:25:22.979204,-92.0
2023-08-12 14:25:22.986894,-90.0
2023-08-12 14:25:22.994584,-92.0
2023-08-12 14:25:23.002274,-95.0
2023-08-12 14:25:23.009964,-90.0
2023-08-12 14:25:23.017654,-88.0
2023-08-12 14:25:23.025344,-90.0
2023-08-12 14:25:23.033034,-90.0
2023-08-12 14:25:23.040724,-85.0
2023-08-12 14:25:23.048414,-85.0
2023-08-12 14:25:23.056104,-85.0
2023-08-12 14:25:23.063794,-83.0
2023-08-12 14:25:23.071484,-80.0
2023-08-12 14:25:23.079174,-83.0
2023-08-12 14:25:23.086863,-78.0
2023-08-12 14:25:23.094553,-76.0
2023-08-12 14:25:23.102243,-76.0
2023-08-12 14:25:23.109933,-71.0
2023-08-12 14:25:23.117623,-69.0
2023-08-12 14:25:23.125313,-69.0
2023-08-12 14:25:23.133003,-71.0
2023-08-12 14:25:23.140693,-69.0
2023-08-12 14:25:23.148383,-66.0
2023-08-12 14:25:23.156073,-66.0
2023-08-12 14:25:23.163763,-66.0
2023-08-12 14:25:23.171453,-64.0
2023-08-12 14:25:23.179143,-64.0
2023-08-12 14:25:23.186833,-64.0
2023-08-12 14:25:23.194523,-61.0
2023-08-12 14:25:23.202213,-61.0
2023-08-12 14:25:23.209903,-64.0
2023-08-12 14:25:23.217593,-61.0
2023-08-12 14:25:23.225283,-59.0
2023-08-12 14:25:23.232973,-59.0
2023-08-12 14:25:23.240663,-57.0
2023-08-12 14:25:23.248353,-57.0
2023-08-12 14:25:23.256043,-59.0
2023-08-12 14:25:23.263733,-54.0
2023-08-12 14:25:23.271423,-47.0
2023-08-12 14:25:23.279113,-47.0
2023-08-12 14:25:23.286803,-49.0
2023-08-12 14:25:23.294493,-38.0
2023-08-12 14:25:23.302183,-23.0
2023-08-12 14:25:23.309872,-21.0
2023-08-12 14:25:23.317562,-23.0
2023-08-12 14:25:23.325252,-28.0
2023-08-12 14:25:23.332942,-30.0
2023-08-12 14:25:23.340632,-40.0
2023-08-12 14:25:23.348322,-59.0
2023-08-12 14:25:23.356012,-69.0
2023-08-12 14:25:23.363702,-71.0
2023-08-12 14:25:23.371392,-78.0
2023-08-12 14:25:23.379082,-76.0
2023-08-12 14:25:23.386772,-69.0
2023-08-12 14:25:23.394462,-69.0
2023-08-12 14:25:23.402152,-73.0
2023-08-12 14:25:23.409842,-57.0
2023-08-12 14:25:23.417532,47.0
2023-08-12 14:25:23.425222,271.0
2023-08-12 14:25:23.432912,487.0
2023-08-12 14:25:23.440602,461.0
2023-08-12 14:25:23.448292,145.0
2023-08-12 14:25:23.455982,-147.0
2023-08-12 14:25:23.463672,-180.0
2023-08-12 14:25:23.471362,-140.0
2023-08-12 14:25:23.479052,-147.0
2023-08-12 14:25:23.486742,-114.0
2023-08-12 14:25:23.494432,-85.0
2023-08-12 14:25:23.502122,-102.0
2023-08-12 14:25:23.509812,-99.0
2023-08-12 14:25:23.517502,-80.0
2023-08-12 14:25:23.525192,-78.0
2023-08-12 14:25:23.532881,-73.0
2023-08-12 14:25:23.540571,-59.0
2023-08-12 14:25:23.548261,-52.0
2023-08-12 14:25:23.555951,-52.0
2023-08-12 14:25:23.563641,-47.0
2023-08-12 14:25:23.571331,-42.0
2023-08-12 14:25:23.579021,-33.0
2023-08-12 14:25:23.586711,-23.0
2023-08-12 14:25:23.594401,-16.0
2023-08-12 14:25:23.602091,-7.0
2023-08-12 14:25:23.609781,4.0
2023-08-12 14:25:23.617471,14.0
2023-08-12 14:25:23.625161,28.0
2023-08-12 14:25:23.632851,45.0
2023-08-12 14:25:23.640541,54.0
2023-08-12 14:25:23.648231,66.0
2023-08-12 14:25:23.655921,71.0
2023-08-12 14:25:23.663611,61.0
2023-08-12 14:25:23.671301,52.0
2023-08-12 14:25:23.678991,38.0
2023-08-12 14:25:23.686681,16.0
2023-08-12 14:25:23.694371,-11.0
2023-08-12 14:25:23.702061,-49.0
2023-08-12 14:25:23.709751,-88.0
2023-08-12 14:25:23.717441,-111.0
2023-08-12 14:25:23.725131,-126.0
2023-08-12 14:25:23.732821,-142.0
2023-08-12 14:25:23.740511,-149.0
2023-08-12 14:25:23.748201,-145.0
2023-08-12 14:25:23.755890,-140.0
2023-08-12 14:25:23.763580,-138.0
2023-08-12 14:25:23.771270,-133.0
2023-08-12 14:25:23.778960,-128.0
2023-08-12 14:25:23.786650,-126.0
2023-08-12 14:25:23.794340,-126.0
2023-08-12 14:25:23.802030,-121.0
2023-08-12 14:25:23.809720,-114.0
2023-08-12 14:25:23.817410,-111.0
2023-08-12 14:25:23.825100,-109.0
2023-08-12 14:25:23.832790,-104.0
2023-08-12 14:25:23.840480,-104.0
2023-08-12 14:25:23.848170,-107.0
2023-08-12 14:25:23.855860,-104.0
2023-08-12 14:25:23.863550,-99.0
2023-08-12 14:25:23.871240,-97.0
2023-08-12 14:25:23.878930,-92.0
2023-08-12 14:25:23.886620,-92.0
2023-08-12 14:25:23.894310,-90.0
2023-08-12 14:25:23.902000,-85.0
2023-08-12 14:25:23.909690,-90.0
2023-08-12 14:25:23.917380,-92.0
2023-08-12 14:25:23.925070,-92.0
2023-08-12 14:25:23.932760,-102.0
2023-08-12 14:25:23.940450,-107.0
2023-08-12 14:25:23.948140,-99.0
2023-08-12 14:25:23.955830,-95.0
2023-08-12 14:25:23.963520,-95.0
2023-08-12 14:25:23.971210,-92.0
2023-08-12 14:25:23.978900,-92.0
2023-08-12 14:25:23.986589,-88.0
2023-08-12 14:25:23.994279,-83.0
2023-08-12 14:25:24.001969,-90.0
2023-08-12 14:25:24.009659,-102.0
2023-08-12 14:25:24.017349,-95.0
2023-08-12 14:25:24.025039,-88.0
2023-08-12 14:25:24.032729,-88.0
2023-08-12 14:25:24.040419,-85.0
2023-08-12 14:25:24.048109,-80.0
2023-08-12 14:25:24.055799,-80.0
2023-08-12 14:25:24.063489,-83.0
2023-08-12 14:25:24.071179,-83.0
2023-08-12 14:25:24.078869,-83.0
2023-08-12 14:25:24.086559,-78.0
2023-08-12 14:25:24.094249,-73.0
2023-08-12 14:25:24.101939,-73.0
2023-08-12 14:25:24.109629,-76.0
2023-08-12 14:25:24.117319,-78.0
2023-08-12 14:25:24.125009,-76.0
2023-08-12 14:25:24.132699,-69.0
2023-08-12 14:25:24.140389,-66.0
2023-08-12 14:25:24.148079,-69.0
2023-08-12 14:25:24.155769,-69.0
2023-08-12 14:25:24.163459,-66.0
2023-08-12 14:25:24.171149,-71.0
2023-08-12 14:25:24.178839,-73.0
2023-08-12 14:25:24.186529,-71.0
2023-08-12 14:25:24.194219,-66.0
2023-08-12 14:25:24.201909,-66.0
2023-08-12 14:25:24.209598,-69.0
2023-08-12 14:25:24.217288,-64.0
2023-08-12 14:25:24.224978,-49.0
2023-08-12 14:25:24.232668,-42.0
2023-08-12 14:25:24.240358,-45.0
2023-08-12 14:25:24.248048,-38.0
2023-08-12 14:25:24.255738,-33.0
2023-08-12 14:25:24.263428,-30.0
2023-08-12 14:25:24.271118,-30.0
2023-08-12 14:25:24.278808,-33.0
2023-08-12 14:25:24.286498,-38.0
2023-08-12 14:25:24.294188,-47.0
2023-08-12 14:25:24.301878,-57.0
2023-08-12 14:25:24.309568,-69.0
2023-08-12 14:25:24.317258,-78.0
2023-08-12 14:25:24.324948,-76.0
2023-08-12 14:25:24.332638,-66.0
2023-08-12 14:25:24.340328,-64.0
2023-08-12 14:25:24.348018,-71.0
2023-08-12 14:25:24.355708,-71.0
2023-08-12 14:25:24.363398,-11.0
2023-08-12 14:25:24.371088,180.0
2023-08-12 14:25:24.378778,442.0
2023-08-12 14:25:24.386468,533.0
2023-08-12 14:25:24.394158,271.0
2023-08-12 14:25:24.401848,-99.0
2023-08-12 14:25:24.409538,-207.0
2023-08-12 14:25:24.417228,-149.0
2023-08-12 14:25:24.424918,-161.0
2023-08-12 14:25:24.432607,-149.0
2023-08-12 14:25:24.440297,-92.0
2023-08-12 14:25:24.447987,-88.0
2023-08-12 14:25:24.455677,-95.0
2023-08-12 14:25:24.463367,-78.0
2023-08-12 14:25:24.471057,-78.0
2023-08-12 14:25:24.478747,-85.0
2023-08-12 14:25:24.486437,-76.0
2023-08-12 14:25:24.494127,-71.0
2023-08-12 14:25:24.501817,-66.0
2023-08-12 14:25:24.509507,-54.0
2023-08-12 14:25:24.517197,-49.0
2023-08-12 14:25:24.524887,-45.0
2023-08-12 14:25:24.532577,-33.0
2023-08-12 14:25:24.540267,-26.0
2023-08-12 14:25:24.547957,-21.0
2023-08-12 14:25:24.555647,-9.0
2023-08-12 14:25:24.563337,9.0
2023-08-12 14:25:24.571027,33.0
2023-08-12 14:25:24.578717,47.0
2023-08-12 14:25:24.586407,61.0
2023-08-12 14:25:24.594097,76.0
2023-08-12 14:25:24.601787,78.0
2023-08-12 14:25:24.609477,71.0
2023-08-12 14:25:24.617167,69.0
2023-08-12 14:25:24.624857,59.0
2023-08-12 14:25:24.632547,38.0
2023-08-12 14:25:24.640237,4.0
2023-08-12 14:25:24.647927,-38.0
2023-08-12 14:25:24.655616,-85.0
2023-08-12 14:25:24.663306,-116.0
2023-08-12 14:25:24.670996,-133.0
2023-08-12 14:25:24.678686,-147.0
2023-08-12 14:25:24.686376,-157.0
2023-08-12 14:25:24.694066,-157.0
2023-08-12 14:25:24.701756,-161.0
2023-08-12 14:25:24.709446,-164.0
2023-08-12 14:25:24.717136,-157.0
2023-08-12 14:25:24.724826,-149.0
2023-08-12 14:25:24.732516,-147.0
2023-08-12 14:25:24.740206,-147.0
2023-08-12 14:25:24.747896,-142.0
2023-08-12 14:25:24.755586,-135.0
2023-08-12 14:25:24.763276,-130.0
2023-08-12 14:25:24.770966,-128.0
2023-08-12 14:25:24.778656,-126.0
2023-08-12 14:25:24.786346,-126.0
2023-08-12 14:25:24.794036,-114.0
2023-08-12 14:25:24.801726,-104.0
2023-08-12 14:25:24.809416,-109.0
2023-08-12 14:25:24.817106,-111.0
2023-08-12 14:25:24.824796,-107.0
2023-08-12 14:25:24.832486,-102.0
2023-08-12 14:25:24.840176,-99.0
2023-08-12 14:25:24.847866,-97.0
2023-08-12 14:25:24.855556,-102.0
2023-08-12 14:25:24.863246,-104.0
2023-08-12 14:25:24.870936,-97.0
2023-08-12 14:25:24.878626,-92.0
2023-08-12 14:25:24.886315,-97.0
2023-08-12 14:25:24.894005,-104.0
2023-08-12 14:25:24.901695,-102.0
2023-08-12 14:25:24.909385,-97.0
2023-08-12 14:25:24.917075,-99.0
2023-08-12 14:25:24.924765,-97.0
2023-08-12 14:25:24.932455,-92.0
2023-08-12 14:25:24.940145,-90.0
2023-08-12 14:25:24.947835,-92.0
2023-08-12 14:25:24.955525,-90.0
2023-08-12 14:25:24.963215,-85.0
2023-08-12 14:25:24.970905,-85.0
2023-08-12 14:25:24.978595,-83.0
2023-08-12 14:25:24.986285,-85.0
2023-08-12 14:25:24.993975,-88.0
2023-08-12 14:25:25.001665,-83.0
2023-08-12 14:25:25.009355,-80.0
2023-08-12 14:25:25.017045,-83.0
2023-08-12 14:25:25.024735,-80.0
2023-08-12 14:25:25.032425,-80.0
2023-08-12 14:25:25.040115,-83.0
2023-08-12 14:25:25.047805,-83.0
2023-08-12 14:25:25.055495,-90.0
2023-08-12 14:25:25.063185,-92.0
2023-08-12 14:25:25.070875,-83.0
2023-08-12 14:25:25.078565,-83.0
2023-08-12 14:25:25.086255,-88.0
2023-08-12 14:25:25.093945,-83.0
2023-08-12 14:25:25.101635,-88.0
2023-08-12 14:25:25.109324,-90.0
2023-08-12 14:25:25.117014,-80.0
2023-08-12 14:25:25.124704,-73.0
2023-08-12 14:25:25.132394,-73.0
2023-08-12 14:25:25.140084,-66.0
2023-08-12 14:25:25.147774,-52.0
2023-08-12 14:25:25.155464,-47.0
2023-08-12 14:25:25.163154,-47.0
2023-08-12 14:25:25.170844,-47.0
2023-08-12 14:25:25.178534,-49.0
2023-08-12 14:25:25.186224,-54.0
2023-08-12 14:25:25.193914,-61.0
2023-08-12 14:25:25.201604,-71.0
2023-08-12 14:25:25.209294,-78.0
2023-08-12 14:25:25.216984,-80.0
2023-08-12 14:25:25.224674,-83.0
2023-08-12 14:25:25.232364,-80.0
2023-08-12 14:25:25.240054,-78.0
2023-08-12 14:25:25.247744,-76.0
2023-08-12 14:25:25.255434,-69.0
2023-08-12 14:25:25.263124,-14.0
2023-08-12 14:25:25.270814,161.0
2023-08-12 14:25:25.278504,421.0
2023-08-12 14:25:25.286194,530.0
2023-08-12 14:25:25.293884,299.0
2023-08-12 14:25:25.301574,-73.0
2023-08-12 14:25:25.309264,-207.0
2023-08-12 14:25:25.316954,-152.0
2023-08-12 14:25:25.324644,-157.0
2023-08-12 14:25:25.332333,-147.0
2023-08-12 14:25:25.340023,-85.0
2023-08-12 14:25:25.347713,-76.0
2023-08-12 14:25:25.355403,-90.0
2023-08-12 14:25:25.363093,-73.0
2023-08-12 14:25:25.370783,-66.0
2023-08-12 14:25:25.378473,-71.0
2023-08-12 14:25:25.386163,-61.0
2023-08-12 14:25:25.393853,-49.0
2023-08-12 14:25:25.401543,-47.0
2023-08-12 14:25:25.409233,-40.0
2023-08-12 14:25:25.416923,-33.0
2023-08-12 14:25:25.424613,-28.0
2023-08-12 14:25:25.432303,-16.0
2023-08-12 14:25:25.439993,-7.0
2023-08-12 14:25:25.447683,0.0
2023-08-12 14:25:25.455373,7.0
2023-08-12 14:25:25.463063,21.0
2023-08-12 14:25:25.470753,42.0
2023-08-12 14:25:25.478443,59.0
2023-08-12 14:25:25.486133,69.0
2023-08-12 14:25:25.493823,78.0
2023-08-12 14:25:25.501513,80.0
2023-08-12 14:25:25.509203,76.0
2023-08-12 14:25:25.516893,69.0
2023-08-12 14:25:25.524583,54.0
2023-08-12 14:25:25.532273,33.0
2023-08-12 14:25:25.539963,4.0
2023-08-12 14:25:25.547653,-33.0
2023-08-12 14:25:25.555342,-78.0
2023-08-12 14:25:25.563032,-109.0
2023-08-12 14:25:25.570722,-128.0
2023-08-12 14:25:25.578412,-135.0
2023-08-12 14:25:25.586102,-145.0
2023-08-12 14:25:25.593792,-149.0
2023-08-12 14:25:25.601482,-147.0
2023-08-12 14:25:25.609172,-147.0
2023-08-12 14:25:25.616862,-149.0
2023-08-12 14:25:25.624552,-145.0
2023-08-12 14:25:25.632242,-142.0
2023-08-12 14:25:25.639932,-154.0
2023-08-12 14:25:25.647622,-154.0
2023-08-12 14:25:25.655312,-135.0
2023-08-12 14:25:25.663002,-130.0
2023-08-12 14:25:25.670692,-133.0
2023-08-12 14:25:25.678382,-126.0
2023-08-12 14:25:25.686072,-123.0
2023-08-12 14:25:25.693762,-130.0
2023-08-12 14:25:25.701452,-126.0
2023-08-12 14:25:25.709142,-116.0
2023-08-12 14:25:25.716832,-116.0
2023-08-12 14:25:25.724522,-116.0
2023-08-12 14:25:25.732212,-114.0
2023-08-12 14:25:25.739902,-111.0
2023-08-12 14:25:25.747592,-109.0
2023-08-12 14:25:25.755282,-107.0
2023-08-12 14:25:25.762972,-107.0
2023-08-12 14:25:25.770662,-104.0
2023-08-12 14:25:25.778352,-99.0
2023-08-12 14:25:25.786041,-97.0
2023-08-12 14:25:25.793731,-97.0
2023-08-12 14:25:25.801421,-97.0
2023-08-12 14:25:25.809111,-95.0
2023-08-12 14:25:25.816801,-95.0
2023-08-12 14:25:25.824491,-95.0
2023-08-12 14:25:25.832181,-92.0
2023-08-12 14:25:25.839871,-88.0
2023-08-12 14:25:25.847561,-88.0
2023-08-12 14:25:25.855251,-85.0
2023-08-12 14:25:25.862941,-83.0
2023-08-12 14:25:25.870631,-88.0
2023-08-12 14:25:25.878321,-90.0
2023-08-12 14:25:25.886011,-80.0
2023-08-12 14:25:25.893701,-78.0
2023-08-12 14:25:25.901391,-80.0
2023-08-12 14:25:25.909081,-76.0
2023-08-12 14:25:25.916771,-73.0
2023-08-12 14:25:25.924461,-73.0
2023-08-12 14:25:25.932151,-71.0
2023-08-12 14:25:25.939841,-71.0
2023-08-12 14:25:25.947531,-71.0
2023-08-12 14:25:25.955221,-69.0
2023-08-12 14:25:25.962911,-71.0
2023-08-12 14:25:25.970601,-71.0
2023-08-12 14:25:25.978291,-66.0
2023-08-12 14:25:25.985981,-64.0
2023-08-12 14:25:25.993671,-64.0
2023-08-12 14:25:26.001361,-61.0
2023-08-12 14:25:26.009050,-66.0
2023-08-12 14:25:26.016740,-71.0
2023-08-12 14:25:26.024430,-66.0
2023-08-12 14:25:26.032120,-61.0
2023-08-12 14:25:26.039810,-64.0
2023-08-12 14:25:26.047500,-66.0
2023-08-12 14:25:26.055190,-59.0
2023-08-12 14:25:26.062880,-52.0
2023-08-12 14:25:26.070570,-49.0
2023-08-12 14:25:26.078260,-45.0
2023-08-12 14:25:26.085950,-35.0
2023-08-12 14:25:26.093640,-28.0
2023-08-12 14:25:26.101330,-23.0
2023-08-12 14:25:26.109020,-23.0
2023-08-12 14:25:26.116710,-33.0
2023-08-12 14:25:26.124400,-38.0
2023-08-12 14:25:26.132090,-42.0
2023-08-12 14:25:26.139780,-54.0
2023-08-12 14:25:26.147470,-69.0
2023-08-12 14:25:26.155160,-73.0
2023-08-12 14:25:26.162850,-71.0
2023-08-12 14:25:26.170540,-69.0
2023-08-12 14:25:26.178230,-73.0
2023-08-12 14:25:26.185920,-78.0
2023-08-12 14:25:26.193610,-78.0
2023-08-12 14:25:26.201300,-38.0
2023-08-12 14:25:26.208990,114.0
2023-08-12 14:25:26.216680,368.0
2023-08-12 14:25:26.224370,523.0
2023-08-12 14:25:26.232059,368.0
2023-08-12 14:25:26.239749,4.0
2023-08-12 14:25:26.247439,-190.0
2023-08-12 14:25:26.255129,-157.0
2023-08-12 14:25:26.262819,-145.0
2023-08-12 14:25:26.270509,-147.0
2023-08-12 14:25:26.278199,-95.0
2023-08-12 14:25:26.285889,-78.0
2023-08-12 14:25:26.293579,-92.0
2023-08-12 14:25:26.301269,-80.0
2023-08-12 14:25:26.308959,-69.0
2023-08-12 14:25:26.316649,-69.0
2023-08-12 14:25:26.324339,-59.0
2023-08-12 14:25:26.332029,-49.0
2023-08-12 14:25:26.339719,-49.0
2023-08-12 14:25:26.347409,-40.0
2023-08-12 14:25:26.355099,-30.0
2023-08-12 14:25:26.362789,-28.0
2023-08-12 14:25:26.370479,-23.0
2023-08-12 14:25:26.378169,-14.0
2023-08-12 14:25:26.385859,-4.0
2023-08-12 14:25:26.393549,4.0
2023-08-12 14:25:26.401239,16.0
2023-08-12 14:25:26.408929,33.0
2023-08-12 14:25:26.416619,45.0
2023-08-12 14:25:26.424309,57.0
2023-08-12 14:25:26.431999,64.0
2023-08-12 14:25:26.439689,73.0
2023-08-12 14:25:26.447379,73.0
2023-08-12 14:25:26.455068,64.0
2023-08-12 14:25:26.462758,57.0
2023-08-12 14:25:26.470448,42.0
2023-08-12 14:25:26.478138,11.0
2023-08-12 14:25:26.485828,-21.0
2023-08-12 14:25:26.493518,-54.0
2023-08-12 14:25:26.501208,-88.0
2023-08-12 14:25:26.508898,-114.0
2023-08-12 14:25:26.516588,-130.0
2023-08-12 14:25:26.524278,-140.0
2023-08-12 14:25:26.531968,-140.0
2023-08-12 14:25:26.539658,-140.0
2023-08-12 14:25:26.547348,-140.0
2023-08-12 14:25:26.555038,-138.0
2023-08-12 14:25:26.562728,-140.0
2023-08-12 14:25:26.570418,-135.0
2023-08-12 14:25:26.578108,-128.0
2023-08-12 14:25:26.585798,-123.0
2023-08-12 14:25:26.593488,-119.0
2023-08-12 14:25:26.601178,-119.0
2023-08-12 14:25:26.608868,-116.0
2023-08-12 14:25:26.616558,-111.0
2023-08-12 14:25:26.624248,-111.0
2023-08-12 14:25:26.631938,-111.0
2023-08-12 14:25:26.639628,-107.0
2023-08-12 14:25:26.647318,-104.0
2023-08-12 14:25:26.655008,-102.0
2023-08-12 14:25:26.662698,-99.0
2023-08-12 14:25:26.670388,-99.0
2023-08-12 14:25:26.678078,-99.0
2023-08-12 14:25:26.685767,-97.0
2023-08-12 14:25:26.693457,-95.0
2023-08-12 14:25:26.701147,-95.0
2023-08-12 14:25:26.708837,-95.0
2023-08-12 14:25:26.716527,-97.0
2023-08-12 14:25:26.724217,-102.0
2023-08-12 14:25:26.731907,-99.0
2023-08-12 14:25:26.739597,-92.0
2023-08-12 14:25:26.747287,-90.0
2023-08-12 14:25:26.754977,-95.0
2023-08-12 14:25:26.762667,-95.0
2023-08-12 14:25:26.770357,-90.0
2023-08-12 14:25:26.778047,-83.0
2023-08-12 14:25:26.785737,-83.0
2023-08-12 14:25:26.793427,-90.0
2023-08-12 14:25:26.801117,-92.0
2023-08-12 14:25:26.808807,-88.0
2023-08-12 14:25:26.816497,-83.0
2023-08-12 14:25:26.824187,-80.0
2023-08-12 14:25:26.831877,-80.0
2023-08-12 14:25:26.839567,-78.0
2023-08-12 14:25:26.847257,-73.0
2023-08-12 14:25:26.854947,-73.0
2023-08-12 14:25:26.862637,-78.0
2023-08-12 14:25:26.870327,-80.0
2023-08-12 14:25:26.878017,-80.0
2023-08-12 14:25:26.885707,-76.0
2023-08-12 14:25:26.893397,-71.0
2023-08-12 14:25:26.901087,-71.0
2023-08-12 14:25:26.908776,-71.0
2023-08-12 14:25:26.916466,-71.0
2023-08-12 14:25:26.924156,-71.0
2023-08-12 14:25:26.931846,-71.0
2023-08-12 14:25:26.939536,-71.0
2023-08-12 14:25:26.947226,-69.0
2023-08-12 14:25:26.954916,-66.0
2023-08-12 14:25:26.962606,-66.0
2023-08-12 14:25:26.970296,-64.0
2023-08-12 14:25:26.977986,-66.0
2023-08-12 14:25:26.985676,-66.0
2023-08-12 14:25:26.993366,-64.0
2023-08-12 14:25:27.001056,-59.0
2023-08-12 14:25:27.008746,-59.0
2023-08-12 14:25:27.016436,-61.0
2023-08-12 14:25:27.024126,-69.0
2023-08-12 14:25:27.031816,-71.0
2023-08-12 14:25:27.039506,-69.0
2023-08-12 14:25:27.047196,-61.0
2023-08-12 14:25:27.054886,-57.0
2023-08-12 14:25:27.062576,-54.0
2023-08-12 14:25:27.070266,-47.0
2023-08-12 14:25:27.077956,-42.0
2023-08-12 14:25:27.085646,-40.0
2023-08-12 14:25:27.093336,-35.0
2023-08-12 14:25:27.101026,-30.0
2023-08-12 14:25:27.108716,-35.0
2023-08-12 14:25:27.116406,-47.0
2023-08-12 14:25:27.124096,-52.0
2023-08-12 14:25:27.131785,-57.0
2023-08-12 14:25:27.139475,-64.0
2023-08-12 14:25:27.147165,-76.0
2023-08-12 14:25:27.154855,-80.0
2023-08-12 14:25:27.162545,-76.0
2023-08-12 14:25:27.170235,-69.0
2023-08-12 14:25:27.177925,-71.0
2023-08-12 14:25:27.185615,-76.0
2023-08-12 14:25:27.193305,-54.0
2023-08-12 14:25:27.200995,61.0
2023-08-12 14:25:27.208685,295.0
2023-08-12 14:25:27.216375,499.0
2023-08-12 14:25:27.224065,430.0
2023-08-12 14:25:27.231755,85.0
2023-08-12 14:25:27.239445,-171.0
2023-08-12 14:25:27.247135,-166.0
2023-08-12 14:25:27.254825,-149.0
2023-08-12 14:25:27.262515,-176.0
2023-08-12 14:25:27.270205,-126.0
2023-08-12 14:25:27.277895,-80.0
2023-08-12 14:25:27.285585,-97.0
2023-08-12 14:25:27.293275,-99.0
2023-08-12 14:25:27.300965,-80.0
2023-08-12 14:25:27.308655,-78.0
2023-08-12 14:25:27.316345,-78.0
2023-08-12 14:25:27.324035,-69.0
2023-08-12 14:25:27.331725,-61.0
2023-08-12 14:25:27.339415,-52.0
2023-08-12 14:25:27.347105,-45.0
2023-08-12 14:25:27.354794,-42.0
2023-08-12 14:25:27.362484,-35.0
2023-08-12 14:25:27.370174,-26.0
2023-08-12 14:25:27.377864,-14.0
2023-08-12 14:25:27.385554,-2.0
2023-08-12 14:25:27.393244,9.0
2023-08-12 14:25:27.400934,19.0
2023-08-12 14:25:27.408624,33.0
2023-08-12 14:25:27.416314,52.0
2023-08-12 14:25:27.424004,61.0
2023-08-12 14:25:27.431694,71.0
2023-08-12 14:25:27.439384,76.0
2023-08-12 14:25:27.447074,69.0
2023-08-12 14:25:27.454764,64.0
2023-08-12 14:25:27.462454,52.0
2023-08-12 14:25:27.470144,21.0
2023-08-12 14:25:27.477834,-16.0
2023-08-12 14:25:27.485524,-54.0
2023-08-12 14:25:27.493214,-90.0
2023-08-12 14:25:27.500904,-121.0
2023-08-12 14:25:27.508594,-138.0
2023-08-12 14:25:27.516284,-147.0
2023-08-12 14:25:27.523974,-161.0
2023-08-12 14:25:27.531664,-171.0
2023-08-12 14:25:27.539354,-166.0
2023-08-12 14:25:27.547044,-157.0
2023-08-12 14:25:27.554734,-152.0
2023-08-12 14:25:27.562424,-149.0
2023-08-12 14:25:27.570114,-149.0
2023-08-12 14:25:27.577804,-142.0
2023-08-12 14:25:27.585493,-135.0
2023-08-12 14:25:27.593183,-135.0
2023-08-12 14:25:27.600873,-135.0
2023-08-12 14:25:27.608563,-128.0
2023-08-12 14:25:27.616253,-123.0
2023-08-12 14:25:27.623943,-121.0
2023-08-12 14:25:27.631633,-123.0
2023-08-12 14:25:27.639323,-119.0
2023-08-12 14:25:27.647013,-111.0
2023-08-12 14:25:27.654703,-104.0
2023-08-12 14:25:27.662393,-107.0
2023-08-12 14:25:27.670083,-107.0
2023-08-12 14:25:27.677773,-104.0
2023-08-12 14:25:27.685463,-102.0
2023-08-12 14:25:27.693153,-104.0
2023-08-12 14:25:27.700843,-104.0
2023-08-12 14:25:27.708533,-107.0
2023-08-12 14:25:27.716223,-102.0
2023-08-12 14:25:27.723913,-102.0
2023-08-12 14:25:27.731603,-99.0
2023-08-12 14:25:27.739293,-95.0
2023-08-12 14:25:27.746983,-92.0
2023-08-12 14:25:27.754673,-97.0
2023-08-12 14:25:27.762363,-92.0
2023-08-12 14:25:27.770053,-92.0
2023-08-12 14:25:27.777743,-95.0
2023-08-12 14:25:27.785433,-88.0
2023-08-12 14:25:27.793123,-88.0
2023-08-12 14:25:27.800813,-90.0
2023-08-12 14:25:27.808502,-85.0
2023-08-12 14:25:27.816192,-83.0
2023-08-12 14:25:27.823882,-85.0
2023-08-12 14:25:27.831572,-80.0
2023-08-12 14:25:27.839262,-73.0
2023-08-12 14:25:27.846952,-76.0
2023-08-12 14:25:27.854642,-83.0
2023-08-12 14:25:27.862332,-83.0
2023-08-12 14:25:27.870022,-78.0
2023-08-12 14:25:27.877712,-76.0
2023-08-12 14:25:27.885402,-76.0
2023-08-12 14:25:27.893092,-76.0
2023-08-12 14:25:27.900782,-73.0
2023-08-12 14:25:27.908472,-69.0
2023-08-12 14:25:27.916162,-71.0
2023-08-12 14:25:27.923852,-71.0
2023-08-12 14:25:27.931542,-73.0
2023-08-12 14:25:27.939232,-78.0
2023-08-12 14:25:27.946922,-78.0
2023-08-12 14:25:27.954612,-71.0
2023-08-12 14:25:27.962302,-71.0
2023-08-12 14:25:27.969992,-78.0
2023-08-12 14:25:27.977682,-80.0
2023-08-12 14:25:27.985372,-78.0
2023-08-12 14:25:27.993062,-69.0
2023-08-12 14:25:28.000752,-61.0
2023-08-12 14:25:28.008442,-57.0
2023-08-12 14:25:28.016132,-47.0
2023-08-12 14:25:28.023822,-42.0
2023-08-12 14:25:28.031511,-42.0
2023-08-12 14:25:28.039201,-42.0
2023-08-12 14:25:28.046891,-52.0
2023-08-12 14:25:28.054581,-59.0
2023-08-12 14:25:28.062271,-59.0
2023-08-12 14:25:28.069961,-69.0
2023-08-12 14:25:28.077651,-78.0
2023-08-12 14:25:28.085341,-83.0
2023-08-12 14:25:28.093031,-85.0
2023-08-12 14:25:28.100721,-85.0
2023-08-12 14:25:28.108411,-78.0
2023-08-12 14:25:28.116101,-76.0
2023-08-12 14:25:28.123791,-78.0
2023-08-12 14:25:28.131481,-40.0
2023-08-12 14:25:28.139171,109.0
2023-08-12 14:25:28.146861,359.0
2023-08-12 14:25:28.154551,521.0
2023-08-12 14:25:28.162241,352.0
2023-08-12 14:25:28.169931,-26.0
2023-08-12 14:25:28.177621,-202.0
2023-08-12 14:25:28.185311,-157.0
2023-08-12 14:25:28.193001,-154.0
2023-08-12 14:25:28.200691,-154.0
2023-08-12 14:25:28.208381,-92.0
2023-08-12 14:25:28.216071,-73.0
2023-08-12 14:25:28.223761,-90.0
2023-08-12 14:25:28.231451,-76.0
2023-08-12 14:25:28.239141,-61.0
2023-08-12 14:25:28.246831,-66.0
2023-08-12 14:25:28.254520,-66.0
2023-08-12 14:25:28.262210,-52.0
2023-08-12 14:25:28.269900,-47.0
2023-08-12 14:25:28.277590,-47.0
2023-08-12 14:25:28.285280,-35.0
2023-08-12 14:25:28.292970,-26.0
2023-08-12 14:25:28.300660,-21.0
2023-08-12 14:25:28.308350,-14.0
2023-08-12 14:25:28.316040,0.0
2023-08-12 14:25:28.323730,11.0
2023-08-12 14:25:28.331420,23.0
2023-08-12 14:25:28.339110,35.0
2023-08-12 14:25:28.346800,49.0
2023-08-12 14:25:28.354490,61.0
2023-08-12 14:25:28.362180,73.0
2023-08-12 14:25:28.369870,80.0
2023-08-12 14:25:28.377560,80.0
2023-08-12 14:25:28.385250,76.0
2023-08-12 14:25:28.392940,64.0
2023-08-12 14:25:28.400630,45.0
2023-08-12 14:25:28.408320,14.0
2023-08-12 14:25:28.416010,-23.0
2023-08-12 14:25:28.423700,-64.0
2023-08-12 14:25:28.431390,-104.0
2023-08-12 14:25:28.439080,-133.0
2023-08-12 14:25:28.446770,-140.0
2023-08-12 14:25:28.454460,-145.0
2023-08-12 14:25:28.462150,-154.0
2023-08-12 14:25:28.469840,-154.0
2023-08-12 14:25:28.477530,-149.0
2023-08-12 14:25:28.485219,-149.0
2023-08-12 14:25:28.492909,-145.0
2023-08-12 14:25:28.500599,-138.0
2023-08-12 14:25:28.508289,-133.0
2023-08-12 14:25:28.515979,-128.0
2023-08-12 14:25:28.523669,-130.0
2023-08-12 14:25:28.531359,-135.0
2023-08-12 14:25:28.539049,-128.0
2023-08-12 14:25:28.546739,-116.0
2023-08-12 14:25:28.554429,-114.0
2023-08-12 14:25:28.562119,-114.0
2023-08-12 14:25:28.569809,-109.0
2023-08-12 14:25:28.577499,-104.0
2023-08-12 14:25:28.585189,-107.0
2023-08-12 14:25:28.592879,-104.0
2023-08-12 14:25:28.600569,-102.0
2023-08-12 14:25:28.608259,-99.0
2023-08-12 14:25:28.615949,-102.0
2023-08-12 14:25:28.623639,-99.0
2023-08-12 14:25:28.631329,-97.0
2023-08-12 14:25:28.639019,-97.0
2023-08-12 14:25:28.646709,-95.0
2023-08-12 14:25:28.654399,-92.0
2023-08-12 14:25:28.662089,-95.0
2023-08-12 14:25:28.669779,-90.0
2023-08-12 14:25:28.677469,-88.0
2023-08-12 14:25:28.685159,-90.0
2023-08-12 14:25:28.692849,-88.0
2023-08-12 14:25:28.700539,-80.0
2023-08-12 14:25:28.708228,-80.0
2023-08-12 14:25:28.715918,-83.0
2023-08-12 14:25:28.723608,-80.0
2023-08-12 14:25:28.731298,-76.0
2023-08-12 14:25:28.738988,-78.0
2023-08-12 14:25:28.746678,-78.0
2023-08-12 14:25:28.754368,-73.0
2023-08-12 14:25:28.762058,-73.0
2023-08-12 14:25:28.769748,-71.0
2023-08-12 14:25:28.777438,-69.0
2023-08-12 14:25:28.785128,-71.0
2023-08-12 14:25:28.792818,-73.0
2023-08-12 14:25:28.800508,-69.0
2023-08-12 14:25:28.808198,-61.0
2023-08-12 14:25:28.815888,-66.0
2023-08-12 14:25:28.823578,-71.0
2023-08-12 14:25:28.831268,-69.0
2023-08-12 14:25:28.838958,-66.0
2023-08-12 14:25:28.846648,-66.0
2023-08-12 14:25:28.854338,-64.0
2023-08-12 14:25:28.862028,-64.0
2023-08-12 14:25:28.869718,-64.0
2023-08-12 14:25:28.877408,-64.0
2023-08-12 14:25:28.885098,-64.0
2023-08-12 14:25:28.892788,-59.0
2023-08-12 14:25:28.900478,-59.0
2023-08-12 14:25:28.908168,-61.0
2023-08-12 14:25:28.915858,-57.0
2023-08-12 14:25:28.923548,-52.0
2023-08-12 14:25:28.931237,-52.0
2023-08-12 14:25:28.938927,-49.0
2023-08-12 14:25:28.946617,-45.0
2023-08-12 14:25:28.954307,-33.0
2023-08-12 14:25:28.961997,-26.0
2023-08-12 14:25:28.969687,-33.0
2023-08-12 14:25:28.977377,-45.0
2023-08-12 14:25:28.985067,-47.0
2023-08-12 14:25:28.992757,-42.0
2023-08-12 14:25:29.000447,-47.0
2023-08-12 14:25:29.008137,-59.0
2023-08-12 14:25:29.015827,-71.0
2023-08-12 14:25:29.023517,-78.0
2023-08-12 14:25:29.031207,-83.0
2023-08-12 14:25:29.038897,-78.0
2023-08-12 14:25:29.046587,-71.0
2023-08-12 14:25:29.054277,-73.0
2023-08-12 14:25:29.061967,-78.0
2023-08-12 14:25:29.069657,-28.0
2023-08-12 14:25:29.077347,140.0
2023-08-12 14:25:29.085037,388.0
2023-08-12 14:25:29.092727,507.0
2023-08-12 14:25:29.100417,311.0
2023-08-12 14:25:29.108107,-40.0
2023-08-12 14:25:29.115797,-190.0
2023-08-12 14:25:29.123487,-157.0
2023-08-12 14:25:29.131177,-157.0
2023-08-12 14:25:29.138867,-142.0
2023-08-12 14:25:29.146557,-92.0
2023-08-12 14:25:29.154246,-90.0
2023-08-12 14:25:29.161936,-95.0
2023-08-12 14:25:29.169626,-76.0
2023-08-12 14:25:29.177316,-71.0
2023-08-12 14:25:29.185006,-71.0
2023-08-12 14:25:29.192696,-64.0
2023-08-12 14:25:29.200386,-59.0
2023-08-12 14:25:29.208076,-54.0
2023-08-12 14:25:29.215766,-45.0
2023-08-12 14:25:29.223456,-38.0
2023-08-12 14:25:29.231146,-33.0
2023-08-12 14:25:29.238836,-26.0
2023-08-12 14:25:29.246526,-16.0
2023-08-12 14:25:29.254216,-4.0
2023-08-12 14:25:29.261906,4.0
2023-08-12 14:25:29.269596,16.0
2023-08-12 14:25:29.277286,33.0
2023-08-12 14:25:29.284976,45.0
2023-08-12 14:25:29.292666,52.0
2023-08-12 14:25:29.300356,64.0
2023-08-12 14:25:29.308046,73.0
2023-08-12 14:25:29.315736,71.0
2023-08-12 14:25:29.323426,61.0
2023-08-12 14:25:29.331116,45.0
2023-08-12 14:25:29.338806,26.0
2023-08-12 14:25:29.346496,2.0
2023-08-12 14:25:29.354186,-33.0
2023-08-12 14:25:29.361876,-66.0
2023-08-12 14:25:29.369566,-95.0
2023-08-12 14:25:29.377256,-123.0
2023-08-12 14:25:29.384945,-142.0
2023-08-12 14:25:29.392635,-145.0
2023-08-12 14:25:29.400325,-145.0
2023-08-12 14:25:29.408015,-149.0
2023-08-12 14:25:29.415705,-152.0
2023-08-12 14:25:29.423395,-145.0
2023-08-12 14:25:29.431085,-138.0
2023-08-12 14:25:29.438775,-130.0
2023-08-12 14:25:29.446465,-128.0
2023-08-12 14:25:29.454155,-123.0
2023-08-12 14:25:29.461845,-121.0
2023-08-12 14:25:29.469535,-123.0
2023-08-12 14:25:29.477225,-121.0
2023-08-12 14:25:29.484915,-114.0
2023-08-12 14:25:29.492605,-109.0
2023-08-12 14:25:29.500295,-109.0
2023-08-12 14:25:29.507985,-107.0
2023-08-12 14:25:29.515675,-102.0
2023-08-12 14:25:29.523365,-99.0
2023-08-12 14:25:29.531055,-104.0
2023-08-12 14:25:29.538745,-109.0
2023-08-12 14:25:29.546435,-109.0
2023-08-12 14:25:29.554125,-111.0
2023-08-12 14:25:29.561815,-119.0
2023-08-12 14:25:29.569505,-119.0
2023-08-12 14:25:29.577195,-111.0
2023-08-12 14:25:29.584885,-107.0
2023-08-12 14:25:29.592575,-107.0
2023-08-12 14:25:29.600265,-109.0
2023-08-12 14:25:29.607954,-111.0
2023-08-12 14:25:29.615644,-109.0
2023-08-12 14:25:29.623334,-104.0
2023-08-12 14:25:29.631024,-99.0
2023-08-12 14:25:29.638714,-99.0
2023-08-12 14:25:29.646404,-97.0
2023-08-12 14:25:29.654094,-95.0
2023-08-12 14:25:29.661784,-92.0
2023-08-12 14:25:29.669474,-90.0
2023-08-12 14:25:29.677164,-88.0
2023-08-12 14:25:29.684854,-90.0
2023-08-12 14:25:29.692544,-85.0
2023-08-12 14:25:29.700234,-85.0
2023-08-12 14:25:29.707924,-90.0
2023-08-12 14:25:29.715614,-88.0
2023-08-12 14:25:29.723304,-80.0
2023-08-12 14:25:29.730994,-83.0
2023-08-12 14:25:29.738684,-88.0
2023-08-12 14:25:29.746374,-83.0
2023-08-12 14:25:29.754064,-80.0
2023-08-12 14:25:29.761754,-78.0
2023-08-12 14:25:29.769444,-76.0
2023-08-12 14:25:29.777134,-78.0
2023-08-12 14:25:29.784824,-80.0
2023-08-12 14:25:29.792514,-76.0
2023-08-12 14:25:29.800204,-71.0
2023-08-12 14:25:29.807894,-73.0
2023-08-12 14:25:29.815584,-71.0
2023-08-12 14:25:29.823274,-71.0
2023-08-12 14:25:29.830963,-76.0
2023-08-12 14:25:29.838653,-78.0
2023-08-12 14:25:29.846343,-73.0
2023-08-12 14:25:29.854033,-73.0
2023-08-12 14:25:29.861723,-71.0
2023-08-12 14:25:29.869413,-69.0
2023-08-12 14:25:29.877103,-66.0
2023-08-12 14:25:29.884793,-61.0
2023-08-12 14:25:29.892483,-57.0
2023-08-12 14:25:29.900173,-47.0
2023-08-12 14:25:29.907863,-35.0
2023-08-12 14:25:29.915553,-30.0
2023-08-12 14:25:29.923243,-30.0
2023-08-12 14:25:29.930933,-35.0
2023-08-12 14:25:29.938623,-42.0
2023-08-12 14:25:29.946313,-45.0
2023-08-12 14:25:29.954003,-47.0
2023-08-12 14:25:29.961693,-59.0
2023-08-12 14:25:29.969383,-73.0
2023-08-12 14:25:29.977073,-80.0
2023-08-12 14:25:29.984763,-76.0
2023-08-12 14:25:29.992453,-69.0
2023-08-12 14:25:30.000143,-71.0
2023-08-12 14:25:30.007833,-76.0
2023-08-12 14:25:30.015523,-71.0
2023-08-12 14:25:30.023213,-16.0
2023-08-12 14:25:30.030903,145.0
2023-08-12 14:25:30.038593,388.0
2023-08-12 14:25:30.046283,504.0
2023-08-12 14:25:30.053972,292.0
2023-08-12 14:25:30.061662,-66.0
2023-08-12 14:25:30.069352,-209.0
2023-08-12 14:25:30.077042,-171.0
2023-08-12 14:25:30.084732,-169.0
2023-08-12 14:25:30.092422,-159.0
2023-08-12 14:25:30.100112,-109.0
2023-08-12 14:25:30.107802,-102.0
2023-08-12 14:25:30.115492,-109.0
2023-08-12 14:25:30.123182,-95.0
2023-08-12 14:25:30.130872,-83.0
2023-08-12 14:25:30.138562,-85.0
2023-08-12 14:25:30.146252,-90.0
2023-08-12 14:25:30.153942,-83.0
2023-08-12 14:25:30.161632,-71.0
2023-08-12 14:25:30.169322,-66.0
2023-08-12 14:25:30.177012,-61.0
2023-08-12 14:25:30.184702,-54.0
2023-08-12 14:25:30.192392,-49.0
2023-08-12 14:25:30.200082,-40.0
2023-08-12 14:25:30.207772,-26.0
2023-08-12 14:25:30.215462,-14.0
2023-08-12 14:25:30.223152,-2.0
2023-08-12 14:25:30.230842,9.0
2023-08-12 14:25:30.238532,16.0
2023-08-12 14:25:30.246222,33.0
2023-08-12 14:25:30.253912,49.0
2023-08-12 14:25:30.261602,54.0
2023-08-12 14:25:30.269292,52.0
2023-08-12 14:25:30.276982,35.0
2023-08-12 14:25:30.284671,23.0
2023-08-12 14:25:30.292361,14.0
2023-08-12 14:25:30.300051,-16.0
2023-08-12 14:25:30.307741,-64.0
2023-08-12 14:25:30.315431,-109.0
2023-08-12 14:25:30.323121,-142.0
2023-08-12 14:25:30.330811,-164.0
2023-08-12 14:25:30.338501,-176.0
2023-08-12 14:25:30.346191,-185.0
2023-08-12 14:25:30.353881,-185.0
2023-08-12 14:25:30.361571,-183.0
2023-08-12 14:25:30.369261,-180.0
2023-08-12 14:25:30.376951,-176.0
2023-08-12 14:25:30.384641,-169.0
2023-08-12 14:25:30.392331,-164.0
2023-08-12 14:25:30.400021,-157.0
2023-08-12 14:25:30.407711,-152.0
2023-08-12 14:25:30.415401,-149.0
2023-08-12 14:25:30.423091,-140.0
2023-08-12 14:25:30.430781,-138.0
2023-08-12 14:25:30.438471,-138.0
2023-08-12 14:25:30.446161,-126.0
2023-08-12 14:25:30.453851,-119.0
2023-08-12 14:25:30.461541,-123.0
2023-08-12 14:25:30.469231,-119.0
2023-08-12 14:25:30.476921,-111.0
2023-08-12 14:25:30.484611,-109.0
2023-08-12 14:25:30.492301,-114.0
2023-08-12 14:25:30.499991,-109.0
2023-08-12 14:25:30.507680,-104.0
2023-08-12 14:25:30.515370,-104.0
2023-08-12 14:25:30.523060,-99.0
2023-08-12 14:25:30.530750,-97.0
2023-08-12 14:25:30.538440,-104.0
2023-08-12 14:25:30.546130,-109.0
2023-08-12 14:25:30.553820,-107.0
2023-08-12 14:25:30.561510,-107.0
2023-08-12 14:25:30.569200,-104.0
2023-08-12 14:25:30.576890,-97.0
2023-08-12 14:25:30.584580,-97.0
2023-08-12 14:25:30.592270,-99.0
2023-08-12 14:25:30.599960,-95.0
2023-08-12 14:25:30.607650,-90.0
2023-08-12 14:25:30.615340,-90.0
2023-08-12 14:25:30.623030,-90.0
2023-08-12 14:25:30.630720,-92.0
2023-08-12 14:25:30.638410,-99.0
2023-08-12 14:25:30.646100,-95.0
2023-08-12 14:25:30.653790,-88.0
2023-08-12 14:25:30.661480,-88.0
2023-08-12 14:25:30.669170,-90.0
2023-08-12 14:25:30.676860,-90.0
2023-08-12 14:25:30.684550,-97.0
2023-08-12 14:25:30.692240,-99.0
2023-08-12 14:25:30.699930,-92.0
2023-08-12 14:25:30.707620,-85.0
2023-08-12 14:25:30.715310,-83.0
2023-08-12 14:25:30.723000,-83.0
2023-08-12 14:25:30.730689,-80.0
2023-08-12 14:25:30.738379,-78.0
2023-08-12 14:25:30.746069,-78.0
2023-08-12 14:25:30.753759,-76.0
2023-08-12 14:25:30.761449,-76.0
2023-08-12 14:25:30.769139,-73.0
2023-08-12 14:25:30.776829,-66.0
2023-08-12 14:25:30.784519,-61.0
2023-08-12 14:25:30.792209,-61.0
2023-08-12 14:25:30.799899,-54.0
2023-08-12 14:25:30.807589,-45.0
2023-08-12 14:25:30.815279,-42.0
2023-08-12 14:25:30.822969,-40.0
2023-08-12 14:25:30.830659,-38.0
2023-08-12 14:25:30.838349,-42.0
2023-08-12 14:25:30.846039,-47.0
2023-08-12 14:25:30.853729,-52.0
2023-08-12 14:25:30.861419,-64.0
2023-08-12 14:25:30.869109,-73.0
2023-08-12 14:25:30.876799,-76.0
2023-08-12 14:25:30.884489,-71.0
2023-08-12 14:25:30.892179,-64.0
2023-08-12 14:25:30.899869,-64.0
2023-08-12 14:25:30.907559,-66.0
2023-08-12 14:25:30.915249,-69.0
2023-08-12 14:25:30.922939,-33.0
2023-08-12 14:25:30.930629,109.0
2023-08-12 14:25:30.938319,357.0
2023-08-12 14:25:30.946009,526.0
2023-08-12 14:25:30.953698,368.0
2023-08-12 14:25:30.961388,-4.0
2023-08-12 14:25:30.969078,-190.0
2023-08-12 14:25:30.976768,-154.0
2023-08-12 14:25:30.984458,-147.0
2023-08-12 14:25:30.992148,-147.0
2023-08-12 14:25:30.999838,-90.0
2023-08-12 14:25:31.007528,-66.0
2023-08-12 14:25:31.015218,-80.0
2023-08-12 14:25:31.022908,-69.0
2023-08-12 14:25:31.030598,-52.0
2023-08-12 14:25:31.038288,-59.0
2023-08-12 14:25:31.045978,-64.0
2023-08-12 14:25:31.053668,-59.0
2023-08-12 14:25:31.061358,-52.0
2023-08-12 14:25:31.069048,-47.0
2023-08-12 14:25:31.076738,-38.0
2023-08-12 14:25:31.084428,-26.0
2023-08-12 14:25:31.092118,-21.0
2023-08-12 14:25:31.099808,-14.0
2023-08-12 14:25:31.107498,0.0
2023-08-12 14:25:31.115188,9.0
2023-08-12 14:25:31.122878,19.0
2023-08-12 14:25:31.130568,33.0
2023-08-12 14:25:31.138258,47.0
2023-08-12 14:25:31.145948,61.0
2023-08-12 14:25:31.153638,76.0
2023-08-12 14:25:31.161328,83.0
2023-08-12 14:25:31.169018,83.0
2023-08-12 14:25:31.176708,76.0
2023-08-12 14:25:31.184397,64.0
2023-08-12 14:25:31.192087,49.0
2023-08-12 14:25:31.199777,19.0
2023-08-12 14:25:31.207467,-21.0
2023-08-12 14:25:31.215157,-64.0
2023-08-12 14:25:31.222847,-107.0
2023-08-12 14:25:31.230537,-138.0
2023-08-12 14:25:31.238227,-147.0
2023-08-12 14:25:31.245917,-152.0
2023-08-12 14:25:31.253607,-152.0
2023-08-12 14:25:31.261297,-154.0
2023-08-12 14:25:31.268987,-159.0
2023-08-12 14:25:31.276677,-159.0
2023-08-12 14:25:31.284367,-149.0
2023-08-12 14:25:31.292057,-142.0
2023-08-12 14:25:31.299747,-140.0
2023-08-12 14:25:31.307437,-138.0
2023-08-12 14:25:31.315127,-133.0
2023-08-12 14:25:31.322817,-128.0
2023-08-12 14:25:31.330507,-121.0
2023-08-12 14:25:31.338197,-119.0
2023-08-12 14:25:31.345887,-121.0
2023-08-12 14:25:31.353577,-116.0
2023-08-12 14:25:31.361267,-107.0
2023-08-12 14:25:31.368957,-102.0
2023-08-12 14:25:31.376647,-97.0
2023-08-12 14:25:31.384337,-99.0
2023-08-12 14:25:31.392027,-99.0
2023-08-12 14:25:31.399717,-95.0
2023-08-12 14:25:31.407406,-95.0
2023-08-12 14:25:31.415096,-95.0
2023-08-12 14:25:31.422786,-88.0
2023-08-12 14:25:31.430476,-83.0
2023-08-12 14:25:31.438166,-85.0
2023-08-12 14:25:31.445856,-90.0
2023-08-12 14:25:31.453546,-88.0
2023-08-12 14:25:31.461236,-88.0
2023-08-12 14:25:31.468926,-85.0
2023-08-12 14:25:31.476616,-83.0
2023-08-12 14:25:31.484306,-78.0
2023-08-12 14:25:31.491996,-78.0
2023-08-12 14:25:31.499686,-76.0
2023-08-12 14:25:31.507376,-73.0
2023-08-12 14:25:31.515066,-73.0
2023-08-12 14:25:31.522756,-71.0
2023-08-12 14:25:31.530446,-71.0
2023-08-12 14:25:31.538136,-71.0
2023-08-12 14:25:31.545826,-73.0
2023-08-12 14:25:31.553516,-80.0
2023-08-12 14:25:31.561206,-80.0
2023-08-12 14:25:31.568896,-73.0
2023-08-12 14:25:31.576586,-73.0
2023-08-12 14:25:31.584276,-78.0
2023-08-12 14:25:31.591966,-71.0
2023-08-12 14:25:31.599656,-64.0
2023-08-12 14:25:31.607346,-66.0
2023-08-12 14:25:31.615036,-66.0
2023-08-12 14:25:31.622726,-61.0
2023-08-12 14:25:31.630415,-64.0
2023-08-12 14:25:31.638105,-61.0
2023-08-12 14:25:31.645795,-57.0
2023-08-12 14:25:31.653485,-57.0
2023-08-12 14:25:31.661175,-57.0
2023-08-12 14:25:31.668865,-59.0
2023-08-12 14:25:31.676555,-54.0
2023-08-12 14:25:31.684245,-54.0
2023-08-12 14:25:31.691935,-57.0
2023-08-12 14:25:31.699625,-57.0
2023-08-12 14:25:31.707315,-49.0
2023-08-12 14:25:31.715005,-42.0
2023-08-12 14:25:31.722695,-40.0
2023-08-12 14:25:31.730385,-38.0
2023-08-12 14:25:31.738075,-23.0
2023-08-12 14:25:31.745765,-14.0
2023-08-12 14:25:31.753455,-16.0
2023-08-12 14:25:31.761145,-26.0
2023-08-12 14:25:31.768835,-30.0
2023-08-12 14:25:31.776525,-30.0
2023-08-12 14:25:31.784215,-33.0
2023-08-12 14:25:31.791905,-45.0
2023-08-12 14:25:31.799595,-61.0
2023-08-12 14:25:31.807285,-78.0
2023-08-12 14:25:31.814975,-78.0
2023-08-12 14:25:31.822665,-66.0
2023-08-12 14:25:31.830355,-64.0
2023-08-12 14:25:31.838045,-69.0
2023-08-12 14:25:31.845735,-66.0
2023-08-12 14:25:31.853424,-30.0
2023-08-12 14:25:31.861114,116.0
2023-08-12 14:25:31.868804,361.0
2023-08-12 14:25:31.876494,507.0
2023-08-12 14:25:31.884184,347.0
2023-08-12 14:25:31.891874,-2.0
2023-08-12 14:25:31.899564,-185.0
2023-08-12 14:25:31.907254,-154.0
2023-08-12 14:25:31.914944,-138.0
2023-08-12 14:25:31.922634,-135.0
2023-08-12 14:25:31.930324,-88.0
2023-08-12 14:25:31.938014,-76.0
2023-08-12 14:25:31.945704,-85.0
2023-08-12 14:25:31.953394,-71.0
2023-08-12 14:25:31.961084,-61.0
2023-08-12 14:25:31.968774,-66.0
2023-08-12 14:25:31.976464,-57.0
2023-08-12 14:25:31.984154,-47.0
2023-08-12 14:25:31.991844,-42.0
2023-08-12 14:25:31.999534,-40.0
2023-08-12 14:25:32.007224,-33.0
2023-08-12 14:25:32.014914,-23.0
2023-08-12 14:25:32.022604,-16.0
2023-08-12 14:25:32.030294,-7.0
2023-08-12 14:25:32.037984,0.0
2023-08-12 14:25:32.045674,4.0
2023-08-12 14:25:32.053364,9.0
2023-08-12 14:25:32.061054,23.0
2023-08-12 14:25:32.068744,45.0
2023-08-12 14:25:32.076434,57.0
2023-08-12 14:25:32.084123,64.0
2023-08-12 14:25:32.091813,71.0
2023-08-12 14:25:32.099503,73.0
2023-08-12 14:25:32.107193,66.0
2023-08-12 14:25:32.114883,54.0
2023-08-12 14:25:32.122573,38.0
2023-08-12 14:25:32.130263,11.0
2023-08-12 14:25:32.137953,-21.0
2023-08-12 14:25:32.145643,-59.0
2023-08-12 14:25:32.153333,-92.0
2023-08-12 14:25:32.161023,-114.0
2023-08-12 14:25:32.168713,-130.0
2023-08-12 14:25:32.176403,-140.0
2023-08-12 14:25:32.184093,-142.0
2023-08-12 14:25:32.191783,-138.0
2023-08-12 14:25:32.199473,-135.0
2023-08-12 14:25:32.207163,-133.0
2023-08-12 14:25:32.214853,-128.0
2023-08-12 14:25:32.222543,-126.0
2023-08-12 14:25:32.230233,-119.0
2023-08-12 14:25:32.237923,-109.0
2023-08-12 14:25:32.245613,-109.0
2023-08-12 14:25:32.253303,-111.0
2023-08-12 14:25:32.260993,-104.0
2023-08-12 14:25:32.268683,-99.0
2023-08-12 14:25:32.276373,-102.0
2023-08-12 14:25:32.284063,-102.0
2023-08-12 14:25:32.291753,-99.0
2023-08-12 14:25:32.299443,-99.0
2023-08-12 14:25:32.307132,-95.0
2023-08-12 14:25:32.314822,-88.0
2023-08-12 14:25:32.322512,-85.0
2023-08-12 14:25:32.330202,-90.0
2023-08-12 14:25:32.337892,-95.0
2023-08-12 14:25:32.345582,-97.0
2023-08-12 14:25:32.353272,-97.0
2023-08-12 14:25:32.360962,-90.0
2023-08-12 14:25:32.368652,-88.0
2023-08-12 14:25:32.376342,-95.0
2023-08-12 14:25:32.384032,-95.0
2023-08-12 14:25:32.391722,-102.0
2023-08-12 14:25:32.399412,-107.0
2023-08-12 14:25:32.407102,-92.0
2023-08-12 14:25:32.414792,-83.0
2023-08-12 14:25:32.422482,-90.0
2023-08-12 14:25:32.430172,-95.0
2023-08-12 14:25:32.437862,-97.0
2023-08-12 14:25:32.445552,-92.0
2023-08-12 14:25:32.453242,-83.0
2023-08-12 14:25:32.460932,-78.0
2023-08-12 14:25:32.468622,-80.0
2023-08-12 14:25:32.476312,-85.0
2023-08-12 14:25:32.484002,-80.0
2023-08-12 14:25:32.491692,-76.0
2023-08-12 14:25:32.499382,-76.0
2023-08-12 14:25:32.507072,-73.0
2023-08-12 14:25:32.514762,-73.0
2023-08-12 14:25:32.522452,-76.0
2023-08-12 14:25:32.530141,-76.0
2023-08-12 14:25:32.537831,-71.0
2023-08-12 14:25:32.545521,-69.0
2023-08-12 14:25:32.553211,-71.0
2023-08-12 14:25:32.560901,-78.0
2023-08-12 14:25:32.568591,-83.0
2023-08-12 14:25:32.576281,-76.0
2023-08-12 14:25:32.583971,-69.0
2023-08-12 14:25:32.591661,-69.0
2023-08-12 14:25:32.599351,-69.0
2023-08-12 14:25:32.607041,-69.0
2023-08-12 14:25:32.614731,-71.0
2023-08-12 14:25:32.622421,-69.0
2023-08-12 14:25:32.630111,-61.0
2023-08-12 14:25:32.637801,-61.0
2023-08-12 14:25:32.645491,-59.0
2023-08-12 14:25:32.653181,-54.0
2023-08-12 14:25:32.660871,-54.0
2023-08-12 14:25:32.668561,-52.0
2023-08-12 14:25:32.676251,-35.0
2023-08-12 14:25:32.683941,-23.0
2023-08-12 14:25:32.691631,-26.0
2023-08-12 14:25:32.699321,-28.0
2023-08-12 14:25:32.707011,-33.0
2023-08-12 14:25:32.714701,-38.0
2023-08-12 14:25:32.722391,-45.0
2023-08-12 14:25:32.730081,-47.0
2023-08-12 14:25:32.737771,-52.0
2023-08-12 14:25:32.745461,-66.0
2023-08-12 14:25:32.753150,-76.0
2023-08-12 14:25:32.760840,-71.0
2023-08-12 14:25:32.768530,-61.0
2023-08-12 14:25:32.776220,-64.0
2023-08-12 14:25:32.783910,-69.0
2023-08-12 14:25:32.791600,-47.0
2023-08-12 14:25:32.799290,69.0
2023-08-12 14:25:32.806980,307.0
2023-08-12 14:25:32.814670,504.0
2023-08-12 14:25:32.822360,404.0
2023-08-12 14:25:32.830050,47.0
2023-08-12 14:25:32.837740,-183.0
2023-08-12 14:25:32.845430,-171.0
2023-08-12 14:25:32.853120,-149.0
2023-08-12 14:25:32.860810,-149.0
2023-08-12 14:25:32.868500,-95.0
2023-08-12 14:25:32.876190,-66.0
2023-08-12 14:25:32.883880,-85.0
2023-08-12 14:25:32.891570,-80.0
2023-08-12 14:25:32.899260,-59.0
2023-08-12 14:25:32.906950,-59.0
2023-08-12 14:25:32.914640,-59.0
2023-08-12 14:25:32.922330,-52.0
2023-08-12 14:25:32.930020,-49.0
2023-08-12 14:25:32.937710,-52.0
2023-08-12 14:25:32.945400,-40.0
2023-08-12 14:25:32.953090,-28.0
2023-08-12 14:25:32.960780,-26.0
2023-08-12 14:25:32.968470,-14.0
2023-08-12 14:25:32.976160,0.0
2023-08-12 14:25:32.983849,7.0
2023-08-12 14:25:32.991539,16.0
2023-08-12 14:25:32.999229,35.0
2023-08-12 14:25:33.006919,49.0
2023-08-12 14:25:33.014609,61.0
2023-08-12 14:25:33.022299,71.0
2023-08-12 14:25:33.029989,76.0
2023-08-12 14:25:33.037679,80.0
2023-08-12 14:25:33.045369,83.0
2023-08-12 14:25:33.053059,64.0
2023-08-12 14:25:33.060749,40.0
2023-08-12 14:25:33.068439,14.0
2023-08-12 14:25:33.076129,-23.0
2023-08-12 14:25:33.083819,-66.0
2023-08-12 14:25:33.091509,-102.0
2023-08-12 14:25:33.099199,-123.0
2023-08-12 14:25:33.106889,-138.0
2023-08-12 14:25:33.114579,-147.0
2023-08-12 14:25:33.122269,-149.0
2023-08-12 14:25:33.129959,-145.0
2023-08-12 14:25:33.137649,-145.0
2023-08-12 14:25:33.145339,-147.0
2023-08-12 14:25:33.153029,-147.0
2023-08-12 14:25:33.160719,-142.0
2023-08-12 14:25:33.168409,-135.0
2023-08-12 14:25:33.176099,-133.0
2023-08-12 14:25:33.183789,-133.0
2023-08-12 14:25:33.191479,-128.0
2023-08-12 14:25:33.199169,-121.0
2023-08-12 14:25:33.206858,-121.0
2023-08-12 14:25:33.214548,-116.0
2023-08-12 14:25:33.222238,-111.0
2023-08-12 14:25:33.229928,-107.0
2023-08-12 14:25:33.237618,-102.0
2023-08-12 14:25:33.245308,-97.0
2023-08-12 14:25:33.252998,-102.0
2023-08-12 14:25:33.260688,-102.0
2023-08-12 14:25:33.268378,-102.0
2023-08-12 14:25:33.276068,-102.0
2023-08-12 14:25:33.283758,-99.0
2023-08-12 14:25:33.291448,-97.0
2023-08-12 14:25:33.299138,-102.0
2023-08-12 14:25:33.306828,-99.0
2023-08-12 14:25:33.314518,-92.0
2023-08-12 14:25:33.322208,-90.0
2023-08-12 14:25:33.329898,-92.0
2023-08-12 14:25:33.337588,-95.0
2023-08-12 14:25:33.345278,-92.0
2023-08-12 14:25:33.352968,-92.0
2023-08-12 14:25:33.360658,-92.0
2023-08-12 14:25:33.368348,-90.0
2023-08-12 14:25:33.376038,-88.0
2023-08-12 14:25:33.383728,-85.0
2023-08-12 14:25:33.391418,-83.0
2023-08-12 14:25:33.399108,-80.0
2023-08-12 14:25:33.406798,-80.0
2023-08-12 14:25:33.414488,-80.0
2023-08-12 14:25:33.422178,-78.0
2023-08-12 14:25:33.429867,-76.0
2023-08-12 14:25:33.437557,-76.0
2023-08-12 14:25:33.445247,-76.0
2023-08-12 14:25:33.452937,-76.0
2023-08-12 14:25:33.460627,-73.0
2023-08-12 14:25:33.468317,-73.0
2023-08-12 14:25:33.476007,-80.0
2023-08-12 14:25:33.483697,-83.0
2023-08-12 14:25:33.491387,-80.0
2023-08-12 14:25:33.499077,-78.0
2023-08-12 14:25:33.506767,-76.0
2023-08-12 14:25:33.514457,-73.0
2023-08-12 14:25:33.522147,-73.0
2023-08-12 14:25:33.529837,-76.0
2023-08-12 14:25:33.537527,-76.0
2023-08-12 14:25:33.545217,-64.0
2023-08-12 14:25:33.552907,-57.0
2023-08-12 14:25:33.560597,-59.0
2023-08-12 14:25:33.568287,-64.0
2023-08-12 14:25:33.575977,-54.0
2023-08-12 14:25:33.583667,-40.0
2023-08-12 14:25:33.591357,-35.0
2023-08-12 14:25:33.599047,-42.0
2023-08-12 14:25:33.606737,-54.0
2023-08-12 14:25:33.614427,-57.0
2023-08-12 14:25:33.622117,-57.0
2023-08-12 14:25:33.629807,-69.0
2023-08-12 14:25:33.637497,-80.0
2023-08-12 14:25:33.645187,-83.0
2023-08-12 14:25:33.652876,-85.0
2023-08-12 14:25:33.660566,-83.0
2023-08-12 14:25:33.668256,-76.0
2023-08-12 14:25:33.675946,-73.0
2023-08-12 14:25:33.683636,-78.0
2023-08-12 14:25:33.691326,-59.0
2023-08-12 14:25:33.699016,52.0
2023-08-12 14:25:33.706706,285.0
2023-08-12 14:25:33.714396,499.0
2023-08-12 14:25:33.722086,426.0
2023-08-12 14:25:33.729776,69.0
2023-08-12 14:25:33.737466,-183.0
2023-08-12 14:25:33.745156,-173.0
2023-08-12 14:25:33.752846,-152.0
2023-08-12 14:25:33.760536,-164.0
2023-08-12 14:25:33.768226,-111.0
2023-08-12 14:25:33.775916,-76.0
2023-08-12 14:25:33.783606,-88.0
2023-08-12 14:25:33.791296,-80.0
2023-08-12 14:25:33.798986,-64.0
2023-08-12 14:25:33.806676,-66.0
2023-08-12 14:25:33.814366,-64.0
2023-08-12 14:25:33.822056,-54.0
2023-08-12 14:25:33.829746,-47.0
2023-08-12 14:25:33.837436,-38.0
2023-08-12 14:25:33.845126,-30.0
2023-08-12 14:25:33.852816,-23.0
2023-08-12 14:25:33.860506,-16.0
2023-08-12 14:25:33.868196,-9.0
2023-08-12 14:25:33.875886,-2.0
2023-08-12 14:25:33.883575,11.0
2023-08-12 14:25:33.891265,28.0
2023-08-12 14:25:33.898955,38.0
2023-08-12 14:25:33.906645,52.0
2023-08-12 14:25:33.914335,71.0
2023-08-12 14:25:33.922025,80.0
2023-08-12 14:25:33.929715,83.0
2023-08-12 14:25:33.937405,85.0
2023-08-12 14:25:33.945095,85.0
2023-08-12 14:25:33.952785,73.0
2023-08-12 14:25:33.960475,54.0
2023-08-12 14:25:33.968165,26.0
2023-08-12 14:25:33.975855,-9.0
2023-08-12 14:25:33.983545,-47.0
2023-08-12 14:25:33.991235,-80.0
2023-08-12 14:25:33.998925,-107.0
2023-08-12 14:25:34.006615,-128.0
2023-08-12 14:25:34.014305,-138.0
2023-08-12 14:25:34.021995,-140.0
2023-08-12 14:25:34.029685,-138.0
2023-08-12 14:25:34.037375,-130.0
2023-08-12 14:25:34.045065,-128.0
2023-08-12 14:25:34.052755,-135.0
2023-08-12 14:25:34.060445,-138.0
2023-08-12 14:25:34.068135,-135.0
2023-08-12 14:25:34.075825,-135.0
2023-08-12 14:25:34.083515,-133.0
2023-08-12 14:25:34.091205,-123.0
2023-08-12 14:25:34.098895,-126.0
2023-08-12 14:25:34.106584,-126.0
2023-08-12 14:25:34.114274,-116.0
2023-08-12 14:25:34.121964,-114.0
2023-08-12 14:25:34.129654,-111.0
2023-08-12 14:25:34.137344,-104.0
2023-08-12 14:25:34.145034,-104.0
2023-08-12 14:25:34.152724,-104.0
2023-08-12 14:25:34.160414,-99.0
2023-08-12 14:25:34.168104,-97.0
2023-08-12 14:25:34.175794,-97.0
2023-08-12 14:25:34.183484,-95.0
2023-08-12 14:25:34.191174,-95.0
2023-08-12 14:25:34.198864,-90.0
2023-08-12 14:25:34.206554,-88.0
2023-08-12 14:25:34.214244,-88.0
2023-08-12 14:25:34.221934,-90.0
2023-08-12 14:25:34.229624,-88.0
2023-08-12 14:25:34.237314,-85.0
2023-08-12 14:25:34.245004,-88.0
2023-08-12 14:25:34.252694,-90.0
2023-08-12 14:25:34.260384,-88.0
2023-08-12 14:25:34.268074,-85.0
2023-08-12 14:25:34.275764,-90.0
2023-08-12 14:25:34.283454,-88.0
2023-08-12 14:25:34.291144,-78.0
2023-08-12 14:25:34.298834,-76.0
2023-08-12 14:25:34.306524,-78.0
2023-08-12 14:25:34.314214,-76.0
2023-08-12 14:25:34.321904,-78.0
2023-08-12 14:25:34.329593,-76.0
2023-08-12 14:25:34.337283,-73.0
2023-08-12 14:25:34.344973,-73.0
2023-08-12 14:25:34.352663,-69.0
2023-08-12 14:25:34.360353,-66.0
2023-08-12 14:25:34.368043,-71.0
2023-08-12 14:25:34.375733,-71.0
2023-08-12 14:25:34.383423,-66.0
2023-08-12 14:25:34.391113,-64.0
2023-08-12 14:25:34.398803,-61.0
2023-08-12 14:25:34.406493,-59.0
2023-08-12 14:25:34.414183,-64.0
2023-08-12 14:25:34.421873,-64.0
2023-08-12 14:25:34.429563,-57.0
2023-08-12 14:25:34.437253,-57.0
2023-08-12 14:25:34.444943,-59.0
2023-08-12 14:25:34.452633,-59.0
2023-08-12 14:25:34.460323,-54.0
2023-08-12 14:25:34.468013,-52.0
2023-08-12 14:25:34.475703,-52.0
2023-08-12 14:25:34.483393,-52.0
2023-08-12 14:25:34.491083,-54.0
2023-08-12 14:25:34.498773,-59.0
2023-08-12 14:25:34.506463,-61.0
2023-08-12 14:25:34.514153,-57.0
2023-08-12 14:25:34.521843,-45.0
2023-08-12 14:25:34.529533,-38.0
2023-08-12 14:25:34.537223,-38.0
2023-08-12 14:25:34.544913,-33.0
2023-08-12 14:25:34.552602,-21.0
2023-08-12 14:25:34.560292,-19.0
2023-08-12 14:25:34.567982,-23.0
2023-08-12 14:25:34.575672,-33.0
2023-08-12 14:25:34.583362,-35.0
2023-08-12 14:25:34.591052,-35.0
2023-08-12 14:25:34.598742,-45.0
2023-08-12 14:25:34.606432,-59.0
2023-08-12 14:25:34.614122,-69.0
2023-08-12 14:25:34.621812,-69.0
2023-08-12 14:25:34.629502,-61.0
2023-08-12 14:25:34.637192,-64.0
2023-08-12 14:25:34.644882,-71.0
2023-08-12 14:25:34.652572,-73.0
2023-08-12 14:25:34.660262,-54.0
2023-08-12 14:25:34.667952,47.0
2023-08-12 14:25:34.675642,268.0
2023-08-12 14:25:34.683332,480.0
2023-08-12 14:25:34.691022,435.0
2023-08-12 14:25:34.698712,116.0
2023-08-12 14:25:34.706402,-152.0
2023-08-12 14:25:34.714092,-178.0
2023-08-12 14:25:34.721782,-157.0
2023-08-12 14:25:34.729472,-166.0
2023-08-12 14:25:34.737162,-128.0
2023-08-12 14:25:34.744852,-95.0
2023-08-12 14:25:34.752542,-107.0
2023-08-12 14:25:34.760232,-99.0
2023-08-12 14:25:34.767922,-83.0
2023-08-12 14:25:34.775612,-83.0
2023-08-12 14:25:34.783301,-78.0
2023-08-12 14:25:34.790991,-69.0
2023-08-12 14:25:34.798681,-59.0
2023-08-12 14:25:34.806371,-52.0
2023-08-12 14:25:34.814061,-45.0
2023-08-12 14:25:34.821751,-40.0
2023-08-12 14:25:34.829441,-33.0
2023-08-12 14:25:34.837131,-19.0
2023-08-12 14:25:34.844821,-4.0
2023-08-12 14:25:34.852511,7.0
2023-08-12 14:25:34.860201,14.0
2023-08-12 14:25:34.867891,21.0
2023-08-12 14:25:34.875581,33.0
2023-08-12 14:25:34.883271,49.0
2023-08-12 14:25:34.890961,64.0
2023-08-12 14:25:34.898651,71.0
2023-08-12 14:25:34.906341,71.0
2023-08-12 14:25:34.914031,66.0
2023-08-12 14:25:34.921721,57.0
2023-08-12 14:25:34.929411,47.0
2023-08-12 14:25:34.937101,26.0
2023-08-12 14:25:34.944791,-9.0
2023-08-12 14:25:34.952481,-47.0
2023-08-12 14:25:34.960171,-80.0
2023-08-12 14:25:34.967861,-104.0
2023-08-12 14:25:34.975551,-116.0
2023-08-12 14:25:34.983241,-123.0
2023-08-12 14:25:34.990931,-133.0
2023-08-12 14:25:34.998621,-138.0
2023-08-12 14:25:35.006310,-138.0
2023-08-12 14:25:35.014000,-133.0
2023-08-12 14:25:35.021690,-128.0
2023-08-12 14:25:35.029380,-126.0
2023-08-12 14:25:35.037070,-123.0
2023-08-12 14:25:35.044760,-121.0
2023-08-12 14:25:35.052450,-121.0
2023-08-12 14:25:35.060140,-116.0
2023-08-12 14:25:35.067830,-111.0
2023-08-12 14:25:35.075520,-114.0
2023-08-12 14:25:35.083210,-114.0
2023-08-12 14:25:35.090900,-107.0
2023-08-12 14:25:35.098590,-107.0
2023-08-12 14:25:35.106280,-104.0
2023-08-12 14:25:35.113970,-97.0
2023-08-12 14:25:35.121660,-95.0
2023-08-12 14:25:35.129350,-95.0
2023-08-12 14:25:35.137040,-95.0
2023-08-12 14:25:35.144730,-90.0
2023-08-12 14:25:35.152420,-88.0
2023-08-12 14:25:35.160110,-85.0
2023-08-12 14:25:35.167800,-85.0
2023-08-12 14:25:35.175490,-88.0
2023-08-12 14:25:35.183180,-95.0
2023-08-12 14:25:35.190870,-95.0
2023-08-12 14:25:35.198560,-92.0
2023-08-12 14:25:35.206250,-90.0
2023-08-12 14:25:35.213940,-90.0
2023-08-12 14:25:35.221630,-92.0
2023-08-12 14:25:35.229319,-97.0
2023-08-12 14:25:35.237009,-97.0
2023-08-12 14:25:35.244699,-95.0
2023-08-12 14:25:35.252389,-92.0
2023-08-12 14:25:35.260079,-88.0
2023-08-12 14:25:35.267769,-88.0
2023-08-12 14:25:35.275459,-90.0
2023-08-12 14:25:35.283149,-90.0
2023-08-12 14:25:35.290839,-85.0
2023-08-12 14:25:35.298529,-78.0
2023-08-12 14:25:35.306219,-76.0
2023-08-12 14:25:35.313909,-76.0
2023-08-12 14:25:35.321599,-76.0
2023-08-12 14:25:35.329289,-76.0
2023-08-12 14:25:35.336979,-71.0
2023-08-12 14:25:35.344669,-69.0
2023-08-12 14:25:35.352359,-69.0
2023-08-12 14:25:35.360049,-69.0
2023-08-12 14:25:35.367739,-66.0
2023-08-12 14:25:35.375429,-69.0
2023-08-12 14:25:35.383119,-66.0
2023-08-12 14:25:35.390809,-61.0
2023-08-12 14:25:35.398499,-61.0
2023-08-12 14:25:35.406189,-61.0
2023-08-12 14:25:35.413879,-61.0
2023-08-12 14:25:35.421569,-59.0
2023-08-12 14:25:35.429259,-59.0
2023-08-12 14:25:35.436949,-61.0
2023-08-12 14:25:35.444639,-59.0
2023-08-12 14:25:35.452328,-57.0
2023-08-12 14:25:35.460018,-54.0
2023-08-12 14:25:35.467708,-52.0
2023-08-12 14:25:35.475398,-54.0
2023-08-12 14:25:35.483088,-59.0
2023-08-12 14:25:35.490778,-57.0
2023-08-12 14:25:35.498468,-49.0
2023-08-12 14:25:35.506158,-45.0
2023-08-12 14:25:35.513848,-40.0
2023-08-12 14:25:35.521538,-30.0
2023-08-12 14:25:35.529228,-21.0
2023-08-12 14:25:35.536918,-16.0
2023-08-12 14:25:35.544608,-26.0
2023-08-12 14:25:35.552298,-33.0
2023-08-12 14:25:35.559988,-30.0
2023-08-12 14:25:35.567678,-35.0
2023-08-12 14:25:35.575368,-49.0
2023-08-12 14:25:35.583058,-64.0
2023-08-12 14:25:35.590748,-71.0
2023-08-12 14:25:35.598438,-71.0
2023-08-12 14:25:35.606128,-64.0
2023-08-12 14:25:35.613818,-61.0
2023-08-12 14:25:35.621508,-61.0
2023-08-12 14:25:35.629198,-61.0
2023-08-12 14:25:35.636888,-21.0
2023-08-12 14:25:35.644578,135.0
2023-08-12 14:25:35.652268,383.0
2023-08-12 14:25:35.659958,516.0
2023-08-12 14:25:35.667648,338.0
2023-08-12 14:25:35.675338,-19.0
2023-08-12 14:25:35.683027,-185.0
2023-08-12 14:25:35.690717,-149.0
2023-08-12 14:25:35.698407,-142.0
2023-08-12 14:25:35.706097,-133.0
2023-08-12 14:25:35.713787,-83.0
2023-08-12 14:25:35.721477,-88.0
2023-08-12 14:25:35.729167,-107.0
2023-08-12 14:25:35.736857,-83.0
2023-08-12 14:25:35.744547,-61.0
2023-08-12 14:25:35.752237,-69.0
2023-08-12 14:25:35.759927,-64.0
2023-08-12 14:25:35.767617,-54.0
2023-08-12 14:25:35.775307,-47.0
2023-08-12 14:25:35.782997,-45.0
2023-08-12 14:25:35.790687,-40.0
2023-08-12 14:25:35.798377,-28.0
2023-08-12 14:25:35.806067,-16.0
2023-08-12 14:25:35.813757,-14.0
2023-08-12 14:25:35.821447,-7.0
2023-08-12 14:25:35.829137,7.0
2023-08-12 14:25:35.836827,21.0
2023-08-12 14:25:35.844517,33.0
2023-08-12 14:25:35.852207,47.0
2023-08-12 14:25:35.859897,59.0
2023-08-12 14:25:35.867587,71.0
2023-08-12 14:25:35.875277,80.0
2023-08-12 14:25:35.882967,83.0
2023-08-12 14:25:35.890657,73.0
2023-08-12 14:25:35.898347,64.0
2023-08-12 14:25:35.906036,45.0
2023-08-12 14:25:35.913726,16.0
2023-08-12 14:25:35.921416,-16.0
2023-08-12 14:25:35.929106,-57.0
2023-08-12 14:25:35.936796,-90.0
2023-08-12 14:25:35.944486,-114.0
2023-08-12 14:25:35.952176,-128.0
2023-08-12 14:25:35.959866,-133.0
2023-08-12 14:25:35.967556,-135.0
2023-08-12 14:25:35.975246,-142.0
2023-08-12 14:25:35.982936,-142.0
2023-08-12 14:25:35.990626,-138.0
2023-08-12 14:25:35.998316,-133.0
2023-08-12 14:25:36.006006,-130.0
2023-08-12 14:25:36.013696,-130.0
2023-08-12 14:25:36.021386,-128.0
2023-08-12 14:25:36.029076,-121.0
2023-08-12 14:25:36.036766,-119.0
2023-08-12 14:25:36.044456,-116.0
2023-08-12 14:25:36.052146,-111.0
2023-08-12 14:25:36.059836,-109.0
2023-08-12 14:25:36.067526,-107.0
2023-08-12 14:25:36.075216,-99.0
2023-08-12 14:25:36.082906,-99.0
2023-08-12 14:25:36.090596,-99.0
2023-08-12 14:25:36.098286,-99.0
2023-08-12 14:25:36.105976,-102.0
2023-08-12 14:25:36.113666,-102.0
2023-08-12 14:25:36.121356,-99.0
2023-08-12 14:25:36.129045,-95.0
2023-08-12 14:25:36.136735,-90.0
2023-08-12 14:25:36.144425,-85.0
2023-08-12 14:25:36.152115,-85.0
2023-08-12 14:25:36.159805,-90.0
2023-08-12 14:25:36.167495,-90.0
2023-08-12 14:25:36.175185,-88.0
2023-08-12 14:25:36.182875,-90.0
2023-08-12 14:25:36.190565,-85.0
2023-08-12 14:25:36.198255,-80.0
2023-08-12 14:25:36.205945,-83.0
2023-08-12 14:25:36.213635,-83.0
2023-08-12 14:25:36.221325,-80.0
2023-08-12 14:25:36.229015,-85.0
2023-08-12 14:25:36.236705,-83.0
2023-08-12 14:25:36.244395,-76.0
2023-08-12 14:25:36.252085,-80.0
2023-08-12 14:25:36.259775,-85.0
2023-08-12 14:25:36.267465,-85.0
2023-08-12 14:25:36.275155,-80.0
2023-08-12 14:25:36.282845,-83.0
2023-08-12 14:25:36.290535,-85.0
2023-08-12 14:25:36.298225,-83.0
2023-08-12 14:25:36.305915,-85.0
2023-08-12 14:25:36.313605,-88.0
2023-08-12 14:25:36.321295,-85.0
2023-08-12 14:25:36.328985,-83.0
2023-08-12 14:25:36.336675,-83.0
2023-08-12 14:25:36.344365,-83.0
2023-08-12 14:25:36.352054,-85.0
2023-08-12 14:25:36.359744,-85.0
2023-08-12 14:25:36.367434,-83.0
2023-08-12 14:25:36.375124,-80.0
2023-08-12 14:25:36.382814,-78.0
2023-08-12 14:25:36.390504,-80.0
2023-08-12 14:25:36.398194,-90.0
2023-08-12 14:25:36.405884,-92.0
2023-08-12 14:25:36.413574,-83.0
2023-08-12 14:25:36.421264,-73.0
2023-08-12 14:25:36.428954,-69.0
2023-08-12 14:25:36.436644,-69.0
2023-08-12 14:25:36.444334,-69.0
2023-08-12 14:25:36.452024,-52.0
2023-08-12 14:25:36.459714,-35.0
2023-08-12 14:25:36.467404,-35.0
2023-08-12 14:25:36.475094,-42.0
2023-08-12 14:25:36.482784,-52.0
2023-08-12 14:25:36.490474,-54.0
2023-08-12 14:25:36.498164,-54.0
2023-08-12 14:25:36.505854,-61.0
2023-08-12 14:25:36.513544,-73.0
2023-08-12 14:25:36.521234,-80.0
2023-08-12 14:25:36.528924,-78.0
2023-08-12 14:25:36.536614,-73.0
2023-08-12 14:25:36.544304,-71.0
2023-08-12 14:25:36.551994,-71.0
2023-08-12 14:25:36.559684,-76.0
2023-08-12 14:25:36.567374,-49.0
2023-08-12 14:25:36.575064,76.0
2023-08-12 14:25:36.582753,323.0
2023-08-12 14:25:36.590443,530.0
2023-08-12 14:25:36.598133,416.0
2023-08-12 14:25:36.605823,33.0
2023-08-12 14:25:36.613513,-199.0
2023-08-12 14:25:36.621203,-173.0
2023-08-12 14:25:36.628893,-157.0
2023-08-12 14:25:36.636583,-166.0
2023-08-12 14:25:36.644273,-102.0
2023-08-12 14:25:36.651963,-69.0
2023-08-12 14:25:36.659653,-90.0
2023-08-12 14:25:36.667343,-80.0
2023-08-12 14:25:36.675033,-61.0
2023-08-12 14:25:36.682723,-64.0
2023-08-12 14:25:36.690413,-57.0
2023-08-12 14:25:36.698103,-42.0
2023-08-12 14:25:36.705793,-40.0
2023-08-12 14:25:36.713483,-40.0
2023-08-12 14:25:36.721173,-35.0
2023-08-12 14:25:36.728863,-26.0
2023-08-12 14:25:36.736553,-16.0
2023-08-12 14:25:36.744243,-4.0
2023-08-12 14:25:36.751933,0.0
2023-08-12 14:25:36.759623,11.0
2023-08-12 14:25:36.767313,26.0
2023-08-12 14:25:36.775003,40.0
2023-08-12 14:25:36.782693,57.0
2023-08-12 14:25:36.790383,78.0
2023-08-12 14:25:36.798073,90.0
2023-08-12 14:25:36.805762,95.0
2023-08-12 14:25:36.813452,99.0
2023-08-12 14:25:36.821142,97.0
2023-08-12 14:25:36.828832,85.0
2023-08-12 14:25:36.836522,66.0
2023-08-12 14:25:36.844212,35.0
2023-08-12 14:25:36.851902,-11.0
2023-08-12 14:25:36.859592,-54.0
2023-08-12 14:25:36.867282,-85.0
2023-08-12 14:25:36.874972,-111.0
2023-08-12 14:25:36.882662,-130.0
2023-08-12 14:25:36.890352,-152.0
2023-08-12 14:25:36.898042,-161.0
2023-08-12 14:25:36.905732,-152.0
2023-08-12 14:25:36.913422,-147.0
2023-08-12 14:25:36.921112,-149.0
2023-08-12 14:25:36.928802,-147.0
2023-08-12 14:25:36.936492,-135.0
2023-08-12 14:25:36.944182,-130.0
2023-08-12 14:25:36.951872,-128.0
2023-08-12 14:25:36.959562,-126.0
2023-08-12 14:25:36.967252,-123.0
2023-08-12 14:25:36.974942,-123.0
2023-08-12 14:25:36.982632,-119.0
2023-08-12 14:25:36.990322,-111.0
2023-08-12 14:25:36.998012,-102.0
2023-08-12 14:25:37.005702,-97.0
2023-08-12 14:25:37.013392,-95.0
2023-08-12 14:25:37.021082,-95.0
2023-08-12 14:25:37.028771,-92.0
2023-08-12 14:25:37.036461,-88.0
2023-08-12 14:25:37.044151,-83.0
2023-08-12 14:25:37.051841,-80.0
2023-08-12 14:25:37.059531,-78.0
2023-08-12 14:25:37.067221,-80.0
2023-08-12 14:25:37.074911,-80.0
2023-08-12 14:25:37.082601,-78.0
2023-08-12 14:25:37.090291,-78.0
2023-08-12 14:25:37.097981,-83.0
2023-08-12 14:25:37.105671,-88.0
2023-08-12 14:25:37.113361,-90.0
2023-08-12 14:25:37.121051,-85.0
2023-08-12 14:25:37.128741,-83.0
2023-08-12 14:25:37.136431,-83.0
2023-08-12 14:25:37.144121,-83.0
2023-08-12 14:25:37.151811,-80.0
2023-08-12 14:25:37.159501,-76.0
2023-08-12 14:25:37.167191,-71.0
2023-08-12 14:25:37.174881,-71.0
2023-08-12 14:25:37.182571,-69.0
2023-08-12 14:25:37.190261,-69.0
2023-08-12 14:25:37.197951,-71.0
2023-08-12 14:25:37.205641,-71.0
2023-08-12 14:25:37.213331,-69.0
2023-08-12 14:25:37.221021,-69.0
2023-08-12 14:25:37.228711,-66.0
2023-08-12 14:25:37.236401,-64.0
2023-08-12 14:25:37.244091,-61.0
2023-08-12 14:25:37.251780,-59.0
2023-08-12 14:25:37.259470,-54.0
2023-08-12 14:25:37.267160,-57.0
2023-08-12 14:25:37.274850,-61.0
2023-08-12 14:25:37.282540,-59.0
2023-08-12 14:25:37.290230,-57.0
2023-08-12 14:25:37.297920,-59.0
2023-08-12 14:25:37.305610,-57.0
2023-08-12 14:25:37.313300,-54.0
2023-08-12 14:25:37.320990,-54.0
2023-08-12 14:25:37.328680,-49.0
2023-08-12 14:25:37.336370,-47.0
2023-08-12 14:25:37.344060,-42.0
2023-08-12 14:25:37.351750,-38.0
2023-08-12 14:25:37.359440,-33.0
2023-08-12 14:25:37.367130,-21.0
2023-08-12 14:25:37.374820,-16.0
2023-08-12 14:25:37.382510,-23.0
2023-08-12 14:25:37.390200,-40.0
2023-08-12 14:25:37.397890,-47.0
2023-08-12 14:25:37.405580,-42.0
2023-08-12 14:25:37.413270,-45.0
2023-08-12 14:25:37.420960,-57.0
2023-08-12 14:25:37.428650,-69.0
2023-08-12 14:25:37.436340,-73.0
2023-08-12 14:25:37.444030,-71.0
2023-08-12 14:25:37.451720,-69.0
2023-08-12 14:25:37.459410,-66.0
2023-08-12 14:25:37.467100,-64.0
2023-08-12 14:25:37.474790,-64.0
2023-08-12 14:25:37.482479,-19.0
2023-08-12 14:25:37.490169,159.0
2023-08-12 14:25:37.497859,416.0
2023-08-12 14:25:37.505549,526.0
2023-08-12 14:25:37.513239,309.0
2023-08-12 14:25:37.520929,-52.0
2023-08-12 14:25:37.528619,-199.0
2023-08-12 14:25:37.536309,-161.0
2023-08-12 14:25:37.543999,-152.0
2023-08-12 14:25:37.551689,-130.0
2023-08-12 14:25:37.559379,-80.0
2023-08-12 14:25:37.567069,-78.0
2023-08-12 14:25:37.574759,-88.0
2023-08-12 14:25:37.582449,-71.0
2023-08-12 14:25:37.590139,-64.0
2023-08-12 14:25:37.597829,-69.0
2023-08-12 14:25:37.605519,-59.0
2023-08-12 14:25:37.613209,-52.0
2023-08-12 14:25:37.620899,-47.0
2023-08-12 14:25:37.628589,-40.0
2023-08-12 14:25:37.636279,-33.0
2023-08-12 14:25:37.643969,-28.0
2023-08-12 14:25:37.651659,-21.0
2023-08-12 14:25:37.659349,-14.0
2023-08-12 14:25:37.667039,-7.0
2023-08-12 14:25:37.674729,7.0
2023-08-12 14:25:37.682419,23.0
2023-08-12 14:25:37.690109,35.0
2023-08-12 14:25:37.697799,45.0
2023-08-12 14:25:37.705488,59.0
2023-08-12 14:25:37.713178,71.0
2023-08-12 14:25:37.720868,78.0
2023-08-12 14:25:37.728558,76.0
2023-08-12 14:25:37.736248,71.0
2023-08-12 14:25:37.743938,59.0
2023-08-12 14:25:37.751628,38.0
2023-08-12 14:25:37.759318,9.0
2023-08-12 14:25:37.767008,-26.0
2023-08-12 14:25:37.774698,-66.0
2023-08-12 14:25:37.782388,-99.0
2023-08-12 14:25:37.790078,-121.0
2023-08-12 14:25:37.797768,-135.0
2023-08-12 14:25:37.805458,-140.0
2023-08-12 14:25:37.813148,-140.0
2023-08-12 14:25:37.820838,-142.0
2023-08-12 14:25:37.828528,-142.0
2023-08-12 14:25:37.836218,-140.0
2023-08-12 14:25:37.843908,-135.0
2023-08-12 14:25:37.851598,-128.0
2023-08-12 14:25:37.859288,-128.0
2023-08-12 14:25:37.866978,-128.0
2023-08-12 14:25:37.874668,-126.0
2023-08-12 14:25:37.882358,-116.0
2023-08-12 14:25:37.890048,-111.0
2023-08-12 14:25:37.897738,-109.0
2023-08-12 14:25:37.905428,-104.0
2023-08-12 14:25:37.913118,-104.0
2023-08-12 14:25:37.920808,-107.0
2023-08-12 14:25:37.928497,-111.0
2023-08-12 14:25:37.936187,-107.0
2023-08-12 14:25:37.943877,-102.0
2023-08-12 14:25:37.951567,-104.0
2023-08-12 14:25:37.959257,-99.0
2023-08-12 14:25:37.966947,-92.0
2023-08-12 14:25:37.974637,-92.0
2023-08-12 14:25:37.982327,-99.0
2023-08-12 14:25:37.990017,-97.0
2023-08-12 14:25:37.997707,-95.0
2023-08-12 14:25:38.005397,-92.0
2023-08-12 14:25:38.013087,-90.0
2023-08-12 14:25:38.020777,-90.0
2023-08-12 14:25:38.028467,-90.0
2023-08-12 14:25:38.036157,-88.0
2023-08-12 14:25:38.043847,-85.0
2023-08-12 14:25:38.051537,-88.0
2023-08-12 14:25:38.059227,-85.0
2023-08-12 14:25:38.066917,-80.0
2023-08-12 14:25:38.074607,-78.0
2023-08-12 14:25:38.082297,-78.0
2023-08-12 14:25:38.089987,-78.0
2023-08-12 14:25:38.097677,-78.0
2023-08-12 14:25:38.105367,-78.0
2023-08-12 14:25:38.113057,-80.0
2023-08-12 14:25:38.120747,-83.0
2023-08-12 14:25:38.128437,-80.0
2023-08-12 14:25:38.136127,-76.0
2023-08-12 14:25:38.143817,-76.0
2023-08-12 14:25:38.151506,-76.0
2023-08-12 14:25:38.159196,-73.0
2023-08-12 14:25:38.166886,-71.0
2023-08-12 14:25:38.174576,-71.0
2023-08-12 14:25:38.182266,-69.0
2023-08-12 14:25:38.189956,-69.0
2023-08-12 14:25:38.197646,-76.0
2023-08-12 14:25:38.205336,-76.0
2023-08-12 14:25:38.213026,-66.0
2023-08-12 14:25:38.220716,-61.0
2023-08-12 14:25:38.228406,-64.0
2023-08-12 14:25:38.236096,-64.0
2023-08-12 14:25:38.243786,-66.0
2023-08-12 14:25:38.251476,-64.0
2023-08-12 14:25:38.259166,-59.0
2023-08-12 14:25:38.266856,-61.0
2023-08-12 14:25:38.274546,-59.0
2023-08-12 14:25:38.282236,-57.0
2023-08-12 14:25:38.289926,-57.0
2023-08-12 14:25:38.297616,-47.0
2023-08-12 14:25:38.305306,-45.0
2023-08-12 14:25:38.312996,-45.0
2023-08-12 14:25:38.320686,-30.0
2023-08-12 14:25:38.328376,-19.0
2023-08-12 14:25:38.336066,-23.0
2023-08-12 14:25:38.343756,-33.0
2023-08-12 14:25:38.351446,-33.0
2023-08-12 14:25:38.359136,-30.0
2023-08-12 14:25:38.366826,-40.0
2023-08-12 14:25:38.374516,-59.0
2023-08-12 14:25:38.382205,-69.0
2023-08-12 14:25:38.389895,-69.0
2023-08-12 14:25:38.397585,-61.0
2023-08-12 14:25:38.405275,-59.0
2023-08-12 14:25:38.412965,-61.0
2023-08-12 14:25:38.420655,-66.0
2023-08-12 14:25:38.428345,-59.0
2023-08-12 14:25:38.436035,-2.0
2023-08-12 14:25:38.443725,169.0
2023-08-12 14:25:38.451415,421.0
2023-08-12 14:25:38.459105,526.0
2023-08-12 14:25:38.466795,290.0
2023-08-12 14:25:38.474485,-76.0
2023-08-12 14:25:38.482175,-204.0
2023-08-12 14:25:38.489865,-154.0
2023-08-12 14:25:38.497555,-149.0
2023-08-12 14:25:38.505245,-135.0
2023-08-12 14:25:38.512935,-85.0
2023-08-12 14:25:38.520625,-80.0
2023-08-12 14:25:38.528315,-88.0
2023-08-12 14:25:38.536005,-69.0
2023-08-12 14:25:38.543695,-59.0
2023-08-12 14:25:38.551385,-61.0
2023-08-12 14:25:38.559075,-54.0
2023-08-12 14:25:38.566765,-45.0
2023-08-12 14:25:38.574455,-45.0
2023-08-12 14:25:38.582145,-42.0
2023-08-12 14:25:38.589835,-33.0
2023-08-12 14:25:38.597525,-26.0
2023-08-12 14:25:38.605214,-28.0
2023-08-12 14:25:38.612904,-23.0
2023-08-12 14:25:38.620594,-7.0
2023-08-12 14:25:38.628284,-4.0
2023-08-12 14:25:38.635974,0.0
2023-08-12 14:25:38.643664,23.0
2023-08-12 14:25:38.651354,47.0
2023-08-12 14:25:38.659044,59.0
2023-08-12 14:25:38.666734,69.0
2023-08-12 14:25:38.674424,76.0
2023-08-12 14:25:38.682114,78.0
2023-08-12 14:25:38.689804,73.0
2023-08-12 14:25:38.697494,61.0
2023-08-12 14:25:38.705184,40.0
2023-08-12 14:25:38.712874,4.0
2023-08-12 14:25:38.720564,-40.0
2023-08-12 14:25:38.728254,-76.0
2023-08-12 14:25:38.735944,-102.0
2023-08-12 14:25:38.743634,-126.0
2023-08-12 14:25:38.751324,-145.0
2023-08-12 14:25:38.759014,-152.0
2023-08-12 14:25:38.766704,-154.0
2023-08-12 14:25:38.774394,-157.0
2023-08-12 14:25:38.782084,-157.0
2023-08-12 14:25:38.789774,-152.0
2023-08-12 14:25:38.797464,-145.0
2023-08-12 14:25:38.805154,-140.0
2023-08-12 14:25:38.812844,-138.0
2023-08-12 14:25:38.820534,-133.0
2023-08-12 14:25:38.828223,-126.0
2023-08-12 14:25:38.835913,-126.0
2023-08-12 14:25:38.843603,-123.0
2023-08-12 14:25:38.851293,-114.0
2023-08-12 14:25:38.858983,-104.0
2023-08-12 14:25:38.866673,-109.0
2023-08-12 14:25:38.874363,-109.0
2023-08-12 14:25:38.882053,-102.0
2023-08-12 14:25:38.889743,-99.0
2023-08-12 14:25:38.897433,-99.0
2023-08-12 14:25:38.905123,-95.0
2023-08-12 14:25:38.912813,-95.0
2023-08-12 14:25:38.920503,-92.0
2023-08-12 14:25:38.928193,-95.0
2023-08-12 14:25:38.935883,-99.0
2023-08-12 14:25:38.943573,-97.0
2023-08-12 14:25:38.951263,-95.0
2023-08-12 14:25:38.958953,-95.0
2023-08-12 14:25:38.966643,-90.0
2023-08-12 14:25:38.974333,-90.0
2023-08-12 14:25:38.982023,-95.0
2023-08-12 14:25:38.989713,-90.0
2023-08-12 14:25:38.997403,-80.0
2023-08-12 14:25:39.005093,-80.0
2023-08-12 14:25:39.012783,-90.0
2023-08-12 14:25:39.020473,-88.0
2023-08-12 14:25:39.028163,-83.0
2023-08-12 14:25:39.035853,-76.0
2023-08-12 14:25:39.043543,-78.0
2023-08-12 14:25:39.051232,-83.0
2023-08-12 14:25:39.058922,-80.0
2023-08-12 14:25:39.066612,-76.0
2023-08-12 14:25:39.074302,-76.0
2023-08-12 14:25:39.081992,-78.0
2023-08-12 14:25:39.089682,-73.0
2023-08-12 14:25:39.097372,-80.0
2023-08-12 14:25:39.105062,-88.0
2023-08-12 14:25:39.112752,-83.0
2023-08-12 14:25:39.120442,-83.0
2023-08-12 14:25:39.128132,-85.0
2023-08-12 14:25:39.135822,-88.0
2023-08-12 14:25:39.143512,-85.0
2023-08-12 14:25:39.151202,-78.0
2023-08-12 14:25:39.158892,-73.0
2023-08-12 14:25:39.166582,-76.0
2023-08-12 14:25:39.174272,-78.0
2023-08-12 14:25:39.181962,-80.0
2023-08-12 14:25:39.189652,-80.0
2023-08-12 14:25:39.197342,-78.0
2023-08-12 14:25:39.205032,-71.0
2023-08-12 14:25:39.212722,-64.0
2023-08-12 14:25:39.220412,-61.0
2023-08-12 14:25:39.228102,-54.0
2023-08-12 14:25:39.235792,-42.0
2023-08-12 14:25:39.243482,-38.0
2023-08-12 14:25:39.251172,-35.0
2023-08-12 14:25:39.258862,-35.0
2023-08-12 14:25:39.266552,-42.0
2023-08-12 14:25:39.274242,-49.0
2023-08-12 14:25:39.281931,-52.0
2023-08-12 14:25:39.289621,-61.0
2023-08-12 14:25:39.297311,-73.0
2023-08-12 14:25:39.305001,-76.0
2023-08-12 14:25:39.312691,-73.0
2023-08-12 14:25:39.320381,-69.0
2023-08-12 14:25:39.328071,-71.0
2023-08-12 14:25:39.335761,-71.0
2023-08-12 14:25:39.343451,-71.0
2023-08-12 14:25:39.351141,-30.0
2023-08-12 14:25:39.358831,130.0
2023-08-12 14:25:39.366521,388.0
2023-08-12 14:25:39.374211,530.0
2023-08-12 14:25:39.381901,340.0
2023-08-12 14:25:39.389591,-38.0
2023-08-12 14:25:39.397281,-207.0
2023-08-12 14:25:39.404971,-159.0
2023-08-12 14:25:39.412661,-152.0
2023-08-12 14:25:39.420351,-145.0
2023-08-12 14:25:39.428041,-83.0
2023-08-12 14:25:39.435731,-76.0
2023-08-12 14:25:39.443421,-95.0
2023-08-12 14:25:39.451111,-80.0
2023-08-12 14:25:39.458801,-69.0
2023-08-12 14:25:39.466491,-69.0
2023-08-12 14:25:39.474181,-59.0
2023-08-12 14:25:39.481871,-52.0
2023-08-12 14:25:39.489561,-49.0
2023-08-12 14:25:39.497251,-45.0
2023-08-12 14:25:39.504940,-35.0
2023-08-12 14:25:39.512630,-26.0
2023-08-12 14:25:39.520320,-21.0
2023-08-12 14:25:39.528010,-16.0
2023-08-12 14:25:39.535700,-4.0
2023-08-12 14:25:39.543390,11.0
2023-08-12 14:25:39.551080,21.0
2023-08-12 14:25:39.558770,30.0
2023-08-12 14:25:39.566460,52.0
2023-08-12 14:25:39.574150,71.0
2023-08-12 14:25:39.581840,83.0
2023-08-12 14:25:39.589530,88.0
2023-08-12 14:25:39.597220,92.0
2023-08-12 14:25:39.604910,83.0
2023-08-12 14:25:39.612600,69.0
2023-08-12 14:25:39.620290,47.0
2023-08-12 14:25:39.627980,11.0
2023-08-12 14:25:39.635670,-33.0
2023-08-12 14:25:39.643360,-76.0
2023-08-12 14:25:39.651050,-104.0
2023-08-12 14:25:39.658740,-121.0
2023-08-12 14:25:39.666430,-140.0
2023-08-12 14:25:39.674120,-157.0
2023-08-12 14:25:39.681810,-169.0
2023-08-12 14:25:39.689500,-169.0
2023-08-12 14:25:39.697190,-154.0
2023-08-12 14:25:39.704880,-147.0
2023-08-12 14:25:39.712570,-149.0
2023-08-12 14:25:39.720260,-149.0
2023-08-12 14:25:39.727949,-142.0
2023-08-12 14:25:39.735639,-138.0
2023-08-12 14:25:39.743329,-138.0
2023-08-12 14:25:39.751019,-133.0
2023-08-12 14:25:39.758709,-123.0
2023-08-12 14:25:39.766399,-119.0
2023-08-12 14:25:39.774089,-119.0
2023-08-12 14:25:39.781779,-116.0
2023-08-12 14:25:39.789469,-109.0
2023-08-12 14:25:39.797159,-102.0
2023-08-12 14:25:39.804849,-102.0
2023-08-12 14:25:39.812539,-99.0
2023-08-12 14:25:39.820229,-95.0
2023-08-12 14:25:39.827919,-95.0
2023-08-12 14:25:39.835609,-90.0
2023-08-12 14:25:39.843299,-88.0
2023-08-12 14:25:39.850989,-92.0
2023-08-12 14:25:39.858679,-95.0
2023-08-12 14:25:39.866369,-90.0
2023-08-12 14:25:39.874059,-88.0
2023-08-12 14:25:39.881749,-85.0
2023-08-12 14:25:39.889439,-80.0
2023-08-12 14:25:39.897129,-80.0
2023-08-12 14:25:39.904819,-83.0
2023-08-12 14:25:39.912509,-85.0
2023-08-12 14:25:39.920199,-85.0
2023-08-12 14:25:39.927889,-83.0
2023-08-12 14:25:39.935579,-78.0
2023-08-12 14:25:39.943269,-80.0
2023-08-12 14:25:39.950958,-83.0
2023-08-12 14:25:39.958648,-78.0
2023-08-12 14:25:39.966338,-73.0
2023-08-12 14:25:39.974028,-76.0
2023-08-12 14:25:39.981718,-76.0
2023-08-12 14:25:39.989408,-71.0
2023-08-12 14:25:39.997098,-69.0
2023-08-12 14:25:40.004788,-69.0
2023-08-12 14:25:40.012478,-69.0
2023-08-12 14:25:40.020168,-66.0
2023-08-12 14:25:40.027858,-64.0
2023-08-12 14:25:40.035548,-66.0
2023-08-12 14:25:40.043238,-66.0
2023-08-12 14:25:40.050928,-64.0
2023-08-12 14:25:40.058618,-61.0
2023-08-12 14:25:40.066308,-64.0
2023-08-12 14:25:40.073998,-61.0
2023-08-12 14:25:40.081688,-57.0
2023-08-12 14:25:40.089378,-59.0
2023-08-12 14:25:40.097068,-59.0
2023-08-12 14:25:40.104758,-54.0
2023-08-12 14:25:40.112448,-59.0
2023-08-12 14:25:40.120138,-57.0
2023-08-12 14:25:40.127828,-52.0
2023-08-12 14:25:40.135518,-64.0
2023-08-12 14:25:40.143208,-71.0
2023-08-12 14:25:40.150898,-57.0
2023-08-12 14:25:40.158588,-52.0
2023-08-12 14:25:40.166278,-61.0
2023-08-12 14:25:40.173968,-61.0
2023-08-12 14:25:40.181657,-49.0
2023-08-12 14:25:40.189347,-47.0
2023-08-12 14:25:40.197037,-47.0
2023-08-12 14:25:40.204727,-30.0
2023-08-12 14:25:40.212417,-23.0
2023-08-12 14:25:40.220107,-38.0
2023-08-12 14:25:40.227797,-52.0
2023-08-12 14:25:40.235487,-45.0
2023-08-12 14:25:40.243177,-40.0
2023-08-12 14:25:40.250867,-52.0
2023-08-12 14:25:40.258557,-64.0
2023-08-12 14:25:40.266247,-73.0
2023-08-12 14:25:40.273937,-80.0
2023-08-12 14:25:40.281627,-76.0
2023-08-12 14:25:40.289317,-69.0
2023-08-12 14:25:40.297007,-66.0
2023-08-12 14:25:40.304697,-71.0
2023-08-12 14:25:40.312387,-76.0
2023-08-12 14:25:40.320077,-16.0
2023-08-12 14:25:40.327767,171.0
2023-08-12 14:25:40.335457,418.0
2023-08-12 14:25:40.343147,511.0
2023-08-12 14:25:40.350837,285.0
2023-08-12 14:25:40.358527,-69.0
2023-08-12 14:25:40.366217,-195.0
2023-08-12 14:25:40.373907,-142.0
2023-08-12 14:25:40.381597,-142.0
2023-08-12 14:25:40.389287,-133.0
2023-08-12 14:25:40.396977,-90.0
2023-08-12 14:25:40.404666,-88.0
2023-08-12 14:25:40.412356,-97.0
2023-08-12 14:25:40.420046,-80.0
2023-08-12 14:25:40.427736,-71.0
2023-08-12 14:25:40.435426,-73.0
2023-08-12 14:25:40.443116,-64.0
2023-08-12 14:25:40.450806,-57.0
2023-08-12 14:25:40.458496,-59.0
2023-08-12 14:25:40.466186,-49.0
2023-08-12 14:25:40.473876,-35.0
2023-08-12 14:25:40.481566,-30.0
2023-08-12 14:25:40.489256,-26.0
2023-08-12 14:25:40.496946,-21.0
2023-08-12 14:25:40.504636,-14.0
2023-08-12 14:25:40.512326,2.0
2023-08-12 14:25:40.520016,21.0
2023-08-12 14:25:40.527706,38.0
2023-08-12 14:25:40.535396,47.0
2023-08-12 14:25:40.543086,57.0
2023-08-12 14:25:40.550776,69.0
2023-08-12 14:25:40.558466,73.0
2023-08-12 14:25:40.566156,71.0
2023-08-12 14:25:40.573846,66.0
2023-08-12 14:25:40.581536,57.0
2023-08-12 14:25:40.589226,40.0
2023-08-12 14:25:40.596916,9.0
2023-08-12 14:25:40.604606,-33.0
2023-08-12 14:25:40.612296,-71.0
2023-08-12 14:25:40.619986,-99.0
2023-08-12 14:25:40.627675,-123.0
2023-08-12 14:25:40.635365,-140.0
2023-08-12 14:25:40.643055,-154.0
2023-08-12 14:25:40.650745,-157.0
2023-08-12 14:25:40.658435,-154.0
2023-08-12 14:25:40.666125,-154.0
2023-08-12 14:25:40.673815,-152.0
2023-08-12 14:25:40.681505,-145.0
2023-08-12 14:25:40.689195,-140.0
2023-08-12 14:25:40.696885,-133.0
2023-08-12 14:25:40.704575,-128.0
2023-08-12 14:25:40.712265,-128.0
2023-08-12 14:25:40.719955,-128.0
2023-08-12 14:25:40.727645,-123.0
2023-08-12 14:25:40.735335,-119.0
2023-08-12 14:25:40.743025,-114.0
2023-08-12 14:25:40.750715,-114.0
2023-08-12 14:25:40.758405,-114.0
2023-08-12 14:25:40.766095,-119.0
2023-08-12 14:25:40.773785,-116.0
2023-08-12 14:25:40.781475,-109.0
2023-08-12 14:25:40.789165,-107.0
2023-08-12 14:25:40.796855,-104.0
2023-08-12 14:25:40.804545,-102.0
2023-08-12 14:25:40.812235,-99.0
2023-08-12 14:25:40.819925,-95.0
2023-08-12 14:25:40.827615,-95.0
2023-08-12 14:25:40.835305,-95.0
2023-08-12 14:25:40.842995,-97.0
2023-08-12 14:25:40.850684,-92.0
2023-08-12 14:25:40.858374,-88.0
2023-08-12 14:25:40.866064,-90.0
2023-08-12 14:25:40.873754,-90.0
2023-08-12 14:25:40.881444,-88.0
2023-08-12 14:25:40.889134,-85.0
2023-08-12 14:25:40.896824,-85.0
2023-08-12 14:25:40.904514,-85.0
2023-08-12 14:25:40.912204,-85.0
2023-08-12 14:25:40.919894,-88.0
2023-08-12 14:25:40.927584,-88.0
2023-08-12 14:25:40.935274,-83.0
2023-08-12 14:25:40.942964,-80.0
2023-08-12 14:25:40.950654,-78.0
2023-08-12 14:25:40.958344,-78.0
2023-08-12 14:25:40.966034,-78.0
2023-08-12 14:25:40.973724,-73.0
2023-08-12 14:25:40.981414,-73.0
2023-08-12 14:25:40.989104,-73.0
2023-08-12 14:25:40.996794,-71.0
2023-08-12 14:25:41.004484,-71.0
2023-08-12 14:25:41.012174,-71.0
2023-08-12 14:25:41.019864,-69.0
2023-08-12 14:25:41.027554,-66.0
2023-08-12 14:25:41.035244,-71.0
2023-08-12 14:25:41.042934,-73.0
2023-08-12 14:25:41.050624,-71.0
2023-08-12 14:25:41.058314,-66.0
2023-08-12 14:25:41.066004,-64.0
2023-08-12 14:25:41.073694,-69.0
2023-08-12 14:25:41.081383,-66.0
2023-08-12 14:25:41.089073,-57.0
2023-08-12 14:25:41.096763,-61.0
2023-08-12 14:25:41.104453,-69.0
2023-08-12 14:25:41.112143,-64.0
2023-08-12 14:25:41.119833,-54.0
2023-08-12 14:25:41.127523,-59.0
2023-08-12 14:25:41.135213,-66.0
2023-08-12 14:25:41.142903,-71.0
2023-08-12 14:25:41.150593,-73.0
2023-08-12 14:25:41.158283,-73.0
2023-08-12 14:25:41.165973,-69.0
2023-08-12 14:25:41.173663,-61.0
2023-08-12 14:25:41.181353,-61.0
2023-08-12 14:25:41.189043,-61.0
2023-08-12 14:25:41.196733,-52.0
2023-08-12 14:25:41.204423,-38.0
2023-08-12 14:25:41.212113,-28.0
2023-08-12 14:25:41.219803,-28.0
2023-08-12 14:25:41.227493,-35.0
2023-08-12 14:25:41.235183,-42.0
2023-08-12 14:25:41.242873,-40.0
2023-08-12 14:25:41.250563,-45.0
2023-08-12 14:25:41.258253,-61.0
2023-08-12 14:25:41.265943,-71.0
2023-08-12 14:25:41.273633,-73.0
2023-08-12 14:25:41.281323,-73.0
2023-08-12 14:25:41.289013,-71.0
2023-08-12 14:25:41.296703,-76.0
2023-08-12 14:25:41.304392,-90.0
2023-08-12 14:25:41.312082,-85.0
2023-08-12 14:25:41.319772,-9.0
2023-08-12 14:25:41.327462,183.0
2023-08-12 14:25:41.335152,430.0
2023-08-12 14:25:41.342842,495.0
2023-08-12 14:25:41.350532,238.0
2023-08-12 14:25:41.358222,-104.0
2023-08-12 14:25:41.365912,-204.0
2023-08-12 14:25:41.373602,-159.0
2023-08-12 14:25:41.381292,-164.0
2023-08-12 14:25:41.388982,-140.0
2023-08-12 14:25:41.396672,-90.0
2023-08-12 14:25:41.404362,-95.0
2023-08-12 14:25:41.412052,-102.0
2023-08-12 14:25:41.419742,-80.0
2023-08-12 14:25:41.427432,-73.0
2023-08-12 14:25:41.435122,-78.0
2023-08-12 14:25:41.442812,-73.0
2023-08-12 14:25:41.450502,-64.0
2023-08-12 14:25:41.458192,-59.0
2023-08-12 14:25:41.465882,-54.0
2023-08-12 14:25:41.473572,-42.0
2023-08-12 14:25:41.481262,-30.0
2023-08-12 14:25:41.488952,-26.0
2023-08-12 14:25:41.496642,-19.0
2023-08-12 14:25:41.504332,-2.0
2023-08-12 14:25:41.512022,9.0
2023-08-12 14:25:41.519712,14.0
2023-08-12 14:25:41.527401,28.0
2023-08-12 14:25:41.535091,52.0
2023-08-12 14:25:41.542781,66.0
2023-08-12 14:25:41.550471,73.0
2023-08-12 14:25:41.558161,80.0
2023-08-12 14:25:41.565851,78.0
2023-08-12 14:25:41.573541,76.0
2023-08-12 14:25:41.581231,64.0
2023-08-12 14:25:41.588921,42.0
2023-08-12 14:25:41.596611,7.0
2023-08-12 14:25:41.604301,-35.0
2023-08-12 14:25:41.611991,-80.0
2023-08-12 14:25:41.619681,-111.0
2023-08-12 14:25:41.627371,-135.0
2023-08-12 14:25:41.635061,-149.0
2023-08-12 14:25:41.642751,-157.0
2023-08-12 14:25:41.650441,-166.0
2023-08-12 14:25:41.658131,-171.0
2023-08-12 14:25:41.665821,-164.0
2023-08-12 14:25:41.673511,-157.0
2023-08-12 14:25:41.681201,-149.0
2023-08-12 14:25:41.688891,-142.0
2023-08-12 14:25:41.696581,-138.0
2023-08-12 14:25:41.704271,-138.0
2023-08-12 14:25:41.711961,-135.0
2023-08-12 14:25:41.719651,-130.0
2023-08-12 14:25:41.727341,-123.0
2023-08-12 14:25:41.735031,-121.0
2023-08-12 14:25:41.742721,-116.0
2023-08-12 14:25:41.750410,-111.0
2023-08-12 14:25:41.758100,-109.0
2023-08-12 14:25:41.765790,-109.0
2023-08-12 14:25:41.773480,-107.0
2023-08-12 14:25:41.781170,-99.0
2023-08-12 14:25:41.788860,-95.0
2023-08-12 14:25:41.796550,-102.0
2023-08-12 14:25:41.804240,-104.0
2023-08-12 14:25:41.811930,-97.0
2023-08-12 14:25:41.819620,-92.0
2023-08-12 14:25:41.827310,-90.0
2023-08-12 14:25:41.835000,-97.0
2023-08-12 14:25:41.842690,-102.0
2023-08-12 14:25:41.850380,-88.0
2023-08-12 14:25:41.858070,-80.0
2023-08-12 14:25:41.865760,-90.0
2023-08-12 14:25:41.873450,-92.0
2023-08-12 14:25:41.881140,-92.0
2023-08-12 14:25:41.888830,-97.0
2023-08-12 14:25:41.896520,-92.0
2023-08-12 14:25:41.904210,-88.0
2023-08-12 14:25:41.911900,-88.0
2023-08-12 14:25:41.919590,-85.0
2023-08-12 14:25:41.927280,-88.0
2023-08-12 14:25:41.934970,-97.0
2023-08-12 14:25:41.942660,-95.0
2023-08-12 14:25:41.950350,-88.0
2023-08-12 14:25:41.958040,-90.0
2023-08-12 14:25:41.965730,-83.0
2023-08-12 14:25:41.973420,-78.0
2023-08-12 14:25:41.981109,-85.0
2023-08-12 14:25:41.988799,-85.0
2023-08-12 14:25:41.996489,-83.0
2023-08-12 14:25:42.004179,-80.0
2023-08-12 14:25:42.011869,-78.0
2023-08-12 14:25:42.019559,-76.0
2023-08-12 14:25:42.027249,-78.0
2023-08-12 14:25:42.034939,-80.0
2023-08-12 14:25:42.042629,-76.0
2023-08-12 14:25:42.050319,-71.0
2023-08-12 14:25:42.058009,-71.0
2023-08-12 14:25:42.065699,-73.0
2023-08-12 14:25:42.073389,-71.0
2023-08-12 14:25:42.081079,-64.0
2023-08-12 14:25:42.088769,-64.0
2023-08-12 14:25:42.096459,-64.0
2023-08-12 14:25:42.104149,-59.0
2023-08-12 14:25:42.111839,-57.0
2023-08-12 14:25:42.119529,-49.0
2023-08-12 14:25:42.127219,-35.0
2023-08-12 14:25:42.134909,-35.0
2023-08-12 14:25:42.142599,-47.0
2023-08-12 14:25:42.150289,-54.0
2023-08-12 14:25:42.157979,-54.0
2023-08-12 14:25:42.165669,-52.0
2023-08-12 14:25:42.173359,-59.0
2023-08-12 14:25:42.181049,-73.0
2023-08-12 14:25:42.188739,-85.0
2023-08-12 14:25:42.196429,-90.0
2023-08-12 14:25:42.204118,-88.0
2023-08-12 14:25:42.211808,-83.0
2023-08-12 14:25:42.219498,-76.0
2023-08-12 14:25:42.227188,-78.0
2023-08-12 14:25:42.234878,-71.0
2023-08-12 14:25:42.242568,2.0
2023-08-12 14:25:42.250258,204.0
2023-08-12 14:25:42.257948,468.0
2023-08-12 14:25:42.265638,514.0
2023-08-12 14:25:42.273328,195.0
2023-08-12 14:25:42.281018,-152.0
2023-08-12 14:25:42.288708,-207.0
2023-08-12 14:25:42.296398,-159.0
2023-08-12 14:25:42.304088,-176.0
2023-08-12 14:25:42.311778,-133.0
2023-08-12 14:25:42.319468,-71.0
2023-08-12 14:25:42.327158,-85.0
2023-08-12 14:25:42.334848,-97.0
2023-08-12 14:25:42.342538,-71.0
2023-08-12 14:25:42.350228,-64.0
2023-08-12 14:25:42.357918,-69.0
2023-08-12 14:25:42.365608,-61.0
2023-08-12 14:25:42.373298,-52.0
2023-08-12 14:25:42.380988,-52.0
2023-08-12 14:25:42.388678,-47.0
2023-08-12 14:25:42.396368,-35.0
2023-08-12 14:25:42.404058,-28.0
2023-08-12 14:25:42.411748,-21.0
2023-08-12 14:25:42.419438,-16.0
2023-08-12 14:25:42.427127,-2.0
2023-08-12 14:25:42.434817,16.0
2023-08-12 14:25:42.442507,30.0
2023-08-12 14:25:42.450197,47.0
2023-08-12 14:25:42.457887,61.0
2023-08-12 14:25:42.465577,71.0
2023-08-12 14:25:42.473267,76.0
2023-08-12 14:25:42.480957,73.0
2023-08-12 14:25:42.488647,73.0
2023-08-12 14:25:42.496337,73.0
2023-08-12 14:25:42.504027,64.0
2023-08-12 14:25:42.511717,38.0
2023-08-12 14:25:42.519407,-4.0
2023-08-12 14:25:42.527097,-52.0
2023-08-12 14:25:42.534787,-85.0
2023-08-12 14:25:42.542477,-114.0
2023-08-12 14:25:42.550167,-135.0
2023-08-12 14:25:42.557857,-149.0
2023-08-12 14:25:42.565547,-157.0
2023-08-12 14:25:42.573237,-161.0
2023-08-12 14:25:42.580927,-159.0
2023-08-12 14:25:42.588617,-154.0
2023-08-12 14:25:42.596307,-152.0
2023-08-12 14:25:42.603997,-149.0
2023-08-12 14:25:42.611687,-145.0
2023-08-12 14:25:42.619377,-140.0
2023-08-12 14:25:42.627067,-135.0
2023-08-12 14:25:42.634757,-130.0
2023-08-12 14:25:42.642447,-126.0
2023-08-12 14:25:42.650137,-121.0
2023-08-12 14:25:42.657826,-123.0
2023-08-12 14:25:42.665516,-121.0
2023-08-12 14:25:42.673206,-116.0
2023-08-12 14:25:42.680896,-111.0
2023-08-12 14:25:42.688586,-109.0
2023-08-12 14:25:42.696276,-104.0
2023-08-12 14:25:42.703966,-102.0
2023-08-12 14:25:42.711656,-99.0
2023-08-12 14:25:42.719346,-99.0
2023-08-12 14:25:42.727036,-97.0
2023-08-12 14:25:42.734726,-99.0
2023-08-12 14:25:42.742416,-97.0
2023-08-12 14:25:42.750106,-92.0
2023-08-12 14:25:42.757796,-90.0
2023-08-12 14:25:42.765486,-95.0
2023-08-12 14:25:42.773176,-95.0
2023-08-12 14:25:42.780866,-90.0
2023-08-12 14:25:42.788556,-90.0
2023-08-12 14:25:42.796246,-92.0
2023-08-12 14:25:42.803936,-88.0
2023-08-12 14:25:42.811626,-85.0
2023-08-12 14:25:42.819316,-85.0
2023-08-12 14:25:42.827006,-83.0
2023-08-12 14:25:42.834696,-83.0
2023-08-12 14:25:42.842386,-80.0
2023-08-12 14:25:42.850076,-78.0
2023-08-12 14:25:42.857766,-80.0
2023-08-12 14:25:42.865456,-80.0
2023-08-12 14:25:42.873146,-73.0
2023-08-12 14:25:42.880835,-71.0
2023-08-12 14:25:42.888525,-76.0
2023-08-12 14:25:42.896215,-80.0
2023-08-12 14:25:42.903905,-73.0
2023-08-12 14:25:42.911595,-66.0
2023-08-12 14:25:42.919285,-69.0
2023-08-12 14:25:42.926975,-76.0
2023-08-12 14:25:42.934665,-71.0
2023-08-12 14:25:42.942355,-66.0
2023-08-12 14:25:42.950045,-64.0
2023-08-12 14:25:42.957735,-69.0
2023-08-12 14:25:42.965425,-69.0
2023-08-12 14:25:42.973115,-66.0
2023-08-12 14:25:42.980805,-61.0
2023-08-12 14:25:42.988495,-61.0
2023-08-12 14:25:42.996185,-64.0
2023-08-12 14:25:43.003875,-64.0
2023-08-12 14:25:43.011565,-64.0
2023-08-12 14:25:43.019255,-64.0
2023-08-12 14:25:43.026945,-61.0
2023-08-12 14:25:43.034635,-52.0
2023-08-12 14:25:43.042325,-42.0
2023-08-12 14:25:43.050015,-33.0
2023-08-12 14:25:43.057705,-30.0
2023-08-12 14:25:43.065395,-38.0
2023-08-12 14:25:43.073085,-45.0
2023-08-12 14:25:43.080775,-47.0
2023-08-12 14:25:43.088465,-54.0
2023-08-12 14:25:43.096155,-66.0
2023-08-12 14:25:43.103844,-69.0
2023-08-12 14:25:43.111534,-69.0
2023-08-12 14:25:43.119224,-73.0
2023-08-12 14:25:43.126914,-76.0
2023-08-12 14:25:43.134604,-73.0
2023-08-12 14:25:43.142294,-76.0
2023-08-12 14:25:43.149984,-76.0
2023-08-12 14:25:43.157674,-35.0
2023-08-12 14:25:43.165364,107.0
2023-08-12 14:25:43.173054,349.0
2023-08-12 14:25:43.180744,514.0
2023-08-12 14:25:43.188434,368.0
2023-08-12 14:25:43.196124,0.0
2023-08-12 14:25:43.203814,-199.0
2023-08-12 14:25:43.211504,-169.0
2023-08-12 14:25:43.219194,-154.0
2023-08-12 14:25:43.226884,-154.0
2023-08-12 14:25:43.234574,-104.0
2023-08-12 14:25:43.242264,-88.0
2023-08-12 14:25:43.249954,-97.0
2023-08-12 14:25:43.257644,-80.0
2023-08-12 14:25:43.265334,-73.0
2023-08-12 14:25:43.273024,-83.0
2023-08-12 14:25:43.280714,-76.0
2023-08-12 14:25:43.288404,-61.0
2023-08-12 14:25:43.296094,-59.0
2023-08-12 14:25:43.303784,-59.0
2023-08-12 14:25:43.311474,-49.0
2023-08-12 14:25:43.319164,-38.0
2023-08-12 14:25:43.326853,-30.0
2023-08-12 14:25:43.334543,-23.0
2023-08-12 14:25:43.342233,-14.0
2023-08-12 14:25:43.349923,2.0
2023-08-12 14:25:43.357613,16.0
2023-08-12 14:25:43.365303,21.0
2023-08-12 14:25:43.372993,28.0
2023-08-12 14:25:43.380683,47.0
2023-08-12 14:25:43.388373,66.0
2023-08-12 14:25:43.396063,69.0
2023-08-12 14:25:43.403753,64.0
2023-08-12 14:25:43.411443,64.0
2023-08-12 14:25:43.419133,59.0
2023-08-12 14:25:43.426823,38.0
2023-08-12 14:25:43.434513,4.0
2023-08-12 14:25:43.442203,-28.0
2023-08-12 14:25:43.449893,-69.0
2023-08-12 14:25:43.457583,-109.0
2023-08-12 14:25:43.465273,-135.0
2023-08-12 14:25:43.472963,-145.0
2023-08-12 14:25:43.480653,-149.0
2023-08-12 14:25:43.488343,-152.0
2023-08-12 14:25:43.496033,-152.0
2023-08-12 14:25:43.503723,-149.0
2023-08-12 14:25:43.511413,-145.0
2023-08-12 14:25:43.519103,-140.0
2023-08-12 14:25:43.526793,-138.0
2023-08-12 14:25:43.534483,-128.0
2023-08-12 14:25:43.542173,-123.0
2023-08-12 14:25:43.549863,-133.0
2023-08-12 14:25:43.557552,-138.0
2023-08-12 14:25:43.565242,-130.0
2023-08-12 14:25:43.572932,-123.0
2023-08-12 14:25:43.580622,-116.0
2023-08-12 14:25:43.588312,-116.0
