time,ECG
2023-08-10 11:06:42.080121,-114.0
2023-08-10 11:06:42.087810,-112.0
2023-08-10 11:06:42.095500,-107.0
2023-08-10 11:06:42.103190,-138.0
2023-08-10 11:06:42.110880,-174.0
2023-08-10 11:06:42.118570,-179.0
2023-08-10 11:06:42.126260,-181.0
2023-08-10 11:06:42.133950,-205.0
2023-08-10 11:06:42.141640,-217.0
2023-08-10 11:06:42.149330,-224.0
2023-08-10 11:06:42.157020,-239.0
2023-08-10 11:06:42.164710,-234.0
2023-08-10 11:06:42.172400,-205.0
2023-08-10 11:06:42.180090,-179.0
2023-08-10 11:06:42.187780,-129.0
2023-08-10 11:06:42.195470,-62.0
2023-08-10 11:06:42.203160,-28.0
2023-08-10 11:06:42.210849,-2.0
2023-08-10 11:06:42.218539,31.0
2023-08-10 11:06:42.226229,40.0
2023-08-10 11:06:42.233919,40.0
2023-08-10 11:06:42.241609,50.0
2023-08-10 11:06:42.249299,52.0
2023-08-10 11:06:42.256989,45.0
2023-08-10 11:06:42.264679,33.0
2023-08-10 11:06:42.272369,35.0
2023-08-10 11:06:42.280059,50.0
2023-08-10 11:06:42.287749,47.0
2023-08-10 11:06:42.295439,28.0
2023-08-10 11:06:42.303129,19.0
2023-08-10 11:06:42.310819,21.0
2023-08-10 11:06:42.318509,23.0
2023-08-10 11:06:42.326199,16.0
2023-08-10 11:06:42.333889,19.0
2023-08-10 11:06:42.341578,28.0
2023-08-10 11:06:42.349268,16.0
2023-08-10 11:06:42.356958,2.0
2023-08-10 11:06:42.364648,14.0
2023-08-10 11:06:42.372338,14.0
2023-08-10 11:06:42.380028,-9.0
2023-08-10 11:06:42.387718,-21.0
2023-08-10 11:06:42.395408,-14.0
2023-08-10 11:06:42.403098,4.0
2023-08-10 11:06:42.410788,7.0
2023-08-10 11:06:42.418478,-4.0
2023-08-10 11:06:42.426168,-9.0
2023-08-10 11:06:42.433858,-9.0
2023-08-10 11:06:42.441548,-23.0
2023-08-10 11:06:42.449238,-31.0
2023-08-10 11:06:42.456928,-9.0
2023-08-10 11:06:42.464617,-2.0
2023-08-10 11:06:42.472307,-35.0
2023-08-10 11:06:42.479997,-52.0
2023-08-10 11:06:42.487687,-38.0
2023-08-10 11:06:42.495377,-40.0
2023-08-10 11:06:42.503067,-47.0
2023-08-10 11:06:42.510757,-35.0
2023-08-10 11:06:42.518447,-31.0
2023-08-10 11:06:42.526137,-40.0
2023-08-10 11:06:42.533827,-31.0
2023-08-10 11:06:42.541517,-26.0
2023-08-10 11:06:42.549207,-40.0
2023-08-10 11:06:42.556897,-55.0
2023-08-10 11:06:42.564587,-64.0
2023-08-10 11:06:42.572277,-74.0
2023-08-10 11:06:42.579967,-86.0
2023-08-10 11:06:42.587657,-71.0
2023-08-10 11:06:42.595346,-33.0
2023-08-10 11:06:42.603036,-28.0
2023-08-10 11:06:42.610726,-52.0
2023-08-10 11:06:42.618416,-47.0
2023-08-10 11:06:42.626106,-31.0
2023-08-10 11:06:42.633796,-31.0
2023-08-10 11:06:42.641486,-38.0
2023-08-10 11:06:42.649176,-43.0
2023-08-10 11:06:42.656866,-45.0
2023-08-10 11:06:42.664556,-45.0
2023-08-10 11:06:42.672246,-81.0
2023-08-10 11:06:42.679936,-236.0
2023-08-10 11:06:42.687626,-471.0
2023-08-10 11:06:42.695316,-634.0
2023-08-10 11:06:42.703006,-641.0
2023-08-10 11:06:42.710696,-416.0
2023-08-10 11:06:42.718385,-35.0
2023-08-10 11:06:42.726075,136.0
2023-08-10 11:06:42.733765,14.0
2023-08-10 11:06:42.741455,-66.0
2023-08-10 11:06:42.749145,0.0
2023-08-10 11:06:42.756835,9.0
2023-08-10 11:06:42.764525,-35.0
2023-08-10 11:06:42.772215,-28.0
2023-08-10 11:06:42.779905,-11.0
2023-08-10 11:06:42.787595,-28.0
2023-08-10 11:06:42.795285,-33.0
2023-08-10 11:06:42.802975,-35.0
2023-08-10 11:06:42.810665,-50.0
2023-08-10 11:06:42.818355,-40.0
2023-08-10 11:06:42.826045,-28.0
2023-08-10 11:06:42.833735,-50.0
2023-08-10 11:06:42.841425,-76.0
2023-08-10 11:06:42.849114,-78.0
2023-08-10 11:06:42.856804,-83.0
2023-08-10 11:06:42.864494,-88.0
2023-08-10 11:06:42.872184,-90.0
2023-08-10 11:06:42.879874,-110.0
2023-08-10 11:06:42.887564,-131.0
2023-08-10 11:06:42.895254,-131.0
2023-08-10 11:06:42.902944,-143.0
2023-08-10 11:06:42.910634,-172.0
2023-08-10 11:06:42.918324,-193.0
2023-08-10 11:06:42.926014,-200.0
2023-08-10 11:06:42.933704,-217.0
2023-08-10 11:06:42.941394,-229.0
2023-08-10 11:06:42.949084,-227.0
2023-08-10 11:06:42.956774,-244.0
2023-08-10 11:06:42.964464,-248.0
2023-08-10 11:06:42.972153,-208.0
2023-08-10 11:06:42.979843,-157.0
2023-08-10 11:06:42.987533,-110.0
2023-08-10 11:06:42.995223,-47.0
2023-08-10 11:06:43.002913,-2.0
2023-08-10 11:06:43.010603,4.0
2023-08-10 11:06:43.018293,16.0
2023-08-10 11:06:43.025983,35.0
2023-08-10 11:06:43.033673,31.0
2023-08-10 11:06:43.041363,23.0
2023-08-10 11:06:43.049053,43.0
2023-08-10 11:06:43.056743,52.0
2023-08-10 11:06:43.064433,33.0
2023-08-10 11:06:43.072123,33.0
2023-08-10 11:06:43.079813,35.0
2023-08-10 11:06:43.087503,16.0
2023-08-10 11:06:43.095193,19.0
2023-08-10 11:06:43.102882,26.0
2023-08-10 11:06:43.110572,14.0
2023-08-10 11:06:43.118262,11.0
2023-08-10 11:06:43.125952,19.0
2023-08-10 11:06:43.133642,4.0
2023-08-10 11:06:43.141332,-4.0
2023-08-10 11:06:43.149022,9.0
2023-08-10 11:06:43.156712,16.0
2023-08-10 11:06:43.164402,16.0
2023-08-10 11:06:43.172092,7.0
2023-08-10 11:06:43.179782,-16.0
2023-08-10 11:06:43.187472,-23.0
2023-08-10 11:06:43.195162,-9.0
2023-08-10 11:06:43.202852,4.0
2023-08-10 11:06:43.210542,2.0
2023-08-10 11:06:43.218232,-7.0
2023-08-10 11:06:43.225921,-11.0
2023-08-10 11:06:43.233611,-7.0
2023-08-10 11:06:43.241301,-9.0
2023-08-10 11:06:43.248991,-23.0
2023-08-10 11:06:43.256681,-31.0
2023-08-10 11:06:43.264371,-21.0
2023-08-10 11:06:43.272061,-2.0
2023-08-10 11:06:43.279751,-11.0
2023-08-10 11:06:43.287441,-35.0
2023-08-10 11:06:43.295131,-23.0
2023-08-10 11:06:43.302821,-7.0
2023-08-10 11:06:43.310511,-23.0
2023-08-10 11:06:43.318201,-45.0
2023-08-10 11:06:43.325891,-40.0
2023-08-10 11:06:43.333581,-38.0
2023-08-10 11:06:43.341271,-47.0
2023-08-10 11:06:43.348960,-55.0
2023-08-10 11:06:43.356650,-57.0
2023-08-10 11:06:43.364340,-55.0
2023-08-10 11:06:43.372030,-47.0
2023-08-10 11:06:43.379720,-50.0
2023-08-10 11:06:43.387410,-50.0
2023-08-10 11:06:43.395100,-45.0
2023-08-10 11:06:43.402790,-47.0
2023-08-10 11:06:43.410480,-52.0
2023-08-10 11:06:43.418170,-47.0
2023-08-10 11:06:43.425860,-43.0
2023-08-10 11:06:43.433550,-64.0
2023-08-10 11:06:43.441240,-86.0
2023-08-10 11:06:43.448930,-90.0
2023-08-10 11:06:43.456620,-83.0
2023-08-10 11:06:43.464310,-66.0
2023-08-10 11:06:43.472000,-52.0
2023-08-10 11:06:43.479689,-57.0
2023-08-10 11:06:43.487379,-59.0
2023-08-10 11:06:43.495069,-59.0
2023-08-10 11:06:43.502759,-64.0
2023-08-10 11:06:43.510449,-69.0
2023-08-10 11:06:43.518139,-64.0
2023-08-10 11:06:43.525829,-59.0
2023-08-10 11:06:43.533519,-62.0
2023-08-10 11:06:43.541209,-114.0
2023-08-10 11:06:43.548899,-279.0
2023-08-10 11:06:43.556589,-504.0
2023-08-10 11:06:43.564279,-665.0
2023-08-10 11:06:43.571969,-650.0
2023-08-10 11:06:43.579659,-373.0
2023-08-10 11:06:43.587349,-7.0
2023-08-10 11:06:43.595039,100.0
2023-08-10 11:06:43.602728,-19.0
2023-08-10 11:06:43.610418,-59.0
2023-08-10 11:06:43.618108,0.0
2023-08-10 11:06:43.625798,4.0
2023-08-10 11:06:43.633488,-28.0
2023-08-10 11:06:43.641178,-23.0
2023-08-10 11:06:43.648868,-11.0
2023-08-10 11:06:43.656558,-23.0
2023-08-10 11:06:43.664248,-28.0
2023-08-10 11:06:43.671938,-23.0
2023-08-10 11:06:43.679628,-31.0
2023-08-10 11:06:43.687318,-43.0
2023-08-10 11:06:43.695008,-47.0
2023-08-10 11:06:43.702698,-47.0
2023-08-10 11:06:43.710388,-52.0
2023-08-10 11:06:43.718078,-64.0
2023-08-10 11:06:43.725768,-74.0
2023-08-10 11:06:43.733457,-86.0
2023-08-10 11:06:43.741147,-100.0
2023-08-10 11:06:43.748837,-114.0
2023-08-10 11:06:43.756527,-119.0
2023-08-10 11:06:43.764217,-131.0
2023-08-10 11:06:43.771907,-153.0
2023-08-10 11:06:43.779597,-172.0
2023-08-10 11:06:43.787287,-179.0
2023-08-10 11:06:43.794977,-198.0
2023-08-10 11:06:43.802667,-217.0
2023-08-10 11:06:43.810357,-227.0
2023-08-10 11:06:43.818047,-239.0
2023-08-10 11:06:43.825737,-246.0
2023-08-10 11:06:43.833427,-232.0
2023-08-10 11:06:43.841117,-200.0
2023-08-10 11:06:43.848807,-150.0
2023-08-10 11:06:43.856496,-86.0
2023-08-10 11:06:43.864186,-31.0
2023-08-10 11:06:43.871876,2.0
2023-08-10 11:06:43.879566,23.0
2023-08-10 11:06:43.887256,40.0
2023-08-10 11:06:43.894946,47.0
2023-08-10 11:06:43.902636,47.0
2023-08-10 11:06:43.910326,47.0
2023-08-10 11:06:43.918016,52.0
2023-08-10 11:06:43.925706,45.0
2023-08-10 11:06:43.933396,31.0
2023-08-10 11:06:43.941086,31.0
2023-08-10 11:06:43.948776,43.0
2023-08-10 11:06:43.956466,38.0
2023-08-10 11:06:43.964156,28.0
2023-08-10 11:06:43.971846,31.0
2023-08-10 11:06:43.979536,19.0
2023-08-10 11:06:43.987225,2.0
2023-08-10 11:06:43.994915,7.0
2023-08-10 11:06:44.002605,14.0
2023-08-10 11:06:44.010295,7.0
2023-08-10 11:06:44.017985,2.0
2023-08-10 11:06:44.025675,0.0
2023-08-10 11:06:44.033365,0.0
2023-08-10 11:06:44.041055,9.0
2023-08-10 11:06:44.048745,4.0
2023-08-10 11:06:44.056435,-4.0
2023-08-10 11:06:44.064125,-4.0
2023-08-10 11:06:44.071815,0.0
2023-08-10 11:06:44.079505,-7.0
2023-08-10 11:06:44.087195,-16.0
2023-08-10 11:06:44.094885,-7.0
2023-08-10 11:06:44.102575,14.0
2023-08-10 11:06:44.110264,16.0
2023-08-10 11:06:44.117954,-2.0
2023-08-10 11:06:44.125644,-21.0
2023-08-10 11:06:44.133334,-19.0
2023-08-10 11:06:44.141024,-7.0
2023-08-10 11:06:44.148714,-2.0
2023-08-10 11:06:44.156404,-9.0
2023-08-10 11:06:44.164094,-19.0
2023-08-10 11:06:44.171784,-21.0
2023-08-10 11:06:44.179474,-31.0
2023-08-10 11:06:44.187164,-33.0
2023-08-10 11:06:44.194854,-23.0
2023-08-10 11:06:44.202544,-23.0
2023-08-10 11:06:44.210234,-33.0
2023-08-10 11:06:44.217924,-35.0
2023-08-10 11:06:44.225614,-35.0
2023-08-10 11:06:44.233304,-38.0
2023-08-10 11:06:44.240993,-31.0
2023-08-10 11:06:44.248683,-28.0
2023-08-10 11:06:44.256373,-38.0
2023-08-10 11:06:44.264063,-40.0
2023-08-10 11:06:44.271753,-43.0
2023-08-10 11:06:44.279443,-57.0
2023-08-10 11:06:44.287133,-69.0
2023-08-10 11:06:44.294823,-71.0
2023-08-10 11:06:44.302513,-64.0
2023-08-10 11:06:44.310203,-40.0
2023-08-10 11:06:44.317893,-33.0
2023-08-10 11:06:44.325583,-40.0
2023-08-10 11:06:44.333273,-28.0
2023-08-10 11:06:44.340963,-21.0
2023-08-10 11:06:44.348653,-35.0
2023-08-10 11:06:44.356343,-38.0
2023-08-10 11:06:44.364032,-28.0
2023-08-10 11:06:44.371722,-45.0
2023-08-10 11:06:44.379412,-52.0
2023-08-10 11:06:44.387102,-38.0
2023-08-10 11:06:44.394792,-124.0
2023-08-10 11:06:44.402482,-358.0
2023-08-10 11:06:44.410172,-576.0
2023-08-10 11:06:44.417862,-657.0
2023-08-10 11:06:44.425552,-523.0
2023-08-10 11:06:44.433242,-177.0
2023-08-10 11:06:44.440932,100.0
2023-08-10 11:06:44.448622,86.0
2023-08-10 11:06:44.456312,-26.0
2023-08-10 11:06:44.464002,-16.0
2023-08-10 11:06:44.471692,19.0
2023-08-10 11:06:44.479382,0.0
2023-08-10 11:06:44.487072,-16.0
2023-08-10 11:06:44.494761,-31.0
2023-08-10 11:06:44.502451,-45.0
2023-08-10 11:06:44.510141,-31.0
2023-08-10 11:06:44.517831,-28.0
2023-08-10 11:06:44.525521,-50.0
2023-08-10 11:06:44.533211,-69.0
2023-08-10 11:06:44.540901,-57.0
2023-08-10 11:06:44.548591,-40.0
2023-08-10 11:06:44.556281,-74.0
2023-08-10 11:06:44.563971,-95.0
2023-08-10 11:06:44.571661,-76.0
2023-08-10 11:06:44.579351,-83.0
2023-08-10 11:06:44.587041,-117.0
2023-08-10 11:06:44.594731,-112.0
2023-08-10 11:06:44.602421,-98.0
2023-08-10 11:06:44.610111,-124.0
2023-08-10 11:06:44.617800,-162.0
2023-08-10 11:06:44.625490,-184.0
2023-08-10 11:06:44.633180,-193.0
2023-08-10 11:06:44.640870,-208.0
2023-08-10 11:06:44.648560,-222.0
2023-08-10 11:06:44.656250,-234.0
2023-08-10 11:06:44.663940,-248.0
2023-08-10 11:06:44.671630,-260.0
2023-08-10 11:06:44.679320,-256.0
2023-08-10 11:06:44.687010,-232.0
2023-08-10 11:06:44.694700,-191.0
2023-08-10 11:06:44.702390,-117.0
2023-08-10 11:06:44.710080,-40.0
2023-08-10 11:06:44.717770,-23.0
2023-08-10 11:06:44.725460,-16.0
2023-08-10 11:06:44.733150,14.0
2023-08-10 11:06:44.740839,28.0
2023-08-10 11:06:44.748529,35.0
2023-08-10 11:06:44.756219,40.0
2023-08-10 11:06:44.763909,40.0
2023-08-10 11:06:44.771599,52.0
2023-08-10 11:06:44.779289,52.0
2023-08-10 11:06:44.786979,43.0
2023-08-10 11:06:44.794669,23.0
2023-08-10 11:06:44.802359,-7.0
2023-08-10 11:06:44.810049,9.0
2023-08-10 11:06:44.817739,50.0
2023-08-10 11:06:44.825429,23.0
2023-08-10 11:06:44.833119,-16.0
2023-08-10 11:06:44.840809,14.0
2023-08-10 11:06:44.848499,16.0
2023-08-10 11:06:44.856189,-2.0
2023-08-10 11:06:44.863879,23.0
2023-08-10 11:06:44.871568,16.0
2023-08-10 11:06:44.879258,-9.0
2023-08-10 11:06:44.886948,4.0
2023-08-10 11:06:44.894638,-4.0
2023-08-10 11:06:44.902328,-21.0
2023-08-10 11:06:44.910018,7.0
2023-08-10 11:06:44.917708,9.0
2023-08-10 11:06:44.925398,14.0
2023-08-10 11:06:44.933088,2.0
2023-08-10 11:06:44.940778,-86.0
2023-08-10 11:06:44.948468,-66.0
2023-08-10 11:06:44.956158,43.0
2023-08-10 11:06:44.963848,4.0
2023-08-10 11:06:44.971538,-62.0
2023-08-10 11:06:44.979228,-11.0
2023-08-10 11:06:44.986918,2.0
2023-08-10 11:06:44.994607,-66.0
2023-08-10 11:06:45.002297,-105.0
2023-08-10 11:06:45.009987,-74.0
2023-08-10 11:06:45.017677,-76.0
2023-08-10 11:06:45.025367,-100.0
2023-08-10 11:06:45.033057,-93.0
2023-08-10 11:06:45.040747,-74.0
2023-08-10 11:06:45.048437,-35.0
2023-08-10 11:06:45.056127,-35.0
2023-08-10 11:06:45.063817,-102.0
2023-08-10 11:06:45.071507,-107.0
2023-08-10 11:06:45.079197,-76.0
2023-08-10 11:06:45.086887,-117.0
2023-08-10 11:06:45.094577,-124.0
2023-08-10 11:06:45.102267,-66.0
2023-08-10 11:06:45.109957,-74.0
2023-08-10 11:06:45.117647,-107.0
2023-08-10 11:06:45.125336,-98.0
2023-08-10 11:06:45.133026,-102.0
2023-08-10 11:06:45.140716,-114.0
2023-08-10 11:06:45.148406,-110.0
2023-08-10 11:06:45.156096,-71.0
2023-08-10 11:06:45.163786,-74.0
2023-08-10 11:06:45.171476,-148.0
2023-08-10 11:06:45.179166,-184.0
2023-08-10 11:06:45.186856,-155.0
2023-08-10 11:06:45.194546,-102.0
2023-08-10 11:06:45.202236,-55.0
2023-08-10 11:06:45.209926,-102.0
2023-08-10 11:06:45.217616,-169.0
2023-08-10 11:06:45.225306,-81.0
2023-08-10 11:06:45.232996,-14.0
2023-08-10 11:06:45.240686,-145.0
2023-08-10 11:06:45.248375,-189.0
2023-08-10 11:06:45.256065,-59.0
2023-08-10 11:06:45.263755,-28.0
2023-08-10 11:06:45.271445,-181.0
2023-08-10 11:06:45.279135,-394.0
2023-08-10 11:06:45.286825,-521.0
2023-08-10 11:06:45.294515,-614.0
2023-08-10 11:06:45.302205,-595.0
2023-08-10 11:06:45.309895,-212.0
2023-08-10 11:06:45.317585,143.0
2023-08-10 11:06:45.325275,52.0
2023-08-10 11:06:45.332965,-98.0
2023-08-10 11:06:45.340655,-59.0
2023-08-10 11:06:45.348345,-33.0
2023-08-10 11:06:45.356035,-45.0
2023-08-10 11:06:45.363725,-21.0
2023-08-10 11:06:45.371415,7.0
2023-08-10 11:06:45.379104,0.0
2023-08-10 11:06:45.386794,-57.0
2023-08-10 11:06:45.394484,-74.0
2023-08-10 11:06:45.402174,0.0
2023-08-10 11:06:45.409864,-7.0
2023-08-10 11:06:45.417554,-88.0
2023-08-10 11:06:45.425244,-76.0
2023-08-10 11:06:45.432934,-52.0
2023-08-10 11:06:45.440624,-95.0
2023-08-10 11:06:45.448314,-117.0
2023-08-10 11:06:45.456004,-124.0
2023-08-10 11:06:45.463694,-93.0
2023-08-10 11:06:45.471384,-21.0
2023-08-10 11:06:45.479074,-86.0
2023-08-10 11:06:45.486764,-200.0
2023-08-10 11:06:45.494454,-234.0
2023-08-10 11:06:45.502143,-148.0
2023-08-10 11:06:45.509833,-55.0
2023-08-10 11:06:45.517523,-179.0
2023-08-10 11:06:45.525213,-296.0
2023-08-10 11:06:45.532903,-272.0
2023-08-10 11:06:45.540593,-272.0
2023-08-10 11:06:45.548283,-236.0
2023-08-10 11:06:45.555973,-200.0
2023-08-10 11:06:45.563663,-253.0
2023-08-10 11:06:45.571353,-244.0
2023-08-10 11:06:45.579043,-131.0
2023-08-10 11:06:45.586733,-95.0
2023-08-10 11:06:45.594423,-110.0
2023-08-10 11:06:45.602113,-23.0
2023-08-10 11:06:45.609803,14.0
2023-08-10 11:06:45.617493,-57.0
2023-08-10 11:06:45.625183,-26.0
2023-08-10 11:06:45.632872,71.0
2023-08-10 11:06:45.640562,16.0
2023-08-10 11:06:45.648252,-133.0
2023-08-10 11:06:45.655942,-50.0
2023-08-10 11:06:45.663632,155.0
2023-08-10 11:06:45.671322,40.0
2023-08-10 11:06:45.679012,-112.0
2023-08-10 11:06:45.686702,2.0
2023-08-10 11:06:45.694392,47.0
2023-08-10 11:06:45.702082,-52.0
2023-08-10 11:06:45.709772,-38.0
2023-08-10 11:06:45.717462,26.0
2023-08-10 11:06:45.725152,-38.0
2023-08-10 11:06:45.732842,-78.0
2023-08-10 11:06:45.740532,0.0
2023-08-10 11:06:45.748222,-23.0
2023-08-10 11:06:45.755911,-100.0
2023-08-10 11:06:45.763601,-43.0
2023-08-10 11:06:45.771291,-19.0
2023-08-10 11:06:45.778981,-93.0
2023-08-10 11:06:45.786671,-93.0
2023-08-10 11:06:45.794361,-33.0
2023-08-10 11:06:45.802051,-57.0
2023-08-10 11:06:45.809741,-95.0
2023-08-10 11:06:45.817431,-57.0
2023-08-10 11:06:45.825121,-59.0
2023-08-10 11:06:45.832811,-76.0
2023-08-10 11:06:45.840501,-40.0
2023-08-10 11:06:45.848191,-83.0
2023-08-10 11:06:45.855881,-100.0
2023-08-10 11:06:45.863571,-21.0
2023-08-10 11:06:45.871261,-69.0
2023-08-10 11:06:45.878950,-131.0
2023-08-10 11:06:45.886640,-35.0
2023-08-10 11:06:45.894330,-11.0
2023-08-10 11:06:45.902020,-107.0
2023-08-10 11:06:45.909710,-107.0
2023-08-10 11:06:45.917400,-45.0
2023-08-10 11:06:45.925090,-35.0
2023-08-10 11:06:45.932780,-55.0
2023-08-10 11:06:45.940470,-86.0
2023-08-10 11:06:45.948160,-105.0
2023-08-10 11:06:45.955850,-59.0
2023-08-10 11:06:45.963540,-43.0
2023-08-10 11:06:45.971230,-57.0
2023-08-10 11:06:45.978920,-4.0
2023-08-10 11:06:45.986610,-31.0
2023-08-10 11:06:45.994300,-129.0
2023-08-10 11:06:46.001990,-88.0
2023-08-10 11:06:46.009679,2.0
2023-08-10 11:06:46.017369,-47.0
2023-08-10 11:06:46.025059,-95.0
2023-08-10 11:06:46.032749,-40.0
2023-08-10 11:06:46.040439,-33.0
2023-08-10 11:06:46.048129,-71.0
2023-08-10 11:06:46.055819,-100.0
2023-08-10 11:06:46.063509,-90.0
2023-08-10 11:06:46.071199,-2.0
2023-08-10 11:06:46.078889,-11.0
2023-08-10 11:06:46.086579,-138.0
2023-08-10 11:06:46.094269,-83.0
2023-08-10 11:06:46.101959,9.0
2023-08-10 11:06:46.109649,-98.0
2023-08-10 11:06:46.117339,-122.0
2023-08-10 11:06:46.125029,-33.0
2023-08-10 11:06:46.132718,-28.0
2023-08-10 11:06:46.140408,19.0
2023-08-10 11:06:46.148098,31.0
2023-08-10 11:06:46.155788,-86.0
2023-08-10 11:06:46.163478,-98.0
2023-08-10 11:06:46.171168,-21.0
2023-08-10 11:06:46.178858,-28.0
2023-08-10 11:06:46.186548,-76.0
2023-08-10 11:06:46.194238,-177.0
2023-08-10 11:06:46.201928,-385.0
2023-08-10 11:06:46.209618,-579.0
2023-08-10 11:06:46.217308,-617.0
2023-08-10 11:06:46.224998,-397.0
2023-08-10 11:06:46.232688,-4.0
2023-08-10 11:06:46.240378,162.0
2023-08-10 11:06:46.248068,52.0
2023-08-10 11:06:46.255758,-23.0
2023-08-10 11:06:46.263447,-2.0
2023-08-10 11:06:46.271137,-4.0
2023-08-10 11:06:46.278827,-16.0
2023-08-10 11:06:46.286517,19.0
2023-08-10 11:06:46.294207,26.0
2023-08-10 11:06:46.301897,-19.0
2023-08-10 11:06:46.309587,-33.0
2023-08-10 11:06:46.317277,-31.0
2023-08-10 11:06:46.324967,0.0
2023-08-10 11:06:46.332657,35.0
2023-08-10 11:06:46.340347,-52.0
2023-08-10 11:06:46.348037,-86.0
2023-08-10 11:06:46.355727,0.0
2023-08-10 11:06:46.363417,-11.0
2023-08-10 11:06:46.371107,-69.0
2023-08-10 11:06:46.378797,-88.0
2023-08-10 11:06:46.386486,-69.0
2023-08-10 11:06:46.394176,-45.0
2023-08-10 11:06:46.401866,-74.0
2023-08-10 11:06:46.409556,-107.0
2023-08-10 11:06:46.417246,-95.0
2023-08-10 11:06:46.424936,-107.0
2023-08-10 11:06:46.432626,-169.0
2023-08-10 11:06:46.440316,-172.0
2023-08-10 11:06:46.448006,-124.0
2023-08-10 11:06:46.455696,-174.0
2023-08-10 11:06:46.463386,-236.0
2023-08-10 11:06:46.471076,-222.0
2023-08-10 11:06:46.478766,-212.0
2023-08-10 11:06:46.486456,-212.0
2023-08-10 11:06:46.494146,-124.0
2023-08-10 11:06:46.501836,-35.0
2023-08-10 11:06:46.509526,-76.0
2023-08-10 11:06:46.517215,-74.0
2023-08-10 11:06:46.524905,43.0
2023-08-10 11:06:46.532595,62.0
2023-08-10 11:06:46.540285,43.0
2023-08-10 11:06:46.547975,74.0
2023-08-10 11:06:46.555665,57.0
2023-08-10 11:06:46.563355,31.0
2023-08-10 11:06:46.571045,35.0
2023-08-10 11:06:46.578735,40.0
2023-08-10 11:06:46.586425,64.0
2023-08-10 11:06:46.594115,64.0
2023-08-10 11:06:46.601805,26.0
2023-08-10 11:06:46.609495,33.0
2023-08-10 11:06:46.617185,23.0
2023-08-10 11:06:46.624875,9.0
2023-08-10 11:06:46.632565,57.0
2023-08-10 11:06:46.640254,19.0
2023-08-10 11:06:46.647944,-31.0
2023-08-10 11:06:46.655634,21.0
2023-08-10 11:06:46.663324,47.0
2023-08-10 11:06:46.671014,2.0
2023-08-10 11:06:46.678704,-55.0
2023-08-10 11:06:46.686394,-69.0
2023-08-10 11:06:46.694084,4.0
2023-08-10 11:06:46.701774,64.0
2023-08-10 11:06:46.709464,-11.0
2023-08-10 11:06:46.717154,-93.0
2023-08-10 11:06:46.724844,-40.0
2023-08-10 11:06:46.732534,11.0
2023-08-10 11:06:46.740224,-45.0
2023-08-10 11:06:46.747914,-62.0
2023-08-10 11:06:46.755604,-7.0
2023-08-10 11:06:46.763294,-16.0
2023-08-10 11:06:46.770983,-47.0
2023-08-10 11:06:46.778673,-23.0
2023-08-10 11:06:46.786363,-35.0
2023-08-10 11:06:46.794053,-76.0
2023-08-10 11:06:46.801743,-64.0
2023-08-10 11:06:46.809433,-28.0
2023-08-10 11:06:46.817123,14.0
2023-08-10 11:06:46.824813,-4.0
2023-08-10 11:06:46.832503,-86.0
2023-08-10 11:06:46.840193,-81.0
2023-08-10 11:06:46.847883,-11.0
2023-08-10 11:06:46.855573,-4.0
2023-08-10 11:06:46.863263,-28.0
2023-08-10 11:06:46.870953,-21.0
2023-08-10 11:06:46.878643,-14.0
2023-08-10 11:06:46.886333,-38.0
2023-08-10 11:06:46.894022,-57.0
2023-08-10 11:06:46.901712,-64.0
2023-08-10 11:06:46.909402,-35.0
2023-08-10 11:06:46.917092,7.0
2023-08-10 11:06:46.924782,-26.0
2023-08-10 11:06:46.932472,-50.0
2023-08-10 11:06:46.940162,-55.0
2023-08-10 11:06:46.947852,-117.0
2023-08-10 11:06:46.955542,-71.0
2023-08-10 11:06:46.963232,35.0
2023-08-10 11:06:46.970922,-33.0
2023-08-10 11:06:46.978612,-119.0
2023-08-10 11:06:46.986302,-50.0
2023-08-10 11:06:46.993992,-31.0
2023-08-10 11:06:47.001682,-88.0
2023-08-10 11:06:47.009372,-86.0
2023-08-10 11:06:47.017062,-33.0
2023-08-10 11:06:47.024751,-4.0
2023-08-10 11:06:47.032441,-40.0
2023-08-10 11:06:47.040131,-59.0
2023-08-10 11:06:47.047821,-28.0
2023-08-10 11:06:47.055511,-28.0
2023-08-10 11:06:47.063201,-38.0
2023-08-10 11:06:47.070891,-28.0
2023-08-10 11:06:47.078581,-31.0
2023-08-10 11:06:47.086271,-31.0
2023-08-10 11:06:47.093961,-57.0
2023-08-10 11:06:47.101651,-215.0
2023-08-10 11:06:47.109341,-425.0
2023-08-10 11:06:47.117031,-550.0
2023-08-10 11:06:47.124721,-538.0
2023-08-10 11:06:47.132411,-318.0
2023-08-10 11:06:47.140101,-40.0
2023-08-10 11:06:47.147790,64.0
2023-08-10 11:06:47.155480,69.0
2023-08-10 11:06:47.163170,45.0
2023-08-10 11:06:47.170860,-16.0
2023-08-10 11:06:47.178550,2.0
2023-08-10 11:06:47.186240,31.0
2023-08-10 11:06:47.193930,-26.0
2023-08-10 11:06:47.201620,-31.0
2023-08-10 11:06:47.209310,9.0
2023-08-10 11:06:47.217000,0.0
2023-08-10 11:06:47.224690,-38.0
2023-08-10 11:06:47.232380,-47.0
2023-08-10 11:06:47.240070,-7.0
2023-08-10 11:06:47.247760,-4.0
2023-08-10 11:06:47.255450,-55.0
2023-08-10 11:06:47.263140,-71.0
2023-08-10 11:06:47.270829,-57.0
2023-08-10 11:06:47.278519,-55.0
2023-08-10 11:06:47.286209,-78.0
2023-08-10 11:06:47.293899,-102.0
2023-08-10 11:06:47.301589,-117.0
2023-08-10 11:06:47.309279,-126.0
2023-08-10 11:06:47.316969,-110.0
2023-08-10 11:06:47.324659,-124.0
2023-08-10 11:06:47.332349,-184.0
2023-08-10 11:06:47.340039,-196.0
2023-08-10 11:06:47.347729,-169.0
2023-08-10 11:06:47.355419,-179.0
2023-08-10 11:06:47.363109,-220.0
2023-08-10 11:06:47.370799,-263.0
2023-08-10 11:06:47.378489,-251.0
2023-08-10 11:06:47.386179,-196.0
2023-08-10 11:06:47.393869,-203.0
2023-08-10 11:06:47.401558,-193.0
2023-08-10 11:06:47.409248,-88.0
2023-08-10 11:06:47.416938,-31.0
2023-08-10 11:06:47.424628,-52.0
2023-08-10 11:06:47.432318,-40.0
2023-08-10 11:06:47.440008,21.0
2023-08-10 11:06:47.447698,69.0
2023-08-10 11:06:47.455388,52.0
2023-08-10 11:06:47.463078,21.0
2023-08-10 11:06:47.470768,40.0
2023-08-10 11:06:47.478458,59.0
2023-08-10 11:06:47.486148,14.0
2023-08-10 11:06:47.493838,-4.0
2023-08-10 11:06:47.501528,55.0
2023-08-10 11:06:47.509218,71.0
2023-08-10 11:06:47.516908,16.0
2023-08-10 11:06:47.524597,-7.0
2023-08-10 11:06:47.532287,2.0
2023-08-10 11:06:47.539977,4.0
2023-08-10 11:06:47.547667,9.0
2023-08-10 11:06:47.555357,9.0
2023-08-10 11:06:47.563047,7.0
2023-08-10 11:06:47.570737,4.0
2023-08-10 11:06:47.578427,7.0
2023-08-10 11:06:47.586117,11.0
2023-08-10 11:06:47.593807,-14.0
2023-08-10 11:06:47.601497,-31.0
2023-08-10 11:06:47.609187,-7.0
2023-08-10 11:06:47.616877,-4.0
2023-08-10 11:06:47.624567,-23.0
2023-08-10 11:06:47.632257,-11.0
2023-08-10 11:06:47.639947,26.0
2023-08-10 11:06:47.647637,23.0
2023-08-10 11:06:47.655326,-35.0
2023-08-10 11:06:47.663016,-55.0
2023-08-10 11:06:47.670706,4.0
2023-08-10 11:06:47.678396,14.0
2023-08-10 11:06:47.686086,-33.0
2023-08-10 11:06:47.693776,4.0
2023-08-10 11:06:47.701466,38.0
2023-08-10 11:06:47.709156,-26.0
2023-08-10 11:06:47.716846,-47.0
2023-08-10 11:06:47.724536,-16.0
2023-08-10 11:06:47.732226,-40.0
2023-08-10 11:06:47.739916,-33.0
2023-08-10 11:06:47.747606,21.0
2023-08-10 11:06:47.755296,2.0
2023-08-10 11:06:47.762986,-16.0
2023-08-10 11:06:47.770676,2.0
2023-08-10 11:06:47.778365,-14.0
2023-08-10 11:06:47.786055,-31.0
2023-08-10 11:06:47.793745,0.0
2023-08-10 11:06:47.801435,11.0
2023-08-10 11:06:47.809125,-38.0
2023-08-10 11:06:47.816815,-55.0
2023-08-10 11:06:47.824505,-16.0
2023-08-10 11:06:47.832195,-16.0
2023-08-10 11:06:47.839885,-43.0
2023-08-10 11:06:47.847575,-28.0
2023-08-10 11:06:47.855265,-11.0
2023-08-10 11:06:47.862955,-40.0
2023-08-10 11:06:47.870645,-55.0
2023-08-10 11:06:47.878335,-26.0
2023-08-10 11:06:47.886025,-47.0
2023-08-10 11:06:47.893715,-64.0
2023-08-10 11:06:47.901405,-9.0
2023-08-10 11:06:47.909094,-14.0
2023-08-10 11:06:47.916784,-66.0
2023-08-10 11:06:47.924474,-55.0
2023-08-10 11:06:47.932164,-31.0
2023-08-10 11:06:47.939854,-52.0
2023-08-10 11:06:47.947544,-74.0
2023-08-10 11:06:47.955234,-50.0
2023-08-10 11:06:47.962924,-33.0
2023-08-10 11:06:47.970614,-88.0
2023-08-10 11:06:47.978304,-102.0
2023-08-10 11:06:47.985994,-35.0
2023-08-10 11:06:47.993684,-47.0
2023-08-10 11:06:48.001374,-83.0
2023-08-10 11:06:48.009064,-19.0
2023-08-10 11:06:48.016754,16.0
2023-08-10 11:06:48.024444,-40.0
2023-08-10 11:06:48.032133,-47.0
2023-08-10 11:06:48.039823,-23.0
2023-08-10 11:06:48.047513,-21.0
2023-08-10 11:06:48.055203,-23.0
2023-08-10 11:06:48.062893,-40.0
2023-08-10 11:06:48.070583,-33.0
2023-08-10 11:06:48.078273,-16.0
2023-08-10 11:06:48.085963,-122.0
2023-08-10 11:06:48.093653,-327.0
2023-08-10 11:06:48.101343,-483.0
2023-08-10 11:06:48.109033,-550.0
2023-08-10 11:06:48.116723,-473.0
2023-08-10 11:06:48.124413,-232.0
2023-08-10 11:06:48.132103,33.0
2023-08-10 11:06:48.139793,129.0
2023-08-10 11:06:48.147483,23.0
2023-08-10 11:06:48.155173,-62.0
2023-08-10 11:06:48.162862,-7.0
2023-08-10 11:06:48.170552,23.0
2023-08-10 11:06:48.178242,-4.0
2023-08-10 11:06:48.185932,4.0
2023-08-10 11:06:48.193622,-4.0
2023-08-10 11:06:48.201312,-43.0
2023-08-10 11:06:48.209002,-23.0
2023-08-10 11:06:48.216692,0.0
2023-08-10 11:06:48.224382,-21.0
2023-08-10 11:06:48.232072,-26.0
2023-08-10 11:06:48.239762,-47.0
2023-08-10 11:06:48.247452,-83.0
2023-08-10 11:06:48.255142,-71.0
2023-08-10 11:06:48.262832,-50.0
2023-08-10 11:06:48.270522,-62.0
2023-08-10 11:06:48.278212,-93.0
2023-08-10 11:06:48.285901,-117.0
2023-08-10 11:06:48.293591,-93.0
2023-08-10 11:06:48.301281,-95.0
2023-08-10 11:06:48.308971,-181.0
2023-08-10 11:06:48.316661,-198.0
2023-08-10 11:06:48.324351,-133.0
2023-08-10 11:06:48.332041,-157.0
2023-08-10 11:06:48.339731,-241.0
2023-08-10 11:06:48.347421,-220.0
2023-08-10 11:06:48.355111,-179.0
2023-08-10 11:06:48.362801,-244.0
2023-08-10 11:06:48.370491,-265.0
2023-08-10 11:06:48.378181,-236.0
2023-08-10 11:06:48.385871,-239.0
2023-08-10 11:06:48.393561,-177.0
2023-08-10 11:06:48.401251,-86.0
2023-08-10 11:06:48.408940,-52.0
2023-08-10 11:06:48.416630,-21.0
2023-08-10 11:06:48.424320,-2.0
2023-08-10 11:06:48.432010,-19.0
2023-08-10 11:06:48.439700,-11.0
2023-08-10 11:06:48.447390,31.0
2023-08-10 11:06:48.455080,66.0
2023-08-10 11:06:48.462770,40.0
2023-08-10 11:06:48.470460,11.0
2023-08-10 11:06:48.478150,50.0
2023-08-10 11:06:48.485840,52.0
2023-08-10 11:06:48.493530,-2.0
2023-08-10 11:06:48.501220,7.0
2023-08-10 11:06:48.508910,57.0
2023-08-10 11:06:48.516600,26.0
2023-08-10 11:06:48.524290,-28.0
2023-08-10 11:06:48.531980,7.0
2023-08-10 11:06:48.539669,59.0
2023-08-10 11:06:48.547359,14.0
2023-08-10 11:06:48.555049,-33.0
2023-08-10 11:06:48.562739,11.0
2023-08-10 11:06:48.570429,40.0
2023-08-10 11:06:48.578119,-23.0
2023-08-10 11:06:48.585809,-38.0
2023-08-10 11:06:48.593499,16.0
2023-08-10 11:06:48.601189,2.0
2023-08-10 11:06:48.608879,-16.0
2023-08-10 11:06:48.616569,31.0
2023-08-10 11:06:48.624259,21.0
2023-08-10 11:06:48.631949,-16.0
2023-08-10 11:06:48.639639,26.0
2023-08-10 11:06:48.647329,33.0
2023-08-10 11:06:48.655019,-35.0
2023-08-10 11:06:48.662708,-33.0
2023-08-10 11:06:48.670398,7.0
2023-08-10 11:06:48.678088,-4.0
2023-08-10 11:06:48.685778,-14.0
2023-08-10 11:06:48.693468,11.0
2023-08-10 11:06:48.701158,9.0
2023-08-10 11:06:48.708848,-9.0
2023-08-10 11:06:48.716538,-9.0
2023-08-10 11:06:48.724228,-4.0
2023-08-10 11:06:48.731918,0.0
2023-08-10 11:06:48.739608,-2.0
2023-08-10 11:06:48.747298,4.0
2023-08-10 11:06:48.754988,33.0
2023-08-10 11:06:48.762678,31.0
2023-08-10 11:06:48.770368,2.0
2023-08-10 11:06:48.778058,-28.0
2023-08-10 11:06:48.785748,-40.0
2023-08-10 11:06:48.793437,4.0
2023-08-10 11:06:48.801127,33.0
2023-08-10 11:06:48.808817,2.0
2023-08-10 11:06:48.816507,-16.0
2023-08-10 11:06:48.824197,-9.0
2023-08-10 11:06:48.831887,4.0
2023-08-10 11:06:48.839577,0.0
2023-08-10 11:06:48.847267,0.0
2023-08-10 11:06:48.854957,21.0
2023-08-10 11:06:48.862647,-11.0
2023-08-10 11:06:48.870337,-21.0
2023-08-10 11:06:48.878027,38.0
2023-08-10 11:06:48.885717,26.0
2023-08-10 11:06:48.893407,-40.0
2023-08-10 11:06:48.901097,-26.0
2023-08-10 11:06:48.908787,28.0
2023-08-10 11:06:48.916476,43.0
2023-08-10 11:06:48.924166,11.0
2023-08-10 11:06:48.931856,-19.0
2023-08-10 11:06:48.939546,-4.0
2023-08-10 11:06:48.947236,-2.0
2023-08-10 11:06:48.954926,-43.0
2023-08-10 11:06:48.962616,-57.0
2023-08-10 11:06:48.970306,-50.0
2023-08-10 11:06:48.977996,-59.0
2023-08-10 11:06:48.985686,-35.0
2023-08-10 11:06:48.993376,-2.0
2023-08-10 11:06:49.001066,9.0
2023-08-10 11:06:49.008756,2.0
2023-08-10 11:06:49.016446,-11.0
2023-08-10 11:06:49.024136,7.0
2023-08-10 11:06:49.031826,23.0
2023-08-10 11:06:49.039516,7.0
2023-08-10 11:06:49.047205,-7.0
2023-08-10 11:06:49.054895,-26.0
2023-08-10 11:06:49.062585,2.0
2023-08-10 11:06:49.070275,40.0
2023-08-10 11:06:49.077965,-81.0
2023-08-10 11:06:49.085655,-327.0
2023-08-10 11:06:49.093345,-483.0
2023-08-10 11:06:49.101035,-564.0
2023-08-10 11:06:49.108725,-526.0
2023-08-10 11:06:49.116415,-177.0
2023-08-10 11:06:49.124105,143.0
2023-08-10 11:06:49.131795,145.0
2023-08-10 11:06:49.139485,59.0
2023-08-10 11:06:49.147175,9.0
2023-08-10 11:06:49.154865,14.0
2023-08-10 11:06:49.162555,62.0
2023-08-10 11:06:49.170244,35.0
2023-08-10 11:06:49.177934,-4.0
2023-08-10 11:06:49.185624,11.0
2023-08-10 11:06:49.193314,14.0
2023-08-10 11:06:49.201004,-9.0
2023-08-10 11:06:49.208694,-35.0
2023-08-10 11:06:49.216384,-26.0
2023-08-10 11:06:49.224074,0.0
2023-08-10 11:06:49.231764,-21.0
2023-08-10 11:06:49.239454,-45.0
2023-08-10 11:06:49.247144,-38.0
2023-08-10 11:06:49.254834,-59.0
2023-08-10 11:06:49.262524,-83.0
2023-08-10 11:06:49.270214,-76.0
2023-08-10 11:06:49.277904,-76.0
2023-08-10 11:06:49.285594,-98.0
2023-08-10 11:06:49.293284,-117.0
2023-08-10 11:06:49.300973,-129.0
2023-08-10 11:06:49.308663,-148.0
2023-08-10 11:06:49.316353,-174.0
2023-08-10 11:06:49.324043,-189.0
2023-08-10 11:06:49.331733,-193.0
2023-08-10 11:06:49.339423,-179.0
2023-08-10 11:06:49.347113,-189.0
2023-08-10 11:06:49.354803,-244.0
2023-08-10 11:06:49.362493,-244.0
2023-08-10 11:06:49.370183,-205.0
2023-08-10 11:06:49.377873,-203.0
2023-08-10 11:06:49.385563,-172.0
2023-08-10 11:06:49.393253,-78.0
2023-08-10 11:06:49.400943,-16.0
2023-08-10 11:06:49.408633,-19.0
2023-08-10 11:06:49.416323,7.0
2023-08-10 11:06:49.424012,66.0
2023-08-10 11:06:49.431702,57.0
2023-08-10 11:06:49.439392,40.0
2023-08-10 11:06:49.447082,74.0
2023-08-10 11:06:49.454772,55.0
2023-08-10 11:06:49.462462,40.0
2023-08-10 11:06:49.470152,90.0
2023-08-10 11:06:49.477842,81.0
2023-08-10 11:06:49.485532,35.0
2023-08-10 11:06:49.493222,40.0
2023-08-10 11:06:49.500912,31.0
2023-08-10 11:06:49.508602,7.0
2023-08-10 11:06:49.516292,19.0
2023-08-10 11:06:49.523982,19.0
2023-08-10 11:06:49.531672,-11.0
2023-08-10 11:06:49.539362,7.0
2023-08-10 11:06:49.547051,43.0
2023-08-10 11:06:49.554741,9.0
2023-08-10 11:06:49.562431,-21.0
2023-08-10 11:06:49.570121,-2.0
2023-08-10 11:06:49.577811,4.0
2023-08-10 11:06:49.585501,9.0
2023-08-10 11:06:49.593191,21.0
2023-08-10 11:06:49.600881,9.0
2023-08-10 11:06:49.608571,-14.0
2023-08-10 11:06:49.616261,-28.0
2023-08-10 11:06:49.623951,-11.0
2023-08-10 11:06:49.631641,23.0
2023-08-10 11:06:49.639331,19.0
2023-08-10 11:06:49.647021,-23.0
2023-08-10 11:06:49.654711,-21.0
2023-08-10 11:06:49.662401,19.0
2023-08-10 11:06:49.670091,19.0
2023-08-10 11:06:49.677780,2.0
2023-08-10 11:06:49.685470,-11.0
2023-08-10 11:06:49.693160,-26.0
2023-08-10 11:06:49.700850,-28.0
2023-08-10 11:06:49.708540,-23.0
2023-08-10 11:06:49.716230,-9.0
2023-08-10 11:06:49.723920,9.0
2023-08-10 11:06:49.731610,14.0
2023-08-10 11:06:49.739300,-2.0
2023-08-10 11:06:49.746990,-33.0
2023-08-10 11:06:49.754680,-31.0
2023-08-10 11:06:49.762370,4.0
2023-08-10 11:06:49.770060,-9.0
2023-08-10 11:06:49.777750,-38.0
2023-08-10 11:06:49.785440,-9.0
2023-08-10 11:06:49.793130,-7.0
2023-08-10 11:06:49.800819,-45.0
2023-08-10 11:06:49.808509,-35.0
2023-08-10 11:06:49.816199,-11.0
2023-08-10 11:06:49.823889,-19.0
2023-08-10 11:06:49.831579,-11.0
2023-08-10 11:06:49.839269,-4.0
2023-08-10 11:06:49.846959,-19.0
2023-08-10 11:06:49.854649,-35.0
2023-08-10 11:06:49.862339,-47.0
2023-08-10 11:06:49.870029,-26.0
2023-08-10 11:06:49.877719,-16.0
2023-08-10 11:06:49.885409,-31.0
2023-08-10 11:06:49.893099,-28.0
2023-08-10 11:06:49.900789,-23.0
2023-08-10 11:06:49.908479,-38.0
2023-08-10 11:06:49.916169,-71.0
2023-08-10 11:06:49.923859,-78.0
2023-08-10 11:06:49.931548,-45.0
2023-08-10 11:06:49.939238,-28.0
2023-08-10 11:06:49.946928,-38.0
2023-08-10 11:06:49.954618,-47.0
2023-08-10 11:06:49.962308,-50.0
2023-08-10 11:06:49.969998,-33.0
2023-08-10 11:06:49.977688,-4.0
2023-08-10 11:06:49.985378,-4.0
2023-08-10 11:06:49.993068,-16.0
2023-08-10 11:06:50.000758,-16.0
2023-08-10 11:06:50.008448,-9.0
2023-08-10 11:06:50.016138,-16.0
2023-08-10 11:06:50.023828,-31.0
2023-08-10 11:06:50.031518,-74.0
2023-08-10 11:06:50.039208,-227.0
2023-08-10 11:06:50.046898,-456.0
2023-08-10 11:06:50.054587,-629.0
2023-08-10 11:06:50.062277,-631.0
2023-08-10 11:06:50.069967,-399.0
2023-08-10 11:06:50.077657,-45.0
2023-08-10 11:06:50.085347,117.0
2023-08-10 11:06:50.093037,19.0
2023-08-10 11:06:50.100727,-66.0
2023-08-10 11:06:50.108417,-9.0
2023-08-10 11:06:50.116107,16.0
2023-08-10 11:06:50.123797,-31.0
2023-08-10 11:06:50.131487,-50.0
2023-08-10 11:06:50.139177,-35.0
2023-08-10 11:06:50.146867,-21.0
2023-08-10 11:06:50.154557,-31.0
2023-08-10 11:06:50.162247,-50.0
2023-08-10 11:06:50.169937,-47.0
2023-08-10 11:06:50.177627,-52.0
2023-08-10 11:06:50.185316,-74.0
2023-08-10 11:06:50.193006,-83.0
2023-08-10 11:06:50.200696,-69.0
2023-08-10 11:06:50.208386,-71.0
2023-08-10 11:06:50.216076,-88.0
2023-08-10 11:06:50.223766,-90.0
2023-08-10 11:06:50.231456,-105.0
2023-08-10 11:06:50.239146,-117.0
2023-08-10 11:06:50.246836,-112.0
2023-08-10 11:06:50.254526,-141.0
2023-08-10 11:06:50.262216,-177.0
2023-08-10 11:06:50.269906,-186.0
2023-08-10 11:06:50.277596,-191.0
2023-08-10 11:06:50.285286,-193.0
2023-08-10 11:06:50.292976,-215.0
2023-08-10 11:06:50.300666,-244.0
2023-08-10 11:06:50.308355,-244.0
2023-08-10 11:06:50.316045,-227.0
2023-08-10 11:06:50.323735,-227.0
2023-08-10 11:06:50.331425,-239.0
2023-08-10 11:06:50.339115,-203.0
2023-08-10 11:06:50.346805,-129.0
2023-08-10 11:06:50.354495,-74.0
2023-08-10 11:06:50.362185,-19.0
2023-08-10 11:06:50.369875,19.0
2023-08-10 11:06:50.377565,26.0
2023-08-10 11:06:50.385255,35.0
2023-08-10 11:06:50.392945,52.0
2023-08-10 11:06:50.400635,57.0
2023-08-10 11:06:50.408325,59.0
2023-08-10 11:06:50.416015,57.0
2023-08-10 11:06:50.423705,50.0
2023-08-10 11:06:50.431395,59.0
2023-08-10 11:06:50.439084,74.0
2023-08-10 11:06:50.446774,57.0
2023-08-10 11:06:50.454464,43.0
2023-08-10 11:06:50.462154,50.0
2023-08-10 11:06:50.469844,45.0
2023-08-10 11:06:50.477534,35.0
2023-08-10 11:06:50.485224,40.0
2023-08-10 11:06:50.492914,35.0
2023-08-10 11:06:50.500604,33.0
2023-08-10 11:06:50.508294,47.0
2023-08-10 11:06:50.515984,28.0
2023-08-10 11:06:50.523674,4.0
2023-08-10 11:06:50.531364,26.0
2023-08-10 11:06:50.539054,33.0
2023-08-10 11:06:50.546744,16.0
2023-08-10 11:06:50.554434,11.0
2023-08-10 11:06:50.562123,7.0
2023-08-10 11:06:50.569813,4.0
2023-08-10 11:06:50.577503,14.0
2023-08-10 11:06:50.585193,19.0
2023-08-10 11:06:50.592883,9.0
2023-08-10 11:06:50.600573,-9.0
2023-08-10 11:06:50.608263,2.0
2023-08-10 11:06:50.615953,19.0
2023-08-10 11:06:50.623643,-4.0
2023-08-10 11:06:50.631333,-19.0
2023-08-10 11:06:50.639023,4.0
2023-08-10 11:06:50.646713,16.0
2023-08-10 11:06:50.654403,0.0
2023-08-10 11:06:50.662093,-4.0
2023-08-10 11:06:50.669783,7.0
2023-08-10 11:06:50.677473,19.0
2023-08-10 11:06:50.685163,21.0
2023-08-10 11:06:50.692852,2.0
2023-08-10 11:06:50.700542,-28.0
2023-08-10 11:06:50.708232,-21.0
2023-08-10 11:06:50.715922,7.0
2023-08-10 11:06:50.723612,2.0
2023-08-10 11:06:50.731302,-7.0
2023-08-10 11:06:50.738992,-7.0
2023-08-10 11:06:50.746682,-14.0
2023-08-10 11:06:50.754372,-7.0
2023-08-10 11:06:50.762062,-2.0
2023-08-10 11:06:50.769752,-11.0
2023-08-10 11:06:50.777442,-16.0
2023-08-10 11:06:50.785132,-23.0
2023-08-10 11:06:50.792822,-31.0
2023-08-10 11:06:50.800512,-23.0
2023-08-10 11:06:50.808202,-31.0
2023-08-10 11:06:50.815891,-47.0
2023-08-10 11:06:50.823581,-33.0
2023-08-10 11:06:50.831271,-21.0
2023-08-10 11:06:50.838961,-31.0
2023-08-10 11:06:50.846651,-35.0
2023-08-10 11:06:50.854341,-35.0
2023-08-10 11:06:50.862031,-31.0
2023-08-10 11:06:50.869721,-50.0
2023-08-10 11:06:50.877411,-66.0
2023-08-10 11:06:50.885101,-59.0
2023-08-10 11:06:50.892791,-64.0
2023-08-10 11:06:50.900481,-59.0
2023-08-10 11:06:50.908171,-40.0
2023-08-10 11:06:50.915861,-55.0
2023-08-10 11:06:50.923551,-55.0
2023-08-10 11:06:50.931241,-19.0
2023-08-10 11:06:50.938930,-16.0
2023-08-10 11:06:50.946620,-31.0
2023-08-10 11:06:50.954310,-26.0
2023-08-10 11:06:50.962000,-33.0
2023-08-10 11:06:50.969690,-47.0
2023-08-10 11:06:50.977380,-38.0
2023-08-10 11:06:50.985070,-31.0
2023-08-10 11:06:50.992760,-66.0
2023-08-10 11:06:51.000450,-193.0
2023-08-10 11:06:51.008140,-418.0
2023-08-10 11:06:51.015830,-617.0
2023-08-10 11:06:51.023520,-665.0
2023-08-10 11:06:51.031210,-454.0
2023-08-10 11:06:51.038900,-81.0
2023-08-10 11:06:51.046590,112.0
2023-08-10 11:06:51.054280,33.0
2023-08-10 11:06:51.061970,-57.0
2023-08-10 11:06:51.069659,-33.0
2023-08-10 11:06:51.077349,-19.0
2023-08-10 11:06:51.085039,-40.0
2023-08-10 11:06:51.092729,-21.0
2023-08-10 11:06:51.100419,-14.0
2023-08-10 11:06:51.108109,-45.0
2023-08-10 11:06:51.115799,-47.0
2023-08-10 11:06:51.123489,-43.0
2023-08-10 11:06:51.131179,-59.0
2023-08-10 11:06:51.138869,-57.0
2023-08-10 11:06:51.146559,-50.0
2023-08-10 11:06:51.154249,-62.0
2023-08-10 11:06:51.161939,-71.0
2023-08-10 11:06:51.169629,-78.0
2023-08-10 11:06:51.177319,-100.0
2023-08-10 11:06:51.185009,-117.0
2023-08-10 11:06:51.192698,-117.0
2023-08-10 11:06:51.200388,-117.0
2023-08-10 11:06:51.208078,-124.0
2023-08-10 11:06:51.215768,-150.0
2023-08-10 11:06:51.223458,-177.0
2023-08-10 11:06:51.231148,-189.0
2023-08-10 11:06:51.238838,-193.0
2023-08-10 11:06:51.246528,-205.0
2023-08-10 11:06:51.254218,-224.0
2023-08-10 11:06:51.261908,-246.0
2023-08-10 11:06:51.269598,-258.0
2023-08-10 11:06:51.277288,-260.0
2023-08-10 11:06:51.284978,-260.0
2023-08-10 11:06:51.292668,-241.0
2023-08-10 11:06:51.300358,-210.0
2023-08-10 11:06:51.308048,-172.0
2023-08-10 11:06:51.315738,-114.0
2023-08-10 11:06:51.323427,-45.0
2023-08-10 11:06:51.331117,-2.0
2023-08-10 11:06:51.338807,19.0
2023-08-10 11:06:51.346497,33.0
2023-08-10 11:06:51.354187,40.0
2023-08-10 11:06:51.361877,43.0
2023-08-10 11:06:51.369567,57.0
2023-08-10 11:06:51.377257,64.0
2023-08-10 11:06:51.384947,45.0
2023-08-10 11:06:51.392637,31.0
2023-08-10 11:06:51.400327,33.0
2023-08-10 11:06:51.408017,45.0
2023-08-10 11:06:51.415707,50.0
2023-08-10 11:06:51.423397,45.0
2023-08-10 11:06:51.431087,31.0
2023-08-10 11:06:51.438777,21.0
2023-08-10 11:06:51.446466,31.0
2023-08-10 11:06:51.454156,40.0
2023-08-10 11:06:51.461846,26.0
2023-08-10 11:06:51.469536,2.0
2023-08-10 11:06:51.477226,9.0
2023-08-10 11:06:51.484916,33.0
2023-08-10 11:06:51.492606,21.0
2023-08-10 11:06:51.500296,0.0
2023-08-10 11:06:51.507986,4.0
2023-08-10 11:06:51.515676,11.0
2023-08-10 11:06:51.523366,-4.0
2023-08-10 11:06:51.531056,-9.0
2023-08-10 11:06:51.538746,19.0
2023-08-10 11:06:51.546436,31.0
2023-08-10 11:06:51.554126,0.0
2023-08-10 11:06:51.561816,-21.0
2023-08-10 11:06:51.569506,-16.0
2023-08-10 11:06:51.577195,0.0
2023-08-10 11:06:51.584885,9.0
2023-08-10 11:06:51.592575,-7.0
2023-08-10 11:06:51.600265,-21.0
2023-08-10 11:06:51.607955,-9.0
2023-08-10 11:06:51.615645,-2.0
2023-08-10 11:06:51.623335,-16.0
2023-08-10 11:06:51.631025,-23.0
2023-08-10 11:06:51.638715,-31.0
2023-08-10 11:06:51.646405,-28.0
2023-08-10 11:06:51.654095,-11.0
2023-08-10 11:06:51.661785,-2.0
2023-08-10 11:06:51.669475,-9.0
2023-08-10 11:06:51.677165,-16.0
2023-08-10 11:06:51.684855,-19.0
2023-08-10 11:06:51.692545,-19.0
2023-08-10 11:06:51.700234,-26.0
2023-08-10 11:06:51.707924,-31.0
2023-08-10 11:06:51.715614,-31.0
2023-08-10 11:06:51.723304,-38.0
2023-08-10 11:06:51.730994,-59.0
2023-08-10 11:06:51.738684,-78.0
2023-08-10 11:06:51.746374,-64.0
2023-08-10 11:06:51.754064,-57.0
2023-08-10 11:06:51.761754,-74.0
2023-08-10 11:06:51.769444,-59.0
2023-08-10 11:06:51.777134,-40.0
2023-08-10 11:06:51.784824,-57.0
2023-08-10 11:06:51.792514,-55.0
2023-08-10 11:06:51.800204,-38.0
2023-08-10 11:06:51.807894,-35.0
2023-08-10 11:06:51.815584,-19.0
2023-08-10 11:06:51.823274,-14.0
2023-08-10 11:06:51.830963,-33.0
2023-08-10 11:06:51.838653,-45.0
2023-08-10 11:06:51.846343,-52.0
2023-08-10 11:06:51.854033,-69.0
2023-08-10 11:06:51.861723,-160.0
2023-08-10 11:06:51.869413,-375.0
2023-08-10 11:06:51.877103,-583.0
2023-08-10 11:06:51.884793,-648.0
2023-08-10 11:06:51.892483,-502.0
2023-08-10 11:06:51.900173,-155.0
2023-08-10 11:06:51.907863,107.0
2023-08-10 11:06:51.915553,76.0
2023-08-10 11:06:51.923243,-40.0
2023-08-10 11:06:51.930933,-31.0
2023-08-10 11:06:51.938623,9.0
2023-08-10 11:06:51.946313,-21.0
2023-08-10 11:06:51.954002,-40.0
2023-08-10 11:06:51.961692,-16.0
2023-08-10 11:06:51.969382,-21.0
2023-08-10 11:06:51.977072,-50.0
2023-08-10 11:06:51.984762,-50.0
2023-08-10 11:06:51.992452,-33.0
2023-08-10 11:06:52.000142,-45.0
2023-08-10 11:06:52.007832,-76.0
2023-08-10 11:06:52.015522,-83.0
2023-08-10 11:06:52.023212,-76.0
2023-08-10 11:06:52.030902,-86.0
2023-08-10 11:06:52.038592,-100.0
2023-08-10 11:06:52.046282,-114.0
2023-08-10 11:06:52.053972,-124.0
2023-08-10 11:06:52.061662,-133.0
2023-08-10 11:06:52.069352,-157.0
2023-08-10 11:06:52.077041,-172.0
2023-08-10 11:06:52.084731,-153.0
2023-08-10 11:06:52.092421,-172.0
2023-08-10 11:06:52.100111,-217.0
2023-08-10 11:06:52.107801,-224.0
2023-08-10 11:06:52.115491,-239.0
2023-08-10 11:06:52.123181,-267.0
2023-08-10 11:06:52.130871,-263.0
2023-08-10 11:06:52.138561,-265.0
2023-08-10 11:06:52.146251,-284.0
2023-08-10 11:06:52.153941,-265.0
2023-08-10 11:06:52.161631,-212.0
2023-08-10 11:06:52.169321,-155.0
2023-08-10 11:06:52.177011,-107.0
2023-08-10 11:06:52.184701,-62.0
2023-08-10 11:06:52.192391,-23.0
2023-08-10 11:06:52.200081,4.0
2023-08-10 11:06:52.207770,23.0
2023-08-10 11:06:52.215460,35.0
2023-08-10 11:06:52.223150,40.0
2023-08-10 11:06:52.230840,31.0
2023-08-10 11:06:52.238530,28.0
2023-08-10 11:06:52.246220,47.0
2023-08-10 11:06:52.253910,45.0
2023-08-10 11:06:52.261600,31.0
2023-08-10 11:06:52.269290,45.0
2023-08-10 11:06:52.276980,33.0
2023-08-10 11:06:52.284670,7.0
2023-08-10 11:06:52.292360,26.0
2023-08-10 11:06:52.300050,40.0
2023-08-10 11:06:52.307740,28.0
2023-08-10 11:06:52.315430,14.0
2023-08-10 11:06:52.323120,-7.0
2023-08-10 11:06:52.330809,2.0
2023-08-10 11:06:52.338499,19.0
2023-08-10 11:06:52.346189,9.0
2023-08-10 11:06:52.353879,4.0
2023-08-10 11:06:52.361569,-9.0
2023-08-10 11:06:52.369259,-35.0
2023-08-10 11:06:52.376949,-23.0
2023-08-10 11:06:52.384639,7.0
2023-08-10 11:06:52.392329,-7.0
2023-08-10 11:06:52.400019,-28.0
2023-08-10 11:06:52.407709,-16.0
2023-08-10 11:06:52.415399,2.0
2023-08-10 11:06:52.423089,16.0
2023-08-10 11:06:52.430779,21.0
2023-08-10 11:06:52.438469,26.0
2023-08-10 11:06:52.446159,19.0
2023-08-10 11:06:52.453849,0.0
2023-08-10 11:06:52.461538,-14.0
2023-08-10 11:06:52.469228,-11.0
2023-08-10 11:06:52.476918,-4.0
2023-08-10 11:06:52.484608,-9.0
2023-08-10 11:06:52.492298,-16.0
2023-08-10 11:06:52.499988,-7.0
2023-08-10 11:06:52.507678,7.0
2023-08-10 11:06:52.515368,0.0
2023-08-10 11:06:52.523058,-23.0
2023-08-10 11:06:52.530748,-28.0
2023-08-10 11:06:52.538438,-4.0
2023-08-10 11:06:52.546128,-2.0
2023-08-10 11:06:52.553818,-14.0
2023-08-10 11:06:52.561508,-11.0
2023-08-10 11:06:52.569198,-21.0
2023-08-10 11:06:52.576888,-40.0
2023-08-10 11:06:52.584577,-33.0
2023-08-10 11:06:52.592267,-23.0
2023-08-10 11:06:52.599957,-26.0
2023-08-10 11:06:52.607647,-21.0
2023-08-10 11:06:52.615337,-21.0
2023-08-10 11:06:52.623027,-35.0
2023-08-10 11:06:52.630717,-31.0
2023-08-10 11:06:52.638407,-23.0
2023-08-10 11:06:52.646097,-35.0
2023-08-10 11:06:52.653787,-43.0
2023-08-10 11:06:52.661477,-33.0
2023-08-10 11:06:52.669167,-40.0
2023-08-10 11:06:52.676857,-69.0
2023-08-10 11:06:52.684547,-78.0
2023-08-10 11:06:52.692237,-55.0
2023-08-10 11:06:52.699927,-45.0
2023-08-10 11:06:52.707617,-50.0
2023-08-10 11:06:52.715306,-31.0
2023-08-10 11:06:52.722996,-16.0
2023-08-10 11:06:52.730686,-23.0
2023-08-10 11:06:52.738376,-19.0
2023-08-10 11:06:52.746066,-11.0
2023-08-10 11:06:52.753756,-21.0
2023-08-10 11:06:52.761446,-23.0
2023-08-10 11:06:52.769136,-19.0
2023-08-10 11:06:52.776826,-33.0
2023-08-10 11:06:52.784516,-47.0
2023-08-10 11:06:52.792206,-117.0
2023-08-10 11:06:52.799896,-294.0
2023-08-10 11:06:52.807586,-495.0
2023-08-10 11:06:52.815276,-622.0
2023-08-10 11:06:52.822966,-562.0
2023-08-10 11:06:52.830656,-244.0
2023-08-10 11:06:52.838345,90.0
2023-08-10 11:06:52.846035,117.0
2023-08-10 11:06:52.853725,-28.0
2023-08-10 11:06:52.861415,-33.0
2023-08-10 11:06:52.869105,31.0
2023-08-10 11:06:52.876795,2.0
2023-08-10 11:06:52.884485,-33.0
2023-08-10 11:06:52.892175,-21.0
2023-08-10 11:06:52.899865,-11.0
2023-08-10 11:06:52.907555,-26.0
2023-08-10 11:06:52.915245,-38.0
2023-08-10 11:06:52.922935,-40.0
2023-08-10 11:06:52.930625,-35.0
2023-08-10 11:06:52.938315,-45.0
2023-08-10 11:06:52.946005,-57.0
2023-08-10 11:06:52.953695,-59.0
2023-08-10 11:06:52.961385,-69.0
2023-08-10 11:06:52.969074,-86.0
2023-08-10 11:06:52.976764,-100.0
2023-08-10 11:06:52.984454,-110.0
2023-08-10 11:06:52.992144,-133.0
2023-08-10 11:06:52.999834,-160.0
2023-08-10 11:06:53.007524,-143.0
2023-08-10 11:06:53.015214,-126.0
2023-08-10 11:06:53.022904,-172.0
2023-08-10 11:06:53.030594,-208.0
2023-08-10 11:06:53.038284,-205.0
2023-08-10 11:06:53.045974,-222.0
2023-08-10 11:06:53.053664,-246.0
2023-08-10 11:06:53.061354,-246.0
2023-08-10 11:06:53.069044,-256.0
2023-08-10 11:06:53.076734,-284.0
2023-08-10 11:06:53.084424,-277.0
2023-08-10 11:06:53.092113,-227.0
2023-08-10 11:06:53.099803,-179.0
2023-08-10 11:06:53.107493,-129.0
2023-08-10 11:06:53.115183,-76.0
2023-08-10 11:06:53.122873,-38.0
2023-08-10 11:06:53.130563,-9.0
2023-08-10 11:06:53.138253,11.0
2023-08-10 11:06:53.145943,16.0
2023-08-10 11:06:53.153633,19.0
2023-08-10 11:06:53.161323,31.0
2023-08-10 11:06:53.169013,38.0
2023-08-10 11:06:53.176703,35.0
2023-08-10 11:06:53.184393,35.0
2023-08-10 11:06:53.192083,28.0
2023-08-10 11:06:53.199773,28.0
2023-08-10 11:06:53.207463,38.0
2023-08-10 11:06:53.215153,28.0
2023-08-10 11:06:53.222842,4.0
2023-08-10 11:06:53.230532,9.0
2023-08-10 11:06:53.238222,28.0
2023-08-10 11:06:53.245912,16.0
2023-08-10 11:06:53.253602,-2.0
2023-08-10 11:06:53.261292,11.0
2023-08-10 11:06:53.268982,21.0
2023-08-10 11:06:53.276672,2.0
2023-08-10 11:06:53.284362,2.0
2023-08-10 11:06:53.292052,9.0
2023-08-10 11:06:53.299742,-9.0
2023-08-10 11:06:53.307432,-7.0
2023-08-10 11:06:53.315122,14.0
2023-08-10 11:06:53.322812,7.0
2023-08-10 11:06:53.330502,-9.0
2023-08-10 11:06:53.338192,-2.0
2023-08-10 11:06:53.345881,7.0
2023-08-10 11:06:53.353571,0.0
2023-08-10 11:06:53.361261,-21.0
2023-08-10 11:06:53.368951,-23.0
2023-08-10 11:06:53.376641,-4.0
2023-08-10 11:06:53.384331,-2.0
2023-08-10 11:06:53.392021,-26.0
2023-08-10 11:06:53.399711,-28.0
2023-08-10 11:06:53.407401,0.0
2023-08-10 11:06:53.415091,-14.0
2023-08-10 11:06:53.422781,-50.0
2023-08-10 11:06:53.430471,-31.0
2023-08-10 11:06:53.438161,-7.0
2023-08-10 11:06:53.445851,-23.0
2023-08-10 11:06:53.453541,-35.0
2023-08-10 11:06:53.461231,-33.0
2023-08-10 11:06:53.468920,-35.0
2023-08-10 11:06:53.476610,-23.0
2023-08-10 11:06:53.484300,-7.0
2023-08-10 11:06:53.491990,-28.0
2023-08-10 11:06:53.499680,-43.0
2023-08-10 11:06:53.507370,-33.0
2023-08-10 11:06:53.515060,-26.0
2023-08-10 11:06:53.522750,-21.0
2023-08-10 11:06:53.530440,-26.0
2023-08-10 11:06:53.538130,-40.0
2023-08-10 11:06:53.545820,-50.0
2023-08-10 11:06:53.553510,-31.0
2023-08-10 11:06:53.561200,4.0
2023-08-10 11:06:53.568890,-35.0
2023-08-10 11:06:53.576580,-98.0
2023-08-10 11:06:53.584270,-81.0
2023-08-10 11:06:53.591960,-57.0
2023-08-10 11:06:53.599649,-64.0
2023-08-10 11:06:53.607339,-52.0
2023-08-10 11:06:53.615029,-33.0
2023-08-10 11:06:53.622719,-43.0
2023-08-10 11:06:53.630409,-52.0
2023-08-10 11:06:53.638099,-35.0
2023-08-10 11:06:53.645789,-28.0
2023-08-10 11:06:53.653479,-45.0
2023-08-10 11:06:53.661169,-57.0
2023-08-10 11:06:53.668859,-45.0
2023-08-10 11:06:53.676549,-45.0
2023-08-10 11:06:53.684239,-114.0
2023-08-10 11:06:53.691929,-284.0
2023-08-10 11:06:53.699619,-495.0
2023-08-10 11:06:53.707309,-629.0
2023-08-10 11:06:53.714999,-588.0
2023-08-10 11:06:53.722688,-318.0
2023-08-10 11:06:53.730378,9.0
2023-08-10 11:06:53.738068,105.0
2023-08-10 11:06:53.745758,7.0
2023-08-10 11:06:53.753448,-38.0
2023-08-10 11:06:53.761138,0.0
2023-08-10 11:06:53.768828,2.0
2023-08-10 11:06:53.776518,-26.0
2023-08-10 11:06:53.784208,-23.0
2023-08-10 11:06:53.791898,-2.0
2023-08-10 11:06:53.799588,-14.0
2023-08-10 11:06:53.807278,-43.0
2023-08-10 11:06:53.814968,-31.0
2023-08-10 11:06:53.822658,-19.0
2023-08-10 11:06:53.830348,-33.0
2023-08-10 11:06:53.838038,-52.0
2023-08-10 11:06:53.845728,-71.0
2023-08-10 11:06:53.853417,-83.0
2023-08-10 11:06:53.861107,-76.0
2023-08-10 11:06:53.868797,-71.0
2023-08-10 11:06:53.876487,-86.0
2023-08-10 11:06:53.884177,-114.0
2023-08-10 11:06:53.891867,-124.0
2023-08-10 11:06:53.899557,-124.0
2023-08-10 11:06:53.907247,-145.0
2023-08-10 11:06:53.914937,-162.0
2023-08-10 11:06:53.922627,-167.0
2023-08-10 11:06:53.930317,-198.0
2023-08-10 11:06:53.938007,-246.0
2023-08-10 11:06:53.945697,-253.0
2023-08-10 11:06:53.953387,-217.0
2023-08-10 11:06:53.961077,-222.0
2023-08-10 11:06:53.968767,-272.0
2023-08-10 11:06:53.976456,-275.0
2023-08-10 11:06:53.984146,-234.0
2023-08-10 11:06:53.991836,-184.0
2023-08-10 11:06:53.999526,-122.0
2023-08-10 11:06:54.007216,-74.0
2023-08-10 11:06:54.014906,-43.0
2023-08-10 11:06:54.022596,-4.0
2023-08-10 11:06:54.030286,31.0
2023-08-10 11:06:54.037976,43.0
2023-08-10 11:06:54.045666,21.0
2023-08-10 11:06:54.053356,9.0
2023-08-10 11:06:54.061046,38.0
2023-08-10 11:06:54.068736,40.0
2023-08-10 11:06:54.076426,16.0
2023-08-10 11:06:54.084116,21.0
2023-08-10 11:06:54.091806,14.0
2023-08-10 11:06:54.099496,4.0
2023-08-10 11:06:54.107185,14.0
2023-08-10 11:06:54.114875,11.0
2023-08-10 11:06:54.122565,4.0
2023-08-10 11:06:54.130255,7.0
2023-08-10 11:06:54.137945,0.0
2023-08-10 11:06:54.145635,-2.0
2023-08-10 11:06:54.153325,2.0
2023-08-10 11:06:54.161015,-4.0
2023-08-10 11:06:54.168705,-14.0
2023-08-10 11:06:54.176395,-7.0
2023-08-10 11:06:54.184085,-14.0
2023-08-10 11:06:54.191775,-21.0
2023-08-10 11:06:54.199465,0.0
2023-08-10 11:06:54.207155,4.0
2023-08-10 11:06:54.214845,-2.0
2023-08-10 11:06:54.222535,-4.0
2023-08-10 11:06:54.230224,-26.0
2023-08-10 11:06:54.237914,-21.0
2023-08-10 11:06:54.245604,-2.0
2023-08-10 11:06:54.253294,-23.0
2023-08-10 11:06:54.260984,-45.0
2023-08-10 11:06:54.268674,-16.0
2023-08-10 11:06:54.276364,9.0
2023-08-10 11:06:54.284054,-11.0
2023-08-10 11:06:54.291744,-31.0
2023-08-10 11:06:54.299434,-19.0
2023-08-10 11:06:54.307124,-31.0
2023-08-10 11:06:54.314814,-55.0
2023-08-10 11:06:54.322504,-26.0
2023-08-10 11:06:54.330194,-7.0
2023-08-10 11:06:54.337884,-59.0
2023-08-10 11:06:54.345574,-86.0
2023-08-10 11:06:54.353264,-52.0
2023-08-10 11:06:54.360953,-33.0
2023-08-10 11:06:54.368643,-11.0
2023-08-10 11:06:54.376333,7.0
2023-08-10 11:06:54.384023,-21.0
2023-08-10 11:06:54.391713,-38.0
2023-08-10 11:06:54.399403,-19.0
2023-08-10 11:06:54.407093,-11.0
2023-08-10 11:06:54.414783,-23.0
2023-08-10 11:06:54.422473,-23.0
2023-08-10 11:06:54.430163,-26.0
2023-08-10 11:06:54.437853,-47.0
2023-08-10 11:06:54.445543,-148.0
2023-08-10 11:06:54.453233,-378.0
2023-08-10 11:06:54.460923,-607.0
2023-08-10 11:06:54.468613,-662.0
2023-08-10 11:06:54.476303,-464.0
2023-08-10 11:06:54.483992,-110.0
2023-08-10 11:06:54.491682,114.0
2023-08-10 11:06:54.499372,81.0
2023-08-10 11:06:54.507062,-19.0
2023-08-10 11:06:54.514752,-7.0
2023-08-10 11:06:54.522442,21.0
2023-08-10 11:06:54.530132,-4.0
2023-08-10 11:06:54.537822,2.0
2023-08-10 11:06:54.545512,23.0
2023-08-10 11:06:54.553202,-14.0
2023-08-10 11:06:54.560892,-45.0
2023-08-10 11:06:54.568582,-16.0
2023-08-10 11:06:54.576272,-9.0
2023-08-10 11:06:54.583962,-55.0
2023-08-10 11:06:54.591652,-62.0
2023-08-10 11:06:54.599342,-40.0
2023-08-10 11:06:54.607031,-38.0
2023-08-10 11:06:54.614721,-57.0
2023-08-10 11:06:54.622411,-102.0
2023-08-10 11:06:54.630101,-126.0
2023-08-10 11:06:54.637791,-105.0
2023-08-10 11:06:54.645481,-119.0
2023-08-10 11:06:54.653171,-145.0
2023-08-10 11:06:54.660861,-119.0
2023-08-10 11:06:54.668551,-126.0
2023-08-10 11:06:54.676241,-181.0
2023-08-10 11:06:54.683931,-200.0
2023-08-10 11:06:54.691621,-196.0
2023-08-10 11:06:54.699311,-222.0
2023-08-10 11:06:54.707001,-241.0
2023-08-10 11:06:54.714691,-236.0
2023-08-10 11:06:54.722381,-241.0
2023-08-10 11:06:54.730071,-244.0
2023-08-10 11:06:54.737760,-212.0
2023-08-10 11:06:54.745450,-167.0
2023-08-10 11:06:54.753140,-119.0
2023-08-10 11:06:54.760830,-50.0
2023-08-10 11:06:54.768520,7.0
2023-08-10 11:06:54.776210,21.0
2023-08-10 11:06:54.783900,19.0
2023-08-10 11:06:54.791590,26.0
2023-08-10 11:06:54.799280,45.0
2023-08-10 11:06:54.806970,57.0
2023-08-10 11:06:54.814660,28.0
2023-08-10 11:06:54.822350,28.0
2023-08-10 11:06:54.830040,83.0
2023-08-10 11:06:54.837730,74.0
2023-08-10 11:06:54.845420,26.0
2023-08-10 11:06:54.853110,21.0
2023-08-10 11:06:54.860799,21.0
2023-08-10 11:06:54.868489,16.0
2023-08-10 11:06:54.876179,14.0
2023-08-10 11:06:54.883869,9.0
2023-08-10 11:06:54.891559,7.0
2023-08-10 11:06:54.899249,11.0
2023-08-10 11:06:54.906939,9.0
2023-08-10 11:06:54.914629,0.0
2023-08-10 11:06:54.922319,-4.0
2023-08-10 11:06:54.930009,-7.0
2023-08-10 11:06:54.937699,-16.0
2023-08-10 11:06:54.945389,-28.0
2023-08-10 11:06:54.953079,-23.0
2023-08-10 11:06:54.960769,-19.0
2023-08-10 11:06:54.968459,-26.0
2023-08-10 11:06:54.976149,-7.0
2023-08-10 11:06:54.983839,2.0
2023-08-10 11:06:54.991528,-21.0
2023-08-10 11:06:54.999218,-26.0
2023-08-10 11:06:55.006908,-11.0
2023-08-10 11:06:55.014598,-26.0
2023-08-10 11:06:55.022288,-35.0
2023-08-10 11:06:55.029978,-14.0
2023-08-10 11:06:55.037668,-14.0
2023-08-10 11:06:55.045358,-33.0
2023-08-10 11:06:55.053048,-26.0
2023-08-10 11:06:55.060738,-19.0
2023-08-10 11:06:55.068428,-35.0
2023-08-10 11:06:55.076118,-40.0
2023-08-10 11:06:55.083808,-38.0
2023-08-10 11:06:55.091498,-45.0
2023-08-10 11:06:55.099188,-33.0
2023-08-10 11:06:55.106878,-26.0
2023-08-10 11:06:55.114567,-50.0
2023-08-10 11:06:55.122257,-57.0
2023-08-10 11:06:55.129947,-50.0
2023-08-10 11:06:55.137637,-69.0
2023-08-10 11:06:55.145327,-81.0
2023-08-10 11:06:55.153017,-59.0
2023-08-10 11:06:55.160707,-69.0
2023-08-10 11:06:55.168397,-88.0
2023-08-10 11:06:55.176087,-69.0
2023-08-10 11:06:55.183777,-52.0
2023-08-10 11:06:55.191467,-45.0
2023-08-10 11:06:55.199157,-31.0
2023-08-10 11:06:55.206847,-23.0
2023-08-10 11:06:55.214537,-45.0
2023-08-10 11:06:55.222227,-57.0
2023-08-10 11:06:55.229917,-31.0
2023-08-10 11:06:55.237607,-31.0
2023-08-10 11:06:55.245296,-52.0
2023-08-10 11:06:55.252986,-35.0
2023-08-10 11:06:55.260676,-50.0
2023-08-10 11:06:55.268366,-160.0
2023-08-10 11:06:55.276056,-356.0
2023-08-10 11:06:55.283746,-552.0
2023-08-10 11:06:55.291436,-638.0
2023-08-10 11:06:55.299126,-492.0
2023-08-10 11:06:55.306816,-145.0
2023-08-10 11:06:55.314506,105.0
2023-08-10 11:06:55.322196,78.0
2023-08-10 11:06:55.329886,-33.0
2023-08-10 11:06:55.337576,-26.0
2023-08-10 11:06:55.345266,14.0
2023-08-10 11:06:55.352956,4.0
2023-08-10 11:06:55.360646,-11.0
2023-08-10 11:06:55.368335,-16.0
2023-08-10 11:06:55.376025,-11.0
2023-08-10 11:06:55.383715,2.0
2023-08-10 11:06:55.391405,-9.0
2023-08-10 11:06:55.399095,-28.0
2023-08-10 11:06:55.406785,-33.0
2023-08-10 11:06:55.414475,-38.0
2023-08-10 11:06:55.422165,-38.0
2023-08-10 11:06:55.429855,-33.0
2023-08-10 11:06:55.437545,-52.0
2023-08-10 11:06:55.445235,-76.0
2023-08-10 11:06:55.452925,-71.0
2023-08-10 11:06:55.460615,-62.0
2023-08-10 11:06:55.468305,-86.0
2023-08-10 11:06:55.475995,-117.0
2023-08-10 11:06:55.483685,-117.0
2023-08-10 11:06:55.491375,-126.0
2023-08-10 11:06:55.499064,-153.0
2023-08-10 11:06:55.506754,-162.0
2023-08-10 11:06:55.514444,-179.0
2023-08-10 11:06:55.522134,-210.0
2023-08-10 11:06:55.529824,-227.0
2023-08-10 11:06:55.537514,-229.0
2023-08-10 11:06:55.545204,-215.0
2023-08-10 11:06:55.552894,-208.0
2023-08-10 11:06:55.560584,-203.0
2023-08-10 11:06:55.568274,-157.0
2023-08-10 11:06:55.575964,-88.0
2023-08-10 11:06:55.583654,-55.0
2023-08-10 11:06:55.591344,-33.0
2023-08-10 11:06:55.599034,0.0
2023-08-10 11:06:55.606724,28.0
2023-08-10 11:06:55.614414,38.0
2023-08-10 11:06:55.622103,40.0
2023-08-10 11:06:55.629793,52.0
2023-08-10 11:06:55.637483,59.0
2023-08-10 11:06:55.645173,57.0
2023-08-10 11:06:55.652863,52.0
2023-08-10 11:06:55.660553,47.0
2023-08-10 11:06:55.668243,40.0
2023-08-10 11:06:55.675933,21.0
2023-08-10 11:06:55.683623,16.0
2023-08-10 11:06:55.691313,16.0
2023-08-10 11:06:55.699003,4.0
2023-08-10 11:06:55.706693,7.0
2023-08-10 11:06:55.714383,21.0
2023-08-10 11:06:55.722073,26.0
2023-08-10 11:06:55.729763,11.0
2023-08-10 11:06:55.737453,-9.0
2023-08-10 11:06:55.745142,-9.0
2023-08-10 11:06:55.752832,9.0
2023-08-10 11:06:55.760522,2.0
2023-08-10 11:06:55.768212,-11.0
2023-08-10 11:06:55.775902,-4.0
2023-08-10 11:06:55.783592,-2.0
2023-08-10 11:06:55.791282,-9.0
2023-08-10 11:06:55.798972,-9.0
2023-08-10 11:06:55.806662,-21.0
2023-08-10 11:06:55.814352,-47.0
2023-08-10 11:06:55.822042,-50.0
2023-08-10 11:06:55.829732,-33.0
2023-08-10 11:06:55.837422,-16.0
2023-08-10 11:06:55.845112,-11.0
2023-08-10 11:06:55.852802,-23.0
2023-08-10 11:06:55.860492,-35.0
2023-08-10 11:06:55.868182,-35.0
2023-08-10 11:06:55.875871,-35.0
2023-08-10 11:06:55.883561,-23.0
2023-08-10 11:06:55.891251,-4.0
2023-08-10 11:06:55.898941,-16.0
2023-08-10 11:06:55.906631,-40.0
2023-08-10 11:06:55.914321,-35.0
2023-08-10 11:06:55.922011,-26.0
2023-08-10 11:06:55.929701,-33.0
2023-08-10 11:06:55.937391,-28.0
2023-08-10 11:06:55.945081,-14.0
2023-08-10 11:06:55.952771,-7.0
2023-08-10 11:06:55.960461,-19.0
2023-08-10 11:06:55.968151,-33.0
2023-08-10 11:06:55.975841,-40.0
2023-08-10 11:06:55.983531,-35.0
2023-08-10 11:06:55.991221,-31.0
2023-08-10 11:06:55.998910,-26.0
2023-08-10 11:06:56.006600,-31.0
2023-08-10 11:06:56.014290,-52.0
2023-08-10 11:06:56.021980,-69.0
2023-08-10 11:06:56.029670,-62.0
2023-08-10 11:06:56.037360,-55.0
2023-08-10 11:06:56.045050,-40.0
2023-08-10 11:06:56.052740,-21.0
2023-08-10 11:06:56.060430,-31.0
2023-08-10 11:06:56.068120,-47.0
2023-08-10 11:06:56.075810,-33.0
2023-08-10 11:06:56.083500,-16.0
2023-08-10 11:06:56.091190,-33.0
2023-08-10 11:06:56.098880,-66.0
2023-08-10 11:06:56.106570,-57.0
2023-08-10 11:06:56.114260,-23.0
2023-08-10 11:06:56.121950,-45.0
2023-08-10 11:06:56.129639,-186.0
2023-08-10 11:06:56.137329,-404.0
2023-08-10 11:06:56.145019,-583.0
2023-08-10 11:06:56.152709,-641.0
2023-08-10 11:06:56.160399,-478.0
2023-08-10 11:06:56.168089,-119.0
2023-08-10 11:06:56.175779,122.0
2023-08-10 11:06:56.183469,64.0
2023-08-10 11:06:56.191159,-50.0
2023-08-10 11:06:56.198849,-31.0
2023-08-10 11:06:56.206539,4.0
2023-08-10 11:06:56.214229,-2.0
2023-08-10 11:06:56.221919,-4.0
2023-08-10 11:06:56.229609,-9.0
2023-08-10 11:06:56.237299,-21.0
2023-08-10 11:06:56.244989,-28.0
2023-08-10 11:06:56.252678,-33.0
2023-08-10 11:06:56.260368,-33.0
2023-08-10 11:06:56.268058,-33.0
2023-08-10 11:06:56.275748,-52.0
2023-08-10 11:06:56.283438,-69.0
2023-08-10 11:06:56.291128,-64.0
2023-08-10 11:06:56.298818,-76.0
2023-08-10 11:06:56.306508,-110.0
2023-08-10 11:06:56.314198,-117.0
2023-08-10 11:06:56.321888,-102.0
2023-08-10 11:06:56.329578,-112.0
2023-08-10 11:06:56.337268,-136.0
2023-08-10 11:06:56.344958,-136.0
2023-08-10 11:06:56.352648,-136.0
2023-08-10 11:06:56.360338,-165.0
2023-08-10 11:06:56.368028,-189.0
2023-08-10 11:06:56.375718,-200.0
2023-08-10 11:06:56.383407,-217.0
2023-08-10 11:06:56.391097,-234.0
2023-08-10 11:06:56.398787,-244.0
2023-08-10 11:06:56.406477,-248.0
2023-08-10 11:06:56.414167,-246.0
2023-08-10 11:06:56.421857,-224.0
2023-08-10 11:06:56.429547,-167.0
2023-08-10 11:06:56.437237,-93.0
2023-08-10 11:06:56.444927,-40.0
2023-08-10 11:06:56.452617,-4.0
2023-08-10 11:06:56.460307,19.0
2023-08-10 11:06:56.467997,40.0
2023-08-10 11:06:56.475687,52.0
2023-08-10 11:06:56.483377,59.0
2023-08-10 11:06:56.491067,57.0
2023-08-10 11:06:56.498757,50.0
2023-08-10 11:06:56.506446,50.0
2023-08-10 11:06:56.514136,50.0
2023-08-10 11:06:56.521826,52.0
2023-08-10 11:06:56.529516,57.0
2023-08-10 11:06:56.537206,45.0
2023-08-10 11:06:56.544896,23.0
2023-08-10 11:06:56.552586,31.0
2023-08-10 11:06:56.560276,50.0
2023-08-10 11:06:56.567966,43.0
2023-08-10 11:06:56.575656,26.0
2023-08-10 11:06:56.583346,26.0
2023-08-10 11:06:56.591036,31.0
2023-08-10 11:06:56.598726,16.0
2023-08-10 11:06:56.606416,7.0
2023-08-10 11:06:56.614106,19.0
2023-08-10 11:06:56.621796,21.0
2023-08-10 11:06:56.629486,4.0
2023-08-10 11:06:56.637175,-2.0
2023-08-10 11:06:56.644865,2.0
2023-08-10 11:06:56.652555,7.0
2023-08-10 11:06:56.660245,4.0
2023-08-10 11:06:56.667935,-7.0
2023-08-10 11:06:56.675625,-9.0
2023-08-10 11:06:56.683315,-4.0
2023-08-10 11:06:56.691005,-7.0
2023-08-10 11:06:56.698695,-14.0
2023-08-10 11:06:56.706385,-9.0
2023-08-10 11:06:56.714075,-2.0
2023-08-10 11:06:56.721765,-11.0
2023-08-10 11:06:56.729455,-26.0
2023-08-10 11:06:56.737145,-23.0
2023-08-10 11:06:56.744835,-11.0
2023-08-10 11:06:56.752525,-14.0
2023-08-10 11:06:56.760214,-26.0
2023-08-10 11:06:56.767904,-28.0
2023-08-10 11:06:56.775594,-40.0
2023-08-10 11:06:56.783284,-50.0
2023-08-10 11:06:56.790974,-45.0
2023-08-10 11:06:56.798664,-38.0
2023-08-10 11:06:56.806354,-38.0
2023-08-10 11:06:56.814044,-38.0
2023-08-10 11:06:56.821734,-45.0
2023-08-10 11:06:56.829424,-47.0
2023-08-10 11:06:56.837114,-40.0
2023-08-10 11:06:56.844804,-45.0
2023-08-10 11:06:56.852494,-47.0
2023-08-10 11:06:56.860184,-40.0
2023-08-10 11:06:56.867874,-47.0
2023-08-10 11:06:56.875564,-50.0
2023-08-10 11:06:56.883254,-38.0
2023-08-10 11:06:56.890943,-47.0
2023-08-10 11:06:56.898633,-69.0
2023-08-10 11:06:56.906323,-76.0
2023-08-10 11:06:56.914013,-76.0
2023-08-10 11:06:56.921703,-62.0
2023-08-10 11:06:56.929393,-45.0
2023-08-10 11:06:56.937083,-50.0
2023-08-10 11:06:56.944773,-55.0
2023-08-10 11:06:56.952463,-40.0
2023-08-10 11:06:56.960153,-26.0
2023-08-10 11:06:56.967843,-31.0
2023-08-10 11:06:56.975533,-38.0
2023-08-10 11:06:56.983223,-35.0
2023-08-10 11:06:56.990913,-26.0
2023-08-10 11:06:56.998603,-23.0
2023-08-10 11:06:57.006293,-31.0
2023-08-10 11:06:57.013982,-38.0
2023-08-10 11:06:57.021672,-59.0
2023-08-10 11:06:57.029362,-177.0
2023-08-10 11:06:57.037052,-406.0
2023-08-10 11:06:57.044742,-605.0
2023-08-10 11:06:57.052432,-653.0
2023-08-10 11:06:57.060122,-468.0
2023-08-10 11:06:57.067812,-100.0
2023-08-10 11:06:57.075502,122.0
2023-08-10 11:06:57.083192,57.0
2023-08-10 11:06:57.090882,-28.0
2023-08-10 11:06:57.098572,4.0
2023-08-10 11:06:57.106262,16.0
2023-08-10 11:06:57.113952,-14.0
2023-08-10 11:06:57.121642,-7.0
2023-08-10 11:06:57.129332,-2.0
2023-08-10 11:06:57.137021,-11.0
2023-08-10 11:06:57.144711,-9.0
2023-08-10 11:06:57.152401,-21.0
2023-08-10 11:06:57.160091,-45.0
2023-08-10 11:06:57.167781,-50.0
2023-08-10 11:06:57.175471,-40.0
2023-08-10 11:06:57.183161,-43.0
2023-08-10 11:06:57.190851,-59.0
2023-08-10 11:06:57.198541,-69.0
2023-08-10 11:06:57.206231,-76.0
2023-08-10 11:06:57.213921,-88.0
2023-08-10 11:06:57.221611,-102.0
2023-08-10 11:06:57.229301,-105.0
2023-08-10 11:06:57.236991,-107.0
2023-08-10 11:06:57.244681,-126.0
2023-08-10 11:06:57.252371,-141.0
2023-08-10 11:06:57.260061,-155.0
2023-08-10 11:06:57.267750,-189.0
2023-08-10 11:06:57.275440,-208.0
2023-08-10 11:06:57.283130,-212.0
2023-08-10 11:06:57.290820,-232.0
2023-08-10 11:06:57.298510,-244.0
2023-08-10 11:06:57.306200,-241.0
2023-08-10 11:06:57.313890,-234.0
2023-08-10 11:06:57.321580,-217.0
2023-08-10 11:06:57.329270,-174.0
2023-08-10 11:06:57.336960,-112.0
2023-08-10 11:06:57.344650,-55.0
2023-08-10 11:06:57.352340,-14.0
2023-08-10 11:06:57.360030,11.0
2023-08-10 11:06:57.367720,21.0
2023-08-10 11:06:57.375410,33.0
2023-08-10 11:06:57.383100,52.0
2023-08-10 11:06:57.390789,59.0
2023-08-10 11:06:57.398479,52.0
2023-08-10 11:06:57.406169,47.0
2023-08-10 11:06:57.413859,50.0
2023-08-10 11:06:57.421549,55.0
2023-08-10 11:06:57.429239,55.0
2023-08-10 11:06:57.436929,43.0
2023-08-10 11:06:57.444619,28.0
2023-08-10 11:06:57.452309,33.0
2023-08-10 11:06:57.459999,40.0
2023-08-10 11:06:57.467689,31.0
2023-08-10 11:06:57.475379,19.0
2023-08-10 11:06:57.483069,21.0
2023-08-10 11:06:57.490759,21.0
2023-08-10 11:06:57.498449,9.0
2023-08-10 11:06:57.506139,9.0
2023-08-10 11:06:57.513829,23.0
2023-08-10 11:06:57.521518,21.0
2023-08-10 11:06:57.529208,4.0
2023-08-10 11:06:57.536898,-11.0
2023-08-10 11:06:57.544588,-11.0
2023-08-10 11:06:57.552278,-4.0
2023-08-10 11:06:57.559968,-4.0
2023-08-10 11:06:57.567658,-7.0
2023-08-10 11:06:57.575348,-14.0
2023-08-10 11:06:57.583038,-16.0
2023-08-10 11:06:57.590728,-23.0
2023-08-10 11:06:57.598418,-35.0
2023-08-10 11:06:57.606108,-31.0
2023-08-10 11:06:57.613798,-19.0
2023-08-10 11:06:57.621488,-23.0
2023-08-10 11:06:57.629178,-35.0
2023-08-10 11:06:57.636868,-43.0
2023-08-10 11:06:57.644557,-40.0
2023-08-10 11:06:57.652247,-40.0
2023-08-10 11:06:57.659937,-47.0
2023-08-10 11:06:57.667627,-50.0
2023-08-10 11:06:57.675317,-38.0
2023-08-10 11:06:57.683007,-40.0
2023-08-10 11:06:57.690697,-47.0
2023-08-10 11:06:57.698387,-35.0
2023-08-10 11:06:57.706077,-26.0
2023-08-10 11:06:57.713767,-47.0
2023-08-10 11:06:57.721457,-55.0
2023-08-10 11:06:57.729147,-43.0
2023-08-10 11:06:57.736837,-43.0
2023-08-10 11:06:57.744527,-50.0
2023-08-10 11:06:57.752217,-45.0
2023-08-10 11:06:57.759907,-38.0
2023-08-10 11:06:57.767597,-38.0
2023-08-10 11:06:57.775286,-47.0
2023-08-10 11:06:57.782976,-62.0
2023-08-10 11:06:57.790666,-78.0
2023-08-10 11:06:57.798356,-86.0
2023-08-10 11:06:57.806046,-74.0
2023-08-10 11:06:57.813736,-52.0
2023-08-10 11:06:57.821426,-43.0
2023-08-10 11:06:57.829116,-47.0
2023-08-10 11:06:57.836806,-52.0
2023-08-10 11:06:57.844496,-43.0
2023-08-10 11:06:57.852186,-40.0
2023-08-10 11:06:57.859876,-57.0
2023-08-10 11:06:57.867566,-52.0
2023-08-10 11:06:57.875256,-35.0
2023-08-10 11:06:57.882946,-31.0
2023-08-10 11:06:57.890636,-57.0
2023-08-10 11:06:57.898325,-184.0
2023-08-10 11:06:57.906015,-404.0
2023-08-10 11:06:57.913705,-595.0
2023-08-10 11:06:57.921395,-672.0
2023-08-10 11:06:57.929085,-516.0
2023-08-10 11:06:57.936775,-133.0
2023-08-10 11:06:57.944465,110.0
2023-08-10 11:06:57.952155,40.0
2023-08-10 11:06:57.959845,-50.0
2023-08-10 11:06:57.967535,-9.0
2023-08-10 11:06:57.975225,2.0
2023-08-10 11:06:57.982915,-33.0
2023-08-10 11:06:57.990605,-23.0
2023-08-10 11:06:57.998295,-14.0
2023-08-10 11:06:58.005985,-31.0
2023-08-10 11:06:58.013675,-33.0
2023-08-10 11:06:58.021365,-35.0
2023-08-10 11:06:58.029054,-38.0
2023-08-10 11:06:58.036744,-35.0
2023-08-10 11:06:58.044434,-50.0
2023-08-10 11:06:58.052124,-66.0
2023-08-10 11:06:58.059814,-64.0
2023-08-10 11:06:58.067504,-71.0
2023-08-10 11:06:58.075194,-95.0
2023-08-10 11:06:58.082884,-102.0
2023-08-10 11:06:58.090574,-93.0
2023-08-10 11:06:58.098264,-98.0
2023-08-10 11:06:58.105954,-117.0
2023-08-10 11:06:58.113644,-141.0
2023-08-10 11:06:58.121334,-157.0
2023-08-10 11:06:58.129024,-169.0
2023-08-10 11:06:58.136714,-193.0
2023-08-10 11:06:58.144404,-222.0
2023-08-10 11:06:58.152093,-229.0
2023-08-10 11:06:58.159783,-232.0
2023-08-10 11:06:58.167473,-258.0
2023-08-10 11:06:58.175163,-272.0
2023-08-10 11:06:58.182853,-248.0
2023-08-10 11:06:58.190543,-208.0
2023-08-10 11:06:58.198233,-165.0
2023-08-10 11:06:58.205923,-112.0
2023-08-10 11:06:58.213613,-55.0
2023-08-10 11:06:58.221303,-11.0
2023-08-10 11:06:58.228993,14.0
2023-08-10 11:06:58.236683,35.0
2023-08-10 11:06:58.244373,47.0
2023-08-10 11:06:58.252063,50.0
2023-08-10 11:06:58.259753,55.0
2023-08-10 11:06:58.267443,62.0
2023-08-10 11:06:58.275132,57.0
2023-08-10 11:06:58.282822,55.0
2023-08-10 11:06:58.290512,59.0
2023-08-10 11:06:58.298202,57.0
2023-08-10 11:06:58.305892,35.0
2023-08-10 11:06:58.313582,23.0
2023-08-10 11:06:58.321272,35.0
2023-08-10 11:06:58.328962,38.0
2023-08-10 11:06:58.336652,26.0
2023-08-10 11:06:58.344342,19.0
2023-08-10 11:06:58.352032,7.0
2023-08-10 11:06:58.359722,-2.0
2023-08-10 11:06:58.367412,9.0
2023-08-10 11:06:58.375102,21.0
2023-08-10 11:06:58.382792,9.0
2023-08-10 11:06:58.390482,-7.0
2023-08-10 11:06:58.398172,-11.0
2023-08-10 11:06:58.405861,-9.0
2023-08-10 11:06:58.413551,-2.0
2023-08-10 11:06:58.421241,-7.0
2023-08-10 11:06:58.428931,-19.0
2023-08-10 11:06:58.436621,-16.0
2023-08-10 11:06:58.444311,-4.0
2023-08-10 11:06:58.452001,-9.0
2023-08-10 11:06:58.459691,-21.0
2023-08-10 11:06:58.467381,-26.0
2023-08-10 11:06:58.475071,-28.0
2023-08-10 11:06:58.482761,-23.0
2023-08-10 11:06:58.490451,-21.0
2023-08-10 11:06:58.498141,-31.0
2023-08-10 11:06:58.505831,-40.0
2023-08-10 11:06:58.513521,-31.0
2023-08-10 11:06:58.521211,-21.0
2023-08-10 11:06:58.528900,-35.0
2023-08-10 11:06:58.536590,-45.0
2023-08-10 11:06:58.544280,-31.0
2023-08-10 11:06:58.551970,-31.0
2023-08-10 11:06:58.559660,-43.0
2023-08-10 11:06:58.567350,-40.0
2023-08-10 11:06:58.575040,-38.0
2023-08-10 11:06:58.582730,-40.0
2023-08-10 11:06:58.590420,-28.0
2023-08-10 11:06:58.598110,-23.0
2023-08-10 11:06:58.605800,-33.0
2023-08-10 11:06:58.613490,-43.0
2023-08-10 11:06:58.621180,-45.0
2023-08-10 11:06:58.628870,-38.0
2023-08-10 11:06:58.636560,-38.0
2023-08-10 11:06:58.644250,-47.0
2023-08-10 11:06:58.651940,-40.0
2023-08-10 11:06:58.659629,-31.0
2023-08-10 11:06:58.667319,-33.0
2023-08-10 11:06:58.675009,-26.0
2023-08-10 11:06:58.682699,-23.0
2023-08-10 11:06:58.690389,-43.0
2023-08-10 11:06:58.698079,-52.0
2023-08-10 11:06:58.705769,-40.0
2023-08-10 11:06:58.713459,-47.0
2023-08-10 11:06:58.721149,-74.0
2023-08-10 11:06:58.728839,-71.0
2023-08-10 11:06:58.736529,-50.0
2023-08-10 11:06:58.744219,-45.0
2023-08-10 11:06:58.751909,-38.0
2023-08-10 11:06:58.759599,-16.0
2023-08-10 11:06:58.767289,-21.0
2023-08-10 11:06:58.774979,-38.0
2023-08-10 11:06:58.782668,-28.0
2023-08-10 11:06:58.790358,-19.0
2023-08-10 11:06:58.798048,-38.0
2023-08-10 11:06:58.805738,-55.0
2023-08-10 11:06:58.813428,-43.0
2023-08-10 11:06:58.821118,-45.0
2023-08-10 11:06:58.828808,-162.0
2023-08-10 11:06:58.836498,-392.0
2023-08-10 11:06:58.844188,-588.0
2023-08-10 11:06:58.851878,-662.0
2023-08-10 11:06:58.859568,-497.0
2023-08-10 11:06:58.867258,-114.0
2023-08-10 11:06:58.874948,126.0
2023-08-10 11:06:58.882638,59.0
2023-08-10 11:06:58.890328,-33.0
2023-08-10 11:06:58.898018,0.0
2023-08-10 11:06:58.905708,16.0
2023-08-10 11:06:58.913397,-11.0
2023-08-10 11:06:58.921087,0.0
2023-08-10 11:06:58.928777,11.0
2023-08-10 11:06:58.936467,-7.0
2023-08-10 11:06:58.944157,-16.0
2023-08-10 11:06:58.951847,-14.0
2023-08-10 11:06:58.959537,-21.0
2023-08-10 11:06:58.967227,-31.0
2023-08-10 11:06:58.974917,-31.0
2023-08-10 11:06:58.982607,-40.0
2023-08-10 11:06:58.990297,-55.0
2023-08-10 11:06:58.997987,-57.0
2023-08-10 11:06:59.005677,-62.0
2023-08-10 11:06:59.013367,-71.0
2023-08-10 11:06:59.021057,-86.0
2023-08-10 11:06:59.028747,-114.0
2023-08-10 11:06:59.036436,-133.0
2023-08-10 11:06:59.044126,-141.0
2023-08-10 11:06:59.051816,-150.0
2023-08-10 11:06:59.059506,-169.0
2023-08-10 11:06:59.067196,-191.0
2023-08-10 11:06:59.074886,-212.0
2023-08-10 11:06:59.082576,-229.0
2023-08-10 11:06:59.090266,-236.0
2023-08-10 11:06:59.097956,-251.0
2023-08-10 11:06:59.105646,-263.0
2023-08-10 11:06:59.113336,-258.0
2023-08-10 11:06:59.121026,-239.0
2023-08-10 11:06:59.128716,-200.0
2023-08-10 11:06:59.136406,-141.0
2023-08-10 11:06:59.144096,-78.0
2023-08-10 11:06:59.151786,-45.0
2023-08-10 11:06:59.159476,-28.0
2023-08-10 11:06:59.167165,0.0
2023-08-10 11:06:59.174855,23.0
2023-08-10 11:06:59.182545,21.0
2023-08-10 11:06:59.190235,21.0
2023-08-10 11:06:59.197925,26.0
2023-08-10 11:06:59.205615,19.0
2023-08-10 11:06:59.213305,14.0
2023-08-10 11:06:59.220995,19.0
2023-08-10 11:06:59.228685,19.0
2023-08-10 11:06:59.236375,9.0
2023-08-10 11:06:59.244065,7.0
2023-08-10 11:06:59.251755,4.0
2023-08-10 11:06:59.259445,-2.0
2023-08-10 11:06:59.267135,-7.0
2023-08-10 11:06:59.274825,-4.0
2023-08-10 11:06:59.282515,-2.0
2023-08-10 11:06:59.290204,-9.0
2023-08-10 11:06:59.297894,-11.0
2023-08-10 11:06:59.305584,-2.0
2023-08-10 11:06:59.313274,-2.0
2023-08-10 11:06:59.320964,-9.0
2023-08-10 11:06:59.328654,-9.0
2023-08-10 11:06:59.336344,-11.0
2023-08-10 11:06:59.344034,-26.0
2023-08-10 11:06:59.351724,-28.0
2023-08-10 11:06:59.359414,-16.0
2023-08-10 11:06:59.367104,-11.0
2023-08-10 11:06:59.374794,-21.0
2023-08-10 11:06:59.382484,-23.0
2023-08-10 11:06:59.390174,-21.0
2023-08-10 11:06:59.397864,-21.0
2023-08-10 11:06:59.405554,-21.0
2023-08-10 11:06:59.413244,-19.0
2023-08-10 11:06:59.420933,-19.0
2023-08-10 11:06:59.428623,-28.0
2023-08-10 11:06:59.436313,-31.0
2023-08-10 11:06:59.444003,-26.0
2023-08-10 11:06:59.451693,-21.0
2023-08-10 11:06:59.459383,-23.0
2023-08-10 11:06:59.467073,-28.0
2023-08-10 11:06:59.474763,-28.0
2023-08-10 11:06:59.482453,-28.0
2023-08-10 11:06:59.490143,-31.0
2023-08-10 11:06:59.497833,-33.0
2023-08-10 11:06:59.505523,-33.0
2023-08-10 11:06:59.513213,-33.0
2023-08-10 11:06:59.520903,-33.0
2023-08-10 11:06:59.528593,-38.0
2023-08-10 11:06:59.536283,-40.0
2023-08-10 11:06:59.543972,-33.0
2023-08-10 11:06:59.551662,-31.0
2023-08-10 11:06:59.559352,-35.0
2023-08-10 11:06:59.567042,-47.0
2023-08-10 11:06:59.574732,-52.0
2023-08-10 11:06:59.582422,-52.0
2023-08-10 11:06:59.590112,-64.0
2023-08-10 11:06:59.597802,-66.0
2023-08-10 11:06:59.605492,-55.0
2023-08-10 11:06:59.613182,-64.0
2023-08-10 11:06:59.620872,-86.0
2023-08-10 11:06:59.628562,-81.0
2023-08-10 11:06:59.636252,-64.0
2023-08-10 11:06:59.643942,-57.0
2023-08-10 11:06:59.651632,-52.0
2023-08-10 11:06:59.659322,-47.0
2023-08-10 11:06:59.667011,-40.0
2023-08-10 11:06:59.674701,-45.0
2023-08-10 11:06:59.682391,-55.0
2023-08-10 11:06:59.690081,-52.0
2023-08-10 11:06:59.697771,-50.0
2023-08-10 11:06:59.705461,-52.0
2023-08-10 11:06:59.713151,-74.0
2023-08-10 11:06:59.720841,-208.0
2023-08-10 11:06:59.728531,-445.0
2023-08-10 11:06:59.736221,-634.0
2023-08-10 11:06:59.743911,-679.0
2023-08-10 11:06:59.751601,-485.0
2023-08-10 11:06:59.759291,-98.0
2023-08-10 11:06:59.766981,126.0
2023-08-10 11:06:59.774671,52.0
2023-08-10 11:06:59.782361,-43.0
2023-08-10 11:06:59.790051,-14.0
2023-08-10 11:06:59.797740,7.0
2023-08-10 11:06:59.805430,-11.0
2023-08-10 11:06:59.813120,-7.0
2023-08-10 11:06:59.820810,0.0
2023-08-10 11:06:59.828500,-11.0
2023-08-10 11:06:59.836190,-19.0
2023-08-10 11:06:59.843880,-28.0
2023-08-10 11:06:59.851570,-38.0
2023-08-10 11:06:59.859260,-40.0
2023-08-10 11:06:59.866950,-40.0
2023-08-10 11:06:59.874640,-47.0
2023-08-10 11:06:59.882330,-62.0
2023-08-10 11:06:59.890020,-69.0
2023-08-10 11:06:59.897710,-76.0
2023-08-10 11:06:59.905400,-83.0
2023-08-10 11:06:59.913090,-88.0
2023-08-10 11:06:59.920779,-100.0
2023-08-10 11:06:59.928469,-117.0
2023-08-10 11:06:59.936159,-124.0
2023-08-10 11:06:59.943849,-138.0
2023-08-10 11:06:59.951539,-169.0
2023-08-10 11:06:59.959229,-189.0
2023-08-10 11:06:59.966919,-196.0
2023-08-10 11:06:59.974609,-210.0
2023-08-10 11:06:59.982299,-229.0
2023-08-10 11:06:59.989989,-251.0
2023-08-10 11:06:59.997679,-265.0
2023-08-10 11:07:00.005369,-251.0
2023-08-10 11:07:00.013059,-222.0
2023-08-10 11:07:00.020749,-174.0
2023-08-10 11:07:00.028439,-112.0
2023-08-10 11:07:00.036129,-62.0
2023-08-10 11:07:00.043819,-26.0
2023-08-10 11:07:00.051508,2.0
2023-08-10 11:07:00.059198,26.0
2023-08-10 11:07:00.066888,43.0
2023-08-10 11:07:00.074578,47.0
2023-08-10 11:07:00.082268,50.0
2023-08-10 11:07:00.089958,52.0
2023-08-10 11:07:00.097648,43.0
2023-08-10 11:07:00.105338,33.0
2023-08-10 11:07:00.113028,40.0
2023-08-10 11:07:00.120718,43.0
2023-08-10 11:07:00.128408,33.0
2023-08-10 11:07:00.136098,26.0
2023-08-10 11:07:00.143788,21.0
2023-08-10 11:07:00.151478,11.0
2023-08-10 11:07:00.159168,0.0
2023-08-10 11:07:00.166858,-2.0
2023-08-10 11:07:00.174547,-2.0
2023-08-10 11:07:00.182237,-7.0
2023-08-10 11:07:00.189927,-7.0
2023-08-10 11:07:00.197617,-9.0
2023-08-10 11:07:00.205307,-19.0
2023-08-10 11:07:00.212997,-19.0
2023-08-10 11:07:00.220687,-4.0
2023-08-10 11:07:00.228377,-4.0
2023-08-10 11:07:00.236067,-21.0
2023-08-10 11:07:00.243757,-28.0
2023-08-10 11:07:00.251447,-26.0
2023-08-10 11:07:00.259137,-26.0
2023-08-10 11:07:00.266827,-28.0
2023-08-10 11:07:00.274517,-19.0
2023-08-10 11:07:00.282207,-19.0
2023-08-10 11:07:00.289897,-28.0
2023-08-10 11:07:00.297587,-31.0
2023-08-10 11:07:00.305276,-23.0
2023-08-10 11:07:00.312966,-19.0
2023-08-10 11:07:00.320656,-19.0
2023-08-10 11:07:00.328346,-28.0
2023-08-10 11:07:00.336036,-28.0
2023-08-10 11:07:00.343726,-21.0
2023-08-10 11:07:00.351416,-26.0
2023-08-10 11:07:00.359106,-33.0
2023-08-10 11:07:00.366796,-31.0
2023-08-10 11:07:00.374486,-26.0
2023-08-10 11:07:00.382176,-28.0
2023-08-10 11:07:00.389866,-31.0
2023-08-10 11:07:00.397556,-33.0
2023-08-10 11:07:00.405246,-31.0
2023-08-10 11:07:00.412936,-19.0
2023-08-10 11:07:00.420626,-11.0
2023-08-10 11:07:00.428315,-26.0
2023-08-10 11:07:00.436005,-45.0
2023-08-10 11:07:00.443695,-57.0
2023-08-10 11:07:00.451385,-66.0
2023-08-10 11:07:00.459075,-66.0
2023-08-10 11:07:00.466765,-47.0
2023-08-10 11:07:00.474455,-43.0
2023-08-10 11:07:00.482145,-50.0
2023-08-10 11:07:00.489835,-50.0
2023-08-10 11:07:00.497525,-45.0
2023-08-10 11:07:00.505215,-33.0
2023-08-10 11:07:00.512905,-21.0
2023-08-10 11:07:00.520595,-21.0
2023-08-10 11:07:00.528285,-19.0
2023-08-10 11:07:00.535975,-19.0
2023-08-10 11:07:00.543665,-23.0
2023-08-10 11:07:00.551355,-23.0
2023-08-10 11:07:00.559044,-23.0
2023-08-10 11:07:00.566734,-31.0
2023-08-10 11:07:00.574424,-126.0
2023-08-10 11:07:00.582114,-351.0
2023-08-10 11:07:00.589804,-574.0
2023-08-10 11:07:00.597494,-679.0
2023-08-10 11:07:00.605184,-562.0
2023-08-10 11:07:00.612874,-198.0
2023-08-10 11:07:00.620564,107.0
2023-08-10 11:07:00.628254,98.0
2023-08-10 11:07:00.635944,-19.0
2023-08-10 11:07:00.643634,-14.0
2023-08-10 11:07:00.651324,23.0
2023-08-10 11:07:00.659014,4.0
2023-08-10 11:07:00.666704,-4.0
2023-08-10 11:07:00.674394,4.0
2023-08-10 11:07:00.682083,0.0
2023-08-10 11:07:00.689773,-7.0
2023-08-10 11:07:00.697463,-11.0
2023-08-10 11:07:00.705153,-26.0
2023-08-10 11:07:00.712843,-35.0
2023-08-10 11:07:00.720533,-40.0
2023-08-10 11:07:00.728223,-50.0
2023-08-10 11:07:00.735913,-64.0
2023-08-10 11:07:00.743603,-78.0
2023-08-10 11:07:00.751293,-88.0
2023-08-10 11:07:00.758983,-90.0
2023-08-10 11:07:00.766673,-100.0
2023-08-10 11:07:00.774363,-117.0
2023-08-10 11:07:00.782053,-131.0
2023-08-10 11:07:00.789743,-141.0
2023-08-10 11:07:00.797433,-153.0
2023-08-10 11:07:00.805122,-165.0
2023-08-10 11:07:00.812812,-179.0
2023-08-10 11:07:00.820502,-203.0
2023-08-10 11:07:00.828192,-227.0
2023-08-10 11:07:00.835882,-239.0
2023-08-10 11:07:00.843572,-248.0
2023-08-10 11:07:00.851262,-258.0
2023-08-10 11:07:00.858952,-258.0
2023-08-10 11:07:00.866642,-229.0
2023-08-10 11:07:00.874332,-181.0
2023-08-10 11:07:00.882022,-131.0
2023-08-10 11:07:00.889712,-74.0
2023-08-10 11:07:00.897402,-21.0
2023-08-10 11:07:00.905092,9.0
2023-08-10 11:07:00.912782,26.0
2023-08-10 11:07:00.920472,35.0
2023-08-10 11:07:00.928162,40.0
2023-08-10 11:07:00.935851,43.0
2023-08-10 11:07:00.943541,47.0
2023-08-10 11:07:00.951231,43.0
2023-08-10 11:07:00.958921,35.0
2023-08-10 11:07:00.966611,33.0
2023-08-10 11:07:00.974301,28.0
2023-08-10 11:07:00.981991,28.0
2023-08-10 11:07:00.989681,28.0
2023-08-10 11:07:00.997371,16.0
2023-08-10 11:07:01.005061,7.0
2023-08-10 11:07:01.012751,7.0
2023-08-10 11:07:01.020441,9.0
2023-08-10 11:07:01.028131,4.0
2023-08-10 11:07:01.035821,4.0
2023-08-10 11:07:01.043511,0.0
2023-08-10 11:07:01.051201,-4.0
2023-08-10 11:07:01.058890,-4.0
2023-08-10 11:07:01.066580,-4.0
2023-08-10 11:07:01.074270,-4.0
2023-08-10 11:07:01.081960,-4.0
2023-08-10 11:07:01.089650,-4.0
2023-08-10 11:07:01.097340,-7.0
2023-08-10 11:07:01.105030,-7.0
2023-08-10 11:07:01.112720,-9.0
2023-08-10 11:07:01.120410,-11.0
2023-08-10 11:07:01.128100,-11.0
2023-08-10 11:07:01.135790,-11.0
2023-08-10 11:07:01.143480,-9.0
2023-08-10 11:07:01.151170,-14.0
2023-08-10 11:07:01.158860,-23.0
2023-08-10 11:07:01.166550,-21.0
2023-08-10 11:07:01.174240,-11.0
2023-08-10 11:07:01.181930,-19.0
2023-08-10 11:07:01.189619,-28.0
2023-08-10 11:07:01.197309,-21.0
2023-08-10 11:07:01.204999,-14.0
2023-08-10 11:07:01.212689,-19.0
2023-08-10 11:07:01.220379,-31.0
2023-08-10 11:07:01.228069,-35.0
2023-08-10 11:07:01.235759,-33.0
2023-08-10 11:07:01.243449,-31.0
2023-08-10 11:07:01.251139,-28.0
2023-08-10 11:07:01.258829,-31.0
2023-08-10 11:07:01.266519,-35.0
2023-08-10 11:07:01.274209,-28.0
2023-08-10 11:07:01.281899,-21.0
2023-08-10 11:07:01.289589,-26.0
2023-08-10 11:07:01.297279,-35.0
2023-08-10 11:07:01.304969,-33.0
2023-08-10 11:07:01.312658,-31.0
2023-08-10 11:07:01.320348,-35.0
2023-08-10 11:07:01.328038,-45.0
2023-08-10 11:07:01.335728,-47.0
2023-08-10 11:07:01.343418,-43.0
2023-08-10 11:07:01.351108,-45.0
2023-08-10 11:07:01.358798,-47.0
2023-08-10 11:07:01.366488,-62.0
2023-08-10 11:07:01.374178,-88.0
2023-08-10 11:07:01.381868,-90.0
2023-08-10 11:07:01.389558,-69.0
2023-08-10 11:07:01.397248,-64.0
2023-08-10 11:07:01.404938,-69.0
2023-08-10 11:07:01.412628,-64.0
2023-08-10 11:07:01.420318,-55.0
2023-08-10 11:07:01.428008,-47.0
2023-08-10 11:07:01.435698,-38.0
2023-08-10 11:07:01.443387,-28.0
2023-08-10 11:07:01.451077,-33.0
2023-08-10 11:07:01.458767,-38.0
2023-08-10 11:07:01.466457,-40.0
2023-08-10 11:07:01.474147,-40.0
2023-08-10 11:07:01.481837,-38.0
2023-08-10 11:07:01.489527,-47.0
2023-08-10 11:07:01.497217,-126.0
2023-08-10 11:07:01.504907,-327.0
2023-08-10 11:07:01.512597,-552.0
2023-08-10 11:07:01.520287,-684.0
2023-08-10 11:07:01.527977,-605.0
2023-08-10 11:07:01.535667,-256.0
2023-08-10 11:07:01.543357,83.0
2023-08-10 11:07:01.551047,98.0
2023-08-10 11:07:01.558737,-33.0
2023-08-10 11:07:01.566426,-16.0
2023-08-10 11:07:01.574116,43.0
2023-08-10 11:07:01.581806,11.0
2023-08-10 11:07:01.589496,-7.0
2023-08-10 11:07:01.597186,9.0
2023-08-10 11:07:01.604876,4.0
2023-08-10 11:07:01.612566,-14.0
2023-08-10 11:07:01.620256,-11.0
2023-08-10 11:07:01.627946,-9.0
2023-08-10 11:07:01.635636,-16.0
2023-08-10 11:07:01.643326,-23.0
2023-08-10 11:07:01.651016,-43.0
2023-08-10 11:07:01.658706,-59.0
2023-08-10 11:07:01.666396,-57.0
2023-08-10 11:07:01.674086,-57.0
2023-08-10 11:07:01.681776,-71.0
2023-08-10 11:07:01.689466,-86.0
2023-08-10 11:07:01.697155,-93.0
2023-08-10 11:07:01.704845,-105.0
2023-08-10 11:07:01.712535,-122.0
2023-08-10 11:07:01.720225,-141.0
2023-08-10 11:07:01.727915,-157.0
2023-08-10 11:07:01.735605,-174.0
2023-08-10 11:07:01.743295,-193.0
2023-08-10 11:07:01.750985,-205.0
2023-08-10 11:07:01.758675,-215.0
2023-08-10 11:07:01.766365,-232.0
2023-08-10 11:07:01.774055,-251.0
2023-08-10 11:07:01.781745,-253.0
2023-08-10 11:07:01.789435,-236.0
2023-08-10 11:07:01.797125,-200.0
2023-08-10 11:07:01.804815,-153.0
2023-08-10 11:07:01.812505,-95.0
2023-08-10 11:07:01.820194,-40.0
2023-08-10 11:07:01.827884,-2.0
2023-08-10 11:07:01.835574,16.0
2023-08-10 11:07:01.843264,38.0
2023-08-10 11:07:01.850954,59.0
2023-08-10 11:07:01.858644,57.0
2023-08-10 11:07:01.866334,38.0
2023-08-10 11:07:01.874024,38.0
2023-08-10 11:07:01.881714,43.0
2023-08-10 11:07:01.889404,35.0
2023-08-10 11:07:01.897094,28.0
2023-08-10 11:07:01.904784,21.0
2023-08-10 11:07:01.912474,19.0
2023-08-10 11:07:01.920164,19.0
2023-08-10 11:07:01.927854,14.0
2023-08-10 11:07:01.935544,11.0
2023-08-10 11:07:01.943234,11.0
2023-08-10 11:07:01.950923,9.0
2023-08-10 11:07:01.958613,2.0
2023-08-10 11:07:01.966303,0.0
2023-08-10 11:07:01.973993,2.0
2023-08-10 11:07:01.981683,0.0
2023-08-10 11:07:01.989373,-4.0
2023-08-10 11:07:01.997063,-2.0
2023-08-10 11:07:02.004753,-4.0
2023-08-10 11:07:02.012443,-9.0
2023-08-10 11:07:02.020133,-7.0
2023-08-10 11:07:02.027823,-2.0
2023-08-10 11:07:02.035513,-4.0
2023-08-10 11:07:02.043203,-4.0
2023-08-10 11:07:02.050893,4.0
2023-08-10 11:07:02.058583,0.0
2023-08-10 11:07:02.066273,-11.0
2023-08-10 11:07:02.073962,-7.0
2023-08-10 11:07:02.081652,-2.0
2023-08-10 11:07:02.089342,-7.0
2023-08-10 11:07:02.097032,-7.0
2023-08-10 11:07:02.104722,-2.0
2023-08-10 11:07:02.112412,-4.0
2023-08-10 11:07:02.120102,-7.0
2023-08-10 11:07:02.127792,0.0
2023-08-10 11:07:02.135482,-2.0
2023-08-10 11:07:02.143172,-14.0
2023-08-10 11:07:02.150862,-19.0
2023-08-10 11:07:02.158552,-16.0
2023-08-10 11:07:02.166242,-14.0
2023-08-10 11:07:02.173932,-14.0
2023-08-10 11:07:02.181622,-16.0
2023-08-10 11:07:02.189312,-16.0
2023-08-10 11:07:02.197001,-19.0
2023-08-10 11:07:02.204691,-21.0
2023-08-10 11:07:02.212381,-23.0
2023-08-10 11:07:02.220071,-21.0
2023-08-10 11:07:02.227761,-16.0
2023-08-10 11:07:02.235451,-16.0
2023-08-10 11:07:02.243141,-26.0
2023-08-10 11:07:02.250831,-28.0
2023-08-10 11:07:02.258521,-23.0
2023-08-10 11:07:02.266211,-26.0
2023-08-10 11:07:02.273901,-28.0
2023-08-10 11:07:02.281591,-23.0
2023-08-10 11:07:02.289281,-19.0
2023-08-10 11:07:02.296971,-23.0
2023-08-10 11:07:02.304661,-26.0
2023-08-10 11:07:02.312351,-23.0
2023-08-10 11:07:02.320041,-31.0
2023-08-10 11:07:02.327730,-50.0
2023-08-10 11:07:02.335420,-59.0
2023-08-10 11:07:02.343110,-52.0
2023-08-10 11:07:02.350800,-45.0
2023-08-10 11:07:02.358490,-45.0
2023-08-10 11:07:02.366180,-43.0
2023-08-10 11:07:02.373870,-43.0
2023-08-10 11:07:02.381560,-33.0
2023-08-10 11:07:02.389250,-16.0
2023-08-10 11:07:02.396940,-7.0
2023-08-10 11:07:02.404630,-11.0
2023-08-10 11:07:02.412320,-14.0
2023-08-10 11:07:02.420010,-19.0
2023-08-10 11:07:02.427700,-21.0
2023-08-10 11:07:02.435390,-14.0
2023-08-10 11:07:02.443080,-14.0
2023-08-10 11:07:02.450769,-50.0
2023-08-10 11:07:02.458459,-174.0
2023-08-10 11:07:02.466149,-389.0
2023-08-10 11:07:02.473839,-590.0
2023-08-10 11:07:02.481529,-662.0
2023-08-10 11:07:02.489219,-485.0
2023-08-10 11:07:02.496909,-98.0
2023-08-10 11:07:02.504599,133.0
2023-08-10 11:07:02.512289,55.0
2023-08-10 11:07:02.519979,-43.0
2023-08-10 11:07:02.527669,0.0
2023-08-10 11:07:02.535359,23.0
2023-08-10 11:07:02.543049,-7.0
2023-08-10 11:07:02.550739,-2.0
2023-08-10 11:07:02.558429,11.0
2023-08-10 11:07:02.566119,-4.0
2023-08-10 11:07:02.573809,-11.0
2023-08-10 11:07:02.581498,-9.0
2023-08-10 11:07:02.589188,-19.0
2023-08-10 11:07:02.596878,-31.0
2023-08-10 11:07:02.604568,-31.0
2023-08-10 11:07:02.612258,-31.0
2023-08-10 11:07:02.619948,-47.0
2023-08-10 11:07:02.627638,-59.0
2023-08-10 11:07:02.635328,-62.0
2023-08-10 11:07:02.643018,-71.0
2023-08-10 11:07:02.650708,-86.0
2023-08-10 11:07:02.658398,-95.0
2023-08-10 11:07:02.666088,-112.0
2023-08-10 11:07:02.673778,-131.0
2023-08-10 11:07:02.681468,-148.0
2023-08-10 11:07:02.689158,-162.0
2023-08-10 11:07:02.696848,-179.0
2023-08-10 11:07:02.704537,-196.0
2023-08-10 11:07:02.712227,-217.0
2023-08-10 11:07:02.719917,-239.0
2023-08-10 11:07:02.727607,-258.0
2023-08-10 11:07:02.735297,-267.0
2023-08-10 11:07:02.742987,-260.0
2023-08-10 11:07:02.750677,-241.0
2023-08-10 11:07:02.758367,-208.0
2023-08-10 11:07:02.766057,-150.0
2023-08-10 11:07:02.773747,-83.0
2023-08-10 11:07:02.781437,-40.0
2023-08-10 11:07:02.789127,-9.0
2023-08-10 11:07:02.796817,14.0
2023-08-10 11:07:02.804507,31.0
2023-08-10 11:07:02.812197,45.0
2023-08-10 11:07:02.819887,47.0
2023-08-10 11:07:02.827577,40.0
2023-08-10 11:07:02.835266,47.0
2023-08-10 11:07:02.842956,52.0
2023-08-10 11:07:02.850646,43.0
2023-08-10 11:07:02.858336,31.0
2023-08-10 11:07:02.866026,23.0
2023-08-10 11:07:02.873716,19.0
2023-08-10 11:07:02.881406,21.0
2023-08-10 11:07:02.889096,23.0
2023-08-10 11:07:02.896786,14.0
2023-08-10 11:07:02.904476,7.0
2023-08-10 11:07:02.912166,9.0
2023-08-10 11:07:02.919856,11.0
2023-08-10 11:07:02.927546,4.0
2023-08-10 11:07:02.935236,4.0
2023-08-10 11:07:02.942926,9.0
2023-08-10 11:07:02.950616,2.0
2023-08-10 11:07:02.958305,-4.0
2023-08-10 11:07:02.965995,-7.0
2023-08-10 11:07:02.973685,-4.0
2023-08-10 11:07:02.981375,-7.0
2023-08-10 11:07:02.989065,-14.0
2023-08-10 11:07:02.996755,-19.0
2023-08-10 11:07:03.004445,-19.0
2023-08-10 11:07:03.012135,-16.0
2023-08-10 11:07:03.019825,-16.0
2023-08-10 11:07:03.027515,-19.0
2023-08-10 11:07:03.035205,-16.0
2023-08-10 11:07:03.042895,-11.0
2023-08-10 11:07:03.050585,-16.0
2023-08-10 11:07:03.058275,-19.0
2023-08-10 11:07:03.065965,-14.0
2023-08-10 11:07:03.073655,-14.0
2023-08-10 11:07:03.081345,-16.0
2023-08-10 11:07:03.089034,-11.0
2023-08-10 11:07:03.096724,-11.0
2023-08-10 11:07:03.104414,-21.0
2023-08-10 11:07:03.112104,-23.0
2023-08-10 11:07:03.119794,-23.0
2023-08-10 11:07:03.127484,-19.0
2023-08-10 11:07:03.135174,-14.0
2023-08-10 11:07:03.142864,-16.0
2023-08-10 11:07:03.150554,-21.0
2023-08-10 11:07:03.158244,-23.0
2023-08-10 11:07:03.165934,-26.0
2023-08-10 11:07:03.173624,-21.0
2023-08-10 11:07:03.181314,-16.0
2023-08-10 11:07:03.189004,-23.0
2023-08-10 11:07:03.196694,-28.0
2023-08-10 11:07:03.204384,-28.0
2023-08-10 11:07:03.212073,-26.0
2023-08-10 11:07:03.219763,-28.0
2023-08-10 11:07:03.227453,-31.0
2023-08-10 11:07:03.235143,-31.0
2023-08-10 11:07:03.242833,-23.0
2023-08-10 11:07:03.250523,-21.0
2023-08-10 11:07:03.258213,-31.0
2023-08-10 11:07:03.265903,-43.0
2023-08-10 11:07:03.273593,-45.0
2023-08-10 11:07:03.281283,-50.0
2023-08-10 11:07:03.288973,-64.0
2023-08-10 11:07:03.296663,-66.0
2023-08-10 11:07:03.304353,-47.0
2023-08-10 11:07:03.312043,-50.0
2023-08-10 11:07:03.319733,-62.0
2023-08-10 11:07:03.327423,-52.0
2023-08-10 11:07:03.335112,-35.0
2023-08-10 11:07:03.342802,-28.0
2023-08-10 11:07:03.350492,-26.0
2023-08-10 11:07:03.358182,-21.0
2023-08-10 11:07:03.365872,-23.0
2023-08-10 11:07:03.373562,-38.0
2023-08-10 11:07:03.381252,-50.0
2023-08-10 11:07:03.388942,-47.0
2023-08-10 11:07:03.396632,-43.0
2023-08-10 11:07:03.404322,-52.0
2023-08-10 11:07:03.412012,-148.0
2023-08-10 11:07:03.419702,-368.0
2023-08-10 11:07:03.427392,-593.0
2023-08-10 11:07:03.435082,-696.0
2023-08-10 11:07:03.442772,-562.0
2023-08-10 11:07:03.450462,-189.0
2023-08-10 11:07:03.458152,105.0
2023-08-10 11:07:03.465841,93.0
2023-08-10 11:07:03.473531,-26.0
2023-08-10 11:07:03.481221,-26.0
2023-08-10 11:07:03.488911,16.0
2023-08-10 11:07:03.496601,4.0
2023-08-10 11:07:03.504291,-11.0
2023-08-10 11:07:03.511981,-11.0
2023-08-10 11:07:03.519671,-14.0
2023-08-10 11:07:03.527361,-14.0
2023-08-10 11:07:03.535051,-11.0
2023-08-10 11:07:03.542741,-23.0
2023-08-10 11:07:03.550431,-35.0
2023-08-10 11:07:03.558121,-33.0
2023-08-10 11:07:03.565811,-45.0
2023-08-10 11:07:03.573501,-69.0
2023-08-10 11:07:03.581191,-81.0
2023-08-10 11:07:03.588880,-86.0
2023-08-10 11:07:03.596570,-98.0
2023-08-10 11:07:03.604260,-105.0
2023-08-10 11:07:03.611950,-117.0
2023-08-10 11:07:03.619640,-133.0
2023-08-10 11:07:03.627330,-148.0
2023-08-10 11:07:03.635020,-160.0
2023-08-10 11:07:03.642710,-179.0
2023-08-10 11:07:03.650400,-198.0
2023-08-10 11:07:03.658090,-210.0
2023-08-10 11:07:03.665780,-224.0
2023-08-10 11:07:03.673470,-248.0
2023-08-10 11:07:03.681160,-263.0
2023-08-10 11:07:03.688850,-263.0
2023-08-10 11:07:03.696540,-267.0
2023-08-10 11:07:03.704230,-265.0
2023-08-10 11:07:03.711920,-227.0
2023-08-10 11:07:03.719609,-160.0
2023-08-10 11:07:03.727299,-102.0
2023-08-10 11:07:03.734989,-55.0
2023-08-10 11:07:03.742679,-11.0
2023-08-10 11:07:03.750369,14.0
2023-08-10 11:07:03.758059,28.0
2023-08-10 11:07:03.765749,47.0
2023-08-10 11:07:03.773439,52.0
2023-08-10 11:07:03.781129,47.0
2023-08-10 11:07:03.788819,52.0
2023-08-10 11:07:03.796509,50.0
2023-08-10 11:07:03.804199,43.0
2023-08-10 11:07:03.811889,47.0
2023-08-10 11:07:03.819579,43.0
2023-08-10 11:07:03.827269,28.0
2023-08-10 11:07:03.834959,35.0
2023-08-10 11:07:03.842648,40.0
2023-08-10 11:07:03.850338,26.0
2023-08-10 11:07:03.858028,23.0
2023-08-10 11:07:03.865718,31.0
2023-08-10 11:07:03.873408,28.0
2023-08-10 11:07:03.881098,19.0
2023-08-10 11:07:03.888788,14.0
2023-08-10 11:07:03.896478,9.0
2023-08-10 11:07:03.904168,4.0
2023-08-10 11:07:03.911858,9.0
2023-08-10 11:07:03.919548,9.0
2023-08-10 11:07:03.927238,-2.0
2023-08-10 11:07:03.934928,-4.0
2023-08-10 11:07:03.942618,4.0
2023-08-10 11:07:03.950308,7.0
2023-08-10 11:07:03.957998,2.0
2023-08-10 11:07:03.965688,4.0
2023-08-10 11:07:03.973377,2.0
2023-08-10 11:07:03.981067,-4.0
2023-08-10 11:07:03.988757,-7.0
2023-08-10 11:07:03.996447,-4.0
2023-08-10 11:07:04.004137,-2.0
2023-08-10 11:07:04.011827,0.0
2023-08-10 11:07:04.019517,0.0
2023-08-10 11:07:04.027207,-4.0
2023-08-10 11:07:04.034897,-2.0
2023-08-10 11:07:04.042587,0.0
2023-08-10 11:07:04.050277,-4.0
2023-08-10 11:07:04.057967,-7.0
2023-08-10 11:07:04.065657,-7.0
2023-08-10 11:07:04.073347,-7.0
2023-08-10 11:07:04.081037,-9.0
2023-08-10 11:07:04.088727,-16.0
2023-08-10 11:07:04.096416,-19.0
2023-08-10 11:07:04.104106,-11.0
2023-08-10 11:07:04.111796,-14.0
2023-08-10 11:07:04.119486,-26.0
2023-08-10 11:07:04.127176,-26.0
2023-08-10 11:07:04.134866,-21.0
2023-08-10 11:07:04.142556,-19.0
2023-08-10 11:07:04.150246,-21.0
2023-08-10 11:07:04.157936,-35.0
2023-08-10 11:07:04.165626,-47.0
2023-08-10 11:07:04.173316,-47.0
2023-08-10 11:07:04.181006,-40.0
2023-08-10 11:07:04.188696,-35.0
2023-08-10 11:07:04.196386,-35.0
2023-08-10 11:07:04.204076,-55.0
2023-08-10 11:07:04.211766,-74.0
2023-08-10 11:07:04.219456,-74.0
2023-08-10 11:07:04.227145,-64.0
2023-08-10 11:07:04.234835,-59.0
2023-08-10 11:07:04.242525,-59.0
2023-08-10 11:07:04.250215,-47.0
2023-08-10 11:07:04.257905,-33.0
2023-08-10 11:07:04.265595,-33.0
2023-08-10 11:07:04.273285,-33.0
2023-08-10 11:07:04.280975,-26.0
2023-08-10 11:07:04.288665,-28.0
2023-08-10 11:07:04.296355,-35.0
2023-08-10 11:07:04.304045,-35.0
2023-08-10 11:07:04.311735,-33.0
2023-08-10 11:07:04.319425,-28.0
2023-08-10 11:07:04.327115,-38.0
2023-08-10 11:07:04.334805,-141.0
2023-08-10 11:07:04.342495,-363.0
2023-08-10 11:07:04.350184,-586.0
2023-08-10 11:07:04.357874,-693.0
2023-08-10 11:07:04.365564,-569.0
2023-08-10 11:07:04.373254,-191.0
2023-08-10 11:07:04.380944,110.0
2023-08-10 11:07:04.388634,78.0
2023-08-10 11:07:04.396324,-38.0
2023-08-10 11:07:04.404014,-9.0
2023-08-10 11:07:04.411704,31.0
2023-08-10 11:07:04.419394,-4.0
2023-08-10 11:07:04.427084,-9.0
2023-08-10 11:07:04.434774,2.0
2023-08-10 11:07:04.442464,-14.0
2023-08-10 11:07:04.450154,-21.0
2023-08-10 11:07:04.457844,-19.0
2023-08-10 11:07:04.465534,-31.0
2023-08-10 11:07:04.473223,-45.0
2023-08-10 11:07:04.480913,-50.0
2023-08-10 11:07:04.488603,-55.0
2023-08-10 11:07:04.496293,-62.0
2023-08-10 11:07:04.503983,-71.0
2023-08-10 11:07:04.511673,-81.0
2023-08-10 11:07:04.519363,-93.0
2023-08-10 11:07:04.527053,-102.0
2023-08-10 11:07:04.534743,-112.0
2023-08-10 11:07:04.542433,-119.0
2023-08-10 11:07:04.550123,-136.0
2023-08-10 11:07:04.557813,-157.0
2023-08-10 11:07:04.565503,-169.0
2023-08-10 11:07:04.573193,-189.0
2023-08-10 11:07:04.580883,-210.0
2023-08-10 11:07:04.588573,-222.0
2023-08-10 11:07:04.596263,-234.0
2023-08-10 11:07:04.603952,-251.0
2023-08-10 11:07:04.611642,-253.0
2023-08-10 11:07:04.619332,-253.0
2023-08-10 11:07:04.627022,-244.0
2023-08-10 11:07:04.634712,-205.0
2023-08-10 11:07:04.642402,-145.0
2023-08-10 11:07:04.650092,-90.0
2023-08-10 11:07:04.657782,-45.0
2023-08-10 11:07:04.665472,-4.0
2023-08-10 11:07:04.673162,19.0
2023-08-10 11:07:04.680852,28.0
2023-08-10 11:07:04.688542,43.0
2023-08-10 11:07:04.696232,55.0
2023-08-10 11:07:04.703922,47.0
2023-08-10 11:07:04.711612,45.0
2023-08-10 11:07:04.719302,47.0
2023-08-10 11:07:04.726991,45.0
2023-08-10 11:07:04.734681,43.0
2023-08-10 11:07:04.742371,38.0
2023-08-10 11:07:04.750061,33.0
2023-08-10 11:07:04.757751,38.0
2023-08-10 11:07:04.765441,38.0
2023-08-10 11:07:04.773131,31.0
2023-08-10 11:07:04.780821,26.0
2023-08-10 11:07:04.788511,19.0
2023-08-10 11:07:04.796201,14.0
2023-08-10 11:07:04.803891,21.0
2023-08-10 11:07:04.811581,21.0
2023-08-10 11:07:04.819271,16.0
2023-08-10 11:07:04.826961,19.0
2023-08-10 11:07:04.834651,19.0
2023-08-10 11:07:04.842341,11.0
2023-08-10 11:07:04.850031,9.0
2023-08-10 11:07:04.857720,14.0
2023-08-10 11:07:04.865410,9.0
2023-08-10 11:07:04.873100,0.0
2023-08-10 11:07:04.880790,-4.0
2023-08-10 11:07:04.888480,-9.0
2023-08-10 11:07:04.896170,-7.0
2023-08-10 11:07:04.903860,2.0
2023-08-10 11:07:04.911550,-4.0
2023-08-10 11:07:04.919240,-9.0
2023-08-10 11:07:04.926930,-4.0
2023-08-10 11:07:04.934620,-7.0
2023-08-10 11:07:04.942310,-16.0
2023-08-10 11:07:04.950000,-11.0
2023-08-10 11:07:04.957690,-14.0
2023-08-10 11:07:04.965380,-21.0
2023-08-10 11:07:04.973070,-11.0
2023-08-10 11:07:04.980759,-4.0
2023-08-10 11:07:04.988449,-9.0
2023-08-10 11:07:04.996139,-9.0
2023-08-10 11:07:05.003829,-7.0
2023-08-10 11:07:05.011519,-16.0
2023-08-10 11:07:05.019209,-19.0
2023-08-10 11:07:05.026899,-7.0
2023-08-10 11:07:05.034589,-9.0
2023-08-10 11:07:05.042279,-21.0
2023-08-10 11:07:05.049969,-19.0
2023-08-10 11:07:05.057659,-11.0
2023-08-10 11:07:05.065349,-14.0
2023-08-10 11:07:05.073039,-9.0
2023-08-10 11:07:05.080729,-11.0
2023-08-10 11:07:05.088419,-26.0
2023-08-10 11:07:05.096109,-31.0
2023-08-10 11:07:05.103799,-21.0
2023-08-10 11:07:05.111488,-19.0
2023-08-10 11:07:05.119178,-21.0
2023-08-10 11:07:05.126868,-16.0
2023-08-10 11:07:05.134558,-21.0
2023-08-10 11:07:05.142248,-35.0
2023-08-10 11:07:05.149938,-47.0
2023-08-10 11:07:05.157628,-59.0
2023-08-10 11:07:05.165318,-64.0
2023-08-10 11:07:05.173008,-59.0
2023-08-10 11:07:05.180698,-52.0
2023-08-10 11:07:05.188388,-45.0
2023-08-10 11:07:05.196078,-33.0
2023-08-10 11:07:05.203768,-19.0
2023-08-10 11:07:05.211458,-11.0
2023-08-10 11:07:05.219148,-19.0
2023-08-10 11:07:05.226838,-28.0
2023-08-10 11:07:05.234527,-33.0
2023-08-10 11:07:05.242217,-45.0
2023-08-10 11:07:05.249907,-50.0
2023-08-10 11:07:05.257597,-38.0
2023-08-10 11:07:05.265287,-40.0
2023-08-10 11:07:05.272977,-126.0
2023-08-10 11:07:05.280667,-332.0
2023-08-10 11:07:05.288357,-552.0
2023-08-10 11:07:05.296047,-674.0
2023-08-10 11:07:05.303737,-593.0
2023-08-10 11:07:05.311427,-244.0
2023-08-10 11:07:05.319117,90.0
2023-08-10 11:07:05.326807,100.0
2023-08-10 11:07:05.334497,-33.0
2023-08-10 11:07:05.342187,-21.0
2023-08-10 11:07:05.349877,31.0
2023-08-10 11:07:05.357567,4.0
2023-08-10 11:07:05.365256,-11.0
2023-08-10 11:07:05.372946,0.0
2023-08-10 11:07:05.380636,-4.0
2023-08-10 11:07:05.388326,-23.0
2023-08-10 11:07:05.396016,-38.0
2023-08-10 11:07:05.403706,-40.0
2023-08-10 11:07:05.411396,-52.0
2023-08-10 11:07:05.419086,-66.0
2023-08-10 11:07:05.426776,-76.0
2023-08-10 11:07:05.434466,-78.0
2023-08-10 11:07:05.442156,-81.0
2023-08-10 11:07:05.449846,-90.0
2023-08-10 11:07:05.457536,-102.0
2023-08-10 11:07:05.465226,-110.0
2023-08-10 11:07:05.472916,-122.0
2023-08-10 11:07:05.480606,-133.0
2023-08-10 11:07:05.488295,-145.0
2023-08-10 11:07:05.495985,-160.0
2023-08-10 11:07:05.503675,-177.0
2023-08-10 11:07:05.511365,-191.0
2023-08-10 11:07:05.519055,-205.0
2023-08-10 11:07:05.526745,-222.0
2023-08-10 11:07:05.534435,-234.0
2023-08-10 11:07:05.542125,-253.0
2023-08-10 11:07:05.549815,-275.0
2023-08-10 11:07:05.557505,-267.0
2023-08-10 11:07:05.565195,-241.0
2023-08-10 11:07:05.572885,-215.0
2023-08-10 11:07:05.580575,-162.0
2023-08-10 11:07:05.588265,-90.0
2023-08-10 11:07:05.595955,-47.0
2023-08-10 11:07:05.603645,-19.0
2023-08-10 11:07:05.611335,23.0
2023-08-10 11:07:05.619024,52.0
2023-08-10 11:07:05.626714,50.0
2023-08-10 11:07:05.634404,50.0
2023-08-10 11:07:05.642094,55.0
2023-08-10 11:07:05.649784,45.0
2023-08-10 11:07:05.657474,40.0
2023-08-10 11:07:05.665164,47.0
2023-08-10 11:07:05.672854,47.0
2023-08-10 11:07:05.680544,38.0
2023-08-10 11:07:05.688234,38.0
2023-08-10 11:07:05.695924,35.0
2023-08-10 11:07:05.703614,26.0
2023-08-10 11:07:05.711304,19.0
2023-08-10 11:07:05.718994,26.0
2023-08-10 11:07:05.726684,28.0
2023-08-10 11:07:05.734374,21.0
2023-08-10 11:07:05.742063,19.0
2023-08-10 11:07:05.749753,16.0
2023-08-10 11:07:05.757443,11.0
2023-08-10 11:07:05.765133,9.0
2023-08-10 11:07:05.772823,14.0
2023-08-10 11:07:05.780513,9.0
2023-08-10 11:07:05.788203,-2.0
2023-08-10 11:07:05.795893,-7.0
2023-08-10 11:07:05.803583,-2.0
2023-08-10 11:07:05.811273,-2.0
2023-08-10 11:07:05.818963,-9.0
2023-08-10 11:07:05.826653,-9.0
2023-08-10 11:07:05.834343,-2.0
2023-08-10 11:07:05.842033,-4.0
2023-08-10 11:07:05.849723,-14.0
2023-08-10 11:07:05.857413,-4.0
2023-08-10 11:07:05.865102,0.0
2023-08-10 11:07:05.872792,-7.0
2023-08-10 11:07:05.880482,-11.0
2023-08-10 11:07:05.888172,-14.0
2023-08-10 11:07:05.895862,-26.0
2023-08-10 11:07:05.903552,-31.0
2023-08-10 11:07:05.911242,-26.0
2023-08-10 11:07:05.918932,-23.0
2023-08-10 11:07:05.926622,-23.0
2023-08-10 11:07:05.934312,-23.0
2023-08-10 11:07:05.942002,-28.0
2023-08-10 11:07:05.949692,-26.0
2023-08-10 11:07:05.957382,-23.0
2023-08-10 11:07:05.965072,-28.0
2023-08-10 11:07:05.972762,-31.0
2023-08-10 11:07:05.980452,-26.0
2023-08-10 11:07:05.988142,-28.0
2023-08-10 11:07:05.995831,-33.0
2023-08-10 11:07:06.003521,-31.0
2023-08-10 11:07:06.011211,-26.0
2023-08-10 11:07:06.018901,-33.0
2023-08-10 11:07:06.026591,-38.0
2023-08-10 11:07:06.034281,-31.0
2023-08-10 11:07:06.041971,-28.0
2023-08-10 11:07:06.049661,-33.0
2023-08-10 11:07:06.057351,-31.0
2023-08-10 11:07:06.065041,-33.0
2023-08-10 11:07:06.072731,-35.0
2023-08-10 11:07:06.080421,-33.0
2023-08-10 11:07:06.088111,-47.0
2023-08-10 11:07:06.095801,-64.0
2023-08-10 11:07:06.103491,-69.0
2023-08-10 11:07:06.111181,-66.0
2023-08-10 11:07:06.118870,-59.0
2023-08-10 11:07:06.126560,-52.0
2023-08-10 11:07:06.134250,-52.0
2023-08-10 11:07:06.141940,-47.0
2023-08-10 11:07:06.149630,-40.0
2023-08-10 11:07:06.157320,-31.0
2023-08-10 11:07:06.165010,-23.0
2023-08-10 11:07:06.172700,-35.0
2023-08-10 11:07:06.180390,-43.0
2023-08-10 11:07:06.188080,-43.0
2023-08-10 11:07:06.195770,-52.0
2023-08-10 11:07:06.203460,-50.0
2023-08-10 11:07:06.211150,-52.0
2023-08-10 11:07:06.218840,-157.0
2023-08-10 11:07:06.226530,-385.0
2023-08-10 11:07:06.234220,-595.0
2023-08-10 11:07:06.241910,-684.0
2023-08-10 11:07:06.249599,-550.0
2023-08-10 11:07:06.257289,-186.0
2023-08-10 11:07:06.264979,93.0
2023-08-10 11:07:06.272669,74.0
2023-08-10 11:07:06.280359,-33.0
2023-08-10 11:07:06.288049,-23.0
2023-08-10 11:07:06.295739,9.0
2023-08-10 11:07:06.303429,-11.0
2023-08-10 11:07:06.311119,-28.0
2023-08-10 11:07:06.318809,-26.0
2023-08-10 11:07:06.326499,-33.0
2023-08-10 11:07:06.334189,-40.0
2023-08-10 11:07:06.341879,-43.0
2023-08-10 11:07:06.349569,-52.0
2023-08-10 11:07:06.357259,-64.0
2023-08-10 11:07:06.364949,-81.0
2023-08-10 11:07:06.372638,-93.0
2023-08-10 11:07:06.380328,-95.0
2023-08-10 11:07:06.388018,-95.0
2023-08-10 11:07:06.395708,-110.0
2023-08-10 11:07:06.403398,-131.0
2023-08-10 11:07:06.411088,-141.0
2023-08-10 11:07:06.418778,-141.0
2023-08-10 11:07:06.426468,-155.0
2023-08-10 11:07:06.434158,-177.0
2023-08-10 11:07:06.441848,-186.0
2023-08-10 11:07:06.449538,-196.0
2023-08-10 11:07:06.457228,-215.0
2023-08-10 11:07:06.464918,-239.0
2023-08-10 11:07:06.472608,-253.0
2023-08-10 11:07:06.480298,-263.0
2023-08-10 11:07:06.487988,-272.0
2023-08-10 11:07:06.495678,-284.0
2023-08-10 11:07:06.503367,-294.0
2023-08-10 11:07:06.511057,-277.0
2023-08-10 11:07:06.518747,-229.0
2023-08-10 11:07:06.526437,-169.0
2023-08-10 11:07:06.534127,-114.0
2023-08-10 11:07:06.541817,-62.0
2023-08-10 11:07:06.549507,-14.0
2023-08-10 11:07:06.557197,16.0
2023-08-10 11:07:06.564887,35.0
2023-08-10 11:07:06.572577,47.0
2023-08-10 11:07:06.580267,40.0
2023-08-10 11:07:06.587957,33.0
2023-08-10 11:07:06.595647,45.0
2023-08-10 11:07:06.603337,47.0
2023-08-10 11:07:06.611027,40.0
2023-08-10 11:07:06.618717,45.0
2023-08-10 11:07:06.626406,45.0
2023-08-10 11:07:06.634096,35.0
2023-08-10 11:07:06.641786,35.0
2023-08-10 11:07:06.649476,33.0
2023-08-10 11:07:06.657166,21.0
2023-08-10 11:07:06.664856,14.0
2023-08-10 11:07:06.672546,16.0
2023-08-10 11:07:06.680236,19.0
2023-08-10 11:07:06.687926,19.0
2023-08-10 11:07:06.695616,16.0
2023-08-10 11:07:06.703306,14.0
2023-08-10 11:07:06.710996,9.0
2023-08-10 11:07:06.718686,4.0
2023-08-10 11:07:06.726376,0.0
2023-08-10 11:07:06.734066,2.0
2023-08-10 11:07:06.741756,14.0
2023-08-10 11:07:06.749446,14.0
2023-08-10 11:07:06.757135,2.0
2023-08-10 11:07:06.764825,7.0
2023-08-10 11:07:06.772515,9.0
2023-08-10 11:07:06.780205,0.0
2023-08-10 11:07:06.787895,-2.0
2023-08-10 11:07:06.795585,4.0
2023-08-10 11:07:06.803275,4.0
2023-08-10 11:07:06.810965,-4.0
2023-08-10 11:07:06.818655,-9.0
2023-08-10 11:07:06.826345,-2.0
2023-08-10 11:07:06.834035,0.0
2023-08-10 11:07:06.841725,-4.0
2023-08-10 11:07:06.849415,-4.0
2023-08-10 11:07:06.857105,-2.0
2023-08-10 11:07:06.864795,-9.0
2023-08-10 11:07:06.872485,-9.0
2023-08-10 11:07:06.880174,-2.0
2023-08-10 11:07:06.887864,-7.0
2023-08-10 11:07:06.895554,-16.0
2023-08-10 11:07:06.903244,-16.0
2023-08-10 11:07:06.910934,-16.0
2023-08-10 11:07:06.918624,-16.0
2023-08-10 11:07:06.926314,-19.0
2023-08-10 11:07:06.934004,-23.0
2023-08-10 11:07:06.941694,-23.0
2023-08-10 11:07:06.949384,-38.0
2023-08-10 11:07:06.957074,-64.0
2023-08-10 11:07:06.964764,-69.0
2023-08-10 11:07:06.972454,-64.0
2023-08-10 11:07:06.980144,-59.0
2023-08-10 11:07:06.987834,-47.0
2023-08-10 11:07:06.995524,-31.0
2023-08-10 11:07:07.003213,-19.0
2023-08-10 11:07:07.010903,-26.0
2023-08-10 11:07:07.018593,-28.0
2023-08-10 11:07:07.026283,-21.0
2023-08-10 11:07:07.033973,-26.0
2023-08-10 11:07:07.041663,-33.0
2023-08-10 11:07:07.049353,-28.0
2023-08-10 11:07:07.057043,-21.0
2023-08-10 11:07:07.064733,-19.0
2023-08-10 11:07:07.072423,-81.0
2023-08-10 11:07:07.080113,-263.0
2023-08-10 11:07:07.087803,-488.0
2023-08-10 11:07:07.095493,-648.0
2023-08-10 11:07:07.103183,-641.0
2023-08-10 11:07:07.110873,-342.0
2023-08-10 11:07:07.118563,57.0
2023-08-10 11:07:07.126253,148.0
2023-08-10 11:07:07.133942,-2.0
2023-08-10 11:07:07.141632,-38.0
2023-08-10 11:07:07.149322,26.0
2023-08-10 11:07:07.157012,16.0
2023-08-10 11:07:07.164702,-9.0
2023-08-10 11:07:07.172392,2.0
2023-08-10 11:07:07.180082,2.0
2023-08-10 11:07:07.187772,0.0
2023-08-10 11:07:07.195462,-11.0
2023-08-10 11:07:07.203152,-35.0
2023-08-10 11:07:07.210842,-16.0
2023-08-10 11:07:07.218532,-2.0
2023-08-10 11:07:07.226222,-43.0
2023-08-10 11:07:07.233912,-59.0
2023-08-10 11:07:07.241602,-38.0
2023-08-10 11:07:07.249292,-50.0
2023-08-10 11:07:07.256981,-74.0
2023-08-10 11:07:07.264671,-76.0
2023-08-10 11:07:07.272361,-98.0
2023-08-10 11:07:07.280051,-117.0
2023-08-10 11:07:07.287741,-117.0
2023-08-10 11:07:07.295431,-131.0
2023-08-10 11:07:07.303121,-157.0
2023-08-10 11:07:07.310811,-167.0
2023-08-10 11:07:07.318501,-184.0
2023-08-10 11:07:07.326191,-220.0
2023-08-10 11:07:07.333881,-246.0
2023-08-10 11:07:07.341571,-248.0
2023-08-10 11:07:07.349261,-253.0
2023-08-10 11:07:07.356951,-263.0
2023-08-10 11:07:07.364641,-244.0
2023-08-10 11:07:07.372331,-196.0
2023-08-10 11:07:07.380021,-145.0
2023-08-10 11:07:07.387710,-102.0
2023-08-10 11:07:07.395400,-64.0
2023-08-10 11:07:07.403090,-28.0
2023-08-10 11:07:07.410780,9.0
2023-08-10 11:07:07.418470,43.0
2023-08-10 11:07:07.426160,35.0
2023-08-10 11:07:07.433850,16.0
2023-08-10 11:07:07.441540,28.0
2023-08-10 11:07:07.449230,55.0
2023-08-10 11:07:07.456920,57.0
2023-08-10 11:07:07.464610,38.0
2023-08-10 11:07:07.472300,31.0
2023-08-10 11:07:07.479990,33.0
2023-08-10 11:07:07.487680,16.0
2023-08-10 11:07:07.495370,-9.0
2023-08-10 11:07:07.503060,2.0
2023-08-10 11:07:07.510749,28.0
2023-08-10 11:07:07.518439,16.0
2023-08-10 11:07:07.526129,-4.0
2023-08-10 11:07:07.533819,7.0
2023-08-10 11:07:07.541509,19.0
2023-08-10 11:07:07.549199,2.0
2023-08-10 11:07:07.556889,-7.0
2023-08-10 11:07:07.564579,7.0
2023-08-10 11:07:07.572269,-4.0
2023-08-10 11:07:07.579959,-21.0
2023-08-10 11:07:07.587649,0.0
2023-08-10 11:07:07.595339,7.0
2023-08-10 11:07:07.603029,-31.0
2023-08-10 11:07:07.610719,-40.0
2023-08-10 11:07:07.618409,9.0
2023-08-10 11:07:07.626099,26.0
2023-08-10 11:07:07.633789,-28.0
2023-08-10 11:07:07.641478,-59.0
2023-08-10 11:07:07.649168,-9.0
2023-08-10 11:07:07.656858,33.0
2023-08-10 11:07:07.664548,-2.0
2023-08-10 11:07:07.672238,-26.0
2023-08-10 11:07:07.679928,-16.0
2023-08-10 11:07:07.687618,-26.0
2023-08-10 11:07:07.695308,-9.0
2023-08-10 11:07:07.702998,16.0
2023-08-10 11:07:07.710688,-23.0
2023-08-10 11:07:07.718378,-55.0
2023-08-10 11:07:07.726068,-33.0
2023-08-10 11:07:07.733758,-9.0
2023-08-10 11:07:07.741448,-7.0
2023-08-10 11:07:07.749138,0.0
2023-08-10 11:07:07.756828,16.0
2023-08-10 11:07:07.764517,-26.0
2023-08-10 11:07:07.772207,-64.0
2023-08-10 11:07:07.779897,-14.0
2023-08-10 11:07:07.787587,31.0
2023-08-10 11:07:07.795277,0.0
2023-08-10 11:07:07.802967,-55.0
2023-08-10 11:07:07.810657,-40.0
2023-08-10 11:07:07.818347,23.0
2023-08-10 11:07:07.826037,7.0
2023-08-10 11:07:07.833727,-57.0
2023-08-10 11:07:07.841417,-38.0
2023-08-10 11:07:07.849107,9.0
2023-08-10 11:07:07.856797,2.0
2023-08-10 11:07:07.864487,-33.0
2023-08-10 11:07:07.872177,-52.0
2023-08-10 11:07:07.879867,-35.0
2023-08-10 11:07:07.887557,-11.0
2023-08-10 11:07:07.895246,-45.0
2023-08-10 11:07:07.902936,-95.0
2023-08-10 11:07:07.910626,-71.0
2023-08-10 11:07:07.918316,-28.0
2023-08-10 11:07:07.926006,-45.0
2023-08-10 11:07:07.933696,-47.0
2023-08-10 11:07:07.941386,-28.0
2023-08-10 11:07:07.949076,-26.0
2023-08-10 11:07:07.956766,-2.0
2023-08-10 11:07:07.964456,-4.0
2023-08-10 11:07:07.972146,-52.0
2023-08-10 11:07:07.979836,-66.0
2023-08-10 11:07:07.987526,-19.0
2023-08-10 11:07:07.995216,9.0
2023-08-10 11:07:08.002906,-50.0
2023-08-10 11:07:08.010596,-150.0
2023-08-10 11:07:08.018285,-332.0
2023-08-10 11:07:08.025975,-538.0
2023-08-10 11:07:08.033665,-624.0
2023-08-10 11:07:08.041355,-521.0
2023-08-10 11:07:08.049045,-193.0
2023-08-10 11:07:08.056735,112.0
2023-08-10 11:07:08.064425,105.0
2023-08-10 11:07:08.072115,-55.0
2023-08-10 11:07:08.079805,-55.0
2023-08-10 11:07:08.087495,19.0
2023-08-10 11:07:08.095185,-21.0
2023-08-10 11:07:08.102875,-57.0
2023-08-10 11:07:08.110565,-16.0
2023-08-10 11:07:08.118255,2.0
2023-08-10 11:07:08.125945,-40.0
2023-08-10 11:07:08.133635,-78.0
2023-08-10 11:07:08.141325,-62.0
2023-08-10 11:07:08.149014,-31.0
2023-08-10 11:07:08.156704,-26.0
2023-08-10 11:07:08.164394,-76.0
2023-08-10 11:07:08.172084,-119.0
2023-08-10 11:07:08.179774,-71.0
2023-08-10 11:07:08.187464,-50.0
2023-08-10 11:07:08.195154,-122.0
2023-08-10 11:07:08.202844,-131.0
2023-08-10 11:07:08.210534,-100.0
2023-08-10 11:07:08.218224,-129.0
2023-08-10 11:07:08.225914,-143.0
2023-08-10 11:07:08.233604,-148.0
2023-08-10 11:07:08.241294,-193.0
2023-08-10 11:07:08.248984,-220.0
2023-08-10 11:07:08.256674,-198.0
2023-08-10 11:07:08.264364,-215.0
2023-08-10 11:07:08.272053,-267.0
2023-08-10 11:07:08.279743,-282.0
2023-08-10 11:07:08.287433,-253.0
2023-08-10 11:07:08.295123,-253.0
2023-08-10 11:07:08.302813,-275.0
2023-08-10 11:07:08.310503,-224.0
2023-08-10 11:07:08.318193,-131.0
2023-08-10 11:07:08.325883,-93.0
2023-08-10 11:07:08.333573,-83.0
2023-08-10 11:07:08.341263,-31.0
2023-08-10 11:07:08.348953,11.0
2023-08-10 11:07:08.356643,14.0
2023-08-10 11:07:08.364333,7.0
2023-08-10 11:07:08.372023,19.0
2023-08-10 11:07:08.379713,33.0
2023-08-10 11:07:08.387403,14.0
2023-08-10 11:07:08.395092,-9.0
2023-08-10 11:07:08.402782,4.0
2023-08-10 11:07:08.410472,21.0
2023-08-10 11:07:08.418162,14.0
2023-08-10 11:07:08.425852,21.0
2023-08-10 11:07:08.433542,16.0
2023-08-10 11:07:08.441232,-11.0
2023-08-10 11:07:08.448922,0.0
2023-08-10 11:07:08.456612,14.0
2023-08-10 11:07:08.464302,-19.0
2023-08-10 11:07:08.471992,-31.0
2023-08-10 11:07:08.479682,4.0
2023-08-10 11:07:08.487372,26.0
2023-08-10 11:07:08.495062,-2.0
2023-08-10 11:07:08.502752,-31.0
2023-08-10 11:07:08.510442,-14.0
2023-08-10 11:07:08.518132,11.0
2023-08-10 11:07:08.525821,-19.0
2023-08-10 11:07:08.533511,-50.0
2023-08-10 11:07:08.541201,0.0
2023-08-10 11:07:08.548891,14.0
2023-08-10 11:07:08.556581,-31.0
2023-08-10 11:07:08.564271,-21.0
2023-08-10 11:07:08.571961,-11.0
2023-08-10 11:07:08.579651,-40.0
2023-08-10 11:07:08.587341,-26.0
2023-08-10 11:07:08.595031,19.0
2023-08-10 11:07:08.602721,2.0
2023-08-10 11:07:08.610411,-38.0
2023-08-10 11:07:08.618101,-31.0
2023-08-10 11:07:08.625791,-11.0
2023-08-10 11:07:08.633481,-19.0
2023-08-10 11:07:08.641171,-45.0
2023-08-10 11:07:08.648860,-38.0
2023-08-10 11:07:08.656550,-23.0
2023-08-10 11:07:08.664240,-45.0
2023-08-10 11:07:08.671930,-40.0
2023-08-10 11:07:08.679620,-33.0
2023-08-10 11:07:08.687310,-38.0
2023-08-10 11:07:08.695000,-9.0
2023-08-10 11:07:08.702690,-19.0
2023-08-10 11:07:08.710380,-47.0
2023-08-10 11:07:08.718070,-28.0
2023-08-10 11:07:08.725760,-35.0
2023-08-10 11:07:08.733450,-64.0
2023-08-10 11:07:08.741140,-40.0
2023-08-10 11:07:08.748830,-26.0
2023-08-10 11:07:08.756520,-55.0
2023-08-10 11:07:08.764210,-62.0
2023-08-10 11:07:08.771900,-62.0
2023-08-10 11:07:08.779589,-76.0
2023-08-10 11:07:08.787279,-45.0
2023-08-10 11:07:08.794969,-4.0
2023-08-10 11:07:08.802659,-33.0
2023-08-10 11:07:08.810349,-26.0
2023-08-10 11:07:08.818039,7.0
2023-08-10 11:07:08.825729,-31.0
2023-08-10 11:07:08.833419,-45.0
2023-08-10 11:07:08.841109,11.0
2023-08-10 11:07:08.848799,31.0
2023-08-10 11:07:08.856489,-9.0
2023-08-10 11:07:08.864179,-16.0
2023-08-10 11:07:08.871869,-7.0
2023-08-10 11:07:08.879559,-35.0
2023-08-10 11:07:08.887249,-112.0
2023-08-10 11:07:08.894939,-284.0
2023-08-10 11:07:08.902628,-471.0
2023-08-10 11:07:08.910318,-555.0
2023-08-10 11:07:08.918008,-514.0
2023-08-10 11:07:08.925698,-246.0
2023-08-10 11:07:08.933388,90.0
2023-08-10 11:07:08.941078,157.0
2023-08-10 11:07:08.948768,21.0
2023-08-10 11:07:08.956458,-7.0
2023-08-10 11:07:08.964148,45.0
2023-08-10 11:07:08.971838,31.0
2023-08-10 11:07:08.979528,-16.0
2023-08-10 11:07:08.987218,-9.0
2023-08-10 11:07:08.994908,26.0
2023-08-10 11:07:09.002598,23.0
2023-08-10 11:07:09.010288,0.0
2023-08-10 11:07:09.017978,0.0
2023-08-10 11:07:09.025668,-4.0
2023-08-10 11:07:09.033357,-35.0
2023-08-10 11:07:09.041047,-33.0
2023-08-10 11:07:09.048737,-9.0
2023-08-10 11:07:09.056427,-21.0
2023-08-10 11:07:09.064117,-45.0
2023-08-10 11:07:09.071807,-40.0
2023-08-10 11:07:09.079497,-50.0
2023-08-10 11:07:09.087187,-98.0
2023-08-10 11:07:09.094877,-112.0
2023-08-10 11:07:09.102567,-83.0
2023-08-10 11:07:09.110257,-95.0
2023-08-10 11:07:09.117947,-138.0
2023-08-10 11:07:09.125637,-150.0
2023-08-10 11:07:09.133327,-150.0
2023-08-10 11:07:09.141017,-177.0
2023-08-10 11:07:09.148707,-200.0
2023-08-10 11:07:09.156396,-212.0
2023-08-10 11:07:09.164086,-234.0
2023-08-10 11:07:09.171776,-248.0
2023-08-10 11:07:09.179466,-215.0
2023-08-10 11:07:09.187156,-153.0
2023-08-10 11:07:09.194846,-117.0
2023-08-10 11:07:09.202536,-74.0
2023-08-10 11:07:09.210226,-9.0
2023-08-10 11:07:09.217916,11.0
2023-08-10 11:07:09.225606,14.0
2023-08-10 11:07:09.233296,50.0
2023-08-10 11:07:09.240986,59.0
2023-08-10 11:07:09.248676,47.0
2023-08-10 11:07:09.256366,64.0
2023-08-10 11:07:09.264056,69.0
2023-08-10 11:07:09.271746,50.0
2023-08-10 11:07:09.279436,43.0
2023-08-10 11:07:09.287125,45.0
2023-08-10 11:07:09.294815,57.0
2023-08-10 11:07:09.302505,47.0
2023-08-10 11:07:09.310195,26.0
2023-08-10 11:07:09.317885,52.0
2023-08-10 11:07:09.325575,62.0
2023-08-10 11:07:09.333265,31.0
2023-08-10 11:07:09.340955,35.0
2023-08-10 11:07:09.348645,33.0
2023-08-10 11:07:09.356335,0.0
2023-08-10 11:07:09.364025,0.0
2023-08-10 11:07:09.371715,7.0
2023-08-10 11:07:09.379405,19.0
2023-08-10 11:07:09.387095,40.0
2023-08-10 11:07:09.394785,23.0
2023-08-10 11:07:09.402475,-9.0
2023-08-10 11:07:09.410164,-2.0
2023-08-10 11:07:09.417854,7.0
2023-08-10 11:07:09.425544,-2.0
2023-08-10 11:07:09.433234,2.0
2023-08-10 11:07:09.440924,2.0
2023-08-10 11:07:09.448614,16.0
2023-08-10 11:07:09.456304,31.0
2023-08-10 11:07:09.463994,-4.0
2023-08-10 11:07:09.471684,-28.0
2023-08-10 11:07:09.479374,2.0
2023-08-10 11:07:09.487064,23.0
2023-08-10 11:07:09.494754,-11.0
2023-08-10 11:07:09.502444,-23.0
2023-08-10 11:07:09.510134,23.0
2023-08-10 11:07:09.517824,31.0
2023-08-10 11:07:09.525514,-14.0
2023-08-10 11:07:09.533203,-26.0
2023-08-10 11:07:09.540893,-4.0
2023-08-10 11:07:09.548583,23.0
2023-08-10 11:07:09.556273,19.0
2023-08-10 11:07:09.563963,-35.0
2023-08-10 11:07:09.571653,-31.0
2023-08-10 11:07:09.579343,40.0
2023-08-10 11:07:09.587033,31.0
2023-08-10 11:07:09.594723,-21.0
2023-08-10 11:07:09.602413,-31.0
2023-08-10 11:07:09.610103,-11.0
2023-08-10 11:07:09.617793,11.0
2023-08-10 11:07:09.625483,7.0
2023-08-10 11:07:09.633173,-26.0
2023-08-10 11:07:09.640863,-31.0
2023-08-10 11:07:09.648553,-11.0
2023-08-10 11:07:09.656243,0.0
2023-08-10 11:07:09.663932,-4.0
2023-08-10 11:07:09.671622,-33.0
2023-08-10 11:07:09.679312,-31.0
2023-08-10 11:07:09.687002,-4.0
2023-08-10 11:07:09.694692,-38.0
2023-08-10 11:07:09.702382,-78.0
2023-08-10 11:07:09.710072,-59.0
2023-08-10 11:07:09.717762,-35.0
2023-08-10 11:07:09.725452,-43.0
2023-08-10 11:07:09.733142,-52.0
2023-08-10 11:07:09.740832,-40.0
2023-08-10 11:07:09.748522,-19.0
2023-08-10 11:07:09.756212,-16.0
2023-08-10 11:07:09.763902,-14.0
2023-08-10 11:07:09.771592,-7.0
2023-08-10 11:07:09.779282,-19.0
2023-08-10 11:07:09.786971,-23.0
2023-08-10 11:07:09.794661,-9.0
2023-08-10 11:07:09.802351,-14.0
2023-08-10 11:07:09.810041,-28.0
2023-08-10 11:07:09.817731,-38.0
2023-08-10 11:07:09.825421,-136.0
2023-08-10 11:07:09.833111,-346.0
2023-08-10 11:07:09.840801,-526.0
2023-08-10 11:07:09.848491,-602.0
2023-08-10 11:07:09.856181,-500.0
2023-08-10 11:07:09.863871,-162.0
2023-08-10 11:07:09.871561,114.0
2023-08-10 11:07:09.879251,78.0
2023-08-10 11:07:09.886941,-31.0
2023-08-10 11:07:09.894631,0.0
2023-08-10 11:07:09.902321,28.0
2023-08-10 11:07:09.910011,2.0
2023-08-10 11:07:09.917700,9.0
2023-08-10 11:07:09.925390,16.0
2023-08-10 11:07:09.933080,7.0
2023-08-10 11:07:09.940770,-9.0
2023-08-10 11:07:09.948460,-28.0
2023-08-10 11:07:09.956150,-26.0
2023-08-10 11:07:09.963840,-11.0
2023-08-10 11:07:09.971530,-19.0
2023-08-10 11:07:09.979220,-35.0
2023-08-10 11:07:09.986910,-45.0
2023-08-10 11:07:09.994600,-57.0
2023-08-10 11:07:10.002290,-62.0
2023-08-10 11:07:10.009980,-78.0
2023-08-10 11:07:10.017670,-100.0
2023-08-10 11:07:10.025360,-83.0
2023-08-10 11:07:10.033050,-76.0
2023-08-10 11:07:10.040739,-107.0
2023-08-10 11:07:10.048429,-124.0
2023-08-10 11:07:10.056119,-138.0
2023-08-10 11:07:10.063809,-167.0
2023-08-10 11:07:10.071499,-181.0
2023-08-10 11:07:10.079189,-184.0
2023-08-10 11:07:10.086879,-205.0
2023-08-10 11:07:10.094569,-236.0
2023-08-10 11:07:10.102259,-239.0
2023-08-10 11:07:10.109949,-227.0
2023-08-10 11:07:10.117639,-220.0
2023-08-10 11:07:10.125329,-181.0
2023-08-10 11:07:10.133019,-138.0
2023-08-10 11:07:10.140709,-114.0
2023-08-10 11:07:10.148399,-64.0
2023-08-10 11:07:10.156089,4.0
2023-08-10 11:07:10.163779,33.0
2023-08-10 11:07:10.171468,35.0
2023-08-10 11:07:10.179158,33.0
2023-08-10 11:07:10.186848,33.0
2023-08-10 11:07:10.194538,45.0
2023-08-10 11:07:10.202228,57.0
2023-08-10 11:07:10.209918,55.0
2023-08-10 11:07:10.217608,28.0
