time,ECG
2023-08-16 11:33:24.344095,-188.0
2023-08-16 11:33:24.351785,-183.0
2023-08-16 11:33:24.359474,-178.0
2023-08-16 11:33:24.367163,-176.0
2023-08-16 11:33:24.374852,-173.0
2023-08-16 11:33:24.382542,-166.0
2023-08-16 11:33:24.390231,-164.0
2023-08-16 11:33:24.397920,-168.0
2023-08-16 11:33:24.405610,-168.0
2023-08-16 11:33:24.413299,-164.0
2023-08-16 11:33:24.420988,-159.0
2023-08-16 11:33:24.428677,-156.0
2023-08-16 11:33:24.436367,-156.0
2023-08-16 11:33:24.444056,-156.0
2023-08-16 11:33:24.451745,-159.0
2023-08-16 11:33:24.459435,-156.0
2023-08-16 11:33:24.467124,-152.0
2023-08-16 11:33:24.474813,-149.0
2023-08-16 11:33:24.482503,-152.0
2023-08-16 11:33:24.490192,-149.0
2023-08-16 11:33:24.497881,-144.0
2023-08-16 11:33:24.505570,-139.0
2023-08-16 11:33:24.513260,-137.0
2023-08-16 11:33:24.520949,-132.0
2023-08-16 11:33:24.528638,-130.0
2023-08-16 11:33:24.536328,-127.0
2023-08-16 11:33:24.544017,-123.0
2023-08-16 11:33:24.551706,-118.0
2023-08-16 11:33:24.559395,-115.0
2023-08-16 11:33:24.567085,-115.0
2023-08-16 11:33:24.574774,-118.0
2023-08-16 11:33:24.582463,-115.0
2023-08-16 11:33:24.590153,-115.0
2023-08-16 11:33:24.597842,-118.0
2023-08-16 11:33:24.605531,-115.0
2023-08-16 11:33:24.613220,-113.0
2023-08-16 11:33:24.620910,-113.0
2023-08-16 11:33:24.628599,-110.0
2023-08-16 11:33:24.636288,-108.0
2023-08-16 11:33:24.643978,-106.0
2023-08-16 11:33:24.651667,-106.0
2023-08-16 11:33:24.659356,-106.0
2023-08-16 11:33:24.667046,-115.0
2023-08-16 11:33:24.674735,-123.0
2023-08-16 11:33:24.682424,-120.0
2023-08-16 11:33:24.690113,-96.0
2023-08-16 11:33:24.697803,-55.0
2023-08-16 11:33:24.705492,-26.0
2023-08-16 11:33:24.713181,-31.0
2023-08-16 11:33:24.720871,-41.0
2023-08-16 11:33:24.728560,-50.0
2023-08-16 11:33:24.736249,-79.0
2023-08-16 11:33:24.743938,-103.0
2023-08-16 11:33:24.751628,-101.0
2023-08-16 11:33:24.759317,-98.0
2023-08-16 11:33:24.767006,-98.0
2023-08-16 11:33:24.774696,-91.0
2023-08-16 11:33:24.782385,-89.0
2023-08-16 11:33:24.790074,-84.0
2023-08-16 11:33:24.797763,-53.0
2023-08-16 11:33:24.805453,120.0
2023-08-16 11:33:24.813142,670.0
2023-08-16 11:33:24.820831,1348.0
2023-08-16 11:33:24.828521,1305.0
2023-08-16 11:33:24.836210,424.0
2023-08-16 11:33:24.843899,-347.0
2023-08-16 11:33:24.851589,-390.0
2023-08-16 11:33:24.859278,-110.0
2023-08-16 11:33:24.866967,-115.0
2023-08-16 11:33:24.874656,-226.0
2023-08-16 11:33:24.882346,-173.0
2023-08-16 11:33:24.890035,-139.0
2023-08-16 11:33:24.897724,-161.0
2023-08-16 11:33:24.905414,-137.0
2023-08-16 11:33:24.913103,-108.0
2023-08-16 11:33:24.920792,-103.0
2023-08-16 11:33:24.928481,-91.0
2023-08-16 11:33:24.936171,-69.0
2023-08-16 11:33:24.943860,-55.0
2023-08-16 11:33:24.951549,-41.0
2023-08-16 11:33:24.959239,-24.0
2023-08-16 11:33:24.966928,2.0
2023-08-16 11:33:24.974617,28.0
2023-08-16 11:33:24.982306,53.0
2023-08-16 11:33:24.989996,82.0
2023-08-16 11:33:24.997685,113.0
2023-08-16 11:33:25.005374,152.0
2023-08-16 11:33:25.013064,190.0
2023-08-16 11:33:25.020753,229.0
2023-08-16 11:33:25.028442,265.0
2023-08-16 11:33:25.036132,299.0
2023-08-16 11:33:25.043821,323.0
2023-08-16 11:33:25.051510,330.0
2023-08-16 11:33:25.059199,320.0
2023-08-16 11:33:25.066889,294.0
2023-08-16 11:33:25.074578,246.0
2023-08-16 11:33:25.082267,183.0
2023-08-16 11:33:25.089957,98.0
2023-08-16 11:33:25.097646,0.0
2023-08-16 11:33:25.105335,-91.0
2023-08-16 11:33:25.113024,-161.0
2023-08-16 11:33:25.120714,-214.0
2023-08-16 11:33:25.128403,-248.0
2023-08-16 11:33:25.136092,-267.0
2023-08-16 11:33:25.143782,-279.0
2023-08-16 11:33:25.151471,-282.0
2023-08-16 11:33:25.159160,-277.0
2023-08-16 11:33:25.166849,-267.0
2023-08-16 11:33:25.174539,-258.0
2023-08-16 11:33:25.182228,-248.0
2023-08-16 11:33:25.189917,-238.0
2023-08-16 11:33:25.197607,-231.0
2023-08-16 11:33:25.205296,-221.0
2023-08-16 11:33:25.212985,-212.0
2023-08-16 11:33:25.220675,-202.0
2023-08-16 11:33:25.228364,-193.0
2023-08-16 11:33:25.236053,-188.0
2023-08-16 11:33:25.243742,-183.0
2023-08-16 11:33:25.251432,-178.0
2023-08-16 11:33:25.259121,-176.0
2023-08-16 11:33:25.266810,-176.0
2023-08-16 11:33:25.274500,-173.0
2023-08-16 11:33:25.282189,-168.0
2023-08-16 11:33:25.289878,-166.0
2023-08-16 11:33:25.297567,-164.0
2023-08-16 11:33:25.305257,-159.0
2023-08-16 11:33:25.312946,-156.0
2023-08-16 11:33:25.320635,-156.0
2023-08-16 11:33:25.328325,-156.0
2023-08-16 11:33:25.336014,-161.0
2023-08-16 11:33:25.343703,-164.0
2023-08-16 11:33:25.351392,-161.0
2023-08-16 11:33:25.359082,-156.0
2023-08-16 11:33:25.366771,-156.0
2023-08-16 11:33:25.374460,-156.0
2023-08-16 11:33:25.382150,-154.0
2023-08-16 11:33:25.389839,-152.0
2023-08-16 11:33:25.397528,-147.0
2023-08-16 11:33:25.405218,-142.0
2023-08-16 11:33:25.412907,-139.0
2023-08-16 11:33:25.420596,-137.0
2023-08-16 11:33:25.428285,-135.0
2023-08-16 11:33:25.435975,-132.0
2023-08-16 11:33:25.443664,-132.0
2023-08-16 11:33:25.451353,-132.0
2023-08-16 11:33:25.459043,-130.0
2023-08-16 11:33:25.466732,-127.0
2023-08-16 11:33:25.474421,-127.0
2023-08-16 11:33:25.482110,-127.0
2023-08-16 11:33:25.489800,-125.0
2023-08-16 11:33:25.497489,-123.0
2023-08-16 11:33:25.505178,-123.0
2023-08-16 11:33:25.512868,-120.0
2023-08-16 11:33:25.520557,-120.0
2023-08-16 11:33:25.528246,-118.0
2023-08-16 11:33:25.535935,-115.0
2023-08-16 11:33:25.543625,-113.0
2023-08-16 11:33:25.551314,-113.0
2023-08-16 11:33:25.559003,-113.0
2023-08-16 11:33:25.566693,-110.0
2023-08-16 11:33:25.574382,-106.0
2023-08-16 11:33:25.582071,-103.0
2023-08-16 11:33:25.589761,-101.0
2023-08-16 11:33:25.597450,-98.0
2023-08-16 11:33:25.605139,-98.0
2023-08-16 11:33:25.612828,-101.0
2023-08-16 11:33:25.620518,-96.0
2023-08-16 11:33:25.628207,-94.0
2023-08-16 11:33:25.635896,-96.0
2023-08-16 11:33:25.643586,-106.0
2023-08-16 11:33:25.651275,-110.0
2023-08-16 11:33:25.658964,-106.0
2023-08-16 11:33:25.666653,-84.0
2023-08-16 11:33:25.674343,-48.0
2023-08-16 11:33:25.682032,-14.0
2023-08-16 11:33:25.689721,-19.0
2023-08-16 11:33:25.697411,-36.0
2023-08-16 11:33:25.705100,-45.0
2023-08-16 11:33:25.712789,-69.0
2023-08-16 11:33:25.720479,-94.0
2023-08-16 11:33:25.728168,-86.0
2023-08-16 11:33:25.735857,-79.0
2023-08-16 11:33:25.743546,-84.0
2023-08-16 11:33:25.751236,-82.0
2023-08-16 11:33:25.758925,-74.0
2023-08-16 11:33:25.766614,-69.0
2023-08-16 11:33:25.774304,-38.0
2023-08-16 11:33:25.781993,147.0
2023-08-16 11:33:25.789682,709.0
2023-08-16 11:33:25.797371,1389.0
2023-08-16 11:33:25.805061,1346.0
2023-08-16 11:33:25.812750,475.0
2023-08-16 11:33:25.820439,-308.0
2023-08-16 11:33:25.828129,-371.0
2023-08-16 11:33:25.835818,-96.0
2023-08-16 11:33:25.843507,-108.0
2023-08-16 11:33:25.851196,-226.0
2023-08-16 11:33:25.858886,-168.0
2023-08-16 11:33:25.866575,-132.0
2023-08-16 11:33:25.874264,-161.0
2023-08-16 11:33:25.881954,-139.0
2023-08-16 11:33:25.889643,-106.0
2023-08-16 11:33:25.897332,-101.0
2023-08-16 11:33:25.905022,-89.0
2023-08-16 11:33:25.912711,-67.0
2023-08-16 11:33:25.920400,-57.0
2023-08-16 11:33:25.928089,-53.0
2023-08-16 11:33:25.935779,-31.0
2023-08-16 11:33:25.943468,-4.0
2023-08-16 11:33:25.951157,16.0
2023-08-16 11:33:25.958847,41.0
2023-08-16 11:33:25.966536,65.0
2023-08-16 11:33:25.974225,89.0
2023-08-16 11:33:25.981914,130.0
2023-08-16 11:33:25.989604,171.0
2023-08-16 11:33:25.997293,205.0
2023-08-16 11:33:26.004982,243.0
2023-08-16 11:33:26.012672,275.0
2023-08-16 11:33:26.020361,296.0
2023-08-16 11:33:26.028050,304.0
2023-08-16 11:33:26.035739,299.0
2023-08-16 11:33:26.043429,275.0
2023-08-16 11:33:26.051118,234.0
2023-08-16 11:33:26.058807,173.0
2023-08-16 11:33:26.066497,98.0
2023-08-16 11:33:26.074186,9.0
2023-08-16 11:33:26.081875,-79.0
2023-08-16 11:33:26.089565,-152.0
2023-08-16 11:33:26.097254,-207.0
2023-08-16 11:33:26.104943,-246.0
2023-08-16 11:33:26.112632,-267.0
2023-08-16 11:33:26.120322,-277.0
2023-08-16 11:33:26.128011,-277.0
2023-08-16 11:33:26.135700,-272.0
2023-08-16 11:33:26.143390,-267.0
2023-08-16 11:33:26.151079,-258.0
2023-08-16 11:33:26.158768,-248.0
2023-08-16 11:33:26.166457,-236.0
2023-08-16 11:33:26.174147,-226.0
2023-08-16 11:33:26.181836,-219.0
2023-08-16 11:33:26.189525,-214.0
2023-08-16 11:33:26.197215,-207.0
2023-08-16 11:33:26.204904,-197.0
2023-08-16 11:33:26.212593,-185.0
2023-08-16 11:33:26.220282,-178.0
2023-08-16 11:33:26.227972,-176.0
2023-08-16 11:33:26.235661,-173.0
2023-08-16 11:33:26.243350,-166.0
2023-08-16 11:33:26.251040,-164.0
2023-08-16 11:33:26.258729,-161.0
2023-08-16 11:33:26.266418,-164.0
2023-08-16 11:33:26.274108,-166.0
2023-08-16 11:33:26.281797,-166.0
2023-08-16 11:33:26.289486,-159.0
2023-08-16 11:33:26.297175,-161.0
2023-08-16 11:33:26.304865,-166.0
2023-08-16 11:33:26.312554,-159.0
2023-08-16 11:33:26.320243,-152.0
2023-08-16 11:33:26.327933,-152.0
2023-08-16 11:33:26.335622,-152.0
2023-08-16 11:33:26.343311,-152.0
2023-08-16 11:33:26.351000,-149.0
2023-08-16 11:33:26.358690,-144.0
2023-08-16 11:33:26.366379,-142.0
2023-08-16 11:33:26.374068,-142.0
2023-08-16 11:33:26.381758,-137.0
2023-08-16 11:33:26.389447,-130.0
2023-08-16 11:33:26.397136,-125.0
2023-08-16 11:33:26.404825,-127.0
2023-08-16 11:33:26.412515,-125.0
2023-08-16 11:33:26.420204,-120.0
2023-08-16 11:33:26.427893,-123.0
2023-08-16 11:33:26.435583,-127.0
2023-08-16 11:33:26.443272,-130.0
2023-08-16 11:33:26.450961,-125.0
2023-08-16 11:33:26.458651,-127.0
2023-08-16 11:33:26.466340,-132.0
2023-08-16 11:33:26.474029,-130.0
2023-08-16 11:33:26.481718,-125.0
2023-08-16 11:33:26.489408,-127.0
2023-08-16 11:33:26.497097,-125.0
2023-08-16 11:33:26.504786,-118.0
2023-08-16 11:33:26.512476,-115.0
2023-08-16 11:33:26.520165,-118.0
2023-08-16 11:33:26.527854,-113.0
2023-08-16 11:33:26.535543,-110.0
2023-08-16 11:33:26.543233,-108.0
2023-08-16 11:33:26.550922,-103.0
2023-08-16 11:33:26.558611,-98.0
2023-08-16 11:33:26.566301,-101.0
2023-08-16 11:33:26.573990,-98.0
2023-08-16 11:33:26.581679,-94.0
2023-08-16 11:33:26.589368,-91.0
2023-08-16 11:33:26.597058,-96.0
2023-08-16 11:33:26.604747,-94.0
2023-08-16 11:33:26.612436,-89.0
2023-08-16 11:33:26.620126,-98.0
2023-08-16 11:33:26.627815,-103.0
2023-08-16 11:33:26.635504,-96.0
2023-08-16 11:33:26.643194,-72.0
2023-08-16 11:33:26.650883,-38.0
2023-08-16 11:33:26.658572,-12.0
2023-08-16 11:33:26.666261,-7.0
2023-08-16 11:33:26.673951,-16.0
2023-08-16 11:33:26.681640,-33.0
2023-08-16 11:33:26.689329,-65.0
2023-08-16 11:33:26.697019,-82.0
2023-08-16 11:33:26.704708,-77.0
2023-08-16 11:33:26.712397,-72.0
2023-08-16 11:33:26.720086,-69.0
2023-08-16 11:33:26.727776,-65.0
2023-08-16 11:33:26.735465,-62.0
2023-08-16 11:33:26.743154,-50.0
2023-08-16 11:33:26.750844,4.0
2023-08-16 11:33:26.758533,231.0
2023-08-16 11:33:26.766222,827.0
2023-08-16 11:33:26.773911,1454.0
2023-08-16 11:33:26.781601,1274.0
2023-08-16 11:33:26.789290,325.0
2023-08-16 11:33:26.796979,-386.0
2023-08-16 11:33:26.804669,-330.0
2023-08-16 11:33:26.812358,-57.0
2023-08-16 11:33:26.820047,-110.0
2023-08-16 11:33:26.827737,-205.0
2023-08-16 11:33:26.835426,-135.0
2023-08-16 11:33:26.843115,-110.0
2023-08-16 11:33:26.850804,-132.0
2023-08-16 11:33:26.858494,-106.0
2023-08-16 11:33:26.866183,-79.0
2023-08-16 11:33:26.873872,-77.0
2023-08-16 11:33:26.881562,-67.0
2023-08-16 11:33:26.889251,-48.0
2023-08-16 11:33:26.896940,-26.0
2023-08-16 11:33:26.904629,-4.0
2023-08-16 11:33:26.912319,16.0
2023-08-16 11:33:26.920008,33.0
2023-08-16 11:33:26.927697,50.0
2023-08-16 11:33:26.935387,77.0
2023-08-16 11:33:26.943076,108.0
2023-08-16 11:33:26.950765,142.0
2023-08-16 11:33:26.958454,178.0
2023-08-16 11:33:26.966144,221.0
2023-08-16 11:33:26.973833,263.0
2023-08-16 11:33:26.981522,291.0
2023-08-16 11:33:26.989212,311.0
2023-08-16 11:33:26.996901,335.0
2023-08-16 11:33:27.004590,349.0
2023-08-16 11:33:27.012280,335.0
2023-08-16 11:33:27.019969,306.0
2023-08-16 11:33:27.027658,267.0
2023-08-16 11:33:27.035347,202.0
2023-08-16 11:33:27.043037,101.0
2023-08-16 11:33:27.050726,-7.0
2023-08-16 11:33:27.058415,-86.0
2023-08-16 11:33:27.066105,-149.0
2023-08-16 11:33:27.073794,-209.0
2023-08-16 11:33:27.081483,-253.0
2023-08-16 11:33:27.089172,-270.0
2023-08-16 11:33:27.096862,-272.0
2023-08-16 11:33:27.104551,-275.0
2023-08-16 11:33:27.112240,-277.0
2023-08-16 11:33:27.119930,-267.0
2023-08-16 11:33:27.127619,-253.0
2023-08-16 11:33:27.135308,-246.0
2023-08-16 11:33:27.142998,-238.0
2023-08-16 11:33:27.150687,-219.0
2023-08-16 11:33:27.158376,-207.0
2023-08-16 11:33:27.166065,-205.0
2023-08-16 11:33:27.173755,-202.0
2023-08-16 11:33:27.181444,-195.0
2023-08-16 11:33:27.189133,-183.0
2023-08-16 11:33:27.196823,-173.0
2023-08-16 11:33:27.204512,-168.0
2023-08-16 11:33:27.212201,-171.0
2023-08-16 11:33:27.219890,-166.0
2023-08-16 11:33:27.227580,-161.0
2023-08-16 11:33:27.235269,-159.0
2023-08-16 11:33:27.242958,-154.0
2023-08-16 11:33:27.250648,-154.0
2023-08-16 11:33:27.258337,-154.0
2023-08-16 11:33:27.266026,-144.0
2023-08-16 11:33:27.273715,-142.0
2023-08-16 11:33:27.281405,-154.0
2023-08-16 11:33:27.289094,-161.0
2023-08-16 11:33:27.296783,-147.0
2023-08-16 11:33:27.304473,-139.0
2023-08-16 11:33:27.312162,-149.0
2023-08-16 11:33:27.319851,-147.0
2023-08-16 11:33:27.327541,-135.0
2023-08-16 11:33:27.335230,-130.0
2023-08-16 11:33:27.342919,-139.0
2023-08-16 11:33:27.350608,-142.0
2023-08-16 11:33:27.358298,-127.0
2023-08-16 11:33:27.365987,-118.0
2023-08-16 11:33:27.373676,-125.0
2023-08-16 11:33:27.381366,-125.0
2023-08-16 11:33:27.389055,-110.0
2023-08-16 11:33:27.396744,-115.0
2023-08-16 11:33:27.404433,-123.0
2023-08-16 11:33:27.412123,-110.0
2023-08-16 11:33:27.419812,-101.0
2023-08-16 11:33:27.427501,-106.0
2023-08-16 11:33:27.435191,-108.0
2023-08-16 11:33:27.442880,-101.0
2023-08-16 11:33:27.450569,-98.0
2023-08-16 11:33:27.458258,-106.0
2023-08-16 11:33:27.465948,-115.0
2023-08-16 11:33:27.473637,-108.0
2023-08-16 11:33:27.481326,-89.0
2023-08-16 11:33:27.489016,-94.0
2023-08-16 11:33:27.496705,-108.0
2023-08-16 11:33:27.504394,-101.0
2023-08-16 11:33:27.512084,-96.0
2023-08-16 11:33:27.519773,-96.0
2023-08-16 11:33:27.527462,-101.0
2023-08-16 11:33:27.535151,-110.0
2023-08-16 11:33:27.542841,-115.0
2023-08-16 11:33:27.550530,-96.0
2023-08-16 11:33:27.558219,-72.0
2023-08-16 11:33:27.565909,-50.0
2023-08-16 11:33:27.573598,-24.0
2023-08-16 11:33:27.581287,-19.0
2023-08-16 11:33:27.588976,-38.0
2023-08-16 11:33:27.596666,-60.0
2023-08-16 11:33:27.604355,-82.0
2023-08-16 11:33:27.612044,-91.0
2023-08-16 11:33:27.619734,-79.0
2023-08-16 11:33:27.627423,-79.0
2023-08-16 11:33:27.635112,-84.0
2023-08-16 11:33:27.642801,-74.0
2023-08-16 11:33:27.650491,-67.0
2023-08-16 11:33:27.658180,-62.0
2023-08-16 11:33:27.665869,-2.0
2023-08-16 11:33:27.673559,241.0
2023-08-16 11:33:27.681248,801.0
2023-08-16 11:33:27.688937,1353.0
2023-08-16 11:33:27.696627,1126.0
2023-08-16 11:33:27.704316,180.0
2023-08-16 11:33:27.712005,-463.0
2023-08-16 11:33:27.719694,-352.0
2023-08-16 11:33:27.727384,-74.0
2023-08-16 11:33:27.735073,-106.0
2023-08-16 11:33:27.742762,-166.0
2023-08-16 11:33:27.750452,-103.0
2023-08-16 11:33:27.758141,-96.0
2023-08-16 11:33:27.765830,-115.0
2023-08-16 11:33:27.773519,-86.0
2023-08-16 11:33:27.781209,-65.0
2023-08-16 11:33:27.788898,-62.0
2023-08-16 11:33:27.796587,-43.0
2023-08-16 11:33:27.804277,-21.0
2023-08-16 11:33:27.811966,-9.0
2023-08-16 11:33:27.819655,4.0
2023-08-16 11:33:27.827344,16.0
2023-08-16 11:33:27.835034,38.0
2023-08-16 11:33:27.842723,79.0
2023-08-16 11:33:27.850412,108.0
2023-08-16 11:33:27.858102,130.0
2023-08-16 11:33:27.865791,171.0
2023-08-16 11:33:27.873480,212.0
2023-08-16 11:33:27.881170,248.0
2023-08-16 11:33:27.888859,296.0
2023-08-16 11:33:27.896548,345.0
2023-08-16 11:33:27.904237,369.0
2023-08-16 11:33:27.911927,381.0
2023-08-16 11:33:27.919616,398.0
2023-08-16 11:33:27.927305,390.0
2023-08-16 11:33:27.934995,349.0
2023-08-16 11:33:27.942684,294.0
2023-08-16 11:33:27.950373,219.0
2023-08-16 11:33:27.958062,103.0
2023-08-16 11:33:27.965752,-19.0
2023-08-16 11:33:27.973441,-113.0
2023-08-16 11:33:27.981130,-183.0
2023-08-16 11:33:27.988820,-238.0
2023-08-16 11:33:27.996509,-265.0
2023-08-16 11:33:28.004198,-284.0
2023-08-16 11:33:28.011887,-301.0
2023-08-16 11:33:28.019577,-296.0
2023-08-16 11:33:28.027266,-287.0
2023-08-16 11:33:28.034955,-282.0
2023-08-16 11:33:28.042645,-272.0
2023-08-16 11:33:28.050334,-260.0
2023-08-16 11:33:28.058023,-243.0
2023-08-16 11:33:28.065713,-231.0
2023-08-16 11:33:28.073402,-219.0
2023-08-16 11:33:28.081091,-209.0
2023-08-16 11:33:28.088780,-202.0
2023-08-16 11:33:28.096470,-193.0
2023-08-16 11:33:28.104159,-183.0
2023-08-16 11:33:28.111848,-176.0
2023-08-16 11:33:28.119538,-168.0
2023-08-16 11:33:28.127227,-161.0
2023-08-16 11:33:28.134916,-159.0
2023-08-16 11:33:28.142605,-161.0
2023-08-16 11:33:28.150295,-166.0
2023-08-16 11:33:28.157984,-164.0
2023-08-16 11:33:28.165673,-161.0
2023-08-16 11:33:28.173363,-159.0
2023-08-16 11:33:28.181052,-159.0
2023-08-16 11:33:28.188741,-152.0
2023-08-16 11:33:28.196430,-149.0
2023-08-16 11:33:28.204120,-149.0
2023-08-16 11:33:28.211809,-149.0
2023-08-16 11:33:28.219498,-159.0
2023-08-16 11:33:28.227188,-161.0
2023-08-16 11:33:28.234877,-156.0
2023-08-16 11:33:28.242566,-154.0
2023-08-16 11:33:28.250256,-156.0
2023-08-16 11:33:28.257945,-147.0
2023-08-16 11:33:28.265634,-142.0
2023-08-16 11:33:28.273323,-142.0
2023-08-16 11:33:28.281013,-139.0
2023-08-16 11:33:28.288702,-142.0
2023-08-16 11:33:28.296391,-149.0
2023-08-16 11:33:28.304081,-147.0
2023-08-16 11:33:28.311770,-135.0
2023-08-16 11:33:28.319459,-130.0
2023-08-16 11:33:28.327148,-132.0
2023-08-16 11:33:28.334838,-127.0
2023-08-16 11:33:28.342527,-120.0
2023-08-16 11:33:28.350216,-125.0
2023-08-16 11:33:28.357906,-130.0
2023-08-16 11:33:28.365595,-135.0
2023-08-16 11:33:28.373284,-137.0
2023-08-16 11:33:28.380974,-127.0
2023-08-16 11:33:28.388663,-101.0
2023-08-16 11:33:28.396352,-72.0
2023-08-16 11:33:28.404041,-62.0
2023-08-16 11:33:28.411731,-62.0
2023-08-16 11:33:28.419420,-67.0
2023-08-16 11:33:28.427109,-91.0
2023-08-16 11:33:28.434799,-118.0
2023-08-16 11:33:28.442488,-118.0
2023-08-16 11:33:28.450177,-108.0
2023-08-16 11:33:28.457866,-115.0
2023-08-16 11:33:28.465556,-113.0
2023-08-16 11:33:28.473245,-103.0
2023-08-16 11:33:28.480934,-96.0
2023-08-16 11:33:28.488624,-79.0
2023-08-16 11:33:28.496313,7.0
2023-08-16 11:33:28.504002,325.0
2023-08-16 11:33:28.511691,936.0
2023-08-16 11:33:28.519381,1300.0
2023-08-16 11:33:28.527070,820.0
2023-08-16 11:33:28.534759,-113.0
2023-08-16 11:33:28.542449,-535.0
2023-08-16 11:33:28.550138,-265.0
2023-08-16 11:33:28.557827,-62.0
2023-08-16 11:33:28.565517,-173.0
2023-08-16 11:33:28.573206,-185.0
2023-08-16 11:33:28.580895,-110.0
2023-08-16 11:33:28.588584,-123.0
2023-08-16 11:33:28.596274,-127.0
2023-08-16 11:33:28.603963,-94.0
2023-08-16 11:33:28.611652,-82.0
2023-08-16 11:33:28.619342,-77.0
2023-08-16 11:33:28.627031,-57.0
2023-08-16 11:33:28.634720,-41.0
2023-08-16 11:33:28.642409,-26.0
2023-08-16 11:33:28.650099,-12.0
2023-08-16 11:33:28.657788,7.0
2023-08-16 11:33:28.665477,33.0
2023-08-16 11:33:28.673167,62.0
2023-08-16 11:33:28.680856,89.0
2023-08-16 11:33:28.688545,118.0
2023-08-16 11:33:28.696234,154.0
2023-08-16 11:33:28.703924,195.0
2023-08-16 11:33:28.711613,229.0
2023-08-16 11:33:28.719302,265.0
2023-08-16 11:33:28.726992,306.0
2023-08-16 11:33:28.734681,337.0
2023-08-16 11:33:28.742370,347.0
2023-08-16 11:33:28.750060,345.0
2023-08-16 11:33:28.757749,323.0
2023-08-16 11:33:28.765438,277.0
2023-08-16 11:33:28.773127,209.0
2023-08-16 11:33:28.780817,118.0
2023-08-16 11:33:28.788506,12.0
2023-08-16 11:33:28.796195,-91.0
2023-08-16 11:33:28.803885,-176.0
2023-08-16 11:33:28.811574,-234.0
2023-08-16 11:33:28.819263,-272.0
2023-08-16 11:33:28.826952,-296.0
2023-08-16 11:33:28.834642,-304.0
2023-08-16 11:33:28.842331,-306.0
2023-08-16 11:33:28.850020,-301.0
2023-08-16 11:33:28.857710,-294.0
2023-08-16 11:33:28.865399,-279.0
2023-08-16 11:33:28.873088,-270.0
2023-08-16 11:33:28.880777,-263.0
2023-08-16 11:33:28.888467,-253.0
2023-08-16 11:33:28.896156,-241.0
2023-08-16 11:33:28.903845,-229.0
2023-08-16 11:33:28.911535,-217.0
2023-08-16 11:33:28.919224,-207.0
2023-08-16 11:33:28.926913,-197.0
2023-08-16 11:33:28.934603,-190.0
2023-08-16 11:33:28.942292,-183.0
2023-08-16 11:33:28.949981,-178.0
2023-08-16 11:33:28.957670,-176.0
2023-08-16 11:33:28.965360,-171.0
2023-08-16 11:33:28.973049,-168.0
2023-08-16 11:33:28.980738,-168.0
2023-08-16 11:33:28.988428,-166.0
2023-08-16 11:33:28.996117,-161.0
2023-08-16 11:33:29.003806,-159.0
2023-08-16 11:33:29.011495,-161.0
2023-08-16 11:33:29.019185,-161.0
2023-08-16 11:33:29.026874,-156.0
2023-08-16 11:33:29.034563,-152.0
2023-08-16 11:33:29.042253,-149.0
2023-08-16 11:33:29.049942,-144.0
2023-08-16 11:33:29.057631,-142.0
2023-08-16 11:33:29.065320,-142.0
2023-08-16 11:33:29.073010,-137.0
2023-08-16 11:33:29.080699,-132.0
2023-08-16 11:33:29.088388,-130.0
2023-08-16 11:33:29.096078,-127.0
2023-08-16 11:33:29.103767,-123.0
2023-08-16 11:33:29.111456,-120.0
2023-08-16 11:33:29.119146,-118.0
2023-08-16 11:33:29.126835,-118.0
2023-08-16 11:33:29.134524,-118.0
2023-08-16 11:33:29.142213,-118.0
2023-08-16 11:33:29.149903,-118.0
2023-08-16 11:33:29.157592,-115.0
2023-08-16 11:33:29.165281,-113.0
2023-08-16 11:33:29.172971,-110.0
2023-08-16 11:33:29.180660,-108.0
2023-08-16 11:33:29.188349,-103.0
2023-08-16 11:33:29.196038,-98.0
2023-08-16 11:33:29.203728,-98.0
2023-08-16 11:33:29.211417,-101.0
2023-08-16 11:33:29.219106,-101.0
2023-08-16 11:33:29.226796,-101.0
2023-08-16 11:33:29.234485,-103.0
2023-08-16 11:33:29.242174,-108.0
2023-08-16 11:33:29.249863,-118.0
2023-08-16 11:33:29.257553,-115.0
2023-08-16 11:33:29.265242,-82.0
2023-08-16 11:33:29.272931,-41.0
2023-08-16 11:33:29.280621,-33.0
2023-08-16 11:33:29.288310,-48.0
2023-08-16 11:33:29.295999,-53.0
2023-08-16 11:33:29.303689,-77.0
2023-08-16 11:33:29.311378,-106.0
2023-08-16 11:33:29.319067,-110.0
2023-08-16 11:33:29.326756,-103.0
2023-08-16 11:33:29.334446,-103.0
2023-08-16 11:33:29.342135,-101.0
2023-08-16 11:33:29.349824,-98.0
2023-08-16 11:33:29.357514,-89.0
2023-08-16 11:33:29.365203,-67.0
2023-08-16 11:33:29.372892,55.0
2023-08-16 11:33:29.380581,504.0
2023-08-16 11:33:29.388271,1196.0
2023-08-16 11:33:29.395960,1336.0
2023-08-16 11:33:29.403649,600.0
2023-08-16 11:33:29.411339,-229.0
2023-08-16 11:33:29.419028,-427.0
2023-08-16 11:33:29.426717,-156.0
2023-08-16 11:33:29.434406,-86.0
2023-08-16 11:33:29.442096,-207.0
2023-08-16 11:33:29.449785,-171.0
2023-08-16 11:33:29.457474,-115.0
2023-08-16 11:33:29.465164,-135.0
2023-08-16 11:33:29.472853,-120.0
2023-08-16 11:33:29.480542,-89.0
2023-08-16 11:33:29.488232,-84.0
2023-08-16 11:33:29.495921,-74.0
2023-08-16 11:33:29.503610,-50.0
2023-08-16 11:33:29.511299,-36.0
2023-08-16 11:33:29.518989,-31.0
2023-08-16 11:33:29.526678,-12.0
2023-08-16 11:33:29.534367,16.0
2023-08-16 11:33:29.542057,38.0
2023-08-16 11:33:29.549746,67.0
2023-08-16 11:33:29.557435,103.0
2023-08-16 11:33:29.565124,132.0
2023-08-16 11:33:29.572814,161.0
2023-08-16 11:33:29.580503,202.0
2023-08-16 11:33:29.588192,246.0
2023-08-16 11:33:29.595882,284.0
2023-08-16 11:33:29.603571,318.0
2023-08-16 11:33:29.611260,342.0
2023-08-16 11:33:29.618949,349.0
2023-08-16 11:33:29.626639,340.0
2023-08-16 11:33:29.634328,308.0
2023-08-16 11:33:29.642017,265.0
2023-08-16 11:33:29.649707,207.0
2023-08-16 11:33:29.657396,127.0
2023-08-16 11:33:29.665085,31.0
2023-08-16 11:33:29.672775,-57.0
2023-08-16 11:33:29.680464,-127.0
2023-08-16 11:33:29.688153,-180.0
2023-08-16 11:33:29.695842,-219.0
2023-08-16 11:33:29.703532,-246.0
2023-08-16 11:33:29.711221,-258.0
2023-08-16 11:33:29.718910,-258.0
2023-08-16 11:33:29.726600,-253.0
2023-08-16 11:33:29.734289,-246.0
2023-08-16 11:33:29.741978,-236.0
2023-08-16 11:33:29.749667,-226.0
2023-08-16 11:33:29.757357,-217.0
2023-08-16 11:33:29.765046,-205.0
2023-08-16 11:33:29.772735,-195.0
2023-08-16 11:33:29.780425,-185.0
2023-08-16 11:33:29.788114,-176.0
2023-08-16 11:33:29.795803,-171.0
2023-08-16 11:33:29.803493,-168.0
2023-08-16 11:33:29.811182,-164.0
2023-08-16 11:33:29.818871,-166.0
2023-08-16 11:33:29.826560,-164.0
2023-08-16 11:33:29.834250,-164.0
2023-08-16 11:33:29.841939,-171.0
2023-08-16 11:33:29.849628,-168.0
2023-08-16 11:33:29.857318,-159.0
2023-08-16 11:33:29.865007,-154.0
2023-08-16 11:33:29.872696,-156.0
2023-08-16 11:33:29.880385,-161.0
2023-08-16 11:33:29.888075,-164.0
2023-08-16 11:33:29.895764,-159.0
2023-08-16 11:33:29.903453,-152.0
2023-08-16 11:33:29.911143,-149.0
2023-08-16 11:33:29.918832,-149.0
2023-08-16 11:33:29.926521,-149.0
2023-08-16 11:33:29.934210,-149.0
2023-08-16 11:33:29.941900,-144.0
2023-08-16 11:33:29.949589,-137.0
2023-08-16 11:33:29.957278,-132.0
2023-08-16 11:33:29.964968,-130.0
2023-08-16 11:33:29.972657,-127.0
2023-08-16 11:33:29.980346,-127.0
2023-08-16 11:33:29.988036,-125.0
2023-08-16 11:33:29.995725,-118.0
2023-08-16 11:33:30.003414,-118.0
2023-08-16 11:33:30.011103,-118.0
2023-08-16 11:33:30.018793,-113.0
2023-08-16 11:33:30.026482,-110.0
2023-08-16 11:33:30.034171,-108.0
2023-08-16 11:33:30.041861,-103.0
2023-08-16 11:33:30.049550,-98.0
2023-08-16 11:33:30.057239,-101.0
2023-08-16 11:33:30.064928,-101.0
2023-08-16 11:33:30.072618,-96.0
2023-08-16 11:33:30.080307,-94.0
2023-08-16 11:33:30.087996,-94.0
2023-08-16 11:33:30.095686,-91.0
2023-08-16 11:33:30.103375,-89.0
2023-08-16 11:33:30.111064,-86.0
2023-08-16 11:33:30.118753,-89.0
2023-08-16 11:33:30.126443,-94.0
2023-08-16 11:33:30.134132,-96.0
2023-08-16 11:33:30.141821,-101.0
2023-08-16 11:33:30.149511,-106.0
2023-08-16 11:33:30.157200,-103.0
2023-08-16 11:33:30.164889,-89.0
2023-08-16 11:33:30.172579,-55.0
2023-08-16 11:33:30.180268,-21.0
2023-08-16 11:33:30.187957,-14.0
2023-08-16 11:33:30.195646,-28.0
2023-08-16 11:33:30.203336,-38.0
2023-08-16 11:33:30.211025,-65.0
2023-08-16 11:33:30.218714,-91.0
2023-08-16 11:33:30.226404,-89.0
2023-08-16 11:33:30.234093,-82.0
2023-08-16 11:33:30.241782,-84.0
2023-08-16 11:33:30.249471,-82.0
2023-08-16 11:33:30.257161,-77.0
2023-08-16 11:33:30.264850,-77.0
2023-08-16 11:33:30.272539,-55.0
2023-08-16 11:33:30.280229,55.0
2023-08-16 11:33:30.287918,470.0
2023-08-16 11:33:30.295607,1153.0
2023-08-16 11:33:30.303296,1356.0
2023-08-16 11:33:30.310986,663.0
2023-08-16 11:33:30.318675,-205.0
2023-08-16 11:33:30.326364,-448.0
2023-08-16 11:33:30.334054,-173.0
2023-08-16 11:33:30.341743,-77.0
2023-08-16 11:33:30.349432,-212.0
2023-08-16 11:33:30.357122,-193.0
2023-08-16 11:33:30.364811,-135.0
2023-08-16 11:33:30.372500,-161.0
2023-08-16 11:33:30.380189,-159.0
2023-08-16 11:33:30.387879,-118.0
2023-08-16 11:33:30.395568,-108.0
2023-08-16 11:33:30.403257,-103.0
2023-08-16 11:33:30.410947,-82.0
2023-08-16 11:33:30.418636,-69.0
2023-08-16 11:33:30.426325,-62.0
2023-08-16 11:33:30.434014,-41.0
2023-08-16 11:33:30.441704,-14.0
2023-08-16 11:33:30.449393,4.0
2023-08-16 11:33:30.457082,28.0
2023-08-16 11:33:30.464772,60.0
2023-08-16 11:33:30.472461,91.0
2023-08-16 11:33:30.480150,127.0
2023-08-16 11:33:30.487839,164.0
2023-08-16 11:33:30.495529,200.0
2023-08-16 11:33:30.503218,236.0
2023-08-16 11:33:30.510907,270.0
2023-08-16 11:33:30.518597,296.0
2023-08-16 11:33:30.526286,306.0
2023-08-16 11:33:30.533975,301.0
2023-08-16 11:33:30.541665,279.0
2023-08-16 11:33:30.549354,246.0
2023-08-16 11:33:30.557043,190.0
2023-08-16 11:33:30.564732,108.0
2023-08-16 11:33:30.572422,16.0
2023-08-16 11:33:30.580111,-72.0
2023-08-16 11:33:30.587800,-147.0
2023-08-16 11:33:30.595490,-205.0
2023-08-16 11:33:30.603179,-246.0
2023-08-16 11:33:30.610868,-270.0
2023-08-16 11:33:30.618557,-282.0
2023-08-16 11:33:30.626247,-284.0
2023-08-16 11:33:30.633936,-284.0
2023-08-16 11:33:30.641625,-277.0
2023-08-16 11:33:30.649315,-265.0
2023-08-16 11:33:30.657004,-258.0
2023-08-16 11:33:30.664693,-246.0
2023-08-16 11:33:30.672382,-236.0
2023-08-16 11:33:30.680072,-229.0
2023-08-16 11:33:30.687761,-221.0
2023-08-16 11:33:30.695450,-209.0
2023-08-16 11:33:30.703140,-197.0
2023-08-16 11:33:30.710829,-190.0
2023-08-16 11:33:30.718518,-190.0
2023-08-16 11:33:30.726208,-185.0
2023-08-16 11:33:30.733897,-176.0
2023-08-16 11:33:30.741586,-173.0
2023-08-16 11:33:30.749275,-171.0
2023-08-16 11:33:30.756965,-166.0
2023-08-16 11:33:30.764654,-164.0
2023-08-16 11:33:30.772343,-164.0
2023-08-16 11:33:30.780033,-166.0
2023-08-16 11:33:30.787722,-161.0
2023-08-16 11:33:30.795411,-154.0
2023-08-16 11:33:30.803100,-149.0
2023-08-16 11:33:30.810790,-149.0
2023-08-16 11:33:30.818479,-147.0
2023-08-16 11:33:30.826168,-152.0
2023-08-16 11:33:30.833858,-156.0
2023-08-16 11:33:30.841547,-152.0
2023-08-16 11:33:30.849236,-147.0
2023-08-16 11:33:30.856925,-147.0
2023-08-16 11:33:30.864615,-147.0
2023-08-16 11:33:30.872304,-147.0
2023-08-16 11:33:30.879993,-144.0
2023-08-16 11:33:30.887683,-135.0
2023-08-16 11:33:30.895372,-127.0
2023-08-16 11:33:30.903061,-127.0
2023-08-16 11:33:30.910751,-125.0
2023-08-16 11:33:30.918440,-120.0
2023-08-16 11:33:30.926129,-120.0
2023-08-16 11:33:30.933818,-115.0
2023-08-16 11:33:30.941508,-110.0
2023-08-16 11:33:30.949197,-113.0
2023-08-16 11:33:30.956886,-120.0
2023-08-16 11:33:30.964576,-123.0
2023-08-16 11:33:30.972265,-123.0
2023-08-16 11:33:30.979954,-118.0
2023-08-16 11:33:30.987643,-113.0
2023-08-16 11:33:30.995333,-113.0
2023-08-16 11:33:31.003022,-113.0
2023-08-16 11:33:31.010711,-108.0
2023-08-16 11:33:31.018401,-106.0
2023-08-16 11:33:31.026090,-113.0
2023-08-16 11:33:31.033779,-108.0
2023-08-16 11:33:31.041468,-101.0
2023-08-16 11:33:31.049158,-103.0
2023-08-16 11:33:31.056847,-106.0
2023-08-16 11:33:31.064536,-96.0
2023-08-16 11:33:31.072226,-89.0
2023-08-16 11:33:31.079915,-89.0
2023-08-16 11:33:31.087604,-98.0
2023-08-16 11:33:31.095294,-108.0
2023-08-16 11:33:31.102983,-108.0
2023-08-16 11:33:31.110672,-106.0
2023-08-16 11:33:31.118361,-103.0
2023-08-16 11:33:31.126051,-84.0
2023-08-16 11:33:31.133740,-45.0
2023-08-16 11:33:31.141429,-21.0
2023-08-16 11:33:31.149119,-33.0
2023-08-16 11:33:31.156808,-45.0
2023-08-16 11:33:31.164497,-55.0
2023-08-16 11:33:31.172186,-84.0
2023-08-16 11:33:31.179876,-98.0
2023-08-16 11:33:31.187565,-89.0
2023-08-16 11:33:31.195254,-86.0
2023-08-16 11:33:31.202944,-89.0
2023-08-16 11:33:31.210633,-84.0
2023-08-16 11:33:31.218322,-74.0
2023-08-16 11:33:31.226012,-62.0
2023-08-16 11:33:31.233701,-14.0
2023-08-16 11:33:31.241390,246.0
2023-08-16 11:33:31.249079,883.0
2023-08-16 11:33:31.256769,1406.0
2023-08-16 11:33:31.264458,1068.0
2023-08-16 11:33:31.272147,127.0
2023-08-16 11:33:31.279837,-441.0
2023-08-16 11:33:31.287526,-301.0
2023-08-16 11:33:31.295215,-74.0
2023-08-16 11:33:31.302904,-154.0
2023-08-16 11:33:31.310594,-209.0
2023-08-16 11:33:31.318283,-139.0
2023-08-16 11:33:31.325972,-142.0
2023-08-16 11:33:31.333662,-159.0
2023-08-16 11:33:31.341351,-115.0
2023-08-16 11:33:31.349040,-94.0
2023-08-16 11:33:31.356729,-101.0
2023-08-16 11:33:31.364419,-89.0
2023-08-16 11:33:31.372108,-72.0
2023-08-16 11:33:31.379797,-62.0
2023-08-16 11:33:31.387487,-36.0
2023-08-16 11:33:31.395176,-4.0
2023-08-16 11:33:31.402865,4.0
2023-08-16 11:33:31.410555,21.0
2023-08-16 11:33:31.418244,62.0
2023-08-16 11:33:31.425933,96.0
2023-08-16 11:33:31.433622,115.0
2023-08-16 11:33:31.441312,152.0
2023-08-16 11:33:31.449001,209.0
2023-08-16 11:33:31.456690,246.0
2023-08-16 11:33:31.464380,260.0
2023-08-16 11:33:31.472069,289.0
2023-08-16 11:33:31.479758,318.0
2023-08-16 11:33:31.487447,320.0
2023-08-16 11:33:31.495137,304.0
2023-08-16 11:33:31.502826,277.0
2023-08-16 11:33:31.510515,226.0
2023-08-16 11:33:31.518205,164.0
2023-08-16 11:33:31.525894,82.0
2023-08-16 11:33:31.533583,-16.0
2023-08-16 11:33:31.541272,-113.0
2023-08-16 11:33:31.548962,-195.0
2023-08-16 11:33:31.556651,-243.0
2023-08-16 11:33:31.564340,-267.0
2023-08-16 11:33:31.572030,-287.0
2023-08-16 11:33:31.579719,-294.0
2023-08-16 11:33:31.587408,-296.0
2023-08-16 11:33:31.595098,-296.0
2023-08-16 11:33:31.602787,-284.0
2023-08-16 11:33:31.610476,-272.0
2023-08-16 11:33:31.618165,-275.0
2023-08-16 11:33:31.625855,-267.0
2023-08-16 11:33:31.633544,-248.0
2023-08-16 11:33:31.641233,-231.0
2023-08-16 11:33:31.648923,-221.0
2023-08-16 11:33:31.656612,-217.0
2023-08-16 11:33:31.664301,-212.0
2023-08-16 11:33:31.671990,-202.0
2023-08-16 11:33:31.679680,-195.0
2023-08-16 11:33:31.687369,-188.0
2023-08-16 11:33:31.695058,-185.0
2023-08-16 11:33:31.702748,-178.0
2023-08-16 11:33:31.710437,-176.0
2023-08-16 11:33:31.718126,-178.0
2023-08-16 11:33:31.725815,-178.0
2023-08-16 11:33:31.733505,-178.0
2023-08-16 11:33:31.741194,-176.0
2023-08-16 11:33:31.748883,-171.0
2023-08-16 11:33:31.756573,-168.0
2023-08-16 11:33:31.764262,-164.0
2023-08-16 11:33:31.771951,-164.0
2023-08-16 11:33:31.779641,-161.0
2023-08-16 11:33:31.787330,-154.0
2023-08-16 11:33:31.795019,-154.0
2023-08-16 11:33:31.802708,-156.0
2023-08-16 11:33:31.810398,-154.0
2023-08-16 11:33:31.818087,-144.0
2023-08-16 11:33:31.825776,-144.0
2023-08-16 11:33:31.833466,-154.0
2023-08-16 11:33:31.841155,-149.0
2023-08-16 11:33:31.848844,-144.0
2023-08-16 11:33:31.856533,-149.0
2023-08-16 11:33:31.864223,-147.0
2023-08-16 11:33:31.871912,-135.0
2023-08-16 11:33:31.879601,-132.0
2023-08-16 11:33:31.887291,-135.0
2023-08-16 11:33:31.894980,-130.0
2023-08-16 11:33:31.902669,-125.0
2023-08-16 11:33:31.910358,-130.0
2023-08-16 11:33:31.918048,-130.0
2023-08-16 11:33:31.925737,-123.0
2023-08-16 11:33:31.933426,-118.0
2023-08-16 11:33:31.941116,-118.0
2023-08-16 11:33:31.948805,-115.0
2023-08-16 11:33:31.956494,-113.0
2023-08-16 11:33:31.964184,-110.0
2023-08-16 11:33:31.971873,-106.0
2023-08-16 11:33:31.979562,-108.0
2023-08-16 11:33:31.987251,-115.0
2023-08-16 11:33:31.994941,-113.0
2023-08-16 11:33:32.002630,-110.0
2023-08-16 11:33:32.010319,-115.0
2023-08-16 11:33:32.018009,-110.0
2023-08-16 11:33:32.025698,-72.0
2023-08-16 11:33:32.033387,-33.0
2023-08-16 11:33:32.041076,-36.0
2023-08-16 11:33:32.048766,-53.0
2023-08-16 11:33:32.056455,-60.0
2023-08-16 11:33:32.064144,-86.0
2023-08-16 11:33:32.071834,-108.0
2023-08-16 11:33:32.079523,-96.0
2023-08-16 11:33:32.087212,-91.0
2023-08-16 11:33:32.094901,-101.0
2023-08-16 11:33:32.102591,-98.0
2023-08-16 11:33:32.110280,-91.0
2023-08-16 11:33:32.117969,-86.0
2023-08-16 11:33:32.125659,-55.0
2023-08-16 11:33:32.133348,96.0
2023-08-16 11:33:32.141037,559.0
2023-08-16 11:33:32.148727,1211.0
2023-08-16 11:33:32.156416,1288.0
2023-08-16 11:33:32.164105,482.0
2023-08-16 11:33:32.171794,-369.0
2023-08-16 11:33:32.179484,-492.0
2023-08-16 11:33:32.187173,-164.0
2023-08-16 11:33:32.194862,-103.0
2023-08-16 11:33:32.202552,-221.0
2023-08-16 11:33:32.210241,-176.0
2023-08-16 11:33:32.217930,-130.0
2023-08-16 11:33:32.225619,-156.0
2023-08-16 11:33:32.233309,-135.0
2023-08-16 11:33:32.240998,-101.0
2023-08-16 11:33:32.248687,-98.0
2023-08-16 11:33:32.256377,-86.0
2023-08-16 11:33:32.264066,-69.0
2023-08-16 11:33:32.271755,-57.0
2023-08-16 11:33:32.279444,-36.0
2023-08-16 11:33:32.287134,-9.0
2023-08-16 11:33:32.294823,9.0
2023-08-16 11:33:32.302512,36.0
2023-08-16 11:33:32.310202,60.0
2023-08-16 11:33:32.317891,84.0
2023-08-16 11:33:32.325580,120.0
2023-08-16 11:33:32.333270,154.0
2023-08-16 11:33:32.340959,185.0
2023-08-16 11:33:32.348648,226.0
2023-08-16 11:33:32.356337,270.0
2023-08-16 11:33:32.364027,301.0
2023-08-16 11:33:32.371716,328.0
2023-08-16 11:33:32.379405,340.0
2023-08-16 11:33:32.387095,328.0
2023-08-16 11:33:32.394784,301.0
2023-08-16 11:33:32.402473,258.0
2023-08-16 11:33:32.410162,188.0
2023-08-16 11:33:32.417852,94.0
2023-08-16 11:33:32.425541,-7.0
2023-08-16 11:33:32.433230,-103.0
2023-08-16 11:33:32.440920,-183.0
2023-08-16 11:33:32.448609,-236.0
2023-08-16 11:33:32.456298,-272.0
2023-08-16 11:33:32.463988,-301.0
2023-08-16 11:33:32.471677,-313.0
2023-08-16 11:33:32.479366,-313.0
2023-08-16 11:33:32.487055,-304.0
2023-08-16 11:33:32.494745,-294.0
2023-08-16 11:33:32.502434,-282.0
2023-08-16 11:33:32.510123,-272.0
2023-08-16 11:33:32.517813,-260.0
2023-08-16 11:33:32.525502,-248.0
2023-08-16 11:33:32.533191,-243.0
2023-08-16 11:33:32.540880,-231.0
2023-08-16 11:33:32.548570,-214.0
2023-08-16 11:33:32.556259,-202.0
2023-08-16 11:33:32.563948,-197.0
2023-08-16 11:33:32.571638,-195.0
2023-08-16 11:33:32.579327,-188.0
2023-08-16 11:33:32.587016,-178.0
2023-08-16 11:33:32.594705,-176.0
2023-08-16 11:33:32.602395,-173.0
2023-08-16 11:33:32.610084,-171.0
2023-08-16 11:33:32.617773,-171.0
2023-08-16 11:33:32.625463,-176.0
2023-08-16 11:33:32.633152,-178.0
2023-08-16 11:33:32.640841,-173.0
2023-08-16 11:33:32.648531,-168.0
2023-08-16 11:33:32.656220,-171.0
2023-08-16 11:33:32.663909,-166.0
2023-08-16 11:33:32.671598,-164.0
2023-08-16 11:33:32.679288,-164.0
2023-08-16 11:33:32.686977,-156.0
2023-08-16 11:33:32.694666,-152.0
2023-08-16 11:33:32.702356,-147.0
2023-08-16 11:33:32.710045,-144.0
2023-08-16 11:33:32.717734,-142.0
2023-08-16 11:33:32.725423,-142.0
2023-08-16 11:33:32.733113,-135.0
2023-08-16 11:33:32.740802,-130.0
2023-08-16 11:33:32.748491,-130.0
2023-08-16 11:33:32.756181,-130.0
2023-08-16 11:33:32.763870,-127.0
2023-08-16 11:33:32.771559,-125.0
2023-08-16 11:33:32.779248,-123.0
2023-08-16 11:33:32.786938,-118.0
2023-08-16 11:33:32.794627,-115.0
2023-08-16 11:33:32.802316,-118.0
2023-08-16 11:33:32.810006,-113.0
2023-08-16 11:33:32.817695,-108.0
2023-08-16 11:33:32.825384,-103.0
2023-08-16 11:33:32.833074,-108.0
2023-08-16 11:33:32.840763,-120.0
2023-08-16 11:33:32.848452,-125.0
2023-08-16 11:33:32.856141,-123.0
2023-08-16 11:33:32.863831,-123.0
2023-08-16 11:33:32.871520,-127.0
2023-08-16 11:33:32.879209,-123.0
2023-08-16 11:33:32.886899,-106.0
2023-08-16 11:33:32.894588,-79.0
2023-08-16 11:33:32.902277,-50.0
2023-08-16 11:33:32.909966,-36.0
2023-08-16 11:33:32.917656,-43.0
2023-08-16 11:33:32.925345,-55.0
2023-08-16 11:33:32.933034,-77.0
2023-08-16 11:33:32.940724,-101.0
2023-08-16 11:33:32.948413,-101.0
2023-08-16 11:33:32.956102,-94.0
2023-08-16 11:33:32.963791,-94.0
2023-08-16 11:33:32.971481,-94.0
2023-08-16 11:33:32.979170,-89.0
2023-08-16 11:33:32.986859,-89.0
2023-08-16 11:33:32.994549,-72.0
2023-08-16 11:33:33.002238,41.0
2023-08-16 11:33:33.009927,448.0
2023-08-16 11:33:33.017617,1129.0
2023-08-16 11:33:33.025306,1363.0
2023-08-16 11:33:33.032995,678.0
2023-08-16 11:33:33.040684,-224.0
2023-08-16 11:33:33.048374,-475.0
2023-08-16 11:33:33.056063,-178.0
2023-08-16 11:33:33.063752,-72.0
2023-08-16 11:33:33.071442,-207.0
2023-08-16 11:33:33.079131,-188.0
2023-08-16 11:33:33.086820,-130.0
2023-08-16 11:33:33.094509,-149.0
2023-08-16 11:33:33.102199,-139.0
2023-08-16 11:33:33.109888,-106.0
2023-08-16 11:33:33.117577,-101.0
2023-08-16 11:33:33.125267,-94.0
2023-08-16 11:33:33.132956,-72.0
2023-08-16 11:33:33.140645,-53.0
2023-08-16 11:33:33.148334,-38.0
2023-08-16 11:33:33.156024,-16.0
2023-08-16 11:33:33.163713,4.0
2023-08-16 11:33:33.171402,24.0
2023-08-16 11:33:33.179092,53.0
2023-08-16 11:33:33.186781,84.0
2023-08-16 11:33:33.194470,115.0
2023-08-16 11:33:33.202160,149.0
2023-08-16 11:33:33.209849,180.0
2023-08-16 11:33:33.217538,212.0
2023-08-16 11:33:33.225227,250.0
2023-08-16 11:33:33.232917,289.0
2023-08-16 11:33:33.240606,311.0
2023-08-16 11:33:33.248295,318.0
2023-08-16 11:33:33.255985,316.0
2023-08-16 11:33:33.263674,291.0
2023-08-16 11:33:33.271363,246.0
2023-08-16 11:33:33.279052,197.0
2023-08-16 11:33:33.286742,123.0
2023-08-16 11:33:33.294431,14.0
2023-08-16 11:33:33.302120,-86.0
2023-08-16 11:33:33.309810,-156.0
2023-08-16 11:33:33.317499,-212.0
2023-08-16 11:33:33.325188,-255.0
2023-08-16 11:33:33.332877,-277.0
2023-08-16 11:33:33.340567,-287.0
2023-08-16 11:33:33.348256,-291.0
2023-08-16 11:33:33.355945,-294.0
2023-08-16 11:33:33.363635,-289.0
2023-08-16 11:33:33.371324,-279.0
2023-08-16 11:33:33.379013,-263.0
2023-08-16 11:33:33.386703,-255.0
2023-08-16 11:33:33.394392,-250.0
2023-08-16 11:33:33.402081,-238.0
2023-08-16 11:33:33.409770,-221.0
2023-08-16 11:33:33.417460,-212.0
2023-08-16 11:33:33.425149,-207.0
2023-08-16 11:33:33.432838,-202.0
2023-08-16 11:33:33.440528,-193.0
2023-08-16 11:33:33.448217,-180.0
2023-08-16 11:33:33.455906,-176.0
2023-08-16 11:33:33.463595,-176.0
2023-08-16 11:33:33.471285,-171.0
2023-08-16 11:33:33.478974,-164.0
2023-08-16 11:33:33.486663,-161.0
2023-08-16 11:33:33.494353,-166.0
2023-08-16 11:33:33.502042,-164.0
2023-08-16 11:33:33.509731,-156.0
2023-08-16 11:33:33.517420,-156.0
2023-08-16 11:33:33.525110,-159.0
2023-08-16 11:33:33.532799,-159.0
2023-08-16 11:33:33.540488,-152.0
2023-08-16 11:33:33.548178,-144.0
2023-08-16 11:33:33.555867,-144.0
2023-08-16 11:33:33.563556,-139.0
2023-08-16 11:33:33.571246,-139.0
2023-08-16 11:33:33.578935,-142.0
2023-08-16 11:33:33.586624,-139.0
2023-08-16 11:33:33.594313,-132.0
2023-08-16 11:33:33.602003,-127.0
2023-08-16 11:33:33.609692,-123.0
2023-08-16 11:33:33.617381,-120.0
2023-08-16 11:33:33.625071,-115.0
2023-08-16 11:33:33.632760,-113.0
2023-08-16 11:33:33.640449,-113.0
2023-08-16 11:33:33.648138,-110.0
2023-08-16 11:33:33.655828,-106.0
2023-08-16 11:33:33.663517,-103.0
2023-08-16 11:33:33.671206,-103.0
2023-08-16 11:33:33.678896,-101.0
2023-08-16 11:33:33.686585,-96.0
2023-08-16 11:33:33.694274,-94.0
2023-08-16 11:33:33.701963,-94.0
2023-08-16 11:33:33.709653,-98.0
2023-08-16 11:33:33.717342,-98.0
2023-08-16 11:33:33.725031,-96.0
2023-08-16 11:33:33.732721,-91.0
2023-08-16 11:33:33.740410,-91.0
2023-08-16 11:33:33.748099,-91.0
2023-08-16 11:33:33.755789,-86.0
2023-08-16 11:33:33.763478,-89.0
2023-08-16 11:33:33.771167,-101.0
2023-08-16 11:33:33.778856,-106.0
2023-08-16 11:33:33.786546,-101.0
2023-08-16 11:33:33.794235,-86.0
2023-08-16 11:33:33.801924,-62.0
2023-08-16 11:33:33.809614,-33.0
2023-08-16 11:33:33.817303,-31.0
2023-08-16 11:33:33.824992,-43.0
2023-08-16 11:33:33.832681,-55.0
2023-08-16 11:33:33.840371,-79.0
2023-08-16 11:33:33.848060,-108.0
2023-08-16 11:33:33.855749,-115.0
2023-08-16 11:33:33.863439,-110.0
2023-08-16 11:33:33.871128,-110.0
2023-08-16 11:33:33.878817,-108.0
2023-08-16 11:33:33.886507,-101.0
2023-08-16 11:33:33.894196,-94.0
2023-08-16 11:33:33.901885,-67.0
2023-08-16 11:33:33.909574,84.0
2023-08-16 11:33:33.917264,586.0
2023-08-16 11:33:33.924953,1286.0
2023-08-16 11:33:33.932642,1346.0
2023-08-16 11:33:33.940332,509.0
2023-08-16 11:33:33.948021,-323.0
2023-08-16 11:33:33.955710,-415.0
2023-08-16 11:33:33.963399,-120.0
2023-08-16 11:33:33.971089,-106.0
2023-08-16 11:33:33.978778,-229.0
2023-08-16 11:33:33.986467,-180.0
2023-08-16 11:33:33.994157,-139.0
2023-08-16 11:33:34.001846,-161.0
2023-08-16 11:33:34.009535,-142.0
2023-08-16 11:33:34.017224,-110.0
2023-08-16 11:33:34.024914,-106.0
2023-08-16 11:33:34.032603,-91.0
2023-08-16 11:33:34.040292,-72.0
2023-08-16 11:33:34.047982,-60.0
2023-08-16 11:33:34.055671,-38.0
2023-08-16 11:33:34.063360,-16.0
2023-08-16 11:33:34.071050,-2.0
2023-08-16 11:33:34.078739,26.0
2023-08-16 11:33:34.086428,57.0
2023-08-16 11:33:34.094117,84.0
2023-08-16 11:33:34.101807,113.0
2023-08-16 11:33:34.109496,149.0
2023-08-16 11:33:34.117185,185.0
2023-08-16 11:33:34.124875,221.0
2023-08-16 11:33:34.132564,258.0
2023-08-16 11:33:34.140253,289.0
2023-08-16 11:33:34.147942,311.0
2023-08-16 11:33:34.155632,316.0
2023-08-16 11:33:34.163321,311.0
2023-08-16 11:33:34.171010,287.0
2023-08-16 11:33:34.178700,243.0
2023-08-16 11:33:34.186389,185.0
2023-08-16 11:33:34.194078,110.0
2023-08-16 11:33:34.201767,19.0
2023-08-16 11:33:34.209457,-69.0
2023-08-16 11:33:34.217146,-142.0
2023-08-16 11:33:34.224835,-195.0
2023-08-16 11:33:34.232525,-231.0
2023-08-16 11:33:34.240214,-250.0
2023-08-16 11:33:34.247903,-267.0
2023-08-16 11:33:34.255593,-275.0
2023-08-16 11:33:34.263282,-265.0
2023-08-16 11:33:34.270971,-255.0
2023-08-16 11:33:34.278660,-250.0
2023-08-16 11:33:34.286350,-241.0
2023-08-16 11:33:34.294039,-229.0
2023-08-16 11:33:34.301728,-219.0
2023-08-16 11:33:34.309418,-214.0
2023-08-16 11:33:34.317107,-205.0
2023-08-16 11:33:34.324796,-197.0
2023-08-16 11:33:34.332485,-195.0
2023-08-16 11:33:34.340175,-197.0
2023-08-16 11:33:34.347864,-193.0
2023-08-16 11:33:34.355553,-190.0
2023-08-16 11:33:34.363243,-193.0
2023-08-16 11:33:34.370932,-185.0
2023-08-16 11:33:34.378621,-180.0
2023-08-16 11:33:34.386310,-185.0
2023-08-16 11:33:34.394000,-183.0
2023-08-16 11:33:34.401689,-173.0
2023-08-16 11:33:34.409378,-166.0
2023-08-16 11:33:34.417068,-164.0
2023-08-16 11:33:34.424757,-164.0
2023-08-16 11:33:34.432446,-166.0
2023-08-16 11:33:34.440136,-164.0
2023-08-16 11:33:34.447825,-159.0
2023-08-16 11:33:34.455514,-156.0
2023-08-16 11:33:34.463203,-154.0
2023-08-16 11:33:34.470893,-149.0
2023-08-16 11:33:34.478582,-147.0
2023-08-16 11:33:34.486271,-147.0
2023-08-16 11:33:34.493961,-144.0
2023-08-16 11:33:34.501650,-139.0
2023-08-16 11:33:34.509339,-135.0
2023-08-16 11:33:34.517028,-132.0
2023-08-16 11:33:34.524718,-130.0
2023-08-16 11:33:34.532407,-127.0
2023-08-16 11:33:34.540096,-127.0
2023-08-16 11:33:34.547786,-125.0
2023-08-16 11:33:34.555475,-120.0
2023-08-16 11:33:34.563164,-123.0
2023-08-16 11:33:34.570853,-123.0
2023-08-16 11:33:34.578543,-118.0
2023-08-16 11:33:34.586232,-120.0
2023-08-16 11:33:34.593921,-115.0
2023-08-16 11:33:34.601611,-110.0
2023-08-16 11:33:34.609300,-113.0
2023-08-16 11:33:34.616989,-115.0
2023-08-16 11:33:34.624679,-113.0
2023-08-16 11:33:34.632368,-108.0
2023-08-16 11:33:34.640057,-110.0
2023-08-16 11:33:34.647746,-115.0
2023-08-16 11:33:34.655436,-113.0
2023-08-16 11:33:34.663125,-108.0
2023-08-16 11:33:34.670814,-106.0
2023-08-16 11:33:34.678504,-103.0
2023-08-16 11:33:34.686193,-103.0
2023-08-16 11:33:34.693882,-106.0
2023-08-16 11:33:34.701571,-115.0
2023-08-16 11:33:34.709261,-118.0
2023-08-16 11:33:34.716950,-106.0
2023-08-16 11:33:34.724639,-82.0
2023-08-16 11:33:34.732329,-50.0
2023-08-16 11:33:34.740018,-21.0
2023-08-16 11:33:34.747707,-24.0
2023-08-16 11:33:34.755396,-38.0
2023-08-16 11:33:34.763086,-55.0
2023-08-16 11:33:34.770775,-89.0
2023-08-16 11:33:34.778464,-106.0
2023-08-16 11:33:34.786154,-96.0
2023-08-16 11:33:34.793843,-98.0
2023-08-16 11:33:34.801532,-103.0
2023-08-16 11:33:34.809222,-98.0
2023-08-16 11:33:34.816911,-94.0
2023-08-16 11:33:34.824600,-77.0
2023-08-16 11:33:34.832289,-12.0
2023-08-16 11:33:34.839979,260.0
2023-08-16 11:33:34.847668,907.0
2023-08-16 11:33:34.855357,1438.0
2023-08-16 11:33:34.863047,1073.0
2023-08-16 11:33:34.870736,82.0
2023-08-16 11:33:34.878425,-492.0
2023-08-16 11:33:34.886114,-318.0
2023-08-16 11:33:34.893804,-84.0
2023-08-16 11:33:34.901493,-180.0
2023-08-16 11:33:34.909182,-234.0
2023-08-16 11:33:34.916872,-159.0
2023-08-16 11:33:34.924561,-156.0
2023-08-16 11:33:34.932250,-173.0
2023-08-16 11:33:34.939939,-137.0
2023-08-16 11:33:34.947629,-118.0
2023-08-16 11:33:34.955318,-113.0
2023-08-16 11:33:34.963007,-94.0
2023-08-16 11:33:34.970697,-74.0
2023-08-16 11:33:34.978386,-55.0
2023-08-16 11:33:34.986075,-28.0
2023-08-16 11:33:34.993765,-9.0
2023-08-16 11:33:35.001454,2.0
2023-08-16 11:33:35.009143,28.0
2023-08-16 11:33:35.016832,65.0
2023-08-16 11:33:35.024522,89.0
2023-08-16 11:33:35.032211,118.0
2023-08-16 11:33:35.039900,161.0
2023-08-16 11:33:35.047590,197.0
2023-08-16 11:33:35.055279,231.0
2023-08-16 11:33:35.062968,263.0
2023-08-16 11:33:35.070657,289.0
2023-08-16 11:33:35.078347,301.0
2023-08-16 11:33:35.086036,296.0
2023-08-16 11:33:35.093725,287.0
2023-08-16 11:33:35.101415,263.0
2023-08-16 11:33:35.109104,209.0
2023-08-16 11:33:35.116793,135.0
2023-08-16 11:33:35.124482,50.0
2023-08-16 11:33:35.132172,-36.0
2023-08-16 11:33:35.139861,-123.0
2023-08-16 11:33:35.147550,-195.0
2023-08-16 11:33:35.155240,-241.0
2023-08-16 11:33:35.162929,-270.0
2023-08-16 11:33:35.170618,-289.0
2023-08-16 11:33:35.178308,-294.0
2023-08-16 11:33:35.185997,-294.0
2023-08-16 11:33:35.193686,-291.0
2023-08-16 11:33:35.201375,-277.0
2023-08-16 11:33:35.209065,-260.0
2023-08-16 11:33:35.216754,-255.0
2023-08-16 11:33:35.224443,-248.0
2023-08-16 11:33:35.232133,-236.0
2023-08-16 11:33:35.239822,-226.0
2023-08-16 11:33:35.247511,-217.0
2023-08-16 11:33:35.255200,-207.0
2023-08-16 11:33:35.262890,-205.0
2023-08-16 11:33:35.270579,-197.0
2023-08-16 11:33:35.278268,-183.0
2023-08-16 11:33:35.285958,-185.0
2023-08-16 11:33:35.293647,-195.0
2023-08-16 11:33:35.301336,-188.0
2023-08-16 11:33:35.309026,-178.0
2023-08-16 11:33:35.316715,-180.0
2023-08-16 11:33:35.324404,-183.0
2023-08-16 11:33:35.332093,-178.0
2023-08-16 11:33:35.339783,-176.0
2023-08-16 11:33:35.347472,-173.0
2023-08-16 11:33:35.355161,-166.0
2023-08-16 11:33:35.362851,-164.0
2023-08-16 11:33:35.370540,-176.0
2023-08-16 11:33:35.378229,-183.0
2023-08-16 11:33:35.385918,-173.0
2023-08-16 11:33:35.393608,-164.0
2023-08-16 11:33:35.401297,-159.0
2023-08-16 11:33:35.408986,-161.0
2023-08-16 11:33:35.416676,-159.0
2023-08-16 11:33:35.424365,-154.0
2023-08-16 11:33:35.432054,-154.0
2023-08-16 11:33:35.439743,-149.0
2023-08-16 11:33:35.447433,-147.0
2023-08-16 11:33:35.455122,-149.0
2023-08-16 11:33:35.462811,-156.0
2023-08-16 11:33:35.470501,-152.0
2023-08-16 11:33:35.478190,-152.0
2023-08-16 11:33:35.485879,-152.0
2023-08-16 11:33:35.493569,-139.0
2023-08-16 11:33:35.501258,-135.0
2023-08-16 11:33:35.508947,-142.0
2023-08-16 11:33:35.516636,-144.0
2023-08-16 11:33:35.524326,-135.0
2023-08-16 11:33:35.532015,-125.0
2023-08-16 11:33:35.539704,-130.0
2023-08-16 11:33:35.547394,-142.0
2023-08-16 11:33:35.555083,-149.0
2023-08-16 11:33:35.562772,-149.0
2023-08-16 11:33:35.570461,-144.0
2023-08-16 11:33:35.578151,-132.0
2023-08-16 11:33:35.585840,-115.0
2023-08-16 11:33:35.593529,-94.0
2023-08-16 11:33:35.601219,-69.0
2023-08-16 11:33:35.608908,-67.0
2023-08-16 11:33:35.616597,-77.0
2023-08-16 11:33:35.624286,-84.0
2023-08-16 11:33:35.631976,-110.0
2023-08-16 11:33:35.639665,-132.0
2023-08-16 11:33:35.647354,-125.0
2023-08-16 11:33:35.655044,-113.0
2023-08-16 11:33:35.662733,-110.0
2023-08-16 11:33:35.670422,-108.0
2023-08-16 11:33:35.678112,-108.0
2023-08-16 11:33:35.685801,-96.0
2023-08-16 11:33:35.693490,-26.0
2023-08-16 11:33:35.701179,246.0
2023-08-16 11:33:35.708869,849.0
2023-08-16 11:33:35.716558,1360.0
2023-08-16 11:33:35.724247,1035.0
2023-08-16 11:33:35.731937,55.0
2023-08-16 11:33:35.739626,-533.0
2023-08-16 11:33:35.747315,-349.0
2023-08-16 11:33:35.755004,-94.0
2023-08-16 11:33:35.762694,-173.0
2023-08-16 11:33:35.770383,-221.0
2023-08-16 11:33:35.778072,-152.0
2023-08-16 11:33:35.785762,-156.0
2023-08-16 11:33:35.793451,-171.0
2023-08-16 11:33:35.801140,-132.0
2023-08-16 11:33:35.808829,-113.0
2023-08-16 11:33:35.816519,-115.0
2023-08-16 11:33:35.824208,-96.0
2023-08-16 11:33:35.831897,-69.0
2023-08-16 11:33:35.839587,-60.0
2023-08-16 11:33:35.847276,-43.0
2023-08-16 11:33:35.854965,-14.0
2023-08-16 11:33:35.862655,7.0
2023-08-16 11:33:35.870344,26.0
2023-08-16 11:33:35.878033,50.0
2023-08-16 11:33:35.885722,82.0
2023-08-16 11:33:35.893412,118.0
2023-08-16 11:33:35.901101,156.0
2023-08-16 11:33:35.908790,193.0
2023-08-16 11:33:35.916480,234.0
2023-08-16 11:33:35.924169,272.0
2023-08-16 11:33:35.931858,299.0
2023-08-16 11:33:35.939547,316.0
2023-08-16 11:33:35.947237,316.0
2023-08-16 11:33:35.954926,296.0
2023-08-16 11:33:35.962615,260.0
2023-08-16 11:33:35.970305,207.0
2023-08-16 11:33:35.977994,127.0
2023-08-16 11:33:35.985683,26.0
2023-08-16 11:33:35.993372,-72.0
2023-08-16 11:33:36.001062,-161.0
2023-08-16 11:33:36.008751,-231.0
2023-08-16 11:33:36.016440,-270.0
2023-08-16 11:33:36.024130,-294.0
2023-08-16 11:33:36.031819,-316.0
2023-08-16 11:33:36.039508,-320.0
2023-08-16 11:33:36.047198,-311.0
2023-08-16 11:33:36.054887,-306.0
2023-08-16 11:33:36.062576,-301.0
2023-08-16 11:33:36.070265,-294.0
2023-08-16 11:33:36.077955,-287.0
2023-08-16 11:33:36.085644,-277.0
2023-08-16 11:33:36.093333,-267.0
2023-08-16 11:33:36.101023,-250.0
2023-08-16 11:33:36.108712,-231.0
2023-08-16 11:33:36.116401,-224.0
2023-08-16 11:33:36.124090,-226.0
2023-08-16 11:33:36.131780,-217.0
2023-08-16 11:33:36.139469,-202.0
2023-08-16 11:33:36.147158,-200.0
2023-08-16 11:33:36.154848,-197.0
2023-08-16 11:33:36.162537,-188.0
2023-08-16 11:33:36.170226,-183.0
2023-08-16 11:33:36.177915,-180.0
2023-08-16 11:33:36.185605,-180.0
2023-08-16 11:33:36.193294,-178.0
2023-08-16 11:33:36.200983,-171.0
2023-08-16 11:33:36.208673,-168.0
2023-08-16 11:33:36.216362,-166.0
2023-08-16 11:33:36.224051,-166.0
2023-08-16 11:33:36.231741,-166.0
2023-08-16 11:33:36.239430,-164.0
2023-08-16 11:33:36.247119,-159.0
2023-08-16 11:33:36.254808,-156.0
2023-08-16 11:33:36.262498,-152.0
2023-08-16 11:33:36.270187,-147.0
2023-08-16 11:33:36.277876,-144.0
2023-08-16 11:33:36.285566,-147.0
2023-08-16 11:33:36.293255,-142.0
2023-08-16 11:33:36.300944,-137.0
2023-08-16 11:33:36.308633,-132.0
2023-08-16 11:33:36.316323,-130.0
2023-08-16 11:33:36.324012,-127.0
2023-08-16 11:33:36.331701,-127.0
2023-08-16 11:33:36.339391,-125.0
2023-08-16 11:33:36.347080,-123.0
2023-08-16 11:33:36.354769,-123.0
2023-08-16 11:33:36.362458,-118.0
2023-08-16 11:33:36.370148,-110.0
2023-08-16 11:33:36.377837,-110.0
2023-08-16 11:33:36.385526,-108.0
2023-08-16 11:33:36.393216,-106.0
2023-08-16 11:33:36.400905,-106.0
2023-08-16 11:33:36.408594,-106.0
2023-08-16 11:33:36.416284,-101.0
2023-08-16 11:33:36.423973,-106.0
2023-08-16 11:33:36.431662,-110.0
2023-08-16 11:33:36.439351,-108.0
2023-08-16 11:33:36.447041,-94.0
2023-08-16 11:33:36.454730,-65.0
2023-08-16 11:33:36.462419,-28.0
2023-08-16 11:33:36.470109,-16.0
2023-08-16 11:33:36.477798,-28.0
2023-08-16 11:33:36.485487,-41.0
2023-08-16 11:33:36.493176,-69.0
2023-08-16 11:33:36.500866,-98.0
2023-08-16 11:33:36.508555,-91.0
2023-08-16 11:33:36.516244,-82.0
2023-08-16 11:33:36.523934,-89.0
2023-08-16 11:33:36.531623,-89.0
2023-08-16 11:33:36.539312,-94.0
2023-08-16 11:33:36.547001,-96.0
2023-08-16 11:33:36.554691,-62.0
2023-08-16 11:33:36.562380,103.0
2023-08-16 11:33:36.570069,617.0
2023-08-16 11:33:36.577759,1310.0
2023-08-16 11:33:36.585448,1327.0
2023-08-16 11:33:36.593137,458.0
2023-08-16 11:33:36.600827,-364.0
2023-08-16 11:33:36.608516,-436.0
2023-08-16 11:33:36.616205,-137.0
2023-08-16 11:33:36.623894,-132.0
2023-08-16 11:33:36.631584,-258.0
2023-08-16 11:33:36.639273,-202.0
2023-08-16 11:33:36.646962,-161.0
2023-08-16 11:33:36.654652,-185.0
2023-08-16 11:33:36.662341,-164.0
2023-08-16 11:33:36.670030,-132.0
2023-08-16 11:33:36.677719,-130.0
2023-08-16 11:33:36.685409,-115.0
2023-08-16 11:33:36.693098,-89.0
2023-08-16 11:33:36.700787,-74.0
2023-08-16 11:33:36.708477,-57.0
2023-08-16 11:33:36.716166,-33.0
2023-08-16 11:33:36.723855,-14.0
2023-08-16 11:33:36.731545,7.0
2023-08-16 11:33:36.739234,41.0
2023-08-16 11:33:36.746923,74.0
2023-08-16 11:33:36.754612,106.0
2023-08-16 11:33:36.762302,142.0
2023-08-16 11:33:36.769991,178.0
2023-08-16 11:33:36.777680,212.0
2023-08-16 11:33:36.785370,246.0
2023-08-16 11:33:36.793059,279.0
2023-08-16 11:33:36.800748,299.0
2023-08-16 11:33:36.808437,304.0
2023-08-16 11:33:36.816127,284.0
2023-08-16 11:33:36.823816,255.0
2023-08-16 11:33:36.831505,224.0
2023-08-16 11:33:36.839195,164.0
2023-08-16 11:33:36.846884,77.0
2023-08-16 11:33:36.854573,-14.0
2023-08-16 11:33:36.862262,-98.0
2023-08-16 11:33:36.869952,-166.0
2023-08-16 11:33:36.877641,-209.0
2023-08-16 11:33:36.885330,-241.0
2023-08-16 11:33:36.893020,-263.0
2023-08-16 11:33:36.900709,-272.0
2023-08-16 11:33:36.908398,-272.0
2023-08-16 11:33:36.916088,-263.0
2023-08-16 11:33:36.923777,-250.0
2023-08-16 11:33:36.931466,-241.0
2023-08-16 11:33:36.939155,-231.0
2023-08-16 11:33:36.946845,-219.0
2023-08-16 11:33:36.954534,-209.0
2023-08-16 11:33:36.962223,-200.0
2023-08-16 11:33:36.969913,-190.0
2023-08-16 11:33:36.977602,-180.0
2023-08-16 11:33:36.985291,-176.0
2023-08-16 11:33:36.992980,-173.0
2023-08-16 11:33:37.000670,-168.0
2023-08-16 11:33:37.008359,-161.0
2023-08-16 11:33:37.016048,-159.0
2023-08-16 11:33:37.023738,-159.0
2023-08-16 11:33:37.031427,-156.0
2023-08-16 11:33:37.039116,-154.0
2023-08-16 11:33:37.046805,-156.0
2023-08-16 11:33:37.054495,-152.0
2023-08-16 11:33:37.062184,-144.0
2023-08-16 11:33:37.069873,-144.0
2023-08-16 11:33:37.077563,-149.0
2023-08-16 11:33:37.085252,-154.0
2023-08-16 11:33:37.092941,-152.0
2023-08-16 11:33:37.100631,-147.0
2023-08-16 11:33:37.108320,-144.0
2023-08-16 11:33:37.116009,-139.0
2023-08-16 11:33:37.123698,-137.0
2023-08-16 11:33:37.131388,-137.0
2023-08-16 11:33:37.139077,-135.0
2023-08-16 11:33:37.146766,-132.0
2023-08-16 11:33:37.154456,-130.0
2023-08-16 11:33:37.162145,-125.0
2023-08-16 11:33:37.169834,-125.0
2023-08-16 11:33:37.177523,-135.0
2023-08-16 11:33:37.185213,-135.0
2023-08-16 11:33:37.192902,-123.0
2023-08-16 11:33:37.200591,-118.0
2023-08-16 11:33:37.208281,-118.0
2023-08-16 11:33:37.215970,-115.0
2023-08-16 11:33:37.223659,-110.0
2023-08-16 11:33:37.231348,-110.0
2023-08-16 11:33:37.239038,-106.0
2023-08-16 11:33:37.246727,-103.0
2023-08-16 11:33:37.254416,-101.0
2023-08-16 11:33:37.262106,-98.0
2023-08-16 11:33:37.269795,-98.0
2023-08-16 11:33:37.277484,-96.0
2023-08-16 11:33:37.285174,-96.0
2023-08-16 11:33:37.292863,-94.0
2023-08-16 11:33:37.300552,-89.0
2023-08-16 11:33:37.308241,-91.0
2023-08-16 11:33:37.315931,-101.0
2023-08-16 11:33:37.323620,-106.0
2023-08-16 11:33:37.331309,-103.0
2023-08-16 11:33:37.338999,-86.0
2023-08-16 11:33:37.346688,-57.0
2023-08-16 11:33:37.354377,-28.0
2023-08-16 11:33:37.362066,-19.0
2023-08-16 11:33:37.369756,-24.0
2023-08-16 11:33:37.377445,-36.0
2023-08-16 11:33:37.385134,-60.0
2023-08-16 11:33:37.392824,-86.0
2023-08-16 11:33:37.400513,-89.0
2023-08-16 11:33:37.408202,-82.0
2023-08-16 11:33:37.415891,-84.0
2023-08-16 11:33:37.423581,-82.0
2023-08-16 11:33:37.431270,-72.0
2023-08-16 11:33:37.438959,-65.0
2023-08-16 11:33:37.446649,-41.0
2023-08-16 11:33:37.454338,96.0
2023-08-16 11:33:37.462027,567.0
2023-08-16 11:33:37.469717,1276.0
2023-08-16 11:33:37.477406,1411.0
2023-08-16 11:33:37.485095,624.0
2023-08-16 11:33:37.492784,-250.0
2023-08-16 11:33:37.500474,-427.0
2023-08-16 11:33:37.508163,-137.0
2023-08-16 11:33:37.515852,-94.0
2023-08-16 11:33:37.523542,-229.0
2023-08-16 11:33:37.531231,-193.0
2023-08-16 11:33:37.538920,-139.0
2023-08-16 11:33:37.546609,-168.0
2023-08-16 11:33:37.554299,-156.0
2023-08-16 11:33:37.561988,-118.0
2023-08-16 11:33:37.569677,-110.0
2023-08-16 11:33:37.577367,-103.0
2023-08-16 11:33:37.585056,-84.0
2023-08-16 11:33:37.592745,-69.0
2023-08-16 11:33:37.600434,-62.0
2023-08-16 11:33:37.608124,-36.0
2023-08-16 11:33:37.615813,-2.0
2023-08-16 11:33:37.623502,16.0
2023-08-16 11:33:37.631192,41.0
2023-08-16 11:33:37.638881,77.0
2023-08-16 11:33:37.646570,110.0
2023-08-16 11:33:37.654260,144.0
2023-08-16 11:33:37.661949,183.0
2023-08-16 11:33:37.669638,219.0
2023-08-16 11:33:37.677327,253.0
2023-08-16 11:33:37.685017,282.0
2023-08-16 11:33:37.692706,299.0
2023-08-16 11:33:37.700395,306.0
2023-08-16 11:33:37.708085,299.0
2023-08-16 11:33:37.715774,263.0
2023-08-16 11:33:37.723463,214.0
2023-08-16 11:33:37.731152,164.0
2023-08-16 11:33:37.738842,86.0
2023-08-16 11:33:37.746531,-7.0
2023-08-16 11:33:37.754220,-91.0
2023-08-16 11:33:37.761910,-161.0
2023-08-16 11:33:37.769599,-214.0
2023-08-16 11:33:37.777288,-248.0
2023-08-16 11:33:37.784977,-270.0
2023-08-16 11:33:37.792667,-279.0
2023-08-16 11:33:37.800356,-282.0
2023-08-16 11:33:37.808045,-277.0
2023-08-16 11:33:37.815735,-265.0
2023-08-16 11:33:37.823424,-255.0
2023-08-16 11:33:37.831113,-248.0
2023-08-16 11:33:37.838803,-236.0
2023-08-16 11:33:37.846492,-224.0
2023-08-16 11:33:37.854181,-214.0
2023-08-16 11:33:37.861870,-205.0
2023-08-16 11:33:37.869560,-197.0
2023-08-16 11:33:37.877249,-193.0
2023-08-16 11:33:37.884938,-188.0
2023-08-16 11:33:37.892628,-180.0
2023-08-16 11:33:37.900317,-176.0
2023-08-16 11:33:37.908006,-171.0
2023-08-16 11:33:37.915695,-166.0
2023-08-16 11:33:37.923385,-168.0
2023-08-16 11:33:37.931074,-164.0
2023-08-16 11:33:37.938763,-159.0
2023-08-16 11:33:37.946453,-159.0
2023-08-16 11:33:37.954142,-156.0
2023-08-16 11:33:37.961831,-152.0
2023-08-16 11:33:37.969521,-154.0
2023-08-16 11:33:37.977210,-154.0
2023-08-16 11:33:37.984899,-152.0
2023-08-16 11:33:37.992588,-147.0
2023-08-16 11:33:38.000278,-142.0
2023-08-16 11:33:38.007967,-147.0
2023-08-16 11:33:38.015656,-149.0
2023-08-16 11:33:38.023346,-144.0
2023-08-16 11:33:38.031035,-142.0
2023-08-16 11:33:38.038724,-139.0
2023-08-16 11:33:38.046413,-135.0
2023-08-16 11:33:38.054103,-130.0
2023-08-16 11:33:38.061792,-130.0
2023-08-16 11:33:38.069481,-130.0
2023-08-16 11:33:38.077171,-125.0
2023-08-16 11:33:38.084860,-120.0
2023-08-16 11:33:38.092549,-120.0
2023-08-16 11:33:38.100238,-127.0
2023-08-16 11:33:38.107928,-125.0
2023-08-16 11:33:38.115617,-118.0
2023-08-16 11:33:38.123306,-115.0
2023-08-16 11:33:38.130996,-113.0
2023-08-16 11:33:38.138685,-110.0
2023-08-16 11:33:38.146374,-106.0
2023-08-16 11:33:38.154064,-106.0
2023-08-16 11:33:38.161753,-106.0
2023-08-16 11:33:38.169442,-103.0
2023-08-16 11:33:38.177131,-101.0
2023-08-16 11:33:38.184821,-96.0
2023-08-16 11:33:38.192510,-94.0
2023-08-16 11:33:38.200199,-96.0
2023-08-16 11:33:38.207889,-96.0
2023-08-16 11:33:38.215578,-96.0
2023-08-16 11:33:38.223267,-101.0
2023-08-16 11:33:38.230956,-106.0
2023-08-16 11:33:38.238646,-106.0
2023-08-16 11:33:38.246335,-91.0
2023-08-16 11:33:38.254024,-62.0
2023-08-16 11:33:38.261714,-28.0
2023-08-16 11:33:38.269403,-19.0
2023-08-16 11:33:38.277092,-26.0
2023-08-16 11:33:38.284781,-41.0
2023-08-16 11:33:38.292471,-77.0
2023-08-16 11:33:38.300160,-113.0
2023-08-16 11:33:38.307849,-108.0
2023-08-16 11:33:38.315539,-98.0
2023-08-16 11:33:38.323228,-101.0
2023-08-16 11:33:38.330917,-94.0
2023-08-16 11:33:38.338607,-86.0
2023-08-16 11:33:38.346296,-86.0
2023-08-16 11:33:38.353985,-45.0
2023-08-16 11:33:38.361674,149.0
2023-08-16 11:33:38.369364,694.0
2023-08-16 11:33:38.377053,1358.0
2023-08-16 11:33:38.384742,1293.0
2023-08-16 11:33:38.392432,374.0
2023-08-16 11:33:38.400121,-402.0
2023-08-16 11:33:38.407810,-398.0
2023-08-16 11:33:38.415499,-101.0
2023-08-16 11:33:38.423189,-132.0
2023-08-16 11:33:38.430878,-246.0
2023-08-16 11:33:38.438567,-180.0
2023-08-16 11:33:38.446257,-149.0
2023-08-16 11:33:38.453946,-171.0
2023-08-16 11:33:38.461635,-144.0
2023-08-16 11:33:38.469324,-118.0
2023-08-16 11:33:38.477014,-115.0
2023-08-16 11:33:38.484703,-101.0
2023-08-16 11:33:38.492392,-79.0
2023-08-16 11:33:38.500082,-69.0
2023-08-16 11:33:38.507771,-53.0
2023-08-16 11:33:38.515460,-24.0
2023-08-16 11:33:38.523150,0.0
2023-08-16 11:33:38.530839,24.0
2023-08-16 11:33:38.538528,55.0
2023-08-16 11:33:38.546217,84.0
2023-08-16 11:33:38.553907,115.0
2023-08-16 11:33:38.561596,154.0
2023-08-16 11:33:38.569285,193.0
2023-08-16 11:33:38.576975,229.0
2023-08-16 11:33:38.584664,260.0
2023-08-16 11:33:38.592353,294.0
2023-08-16 11:33:38.600042,311.0
2023-08-16 11:33:38.607732,306.0
2023-08-16 11:33:38.615421,287.0
2023-08-16 11:33:38.623110,260.0
2023-08-16 11:33:38.630800,214.0
2023-08-16 11:33:38.638489,154.0
2023-08-16 11:33:38.646178,74.0
2023-08-16 11:33:38.653867,-21.0
2023-08-16 11:33:38.661557,-115.0
2023-08-16 11:33:38.669246,-185.0
2023-08-16 11:33:38.676935,-229.0
2023-08-16 11:33:38.684625,-260.0
2023-08-16 11:33:38.692314,-277.0
2023-08-16 11:33:38.700003,-289.0
2023-08-16 11:33:38.707693,-299.0
2023-08-16 11:33:38.715382,-291.0
2023-08-16 11:33:38.723071,-272.0
2023-08-16 11:33:38.730760,-258.0
2023-08-16 11:33:38.738450,-250.0
2023-08-16 11:33:38.746139,-246.0
2023-08-16 11:33:38.753828,-238.0
2023-08-16 11:33:38.761518,-229.0
2023-08-16 11:33:38.769207,-214.0
2023-08-16 11:33:38.776896,-202.0
2023-08-16 11:33:38.784585,-195.0
2023-08-16 11:33:38.792275,-195.0
2023-08-16 11:33:38.799964,-195.0
2023-08-16 11:33:38.807653,-185.0
2023-08-16 11:33:38.815343,-176.0
2023-08-16 11:33:38.823032,-178.0
2023-08-16 11:33:38.830721,-183.0
2023-08-16 11:33:38.838410,-183.0
2023-08-16 11:33:38.846100,-183.0
2023-08-16 11:33:38.853789,-180.0
2023-08-16 11:33:38.861478,-178.0
2023-08-16 11:33:38.869168,-171.0
2023-08-16 11:33:38.876857,-161.0
2023-08-16 11:33:38.884546,-164.0
2023-08-16 11:33:38.892236,-173.0
2023-08-16 11:33:38.899925,-171.0
2023-08-16 11:33:38.907614,-156.0
2023-08-16 11:33:38.915303,-147.0
2023-08-16 11:33:38.922993,-144.0
2023-08-16 11:33:38.930682,-149.0
2023-08-16 11:33:38.938371,-149.0
2023-08-16 11:33:38.946061,-142.0
2023-08-16 11:33:38.953750,-139.0
2023-08-16 11:33:38.961439,-139.0
2023-08-16 11:33:38.969128,-137.0
2023-08-16 11:33:38.976818,-137.0
2023-08-16 11:33:38.984507,-135.0
2023-08-16 11:33:38.992196,-125.0
2023-08-16 11:33:38.999886,-123.0
2023-08-16 11:33:39.007575,-130.0
2023-08-16 11:33:39.015264,-130.0
2023-08-16 11:33:39.022953,-123.0
2023-08-16 11:33:39.030643,-120.0
2023-08-16 11:33:39.038332,-120.0
2023-08-16 11:33:39.046021,-115.0
2023-08-16 11:33:39.053711,-110.0
2023-08-16 11:33:39.061400,-120.0
2023-08-16 11:33:39.069089,-132.0
2023-08-16 11:33:39.076779,-127.0
2023-08-16 11:33:39.084468,-101.0
2023-08-16 11:33:39.092157,-77.0
2023-08-16 11:33:39.099846,-57.0
2023-08-16 11:33:39.107536,-45.0
2023-08-16 11:33:39.115225,-48.0
2023-08-16 11:33:39.122914,-62.0
2023-08-16 11:33:39.130604,-86.0
2023-08-16 11:33:39.138293,-103.0
2023-08-16 11:33:39.145982,-103.0
2023-08-16 11:33:39.153671,-96.0
2023-08-16 11:33:39.161361,-96.0
2023-08-16 11:33:39.169050,-96.0
2023-08-16 11:33:39.176739,-89.0
2023-08-16 11:33:39.184429,-86.0
2023-08-16 11:33:39.192118,-48.0
2023-08-16 11:33:39.199807,132.0
2023-08-16 11:33:39.207496,617.0
2023-08-16 11:33:39.215186,1235.0
2023-08-16 11:33:39.222875,1225.0
2023-08-16 11:33:39.230564,361.0
2023-08-16 11:33:39.238254,-446.0
2023-08-16 11:33:39.245943,-475.0
2023-08-16 11:33:39.253632,-135.0
2023-08-16 11:33:39.261322,-91.0
2023-08-16 11:33:39.269011,-190.0
2023-08-16 11:33:39.276700,-139.0
2023-08-16 11:33:39.284389,-113.0
2023-08-16 11:33:39.292079,-139.0
2023-08-16 11:33:39.299768,-110.0
2023-08-16 11:33:39.307457,-79.0
2023-08-16 11:33:39.315147,-79.0
2023-08-16 11:33:39.322836,-72.0
2023-08-16 11:33:39.330525,-57.0
2023-08-16 11:33:39.338214,-48.0
2023-08-16 11:33:39.345904,-24.0
2023-08-16 11:33:39.353593,4.0
2023-08-16 11:33:39.361282,24.0
2023-08-16 11:33:39.368972,41.0
2023-08-16 11:33:39.376661,62.0
2023-08-16 11:33:39.384350,86.0
2023-08-16 11:33:39.392040,118.0
2023-08-16 11:33:39.399729,159.0
2023-08-16 11:33:39.407418,202.0
2023-08-16 11:33:39.415107,246.0
2023-08-16 11:33:39.422797,294.0
2023-08-16 11:33:39.430486,332.0
2023-08-16 11:33:39.438175,342.0
2023-08-16 11:33:39.445865,337.0
2023-08-16 11:33:39.453554,340.0
2023-08-16 11:33:39.461243,316.0
2023-08-16 11:33:39.468932,250.0
2023-08-16 11:33:39.476622,166.0
2023-08-16 11:33:39.484311,72.0
2023-08-16 11:33:39.492000,-36.0
2023-08-16 11:33:39.499690,-139.0
2023-08-16 11:33:39.507379,-214.0
2023-08-16 11:33:39.515068,-265.0
2023-08-16 11:33:39.522757,-299.0
2023-08-16 11:33:39.530447,-320.0
2023-08-16 11:33:39.538136,-323.0
2023-08-16 11:33:39.545825,-318.0
2023-08-16 11:33:39.553515,-316.0
2023-08-16 11:33:39.561204,-306.0
2023-08-16 11:33:39.568893,-287.0
2023-08-16 11:33:39.576583,-277.0
2023-08-16 11:33:39.584272,-270.0
2023-08-16 11:33:39.591961,-255.0
2023-08-16 11:33:39.599650,-241.0
2023-08-16 11:33:39.607340,-238.0
2023-08-16 11:33:39.615029,-229.0
2023-08-16 11:33:39.622718,-219.0
2023-08-16 11:33:39.630408,-214.0
2023-08-16 11:33:39.638097,-205.0
2023-08-16 11:33:39.645786,-200.0
2023-08-16 11:33:39.653475,-205.0
2023-08-16 11:33:39.661165,-200.0
2023-08-16 11:33:39.668854,-190.0
2023-08-16 11:33:39.676543,-190.0
2023-08-16 11:33:39.684233,-190.0
2023-08-16 11:33:39.691922,-185.0
2023-08-16 11:33:39.699611,-185.0
2023-08-16 11:33:39.707300,-183.0
2023-08-16 11:33:39.714990,-180.0
2023-08-16 11:33:39.722679,-178.0
2023-08-16 11:33:39.730368,-183.0
2023-08-16 11:33:39.738058,-183.0
2023-08-16 11:33:39.745747,-178.0
2023-08-16 11:33:39.753436,-168.0
2023-08-16 11:33:39.761126,-166.0
2023-08-16 11:33:39.768815,-166.0
2023-08-16 11:33:39.776504,-164.0
2023-08-16 11:33:39.784193,-159.0
2023-08-16 11:33:39.791883,-154.0
2023-08-16 11:33:39.799572,-152.0
2023-08-16 11:33:39.807261,-149.0
2023-08-16 11:33:39.814951,-152.0
2023-08-16 11:33:39.822640,-154.0
2023-08-16 11:33:39.830329,-152.0
2023-08-16 11:33:39.838018,-149.0
2023-08-16 11:33:39.845708,-139.0
2023-08-16 11:33:39.853397,-108.0
2023-08-16 11:33:39.861086,-72.0
2023-08-16 11:33:39.868776,-62.0
2023-08-16 11:33:39.876465,-69.0
2023-08-16 11:33:39.884154,-84.0
2023-08-16 11:33:39.891843,-103.0
2023-08-16 11:33:39.899533,-118.0
2023-08-16 11:33:39.907222,-118.0
2023-08-16 11:33:39.914911,-123.0
2023-08-16 11:33:39.922601,-127.0
2023-08-16 11:33:39.930290,-118.0
2023-08-16 11:33:39.937979,-108.0
2023-08-16 11:33:39.945669,-103.0
2023-08-16 11:33:39.953358,-65.0
2023-08-16 11:33:39.961047,123.0
2023-08-16 11:33:39.968736,615.0
2023-08-16 11:33:39.976426,1213.0
2023-08-16 11:33:39.984115,1158.0
2023-08-16 11:33:39.991804,289.0
2023-08-16 11:33:39.999494,-484.0
2023-08-16 11:33:40.007183,-477.0
2023-08-16 11:33:40.014872,-130.0
2023-08-16 11:33:40.022561,-108.0
2023-08-16 11:33:40.030251,-207.0
2023-08-16 11:33:40.037940,-142.0
2023-08-16 11:33:40.045629,-115.0
2023-08-16 11:33:40.053319,-149.0
2023-08-16 11:33:40.061008,-123.0
2023-08-16 11:33:40.068697,-89.0
2023-08-16 11:33:40.076386,-89.0
2023-08-16 11:33:40.084076,-77.0
2023-08-16 11:33:40.091765,-48.0
2023-08-16 11:33:40.099454,-33.0
2023-08-16 11:33:40.107144,-24.0
2023-08-16 11:33:40.114833,-9.0
2023-08-16 11:33:40.122522,7.0
2023-08-16 11:33:40.130212,28.0
2023-08-16 11:33:40.137901,62.0
2023-08-16 11:33:40.145590,101.0
2023-08-16 11:33:40.153279,132.0
2023-08-16 11:33:40.160969,168.0
2023-08-16 11:33:40.168658,212.0
2023-08-16 11:33:40.176347,253.0
2023-08-16 11:33:40.184037,284.0
2023-08-16 11:33:40.191726,306.0
2023-08-16 11:33:40.199415,325.0
2023-08-16 11:33:40.207104,335.0
2023-08-16 11:33:40.214794,313.0
2023-08-16 11:33:40.222483,263.0
2023-08-16 11:33:40.230172,193.0
2023-08-16 11:33:40.237862,110.0
2023-08-16 11:33:40.245551,12.0
2023-08-16 11:33:40.253240,-89.0
2023-08-16 11:33:40.260929,-176.0
2023-08-16 11:33:40.268619,-238.0
2023-08-16 11:33:40.276308,-279.0
2023-08-16 11:33:40.283997,-299.0
2023-08-16 11:33:40.291687,-311.0
2023-08-16 11:33:40.299376,-316.0
2023-08-16 11:33:40.307065,-311.0
2023-08-16 11:33:40.314755,-304.0
2023-08-16 11:33:40.322444,-294.0
2023-08-16 11:33:40.330133,-282.0
2023-08-16 11:33:40.337822,-272.0
2023-08-16 11:33:40.345512,-260.0
2023-08-16 11:33:40.353201,-248.0
2023-08-16 11:33:40.360890,-238.0
2023-08-16 11:33:40.368580,-231.0
2023-08-16 11:33:40.376269,-221.0
2023-08-16 11:33:40.383958,-205.0
2023-08-16 11:33:40.391647,-188.0
2023-08-16 11:33:40.399337,-185.0
2023-08-16 11:33:40.407026,-190.0
2023-08-16 11:33:40.414715,-188.0
2023-08-16 11:33:40.422405,-180.0
2023-08-16 11:33:40.430094,-176.0
2023-08-16 11:33:40.437783,-173.0
2023-08-16 11:33:40.445472,-173.0
2023-08-16 11:33:40.453162,-173.0
2023-08-16 11:33:40.460851,-178.0
2023-08-16 11:33:40.468540,-183.0
2023-08-16 11:33:40.476230,-180.0
2023-08-16 11:33:40.483919,-164.0
2023-08-16 11:33:40.491608,-159.0
2023-08-16 11:33:40.499298,-166.0
2023-08-16 11:33:40.506987,-164.0
2023-08-16 11:33:40.514676,-154.0
2023-08-16 11:33:40.522365,-156.0
2023-08-16 11:33:40.530055,-159.0
2023-08-16 11:33:40.537744,-152.0
2023-08-16 11:33:40.545433,-154.0
2023-08-16 11:33:40.553123,-161.0
2023-08-16 11:33:40.560812,-156.0
2023-08-16 11:33:40.568501,-147.0
2023-08-16 11:33:40.576190,-144.0
2023-08-16 11:33:40.583880,-144.0
2023-08-16 11:33:40.591569,-139.0
2023-08-16 11:33:40.599258,-135.0
2023-08-16 11:33:40.606948,-132.0
2023-08-16 11:33:40.614637,-132.0
2023-08-16 11:33:40.622326,-130.0
2023-08-16 11:33:40.630015,-130.0
2023-08-16 11:33:40.637705,-132.0
2023-08-16 11:33:40.645394,-135.0
2023-08-16 11:33:40.653083,-137.0
2023-08-16 11:33:40.660773,-137.0
2023-08-16 11:33:40.668462,-135.0
2023-08-16 11:33:40.676151,-123.0
2023-08-16 11:33:40.683841,-89.0
2023-08-16 11:33:40.691530,-53.0
2023-08-16 11:33:40.699219,-48.0
2023-08-16 11:33:40.706908,-55.0
2023-08-16 11:33:40.714598,-62.0
2023-08-16 11:33:40.722287,-86.0
2023-08-16 11:33:40.729976,-115.0
2023-08-16 11:33:40.737666,-118.0
2023-08-16 11:33:40.745355,-110.0
2023-08-16 11:33:40.753044,-108.0
2023-08-16 11:33:40.760733,-101.0
2023-08-16 11:33:40.768423,-96.0
2023-08-16 11:33:40.776112,-94.0
2023-08-16 11:33:40.783801,-72.0
2023-08-16 11:33:40.791491,65.0
2023-08-16 11:33:40.799180,550.0
2023-08-16 11:33:40.806869,1271.0
2023-08-16 11:33:40.814559,1385.0
2023-08-16 11:33:40.822248,579.0
2023-08-16 11:33:40.829937,-282.0
2023-08-16 11:33:40.837626,-446.0
2023-08-16 11:33:40.845316,-154.0
2023-08-16 11:33:40.853005,-94.0
2023-08-16 11:33:40.860694,-217.0
2023-08-16 11:33:40.868384,-183.0
2023-08-16 11:33:40.876073,-132.0
2023-08-16 11:33:40.883762,-142.0
2023-08-16 11:33:40.891451,-118.0
2023-08-16 11:33:40.899141,-79.0
2023-08-16 11:33:40.906830,-55.0
2023-08-16 11:33:40.914519,-45.0
2023-08-16 11:33:40.922209,-60.0
2023-08-16 11:33:40.929898,-65.0
2023-08-16 11:33:40.937587,-50.0
2023-08-16 11:33:40.945276,-45.0
2023-08-16 11:33:40.952966,-38.0
2023-08-16 11:33:40.960655,14.0
2023-08-16 11:33:40.968344,74.0
2023-08-16 11:33:40.976034,91.0
2023-08-16 11:33:40.983723,101.0
2023-08-16 11:33:40.991412,147.0
2023-08-16 11:33:40.999102,200.0
2023-08-16 11:33:41.006791,231.0
2023-08-16 11:33:41.014480,265.0
2023-08-16 11:33:41.022169,304.0
2023-08-16 11:33:41.029859,323.0
2023-08-16 11:33:41.037548,320.0
2023-08-16 11:33:41.045237,304.0
2023-08-16 11:33:41.052927,277.0
2023-08-16 11:33:41.060616,229.0
2023-08-16 11:33:41.068305,161.0
2023-08-16 11:33:41.075994,82.0
2023-08-16 11:33:41.083684,-12.0
2023-08-16 11:33:41.091373,-103.0
2023-08-16 11:33:41.099062,-166.0
2023-08-16 11:33:41.106752,-224.0
2023-08-16 11:33:41.114441,-279.0
2023-08-16 11:33:41.122130,-296.0
2023-08-16 11:33:41.129819,-294.0
2023-08-16 11:33:41.137509,-301.0
2023-08-16 11:33:41.145198,-296.0
2023-08-16 11:33:41.152887,-275.0
2023-08-16 11:33:41.160577,-265.0
2023-08-16 11:33:41.168266,-267.0
2023-08-16 11:33:41.175955,-255.0
2023-08-16 11:33:41.183645,-238.0
2023-08-16 11:33:41.191334,-238.0
2023-08-16 11:33:41.199023,-236.0
2023-08-16 11:33:41.206712,-226.0
2023-08-16 11:33:41.214402,-217.0
2023-08-16 11:33:41.222091,-212.0
2023-08-16 11:33:41.229780,-207.0
2023-08-16 11:33:41.237470,-200.0
2023-08-16 11:33:41.245159,-197.0
2023-08-16 11:33:41.252848,-195.0
2023-08-16 11:33:41.260537,-193.0
2023-08-16 11:33:41.268227,-190.0
2023-08-16 11:33:41.275916,-188.0
2023-08-16 11:33:41.283605,-185.0
2023-08-16 11:33:41.291295,-185.0
2023-08-16 11:33:41.298984,-183.0
2023-08-16 11:33:41.306673,-180.0
2023-08-16 11:33:41.314362,-178.0
2023-08-16 11:33:41.322052,-176.0
2023-08-16 11:33:41.329741,-173.0
2023-08-16 11:33:41.337430,-171.0
2023-08-16 11:33:41.345120,-168.0
2023-08-16 11:33:41.352809,-168.0
2023-08-16 11:33:41.360498,-168.0
2023-08-16 11:33:41.368188,-166.0
2023-08-16 11:33:41.375877,-164.0
2023-08-16 11:33:41.383566,-164.0
2023-08-16 11:33:41.391255,-161.0
2023-08-16 11:33:41.398945,-161.0
2023-08-16 11:33:41.406634,-161.0
2023-08-16 11:33:41.414323,-159.0
2023-08-16 11:33:41.422013,-154.0
2023-08-16 11:33:41.429702,-152.0
2023-08-16 11:33:41.437391,-149.0
2023-08-16 11:33:41.445080,-144.0
2023-08-16 11:33:41.452770,-144.0
2023-08-16 11:33:41.460459,-144.0
2023-08-16 11:33:41.468148,-139.0
2023-08-16 11:33:41.475838,-137.0
2023-08-16 11:33:41.483527,-137.0
2023-08-16 11:33:41.491216,-137.0
2023-08-16 11:33:41.498905,-139.0
2023-08-16 11:33:41.506595,-144.0
2023-08-16 11:33:41.514284,-149.0
2023-08-16 11:33:41.521973,-144.0
2023-08-16 11:33:41.529663,-123.0
2023-08-16 11:33:41.537352,-86.0
2023-08-16 11:33:41.545041,-55.0
2023-08-16 11:33:41.552731,-50.0
2023-08-16 11:33:41.560420,-57.0
2023-08-16 11:33:41.568109,-67.0
2023-08-16 11:33:41.575798,-94.0
2023-08-16 11:33:41.583488,-120.0
2023-08-16 11:33:41.591177,-115.0
2023-08-16 11:33:41.598866,-106.0
2023-08-16 11:33:41.606556,-106.0
2023-08-16 11:33:41.614245,-101.0
2023-08-16 11:33:41.621934,-98.0
2023-08-16 11:33:41.629623,-98.0
2023-08-16 11:33:41.637313,-65.0
2023-08-16 11:33:41.645002,91.0
2023-08-16 11:33:41.652691,603.0
2023-08-16 11:33:41.660381,1324.0
2023-08-16 11:33:41.668070,1406.0
2023-08-16 11:33:41.675759,571.0
2023-08-16 11:33:41.683448,-301.0
2023-08-16 11:33:41.691138,-446.0
2023-08-16 11:33:41.698827,-147.0
2023-08-16 11:33:41.706516,-115.0
2023-08-16 11:33:41.714206,-258.0
2023-08-16 11:33:41.721895,-214.0
2023-08-16 11:33:41.729584,-161.0
2023-08-16 11:33:41.737274,-185.0
2023-08-16 11:33:41.744963,-171.0
2023-08-16 11:33:41.752652,-137.0
2023-08-16 11:33:41.760341,-132.0
2023-08-16 11:33:41.768031,-123.0
2023-08-16 11:33:41.775720,-98.0
2023-08-16 11:33:41.783409,-79.0
2023-08-16 11:33:41.791099,-67.0
2023-08-16 11:33:41.798788,-48.0
2023-08-16 11:33:41.806477,-24.0
2023-08-16 11:33:41.814166,0.0
2023-08-16 11:33:41.821856,28.0
2023-08-16 11:33:41.829545,60.0
2023-08-16 11:33:41.837234,94.0
2023-08-16 11:33:41.844924,130.0
2023-08-16 11:33:41.852613,166.0
2023-08-16 11:33:41.860302,205.0
2023-08-16 11:33:41.867991,243.0
2023-08-16 11:33:41.875681,275.0
2023-08-16 11:33:41.883370,294.0
2023-08-16 11:33:41.891059,296.0
2023-08-16 11:33:41.898749,284.0
2023-08-16 11:33:41.906438,255.0
2023-08-16 11:33:41.914127,212.0
2023-08-16 11:33:41.921817,147.0
2023-08-16 11:33:41.929506,60.0
2023-08-16 11:33:41.937195,-36.0
2023-08-16 11:33:41.944884,-127.0
2023-08-16 11:33:41.952574,-195.0
2023-08-16 11:33:41.960263,-238.0
2023-08-16 11:33:41.967952,-270.0
2023-08-16 11:33:41.975642,-289.0
2023-08-16 11:33:41.983331,-296.0
2023-08-16 11:33:41.991020,-296.0
2023-08-16 11:33:41.998709,-289.0
2023-08-16 11:33:42.006399,-279.0
2023-08-16 11:33:42.014088,-270.0
2023-08-16 11:33:42.021777,-260.0
2023-08-16 11:33:42.029467,-250.0
2023-08-16 11:33:42.037156,-241.0
2023-08-16 11:33:42.044845,-231.0
2023-08-16 11:33:42.052534,-221.0
2023-08-16 11:33:42.060224,-214.0
2023-08-16 11:33:42.067913,-207.0
2023-08-16 11:33:42.075602,-205.0
2023-08-16 11:33:42.083292,-200.0
2023-08-16 11:33:42.090981,-195.0
2023-08-16 11:33:42.098670,-195.0
2023-08-16 11:33:42.106360,-190.0
2023-08-16 11:33:42.114049,-183.0
2023-08-16 11:33:42.121738,-183.0
2023-08-16 11:33:42.129427,-190.0
2023-08-16 11:33:42.137117,-190.0
2023-08-16 11:33:42.144806,-183.0
2023-08-16 11:33:42.152495,-180.0
2023-08-16 11:33:42.160185,-180.0
2023-08-16 11:33:42.167874,-185.0
2023-08-16 11:33:42.175563,-190.0
2023-08-16 11:33:42.183252,-183.0
2023-08-16 11:33:42.190942,-178.0
2023-08-16 11:33:42.198631,-180.0
2023-08-16 11:33:42.206320,-178.0
2023-08-16 11:33:42.214010,-173.0
2023-08-16 11:33:42.221699,-168.0
2023-08-16 11:33:42.229388,-164.0
2023-08-16 11:33:42.237078,-164.0
2023-08-16 11:33:42.244767,-161.0
2023-08-16 11:33:42.252456,-154.0
2023-08-16 11:33:42.260145,-147.0
2023-08-16 11:33:42.267835,-144.0
2023-08-16 11:33:42.275524,-144.0
2023-08-16 11:33:42.283213,-139.0
2023-08-16 11:33:42.290903,-132.0
2023-08-16 11:33:42.298592,-127.0
2023-08-16 11:33:42.306281,-130.0
2023-08-16 11:33:42.313970,-127.0
2023-08-16 11:33:42.321660,-123.0
2023-08-16 11:33:42.329349,-115.0
2023-08-16 11:33:42.337038,-113.0
2023-08-16 11:33:42.344728,-113.0
2023-08-16 11:33:42.352417,-115.0
2023-08-16 11:33:42.360106,-113.0
2023-08-16 11:33:42.367795,-115.0
2023-08-16 11:33:42.375485,-123.0
2023-08-16 11:33:42.383174,-120.0
2023-08-16 11:33:42.390863,-101.0
2023-08-16 11:33:42.398553,-67.0
2023-08-16 11:33:42.406242,-31.0
2023-08-16 11:33:42.413931,-16.0
2023-08-16 11:33:42.421621,-26.0
2023-08-16 11:33:42.429310,-41.0
2023-08-16 11:33:42.436999,-69.0
2023-08-16 11:33:42.444688,-94.0
2023-08-16 11:33:42.452378,-89.0
2023-08-16 11:33:42.460067,-82.0
2023-08-16 11:33:42.467756,-84.0
2023-08-16 11:33:42.475446,-77.0
2023-08-16 11:33:42.483135,-69.0
2023-08-16 11:33:42.490824,-69.0
2023-08-16 11:33:42.498513,-38.0
2023-08-16 11:33:42.506203,118.0
2023-08-16 11:33:42.513892,617.0
2023-08-16 11:33:42.521581,1331.0
2023-08-16 11:33:42.529271,1426.0
2023-08-16 11:33:42.536960,608.0
2023-08-16 11:33:42.544649,-275.0
2023-08-16 11:33:42.552338,-434.0
2023-08-16 11:33:42.560028,-118.0
2023-08-16 11:33:42.567717,-65.0
2023-08-16 11:33:42.575406,-202.0
2023-08-16 11:33:42.583096,-154.0
2023-08-16 11:33:42.590785,-98.0
2023-08-16 11:33:42.598474,-127.0
2023-08-16 11:33:42.606164,-113.0
2023-08-16 11:33:42.613853,-79.0
2023-08-16 11:33:42.621542,-74.0
2023-08-16 11:33:42.629231,-60.0
2023-08-16 11:33:42.636921,-41.0
2023-08-16 11:33:42.644610,-31.0
2023-08-16 11:33:42.652299,-14.0
2023-08-16 11:33:42.659989,12.0
2023-08-16 11:33:42.667678,31.0
2023-08-16 11:33:42.675367,45.0
2023-08-16 11:33:42.683056,72.0
2023-08-16 11:33:42.690746,108.0
2023-08-16 11:33:42.698435,139.0
2023-08-16 11:33:42.706124,173.0
2023-08-16 11:33:42.713814,212.0
2023-08-16 11:33:42.721503,246.0
2023-08-16 11:33:42.729192,277.0
2023-08-16 11:33:42.736881,313.0
2023-08-16 11:33:42.744571,335.0
2023-08-16 11:33:42.752260,330.0
2023-08-16 11:33:42.759949,306.0
2023-08-16 11:33:42.767639,277.0
2023-08-16 11:33:42.775328,234.0
2023-08-16 11:33:42.783017,166.0
2023-08-16 11:33:42.790707,69.0
2023-08-16 11:33:42.798396,-41.0
2023-08-16 11:33:42.806085,-137.0
2023-08-16 11:33:42.813774,-202.0
2023-08-16 11:33:42.821464,-248.0
2023-08-16 11:33:42.829153,-287.0
2023-08-16 11:33:42.836842,-313.0
2023-08-16 11:33:42.844532,-320.0
2023-08-16 11:33:42.852221,-318.0
2023-08-16 11:33:42.859910,-313.0
2023-08-16 11:33:42.867599,-301.0
2023-08-16 11:33:42.875289,-294.0
2023-08-16 11:33:42.882978,-289.0
2023-08-16 11:33:42.890667,-277.0
2023-08-16 11:33:42.898357,-263.0
2023-08-16 11:33:42.906046,-255.0
2023-08-16 11:33:42.913735,-253.0
2023-08-16 11:33:42.921424,-243.0
2023-08-16 11:33:42.929114,-234.0
2023-08-16 11:33:42.936803,-229.0
2023-08-16 11:33:42.944492,-224.0
2023-08-16 11:33:42.952182,-217.0
2023-08-16 11:33:42.959871,-212.0
2023-08-16 11:33:42.967560,-214.0
2023-08-16 11:33:42.975250,-214.0
2023-08-16 11:33:42.982939,-207.0
2023-08-16 11:33:42.990628,-202.0
2023-08-16 11:33:42.998317,-205.0
2023-08-16 11:33:43.006007,-200.0
2023-08-16 11:33:43.013696,-190.0
2023-08-16 11:33:43.021385,-188.0
2023-08-16 11:33:43.029075,-193.0
2023-08-16 11:33:43.036764,-188.0
2023-08-16 11:33:43.044453,-183.0
2023-08-16 11:33:43.052142,-180.0
2023-08-16 11:33:43.059832,-178.0
2023-08-16 11:33:43.067521,-178.0
2023-08-16 11:33:43.075210,-168.0
2023-08-16 11:33:43.082900,-156.0
2023-08-16 11:33:43.090589,-164.0
2023-08-16 11:33:43.098278,-171.0
2023-08-16 11:33:43.105967,-161.0
2023-08-16 11:33:43.113657,-147.0
2023-08-16 11:33:43.121346,-144.0
2023-08-16 11:33:43.129035,-144.0
2023-08-16 11:33:43.136725,-142.0
2023-08-16 11:33:43.144414,-137.0
2023-08-16 11:33:43.152103,-137.0
2023-08-16 11:33:43.159793,-144.0
2023-08-16 11:33:43.167482,-142.0
2023-08-16 11:33:43.175171,-137.0
2023-08-16 11:33:43.182860,-139.0
2023-08-16 11:33:43.190550,-147.0
2023-08-16 11:33:43.198239,-152.0
2023-08-16 11:33:43.205928,-135.0
2023-08-16 11:33:43.213618,-103.0
2023-08-16 11:33:43.221307,-77.0
2023-08-16 11:33:43.228996,-62.0
2023-08-16 11:33:43.236685,-57.0
2023-08-16 11:33:43.244375,-62.0
2023-08-16 11:33:43.252064,-91.0
2023-08-16 11:33:43.259753,-108.0
2023-08-16 11:33:43.267443,-98.0
2023-08-16 11:33:43.275132,-94.0
2023-08-16 11:33:43.282821,-101.0
2023-08-16 11:33:43.290510,-101.0
2023-08-16 11:33:43.298200,-91.0
2023-08-16 11:33:43.305889,-84.0
2023-08-16 11:33:43.313578,-50.0
2023-08-16 11:33:43.321268,120.0
2023-08-16 11:33:43.328957,605.0
2023-08-16 11:33:43.336646,1223.0
2023-08-16 11:33:43.344336,1225.0
2023-08-16 11:33:43.352025,390.0
2023-08-16 11:33:43.359714,-424.0
2023-08-16 11:33:43.367403,-487.0
2023-08-16 11:33:43.375093,-132.0
2023-08-16 11:33:43.382782,-84.0
2023-08-16 11:33:43.390471,-195.0
2023-08-16 11:33:43.398161,-125.0
2023-08-16 11:33:43.405850,-94.0
2023-08-16 11:33:43.413539,-130.0
2023-08-16 11:33:43.421228,-96.0
2023-08-16 11:33:43.428918,-62.0
2023-08-16 11:33:43.436607,-67.0
2023-08-16 11:33:43.444296,-45.0
2023-08-16 11:33:43.451986,-24.0
2023-08-16 11:33:43.459675,-21.0
2023-08-16 11:33:43.467364,2.0
2023-08-16 11:33:43.475054,33.0
2023-08-16 11:33:43.482743,57.0
2023-08-16 11:33:43.490432,82.0
2023-08-16 11:33:43.498121,106.0
2023-08-16 11:33:43.505811,144.0
2023-08-16 11:33:43.513500,180.0
2023-08-16 11:33:43.521189,214.0
2023-08-16 11:33:43.528879,267.0
2023-08-16 11:33:43.536568,323.0
2023-08-16 11:33:43.544257,357.0
2023-08-16 11:33:43.551946,383.0
2023-08-16 11:33:43.559636,405.0
2023-08-16 11:33:43.567325,402.0
2023-08-16 11:33:43.575014,386.0
2023-08-16 11:33:43.582704,359.0
2023-08-16 11:33:43.590393,299.0
2023-08-16 11:33:43.598082,197.0
2023-08-16 11:33:43.605771,72.0
2023-08-16 11:33:43.613461,-43.0
2023-08-16 11:33:43.621150,-142.0
2023-08-16 11:33:43.628839,-219.0
2023-08-16 11:33:43.636529,-258.0
2023-08-16 11:33:43.644218,-279.0
2023-08-16 11:33:43.651907,-313.0
2023-08-16 11:33:43.659597,-337.0
2023-08-16 11:33:43.667286,-325.0
2023-08-16 11:33:43.674975,-318.0
2023-08-16 11:33:43.682664,-320.0
2023-08-16 11:33:43.690354,-308.0
2023-08-16 11:33:43.698043,-289.0
2023-08-16 11:33:43.705732,-284.0
2023-08-16 11:33:43.713422,-277.0
2023-08-16 11:33:43.721111,-260.0
2023-08-16 11:33:43.728800,-246.0
2023-08-16 11:33:43.736489,-246.0
2023-08-16 11:33:43.744179,-236.0
2023-08-16 11:33:43.751868,-207.0
2023-08-16 11:33:43.759557,-202.0
2023-08-16 11:33:43.767247,-214.0
2023-08-16 11:33:43.774936,-212.0
2023-08-16 11:33:43.782625,-207.0
2023-08-16 11:33:43.790314,-202.0
2023-08-16 11:33:43.798004,-197.0
2023-08-16 11:33:43.805693,-195.0
2023-08-16 11:33:43.813382,-195.0
2023-08-16 11:33:43.821072,-205.0
2023-08-16 11:33:43.828761,-195.0
2023-08-16 11:33:43.836450,-176.0
2023-08-16 11:33:43.844140,-180.0
2023-08-16 11:33:43.851829,-188.0
2023-08-16 11:33:43.859518,-176.0
2023-08-16 11:33:43.867207,-173.0
2023-08-16 11:33:43.874897,-193.0
2023-08-16 11:33:43.882586,-197.0
2023-08-16 11:33:43.890275,-173.0
2023-08-16 11:33:43.897965,-159.0
2023-08-16 11:33:43.905654,-159.0
2023-08-16 11:33:43.913343,-168.0
2023-08-16 11:33:43.921032,-193.0
2023-08-16 11:33:43.928722,-214.0
2023-08-16 11:33:43.936411,-183.0
2023-08-16 11:33:43.944100,-147.0
2023-08-16 11:33:43.951790,-127.0
2023-08-16 11:33:43.959479,-106.0
2023-08-16 11:33:43.967168,-103.0
2023-08-16 11:33:43.974857,-113.0
2023-08-16 11:33:43.982547,-120.0
2023-08-16 11:33:43.990236,-130.0
2023-08-16 11:33:43.997925,-130.0
2023-08-16 11:33:44.005615,-135.0
2023-08-16 11:33:44.013304,-156.0
2023-08-16 11:33:44.020993,-156.0
2023-08-16 11:33:44.028683,-135.0
2023-08-16 11:33:44.036372,-118.0
2023-08-16 11:33:44.044061,-106.0
2023-08-16 11:33:44.051750,-53.0
2023-08-16 11:33:44.059440,156.0
2023-08-16 11:33:44.067129,588.0
2023-08-16 11:33:44.074818,1011.0
2023-08-16 11:33:44.082508,887.0
2023-08-16 11:33:44.090197,120.0
2023-08-16 11:33:44.097886,-545.0
2023-08-16 11:33:44.105575,-480.0
2023-08-16 11:33:44.113265,-123.0
2023-08-16 11:33:44.120954,-108.0
2023-08-16 11:33:44.128643,-173.0
2023-08-16 11:33:44.136333,-91.0
2023-08-16 11:33:44.144022,-84.0
2023-08-16 11:33:44.151711,-110.0
2023-08-16 11:33:44.159400,-79.0
2023-08-16 11:33:44.167090,-60.0
2023-08-16 11:33:44.174779,-41.0
2023-08-16 11:33:44.182468,-14.0
2023-08-16 11:33:44.190158,-12.0
2023-08-16 11:33:44.197847,-14.0
2023-08-16 11:33:44.205536,24.0
2023-08-16 11:33:44.213226,53.0
2023-08-16 11:33:44.220915,53.0
2023-08-16 11:33:44.228604,96.0
2023-08-16 11:33:44.236293,154.0
2023-08-16 11:33:44.243983,168.0
2023-08-16 11:33:44.251672,178.0
2023-08-16 11:33:44.259361,226.0
2023-08-16 11:33:44.267051,289.0
2023-08-16 11:33:44.274740,349.0
2023-08-16 11:33:44.282429,381.0
2023-08-16 11:33:44.290118,393.0
2023-08-16 11:33:44.297808,405.0
2023-08-16 11:33:44.305497,402.0
2023-08-16 11:33:44.313186,383.0
2023-08-16 11:33:44.320876,342.0
2023-08-16 11:33:44.328565,231.0
2023-08-16 11:33:44.336254,113.0
2023-08-16 11:33:44.343943,14.0
2023-08-16 11:33:44.351633,-120.0
2023-08-16 11:33:44.359322,-221.0
2023-08-16 11:33:44.367011,-241.0
2023-08-16 11:33:44.374701,-272.0
2023-08-16 11:33:44.382390,-311.0
2023-08-16 11:33:44.390079,-318.0
2023-08-16 11:33:44.397769,-330.0
2023-08-16 11:33:44.405458,-328.0
2023-08-16 11:33:44.413147,-296.0
2023-08-16 11:33:44.420836,-289.0
2023-08-16 11:33:44.428526,-291.0
2023-08-16 11:33:44.436215,-267.0
2023-08-16 11:33:44.443904,-250.0
2023-08-16 11:33:44.451594,-279.0
2023-08-16 11:33:44.459283,-265.0
2023-08-16 11:33:44.466972,-207.0
2023-08-16 11:33:44.474661,-224.0
2023-08-16 11:33:44.482351,-250.0
2023-08-16 11:33:44.490040,-207.0
2023-08-16 11:33:44.497729,-183.0
2023-08-16 11:33:44.505419,-209.0
2023-08-16 11:33:44.513108,-214.0
2023-08-16 11:33:44.520797,-193.0
2023-08-16 11:33:44.528486,-180.0
2023-08-16 11:33:44.536176,-178.0
2023-08-16 11:33:44.543865,-185.0
2023-08-16 11:33:44.551554,-195.0
2023-08-16 11:33:44.559244,-173.0
2023-08-16 11:33:44.566933,-161.0
2023-08-16 11:33:44.574622,-178.0
2023-08-16 11:33:44.582312,-178.0
2023-08-16 11:33:44.590001,-164.0
2023-08-16 11:33:44.597690,-156.0
2023-08-16 11:33:44.605379,-159.0
2023-08-16 11:33:44.613069,-154.0
2023-08-16 11:33:44.620758,-147.0
2023-08-16 11:33:44.628447,-164.0
2023-08-16 11:33:44.636137,-178.0
2023-08-16 11:33:44.643826,-152.0
2023-08-16 11:33:44.651515,-120.0
2023-08-16 11:33:44.659204,-113.0
2023-08-16 11:33:44.666894,-103.0
2023-08-16 11:33:44.674583,-101.0
2023-08-16 11:33:44.682272,-103.0
2023-08-16 11:33:44.689962,-101.0
2023-08-16 11:33:44.697651,-123.0
2023-08-16 11:33:44.705340,-142.0
2023-08-16 11:33:44.713029,-132.0
2023-08-16 11:33:44.720719,-120.0
2023-08-16 11:33:44.728408,-113.0
2023-08-16 11:33:44.736097,-115.0
2023-08-16 11:33:44.743787,-120.0
2023-08-16 11:33:44.751476,-91.0
2023-08-16 11:33:44.759165,16.0
2023-08-16 11:33:44.766855,313.0
2023-08-16 11:33:44.774544,815.0
2023-08-16 11:33:44.782233,1068.0
2023-08-16 11:33:44.789922,612.0
2023-08-16 11:33:44.797612,-221.0
2023-08-16 11:33:44.805301,-593.0
2023-08-16 11:33:44.812990,-294.0
2023-08-16 11:33:44.820680,-53.0
2023-08-16 11:33:44.828369,-152.0
2023-08-16 11:33:44.836058,-164.0
2023-08-16 11:33:44.843747,-72.0
2023-08-16 11:33:44.851437,-82.0
2023-08-16 11:33:44.859126,-94.0
2023-08-16 11:33:44.866815,-57.0
2023-08-16 11:33:44.874505,-45.0
2023-08-16 11:33:44.882194,-41.0
2023-08-16 11:33:44.889883,-26.0
2023-08-16 11:33:44.897573,-9.0
2023-08-16 11:33:44.905262,7.0
2023-08-16 11:33:44.912951,19.0
2023-08-16 11:33:44.920640,53.0
2023-08-16 11:33:44.928330,86.0
2023-08-16 11:33:44.936019,101.0
2023-08-16 11:33:44.943708,132.0
2023-08-16 11:33:44.951398,180.0
2023-08-16 11:33:44.959087,212.0
2023-08-16 11:33:44.966776,248.0
2023-08-16 11:33:44.974465,301.0
2023-08-16 11:33:44.982155,352.0
2023-08-16 11:33:44.989844,378.0
2023-08-16 11:33:44.997533,390.0
2023-08-16 11:33:45.005223,395.0
2023-08-16 11:33:45.012912,378.0
2023-08-16 11:33:45.020601,337.0
2023-08-16 11:33:45.028290,265.0
2023-08-16 11:33:45.035980,164.0
2023-08-16 11:33:45.043669,41.0
2023-08-16 11:33:45.051358,-79.0
2023-08-16 11:33:45.059048,-168.0
2023-08-16 11:33:45.066737,-238.0
2023-08-16 11:33:45.074426,-279.0
2023-08-16 11:33:45.082116,-296.0
2023-08-16 11:33:45.089805,-313.0
2023-08-16 11:33:45.097494,-320.0
2023-08-16 11:33:45.105183,-306.0
2023-08-16 11:33:45.112873,-301.0
2023-08-16 11:33:45.120562,-294.0
2023-08-16 11:33:45.128251,-275.0
2023-08-16 11:33:45.135941,-265.0
2023-08-16 11:33:45.143630,-263.0
2023-08-16 11:33:45.151319,-246.0
2023-08-16 11:33:45.159008,-234.0
2023-08-16 11:33:45.166698,-234.0
2023-08-16 11:33:45.174387,-226.0
2023-08-16 11:33:45.182076,-207.0
2023-08-16 11:33:45.189766,-197.0
2023-08-16 11:33:45.197455,-200.0
2023-08-16 11:33:45.205144,-197.0
2023-08-16 11:33:45.212833,-185.0
2023-08-16 11:33:45.220523,-180.0
2023-08-16 11:33:45.228212,-178.0
2023-08-16 11:33:45.235901,-180.0
2023-08-16 11:33:45.243591,-183.0
2023-08-16 11:33:45.251280,-178.0
2023-08-16 11:33:45.258969,-178.0
2023-08-16 11:33:45.266659,-185.0
2023-08-16 11:33:45.274348,-183.0
2023-08-16 11:33:45.282037,-171.0
2023-08-16 11:33:45.289726,-176.0
2023-08-16 11:33:45.297416,-178.0
2023-08-16 11:33:45.305105,-168.0
2023-08-16 11:33:45.312794,-166.0
2023-08-16 11:33:45.320484,-168.0
2023-08-16 11:33:45.328173,-161.0
2023-08-16 11:33:45.335862,-159.0
2023-08-16 11:33:45.343551,-161.0
2023-08-16 11:33:45.351241,-159.0
2023-08-16 11:33:45.358930,-156.0
2023-08-16 11:33:45.366619,-154.0
2023-08-16 11:33:45.374309,-149.0
2023-08-16 11:33:45.381998,-149.0
2023-08-16 11:33:45.389687,-154.0
2023-08-16 11:33:45.397376,-164.0
2023-08-16 11:33:45.405066,-154.0
2023-08-16 11:33:45.412755,-123.0
2023-08-16 11:33:45.420444,-98.0
2023-08-16 11:33:45.428134,-86.0
2023-08-16 11:33:45.435823,-74.0
2023-08-16 11:33:45.443512,-72.0
2023-08-16 11:33:45.451202,-98.0
2023-08-16 11:33:45.458891,-130.0
2023-08-16 11:33:45.466580,-127.0
2023-08-16 11:33:45.474269,-113.0
2023-08-16 11:33:45.481959,-110.0
2023-08-16 11:33:45.489648,-115.0
2023-08-16 11:33:45.497337,-115.0
2023-08-16 11:33:45.505027,-110.0
2023-08-16 11:33:45.512716,-84.0
2023-08-16 11:33:45.520405,38.0
2023-08-16 11:33:45.528094,480.0
2023-08-16 11:33:45.535784,1182.0
2023-08-16 11:33:45.543473,1370.0
2023-08-16 11:33:45.551162,663.0
2023-08-16 11:33:45.558852,-229.0
2023-08-16 11:33:45.566541,-504.0
2023-08-16 11:33:45.574230,-226.0
2023-08-16 11:33:45.581919,-120.0
2023-08-16 11:33:45.589609,-243.0
2023-08-16 11:33:45.597298,-214.0
2023-08-16 11:33:45.604987,-152.0
2023-08-16 11:33:45.612677,-178.0
2023-08-16 11:33:45.620366,-171.0
2023-08-16 11:33:45.628055,-132.0
2023-08-16 11:33:45.635745,-130.0
2023-08-16 11:33:45.643434,-127.0
2023-08-16 11:33:45.651123,-101.0
2023-08-16 11:33:45.658812,-79.0
2023-08-16 11:33:45.666502,-69.0
2023-08-16 11:33:45.674191,-55.0
2023-08-16 11:33:45.681880,-33.0
2023-08-16 11:33:45.689570,-7.0
2023-08-16 11:33:45.697259,19.0
2023-08-16 11:33:45.704948,50.0
2023-08-16 11:33:45.712637,82.0
2023-08-16 11:33:45.720327,118.0
2023-08-16 11:33:45.728016,159.0
2023-08-16 11:33:45.735705,200.0
2023-08-16 11:33:45.743395,236.0
2023-08-16 11:33:45.751084,272.0
2023-08-16 11:33:45.758773,294.0
2023-08-16 11:33:45.766462,291.0
2023-08-16 11:33:45.774152,279.0
2023-08-16 11:33:45.781841,253.0
2023-08-16 11:33:45.789530,202.0
2023-08-16 11:33:45.797220,127.0
2023-08-16 11:33:45.804909,31.0
2023-08-16 11:33:45.812598,-69.0
2023-08-16 11:33:45.820288,-154.0
2023-08-16 11:33:45.827977,-217.0
2023-08-16 11:33:45.835666,-255.0
2023-08-16 11:33:45.843355,-279.0
2023-08-16 11:33:45.851045,-294.0
2023-08-16 11:33:45.858734,-301.0
2023-08-16 11:33:45.866423,-296.0
2023-08-16 11:33:45.874113,-289.0
2023-08-16 11:33:45.881802,-282.0
2023-08-16 11:33:45.889491,-279.0
2023-08-16 11:33:45.897180,-270.0
2023-08-16 11:33:45.904870,-255.0
2023-08-16 11:33:45.912559,-241.0
2023-08-16 11:33:45.920248,-229.0
2023-08-16 11:33:45.927938,-217.0
2023-08-16 11:33:45.935627,-207.0
2023-08-16 11:33:45.943316,-202.0
2023-08-16 11:33:45.951005,-197.0
2023-08-16 11:33:45.958695,-193.0
2023-08-16 11:33:45.966384,-185.0
2023-08-16 11:33:45.974073,-180.0
2023-08-16 11:33:45.981763,-176.0
2023-08-16 11:33:45.989452,-176.0
2023-08-16 11:33:45.997141,-178.0
2023-08-16 11:33:46.004831,-176.0
2023-08-16 11:33:46.012520,-173.0
2023-08-16 11:33:46.020209,-168.0
2023-08-16 11:33:46.027898,-164.0
2023-08-16 11:33:46.035588,-166.0
2023-08-16 11:33:46.043277,-166.0
2023-08-16 11:33:46.050966,-159.0
2023-08-16 11:33:46.058656,-154.0
2023-08-16 11:33:46.066345,-152.0
2023-08-16 11:33:46.074034,-147.0
2023-08-16 11:33:46.081723,-144.0
2023-08-16 11:33:46.089413,-144.0
2023-08-16 11:33:46.097102,-139.0
2023-08-16 11:33:46.104791,-137.0
2023-08-16 11:33:46.112481,-137.0
2023-08-16 11:33:46.120170,-135.0
2023-08-16 11:33:46.127859,-132.0
2023-08-16 11:33:46.135548,-137.0
2023-08-16 11:33:46.143238,-137.0
2023-08-16 11:33:46.150927,-132.0
2023-08-16 11:33:46.158616,-127.0
2023-08-16 11:33:46.166306,-127.0
2023-08-16 11:33:46.173995,-127.0
2023-08-16 11:33:46.181684,-130.0
2023-08-16 11:33:46.189374,-132.0
2023-08-16 11:33:46.197063,-127.0
2023-08-16 11:33:46.204752,-120.0
2023-08-16 11:33:46.212441,-123.0
2023-08-16 11:33:46.220131,-135.0
2023-08-16 11:33:46.227820,-139.0
2023-08-16 11:33:46.235509,-139.0
2023-08-16 11:33:46.243199,-142.0
2023-08-16 11:33:46.250888,-142.0
2023-08-16 11:33:46.258577,-127.0
2023-08-16 11:33:46.266266,-96.0
2023-08-16 11:33:46.273956,-60.0
2023-08-16 11:33:46.281645,-45.0
2023-08-16 11:33:46.289334,-48.0
2023-08-16 11:33:46.297024,-48.0
2023-08-16 11:33:46.304713,-65.0
2023-08-16 11:33:46.312402,-98.0
2023-08-16 11:33:46.320092,-106.0
2023-08-16 11:33:46.327781,-91.0
2023-08-16 11:33:46.335470,-89.0
2023-08-16 11:33:46.343159,-86.0
2023-08-16 11:33:46.350849,-82.0
2023-08-16 11:33:46.358538,-77.0
2023-08-16 11:33:46.366227,-62.0
2023-08-16 11:33:46.373917,9.0
2023-08-16 11:33:46.381606,376.0
2023-08-16 11:33:46.389295,1088.0
2023-08-16 11:33:46.396984,1450.0
2023-08-16 11:33:46.404674,953.0
2023-08-16 11:33:46.412363,57.0
2023-08-16 11:33:46.420052,-427.0
2023-08-16 11:33:46.427742,-248.0
2023-08-16 11:33:46.435431,-65.0
2023-08-16 11:33:46.443120,-193.0
2023-08-16 11:33:46.450809,-221.0
2023-08-16 11:33:46.458499,-139.0
2023-08-16 11:33:46.466188,-147.0
2023-08-16 11:33:46.473877,-152.0
2023-08-16 11:33:46.481567,-113.0
2023-08-16 11:33:46.489256,-101.0
2023-08-16 11:33:46.496945,-98.0
2023-08-16 11:33:46.504635,-79.0
2023-08-16 11:33:46.512324,-57.0
2023-08-16 11:33:46.520013,-38.0
2023-08-16 11:33:46.527702,-21.0
2023-08-16 11:33:46.535392,-4.0
2023-08-16 11:33:46.543081,16.0
2023-08-16 11:33:46.550770,45.0
2023-08-16 11:33:46.558460,79.0
2023-08-16 11:33:46.566149,110.0
2023-08-16 11:33:46.573838,144.0
2023-08-16 11:33:46.581527,183.0
2023-08-16 11:33:46.589217,219.0
2023-08-16 11:33:46.596906,253.0
2023-08-16 11:33:46.604595,289.0
2023-08-16 11:33:46.612285,316.0
2023-08-16 11:33:46.619974,323.0
2023-08-16 11:33:46.627663,313.0
2023-08-16 11:33:46.635352,289.0
2023-08-16 11:33:46.643042,248.0
2023-08-16 11:33:46.650731,190.0
2023-08-16 11:33:46.658420,113.0
2023-08-16 11:33:46.666110,14.0
2023-08-16 11:33:46.673799,-84.0
2023-08-16 11:33:46.681488,-161.0
2023-08-16 11:33:46.689178,-214.0
2023-08-16 11:33:46.696867,-248.0
2023-08-16 11:33:46.704556,-267.0
2023-08-16 11:33:46.712245,-275.0
2023-08-16 11:33:46.719935,-275.0
2023-08-16 11:33:46.727624,-270.0
2023-08-16 11:33:46.735313,-263.0
2023-08-16 11:33:46.743003,-250.0
2023-08-16 11:33:46.750692,-243.0
2023-08-16 11:33:46.758381,-238.0
2023-08-16 11:33:46.766070,-226.0
2023-08-16 11:33:46.773760,-217.0
2023-08-16 11:33:46.781449,-209.0
2023-08-16 11:33:46.789138,-205.0
2023-08-16 11:33:46.796828,-195.0
2023-08-16 11:33:46.804517,-190.0
2023-08-16 11:33:46.812206,-188.0
2023-08-16 11:33:46.819895,-185.0
2023-08-16 11:33:46.827585,-178.0
2023-08-16 11:33:46.835274,-171.0
2023-08-16 11:33:46.842963,-168.0
2023-08-16 11:33:46.850653,-168.0
2023-08-16 11:33:46.858342,-164.0
2023-08-16 11:33:46.866031,-164.0
2023-08-16 11:33:46.873721,-168.0
2023-08-16 11:33:46.881410,-168.0
2023-08-16 11:33:46.889099,-159.0
2023-08-16 11:33:46.896788,-152.0
2023-08-16 11:33:46.904478,-152.0
2023-08-16 11:33:46.912167,-149.0
2023-08-16 11:33:46.919856,-147.0
2023-08-16 11:33:46.927546,-147.0
2023-08-16 11:33:46.935235,-144.0
2023-08-16 11:33:46.942924,-137.0
2023-08-16 11:33:46.950613,-132.0
2023-08-16 11:33:46.958303,-130.0
2023-08-16 11:33:46.965992,-132.0
2023-08-16 11:33:46.973681,-132.0
2023-08-16 11:33:46.981371,-132.0
2023-08-16 11:33:46.989060,-127.0
2023-08-16 11:33:46.996749,-125.0
2023-08-16 11:33:47.004438,-127.0
2023-08-16 11:33:47.012128,-130.0
2023-08-16 11:33:47.019817,-125.0
2023-08-16 11:33:47.027506,-120.0
2023-08-16 11:33:47.035196,-120.0
2023-08-16 11:33:47.042885,-118.0
2023-08-16 11:33:47.050574,-113.0
2023-08-16 11:33:47.058264,-110.0
2023-08-16 11:33:47.065953,-110.0
2023-08-16 11:33:47.073642,-110.0
2023-08-16 11:33:47.081331,-110.0
2023-08-16 11:33:47.089021,-108.0
2023-08-16 11:33:47.096710,-103.0
2023-08-16 11:33:47.104399,-103.0
2023-08-16 11:33:47.112089,-103.0
2023-08-16 11:33:47.119778,-101.0
2023-08-16 11:33:47.127467,-98.0
2023-08-16 11:33:47.135156,-94.0
2023-08-16 11:33:47.142846,-94.0
2023-08-16 11:33:47.150535,-96.0
2023-08-16 11:33:47.158224,-94.0
2023-08-16 11:33:47.165914,-89.0
2023-08-16 11:33:47.173603,-89.0
2023-08-16 11:33:47.181292,-91.0
2023-08-16 11:33:47.188981,-96.0
2023-08-16 11:33:47.196671,-94.0
2023-08-16 11:33:47.204360,-91.0
2023-08-16 11:33:47.212049,-91.0
2023-08-16 11:33:47.219739,-91.0
2023-08-16 11:33:47.227428,-86.0
2023-08-16 11:33:47.235117,-84.0
2023-08-16 11:33:47.242807,-84.0
2023-08-16 11:33:47.250496,-89.0
2023-08-16 11:33:47.258185,-96.0
2023-08-16 11:33:47.265874,-94.0
2023-08-16 11:33:47.273564,-86.0
2023-08-16 11:33:47.281253,-86.0
2023-08-16 11:33:47.288942,-89.0
2023-08-16 11:33:47.296632,-84.0
2023-08-16 11:33:47.304321,-82.0
2023-08-16 11:33:47.312010,-82.0
2023-08-16 11:33:47.319699,-79.0
2023-08-16 11:33:47.327389,-74.0
2023-08-16 11:33:47.335078,-72.0
2023-08-16 11:33:47.342767,-74.0
2023-08-16 11:33:47.350457,-74.0
2023-08-16 11:33:47.358146,-72.0
2023-08-16 11:33:47.365835,-77.0
2023-08-16 11:33:47.373524,-77.0
2023-08-16 11:33:47.381214,-74.0
2023-08-16 11:33:47.388903,-74.0
2023-08-16 11:33:47.396592,-74.0
2023-08-16 11:33:47.404282,-69.0
2023-08-16 11:33:47.411971,-67.0
2023-08-16 11:33:47.419660,-67.0
2023-08-16 11:33:47.427350,-67.0
2023-08-16 11:33:47.435039,-72.0
2023-08-16 11:33:47.442728,-77.0
2023-08-16 11:33:47.450417,-84.0
2023-08-16 11:33:47.458107,-84.0
2023-08-16 11:33:47.465796,-72.0
2023-08-16 11:33:47.473485,-48.0
2023-08-16 11:33:47.481175,-14.0
2023-08-16 11:33:47.488864,2.0
2023-08-16 11:33:47.496553,-2.0
2023-08-16 11:33:47.504242,-9.0
2023-08-16 11:33:47.511932,-24.0
2023-08-16 11:33:47.519621,-55.0
2023-08-16 11:33:47.527310,-69.0
2023-08-16 11:33:47.535000,-55.0
2023-08-16 11:33:47.542689,-48.0
2023-08-16 11:33:47.550378,-50.0
2023-08-16 11:33:47.558067,-48.0
2023-08-16 11:33:47.565757,-38.0
2023-08-16 11:33:47.573446,-19.0
2023-08-16 11:33:47.581135,86.0
2023-08-16 11:33:47.588825,542.0
2023-08-16 11:33:47.596514,1237.0
2023-08-16 11:33:47.604203,1413.0
2023-08-16 11:33:47.611893,786.0
2023-08-16 11:33:47.619582,-60.0
2023-08-16 11:33:47.627271,-395.0
2023-08-16 11:33:47.634960,-154.0
2023-08-16 11:33:47.642650,-48.0
2023-08-16 11:33:47.650339,-200.0
2023-08-16 11:33:47.658028,-190.0
2023-08-16 11:33:47.665718,-120.0
2023-08-16 11:33:47.673407,-144.0
2023-08-16 11:33:47.681096,-149.0
2023-08-16 11:33:47.688785,-115.0
2023-08-16 11:33:47.696475,-110.0
2023-08-16 11:33:47.704164,-106.0
2023-08-16 11:33:47.711853,-82.0
2023-08-16 11:33:47.719543,-65.0
2023-08-16 11:33:47.727232,-50.0
2023-08-16 11:33:47.734921,-28.0
2023-08-16 11:33:47.742611,-7.0
2023-08-16 11:33:47.750300,14.0
2023-08-16 11:33:47.757989,38.0
2023-08-16 11:33:47.765678,69.0
2023-08-16 11:33:47.773368,98.0
2023-08-16 11:33:47.781057,130.0
2023-08-16 11:33:47.788746,161.0
2023-08-16 11:33:47.796436,193.0
2023-08-16 11:33:47.804125,224.0
2023-08-16 11:33:47.811814,255.0
2023-08-16 11:33:47.819503,277.0
2023-08-16 11:33:47.827193,284.0
2023-08-16 11:33:47.834882,272.0
2023-08-16 11:33:47.842571,241.0
2023-08-16 11:33:47.850261,209.0
2023-08-16 11:33:47.857950,173.0
2023-08-16 11:33:47.865639,115.0
2023-08-16 11:33:47.873328,41.0
2023-08-16 11:33:47.881018,-43.0
2023-08-16 11:33:47.888707,-123.0
2023-08-16 11:33:47.896396,-180.0
2023-08-16 11:33:47.904086,-219.0
2023-08-16 11:33:47.911775,-248.0
2023-08-16 11:33:47.919464,-267.0
2023-08-16 11:33:47.927154,-275.0
2023-08-16 11:33:47.934843,-275.0
2023-08-16 11:33:47.942532,-265.0
2023-08-16 11:33:47.950221,-253.0
2023-08-16 11:33:47.957911,-243.0
2023-08-16 11:33:47.965600,-236.0
2023-08-16 11:33:47.973289,-229.0
2023-08-16 11:33:47.980979,-224.0
2023-08-16 11:33:47.988668,-214.0
2023-08-16 11:33:47.996357,-202.0
2023-08-16 11:33:48.004046,-197.0
2023-08-16 11:33:48.011736,-193.0
2023-08-16 11:33:48.019425,-188.0
2023-08-16 11:33:48.027114,-185.0
2023-08-16 11:33:48.034804,-180.0
2023-08-16 11:33:48.042493,-176.0
2023-08-16 11:33:48.050182,-173.0
2023-08-16 11:33:48.057871,-168.0
2023-08-16 11:33:48.065561,-166.0
2023-08-16 11:33:48.073250,-164.0
2023-08-16 11:33:48.080939,-159.0
2023-08-16 11:33:48.088629,-154.0
2023-08-16 11:33:48.096318,-154.0
2023-08-16 11:33:48.104007,-154.0
2023-08-16 11:33:48.111697,-156.0
2023-08-16 11:33:48.119386,-152.0
2023-08-16 11:33:48.127075,-147.0
2023-08-16 11:33:48.134764,-144.0
2023-08-16 11:33:48.142454,-139.0
2023-08-16 11:33:48.150143,-139.0
2023-08-16 11:33:48.157832,-139.0
2023-08-16 11:33:48.165522,-137.0
2023-08-16 11:33:48.173211,-132.0
2023-08-16 11:33:48.180900,-127.0
2023-08-16 11:33:48.188589,-127.0
2023-08-16 11:33:48.196279,-130.0
2023-08-16 11:33:48.203968,-127.0
2023-08-16 11:33:48.211657,-125.0
2023-08-16 11:33:48.219347,-120.0
2023-08-16 11:33:48.227036,-115.0
2023-08-16 11:33:48.234725,-110.0
2023-08-16 11:33:48.242414,-113.0
2023-08-16 11:33:48.250104,-110.0
2023-08-16 11:33:48.257793,-108.0
2023-08-16 11:33:48.265482,-101.0
2023-08-16 11:33:48.273172,-98.0
2023-08-16 11:33:48.280861,-98.0
2023-08-16 11:33:48.288550,-96.0
2023-08-16 11:33:48.296240,-96.0
2023-08-16 11:33:48.303929,-94.0
2023-08-16 11:33:48.311618,-91.0
2023-08-16 11:33:48.319307,-89.0
2023-08-16 11:33:48.326997,-86.0
2023-08-16 11:33:48.334686,-84.0
2023-08-16 11:33:48.342375,-84.0
2023-08-16 11:33:48.350065,-86.0
2023-08-16 11:33:48.357754,-86.0
2023-08-16 11:33:48.365443,-84.0
2023-08-16 11:33:48.373132,-89.0
2023-08-16 11:33:48.380822,-94.0
2023-08-16 11:33:48.388511,-94.0
2023-08-16 11:33:48.396200,-91.0
2023-08-16 11:33:48.403890,-94.0
2023-08-16 11:33:48.411579,-91.0
2023-08-16 11:33:48.419268,-96.0
2023-08-16 11:33:48.426957,-103.0
2023-08-16 11:33:48.434647,-101.0
2023-08-16 11:33:48.442336,-96.0
2023-08-16 11:33:48.450025,-94.0
2023-08-16 11:33:48.457715,-91.0
2023-08-16 11:33:48.465404,-91.0
2023-08-16 11:33:48.473093,-91.0
2023-08-16 11:33:48.480783,-86.0
2023-08-16 11:33:48.488472,-84.0
2023-08-16 11:33:48.496161,-84.0
2023-08-16 11:33:48.503850,-82.0
2023-08-16 11:33:48.511540,-82.0
2023-08-16 11:33:48.519229,-79.0
2023-08-16 11:33:48.526918,-82.0
2023-08-16 11:33:48.534608,-82.0
2023-08-16 11:33:48.542297,-79.0
2023-08-16 11:33:48.549986,-79.0
2023-08-16 11:33:48.557675,-84.0
2023-08-16 11:33:48.565365,-82.0
2023-08-16 11:33:48.573054,-79.0
2023-08-16 11:33:48.580743,-86.0
2023-08-16 11:33:48.588433,-96.0
2023-08-16 11:33:48.596122,-103.0
2023-08-16 11:33:48.603811,-101.0
2023-08-16 11:33:48.611500,-84.0
2023-08-16 11:33:48.619190,-50.0
2023-08-16 11:33:48.626879,-21.0
2023-08-16 11:33:48.634568,-12.0
2023-08-16 11:33:48.642258,-21.0
2023-08-16 11:33:48.649947,-28.0
2023-08-16 11:33:48.657636,-48.0
2023-08-16 11:33:48.665326,-77.0
2023-08-16 11:33:48.673015,-82.0
2023-08-16 11:33:48.680704,-69.0
2023-08-16 11:33:48.688393,-69.0
2023-08-16 11:33:48.696083,-74.0
2023-08-16 11:33:48.703772,-72.0
2023-08-16 11:33:48.711461,-60.0
2023-08-16 11:33:48.719151,-28.0
2023-08-16 11:33:48.726840,142.0
2023-08-16 11:33:48.734529,697.0
2023-08-16 11:33:48.742218,1356.0
2023-08-16 11:33:48.749908,1331.0
2023-08-16 11:33:48.757597,535.0
2023-08-16 11:33:48.765286,-255.0
2023-08-16 11:33:48.772976,-374.0
2023-08-16 11:33:48.780665,-91.0
2023-08-16 11:33:48.788354,-91.0
2023-08-16 11:33:48.796043,-221.0
2023-08-16 11:33:48.803733,-164.0
2023-08-16 11:33:48.811422,-118.0
2023-08-16 11:33:48.819111,-149.0
2023-08-16 11:33:48.826801,-130.0
2023-08-16 11:33:48.834490,-98.0
2023-08-16 11:33:48.842179,-96.0
2023-08-16 11:33:48.849869,-89.0
2023-08-16 11:33:48.857558,-65.0
2023-08-16 11:33:48.865247,-48.0
2023-08-16 11:33:48.872936,-33.0
2023-08-16 11:33:48.880626,-12.0
2023-08-16 11:33:48.888315,12.0
2023-08-16 11:33:48.896004,36.0
2023-08-16 11:33:48.903694,60.0
2023-08-16 11:33:48.911383,89.0
2023-08-16 11:33:48.919072,113.0
2023-08-16 11:33:48.926761,142.0
2023-08-16 11:33:48.934451,180.0
2023-08-16 11:33:48.942140,219.0
2023-08-16 11:33:48.949829,250.0
2023-08-16 11:33:48.957519,282.0
2023-08-16 11:33:48.965208,304.0
2023-08-16 11:33:48.972897,308.0
2023-08-16 11:33:48.980587,299.0
2023-08-16 11:33:48.988276,277.0
2023-08-16 11:33:48.995965,238.0
2023-08-16 11:33:49.003654,183.0
2023-08-16 11:33:49.011344,113.0
2023-08-16 11:33:49.019033,28.0
2023-08-16 11:33:49.026722,-60.0
2023-08-16 11:33:49.034412,-132.0
2023-08-16 11:33:49.042101,-185.0
2023-08-16 11:33:49.049790,-224.0
2023-08-16 11:33:49.057479,-248.0
2023-08-16 11:33:49.065169,-260.0
2023-08-16 11:33:49.072858,-263.0
2023-08-16 11:33:49.080547,-260.0
2023-08-16 11:33:49.088237,-258.0
2023-08-16 11:33:49.095926,-253.0
2023-08-16 11:33:49.103615,-243.0
2023-08-16 11:33:49.111304,-234.0
2023-08-16 11:33:49.118994,-224.0
2023-08-16 11:33:49.126683,-214.0
2023-08-16 11:33:49.134372,-207.0
2023-08-16 11:33:49.142062,-202.0
2023-08-16 11:33:49.149751,-195.0
2023-08-16 11:33:49.157440,-188.0
2023-08-16 11:33:49.165130,-180.0
2023-08-16 11:33:49.172819,-176.0
2023-08-16 11:33:49.180508,-176.0
2023-08-16 11:33:49.188197,-173.0
2023-08-16 11:33:49.195887,-173.0
2023-08-16 11:33:49.203576,-176.0
2023-08-16 11:33:49.211265,-171.0
2023-08-16 11:33:49.218955,-166.0
2023-08-16 11:33:49.226644,-166.0
2023-08-16 11:33:49.234333,-166.0
2023-08-16 11:33:49.242022,-164.0
2023-08-16 11:33:49.249712,-161.0
2023-08-16 11:33:49.257401,-164.0
2023-08-16 11:33:49.265090,-161.0
2023-08-16 11:33:49.272780,-159.0
2023-08-16 11:33:49.280469,-159.0
2023-08-16 11:33:49.288158,-156.0
2023-08-16 11:33:49.295847,-152.0
2023-08-16 11:33:49.303537,-149.0
2023-08-16 11:33:49.311226,-147.0
2023-08-16 11:33:49.318915,-147.0
2023-08-16 11:33:49.326605,-147.0
2023-08-16 11:33:49.334294,-144.0
2023-08-16 11:33:49.341983,-142.0
2023-08-16 11:33:49.349673,-137.0
2023-08-16 11:33:49.357362,-135.0
2023-08-16 11:33:49.365051,-135.0
2023-08-16 11:33:49.372740,-130.0
2023-08-16 11:33:49.380430,-125.0
2023-08-16 11:33:49.388119,-120.0
2023-08-16 11:33:49.395808,-115.0
2023-08-16 11:33:49.403498,-115.0
2023-08-16 11:33:49.411187,-115.0
2023-08-16 11:33:49.418876,-113.0
2023-08-16 11:33:49.426565,-108.0
2023-08-16 11:33:49.434255,-103.0
2023-08-16 11:33:49.441944,-101.0
2023-08-16 11:33:49.449633,-101.0
2023-08-16 11:33:49.457323,-106.0
2023-08-16 11:33:49.465012,-110.0
2023-08-16 11:33:49.472701,-106.0
2023-08-16 11:33:49.480390,-101.0
2023-08-16 11:33:49.488080,-98.0
2023-08-16 11:33:49.495769,-96.0
2023-08-16 11:33:49.503458,-96.0
2023-08-16 11:33:49.511148,-94.0
2023-08-16 11:33:49.518837,-89.0
2023-08-16 11:33:49.526526,-86.0
2023-08-16 11:33:49.534216,-86.0
2023-08-16 11:33:49.541905,-89.0
2023-08-16 11:33:49.549594,-96.0
2023-08-16 11:33:49.557283,-98.0
2023-08-16 11:33:49.564973,-91.0
2023-08-16 11:33:49.572662,-89.0
2023-08-16 11:33:49.580351,-91.0
2023-08-16 11:33:49.588041,-96.0
2023-08-16 11:33:49.595730,-103.0
2023-08-16 11:33:49.603419,-103.0
2023-08-16 11:33:49.611108,-96.0
2023-08-16 11:33:49.618798,-91.0
2023-08-16 11:33:49.626487,-89.0
2023-08-16 11:33:49.634176,-89.0
2023-08-16 11:33:49.641866,-98.0
2023-08-16 11:33:49.649555,-103.0
2023-08-16 11:33:49.657244,-98.0
2023-08-16 11:33:49.664933,-89.0
2023-08-16 11:33:49.672623,-62.0
2023-08-16 11:33:49.680312,-26.0
2023-08-16 11:33:49.688001,-7.0
2023-08-16 11:33:49.695691,-9.0
2023-08-16 11:33:49.703380,-24.0
2023-08-16 11:33:49.711069,-43.0
2023-08-16 11:33:49.718759,-69.0
2023-08-16 11:33:49.726448,-86.0
2023-08-16 11:33:49.734137,-79.0
2023-08-16 11:33:49.741826,-74.0
2023-08-16 11:33:49.749516,-72.0
2023-08-16 11:33:49.757205,-65.0
2023-08-16 11:33:49.764894,-57.0
2023-08-16 11:33:49.772584,-50.0
2023-08-16 11:33:49.780273,2.0
2023-08-16 11:33:49.787962,284.0
2023-08-16 11:33:49.795651,960.0
2023-08-16 11:33:49.803341,1500.0
2023-08-16 11:33:49.811030,1155.0
2023-08-16 11:33:49.818719,193.0
2023-08-16 11:33:49.826409,-417.0
2023-08-16 11:33:49.834098,-272.0
2023-08-16 11:33:49.841787,-38.0
2023-08-16 11:33:49.849476,-149.0
2023-08-16 11:33:49.857166,-209.0
2023-08-16 11:33:49.864855,-130.0
2023-08-16 11:33:49.872544,-130.0
2023-08-16 11:33:49.880234,-149.0
2023-08-16 11:33:49.887923,-110.0
2023-08-16 11:33:49.895612,-89.0
2023-08-16 11:33:49.903302,-89.0
2023-08-16 11:33:49.910991,-72.0
2023-08-16 11:33:49.918680,-53.0
2023-08-16 11:33:49.926369,-38.0
2023-08-16 11:33:49.934059,-19.0
2023-08-16 11:33:49.941748,4.0
2023-08-16 11:33:49.949437,24.0
2023-08-16 11:33:49.957127,48.0
2023-08-16 11:33:49.964816,77.0
2023-08-16 11:33:49.972505,108.0
2023-08-16 11:33:49.980194,142.0
2023-08-16 11:33:49.987884,178.0
2023-08-16 11:33:49.995573,212.0
2023-08-16 11:33:50.003262,243.0
2023-08-16 11:33:50.010952,277.0
2023-08-16 11:33:50.018641,301.0
2023-08-16 11:33:50.026330,318.0
2023-08-16 11:33:50.034019,318.0
2023-08-16 11:33:50.041709,294.0
2023-08-16 11:33:50.049398,253.0
2023-08-16 11:33:50.057087,205.0
2023-08-16 11:33:50.064777,142.0
2023-08-16 11:33:50.072466,53.0
2023-08-16 11:33:50.080155,-43.0
2023-08-16 11:33:50.087845,-127.0
2023-08-16 11:33:50.095534,-195.0
2023-08-16 11:33:50.103223,-241.0
2023-08-16 11:33:50.110912,-270.0
2023-08-16 11:33:50.118602,-287.0
2023-08-16 11:33:50.126291,-294.0
2023-08-16 11:33:50.133980,-294.0
2023-08-16 11:33:50.141670,-289.0
2023-08-16 11:33:50.149359,-279.0
2023-08-16 11:33:50.157048,-267.0
2023-08-16 11:33:50.164737,-255.0
2023-08-16 11:33:50.172427,-246.0
2023-08-16 11:33:50.180116,-236.0
2023-08-16 11:33:50.187805,-226.0
2023-08-16 11:33:50.195495,-217.0
2023-08-16 11:33:50.203184,-214.0
2023-08-16 11:33:50.210873,-212.0
2023-08-16 11:33:50.218562,-205.0
2023-08-16 11:33:50.226252,-200.0
2023-08-16 11:33:50.233941,-195.0
2023-08-16 11:33:50.241630,-190.0
2023-08-16 11:33:50.249320,-183.0
2023-08-16 11:33:50.257009,-180.0
2023-08-16 11:33:50.264698,-176.0
2023-08-16 11:33:50.272388,-171.0
2023-08-16 11:33:50.280077,-168.0
2023-08-16 11:33:50.287766,-166.0
2023-08-16 11:33:50.295455,-164.0
2023-08-16 11:33:50.303145,-159.0
2023-08-16 11:33:50.310834,-159.0
2023-08-16 11:33:50.318523,-156.0
2023-08-16 11:33:50.326213,-156.0
2023-08-16 11:33:50.333902,-154.0
2023-08-16 11:33:50.341591,-149.0
2023-08-16 11:33:50.349280,-144.0
2023-08-16 11:33:50.356970,-144.0
2023-08-16 11:33:50.364659,-142.0
2023-08-16 11:33:50.372348,-137.0
2023-08-16 11:33:50.380038,-135.0
2023-08-16 11:33:50.387727,-132.0
2023-08-16 11:33:50.395416,-127.0
2023-08-16 11:33:50.403106,-127.0
2023-08-16 11:33:50.410795,-125.0
2023-08-16 11:33:50.418484,-120.0
2023-08-16 11:33:50.426173,-118.0
2023-08-16 11:33:50.433863,-113.0
2023-08-16 11:33:50.441552,-110.0
2023-08-16 11:33:50.449241,-108.0
2023-08-16 11:33:50.456931,-106.0
2023-08-16 11:33:50.464620,-103.0
2023-08-16 11:33:50.472309,-101.0
2023-08-16 11:33:50.479998,-98.0
2023-08-16 11:33:50.487688,-96.0
2023-08-16 11:33:50.495377,-94.0
2023-08-16 11:33:50.503066,-91.0
2023-08-16 11:33:50.510756,-86.0
2023-08-16 11:33:50.518445,-86.0
2023-08-16 11:33:50.526134,-86.0
2023-08-16 11:33:50.533823,-84.0
2023-08-16 11:33:50.541513,-82.0
2023-08-16 11:33:50.549202,-82.0
2023-08-16 11:33:50.556891,-82.0
2023-08-16 11:33:50.564581,-84.0
2023-08-16 11:33:50.572270,-84.0
2023-08-16 11:33:50.579959,-84.0
2023-08-16 11:33:50.587649,-82.0
2023-08-16 11:33:50.595338,-79.0
2023-08-16 11:33:50.603027,-79.0
2023-08-16 11:33:50.610716,-79.0
2023-08-16 11:33:50.618406,-77.0
2023-08-16 11:33:50.626095,-74.0
2023-08-16 11:33:50.633784,-74.0
2023-08-16 11:33:50.641474,-74.0
2023-08-16 11:33:50.649163,-79.0
2023-08-16 11:33:50.656852,-86.0
2023-08-16 11:33:50.664541,-94.0
2023-08-16 11:33:50.672231,-96.0
2023-08-16 11:33:50.679920,-84.0
2023-08-16 11:33:50.687609,-43.0
2023-08-16 11:33:50.695299,-9.0
2023-08-16 11:33:50.702988,-9.0
2023-08-16 11:33:50.710677,-21.0
2023-08-16 11:33:50.718366,-43.0
2023-08-16 11:33:50.726056,-79.0
2023-08-16 11:33:50.733745,-94.0
2023-08-16 11:33:50.741434,-84.0
2023-08-16 11:33:50.749124,-79.0
2023-08-16 11:33:50.756813,-82.0
2023-08-16 11:33:50.764502,-77.0
2023-08-16 11:33:50.772192,-72.0
2023-08-16 11:33:50.779881,-55.0
2023-08-16 11:33:50.787570,16.0
2023-08-16 11:33:50.795259,332.0
2023-08-16 11:33:50.802949,1015.0
2023-08-16 11:33:50.810638,1476.0
2023-08-16 11:33:50.818327,1023.0
2023-08-16 11:33:50.826017,43.0
2023-08-16 11:33:50.833706,-463.0
2023-08-16 11:33:50.841395,-238.0
2023-08-16 11:33:50.849084,-45.0
2023-08-16 11:33:50.856774,-183.0
2023-08-16 11:33:50.864463,-212.0
2023-08-16 11:33:50.872152,-132.0
2023-08-16 11:33:50.879842,-147.0
2023-08-16 11:33:50.887531,-156.0
2023-08-16 11:33:50.895220,-120.0
2023-08-16 11:33:50.902909,-106.0
2023-08-16 11:33:50.910599,-101.0
2023-08-16 11:33:50.918288,-79.0
2023-08-16 11:33:50.925977,-60.0
2023-08-16 11:33:50.933667,-48.0
2023-08-16 11:33:50.941356,-28.0
2023-08-16 11:33:50.949045,-7.0
2023-08-16 11:33:50.956735,14.0
2023-08-16 11:33:50.964424,41.0
2023-08-16 11:33:50.972113,69.0
2023-08-16 11:33:50.979802,98.0
2023-08-16 11:33:50.987492,132.0
2023-08-16 11:33:50.995181,171.0
2023-08-16 11:33:51.002870,209.0
2023-08-16 11:33:51.010560,248.0
2023-08-16 11:33:51.018249,282.0
2023-08-16 11:33:51.025938,308.0
2023-08-16 11:33:51.033627,320.0
2023-08-16 11:33:51.041317,318.0
2023-08-16 11:33:51.049006,301.0
2023-08-16 11:33:51.056695,263.0
2023-08-16 11:33:51.064385,207.0
2023-08-16 11:33:51.072074,132.0
2023-08-16 11:33:51.079763,43.0
2023-08-16 11:33:51.087452,-50.0
2023-08-16 11:33:51.095142,-130.0
2023-08-16 11:33:51.102831,-190.0
2023-08-16 11:33:51.110520,-236.0
2023-08-16 11:33:51.118210,-267.0
2023-08-16 11:33:51.125899,-282.0
2023-08-16 11:33:51.133588,-284.0
2023-08-16 11:33:51.141278,-282.0
2023-08-16 11:33:51.148967,-272.0
2023-08-16 11:33:51.156656,-265.0
2023-08-16 11:33:51.164345,-263.0
2023-08-16 11:33:51.172035,-260.0
2023-08-16 11:33:51.179724,-248.0
2023-08-16 11:33:51.187413,-234.0
2023-08-16 11:33:51.195103,-226.0
2023-08-16 11:33:51.202792,-219.0
2023-08-16 11:33:51.210481,-209.0
2023-08-16 11:33:51.218170,-209.0
2023-08-16 11:33:51.225860,-212.0
2023-08-16 11:33:51.233549,-205.0
2023-08-16 11:33:51.241238,-195.0
2023-08-16 11:33:51.248928,-193.0
2023-08-16 11:33:51.256617,-190.0
2023-08-16 11:33:51.264306,-185.0
2023-08-16 11:33:51.271995,-180.0
2023-08-16 11:33:51.279685,-178.0
2023-08-16 11:33:51.287374,-176.0
2023-08-16 11:33:51.295063,-173.0
2023-08-16 11:33:51.302753,-173.0
2023-08-16 11:33:51.310442,-171.0
2023-08-16 11:33:51.318131,-166.0
2023-08-16 11:33:51.325821,-164.0
2023-08-16 11:33:51.333510,-161.0
2023-08-16 11:33:51.341199,-159.0
2023-08-16 11:33:51.348888,-156.0
2023-08-16 11:33:51.356578,-154.0
2023-08-16 11:33:51.364267,-152.0
2023-08-16 11:33:51.371956,-149.0
2023-08-16 11:33:51.379646,-144.0
2023-08-16 11:33:51.387335,-139.0
2023-08-16 11:33:51.395024,-139.0
2023-08-16 11:33:51.402713,-135.0
2023-08-16 11:33:51.410403,-132.0
2023-08-16 11:33:51.418092,-130.0
2023-08-16 11:33:51.425781,-125.0
2023-08-16 11:33:51.433471,-123.0
2023-08-16 11:33:51.441160,-120.0
2023-08-16 11:33:51.448849,-118.0
2023-08-16 11:33:51.456538,-113.0
2023-08-16 11:33:51.464228,-110.0
2023-08-16 11:33:51.471917,-108.0
2023-08-16 11:33:51.479606,-108.0
2023-08-16 11:33:51.487296,-108.0
2023-08-16 11:33:51.494985,-106.0
2023-08-16 11:33:51.502674,-98.0
2023-08-16 11:33:51.510364,-94.0
2023-08-16 11:33:51.518053,-94.0
2023-08-16 11:33:51.525742,-94.0
2023-08-16 11:33:51.533431,-94.0
2023-08-16 11:33:51.541121,-96.0
2023-08-16 11:33:51.548810,-98.0
2023-08-16 11:33:51.556499,-96.0
2023-08-16 11:33:51.564189,-91.0
2023-08-16 11:33:51.571878,-94.0
2023-08-16 11:33:51.579567,-96.0
2023-08-16 11:33:51.587256,-91.0
2023-08-16 11:33:51.594946,-94.0
2023-08-16 11:33:51.602635,-106.0
2023-08-16 11:33:51.610324,-110.0
2023-08-16 11:33:51.618014,-98.0
2023-08-16 11:33:51.625703,-62.0
2023-08-16 11:33:51.633392,-24.0
2023-08-16 11:33:51.641081,-12.0
2023-08-16 11:33:51.648771,-14.0
2023-08-16 11:33:51.656460,-24.0
2023-08-16 11:33:51.664149,-57.0
2023-08-16 11:33:51.671839,-89.0
2023-08-16 11:33:51.679528,-84.0
2023-08-16 11:33:51.687217,-72.0
2023-08-16 11:33:51.694907,-69.0
2023-08-16 11:33:51.702596,-67.0
2023-08-16 11:33:51.710285,-65.0
2023-08-16 11:33:51.717974,-62.0
2023-08-16 11:33:51.725664,-24.0
2023-08-16 11:33:51.733353,188.0
2023-08-16 11:33:51.741042,767.0
2023-08-16 11:33:51.748732,1406.0
2023-08-16 11:33:51.756421,1264.0
2023-08-16 11:33:51.764110,306.0
2023-08-16 11:33:51.771799,-434.0
2023-08-16 11:33:51.779489,-369.0
2023-08-16 11:33:51.787178,-72.0
2023-08-16 11:33:51.794867,-125.0
2023-08-16 11:33:51.802557,-221.0
2023-08-16 11:33:51.810246,-149.0
2023-08-16 11:33:51.817935,-127.0
2023-08-16 11:33:51.825625,-152.0
2023-08-16 11:33:51.833314,-118.0
