time,ECG
2023-08-15 12:14:22.769757,-60.0
2023-08-15 12:14:22.777446,-33.0
2023-08-15 12:14:22.785136,-16.0
2023-08-15 12:14:22.792825,-9.0
2023-08-15 12:14:22.800514,-9.0
2023-08-15 12:14:22.808204,-21.0
2023-08-15 12:14:22.815893,-24.0
2023-08-15 12:14:22.823582,-14.0
2023-08-15 12:14:22.831272,-7.0
2023-08-15 12:14:22.838961,-9.0
2023-08-15 12:14:22.846651,-28.0
2023-08-15 12:14:22.854340,-110.0
2023-08-15 12:14:22.862029,-386.0
2023-08-15 12:14:22.869719,-854.0
2023-08-15 12:14:22.877408,-1119.0
2023-08-15 12:14:22.885097,-743.0
2023-08-15 12:14:22.892787,24.0
2023-08-15 12:14:22.900476,369.0
2023-08-15 12:14:22.908165,115.0
2023-08-15 12:14:22.915855,-48.0
2023-08-15 12:14:22.923544,74.0
2023-08-15 12:14:22.931233,98.0
2023-08-15 12:14:22.938923,33.0
2023-08-15 12:14:22.946612,41.0
2023-08-15 12:14:22.954302,45.0
2023-08-15 12:14:22.961991,21.0
2023-08-15 12:14:22.969680,14.0
2023-08-15 12:14:22.977370,12.0
2023-08-15 12:14:22.985059,-2.0
2023-08-15 12:14:22.992748,-14.0
2023-08-15 12:14:23.000438,-21.0
2023-08-15 12:14:23.008127,-28.0
2023-08-15 12:14:23.015816,-41.0
2023-08-15 12:14:23.023506,-43.0
2023-08-15 12:14:23.031195,-43.0
2023-08-15 12:14:23.038884,-62.0
2023-08-15 12:14:23.046574,-82.0
2023-08-15 12:14:23.054263,-96.0
2023-08-15 12:14:23.061953,-110.0
2023-08-15 12:14:23.069642,-120.0
2023-08-15 12:14:23.077331,-130.0
2023-08-15 12:14:23.085021,-144.0
2023-08-15 12:14:23.092710,-156.0
2023-08-15 12:14:23.100399,-152.0
2023-08-15 12:14:23.108089,-135.0
2023-08-15 12:14:23.115778,-127.0
2023-08-15 12:14:23.123467,-135.0
2023-08-15 12:14:23.131157,-135.0
2023-08-15 12:14:23.138846,-110.0
2023-08-15 12:14:23.146535,-79.0
2023-08-15 12:14:23.154225,-53.0
2023-08-15 12:14:23.161914,-45.0
2023-08-15 12:14:23.169604,-43.0
2023-08-15 12:14:23.177293,-31.0
2023-08-15 12:14:23.184982,-28.0
2023-08-15 12:14:23.192672,-28.0
2023-08-15 12:14:23.200361,-19.0
2023-08-15 12:14:23.208050,-31.0
2023-08-15 12:14:23.215740,-53.0
2023-08-15 12:14:23.223429,-50.0
2023-08-15 12:14:23.231118,-43.0
2023-08-15 12:14:23.238808,-55.0
2023-08-15 12:14:23.246497,-57.0
2023-08-15 12:14:23.254187,-45.0
2023-08-15 12:14:23.261876,-60.0
2023-08-15 12:14:23.269565,-84.0
2023-08-15 12:14:23.277255,-74.0
2023-08-15 12:14:23.284944,-50.0
2023-08-15 12:14:23.292633,-41.0
2023-08-15 12:14:23.300323,-38.0
2023-08-15 12:14:23.308012,-33.0
2023-08-15 12:14:23.315701,-38.0
2023-08-15 12:14:23.323391,-53.0
2023-08-15 12:14:23.331080,-50.0
2023-08-15 12:14:23.338769,-33.0
2023-08-15 12:14:23.346459,-36.0
2023-08-15 12:14:23.354148,-45.0
2023-08-15 12:14:23.361838,-45.0
2023-08-15 12:14:23.369527,-43.0
2023-08-15 12:14:23.377216,-33.0
2023-08-15 12:14:23.384906,-36.0
2023-08-15 12:14:23.392595,-48.0
2023-08-15 12:14:23.400284,-41.0
2023-08-15 12:14:23.407974,-36.0
2023-08-15 12:14:23.415663,-43.0
2023-08-15 12:14:23.423352,-41.0
2023-08-15 12:14:23.431042,-28.0
2023-08-15 12:14:23.438731,-28.0
2023-08-15 12:14:23.446420,-28.0
2023-08-15 12:14:23.454110,-38.0
2023-08-15 12:14:23.461799,-48.0
2023-08-15 12:14:23.469489,-38.0
2023-08-15 12:14:23.477178,-36.0
2023-08-15 12:14:23.484867,-50.0
2023-08-15 12:14:23.492557,-36.0
2023-08-15 12:14:23.500246,-33.0
2023-08-15 12:14:23.507935,-67.0
2023-08-15 12:14:23.515625,-89.0
2023-08-15 12:14:23.523314,-101.0
2023-08-15 12:14:23.531003,-132.0
2023-08-15 12:14:23.538693,-130.0
2023-08-15 12:14:23.546382,-82.0
2023-08-15 12:14:23.554072,-48.0
2023-08-15 12:14:23.561761,-43.0
2023-08-15 12:14:23.569450,-26.0
2023-08-15 12:14:23.577140,-4.0
2023-08-15 12:14:23.584829,0.0
2023-08-15 12:14:23.592518,-2.0
2023-08-15 12:14:23.600208,-12.0
2023-08-15 12:14:23.607897,-21.0
2023-08-15 12:14:23.615586,-9.0
2023-08-15 12:14:23.623276,-4.0
2023-08-15 12:14:23.630965,-9.0
2023-08-15 12:14:23.638654,-2.0
2023-08-15 12:14:23.646344,-57.0
2023-08-15 12:14:23.654033,-330.0
2023-08-15 12:14:23.661723,-825.0
2023-08-15 12:14:23.669412,-1208.0
2023-08-15 12:14:23.677101,-998.0
2023-08-15 12:14:23.684791,-214.0
2023-08-15 12:14:23.692480,383.0
2023-08-15 12:14:23.700169,258.0
2023-08-15 12:14:23.707859,-21.0
2023-08-15 12:14:23.715548,57.0
2023-08-15 12:14:23.723237,125.0
2023-08-15 12:14:23.730927,41.0
2023-08-15 12:14:23.738616,43.0
2023-08-15 12:14:23.746305,72.0
2023-08-15 12:14:23.753995,33.0
2023-08-15 12:14:23.761684,12.0
2023-08-15 12:14:23.769374,19.0
2023-08-15 12:14:23.777063,0.0
2023-08-15 12:14:23.784752,-12.0
2023-08-15 12:14:23.792442,-16.0
2023-08-15 12:14:23.800131,-38.0
2023-08-15 12:14:23.807820,-55.0
2023-08-15 12:14:23.815510,-53.0
2023-08-15 12:14:23.823199,-57.0
2023-08-15 12:14:23.830888,-69.0
2023-08-15 12:14:23.838578,-67.0
2023-08-15 12:14:23.846267,-74.0
2023-08-15 12:14:23.853956,-106.0
2023-08-15 12:14:23.861646,-135.0
2023-08-15 12:14:23.869335,-137.0
2023-08-15 12:14:23.877025,-144.0
2023-08-15 12:14:23.884714,-168.0
2023-08-15 12:14:23.892403,-178.0
2023-08-15 12:14:23.900093,-164.0
2023-08-15 12:14:23.907782,-149.0
2023-08-15 12:14:23.915471,-132.0
2023-08-15 12:14:23.923161,-108.0
2023-08-15 12:14:23.930850,-91.0
2023-08-15 12:14:23.938539,-77.0
2023-08-15 12:14:23.946229,-60.0
2023-08-15 12:14:23.953918,-41.0
2023-08-15 12:14:23.961608,-26.0
2023-08-15 12:14:23.969297,-21.0
2023-08-15 12:14:23.976986,-26.0
2023-08-15 12:14:23.984676,-24.0
2023-08-15 12:14:23.992365,-19.0
2023-08-15 12:14:24.000054,-21.0
2023-08-15 12:14:24.007744,-14.0
2023-08-15 12:14:24.015433,-7.0
2023-08-15 12:14:24.023122,-16.0
2023-08-15 12:14:24.030812,-33.0
2023-08-15 12:14:24.038501,-28.0
2023-08-15 12:14:24.046190,-26.0
2023-08-15 12:14:24.053880,-38.0
2023-08-15 12:14:24.061569,-41.0
2023-08-15 12:14:24.069259,-36.0
2023-08-15 12:14:24.076948,-38.0
2023-08-15 12:14:24.084637,-36.0
2023-08-15 12:14:24.092327,-33.0
2023-08-15 12:14:24.100016,-33.0
2023-08-15 12:14:24.107705,-26.0
2023-08-15 12:14:24.115395,-21.0
2023-08-15 12:14:24.123084,-38.0
2023-08-15 12:14:24.130773,-50.0
2023-08-15 12:14:24.138463,-43.0
2023-08-15 12:14:24.146152,-33.0
2023-08-15 12:14:24.153841,-26.0
2023-08-15 12:14:24.161531,-14.0
2023-08-15 12:14:24.169220,-12.0
2023-08-15 12:14:24.176910,-31.0
2023-08-15 12:14:24.184599,-41.0
2023-08-15 12:14:24.192288,-24.0
2023-08-15 12:14:24.199978,-19.0
2023-08-15 12:14:24.207667,-33.0
2023-08-15 12:14:24.215356,-28.0
2023-08-15 12:14:24.223046,-33.0
2023-08-15 12:14:24.230735,-48.0
2023-08-15 12:14:24.238424,-41.0
2023-08-15 12:14:24.246114,-33.0
2023-08-15 12:14:24.253803,-41.0
2023-08-15 12:14:24.261492,-43.0
2023-08-15 12:14:24.269182,-38.0
2023-08-15 12:14:24.276871,-38.0
2023-08-15 12:14:24.284561,-36.0
2023-08-15 12:14:24.292250,-38.0
2023-08-15 12:14:24.299939,-62.0
2023-08-15 12:14:24.307629,-89.0
2023-08-15 12:14:24.315318,-110.0
2023-08-15 12:14:24.323007,-127.0
2023-08-15 12:14:24.330697,-132.0
2023-08-15 12:14:24.338386,-115.0
2023-08-15 12:14:24.346075,-84.0
2023-08-15 12:14:24.353765,-69.0
2023-08-15 12:14:24.361454,-60.0
2023-08-15 12:14:24.369144,-36.0
2023-08-15 12:14:24.376833,-14.0
2023-08-15 12:14:24.384522,-12.0
2023-08-15 12:14:24.392212,-19.0
2023-08-15 12:14:24.399901,-28.0
2023-08-15 12:14:24.407590,-26.0
2023-08-15 12:14:24.415280,-9.0
2023-08-15 12:14:24.422969,-12.0
2023-08-15 12:14:24.430658,-26.0
2023-08-15 12:14:24.438348,-24.0
2023-08-15 12:14:24.446037,-96.0
2023-08-15 12:14:24.453726,-386.0
2023-08-15 12:14:24.461416,-851.0
2023-08-15 12:14:24.469105,-1119.0
2023-08-15 12:14:24.476795,-781.0
2023-08-15 12:14:24.484484,-24.0
2023-08-15 12:14:24.492173,357.0
2023-08-15 12:14:24.499863,120.0
2023-08-15 12:14:24.507552,-48.0
2023-08-15 12:14:24.515241,77.0
2023-08-15 12:14:24.522931,106.0
2023-08-15 12:14:24.530620,41.0
2023-08-15 12:14:24.538309,50.0
2023-08-15 12:14:24.545999,62.0
2023-08-15 12:14:24.553688,33.0
2023-08-15 12:14:24.561377,21.0
2023-08-15 12:14:24.569067,19.0
2023-08-15 12:14:24.576756,4.0
2023-08-15 12:14:24.584446,-2.0
2023-08-15 12:14:24.592135,-16.0
2023-08-15 12:14:24.599824,-36.0
2023-08-15 12:14:24.607514,-38.0
2023-08-15 12:14:24.615203,-38.0
2023-08-15 12:14:24.622892,-55.0
2023-08-15 12:14:24.630582,-77.0
2023-08-15 12:14:24.638271,-77.0
2023-08-15 12:14:24.645960,-74.0
2023-08-15 12:14:24.653650,-106.0
2023-08-15 12:14:24.661339,-144.0
2023-08-15 12:14:24.669028,-154.0
2023-08-15 12:14:24.676718,-149.0
2023-08-15 12:14:24.684407,-152.0
2023-08-15 12:14:24.692097,-161.0
2023-08-15 12:14:24.699786,-164.0
2023-08-15 12:14:24.707475,-152.0
2023-08-15 12:14:24.715165,-139.0
2023-08-15 12:14:24.722854,-127.0
2023-08-15 12:14:24.730543,-103.0
2023-08-15 12:14:24.738233,-69.0
2023-08-15 12:14:24.745922,-55.0
2023-08-15 12:14:24.753611,-65.0
2023-08-15 12:14:24.761301,-43.0
2023-08-15 12:14:24.768990,-14.0
2023-08-15 12:14:24.776680,-19.0
2023-08-15 12:14:24.784369,-14.0
2023-08-15 12:14:24.792058,-7.0
2023-08-15 12:14:24.799748,-24.0
2023-08-15 12:14:24.807437,-16.0
2023-08-15 12:14:24.815126,-9.0
2023-08-15 12:14:24.822816,-38.0
2023-08-15 12:14:24.830505,-43.0
2023-08-15 12:14:24.838194,-24.0
2023-08-15 12:14:24.845884,-38.0
2023-08-15 12:14:24.853573,-53.0
2023-08-15 12:14:24.861262,-50.0
2023-08-15 12:14:24.868952,-41.0
2023-08-15 12:14:24.876641,-24.0
2023-08-15 12:14:24.884331,-28.0
2023-08-15 12:14:24.892020,-48.0
2023-08-15 12:14:24.899709,-43.0
2023-08-15 12:14:24.907399,-24.0
2023-08-15 12:14:24.915088,-24.0
2023-08-15 12:14:24.922777,-38.0
2023-08-15 12:14:24.930467,-38.0
2023-08-15 12:14:24.938156,-31.0
2023-08-15 12:14:24.945845,-38.0
2023-08-15 12:14:24.953535,-36.0
2023-08-15 12:14:24.961224,-31.0
2023-08-15 12:14:24.968913,-43.0
2023-08-15 12:14:24.976603,-43.0
2023-08-15 12:14:24.984292,-26.0
2023-08-15 12:14:24.991982,-36.0
2023-08-15 12:14:24.999671,-48.0
2023-08-15 12:14:25.007360,-43.0
2023-08-15 12:14:25.015050,-38.0
2023-08-15 12:14:25.022739,-31.0
2023-08-15 12:14:25.030428,-31.0
2023-08-15 12:14:25.038118,-38.0
2023-08-15 12:14:25.045807,-26.0
2023-08-15 12:14:25.053496,-19.0
2023-08-15 12:14:25.061186,-33.0
2023-08-15 12:14:25.068875,-41.0
2023-08-15 12:14:25.076564,-41.0
2023-08-15 12:14:25.084254,-50.0
2023-08-15 12:14:25.091943,-65.0
2023-08-15 12:14:25.099633,-79.0
2023-08-15 12:14:25.107322,-96.0
2023-08-15 12:14:25.115011,-118.0
2023-08-15 12:14:25.122701,-120.0
2023-08-15 12:14:25.130390,-98.0
2023-08-15 12:14:25.138079,-72.0
2023-08-15 12:14:25.145769,-55.0
2023-08-15 12:14:25.153458,-33.0
2023-08-15 12:14:25.161147,-4.0
2023-08-15 12:14:25.168837,-2.0
2023-08-15 12:14:25.176526,-24.0
2023-08-15 12:14:25.184216,-14.0
2023-08-15 12:14:25.191905,2.0
2023-08-15 12:14:25.199594,0.0
2023-08-15 12:14:25.207284,-7.0
2023-08-15 12:14:25.214973,-4.0
2023-08-15 12:14:25.222662,-4.0
2023-08-15 12:14:25.230352,-21.0
2023-08-15 12:14:25.238041,-113.0
2023-08-15 12:14:25.245730,-366.0
2023-08-15 12:14:25.253420,-767.0
2023-08-15 12:14:25.261109,-994.0
2023-08-15 12:14:25.268798,-656.0
2023-08-15 12:14:25.276488,53.0
2023-08-15 12:14:25.284177,381.0
2023-08-15 12:14:25.291867,139.0
2023-08-15 12:14:25.299556,-38.0
2023-08-15 12:14:25.307245,60.0
2023-08-15 12:14:25.314935,79.0
2023-08-15 12:14:25.322624,14.0
2023-08-15 12:14:25.330313,31.0
2023-08-15 12:14:25.338003,45.0
2023-08-15 12:14:25.345692,21.0
2023-08-15 12:14:25.353381,21.0
2023-08-15 12:14:25.361071,4.0
2023-08-15 12:14:25.368760,-36.0
2023-08-15 12:14:25.376449,-38.0
2023-08-15 12:14:25.384139,-26.0
2023-08-15 12:14:25.391828,-43.0
2023-08-15 12:14:25.399518,-48.0
2023-08-15 12:14:25.407207,-31.0
2023-08-15 12:14:25.414896,-55.0
2023-08-15 12:14:25.422586,-86.0
2023-08-15 12:14:25.430275,-79.0
2023-08-15 12:14:25.437964,-77.0
2023-08-15 12:14:25.445654,-94.0
2023-08-15 12:14:25.453343,-118.0
2023-08-15 12:14:25.461032,-144.0
2023-08-15 12:14:25.468722,-166.0
2023-08-15 12:14:25.476411,-168.0
2023-08-15 12:14:25.484101,-173.0
2023-08-15 12:14:25.491790,-183.0
2023-08-15 12:14:25.499479,-176.0
2023-08-15 12:14:25.507169,-156.0
2023-08-15 12:14:25.514858,-135.0
2023-08-15 12:14:25.522547,-118.0
2023-08-15 12:14:25.530237,-103.0
2023-08-15 12:14:25.537926,-69.0
2023-08-15 12:14:25.545615,-55.0
2023-08-15 12:14:25.553305,-53.0
2023-08-15 12:14:25.560994,-31.0
2023-08-15 12:14:25.568683,-24.0
2023-08-15 12:14:25.576373,-28.0
2023-08-15 12:14:25.584062,-19.0
2023-08-15 12:14:25.591752,-21.0
2023-08-15 12:14:25.599441,-26.0
2023-08-15 12:14:25.607130,-16.0
2023-08-15 12:14:25.614820,-16.0
2023-08-15 12:14:25.622509,-31.0
2023-08-15 12:14:25.630198,-38.0
2023-08-15 12:14:25.637888,-43.0
2023-08-15 12:14:25.645577,-53.0
2023-08-15 12:14:25.653266,-45.0
2023-08-15 12:14:25.660956,-45.0
2023-08-15 12:14:25.668645,-60.0
2023-08-15 12:14:25.676334,-45.0
2023-08-15 12:14:25.684024,-31.0
2023-08-15 12:14:25.691713,-38.0
2023-08-15 12:14:25.699403,-24.0
2023-08-15 12:14:25.707092,-9.0
2023-08-15 12:14:25.714781,-33.0
2023-08-15 12:14:25.722471,-36.0
2023-08-15 12:14:25.730160,-28.0
2023-08-15 12:14:25.737849,-41.0
2023-08-15 12:14:25.745539,-48.0
2023-08-15 12:14:25.753228,-48.0
2023-08-15 12:14:25.760917,-48.0
2023-08-15 12:14:25.768607,-33.0
2023-08-15 12:14:25.776296,-21.0
2023-08-15 12:14:25.783985,-28.0
2023-08-15 12:14:25.791675,-45.0
2023-08-15 12:14:25.799364,-50.0
2023-08-15 12:14:25.807054,-28.0
2023-08-15 12:14:25.814743,-21.0
2023-08-15 12:14:25.822432,-33.0
2023-08-15 12:14:25.830122,-48.0
2023-08-15 12:14:25.837811,-60.0
2023-08-15 12:14:25.845500,-60.0
2023-08-15 12:14:25.853190,-67.0
2023-08-15 12:14:25.860879,-79.0
2023-08-15 12:14:25.868568,-86.0
2023-08-15 12:14:25.876258,-106.0
2023-08-15 12:14:25.883947,-127.0
2023-08-15 12:14:25.891637,-98.0
2023-08-15 12:14:25.899326,-60.0
2023-08-15 12:14:25.907015,-53.0
2023-08-15 12:14:25.914705,-48.0
2023-08-15 12:14:25.922394,-16.0
2023-08-15 12:14:25.930083,2.0
2023-08-15 12:14:25.937773,-12.0
2023-08-15 12:14:25.945462,-19.0
2023-08-15 12:14:25.953151,-4.0
2023-08-15 12:14:25.960841,-4.0
2023-08-15 12:14:25.968530,-19.0
2023-08-15 12:14:25.976219,-21.0
2023-08-15 12:14:25.983909,-4.0
2023-08-15 12:14:25.991598,-7.0
2023-08-15 12:14:25.999288,-118.0
2023-08-15 12:14:26.006977,-431.0
2023-08-15 12:14:26.014666,-902.0
2023-08-15 12:14:26.022356,-1167.0
2023-08-15 12:14:26.030045,-767.0
2023-08-15 12:14:26.037734,65.0
2023-08-15 12:14:26.045424,456.0
2023-08-15 12:14:26.053113,202.0
2023-08-15 12:14:26.060802,-16.0
2023-08-15 12:14:26.068492,45.0
2023-08-15 12:14:26.076181,74.0
2023-08-15 12:14:26.083870,36.0
2023-08-15 12:14:26.091560,41.0
2023-08-15 12:14:26.099249,26.0
2023-08-15 12:14:26.106939,-2.0
2023-08-15 12:14:26.114628,7.0
2023-08-15 12:14:26.122317,9.0
2023-08-15 12:14:26.130007,-9.0
2023-08-15 12:14:26.137696,-7.0
2023-08-15 12:14:26.145385,-12.0
2023-08-15 12:14:26.153075,-36.0
2023-08-15 12:14:26.160764,-45.0
2023-08-15 12:14:26.168453,-45.0
2023-08-15 12:14:26.176143,-55.0
2023-08-15 12:14:26.183832,-67.0
2023-08-15 12:14:26.191521,-79.0
2023-08-15 12:14:26.199211,-89.0
2023-08-15 12:14:26.206900,-98.0
2023-08-15 12:14:26.214590,-113.0
2023-08-15 12:14:26.222279,-130.0
2023-08-15 12:14:26.229968,-137.0
2023-08-15 12:14:26.237658,-149.0
2023-08-15 12:14:26.245347,-159.0
2023-08-15 12:14:26.253036,-159.0
2023-08-15 12:14:26.260726,-149.0
2023-08-15 12:14:26.268415,-127.0
2023-08-15 12:14:26.276104,-106.0
2023-08-15 12:14:26.283794,-86.0
2023-08-15 12:14:26.291483,-72.0
2023-08-15 12:14:26.299173,-82.0
2023-08-15 12:14:26.306862,-69.0
2023-08-15 12:14:26.314551,-36.0
2023-08-15 12:14:26.322241,-36.0
2023-08-15 12:14:26.329930,-45.0
2023-08-15 12:14:26.337619,-21.0
2023-08-15 12:14:26.345309,-12.0
2023-08-15 12:14:26.352998,-24.0
2023-08-15 12:14:26.360687,-14.0
2023-08-15 12:14:26.368377,2.0
2023-08-15 12:14:26.376066,-4.0
2023-08-15 12:14:26.383755,-9.0
2023-08-15 12:14:26.391445,-19.0
2023-08-15 12:14:26.399134,-45.0
2023-08-15 12:14:26.406824,-55.0
2023-08-15 12:14:26.414513,-38.0
2023-08-15 12:14:26.422202,-26.0
2023-08-15 12:14:26.429892,-21.0
2023-08-15 12:14:26.437581,-28.0
2023-08-15 12:14:26.445270,-50.0
2023-08-15 12:14:26.452960,-67.0
2023-08-15 12:14:26.460649,-60.0
2023-08-15 12:14:26.468338,-36.0
2023-08-15 12:14:26.476028,-28.0
2023-08-15 12:14:26.483717,-45.0
2023-08-15 12:14:26.491406,-43.0
2023-08-15 12:14:26.499096,-31.0
2023-08-15 12:14:26.506785,-36.0
2023-08-15 12:14:26.514475,-36.0
2023-08-15 12:14:26.522164,-21.0
2023-08-15 12:14:26.529853,-31.0
2023-08-15 12:14:26.537543,-55.0
2023-08-15 12:14:26.545232,-38.0
2023-08-15 12:14:26.552921,-26.0
2023-08-15 12:14:26.560611,-67.0
2023-08-15 12:14:26.568300,-77.0
2023-08-15 12:14:26.575989,-45.0
2023-08-15 12:14:26.583679,-53.0
2023-08-15 12:14:26.591368,-77.0
2023-08-15 12:14:26.599057,-82.0
2023-08-15 12:14:26.606747,-103.0
2023-08-15 12:14:26.614436,-142.0
2023-08-15 12:14:26.622126,-156.0
2023-08-15 12:14:26.629815,-130.0
2023-08-15 12:14:26.637504,-82.0
2023-08-15 12:14:26.645194,-53.0
2023-08-15 12:14:26.652883,-45.0
2023-08-15 12:14:26.660572,-31.0
2023-08-15 12:14:26.668262,-16.0
2023-08-15 12:14:26.675951,-9.0
2023-08-15 12:14:26.683640,-7.0
2023-08-15 12:14:26.691330,-24.0
2023-08-15 12:14:26.699019,-33.0
2023-08-15 12:14:26.706709,-24.0
2023-08-15 12:14:26.714398,-21.0
2023-08-15 12:14:26.722087,-16.0
2023-08-15 12:14:26.729777,-7.0
2023-08-15 12:14:26.737466,-113.0
2023-08-15 12:14:26.745155,-484.0
2023-08-15 12:14:26.752845,-1023.0
2023-08-15 12:14:26.760534,-1290.0
2023-08-15 12:14:26.768223,-859.0
2023-08-15 12:14:26.775913,26.0
2023-08-15 12:14:26.783602,465.0
2023-08-15 12:14:26.791291,205.0
2023-08-15 12:14:26.798981,-12.0
2023-08-15 12:14:26.806670,86.0
2023-08-15 12:14:26.814360,113.0
2023-08-15 12:14:26.822049,43.0
2023-08-15 12:14:26.829738,43.0
2023-08-15 12:14:26.837428,57.0
2023-08-15 12:14:26.845117,33.0
2023-08-15 12:14:26.852806,9.0
2023-08-15 12:14:26.860496,0.0
2023-08-15 12:14:26.868185,2.0
2023-08-15 12:14:26.875874,14.0
2023-08-15 12:14:26.883564,-2.0
2023-08-15 12:14:26.891253,-33.0
2023-08-15 12:14:26.898942,-36.0
2023-08-15 12:14:26.906632,-28.0
2023-08-15 12:14:26.914321,-48.0
2023-08-15 12:14:26.922011,-72.0
2023-08-15 12:14:26.929700,-79.0
2023-08-15 12:14:26.937389,-82.0
2023-08-15 12:14:26.945079,-94.0
2023-08-15 12:14:26.952768,-103.0
2023-08-15 12:14:26.960457,-118.0
2023-08-15 12:14:26.968147,-139.0
2023-08-15 12:14:26.975836,-159.0
2023-08-15 12:14:26.983525,-161.0
2023-08-15 12:14:26.991215,-149.0
2023-08-15 12:14:26.998904,-139.0
2023-08-15 12:14:27.006593,-144.0
2023-08-15 12:14:27.014283,-135.0
2023-08-15 12:14:27.021972,-91.0
2023-08-15 12:14:27.029662,-57.0
2023-08-15 12:14:27.037351,-45.0
2023-08-15 12:14:27.045040,-28.0
2023-08-15 12:14:27.052730,-9.0
2023-08-15 12:14:27.060419,0.0
2023-08-15 12:14:27.068108,7.0
2023-08-15 12:14:27.075798,12.0
2023-08-15 12:14:27.083487,16.0
2023-08-15 12:14:27.091176,28.0
2023-08-15 12:14:27.098866,28.0
2023-08-15 12:14:27.106555,16.0
2023-08-15 12:14:27.114245,14.0
2023-08-15 12:14:27.121934,12.0
2023-08-15 12:14:27.129623,-2.0
2023-08-15 12:14:27.137313,-14.0
2023-08-15 12:14:27.145002,-21.0
2023-08-15 12:14:27.152691,-38.0
2023-08-15 12:14:27.160381,-45.0
2023-08-15 12:14:27.168070,-31.0
2023-08-15 12:14:27.175759,-24.0
2023-08-15 12:14:27.183449,-19.0
2023-08-15 12:14:27.191138,-16.0
2023-08-15 12:14:27.198827,-31.0
2023-08-15 12:14:27.206517,-38.0
2023-08-15 12:14:27.214206,-26.0
2023-08-15 12:14:27.221896,-19.0
2023-08-15 12:14:27.229585,-21.0
2023-08-15 12:14:27.237274,-26.0
2023-08-15 12:14:27.244964,-36.0
2023-08-15 12:14:27.252653,-43.0
2023-08-15 12:14:27.260342,-43.0
2023-08-15 12:14:27.268032,-43.0
2023-08-15 12:14:27.275721,-45.0
2023-08-15 12:14:27.283410,-48.0
2023-08-15 12:14:27.291100,-41.0
2023-08-15 12:14:27.298789,-36.0
2023-08-15 12:14:27.306478,-45.0
2023-08-15 12:14:27.314168,-60.0
2023-08-15 12:14:27.321857,-65.0
2023-08-15 12:14:27.329547,-65.0
2023-08-15 12:14:27.337236,-84.0
2023-08-15 12:14:27.344925,-120.0
2023-08-15 12:14:27.352615,-132.0
2023-08-15 12:14:27.360304,-115.0
2023-08-15 12:14:27.367993,-108.0
2023-08-15 12:14:27.375683,-96.0
2023-08-15 12:14:27.383372,-60.0
2023-08-15 12:14:27.391061,-41.0
2023-08-15 12:14:27.398751,-33.0
2023-08-15 12:14:27.406440,-12.0
2023-08-15 12:14:27.414129,-4.0
2023-08-15 12:14:27.421819,-19.0
2023-08-15 12:14:27.429508,-26.0
2023-08-15 12:14:27.437198,-16.0
2023-08-15 12:14:27.444887,-4.0
2023-08-15 12:14:27.452576,-14.0
2023-08-15 12:14:27.460266,-16.0
2023-08-15 12:14:27.467955,-14.0
2023-08-15 12:14:27.475644,-110.0
2023-08-15 12:14:27.483334,-431.0
2023-08-15 12:14:27.491023,-904.0
2023-08-15 12:14:27.498712,-1160.0
2023-08-15 12:14:27.506402,-776.0
2023-08-15 12:14:27.514091,36.0
2023-08-15 12:14:27.521781,417.0
2023-08-15 12:14:27.529470,154.0
2023-08-15 12:14:27.537159,-21.0
2023-08-15 12:14:27.544849,89.0
2023-08-15 12:14:27.552538,101.0
2023-08-15 12:14:27.560227,31.0
2023-08-15 12:14:27.567917,36.0
2023-08-15 12:14:27.575606,43.0
2023-08-15 12:14:27.583295,26.0
2023-08-15 12:14:27.590985,31.0
2023-08-15 12:14:27.598674,14.0
2023-08-15 12:14:27.606363,-14.0
2023-08-15 12:14:27.614053,-9.0
2023-08-15 12:14:27.621742,-2.0
2023-08-15 12:14:27.629432,-28.0
2023-08-15 12:14:27.637121,-41.0
2023-08-15 12:14:27.644810,-28.0
2023-08-15 12:14:27.652500,-43.0
2023-08-15 12:14:27.660189,-74.0
2023-08-15 12:14:27.667878,-82.0
2023-08-15 12:14:27.675568,-89.0
2023-08-15 12:14:27.683257,-113.0
2023-08-15 12:14:27.690946,-132.0
2023-08-15 12:14:27.698636,-144.0
2023-08-15 12:14:27.706325,-161.0
2023-08-15 12:14:27.714014,-183.0
2023-08-15 12:14:27.721704,-195.0
2023-08-15 12:14:27.729393,-205.0
2023-08-15 12:14:27.737083,-195.0
2023-08-15 12:14:27.744772,-171.0
2023-08-15 12:14:27.752461,-166.0
2023-08-15 12:14:27.760151,-161.0
2023-08-15 12:14:27.767840,-135.0
2023-08-15 12:14:27.775529,-103.0
2023-08-15 12:14:27.783219,-77.0
2023-08-15 12:14:27.790908,-55.0
2023-08-15 12:14:27.798597,-41.0
2023-08-15 12:14:27.806287,-41.0
2023-08-15 12:14:27.813976,-31.0
2023-08-15 12:14:27.821666,-16.0
2023-08-15 12:14:27.829355,-14.0
2023-08-15 12:14:27.837044,-7.0
2023-08-15 12:14:27.844734,-2.0
2023-08-15 12:14:27.852423,-14.0
2023-08-15 12:14:27.860112,-31.0
2023-08-15 12:14:27.867802,-38.0
2023-08-15 12:14:27.875491,-24.0
2023-08-15 12:14:27.883180,-7.0
2023-08-15 12:14:27.890870,-19.0
2023-08-15 12:14:27.898559,-41.0
2023-08-15 12:14:27.906248,-45.0
2023-08-15 12:14:27.913938,-48.0
2023-08-15 12:14:27.921627,-43.0
2023-08-15 12:14:27.929317,-28.0
2023-08-15 12:14:27.937006,-41.0
2023-08-15 12:14:27.944695,-50.0
2023-08-15 12:14:27.952385,-38.0
2023-08-15 12:14:27.960074,-28.0
2023-08-15 12:14:27.967763,-26.0
2023-08-15 12:14:27.975453,-16.0
2023-08-15 12:14:27.983142,-24.0
2023-08-15 12:14:27.990831,-36.0
2023-08-15 12:14:27.998521,-31.0
2023-08-15 12:14:28.006210,-36.0
2023-08-15 12:14:28.013899,-36.0
2023-08-15 12:14:28.021589,-19.0
2023-08-15 12:14:28.029278,-9.0
2023-08-15 12:14:28.036968,-26.0
2023-08-15 12:14:28.044657,-50.0
2023-08-15 12:14:28.052346,-55.0
2023-08-15 12:14:28.060036,-41.0
2023-08-15 12:14:28.067725,-36.0
2023-08-15 12:14:28.075414,-43.0
2023-08-15 12:14:28.083104,-55.0
2023-08-15 12:14:28.090793,-65.0
2023-08-15 12:14:28.098482,-60.0
2023-08-15 12:14:28.106172,-57.0
2023-08-15 12:14:28.113861,-69.0
2023-08-15 12:14:28.121550,-89.0
2023-08-15 12:14:28.129240,-106.0
2023-08-15 12:14:28.136929,-127.0
2023-08-15 12:14:28.144619,-132.0
2023-08-15 12:14:28.152308,-94.0
2023-08-15 12:14:28.159997,-55.0
2023-08-15 12:14:28.167687,-48.0
2023-08-15 12:14:28.175376,-48.0
2023-08-15 12:14:28.183065,-28.0
2023-08-15 12:14:28.190755,0.0
2023-08-15 12:14:28.198444,-4.0
2023-08-15 12:14:28.206133,-26.0
2023-08-15 12:14:28.213823,-14.0
2023-08-15 12:14:28.221512,-7.0
2023-08-15 12:14:28.229202,-14.0
2023-08-15 12:14:28.236891,-14.0
2023-08-15 12:14:28.244580,-4.0
2023-08-15 12:14:28.252270,-21.0
2023-08-15 12:14:28.259959,-115.0
2023-08-15 12:14:28.267648,-383.0
2023-08-15 12:14:28.275338,-810.0
2023-08-15 12:14:28.283027,-1076.0
2023-08-15 12:14:28.290716,-767.0
2023-08-15 12:14:28.298406,-31.0
2023-08-15 12:14:28.306095,345.0
2023-08-15 12:14:28.313784,103.0
2023-08-15 12:14:28.321474,-86.0
2023-08-15 12:14:28.329163,31.0
2023-08-15 12:14:28.336853,69.0
2023-08-15 12:14:28.344542,12.0
2023-08-15 12:14:28.352231,26.0
2023-08-15 12:14:28.359921,9.0
2023-08-15 12:14:28.367610,-43.0
2023-08-15 12:14:28.375299,-24.0
2023-08-15 12:14:28.382989,-9.0
2023-08-15 12:14:28.390678,-48.0
2023-08-15 12:14:28.398367,-55.0
2023-08-15 12:14:28.406057,-50.0
2023-08-15 12:14:28.413746,-79.0
2023-08-15 12:14:28.421435,-94.0
2023-08-15 12:14:28.429125,-79.0
2023-08-15 12:14:28.436814,-74.0
2023-08-15 12:14:28.444504,-89.0
2023-08-15 12:14:28.452193,-115.0
2023-08-15 12:14:28.459882,-118.0
2023-08-15 12:14:28.467572,-108.0
2023-08-15 12:14:28.475261,-125.0
2023-08-15 12:14:28.482950,-149.0
2023-08-15 12:14:28.490640,-183.0
2023-08-15 12:14:28.498329,-221.0
2023-08-15 12:14:28.506018,-212.0
2023-08-15 12:14:28.513708,-188.0
2023-08-15 12:14:28.521397,-183.0
2023-08-15 12:14:28.529086,-180.0
2023-08-15 12:14:28.536776,-168.0
2023-08-15 12:14:28.544465,-147.0
2023-08-15 12:14:28.552155,-130.0
2023-08-15 12:14:28.559844,-103.0
2023-08-15 12:14:28.567533,-50.0
2023-08-15 12:14:28.575223,-28.0
2023-08-15 12:14:28.582912,-43.0
2023-08-15 12:14:28.590601,-24.0
2023-08-15 12:14:28.598291,-2.0
2023-08-15 12:14:28.605980,-14.0
2023-08-15 12:14:28.613669,-14.0
2023-08-15 12:14:28.621359,-16.0
2023-08-15 12:14:28.629048,-26.0
2023-08-15 12:14:28.636738,-12.0
2023-08-15 12:14:28.644427,-2.0
2023-08-15 12:14:28.652116,4.0
2023-08-15 12:14:28.659806,12.0
2023-08-15 12:14:28.667495,-12.0
2023-08-15 12:14:28.675184,-28.0
2023-08-15 12:14:28.682874,-26.0
2023-08-15 12:14:28.690563,-26.0
2023-08-15 12:14:28.698252,-19.0
2023-08-15 12:14:28.705942,-12.0
2023-08-15 12:14:28.713631,-14.0
2023-08-15 12:14:28.721320,-16.0
2023-08-15 12:14:28.729010,-21.0
2023-08-15 12:14:28.736699,-28.0
2023-08-15 12:14:28.744389,-31.0
2023-08-15 12:14:28.752078,-16.0
2023-08-15 12:14:28.759767,-19.0
2023-08-15 12:14:28.767457,-38.0
2023-08-15 12:14:28.775146,-36.0
2023-08-15 12:14:28.782835,-38.0
2023-08-15 12:14:28.790525,-50.0
2023-08-15 12:14:28.798214,-26.0
2023-08-15 12:14:28.805903,-12.0
2023-08-15 12:14:28.813593,-43.0
2023-08-15 12:14:28.821282,-48.0
2023-08-15 12:14:28.828971,-19.0
2023-08-15 12:14:28.836661,-24.0
2023-08-15 12:14:28.844350,-41.0
2023-08-15 12:14:28.852040,-38.0
2023-08-15 12:14:28.859729,-60.0
2023-08-15 12:14:28.867418,-74.0
2023-08-15 12:14:28.875108,-60.0
2023-08-15 12:14:28.882797,-57.0
2023-08-15 12:14:28.890486,-62.0
2023-08-15 12:14:28.898176,-43.0
2023-08-15 12:14:28.905865,-38.0
2023-08-15 12:14:28.913554,-72.0
2023-08-15 12:14:28.921244,-89.0
2023-08-15 12:14:28.928933,-84.0
2023-08-15 12:14:28.936622,-84.0
2023-08-15 12:14:28.944312,-98.0
2023-08-15 12:14:28.952001,-127.0
2023-08-15 12:14:28.959691,-139.0
2023-08-15 12:14:28.967380,-120.0
2023-08-15 12:14:28.975069,-77.0
2023-08-15 12:14:28.982759,-45.0
2023-08-15 12:14:28.990448,-48.0
2023-08-15 12:14:28.998137,-31.0
2023-08-15 12:14:29.005827,0.0
2023-08-15 12:14:29.013516,-14.0
2023-08-15 12:14:29.021205,-31.0
2023-08-15 12:14:29.028895,-16.0
2023-08-15 12:14:29.036584,-21.0
2023-08-15 12:14:29.044274,-36.0
2023-08-15 12:14:29.051963,-33.0
2023-08-15 12:14:29.059652,-12.0
2023-08-15 12:14:29.067342,2.0
2023-08-15 12:14:29.075031,-74.0
2023-08-15 12:14:29.082720,-364.0
2023-08-15 12:14:29.090410,-844.0
2023-08-15 12:14:29.098099,-1182.0
2023-08-15 12:14:29.105788,-916.0
2023-08-15 12:14:29.113478,-118.0
2023-08-15 12:14:29.121167,422.0
2023-08-15 12:14:29.128856,265.0
2023-08-15 12:14:29.136546,-14.0
2023-08-15 12:14:29.144235,45.0
2023-08-15 12:14:29.151925,135.0
2023-08-15 12:14:29.159614,72.0
2023-08-15 12:14:29.167303,36.0
2023-08-15 12:14:29.174993,50.0
2023-08-15 12:14:29.182682,48.0
2023-08-15 12:14:29.190371,33.0
2023-08-15 12:14:29.198061,12.0
2023-08-15 12:14:29.205750,-4.0
2023-08-15 12:14:29.213439,4.0
2023-08-15 12:14:29.221129,14.0
2023-08-15 12:14:29.228818,-9.0
2023-08-15 12:14:29.236507,-33.0
2023-08-15 12:14:29.244197,-28.0
2023-08-15 12:14:29.251886,-28.0
2023-08-15 12:14:29.259576,-55.0
2023-08-15 12:14:29.267265,-74.0
2023-08-15 12:14:29.274954,-72.0
2023-08-15 12:14:29.282644,-94.0
2023-08-15 12:14:29.290333,-130.0
2023-08-15 12:14:29.298022,-132.0
2023-08-15 12:14:29.305712,-137.0
2023-08-15 12:14:29.313401,-164.0
2023-08-15 12:14:29.321090,-173.0
2023-08-15 12:14:29.328780,-171.0
2023-08-15 12:14:29.336469,-164.0
2023-08-15 12:14:29.344158,-144.0
2023-08-15 12:14:29.351848,-123.0
2023-08-15 12:14:29.359537,-103.0
2023-08-15 12:14:29.367227,-94.0
2023-08-15 12:14:29.374916,-91.0
2023-08-15 12:14:29.382605,-74.0
2023-08-15 12:14:29.390295,-45.0
2023-08-15 12:14:29.397984,-31.0
2023-08-15 12:14:29.405673,-19.0
2023-08-15 12:14:29.413363,-4.0
2023-08-15 12:14:29.421052,4.0
2023-08-15 12:14:29.428741,14.0
2023-08-15 12:14:29.436431,4.0
2023-08-15 12:14:29.444120,-16.0
2023-08-15 12:14:29.451810,-7.0
2023-08-15 12:14:29.459499,0.0
2023-08-15 12:14:29.467188,-28.0
2023-08-15 12:14:29.474878,-36.0
2023-08-15 12:14:29.482567,-19.0
2023-08-15 12:14:29.490256,-33.0
2023-08-15 12:14:29.497946,-53.0
2023-08-15 12:14:29.505635,-41.0
2023-08-15 12:14:29.513324,-33.0
2023-08-15 12:14:29.521014,-48.0
2023-08-15 12:14:29.528703,-55.0
2023-08-15 12:14:29.536392,-50.0
2023-08-15 12:14:29.544082,-41.0
2023-08-15 12:14:29.551771,-33.0
2023-08-15 12:14:29.559461,-36.0
2023-08-15 12:14:29.567150,-43.0
2023-08-15 12:14:29.574839,-38.0
2023-08-15 12:14:29.582529,-26.0
2023-08-15 12:14:29.590218,-19.0
2023-08-15 12:14:29.597907,-36.0
2023-08-15 12:14:29.605597,-57.0
2023-08-15 12:14:29.613286,-55.0
2023-08-15 12:14:29.620975,-38.0
2023-08-15 12:14:29.628665,-28.0
2023-08-15 12:14:29.636354,-26.0
2023-08-15 12:14:29.644043,-24.0
2023-08-15 12:14:29.651733,-16.0
2023-08-15 12:14:29.659422,-28.0
2023-08-15 12:14:29.667112,-43.0
2023-08-15 12:14:29.674801,-36.0
2023-08-15 12:14:29.682490,-36.0
2023-08-15 12:14:29.690180,-45.0
2023-08-15 12:14:29.697869,-43.0
2023-08-15 12:14:29.705558,-33.0
2023-08-15 12:14:29.713248,-36.0
2023-08-15 12:14:29.720937,-45.0
2023-08-15 12:14:29.728626,-48.0
2023-08-15 12:14:29.736316,-45.0
2023-08-15 12:14:29.744005,-53.0
2023-08-15 12:14:29.751695,-62.0
2023-08-15 12:14:29.759384,-65.0
2023-08-15 12:14:29.767073,-77.0
2023-08-15 12:14:29.774763,-115.0
2023-08-15 12:14:29.782452,-144.0
2023-08-15 12:14:29.790141,-135.0
2023-08-15 12:14:29.797831,-110.0
2023-08-15 12:14:29.805520,-94.0
2023-08-15 12:14:29.813209,-62.0
2023-08-15 12:14:29.820899,-21.0
2023-08-15 12:14:29.828588,-26.0
2023-08-15 12:14:29.836277,-31.0
2023-08-15 12:14:29.843967,-16.0
2023-08-15 12:14:29.851656,-31.0
2023-08-15 12:14:29.859346,-38.0
2023-08-15 12:14:29.867035,-24.0
2023-08-15 12:14:29.874724,-16.0
2023-08-15 12:14:29.882414,-24.0
2023-08-15 12:14:29.890103,-14.0
2023-08-15 12:14:29.897792,-16.0
2023-08-15 12:14:29.905482,-161.0
2023-08-15 12:14:29.913171,-574.0
2023-08-15 12:14:29.920860,-1112.0
2023-08-15 12:14:29.928550,-1274.0
2023-08-15 12:14:29.936239,-706.0
2023-08-15 12:14:29.943928,152.0
2023-08-15 12:14:29.951618,419.0
2023-08-15 12:14:29.959307,94.0
2023-08-15 12:14:29.966997,-21.0
2023-08-15 12:14:29.974686,125.0
2023-08-15 12:14:29.982375,98.0
2023-08-15 12:14:29.990065,12.0
2023-08-15 12:14:29.997754,43.0
2023-08-15 12:14:30.005443,55.0
2023-08-15 12:14:30.013133,19.0
2023-08-15 12:14:30.020822,21.0
2023-08-15 12:14:30.028511,31.0
2023-08-15 12:14:30.036201,-2.0
2023-08-15 12:14:30.043890,-31.0
2023-08-15 12:14:30.051579,-26.0
2023-08-15 12:14:30.059269,-24.0
2023-08-15 12:14:30.066958,-38.0
2023-08-15 12:14:30.074648,-45.0
2023-08-15 12:14:30.082337,-55.0
2023-08-15 12:14:30.090026,-57.0
2023-08-15 12:14:30.097716,-57.0
2023-08-15 12:14:30.105405,-77.0
2023-08-15 12:14:30.113094,-101.0
2023-08-15 12:14:30.120784,-108.0
2023-08-15 12:14:30.128473,-115.0
2023-08-15 12:14:30.136162,-149.0
2023-08-15 12:14:30.143852,-173.0
2023-08-15 12:14:30.151541,-154.0
2023-08-15 12:14:30.159231,-132.0
2023-08-15 12:14:30.166920,-144.0
2023-08-15 12:14:30.174609,-183.0
2023-08-15 12:14:30.182299,-171.0
2023-08-15 12:14:30.189988,-108.0
2023-08-15 12:14:30.197677,-86.0
2023-08-15 12:14:30.205367,-96.0
2023-08-15 12:14:30.213056,-65.0
2023-08-15 12:14:30.220745,-4.0
2023-08-15 12:14:30.228435,19.0
2023-08-15 12:14:30.236124,9.0
2023-08-15 12:14:30.243813,4.0
2023-08-15 12:14:30.251503,9.0
2023-08-15 12:14:30.259192,14.0
2023-08-15 12:14:30.266882,16.0
2023-08-15 12:14:30.274571,7.0
2023-08-15 12:14:30.282260,-7.0
2023-08-15 12:14:30.289950,2.0
2023-08-15 12:14:30.297639,7.0
2023-08-15 12:14:30.305328,-7.0
2023-08-15 12:14:30.313018,-9.0
2023-08-15 12:14:30.320707,4.0
2023-08-15 12:14:30.328396,2.0
2023-08-15 12:14:30.336086,-14.0
2023-08-15 12:14:30.343775,-28.0
2023-08-15 12:14:30.351464,-26.0
2023-08-15 12:14:30.359154,-4.0
2023-08-15 12:14:30.366843,2.0
2023-08-15 12:14:30.374533,-12.0
2023-08-15 12:14:30.382222,-28.0
2023-08-15 12:14:30.389911,-28.0
2023-08-15 12:14:30.397601,-9.0
2023-08-15 12:14:30.405290,2.0
2023-08-15 12:14:30.412979,-14.0
2023-08-15 12:14:30.420669,-38.0
2023-08-15 12:14:30.428358,-36.0
2023-08-15 12:14:30.436047,-14.0
2023-08-15 12:14:30.443737,-4.0
2023-08-15 12:14:30.451426,-16.0
2023-08-15 12:14:30.459115,-28.0
2023-08-15 12:14:30.466805,-21.0
2023-08-15 12:14:30.474494,-16.0
2023-08-15 12:14:30.482184,-36.0
2023-08-15 12:14:30.489873,-53.0
2023-08-15 12:14:30.497562,-48.0
2023-08-15 12:14:30.505252,-41.0
2023-08-15 12:14:30.512941,-36.0
2023-08-15 12:14:30.520630,-36.0
2023-08-15 12:14:30.528320,-45.0
2023-08-15 12:14:30.536009,-48.0
2023-08-15 12:14:30.543698,-43.0
2023-08-15 12:14:30.551388,-45.0
2023-08-15 12:14:30.559077,-48.0
2023-08-15 12:14:30.566767,-55.0
2023-08-15 12:14:30.574456,-69.0
2023-08-15 12:14:30.582145,-57.0
2023-08-15 12:14:30.589835,-36.0
2023-08-15 12:14:30.597524,-50.0
2023-08-15 12:14:30.605213,-94.0
2023-08-15 12:14:30.612903,-110.0
2023-08-15 12:14:30.620592,-108.0
2023-08-15 12:14:30.628281,-120.0
2023-08-15 12:14:30.635971,-118.0
2023-08-15 12:14:30.643660,-84.0
2023-08-15 12:14:30.651349,-53.0
2023-08-15 12:14:30.659039,-45.0
2023-08-15 12:14:30.666728,-48.0
2023-08-15 12:14:30.674418,-21.0
2023-08-15 12:14:30.682107,2.0
2023-08-15 12:14:30.689796,-9.0
2023-08-15 12:14:30.697486,-19.0
2023-08-15 12:14:30.705175,-9.0
2023-08-15 12:14:30.712864,-4.0
2023-08-15 12:14:30.720554,-14.0
2023-08-15 12:14:30.728243,-26.0
2023-08-15 12:14:30.735932,-14.0
2023-08-15 12:14:30.743622,-28.0
2023-08-15 12:14:30.751311,-202.0
2023-08-15 12:14:30.759000,-598.0
2023-08-15 12:14:30.766690,-1042.0
2023-08-15 12:14:30.774379,-1071.0
2023-08-15 12:14:30.782069,-463.0
2023-08-15 12:14:30.789758,229.0
2023-08-15 12:14:30.797447,299.0
2023-08-15 12:14:30.805137,2.0
2023-08-15 12:14:30.812826,-4.0
2023-08-15 12:14:30.820515,115.0
2023-08-15 12:14:30.828205,62.0
2023-08-15 12:14:30.835894,21.0
2023-08-15 12:14:30.843583,48.0
2023-08-15 12:14:30.851273,28.0
2023-08-15 12:14:30.858962,9.0
2023-08-15 12:14:30.866651,16.0
2023-08-15 12:14:30.874341,-7.0
2023-08-15 12:14:30.882030,-31.0
2023-08-15 12:14:30.889720,-9.0
2023-08-15 12:14:30.897409,2.0
2023-08-15 12:14:30.905098,-12.0
2023-08-15 12:14:30.912788,-33.0
2023-08-15 12:14:30.920477,-65.0
2023-08-15 12:14:30.928166,-82.0
2023-08-15 12:14:30.935856,-79.0
2023-08-15 12:14:30.943545,-77.0
2023-08-15 12:14:30.951234,-84.0
2023-08-15 12:14:30.958924,-96.0
2023-08-15 12:14:30.966613,-110.0
2023-08-15 12:14:30.974303,-139.0
2023-08-15 12:14:30.981992,-171.0
2023-08-15 12:14:30.989681,-180.0
2023-08-15 12:14:30.997371,-178.0
2023-08-15 12:14:31.005060,-176.0
2023-08-15 12:14:31.012749,-183.0
2023-08-15 12:14:31.020439,-190.0
2023-08-15 12:14:31.028128,-171.0
2023-08-15 12:14:31.035817,-135.0
2023-08-15 12:14:31.043507,-110.0
2023-08-15 12:14:31.051196,-86.0
2023-08-15 12:14:31.058885,-62.0
2023-08-15 12:14:31.066575,-50.0
2023-08-15 12:14:31.074264,-38.0
2023-08-15 12:14:31.081954,-19.0
2023-08-15 12:14:31.089643,-2.0
2023-08-15 12:14:31.097332,9.0
2023-08-15 12:14:31.105022,7.0
2023-08-15 12:14:31.112711,-16.0
2023-08-15 12:14:31.120400,-28.0
2023-08-15 12:14:31.128090,-16.0
2023-08-15 12:14:31.135779,-7.0
2023-08-15 12:14:31.143468,-14.0
2023-08-15 12:14:31.151158,-16.0
2023-08-15 12:14:31.158847,-21.0
2023-08-15 12:14:31.166536,-33.0
2023-08-15 12:14:31.174226,-24.0
2023-08-15 12:14:31.181915,-16.0
2023-08-15 12:14:31.189605,-36.0
2023-08-15 12:14:31.197294,-45.0
2023-08-15 12:14:31.204983,-41.0
2023-08-15 12:14:31.212673,-31.0
2023-08-15 12:14:31.220362,-19.0
2023-08-15 12:14:31.228051,-16.0
2023-08-15 12:14:31.235741,-26.0
2023-08-15 12:14:31.243430,-31.0
2023-08-15 12:14:31.251119,-21.0
2023-08-15 12:14:31.258809,-16.0
2023-08-15 12:14:31.266498,-24.0
2023-08-15 12:14:31.274187,-36.0
2023-08-15 12:14:31.281877,-43.0
2023-08-15 12:14:31.289566,-36.0
2023-08-15 12:14:31.297256,-41.0
2023-08-15 12:14:31.304945,-45.0
2023-08-15 12:14:31.312634,-38.0
2023-08-15 12:14:31.320324,-28.0
2023-08-15 12:14:31.328013,-26.0
2023-08-15 12:14:31.335702,-41.0
2023-08-15 12:14:31.343392,-50.0
2023-08-15 12:14:31.351081,-26.0
2023-08-15 12:14:31.358770,-4.0
2023-08-15 12:14:31.366460,-21.0
2023-08-15 12:14:31.374149,-55.0
2023-08-15 12:14:31.381839,-57.0
2023-08-15 12:14:31.389528,-41.0
2023-08-15 12:14:31.397217,-41.0
2023-08-15 12:14:31.404907,-43.0
2023-08-15 12:14:31.412596,-38.0
2023-08-15 12:14:31.420285,-38.0
2023-08-15 12:14:31.427975,-41.0
2023-08-15 12:14:31.435664,-43.0
2023-08-15 12:14:31.443353,-43.0
2023-08-15 12:14:31.451043,-45.0
2023-08-15 12:14:31.458732,-57.0
2023-08-15 12:14:31.466421,-89.0
2023-08-15 12:14:31.474111,-120.0
2023-08-15 12:14:31.481800,-125.0
2023-08-15 12:14:31.489490,-118.0
2023-08-15 12:14:31.497179,-86.0
2023-08-15 12:14:31.504868,-45.0
2023-08-15 12:14:31.512558,-33.0
2023-08-15 12:14:31.520247,-41.0
2023-08-15 12:14:31.527936,-31.0
2023-08-15 12:14:31.535626,0.0
2023-08-15 12:14:31.543315,7.0
2023-08-15 12:14:31.551004,-16.0
2023-08-15 12:14:31.558694,-26.0
2023-08-15 12:14:31.566383,-16.0
2023-08-15 12:14:31.574072,-14.0
2023-08-15 12:14:31.581762,-12.0
2023-08-15 12:14:31.589451,0.0
2023-08-15 12:14:31.597141,-9.0
2023-08-15 12:14:31.604830,-132.0
2023-08-15 12:14:31.612519,-460.0
2023-08-15 12:14:31.620209,-928.0
2023-08-15 12:14:31.627898,-1141.0
2023-08-15 12:14:31.635587,-702.0
2023-08-15 12:14:31.643277,79.0
2023-08-15 12:14:31.650966,366.0
2023-08-15 12:14:31.658655,86.0
2023-08-15 12:14:31.666345,-31.0
2023-08-15 12:14:31.674034,110.0
2023-08-15 12:14:31.681723,106.0
2023-08-15 12:14:31.689413,24.0
2023-08-15 12:14:31.697102,41.0
2023-08-15 12:14:31.704792,43.0
2023-08-15 12:14:31.712481,9.0
2023-08-15 12:14:31.720170,7.0
2023-08-15 12:14:31.727860,12.0
2023-08-15 12:14:31.735549,-2.0
2023-08-15 12:14:31.743238,-12.0
2023-08-15 12:14:31.750928,-21.0
2023-08-15 12:14:31.758617,-31.0
2023-08-15 12:14:31.766306,-36.0
2023-08-15 12:14:31.773996,-48.0
2023-08-15 12:14:31.781685,-69.0
2023-08-15 12:14:31.789375,-89.0
2023-08-15 12:14:31.797064,-101.0
2023-08-15 12:14:31.804753,-108.0
2023-08-15 12:14:31.812443,-123.0
2023-08-15 12:14:31.820132,-139.0
2023-08-15 12:14:31.827821,-156.0
2023-08-15 12:14:31.835511,-171.0
2023-08-15 12:14:31.843200,-180.0
2023-08-15 12:14:31.850889,-190.0
2023-08-15 12:14:31.858579,-202.0
2023-08-15 12:14:31.866268,-202.0
2023-08-15 12:14:31.873957,-188.0
2023-08-15 12:14:31.881647,-168.0
2023-08-15 12:14:31.889336,-142.0
2023-08-15 12:14:31.897026,-118.0
2023-08-15 12:14:31.904715,-113.0
2023-08-15 12:14:31.912404,-96.0
2023-08-15 12:14:31.920094,-60.0
2023-08-15 12:14:31.927783,-38.0
2023-08-15 12:14:31.935472,-24.0
2023-08-15 12:14:31.943162,-12.0
2023-08-15 12:14:31.950851,-4.0
2023-08-15 12:14:31.958540,-4.0
2023-08-15 12:14:31.966230,-7.0
2023-08-15 12:14:31.973919,-16.0
2023-08-15 12:14:31.981608,-21.0
2023-08-15 12:14:31.989298,-7.0
2023-08-15 12:14:31.996987,-4.0
2023-08-15 12:14:32.004677,-26.0
2023-08-15 12:14:32.012366,-43.0
2023-08-15 12:14:32.020055,-33.0
2023-08-15 12:14:32.027745,-12.0
2023-08-15 12:14:32.035434,-2.0
2023-08-15 12:14:32.043123,-19.0
2023-08-15 12:14:32.050813,-31.0
2023-08-15 12:14:32.058502,-16.0
2023-08-15 12:14:32.066191,-7.0
2023-08-15 12:14:32.073881,-21.0
2023-08-15 12:14:32.081570,-33.0
2023-08-15 12:14:32.089260,-21.0
2023-08-15 12:14:32.096949,0.0
2023-08-15 12:14:32.104638,-9.0
2023-08-15 12:14:32.112328,-36.0
2023-08-15 12:14:32.120017,-28.0
2023-08-15 12:14:32.127706,-12.0
2023-08-15 12:14:32.135396,-14.0
2023-08-15 12:14:32.143085,-7.0
2023-08-15 12:14:32.150774,2.0
2023-08-15 12:14:32.158464,-12.0
2023-08-15 12:14:32.166153,-16.0
2023-08-15 12:14:32.173842,-7.0
2023-08-15 12:14:32.181532,-12.0
2023-08-15 12:14:32.189221,-12.0
2023-08-15 12:14:32.196911,-7.0
2023-08-15 12:14:32.204600,-24.0
2023-08-15 12:14:32.212289,-41.0
2023-08-15 12:14:32.219979,-21.0
2023-08-15 12:14:32.227668,-9.0
2023-08-15 12:14:32.235357,-21.0
2023-08-15 12:14:32.243047,-16.0
2023-08-15 12:14:32.250736,-4.0
2023-08-15 12:14:32.258425,-16.0
2023-08-15 12:14:32.266115,-33.0
2023-08-15 12:14:32.273804,-28.0
2023-08-15 12:14:32.281493,-43.0
2023-08-15 12:14:32.289183,-74.0
2023-08-15 12:14:32.296872,-86.0
2023-08-15 12:14:32.304562,-91.0
2023-08-15 12:14:32.312251,-118.0
2023-08-15 12:14:32.319940,-135.0
2023-08-15 12:14:32.327630,-106.0
2023-08-15 12:14:32.335319,-62.0
2023-08-15 12:14:32.343008,-57.0
2023-08-15 12:14:32.350698,-65.0
2023-08-15 12:14:32.358387,-38.0
2023-08-15 12:14:32.366076,-2.0
2023-08-15 12:14:32.373766,9.0
2023-08-15 12:14:32.381455,-7.0
2023-08-15 12:14:32.389144,-19.0
2023-08-15 12:14:32.396834,7.0
2023-08-15 12:14:32.404523,9.0
2023-08-15 12:14:32.412213,-21.0
2023-08-15 12:14:32.419902,-14.0
2023-08-15 12:14:32.427591,4.0
2023-08-15 12:14:32.435281,-38.0
2023-08-15 12:14:32.442970,-248.0
2023-08-15 12:14:32.450659,-716.0
2023-08-15 12:14:32.458349,-1182.0
2023-08-15 12:14:32.466038,-1095.0
2023-08-15 12:14:32.473727,-347.0
2023-08-15 12:14:32.481417,335.0
2023-08-15 12:14:32.489106,318.0
2023-08-15 12:14:32.496796,26.0
2023-08-15 12:14:32.504485,41.0
2023-08-15 12:14:32.512174,139.0
2023-08-15 12:14:32.519864,86.0
2023-08-15 12:14:32.527553,62.0
2023-08-15 12:14:32.535242,74.0
2023-08-15 12:14:32.542932,38.0
2023-08-15 12:14:32.550621,26.0
2023-08-15 12:14:32.558310,43.0
2023-08-15 12:14:32.566000,16.0
2023-08-15 12:14:32.573689,-12.0
2023-08-15 12:14:32.581378,7.0
2023-08-15 12:14:32.589068,12.0
2023-08-15 12:14:32.596757,-26.0
2023-08-15 12:14:32.604447,-43.0
2023-08-15 12:14:32.612136,-24.0
2023-08-15 12:14:32.619825,-43.0
2023-08-15 12:14:32.627515,-67.0
2023-08-15 12:14:32.635204,-57.0
2023-08-15 12:14:32.642893,-86.0
2023-08-15 12:14:32.650583,-132.0
2023-08-15 12:14:32.658272,-127.0
2023-08-15 12:14:32.665961,-127.0
2023-08-15 12:14:32.673651,-159.0
2023-08-15 12:14:32.681340,-168.0
2023-08-15 12:14:32.689029,-178.0
2023-08-15 12:14:32.696719,-180.0
2023-08-15 12:14:32.704408,-159.0
2023-08-15 12:14:32.712098,-149.0
2023-08-15 12:14:32.719787,-142.0
2023-08-15 12:14:32.727476,-120.0
2023-08-15 12:14:32.735166,-98.0
2023-08-15 12:14:32.742855,-77.0
2023-08-15 12:14:32.750544,-50.0
2023-08-15 12:14:32.758234,-24.0
2023-08-15 12:14:32.765923,-21.0
2023-08-15 12:14:32.773612,-31.0
2023-08-15 12:14:32.781302,-26.0
2023-08-15 12:14:32.788991,-2.0
2023-08-15 12:14:32.796680,4.0
2023-08-15 12:14:32.804370,-21.0
2023-08-15 12:14:32.812059,-43.0
2023-08-15 12:14:32.819749,-31.0
2023-08-15 12:14:32.827438,-7.0
2023-08-15 12:14:32.835127,-2.0
2023-08-15 12:14:32.842817,-24.0
2023-08-15 12:14:32.850506,-33.0
2023-08-15 12:14:32.858195,-14.0
2023-08-15 12:14:32.865885,-9.0
2023-08-15 12:14:32.873574,-36.0
2023-08-15 12:14:32.881263,-36.0
2023-08-15 12:14:32.888953,-12.0
2023-08-15 12:14:32.896642,-14.0
2023-08-15 12:14:32.904332,-24.0
2023-08-15 12:14:32.912021,-19.0
2023-08-15 12:14:32.919710,-24.0
2023-08-15 12:14:32.927400,-26.0
2023-08-15 12:14:32.935089,-14.0
2023-08-15 12:14:32.942778,-7.0
2023-08-15 12:14:32.950468,-14.0
2023-08-15 12:14:32.958157,-12.0
2023-08-15 12:14:32.965846,-4.0
2023-08-15 12:14:32.973536,-24.0
2023-08-15 12:14:32.981225,-53.0
2023-08-15 12:14:32.988914,-36.0
2023-08-15 12:14:32.996604,-4.0
2023-08-15 12:14:33.004293,-4.0
2023-08-15 12:14:33.011983,-26.0
2023-08-15 12:14:33.019672,-33.0
2023-08-15 12:14:33.027361,-12.0
2023-08-15 12:14:33.035051,-4.0
2023-08-15 12:14:33.042740,-26.0
2023-08-15 12:14:33.050429,-31.0
2023-08-15 12:14:33.058119,-28.0
2023-08-15 12:14:33.065808,-36.0
2023-08-15 12:14:33.073497,-31.0
2023-08-15 12:14:33.081187,-16.0
2023-08-15 12:14:33.088876,-21.0
2023-08-15 12:14:33.096565,-24.0
2023-08-15 12:14:33.104255,-12.0
2023-08-15 12:14:33.111944,-14.0
2023-08-15 12:14:33.119634,-28.0
2023-08-15 12:14:33.127323,-24.0
2023-08-15 12:14:33.135012,-31.0
2023-08-15 12:14:33.142702,-65.0
2023-08-15 12:14:33.150391,-77.0
2023-08-15 12:14:33.158080,-96.0
2023-08-15 12:14:33.165770,-113.0
2023-08-15 12:14:33.173459,-77.0
2023-08-15 12:14:33.181148,-38.0
2023-08-15 12:14:33.188838,-45.0
2023-08-15 12:14:33.196527,-45.0
2023-08-15 12:14:33.204216,-7.0
2023-08-15 12:14:33.211906,21.0
2023-08-15 12:14:33.219595,4.0
2023-08-15 12:14:33.227285,-16.0
2023-08-15 12:14:33.234974,-12.0
2023-08-15 12:14:33.242663,9.0
2023-08-15 12:14:33.250353,16.0
2023-08-15 12:14:33.258042,4.0
2023-08-15 12:14:33.265731,0.0
2023-08-15 12:14:33.273421,2.0
2023-08-15 12:14:33.281110,-84.0
2023-08-15 12:14:33.288799,-364.0
2023-08-15 12:14:33.296489,-803.0
2023-08-15 12:14:33.304178,-1100.0
2023-08-15 12:14:33.311868,-820.0
2023-08-15 12:14:33.319557,-53.0
2023-08-15 12:14:33.327246,395.0
2023-08-15 12:14:33.334936,188.0
2023-08-15 12:14:33.342625,-24.0
2023-08-15 12:14:33.350314,72.0
2023-08-15 12:14:33.358004,82.0
2023-08-15 12:14:33.365693,-2.0
2023-08-15 12:14:33.373382,26.0
2023-08-15 12:14:33.381072,41.0
2023-08-15 12:14:33.388761,-7.0
2023-08-15 12:14:33.396450,-7.0
2023-08-15 12:14:33.404140,14.0
2023-08-15 12:14:33.411829,-9.0
2023-08-15 12:14:33.419519,-33.0
2023-08-15 12:14:33.427208,-31.0
2023-08-15 12:14:33.434897,-33.0
2023-08-15 12:14:33.442587,-43.0
2023-08-15 12:14:33.450276,-57.0
2023-08-15 12:14:33.457965,-69.0
2023-08-15 12:14:33.465655,-91.0
2023-08-15 12:14:33.473344,-113.0
2023-08-15 12:14:33.481033,-113.0
2023-08-15 12:14:33.488723,-118.0
2023-08-15 12:14:33.496412,-149.0
2023-08-15 12:14:33.504101,-168.0
2023-08-15 12:14:33.511791,-159.0
2023-08-15 12:14:33.519480,-173.0
2023-08-15 12:14:33.527170,-209.0
2023-08-15 12:14:33.534859,-212.0
2023-08-15 12:14:33.542548,-200.0
2023-08-15 12:14:33.550238,-193.0
2023-08-15 12:14:33.557927,-171.0
2023-08-15 12:14:33.565616,-149.0
2023-08-15 12:14:33.573306,-130.0
2023-08-15 12:14:33.580995,-98.0
2023-08-15 12:14:33.588684,-82.0
2023-08-15 12:14:33.596374,-72.0
2023-08-15 12:14:33.604063,-43.0
2023-08-15 12:14:33.611752,-24.0
2023-08-15 12:14:33.619442,-31.0
2023-08-15 12:14:33.627131,-26.0
2023-08-15 12:14:33.634821,4.0
2023-08-15 12:14:33.642510,14.0
2023-08-15 12:14:33.650199,-4.0
2023-08-15 12:14:33.657889,-14.0
2023-08-15 12:14:33.665578,-14.0
2023-08-15 12:14:33.673267,-19.0
2023-08-15 12:14:33.680957,-14.0
2023-08-15 12:14:33.688646,-7.0
2023-08-15 12:14:33.696335,-19.0
2023-08-15 12:14:33.704025,-26.0
2023-08-15 12:14:33.711714,-26.0
2023-08-15 12:14:33.719404,-36.0
2023-08-15 12:14:33.727093,-26.0
2023-08-15 12:14:33.734782,-9.0
2023-08-15 12:14:33.742472,-19.0
2023-08-15 12:14:33.750161,-33.0
2023-08-15 12:14:33.757850,-26.0
2023-08-15 12:14:33.765540,-16.0
2023-08-15 12:14:33.773229,-9.0
2023-08-15 12:14:33.780918,-9.0
2023-08-15 12:14:33.788608,-12.0
2023-08-15 12:14:33.796297,-9.0
2023-08-15 12:14:33.803986,-16.0
2023-08-15 12:14:33.811676,-28.0
2023-08-15 12:14:33.819365,-31.0
2023-08-15 12:14:33.827055,-24.0
2023-08-15 12:14:33.834744,-26.0
2023-08-15 12:14:33.842433,-36.0
2023-08-15 12:14:33.850123,-41.0
2023-08-15 12:14:33.857812,-38.0
2023-08-15 12:14:33.865501,-41.0
2023-08-15 12:14:33.873191,-43.0
2023-08-15 12:14:33.880880,-33.0
2023-08-15 12:14:33.888569,-38.0
2023-08-15 12:14:33.896259,-50.0
2023-08-15 12:14:33.903948,-38.0
2023-08-15 12:14:33.911637,-31.0
2023-08-15 12:14:33.919327,-48.0
2023-08-15 12:14:33.927016,-57.0
2023-08-15 12:14:33.934706,-50.0
2023-08-15 12:14:33.942395,-33.0
2023-08-15 12:14:33.950084,-21.0
2023-08-15 12:14:33.957774,-41.0
2023-08-15 12:14:33.965463,-65.0
2023-08-15 12:14:33.973152,-72.0
2023-08-15 12:14:33.980842,-74.0
2023-08-15 12:14:33.988531,-72.0
2023-08-15 12:14:33.996220,-86.0
2023-08-15 12:14:34.003910,-120.0
2023-08-15 12:14:34.011599,-142.0
2023-08-15 12:14:34.019288,-118.0
2023-08-15 12:14:34.026978,-84.0
2023-08-15 12:14:34.034667,-77.0
2023-08-15 12:14:34.042357,-65.0
2023-08-15 12:14:34.050046,-21.0
2023-08-15 12:14:34.057735,7.0
2023-08-15 12:14:34.065425,-7.0
2023-08-15 12:14:34.073114,-33.0
2023-08-15 12:14:34.080803,-26.0
2023-08-15 12:14:34.088493,-4.0
2023-08-15 12:14:34.096182,-4.0
2023-08-15 12:14:34.103871,-21.0
2023-08-15 12:14:34.111561,-21.0
2023-08-15 12:14:34.119250,-14.0
2023-08-15 12:14:34.126940,-65.0
2023-08-15 12:14:34.134629,-289.0
2023-08-15 12:14:34.142318,-699.0
2023-08-15 12:14:34.150008,-1039.0
2023-08-15 12:14:34.157697,-883.0
2023-08-15 12:14:34.165386,-188.0
2023-08-15 12:14:34.173076,340.0
2023-08-15 12:14:34.180765,217.0
2023-08-15 12:14:34.188454,-33.0
2023-08-15 12:14:34.196144,33.0
2023-08-15 12:14:34.203833,103.0
2023-08-15 12:14:34.211522,33.0
2023-08-15 12:14:34.219212,21.0
2023-08-15 12:14:34.226901,41.0
2023-08-15 12:14:34.234591,16.0
2023-08-15 12:14:34.242280,-2.0
2023-08-15 12:14:34.249969,-7.0
2023-08-15 12:14:34.257659,-28.0
2023-08-15 12:14:34.265348,-31.0
2023-08-15 12:14:34.273037,-16.0
2023-08-15 12:14:34.280727,-26.0
2023-08-15 12:14:34.288416,-43.0
2023-08-15 12:14:34.296105,-48.0
2023-08-15 12:14:34.303795,-62.0
2023-08-15 12:14:34.311484,-86.0
2023-08-15 12:14:34.319173,-96.0
2023-08-15 12:14:34.326863,-84.0
2023-08-15 12:14:34.334552,-103.0
2023-08-15 12:14:34.342242,-149.0
2023-08-15 12:14:34.349931,-164.0
2023-08-15 12:14:34.357620,-171.0
2023-08-15 12:14:34.365310,-185.0
2023-08-15 12:14:34.372999,-188.0
2023-08-15 12:14:34.380688,-190.0
2023-08-15 12:14:34.388378,-190.0
2023-08-15 12:14:34.396067,-176.0
2023-08-15 12:14:34.403756,-168.0
2023-08-15 12:14:34.411446,-164.0
2023-08-15 12:14:34.419135,-135.0
2023-08-15 12:14:34.426825,-101.0
2023-08-15 12:14:34.434514,-89.0
2023-08-15 12:14:34.442203,-74.0
2023-08-15 12:14:34.449893,-53.0
2023-08-15 12:14:34.457582,-41.0
2023-08-15 12:14:34.465271,-38.0
2023-08-15 12:14:34.472961,-33.0
2023-08-15 12:14:34.480650,-26.0
2023-08-15 12:14:34.488339,-31.0
2023-08-15 12:14:34.496029,-41.0
2023-08-15 12:14:34.503718,-41.0
2023-08-15 12:14:34.511407,-24.0
2023-08-15 12:14:34.519097,-4.0
2023-08-15 12:14:34.526786,-24.0
2023-08-15 12:14:34.534476,-53.0
2023-08-15 12:14:34.542165,-38.0
2023-08-15 12:14:34.549854,-24.0
2023-08-15 12:14:34.557544,-31.0
2023-08-15 12:14:34.565233,-24.0
2023-08-15 12:14:34.572922,-19.0
2023-08-15 12:14:34.580612,-45.0
2023-08-15 12:14:34.588301,-50.0
2023-08-15 12:14:34.595990,-14.0
2023-08-15 12:14:34.603680,4.0
2023-08-15 12:14:34.611369,-7.0
2023-08-15 12:14:34.619058,-24.0
2023-08-15 12:14:34.626748,-24.0
2023-08-15 12:14:34.634437,-4.0
2023-08-15 12:14:34.642127,-2.0
2023-08-15 12:14:34.649816,-19.0
2023-08-15 12:14:34.657505,-33.0
2023-08-15 12:14:34.665195,-38.0
2023-08-15 12:14:34.672884,-21.0
2023-08-15 12:14:34.680573,-7.0
2023-08-15 12:14:34.688263,-14.0
2023-08-15 12:14:34.695952,-19.0
2023-08-15 12:14:34.703641,-21.0
2023-08-15 12:14:34.711331,-41.0
2023-08-15 12:14:34.719020,-41.0
2023-08-15 12:14:34.726709,-24.0
2023-08-15 12:14:34.734399,-33.0
2023-08-15 12:14:34.742088,-38.0
2023-08-15 12:14:34.749778,-24.0
2023-08-15 12:14:34.757467,-21.0
2023-08-15 12:14:34.765156,-16.0
2023-08-15 12:14:34.772846,-14.0
2023-08-15 12:14:34.780535,-31.0
2023-08-15 12:14:34.788224,-45.0
2023-08-15 12:14:34.795914,-57.0
2023-08-15 12:14:34.803603,-72.0
2023-08-15 12:14:34.811292,-84.0
2023-08-15 12:14:34.818982,-123.0
2023-08-15 12:14:34.826671,-142.0
2023-08-15 12:14:34.834361,-96.0
2023-08-15 12:14:34.842050,-65.0
2023-08-15 12:14:34.849739,-67.0
2023-08-15 12:14:34.857429,-53.0
2023-08-15 12:14:34.865118,-26.0
2023-08-15 12:14:34.872807,0.0
2023-08-15 12:14:34.880497,-2.0
2023-08-15 12:14:34.888186,-24.0
2023-08-15 12:14:34.895875,-9.0
2023-08-15 12:14:34.903565,-2.0
2023-08-15 12:14:34.911254,-24.0
2023-08-15 12:14:34.918943,-21.0
2023-08-15 12:14:34.926633,-4.0
2023-08-15 12:14:34.934322,0.0
2023-08-15 12:14:34.942012,-65.0
2023-08-15 12:14:34.949701,-308.0
2023-08-15 12:14:34.957390,-745.0
2023-08-15 12:14:34.965080,-1126.0
2023-08-15 12:14:34.972769,-986.0
2023-08-15 12:14:34.980458,-248.0
2023-08-15 12:14:34.988148,374.0
2023-08-15 12:14:34.995837,301.0
2023-08-15 12:14:35.003526,-9.0
2023-08-15 12:14:35.011216,4.0
2023-08-15 12:14:35.018905,91.0
2023-08-15 12:14:35.026594,28.0
2023-08-15 12:14:35.034284,4.0
2023-08-15 12:14:35.041973,33.0
2023-08-15 12:14:35.049663,24.0
2023-08-15 12:14:35.057352,7.0
2023-08-15 12:14:35.065041,4.0
2023-08-15 12:14:35.072731,-9.0
2023-08-15 12:14:35.080420,-26.0
2023-08-15 12:14:35.088109,-31.0
2023-08-15 12:14:35.095799,-28.0
2023-08-15 12:14:35.103488,-19.0
2023-08-15 12:14:35.111177,-16.0
2023-08-15 12:14:35.118867,-55.0
2023-08-15 12:14:35.126556,-98.0
2023-08-15 12:14:35.134245,-94.0
2023-08-15 12:14:35.141935,-89.0
2023-08-15 12:14:35.149624,-103.0
2023-08-15 12:14:35.157314,-113.0
2023-08-15 12:14:35.165003,-139.0
2023-08-15 12:14:35.172692,-166.0
2023-08-15 12:14:35.180382,-166.0
2023-08-15 12:14:35.188071,-180.0
2023-08-15 12:14:35.195760,-183.0
2023-08-15 12:14:35.203450,-166.0
2023-08-15 12:14:35.211139,-176.0
2023-08-15 12:14:35.218828,-178.0
2023-08-15 12:14:35.226518,-152.0
2023-08-15 12:14:35.234207,-135.0
2023-08-15 12:14:35.241897,-118.0
2023-08-15 12:14:35.249586,-82.0
2023-08-15 12:14:35.257275,-53.0
2023-08-15 12:14:35.264965,-62.0
2023-08-15 12:14:35.272654,-57.0
2023-08-15 12:14:35.280343,-26.0
2023-08-15 12:14:35.288033,-12.0
2023-08-15 12:14:35.295722,-9.0
2023-08-15 12:14:35.303411,0.0
2023-08-15 12:14:35.311101,-7.0
2023-08-15 12:14:35.318790,-43.0
2023-08-15 12:14:35.326479,-55.0
2023-08-15 12:14:35.334169,-31.0
2023-08-15 12:14:35.341858,-21.0
2023-08-15 12:14:35.349548,-26.0
2023-08-15 12:14:35.357237,-33.0
2023-08-15 12:14:35.364926,-38.0
2023-08-15 12:14:35.372616,-26.0
2023-08-15 12:14:35.380305,-16.0
2023-08-15 12:14:35.387994,-36.0
2023-08-15 12:14:35.395684,-50.0
2023-08-15 12:14:35.403373,-36.0
2023-08-15 12:14:35.411062,-14.0
2023-08-15 12:14:35.418752,-9.0
2023-08-15 12:14:35.426441,-12.0
2023-08-15 12:14:35.434130,-9.0
2023-08-15 12:14:35.441820,-16.0
2023-08-15 12:14:35.449509,-26.0
2023-08-15 12:14:35.457199,-31.0
2023-08-15 12:14:35.464888,-38.0
2023-08-15 12:14:35.472577,-45.0
2023-08-15 12:14:35.480267,-28.0
2023-08-15 12:14:35.487956,-2.0
2023-08-15 12:14:35.495645,2.0
2023-08-15 12:14:35.503335,-31.0
2023-08-15 12:14:35.511024,-50.0
2023-08-15 12:14:35.518713,-31.0
2023-08-15 12:14:35.526403,-19.0
2023-08-15 12:14:35.534092,-36.0
2023-08-15 12:14:35.541781,-43.0
2023-08-15 12:14:35.549471,-28.0
2023-08-15 12:14:35.557160,-16.0
2023-08-15 12:14:35.564850,-24.0
2023-08-15 12:14:35.572539,-48.0
2023-08-15 12:14:35.580228,-67.0
2023-08-15 12:14:35.587918,-72.0
2023-08-15 12:14:35.595607,-91.0
2023-08-15 12:14:35.603296,-120.0
2023-08-15 12:14:35.610986,-113.0
2023-08-15 12:14:35.618675,-72.0
2023-08-15 12:14:35.626364,-41.0
2023-08-15 12:14:35.634054,-26.0
2023-08-15 12:14:35.641743,-19.0
2023-08-15 12:14:35.649433,-16.0
2023-08-15 12:14:35.657122,-14.0
2023-08-15 12:14:35.664811,-16.0
2023-08-15 12:14:35.672501,-14.0
2023-08-15 12:14:35.680190,-12.0
2023-08-15 12:14:35.687879,-14.0
2023-08-15 12:14:35.695569,-28.0
2023-08-15 12:14:35.703258,-33.0
2023-08-15 12:14:35.710947,-14.0
2023-08-15 12:14:35.718637,-62.0
2023-08-15 12:14:35.726326,-332.0
2023-08-15 12:14:35.734015,-817.0
2023-08-15 12:14:35.741705,-1184.0
2023-08-15 12:14:35.749394,-955.0
2023-08-15 12:14:35.757084,-159.0
2023-08-15 12:14:35.764773,417.0
2023-08-15 12:14:35.772462,282.0
2023-08-15 12:14:35.780152,0.0
2023-08-15 12:14:35.787841,43.0
2023-08-15 12:14:35.795530,113.0
2023-08-15 12:14:35.803220,55.0
2023-08-15 12:14:35.810909,48.0
2023-08-15 12:14:35.818598,69.0
2023-08-15 12:14:35.826288,33.0
2023-08-15 12:14:35.833977,2.0
2023-08-15 12:14:35.841666,4.0
2023-08-15 12:14:35.849356,-4.0
2023-08-15 12:14:35.857045,-21.0
2023-08-15 12:14:35.864735,-28.0
2023-08-15 12:14:35.872424,-28.0
2023-08-15 12:14:35.880113,-38.0
2023-08-15 12:14:35.887803,-50.0
2023-08-15 12:14:35.895492,-57.0
2023-08-15 12:14:35.903181,-60.0
2023-08-15 12:14:35.910871,-74.0
2023-08-15 12:14:35.918560,-101.0
2023-08-15 12:14:35.926249,-108.0
2023-08-15 12:14:35.933939,-110.0
2023-08-15 12:14:35.941628,-132.0
2023-08-15 12:14:35.949317,-156.0
2023-08-15 12:14:35.957007,-166.0
2023-08-15 12:14:35.964696,-168.0
2023-08-15 12:14:35.972386,-176.0
2023-08-15 12:14:35.980075,-178.0
2023-08-15 12:14:35.987764,-178.0
2023-08-15 12:14:35.995454,-166.0
2023-08-15 12:14:36.003143,-135.0
2023-08-15 12:14:36.010832,-110.0
2023-08-15 12:14:36.018522,-101.0
2023-08-15 12:14:36.026211,-77.0
2023-08-15 12:14:36.033900,-48.0
2023-08-15 12:14:36.041590,-38.0
2023-08-15 12:14:36.049279,-41.0
2023-08-15 12:14:36.056969,-28.0
2023-08-15 12:14:36.064658,-9.0
2023-08-15 12:14:36.072347,-7.0
2023-08-15 12:14:36.080037,0.0
2023-08-15 12:14:36.087726,9.0
2023-08-15 12:14:36.095415,-7.0
2023-08-15 12:14:36.103105,-33.0
2023-08-15 12:14:36.110794,-33.0
2023-08-15 12:14:36.118483,-24.0
2023-08-15 12:14:36.126173,-19.0
2023-08-15 12:14:36.133862,-24.0
2023-08-15 12:14:36.141551,-31.0
2023-08-15 12:14:36.149241,-28.0
2023-08-15 12:14:36.156930,-24.0
2023-08-15 12:14:36.164620,-14.0
2023-08-15 12:14:36.172309,-16.0
2023-08-15 12:14:36.179998,-26.0
2023-08-15 12:14:36.187688,-36.0
2023-08-15 12:14:36.195377,-55.0
2023-08-15 12:14:36.203066,-55.0
2023-08-15 12:14:36.210756,-36.0
2023-08-15 12:14:36.218445,-26.0
2023-08-15 12:14:36.226134,-41.0
2023-08-15 12:14:36.233824,-57.0
2023-08-15 12:14:36.241513,-55.0
2023-08-15 12:14:36.249202,-38.0
2023-08-15 12:14:36.256892,-45.0
2023-08-15 12:14:36.264581,-45.0
2023-08-15 12:14:36.272271,-24.0
2023-08-15 12:14:36.279960,-38.0
2023-08-15 12:14:36.287649,-69.0
2023-08-15 12:14:36.295339,-45.0
2023-08-15 12:14:36.303028,-21.0
2023-08-15 12:14:36.310717,-38.0
2023-08-15 12:14:36.318407,-45.0
2023-08-15 12:14:36.326096,-45.0
2023-08-15 12:14:36.333785,-50.0
2023-08-15 12:14:36.341475,-60.0
2023-08-15 12:14:36.349164,-67.0
2023-08-15 12:14:36.356854,-65.0
2023-08-15 12:14:36.364543,-69.0
2023-08-15 12:14:36.372232,-96.0
2023-08-15 12:14:36.379922,-118.0
2023-08-15 12:14:36.387611,-127.0
2023-08-15 12:14:36.395300,-118.0
2023-08-15 12:14:36.402990,-82.0
2023-08-15 12:14:36.410679,-53.0
2023-08-15 12:14:36.418368,-57.0
2023-08-15 12:14:36.426058,-45.0
2023-08-15 12:14:36.433747,0.0
2023-08-15 12:14:36.441436,9.0
2023-08-15 12:14:36.449126,-26.0
2023-08-15 12:14:36.456815,-31.0
2023-08-15 12:14:36.464505,-7.0
2023-08-15 12:14:36.472194,-9.0
2023-08-15 12:14:36.479883,-26.0
2023-08-15 12:14:36.487573,-21.0
2023-08-15 12:14:36.495262,2.0
2023-08-15 12:14:36.502951,-7.0
2023-08-15 12:14:36.510641,-149.0
2023-08-15 12:14:36.518330,-523.0
2023-08-15 12:14:36.526019,-979.0
2023-08-15 12:14:36.533709,-1066.0
2023-08-15 12:14:36.541398,-530.0
2023-08-15 12:14:36.549087,205.0
2023-08-15 12:14:36.556777,378.0
2023-08-15 12:14:36.564466,62.0
2023-08-15 12:14:36.572156,-19.0
2023-08-15 12:14:36.579845,106.0
2023-08-15 12:14:36.587534,72.0
2023-08-15 12:14:36.595224,26.0
2023-08-15 12:14:36.602913,65.0
2023-08-15 12:14:36.610602,65.0
2023-08-15 12:14:36.618292,38.0
2023-08-15 12:14:36.625981,24.0
2023-08-15 12:14:36.633670,-4.0
2023-08-15 12:14:36.641360,-19.0
2023-08-15 12:14:36.649049,-7.0
2023-08-15 12:14:36.656738,-7.0
2023-08-15 12:14:36.664428,-19.0
2023-08-15 12:14:36.672117,-28.0
2023-08-15 12:14:36.679807,-50.0
2023-08-15 12:14:36.687496,-79.0
2023-08-15 12:14:36.695185,-89.0
2023-08-15 12:14:36.702875,-86.0
2023-08-15 12:14:36.710564,-98.0
2023-08-15 12:14:36.718253,-123.0
2023-08-15 12:14:36.725943,-147.0
2023-08-15 12:14:36.733632,-178.0
2023-08-15 12:14:36.741321,-200.0
2023-08-15 12:14:36.749011,-193.0
2023-08-15 12:14:36.756700,-185.0
2023-08-15 12:14:36.764390,-190.0
2023-08-15 12:14:36.772079,-197.0
2023-08-15 12:14:36.779768,-195.0
2023-08-15 12:14:36.787458,-171.0
2023-08-15 12:14:36.795147,-137.0
2023-08-15 12:14:36.802836,-123.0
2023-08-15 12:14:36.810526,-101.0
2023-08-15 12:14:36.818215,-74.0
2023-08-15 12:14:36.825904,-72.0
2023-08-15 12:14:36.833594,-65.0
2023-08-15 12:14:36.841283,-55.0
2023-08-15 12:14:36.848972,-48.0
2023-08-15 12:14:36.856662,-36.0
2023-08-15 12:14:36.864351,-43.0
2023-08-15 12:14:36.872041,-50.0
2023-08-15 12:14:36.879730,-36.0
2023-08-15 12:14:36.887419,-41.0
2023-08-15 12:14:36.895109,-60.0
2023-08-15 12:14:36.902798,-55.0
2023-08-15 12:14:36.910487,-45.0
2023-08-15 12:14:36.918177,-43.0
2023-08-15 12:14:36.925866,-43.0
2023-08-15 12:14:36.933555,-45.0
2023-08-15 12:14:36.941245,-55.0
2023-08-15 12:14:36.948934,-53.0
2023-08-15 12:14:36.956623,-33.0
2023-08-15 12:14:36.964313,-31.0
2023-08-15 12:14:36.972002,-50.0
2023-08-15 12:14:36.979692,-50.0
2023-08-15 12:14:36.987381,-31.0
2023-08-15 12:14:36.995070,-33.0
2023-08-15 12:14:37.002760,-41.0
2023-08-15 12:14:37.010449,-38.0
2023-08-15 12:14:37.018138,-36.0
2023-08-15 12:14:37.025828,-36.0
2023-08-15 12:14:37.033517,-38.0
2023-08-15 12:14:37.041206,-36.0
2023-08-15 12:14:37.048896,-36.0
2023-08-15 12:14:37.056585,-41.0
2023-08-15 12:14:37.064274,-28.0
2023-08-15 12:14:37.071964,-14.0
2023-08-15 12:14:37.079653,-24.0
2023-08-15 12:14:37.087343,-45.0
2023-08-15 12:14:37.095032,-55.0
2023-08-15 12:14:37.102721,-45.0
2023-08-15 12:14:37.110411,-28.0
2023-08-15 12:14:37.118100,-19.0
2023-08-15 12:14:37.125789,-28.0
2023-08-15 12:14:37.133479,-33.0
2023-08-15 12:14:37.141168,-28.0
2023-08-15 12:14:37.148857,-26.0
2023-08-15 12:14:37.156547,-45.0
2023-08-15 12:14:37.164236,-74.0
2023-08-15 12:14:37.171926,-77.0
2023-08-15 12:14:37.179615,-86.0
2023-08-15 12:14:37.187304,-127.0
2023-08-15 12:14:37.194994,-147.0
2023-08-15 12:14:37.202683,-120.0
2023-08-15 12:14:37.210372,-79.0
2023-08-15 12:14:37.218062,-57.0
2023-08-15 12:14:37.225751,-62.0
2023-08-15 12:14:37.233440,-43.0
2023-08-15 12:14:37.241130,-2.0
2023-08-15 12:14:37.248819,4.0
2023-08-15 12:14:37.256508,-16.0
2023-08-15 12:14:37.264198,-31.0
2023-08-15 12:14:37.271887,-28.0
2023-08-15 12:14:37.279577,-26.0
2023-08-15 12:14:37.287266,-26.0
2023-08-15 12:14:37.294955,-19.0
2023-08-15 12:14:37.302645,-4.0
2023-08-15 12:14:37.310334,-43.0
2023-08-15 12:14:37.318023,-231.0
2023-08-15 12:14:37.325713,-608.0
2023-08-15 12:14:37.333402,-991.0
2023-08-15 12:14:37.341091,-955.0
2023-08-15 12:14:37.348781,-345.0
2023-08-15 12:14:37.356470,277.0
2023-08-15 12:14:37.364159,282.0
2023-08-15 12:14:37.371849,-16.0
2023-08-15 12:14:37.379538,-9.0
2023-08-15 12:14:37.387228,106.0
2023-08-15 12:14:37.394917,43.0
2023-08-15 12:14:37.402606,9.0
2023-08-15 12:14:37.410296,62.0
2023-08-15 12:14:37.417985,38.0
2023-08-15 12:14:37.425674,-21.0
2023-08-15 12:14:37.433364,4.0
2023-08-15 12:14:37.441053,38.0
2023-08-15 12:14:37.448742,-2.0
2023-08-15 12:14:37.456432,-36.0
2023-08-15 12:14:37.464121,-33.0
2023-08-15 12:14:37.471810,-36.0
2023-08-15 12:14:37.479500,-36.0
2023-08-15 12:14:37.487189,-50.0
2023-08-15 12:14:37.494879,-82.0
2023-08-15 12:14:37.502568,-82.0
2023-08-15 12:14:37.510257,-67.0
2023-08-15 12:14:37.517947,-79.0
2023-08-15 12:14:37.525636,-106.0
2023-08-15 12:14:37.533325,-132.0
2023-08-15 12:14:37.541015,-154.0
2023-08-15 12:14:37.548704,-147.0
2023-08-15 12:14:37.556393,-139.0
2023-08-15 12:14:37.564083,-168.0
2023-08-15 12:14:37.571772,-178.0
2023-08-15 12:14:37.579462,-149.0
2023-08-15 12:14:37.587151,-127.0
2023-08-15 12:14:37.594840,-127.0
2023-08-15 12:14:37.602530,-118.0
2023-08-15 12:14:37.610219,-82.0
2023-08-15 12:14:37.617908,-50.0
2023-08-15 12:14:37.625598,-45.0
2023-08-15 12:14:37.633287,-36.0
2023-08-15 12:14:37.640976,-14.0
2023-08-15 12:14:37.648666,-4.0
2023-08-15 12:14:37.656355,-4.0
2023-08-15 12:14:37.664044,-9.0
2023-08-15 12:14:37.671734,-21.0
2023-08-15 12:14:37.679423,-28.0
2023-08-15 12:14:37.687113,-24.0
2023-08-15 12:14:37.694802,-21.0
2023-08-15 12:14:37.702491,-21.0
2023-08-15 12:14:37.710181,-26.0
2023-08-15 12:14:37.717870,-31.0
2023-08-15 12:14:37.725559,-33.0
2023-08-15 12:14:37.733249,-31.0
2023-08-15 12:14:37.740938,-31.0
2023-08-15 12:14:37.748627,-28.0
2023-08-15 12:14:37.756317,-24.0
2023-08-15 12:14:37.764006,-21.0
2023-08-15 12:14:37.771695,-33.0
2023-08-15 12:14:37.779385,-41.0
2023-08-15 12:14:37.787074,-36.0
2023-08-15 12:14:37.794764,-31.0
2023-08-15 12:14:37.802453,-28.0
2023-08-15 12:14:37.810142,-24.0
2023-08-15 12:14:37.817832,-31.0
2023-08-15 12:14:37.825521,-36.0
2023-08-15 12:14:37.833210,-48.0
2023-08-15 12:14:37.840900,-57.0
2023-08-15 12:14:37.848589,-36.0
2023-08-15 12:14:37.856278,-33.0
2023-08-15 12:14:37.863968,-67.0
2023-08-15 12:14:37.871657,-69.0
2023-08-15 12:14:37.879346,-55.0
2023-08-15 12:14:37.887036,-50.0
2023-08-15 12:14:37.894725,-45.0
2023-08-15 12:14:37.902415,-55.0
2023-08-15 12:14:37.910104,-60.0
2023-08-15 12:14:37.917793,-48.0
2023-08-15 12:14:37.925483,-48.0
2023-08-15 12:14:37.933172,-57.0
2023-08-15 12:14:37.940861,-50.0
2023-08-15 12:14:37.948551,-45.0
2023-08-15 12:14:37.956240,-57.0
2023-08-15 12:14:37.963929,-65.0
2023-08-15 12:14:37.971619,-72.0
2023-08-15 12:14:37.979308,-91.0
2023-08-15 12:14:37.986998,-120.0
2023-08-15 12:14:37.994687,-118.0
2023-08-15 12:14:38.002376,-89.0
2023-08-15 12:14:38.010066,-69.0
2023-08-15 12:14:38.017755,-72.0
2023-08-15 12:14:38.025444,-57.0
2023-08-15 12:14:38.033134,-24.0
2023-08-15 12:14:38.040823,-9.0
2023-08-15 12:14:38.048512,-12.0
2023-08-15 12:14:38.056202,-7.0
2023-08-15 12:14:38.063891,7.0
2023-08-15 12:14:38.071580,-9.0
2023-08-15 12:14:38.079270,-31.0
2023-08-15 12:14:38.086959,-26.0
2023-08-15 12:14:38.094649,-16.0
2023-08-15 12:14:38.102338,-26.0
2023-08-15 12:14:38.110027,-123.0
2023-08-15 12:14:38.117717,-429.0
2023-08-15 12:14:38.125406,-916.0
2023-08-15 12:14:38.133095,-1184.0
2023-08-15 12:14:38.140785,-786.0
2023-08-15 12:14:38.148474,24.0
2023-08-15 12:14:38.156163,410.0
2023-08-15 12:14:38.163853,168.0
2023-08-15 12:14:38.171542,-9.0
2023-08-15 12:14:38.179231,91.0
2023-08-15 12:14:38.186921,89.0
2023-08-15 12:14:38.194610,12.0
2023-08-15 12:14:38.202300,33.0
2023-08-15 12:14:38.209989,41.0
2023-08-15 12:14:38.217678,16.0
2023-08-15 12:14:38.225368,24.0
2023-08-15 12:14:38.233057,14.0
2023-08-15 12:14:38.240746,-7.0
2023-08-15 12:14:38.248436,4.0
2023-08-15 12:14:38.256125,16.0
2023-08-15 12:14:38.263814,-7.0
2023-08-15 12:14:38.271504,-43.0
2023-08-15 12:14:38.279193,-53.0
2023-08-15 12:14:38.286882,-45.0
2023-08-15 12:14:38.294572,-53.0
2023-08-15 12:14:38.302261,-74.0
2023-08-15 12:14:38.309951,-91.0
2023-08-15 12:14:38.317640,-94.0
2023-08-15 12:14:38.325329,-98.0
2023-08-15 12:14:38.333019,-125.0
2023-08-15 12:14:38.340708,-144.0
2023-08-15 12:14:38.348397,-139.0
2023-08-15 12:14:38.356087,-149.0
2023-08-15 12:14:38.363776,-168.0
2023-08-15 12:14:38.371465,-166.0
2023-08-15 12:14:38.379155,-144.0
2023-08-15 12:14:38.386844,-125.0
2023-08-15 12:14:38.394534,-137.0
2023-08-15 12:14:38.402223,-137.0
2023-08-15 12:14:38.409912,-94.0
2023-08-15 12:14:38.417602,-79.0
2023-08-15 12:14:38.425291,-84.0
2023-08-15 12:14:38.432980,-50.0
2023-08-15 12:14:38.440670,-24.0
2023-08-15 12:14:38.448359,-36.0
2023-08-15 12:14:38.456048,-33.0
2023-08-15 12:14:38.463738,-24.0
2023-08-15 12:14:38.471427,-28.0
2023-08-15 12:14:38.479116,-24.0
2023-08-15 12:14:38.486806,-16.0
2023-08-15 12:14:38.494495,-26.0
2023-08-15 12:14:38.502185,-36.0
2023-08-15 12:14:38.509874,-33.0
2023-08-15 12:14:38.517563,-28.0
2023-08-15 12:14:38.525253,-36.0
2023-08-15 12:14:38.532942,-48.0
2023-08-15 12:14:38.540631,-45.0
2023-08-15 12:14:38.548321,-31.0
2023-08-15 12:14:38.556010,-31.0
2023-08-15 12:14:38.563699,-45.0
2023-08-15 12:14:38.571389,-45.0
2023-08-15 12:14:38.579078,-33.0
2023-08-15 12:14:38.586767,-31.0
2023-08-15 12:14:38.594457,-38.0
2023-08-15 12:14:38.602146,-41.0
2023-08-15 12:14:38.609836,-36.0
2023-08-15 12:14:38.617525,-36.0
2023-08-15 12:14:38.625214,-33.0
2023-08-15 12:14:38.632904,-28.0
2023-08-15 12:14:38.640593,-26.0
2023-08-15 12:14:38.648282,-38.0
2023-08-15 12:14:38.655972,-50.0
2023-08-15 12:14:38.663661,-36.0
2023-08-15 12:14:38.671350,-28.0
2023-08-15 12:14:38.679040,-53.0
2023-08-15 12:14:38.686729,-60.0
2023-08-15 12:14:38.694419,-43.0
2023-08-15 12:14:38.702108,-36.0
2023-08-15 12:14:38.709797,-31.0
2023-08-15 12:14:38.717487,-50.0
2023-08-15 12:14:38.725176,-69.0
2023-08-15 12:14:38.732865,-60.0
2023-08-15 12:14:38.740555,-74.0
2023-08-15 12:14:38.748244,-120.0
2023-08-15 12:14:38.755933,-147.0
2023-08-15 12:14:38.763623,-135.0
2023-08-15 12:14:38.771312,-82.0
2023-08-15 12:14:38.779001,-38.0
2023-08-15 12:14:38.786691,-36.0
2023-08-15 12:14:38.794380,-26.0
2023-08-15 12:14:38.802070,-14.0
2023-08-15 12:14:38.809759,-24.0
2023-08-15 12:14:38.817448,-19.0
2023-08-15 12:14:38.825138,-7.0
2023-08-15 12:14:38.832827,4.0
2023-08-15 12:14:38.840516,0.0
2023-08-15 12:14:38.848206,-41.0
2023-08-15 12:14:38.855895,-48.0
2023-08-15 12:14:38.863584,9.0
2023-08-15 12:14:38.871274,-12.0
2023-08-15 12:14:38.878963,-248.0
2023-08-15 12:14:38.886652,-714.0
2023-08-15 12:14:38.894342,-1155.0
2023-08-15 12:14:38.902031,-1076.0
2023-08-15 12:14:38.909721,-352.0
2023-08-15 12:14:38.917410,345.0
2023-08-15 12:14:38.925099,347.0
2023-08-15 12:14:38.932789,14.0
2023-08-15 12:14:38.940478,7.0
2023-08-15 12:14:38.948167,130.0
2023-08-15 12:14:38.955857,74.0
2023-08-15 12:14:38.963546,26.0
2023-08-15 12:14:38.971235,48.0
2023-08-15 12:14:38.978925,28.0
2023-08-15 12:14:38.986614,9.0
2023-08-15 12:14:38.994303,16.0
2023-08-15 12:14:39.001993,4.0
2023-08-15 12:14:39.009682,-12.0
2023-08-15 12:14:39.017372,-12.0
2023-08-15 12:14:39.025061,-24.0
2023-08-15 12:14:39.032750,-48.0
2023-08-15 12:14:39.040440,-57.0
2023-08-15 12:14:39.048129,-55.0
2023-08-15 12:14:39.055818,-50.0
2023-08-15 12:14:39.063508,-45.0
2023-08-15 12:14:39.071197,-67.0
2023-08-15 12:14:39.078886,-89.0
2023-08-15 12:14:39.086576,-89.0
2023-08-15 12:14:39.094265,-115.0
2023-08-15 12:14:39.101955,-154.0
2023-08-15 12:14:39.109644,-152.0
2023-08-15 12:14:39.117333,-142.0
2023-08-15 12:14:39.125023,-154.0
2023-08-15 12:14:39.132712,-159.0
2023-08-15 12:14:39.140401,-149.0
2023-08-15 12:14:39.148091,-147.0
2023-08-15 12:14:39.155780,-132.0
2023-08-15 12:14:39.163469,-91.0
2023-08-15 12:14:39.171159,-67.0
2023-08-15 12:14:39.178848,-55.0
2023-08-15 12:14:39.186537,-28.0
2023-08-15 12:14:39.194227,-14.0
2023-08-15 12:14:39.201916,-9.0
2023-08-15 12:14:39.209606,2.0
2023-08-15 12:14:39.217295,7.0
2023-08-15 12:14:39.224984,16.0
2023-08-15 12:14:39.232674,24.0
2023-08-15 12:14:39.240363,7.0
2023-08-15 12:14:39.248052,-9.0
2023-08-15 12:14:39.255742,7.0
2023-08-15 12:14:39.263431,19.0
2023-08-15 12:14:39.271120,0.0
2023-08-15 12:14:39.278810,-9.0
2023-08-15 12:14:39.286499,-2.0
2023-08-15 12:14:39.294188,-7.0
2023-08-15 12:14:39.301878,-12.0
2023-08-15 12:14:39.309567,7.0
2023-08-15 12:14:39.317257,14.0
2023-08-15 12:14:39.324946,-2.0
2023-08-15 12:14:39.332635,-14.0
2023-08-15 12:14:39.340325,-16.0
2023-08-15 12:14:39.348014,-21.0
2023-08-15 12:14:39.355703,-21.0
2023-08-15 12:14:39.363393,-19.0
2023-08-15 12:14:39.371082,-43.0
2023-08-15 12:14:39.378771,-60.0
2023-08-15 12:14:39.386461,-48.0
2023-08-15 12:14:39.394150,-41.0
2023-08-15 12:14:39.401839,-53.0
2023-08-15 12:14:39.409529,-50.0
2023-08-15 12:14:39.417218,-28.0
2023-08-15 12:14:39.424908,-28.0
2023-08-15 12:14:39.432597,-50.0
2023-08-15 12:14:39.440286,-50.0
2023-08-15 12:14:39.447976,-36.0
2023-08-15 12:14:39.455665,-31.0
2023-08-15 12:14:39.463354,-43.0
2023-08-15 12:14:39.471044,-53.0
2023-08-15 12:14:39.478733,-57.0
2023-08-15 12:14:39.486422,-57.0
2023-08-15 12:14:39.494112,-55.0
2023-08-15 12:14:39.501801,-67.0
2023-08-15 12:14:39.509491,-94.0
2023-08-15 12:14:39.517180,-120.0
2023-08-15 12:14:39.524869,-137.0
2023-08-15 12:14:39.532559,-118.0
2023-08-15 12:14:39.540248,-89.0
2023-08-15 12:14:39.547937,-82.0
2023-08-15 12:14:39.555627,-74.0
2023-08-15 12:14:39.563316,-48.0
2023-08-15 12:14:39.571005,-28.0
2023-08-15 12:14:39.578695,-24.0
2023-08-15 12:14:39.586384,-24.0
2023-08-15 12:14:39.594073,-12.0
2023-08-15 12:14:39.601763,-9.0
2023-08-15 12:14:39.609452,-21.0
2023-08-15 12:14:39.617142,-26.0
2023-08-15 12:14:39.624831,-33.0
2023-08-15 12:14:39.632520,-38.0
2023-08-15 12:14:39.640210,-38.0
2023-08-15 12:14:39.647899,-166.0
2023-08-15 12:14:39.655588,-552.0
2023-08-15 12:14:39.663278,-1006.0
2023-08-15 12:14:39.670967,-1061.0
2023-08-15 12:14:39.678656,-494.0
2023-08-15 12:14:39.686346,214.0
2023-08-15 12:14:39.694035,357.0
2023-08-15 12:14:39.701724,55.0
2023-08-15 12:14:39.709414,-28.0
2023-08-15 12:14:39.717103,89.0
2023-08-15 12:14:39.724793,79.0
2023-08-15 12:14:39.732482,16.0
2023-08-15 12:14:39.740171,14.0
2023-08-15 12:14:39.747861,26.0
2023-08-15 12:14:39.755550,24.0
2023-08-15 12:14:39.763239,14.0
2023-08-15 12:14:39.770929,7.0
2023-08-15 12:14:39.778618,-9.0
2023-08-15 12:14:39.786307,-26.0
2023-08-15 12:14:39.793997,-28.0
2023-08-15 12:14:39.801686,-19.0
2023-08-15 12:14:39.809375,-14.0
2023-08-15 12:14:39.817065,-41.0
2023-08-15 12:14:39.824754,-67.0
2023-08-15 12:14:39.832444,-65.0
2023-08-15 12:14:39.840133,-72.0
2023-08-15 12:14:39.847822,-101.0
2023-08-15 12:14:39.855512,-115.0
2023-08-15 12:14:39.863201,-127.0
2023-08-15 12:14:39.870890,-152.0
2023-08-15 12:14:39.878580,-164.0
2023-08-15 12:14:39.886269,-161.0
2023-08-15 12:14:39.893958,-171.0
2023-08-15 12:14:39.901648,-185.0
2023-08-15 12:14:39.909337,-183.0
2023-08-15 12:14:39.917027,-152.0
2023-08-15 12:14:39.924716,-125.0
2023-08-15 12:14:39.932405,-125.0
2023-08-15 12:14:39.940095,-108.0
2023-08-15 12:14:39.947784,-60.0
2023-08-15 12:14:39.955473,-38.0
2023-08-15 12:14:39.963163,-41.0
2023-08-15 12:14:39.970852,-24.0
2023-08-15 12:14:39.978541,0.0
2023-08-15 12:14:39.986231,-2.0
2023-08-15 12:14:39.993920,-12.0
2023-08-15 12:14:40.001609,2.0
2023-08-15 12:14:40.009299,4.0
2023-08-15 12:14:40.016988,-7.0
2023-08-15 12:14:40.024678,0.0
2023-08-15 12:14:40.032367,2.0
2023-08-15 12:14:40.040056,-19.0
2023-08-15 12:14:40.047746,-26.0
2023-08-15 12:14:40.055435,-28.0
2023-08-15 12:14:40.063124,-50.0
2023-08-15 12:14:40.070814,-41.0
2023-08-15 12:14:40.078503,-19.0
2023-08-15 12:14:40.086192,-28.0
2023-08-15 12:14:40.093882,-33.0
2023-08-15 12:14:40.101571,-33.0
2023-08-15 12:14:40.109260,-48.0
2023-08-15 12:14:40.116950,-57.0
2023-08-15 12:14:40.124639,-53.0
2023-08-15 12:14:40.132329,-48.0
2023-08-15 12:14:40.140018,-55.0
2023-08-15 12:14:40.147707,-60.0
2023-08-15 12:14:40.155397,-53.0
2023-08-15 12:14:40.163086,-50.0
2023-08-15 12:14:40.170775,-62.0
2023-08-15 12:14:40.178465,-62.0
2023-08-15 12:14:40.186154,-48.0
2023-08-15 12:14:40.193843,-43.0
2023-08-15 12:14:40.201533,-48.0
2023-08-15 12:14:40.209222,-55.0
2023-08-15 12:14:40.216911,-55.0
2023-08-15 12:14:40.224601,-43.0
2023-08-15 12:14:40.232290,-31.0
2023-08-15 12:14:40.239980,-36.0
2023-08-15 12:14:40.247669,-45.0
2023-08-15 12:14:40.255358,-45.0
2023-08-15 12:14:40.263048,-57.0
2023-08-15 12:14:40.270737,-74.0
2023-08-15 12:14:40.278426,-79.0
2023-08-15 12:14:40.286116,-106.0
2023-08-15 12:14:40.293805,-154.0
2023-08-15 12:14:40.301494,-152.0
2023-08-15 12:14:40.309184,-106.0
2023-08-15 12:14:40.316873,-79.0
2023-08-15 12:14:40.324563,-65.0
2023-08-15 12:14:40.332252,-41.0
2023-08-15 12:14:40.339941,-16.0
2023-08-15 12:14:40.347631,-9.0
2023-08-15 12:14:40.355320,-19.0
2023-08-15 12:14:40.363009,-31.0
2023-08-15 12:14:40.370699,-38.0
2023-08-15 12:14:40.378388,-33.0
2023-08-15 12:14:40.386077,-19.0
2023-08-15 12:14:40.393767,-24.0
2023-08-15 12:14:40.401456,-38.0
2023-08-15 12:14:40.409145,-26.0
2023-08-15 12:14:40.416835,-60.0
2023-08-15 12:14:40.424524,-270.0
2023-08-15 12:14:40.432214,-673.0
2023-08-15 12:14:40.439903,-1025.0
2023-08-15 12:14:40.447592,-897.0
2023-08-15 12:14:40.455282,-224.0
2023-08-15 12:14:40.462971,318.0
2023-08-15 12:14:40.470660,236.0
2023-08-15 12:14:40.478350,-19.0
2023-08-15 12:14:40.486039,14.0
2023-08-15 12:14:40.493728,94.0
2023-08-15 12:14:40.501418,43.0
2023-08-15 12:14:40.509107,16.0
2023-08-15 12:14:40.516796,26.0
2023-08-15 12:14:40.524486,9.0
2023-08-15 12:14:40.532175,-2.0
2023-08-15 12:14:40.539865,4.0
2023-08-15 12:14:40.547554,2.0
2023-08-15 12:14:40.555243,-16.0
2023-08-15 12:14:40.562933,-26.0
2023-08-15 12:14:40.570622,-26.0
2023-08-15 12:14:40.578311,-31.0
2023-08-15 12:14:40.586001,-55.0
2023-08-15 12:14:40.593690,-79.0
2023-08-15 12:14:40.601379,-84.0
2023-08-15 12:14:40.609069,-86.0
2023-08-15 12:14:40.616758,-108.0
2023-08-15 12:14:40.624448,-125.0
2023-08-15 12:14:40.632137,-135.0
2023-08-15 12:14:40.639826,-161.0
2023-08-15 12:14:40.647516,-183.0
2023-08-15 12:14:40.655205,-171.0
2023-08-15 12:14:40.662894,-161.0
2023-08-15 12:14:40.670584,-180.0
2023-08-15 12:14:40.678273,-205.0
2023-08-15 12:14:40.685962,-205.0
2023-08-15 12:14:40.693652,-180.0
2023-08-15 12:14:40.701341,-139.0
2023-08-15 12:14:40.709030,-115.0
2023-08-15 12:14:40.716720,-113.0
2023-08-15 12:14:40.724409,-82.0
2023-08-15 12:14:40.732099,-41.0
2023-08-15 12:14:40.739788,-31.0
2023-08-15 12:14:40.747477,-28.0
2023-08-15 12:14:40.755167,-9.0
2023-08-15 12:14:40.762856,12.0
2023-08-15 12:14:40.770545,7.0
2023-08-15 12:14:40.778235,-16.0
2023-08-15 12:14:40.785924,-33.0
2023-08-15 12:14:40.793613,-31.0
2023-08-15 12:14:40.801303,-16.0
2023-08-15 12:14:40.808992,-9.0
2023-08-15 12:14:40.816681,-19.0
2023-08-15 12:14:40.824371,-26.0
2023-08-15 12:14:40.832060,-24.0
2023-08-15 12:14:40.839750,-26.0
2023-08-15 12:14:40.847439,-24.0
2023-08-15 12:14:40.855128,-21.0
2023-08-15 12:14:40.862818,-24.0
2023-08-15 12:14:40.870507,-31.0
2023-08-15 12:14:40.878196,-26.0
2023-08-15 12:14:40.885886,-24.0
2023-08-15 12:14:40.893575,-36.0
2023-08-15 12:14:40.901264,-41.0
2023-08-15 12:14:40.908954,-36.0
2023-08-15 12:14:40.916643,-33.0
2023-08-15 12:14:40.924332,-31.0
2023-08-15 12:14:40.932022,-26.0
2023-08-15 12:14:40.939711,-33.0
2023-08-15 12:14:40.947401,-48.0
2023-08-15 12:14:40.955090,-55.0
2023-08-15 12:14:40.962779,-48.0
2023-08-15 12:14:40.970469,-38.0
2023-08-15 12:14:40.978158,-33.0
2023-08-15 12:14:40.985847,-36.0
2023-08-15 12:14:40.993537,-31.0
2023-08-15 12:14:41.001226,-41.0
2023-08-15 12:14:41.008915,-62.0
2023-08-15 12:14:41.016605,-65.0
2023-08-15 12:14:41.024294,-55.0
2023-08-15 12:14:41.031984,-48.0
2023-08-15 12:14:41.039673,-53.0
2023-08-15 12:14:41.047362,-60.0
2023-08-15 12:14:41.055052,-65.0
2023-08-15 12:14:41.062741,-72.0
2023-08-15 12:14:41.070430,-91.0
2023-08-15 12:14:41.078120,-120.0
2023-08-15 12:14:41.085809,-142.0
2023-08-15 12:14:41.093498,-135.0
2023-08-15 12:14:41.101188,-98.0
2023-08-15 12:14:41.108877,-65.0
2023-08-15 12:14:41.116566,-53.0
2023-08-15 12:14:41.124256,-36.0
2023-08-15 12:14:41.131945,-16.0
2023-08-15 12:14:41.139635,-31.0
2023-08-15 12:14:41.147324,-43.0
2023-08-15 12:14:41.155013,-33.0
2023-08-15 12:14:41.162703,-36.0
2023-08-15 12:14:41.170392,-45.0
2023-08-15 12:14:41.178081,-38.0
2023-08-15 12:14:41.185771,-38.0
2023-08-15 12:14:41.193460,-45.0
2023-08-15 12:14:41.201149,-62.0
2023-08-15 12:14:41.208839,-207.0
2023-08-15 12:14:41.216528,-574.0
2023-08-15 12:14:41.224217,-989.0
2023-08-15 12:14:41.231907,-1018.0
2023-08-15 12:14:41.239596,-453.0
2023-08-15 12:14:41.247286,217.0
2023-08-15 12:14:41.254975,318.0
2023-08-15 12:14:41.262664,26.0
2023-08-15 12:14:41.270354,-19.0
2023-08-15 12:14:41.278043,91.0
2023-08-15 12:14:41.285732,41.0
2023-08-15 12:14:41.293422,2.0
2023-08-15 12:14:41.301111,45.0
2023-08-15 12:14:41.308800,26.0
2023-08-15 12:14:41.316490,-9.0
2023-08-15 12:14:41.324179,7.0
2023-08-15 12:14:41.331868,16.0
2023-08-15 12:14:41.339558,0.0
2023-08-15 12:14:41.347247,-24.0
2023-08-15 12:14:41.354937,-45.0
2023-08-15 12:14:41.362626,-45.0
2023-08-15 12:14:41.370315,-43.0
2023-08-15 12:14:41.378005,-48.0
2023-08-15 12:14:41.385694,-62.0
2023-08-15 12:14:41.393383,-82.0
2023-08-15 12:14:41.401073,-91.0
2023-08-15 12:14:41.408762,-94.0
2023-08-15 12:14:41.416451,-103.0
2023-08-15 12:14:41.424141,-123.0
2023-08-15 12:14:41.431830,-147.0
2023-08-15 12:14:41.439520,-159.0
2023-08-15 12:14:41.447209,-152.0
2023-08-15 12:14:41.454898,-152.0
2023-08-15 12:14:41.462588,-161.0
2023-08-15 12:14:41.470277,-154.0
2023-08-15 12:14:41.477966,-139.0
2023-08-15 12:14:41.485656,-120.0
2023-08-15 12:14:41.493345,-89.0
2023-08-15 12:14:41.501034,-79.0
2023-08-15 12:14:41.508724,-77.0
2023-08-15 12:14:41.516413,-41.0
2023-08-15 12:14:41.524102,2.0
2023-08-15 12:14:41.531792,4.0
2023-08-15 12:14:41.539481,0.0
2023-08-15 12:14:41.547171,14.0
2023-08-15 12:14:41.554860,12.0
2023-08-15 12:14:41.562549,-9.0
2023-08-15 12:14:41.570239,-14.0
2023-08-15 12:14:41.577928,-14.0
2023-08-15 12:14:41.585617,-19.0
2023-08-15 12:14:41.593307,-21.0
2023-08-15 12:14:41.600996,-26.0
2023-08-15 12:14:41.608685,-31.0
2023-08-15 12:14:41.616375,-36.0
2023-08-15 12:14:41.624064,-38.0
2023-08-15 12:14:41.631753,-28.0
2023-08-15 12:14:41.639443,-26.0
2023-08-15 12:14:41.647132,-33.0
2023-08-15 12:14:41.654822,-33.0
2023-08-15 12:14:41.662511,-26.0
2023-08-15 12:14:41.670200,-26.0
2023-08-15 12:14:41.677890,-28.0
2023-08-15 12:14:41.685579,-45.0
2023-08-15 12:14:41.693268,-57.0
2023-08-15 12:14:41.700958,-48.0
2023-08-15 12:14:41.708647,-41.0
2023-08-15 12:14:41.716336,-33.0
2023-08-15 12:14:41.724026,-33.0
2023-08-15 12:14:41.731715,-38.0
2023-08-15 12:14:41.739404,-38.0
2023-08-15 12:14:41.747094,-26.0
2023-08-15 12:14:41.754783,-19.0
2023-08-15 12:14:41.762473,-38.0
2023-08-15 12:14:41.770162,-65.0
2023-08-15 12:14:41.777851,-65.0
2023-08-15 12:14:41.785541,-65.0
2023-08-15 12:14:41.793230,-79.0
2023-08-15 12:14:41.800919,-77.0
2023-08-15 12:14:41.808609,-60.0
2023-08-15 12:14:41.816298,-60.0
2023-08-15 12:14:41.823987,-62.0
2023-08-15 12:14:41.831677,-60.0
2023-08-15 12:14:41.839366,-84.0
2023-08-15 12:14:41.847056,-130.0
2023-08-15 12:14:41.854745,-149.0
2023-08-15 12:14:41.862434,-142.0
2023-08-15 12:14:41.870124,-123.0
2023-08-15 12:14:41.877813,-91.0
2023-08-15 12:14:41.885502,-67.0
2023-08-15 12:14:41.893192,-55.0
2023-08-15 12:14:41.900881,-28.0
2023-08-15 12:14:41.908570,-9.0
2023-08-15 12:14:41.916260,-31.0
2023-08-15 12:14:41.923949,-36.0
2023-08-15 12:14:41.931638,-14.0
2023-08-15 12:14:41.939328,-16.0
2023-08-15 12:14:41.947017,-38.0
2023-08-15 12:14:41.954707,-33.0
2023-08-15 12:14:41.962396,-4.0
2023-08-15 12:14:41.970085,-9.0
2023-08-15 12:14:41.977775,-125.0
2023-08-15 12:14:41.985464,-460.0
2023-08-15 12:14:41.993153,-974.0
2023-08-15 12:14:42.000843,-1245.0
2023-08-15 12:14:42.008532,-837.0
2023-08-15 12:14:42.016221,-14.0
2023-08-15 12:14:42.023911,390.0
2023-08-15 12:14:42.031600,166.0
2023-08-15 12:14:42.039289,-14.0
2023-08-15 12:14:42.046979,86.0
2023-08-15 12:14:42.054668,106.0
2023-08-15 12:14:42.062358,41.0
2023-08-15 12:14:42.070047,31.0
2023-08-15 12:14:42.077736,28.0
2023-08-15 12:14:42.085426,14.0
2023-08-15 12:14:42.093115,14.0
2023-08-15 12:14:42.100804,9.0
2023-08-15 12:14:42.108494,-14.0
2023-08-15 12:14:42.116183,-24.0
2023-08-15 12:14:42.123872,-21.0
2023-08-15 12:14:42.131562,-31.0
2023-08-15 12:14:42.139251,-50.0
2023-08-15 12:14:42.146940,-60.0
2023-08-15 12:14:42.154630,-57.0
2023-08-15 12:14:42.162319,-60.0
2023-08-15 12:14:42.170009,-86.0
2023-08-15 12:14:42.177698,-110.0
2023-08-15 12:14:42.185387,-120.0
2023-08-15 12:14:42.193077,-132.0
2023-08-15 12:14:42.200766,-147.0
2023-08-15 12:14:42.208455,-152.0
2023-08-15 12:14:42.216145,-168.0
2023-08-15 12:14:42.223834,-183.0
2023-08-15 12:14:42.231523,-161.0
2023-08-15 12:14:42.239213,-144.0
2023-08-15 12:14:42.246902,-154.0
2023-08-15 12:14:42.254592,-139.0
2023-08-15 12:14:42.262281,-94.0
2023-08-15 12:14:42.269970,-77.0
2023-08-15 12:14:42.277660,-77.0
2023-08-15 12:14:42.285349,-53.0
2023-08-15 12:14:42.293038,-28.0
2023-08-15 12:14:42.300728,-16.0
2023-08-15 12:14:42.308417,-12.0
2023-08-15 12:14:42.316106,-14.0
2023-08-15 12:14:42.323796,-2.0
2023-08-15 12:14:42.331485,4.0
2023-08-15 12:14:42.339174,-7.0
2023-08-15 12:14:42.346864,-14.0
2023-08-15 12:14:42.354553,-16.0
2023-08-15 12:14:42.362243,-16.0
2023-08-15 12:14:42.369932,-14.0
2023-08-15 12:14:42.377621,-19.0
2023-08-15 12:14:42.385311,-36.0
2023-08-15 12:14:42.393000,-38.0
2023-08-15 12:14:42.400689,-26.0
2023-08-15 12:14:42.408379,-16.0
2023-08-15 12:14:42.416068,-14.0
2023-08-15 12:14:42.423757,-14.0
2023-08-15 12:14:42.431447,-14.0
2023-08-15 12:14:42.439136,-14.0
2023-08-15 12:14:42.446825,-16.0
2023-08-15 12:14:42.454515,-24.0
2023-08-15 12:14:42.462204,-28.0
2023-08-15 12:14:42.469894,-28.0
2023-08-15 12:14:42.477583,-21.0
2023-08-15 12:14:42.485272,-19.0
2023-08-15 12:14:42.492962,-21.0
2023-08-15 12:14:42.500651,-19.0
2023-08-15 12:14:42.508340,-14.0
2023-08-15 12:14:42.516030,-26.0
2023-08-15 12:14:42.523719,-43.0
2023-08-15 12:14:42.531408,-36.0
2023-08-15 12:14:42.539098,-21.0
2023-08-15 12:14:42.546787,-16.0
2023-08-15 12:14:42.554476,-28.0
2023-08-15 12:14:42.562166,-53.0
2023-08-15 12:14:42.569855,-60.0
2023-08-15 12:14:42.577545,-41.0
2023-08-15 12:14:42.585234,-38.0
2023-08-15 12:14:42.592923,-65.0
2023-08-15 12:14:42.600613,-86.0
2023-08-15 12:14:42.608302,-94.0
2023-08-15 12:14:42.615991,-137.0
2023-08-15 12:14:42.623681,-168.0
2023-08-15 12:14:42.631370,-125.0
2023-08-15 12:14:42.639059,-67.0
2023-08-15 12:14:42.646749,-55.0
2023-08-15 12:14:42.654438,-48.0
2023-08-15 12:14:42.662128,-28.0
2023-08-15 12:14:42.669817,-24.0
2023-08-15 12:14:42.677506,-28.0
2023-08-15 12:14:42.685196,-19.0
2023-08-15 12:14:42.692885,-7.0
2023-08-15 12:14:42.700574,-19.0
2023-08-15 12:14:42.708264,-28.0
2023-08-15 12:14:42.715953,-28.0
2023-08-15 12:14:42.723642,-21.0
2023-08-15 12:14:42.731332,-7.0
2023-08-15 12:14:42.739021,-67.0
2023-08-15 12:14:42.746710,-337.0
2023-08-15 12:14:42.754400,-813.0
2023-08-15 12:14:42.762089,-1170.0
2023-08-15 12:14:42.769779,-953.0
2023-08-15 12:14:42.777468,-176.0
2023-08-15 12:14:42.785157,386.0
2023-08-15 12:14:42.792847,224.0
2023-08-15 12:14:42.800536,-38.0
2023-08-15 12:14:42.808225,57.0
2023-08-15 12:14:42.815915,120.0
2023-08-15 12:14:42.823604,41.0
2023-08-15 12:14:42.831293,48.0
2023-08-15 12:14:42.838983,77.0
2023-08-15 12:14:42.846672,24.0
2023-08-15 12:14:42.854361,-21.0
2023-08-15 12:14:42.862051,-12.0
2023-08-15 12:14:42.869740,-7.0
2023-08-15 12:14:42.877430,-26.0
2023-08-15 12:14:42.885119,-43.0
2023-08-15 12:14:42.892808,-38.0
2023-08-15 12:14:42.900498,-38.0
2023-08-15 12:14:42.908187,-53.0
2023-08-15 12:14:42.915876,-67.0
2023-08-15 12:14:42.923566,-72.0
2023-08-15 12:14:42.931255,-86.0
2023-08-15 12:14:42.938944,-94.0
2023-08-15 12:14:42.946634,-98.0
2023-08-15 12:14:42.954323,-120.0
2023-08-15 12:14:42.962013,-144.0
2023-08-15 12:14:42.969702,-161.0
2023-08-15 12:14:42.977391,-171.0
2023-08-15 12:14:42.985081,-173.0
2023-08-15 12:14:42.992770,-180.0
2023-08-15 12:14:43.000459,-183.0
2023-08-15 12:14:43.008149,-166.0
2023-08-15 12:14:43.015838,-139.0
2023-08-15 12:14:43.023527,-110.0
2023-08-15 12:14:43.031217,-94.0
2023-08-15 12:14:43.038906,-84.0
2023-08-15 12:14:43.046595,-53.0
2023-08-15 12:14:43.054285,-16.0
2023-08-15 12:14:43.061974,7.0
2023-08-15 12:14:43.069664,9.0
2023-08-15 12:14:43.077353,-2.0
2023-08-15 12:14:43.085042,4.0
2023-08-15 12:14:43.092732,12.0
2023-08-15 12:14:43.100421,9.0
2023-08-15 12:14:43.108110,4.0
2023-08-15 12:14:43.115800,12.0
2023-08-15 12:14:43.123489,7.0
2023-08-15 12:14:43.131178,-19.0
2023-08-15 12:14:43.138868,-21.0
2023-08-15 12:14:43.146557,0.0
2023-08-15 12:14:43.154246,-2.0
2023-08-15 12:14:43.161936,-24.0
2023-08-15 12:14:43.169625,-28.0
2023-08-15 12:14:43.177315,-28.0
2023-08-15 12:14:43.185004,-24.0
2023-08-15 12:14:43.192693,-14.0
2023-08-15 12:14:43.200383,-24.0
2023-08-15 12:14:43.208072,-19.0
2023-08-15 12:14:43.215761,-7.0
2023-08-15 12:14:43.223451,-12.0
2023-08-15 12:14:43.231140,-12.0
2023-08-15 12:14:43.238829,0.0
2023-08-15 12:14:43.246519,-12.0
2023-08-15 12:14:43.254208,-43.0
2023-08-15 12:14:43.261897,-38.0
2023-08-15 12:14:43.269587,-14.0
2023-08-15 12:14:43.277276,-14.0
2023-08-15 12:14:43.284966,-31.0
2023-08-15 12:14:43.292655,-33.0
2023-08-15 12:14:43.300344,-24.0
2023-08-15 12:14:43.308034,-28.0
2023-08-15 12:14:43.315723,-43.0
2023-08-15 12:14:43.323412,-41.0
2023-08-15 12:14:43.331102,-31.0
2023-08-15 12:14:43.338791,-38.0
2023-08-15 12:14:43.346480,-50.0
2023-08-15 12:14:43.354170,-45.0
2023-08-15 12:14:43.361859,-38.0
2023-08-15 12:14:43.369549,-43.0
2023-08-15 12:14:43.377238,-62.0
2023-08-15 12:14:43.384927,-74.0
2023-08-15 12:14:43.392617,-79.0
2023-08-15 12:14:43.400306,-91.0
2023-08-15 12:14:43.407995,-115.0
2023-08-15 12:14:43.415685,-132.0
2023-08-15 12:14:43.423374,-123.0
2023-08-15 12:14:43.431063,-91.0
2023-08-15 12:14:43.438753,-72.0
2023-08-15 12:14:43.446442,-72.0
2023-08-15 12:14:43.454131,-50.0
2023-08-15 12:14:43.461821,-14.0
2023-08-15 12:14:43.469510,-14.0
2023-08-15 12:14:43.477200,-38.0
2023-08-15 12:14:43.484889,-36.0
2023-08-15 12:14:43.492578,-31.0
2023-08-15 12:14:43.500268,-43.0
2023-08-15 12:14:43.507957,-36.0
2023-08-15 12:14:43.515646,-19.0
2023-08-15 12:14:43.523336,-19.0
2023-08-15 12:14:43.531025,-48.0
2023-08-15 12:14:43.538714,-183.0
2023-08-15 12:14:43.546404,-513.0
2023-08-15 12:14:43.554093,-933.0
2023-08-15 12:14:43.561782,-1042.0
2023-08-15 12:14:43.569472,-550.0
2023-08-15 12:14:43.577161,147.0
2023-08-15 12:14:43.584851,316.0
2023-08-15 12:14:43.592540,26.0
2023-08-15 12:14:43.600229,-45.0
2023-08-15 12:14:43.607919,86.0
2023-08-15 12:14:43.615608,69.0
2023-08-15 12:14:43.623297,9.0
2023-08-15 12:14:43.630987,19.0
2023-08-15 12:14:43.638676,19.0
2023-08-15 12:14:43.646365,-12.0
2023-08-15 12:14:43.654055,-26.0
2023-08-15 12:14:43.661744,-24.0
2023-08-15 12:14:43.669433,-33.0
2023-08-15 12:14:43.677123,-50.0
2023-08-15 12:14:43.684812,-45.0
2023-08-15 12:14:43.692502,-33.0
2023-08-15 12:14:43.700191,-48.0
2023-08-15 12:14:43.707880,-67.0
2023-08-15 12:14:43.715570,-69.0
2023-08-15 12:14:43.723259,-72.0
2023-08-15 12:14:43.730948,-84.0
2023-08-15 12:14:43.738638,-91.0
2023-08-15 12:14:43.746327,-98.0
2023-08-15 12:14:43.754016,-125.0
2023-08-15 12:14:43.761706,-161.0
2023-08-15 12:14:43.769395,-176.0
2023-08-15 12:14:43.777085,-178.0
2023-08-15 12:14:43.784774,-178.0
2023-08-15 12:14:43.792463,-168.0
2023-08-15 12:14:43.800153,-159.0
2023-08-15 12:14:43.807842,-156.0
2023-08-15 12:14:43.815531,-154.0
2023-08-15 12:14:43.823221,-135.0
2023-08-15 12:14:43.830910,-108.0
2023-08-15 12:14:43.838599,-86.0
2023-08-15 12:14:43.846289,-57.0
2023-08-15 12:14:43.853978,-24.0
2023-08-15 12:14:43.861667,-16.0
2023-08-15 12:14:43.869357,-19.0
2023-08-15 12:14:43.877046,-7.0
2023-08-15 12:14:43.884736,7.0
2023-08-15 12:14:43.892425,4.0
2023-08-15 12:14:43.900114,-4.0
2023-08-15 12:14:43.907804,-7.0
2023-08-15 12:14:43.915493,-9.0
2023-08-15 12:14:43.923182,-12.0
2023-08-15 12:14:43.930872,-9.0
2023-08-15 12:14:43.938561,-9.0
2023-08-15 12:14:43.946250,-9.0
2023-08-15 12:14:43.953940,-7.0
2023-08-15 12:14:43.961629,-14.0
2023-08-15 12:14:43.969318,-36.0
2023-08-15 12:14:43.977008,-53.0
2023-08-15 12:14:43.984697,-48.0
2023-08-15 12:14:43.992387,-36.0
2023-08-15 12:14:44.000076,-33.0
2023-08-15 12:14:44.007765,-36.0
2023-08-15 12:14:44.015455,-45.0
2023-08-15 12:14:44.023144,-43.0
2023-08-15 12:14:44.030833,-28.0
2023-08-15 12:14:44.038523,-26.0
2023-08-15 12:14:44.046212,-33.0
2023-08-15 12:14:44.053901,-41.0
2023-08-15 12:14:44.061591,-31.0
2023-08-15 12:14:44.069280,-31.0
2023-08-15 12:14:44.076969,-53.0
2023-08-15 12:14:44.084659,-45.0
2023-08-15 12:14:44.092348,-26.0
2023-08-15 12:14:44.100038,-55.0
2023-08-15 12:14:44.107727,-72.0
2023-08-15 12:14:44.115416,-53.0
2023-08-15 12:14:44.123106,-60.0
2023-08-15 12:14:44.130795,-72.0
2023-08-15 12:14:44.138484,-53.0
2023-08-15 12:14:44.146174,-48.0
2023-08-15 12:14:44.153863,-60.0
2023-08-15 12:14:44.161552,-57.0
2023-08-15 12:14:44.169242,-57.0
2023-08-15 12:14:44.176931,-60.0
2023-08-15 12:14:44.184621,-62.0
2023-08-15 12:14:44.192310,-82.0
2023-08-15 12:14:44.199999,-89.0
2023-08-15 12:14:44.207689,-79.0
2023-08-15 12:14:44.215378,-84.0
2023-08-15 12:14:44.223067,-106.0
2023-08-15 12:14:44.230757,-135.0
2023-08-15 12:14:44.238446,-149.0
2023-08-15 12:14:44.246135,-130.0
2023-08-15 12:14:44.253825,-89.0
2023-08-15 12:14:44.261514,-69.0
2023-08-15 12:14:44.269203,-60.0
2023-08-15 12:14:44.276893,-31.0
2023-08-15 12:14:44.284582,-14.0
2023-08-15 12:14:44.292272,-14.0
2023-08-15 12:14:44.299961,-16.0
2023-08-15 12:14:44.307650,-33.0
2023-08-15 12:14:44.315340,-45.0
2023-08-15 12:14:44.323029,-33.0
2023-08-15 12:14:44.330718,-16.0
2023-08-15 12:14:44.338408,-28.0
2023-08-15 12:14:44.346097,-48.0
2023-08-15 12:14:44.353786,-69.0
2023-08-15 12:14:44.361476,-217.0
2023-08-15 12:14:44.369165,-595.0
2023-08-15 12:14:44.376854,-998.0
2023-08-15 12:14:44.384544,-962.0
2023-08-15 12:14:44.392233,-342.0
2023-08-15 12:14:44.399923,282.0
2023-08-15 12:14:44.407612,291.0
2023-08-15 12:14:44.415301,-9.0
2023-08-15 12:14:44.422991,-21.0
2023-08-15 12:14:44.430680,94.0
2023-08-15 12:14:44.438369,45.0
2023-08-15 12:14:44.446059,4.0
2023-08-15 12:14:44.453748,38.0
2023-08-15 12:14:44.461437,33.0
2023-08-15 12:14:44.469127,9.0
2023-08-15 12:14:44.476816,14.0
2023-08-15 12:14:44.484505,21.0
2023-08-15 12:14:44.492195,16.0
2023-08-15 12:14:44.499884,16.0
2023-08-15 12:14:44.507574,7.0
2023-08-15 12:14:44.515263,-36.0
2023-08-15 12:14:44.522952,-53.0
2023-08-15 12:14:44.530642,-41.0
2023-08-15 12:14:44.538331,-60.0
2023-08-15 12:14:44.546020,-91.0
2023-08-15 12:14:44.553710,-94.0
2023-08-15 12:14:44.561399,-108.0
2023-08-15 12:14:44.569088,-125.0
2023-08-15 12:14:44.576778,-125.0
2023-08-15 12:14:44.584467,-139.0
2023-08-15 12:14:44.592157,-161.0
2023-08-15 12:14:44.599846,-154.0
2023-08-15 12:14:44.607535,-149.0
2023-08-15 12:14:44.615225,-168.0
2023-08-15 12:14:44.622914,-171.0
2023-08-15 12:14:44.630603,-147.0
2023-08-15 12:14:44.638293,-130.0
2023-08-15 12:14:44.645982,-110.0
2023-08-15 12:14:44.653671,-94.0
2023-08-15 12:14:44.661361,-89.0
2023-08-15 12:14:44.669050,-62.0
2023-08-15 12:14:44.676739,-33.0
2023-08-15 12:14:44.684429,-28.0
2023-08-15 12:14:44.692118,-38.0
2023-08-15 12:14:44.699808,-33.0
2023-08-15 12:14:44.707497,-4.0
2023-08-15 12:14:44.715186,9.0
2023-08-15 12:14:44.722876,-9.0
2023-08-15 12:14:44.730565,-28.0
2023-08-15 12:14:44.738254,-26.0
2023-08-15 12:14:44.745944,-24.0
2023-08-15 12:14:44.753633,-16.0
2023-08-15 12:14:44.761322,-12.0
2023-08-15 12:14:44.769012,-16.0
2023-08-15 12:14:44.776701,-21.0
2023-08-15 12:14:44.784390,-16.0
2023-08-15 12:14:44.792080,-24.0
2023-08-15 12:14:44.799769,-33.0
2023-08-15 12:14:44.807459,-21.0
2023-08-15 12:14:44.815148,-21.0
2023-08-15 12:14:44.822837,-41.0
2023-08-15 12:14:44.830527,-33.0
2023-08-15 12:14:44.838216,-16.0
2023-08-15 12:14:44.845905,-26.0
2023-08-15 12:14:44.853595,-38.0
2023-08-15 12:14:44.861284,-38.0
2023-08-15 12:14:44.868973,-43.0
2023-08-15 12:14:44.876663,-53.0
2023-08-15 12:14:44.884352,-38.0
2023-08-15 12:14:44.892041,-16.0
2023-08-15 12:14:44.899731,-12.0
2023-08-15 12:14:44.907420,-9.0
2023-08-15 12:14:44.915110,-19.0
2023-08-15 12:14:44.922799,-33.0
2023-08-15 12:14:44.930488,-33.0
2023-08-15 12:14:44.938178,-28.0
2023-08-15 12:14:44.945867,-43.0
2023-08-15 12:14:44.953556,-45.0
2023-08-15 12:14:44.961246,-26.0
2023-08-15 12:14:44.968935,-19.0
2023-08-15 12:14:44.976624,-43.0
2023-08-15 12:14:44.984314,-41.0
2023-08-15 12:14:44.992003,-9.0
2023-08-15 12:14:44.999693,-16.0
2023-08-15 12:14:45.007382,-43.0
2023-08-15 12:14:45.015071,-38.0
2023-08-15 12:14:45.022761,-36.0
2023-08-15 12:14:45.030450,-45.0
2023-08-15 12:14:45.038139,-53.0
2023-08-15 12:14:45.045829,-86.0
2023-08-15 12:14:45.053518,-118.0
2023-08-15 12:14:45.061207,-127.0
2023-08-15 12:14:45.068897,-130.0
2023-08-15 12:14:45.076586,-96.0
2023-08-15 12:14:45.084275,-43.0
2023-08-15 12:14:45.091965,-26.0
2023-08-15 12:14:45.099654,-33.0
2023-08-15 12:14:45.107344,-16.0
2023-08-15 12:14:45.115033,7.0
2023-08-15 12:14:45.122722,7.0
2023-08-15 12:14:45.130412,-4.0
2023-08-15 12:14:45.138101,-7.0
2023-08-15 12:14:45.145790,-19.0
2023-08-15 12:14:45.153480,-43.0
2023-08-15 12:14:45.161169,-43.0
2023-08-15 12:14:45.168858,-24.0
2023-08-15 12:14:45.176548,-36.0
2023-08-15 12:14:45.184237,-152.0
2023-08-15 12:14:45.191926,-501.0
2023-08-15 12:14:45.199616,-1011.0
2023-08-15 12:14:45.207305,-1189.0
2023-08-15 12:14:45.214995,-653.0
2023-08-15 12:14:45.222684,159.0
2023-08-15 12:14:45.230373,398.0
2023-08-15 12:14:45.238063,89.0
2023-08-15 12:14:45.245752,-12.0
2023-08-15 12:14:45.253441,118.0
2023-08-15 12:14:45.261131,84.0
2023-08-15 12:14:45.268820,16.0
2023-08-15 12:14:45.276509,74.0
2023-08-15 12:14:45.284199,86.0
2023-08-15 12:14:45.291888,14.0
2023-08-15 12:14:45.299578,-4.0
2023-08-15 12:14:45.307267,19.0
2023-08-15 12:14:45.314956,2.0
2023-08-15 12:14:45.322646,-14.0
2023-08-15 12:14:45.330335,-16.0
2023-08-15 12:14:45.338024,-24.0
2023-08-15 12:14:45.345714,-7.0
2023-08-15 12:14:45.353403,-9.0
2023-08-15 12:14:45.361092,-55.0
2023-08-15 12:14:45.368782,-65.0
2023-08-15 12:14:45.376471,-48.0
2023-08-15 12:14:45.384160,-72.0
2023-08-15 12:14:45.391850,-94.0
2023-08-15 12:14:45.399539,-103.0
2023-08-15 12:14:45.407229,-137.0
2023-08-15 12:14:45.414918,-152.0
2023-08-15 12:14:45.422607,-142.0
2023-08-15 12:14:45.430297,-152.0
2023-08-15 12:14:45.437986,-161.0
2023-08-15 12:14:45.445675,-154.0
2023-08-15 12:14:45.453365,-125.0
2023-08-15 12:14:45.461054,-98.0
2023-08-15 12:14:45.468743,-103.0
2023-08-15 12:14:45.476433,-94.0
2023-08-15 12:14:45.484122,-50.0
2023-08-15 12:14:45.491811,-33.0
2023-08-15 12:14:45.499501,-33.0
2023-08-15 12:14:45.507190,-4.0
2023-08-15 12:14:45.514880,14.0
2023-08-15 12:14:45.522569,4.0
2023-08-15 12:14:45.530258,9.0
2023-08-15 12:14:45.537948,16.0
2023-08-15 12:14:45.545637,12.0
2023-08-15 12:14:45.553326,-7.0
2023-08-15 12:14:45.561016,-12.0
2023-08-15 12:14:45.568705,0.0
2023-08-15 12:14:45.576394,2.0
2023-08-15 12:14:45.584084,-4.0
2023-08-15 12:14:45.591773,0.0
2023-08-15 12:14:45.599462,-9.0
2023-08-15 12:14:45.607152,-31.0
2023-08-15 12:14:45.614841,-31.0
2023-08-15 12:14:45.622531,-21.0
2023-08-15 12:14:45.630220,-16.0
2023-08-15 12:14:45.637909,-16.0
2023-08-15 12:14:45.645599,-36.0
2023-08-15 12:14:45.653288,-50.0
2023-08-15 12:14:45.660977,-38.0
2023-08-15 12:14:45.668667,-19.0
2023-08-15 12:14:45.676356,-16.0
2023-08-15 12:14:45.684045,-28.0
2023-08-15 12:14:45.691735,-45.0
2023-08-15 12:14:45.699424,-50.0
2023-08-15 12:14:45.707114,-38.0
2023-08-15 12:14:45.714803,-36.0
2023-08-15 12:14:45.722492,-50.0
2023-08-15 12:14:45.730182,-55.0
2023-08-15 12:14:45.737871,-55.0
2023-08-15 12:14:45.745560,-62.0
2023-08-15 12:14:45.753250,-60.0
2023-08-15 12:14:45.760939,-45.0
2023-08-15 12:14:45.768628,-38.0
2023-08-15 12:14:45.776318,-36.0
2023-08-15 12:14:45.784007,-41.0
2023-08-15 12:14:45.791696,-50.0
2023-08-15 12:14:45.799386,-41.0
2023-08-15 12:14:45.807075,-28.0
2023-08-15 12:14:45.814765,-38.0
2023-08-15 12:14:45.822454,-43.0
2023-08-15 12:14:45.830143,-36.0
2023-08-15 12:14:45.837833,-36.0
2023-08-15 12:14:45.845522,-43.0
2023-08-15 12:14:45.853211,-43.0
2023-08-15 12:14:45.860901,-43.0
2023-08-15 12:14:45.868590,-50.0
2023-08-15 12:14:45.876279,-50.0
2023-08-15 12:14:45.883969,-50.0
2023-08-15 12:14:45.891658,-72.0
2023-08-15 12:14:45.899347,-101.0
2023-08-15 12:14:45.907037,-118.0
2023-08-15 12:14:45.914726,-120.0
2023-08-15 12:14:45.922416,-89.0
2023-08-15 12:14:45.930105,-50.0
2023-08-15 12:14:45.937794,-57.0
2023-08-15 12:14:45.945484,-55.0
2023-08-15 12:14:45.953173,-12.0
2023-08-15 12:14:45.960862,4.0
2023-08-15 12:14:45.968552,-7.0
2023-08-15 12:14:45.976241,-2.0
2023-08-15 12:14:45.983930,-7.0
2023-08-15 12:14:45.991620,-24.0
2023-08-15 12:14:45.999309,-21.0
2023-08-15 12:14:46.006998,-9.0
2023-08-15 12:14:46.014688,-7.0
2023-08-15 12:14:46.022377,-12.0
2023-08-15 12:14:46.030067,-36.0
2023-08-15 12:14:46.037756,-161.0
2023-08-15 12:14:46.045445,-533.0
2023-08-15 12:14:46.053135,-1006.0
2023-08-15 12:14:46.060824,-1083.0
2023-08-15 12:14:46.068513,-501.0
2023-08-15 12:14:46.076203,238.0
2023-08-15 12:14:46.083892,371.0
2023-08-15 12:14:46.091581,41.0
2023-08-15 12:14:46.099271,-12.0
2023-08-15 12:14:46.106960,135.0
2023-08-15 12:14:46.114650,89.0
2023-08-15 12:14:46.122339,21.0
2023-08-15 12:14:46.130028,62.0
2023-08-15 12:14:46.137718,67.0
2023-08-15 12:14:46.145407,33.0
2023-08-15 12:14:46.153096,19.0
2023-08-15 12:14:46.160786,0.0
2023-08-15 12:14:46.168475,-14.0
2023-08-15 12:14:46.176164,-9.0
2023-08-15 12:14:46.183854,-12.0
2023-08-15 12:14:46.191543,-24.0
2023-08-15 12:14:46.199232,-31.0
2023-08-15 12:14:46.206922,-33.0
2023-08-15 12:14:46.214611,-28.0
2023-08-15 12:14:46.222301,-45.0
2023-08-15 12:14:46.229990,-82.0
2023-08-15 12:14:46.237679,-98.0
2023-08-15 12:14:46.245369,-103.0
2023-08-15 12:14:46.253058,-118.0
2023-08-15 12:14:46.260747,-137.0
2023-08-15 12:14:46.268437,-144.0
2023-08-15 12:14:46.276126,-152.0
2023-08-15 12:14:46.283815,-161.0
2023-08-15 12:14:46.291505,-173.0
2023-08-15 12:14:46.299194,-171.0
2023-08-15 12:14:46.306883,-147.0
2023-08-15 12:14:46.314573,-142.0
2023-08-15 12:14:46.322262,-142.0
2023-08-15 12:14:46.329952,-106.0
2023-08-15 12:14:46.337641,-74.0
2023-08-15 12:14:46.345330,-57.0
2023-08-15 12:14:46.353020,-41.0
2023-08-15 12:14:46.360709,-26.0
2023-08-15 12:14:46.368398,-12.0
2023-08-15 12:14:46.376088,-4.0
2023-08-15 12:14:46.383777,-7.0
2023-08-15 12:14:46.391466,-12.0
2023-08-15 12:14:46.399156,-9.0
2023-08-15 12:14:46.406845,-4.0
2023-08-15 12:14:46.414534,-9.0
2023-08-15 12:14:46.422224,-14.0
2023-08-15 12:14:46.429913,-9.0
2023-08-15 12:14:46.437603,-24.0
2023-08-15 12:14:46.445292,-45.0
2023-08-15 12:14:46.452981,-36.0
2023-08-15 12:14:46.460671,-7.0
2023-08-15 12:14:46.468360,-14.0
2023-08-15 12:14:46.476049,-36.0
2023-08-15 12:14:46.483739,-26.0
2023-08-15 12:14:46.491428,-16.0
2023-08-15 12:14:46.499117,-31.0
2023-08-15 12:14:46.506807,-36.0
2023-08-15 12:14:46.514496,-26.0
2023-08-15 12:14:46.522186,-24.0
2023-08-15 12:14:46.529875,-19.0
2023-08-15 12:14:46.537564,-21.0
2023-08-15 12:14:46.545254,-41.0
2023-08-15 12:14:46.552943,-36.0
2023-08-15 12:14:46.560632,-19.0
2023-08-15 12:14:46.568322,-2.0
2023-08-15 12:14:46.576011,2.0
2023-08-15 12:14:46.583700,-19.0
2023-08-15 12:14:46.591390,-43.0
2023-08-15 12:14:46.599079,-31.0
2023-08-15 12:14:46.606768,-14.0
2023-08-15 12:14:46.614458,-19.0
2023-08-15 12:14:46.622147,-21.0
2023-08-15 12:14:46.629837,-19.0
2023-08-15 12:14:46.637526,-28.0
2023-08-15 12:14:46.645215,-31.0
2023-08-15 12:14:46.652905,-21.0
2023-08-15 12:14:46.660594,-36.0
2023-08-15 12:14:46.668283,-65.0
2023-08-15 12:14:46.675973,-50.0
2023-08-15 12:14:46.683662,-21.0
2023-08-15 12:14:46.691351,-28.0
2023-08-15 12:14:46.699041,-48.0
2023-08-15 12:14:46.706730,-43.0
2023-08-15 12:14:46.714419,-43.0
2023-08-15 12:14:46.722109,-50.0
2023-08-15 12:14:46.729798,-45.0
2023-08-15 12:14:46.737488,-48.0
2023-08-15 12:14:46.745177,-65.0
2023-08-15 12:14:46.752866,-69.0
2023-08-15 12:14:46.760556,-82.0
2023-08-15 12:14:46.768245,-108.0
2023-08-15 12:14:46.775934,-113.0
2023-08-15 12:14:46.783624,-89.0
2023-08-15 12:14:46.791313,-72.0
2023-08-15 12:14:46.799002,-67.0
2023-08-15 12:14:46.806692,-50.0
2023-08-15 12:14:46.814381,-41.0
2023-08-15 12:14:46.822070,-36.0
2023-08-15 12:14:46.829760,-21.0
2023-08-15 12:14:46.837449,-16.0
2023-08-15 12:14:46.845139,-19.0
2023-08-15 12:14:46.852828,-12.0
2023-08-15 12:14:46.860517,-12.0
2023-08-15 12:14:46.868207,-21.0
2023-08-15 12:14:46.875896,-21.0
2023-08-15 12:14:46.883585,-19.0
2023-08-15 12:14:46.891275,-21.0
2023-08-15 12:14:46.898964,-86.0
2023-08-15 12:14:46.906653,-328.0
2023-08-15 12:14:46.914343,-745.0
2023-08-15 12:14:46.922032,-1035.0
2023-08-15 12:14:46.929722,-764.0
2023-08-15 12:14:46.937411,-38.0
2023-08-15 12:14:46.945100,364.0
2023-08-15 12:14:46.952790,142.0
2023-08-15 12:14:46.960479,-67.0
2023-08-15 12:14:46.968168,28.0
2023-08-15 12:14:46.975858,69.0
2023-08-15 12:14:46.983547,4.0
2023-08-15 12:14:46.991236,0.0
2023-08-15 12:14:46.998926,9.0
2023-08-15 12:14:47.006615,-9.0
2023-08-15 12:14:47.014304,-28.0
2023-08-15 12:14:47.021994,-33.0
2023-08-15 12:14:47.029683,-28.0
2023-08-15 12:14:47.037373,-31.0
2023-08-15 12:14:47.045062,-41.0
2023-08-15 12:14:47.052751,-45.0
2023-08-15 12:14:47.060441,-62.0
2023-08-15 12:14:47.068130,-84.0
2023-08-15 12:14:47.075819,-77.0
2023-08-15 12:14:47.083509,-67.0
2023-08-15 12:14:47.091198,-79.0
2023-08-15 12:14:47.098887,-108.0
2023-08-15 12:14:47.106577,-132.0
2023-08-15 12:14:47.114266,-135.0
2023-08-15 12:14:47.121955,-147.0
2023-08-15 12:14:47.129645,-178.0
2023-08-15 12:14:47.137334,-190.0
2023-08-15 12:14:47.145024,-183.0
2023-08-15 12:14:47.152713,-185.0
2023-08-15 12:14:47.160402,-200.0
2023-08-15 12:14:47.168092,-205.0
2023-08-15 12:14:47.175781,-183.0
2023-08-15 12:14:47.183470,-164.0
2023-08-15 12:14:47.191160,-156.0
2023-08-15 12:14:47.198849,-120.0
2023-08-15 12:14:47.206538,-84.0
2023-08-15 12:14:47.214228,-74.0
2023-08-15 12:14:47.221917,-55.0
2023-08-15 12:14:47.229607,-26.0
2023-08-15 12:14:47.237296,-24.0
2023-08-15 12:14:47.244985,-24.0
2023-08-15 12:14:47.252675,-14.0
2023-08-15 12:14:47.260364,-19.0
2023-08-15 12:14:47.268053,-24.0
2023-08-15 12:14:47.275743,-14.0
2023-08-15 12:14:47.283432,-16.0
2023-08-15 12:14:47.291121,-24.0
2023-08-15 12:14:47.298811,-16.0
2023-08-15 12:14:47.306500,-19.0
2023-08-15 12:14:47.314189,-36.0
2023-08-15 12:14:47.321879,-31.0
2023-08-15 12:14:47.329568,-14.0
2023-08-15 12:14:47.337258,-19.0
2023-08-15 12:14:47.344947,-36.0
2023-08-15 12:14:47.352636,-43.0
2023-08-15 12:14:47.360326,-31.0
2023-08-15 12:14:47.368015,-21.0
2023-08-15 12:14:47.375704,-31.0
2023-08-15 12:14:47.383394,-33.0
2023-08-15 12:14:47.391083,-26.0
2023-08-15 12:14:47.398772,-33.0
2023-08-15 12:14:47.406462,-36.0
2023-08-15 12:14:47.414151,-12.0
2023-08-15 12:14:47.421840,-2.0
2023-08-15 12:14:47.429530,-12.0
2023-08-15 12:14:47.437219,-9.0
2023-08-15 12:14:47.444909,-16.0
2023-08-15 12:14:47.452598,-38.0
2023-08-15 12:14:47.460287,-33.0
2023-08-15 12:14:47.467977,-19.0
2023-08-15 12:14:47.475666,-21.0
2023-08-15 12:14:47.483355,-24.0
2023-08-15 12:14:47.491045,-19.0
2023-08-15 12:14:47.498734,-14.0
2023-08-15 12:14:47.506423,-9.0
2023-08-15 12:14:47.514113,-24.0
2023-08-15 12:14:47.521802,-45.0
2023-08-15 12:14:47.529491,-36.0
2023-08-15 12:14:47.537181,-19.0
2023-08-15 12:14:47.544870,-19.0
2023-08-15 12:14:47.552560,-28.0
2023-08-15 12:14:47.560249,-33.0
2023-08-15 12:14:47.567938,-26.0
2023-08-15 12:14:47.575628,-28.0
2023-08-15 12:14:47.583317,-33.0
2023-08-15 12:14:47.591006,-24.0
2023-08-15 12:14:47.598696,-41.0
2023-08-15 12:14:47.606385,-65.0
2023-08-15 12:14:47.614074,-53.0
2023-08-15 12:14:47.621764,-69.0
2023-08-15 12:14:47.629453,-127.0
2023-08-15 12:14:47.637143,-110.0
2023-08-15 12:14:47.644832,-53.0
2023-08-15 12:14:47.652521,-50.0
2023-08-15 12:14:47.660211,-55.0
2023-08-15 12:14:47.667900,-33.0
2023-08-15 12:14:47.675589,-24.0
2023-08-15 12:14:47.683279,-16.0
2023-08-15 12:14:47.690968,-4.0
2023-08-15 12:14:47.698657,16.0
2023-08-15 12:14:47.706347,21.0
2023-08-15 12:14:47.714036,-9.0
2023-08-15 12:14:47.721725,-26.0
2023-08-15 12:14:47.729415,-7.0
2023-08-15 12:14:47.737104,2.0
2023-08-15 12:14:47.744794,-2.0
2023-08-15 12:14:47.752483,-53.0
2023-08-15 12:14:47.760172,-263.0
2023-08-15 12:14:47.767862,-694.0
2023-08-15 12:14:47.775551,-1122.0
2023-08-15 12:14:47.783240,-1032.0
2023-08-15 12:14:47.790930,-323.0
2023-08-15 12:14:47.798619,328.0
2023-08-15 12:14:47.806308,320.0
2023-08-15 12:14:47.813998,24.0
2023-08-15 12:14:47.821687,26.0
2023-08-15 12:14:47.829376,123.0
2023-08-15 12:14:47.837066,65.0
2023-08-15 12:14:47.844755,31.0
2023-08-15 12:14:47.852445,67.0
2023-08-15 12:14:47.860134,50.0
2023-08-15 12:14:47.867823,12.0
2023-08-15 12:14:47.875513,16.0
2023-08-15 12:14:47.883202,21.0
2023-08-15 12:14:47.890891,-7.0
2023-08-15 12:14:47.898581,-33.0
2023-08-15 12:14:47.906270,-31.0
2023-08-15 12:14:47.913959,-41.0
2023-08-15 12:14:47.921649,-57.0
2023-08-15 12:14:47.929338,-55.0
2023-08-15 12:14:47.937027,-67.0
2023-08-15 12:14:47.944717,-91.0
2023-08-15 12:14:47.952406,-94.0
2023-08-15 12:14:47.960096,-91.0
2023-08-15 12:14:47.967785,-125.0
2023-08-15 12:14:47.975474,-152.0
2023-08-15 12:14:47.983164,-152.0
2023-08-15 12:14:47.990853,-171.0
2023-08-15 12:14:47.998542,-188.0
2023-08-15 12:14:48.006232,-180.0
2023-08-15 12:14:48.013921,-178.0
2023-08-15 12:14:48.021610,-185.0
2023-08-15 12:14:48.029300,-173.0
2023-08-15 12:14:48.036989,-149.0
2023-08-15 12:14:48.044679,-125.0
2023-08-15 12:14:48.052368,-106.0
2023-08-15 12:14:48.060057,-77.0
2023-08-15 12:14:48.067747,-48.0
2023-08-15 12:14:48.075436,-28.0
2023-08-15 12:14:48.083125,-24.0
2023-08-15 12:14:48.090815,-19.0
2023-08-15 12:14:48.098504,-7.0
2023-08-15 12:14:48.106193,4.0
2023-08-15 12:14:48.113883,4.0
2023-08-15 12:14:48.121572,-4.0
2023-08-15 12:14:48.129261,-9.0
2023-08-15 12:14:48.136951,-9.0
2023-08-15 12:14:48.144640,2.0
2023-08-15 12:14:48.152330,16.0
2023-08-15 12:14:48.160019,0.0
2023-08-15 12:14:48.167708,-45.0
2023-08-15 12:14:48.175398,-55.0
2023-08-15 12:14:48.183087,-19.0
2023-08-15 12:14:48.190776,-16.0
2023-08-15 12:14:48.198466,-36.0
2023-08-15 12:14:48.206155,-28.0
2023-08-15 12:14:48.213844,-7.0
2023-08-15 12:14:48.221534,-7.0
2023-08-15 12:14:48.229223,-21.0
2023-08-15 12:14:48.236912,-26.0
2023-08-15 12:14:48.244602,-26.0
2023-08-15 12:14:48.252291,-21.0
2023-08-15 12:14:48.259981,-16.0
2023-08-15 12:14:48.267670,-14.0
2023-08-15 12:14:48.275359,-9.0
2023-08-15 12:14:48.283049,-14.0
2023-08-15 12:14:48.290738,-19.0
2023-08-15 12:14:48.298427,-7.0
2023-08-15 12:14:48.306117,-2.0
2023-08-15 12:14:48.313806,-19.0
2023-08-15 12:14:48.321495,-26.0
2023-08-15 12:14:48.329185,-12.0
2023-08-15 12:14:48.336874,-14.0
2023-08-15 12:14:48.344563,-31.0
2023-08-15 12:14:48.352253,-19.0
2023-08-15 12:14:48.359942,-2.0
2023-08-15 12:14:48.367632,-7.0
2023-08-15 12:14:48.375321,-19.0
2023-08-15 12:14:48.383010,-26.0
2023-08-15 12:14:48.390700,-24.0
2023-08-15 12:14:48.398389,-19.0
2023-08-15 12:14:48.406078,-14.0
2023-08-15 12:14:48.413768,-19.0
2023-08-15 12:14:48.421457,-26.0
2023-08-15 12:14:48.429146,-31.0
2023-08-15 12:14:48.436836,-36.0
2023-08-15 12:14:48.444525,-41.0
2023-08-15 12:14:48.452215,-43.0
2023-08-15 12:14:48.459904,-60.0
2023-08-15 12:14:48.467593,-79.0
2023-08-15 12:14:48.475283,-94.0
2023-08-15 12:14:48.482972,-113.0
2023-08-15 12:14:48.490661,-101.0
2023-08-15 12:14:48.498351,-55.0
2023-08-15 12:14:48.506040,-41.0
2023-08-15 12:14:48.513729,-48.0
2023-08-15 12:14:48.521419,-33.0
2023-08-15 12:14:48.529108,-12.0
2023-08-15 12:14:48.536797,-7.0
2023-08-15 12:14:48.544487,-16.0
2023-08-15 12:14:48.552176,-21.0
2023-08-15 12:14:48.559866,-16.0
2023-08-15 12:14:48.567555,-16.0
2023-08-15 12:14:48.575244,-24.0
2023-08-15 12:14:48.582934,-19.0
2023-08-15 12:14:48.590623,-7.0
2023-08-15 12:14:48.598312,-86.0
2023-08-15 12:14:48.606002,-388.0
2023-08-15 12:14:48.613691,-873.0
2023-08-15 12:14:48.621380,-1165.0
2023-08-15 12:14:48.629070,-820.0
2023-08-15 12:14:48.636759,-21.0
2023-08-15 12:14:48.644448,402.0
2023-08-15 12:14:48.652138,166.0
2023-08-15 12:14:48.659827,-48.0
2023-08-15 12:14:48.667517,50.0
2023-08-15 12:14:48.675206,86.0
2023-08-15 12:14:48.682895,31.0
2023-08-15 12:14:48.690585,41.0
2023-08-15 12:14:48.698274,36.0
2023-08-15 12:14:48.705963,0.0
2023-08-15 12:14:48.713653,7.0
2023-08-15 12:14:48.721342,12.0
2023-08-15 12:14:48.729031,-21.0
2023-08-15 12:14:48.736721,-33.0
2023-08-15 12:14:48.744410,-16.0
2023-08-15 12:14:48.752099,-26.0
2023-08-15 12:14:48.759789,-65.0
2023-08-15 12:14:48.767478,-84.0
2023-08-15 12:14:48.775168,-74.0
2023-08-15 12:14:48.782857,-79.0
2023-08-15 12:14:48.790546,-94.0
2023-08-15 12:14:48.798236,-108.0
2023-08-15 12:14:48.805925,-125.0
2023-08-15 12:14:48.813614,-144.0
2023-08-15 12:14:48.821304,-159.0
2023-08-15 12:14:48.828993,-164.0
2023-08-15 12:14:48.836682,-171.0
2023-08-15 12:14:48.844372,-188.0
2023-08-15 12:14:48.852061,-200.0
2023-08-15 12:14:48.859751,-200.0
2023-08-15 12:14:48.867440,-185.0
2023-08-15 12:14:48.875129,-161.0
2023-08-15 12:14:48.882819,-139.0
2023-08-15 12:14:48.890508,-123.0
2023-08-15 12:14:48.898197,-103.0
2023-08-15 12:14:48.905887,-74.0
2023-08-15 12:14:48.913576,-31.0
2023-08-15 12:14:48.921265,-4.0
2023-08-15 12:14:48.928955,0.0
2023-08-15 12:14:48.936644,-9.0
2023-08-15 12:14:48.944333,-21.0
2023-08-15 12:14:48.952023,-12.0
2023-08-15 12:14:48.959712,7.0
2023-08-15 12:14:48.967402,4.0
2023-08-15 12:14:48.975091,-9.0
2023-08-15 12:14:48.982780,-16.0
2023-08-15 12:14:48.990470,-7.0
2023-08-15 12:14:48.998159,0.0
2023-08-15 12:14:49.005848,-9.0
2023-08-15 12:14:49.013538,-14.0
2023-08-15 12:14:49.021227,-12.0
2023-08-15 12:14:49.028916,-14.0
2023-08-15 12:14:49.036606,-14.0
2023-08-15 12:14:49.044295,-16.0
2023-08-15 12:14:49.051984,-36.0
2023-08-15 12:14:49.059674,-38.0
2023-08-15 12:14:49.067363,-33.0
2023-08-15 12:14:49.075053,-33.0
2023-08-15 12:14:49.082742,-31.0
2023-08-15 12:14:49.090431,-16.0
2023-08-15 12:14:49.098121,-7.0
2023-08-15 12:14:49.105810,-26.0
2023-08-15 12:14:49.113499,-38.0
2023-08-15 12:14:49.121189,-21.0
2023-08-15 12:14:49.128878,-4.0
2023-08-15 12:14:49.136567,-14.0
2023-08-15 12:14:49.144257,-24.0
2023-08-15 12:14:49.151946,-21.0
2023-08-15 12:14:49.159635,-28.0
2023-08-15 12:14:49.167325,-21.0
2023-08-15 12:14:49.175014,-19.0
2023-08-15 12:14:49.182704,-41.0
2023-08-15 12:14:49.190393,-36.0
2023-08-15 12:14:49.198082,-21.0
2023-08-15 12:14:49.205772,-36.0
2023-08-15 12:14:49.213461,-41.0
2023-08-15 12:14:49.221150,-31.0
2023-08-15 12:14:49.228840,-31.0
2023-08-15 12:14:49.236529,-43.0
2023-08-15 12:14:49.244218,-43.0
2023-08-15 12:14:49.251908,-26.0
2023-08-15 12:14:49.259597,-21.0
2023-08-15 12:14:49.267287,-33.0
2023-08-15 12:14:49.274976,-43.0
2023-08-15 12:14:49.282665,-50.0
2023-08-15 12:14:49.290355,-50.0
2023-08-15 12:14:49.298044,-60.0
2023-08-15 12:14:49.305733,-67.0
2023-08-15 12:14:49.313423,-69.0
2023-08-15 12:14:49.321112,-94.0
2023-08-15 12:14:49.328801,-120.0
2023-08-15 12:14:49.336491,-123.0
2023-08-15 12:14:49.344180,-86.0
2023-08-15 12:14:49.351869,-55.0
2023-08-15 12:14:49.359559,-50.0
2023-08-15 12:14:49.367248,-36.0
2023-08-15 12:14:49.374938,0.0
2023-08-15 12:14:49.382627,9.0
2023-08-15 12:14:49.390316,-2.0
2023-08-15 12:14:49.398006,-12.0
2023-08-15 12:14:49.405695,-4.0
2023-08-15 12:14:49.413384,9.0
2023-08-15 12:14:49.421074,-2.0
2023-08-15 12:14:49.428763,-16.0
2023-08-15 12:14:49.436452,0.0
2023-08-15 12:14:49.444142,-9.0
2023-08-15 12:14:49.451831,-127.0
2023-08-15 12:14:49.459520,-415.0
2023-08-15 12:14:49.467210,-827.0
2023-08-15 12:14:49.474899,-1039.0
2023-08-15 12:14:49.482589,-646.0
2023-08-15 12:14:49.490278,101.0
2023-08-15 12:14:49.497967,376.0
2023-08-15 12:14:49.505657,106.0
2023-08-15 12:14:49.513346,-14.0
2023-08-15 12:14:49.521035,89.0
2023-08-15 12:14:49.528725,67.0
2023-08-15 12:14:49.536414,7.0
2023-08-15 12:14:49.544103,33.0
2023-08-15 12:14:49.551793,38.0
2023-08-15 12:14:49.559482,7.0
2023-08-15 12:14:49.567172,7.0
2023-08-15 12:14:49.574861,14.0
2023-08-15 12:14:49.582550,-14.0
2023-08-15 12:14:49.590240,-36.0
2023-08-15 12:14:49.597929,-41.0
2023-08-15 12:14:49.605618,-62.0
2023-08-15 12:14:49.613308,-77.0
2023-08-15 12:14:49.620997,-72.0
2023-08-15 12:14:49.628686,-79.0
2023-08-15 12:14:49.636376,-98.0
2023-08-15 12:14:49.644065,-108.0
2023-08-15 12:14:49.651754,-113.0
2023-08-15 12:14:49.659444,-127.0
2023-08-15 12:14:49.667133,-142.0
2023-08-15 12:14:49.674823,-159.0
2023-08-15 12:14:49.682512,-185.0
2023-08-15 12:14:49.690201,-202.0
2023-08-15 12:14:49.697891,-205.0
2023-08-15 12:14:49.705580,-205.0
2023-08-15 12:14:49.713269,-197.0
2023-08-15 12:14:49.720959,-188.0
2023-08-15 12:14:49.728648,-178.0
2023-08-15 12:14:49.736337,-156.0
2023-08-15 12:14:49.744027,-139.0
2023-08-15 12:14:49.751716,-120.0
2023-08-15 12:14:49.759405,-89.0
2023-08-15 12:14:49.767095,-60.0
2023-08-15 12:14:49.774784,-36.0
2023-08-15 12:14:49.782474,-24.0
2023-08-15 12:14:49.790163,-14.0
2023-08-15 12:14:49.797852,-12.0
2023-08-15 12:14:49.805542,-16.0
2023-08-15 12:14:49.813231,-12.0
2023-08-15 12:14:49.820920,0.0
2023-08-15 12:14:49.828610,2.0
2023-08-15 12:14:49.836299,7.0
2023-08-15 12:14:49.843988,4.0
2023-08-15 12:14:49.851678,-14.0
2023-08-15 12:14:49.859367,-24.0
2023-08-15 12:14:49.867056,-14.0
2023-08-15 12:14:49.874746,-16.0
2023-08-15 12:14:49.882435,-31.0
2023-08-15 12:14:49.890125,-28.0
2023-08-15 12:14:49.897814,-12.0
2023-08-15 12:14:49.905503,-7.0
2023-08-15 12:14:49.913193,-7.0
2023-08-15 12:14:49.920882,-14.0
2023-08-15 12:14:49.928571,-26.0
2023-08-15 12:14:49.936261,-16.0
2023-08-15 12:14:49.943950,-7.0
2023-08-15 12:14:49.951639,-24.0
2023-08-15 12:14:49.959329,-26.0
2023-08-15 12:14:49.967018,-12.0
2023-08-15 12:14:49.974708,0.0
2023-08-15 12:14:49.982397,7.0
2023-08-15 12:14:49.990086,0.0
2023-08-15 12:14:49.997776,-16.0
2023-08-15 12:14:50.005465,-9.0
2023-08-15 12:14:50.013154,12.0
2023-08-15 12:14:50.020844,9.0
2023-08-15 12:14:50.028533,-16.0
2023-08-15 12:14:50.036222,-26.0
2023-08-15 12:14:50.043912,-14.0
2023-08-15 12:14:50.051601,-9.0
2023-08-15 12:14:50.059290,-14.0
2023-08-15 12:14:50.066980,-16.0
2023-08-15 12:14:50.074669,-21.0
2023-08-15 12:14:50.082359,-19.0
2023-08-15 12:14:50.090048,-9.0
2023-08-15 12:14:50.097737,-2.0
2023-08-15 12:14:50.105427,-4.0
2023-08-15 12:14:50.113116,-28.0
2023-08-15 12:14:50.120805,-43.0
2023-08-15 12:14:50.128495,-33.0
2023-08-15 12:14:50.136184,-45.0
2023-08-15 12:14:50.143873,-82.0
2023-08-15 12:14:50.151563,-98.0
2023-08-15 12:14:50.159252,-98.0
2023-08-15 12:14:50.166941,-110.0
2023-08-15 12:14:50.174631,-108.0
2023-08-15 12:14:50.182320,-69.0
2023-08-15 12:14:50.190010,-43.0
2023-08-15 12:14:50.197699,-48.0
2023-08-15 12:14:50.205388,-33.0
2023-08-15 12:14:50.213078,-12.0
2023-08-15 12:14:50.220767,-14.0
2023-08-15 12:14:50.228456,-14.0
2023-08-15 12:14:50.236146,-7.0
2023-08-15 12:14:50.243835,-21.0
2023-08-15 12:14:50.251524,-14.0
2023-08-15 12:14:50.259214,16.0
2023-08-15 12:14:50.266903,-9.0
2023-08-15 12:14:50.274592,-50.0
2023-08-15 12:14:50.282282,-69.0
2023-08-15 12:14:50.289971,-238.0
2023-08-15 12:14:50.297661,-656.0
2023-08-15 12:14:50.305350,-1059.0
2023-08-15 12:14:50.313039,-982.0
2023-08-15 12:14:50.320729,-313.0
2023-08-15 12:14:50.328418,320.0
2023-08-15 12:14:50.336107,306.0
2023-08-15 12:14:50.343797,4.0
2023-08-15 12:14:50.351486,0.0
2023-08-15 12:14:50.359175,108.0
2023-08-15 12:14:50.366865,60.0
2023-08-15 12:14:50.374554,16.0
2023-08-15 12:14:50.382244,41.0
2023-08-15 12:14:50.389933,41.0
2023-08-15 12:14:50.397622,21.0
2023-08-15 12:14:50.405312,9.0
2023-08-15 12:14:50.413001,0.0
2023-08-15 12:14:50.420690,-16.0
2023-08-15 12:14:50.428380,-28.0
2023-08-15 12:14:50.436069,-21.0
2023-08-15 12:14:50.443758,-33.0
2023-08-15 12:14:50.451448,-67.0
2023-08-15 12:14:50.459137,-72.0
2023-08-15 12:14:50.466826,-62.0
2023-08-15 12:14:50.474516,-79.0
2023-08-15 12:14:50.482205,-101.0
2023-08-15 12:14:50.489895,-113.0
2023-08-15 12:14:50.497584,-120.0
2023-08-15 12:14:50.505273,-127.0
2023-08-15 12:14:50.512963,-149.0
2023-08-15 12:14:50.520652,-171.0
2023-08-15 12:14:50.528341,-171.0
2023-08-15 12:14:50.536031,-161.0
2023-08-15 12:14:50.543720,-173.0
2023-08-15 12:14:50.551409,-176.0
2023-08-15 12:14:50.559099,-147.0
2023-08-15 12:14:50.566788,-130.0
2023-08-15 12:14:50.574477,-135.0
2023-08-15 12:14:50.582167,-118.0
2023-08-15 12:14:50.589856,-79.0
2023-08-15 12:14:50.597546,-50.0
2023-08-15 12:14:50.605235,-33.0
2023-08-15 12:14:50.612924,-16.0
2023-08-15 12:14:50.620614,-19.0
2023-08-15 12:14:50.628303,-4.0
2023-08-15 12:14:50.635992,16.0
2023-08-15 12:14:50.643682,2.0
2023-08-15 12:14:50.651371,-12.0
2023-08-15 12:14:50.659060,-4.0
2023-08-15 12:14:50.666750,-12.0
2023-08-15 12:14:50.674439,-14.0
2023-08-15 12:14:50.682128,0.0
2023-08-15 12:14:50.689818,-9.0
2023-08-15 12:14:50.697507,-31.0
2023-08-15 12:14:50.705197,-33.0
2023-08-15 12:14:50.712886,-31.0
2023-08-15 12:14:50.720575,-38.0
2023-08-15 12:14:50.728265,-48.0
2023-08-15 12:14:50.735954,-48.0
2023-08-15 12:14:50.743643,-38.0
2023-08-15 12:14:50.751333,-33.0
