time,ECG
2023-08-21 10:22:32.714494,-131.0
2023-08-21 10:22:32.722183,-131.0
2023-08-21 10:22:32.729872,-128.0
2023-08-21 10:22:32.737561,-123.0
2023-08-21 10:22:32.745249,-121.0
2023-08-21 10:22:32.752938,-119.0
2023-08-21 10:22:32.760627,-119.0
2023-08-21 10:22:32.768316,-116.0
2023-08-21 10:22:32.776004,-116.0
2023-08-21 10:22:32.783693,-119.0
2023-08-21 10:22:32.791382,-119.0
2023-08-21 10:22:32.799070,-119.0
2023-08-21 10:22:32.806759,-116.0
2023-08-21 10:22:32.814448,-114.0
2023-08-21 10:22:32.822137,-111.0
2023-08-21 10:22:32.829825,-111.0
2023-08-21 10:22:32.837514,-109.0
2023-08-21 10:22:32.845203,-109.0
2023-08-21 10:22:32.852892,-106.0
2023-08-21 10:22:32.860580,-104.0
2023-08-21 10:22:32.868269,-102.0
2023-08-21 10:22:32.875958,-99.0
2023-08-21 10:22:32.883646,-99.0
2023-08-21 10:22:32.891335,-99.0
2023-08-21 10:22:32.899024,-99.0
2023-08-21 10:22:32.906713,-102.0
2023-08-21 10:22:32.914401,-99.0
2023-08-21 10:22:32.922090,-97.0
2023-08-21 10:22:32.929779,-97.0
2023-08-21 10:22:32.937468,-82.0
2023-08-21 10:22:32.945156,-55.0
2023-08-21 10:22:32.952845,-36.0
2023-08-21 10:22:32.960534,-31.0
2023-08-21 10:22:32.968223,-29.0
2023-08-21 10:22:32.975911,-51.0
2023-08-21 10:22:32.983600,-89.0
2023-08-21 10:22:32.991289,-97.0
2023-08-21 10:22:32.998977,-85.0
2023-08-21 10:22:33.006666,-87.0
2023-08-21 10:22:33.014355,-92.0
2023-08-21 10:22:33.022044,-87.0
2023-08-21 10:22:33.029732,-87.0
2023-08-21 10:22:33.037421,-92.0
2023-08-21 10:22:33.045110,-106.0
2023-08-21 10:22:33.052799,-94.0
2023-08-21 10:22:33.060487,92.0
2023-08-21 10:22:33.068176,587.0
2023-08-21 10:22:33.075865,1139.0
2023-08-21 10:22:33.083554,1136.0
2023-08-21 10:22:33.091242,386.0
2023-08-21 10:22:33.098931,-308.0
2023-08-21 10:22:33.106620,-274.0
2023-08-21 10:22:33.114308,-87.0
2023-08-21 10:22:33.121997,-201.0
2023-08-21 10:22:33.129686,-245.0
2023-08-21 10:22:33.137375,-165.0
2023-08-21 10:22:33.145063,-177.0
2023-08-21 10:22:33.152752,-199.0
2023-08-21 10:22:33.160441,-165.0
2023-08-21 10:22:33.168130,-150.0
2023-08-21 10:22:33.175818,-157.0
2023-08-21 10:22:33.183507,-153.0
2023-08-21 10:22:33.191196,-148.0
2023-08-21 10:22:33.198884,-138.0
2023-08-21 10:22:33.206573,-123.0
2023-08-21 10:22:33.214262,-116.0
2023-08-21 10:22:33.221951,-114.0
2023-08-21 10:22:33.229639,-109.0
2023-08-21 10:22:33.237328,-94.0
2023-08-21 10:22:33.245017,-77.0
2023-08-21 10:22:33.252706,-65.0
2023-08-21 10:22:33.260394,-53.0
2023-08-21 10:22:33.268083,-41.0
2023-08-21 10:22:33.275772,-29.0
2023-08-21 10:22:33.283461,-17.0
2023-08-21 10:22:33.291149,-7.0
2023-08-21 10:22:33.298838,2.0
2023-08-21 10:22:33.306527,7.0
2023-08-21 10:22:33.314215,7.0
2023-08-21 10:22:33.321904,7.0
2023-08-21 10:22:33.329593,7.0
2023-08-21 10:22:33.337282,7.0
2023-08-21 10:22:33.344970,4.0
2023-08-21 10:22:33.352659,-4.0
2023-08-21 10:22:33.360348,-24.0
2023-08-21 10:22:33.368037,-51.0
2023-08-21 10:22:33.375725,-75.0
2023-08-21 10:22:33.383414,-99.0
2023-08-21 10:22:33.391103,-126.0
2023-08-21 10:22:33.398791,-143.0
2023-08-21 10:22:33.406480,-145.0
2023-08-21 10:22:33.414169,-145.0
2023-08-21 10:22:33.421858,-143.0
2023-08-21 10:22:33.429546,-136.0
2023-08-21 10:22:33.437235,-128.0
2023-08-21 10:22:33.444924,-123.0
2023-08-21 10:22:33.452613,-121.0
2023-08-21 10:22:33.460301,-119.0
2023-08-21 10:22:33.467990,-114.0
2023-08-21 10:22:33.475679,-109.0
2023-08-21 10:22:33.483368,-109.0
2023-08-21 10:22:33.491056,-109.0
2023-08-21 10:22:33.498745,-109.0
2023-08-21 10:22:33.506434,-109.0
2023-08-21 10:22:33.514122,-109.0
2023-08-21 10:22:33.521811,-106.0
2023-08-21 10:22:33.529500,-106.0
2023-08-21 10:22:33.537189,-109.0
2023-08-21 10:22:33.544877,-111.0
2023-08-21 10:22:33.552566,-109.0
2023-08-21 10:22:33.560255,-106.0
2023-08-21 10:22:33.567944,-106.0
2023-08-21 10:22:33.575632,-104.0
2023-08-21 10:22:33.583321,-104.0
2023-08-21 10:22:33.591010,-104.0
2023-08-21 10:22:33.598698,-102.0
2023-08-21 10:22:33.606387,-97.0
2023-08-21 10:22:33.614076,-97.0
2023-08-21 10:22:33.621765,-92.0
2023-08-21 10:22:33.629453,-92.0
2023-08-21 10:22:33.637142,-97.0
2023-08-21 10:22:33.644831,-94.0
2023-08-21 10:22:33.652520,-92.0
2023-08-21 10:22:33.660208,-92.0
2023-08-21 10:22:33.667897,-94.0
2023-08-21 10:22:33.675586,-94.0
2023-08-21 10:22:33.683275,-82.0
2023-08-21 10:22:33.690963,-58.0
2023-08-21 10:22:33.698652,-43.0
2023-08-21 10:22:33.706341,-43.0
2023-08-21 10:22:33.714029,-55.0
2023-08-21 10:22:33.721718,-87.0
2023-08-21 10:22:33.729407,-111.0
2023-08-21 10:22:33.737096,-111.0
2023-08-21 10:22:33.744784,-106.0
2023-08-21 10:22:33.752473,-109.0
2023-08-21 10:22:33.760162,-111.0
2023-08-21 10:22:33.767851,-119.0
2023-08-21 10:22:33.775539,-128.0
2023-08-21 10:22:33.783228,-136.0
2023-08-21 10:22:33.790917,-138.0
2023-08-21 10:22:33.798605,-41.0
2023-08-21 10:22:33.806294,342.0
2023-08-21 10:22:33.813983,927.0
2023-08-21 10:22:33.821672,1187.0
2023-08-21 10:22:33.829360,677.0
2023-08-21 10:22:33.837049,-143.0
2023-08-21 10:22:33.844738,-369.0
2023-08-21 10:22:33.852427,-140.0
2023-08-21 10:22:33.860115,-160.0
2023-08-21 10:22:33.867804,-269.0
2023-08-21 10:22:33.875493,-204.0
2023-08-21 10:22:33.883182,-179.0
2023-08-21 10:22:33.890870,-213.0
2023-08-21 10:22:33.898559,-194.0
2023-08-21 10:22:33.906248,-167.0
2023-08-21 10:22:33.913936,-170.0
2023-08-21 10:22:33.921625,-160.0
2023-08-21 10:22:33.929314,-143.0
2023-08-21 10:22:33.937003,-136.0
2023-08-21 10:22:33.944691,-128.0
2023-08-21 10:22:33.952380,-119.0
2023-08-21 10:22:33.960069,-106.0
2023-08-21 10:22:33.967758,-94.0
2023-08-21 10:22:33.975446,-82.0
2023-08-21 10:22:33.983135,-68.0
2023-08-21 10:22:33.990824,-58.0
2023-08-21 10:22:33.998512,-48.0
2023-08-21 10:22:34.006201,-34.0
2023-08-21 10:22:34.013890,-19.0
2023-08-21 10:22:34.021579,-4.0
2023-08-21 10:22:34.029267,4.0
2023-08-21 10:22:34.036956,12.0
2023-08-21 10:22:34.044645,14.0
2023-08-21 10:22:34.052334,19.0
2023-08-21 10:22:34.060022,21.0
2023-08-21 10:22:34.067711,24.0
2023-08-21 10:22:34.075400,21.0
2023-08-21 10:22:34.083089,17.0
2023-08-21 10:22:34.090777,9.0
2023-08-21 10:22:34.098466,-4.0
2023-08-21 10:22:34.106155,-29.0
2023-08-21 10:22:34.113843,-55.0
2023-08-21 10:22:34.121532,-82.0
2023-08-21 10:22:34.129221,-111.0
2023-08-21 10:22:34.136910,-131.0
2023-08-21 10:22:34.144598,-136.0
2023-08-21 10:22:34.152287,-133.0
2023-08-21 10:22:34.159976,-131.0
2023-08-21 10:22:34.167665,-128.0
2023-08-21 10:22:34.175353,-123.0
2023-08-21 10:22:34.183042,-123.0
2023-08-21 10:22:34.190731,-116.0
2023-08-21 10:22:34.198419,-111.0
2023-08-21 10:22:34.206108,-109.0
2023-08-21 10:22:34.213797,-106.0
2023-08-21 10:22:34.221486,-109.0
2023-08-21 10:22:34.229174,-111.0
2023-08-21 10:22:34.236863,-119.0
2023-08-21 10:22:34.244552,-121.0
2023-08-21 10:22:34.252241,-116.0
2023-08-21 10:22:34.259929,-116.0
2023-08-21 10:22:34.267618,-121.0
2023-08-21 10:22:34.275307,-121.0
2023-08-21 10:22:34.282996,-119.0
2023-08-21 10:22:34.290684,-116.0
2023-08-21 10:22:34.298373,-114.0
2023-08-21 10:22:34.306062,-121.0
2023-08-21 10:22:34.313750,-133.0
2023-08-21 10:22:34.321439,-131.0
2023-08-21 10:22:34.329128,-123.0
2023-08-21 10:22:34.336817,-119.0
2023-08-21 10:22:34.344505,-119.0
2023-08-21 10:22:34.352194,-116.0
2023-08-21 10:22:34.359883,-116.0
2023-08-21 10:22:34.367572,-114.0
2023-08-21 10:22:34.375260,-111.0
2023-08-21 10:22:34.382949,-111.0
2023-08-21 10:22:34.390638,-106.0
2023-08-21 10:22:34.398326,-109.0
2023-08-21 10:22:34.406015,-109.0
2023-08-21 10:22:34.413704,-106.0
2023-08-21 10:22:34.421393,-99.0
2023-08-21 10:22:34.429081,-77.0
2023-08-21 10:22:34.436770,-48.0
2023-08-21 10:22:34.444459,-36.0
2023-08-21 10:22:34.452148,-36.0
2023-08-21 10:22:34.459836,-46.0
2023-08-21 10:22:34.467525,-70.0
2023-08-21 10:22:34.475214,-92.0
2023-08-21 10:22:34.482903,-92.0
2023-08-21 10:22:34.490591,-92.0
2023-08-21 10:22:34.498280,-97.0
2023-08-21 10:22:34.505969,-97.0
2023-08-21 10:22:34.513657,-94.0
2023-08-21 10:22:34.521346,-89.0
2023-08-21 10:22:34.529035,-97.0
2023-08-21 10:22:34.536724,-116.0
2023-08-21 10:22:34.544412,-58.0
2023-08-21 10:22:34.552101,262.0
2023-08-21 10:22:34.559790,842.0
2023-08-21 10:22:34.567479,1224.0
2023-08-21 10:22:34.575167,862.0
2023-08-21 10:22:34.582856,17.0
2023-08-21 10:22:34.590545,-361.0
2023-08-21 10:22:34.598233,-157.0
2023-08-21 10:22:34.605922,-109.0
2023-08-21 10:22:34.613611,-240.0
2023-08-21 10:22:34.621300,-208.0
2023-08-21 10:22:34.628988,-162.0
2023-08-21 10:22:34.636677,-191.0
2023-08-21 10:22:34.644366,-184.0
2023-08-21 10:22:34.652055,-150.0
2023-08-21 10:22:34.659743,-150.0
2023-08-21 10:22:34.667432,-148.0
2023-08-21 10:22:34.675121,-131.0
2023-08-21 10:22:34.682810,-121.0
2023-08-21 10:22:34.690498,-116.0
2023-08-21 10:22:34.698187,-104.0
2023-08-21 10:22:34.705876,-92.0
2023-08-21 10:22:34.713564,-82.0
2023-08-21 10:22:34.721253,-72.0
2023-08-21 10:22:34.728942,-58.0
2023-08-21 10:22:34.736631,-55.0
2023-08-21 10:22:34.744319,-51.0
2023-08-21 10:22:34.752008,-34.0
2023-08-21 10:22:34.759697,-19.0
2023-08-21 10:22:34.767386,-12.0
2023-08-21 10:22:34.775074,-2.0
2023-08-21 10:22:34.782763,9.0
2023-08-21 10:22:34.790452,17.0
2023-08-21 10:22:34.798140,19.0
2023-08-21 10:22:34.805829,19.0
2023-08-21 10:22:34.813518,19.0
2023-08-21 10:22:34.821207,19.0
2023-08-21 10:22:34.828895,17.0
2023-08-21 10:22:34.836584,12.0
2023-08-21 10:22:34.844273,-4.0
2023-08-21 10:22:34.851962,-36.0
2023-08-21 10:22:34.859650,-68.0
2023-08-21 10:22:34.867339,-94.0
2023-08-21 10:22:34.875028,-121.0
2023-08-21 10:22:34.882717,-136.0
2023-08-21 10:22:34.890405,-143.0
2023-08-21 10:22:34.898094,-148.0
2023-08-21 10:22:34.905783,-145.0
2023-08-21 10:22:34.913471,-138.0
2023-08-21 10:22:34.921160,-136.0
2023-08-21 10:22:34.928849,-131.0
2023-08-21 10:22:34.936538,-126.0
2023-08-21 10:22:34.944226,-123.0
2023-08-21 10:22:34.951915,-119.0
2023-08-21 10:22:34.959604,-114.0
2023-08-21 10:22:34.967293,-114.0
2023-08-21 10:22:34.974981,-114.0
2023-08-21 10:22:34.982670,-116.0
2023-08-21 10:22:34.990359,-116.0
2023-08-21 10:22:34.998047,-109.0
2023-08-21 10:22:35.005736,-106.0
2023-08-21 10:22:35.013425,-109.0
2023-08-21 10:22:35.021114,-109.0
2023-08-21 10:22:35.028802,-109.0
2023-08-21 10:22:35.036491,-111.0
2023-08-21 10:22:35.044180,-109.0
2023-08-21 10:22:35.051869,-106.0
2023-08-21 10:22:35.059557,-104.0
2023-08-21 10:22:35.067246,-102.0
2023-08-21 10:22:35.074935,-99.0
2023-08-21 10:22:35.082624,-99.0
2023-08-21 10:22:35.090312,-97.0
2023-08-21 10:22:35.098001,-94.0
2023-08-21 10:22:35.105690,-94.0
2023-08-21 10:22:35.113378,-99.0
2023-08-21 10:22:35.121067,-102.0
2023-08-21 10:22:35.128756,-97.0
2023-08-21 10:22:35.136445,-94.0
2023-08-21 10:22:35.144133,-97.0
2023-08-21 10:22:35.151822,-99.0
2023-08-21 10:22:35.159511,-89.0
2023-08-21 10:22:35.167200,-63.0
2023-08-21 10:22:35.174888,-38.0
2023-08-21 10:22:35.182577,-29.0
2023-08-21 10:22:35.190266,-29.0
2023-08-21 10:22:35.197954,-41.0
2023-08-21 10:22:35.205643,-70.0
2023-08-21 10:22:35.213332,-87.0
2023-08-21 10:22:35.221021,-82.0
2023-08-21 10:22:35.228709,-77.0
2023-08-21 10:22:35.236398,-80.0
2023-08-21 10:22:35.244087,-82.0
2023-08-21 10:22:35.251776,-82.0
2023-08-21 10:22:35.259464,-87.0
2023-08-21 10:22:35.267153,-102.0
2023-08-21 10:22:35.274842,-104.0
2023-08-21 10:22:35.282531,21.0
2023-08-21 10:22:35.290219,456.0
2023-08-21 10:22:35.297908,1071.0
2023-08-21 10:22:35.305597,1258.0
2023-08-21 10:22:35.313285,621.0
2023-08-21 10:22:35.320974,-211.0
2023-08-21 10:22:35.328663,-335.0
2023-08-21 10:22:35.336352,-99.0
2023-08-21 10:22:35.344040,-160.0
2023-08-21 10:22:35.351729,-250.0
2023-08-21 10:22:35.359418,-174.0
2023-08-21 10:22:35.367107,-162.0
2023-08-21 10:22:35.374795,-194.0
2023-08-21 10:22:35.382484,-172.0
2023-08-21 10:22:35.390173,-165.0
2023-08-21 10:22:35.397861,-182.0
2023-08-21 10:22:35.405550,-172.0
2023-08-21 10:22:35.413239,-155.0
2023-08-21 10:22:35.420928,-150.0
2023-08-21 10:22:35.428616,-148.0
2023-08-21 10:22:35.436305,-143.0
2023-08-21 10:22:35.443994,-133.0
2023-08-21 10:22:35.451683,-116.0
2023-08-21 10:22:35.459371,-102.0
2023-08-21 10:22:35.467060,-87.0
2023-08-21 10:22:35.474749,-75.0
2023-08-21 10:22:35.482438,-63.0
2023-08-21 10:22:35.490126,-51.0
2023-08-21 10:22:35.497815,-34.0
2023-08-21 10:22:35.505504,-19.0
2023-08-21 10:22:35.513192,-9.0
2023-08-21 10:22:35.520881,-7.0
2023-08-21 10:22:35.528570,0.0
2023-08-21 10:22:35.536259,2.0
2023-08-21 10:22:35.543947,2.0
2023-08-21 10:22:35.551636,2.0
2023-08-21 10:22:35.559325,0.0
2023-08-21 10:22:35.567014,-9.0
2023-08-21 10:22:35.574702,-21.0
2023-08-21 10:22:35.582391,-34.0
2023-08-21 10:22:35.590080,-53.0
2023-08-21 10:22:35.597768,-80.0
2023-08-21 10:22:35.605457,-109.0
2023-08-21 10:22:35.613146,-133.0
2023-08-21 10:22:35.620835,-148.0
2023-08-21 10:22:35.628523,-150.0
2023-08-21 10:22:35.636212,-150.0
2023-08-21 10:22:35.643901,-148.0
2023-08-21 10:22:35.651590,-143.0
2023-08-21 10:22:35.659278,-138.0
2023-08-21 10:22:35.666967,-131.0
2023-08-21 10:22:35.674656,-123.0
2023-08-21 10:22:35.682345,-116.0
2023-08-21 10:22:35.690033,-111.0
2023-08-21 10:22:35.697722,-109.0
2023-08-21 10:22:35.705411,-111.0
2023-08-21 10:22:35.713099,-109.0
2023-08-21 10:22:35.720788,-104.0
2023-08-21 10:22:35.728477,-104.0
2023-08-21 10:22:35.736166,-104.0
2023-08-21 10:22:35.743854,-106.0
2023-08-21 10:22:35.751543,-109.0
2023-08-21 10:22:35.759232,-106.0
2023-08-21 10:22:35.766921,-104.0
2023-08-21 10:22:35.774609,-102.0
2023-08-21 10:22:35.782298,-102.0
2023-08-21 10:22:35.789987,-102.0
2023-08-21 10:22:35.797676,-104.0
2023-08-21 10:22:35.805364,-102.0
2023-08-21 10:22:35.813053,-99.0
2023-08-21 10:22:35.820742,-94.0
2023-08-21 10:22:35.828430,-94.0
2023-08-21 10:22:35.836119,-94.0
2023-08-21 10:22:35.843808,-97.0
2023-08-21 10:22:35.851497,-97.0
2023-08-21 10:22:35.859185,-97.0
2023-08-21 10:22:35.866874,-97.0
2023-08-21 10:22:35.874563,-97.0
2023-08-21 10:22:35.882252,-94.0
2023-08-21 10:22:35.889940,-75.0
2023-08-21 10:22:35.897629,-46.0
2023-08-21 10:22:35.905318,-38.0
2023-08-21 10:22:35.913006,-43.0
2023-08-21 10:22:35.920695,-51.0
2023-08-21 10:22:35.928384,-77.0
2023-08-21 10:22:35.936073,-104.0
2023-08-21 10:22:35.943761,-99.0
2023-08-21 10:22:35.951450,-92.0
2023-08-21 10:22:35.959139,-92.0
2023-08-21 10:22:35.966828,-89.0
2023-08-21 10:22:35.974516,-89.0
2023-08-21 10:22:35.982205,-92.0
2023-08-21 10:22:35.989894,-97.0
2023-08-21 10:22:35.997583,-109.0
2023-08-21 10:22:36.005271,-48.0
2023-08-21 10:22:36.012960,272.0
2023-08-21 10:22:36.020649,855.0
2023-08-21 10:22:36.028337,1234.0
2023-08-21 10:22:36.036026,864.0
2023-08-21 10:22:36.043715,7.0
2023-08-21 10:22:36.051404,-369.0
2023-08-21 10:22:36.059092,-165.0
2023-08-21 10:22:36.066781,-128.0
2023-08-21 10:22:36.074470,-259.0
2023-08-21 10:22:36.082159,-213.0
2023-08-21 10:22:36.089847,-162.0
2023-08-21 10:22:36.097536,-199.0
2023-08-21 10:22:36.105225,-199.0
2023-08-21 10:22:36.112913,-177.0
2023-08-21 10:22:36.120602,-177.0
2023-08-21 10:22:36.128291,-165.0
2023-08-21 10:22:36.135980,-145.0
2023-08-21 10:22:36.143668,-140.0
2023-08-21 10:22:36.151357,-143.0
2023-08-21 10:22:36.159046,-143.0
2023-08-21 10:22:36.166735,-131.0
2023-08-21 10:22:36.174423,-119.0
2023-08-21 10:22:36.182112,-109.0
2023-08-21 10:22:36.189801,-97.0
2023-08-21 10:22:36.197490,-92.0
2023-08-21 10:22:36.205178,-89.0
2023-08-21 10:22:36.212867,-72.0
2023-08-21 10:22:36.220556,-55.0
2023-08-21 10:22:36.228244,-46.0
2023-08-21 10:22:36.235933,-36.0
2023-08-21 10:22:36.243622,-38.0
2023-08-21 10:22:36.251311,-41.0
2023-08-21 10:22:36.258999,-31.0
2023-08-21 10:22:36.266688,-24.0
2023-08-21 10:22:36.274377,-26.0
2023-08-21 10:22:36.282066,-31.0
2023-08-21 10:22:36.289754,-38.0
2023-08-21 10:22:36.297443,-53.0
2023-08-21 10:22:36.305132,-63.0
2023-08-21 10:22:36.312820,-80.0
2023-08-21 10:22:36.320509,-102.0
2023-08-21 10:22:36.328198,-131.0
2023-08-21 10:22:36.335887,-162.0
2023-08-21 10:22:36.343575,-187.0
2023-08-21 10:22:36.351264,-191.0
2023-08-21 10:22:36.358953,-187.0
2023-08-21 10:22:36.366642,-182.0
2023-08-21 10:22:36.374330,-182.0
2023-08-21 10:22:36.382019,-184.0
2023-08-21 10:22:36.389708,-177.0
2023-08-21 10:22:36.397397,-167.0
2023-08-21 10:22:36.405085,-167.0
2023-08-21 10:22:36.412774,-170.0
2023-08-21 10:22:36.420463,-170.0
2023-08-21 10:22:36.428151,-172.0
2023-08-21 10:22:36.435840,-170.0
2023-08-21 10:22:36.443529,-162.0
2023-08-21 10:22:36.451218,-160.0
2023-08-21 10:22:36.458906,-157.0
2023-08-21 10:22:36.466595,-160.0
2023-08-21 10:22:36.474284,-167.0
2023-08-21 10:22:36.481973,-165.0
2023-08-21 10:22:36.489661,-157.0
2023-08-21 10:22:36.497350,-155.0
2023-08-21 10:22:36.505039,-153.0
2023-08-21 10:22:36.512727,-157.0
2023-08-21 10:22:36.520416,-165.0
2023-08-21 10:22:36.528105,-157.0
2023-08-21 10:22:36.535794,-150.0
2023-08-21 10:22:36.543482,-145.0
2023-08-21 10:22:36.551171,-145.0
2023-08-21 10:22:36.558860,-157.0
2023-08-21 10:22:36.566549,-172.0
2023-08-21 10:22:36.574237,-162.0
2023-08-21 10:22:36.581926,-150.0
2023-08-21 10:22:36.589615,-153.0
2023-08-21 10:22:36.597304,-150.0
2023-08-21 10:22:36.604992,-145.0
2023-08-21 10:22:36.612681,-140.0
2023-08-21 10:22:36.620370,-140.0
2023-08-21 10:22:36.628058,-136.0
2023-08-21 10:22:36.635747,-109.0
2023-08-21 10:22:36.643436,-75.0
2023-08-21 10:22:36.651125,-60.0
2023-08-21 10:22:36.658813,-58.0
2023-08-21 10:22:36.666502,-60.0
2023-08-21 10:22:36.674191,-85.0
2023-08-21 10:22:36.681880,-109.0
2023-08-21 10:22:36.689568,-106.0
2023-08-21 10:22:36.697257,-102.0
2023-08-21 10:22:36.704946,-102.0
2023-08-21 10:22:36.712634,-99.0
2023-08-21 10:22:36.720323,-94.0
2023-08-21 10:22:36.728012,-94.0
2023-08-21 10:22:36.735701,-97.0
2023-08-21 10:22:36.743389,-114.0
2023-08-21 10:22:36.751078,-80.0
2023-08-21 10:22:36.758767,191.0
2023-08-21 10:22:36.766456,757.0
2023-08-21 10:22:36.774144,1224.0
2023-08-21 10:22:36.781833,995.0
2023-08-21 10:22:36.789522,155.0
2023-08-21 10:22:36.797211,-352.0
2023-08-21 10:22:36.804899,-189.0
2023-08-21 10:22:36.812588,-85.0
2023-08-21 10:22:36.820277,-216.0
2023-08-21 10:22:36.827965,-201.0
2023-08-21 10:22:36.835654,-138.0
2023-08-21 10:22:36.843343,-165.0
2023-08-21 10:22:36.851032,-167.0
2023-08-21 10:22:36.858720,-131.0
2023-08-21 10:22:36.866409,-126.0
2023-08-21 10:22:36.874098,-126.0
2023-08-21 10:22:36.881787,-109.0
2023-08-21 10:22:36.889475,-97.0
2023-08-21 10:22:36.897164,-94.0
2023-08-21 10:22:36.904853,-87.0
2023-08-21 10:22:36.912541,-80.0
2023-08-21 10:22:36.920230,-80.0
2023-08-21 10:22:36.927919,-70.0
2023-08-21 10:22:36.935608,-53.0
2023-08-21 10:22:36.943296,-41.0
2023-08-21 10:22:36.950985,-34.0
2023-08-21 10:22:36.958674,-19.0
2023-08-21 10:22:36.966363,-7.0
2023-08-21 10:22:36.974051,2.0
2023-08-21 10:22:36.981740,14.0
2023-08-21 10:22:36.989429,21.0
2023-08-21 10:22:36.997118,26.0
2023-08-21 10:22:37.004806,29.0
2023-08-21 10:22:37.012495,31.0
2023-08-21 10:22:37.020184,29.0
2023-08-21 10:22:37.027872,29.0
2023-08-21 10:22:37.035561,29.0
2023-08-21 10:22:37.043250,21.0
2023-08-21 10:22:37.050939,0.0
2023-08-21 10:22:37.058627,-29.0
2023-08-21 10:22:37.066316,-55.0
2023-08-21 10:22:37.074005,-77.0
2023-08-21 10:22:37.081694,-102.0
2023-08-21 10:22:37.089382,-126.0
2023-08-21 10:22:37.097071,-143.0
2023-08-21 10:22:37.104760,-153.0
2023-08-21 10:22:37.112448,-148.0
2023-08-21 10:22:37.120137,-140.0
2023-08-21 10:22:37.127826,-136.0
2023-08-21 10:22:37.135515,-131.0
2023-08-21 10:22:37.143203,-126.0
2023-08-21 10:22:37.150892,-121.0
2023-08-21 10:22:37.158581,-114.0
2023-08-21 10:22:37.166270,-109.0
2023-08-21 10:22:37.173958,-109.0
2023-08-21 10:22:37.181647,-109.0
2023-08-21 10:22:37.189336,-106.0
2023-08-21 10:22:37.197025,-104.0
2023-08-21 10:22:37.204713,-104.0
2023-08-21 10:22:37.212402,-104.0
2023-08-21 10:22:37.220091,-104.0
2023-08-21 10:22:37.227779,-104.0
2023-08-21 10:22:37.235468,-102.0
2023-08-21 10:22:37.243157,-102.0
2023-08-21 10:22:37.250846,-102.0
2023-08-21 10:22:37.258534,-97.0
2023-08-21 10:22:37.266223,-97.0
2023-08-21 10:22:37.273912,-97.0
2023-08-21 10:22:37.281601,-94.0
2023-08-21 10:22:37.289289,-92.0
2023-08-21 10:22:37.296978,-89.0
2023-08-21 10:22:37.304667,-89.0
2023-08-21 10:22:37.312355,-87.0
2023-08-21 10:22:37.320044,-82.0
2023-08-21 10:22:37.327733,-82.0
2023-08-21 10:22:37.335422,-85.0
2023-08-21 10:22:37.343110,-80.0
2023-08-21 10:22:37.350799,-75.0
2023-08-21 10:22:37.358488,-75.0
2023-08-21 10:22:37.366177,-77.0
2023-08-21 10:22:37.373865,-77.0
2023-08-21 10:22:37.381554,-75.0
2023-08-21 10:22:37.389243,-75.0
2023-08-21 10:22:37.396932,-70.0
2023-08-21 10:22:37.404620,-43.0
2023-08-21 10:22:37.412309,-14.0
2023-08-21 10:22:37.419998,-12.0
2023-08-21 10:22:37.427686,-21.0
2023-08-21 10:22:37.435375,-26.0
2023-08-21 10:22:37.443064,-53.0
2023-08-21 10:22:37.450753,-77.0
2023-08-21 10:22:37.458441,-75.0
2023-08-21 10:22:37.466130,-70.0
2023-08-21 10:22:37.473819,-72.0
2023-08-21 10:22:37.481508,-72.0
2023-08-21 10:22:37.489196,-70.0
2023-08-21 10:22:37.496885,-70.0
2023-08-21 10:22:37.504574,-82.0
2023-08-21 10:22:37.512262,-102.0
2023-08-21 10:22:37.519951,-60.0
2023-08-21 10:22:37.527640,223.0
2023-08-21 10:22:37.535329,794.0
2023-08-21 10:22:37.543017,1236.0
2023-08-21 10:22:37.550706,966.0
2023-08-21 10:22:37.558395,119.0
2023-08-21 10:22:37.566084,-349.0
2023-08-21 10:22:37.573772,-174.0
2023-08-21 10:22:37.581461,-89.0
2023-08-21 10:22:37.589150,-223.0
2023-08-21 10:22:37.596839,-206.0
2023-08-21 10:22:37.604527,-143.0
2023-08-21 10:22:37.612216,-165.0
2023-08-21 10:22:37.619905,-165.0
2023-08-21 10:22:37.627593,-133.0
2023-08-21 10:22:37.635282,-133.0
2023-08-21 10:22:37.642971,-136.0
2023-08-21 10:22:37.650660,-119.0
2023-08-21 10:22:37.658348,-111.0
2023-08-21 10:22:37.666037,-109.0
2023-08-21 10:22:37.673726,-97.0
2023-08-21 10:22:37.681415,-94.0
2023-08-21 10:22:37.689103,-99.0
2023-08-21 10:22:37.696792,-85.0
2023-08-21 10:22:37.704481,-68.0
2023-08-21 10:22:37.712169,-60.0
2023-08-21 10:22:37.719858,-48.0
2023-08-21 10:22:37.727547,-36.0
2023-08-21 10:22:37.735236,-26.0
2023-08-21 10:22:37.742924,-17.0
2023-08-21 10:22:37.750613,-4.0
2023-08-21 10:22:37.758302,7.0
2023-08-21 10:22:37.765991,12.0
2023-08-21 10:22:37.773679,14.0
2023-08-21 10:22:37.781368,12.0
2023-08-21 10:22:37.789057,12.0
2023-08-21 10:22:37.796746,14.0
2023-08-21 10:22:37.804434,12.0
2023-08-21 10:22:37.812123,7.0
2023-08-21 10:22:37.819812,-7.0
2023-08-21 10:22:37.827500,-31.0
2023-08-21 10:22:37.835189,-55.0
2023-08-21 10:22:37.842878,-80.0
2023-08-21 10:22:37.850567,-104.0
2023-08-21 10:22:37.858255,-121.0
2023-08-21 10:22:37.865944,-133.0
2023-08-21 10:22:37.873633,-138.0
2023-08-21 10:22:37.881322,-136.0
2023-08-21 10:22:37.889010,-133.0
2023-08-21 10:22:37.896699,-123.0
2023-08-21 10:22:37.904388,-119.0
2023-08-21 10:22:37.912076,-116.0
2023-08-21 10:22:37.919765,-121.0
2023-08-21 10:22:37.927454,-123.0
2023-08-21 10:22:37.935143,-119.0
2023-08-21 10:22:37.942831,-114.0
2023-08-21 10:22:37.950520,-116.0
2023-08-21 10:22:37.958209,-116.0
2023-08-21 10:22:37.965898,-116.0
2023-08-21 10:22:37.973586,-116.0
2023-08-21 10:22:37.981275,-116.0
2023-08-21 10:22:37.988964,-114.0
2023-08-21 10:22:37.996653,-114.0
2023-08-21 10:22:38.004341,-116.0
2023-08-21 10:22:38.012030,-114.0
2023-08-21 10:22:38.019719,-111.0
2023-08-21 10:22:38.027407,-109.0
2023-08-21 10:22:38.035096,-106.0
2023-08-21 10:22:38.042785,-106.0
2023-08-21 10:22:38.050474,-106.0
2023-08-21 10:22:38.058162,-106.0
2023-08-21 10:22:38.065851,-106.0
2023-08-21 10:22:38.073540,-106.0
2023-08-21 10:22:38.081229,-104.0
2023-08-21 10:22:38.088917,-99.0
2023-08-21 10:22:38.096606,-99.0
2023-08-21 10:22:38.104295,-97.0
2023-08-21 10:22:38.111983,-92.0
2023-08-21 10:22:38.119672,-92.0
2023-08-21 10:22:38.127361,-92.0
2023-08-21 10:22:38.135050,-89.0
2023-08-21 10:22:38.142738,-89.0
2023-08-21 10:22:38.150427,-87.0
2023-08-21 10:22:38.158116,-85.0
2023-08-21 10:22:38.165805,-80.0
2023-08-21 10:22:38.173493,-80.0
2023-08-21 10:22:38.181182,-85.0
2023-08-21 10:22:38.188871,-80.0
2023-08-21 10:22:38.196560,-51.0
2023-08-21 10:22:38.204248,-17.0
2023-08-21 10:22:38.211937,-7.0
2023-08-21 10:22:38.219626,-17.0
2023-08-21 10:22:38.227314,-34.0
2023-08-21 10:22:38.235003,-65.0
2023-08-21 10:22:38.242692,-80.0
2023-08-21 10:22:38.250381,-72.0
2023-08-21 10:22:38.258069,-72.0
2023-08-21 10:22:38.265758,-85.0
2023-08-21 10:22:38.273447,-85.0
2023-08-21 10:22:38.281136,-80.0
2023-08-21 10:22:38.288824,-82.0
2023-08-21 10:22:38.296513,-94.0
2023-08-21 10:22:38.304202,-104.0
2023-08-21 10:22:38.311890,-26.0
2023-08-21 10:22:38.319579,325.0
2023-08-21 10:22:38.327268,920.0
2023-08-21 10:22:38.334957,1241.0
2023-08-21 10:22:38.342645,777.0
2023-08-21 10:22:38.350334,-72.0
2023-08-21 10:22:38.358023,-354.0
2023-08-21 10:22:38.365712,-126.0
2023-08-21 10:22:38.373400,-121.0
2023-08-21 10:22:38.381089,-240.0
2023-08-21 10:22:38.388778,-187.0
2023-08-21 10:22:38.396467,-150.0
2023-08-21 10:22:38.404155,-194.0
2023-08-21 10:22:38.411844,-189.0
2023-08-21 10:22:38.419533,-162.0
2023-08-21 10:22:38.427221,-170.0
2023-08-21 10:22:38.434910,-167.0
2023-08-21 10:22:38.442599,-150.0
2023-08-21 10:22:38.450288,-150.0
2023-08-21 10:22:38.457976,-155.0
2023-08-21 10:22:38.465665,-136.0
2023-08-21 10:22:38.473354,-116.0
2023-08-21 10:22:38.481043,-106.0
2023-08-21 10:22:38.488731,-94.0
2023-08-21 10:22:38.496420,-82.0
2023-08-21 10:22:38.504109,-70.0
2023-08-21 10:22:38.511798,-55.0
2023-08-21 10:22:38.519486,-41.0
2023-08-21 10:22:38.527175,-26.0
2023-08-21 10:22:38.534864,-14.0
2023-08-21 10:22:38.542552,-7.0
2023-08-21 10:22:38.550241,2.0
2023-08-21 10:22:38.557930,7.0
2023-08-21 10:22:38.565619,4.0
2023-08-21 10:22:38.573307,0.0
2023-08-21 10:22:38.580996,2.0
2023-08-21 10:22:38.588685,0.0
2023-08-21 10:22:38.596374,-2.0
2023-08-21 10:22:38.604062,-9.0
2023-08-21 10:22:38.611751,-24.0
2023-08-21 10:22:38.619440,-43.0
2023-08-21 10:22:38.627128,-65.0
2023-08-21 10:22:38.634817,-92.0
2023-08-21 10:22:38.642506,-116.0
2023-08-21 10:22:38.650195,-136.0
2023-08-21 10:22:38.657883,-143.0
2023-08-21 10:22:38.665572,-143.0
2023-08-21 10:22:38.673261,-140.0
2023-08-21 10:22:38.680950,-140.0
2023-08-21 10:22:38.688638,-131.0
2023-08-21 10:22:38.696327,-123.0
2023-08-21 10:22:38.704016,-121.0
2023-08-21 10:22:38.711705,-116.0
2023-08-21 10:22:38.719393,-111.0
2023-08-21 10:22:38.727082,-106.0
2023-08-21 10:22:38.734771,-102.0
2023-08-21 10:22:38.742459,-102.0
2023-08-21 10:22:38.750148,-104.0
2023-08-21 10:22:38.757837,-109.0
2023-08-21 10:22:38.765526,-116.0
2023-08-21 10:22:38.773214,-123.0
2023-08-21 10:22:38.780903,-119.0
2023-08-21 10:22:38.788592,-119.0
2023-08-21 10:22:38.796281,-119.0
2023-08-21 10:22:38.803969,-119.0
2023-08-21 10:22:38.811658,-119.0
2023-08-21 10:22:38.819347,-121.0
2023-08-21 10:22:38.827035,-119.0
2023-08-21 10:22:38.834724,-114.0
2023-08-21 10:22:38.842413,-114.0
2023-08-21 10:22:38.850102,-114.0
2023-08-21 10:22:38.857790,-111.0
2023-08-21 10:22:38.865479,-106.0
2023-08-21 10:22:38.873168,-102.0
2023-08-21 10:22:38.880857,-102.0
2023-08-21 10:22:38.888545,-102.0
2023-08-21 10:22:38.896234,-99.0
2023-08-21 10:22:38.903923,-97.0
2023-08-21 10:22:38.911612,-94.0
2023-08-21 10:22:38.919300,-94.0
2023-08-21 10:22:38.926989,-97.0
2023-08-21 10:22:38.934678,-104.0
2023-08-21 10:22:38.942366,-106.0
2023-08-21 10:22:38.950055,-102.0
2023-08-21 10:22:38.957744,-97.0
2023-08-21 10:22:38.965433,-97.0
2023-08-21 10:22:38.973121,-102.0
2023-08-21 10:22:38.980810,-97.0
2023-08-21 10:22:38.988499,-72.0
2023-08-21 10:22:38.996188,-43.0
2023-08-21 10:22:39.003876,-31.0
2023-08-21 10:22:39.011565,-36.0
2023-08-21 10:22:39.019254,-46.0
2023-08-21 10:22:39.026942,-75.0
2023-08-21 10:22:39.034631,-104.0
2023-08-21 10:22:39.042320,-104.0
2023-08-21 10:22:39.050009,-97.0
2023-08-21 10:22:39.057697,-106.0
2023-08-21 10:22:39.065386,-109.0
2023-08-21 10:22:39.073075,-104.0
2023-08-21 10:22:39.080764,-104.0
2023-08-21 10:22:39.088452,-109.0
2023-08-21 10:22:39.096141,-121.0
2023-08-21 10:22:39.103830,-109.0
2023-08-21 10:22:39.111519,99.0
2023-08-21 10:22:39.119207,626.0
2023-08-21 10:22:39.126896,1166.0
2023-08-21 10:22:39.134585,1088.0
2023-08-21 10:22:39.142273,286.0
2023-08-21 10:22:39.149962,-354.0
2023-08-21 10:22:39.157651,-262.0
2023-08-21 10:22:39.165340,-104.0
2023-08-21 10:22:39.173028,-233.0
2023-08-21 10:22:39.180717,-250.0
2023-08-21 10:22:39.188406,-170.0
2023-08-21 10:22:39.196095,-187.0
2023-08-21 10:22:39.203783,-201.0
2023-08-21 10:22:39.211472,-165.0
2023-08-21 10:22:39.219161,-157.0
2023-08-21 10:22:39.226849,-157.0
2023-08-21 10:22:39.234538,-138.0
2023-08-21 10:22:39.242227,-126.0
2023-08-21 10:22:39.249916,-121.0
2023-08-21 10:22:39.257604,-111.0
2023-08-21 10:22:39.265293,-99.0
2023-08-21 10:22:39.272982,-87.0
2023-08-21 10:22:39.280671,-75.0
2023-08-21 10:22:39.288359,-63.0
2023-08-21 10:22:39.296048,-55.0
2023-08-21 10:22:39.303737,-48.0
2023-08-21 10:22:39.311426,-38.0
2023-08-21 10:22:39.319114,-21.0
2023-08-21 10:22:39.326803,-7.0
2023-08-21 10:22:39.334492,2.0
2023-08-21 10:22:39.342180,9.0
2023-08-21 10:22:39.349869,14.0
2023-08-21 10:22:39.357558,19.0
2023-08-21 10:22:39.365247,21.0
2023-08-21 10:22:39.372935,21.0
2023-08-21 10:22:39.380624,21.0
2023-08-21 10:22:39.388313,12.0
2023-08-21 10:22:39.396002,-7.0
2023-08-21 10:22:39.403690,-21.0
2023-08-21 10:22:39.411379,-34.0
2023-08-21 10:22:39.419068,-58.0
2023-08-21 10:22:39.426756,-85.0
2023-08-21 10:22:39.434445,-111.0
2023-08-21 10:22:39.442134,-136.0
2023-08-21 10:22:39.449823,-155.0
2023-08-21 10:22:39.457511,-157.0
2023-08-21 10:22:39.465200,-155.0
2023-08-21 10:22:39.472889,-153.0
2023-08-21 10:22:39.480578,-148.0
2023-08-21 10:22:39.488266,-143.0
2023-08-21 10:22:39.495955,-136.0
2023-08-21 10:22:39.503644,-128.0
2023-08-21 10:22:39.511333,-121.0
2023-08-21 10:22:39.519021,-116.0
2023-08-21 10:22:39.526710,-116.0
2023-08-21 10:22:39.534399,-116.0
2023-08-21 10:22:39.542087,-114.0
2023-08-21 10:22:39.549776,-114.0
2023-08-21 10:22:39.557465,-114.0
2023-08-21 10:22:39.565154,-114.0
2023-08-21 10:22:39.572842,-116.0
2023-08-21 10:22:39.580531,-119.0
2023-08-21 10:22:39.588220,-116.0
2023-08-21 10:22:39.595909,-114.0
2023-08-21 10:22:39.603597,-114.0
2023-08-21 10:22:39.611286,-111.0
2023-08-21 10:22:39.618975,-111.0
2023-08-21 10:22:39.626663,-114.0
2023-08-21 10:22:39.634352,-109.0
2023-08-21 10:22:39.642041,-104.0
2023-08-21 10:22:39.649730,-102.0
2023-08-21 10:22:39.657418,-99.0
2023-08-21 10:22:39.665107,-99.0
2023-08-21 10:22:39.672796,-102.0
2023-08-21 10:22:39.680485,-97.0
2023-08-21 10:22:39.688173,-92.0
2023-08-21 10:22:39.695862,-89.0
2023-08-21 10:22:39.703551,-89.0
2023-08-21 10:22:39.711240,-92.0
2023-08-21 10:22:39.718928,-94.0
2023-08-21 10:22:39.726617,-94.0
2023-08-21 10:22:39.734306,-92.0
2023-08-21 10:22:39.741994,-89.0
2023-08-21 10:22:39.749683,-89.0
2023-08-21 10:22:39.757372,-94.0
2023-08-21 10:22:39.765061,-97.0
2023-08-21 10:22:39.772749,-80.0
2023-08-21 10:22:39.780438,-46.0
2023-08-21 10:22:39.788127,-26.0
2023-08-21 10:22:39.795816,-36.0
2023-08-21 10:22:39.803504,-46.0
2023-08-21 10:22:39.811193,-58.0
2023-08-21 10:22:39.818882,-85.0
2023-08-21 10:22:39.826570,-94.0
2023-08-21 10:22:39.834259,-87.0
2023-08-21 10:22:39.841948,-97.0
2023-08-21 10:22:39.849637,-106.0
2023-08-21 10:22:39.857325,-97.0
2023-08-21 10:22:39.865014,-99.0
2023-08-21 10:22:39.872703,-111.0
2023-08-21 10:22:39.880392,-123.0
2023-08-21 10:22:39.888080,-138.0
2023-08-21 10:22:39.895769,-26.0
2023-08-21 10:22:39.903458,408.0
2023-08-21 10:22:39.911147,1012.0
2023-08-21 10:22:39.918835,1195.0
2023-08-21 10:22:39.926524,583.0
2023-08-21 10:22:39.934213,-218.0
2023-08-21 10:22:39.941901,-354.0
2023-08-21 10:22:39.949590,-136.0
2023-08-21 10:22:39.957279,-189.0
2023-08-21 10:22:39.964968,-272.0
2023-08-21 10:22:39.972656,-206.0
2023-08-21 10:22:39.980345,-201.0
2023-08-21 10:22:39.988034,-230.0
2023-08-21 10:22:39.995723,-199.0
2023-08-21 10:22:40.003411,-174.0
2023-08-21 10:22:40.011100,-174.0
2023-08-21 10:22:40.018789,-162.0
2023-08-21 10:22:40.026477,-145.0
2023-08-21 10:22:40.034166,-143.0
2023-08-21 10:22:40.041855,-140.0
2023-08-21 10:22:40.049544,-126.0
2023-08-21 10:22:40.057232,-111.0
2023-08-21 10:22:40.064921,-99.0
2023-08-21 10:22:40.072610,-87.0
2023-08-21 10:22:40.080299,-77.0
2023-08-21 10:22:40.087987,-65.0
2023-08-21 10:22:40.095676,-51.0
2023-08-21 10:22:40.103365,-36.0
2023-08-21 10:22:40.111054,-26.0
2023-08-21 10:22:40.118742,-14.0
2023-08-21 10:22:40.126431,-4.0
2023-08-21 10:22:40.134120,7.0
2023-08-21 10:22:40.141808,14.0
2023-08-21 10:22:40.149497,19.0
2023-08-21 10:22:40.157186,21.0
2023-08-21 10:22:40.164875,19.0
2023-08-21 10:22:40.172563,17.0
2023-08-21 10:22:40.180252,14.0
2023-08-21 10:22:40.187941,4.0
2023-08-21 10:22:40.195630,-12.0
2023-08-21 10:22:40.203318,-36.0
2023-08-21 10:22:40.211007,-65.0
2023-08-21 10:22:40.218696,-94.0
2023-08-21 10:22:40.226384,-116.0
2023-08-21 10:22:40.234073,-133.0
2023-08-21 10:22:40.241762,-140.0
2023-08-21 10:22:40.249451,-140.0
2023-08-21 10:22:40.257139,-138.0
2023-08-21 10:22:40.264828,-133.0
2023-08-21 10:22:40.272517,-128.0
2023-08-21 10:22:40.280206,-123.0
2023-08-21 10:22:40.287894,-126.0
2023-08-21 10:22:40.295583,-126.0
2023-08-21 10:22:40.303272,-119.0
2023-08-21 10:22:40.310961,-114.0
2023-08-21 10:22:40.318649,-116.0
2023-08-21 10:22:40.326338,-114.0
2023-08-21 10:22:40.334027,-111.0
2023-08-21 10:22:40.341715,-116.0
2023-08-21 10:22:40.349404,-116.0
2023-08-21 10:22:40.357093,-116.0
2023-08-21 10:22:40.364782,-116.0
2023-08-21 10:22:40.372470,-114.0
2023-08-21 10:22:40.380159,-116.0
2023-08-21 10:22:40.387848,-116.0
2023-08-21 10:22:40.395537,-114.0
2023-08-21 10:22:40.403225,-114.0
2023-08-21 10:22:40.410914,-119.0
2023-08-21 10:22:40.418603,-111.0
2023-08-21 10:22:40.426291,-114.0
2023-08-21 10:22:40.433980,-128.0
2023-08-21 10:22:40.441669,-128.0
2023-08-21 10:22:40.449358,-123.0
2023-08-21 10:22:40.457046,-131.0
2023-08-21 10:22:40.464735,-133.0
2023-08-21 10:22:40.472424,-128.0
2023-08-21 10:22:40.480113,-128.0
2023-08-21 10:22:40.487801,-128.0
2023-08-21 10:22:40.495490,-126.0
2023-08-21 10:22:40.503179,-126.0
2023-08-21 10:22:40.510868,-119.0
2023-08-21 10:22:40.518556,-114.0
2023-08-21 10:22:40.526245,-121.0
2023-08-21 10:22:40.533934,-123.0
2023-08-21 10:22:40.541622,-119.0
2023-08-21 10:22:40.549311,-116.0
2023-08-21 10:22:40.557000,-121.0
2023-08-21 10:22:40.564689,-109.0
2023-08-21 10:22:40.572377,-77.0
2023-08-21 10:22:40.580066,-51.0
2023-08-21 10:22:40.587755,-51.0
2023-08-21 10:22:40.595444,-63.0
2023-08-21 10:22:40.603132,-87.0
2023-08-21 10:22:40.610821,-119.0
2023-08-21 10:22:40.618510,-131.0
2023-08-21 10:22:40.626198,-123.0
2023-08-21 10:22:40.633887,-123.0
2023-08-21 10:22:40.641576,-126.0
2023-08-21 10:22:40.649265,-121.0
2023-08-21 10:22:40.656953,-121.0
2023-08-21 10:22:40.664642,-131.0
2023-08-21 10:22:40.672331,-143.0
2023-08-21 10:22:40.680020,-131.0
2023-08-21 10:22:40.687708,46.0
2023-08-21 10:22:40.695397,531.0
2023-08-21 10:22:40.703086,1095.0
2023-08-21 10:22:40.710775,1127.0
2023-08-21 10:22:40.718463,395.0
2023-08-21 10:22:40.726152,-313.0
2023-08-21 10:22:40.733841,-296.0
2023-08-21 10:22:40.741529,-99.0
2023-08-21 10:22:40.749218,-201.0
2023-08-21 10:22:40.756907,-252.0
2023-08-21 10:22:40.764596,-172.0
2023-08-21 10:22:40.772284,-177.0
2023-08-21 10:22:40.779973,-204.0
2023-08-21 10:22:40.787662,-177.0
2023-08-21 10:22:40.795351,-148.0
2023-08-21 10:22:40.803039,-143.0
2023-08-21 10:22:40.810728,-138.0
2023-08-21 10:22:40.818417,-126.0
2023-08-21 10:22:40.826105,-111.0
2023-08-21 10:22:40.833794,-106.0
2023-08-21 10:22:40.841483,-97.0
2023-08-21 10:22:40.849172,-80.0
2023-08-21 10:22:40.856860,-60.0
2023-08-21 10:22:40.864549,-48.0
2023-08-21 10:22:40.872238,-43.0
2023-08-21 10:22:40.879927,-31.0
2023-08-21 10:22:40.887615,-14.0
2023-08-21 10:22:40.895304,-4.0
2023-08-21 10:22:40.902993,7.0
2023-08-21 10:22:40.910682,21.0
2023-08-21 10:22:40.918370,31.0
2023-08-21 10:22:40.926059,36.0
2023-08-21 10:22:40.933748,38.0
2023-08-21 10:22:40.941436,38.0
2023-08-21 10:22:40.949125,38.0
2023-08-21 10:22:40.956814,31.0
2023-08-21 10:22:40.964503,17.0
2023-08-21 10:22:40.972191,14.0
2023-08-21 10:22:40.979880,9.0
2023-08-21 10:22:40.987569,-7.0
2023-08-21 10:22:40.995258,-29.0
2023-08-21 10:22:41.002946,-60.0
2023-08-21 10:22:41.010635,-102.0
2023-08-21 10:22:41.018324,-136.0
2023-08-21 10:22:41.026012,-148.0
2023-08-21 10:22:41.033701,-155.0
2023-08-21 10:22:41.041390,-155.0
2023-08-21 10:22:41.049079,-150.0
2023-08-21 10:22:41.056767,-155.0
2023-08-21 10:22:41.064456,-165.0
2023-08-21 10:22:41.072145,-155.0
2023-08-21 10:22:41.079834,-138.0
2023-08-21 10:22:41.087522,-133.0
2023-08-21 10:22:41.095211,-131.0
2023-08-21 10:22:41.102900,-140.0
2023-08-21 10:22:41.110589,-150.0
2023-08-21 10:22:41.118277,-140.0
2023-08-21 10:22:41.125966,-128.0
2023-08-21 10:22:41.133655,-133.0
2023-08-21 10:22:41.141343,-140.0
2023-08-21 10:22:41.149032,-138.0
2023-08-21 10:22:41.156721,-138.0
2023-08-21 10:22:41.164410,-138.0
2023-08-21 10:22:41.172098,-131.0
2023-08-21 10:22:41.179787,-123.0
2023-08-21 10:22:41.187476,-123.0
2023-08-21 10:22:41.195165,-123.0
2023-08-21 10:22:41.202853,-121.0
2023-08-21 10:22:41.210542,-121.0
2023-08-21 10:22:41.218231,-116.0
2023-08-21 10:22:41.225919,-111.0
2023-08-21 10:22:41.233608,-119.0
2023-08-21 10:22:41.241297,-128.0
2023-08-21 10:22:41.248986,-119.0
2023-08-21 10:22:41.256674,-106.0
2023-08-21 10:22:41.264363,-106.0
2023-08-21 10:22:41.272052,-114.0
2023-08-21 10:22:41.279741,-114.0
2023-08-21 10:22:41.287429,-111.0
2023-08-21 10:22:41.295118,-109.0
2023-08-21 10:22:41.302807,-109.0
2023-08-21 10:22:41.310496,-106.0
2023-08-21 10:22:41.318184,-104.0
2023-08-21 10:22:41.325873,-94.0
2023-08-21 10:22:41.333562,-70.0
2023-08-21 10:22:41.341250,-46.0
2023-08-21 10:22:41.348939,-38.0
2023-08-21 10:22:41.356628,-41.0
2023-08-21 10:22:41.364317,-58.0
2023-08-21 10:22:41.372005,-92.0
2023-08-21 10:22:41.379694,-109.0
2023-08-21 10:22:41.387383,-104.0
2023-08-21 10:22:41.395072,-102.0
2023-08-21 10:22:41.402760,-99.0
2023-08-21 10:22:41.410449,-97.0
2023-08-21 10:22:41.418138,-106.0
2023-08-21 10:22:41.425827,-116.0
2023-08-21 10:22:41.433515,-119.0
2023-08-21 10:22:41.441204,-109.0
2023-08-21 10:22:41.448893,55.0
2023-08-21 10:22:41.456581,551.0
2023-08-21 10:22:41.464270,1141.0
2023-08-21 10:22:41.471959,1195.0
2023-08-21 10:22:41.479648,454.0
2023-08-21 10:22:41.487336,-308.0
2023-08-21 10:22:41.495025,-320.0
2023-08-21 10:22:41.502714,-106.0
2023-08-21 10:22:41.510403,-208.0
2023-08-21 10:22:41.518091,-269.0
2023-08-21 10:22:41.525780,-184.0
2023-08-21 10:22:41.533469,-177.0
2023-08-21 10:22:41.541157,-201.0
2023-08-21 10:22:41.548846,-174.0
2023-08-21 10:22:41.556535,-157.0
2023-08-21 10:22:41.564224,-157.0
2023-08-21 10:22:41.571912,-145.0
2023-08-21 10:22:41.579601,-128.0
2023-08-21 10:22:41.587290,-119.0
2023-08-21 10:22:41.594979,-119.0
2023-08-21 10:22:41.602667,-119.0
2023-08-21 10:22:41.610356,-109.0
2023-08-21 10:22:41.618045,-92.0
2023-08-21 10:22:41.625734,-82.0
2023-08-21 10:22:41.633422,-70.0
2023-08-21 10:22:41.641111,-55.0
2023-08-21 10:22:41.648800,-46.0
2023-08-21 10:22:41.656488,-34.0
2023-08-21 10:22:41.664177,-19.0
2023-08-21 10:22:41.671866,-4.0
2023-08-21 10:22:41.679555,4.0
2023-08-21 10:22:41.687243,12.0
2023-08-21 10:22:41.694932,14.0
2023-08-21 10:22:41.702621,14.0
2023-08-21 10:22:41.710310,14.0
2023-08-21 10:22:41.717998,14.0
2023-08-21 10:22:41.725687,12.0
2023-08-21 10:22:41.733376,4.0
2023-08-21 10:22:41.741064,-7.0
2023-08-21 10:22:41.748753,-24.0
2023-08-21 10:22:41.756442,-51.0
2023-08-21 10:22:41.764131,-82.0
2023-08-21 10:22:41.771819,-109.0
2023-08-21 10:22:41.779508,-131.0
2023-08-21 10:22:41.787197,-145.0
2023-08-21 10:22:41.794886,-153.0
2023-08-21 10:22:41.802574,-150.0
2023-08-21 10:22:41.810263,-148.0
2023-08-21 10:22:41.817952,-145.0
2023-08-21 10:22:41.825641,-138.0
2023-08-21 10:22:41.833329,-131.0
2023-08-21 10:22:41.841018,-128.0
2023-08-21 10:22:41.848707,-123.0
2023-08-21 10:22:41.856395,-116.0
2023-08-21 10:22:41.864084,-114.0
2023-08-21 10:22:41.871773,-111.0
2023-08-21 10:22:41.879462,-109.0
2023-08-21 10:22:41.887150,-109.0
2023-08-21 10:22:41.894839,-106.0
2023-08-21 10:22:41.902528,-109.0
2023-08-21 10:22:41.910217,-111.0
2023-08-21 10:22:41.917905,-111.0
2023-08-21 10:22:41.925594,-111.0
2023-08-21 10:22:41.933283,-114.0
2023-08-21 10:22:41.940971,-111.0
2023-08-21 10:22:41.948660,-109.0
2023-08-21 10:22:41.956349,-109.0
2023-08-21 10:22:41.964038,-111.0
2023-08-21 10:22:41.971726,-116.0
2023-08-21 10:22:41.979415,-116.0
2023-08-21 10:22:41.987104,-111.0
2023-08-21 10:22:41.994793,-109.0
2023-08-21 10:22:42.002481,-109.0
2023-08-21 10:22:42.010170,-111.0
2023-08-21 10:22:42.017859,-111.0
2023-08-21 10:22:42.025548,-114.0
2023-08-21 10:22:42.033236,-114.0
2023-08-21 10:22:42.040925,-109.0
2023-08-21 10:22:42.048614,-109.0
2023-08-21 10:22:42.056302,-109.0
2023-08-21 10:22:42.063991,-109.0
2023-08-21 10:22:42.071680,-109.0
2023-08-21 10:22:42.079369,-104.0
2023-08-21 10:22:42.087057,-85.0
2023-08-21 10:22:42.094746,-53.0
2023-08-21 10:22:42.102435,-41.0
2023-08-21 10:22:42.110124,-43.0
2023-08-21 10:22:42.117812,-53.0
2023-08-21 10:22:42.125501,-77.0
2023-08-21 10:22:42.133190,-104.0
2023-08-21 10:22:42.140878,-116.0
2023-08-21 10:22:42.148567,-116.0
2023-08-21 10:22:42.156256,-119.0
2023-08-21 10:22:42.163945,-121.0
2023-08-21 10:22:42.171633,-121.0
2023-08-21 10:22:42.179322,-123.0
2023-08-21 10:22:42.187011,-136.0
2023-08-21 10:22:42.194700,-148.0
2023-08-21 10:22:42.202388,-92.0
2023-08-21 10:22:42.210077,223.0
2023-08-21 10:22:42.217766,813.0
2023-08-21 10:22:42.225455,1217.0
2023-08-21 10:22:42.233143,864.0
2023-08-21 10:22:42.240832,2.0
2023-08-21 10:22:42.248521,-400.0
2023-08-21 10:22:42.256209,-196.0
2023-08-21 10:22:42.263898,-140.0
2023-08-21 10:22:42.271587,-267.0
2023-08-21 10:22:42.279276,-230.0
2023-08-21 10:22:42.286964,-174.0
2023-08-21 10:22:42.294653,-206.0
2023-08-21 10:22:42.302342,-199.0
2023-08-21 10:22:42.310031,-165.0
2023-08-21 10:22:42.317719,-162.0
2023-08-21 10:22:42.325408,-160.0
2023-08-21 10:22:42.333097,-140.0
2023-08-21 10:22:42.340785,-128.0
2023-08-21 10:22:42.348474,-123.0
2023-08-21 10:22:42.356163,-111.0
2023-08-21 10:22:42.363852,-97.0
2023-08-21 10:22:42.371540,-87.0
2023-08-21 10:22:42.379229,-75.0
2023-08-21 10:22:42.386918,-60.0
2023-08-21 10:22:42.394607,-51.0
2023-08-21 10:22:42.402295,-38.0
2023-08-21 10:22:42.409984,-26.0
2023-08-21 10:22:42.417673,-14.0
2023-08-21 10:22:42.425362,0.0
2023-08-21 10:22:42.433050,12.0
2023-08-21 10:22:42.440739,19.0
2023-08-21 10:22:42.448428,26.0
2023-08-21 10:22:42.456116,29.0
2023-08-21 10:22:42.463805,31.0
2023-08-21 10:22:42.471494,26.0
2023-08-21 10:22:42.479183,17.0
2023-08-21 10:22:42.486871,14.0
2023-08-21 10:22:42.494560,12.0
2023-08-21 10:22:42.502249,-4.0
2023-08-21 10:22:42.509938,-34.0
2023-08-21 10:22:42.517626,-58.0
2023-08-21 10:22:42.525315,-89.0
2023-08-21 10:22:42.533004,-114.0
2023-08-21 10:22:42.540692,-131.0
2023-08-21 10:22:42.548381,-143.0
2023-08-21 10:22:42.556070,-148.0
2023-08-21 10:22:42.563759,-143.0
2023-08-21 10:22:42.571447,-140.0
2023-08-21 10:22:42.579136,-136.0
2023-08-21 10:22:42.586825,-133.0
2023-08-21 10:22:42.594514,-128.0
2023-08-21 10:22:42.602202,-121.0
2023-08-21 10:22:42.609891,-119.0
2023-08-21 10:22:42.617580,-116.0
2023-08-21 10:22:42.625269,-119.0
2023-08-21 10:22:42.632957,-119.0
2023-08-21 10:22:42.640646,-116.0
2023-08-21 10:22:42.648335,-114.0
2023-08-21 10:22:42.656023,-111.0
2023-08-21 10:22:42.663712,-114.0
2023-08-21 10:22:42.671401,-119.0
2023-08-21 10:22:42.679090,-128.0
2023-08-21 10:22:42.686778,-133.0
2023-08-21 10:22:42.694467,-131.0
2023-08-21 10:22:42.702156,-131.0
2023-08-21 10:22:42.709845,-126.0
2023-08-21 10:22:42.717533,-123.0
2023-08-21 10:22:42.725222,-126.0
2023-08-21 10:22:42.732911,-123.0
2023-08-21 10:22:42.740599,-119.0
2023-08-21 10:22:42.748288,-116.0
2023-08-21 10:22:42.755977,-119.0
2023-08-21 10:22:42.763666,-116.0
2023-08-21 10:22:42.771354,-116.0
2023-08-21 10:22:42.779043,-114.0
2023-08-21 10:22:42.786732,-111.0
2023-08-21 10:22:42.794421,-106.0
2023-08-21 10:22:42.802109,-106.0
2023-08-21 10:22:42.809798,-109.0
2023-08-21 10:22:42.817487,-109.0
2023-08-21 10:22:42.825176,-106.0
2023-08-21 10:22:42.832864,-104.0
2023-08-21 10:22:42.840553,-104.0
2023-08-21 10:22:42.848242,-109.0
2023-08-21 10:22:42.855930,-114.0
2023-08-21 10:22:42.863619,-104.0
2023-08-21 10:22:42.871308,-72.0
2023-08-21 10:22:42.878997,-48.0
2023-08-21 10:22:42.886685,-41.0
2023-08-21 10:22:42.894374,-38.0
2023-08-21 10:22:42.902063,-58.0
2023-08-21 10:22:42.909752,-94.0
2023-08-21 10:22:42.917440,-102.0
2023-08-21 10:22:42.925129,-89.0
2023-08-21 10:22:42.932818,-87.0
2023-08-21 10:22:42.940506,-97.0
2023-08-21 10:22:42.948195,-102.0
2023-08-21 10:22:42.955884,-104.0
2023-08-21 10:22:42.963573,-104.0
2023-08-21 10:22:42.971261,-123.0
2023-08-21 10:22:42.978950,-138.0
2023-08-21 10:22:42.986639,-2.0
2023-08-21 10:22:42.994328,444.0
2023-08-21 10:22:43.002016,1025.0
2023-08-21 10:22:43.009705,1163.0
2023-08-21 10:22:43.017394,527.0
2023-08-21 10:22:43.025083,-250.0
2023-08-21 10:22:43.032771,-344.0
2023-08-21 10:22:43.040460,-126.0
2023-08-21 10:22:43.048149,-194.0
2023-08-21 10:22:43.055837,-274.0
2023-08-21 10:22:43.063526,-194.0
2023-08-21 10:22:43.071215,-179.0
2023-08-21 10:22:43.078904,-208.0
2023-08-21 10:22:43.086592,-184.0
2023-08-21 10:22:43.094281,-162.0
2023-08-21 10:22:43.101970,-162.0
2023-08-21 10:22:43.109659,-153.0
2023-08-21 10:22:43.117347,-136.0
2023-08-21 10:22:43.125036,-126.0
2023-08-21 10:22:43.132725,-123.0
2023-08-21 10:22:43.140413,-114.0
2023-08-21 10:22:43.148102,-99.0
2023-08-21 10:22:43.155791,-85.0
2023-08-21 10:22:43.163480,-75.0
2023-08-21 10:22:43.171168,-65.0
2023-08-21 10:22:43.178857,-55.0
2023-08-21 10:22:43.186546,-43.0
2023-08-21 10:22:43.194235,-29.0
2023-08-21 10:22:43.201923,-14.0
2023-08-21 10:22:43.209612,-4.0
2023-08-21 10:22:43.217301,4.0
2023-08-21 10:22:43.224990,12.0
2023-08-21 10:22:43.232678,17.0
2023-08-21 10:22:43.240367,14.0
2023-08-21 10:22:43.248056,14.0
2023-08-21 10:22:43.255744,14.0
2023-08-21 10:22:43.263433,4.0
2023-08-21 10:22:43.271122,-12.0
2023-08-21 10:22:43.278811,-17.0
2023-08-21 10:22:43.286499,-29.0
2023-08-21 10:22:43.294188,-53.0
2023-08-21 10:22:43.301877,-82.0
2023-08-21 10:22:43.309566,-111.0
2023-08-21 10:22:43.317254,-136.0
2023-08-21 10:22:43.324943,-150.0
2023-08-21 10:22:43.332632,-157.0
2023-08-21 10:22:43.340320,-157.0
2023-08-21 10:22:43.348009,-157.0
2023-08-21 10:22:43.355698,-153.0
2023-08-21 10:22:43.363387,-148.0
2023-08-21 10:22:43.371075,-140.0
2023-08-21 10:22:43.378764,-136.0
2023-08-21 10:22:43.386453,-131.0
2023-08-21 10:22:43.394142,-128.0
2023-08-21 10:22:43.401830,-128.0
2023-08-21 10:22:43.409519,-126.0
2023-08-21 10:22:43.417208,-126.0
2023-08-21 10:22:43.424897,-126.0
2023-08-21 10:22:43.432585,-126.0
2023-08-21 10:22:43.440274,-126.0
2023-08-21 10:22:43.447963,-128.0
2023-08-21 10:22:43.455651,-128.0
2023-08-21 10:22:43.463340,-123.0
2023-08-21 10:22:43.471029,-121.0
2023-08-21 10:22:43.478718,-126.0
2023-08-21 10:22:43.486406,-136.0
2023-08-21 10:22:43.494095,-138.0
2023-08-21 10:22:43.501784,-131.0
2023-08-21 10:22:43.509473,-128.0
2023-08-21 10:22:43.517161,-126.0
2023-08-21 10:22:43.524850,-121.0
2023-08-21 10:22:43.532539,-119.0
2023-08-21 10:22:43.540227,-121.0
2023-08-21 10:22:43.547916,-119.0
2023-08-21 10:22:43.555605,-111.0
2023-08-21 10:22:43.563294,-109.0
2023-08-21 10:22:43.570982,-106.0
2023-08-21 10:22:43.578671,-104.0
2023-08-21 10:22:43.586360,-102.0
2023-08-21 10:22:43.594049,-102.0
2023-08-21 10:22:43.601737,-99.0
2023-08-21 10:22:43.609426,-102.0
2023-08-21 10:22:43.617115,-106.0
2023-08-21 10:22:43.624804,-104.0
2023-08-21 10:22:43.632492,-85.0
2023-08-21 10:22:43.640181,-55.0
2023-08-21 10:22:43.647870,-41.0
2023-08-21 10:22:43.655558,-41.0
2023-08-21 10:22:43.663247,-53.0
2023-08-21 10:22:43.670936,-80.0
2023-08-21 10:22:43.678625,-99.0
2023-08-21 10:22:43.686313,-99.0
2023-08-21 10:22:43.694002,-92.0
2023-08-21 10:22:43.701691,-89.0
2023-08-21 10:22:43.709380,-89.0
2023-08-21 10:22:43.717068,-89.0
2023-08-21 10:22:43.724757,-92.0
2023-08-21 10:22:43.732446,-106.0
2023-08-21 10:22:43.740134,-116.0
2023-08-21 10:22:43.747823,-14.0
2023-08-21 10:22:43.755512,371.0
2023-08-21 10:22:43.763201,976.0
2023-08-21 10:22:43.770889,1258.0
2023-08-21 10:22:43.778578,728.0
2023-08-21 10:22:43.786267,-138.0
2023-08-21 10:22:43.793956,-378.0
2023-08-21 10:22:43.801644,-148.0
2023-08-21 10:22:43.809333,-174.0
2023-08-21 10:22:43.817022,-284.0
2023-08-21 10:22:43.824711,-213.0
2023-08-21 10:22:43.832399,-182.0
2023-08-21 10:22:43.840088,-211.0
2023-08-21 10:22:43.847777,-184.0
2023-08-21 10:22:43.855465,-160.0
2023-08-21 10:22:43.863154,-162.0
2023-08-21 10:22:43.870843,-153.0
2023-08-21 10:22:43.878532,-133.0
2023-08-21 10:22:43.886220,-121.0
2023-08-21 10:22:43.893909,-114.0
2023-08-21 10:22:43.901598,-99.0
2023-08-21 10:22:43.909287,-87.0
2023-08-21 10:22:43.916975,-77.0
2023-08-21 10:22:43.924664,-63.0
2023-08-21 10:22:43.932353,-48.0
2023-08-21 10:22:43.940041,-38.0
2023-08-21 10:22:43.947730,-26.0
2023-08-21 10:22:43.955419,-9.0
2023-08-21 10:22:43.963108,4.0
2023-08-21 10:22:43.970796,14.0
2023-08-21 10:22:43.978485,24.0
2023-08-21 10:22:43.986174,26.0
2023-08-21 10:22:43.993863,24.0
2023-08-21 10:22:44.001551,24.0
2023-08-21 10:22:44.009240,29.0
2023-08-21 10:22:44.016929,21.0
2023-08-21 10:22:44.024618,17.0
2023-08-21 10:22:44.032306,14.0
2023-08-21 10:22:44.039995,7.0
2023-08-21 10:22:44.047684,-12.0
2023-08-21 10:22:44.055372,-38.0
2023-08-21 10:22:44.063061,-63.0
2023-08-21 10:22:44.070750,-92.0
2023-08-21 10:22:44.078439,-119.0
2023-08-21 10:22:44.086127,-136.0
2023-08-21 10:22:44.093816,-145.0
2023-08-21 10:22:44.101505,-150.0
2023-08-21 10:22:44.109194,-148.0
2023-08-21 10:22:44.116882,-140.0
2023-08-21 10:22:44.124571,-133.0
2023-08-21 10:22:44.132260,-126.0
2023-08-21 10:22:44.139949,-119.0
2023-08-21 10:22:44.147637,-116.0
2023-08-21 10:22:44.155326,-109.0
2023-08-21 10:22:44.163015,-106.0
2023-08-21 10:22:44.170703,-106.0
2023-08-21 10:22:44.178392,-102.0
2023-08-21 10:22:44.186081,-97.0
2023-08-21 10:22:44.193770,-99.0
2023-08-21 10:22:44.201458,-102.0
2023-08-21 10:22:44.209147,-102.0
2023-08-21 10:22:44.216836,-104.0
2023-08-21 10:22:44.224525,-106.0
2023-08-21 10:22:44.232213,-111.0
2023-08-21 10:22:44.239902,-111.0
2023-08-21 10:22:44.247591,-109.0
2023-08-21 10:22:44.255279,-111.0
2023-08-21 10:22:44.262968,-109.0
2023-08-21 10:22:44.270657,-106.0
2023-08-21 10:22:44.278346,-104.0
2023-08-21 10:22:44.286034,-104.0
2023-08-21 10:22:44.293723,-102.0
2023-08-21 10:22:44.301412,-99.0
2023-08-21 10:22:44.309101,-97.0
2023-08-21 10:22:44.316789,-94.0
2023-08-21 10:22:44.324478,-94.0
2023-08-21 10:22:44.332167,-94.0
2023-08-21 10:22:44.339856,-92.0
2023-08-21 10:22:44.347544,-92.0
2023-08-21 10:22:44.355233,-97.0
2023-08-21 10:22:44.362922,-97.0
2023-08-21 10:22:44.370610,-77.0
2023-08-21 10:22:44.378299,-51.0
2023-08-21 10:22:44.385988,-43.0
2023-08-21 10:22:44.393677,-51.0
2023-08-21 10:22:44.401365,-55.0
2023-08-21 10:22:44.409054,-77.0
2023-08-21 10:22:44.416743,-109.0
2023-08-21 10:22:44.424432,-114.0
2023-08-21 10:22:44.432120,-106.0
2023-08-21 10:22:44.439809,-111.0
2023-08-21 10:22:44.447498,-111.0
2023-08-21 10:22:44.455186,-106.0
2023-08-21 10:22:44.462875,-106.0
2023-08-21 10:22:44.470564,-119.0
2023-08-21 10:22:44.478253,-138.0
2023-08-21 10:22:44.485941,-111.0
2023-08-21 10:22:44.493630,128.0
2023-08-21 10:22:44.501319,680.0
2023-08-21 10:22:44.509008,1190.0
2023-08-21 10:22:44.516696,1037.0
2023-08-21 10:22:44.524385,189.0
2023-08-21 10:22:44.532074,-400.0
2023-08-21 10:22:44.539763,-259.0
2023-08-21 10:22:44.547451,-123.0
2023-08-21 10:22:44.555140,-262.0
2023-08-21 10:22:44.562829,-264.0
2023-08-21 10:22:44.570517,-189.0
2023-08-21 10:22:44.578206,-213.0
2023-08-21 10:22:44.585895,-218.0
2023-08-21 10:22:44.593584,-179.0
2023-08-21 10:22:44.601272,-172.0
2023-08-21 10:22:44.608961,-177.0
2023-08-21 10:22:44.616650,-160.0
2023-08-21 10:22:44.624339,-145.0
2023-08-21 10:22:44.632027,-136.0
2023-08-21 10:22:44.639716,-123.0
2023-08-21 10:22:44.647405,-111.0
2023-08-21 10:22:44.655093,-104.0
2023-08-21 10:22:44.662782,-94.0
2023-08-21 10:22:44.670471,-77.0
2023-08-21 10:22:44.678160,-63.0
2023-08-21 10:22:44.685848,-55.0
2023-08-21 10:22:44.693537,-41.0
2023-08-21 10:22:44.701226,-24.0
2023-08-21 10:22:44.708915,-19.0
2023-08-21 10:22:44.716603,-9.0
2023-08-21 10:22:44.724292,4.0
2023-08-21 10:22:44.731981,14.0
2023-08-21 10:22:44.739670,12.0
2023-08-21 10:22:44.747358,12.0
2023-08-21 10:22:44.755047,9.0
2023-08-21 10:22:44.762736,7.0
2023-08-21 10:22:44.770424,9.0
2023-08-21 10:22:44.778113,9.0
2023-08-21 10:22:44.785802,-4.0
2023-08-21 10:22:44.793491,-34.0
2023-08-21 10:22:44.801179,-63.0
2023-08-21 10:22:44.808868,-87.0
2023-08-21 10:22:44.816557,-109.0
2023-08-21 10:22:44.824246,-131.0
2023-08-21 10:22:44.831934,-145.0
2023-08-21 10:22:44.839623,-153.0
2023-08-21 10:22:44.847312,-150.0
2023-08-21 10:22:44.855000,-145.0
2023-08-21 10:22:44.862689,-140.0
2023-08-21 10:22:44.870378,-131.0
2023-08-21 10:22:44.878067,-123.0
2023-08-21 10:22:44.885755,-126.0
2023-08-21 10:22:44.893444,-121.0
2023-08-21 10:22:44.901133,-109.0
2023-08-21 10:22:44.908822,-104.0
2023-08-21 10:22:44.916510,-104.0
2023-08-21 10:22:44.924199,-111.0
2023-08-21 10:22:44.931888,-121.0
2023-08-21 10:22:44.939577,-123.0
2023-08-21 10:22:44.947265,-119.0
2023-08-21 10:22:44.954954,-119.0
2023-08-21 10:22:44.962643,-123.0
2023-08-21 10:22:44.970331,-133.0
2023-08-21 10:22:44.978020,-143.0
2023-08-21 10:22:44.985709,-140.0
2023-08-21 10:22:44.993398,-138.0
2023-08-21 10:22:45.001086,-143.0
2023-08-21 10:22:45.008775,-150.0
2023-08-21 10:22:45.016464,-153.0
2023-08-21 10:22:45.024153,-157.0
2023-08-21 10:22:45.031841,-153.0
2023-08-21 10:22:45.039530,-140.0
2023-08-21 10:22:45.047219,-138.0
2023-08-21 10:22:45.054907,-136.0
2023-08-21 10:22:45.062596,-133.0
2023-08-21 10:22:45.070285,-133.0
2023-08-21 10:22:45.077974,-126.0
2023-08-21 10:22:45.085662,-119.0
2023-08-21 10:22:45.093351,-119.0
2023-08-21 10:22:45.101040,-121.0
2023-08-21 10:22:45.108729,-121.0
2023-08-21 10:22:45.116417,-106.0
2023-08-21 10:22:45.124106,-77.0
2023-08-21 10:22:45.131795,-53.0
2023-08-21 10:22:45.139484,-48.0
2023-08-21 10:22:45.147172,-51.0
2023-08-21 10:22:45.154861,-72.0
2023-08-21 10:22:45.162550,-106.0
2023-08-21 10:22:45.170238,-114.0
2023-08-21 10:22:45.177927,-106.0
2023-08-21 10:22:45.185616,-104.0
2023-08-21 10:22:45.193305,-104.0
2023-08-21 10:22:45.200993,-104.0
2023-08-21 10:22:45.208682,-104.0
2023-08-21 10:22:45.216371,-109.0
2023-08-21 10:22:45.224060,-128.0
2023-08-21 10:22:45.231748,-119.0
2023-08-21 10:22:45.239437,68.0
2023-08-21 10:22:45.247126,561.0
2023-08-21 10:22:45.254814,1117.0
2023-08-21 10:22:45.262503,1129.0
2023-08-21 10:22:45.270192,393.0
2023-08-21 10:22:45.277881,-306.0
2023-08-21 10:22:45.285569,-281.0
2023-08-21 10:22:45.293258,-94.0
2023-08-21 10:22:45.300947,-208.0
2023-08-21 10:22:45.308636,-257.0
2023-08-21 10:22:45.316324,-174.0
2023-08-21 10:22:45.324013,-177.0
2023-08-21 10:22:45.331702,-199.0
2023-08-21 10:22:45.339391,-167.0
2023-08-21 10:22:45.347079,-150.0
2023-08-21 10:22:45.354768,-153.0
2023-08-21 10:22:45.362457,-140.0
2023-08-21 10:22:45.370145,-123.0
2023-08-21 10:22:45.377834,-119.0
2023-08-21 10:22:45.385523,-111.0
2023-08-21 10:22:45.393212,-97.0
2023-08-21 10:22:45.400900,-85.0
2023-08-21 10:22:45.408589,-72.0
2023-08-21 10:22:45.416278,-58.0
2023-08-21 10:22:45.423967,-46.0
2023-08-21 10:22:45.431655,-34.0
2023-08-21 10:22:45.439344,-21.0
2023-08-21 10:22:45.447033,-9.0
2023-08-21 10:22:45.454721,-2.0
2023-08-21 10:22:45.462410,7.0
2023-08-21 10:22:45.470099,17.0
2023-08-21 10:22:45.477788,24.0
2023-08-21 10:22:45.485476,29.0
2023-08-21 10:22:45.493165,29.0
2023-08-21 10:22:45.500854,26.0
2023-08-21 10:22:45.508543,17.0
2023-08-21 10:22:45.516231,-2.0
2023-08-21 10:22:45.523920,-9.0
2023-08-21 10:22:45.531609,-14.0
2023-08-21 10:22:45.539298,-34.0
2023-08-21 10:22:45.546986,-58.0
2023-08-21 10:22:45.554675,-85.0
2023-08-21 10:22:45.562364,-114.0
2023-08-21 10:22:45.570052,-136.0
2023-08-21 10:22:45.577741,-148.0
2023-08-21 10:22:45.585430,-150.0
2023-08-21 10:22:45.593119,-148.0
2023-08-21 10:22:45.600807,-140.0
2023-08-21 10:22:45.608496,-138.0
2023-08-21 10:22:45.616185,-133.0
2023-08-21 10:22:45.623874,-128.0
2023-08-21 10:22:45.631562,-119.0
2023-08-21 10:22:45.639251,-116.0
2023-08-21 10:22:45.646940,-116.0
2023-08-21 10:22:45.654628,-114.0
2023-08-21 10:22:45.662317,-111.0
2023-08-21 10:22:45.670006,-109.0
2023-08-21 10:22:45.677695,-109.0
2023-08-21 10:22:45.685383,-106.0
2023-08-21 10:22:45.693072,-109.0
2023-08-21 10:22:45.700761,-114.0
2023-08-21 10:22:45.708450,-119.0
2023-08-21 10:22:45.716138,-114.0
2023-08-21 10:22:45.723827,-111.0
2023-08-21 10:22:45.731516,-111.0
2023-08-21 10:22:45.739205,-114.0
2023-08-21 10:22:45.746893,-114.0
2023-08-21 10:22:45.754582,-111.0
2023-08-21 10:22:45.762271,-109.0
2023-08-21 10:22:45.769959,-106.0
2023-08-21 10:22:45.777648,-104.0
2023-08-21 10:22:45.785337,-104.0
2023-08-21 10:22:45.793026,-102.0
2023-08-21 10:22:45.800714,-99.0
2023-08-21 10:22:45.808403,-99.0
2023-08-21 10:22:45.816092,-99.0
2023-08-21 10:22:45.823781,-94.0
2023-08-21 10:22:45.831469,-92.0
2023-08-21 10:22:45.839158,-92.0
2023-08-21 10:22:45.846847,-92.0
2023-08-21 10:22:45.854535,-94.0
2023-08-21 10:22:45.862224,-94.0
2023-08-21 10:22:45.869913,-94.0
2023-08-21 10:22:45.877602,-97.0
2023-08-21 10:22:45.885290,-85.0
2023-08-21 10:22:45.892979,-55.0
2023-08-21 10:22:45.900668,-34.0
2023-08-21 10:22:45.908357,-31.0
2023-08-21 10:22:45.916045,-36.0
2023-08-21 10:22:45.923734,-55.0
2023-08-21 10:22:45.931423,-87.0
2023-08-21 10:22:45.939112,-97.0
2023-08-21 10:22:45.946800,-94.0
2023-08-21 10:22:45.954489,-99.0
2023-08-21 10:22:45.962178,-106.0
2023-08-21 10:22:45.969866,-102.0
2023-08-21 10:22:45.977555,-99.0
2023-08-21 10:22:45.985244,-106.0
2023-08-21 10:22:45.992933,-121.0
2023-08-21 10:22:46.000621,-121.0
2023-08-21 10:22:46.008310,36.0
2023-08-21 10:22:46.015999,505.0
2023-08-21 10:22:46.023688,1071.0
2023-08-21 10:22:46.031376,1141.0
2023-08-21 10:22:46.039065,444.0
2023-08-21 10:22:46.046754,-296.0
2023-08-21 10:22:46.054442,-330.0
2023-08-21 10:22:46.062131,-136.0
2023-08-21 10:22:46.069820,-223.0
2023-08-21 10:22:46.077509,-276.0
2023-08-21 10:22:46.085197,-199.0
2023-08-21 10:22:46.092886,-201.0
2023-08-21 10:22:46.100575,-223.0
2023-08-21 10:22:46.108264,-191.0
2023-08-21 10:22:46.115952,-172.0
2023-08-21 10:22:46.123641,-174.0
2023-08-21 10:22:46.131330,-160.0
2023-08-21 10:22:46.139019,-140.0
2023-08-21 10:22:46.146707,-133.0
2023-08-21 10:22:46.154396,-128.0
2023-08-21 10:22:46.162085,-114.0
2023-08-21 10:22:46.169773,-97.0
2023-08-21 10:22:46.177462,-85.0
2023-08-21 10:22:46.185151,-75.0
2023-08-21 10:22:46.192840,-63.0
2023-08-21 10:22:46.200528,-53.0
2023-08-21 10:22:46.208217,-43.0
2023-08-21 10:22:46.215906,-31.0
2023-08-21 10:22:46.223595,-19.0
2023-08-21 10:22:46.231283,-4.0
2023-08-21 10:22:46.238972,7.0
2023-08-21 10:22:46.246661,17.0
2023-08-21 10:22:46.254349,21.0
2023-08-21 10:22:46.262038,26.0
2023-08-21 10:22:46.269727,26.0
2023-08-21 10:22:46.277416,24.0
2023-08-21 10:22:46.285104,21.0
2023-08-21 10:22:46.292793,19.0
2023-08-21 10:22:46.300482,9.0
2023-08-21 10:22:46.308171,-9.0
2023-08-21 10:22:46.315859,-36.0
2023-08-21 10:22:46.323548,-65.0
2023-08-21 10:22:46.331237,-94.0
2023-08-21 10:22:46.338926,-114.0
2023-08-21 10:22:46.346614,-126.0
2023-08-21 10:22:46.354303,-133.0
2023-08-21 10:22:46.361992,-136.0
2023-08-21 10:22:46.369680,-133.0
2023-08-21 10:22:46.377369,-128.0
2023-08-21 10:22:46.385058,-121.0
2023-08-21 10:22:46.392747,-111.0
2023-08-21 10:22:46.400435,-109.0
2023-08-21 10:22:46.408124,-111.0
2023-08-21 10:22:46.415813,-109.0
2023-08-21 10:22:46.423502,-99.0
2023-08-21 10:22:46.431190,-99.0
2023-08-21 10:22:46.438879,-104.0
2023-08-21 10:22:46.446568,-109.0
2023-08-21 10:22:46.454256,-109.0
2023-08-21 10:22:46.461945,-111.0
2023-08-21 10:22:46.469634,-111.0
2023-08-21 10:22:46.477323,-109.0
2023-08-21 10:22:46.485011,-109.0
2023-08-21 10:22:46.492700,-111.0
2023-08-21 10:22:46.500389,-111.0
2023-08-21 10:22:46.508078,-114.0
2023-08-21 10:22:46.515766,-121.0
2023-08-21 10:22:46.523455,-121.0
2023-08-21 10:22:46.531144,-114.0
2023-08-21 10:22:46.538833,-111.0
2023-08-21 10:22:46.546521,-119.0
2023-08-21 10:22:46.554210,-119.0
2023-08-21 10:22:46.561899,-111.0
2023-08-21 10:22:46.569587,-104.0
2023-08-21 10:22:46.577276,-104.0
2023-08-21 10:22:46.584965,-109.0
2023-08-21 10:22:46.592654,-116.0
2023-08-21 10:22:46.600342,-121.0
2023-08-21 10:22:46.608031,-114.0
2023-08-21 10:22:46.615720,-109.0
2023-08-21 10:22:46.623409,-109.0
2023-08-21 10:22:46.631097,-111.0
2023-08-21 10:22:46.638786,-123.0
2023-08-21 10:22:46.646475,-128.0
2023-08-21 10:22:46.654163,-119.0
2023-08-21 10:22:46.661852,-119.0
2023-08-21 10:22:46.669541,-116.0
2023-08-21 10:22:46.677230,-89.0
2023-08-21 10:22:46.684918,-60.0
2023-08-21 10:22:46.692607,-58.0
2023-08-21 10:22:46.700296,-60.0
2023-08-21 10:22:46.707985,-65.0
2023-08-21 10:22:46.715673,-92.0
2023-08-21 10:22:46.723362,-119.0
2023-08-21 10:22:46.731051,-119.0
2023-08-21 10:22:46.738740,-111.0
2023-08-21 10:22:46.746428,-114.0
2023-08-21 10:22:46.754117,-114.0
2023-08-21 10:22:46.761806,-109.0
2023-08-21 10:22:46.769494,-111.0
2023-08-21 10:22:46.777183,-119.0
2023-08-21 10:22:46.784872,-133.0
2023-08-21 10:22:46.792561,-72.0
2023-08-21 10:22:46.800249,247.0
2023-08-21 10:22:46.807938,850.0
2023-08-21 10:22:46.815627,1265.0
2023-08-21 10:22:46.823316,903.0
2023-08-21 10:22:46.831004,2.0
2023-08-21 10:22:46.838693,-405.0
2023-08-21 10:22:46.846382,-187.0
2023-08-21 10:22:46.854071,-136.0
2023-08-21 10:22:46.861759,-272.0
2023-08-21 10:22:46.869448,-233.0
2023-08-21 10:22:46.877137,-179.0
2023-08-21 10:22:46.884825,-211.0
2023-08-21 10:22:46.892514,-199.0
2023-08-21 10:22:46.900203,-165.0
2023-08-21 10:22:46.907892,-167.0
2023-08-21 10:22:46.915580,-165.0
2023-08-21 10:22:46.923269,-145.0
2023-08-21 10:22:46.930958,-136.0
2023-08-21 10:22:46.938647,-133.0
2023-08-21 10:22:46.946335,-121.0
2023-08-21 10:22:46.954024,-106.0
2023-08-21 10:22:46.961713,-97.0
2023-08-21 10:22:46.969401,-85.0
2023-08-21 10:22:46.977090,-70.0
2023-08-21 10:22:46.984779,-58.0
2023-08-21 10:22:46.992468,-43.0
2023-08-21 10:22:47.000156,-31.0
2023-08-21 10:22:47.007845,-24.0
2023-08-21 10:22:47.015534,-17.0
2023-08-21 10:22:47.023223,-7.0
2023-08-21 10:22:47.030911,7.0
2023-08-21 10:22:47.038600,14.0
2023-08-21 10:22:47.046289,12.0
2023-08-21 10:22:47.053978,12.0
2023-08-21 10:22:47.061666,12.0
2023-08-21 10:22:47.069355,12.0
2023-08-21 10:22:47.077044,4.0
2023-08-21 10:22:47.084732,-2.0
2023-08-21 10:22:47.092421,-19.0
2023-08-21 10:22:47.100110,-43.0
2023-08-21 10:22:47.107799,-70.0
2023-08-21 10:22:47.115487,-97.0
2023-08-21 10:22:47.123176,-121.0
2023-08-21 10:22:47.130865,-140.0
2023-08-21 10:22:47.138554,-157.0
2023-08-21 10:22:47.146242,-162.0
2023-08-21 10:22:47.153931,-160.0
2023-08-21 10:22:47.161620,-155.0
2023-08-21 10:22:47.169308,-150.0
2023-08-21 10:22:47.176997,-148.0
2023-08-21 10:22:47.184686,-145.0
2023-08-21 10:22:47.192375,-138.0
2023-08-21 10:22:47.200063,-128.0
2023-08-21 10:22:47.207752,-123.0
2023-08-21 10:22:47.215441,-123.0
2023-08-21 10:22:47.223130,-128.0
2023-08-21 10:22:47.230818,-136.0
2023-08-21 10:22:47.238507,-133.0
2023-08-21 10:22:47.246196,-126.0
2023-08-21 10:22:47.253885,-128.0
2023-08-21 10:22:47.261573,-128.0
2023-08-21 10:22:47.269262,-128.0
2023-08-21 10:22:47.276951,-131.0
2023-08-21 10:22:47.284639,-133.0
2023-08-21 10:22:47.292328,-131.0
2023-08-21 10:22:47.300017,-128.0
2023-08-21 10:22:47.307706,-128.0
2023-08-21 10:22:47.315394,-128.0
2023-08-21 10:22:47.323083,-128.0
2023-08-21 10:22:47.330772,-126.0
2023-08-21 10:22:47.338461,-123.0
2023-08-21 10:22:47.346149,-121.0
2023-08-21 10:22:47.353838,-119.0
2023-08-21 10:22:47.361527,-119.0
2023-08-21 10:22:47.369215,-116.0
2023-08-21 10:22:47.376904,-114.0
2023-08-21 10:22:47.384593,-109.0
2023-08-21 10:22:47.392282,-106.0
2023-08-21 10:22:47.399970,-106.0
2023-08-21 10:22:47.407659,-106.0
2023-08-21 10:22:47.415348,-104.0
2023-08-21 10:22:47.423037,-106.0
2023-08-21 10:22:47.430725,-111.0
2023-08-21 10:22:47.438414,-109.0
2023-08-21 10:22:47.446103,-97.0
2023-08-21 10:22:47.453792,-68.0
2023-08-21 10:22:47.461480,-46.0
2023-08-21 10:22:47.469169,-46.0
2023-08-21 10:22:47.476858,-48.0
2023-08-21 10:22:47.484546,-63.0
2023-08-21 10:22:47.492235,-97.0
2023-08-21 10:22:47.499924,-109.0
2023-08-21 10:22:47.507613,-102.0
2023-08-21 10:22:47.515301,-106.0
2023-08-21 10:22:47.522990,-119.0
2023-08-21 10:22:47.530679,-114.0
2023-08-21 10:22:47.538368,-109.0
2023-08-21 10:22:47.546056,-114.0
2023-08-21 10:22:47.553745,-126.0
2023-08-21 10:22:47.561434,-128.0
2023-08-21 10:22:47.569122,-4.0
2023-08-21 10:22:47.576811,420.0
2023-08-21 10:22:47.584500,1005.0
2023-08-21 10:22:47.592189,1187.0
2023-08-21 10:22:47.599877,583.0
2023-08-21 10:22:47.607566,-218.0
2023-08-21 10:22:47.615255,-352.0
2023-08-21 10:22:47.622944,-126.0
2023-08-21 10:22:47.630632,-179.0
2023-08-21 10:22:47.638321,-264.0
2023-08-21 10:22:47.646010,-194.0
2023-08-21 10:22:47.653699,-177.0
2023-08-21 10:22:47.661387,-201.0
2023-08-21 10:22:47.669076,-179.0
2023-08-21 10:22:47.676765,-160.0
2023-08-21 10:22:47.684453,-160.0
2023-08-21 10:22:47.692142,-148.0
2023-08-21 10:22:47.699831,-133.0
2023-08-21 10:22:47.707520,-126.0
2023-08-21 10:22:47.715208,-114.0
2023-08-21 10:22:47.722897,-104.0
2023-08-21 10:22:47.730586,-94.0
2023-08-21 10:22:47.738275,-82.0
2023-08-21 10:22:47.745963,-70.0
2023-08-21 10:22:47.753652,-58.0
2023-08-21 10:22:47.761341,-53.0
2023-08-21 10:22:47.769029,-51.0
2023-08-21 10:22:47.776718,-36.0
2023-08-21 10:22:47.784407,-19.0
2023-08-21 10:22:47.792096,-7.0
2023-08-21 10:22:47.799784,2.0
2023-08-21 10:22:47.807473,7.0
2023-08-21 10:22:47.815162,4.0
2023-08-21 10:22:47.822851,9.0
2023-08-21 10:22:47.830539,14.0
2023-08-21 10:22:47.838228,12.0
2023-08-21 10:22:47.845917,9.0
2023-08-21 10:22:47.853606,9.0
2023-08-21 10:22:47.861294,-2.0
2023-08-21 10:22:47.868983,-19.0
2023-08-21 10:22:47.876672,-43.0
2023-08-21 10:22:47.884360,-72.0
2023-08-21 10:22:47.892049,-99.0
2023-08-21 10:22:47.899738,-121.0
2023-08-21 10:22:47.907427,-138.0
2023-08-21 10:22:47.915115,-148.0
2023-08-21 10:22:47.922804,-153.0
2023-08-21 10:22:47.930493,-155.0
2023-08-21 10:22:47.938182,-150.0
2023-08-21 10:22:47.945870,-143.0
2023-08-21 10:22:47.953559,-138.0
2023-08-21 10:22:47.961248,-128.0
2023-08-21 10:22:47.968936,-123.0
2023-08-21 10:22:47.976625,-121.0
2023-08-21 10:22:47.984314,-114.0
2023-08-21 10:22:47.992003,-111.0
2023-08-21 10:22:47.999691,-111.0
2023-08-21 10:22:48.007380,-109.0
2023-08-21 10:22:48.015069,-109.0
2023-08-21 10:22:48.022758,-119.0
2023-08-21 10:22:48.030446,-126.0
2023-08-21 10:22:48.038135,-123.0
2023-08-21 10:22:48.045824,-116.0
2023-08-21 10:22:48.053513,-116.0
2023-08-21 10:22:48.061201,-119.0
2023-08-21 10:22:48.068890,-116.0
2023-08-21 10:22:48.076579,-114.0
2023-08-21 10:22:48.084267,-111.0
2023-08-21 10:22:48.091956,-109.0
2023-08-21 10:22:48.099645,-106.0
2023-08-21 10:22:48.107334,-102.0
2023-08-21 10:22:48.115022,-102.0
2023-08-21 10:22:48.122711,-102.0
2023-08-21 10:22:48.130400,-99.0
2023-08-21 10:22:48.138089,-97.0
2023-08-21 10:22:48.145777,-94.0
2023-08-21 10:22:48.153466,-92.0
2023-08-21 10:22:48.161155,-92.0
2023-08-21 10:22:48.168843,-92.0
2023-08-21 10:22:48.176532,-87.0
2023-08-21 10:22:48.184221,-85.0
2023-08-21 10:22:48.191910,-82.0
2023-08-21 10:22:48.199598,-82.0
2023-08-21 10:22:48.207287,-87.0
2023-08-21 10:22:48.214976,-89.0
2023-08-21 10:22:48.222665,-82.0
2023-08-21 10:22:48.230353,-77.0
2023-08-21 10:22:48.238042,-82.0
2023-08-21 10:22:48.245731,-82.0
2023-08-21 10:22:48.253420,-58.0
2023-08-21 10:22:48.261108,-26.0
2023-08-21 10:22:48.268797,-17.0
2023-08-21 10:22:48.276486,-21.0
2023-08-21 10:22:48.284174,-29.0
2023-08-21 10:22:48.291863,-51.0
2023-08-21 10:22:48.299552,-85.0
2023-08-21 10:22:48.307241,-97.0
2023-08-21 10:22:48.314929,-87.0
2023-08-21 10:22:48.322618,-85.0
2023-08-21 10:22:48.330307,-94.0
2023-08-21 10:22:48.337996,-97.0
2023-08-21 10:22:48.345684,-94.0
2023-08-21 10:22:48.353373,-102.0
2023-08-21 10:22:48.361062,-119.0
2023-08-21 10:22:48.368750,-104.0
2023-08-21 10:22:48.376439,99.0
2023-08-21 10:22:48.384128,614.0
2023-08-21 10:22:48.391817,1141.0
2023-08-21 10:22:48.399505,1080.0
2023-08-21 10:22:48.407194,313.0
2023-08-21 10:22:48.414883,-327.0
2023-08-21 10:22:48.422572,-259.0
2023-08-21 10:22:48.430260,-94.0
2023-08-21 10:22:48.437949,-211.0
2023-08-21 10:22:48.445638,-238.0
2023-08-21 10:22:48.453327,-157.0
2023-08-21 10:22:48.461015,-167.0
2023-08-21 10:22:48.468704,-182.0
2023-08-21 10:22:48.476393,-148.0
2023-08-21 10:22:48.484081,-140.0
2023-08-21 10:22:48.491770,-143.0
2023-08-21 10:22:48.499459,-123.0
2023-08-21 10:22:48.507148,-109.0
2023-08-21 10:22:48.514836,-106.0
2023-08-21 10:22:48.522525,-94.0
2023-08-21 10:22:48.530214,-87.0
2023-08-21 10:22:48.537903,-85.0
2023-08-21 10:22:48.545591,-68.0
2023-08-21 10:22:48.553280,-51.0
2023-08-21 10:22:48.560969,-38.0
2023-08-21 10:22:48.568657,-24.0
2023-08-21 10:22:48.576346,-12.0
2023-08-21 10:22:48.584035,0.0
2023-08-21 10:22:48.591724,17.0
2023-08-21 10:22:48.599412,31.0
2023-08-21 10:22:48.607101,41.0
2023-08-21 10:22:48.614790,48.0
2023-08-21 10:22:48.622479,51.0
2023-08-21 10:22:48.630167,55.0
2023-08-21 10:22:48.637856,58.0
2023-08-21 10:22:48.645545,58.0
2023-08-21 10:22:48.653234,58.0
2023-08-21 10:22:48.660922,48.0
2023-08-21 10:22:48.668611,31.0
2023-08-21 10:22:48.676300,14.0
2023-08-21 10:22:48.683988,-7.0
2023-08-21 10:22:48.691677,-36.0
2023-08-21 10:22:48.699366,-68.0
2023-08-21 10:22:48.707055,-94.0
2023-08-21 10:22:48.714743,-111.0
2023-08-21 10:22:48.722432,-119.0
2023-08-21 10:22:48.730121,-116.0
2023-08-21 10:22:48.737810,-114.0
2023-08-21 10:22:48.745498,-114.0
2023-08-21 10:22:48.753187,-111.0
2023-08-21 10:22:48.760876,-106.0
2023-08-21 10:22:48.768564,-99.0
2023-08-21 10:22:48.776253,-94.0
2023-08-21 10:22:48.783942,-89.0
2023-08-21 10:22:48.791631,-87.0
2023-08-21 10:22:48.799319,-87.0
2023-08-21 10:22:48.807008,-89.0
2023-08-21 10:22:48.814697,-87.0
2023-08-21 10:22:48.822386,-82.0
2023-08-21 10:22:48.830074,-82.0
2023-08-21 10:22:48.837763,-87.0
2023-08-21 10:22:48.845452,-89.0
2023-08-21 10:22:48.853141,-92.0
2023-08-21 10:22:48.860829,-92.0
2023-08-21 10:22:48.868518,-87.0
2023-08-21 10:22:48.876207,-87.0
2023-08-21 10:22:48.883895,-92.0
2023-08-21 10:22:48.891584,-102.0
2023-08-21 10:22:48.899273,-109.0
2023-08-21 10:22:48.906962,-109.0
2023-08-21 10:22:48.914650,-106.0
2023-08-21 10:22:48.922339,-102.0
2023-08-21 10:22:48.930028,-104.0
2023-08-21 10:22:48.937717,-116.0
2023-08-21 10:22:48.945405,-119.0
2023-08-21 10:22:48.953094,-109.0
2023-08-21 10:22:48.960783,-106.0
2023-08-21 10:22:48.968471,-109.0
2023-08-21 10:22:48.976160,-106.0
2023-08-21 10:22:48.983849,-104.0
2023-08-21 10:22:48.991538,-106.0
2023-08-21 10:22:48.999226,-104.0
2023-08-21 10:22:49.006915,-102.0
2023-08-21 10:22:49.014604,-94.0
2023-08-21 10:22:49.022293,-89.0
2023-08-21 10:22:49.029981,-97.0
2023-08-21 10:22:49.037670,-109.0
2023-08-21 10:22:49.045359,-99.0
2023-08-21 10:22:49.053048,-70.0
2023-08-21 10:22:49.060736,-43.0
2023-08-21 10:22:49.068425,-41.0
2023-08-21 10:22:49.076114,-55.0
2023-08-21 10:22:49.083802,-63.0
2023-08-21 10:22:49.091491,-82.0
2023-08-21 10:22:49.099180,-116.0
2023-08-21 10:22:49.106869,-121.0
2023-08-21 10:22:49.114557,-119.0
2023-08-21 10:22:49.122246,-133.0
2023-08-21 10:22:49.129935,-133.0
2023-08-21 10:22:49.137624,-121.0
2023-08-21 10:22:49.145312,-123.0
2023-08-21 10:22:49.153001,-136.0
2023-08-21 10:22:49.160690,-148.0
2023-08-21 10:22:49.168378,-131.0
2023-08-21 10:22:49.176067,77.0
2023-08-21 10:22:49.183756,614.0
2023-08-21 10:22:49.191445,1183.0
2023-08-21 10:22:49.199133,1139.0
2023-08-21 10:22:49.206822,337.0
2023-08-21 10:22:49.214511,-349.0
2023-08-21 10:22:49.222200,-289.0
2023-08-21 10:22:49.229888,-109.0
2023-08-21 10:22:49.237577,-225.0
2023-08-21 10:22:49.245266,-250.0
2023-08-21 10:22:49.252955,-170.0
2023-08-21 10:22:49.260643,-182.0
2023-08-21 10:22:49.268332,-194.0
2023-08-21 10:22:49.276021,-155.0
2023-08-21 10:22:49.283709,-140.0
2023-08-21 10:22:49.291398,-143.0
2023-08-21 10:22:49.299087,-126.0
2023-08-21 10:22:49.306776,-109.0
2023-08-21 10:22:49.314464,-106.0
2023-08-21 10:22:49.322153,-94.0
2023-08-21 10:22:49.329842,-75.0
2023-08-21 10:22:49.337531,-65.0
2023-08-21 10:22:49.345219,-58.0
2023-08-21 10:22:49.352908,-41.0
2023-08-21 10:22:49.360597,-26.0
2023-08-21 10:22:49.368285,-14.0
2023-08-21 10:22:49.375974,0.0
2023-08-21 10:22:49.383663,14.0
2023-08-21 10:22:49.391352,24.0
2023-08-21 10:22:49.399040,34.0
2023-08-21 10:22:49.406729,46.0
2023-08-21 10:22:49.414418,58.0
2023-08-21 10:22:49.422107,55.0
2023-08-21 10:22:49.429795,48.0
2023-08-21 10:22:49.437484,43.0
2023-08-21 10:22:49.445173,41.0
2023-08-21 10:22:49.452862,38.0
2023-08-21 10:22:49.460550,36.0
2023-08-21 10:22:49.468239,26.0
2023-08-21 10:22:49.475928,4.0
2023-08-21 10:22:49.483616,-24.0
2023-08-21 10:22:49.491305,-55.0
2023-08-21 10:22:49.498994,-82.0
2023-08-21 10:22:49.506683,-104.0
2023-08-21 10:22:49.514371,-128.0
2023-08-21 10:22:49.522060,-148.0
2023-08-21 10:22:49.529749,-150.0
2023-08-21 10:22:49.537438,-148.0
2023-08-21 10:22:49.545126,-153.0
2023-08-21 10:22:49.552815,-150.0
2023-08-21 10:22:49.560504,-145.0
2023-08-21 10:22:49.568193,-150.0
2023-08-21 10:22:49.575881,-148.0
2023-08-21 10:22:49.583570,-133.0
2023-08-21 10:22:49.591259,-126.0
2023-08-21 10:22:49.598947,-126.0
2023-08-21 10:22:49.606636,-128.0
2023-08-21 10:22:49.614325,-133.0
2023-08-21 10:22:49.622014,-131.0
2023-08-21 10:22:49.629702,-126.0
2023-08-21 10:22:49.637391,-128.0
2023-08-21 10:22:49.645080,-136.0
2023-08-21 10:22:49.652769,-143.0
2023-08-21 10:22:49.660457,-150.0
2023-08-21 10:22:49.668146,-148.0
2023-08-21 10:22:49.675835,-143.0
2023-08-21 10:22:49.683523,-140.0
2023-08-21 10:22:49.691212,-138.0
2023-08-21 10:22:49.698901,-143.0
2023-08-21 10:22:49.706590,-150.0
2023-08-21 10:22:49.714278,-143.0
2023-08-21 10:22:49.721967,-140.0
2023-08-21 10:22:49.729656,-145.0
2023-08-21 10:22:49.737345,-140.0
2023-08-21 10:22:49.745033,-136.0
2023-08-21 10:22:49.752722,-133.0
2023-08-21 10:22:49.760411,-126.0
2023-08-21 10:22:49.768100,-123.0
2023-08-21 10:22:49.775788,-123.0
2023-08-21 10:22:49.783477,-123.0
2023-08-21 10:22:49.791166,-119.0
2023-08-21 10:22:49.798854,-119.0
2023-08-21 10:22:49.806543,-119.0
2023-08-21 10:22:49.814232,-104.0
2023-08-21 10:22:49.821921,-75.0
2023-08-21 10:22:49.829609,-55.0
2023-08-21 10:22:49.837298,-53.0
2023-08-21 10:22:49.844987,-55.0
2023-08-21 10:22:49.852676,-72.0
2023-08-21 10:22:49.860364,-104.0
2023-08-21 10:22:49.868053,-121.0
2023-08-21 10:22:49.875742,-116.0
2023-08-21 10:22:49.883430,-116.0
2023-08-21 10:22:49.891119,-126.0
2023-08-21 10:22:49.898808,-121.0
2023-08-21 10:22:49.906497,-114.0
2023-08-21 10:22:49.914185,-119.0
2023-08-21 10:22:49.921874,-133.0
2023-08-21 10:22:49.929563,-138.0
2023-08-21 10:22:49.937252,-17.0
2023-08-21 10:22:49.944940,405.0
2023-08-21 10:22:49.952629,1003.0
2023-08-21 10:22:49.960318,1209.0
2023-08-21 10:22:49.968007,612.0
2023-08-21 10:22:49.975695,-223.0
2023-08-21 10:22:49.983384,-378.0
2023-08-21 10:22:49.991073,-138.0
2023-08-21 10:22:49.998761,-184.0
2023-08-21 10:22:50.006450,-281.0
2023-08-21 10:22:50.014139,-216.0
2023-08-21 10:22:50.021828,-199.0
2023-08-21 10:22:50.029516,-223.0
2023-08-21 10:22:50.037205,-191.0
2023-08-21 10:22:50.044894,-174.0
2023-08-21 10:22:50.052583,-184.0
2023-08-21 10:22:50.060271,-172.0
2023-08-21 10:22:50.067960,-153.0
2023-08-21 10:22:50.075649,-148.0
2023-08-21 10:22:50.083337,-133.0
2023-08-21 10:22:50.091026,-116.0
2023-08-21 10:22:50.098715,-109.0
2023-08-21 10:22:50.106404,-109.0
2023-08-21 10:22:50.114092,-99.0
2023-08-21 10:22:50.121781,-80.0
2023-08-21 10:22:50.129470,-68.0
2023-08-21 10:22:50.137159,-58.0
2023-08-21 10:22:50.144847,-48.0
2023-08-21 10:22:50.152536,-34.0
2023-08-21 10:22:50.160225,-17.0
2023-08-21 10:22:50.167914,0.0
2023-08-21 10:22:50.175602,12.0
2023-08-21 10:22:50.183291,14.0
2023-08-21 10:22:50.190980,19.0
2023-08-21 10:22:50.198668,21.0
2023-08-21 10:22:50.206357,21.0
2023-08-21 10:22:50.214046,21.0
2023-08-21 10:22:50.221735,21.0
2023-08-21 10:22:50.229423,12.0
2023-08-21 10:22:50.237112,-12.0
2023-08-21 10:22:50.244801,-38.0
2023-08-21 10:22:50.252490,-65.0
2023-08-21 10:22:50.260178,-89.0
2023-08-21 10:22:50.267867,-111.0
2023-08-21 10:22:50.275556,-131.0
2023-08-21 10:22:50.283244,-143.0
2023-08-21 10:22:50.290933,-143.0
2023-08-21 10:22:50.298622,-138.0
2023-08-21 10:22:50.306311,-136.0
2023-08-21 10:22:50.313999,-128.0
2023-08-21 10:22:50.321688,-121.0
2023-08-21 10:22:50.329377,-119.0
2023-08-21 10:22:50.337066,-114.0
2023-08-21 10:22:50.344754,-104.0
2023-08-21 10:22:50.352443,-99.0
2023-08-21 10:22:50.360132,-97.0
2023-08-21 10:22:50.367821,-94.0
2023-08-21 10:22:50.375509,-94.0
2023-08-21 10:22:50.383198,-97.0
2023-08-21 10:22:50.390887,-97.0
2023-08-21 10:22:50.398575,-97.0
2023-08-21 10:22:50.406264,-99.0
2023-08-21 10:22:50.413953,-102.0
2023-08-21 10:22:50.421642,-104.0
2023-08-21 10:22:50.429330,-102.0
2023-08-21 10:22:50.437019,-99.0
2023-08-21 10:22:50.444708,-99.0
2023-08-21 10:22:50.452397,-97.0
2023-08-21 10:22:50.460085,-94.0
2023-08-21 10:22:50.467774,-97.0
2023-08-21 10:22:50.475463,-94.0
2023-08-21 10:22:50.483151,-89.0
2023-08-21 10:22:50.490840,-87.0
2023-08-21 10:22:50.498529,-85.0
2023-08-21 10:22:50.506218,-87.0
2023-08-21 10:22:50.513906,-89.0
2023-08-21 10:22:50.521595,-89.0
2023-08-21 10:22:50.529284,-87.0
2023-08-21 10:22:50.536973,-87.0
2023-08-21 10:22:50.544661,-87.0
2023-08-21 10:22:50.552350,-92.0
2023-08-21 10:22:50.560039,-99.0
2023-08-21 10:22:50.567728,-97.0
2023-08-21 10:22:50.575416,-92.0
2023-08-21 10:22:50.583105,-94.0
2023-08-21 10:22:50.590794,-94.0
2023-08-21 10:22:50.598482,-80.0
2023-08-21 10:22:50.606171,-48.0
2023-08-21 10:22:50.613860,-26.0
2023-08-21 10:22:50.621549,-29.0
2023-08-21 10:22:50.629237,-41.0
2023-08-21 10:22:50.636926,-68.0
2023-08-21 10:22:50.644615,-111.0
2023-08-21 10:22:50.652304,-131.0
2023-08-21 10:22:50.659992,-121.0
2023-08-21 10:22:50.667681,-119.0
2023-08-21 10:22:50.675370,-123.0
2023-08-21 10:22:50.683058,-123.0
2023-08-21 10:22:50.690747,-121.0
2023-08-21 10:22:50.698436,-123.0
2023-08-21 10:22:50.706125,-136.0
2023-08-21 10:22:50.713813,-136.0
2023-08-21 10:22:50.721502,19.0
2023-08-21 10:22:50.729191,480.0
2023-08-21 10:22:50.736880,1056.0
2023-08-21 10:22:50.744568,1163.0
2023-08-21 10:22:50.752257,497.0
2023-08-21 10:22:50.759946,-262.0
2023-08-21 10:22:50.767635,-330.0
2023-08-21 10:22:50.775323,-116.0
2023-08-21 10:22:50.783012,-194.0
2023-08-21 10:22:50.790701,-262.0
2023-08-21 10:22:50.798389,-184.0
2023-08-21 10:22:50.806078,-174.0
2023-08-21 10:22:50.813767,-196.0
2023-08-21 10:22:50.821456,-167.0
2023-08-21 10:22:50.829144,-150.0
2023-08-21 10:22:50.836833,-153.0
2023-08-21 10:22:50.844522,-138.0
2023-08-21 10:22:50.852211,-119.0
2023-08-21 10:22:50.859899,-114.0
2023-08-21 10:22:50.867588,-106.0
2023-08-21 10:22:50.875277,-97.0
2023-08-21 10:22:50.882965,-89.0
2023-08-21 10:22:50.890654,-77.0
2023-08-21 10:22:50.898343,-60.0
2023-08-21 10:22:50.906032,-51.0
2023-08-21 10:22:50.913720,-38.0
2023-08-21 10:22:50.921409,-26.0
2023-08-21 10:22:50.929098,-14.0
2023-08-21 10:22:50.936787,0.0
2023-08-21 10:22:50.944475,14.0
2023-08-21 10:22:50.952164,26.0
2023-08-21 10:22:50.959853,34.0
2023-08-21 10:22:50.967542,38.0
2023-08-21 10:22:50.975230,43.0
2023-08-21 10:22:50.982919,46.0
2023-08-21 10:22:50.990608,51.0
2023-08-21 10:22:50.998296,48.0
2023-08-21 10:22:51.005985,41.0
2023-08-21 10:22:51.013674,34.0
2023-08-21 10:22:51.021363,14.0
2023-08-21 10:22:51.029051,-14.0
2023-08-21 10:22:51.036740,-46.0
2023-08-21 10:22:51.044429,-70.0
2023-08-21 10:22:51.052118,-99.0
2023-08-21 10:22:51.059806,-128.0
2023-08-21 10:22:51.067495,-140.0
2023-08-21 10:22:51.075184,-140.0
2023-08-21 10:22:51.082872,-140.0
2023-08-21 10:22:51.090561,-136.0
2023-08-21 10:22:51.098250,-128.0
2023-08-21 10:22:51.105939,-123.0
2023-08-21 10:22:51.113627,-121.0
2023-08-21 10:22:51.121316,-121.0
2023-08-21 10:22:51.129005,-121.0
2023-08-21 10:22:51.136694,-126.0
2023-08-21 10:22:51.144382,-133.0
2023-08-21 10:22:51.152071,-133.0
2023-08-21 10:22:51.159760,-128.0
2023-08-21 10:22:51.167449,-128.0
2023-08-21 10:22:51.175137,-123.0
2023-08-21 10:22:51.182826,-123.0
2023-08-21 10:22:51.190515,-123.0
2023-08-21 10:22:51.198203,-123.0
2023-08-21 10:22:51.205892,-126.0
2023-08-21 10:22:51.213581,-123.0
2023-08-21 10:22:51.221270,-119.0
2023-08-21 10:22:51.228958,-116.0
2023-08-21 10:22:51.236647,-119.0
2023-08-21 10:22:51.244336,-116.0
2023-08-21 10:22:51.252025,-114.0
2023-08-21 10:22:51.259713,-111.0
2023-08-21 10:22:51.267402,-109.0
2023-08-21 10:22:51.275091,-109.0
2023-08-21 10:22:51.282779,-109.0
2023-08-21 10:22:51.290468,-111.0
2023-08-21 10:22:51.298157,-111.0
2023-08-21 10:22:51.305846,-106.0
2023-08-21 10:22:51.313534,-102.0
2023-08-21 10:22:51.321223,-102.0
2023-08-21 10:22:51.328912,-99.0
2023-08-21 10:22:51.336601,-97.0
2023-08-21 10:22:51.344289,-97.0
2023-08-21 10:22:51.351978,-94.0
2023-08-21 10:22:51.359667,-97.0
2023-08-21 10:22:51.367356,-99.0
2023-08-21 10:22:51.375044,-99.0
2023-08-21 10:22:51.382733,-87.0
2023-08-21 10:22:51.390422,-58.0
2023-08-21 10:22:51.398110,-34.0
2023-08-21 10:22:51.405799,-31.0
2023-08-21 10:22:51.413488,-38.0
2023-08-21 10:22:51.421177,-53.0
2023-08-21 10:22:51.428865,-85.0
2023-08-21 10:22:51.436554,-104.0
2023-08-21 10:22:51.444243,-99.0
2023-08-21 10:22:51.451932,-97.0
2023-08-21 10:22:51.459620,-99.0
2023-08-21 10:22:51.467309,-97.0
2023-08-21 10:22:51.474998,-94.0
2023-08-21 10:22:51.482686,-97.0
2023-08-21 10:22:51.490375,-111.0
2023-08-21 10:22:51.498064,-119.0
2023-08-21 10:22:51.505753,-24.0
2023-08-21 10:22:51.513441,349.0
2023-08-21 10:22:51.521130,935.0
2023-08-21 10:22:51.528819,1214.0
2023-08-21 10:22:51.536508,726.0
2023-08-21 10:22:51.544196,-102.0
2023-08-21 10:22:51.551885,-357.0
2023-08-21 10:22:51.559574,-140.0
2023-08-21 10:22:51.567263,-148.0
2023-08-21 10:22:51.574951,-252.0
2023-08-21 10:22:51.582640,-191.0
2023-08-21 10:22:51.590329,-160.0
2023-08-21 10:22:51.598017,-189.0
2023-08-21 10:22:51.605706,-170.0
2023-08-21 10:22:51.613395,-145.0
2023-08-21 10:22:51.621084,-150.0
2023-08-21 10:22:51.628772,-140.0
2023-08-21 10:22:51.636461,-126.0
2023-08-21 10:22:51.644150,-119.0
2023-08-21 10:22:51.651839,-106.0
2023-08-21 10:22:51.659527,-92.0
2023-08-21 10:22:51.667216,-82.0
2023-08-21 10:22:51.674905,-80.0
2023-08-21 10:22:51.682593,-77.0
2023-08-21 10:22:51.690282,-68.0
2023-08-21 10:22:51.697971,-51.0
2023-08-21 10:22:51.705660,-38.0
2023-08-21 10:22:51.713348,-24.0
2023-08-21 10:22:51.721037,-9.0
2023-08-21 10:22:51.728726,2.0
2023-08-21 10:22:51.736415,14.0
2023-08-21 10:22:51.744103,26.0
2023-08-21 10:22:51.751792,36.0
2023-08-21 10:22:51.759481,41.0
2023-08-21 10:22:51.767170,38.0
2023-08-21 10:22:51.774858,36.0
2023-08-21 10:22:51.782547,38.0
2023-08-21 10:22:51.790236,41.0
2023-08-21 10:22:51.797924,31.0
2023-08-21 10:22:51.805613,14.0
2023-08-21 10:22:51.813302,-9.0
2023-08-21 10:22:51.820991,-38.0
2023-08-21 10:22:51.828679,-68.0
2023-08-21 10:22:51.836368,-92.0
2023-08-21 10:22:51.844057,-111.0
2023-08-21 10:22:51.851746,-126.0
2023-08-21 10:22:51.859434,-133.0
2023-08-21 10:22:51.867123,-131.0
2023-08-21 10:22:51.874812,-123.0
2023-08-21 10:22:51.882500,-119.0
2023-08-21 10:22:51.890189,-116.0
2023-08-21 10:22:51.897878,-111.0
2023-08-21 10:22:51.905567,-109.0
2023-08-21 10:22:51.913255,-106.0
2023-08-21 10:22:51.920944,-99.0
2023-08-21 10:22:51.928633,-97.0
2023-08-21 10:22:51.936322,-94.0
2023-08-21 10:22:51.944010,-94.0
2023-08-21 10:22:51.951699,-94.0
2023-08-21 10:22:51.959388,-92.0
2023-08-21 10:22:51.967077,-92.0
2023-08-21 10:22:51.974765,-92.0
2023-08-21 10:22:51.982454,-94.0
2023-08-21 10:22:51.990143,-94.0
2023-08-21 10:22:51.997831,-94.0
2023-08-21 10:22:52.005520,-94.0
2023-08-21 10:22:52.013209,-89.0
2023-08-21 10:22:52.020898,-87.0
2023-08-21 10:22:52.028586,-87.0
2023-08-21 10:22:52.036275,-87.0
2023-08-21 10:22:52.043964,-87.0
2023-08-21 10:22:52.051653,-89.0
2023-08-21 10:22:52.059341,-87.0
2023-08-21 10:22:52.067030,-89.0
2023-08-21 10:22:52.074719,-92.0
2023-08-21 10:22:52.082407,-94.0
2023-08-21 10:22:52.090096,-94.0
2023-08-21 10:22:52.097785,-97.0
2023-08-21 10:22:52.105474,-97.0
2023-08-21 10:22:52.113162,-94.0
2023-08-21 10:22:52.120851,-94.0
2023-08-21 10:22:52.128540,-99.0
2023-08-21 10:22:52.136229,-99.0
2023-08-21 10:22:52.143917,-94.0
2023-08-21 10:22:52.151606,-94.0
2023-08-21 10:22:52.159295,-87.0
2023-08-21 10:22:52.166984,-60.0
2023-08-21 10:22:52.174672,-38.0
2023-08-21 10:22:52.182361,-31.0
2023-08-21 10:22:52.190050,-26.0
2023-08-21 10:22:52.197738,-36.0
2023-08-21 10:22:52.205427,-70.0
2023-08-21 10:22:52.213116,-99.0
2023-08-21 10:22:52.220805,-106.0
2023-08-21 10:22:52.228493,-106.0
2023-08-21 10:22:52.236182,-114.0
2023-08-21 10:22:52.243871,-114.0
2023-08-21 10:22:52.251560,-109.0
2023-08-21 10:22:52.259248,-111.0
2023-08-21 10:22:52.266937,-123.0
2023-08-21 10:22:52.274626,-131.0
2023-08-21 10:22:52.282314,-21.0
2023-08-21 10:22:52.290003,383.0
2023-08-21 10:22:52.297692,1005.0
2023-08-21 10:22:52.305381,1280.0
2023-08-21 10:22:52.313069,716.0
2023-08-21 10:22:52.320758,-172.0
2023-08-21 10:22:52.328447,-395.0
2023-08-21 10:22:52.336136,-148.0
2023-08-21 10:22:52.343824,-172.0
2023-08-21 10:22:52.351513,-284.0
2023-08-21 10:22:52.359202,-213.0
2023-08-21 10:22:52.366891,-182.0
2023-08-21 10:22:52.374579,-211.0
2023-08-21 10:22:52.382268,-187.0
2023-08-21 10:22:52.389957,-160.0
2023-08-21 10:22:52.397645,-174.0
2023-08-21 10:22:52.405334,-172.0
2023-08-21 10:22:52.413023,-148.0
2023-08-21 10:22:52.420712,-136.0
2023-08-21 10:22:52.428400,-131.0
2023-08-21 10:22:52.436089,-116.0
2023-08-21 10:22:52.443778,-104.0
2023-08-21 10:22:52.451467,-94.0
2023-08-21 10:22:52.459155,-80.0
2023-08-21 10:22:52.466844,-63.0
2023-08-21 10:22:52.474533,-51.0
2023-08-21 10:22:52.482222,-41.0
2023-08-21 10:22:52.489910,-36.0
2023-08-21 10:22:52.497599,-31.0
2023-08-21 10:22:52.505288,-14.0
2023-08-21 10:22:52.512976,0.0
2023-08-21 10:22:52.520665,9.0
2023-08-21 10:22:52.528354,17.0
2023-08-21 10:22:52.536043,21.0
2023-08-21 10:22:52.543731,21.0
2023-08-21 10:22:52.551420,19.0
2023-08-21 10:22:52.559109,14.0
2023-08-21 10:22:52.566798,7.0
2023-08-21 10:22:52.574486,0.0
2023-08-21 10:22:52.582175,-21.0
2023-08-21 10:22:52.589864,-51.0
2023-08-21 10:22:52.597552,-80.0
2023-08-21 10:22:52.605241,-109.0
2023-08-21 10:22:52.612930,-133.0
2023-08-21 10:22:52.620619,-160.0
2023-08-21 10:22:52.628307,-184.0
2023-08-21 10:22:52.635996,-187.0
2023-08-21 10:22:52.643685,-177.0
2023-08-21 10:22:52.651374,-174.0
2023-08-21 10:22:52.659062,-170.0
2023-08-21 10:22:52.666751,-167.0
2023-08-21 10:22:52.674440,-172.0
2023-08-21 10:22:52.682129,-162.0
2023-08-21 10:22:52.689817,-150.0
2023-08-21 10:22:52.697506,-145.0
2023-08-21 10:22:52.705195,-140.0
2023-08-21 10:22:52.712883,-145.0
2023-08-21 10:22:52.720572,-153.0
2023-08-21 10:22:52.728261,-150.0
2023-08-21 10:22:52.735950,-143.0
2023-08-21 10:22:52.743638,-143.0
2023-08-21 10:22:52.751327,-140.0
2023-08-21 10:22:52.759016,-140.0
2023-08-21 10:22:52.766705,-143.0
2023-08-21 10:22:52.774393,-140.0
2023-08-21 10:22:52.782082,-136.0
2023-08-21 10:22:52.789771,-133.0
2023-08-21 10:22:52.797459,-136.0
2023-08-21 10:22:52.805148,-143.0
2023-08-21 10:22:52.812837,-145.0
2023-08-21 10:22:52.820526,-140.0
2023-08-21 10:22:52.828214,-136.0
2023-08-21 10:22:52.835903,-133.0
2023-08-21 10:22:52.843592,-133.0
2023-08-21 10:22:52.851281,-136.0
2023-08-21 10:22:52.858969,-131.0
2023-08-21 10:22:52.866658,-126.0
2023-08-21 10:22:52.874347,-123.0
2023-08-21 10:22:52.882036,-121.0
2023-08-21 10:22:52.889724,-121.0
2023-08-21 10:22:52.897413,-126.0
2023-08-21 10:22:52.905102,-123.0
2023-08-21 10:22:52.912790,-106.0
2023-08-21 10:22:52.920479,-80.0
2023-08-21 10:22:52.928168,-60.0
2023-08-21 10:22:52.935857,-53.0
2023-08-21 10:22:52.943545,-55.0
2023-08-21 10:22:52.951234,-77.0
2023-08-21 10:22:52.958923,-104.0
2023-08-21 10:22:52.966612,-106.0
2023-08-21 10:22:52.974300,-99.0
2023-08-21 10:22:52.981989,-102.0
2023-08-21 10:22:52.989678,-102.0
2023-08-21 10:22:52.997366,-99.0
2023-08-21 10:22:53.005055,-97.0
2023-08-21 10:22:53.012744,-106.0
2023-08-21 10:22:53.020433,-123.0
2023-08-21 10:22:53.028121,-104.0
2023-08-21 10:22:53.035810,114.0
2023-08-21 10:22:53.043499,641.0
2023-08-21 10:22:53.051188,1161.0
2023-08-21 10:22:53.058876,1063.0
2023-08-21 10:22:53.066565,272.0
2023-08-21 10:22:53.074254,-349.0
2023-08-21 10:22:53.081943,-264.0
2023-08-21 10:22:53.089631,-116.0
2023-08-21 10:22:53.097320,-238.0
2023-08-21 10:22:53.105009,-252.0
2023-08-21 10:22:53.112697,-177.0
2023-08-21 10:22:53.120386,-194.0
2023-08-21 10:22:53.128075,-201.0
2023-08-21 10:22:53.135764,-165.0
2023-08-21 10:22:53.143452,-155.0
2023-08-21 10:22:53.151141,-155.0
2023-08-21 10:22:53.158830,-136.0
2023-08-21 10:22:53.166519,-126.0
2023-08-21 10:22:53.174207,-121.0
2023-08-21 10:22:53.181896,-111.0
2023-08-21 10:22:53.189585,-94.0
2023-08-21 10:22:53.197273,-82.0
2023-08-21 10:22:53.204962,-72.0
2023-08-21 10:22:53.212651,-60.0
2023-08-21 10:22:53.220340,-46.0
2023-08-21 10:22:53.228028,-34.0
2023-08-21 10:22:53.235717,-21.0
2023-08-21 10:22:53.243406,-7.0
2023-08-21 10:22:53.251095,4.0
2023-08-21 10:22:53.258783,14.0
2023-08-21 10:22:53.266472,29.0
2023-08-21 10:22:53.274161,36.0
2023-08-21 10:22:53.281850,41.0
2023-08-21 10:22:53.289538,43.0
2023-08-21 10:22:53.297227,43.0
2023-08-21 10:22:53.304916,43.0
2023-08-21 10:22:53.312604,41.0
2023-08-21 10:22:53.320293,34.0
2023-08-21 10:22:53.327982,19.0
2023-08-21 10:22:53.335671,-7.0
2023-08-21 10:22:53.343359,-43.0
2023-08-21 10:22:53.351048,-72.0
2023-08-21 10:22:53.358737,-94.0
2023-08-21 10:22:53.366426,-116.0
2023-08-21 10:22:53.374114,-131.0
2023-08-21 10:22:53.381803,-140.0
2023-08-21 10:22:53.389492,-150.0
2023-08-21 10:22:53.397180,-155.0
2023-08-21 10:22:53.404869,-145.0
2023-08-21 10:22:53.412558,-136.0
2023-08-21 10:22:53.420247,-136.0
2023-08-21 10:22:53.427935,-128.0
2023-08-21 10:22:53.435624,-121.0
2023-08-21 10:22:53.443313,-116.0
2023-08-21 10:22:53.451002,-111.0
2023-08-21 10:22:53.458690,-109.0
2023-08-21 10:22:53.466379,-109.0
2023-08-21 10:22:53.474068,-106.0
2023-08-21 10:22:53.481757,-106.0
2023-08-21 10:22:53.489445,-106.0
2023-08-21 10:22:53.497134,-106.0
2023-08-21 10:22:53.504823,-109.0
2023-08-21 10:22:53.512511,-109.0
2023-08-21 10:22:53.520200,-106.0
2023-08-21 10:22:53.527889,-104.0
2023-08-21 10:22:53.535578,-104.0
2023-08-21 10:22:53.543266,-102.0
2023-08-21 10:22:53.550955,-97.0
2023-08-21 10:22:53.558644,-102.0
2023-08-21 10:22:53.566333,-102.0
2023-08-21 10:22:53.574021,-97.0
2023-08-21 10:22:53.581710,-102.0
2023-08-21 10:22:53.589399,-106.0
2023-08-21 10:22:53.597087,-104.0
2023-08-21 10:22:53.604776,-102.0
2023-08-21 10:22:53.612465,-102.0
2023-08-21 10:22:53.620154,-97.0
2023-08-21 10:22:53.627842,-92.0
2023-08-21 10:22:53.635531,-92.0
2023-08-21 10:22:53.643220,-89.0
2023-08-21 10:22:53.650909,-94.0
2023-08-21 10:22:53.658597,-99.0
2023-08-21 10:22:53.666286,-97.0
2023-08-21 10:22:53.673975,-77.0
2023-08-21 10:22:53.681664,-53.0
2023-08-21 10:22:53.689352,-38.0
2023-08-21 10:22:53.697041,-31.0
2023-08-21 10:22:53.704730,-34.0
2023-08-21 10:22:53.712418,-60.0
2023-08-21 10:22:53.720107,-89.0
2023-08-21 10:22:53.727796,-89.0
2023-08-21 10:22:53.735485,-82.0
2023-08-21 10:22:53.743173,-85.0
2023-08-21 10:22:53.750862,-87.0
2023-08-21 10:22:53.758551,-87.0
2023-08-21 10:22:53.766240,-85.0
2023-08-21 10:22:53.773928,-92.0
2023-08-21 10:22:53.781617,-111.0
2023-08-21 10:22:53.789306,-99.0
2023-08-21 10:22:53.796994,99.0
2023-08-21 10:22:53.804683,597.0
2023-08-21 10:22:53.812372,1127.0
2023-08-21 10:22:53.820061,1093.0
2023-08-21 10:22:53.827749,332.0
2023-08-21 10:22:53.835438,-332.0
2023-08-21 10:22:53.843127,-276.0
2023-08-21 10:22:53.850816,-94.0
2023-08-21 10:22:53.858504,-206.0
2023-08-21 10:22:53.866193,-242.0
2023-08-21 10:22:53.873882,-165.0
2023-08-21 10:22:53.881571,-184.0
2023-08-21 10:22:53.889259,-213.0
2023-08-21 10:22:53.896948,-177.0
2023-08-21 10:22:53.904637,-157.0
2023-08-21 10:22:53.912325,-160.0
2023-08-21 10:22:53.920014,-145.0
2023-08-21 10:22:53.927703,-140.0
2023-08-21 10:22:53.935392,-143.0
2023-08-21 10:22:53.943080,-128.0
2023-08-21 10:22:53.950769,-109.0
2023-08-21 10:22:53.958458,-99.0
2023-08-21 10:22:53.966147,-92.0
2023-08-21 10:22:53.973835,-92.0
2023-08-21 10:22:53.981524,-85.0
2023-08-21 10:22:53.989213,-65.0
2023-08-21 10:22:53.996901,-48.0
2023-08-21 10:22:54.004590,-38.0
2023-08-21 10:22:54.012279,-26.0
2023-08-21 10:22:54.019968,-19.0
2023-08-21 10:22:54.027656,-14.0
2023-08-21 10:22:54.035345,-2.0
2023-08-21 10:22:54.043034,9.0
2023-08-21 10:22:54.050723,9.0
2023-08-21 10:22:54.058411,9.0
2023-08-21 10:22:54.066100,0.0
2023-08-21 10:22:54.073789,-9.0
2023-08-21 10:22:54.081478,-14.0
2023-08-21 10:22:54.089166,-29.0
2023-08-21 10:22:54.096855,-55.0
2023-08-21 10:22:54.104544,-85.0
2023-08-21 10:22:54.112232,-123.0
2023-08-21 10:22:54.119921,-153.0
2023-08-21 10:22:54.127610,-165.0
2023-08-21 10:22:54.135299,-177.0
2023-08-21 10:22:54.142987,-184.0
2023-08-21 10:22:54.150676,-189.0
2023-08-21 10:22:54.158365,-191.0
2023-08-21 10:22:54.166054,-184.0
2023-08-21 10:22:54.173742,-172.0
2023-08-21 10:22:54.181431,-165.0
2023-08-21 10:22:54.189120,-157.0
2023-08-21 10:22:54.196808,-150.0
2023-08-21 10:22:54.204497,-148.0
2023-08-21 10:22:54.212186,-143.0
2023-08-21 10:22:54.219875,-136.0
2023-08-21 10:22:54.227563,-131.0
2023-08-21 10:22:54.235252,-128.0
2023-08-21 10:22:54.242941,-128.0
2023-08-21 10:22:54.250630,-133.0
2023-08-21 10:22:54.258318,-128.0
2023-08-21 10:22:54.266007,-121.0
2023-08-21 10:22:54.273696,-119.0
2023-08-21 10:22:54.281385,-119.0
2023-08-21 10:22:54.289073,-121.0
2023-08-21 10:22:54.296762,-119.0
2023-08-21 10:22:54.304451,-111.0
2023-08-21 10:22:54.312139,-111.0
2023-08-21 10:22:54.319828,-116.0
2023-08-21 10:22:54.327517,-116.0
2023-08-21 10:22:54.335206,-109.0
2023-08-21 10:22:54.342894,-106.0
2023-08-21 10:22:54.350583,-104.0
2023-08-21 10:22:54.358272,-99.0
2023-08-21 10:22:54.365961,-94.0
2023-08-21 10:22:54.373649,-92.0
2023-08-21 10:22:54.381338,-92.0
2023-08-21 10:22:54.389027,-89.0
2023-08-21 10:22:54.396715,-85.0
2023-08-21 10:22:54.404404,-80.0
2023-08-21 10:22:54.412093,-80.0
2023-08-21 10:22:54.419782,-82.0
2023-08-21 10:22:54.427470,-87.0
2023-08-21 10:22:54.435159,-87.0
2023-08-21 10:22:54.442848,-65.0
2023-08-21 10:22:54.450537,-36.0
2023-08-21 10:22:54.458225,-26.0
2023-08-21 10:22:54.465914,-21.0
2023-08-21 10:22:54.473603,-26.0
2023-08-21 10:22:54.481292,-51.0
2023-08-21 10:22:54.488980,-77.0
2023-08-21 10:22:54.496669,-77.0
2023-08-21 10:22:54.504358,-72.0
2023-08-21 10:22:54.512046,-82.0
2023-08-21 10:22:54.519735,-97.0
2023-08-21 10:22:54.527424,-94.0
2023-08-21 10:22:54.535113,-87.0
2023-08-21 10:22:54.542801,-94.0
2023-08-21 10:22:54.550490,-114.0
2023-08-21 10:22:54.558179,-68.0
2023-08-21 10:22:54.565868,218.0
2023-08-21 10:22:54.573556,791.0
2023-08-21 10:22:54.581245,1243.0
2023-08-21 10:22:54.588934,969.0
2023-08-21 10:22:54.596622,85.0
2023-08-21 10:22:54.604311,-412.0
2023-08-21 10:22:54.612000,-221.0
2023-08-21 10:22:54.619689,-121.0
2023-08-21 10:22:54.627377,-257.0
2023-08-21 10:22:54.635066,-235.0
2023-08-21 10:22:54.642755,-170.0
2023-08-21 10:22:54.650444,-199.0
2023-08-21 10:22:54.658132,-199.0
2023-08-21 10:22:54.665821,-162.0
2023-08-21 10:22:54.673510,-157.0
2023-08-21 10:22:54.681199,-150.0
2023-08-21 10:22:54.688887,-131.0
2023-08-21 10:22:54.696576,-123.0
2023-08-21 10:22:54.704265,-119.0
2023-08-21 10:22:54.711953,-104.0
2023-08-21 10:22:54.719642,-87.0
2023-08-21 10:22:54.727331,-77.0
2023-08-21 10:22:54.735020,-68.0
2023-08-21 10:22:54.742708,-55.0
2023-08-21 10:22:54.750397,-41.0
2023-08-21 10:22:54.758086,-26.0
2023-08-21 10:22:54.765775,-14.0
2023-08-21 10:22:54.773463,0.0
2023-08-21 10:22:54.781152,14.0
2023-08-21 10:22:54.788841,26.0
2023-08-21 10:22:54.796529,38.0
2023-08-21 10:22:54.804218,46.0
2023-08-21 10:22:54.811907,46.0
2023-08-21 10:22:54.819596,38.0
2023-08-21 10:22:54.827284,38.0
2023-08-21 10:22:54.834973,36.0
2023-08-21 10:22:54.842662,31.0
2023-08-21 10:22:54.850351,21.0
2023-08-21 10:22:54.858039,7.0
2023-08-21 10:22:54.865728,-14.0
2023-08-21 10:22:54.873417,-46.0
2023-08-21 10:22:54.881106,-75.0
2023-08-21 10:22:54.888794,-99.0
2023-08-21 10:22:54.896483,-121.0
2023-08-21 10:22:54.904172,-131.0
2023-08-21 10:22:54.911860,-136.0
2023-08-21 10:22:54.919549,-138.0
2023-08-21 10:22:54.927238,-136.0
2023-08-21 10:22:54.934927,-131.0
2023-08-21 10:22:54.942615,-126.0
2023-08-21 10:22:54.950304,-116.0
2023-08-21 10:22:54.957993,-109.0
2023-08-21 10:22:54.965682,-106.0
2023-08-21 10:22:54.973370,-99.0
2023-08-21 10:22:54.981059,-94.0
2023-08-21 10:22:54.988748,-92.0
2023-08-21 10:22:54.996436,-92.0
2023-08-21 10:22:55.004125,-89.0
2023-08-21 10:22:55.011814,-92.0
2023-08-21 10:22:55.019503,-94.0
2023-08-21 10:22:55.027191,-94.0
2023-08-21 10:22:55.034880,-97.0
2023-08-21 10:22:55.042569,-99.0
2023-08-21 10:22:55.050258,-97.0
2023-08-21 10:22:55.057946,-97.0
2023-08-21 10:22:55.065635,-102.0
2023-08-21 10:22:55.073324,-104.0
2023-08-21 10:22:55.081013,-102.0
2023-08-21 10:22:55.088701,-99.0
2023-08-21 10:22:55.096390,-104.0
2023-08-21 10:22:55.104079,-111.0
2023-08-21 10:22:55.111767,-106.0
2023-08-21 10:22:55.119456,-104.0
2023-08-21 10:22:55.127145,-104.0
2023-08-21 10:22:55.134834,-102.0
2023-08-21 10:22:55.142522,-99.0
2023-08-21 10:22:55.150211,-99.0
2023-08-21 10:22:55.157900,-97.0
2023-08-21 10:22:55.165589,-97.0
2023-08-21 10:22:55.173277,-97.0
2023-08-21 10:22:55.180966,-92.0
2023-08-21 10:22:55.188655,-72.0
2023-08-21 10:22:55.196344,-53.0
2023-08-21 10:22:55.204032,-38.0
2023-08-21 10:22:55.211721,-29.0
2023-08-21 10:22:55.219410,-41.0
2023-08-21 10:22:55.227098,-77.0
2023-08-21 10:22:55.234787,-111.0
2023-08-21 10:22:55.242476,-116.0
2023-08-21 10:22:55.250165,-111.0
2023-08-21 10:22:55.257853,-111.0
2023-08-21 10:22:55.265542,-109.0
2023-08-21 10:22:55.273231,-106.0
2023-08-21 10:22:55.280920,-109.0
2023-08-21 10:22:55.288608,-119.0
2023-08-21 10:22:55.296297,-128.0
2023-08-21 10:22:55.303986,-60.0
2023-08-21 10:22:55.311674,276.0
2023-08-21 10:22:55.319363,879.0
2023-08-21 10:22:55.327052,1241.0
2023-08-21 10:22:55.334741,821.0
2023-08-21 10:22:55.342429,-51.0
2023-08-21 10:22:55.350118,-393.0
2023-08-21 10:22:55.357807,-170.0
2023-08-21 10:22:55.365496,-143.0
2023-08-21 10:22:55.373184,-272.0
2023-08-21 10:22:55.380873,-223.0
2023-08-21 10:22:55.388562,-174.0
2023-08-21 10:22:55.396251,-208.0
2023-08-21 10:22:55.403939,-199.0
2023-08-21 10:22:55.411628,-167.0
2023-08-21 10:22:55.419317,-167.0
2023-08-21 10:22:55.427005,-160.0
2023-08-21 10:22:55.434694,-140.0
2023-08-21 10:22:55.442383,-133.0
2023-08-21 10:22:55.450072,-128.0
2023-08-21 10:22:55.457760,-116.0
2023-08-21 10:22:55.465449,-104.0
2023-08-21 10:22:55.473138,-92.0
2023-08-21 10:22:55.480827,-77.0
2023-08-21 10:22:55.488515,-68.0
2023-08-21 10:22:55.496204,-55.0
2023-08-21 10:22:55.503893,-43.0
2023-08-21 10:22:55.511581,-31.0
2023-08-21 10:22:55.519270,-19.0
2023-08-21 10:22:55.526959,-2.0
2023-08-21 10:22:55.534648,7.0
2023-08-21 10:22:55.542336,14.0
2023-08-21 10:22:55.550025,19.0
2023-08-21 10:22:55.557714,19.0
2023-08-21 10:22:55.565403,21.0
2023-08-21 10:22:55.573091,21.0
2023-08-21 10:22:55.580780,19.0
2023-08-21 10:22:55.588469,9.0
2023-08-21 10:22:55.596158,-4.0
2023-08-21 10:22:55.603846,-31.0
2023-08-21 10:22:55.611535,-63.0
2023-08-21 10:22:55.619224,-89.0
2023-08-21 10:22:55.626912,-116.0
2023-08-21 10:22:55.634601,-148.0
2023-08-21 10:22:55.642290,-174.0
2023-08-21 10:22:55.649979,-184.0
2023-08-21 10:22:55.657667,-182.0
2023-08-21 10:22:55.665356,-177.0
2023-08-21 10:22:55.673045,-174.0
2023-08-21 10:22:55.680734,-174.0
2023-08-21 10:22:55.688422,-177.0
2023-08-21 10:22:55.696111,-167.0
2023-08-21 10:22:55.703800,-157.0
2023-08-21 10:22:55.711488,-150.0
2023-08-21 10:22:55.719177,-145.0
2023-08-21 10:22:55.726866,-150.0
2023-08-21 10:22:55.734555,-160.0
2023-08-21 10:22:55.742243,-155.0
2023-08-21 10:22:55.749932,-143.0
2023-08-21 10:22:55.757621,-140.0
2023-08-21 10:22:55.765310,-145.0
2023-08-21 10:22:55.772998,-153.0
2023-08-21 10:22:55.780687,-160.0
2023-08-21 10:22:55.788376,-155.0
2023-08-21 10:22:55.796065,-150.0
2023-08-21 10:22:55.803753,-153.0
2023-08-21 10:22:55.811442,-153.0
2023-08-21 10:22:55.819131,-153.0
2023-08-21 10:22:55.826819,-150.0
2023-08-21 10:22:55.834508,-143.0
2023-08-21 10:22:55.842197,-136.0
2023-08-21 10:22:55.849886,-133.0
2023-08-21 10:22:55.857574,-131.0
2023-08-21 10:22:55.865263,-128.0
2023-08-21 10:22:55.872952,-126.0
2023-08-21 10:22:55.880641,-121.0
2023-08-21 10:22:55.888329,-116.0
2023-08-21 10:22:55.896018,-109.0
2023-08-21 10:22:55.903707,-109.0
2023-08-21 10:22:55.911395,-111.0
2023-08-21 10:22:55.919084,-109.0
2023-08-21 10:22:55.926773,-106.0
2023-08-21 10:22:55.934462,-102.0
2023-08-21 10:22:55.942150,-87.0
2023-08-21 10:22:55.949839,-63.0
2023-08-21 10:22:55.957528,-43.0
2023-08-21 10:22:55.965217,-36.0
2023-08-21 10:22:55.972905,-36.0
2023-08-21 10:22:55.980594,-51.0
2023-08-21 10:22:55.988283,-80.0
2023-08-21 10:22:55.995972,-92.0
2023-08-21 10:22:56.003660,-87.0
2023-08-21 10:22:56.011349,-87.0
2023-08-21 10:22:56.019038,-87.0
2023-08-21 10:22:56.026726,-87.0
2023-08-21 10:22:56.034415,-82.0
2023-08-21 10:22:56.042104,-87.0
2023-08-21 10:22:56.049793,-106.0
2023-08-21 10:22:56.057481,-111.0
2023-08-21 10:22:56.065170,29.0
2023-08-21 10:22:56.072859,478.0
2023-08-21 10:22:56.080548,1066.0
2023-08-21 10:22:56.088236,1207.0
2023-08-21 10:22:56.095925,558.0
2023-08-21 10:22:56.103614,-223.0
2023-08-21 10:22:56.111302,-315.0
2023-08-21 10:22:56.118991,-102.0
2023-08-21 10:22:56.126680,-174.0
2023-08-21 10:22:56.134369,-255.0
2023-08-21 10:22:56.142057,-184.0
2023-08-21 10:22:56.149746,-174.0
2023-08-21 10:22:56.157435,-199.0
2023-08-21 10:22:56.165124,-170.0
2023-08-21 10:22:56.172812,-155.0
2023-08-21 10:22:56.180501,-170.0
2023-08-21 10:22:56.188190,-167.0
2023-08-21 10:22:56.195879,-145.0
2023-08-21 10:22:56.203567,-136.0
2023-08-21 10:22:56.211256,-128.0
2023-08-21 10:22:56.218945,-119.0
2023-08-21 10:22:56.226633,-116.0
2023-08-21 10:22:56.234322,-114.0
2023-08-21 10:22:56.242011,-94.0
2023-08-21 10:22:56.249700,-77.0
2023-08-21 10:22:56.257388,-68.0
2023-08-21 10:22:56.265077,-60.0
2023-08-21 10:22:56.272766,-55.0
2023-08-21 10:22:56.280455,-46.0
2023-08-21 10:22:56.288143,-29.0
2023-08-21 10:22:56.295832,-19.0
2023-08-21 10:22:56.303521,-12.0
2023-08-21 10:22:56.311209,-7.0
2023-08-21 10:22:56.318898,-12.0
2023-08-21 10:22:56.326587,-12.0
2023-08-21 10:22:56.334276,-4.0
2023-08-21 10:22:56.341964,-4.0
2023-08-21 10:22:56.349653,-7.0
2023-08-21 10:22:56.357342,-17.0
2023-08-21 10:22:56.365031,-34.0
2023-08-21 10:22:56.372719,-63.0
2023-08-21 10:22:56.380408,-92.0
2023-08-21 10:22:56.388097,-116.0
2023-08-21 10:22:56.395786,-133.0
2023-08-21 10:22:56.403474,-150.0
2023-08-21 10:22:56.411163,-157.0
2023-08-21 10:22:56.418852,-157.0
2023-08-21 10:22:56.426540,-153.0
2023-08-21 10:22:56.434229,-145.0
2023-08-21 10:22:56.441918,-138.0
2023-08-21 10:22:56.449607,-133.0
2023-08-21 10:22:56.457295,-128.0
2023-08-21 10:22:56.464984,-123.0
2023-08-21 10:22:56.472673,-116.0
2023-08-21 10:22:56.480362,-111.0
2023-08-21 10:22:56.488050,-109.0
2023-08-21 10:22:56.495739,-109.0
2023-08-21 10:22:56.503428,-109.0
2023-08-21 10:22:56.511116,-106.0
2023-08-21 10:22:56.518805,-104.0
2023-08-21 10:22:56.526494,-106.0
2023-08-21 10:22:56.534183,-106.0
2023-08-21 10:22:56.541871,-109.0
2023-08-21 10:22:56.549560,-109.0
2023-08-21 10:22:56.557249,-109.0
2023-08-21 10:22:56.564938,-104.0
2023-08-21 10:22:56.572626,-104.0
2023-08-21 10:22:56.580315,-104.0
2023-08-21 10:22:56.588004,-102.0
2023-08-21 10:22:56.595693,-99.0
2023-08-21 10:22:56.603381,-102.0
2023-08-21 10:22:56.611070,-106.0
2023-08-21 10:22:56.618759,-106.0
2023-08-21 10:22:56.626447,-104.0
2023-08-21 10:22:56.634136,-102.0
2023-08-21 10:22:56.641825,-99.0
2023-08-21 10:22:56.649514,-97.0
2023-08-21 10:22:56.657202,-94.0
2023-08-21 10:22:56.664891,-92.0
2023-08-21 10:22:56.672580,-89.0
2023-08-21 10:22:56.680269,-87.0
2023-08-21 10:22:56.687957,-87.0
2023-08-21 10:22:56.695646,-87.0
2023-08-21 10:22:56.703335,-87.0
2023-08-21 10:22:56.711023,-87.0
2023-08-21 10:22:56.718712,-77.0
2023-08-21 10:22:56.726401,-55.0
2023-08-21 10:22:56.734090,-38.0
2023-08-21 10:22:56.741778,-36.0
2023-08-21 10:22:56.749467,-43.0
2023-08-21 10:22:56.757156,-68.0
2023-08-21 10:22:56.764845,-109.0
2023-08-21 10:22:56.772533,-119.0
2023-08-21 10:22:56.780222,-111.0
2023-08-21 10:22:56.787911,-114.0
2023-08-21 10:22:56.795600,-119.0
2023-08-21 10:22:56.803288,-111.0
2023-08-21 10:22:56.810977,-111.0
2023-08-21 10:22:56.818666,-119.0
2023-08-21 10:22:56.826354,-131.0
2023-08-21 10:22:56.834043,-121.0
2023-08-21 10:22:56.841732,70.0
2023-08-21 10:22:56.849421,575.0
2023-08-21 10:22:56.857109,1122.0
2023-08-21 10:22:56.864798,1102.0
2023-08-21 10:22:56.872487,349.0
2023-08-21 10:22:56.880176,-323.0
2023-08-21 10:22:56.887864,-279.0
2023-08-21 10:22:56.895553,-102.0
2023-08-21 10:22:56.903242,-213.0
2023-08-21 10:22:56.910930,-250.0
2023-08-21 10:22:56.918619,-174.0
2023-08-21 10:22:56.926308,-184.0
2023-08-21 10:22:56.933997,-199.0
2023-08-21 10:22:56.941685,-165.0
2023-08-21 10:22:56.949374,-150.0
2023-08-21 10:22:56.957063,-153.0
2023-08-21 10:22:56.964752,-138.0
2023-08-21 10:22:56.972440,-123.0
2023-08-21 10:22:56.980129,-119.0
2023-08-21 10:22:56.987818,-111.0
2023-08-21 10:22:56.995507,-97.0
2023-08-21 10:22:57.003195,-85.0
2023-08-21 10:22:57.010884,-72.0
2023-08-21 10:22:57.018573,-60.0
2023-08-21 10:22:57.026261,-53.0
2023-08-21 10:22:57.033950,-43.0
2023-08-21 10:22:57.041639,-29.0
2023-08-21 10:22:57.049328,-14.0
2023-08-21 10:22:57.057016,-2.0
2023-08-21 10:22:57.064705,12.0
2023-08-21 10:22:57.072394,21.0
2023-08-21 10:22:57.080083,26.0
2023-08-21 10:22:57.087771,31.0
2023-08-21 10:22:57.095460,36.0
2023-08-21 10:22:57.103149,36.0
2023-08-21 10:22:57.110837,31.0
2023-08-21 10:22:57.118526,24.0
2023-08-21 10:22:57.126215,14.0
2023-08-21 10:22:57.133904,2.0
2023-08-21 10:22:57.141592,-17.0
2023-08-21 10:22:57.149281,-46.0
2023-08-21 10:22:57.156970,-75.0
2023-08-21 10:22:57.164659,-99.0
2023-08-21 10:22:57.172347,-116.0
2023-08-21 10:22:57.180036,-131.0
2023-08-21 10:22:57.187725,-140.0
2023-08-21 10:22:57.195414,-140.0
2023-08-21 10:22:57.203102,-138.0
2023-08-21 10:22:57.210791,-133.0
2023-08-21 10:22:57.218480,-126.0
2023-08-21 10:22:57.226168,-121.0
2023-08-21 10:22:57.233857,-116.0
2023-08-21 10:22:57.241546,-114.0
2023-08-21 10:22:57.249235,-111.0
2023-08-21 10:22:57.256923,-116.0
2023-08-21 10:22:57.264612,-126.0
2023-08-21 10:22:57.272301,-121.0
2023-08-21 10:22:57.279990,-119.0
2023-08-21 10:22:57.287678,-126.0
2023-08-21 10:22:57.295367,-128.0
2023-08-21 10:22:57.303056,-123.0
2023-08-21 10:22:57.310744,-126.0
2023-08-21 10:22:57.318433,-126.0
2023-08-21 10:22:57.326122,-123.0
2023-08-21 10:22:57.333811,-123.0
2023-08-21 10:22:57.341499,-126.0
2023-08-21 10:22:57.349188,-123.0
2023-08-21 10:22:57.356877,-123.0
2023-08-21 10:22:57.364566,-121.0
2023-08-21 10:22:57.372254,-114.0
2023-08-21 10:22:57.379943,-111.0
2023-08-21 10:22:57.387632,-111.0
2023-08-21 10:22:57.395321,-109.0
2023-08-21 10:22:57.403009,-104.0
2023-08-21 10:22:57.410698,-102.0
2023-08-21 10:22:57.418387,-99.0
2023-08-21 10:22:57.426075,-99.0
2023-08-21 10:22:57.433764,-97.0
2023-08-21 10:22:57.441453,-94.0
2023-08-21 10:22:57.449142,-92.0
2023-08-21 10:22:57.456830,-92.0
2023-08-21 10:22:57.464519,-85.0
2023-08-21 10:22:57.472208,-82.0
2023-08-21 10:22:57.479897,-85.0
2023-08-21 10:22:57.487585,-87.0
2023-08-21 10:22:57.495274,-87.0
2023-08-21 10:22:57.502963,-89.0
2023-08-21 10:22:57.510651,-87.0
2023-08-21 10:22:57.518340,-72.0
2023-08-21 10:22:57.526029,-48.0
2023-08-21 10:22:57.533718,-36.0
2023-08-21 10:22:57.541406,-31.0
2023-08-21 10:22:57.549095,-34.0
2023-08-21 10:22:57.556784,-58.0
2023-08-21 10:22:57.564473,-89.0
2023-08-21 10:22:57.572161,-92.0
2023-08-21 10:22:57.579850,-82.0
2023-08-21 10:22:57.587539,-85.0
2023-08-21 10:22:57.595228,-89.0
2023-08-21 10:22:57.602916,-85.0
2023-08-21 10:22:57.610605,-82.0
2023-08-21 10:22:57.618294,-89.0
2023-08-21 10:22:57.625982,-114.0
2023-08-21 10:22:57.633671,-102.0
2023-08-21 10:22:57.641360,121.0
2023-08-21 10:22:57.649049,682.0
2023-08-21 10:22:57.656737,1248.0
2023-08-21 10:22:57.664426,1151.0
2023-08-21 10:22:57.672115,301.0
2023-08-21 10:22:57.679804,-364.0
2023-08-21 10:22:57.687492,-264.0
2023-08-21 10:22:57.695181,-97.0
2023-08-21 10:22:57.702870,-228.0
2023-08-21 10:22:57.710558,-247.0
2023-08-21 10:22:57.718247,-167.0
2023-08-21 10:22:57.725936,-187.0
2023-08-21 10:22:57.733625,-201.0
2023-08-21 10:22:57.741313,-160.0
2023-08-21 10:22:57.749002,-150.0
2023-08-21 10:22:57.756691,-153.0
2023-08-21 10:22:57.764380,-138.0
2023-08-21 10:22:57.772068,-126.0
2023-08-21 10:22:57.779757,-121.0
2023-08-21 10:22:57.787446,-106.0
2023-08-21 10:22:57.795135,-94.0
2023-08-21 10:22:57.802823,-85.0
2023-08-21 10:22:57.810512,-70.0
2023-08-21 10:22:57.818201,-58.0
2023-08-21 10:22:57.825889,-46.0
2023-08-21 10:22:57.833578,-31.0
2023-08-21 10:22:57.841267,-14.0
2023-08-21 10:22:57.848956,-4.0
2023-08-21 10:22:57.856644,9.0
2023-08-21 10:22:57.864333,26.0
2023-08-21 10:22:57.872022,38.0
2023-08-21 10:22:57.879711,48.0
2023-08-21 10:22:57.887399,53.0
2023-08-21 10:22:57.895088,46.0
2023-08-21 10:22:57.902777,43.0
2023-08-21 10:22:57.910466,46.0
2023-08-21 10:22:57.918154,41.0
2023-08-21 10:22:57.925843,29.0
2023-08-21 10:22:57.933532,7.0
2023-08-21 10:22:57.941220,-19.0
2023-08-21 10:22:57.948909,-46.0
2023-08-21 10:22:57.956598,-72.0
2023-08-21 10:22:57.964287,-104.0
2023-08-21 10:22:57.971975,-126.0
2023-08-21 10:22:57.979664,-150.0
2023-08-21 10:22:57.987353,-167.0
2023-08-21 10:22:57.995042,-162.0
2023-08-21 10:22:58.002730,-155.0
2023-08-21 10:22:58.010419,-155.0
2023-08-21 10:22:58.018108,-153.0
2023-08-21 10:22:58.025796,-148.0
2023-08-21 10:22:58.033485,-138.0
2023-08-21 10:22:58.041174,-128.0
2023-08-21 10:22:58.048863,-119.0
2023-08-21 10:22:58.056551,-114.0
2023-08-21 10:22:58.064240,-111.0
2023-08-21 10:22:58.071929,-109.0
2023-08-21 10:22:58.079618,-109.0
2023-08-21 10:22:58.087306,-106.0
2023-08-21 10:22:58.094995,-104.0
2023-08-21 10:22:58.102684,-104.0
2023-08-21 10:22:58.110373,-109.0
2023-08-21 10:22:58.118061,-111.0
2023-08-21 10:22:58.125750,-114.0
2023-08-21 10:22:58.133439,-121.0
2023-08-21 10:22:58.141127,-123.0
2023-08-21 10:22:58.148816,-119.0
2023-08-21 10:22:58.156505,-119.0
2023-08-21 10:22:58.164194,-119.0
2023-08-21 10:22:58.171882,-116.0
2023-08-21 10:22:58.179571,-111.0
2023-08-21 10:22:58.187260,-111.0
2023-08-21 10:22:58.194949,-109.0
2023-08-21 10:22:58.202637,-104.0
2023-08-21 10:22:58.210326,-102.0
2023-08-21 10:22:58.218015,-99.0
2023-08-21 10:22:58.225703,-94.0
2023-08-21 10:22:58.233392,-92.0
2023-08-21 10:22:58.241081,-89.0
2023-08-21 10:22:58.248770,-89.0
2023-08-21 10:22:58.256458,-92.0
2023-08-21 10:22:58.264147,-92.0
2023-08-21 10:22:58.271836,-92.0
2023-08-21 10:22:58.279525,-97.0
2023-08-21 10:22:58.287213,-99.0
2023-08-21 10:22:58.294902,-80.0
2023-08-21 10:22:58.302591,-51.0
2023-08-21 10:22:58.310280,-34.0
2023-08-21 10:22:58.317968,-31.0
2023-08-21 10:22:58.325657,-34.0
2023-08-21 10:22:58.333346,-58.0
2023-08-21 10:22:58.341034,-87.0
2023-08-21 10:22:58.348723,-89.0
2023-08-21 10:22:58.356412,-82.0
2023-08-21 10:22:58.364101,-85.0
2023-08-21 10:22:58.371789,-85.0
2023-08-21 10:22:58.379478,-80.0
2023-08-21 10:22:58.387167,-80.0
2023-08-21 10:22:58.394856,-87.0
2023-08-21 10:22:58.402544,-106.0
2023-08-21 10:22:58.410233,-89.0
2023-08-21 10:22:58.417922,131.0
2023-08-21 10:22:58.425610,660.0
2023-08-21 10:22:58.433299,1173.0
2023-08-21 10:22:58.440988,1061.0
2023-08-21 10:22:58.448677,257.0
2023-08-21 10:22:58.456365,-352.0
2023-08-21 10:22:58.464054,-245.0
2023-08-21 10:22:58.471743,-94.0
2023-08-21 10:22:58.479432,-223.0
2023-08-21 10:22:58.487120,-240.0
2023-08-21 10:22:58.494809,-162.0
2023-08-21 10:22:58.502498,-179.0
2023-08-21 10:22:58.510187,-194.0
2023-08-21 10:22:58.517875,-160.0
2023-08-21 10:22:58.525564,-150.0
2023-08-21 10:22:58.533253,-150.0
2023-08-21 10:22:58.540941,-133.0
2023-08-21 10:22:58.548630,-121.0
2023-08-21 10:22:58.556319,-114.0
2023-08-21 10:22:58.564008,-102.0
2023-08-21 10:22:58.571696,-92.0
2023-08-21 10:22:58.579385,-80.0
2023-08-21 10:22:58.587074,-63.0
2023-08-21 10:22:58.594763,-48.0
2023-08-21 10:22:58.602451,-36.0
2023-08-21 10:22:58.610140,-26.0
2023-08-21 10:22:58.617829,-14.0
2023-08-21 10:22:58.625517,0.0
2023-08-21 10:22:58.633206,7.0
2023-08-21 10:22:58.640895,12.0
2023-08-21 10:22:58.648584,19.0
2023-08-21 10:22:58.656272,29.0
2023-08-21 10:22:58.663961,34.0
2023-08-21 10:22:58.671650,36.0
2023-08-21 10:22:58.679339,38.0
2023-08-21 10:22:58.687027,36.0
2023-08-21 10:22:58.694716,31.0
2023-08-21 10:22:58.702405,26.0
2023-08-21 10:22:58.710094,17.0
2023-08-21 10:22:58.717782,-2.0
2023-08-21 10:22:58.725471,-34.0
2023-08-21 10:22:58.733160,-63.0
2023-08-21 10:22:58.740848,-87.0
2023-08-21 10:22:58.748537,-109.0
2023-08-21 10:22:58.756226,-128.0
2023-08-21 10:22:58.763915,-133.0
2023-08-21 10:22:58.771603,-133.0
2023-08-21 10:22:58.779292,-131.0
2023-08-21 10:22:58.786981,-126.0
2023-08-21 10:22:58.794670,-116.0
2023-08-21 10:22:58.802358,-109.0
2023-08-21 10:22:58.810047,-104.0
2023-08-21 10:22:58.817736,-102.0
2023-08-21 10:22:58.825424,-97.0
2023-08-21 10:22:58.833113,-94.0
2023-08-21 10:22:58.840802,-94.0
2023-08-21 10:22:58.848491,-92.0
2023-08-21 10:22:58.856179,-89.0
2023-08-21 10:22:58.863868,-92.0
2023-08-21 10:22:58.871557,-94.0
2023-08-21 10:22:58.879246,-94.0
2023-08-21 10:22:58.886934,-97.0
2023-08-21 10:22:58.894623,-94.0
2023-08-21 10:22:58.902312,-92.0
2023-08-21 10:22:58.910001,-92.0
2023-08-21 10:22:58.917689,-92.0
2023-08-21 10:22:58.925378,-94.0
2023-08-21 10:22:58.933067,-92.0
2023-08-21 10:22:58.940755,-87.0
2023-08-21 10:22:58.948444,-87.0
2023-08-21 10:22:58.956133,-89.0
2023-08-21 10:22:58.963822,-92.0
2023-08-21 10:22:58.971510,-102.0
2023-08-21 10:22:58.979199,-104.0
2023-08-21 10:22:58.986888,-97.0
2023-08-21 10:22:58.994577,-97.0
2023-08-21 10:22:59.002265,-102.0
2023-08-21 10:22:59.009954,-102.0
2023-08-21 10:22:59.017643,-102.0
2023-08-21 10:22:59.025331,-99.0
2023-08-21 10:22:59.033020,-97.0
2023-08-21 10:22:59.040709,-94.0
2023-08-21 10:22:59.048398,-94.0
2023-08-21 10:22:59.056086,-94.0
2023-08-21 10:22:59.063775,-94.0
2023-08-21 10:22:59.071464,-94.0
2023-08-21 10:22:59.079153,-89.0
2023-08-21 10:22:59.086841,-92.0
2023-08-21 10:22:59.094530,-92.0
2023-08-21 10:22:59.102219,-72.0
2023-08-21 10:22:59.109908,-38.0
2023-08-21 10:22:59.117596,-24.0
2023-08-21 10:22:59.125285,-26.0
2023-08-21 10:22:59.132974,-36.0
2023-08-21 10:22:59.140662,-70.0
2023-08-21 10:22:59.148351,-109.0
2023-08-21 10:22:59.156040,-106.0
2023-08-21 10:22:59.163729,-99.0
2023-08-21 10:22:59.171417,-106.0
2023-08-21 10:22:59.179106,-109.0
2023-08-21 10:22:59.186795,-104.0
2023-08-21 10:22:59.194484,-106.0
2023-08-21 10:22:59.202172,-114.0
2023-08-21 10:22:59.209861,-128.0
2023-08-21 10:22:59.217550,-106.0
2023-08-21 10:22:59.225238,114.0
2023-08-21 10:22:59.232927,641.0
2023-08-21 10:22:59.240616,1166.0
2023-08-21 10:22:59.248305,1071.0
2023-08-21 10:22:59.255993,272.0
2023-08-21 10:22:59.263682,-349.0
2023-08-21 10:22:59.271371,-250.0
2023-08-21 10:22:59.279060,-97.0
2023-08-21 10:22:59.286748,-225.0
2023-08-21 10:22:59.294437,-242.0
2023-08-21 10:22:59.302126,-165.0
2023-08-21 10:22:59.309815,-179.0
2023-08-21 10:22:59.317503,-191.0
2023-08-21 10:22:59.325192,-157.0
2023-08-21 10:22:59.332881,-148.0
2023-08-21 10:22:59.340569,-148.0
2023-08-21 10:22:59.348258,-131.0
2023-08-21 10:22:59.355947,-119.0
2023-08-21 10:22:59.363636,-111.0
2023-08-21 10:22:59.371324,-102.0
2023-08-21 10:22:59.379013,-89.0
2023-08-21 10:22:59.386702,-80.0
2023-08-21 10:22:59.394391,-65.0
2023-08-21 10:22:59.402079,-53.0
2023-08-21 10:22:59.409768,-43.0
2023-08-21 10:22:59.417457,-31.0
2023-08-21 10:22:59.425145,-21.0
2023-08-21 10:22:59.432834,-7.0
2023-08-21 10:22:59.440523,4.0
2023-08-21 10:22:59.448212,17.0
2023-08-21 10:22:59.455900,26.0
2023-08-21 10:22:59.463589,34.0
2023-08-21 10:22:59.471278,38.0
2023-08-21 10:22:59.478967,41.0
2023-08-21 10:22:59.486655,43.0
2023-08-21 10:22:59.494344,38.0
2023-08-21 10:22:59.502033,31.0
2023-08-21 10:22:59.509722,21.0
2023-08-21 10:22:59.517410,14.0
2023-08-21 10:22:59.525099,-2.0
2023-08-21 10:22:59.532788,-26.0
2023-08-21 10:22:59.540476,-53.0
2023-08-21 10:22:59.548165,-82.0
2023-08-21 10:22:59.555854,-109.0
2023-08-21 10:22:59.563543,-126.0
2023-08-21 10:22:59.571231,-131.0
2023-08-21 10:22:59.578920,-131.0
2023-08-21 10:22:59.586609,-126.0
2023-08-21 10:22:59.594298,-123.0
2023-08-21 10:22:59.601986,-126.0
2023-08-21 10:22:59.609675,-119.0
2023-08-21 10:22:59.617364,-109.0
2023-08-21 10:22:59.625052,-109.0
2023-08-21 10:22:59.632741,-109.0
2023-08-21 10:22:59.640430,-106.0
2023-08-21 10:22:59.648119,-111.0
2023-08-21 10:22:59.655807,-119.0
2023-08-21 10:22:59.663496,-116.0
2023-08-21 10:22:59.671185,-114.0
2023-08-21 10:22:59.678874,-114.0
2023-08-21 10:22:59.686562,-123.0
2023-08-21 10:22:59.694251,-136.0
2023-08-21 10:22:59.701940,-136.0
2023-08-21 10:22:59.709629,-126.0
2023-08-21 10:22:59.717317,-126.0
2023-08-21 10:22:59.725006,-128.0
2023-08-21 10:22:59.732695,-126.0
2023-08-21 10:22:59.740383,-126.0
2023-08-21 10:22:59.748072,-128.0
2023-08-21 10:22:59.755761,-126.0
2023-08-21 10:22:59.763450,-121.0
2023-08-21 10:22:59.771138,-121.0
2023-08-21 10:22:59.778827,-121.0
2023-08-21 10:22:59.786516,-123.0
2023-08-21 10:22:59.794205,-116.0
2023-08-21 10:22:59.801893,-111.0
2023-08-21 10:22:59.809582,-111.0
2023-08-21 10:22:59.817271,-114.0
2023-08-21 10:22:59.824959,-114.0
2023-08-21 10:22:59.832648,-111.0
2023-08-21 10:22:59.840337,-109.0
2023-08-21 10:22:59.848026,-104.0
2023-08-21 10:22:59.855714,-102.0
2023-08-21 10:22:59.863403,-102.0
2023-08-21 10:22:59.871092,-104.0
2023-08-21 10:22:59.878781,-104.0
2023-08-21 10:22:59.886469,-102.0
2023-08-21 10:22:59.894158,-99.0
2023-08-21 10:22:59.901847,-99.0
2023-08-21 10:22:59.909536,-102.0
2023-08-21 10:22:59.917224,-106.0
2023-08-21 10:22:59.924913,-89.0
2023-08-21 10:22:59.932602,-55.0
2023-08-21 10:22:59.940290,-38.0
2023-08-21 10:22:59.947979,-48.0
2023-08-21 10:22:59.955668,-60.0
2023-08-21 10:22:59.963357,-87.0
2023-08-21 10:22:59.971045,-114.0
2023-08-21 10:22:59.978734,-116.0
2023-08-21 10:22:59.986423,-109.0
2023-08-21 10:22:59.994112,-114.0
2023-08-21 10:23:00.001800,-116.0
2023-08-21 10:23:00.009489,-114.0
2023-08-21 10:23:00.017178,-111.0
2023-08-21 10:23:00.024866,-114.0
2023-08-21 10:23:00.032555,-128.0
2023-08-21 10:23:00.040244,-102.0
2023-08-21 10:23:00.047933,138.0
2023-08-21 10:23:00.055621,677.0
2023-08-21 10:23:00.063310,1168.0
2023-08-21 10:23:00.070999,1017.0
2023-08-21 10:23:00.078688,211.0
2023-08-21 10:23:00.086376,-354.0
2023-08-21 10:23:00.094065,-225.0
2023-08-21 10:23:00.101754,-94.0
2023-08-21 10:23:00.109443,-223.0
2023-08-21 10:23:00.117131,-225.0
2023-08-21 10:23:00.124820,-153.0
2023-08-21 10:23:00.132509,-174.0
2023-08-21 10:23:00.140197,-191.0
2023-08-21 10:23:00.147886,-165.0
2023-08-21 10:23:00.155575,-160.0
2023-08-21 10:23:00.163264,-165.0
2023-08-21 10:23:00.170952,-145.0
2023-08-21 10:23:00.178641,-133.0
2023-08-21 10:23:00.186330,-131.0
2023-08-21 10:23:00.194019,-119.0
2023-08-21 10:23:00.201707,-104.0
2023-08-21 10:23:00.209396,-94.0
2023-08-21 10:23:00.217085,-80.0
2023-08-21 10:23:00.224773,-68.0
2023-08-21 10:23:00.232462,-55.0
2023-08-21 10:23:00.240151,-46.0
2023-08-21 10:23:00.247840,-34.0
2023-08-21 10:23:00.255528,-19.0
2023-08-21 10:23:00.263217,-7.0
2023-08-21 10:23:00.270906,4.0
2023-08-21 10:23:00.278595,12.0
2023-08-21 10:23:00.286283,21.0
2023-08-21 10:23:00.293972,26.0
2023-08-21 10:23:00.301661,29.0
