time,ECG
2023-08-21 10:54:28.484812,68.0
2023-08-21 10:54:28.492501,72.0
2023-08-21 10:54:28.500189,70.0
2023-08-21 10:54:28.507878,63.0
2023-08-21 10:54:28.515567,63.0
2023-08-21 10:54:28.523256,48.0
2023-08-21 10:54:28.530944,19.0
2023-08-21 10:54:28.538633,-19.0
2023-08-21 10:54:28.546322,-63.0
2023-08-21 10:54:28.554010,-97.0
2023-08-21 10:54:28.561699,-119.0
2023-08-21 10:54:28.569388,-140.0
2023-08-21 10:54:28.577077,-155.0
2023-08-21 10:54:28.584765,-150.0
2023-08-21 10:54:28.592454,-150.0
2023-08-21 10:54:28.600143,-153.0
2023-08-21 10:54:28.607832,-145.0
2023-08-21 10:54:28.615520,-133.0
2023-08-21 10:54:28.623209,-133.0
2023-08-21 10:54:28.630898,-131.0
2023-08-21 10:54:28.638586,-121.0
2023-08-21 10:54:28.646275,-116.0
2023-08-21 10:54:28.653964,-119.0
2023-08-21 10:54:28.661653,-119.0
2023-08-21 10:54:28.669341,-111.0
2023-08-21 10:54:28.677030,-109.0
2023-08-21 10:54:28.684719,-104.0
2023-08-21 10:54:28.692408,-106.0
2023-08-21 10:54:28.700096,-119.0
2023-08-21 10:54:28.707785,-123.0
2023-08-21 10:54:28.715474,-116.0
2023-08-21 10:54:28.723163,-114.0
2023-08-21 10:54:28.730851,-114.0
2023-08-21 10:54:28.738540,-109.0
2023-08-21 10:54:28.746229,-106.0
2023-08-21 10:54:28.753917,-109.0
2023-08-21 10:54:28.761606,-104.0
2023-08-21 10:54:28.769295,-97.0
2023-08-21 10:54:28.776984,-97.0
2023-08-21 10:54:28.784672,-104.0
2023-08-21 10:54:28.792361,-106.0
2023-08-21 10:54:28.800050,-106.0
2023-08-21 10:54:28.807739,-106.0
2023-08-21 10:54:28.815427,-102.0
2023-08-21 10:54:28.823116,-97.0
2023-08-21 10:54:28.830805,-92.0
2023-08-21 10:54:28.838494,-89.0
2023-08-21 10:54:28.846182,-89.0
2023-08-21 10:54:28.853871,-85.0
2023-08-21 10:54:28.861560,-80.0
2023-08-21 10:54:28.869248,-80.0
2023-08-21 10:54:28.876937,-80.0
2023-08-21 10:54:28.884626,-82.0
2023-08-21 10:54:28.892315,-87.0
2023-08-21 10:54:28.900003,-85.0
2023-08-21 10:54:28.907692,-60.0
2023-08-21 10:54:28.915381,-31.0
2023-08-21 10:54:28.923070,-19.0
2023-08-21 10:54:28.930758,-26.0
2023-08-21 10:54:28.938447,-38.0
2023-08-21 10:54:28.946136,-63.0
2023-08-21 10:54:28.953824,-82.0
2023-08-21 10:54:28.961513,-80.0
2023-08-21 10:54:28.969202,-70.0
2023-08-21 10:54:28.976891,-80.0
2023-08-21 10:54:28.984579,-85.0
2023-08-21 10:54:28.992268,-80.0
2023-08-21 10:54:28.999957,-80.0
2023-08-21 10:54:29.007646,-82.0
2023-08-21 10:54:29.015334,-92.0
2023-08-21 10:54:29.023023,-97.0
2023-08-21 10:54:29.030712,0.0
2023-08-21 10:54:29.038401,369.0
2023-08-21 10:54:29.046089,903.0
2023-08-21 10:54:29.053778,1097.0
2023-08-21 10:54:29.061467,566.0
2023-08-21 10:54:29.069155,-172.0
2023-08-21 10:54:29.076844,-298.0
2023-08-21 10:54:29.084533,-82.0
2023-08-21 10:54:29.092222,-131.0
2023-08-21 10:54:29.099910,-211.0
2023-08-21 10:54:29.107599,-140.0
2023-08-21 10:54:29.115288,-126.0
2023-08-21 10:54:29.122977,-155.0
2023-08-21 10:54:29.130665,-131.0
2023-08-21 10:54:29.138354,-114.0
2023-08-21 10:54:29.146043,-119.0
2023-08-21 10:54:29.153731,-111.0
2023-08-21 10:54:29.161420,-104.0
2023-08-21 10:54:29.169109,-99.0
2023-08-21 10:54:29.176798,-82.0
2023-08-21 10:54:29.184486,-72.0
2023-08-21 10:54:29.192175,-72.0
2023-08-21 10:54:29.199864,-63.0
2023-08-21 10:54:29.207553,-46.0
2023-08-21 10:54:29.215241,-34.0
2023-08-21 10:54:29.222930,-24.0
2023-08-21 10:54:29.230619,-14.0
2023-08-21 10:54:29.238308,-2.0
2023-08-21 10:54:29.245996,9.0
2023-08-21 10:54:29.253685,19.0
2023-08-21 10:54:29.261374,31.0
2023-08-21 10:54:29.269062,43.0
2023-08-21 10:54:29.276751,51.0
2023-08-21 10:54:29.284440,55.0
2023-08-21 10:54:29.292129,55.0
2023-08-21 10:54:29.299817,55.0
2023-08-21 10:54:29.307506,58.0
2023-08-21 10:54:29.315195,51.0
2023-08-21 10:54:29.322884,31.0
2023-08-21 10:54:29.330572,0.0
2023-08-21 10:54:29.338261,-41.0
2023-08-21 10:54:29.345950,-77.0
2023-08-21 10:54:29.353638,-104.0
2023-08-21 10:54:29.361327,-136.0
2023-08-21 10:54:29.369016,-157.0
2023-08-21 10:54:29.376705,-167.0
2023-08-21 10:54:29.384393,-172.0
2023-08-21 10:54:29.392082,-172.0
2023-08-21 10:54:29.399771,-160.0
2023-08-21 10:54:29.407460,-148.0
2023-08-21 10:54:29.415148,-145.0
2023-08-21 10:54:29.422837,-143.0
2023-08-21 10:54:29.430526,-143.0
2023-08-21 10:54:29.438215,-138.0
2023-08-21 10:54:29.445903,-128.0
2023-08-21 10:54:29.453592,-123.0
2023-08-21 10:54:29.461281,-128.0
2023-08-21 10:54:29.468969,-126.0
2023-08-21 10:54:29.476658,-119.0
2023-08-21 10:54:29.484347,-114.0
2023-08-21 10:54:29.492036,-111.0
2023-08-21 10:54:29.499724,-116.0
2023-08-21 10:54:29.507413,-123.0
2023-08-21 10:54:29.515102,-121.0
2023-08-21 10:54:29.522791,-123.0
2023-08-21 10:54:29.530479,-126.0
2023-08-21 10:54:29.538168,-116.0
2023-08-21 10:54:29.545857,-114.0
2023-08-21 10:54:29.553545,-116.0
2023-08-21 10:54:29.561234,-114.0
2023-08-21 10:54:29.568923,-111.0
2023-08-21 10:54:29.576612,-106.0
2023-08-21 10:54:29.584300,-104.0
2023-08-21 10:54:29.591989,-106.0
2023-08-21 10:54:29.599678,-104.0
2023-08-21 10:54:29.607367,-102.0
2023-08-21 10:54:29.615055,-102.0
2023-08-21 10:54:29.622744,-97.0
2023-08-21 10:54:29.630433,-97.0
2023-08-21 10:54:29.638122,-102.0
2023-08-21 10:54:29.645810,-104.0
2023-08-21 10:54:29.653499,-104.0
2023-08-21 10:54:29.661188,-104.0
2023-08-21 10:54:29.668876,-106.0
2023-08-21 10:54:29.676565,-116.0
2023-08-21 10:54:29.684254,-119.0
2023-08-21 10:54:29.691943,-102.0
2023-08-21 10:54:29.699631,-65.0
2023-08-21 10:54:29.707320,-48.0
2023-08-21 10:54:29.715009,-53.0
2023-08-21 10:54:29.722698,-58.0
2023-08-21 10:54:29.730386,-75.0
2023-08-21 10:54:29.738075,-106.0
2023-08-21 10:54:29.745764,-119.0
2023-08-21 10:54:29.753452,-104.0
2023-08-21 10:54:29.761141,-97.0
2023-08-21 10:54:29.768830,-102.0
2023-08-21 10:54:29.776519,-99.0
2023-08-21 10:54:29.784207,-92.0
2023-08-21 10:54:29.791896,-92.0
2023-08-21 10:54:29.799585,-106.0
2023-08-21 10:54:29.807274,-109.0
2023-08-21 10:54:29.814962,7.0
2023-08-21 10:54:29.822651,383.0
2023-08-21 10:54:29.830340,910.0
2023-08-21 10:54:29.838029,1085.0
2023-08-21 10:54:29.845717,541.0
2023-08-21 10:54:29.853406,-182.0
2023-08-21 10:54:29.861095,-291.0
2023-08-21 10:54:29.868783,-80.0
2023-08-21 10:54:29.876472,-136.0
2023-08-21 10:54:29.884161,-218.0
2023-08-21 10:54:29.891850,-148.0
2023-08-21 10:54:29.899538,-133.0
2023-08-21 10:54:29.907227,-157.0
2023-08-21 10:54:29.914916,-131.0
2023-08-21 10:54:29.922605,-116.0
2023-08-21 10:54:29.930293,-119.0
2023-08-21 10:54:29.937982,-97.0
2023-08-21 10:54:29.945671,-77.0
2023-08-21 10:54:29.953359,-72.0
2023-08-21 10:54:29.961048,-58.0
2023-08-21 10:54:29.968737,-48.0
2023-08-21 10:54:29.976426,-43.0
2023-08-21 10:54:29.984114,-34.0
2023-08-21 10:54:29.991803,-19.0
2023-08-21 10:54:29.999492,-2.0
2023-08-21 10:54:30.007181,14.0
2023-08-21 10:54:30.014869,21.0
2023-08-21 10:54:30.022558,34.0
2023-08-21 10:54:30.030247,48.0
2023-08-21 10:54:30.037936,63.0
2023-08-21 10:54:30.045624,80.0
2023-08-21 10:54:30.053313,92.0
2023-08-21 10:54:30.061002,97.0
2023-08-21 10:54:30.068690,102.0
2023-08-21 10:54:30.076379,104.0
2023-08-21 10:54:30.084068,104.0
2023-08-21 10:54:30.091757,104.0
2023-08-21 10:54:30.099445,97.0
2023-08-21 10:54:30.107134,77.0
2023-08-21 10:54:30.114823,51.0
2023-08-21 10:54:30.122512,19.0
2023-08-21 10:54:30.130200,-19.0
2023-08-21 10:54:30.137889,-53.0
2023-08-21 10:54:30.145578,-82.0
2023-08-21 10:54:30.153266,-104.0
2023-08-21 10:54:30.160955,-123.0
2023-08-21 10:54:30.168644,-133.0
2023-08-21 10:54:30.176333,-133.0
2023-08-21 10:54:30.184021,-131.0
2023-08-21 10:54:30.191710,-131.0
2023-08-21 10:54:30.199399,-128.0
2023-08-21 10:54:30.207088,-121.0
2023-08-21 10:54:30.214776,-116.0
2023-08-21 10:54:30.222465,-111.0
2023-08-21 10:54:30.230154,-106.0
2023-08-21 10:54:30.237843,-109.0
2023-08-21 10:54:30.245531,-109.0
2023-08-21 10:54:30.253220,-102.0
2023-08-21 10:54:30.260909,-102.0
2023-08-21 10:54:30.268597,-106.0
2023-08-21 10:54:30.276286,-104.0
2023-08-21 10:54:30.283975,-99.0
2023-08-21 10:54:30.291664,-99.0
2023-08-21 10:54:30.299352,-106.0
2023-08-21 10:54:30.307041,-111.0
2023-08-21 10:54:30.314730,-109.0
2023-08-21 10:54:30.322419,-102.0
2023-08-21 10:54:30.330107,-102.0
2023-08-21 10:54:30.337796,-104.0
2023-08-21 10:54:30.345485,-104.0
2023-08-21 10:54:30.353173,-89.0
2023-08-21 10:54:30.360862,-82.0
2023-08-21 10:54:30.368551,-89.0
2023-08-21 10:54:30.376240,-82.0
2023-08-21 10:54:30.383928,-75.0
2023-08-21 10:54:30.391617,-99.0
2023-08-21 10:54:30.399306,-109.0
2023-08-21 10:54:30.406995,-89.0
2023-08-21 10:54:30.414683,-85.0
2023-08-21 10:54:30.422372,-75.0
2023-08-21 10:54:30.430061,-46.0
2023-08-21 10:54:30.437750,-31.0
2023-08-21 10:54:30.445438,-29.0
2023-08-21 10:54:30.453127,-24.0
2023-08-21 10:54:30.460816,-43.0
2023-08-21 10:54:30.468504,-82.0
2023-08-21 10:54:30.476193,-92.0
2023-08-21 10:54:30.483882,-85.0
2023-08-21 10:54:30.491571,-82.0
2023-08-21 10:54:30.499259,-85.0
2023-08-21 10:54:30.506948,-87.0
2023-08-21 10:54:30.514637,-89.0
2023-08-21 10:54:30.522326,-92.0
2023-08-21 10:54:30.530014,-94.0
2023-08-21 10:54:30.537703,-92.0
2023-08-21 10:54:30.545392,2.0
2023-08-21 10:54:30.553080,342.0
2023-08-21 10:54:30.560769,852.0
2023-08-21 10:54:30.568458,1083.0
2023-08-21 10:54:30.576147,643.0
2023-08-21 10:54:30.583835,-114.0
2023-08-21 10:54:30.591524,-352.0
2023-08-21 10:54:30.599213,-128.0
2023-08-21 10:54:30.606902,-116.0
2023-08-21 10:54:30.614590,-221.0
2023-08-21 10:54:30.622279,-162.0
2023-08-21 10:54:30.629968,-123.0
2023-08-21 10:54:30.637657,-145.0
2023-08-21 10:54:30.645345,-128.0
2023-08-21 10:54:30.653034,-109.0
2023-08-21 10:54:30.660723,-114.0
2023-08-21 10:54:30.668411,-111.0
2023-08-21 10:54:30.676100,-99.0
2023-08-21 10:54:30.683789,-94.0
2023-08-21 10:54:30.691478,-94.0
2023-08-21 10:54:30.699166,-80.0
2023-08-21 10:54:30.706855,-63.0
2023-08-21 10:54:30.714544,-51.0
2023-08-21 10:54:30.722233,-36.0
2023-08-21 10:54:30.729921,-19.0
2023-08-21 10:54:30.737610,-9.0
2023-08-21 10:54:30.745299,7.0
2023-08-21 10:54:30.752987,34.0
2023-08-21 10:54:30.760676,51.0
2023-08-21 10:54:30.768365,63.0
2023-08-21 10:54:30.776054,77.0
2023-08-21 10:54:30.783742,92.0
2023-08-21 10:54:30.791431,97.0
2023-08-21 10:54:30.799120,104.0
2023-08-21 10:54:30.806809,111.0
2023-08-21 10:54:30.814497,114.0
2023-08-21 10:54:30.822186,104.0
2023-08-21 10:54:30.829875,87.0
2023-08-21 10:54:30.837564,68.0
2023-08-21 10:54:30.845252,36.0
2023-08-21 10:54:30.852941,-12.0
2023-08-21 10:54:30.860630,-63.0
2023-08-21 10:54:30.868318,-102.0
2023-08-21 10:54:30.876007,-131.0
2023-08-21 10:54:30.883696,-155.0
2023-08-21 10:54:30.891385,-170.0
2023-08-21 10:54:30.899073,-172.0
2023-08-21 10:54:30.906762,-177.0
2023-08-21 10:54:30.914451,-182.0
2023-08-21 10:54:30.922140,-177.0
2023-08-21 10:54:30.929828,-167.0
2023-08-21 10:54:30.937517,-162.0
2023-08-21 10:54:30.945206,-155.0
2023-08-21 10:54:30.952894,-145.0
2023-08-21 10:54:30.960583,-145.0
2023-08-21 10:54:30.968272,-143.0
2023-08-21 10:54:30.975961,-131.0
2023-08-21 10:54:30.983649,-128.0
2023-08-21 10:54:30.991338,-131.0
2023-08-21 10:54:30.999027,-131.0
2023-08-21 10:54:31.006716,-128.0
2023-08-21 10:54:31.014404,-128.0
2023-08-21 10:54:31.022093,-128.0
2023-08-21 10:54:31.029782,-128.0
2023-08-21 10:54:31.037471,-131.0
2023-08-21 10:54:31.045159,-138.0
2023-08-21 10:54:31.052848,-145.0
2023-08-21 10:54:31.060537,-145.0
2023-08-21 10:54:31.068225,-138.0
2023-08-21 10:54:31.075914,-131.0
2023-08-21 10:54:31.083603,-133.0
2023-08-21 10:54:31.091292,-133.0
2023-08-21 10:54:31.098980,-114.0
2023-08-21 10:54:31.106669,-92.0
2023-08-21 10:54:31.114358,-85.0
2023-08-21 10:54:31.122047,-75.0
2023-08-21 10:54:31.129735,-70.0
2023-08-21 10:54:31.137424,-97.0
2023-08-21 10:54:31.145113,-119.0
2023-08-21 10:54:31.152801,-119.0
2023-08-21 10:54:31.160490,-123.0
2023-08-21 10:54:31.168179,-128.0
2023-08-21 10:54:31.175868,-128.0
2023-08-21 10:54:31.183556,-133.0
2023-08-21 10:54:31.191245,-131.0
2023-08-21 10:54:31.198934,-128.0
2023-08-21 10:54:31.206623,-133.0
2023-08-21 10:54:31.214311,-89.0
2023-08-21 10:54:31.222000,143.0
2023-08-21 10:54:31.229689,663.0
2023-08-21 10:54:31.237378,1183.0
2023-08-21 10:54:31.245066,1163.0
2023-08-21 10:54:31.252755,437.0
2023-08-21 10:54:31.260444,-318.0
2023-08-21 10:54:31.268132,-349.0
2023-08-21 10:54:31.275821,-119.0
2023-08-21 10:54:31.283510,-199.0
2023-08-21 10:54:31.291199,-259.0
2023-08-21 10:54:31.298887,-174.0
2023-08-21 10:54:31.306576,-177.0
2023-08-21 10:54:31.314265,-216.0
2023-08-21 10:54:31.321954,-184.0
2023-08-21 10:54:31.329642,-153.0
2023-08-21 10:54:31.337331,-160.0
2023-08-21 10:54:31.345020,-155.0
2023-08-21 10:54:31.352708,-136.0
2023-08-21 10:54:31.360397,-123.0
2023-08-21 10:54:31.368086,-106.0
2023-08-21 10:54:31.375775,-85.0
2023-08-21 10:54:31.383463,-70.0
2023-08-21 10:54:31.391152,-63.0
2023-08-21 10:54:31.398841,-60.0
2023-08-21 10:54:31.406530,-48.0
2023-08-21 10:54:31.414218,-14.0
2023-08-21 10:54:31.421907,14.0
2023-08-21 10:54:31.429596,19.0
2023-08-21 10:54:31.437285,29.0
2023-08-21 10:54:31.444973,48.0
2023-08-21 10:54:31.452662,65.0
2023-08-21 10:54:31.460351,89.0
2023-08-21 10:54:31.468039,106.0
2023-08-21 10:54:31.475728,106.0
2023-08-21 10:54:31.483417,102.0
2023-08-21 10:54:31.491106,87.0
2023-08-21 10:54:31.498794,68.0
2023-08-21 10:54:31.506483,51.0
2023-08-21 10:54:31.514172,0.0
2023-08-21 10:54:31.521861,-70.0
2023-08-21 10:54:31.529549,-116.0
2023-08-21 10:54:31.537238,-148.0
2023-08-21 10:54:31.544927,-184.0
2023-08-21 10:54:31.552616,-194.0
2023-08-21 10:54:31.560304,-199.0
2023-08-21 10:54:31.567993,-211.0
2023-08-21 10:54:31.575682,-213.0
2023-08-21 10:54:31.583370,-221.0
2023-08-21 10:54:31.591059,-216.0
2023-08-21 10:54:31.598748,-196.0
2023-08-21 10:54:31.606437,-187.0
2023-08-21 10:54:31.614125,-189.0
2023-08-21 10:54:31.621814,-187.0
2023-08-21 10:54:31.629503,-174.0
2023-08-21 10:54:31.637192,-170.0
2023-08-21 10:54:31.644880,-172.0
2023-08-21 10:54:31.652569,-174.0
2023-08-21 10:54:31.660258,-179.0
2023-08-21 10:54:31.667946,-172.0
2023-08-21 10:54:31.675635,-155.0
2023-08-21 10:54:31.683324,-167.0
2023-08-21 10:54:31.691013,-182.0
2023-08-21 10:54:31.698701,-157.0
2023-08-21 10:54:31.706390,-140.0
2023-08-21 10:54:31.714079,-170.0
2023-08-21 10:54:31.721768,-187.0
2023-08-21 10:54:31.729456,-160.0
2023-08-21 10:54:31.737145,-138.0
2023-08-21 10:54:31.744834,-145.0
2023-08-21 10:54:31.752523,-150.0
2023-08-21 10:54:31.760211,-131.0
2023-08-21 10:54:31.767900,-114.0
2023-08-21 10:54:31.775589,-123.0
2023-08-21 10:54:31.783277,-111.0
2023-08-21 10:54:31.790966,-89.0
2023-08-21 10:54:31.798655,-114.0
2023-08-21 10:54:31.806344,-143.0
2023-08-21 10:54:31.814032,-131.0
2023-08-21 10:54:31.821721,-126.0
2023-08-21 10:54:31.829410,-133.0
2023-08-21 10:54:31.837099,-128.0
2023-08-21 10:54:31.844787,-126.0
2023-08-21 10:54:31.852476,-131.0
2023-08-21 10:54:31.860165,-121.0
2023-08-21 10:54:31.867853,-102.0
2023-08-21 10:54:31.875542,-38.0
2023-08-21 10:54:31.883231,233.0
2023-08-21 10:54:31.890920,808.0
2023-08-21 10:54:31.898608,1260.0
2023-08-21 10:54:31.906297,1044.0
2023-08-21 10:54:31.913986,245.0
2023-08-21 10:54:31.921675,-349.0
2023-08-21 10:54:31.929363,-267.0
2023-08-21 10:54:31.937052,-102.0
2023-08-21 10:54:31.944741,-216.0
2023-08-21 10:54:31.952430,-238.0
2023-08-21 10:54:31.960118,-157.0
2023-08-21 10:54:31.967807,-165.0
2023-08-21 10:54:31.975496,-174.0
2023-08-21 10:54:31.983184,-138.0
2023-08-21 10:54:31.990873,-128.0
2023-08-21 10:54:31.998562,-128.0
2023-08-21 10:54:32.006251,-104.0
2023-08-21 10:54:32.013939,-87.0
2023-08-21 10:54:32.021628,-85.0
2023-08-21 10:54:32.029317,-72.0
2023-08-21 10:54:32.037006,-58.0
2023-08-21 10:54:32.044694,-51.0
2023-08-21 10:54:32.052383,-38.0
2023-08-21 10:54:32.060072,-17.0
2023-08-21 10:54:32.067760,0.0
2023-08-21 10:54:32.075449,12.0
2023-08-21 10:54:32.083138,21.0
2023-08-21 10:54:32.090827,34.0
2023-08-21 10:54:32.098515,53.0
2023-08-21 10:54:32.106204,68.0
2023-08-21 10:54:32.113893,75.0
2023-08-21 10:54:32.121582,82.0
2023-08-21 10:54:32.129270,80.0
2023-08-21 10:54:32.136959,70.0
2023-08-21 10:54:32.144648,58.0
2023-08-21 10:54:32.152337,51.0
2023-08-21 10:54:32.160025,38.0
2023-08-21 10:54:32.167714,4.0
2023-08-21 10:54:32.175403,-38.0
2023-08-21 10:54:32.183091,-80.0
2023-08-21 10:54:32.190780,-114.0
2023-08-21 10:54:32.198469,-140.0
2023-08-21 10:54:32.206158,-157.0
2023-08-21 10:54:32.213846,-179.0
2023-08-21 10:54:32.221535,-196.0
2023-08-21 10:54:32.229224,-191.0
2023-08-21 10:54:32.236913,-182.0
2023-08-21 10:54:32.244601,-182.0
2023-08-21 10:54:32.252290,-177.0
2023-08-21 10:54:32.259979,-172.0
2023-08-21 10:54:32.267667,-174.0
2023-08-21 10:54:32.275356,-167.0
2023-08-21 10:54:32.283045,-153.0
2023-08-21 10:54:32.290734,-148.0
2023-08-21 10:54:32.298422,-145.0
2023-08-21 10:54:32.306111,-143.0
2023-08-21 10:54:32.313800,-140.0
2023-08-21 10:54:32.321489,-138.0
2023-08-21 10:54:32.329177,-138.0
2023-08-21 10:54:32.336866,-138.0
2023-08-21 10:54:32.344555,-136.0
2023-08-21 10:54:32.352244,-133.0
2023-08-21 10:54:32.359932,-136.0
2023-08-21 10:54:32.367621,-136.0
2023-08-21 10:54:32.375310,-133.0
2023-08-21 10:54:32.382998,-133.0
2023-08-21 10:54:32.390687,-136.0
2023-08-21 10:54:32.398376,-136.0
2023-08-21 10:54:32.406065,-133.0
2023-08-21 10:54:32.413753,-131.0
2023-08-21 10:54:32.421442,-126.0
2023-08-21 10:54:32.429131,-111.0
2023-08-21 10:54:32.436820,-92.0
2023-08-21 10:54:32.444508,-85.0
2023-08-21 10:54:32.452197,-77.0
2023-08-21 10:54:32.459886,-68.0
2023-08-21 10:54:32.467574,-87.0
2023-08-21 10:54:32.475263,-121.0
2023-08-21 10:54:32.482952,-121.0
2023-08-21 10:54:32.490641,-114.0
2023-08-21 10:54:32.498329,-116.0
2023-08-21 10:54:32.506018,-116.0
2023-08-21 10:54:32.513707,-109.0
2023-08-21 10:54:32.521396,-106.0
2023-08-21 10:54:32.529084,-114.0
2023-08-21 10:54:32.536773,-136.0
2023-08-21 10:54:32.544462,-104.0
2023-08-21 10:54:32.552151,174.0
2023-08-21 10:54:32.559839,794.0
2023-08-21 10:54:32.567528,1326.0
2023-08-21 10:54:32.575217,1115.0
2023-08-21 10:54:32.582905,213.0
2023-08-21 10:54:32.590594,-374.0
2023-08-21 10:54:32.598283,-221.0
2023-08-21 10:54:32.605972,-87.0
2023-08-21 10:54:32.613660,-230.0
2023-08-21 10:54:32.621349,-230.0
2023-08-21 10:54:32.629038,-157.0
2023-08-21 10:54:32.636727,-187.0
2023-08-21 10:54:32.644415,-194.0
2023-08-21 10:54:32.652104,-153.0
2023-08-21 10:54:32.659793,-145.0
2023-08-21 10:54:32.667481,-145.0
2023-08-21 10:54:32.675170,-126.0
2023-08-21 10:54:32.682859,-114.0
2023-08-21 10:54:32.690548,-111.0
2023-08-21 10:54:32.698236,-106.0
2023-08-21 10:54:32.705925,-97.0
2023-08-21 10:54:32.713614,-92.0
2023-08-21 10:54:32.721303,-82.0
2023-08-21 10:54:32.728991,-65.0
2023-08-21 10:54:32.736680,-48.0
2023-08-21 10:54:32.744369,-34.0
2023-08-21 10:54:32.752058,-19.0
2023-08-21 10:54:32.759746,-4.0
2023-08-21 10:54:32.767435,9.0
2023-08-21 10:54:32.775124,24.0
2023-08-21 10:54:32.782812,36.0
2023-08-21 10:54:32.790501,46.0
2023-08-21 10:54:32.798190,51.0
2023-08-21 10:54:32.805879,48.0
2023-08-21 10:54:32.813567,48.0
2023-08-21 10:54:32.821256,43.0
2023-08-21 10:54:32.828945,34.0
2023-08-21 10:54:32.836634,17.0
2023-08-21 10:54:32.844322,-12.0
2023-08-21 10:54:32.852011,-48.0
2023-08-21 10:54:32.859700,-82.0
2023-08-21 10:54:32.867388,-111.0
2023-08-21 10:54:32.875077,-143.0
2023-08-21 10:54:32.882766,-165.0
2023-08-21 10:54:32.890455,-172.0
2023-08-21 10:54:32.898143,-172.0
2023-08-21 10:54:32.905832,-167.0
2023-08-21 10:54:32.913521,-162.0
2023-08-21 10:54:32.921210,-155.0
2023-08-21 10:54:32.928898,-148.0
2023-08-21 10:54:32.936587,-143.0
2023-08-21 10:54:32.944276,-138.0
2023-08-21 10:54:32.951965,-136.0
2023-08-21 10:54:32.959653,-131.0
2023-08-21 10:54:32.967342,-133.0
2023-08-21 10:54:32.975031,-131.0
2023-08-21 10:54:32.982719,-128.0
2023-08-21 10:54:32.990408,-126.0
2023-08-21 10:54:32.998097,-128.0
2023-08-21 10:54:33.005786,-128.0
2023-08-21 10:54:33.013474,-128.0
2023-08-21 10:54:33.021163,-131.0
2023-08-21 10:54:33.028852,-131.0
2023-08-21 10:54:33.036541,-131.0
2023-08-21 10:54:33.044229,-128.0
2023-08-21 10:54:33.051918,-128.0
2023-08-21 10:54:33.059607,-128.0
2023-08-21 10:54:33.067295,-128.0
2023-08-21 10:54:33.074984,-126.0
2023-08-21 10:54:33.082673,-126.0
2023-08-21 10:54:33.090362,-126.0
2023-08-21 10:54:33.098050,-114.0
2023-08-21 10:54:33.105739,-89.0
2023-08-21 10:54:33.113428,-72.0
2023-08-21 10:54:33.121117,-70.0
2023-08-21 10:54:33.128805,-72.0
2023-08-21 10:54:33.136494,-85.0
2023-08-21 10:54:33.144183,-114.0
2023-08-21 10:54:33.151872,-123.0
2023-08-21 10:54:33.159560,-116.0
2023-08-21 10:54:33.167249,-114.0
2023-08-21 10:54:33.174938,-116.0
2023-08-21 10:54:33.182626,-111.0
2023-08-21 10:54:33.190315,-109.0
2023-08-21 10:54:33.198004,-114.0
2023-08-21 10:54:33.205693,-133.0
2023-08-21 10:54:33.213381,-140.0
2023-08-21 10:54:33.221070,-17.0
2023-08-21 10:54:33.228759,398.0
2023-08-21 10:54:33.236448,981.0
2023-08-21 10:54:33.244136,1170.0
2023-08-21 10:54:33.251825,583.0
2023-08-21 10:54:33.259514,-206.0
2023-08-21 10:54:33.267202,-337.0
2023-08-21 10:54:33.274891,-109.0
2023-08-21 10:54:33.282580,-155.0
2023-08-21 10:54:33.290269,-250.0
2023-08-21 10:54:33.297957,-189.0
2023-08-21 10:54:33.305646,-172.0
2023-08-21 10:54:33.313335,-191.0
2023-08-21 10:54:33.321024,-165.0
2023-08-21 10:54:33.328712,-145.0
2023-08-21 10:54:33.336401,-153.0
2023-08-21 10:54:33.344090,-150.0
2023-08-21 10:54:33.351779,-136.0
2023-08-21 10:54:33.359467,-123.0
2023-08-21 10:54:33.367156,-114.0
2023-08-21 10:54:33.374845,-104.0
2023-08-21 10:54:33.382533,-99.0
2023-08-21 10:54:33.390222,-97.0
2023-08-21 10:54:33.397911,-82.0
2023-08-21 10:54:33.405600,-63.0
2023-08-21 10:54:33.413288,-51.0
2023-08-21 10:54:33.420977,-41.0
2023-08-21 10:54:33.428666,-34.0
2023-08-21 10:54:33.436355,-29.0
2023-08-21 10:54:33.444043,-14.0
2023-08-21 10:54:33.451732,2.0
2023-08-21 10:54:33.459421,12.0
2023-08-21 10:54:33.467109,19.0
2023-08-21 10:54:33.474798,21.0
2023-08-21 10:54:33.482487,21.0
2023-08-21 10:54:33.490176,24.0
2023-08-21 10:54:33.497864,24.0
2023-08-21 10:54:33.505553,17.0
2023-08-21 10:54:33.513242,-7.0
2023-08-21 10:54:33.520931,-38.0
2023-08-21 10:54:33.528619,-72.0
2023-08-21 10:54:33.536308,-102.0
2023-08-21 10:54:33.543997,-128.0
2023-08-21 10:54:33.551686,-145.0
2023-08-21 10:54:33.559374,-160.0
2023-08-21 10:54:33.567063,-167.0
2023-08-21 10:54:33.574752,-165.0
2023-08-21 10:54:33.582440,-157.0
2023-08-21 10:54:33.590129,-153.0
2023-08-21 10:54:33.597818,-148.0
2023-08-21 10:54:33.605507,-143.0
2023-08-21 10:54:33.613195,-140.0
2023-08-21 10:54:33.620884,-138.0
2023-08-21 10:54:33.628573,-133.0
2023-08-21 10:54:33.636262,-128.0
2023-08-21 10:54:33.643950,-123.0
2023-08-21 10:54:33.651639,-123.0
2023-08-21 10:54:33.659328,-126.0
2023-08-21 10:54:33.667016,-126.0
2023-08-21 10:54:33.674705,-121.0
2023-08-21 10:54:33.682394,-119.0
2023-08-21 10:54:33.690083,-119.0
2023-08-21 10:54:33.697771,-121.0
2023-08-21 10:54:33.705460,-126.0
2023-08-21 10:54:33.713149,-128.0
2023-08-21 10:54:33.720838,-123.0
2023-08-21 10:54:33.728526,-121.0
2023-08-21 10:54:33.736215,-128.0
2023-08-21 10:54:33.743904,-133.0
2023-08-21 10:54:33.751593,-136.0
2023-08-21 10:54:33.759281,-136.0
2023-08-21 10:54:33.766970,-131.0
2023-08-21 10:54:33.774659,-128.0
2023-08-21 10:54:33.782347,-126.0
2023-08-21 10:54:33.790036,-126.0
2023-08-21 10:54:33.797725,-128.0
2023-08-21 10:54:33.805414,-114.0
2023-08-21 10:54:33.813102,-80.0
2023-08-21 10:54:33.820791,-55.0
2023-08-21 10:54:33.828480,-55.0
2023-08-21 10:54:33.836169,-65.0
2023-08-21 10:54:33.843857,-82.0
2023-08-21 10:54:33.851546,-106.0
2023-08-21 10:54:33.859235,-119.0
2023-08-21 10:54:33.866923,-116.0
2023-08-21 10:54:33.874612,-119.0
2023-08-21 10:54:33.882301,-131.0
2023-08-21 10:54:33.889990,-136.0
2023-08-21 10:54:33.897678,-131.0
2023-08-21 10:54:33.905367,-128.0
2023-08-21 10:54:33.913056,-140.0
2023-08-21 10:54:33.920745,-150.0
2023-08-21 10:54:33.928433,-48.0
2023-08-21 10:54:33.936122,340.0
2023-08-21 10:54:33.943811,915.0
2023-08-21 10:54:33.951500,1144.0
2023-08-21 10:54:33.959188,604.0
2023-08-21 10:54:33.966877,-182.0
2023-08-21 10:54:33.974566,-354.0
2023-08-21 10:54:33.982254,-131.0
2023-08-21 10:54:33.989943,-160.0
2023-08-21 10:54:33.997632,-255.0
2023-08-21 10:54:34.005321,-189.0
2023-08-21 10:54:34.013009,-167.0
2023-08-21 10:54:34.020698,-199.0
2023-08-21 10:54:34.028387,-177.0
2023-08-21 10:54:34.036076,-148.0
2023-08-21 10:54:34.043764,-148.0
2023-08-21 10:54:34.051453,-140.0
2023-08-21 10:54:34.059142,-121.0
2023-08-21 10:54:34.066830,-119.0
2023-08-21 10:54:34.074519,-114.0
2023-08-21 10:54:34.082208,-97.0
2023-08-21 10:54:34.089897,-80.0
2023-08-21 10:54:34.097585,-70.0
2023-08-21 10:54:34.105274,-60.0
2023-08-21 10:54:34.112963,-51.0
2023-08-21 10:54:34.120652,-41.0
2023-08-21 10:54:34.128340,-29.0
2023-08-21 10:54:34.136029,-14.0
2023-08-21 10:54:34.143718,-2.0
2023-08-21 10:54:34.151407,9.0
2023-08-21 10:54:34.159095,21.0
2023-08-21 10:54:34.166784,29.0
2023-08-21 10:54:34.174473,36.0
2023-08-21 10:54:34.182161,41.0
2023-08-21 10:54:34.189850,43.0
2023-08-21 10:54:34.197539,43.0
2023-08-21 10:54:34.205228,36.0
2023-08-21 10:54:34.212916,24.0
2023-08-21 10:54:34.220605,4.0
2023-08-21 10:54:34.228294,-19.0
2023-08-21 10:54:34.235983,-51.0
2023-08-21 10:54:34.243671,-87.0
2023-08-21 10:54:34.251360,-121.0
2023-08-21 10:54:34.259049,-143.0
2023-08-21 10:54:34.266738,-155.0
2023-08-21 10:54:34.274426,-162.0
2023-08-21 10:54:34.282115,-165.0
2023-08-21 10:54:34.289804,-165.0
2023-08-21 10:54:34.297492,-162.0
2023-08-21 10:54:34.305181,-155.0
2023-08-21 10:54:34.312870,-148.0
2023-08-21 10:54:34.320559,-145.0
2023-08-21 10:54:34.328247,-138.0
2023-08-21 10:54:34.335936,-136.0
2023-08-21 10:54:34.343625,-140.0
2023-08-21 10:54:34.351314,-138.0
2023-08-21 10:54:34.359002,-133.0
2023-08-21 10:54:34.366691,-136.0
2023-08-21 10:54:34.374380,-138.0
2023-08-21 10:54:34.382068,-136.0
2023-08-21 10:54:34.389757,-133.0
2023-08-21 10:54:34.397446,-133.0
2023-08-21 10:54:34.405135,-133.0
2023-08-21 10:54:34.412823,-133.0
2023-08-21 10:54:34.420512,-140.0
2023-08-21 10:54:34.428201,-148.0
2023-08-21 10:54:34.435890,-145.0
2023-08-21 10:54:34.443578,-140.0
2023-08-21 10:54:34.451267,-140.0
2023-08-21 10:54:34.458956,-143.0
2023-08-21 10:54:34.466645,-153.0
2023-08-21 10:54:34.474333,-155.0
2023-08-21 10:54:34.482022,-153.0
2023-08-21 10:54:34.489711,-153.0
2023-08-21 10:54:34.497399,-150.0
2023-08-21 10:54:34.505088,-148.0
2023-08-21 10:54:34.512777,-157.0
2023-08-21 10:54:34.520466,-162.0
2023-08-21 10:54:34.528154,-155.0
2023-08-21 10:54:34.535843,-143.0
2023-08-21 10:54:34.543532,-140.0
2023-08-21 10:54:34.551221,-145.0
2023-08-21 10:54:34.558909,-153.0
2023-08-21 10:54:34.566598,-131.0
2023-08-21 10:54:34.574287,-87.0
2023-08-21 10:54:34.581975,-77.0
2023-08-21 10:54:34.589664,-94.0
2023-08-21 10:54:34.597353,-99.0
2023-08-21 10:54:34.605042,-116.0
2023-08-21 10:54:34.612730,-145.0
2023-08-21 10:54:34.620419,-143.0
2023-08-21 10:54:34.628108,-133.0
2023-08-21 10:54:34.635797,-133.0
2023-08-21 10:54:34.643485,-136.0
2023-08-21 10:54:34.651174,-131.0
2023-08-21 10:54:34.658863,-128.0
2023-08-21 10:54:34.666552,-131.0
2023-08-21 10:54:34.674240,-143.0
2023-08-21 10:54:34.681929,-136.0
2023-08-21 10:54:34.689618,46.0
2023-08-21 10:54:34.697306,534.0
2023-08-21 10:54:34.704995,1066.0
2023-08-21 10:54:34.712684,1046.0
2023-08-21 10:54:34.720373,318.0
2023-08-21 10:54:34.728061,-325.0
2023-08-21 10:54:34.735750,-274.0
2023-08-21 10:54:34.743439,-99.0
2023-08-21 10:54:34.751128,-204.0
2023-08-21 10:54:34.758816,-238.0
2023-08-21 10:54:34.766505,-167.0
2023-08-21 10:54:34.774194,-174.0
2023-08-21 10:54:34.781882,-184.0
2023-08-21 10:54:34.789571,-150.0
2023-08-21 10:54:34.797260,-136.0
2023-08-21 10:54:34.804949,-136.0
2023-08-21 10:54:34.812637,-121.0
2023-08-21 10:54:34.820326,-109.0
2023-08-21 10:54:34.828015,-102.0
2023-08-21 10:54:34.835704,-92.0
2023-08-21 10:54:34.843392,-77.0
2023-08-21 10:54:34.851081,-68.0
2023-08-21 10:54:34.858770,-60.0
2023-08-21 10:54:34.866459,-48.0
2023-08-21 10:54:34.874147,-36.0
2023-08-21 10:54:34.881836,-21.0
2023-08-21 10:54:34.889525,-9.0
2023-08-21 10:54:34.897213,4.0
2023-08-21 10:54:34.904902,14.0
2023-08-21 10:54:34.912591,24.0
2023-08-21 10:54:34.920280,36.0
2023-08-21 10:54:34.927968,48.0
2023-08-21 10:54:34.935657,55.0
2023-08-21 10:54:34.943346,55.0
2023-08-21 10:54:34.951035,55.0
2023-08-21 10:54:34.958723,53.0
2023-08-21 10:54:34.966412,43.0
2023-08-21 10:54:34.974101,38.0
2023-08-21 10:54:34.981789,31.0
2023-08-21 10:54:34.989478,4.0
2023-08-21 10:54:34.997167,-36.0
2023-08-21 10:54:35.004856,-80.0
2023-08-21 10:54:35.012544,-116.0
2023-08-21 10:54:35.020233,-138.0
2023-08-21 10:54:35.027922,-148.0
2023-08-21 10:54:35.035611,-157.0
2023-08-21 10:54:35.043299,-162.0
2023-08-21 10:54:35.050988,-160.0
2023-08-21 10:54:35.058677,-153.0
2023-08-21 10:54:35.066366,-145.0
2023-08-21 10:54:35.074054,-136.0
2023-08-21 10:54:35.081743,-128.0
2023-08-21 10:54:35.089432,-128.0
2023-08-21 10:54:35.097120,-128.0
2023-08-21 10:54:35.104809,-126.0
2023-08-21 10:54:35.112498,-119.0
2023-08-21 10:54:35.120187,-116.0
2023-08-21 10:54:35.127875,-116.0
2023-08-21 10:54:35.135564,-121.0
2023-08-21 10:54:35.143253,-121.0
2023-08-21 10:54:35.150942,-121.0
2023-08-21 10:54:35.158630,-123.0
2023-08-21 10:54:35.166319,-123.0
2023-08-21 10:54:35.174008,-121.0
2023-08-21 10:54:35.181696,-121.0
2023-08-21 10:54:35.189385,-121.0
2023-08-21 10:54:35.197074,-121.0
2023-08-21 10:54:35.204763,-121.0
2023-08-21 10:54:35.212451,-119.0
2023-08-21 10:54:35.220140,-114.0
2023-08-21 10:54:35.227829,-114.0
2023-08-21 10:54:35.235518,-114.0
2023-08-21 10:54:35.243206,-109.0
2023-08-21 10:54:35.250895,-106.0
2023-08-21 10:54:35.258584,-104.0
2023-08-21 10:54:35.266273,-102.0
2023-08-21 10:54:35.273961,-102.0
2023-08-21 10:54:35.281650,-102.0
2023-08-21 10:54:35.289339,-97.0
2023-08-21 10:54:35.297027,-94.0
2023-08-21 10:54:35.304716,-89.0
2023-08-21 10:54:35.312405,-87.0
2023-08-21 10:54:35.320094,-89.0
2023-08-21 10:54:35.327782,-92.0
2023-08-21 10:54:35.335471,-72.0
2023-08-21 10:54:35.343160,-38.0
2023-08-21 10:54:35.350849,-21.0
2023-08-21 10:54:35.358537,-29.0
2023-08-21 10:54:35.366226,-38.0
2023-08-21 10:54:35.373915,-53.0
2023-08-21 10:54:35.381603,-77.0
2023-08-21 10:54:35.389292,-87.0
2023-08-21 10:54:35.396981,-80.0
2023-08-21 10:54:35.404670,-75.0
2023-08-21 10:54:35.412358,-80.0
2023-08-21 10:54:35.420047,-77.0
2023-08-21 10:54:35.427736,-80.0
2023-08-21 10:54:35.435425,-87.0
2023-08-21 10:54:35.443113,-99.0
2023-08-21 10:54:35.450802,-104.0
2023-08-21 10:54:35.458491,7.0
2023-08-21 10:54:35.466180,412.0
2023-08-21 10:54:35.473868,988.0
2023-08-21 10:54:35.481557,1173.0
2023-08-21 10:54:35.489246,595.0
2023-08-21 10:54:35.496934,-177.0
2023-08-21 10:54:35.504623,-310.0
2023-08-21 10:54:35.512312,-97.0
2023-08-21 10:54:35.520001,-140.0
2023-08-21 10:54:35.527689,-221.0
2023-08-21 10:54:35.535378,-153.0
2023-08-21 10:54:35.543067,-143.0
2023-08-21 10:54:35.550756,-179.0
2023-08-21 10:54:35.558444,-153.0
2023-08-21 10:54:35.566133,-126.0
2023-08-21 10:54:35.573822,-128.0
2023-08-21 10:54:35.581510,-119.0
2023-08-21 10:54:35.589199,-104.0
2023-08-21 10:54:35.596888,-99.0
2023-08-21 10:54:35.604577,-87.0
2023-08-21 10:54:35.612265,-70.0
2023-08-21 10:54:35.619954,-60.0
2023-08-21 10:54:35.627643,-51.0
2023-08-21 10:54:35.635332,-46.0
2023-08-21 10:54:35.643020,-43.0
2023-08-21 10:54:35.650709,-31.0
2023-08-21 10:54:35.658398,-12.0
2023-08-21 10:54:35.666087,0.0
2023-08-21 10:54:35.673775,7.0
2023-08-21 10:54:35.681464,7.0
2023-08-21 10:54:35.689153,9.0
2023-08-21 10:54:35.696841,24.0
2023-08-21 10:54:35.704530,36.0
2023-08-21 10:54:35.712219,38.0
2023-08-21 10:54:35.719908,36.0
2023-08-21 10:54:35.727596,31.0
2023-08-21 10:54:35.735285,24.0
2023-08-21 10:54:35.742974,24.0
2023-08-21 10:54:35.750663,19.0
2023-08-21 10:54:35.758351,-2.0
2023-08-21 10:54:35.766040,-34.0
2023-08-21 10:54:35.773729,-68.0
2023-08-21 10:54:35.781417,-99.0
2023-08-21 10:54:35.789106,-126.0
2023-08-21 10:54:35.796795,-143.0
2023-08-21 10:54:35.804484,-153.0
2023-08-21 10:54:35.812172,-157.0
2023-08-21 10:54:35.819861,-160.0
2023-08-21 10:54:35.827550,-157.0
2023-08-21 10:54:35.835239,-155.0
2023-08-21 10:54:35.842927,-150.0
2023-08-21 10:54:35.850616,-143.0
2023-08-21 10:54:35.858305,-136.0
2023-08-21 10:54:35.865994,-133.0
2023-08-21 10:54:35.873682,-131.0
2023-08-21 10:54:35.881371,-123.0
2023-08-21 10:54:35.889060,-121.0
2023-08-21 10:54:35.896748,-119.0
2023-08-21 10:54:35.904437,-119.0
2023-08-21 10:54:35.912126,-119.0
2023-08-21 10:54:35.919815,-116.0
2023-08-21 10:54:35.927503,-116.0
2023-08-21 10:54:35.935192,-123.0
2023-08-21 10:54:35.942881,-126.0
2023-08-21 10:54:35.950570,-123.0
2023-08-21 10:54:35.958258,-121.0
2023-08-21 10:54:35.965947,-119.0
2023-08-21 10:54:35.973636,-116.0
2023-08-21 10:54:35.981324,-111.0
2023-08-21 10:54:35.989013,-111.0
2023-08-21 10:54:35.996702,-109.0
2023-08-21 10:54:36.004391,-106.0
2023-08-21 10:54:36.012079,-102.0
2023-08-21 10:54:36.019768,-99.0
2023-08-21 10:54:36.027457,-94.0
2023-08-21 10:54:36.035146,-92.0
2023-08-21 10:54:36.042834,-89.0
2023-08-21 10:54:36.050523,-87.0
2023-08-21 10:54:36.058212,-87.0
2023-08-21 10:54:36.065901,-82.0
2023-08-21 10:54:36.073589,-80.0
2023-08-21 10:54:36.081278,-82.0
2023-08-21 10:54:36.088967,-85.0
2023-08-21 10:54:36.096655,-82.0
2023-08-21 10:54:36.104344,-77.0
2023-08-21 10:54:36.112033,-75.0
2023-08-21 10:54:36.119722,-75.0
2023-08-21 10:54:36.127410,-82.0
2023-08-21 10:54:36.135099,-89.0
2023-08-21 10:54:36.142788,-65.0
2023-08-21 10:54:36.150477,-26.0
2023-08-21 10:54:36.158165,-17.0
2023-08-21 10:54:36.165854,-29.0
2023-08-21 10:54:36.173543,-41.0
2023-08-21 10:54:36.181231,-68.0
2023-08-21 10:54:36.188920,-92.0
2023-08-21 10:54:36.196609,-89.0
2023-08-21 10:54:36.204298,-82.0
2023-08-21 10:54:36.211986,-85.0
2023-08-21 10:54:36.219675,-92.0
2023-08-21 10:54:36.227364,-97.0
2023-08-21 10:54:36.235053,-94.0
2023-08-21 10:54:36.242741,-99.0
2023-08-21 10:54:36.250430,-114.0
2023-08-21 10:54:36.258119,-85.0
2023-08-21 10:54:36.265808,148.0
2023-08-21 10:54:36.273496,675.0
2023-08-21 10:54:36.281185,1156.0
2023-08-21 10:54:36.288874,988.0
2023-08-21 10:54:36.296562,194.0
2023-08-21 10:54:36.304251,-327.0
2023-08-21 10:54:36.311940,-187.0
2023-08-21 10:54:36.319629,-72.0
2023-08-21 10:54:36.327317,-201.0
2023-08-21 10:54:36.335006,-199.0
2023-08-21 10:54:36.342695,-131.0
2023-08-21 10:54:36.350384,-150.0
2023-08-21 10:54:36.358072,-157.0
2023-08-21 10:54:36.365761,-121.0
2023-08-21 10:54:36.373450,-114.0
2023-08-21 10:54:36.381138,-111.0
2023-08-21 10:54:36.388827,-94.0
2023-08-21 10:54:36.396516,-82.0
2023-08-21 10:54:36.404205,-72.0
2023-08-21 10:54:36.411893,-58.0
2023-08-21 10:54:36.419582,-46.0
2023-08-21 10:54:36.427271,-41.0
2023-08-21 10:54:36.434960,-31.0
2023-08-21 10:54:36.442648,-21.0
2023-08-21 10:54:36.450337,-14.0
2023-08-21 10:54:36.458026,-4.0
2023-08-21 10:54:36.465715,7.0
2023-08-21 10:54:36.473403,17.0
2023-08-21 10:54:36.481092,26.0
2023-08-21 10:54:36.488781,31.0
2023-08-21 10:54:36.496469,41.0
2023-08-21 10:54:36.504158,53.0
2023-08-21 10:54:36.511847,60.0
2023-08-21 10:54:36.519536,63.0
2023-08-21 10:54:36.527224,63.0
2023-08-21 10:54:36.534913,65.0
2023-08-21 10:54:36.542602,63.0
2023-08-21 10:54:36.550291,58.0
2023-08-21 10:54:36.557979,46.0
2023-08-21 10:54:36.565668,17.0
2023-08-21 10:54:36.573357,-19.0
2023-08-21 10:54:36.581045,-55.0
2023-08-21 10:54:36.588734,-82.0
2023-08-21 10:54:36.596423,-104.0
2023-08-21 10:54:36.604112,-119.0
2023-08-21 10:54:36.611800,-126.0
2023-08-21 10:54:36.619489,-131.0
2023-08-21 10:54:36.627178,-140.0
2023-08-21 10:54:36.634867,-140.0
2023-08-21 10:54:36.642555,-128.0
2023-08-21 10:54:36.650244,-121.0
2023-08-21 10:54:36.657933,-119.0
2023-08-21 10:54:36.665622,-116.0
2023-08-21 10:54:36.673310,-123.0
2023-08-21 10:54:36.680999,-123.0
2023-08-21 10:54:36.688688,-114.0
2023-08-21 10:54:36.696376,-109.0
2023-08-21 10:54:36.704065,-111.0
2023-08-21 10:54:36.711754,-106.0
2023-08-21 10:54:36.719443,-104.0
2023-08-21 10:54:36.727131,-104.0
2023-08-21 10:54:36.734820,-102.0
2023-08-21 10:54:36.742509,-102.0
2023-08-21 10:54:36.750198,-102.0
2023-08-21 10:54:36.757886,-106.0
2023-08-21 10:54:36.765575,-114.0
2023-08-21 10:54:36.773264,-114.0
2023-08-21 10:54:36.780952,-109.0
2023-08-21 10:54:36.788641,-106.0
2023-08-21 10:54:36.796330,-106.0
2023-08-21 10:54:36.804019,-104.0
2023-08-21 10:54:36.811707,-102.0
2023-08-21 10:54:36.819396,-104.0
2023-08-21 10:54:36.827085,-104.0
2023-08-21 10:54:36.834774,-102.0
2023-08-21 10:54:36.842462,-99.0
2023-08-21 10:54:36.850151,-97.0
2023-08-21 10:54:36.857840,-92.0
2023-08-21 10:54:36.865529,-89.0
2023-08-21 10:54:36.873217,-85.0
2023-08-21 10:54:36.880906,-82.0
2023-08-21 10:54:36.888595,-82.0
2023-08-21 10:54:36.896283,-82.0
2023-08-21 10:54:36.903972,-80.0
2023-08-21 10:54:36.911661,-75.0
2023-08-21 10:54:36.919350,-72.0
2023-08-21 10:54:36.927038,-70.0
2023-08-21 10:54:36.934727,-70.0
2023-08-21 10:54:36.942416,-70.0
2023-08-21 10:54:36.950105,-72.0
2023-08-21 10:54:36.957793,-75.0
2023-08-21 10:54:36.965482,-80.0
2023-08-21 10:54:36.973171,-75.0
2023-08-21 10:54:36.980859,-48.0
2023-08-21 10:54:36.988548,-14.0
2023-08-21 10:54:36.996237,-7.0
2023-08-21 10:54:37.003926,-19.0
2023-08-21 10:54:37.011614,-29.0
2023-08-21 10:54:37.019303,-51.0
2023-08-21 10:54:37.026992,-80.0
2023-08-21 10:54:37.034681,-82.0
2023-08-21 10:54:37.042369,-72.0
2023-08-21 10:54:37.050058,-75.0
2023-08-21 10:54:37.057747,-77.0
2023-08-21 10:54:37.065436,-80.0
2023-08-21 10:54:37.073124,-85.0
2023-08-21 10:54:37.080813,-92.0
2023-08-21 10:54:37.088502,-104.0
2023-08-21 10:54:37.096190,-87.0
2023-08-21 10:54:37.103879,114.0
2023-08-21 10:54:37.111568,617.0
2023-08-21 10:54:37.119257,1127.0
2023-08-21 10:54:37.126945,1051.0
2023-08-21 10:54:37.134634,298.0
2023-08-21 10:54:37.142323,-303.0
2023-08-21 10:54:37.150012,-221.0
2023-08-21 10:54:37.157700,-75.0
2023-08-21 10:54:37.165389,-194.0
2023-08-21 10:54:37.173078,-211.0
2023-08-21 10:54:37.180767,-138.0
2023-08-21 10:54:37.188455,-153.0
2023-08-21 10:54:37.196144,-165.0
2023-08-21 10:54:37.203833,-133.0
2023-08-21 10:54:37.211521,-136.0
2023-08-21 10:54:37.219210,-145.0
2023-08-21 10:54:37.226899,-121.0
2023-08-21 10:54:37.234588,-104.0
2023-08-21 10:54:37.242276,-102.0
2023-08-21 10:54:37.249965,-92.0
2023-08-21 10:54:37.257654,-80.0
2023-08-21 10:54:37.265343,-68.0
2023-08-21 10:54:37.273031,-53.0
2023-08-21 10:54:37.280720,-41.0
2023-08-21 10:54:37.288409,-29.0
2023-08-21 10:54:37.296097,-17.0
2023-08-21 10:54:37.303786,-9.0
2023-08-21 10:54:37.311475,0.0
2023-08-21 10:54:37.319164,9.0
2023-08-21 10:54:37.326852,21.0
2023-08-21 10:54:37.334541,34.0
2023-08-21 10:54:37.342230,41.0
2023-08-21 10:54:37.349919,43.0
2023-08-21 10:54:37.357607,51.0
2023-08-21 10:54:37.365296,55.0
2023-08-21 10:54:37.372985,55.0
2023-08-21 10:54:37.380674,55.0
2023-08-21 10:54:37.388362,53.0
2023-08-21 10:54:37.396051,38.0
2023-08-21 10:54:37.403740,19.0
2023-08-21 10:54:37.411428,-4.0
2023-08-21 10:54:37.419117,-38.0
2023-08-21 10:54:37.426806,-70.0
2023-08-21 10:54:37.434495,-97.0
2023-08-21 10:54:37.442183,-116.0
2023-08-21 10:54:37.449872,-126.0
2023-08-21 10:54:37.457561,-133.0
2023-08-21 10:54:37.465250,-138.0
2023-08-21 10:54:37.472938,-136.0
2023-08-21 10:54:37.480627,-133.0
2023-08-21 10:54:37.488316,-131.0
2023-08-21 10:54:37.496004,-123.0
2023-08-21 10:54:37.503693,-114.0
2023-08-21 10:54:37.511382,-111.0
2023-08-21 10:54:37.519071,-109.0
2023-08-21 10:54:37.526759,-109.0
2023-08-21 10:54:37.534448,-106.0
2023-08-21 10:54:37.542137,-104.0
2023-08-21 10:54:37.549826,-104.0
2023-08-21 10:54:37.557514,-104.0
2023-08-21 10:54:37.565203,-109.0
2023-08-21 10:54:37.572892,-111.0
2023-08-21 10:54:37.580581,-109.0
2023-08-21 10:54:37.588269,-106.0
2023-08-21 10:54:37.595958,-104.0
2023-08-21 10:54:37.603647,-102.0
2023-08-21 10:54:37.611335,-102.0
2023-08-21 10:54:37.619024,-102.0
2023-08-21 10:54:37.626713,-102.0
2023-08-21 10:54:37.634402,-99.0
2023-08-21 10:54:37.642090,-94.0
2023-08-21 10:54:37.649779,-92.0
2023-08-21 10:54:37.657468,-92.0
2023-08-21 10:54:37.665157,-89.0
2023-08-21 10:54:37.672845,-87.0
2023-08-21 10:54:37.680534,-85.0
2023-08-21 10:54:37.688223,-82.0
2023-08-21 10:54:37.695911,-80.0
2023-08-21 10:54:37.703600,-77.0
2023-08-21 10:54:37.711289,-77.0
2023-08-21 10:54:37.718978,-80.0
2023-08-21 10:54:37.726666,-77.0
2023-08-21 10:54:37.734355,-72.0
2023-08-21 10:54:37.742044,-72.0
2023-08-21 10:54:37.749733,-72.0
2023-08-21 10:54:37.757421,-72.0
2023-08-21 10:54:37.765110,-70.0
2023-08-21 10:54:37.772799,-65.0
2023-08-21 10:54:37.780488,-65.0
2023-08-21 10:54:37.788176,-63.0
2023-08-21 10:54:37.795865,-63.0
2023-08-21 10:54:37.803554,-63.0
2023-08-21 10:54:37.811242,-63.0
2023-08-21 10:54:37.818931,-63.0
2023-08-21 10:54:37.826620,-51.0
2023-08-21 10:54:37.834309,-17.0
2023-08-21 10:54:37.841997,4.0
2023-08-21 10:54:37.849686,-4.0
2023-08-21 10:54:37.857375,-21.0
2023-08-21 10:54:37.865064,-36.0
2023-08-21 10:54:37.872752,-65.0
2023-08-21 10:54:37.880441,-80.0
2023-08-21 10:54:37.888130,-77.0
2023-08-21 10:54:37.895818,-77.0
2023-08-21 10:54:37.903507,-82.0
2023-08-21 10:54:37.911196,-80.0
2023-08-21 10:54:37.918885,-77.0
2023-08-21 10:54:37.926573,-80.0
2023-08-21 10:54:37.934262,-87.0
2023-08-21 10:54:37.941951,-102.0
2023-08-21 10:54:37.949640,-70.0
2023-08-21 10:54:37.957328,170.0
2023-08-21 10:54:37.965017,697.0
2023-08-21 10:54:37.972706,1161.0
2023-08-21 10:54:37.980395,986.0
2023-08-21 10:54:37.988083,187.0
2023-08-21 10:54:37.995772,-337.0
2023-08-21 10:54:38.003461,-191.0
2023-08-21 10:54:38.011149,-75.0
2023-08-21 10:54:38.018838,-208.0
2023-08-21 10:54:38.026527,-208.0
2023-08-21 10:54:38.034216,-143.0
2023-08-21 10:54:38.041904,-162.0
2023-08-21 10:54:38.049593,-167.0
2023-08-21 10:54:38.057282,-138.0
2023-08-21 10:54:38.064971,-131.0
2023-08-21 10:54:38.072659,-128.0
2023-08-21 10:54:38.080348,-111.0
2023-08-21 10:54:38.088037,-99.0
2023-08-21 10:54:38.095725,-89.0
2023-08-21 10:54:38.103414,-77.0
2023-08-21 10:54:38.111103,-68.0
2023-08-21 10:54:38.118792,-55.0
2023-08-21 10:54:38.126480,-43.0
2023-08-21 10:54:38.134169,-31.0
2023-08-21 10:54:38.141858,-19.0
2023-08-21 10:54:38.149547,-4.0
2023-08-21 10:54:38.157235,7.0
2023-08-21 10:54:38.164924,19.0
2023-08-21 10:54:38.172613,31.0
2023-08-21 10:54:38.180302,43.0
2023-08-21 10:54:38.187990,53.0
2023-08-21 10:54:38.195679,63.0
2023-08-21 10:54:38.203368,70.0
2023-08-21 10:54:38.211056,72.0
2023-08-21 10:54:38.218745,75.0
2023-08-21 10:54:38.226434,72.0
2023-08-21 10:54:38.234123,72.0
2023-08-21 10:54:38.241811,70.0
2023-08-21 10:54:38.249500,55.0
2023-08-21 10:54:38.257189,34.0
2023-08-21 10:54:38.264878,2.0
2023-08-21 10:54:38.272566,-34.0
2023-08-21 10:54:38.280255,-65.0
2023-08-21 10:54:38.287944,-92.0
2023-08-21 10:54:38.295632,-114.0
2023-08-21 10:54:38.303321,-128.0
2023-08-21 10:54:38.311010,-133.0
2023-08-21 10:54:38.318699,-131.0
2023-08-21 10:54:38.326387,-126.0
2023-08-21 10:54:38.334076,-128.0
2023-08-21 10:54:38.341765,-133.0
2023-08-21 10:54:38.349454,-126.0
2023-08-21 10:54:38.357142,-116.0
2023-08-21 10:54:38.364831,-116.0
2023-08-21 10:54:38.372520,-119.0
2023-08-21 10:54:38.380209,-123.0
2023-08-21 10:54:38.387897,-128.0
2023-08-21 10:54:38.395586,-123.0
2023-08-21 10:54:38.403275,-121.0
2023-08-21 10:54:38.410963,-123.0
2023-08-21 10:54:38.418652,-123.0
2023-08-21 10:54:38.426341,-121.0
2023-08-21 10:54:38.434030,-123.0
2023-08-21 10:54:38.441718,-121.0
2023-08-21 10:54:38.449407,-119.0
2023-08-21 10:54:38.457096,-121.0
2023-08-21 10:54:38.464785,-123.0
2023-08-21 10:54:38.472473,-131.0
2023-08-21 10:54:38.480162,-131.0
2023-08-21 10:54:38.487851,-126.0
2023-08-21 10:54:38.495539,-123.0
2023-08-21 10:54:38.503228,-121.0
2023-08-21 10:54:38.510917,-121.0
2023-08-21 10:54:38.518606,-121.0
2023-08-21 10:54:38.526294,-119.0
2023-08-21 10:54:38.533983,-116.0
2023-08-21 10:54:38.541672,-119.0
2023-08-21 10:54:38.549361,-123.0
2023-08-21 10:54:38.557049,-121.0
2023-08-21 10:54:38.564738,-114.0
2023-08-21 10:54:38.572427,-111.0
2023-08-21 10:54:38.580116,-109.0
2023-08-21 10:54:38.587804,-104.0
2023-08-21 10:54:38.595493,-102.0
2023-08-21 10:54:38.603182,-104.0
2023-08-21 10:54:38.610870,-104.0
2023-08-21 10:54:38.618559,-102.0
2023-08-21 10:54:38.626248,-99.0
2023-08-21 10:54:38.633937,-102.0
2023-08-21 10:54:38.641625,-104.0
2023-08-21 10:54:38.649314,-85.0
2023-08-21 10:54:38.657003,-51.0
2023-08-21 10:54:38.664692,-36.0
2023-08-21 10:54:38.672380,-46.0
2023-08-21 10:54:38.680069,-63.0
2023-08-21 10:54:38.687758,-82.0
2023-08-21 10:54:38.695446,-104.0
2023-08-21 10:54:38.703135,-114.0
2023-08-21 10:54:38.710824,-106.0
2023-08-21 10:54:38.718513,-104.0
2023-08-21 10:54:38.726201,-109.0
2023-08-21 10:54:38.733890,-109.0
2023-08-21 10:54:38.741579,-106.0
2023-08-21 10:54:38.749268,-104.0
2023-08-21 10:54:38.756956,-109.0
2023-08-21 10:54:38.764645,-121.0
2023-08-21 10:54:38.772334,-82.0
2023-08-21 10:54:38.780023,184.0
2023-08-21 10:54:38.787711,726.0
2023-08-21 10:54:38.795400,1151.0
2023-08-21 10:54:38.803089,906.0
2023-08-21 10:54:38.810777,102.0
2023-08-21 10:54:38.818466,-349.0
2023-08-21 10:54:38.826155,-182.0
2023-08-21 10:54:38.833844,-97.0
2023-08-21 10:54:38.841532,-218.0
2023-08-21 10:54:38.849221,-194.0
2023-08-21 10:54:38.856910,-133.0
2023-08-21 10:54:38.864599,-162.0
2023-08-21 10:54:38.872287,-165.0
2023-08-21 10:54:38.879976,-143.0
2023-08-21 10:54:38.887665,-138.0
2023-08-21 10:54:38.895353,-131.0
2023-08-21 10:54:38.903042,-111.0
2023-08-21 10:54:38.910731,-102.0
2023-08-21 10:54:38.918420,-99.0
2023-08-21 10:54:38.926108,-97.0
2023-08-21 10:54:38.933797,-85.0
2023-08-21 10:54:38.941486,-68.0
2023-08-21 10:54:38.949175,-53.0
2023-08-21 10:54:38.956863,-43.0
2023-08-21 10:54:38.964552,-31.0
2023-08-21 10:54:38.972241,-26.0
2023-08-21 10:54:38.979930,-19.0
2023-08-21 10:54:38.987618,-2.0
2023-08-21 10:54:38.995307,14.0
2023-08-21 10:54:39.002996,21.0
2023-08-21 10:54:39.010684,21.0
2023-08-21 10:54:39.018373,26.0
2023-08-21 10:54:39.026062,36.0
2023-08-21 10:54:39.033751,41.0
2023-08-21 10:54:39.041439,38.0
2023-08-21 10:54:39.049128,38.0
2023-08-21 10:54:39.056817,41.0
2023-08-21 10:54:39.064506,36.0
2023-08-21 10:54:39.072194,24.0
2023-08-21 10:54:39.079883,4.0
2023-08-21 10:54:39.087572,-26.0
2023-08-21 10:54:39.095260,-65.0
2023-08-21 10:54:39.102949,-109.0
2023-08-21 10:54:39.110638,-138.0
2023-08-21 10:54:39.118327,-148.0
2023-08-21 10:54:39.126015,-155.0
2023-08-21 10:54:39.133704,-157.0
2023-08-21 10:54:39.141393,-157.0
2023-08-21 10:54:39.149082,-162.0
2023-08-21 10:54:39.156770,-160.0
2023-08-21 10:54:39.164459,-145.0
2023-08-21 10:54:39.172148,-138.0
2023-08-21 10:54:39.179837,-133.0
2023-08-21 10:54:39.187525,-133.0
2023-08-21 10:54:39.195214,-138.0
2023-08-21 10:54:39.202903,-136.0
2023-08-21 10:54:39.210591,-126.0
2023-08-21 10:54:39.218280,-123.0
2023-08-21 10:54:39.225969,-123.0
2023-08-21 10:54:39.233658,-119.0
2023-08-21 10:54:39.241346,-121.0
2023-08-21 10:54:39.249035,-121.0
2023-08-21 10:54:39.256724,-119.0
2023-08-21 10:54:39.264413,-116.0
2023-08-21 10:54:39.272101,-114.0
2023-08-21 10:54:39.279790,-114.0
2023-08-21 10:54:39.287479,-119.0
2023-08-21 10:54:39.295167,-119.0
2023-08-21 10:54:39.302856,-111.0
2023-08-21 10:54:39.310545,-106.0
2023-08-21 10:54:39.318234,-106.0
2023-08-21 10:54:39.325922,-114.0
2023-08-21 10:54:39.333611,-121.0
2023-08-21 10:54:39.341300,-116.0
2023-08-21 10:54:39.348989,-109.0
2023-08-21 10:54:39.356677,-104.0
2023-08-21 10:54:39.364366,-104.0
2023-08-21 10:54:39.372055,-104.0
2023-08-21 10:54:39.379744,-106.0
2023-08-21 10:54:39.387432,-102.0
2023-08-21 10:54:39.395121,-99.0
2023-08-21 10:54:39.402810,-102.0
2023-08-21 10:54:39.410498,-99.0
2023-08-21 10:54:39.418187,-99.0
2023-08-21 10:54:39.425876,-102.0
2023-08-21 10:54:39.433565,-94.0
2023-08-21 10:54:39.441253,-87.0
2023-08-21 10:54:39.448942,-87.0
2023-08-21 10:54:39.456631,-92.0
2023-08-21 10:54:39.464320,-82.0
2023-08-21 10:54:39.472008,-58.0
2023-08-21 10:54:39.479697,-43.0
2023-08-21 10:54:39.487386,-48.0
2023-08-21 10:54:39.495074,-60.0
2023-08-21 10:54:39.502763,-85.0
2023-08-21 10:54:39.510452,-114.0
2023-08-21 10:54:39.518141,-121.0
2023-08-21 10:54:39.525829,-111.0
2023-08-21 10:54:39.533518,-114.0
2023-08-21 10:54:39.541207,-116.0
2023-08-21 10:54:39.548896,-109.0
2023-08-21 10:54:39.556584,-106.0
2023-08-21 10:54:39.564273,-106.0
2023-08-21 10:54:39.571962,-111.0
2023-08-21 10:54:39.579651,-121.0
2023-08-21 10:54:39.587339,-46.0
2023-08-21 10:54:39.595028,293.0
2023-08-21 10:54:39.602717,867.0
2023-08-21 10:54:39.610405,1192.0
2023-08-21 10:54:39.618094,770.0
2023-08-21 10:54:39.625783,-46.0
2023-08-21 10:54:39.633472,-337.0
2023-08-21 10:54:39.641160,-121.0
2023-08-21 10:54:39.648849,-106.0
2023-08-21 10:54:39.656538,-218.0
2023-08-21 10:54:39.664227,-165.0
2023-08-21 10:54:39.671915,-123.0
2023-08-21 10:54:39.679604,-153.0
2023-08-21 10:54:39.687293,-138.0
2023-08-21 10:54:39.694981,-111.0
2023-08-21 10:54:39.702670,-111.0
2023-08-21 10:54:39.710359,-102.0
2023-08-21 10:54:39.718048,-82.0
2023-08-21 10:54:39.725736,-75.0
2023-08-21 10:54:39.733425,-70.0
2023-08-21 10:54:39.741114,-55.0
2023-08-21 10:54:39.748803,-43.0
2023-08-21 10:54:39.756491,-34.0
2023-08-21 10:54:39.764180,-19.0
2023-08-21 10:54:39.771869,-7.0
2023-08-21 10:54:39.779558,0.0
2023-08-21 10:54:39.787246,12.0
2023-08-21 10:54:39.794935,24.0
2023-08-21 10:54:39.802624,36.0
2023-08-21 10:54:39.810312,48.0
2023-08-21 10:54:39.818001,60.0
2023-08-21 10:54:39.825690,72.0
2023-08-21 10:54:39.833379,80.0
2023-08-21 10:54:39.841067,85.0
2023-08-21 10:54:39.848756,89.0
2023-08-21 10:54:39.856445,92.0
2023-08-21 10:54:39.864134,92.0
2023-08-21 10:54:39.871822,89.0
2023-08-21 10:54:39.879511,85.0
2023-08-21 10:54:39.887200,65.0
2023-08-21 10:54:39.894889,36.0
2023-08-21 10:54:39.902577,2.0
2023-08-21 10:54:39.910266,-34.0
2023-08-21 10:54:39.917955,-65.0
2023-08-21 10:54:39.925643,-89.0
2023-08-21 10:54:39.933332,-109.0
2023-08-21 10:54:39.941021,-114.0
2023-08-21 10:54:39.948710,-111.0
2023-08-21 10:54:39.956398,-111.0
2023-08-21 10:54:39.964087,-109.0
2023-08-21 10:54:39.971776,-102.0
2023-08-21 10:54:39.979465,-104.0
2023-08-21 10:54:39.987153,-104.0
2023-08-21 10:54:39.994842,-99.0
2023-08-21 10:54:40.002531,-97.0
2023-08-21 10:54:40.010219,-99.0
2023-08-21 10:54:40.017908,-94.0
2023-08-21 10:54:40.025597,-97.0
2023-08-21 10:54:40.033286,-97.0
2023-08-21 10:54:40.040974,-99.0
2023-08-21 10:54:40.048663,-109.0
2023-08-21 10:54:40.056352,-114.0
2023-08-21 10:54:40.064041,-111.0
2023-08-21 10:54:40.071729,-111.0
2023-08-21 10:54:40.079418,-111.0
2023-08-21 10:54:40.087107,-109.0
2023-08-21 10:54:40.094796,-111.0
2023-08-21 10:54:40.102484,-109.0
2023-08-21 10:54:40.110173,-106.0
2023-08-21 10:54:40.117862,-106.0
2023-08-21 10:54:40.125550,-104.0
2023-08-21 10:54:40.133239,-99.0
2023-08-21 10:54:40.140928,-99.0
2023-08-21 10:54:40.148617,-97.0
2023-08-21 10:54:40.156305,-92.0
2023-08-21 10:54:40.163994,-92.0
2023-08-21 10:54:40.171683,-89.0
2023-08-21 10:54:40.179372,-92.0
2023-08-21 10:54:40.187060,-94.0
2023-08-21 10:54:40.194749,-92.0
2023-08-21 10:54:40.202438,-92.0
2023-08-21 10:54:40.210126,-92.0
2023-08-21 10:54:40.217815,-89.0
2023-08-21 10:54:40.225504,-89.0
2023-08-21 10:54:40.233193,-89.0
2023-08-21 10:54:40.240881,-85.0
2023-08-21 10:54:40.248570,-80.0
2023-08-21 10:54:40.256259,-82.0
2023-08-21 10:54:40.263948,-87.0
2023-08-21 10:54:40.271636,-75.0
2023-08-21 10:54:40.279325,-41.0
2023-08-21 10:54:40.287014,-17.0
2023-08-21 10:54:40.294703,-21.0
2023-08-21 10:54:40.302391,-34.0
2023-08-21 10:54:40.310080,-46.0
2023-08-21 10:54:40.317769,-70.0
2023-08-21 10:54:40.325457,-87.0
2023-08-21 10:54:40.333146,-77.0
2023-08-21 10:54:40.340835,-75.0
2023-08-21 10:54:40.348524,-80.0
2023-08-21 10:54:40.356212,-80.0
2023-08-21 10:54:40.363901,-75.0
2023-08-21 10:54:40.371590,-77.0
2023-08-21 10:54:40.379279,-85.0
2023-08-21 10:54:40.386967,-97.0
2023-08-21 10:54:40.394656,-34.0
2023-08-21 10:54:40.402345,286.0
2023-08-21 10:54:40.410033,857.0
2023-08-21 10:54:40.417722,1212.0
2023-08-21 10:54:40.425411,833.0
2023-08-21 10:54:40.433100,7.0
2023-08-21 10:54:40.440788,-325.0
2023-08-21 10:54:40.448477,-116.0
2023-08-21 10:54:40.456166,-85.0
2023-08-21 10:54:40.463855,-204.0
2023-08-21 10:54:40.471543,-160.0
2023-08-21 10:54:40.479232,-121.0
2023-08-21 10:54:40.486921,-160.0
2023-08-21 10:54:40.494610,-148.0
2023-08-21 10:54:40.502298,-114.0
2023-08-21 10:54:40.509987,-119.0
2023-08-21 10:54:40.517676,-119.0
2023-08-21 10:54:40.525364,-99.0
2023-08-21 10:54:40.533053,-89.0
2023-08-21 10:54:40.540742,-85.0
2023-08-21 10:54:40.548431,-70.0
2023-08-21 10:54:40.556119,-58.0
2023-08-21 10:54:40.563808,-46.0
2023-08-21 10:54:40.571497,-36.0
2023-08-21 10:54:40.579186,-26.0
2023-08-21 10:54:40.586874,-24.0
2023-08-21 10:54:40.594563,-19.0
2023-08-21 10:54:40.602252,-2.0
2023-08-21 10:54:40.609940,14.0
2023-08-21 10:54:40.617629,24.0
2023-08-21 10:54:40.625318,31.0
2023-08-21 10:54:40.633007,34.0
2023-08-21 10:54:40.640695,38.0
2023-08-21 10:54:40.648384,51.0
2023-08-21 10:54:40.656073,55.0
2023-08-21 10:54:40.663762,53.0
2023-08-21 10:54:40.671450,51.0
2023-08-21 10:54:40.679139,43.0
2023-08-21 10:54:40.686828,31.0
2023-08-21 10:54:40.694517,21.0
2023-08-21 10:54:40.702205,-2.0
2023-08-21 10:54:40.709894,-41.0
2023-08-21 10:54:40.717583,-85.0
2023-08-21 10:54:40.725271,-123.0
2023-08-21 10:54:40.732960,-150.0
2023-08-21 10:54:40.740649,-160.0
2023-08-21 10:54:40.748338,-165.0
2023-08-21 10:54:40.756026,-170.0
2023-08-21 10:54:40.763715,-172.0
2023-08-21 10:54:40.771404,-167.0
2023-08-21 10:54:40.779093,-157.0
2023-08-21 10:54:40.786781,-150.0
2023-08-21 10:54:40.794470,-143.0
2023-08-21 10:54:40.802159,-138.0
2023-08-21 10:54:40.809847,-136.0
2023-08-21 10:54:40.817536,-131.0
2023-08-21 10:54:40.825225,-126.0
2023-08-21 10:54:40.832914,-121.0
2023-08-21 10:54:40.840602,-119.0
2023-08-21 10:54:40.848291,-119.0
2023-08-21 10:54:40.855980,-119.0
2023-08-21 10:54:40.863669,-119.0
2023-08-21 10:54:40.871357,-116.0
2023-08-21 10:54:40.879046,-116.0
2023-08-21 10:54:40.886735,-116.0
2023-08-21 10:54:40.894424,-119.0
2023-08-21 10:54:40.902112,-121.0
2023-08-21 10:54:40.909801,-119.0
2023-08-21 10:54:40.917490,-116.0
2023-08-21 10:54:40.925178,-114.0
2023-08-21 10:54:40.932867,-111.0
2023-08-21 10:54:40.940556,-111.0
2023-08-21 10:54:40.948245,-114.0
2023-08-21 10:54:40.955933,-111.0
2023-08-21 10:54:40.963622,-106.0
2023-08-21 10:54:40.971311,-106.0
2023-08-21 10:54:40.979000,-106.0
2023-08-21 10:54:40.986688,-114.0
2023-08-21 10:54:40.994377,-116.0
2023-08-21 10:54:41.002066,-111.0
2023-08-21 10:54:41.009754,-114.0
2023-08-21 10:54:41.017443,-114.0
2023-08-21 10:54:41.025132,-111.0
2023-08-21 10:54:41.032821,-114.0
2023-08-21 10:54:41.040509,-119.0
2023-08-21 10:54:41.048198,-116.0
2023-08-21 10:54:41.055887,-106.0
2023-08-21 10:54:41.063576,-106.0
2023-08-21 10:54:41.071264,-111.0
2023-08-21 10:54:41.078953,-94.0
2023-08-21 10:54:41.086642,-58.0
2023-08-21 10:54:41.094331,-38.0
2023-08-21 10:54:41.102019,-46.0
2023-08-21 10:54:41.109708,-60.0
2023-08-21 10:54:41.117397,-75.0
2023-08-21 10:54:41.125085,-99.0
2023-08-21 10:54:41.132774,-114.0
2023-08-21 10:54:41.140463,-106.0
2023-08-21 10:54:41.148152,-102.0
2023-08-21 10:54:41.155840,-106.0
2023-08-21 10:54:41.163529,-106.0
2023-08-21 10:54:41.171218,-111.0
2023-08-21 10:54:41.178907,-121.0
2023-08-21 10:54:41.186595,-126.0
2023-08-21 10:54:41.194284,-136.0
2023-08-21 10:54:41.201973,-60.0
2023-08-21 10:54:41.209661,289.0
2023-08-21 10:54:41.217350,869.0
2023-08-21 10:54:41.225039,1173.0
2023-08-21 10:54:41.232728,723.0
2023-08-21 10:54:41.240416,-89.0
2023-08-21 10:54:41.248105,-352.0
2023-08-21 10:54:41.255794,-136.0
2023-08-21 10:54:41.263483,-136.0
2023-08-21 10:54:41.271171,-245.0
2023-08-21 10:54:41.278860,-187.0
2023-08-21 10:54:41.286549,-150.0
2023-08-21 10:54:41.294238,-179.0
2023-08-21 10:54:41.301926,-162.0
2023-08-21 10:54:41.309615,-138.0
2023-08-21 10:54:41.317304,-140.0
2023-08-21 10:54:41.324992,-131.0
2023-08-21 10:54:41.332681,-114.0
2023-08-21 10:54:41.340370,-104.0
2023-08-21 10:54:41.348059,-97.0
2023-08-21 10:54:41.355747,-87.0
2023-08-21 10:54:41.363436,-77.0
2023-08-21 10:54:41.371125,-65.0
2023-08-21 10:54:41.378814,-51.0
2023-08-21 10:54:41.386502,-38.0
2023-08-21 10:54:41.394191,-29.0
2023-08-21 10:54:41.401880,-17.0
2023-08-21 10:54:41.409568,-4.0
2023-08-21 10:54:41.417257,9.0
2023-08-21 10:54:41.424946,21.0
2023-08-21 10:54:41.432635,31.0
2023-08-21 10:54:41.440323,41.0
2023-08-21 10:54:41.448012,51.0
2023-08-21 10:54:41.455701,55.0
2023-08-21 10:54:41.463390,60.0
2023-08-21 10:54:41.471078,63.0
2023-08-21 10:54:41.478767,63.0
2023-08-21 10:54:41.486456,53.0
2023-08-21 10:54:41.494145,38.0
2023-08-21 10:54:41.501833,19.0
2023-08-21 10:54:41.509522,-12.0
2023-08-21 10:54:41.517211,-48.0
2023-08-21 10:54:41.524899,-82.0
2023-08-21 10:54:41.532588,-116.0
2023-08-21 10:54:41.540277,-143.0
2023-08-21 10:54:41.547966,-155.0
2023-08-21 10:54:41.555654,-160.0
2023-08-21 10:54:41.563343,-160.0
2023-08-21 10:54:41.571032,-157.0
2023-08-21 10:54:41.578721,-155.0
2023-08-21 10:54:41.586409,-150.0
2023-08-21 10:54:41.594098,-143.0
2023-08-21 10:54:41.601787,-136.0
2023-08-21 10:54:41.609475,-131.0
2023-08-21 10:54:41.617164,-128.0
2023-08-21 10:54:41.624853,-128.0
2023-08-21 10:54:41.632542,-126.0
2023-08-21 10:54:41.640230,-121.0
2023-08-21 10:54:41.647919,-119.0
2023-08-21 10:54:41.655608,-119.0
2023-08-21 10:54:41.663297,-119.0
2023-08-21 10:54:41.670985,-119.0
2023-08-21 10:54:41.678674,-119.0
2023-08-21 10:54:41.686363,-119.0
2023-08-21 10:54:41.694052,-119.0
2023-08-21 10:54:41.701740,-116.0
2023-08-21 10:54:41.709429,-121.0
2023-08-21 10:54:41.717118,-131.0
2023-08-21 10:54:41.724806,-128.0
2023-08-21 10:54:41.732495,-123.0
2023-08-21 10:54:41.740184,-126.0
2023-08-21 10:54:41.747873,-133.0
2023-08-21 10:54:41.755561,-143.0
2023-08-21 10:54:41.763250,-150.0
2023-08-21 10:54:41.770939,-145.0
2023-08-21 10:54:41.778628,-138.0
2023-08-21 10:54:41.786316,-138.0
2023-08-21 10:54:41.794005,-133.0
2023-08-21 10:54:41.801694,-131.0
2023-08-21 10:54:41.809382,-128.0
2023-08-21 10:54:41.817071,-126.0
2023-08-21 10:54:41.824760,-121.0
2023-08-21 10:54:41.832449,-116.0
2023-08-21 10:54:41.840137,-114.0
2023-08-21 10:54:41.847826,-109.0
2023-08-21 10:54:41.855515,-104.0
2023-08-21 10:54:41.863204,-99.0
2023-08-21 10:54:41.870892,-104.0
2023-08-21 10:54:41.878581,-102.0
2023-08-21 10:54:41.886270,-72.0
2023-08-21 10:54:41.893959,-46.0
2023-08-21 10:54:41.901647,-43.0
2023-08-21 10:54:41.909336,-58.0
2023-08-21 10:54:41.917025,-72.0
2023-08-21 10:54:41.924713,-89.0
2023-08-21 10:54:41.932402,-109.0
2023-08-21 10:54:41.940091,-111.0
2023-08-21 10:54:41.947780,-104.0
2023-08-21 10:54:41.955468,-106.0
2023-08-21 10:54:41.963157,-109.0
2023-08-21 10:54:41.970846,-102.0
2023-08-21 10:54:41.978535,-99.0
2023-08-21 10:54:41.986223,-109.0
2023-08-21 10:54:41.993912,-126.0
2023-08-21 10:54:42.001601,-126.0
2023-08-21 10:54:42.009289,17.0
2023-08-21 10:54:42.016978,463.0
2023-08-21 10:54:42.024667,1032.0
2023-08-21 10:54:42.032356,1134.0
2023-08-21 10:54:42.040044,476.0
2023-08-21 10:54:42.047733,-252.0
2023-08-21 10:54:42.055422,-296.0
2023-08-21 10:54:42.063111,-94.0
2023-08-21 10:54:42.070799,-170.0
2023-08-21 10:54:42.078488,-228.0
2023-08-21 10:54:42.086177,-153.0
2023-08-21 10:54:42.093866,-150.0
2023-08-21 10:54:42.101554,-170.0
2023-08-21 10:54:42.109243,-138.0
2023-08-21 10:54:42.116932,-121.0
2023-08-21 10:54:42.124620,-123.0
2023-08-21 10:54:42.132309,-106.0
2023-08-21 10:54:42.139998,-92.0
2023-08-21 10:54:42.147687,-87.0
2023-08-21 10:54:42.155375,-80.0
2023-08-21 10:54:42.163064,-68.0
2023-08-21 10:54:42.170753,-53.0
2023-08-21 10:54:42.178442,-38.0
2023-08-21 10:54:42.186130,-29.0
2023-08-21 10:54:42.193819,-17.0
2023-08-21 10:54:42.201508,-2.0
2023-08-21 10:54:42.209196,7.0
2023-08-21 10:54:42.216885,19.0
2023-08-21 10:54:42.224574,34.0
2023-08-21 10:54:42.232263,43.0
2023-08-21 10:54:42.239951,51.0
2023-08-21 10:54:42.247640,53.0
2023-08-21 10:54:42.255329,53.0
2023-08-21 10:54:42.263018,58.0
2023-08-21 10:54:42.270706,63.0
2023-08-21 10:54:42.278395,60.0
2023-08-21 10:54:42.286084,58.0
2023-08-21 10:54:42.293773,51.0
2023-08-21 10:54:42.301461,29.0
2023-08-21 10:54:42.309150,4.0
2023-08-21 10:54:42.316839,-24.0
2023-08-21 10:54:42.324527,-63.0
2023-08-21 10:54:42.332216,-102.0
2023-08-21 10:54:42.339905,-131.0
2023-08-21 10:54:42.347594,-153.0
2023-08-21 10:54:42.355282,-162.0
2023-08-21 10:54:42.362971,-162.0
2023-08-21 10:54:42.370660,-162.0
2023-08-21 10:54:42.378349,-160.0
2023-08-21 10:54:42.386037,-153.0
2023-08-21 10:54:42.393726,-145.0
2023-08-21 10:54:42.401415,-138.0
2023-08-21 10:54:42.409103,-128.0
2023-08-21 10:54:42.416792,-123.0
2023-08-21 10:54:42.424481,-121.0
2023-08-21 10:54:42.432170,-116.0
2023-08-21 10:54:42.439858,-116.0
2023-08-21 10:54:42.447547,-111.0
2023-08-21 10:54:42.455236,-106.0
2023-08-21 10:54:42.462925,-106.0
2023-08-21 10:54:42.470613,-106.0
2023-08-21 10:54:42.478302,-106.0
2023-08-21 10:54:42.485991,-114.0
2023-08-21 10:54:42.493680,-121.0
2023-08-21 10:54:42.501368,-123.0
2023-08-21 10:54:42.509057,-121.0
2023-08-21 10:54:42.516746,-121.0
2023-08-21 10:54:42.524434,-123.0
2023-08-21 10:54:42.532123,-121.0
2023-08-21 10:54:42.539812,-114.0
2023-08-21 10:54:42.547501,-114.0
2023-08-21 10:54:42.555189,-114.0
2023-08-21 10:54:42.562878,-116.0
2023-08-21 10:54:42.570567,-116.0
2023-08-21 10:54:42.578256,-114.0
2023-08-21 10:54:42.585944,-109.0
2023-08-21 10:54:42.593633,-109.0
2023-08-21 10:54:42.601322,-109.0
2023-08-21 10:54:42.609011,-109.0
2023-08-21 10:54:42.616699,-109.0
2023-08-21 10:54:42.624388,-104.0
2023-08-21 10:54:42.632077,-99.0
2023-08-21 10:54:42.639765,-94.0
2023-08-21 10:54:42.647454,-94.0
2023-08-21 10:54:42.655143,-97.0
2023-08-21 10:54:42.662832,-75.0
2023-08-21 10:54:42.670520,-41.0
2023-08-21 10:54:42.678209,-26.0
2023-08-21 10:54:42.685898,-38.0
2023-08-21 10:54:42.693587,-58.0
2023-08-21 10:54:42.701275,-80.0
2023-08-21 10:54:42.708964,-104.0
2023-08-21 10:54:42.716653,-111.0
2023-08-21 10:54:42.724341,-111.0
2023-08-21 10:54:42.732030,-114.0
2023-08-21 10:54:42.739719,-121.0
2023-08-21 10:54:42.747408,-123.0
2023-08-21 10:54:42.755096,-121.0
2023-08-21 10:54:42.762785,-116.0
2023-08-21 10:54:42.770474,-116.0
2023-08-21 10:54:42.778163,-133.0
2023-08-21 10:54:42.785851,-121.0
2023-08-21 10:54:42.793540,80.0
2023-08-21 10:54:42.801229,583.0
2023-08-21 10:54:42.808918,1100.0
2023-08-21 10:54:42.816606,1029.0
2023-08-21 10:54:42.824295,269.0
2023-08-21 10:54:42.831984,-342.0
2023-08-21 10:54:42.839672,-262.0
2023-08-21 10:54:42.847361,-109.0
2023-08-21 10:54:42.855050,-218.0
2023-08-21 10:54:42.862739,-233.0
2023-08-21 10:54:42.870427,-162.0
2023-08-21 10:54:42.878116,-179.0
2023-08-21 10:54:42.885805,-194.0
2023-08-21 10:54:42.893494,-157.0
2023-08-21 10:54:42.901182,-143.0
2023-08-21 10:54:42.908871,-140.0
2023-08-21 10:54:42.916560,-123.0
2023-08-21 10:54:42.924248,-114.0
2023-08-21 10:54:42.931937,-111.0
2023-08-21 10:54:42.939626,-97.0
2023-08-21 10:54:42.947315,-82.0
2023-08-21 10:54:42.955003,-75.0
2023-08-21 10:54:42.962692,-60.0
2023-08-21 10:54:42.970381,-46.0
2023-08-21 10:54:42.978070,-38.0
2023-08-21 10:54:42.985758,-31.0
2023-08-21 10:54:42.993447,-17.0
2023-08-21 10:54:43.001136,-9.0
2023-08-21 10:54:43.008825,-4.0
2023-08-21 10:54:43.016513,9.0
2023-08-21 10:54:43.024202,21.0
2023-08-21 10:54:43.031891,34.0
2023-08-21 10:54:43.039579,43.0
2023-08-21 10:54:43.047268,51.0
2023-08-21 10:54:43.054957,51.0
2023-08-21 10:54:43.062646,48.0
2023-08-21 10:54:43.070334,48.0
2023-08-21 10:54:43.078023,46.0
2023-08-21 10:54:43.085712,29.0
2023-08-21 10:54:43.093401,2.0
2023-08-21 10:54:43.101089,-31.0
2023-08-21 10:54:43.108778,-72.0
2023-08-21 10:54:43.116467,-106.0
2023-08-21 10:54:43.124155,-131.0
2023-08-21 10:54:43.131844,-145.0
2023-08-21 10:54:43.139533,-153.0
2023-08-21 10:54:43.147222,-157.0
2023-08-21 10:54:43.154910,-157.0
2023-08-21 10:54:43.162599,-153.0
2023-08-21 10:54:43.170288,-145.0
2023-08-21 10:54:43.177977,-136.0
2023-08-21 10:54:43.185665,-128.0
2023-08-21 10:54:43.193354,-123.0
2023-08-21 10:54:43.201043,-121.0
2023-08-21 10:54:43.208732,-119.0
2023-08-21 10:54:43.216420,-116.0
2023-08-21 10:54:43.224109,-116.0
2023-08-21 10:54:43.231798,-114.0
2023-08-21 10:54:43.239486,-111.0
2023-08-21 10:54:43.247175,-111.0
2023-08-21 10:54:43.254864,-114.0
2023-08-21 10:54:43.262553,-111.0
2023-08-21 10:54:43.270241,-111.0
2023-08-21 10:54:43.277930,-111.0
2023-08-21 10:54:43.285619,-111.0
2023-08-21 10:54:43.293308,-114.0
2023-08-21 10:54:43.300996,-111.0
2023-08-21 10:54:43.308685,-109.0
2023-08-21 10:54:43.316374,-106.0
2023-08-21 10:54:43.324062,-104.0
2023-08-21 10:54:43.331751,-104.0
2023-08-21 10:54:43.339440,-106.0
2023-08-21 10:54:43.347129,-104.0
2023-08-21 10:54:43.354817,-102.0
2023-08-21 10:54:43.362506,-99.0
2023-08-21 10:54:43.370195,-97.0
2023-08-21 10:54:43.377884,-102.0
2023-08-21 10:54:43.385572,-104.0
2023-08-21 10:54:43.393261,-104.0
2023-08-21 10:54:43.400950,-102.0
2023-08-21 10:54:43.408639,-97.0
2023-08-21 10:54:43.416327,-99.0
2023-08-21 10:54:43.424016,-109.0
2023-08-21 10:54:43.431705,-109.0
2023-08-21 10:54:43.439393,-102.0
2023-08-21 10:54:43.447082,-102.0
2023-08-21 10:54:43.454771,-85.0
2023-08-21 10:54:43.462460,-53.0
2023-08-21 10:54:43.470148,-41.0
2023-08-21 10:54:43.477837,-51.0
2023-08-21 10:54:43.485526,-65.0
2023-08-21 10:54:43.493215,-80.0
2023-08-21 10:54:43.500903,-104.0
2023-08-21 10:54:43.508592,-121.0
2023-08-21 10:54:43.516281,-123.0
2023-08-21 10:54:43.523969,-123.0
2023-08-21 10:54:43.531658,-128.0
2023-08-21 10:54:43.539347,-126.0
2023-08-21 10:54:43.547036,-121.0
2023-08-21 10:54:43.554724,-121.0
2023-08-21 10:54:43.562413,-126.0
2023-08-21 10:54:43.570102,-140.0
2023-08-21 10:54:43.577791,-138.0
2023-08-21 10:54:43.585479,29.0
2023-08-21 10:54:43.593168,500.0
2023-08-21 10:54:43.600857,1046.0
2023-08-21 10:54:43.608546,1078.0
2023-08-21 10:54:43.616234,378.0
2023-08-21 10:54:43.623923,-303.0
2023-08-21 10:54:43.631612,-289.0
2023-08-21 10:54:43.639300,-104.0
2023-08-21 10:54:43.646989,-201.0
2023-08-21 10:54:43.654678,-242.0
2023-08-21 10:54:43.662367,-167.0
2023-08-21 10:54:43.670055,-174.0
2023-08-21 10:54:43.677744,-191.0
2023-08-21 10:54:43.685433,-157.0
2023-08-21 10:54:43.693122,-145.0
2023-08-21 10:54:43.700810,-148.0
2023-08-21 10:54:43.708499,-133.0
2023-08-21 10:54:43.716188,-121.0
2023-08-21 10:54:43.723876,-119.0
2023-08-21 10:54:43.731565,-106.0
2023-08-21 10:54:43.739254,-94.0
2023-08-21 10:54:43.746943,-82.0
2023-08-21 10:54:43.754631,-70.0
2023-08-21 10:54:43.762320,-58.0
2023-08-21 10:54:43.770009,-46.0
2023-08-21 10:54:43.777698,-34.0
2023-08-21 10:54:43.785386,-21.0
2023-08-21 10:54:43.793075,-9.0
2023-08-21 10:54:43.800764,2.0
2023-08-21 10:54:43.808453,17.0
2023-08-21 10:54:43.816141,31.0
2023-08-21 10:54:43.823830,38.0
2023-08-21 10:54:43.831519,46.0
2023-08-21 10:54:43.839207,51.0
2023-08-21 10:54:43.846896,55.0
2023-08-21 10:54:43.854585,55.0
2023-08-21 10:54:43.862274,55.0
2023-08-21 10:54:43.869962,51.0
2023-08-21 10:54:43.877651,36.0
2023-08-21 10:54:43.885340,9.0
2023-08-21 10:54:43.893029,-24.0
2023-08-21 10:54:43.900717,-63.0
2023-08-21 10:54:43.908406,-97.0
2023-08-21 10:54:43.916095,-128.0
2023-08-21 10:54:43.923783,-148.0
2023-08-21 10:54:43.931472,-155.0
2023-08-21 10:54:43.939161,-160.0
2023-08-21 10:54:43.946850,-157.0
2023-08-21 10:54:43.954538,-155.0
2023-08-21 10:54:43.962227,-153.0
2023-08-21 10:54:43.969916,-148.0
2023-08-21 10:54:43.977605,-138.0
2023-08-21 10:54:43.985293,-133.0
2023-08-21 10:54:43.992982,-133.0
2023-08-21 10:54:44.000671,-131.0
2023-08-21 10:54:44.008360,-133.0
2023-08-21 10:54:44.016048,-133.0
2023-08-21 10:54:44.023737,-128.0
2023-08-21 10:54:44.031426,-128.0
2023-08-21 10:54:44.039114,-131.0
2023-08-21 10:54:44.046803,-136.0
2023-08-21 10:54:44.054492,-143.0
2023-08-21 10:54:44.062181,-145.0
2023-08-21 10:54:44.069869,-140.0
2023-08-21 10:54:44.077558,-140.0
2023-08-21 10:54:44.085247,-140.0
2023-08-21 10:54:44.092936,-138.0
2023-08-21 10:54:44.100624,-136.0
2023-08-21 10:54:44.108313,-136.0
2023-08-21 10:54:44.116002,-133.0
2023-08-21 10:54:44.123690,-131.0
2023-08-21 10:54:44.131379,-128.0
2023-08-21 10:54:44.139068,-126.0
2023-08-21 10:54:44.146757,-126.0
2023-08-21 10:54:44.154445,-121.0
2023-08-21 10:54:44.162134,-119.0
2023-08-21 10:54:44.169823,-116.0
2023-08-21 10:54:44.177512,-116.0
2023-08-21 10:54:44.185200,-116.0
2023-08-21 10:54:44.192889,-119.0
2023-08-21 10:54:44.200578,-116.0
2023-08-21 10:54:44.208267,-116.0
2023-08-21 10:54:44.215955,-119.0
2023-08-21 10:54:44.223644,-119.0
2023-08-21 10:54:44.231333,-116.0
2023-08-21 10:54:44.239021,-114.0
2023-08-21 10:54:44.246710,-109.0
2023-08-21 10:54:44.254399,-104.0
2023-08-21 10:54:44.262088,-102.0
2023-08-21 10:54:44.269776,-97.0
2023-08-21 10:54:44.277465,-77.0
2023-08-21 10:54:44.285154,-48.0
2023-08-21 10:54:44.292843,-41.0
2023-08-21 10:54:44.300531,-53.0
2023-08-21 10:54:44.308220,-70.0
2023-08-21 10:54:44.315909,-89.0
2023-08-21 10:54:44.323597,-106.0
2023-08-21 10:54:44.331286,-114.0
2023-08-21 10:54:44.338975,-116.0
2023-08-21 10:54:44.346664,-116.0
2023-08-21 10:54:44.354352,-116.0
2023-08-21 10:54:44.362041,-116.0
2023-08-21 10:54:44.369730,-114.0
2023-08-21 10:54:44.377419,-114.0
2023-08-21 10:54:44.385107,-119.0
2023-08-21 10:54:44.392796,-136.0
2023-08-21 10:54:44.400485,-111.0
2023-08-21 10:54:44.408174,126.0
2023-08-21 10:54:44.415862,658.0
2023-08-21 10:54:44.423551,1134.0
2023-08-21 10:54:44.431240,966.0
2023-08-21 10:54:44.438928,170.0
2023-08-21 10:54:44.446617,-357.0
2023-08-21 10:54:44.454306,-221.0
2023-08-21 10:54:44.461995,-104.0
2023-08-21 10:54:44.469683,-228.0
2023-08-21 10:54:44.477372,-223.0
2023-08-21 10:54:44.485061,-155.0
2023-08-21 10:54:44.492750,-177.0
2023-08-21 10:54:44.500438,-184.0
2023-08-21 10:54:44.508127,-155.0
2023-08-21 10:54:44.515816,-150.0
2023-08-21 10:54:44.523504,-145.0
2023-08-21 10:54:44.531193,-128.0
2023-08-21 10:54:44.538882,-123.0
2023-08-21 10:54:44.546571,-126.0
2023-08-21 10:54:44.554259,-119.0
2023-08-21 10:54:44.561948,-102.0
2023-08-21 10:54:44.569637,-89.0
2023-08-21 10:54:44.577326,-77.0
2023-08-21 10:54:44.585014,-70.0
2023-08-21 10:54:44.592703,-68.0
2023-08-21 10:54:44.600392,-60.0
2023-08-21 10:54:44.608081,-41.0
2023-08-21 10:54:44.615769,-24.0
2023-08-21 10:54:44.623458,-14.0
2023-08-21 10:54:44.631147,-2.0
2023-08-21 10:54:44.638835,9.0
2023-08-21 10:54:44.646524,21.0
2023-08-21 10:54:44.654213,31.0
2023-08-21 10:54:44.661902,38.0
2023-08-21 10:54:44.669590,41.0
2023-08-21 10:54:44.677279,41.0
2023-08-21 10:54:44.684968,41.0
2023-08-21 10:54:44.692657,36.0
2023-08-21 10:54:44.700345,19.0
2023-08-21 10:54:44.708034,-9.0
2023-08-21 10:54:44.715723,-43.0
2023-08-21 10:54:44.723411,-80.0
2023-08-21 10:54:44.731100,-116.0
2023-08-21 10:54:44.738789,-143.0
2023-08-21 10:54:44.746478,-157.0
2023-08-21 10:54:44.754166,-167.0
2023-08-21 10:54:44.761855,-167.0
2023-08-21 10:54:44.769544,-167.0
2023-08-21 10:54:44.777233,-167.0
2023-08-21 10:54:44.784921,-157.0
2023-08-21 10:54:44.792610,-150.0
2023-08-21 10:54:44.800299,-143.0
2023-08-21 10:54:44.807988,-138.0
2023-08-21 10:54:44.815676,-136.0
2023-08-21 10:54:44.823365,-133.0
2023-08-21 10:54:44.831054,-128.0
2023-08-21 10:54:44.838742,-123.0
2023-08-21 10:54:44.846431,-121.0
2023-08-21 10:54:44.854120,-119.0
2023-08-21 10:54:44.861809,-121.0
2023-08-21 10:54:44.869497,-121.0
2023-08-21 10:54:44.877186,-119.0
2023-08-21 10:54:44.884875,-116.0
2023-08-21 10:54:44.892564,-114.0
2023-08-21 10:54:44.900252,-114.0
2023-08-21 10:54:44.907941,-116.0
2023-08-21 10:54:44.915630,-119.0
2023-08-21 10:54:44.923318,-114.0
2023-08-21 10:54:44.931007,-111.0
2023-08-21 10:54:44.938696,-111.0
2023-08-21 10:54:44.946385,-114.0
2023-08-21 10:54:44.954073,-116.0
2023-08-21 10:54:44.961762,-114.0
2023-08-21 10:54:44.969451,-109.0
2023-08-21 10:54:44.977140,-109.0
2023-08-21 10:54:44.984828,-106.0
2023-08-21 10:54:44.992517,-106.0
2023-08-21 10:54:45.000206,-111.0
2023-08-21 10:54:45.007895,-116.0
2023-08-21 10:54:45.015583,-119.0
2023-08-21 10:54:45.023272,-114.0
2023-08-21 10:54:45.030961,-109.0
2023-08-21 10:54:45.038649,-109.0
2023-08-21 10:54:45.046338,-109.0
2023-08-21 10:54:45.054027,-106.0
2023-08-21 10:54:45.061716,-104.0
2023-08-21 10:54:45.069404,-99.0
2023-08-21 10:54:45.077093,-99.0
2023-08-21 10:54:45.084782,-104.0
2023-08-21 10:54:45.092471,-109.0
2023-08-21 10:54:45.100159,-106.0
2023-08-21 10:54:45.107848,-99.0
2023-08-21 10:54:45.115537,-87.0
2023-08-21 10:54:45.123225,-65.0
2023-08-21 10:54:45.130914,-48.0
2023-08-21 10:54:45.138603,-58.0
2023-08-21 10:54:45.146292,-77.0
2023-08-21 10:54:45.153980,-87.0
2023-08-21 10:54:45.161669,-99.0
2023-08-21 10:54:45.169358,-114.0
2023-08-21 10:54:45.177047,-116.0
2023-08-21 10:54:45.184735,-114.0
2023-08-21 10:54:45.192424,-119.0
2023-08-21 10:54:45.200113,-123.0
2023-08-21 10:54:45.207802,-116.0
2023-08-21 10:54:45.215490,-114.0
2023-08-21 10:54:45.223179,-116.0
2023-08-21 10:54:45.230868,-126.0
2023-08-21 10:54:45.238556,-136.0
2023-08-21 10:54:45.246245,-38.0
2023-08-21 10:54:45.253934,337.0
2023-08-21 10:54:45.261623,915.0
2023-08-21 10:54:45.269311,1168.0
2023-08-21 10:54:45.277000,655.0
2023-08-21 10:54:45.284689,-143.0
2023-08-21 10:54:45.292378,-340.0
2023-08-21 10:54:45.300066,-116.0
2023-08-21 10:54:45.307755,-140.0
2023-08-21 10:54:45.315444,-238.0
2023-08-21 10:54:45.323132,-174.0
2023-08-21 10:54:45.330821,-148.0
2023-08-21 10:54:45.338510,-177.0
2023-08-21 10:54:45.346199,-153.0
2023-08-21 10:54:45.353887,-131.0
2023-08-21 10:54:45.361576,-133.0
2023-08-21 10:54:45.369265,-123.0
2023-08-21 10:54:45.376954,-106.0
2023-08-21 10:54:45.384642,-99.0
2023-08-21 10:54:45.392331,-87.0
2023-08-21 10:54:45.400020,-75.0
2023-08-21 10:54:45.407709,-65.0
2023-08-21 10:54:45.415397,-53.0
2023-08-21 10:54:45.423086,-41.0
2023-08-21 10:54:45.430775,-29.0
2023-08-21 10:54:45.438463,-19.0
2023-08-21 10:54:45.446152,-12.0
2023-08-21 10:54:45.453841,0.0
2023-08-21 10:54:45.461530,14.0
2023-08-21 10:54:45.469218,26.0
2023-08-21 10:54:45.476907,38.0
2023-08-21 10:54:45.484596,51.0
2023-08-21 10:54:45.492285,58.0
2023-08-21 10:54:45.499973,65.0
2023-08-21 10:54:45.507662,68.0
2023-08-21 10:54:45.515351,63.0
2023-08-21 10:54:45.523040,55.0
2023-08-21 10:54:45.530728,55.0
2023-08-21 10:54:45.538417,51.0
2023-08-21 10:54:45.546106,31.0
2023-08-21 10:54:45.553794,0.0
2023-08-21 10:54:45.561483,-38.0
2023-08-21 10:54:45.569172,-75.0
2023-08-21 10:54:45.576861,-106.0
2023-08-21 10:54:45.584549,-133.0
2023-08-21 10:54:45.592238,-148.0
2023-08-21 10:54:45.599927,-153.0
2023-08-21 10:54:45.607616,-153.0
2023-08-21 10:54:45.615304,-150.0
2023-08-21 10:54:45.622993,-145.0
2023-08-21 10:54:45.630682,-138.0
2023-08-21 10:54:45.638370,-133.0
2023-08-21 10:54:45.646059,-128.0
2023-08-21 10:54:45.653748,-123.0
2023-08-21 10:54:45.661437,-119.0
2023-08-21 10:54:45.669125,-121.0
2023-08-21 10:54:45.676814,-128.0
2023-08-21 10:54:45.684503,-128.0
2023-08-21 10:54:45.692192,-128.0
2023-08-21 10:54:45.699880,-128.0
2023-08-21 10:54:45.707569,-128.0
2023-08-21 10:54:45.715258,-136.0
2023-08-21 10:54:45.722947,-143.0
2023-08-21 10:54:45.730635,-140.0
2023-08-21 10:54:45.738324,-136.0
2023-08-21 10:54:45.746013,-138.0
2023-08-21 10:54:45.753701,-136.0
2023-08-21 10:54:45.761390,-133.0
2023-08-21 10:54:45.769079,-133.0
2023-08-21 10:54:45.776768,-131.0
2023-08-21 10:54:45.784456,-126.0
2023-08-21 10:54:45.792145,-126.0
2023-08-21 10:54:45.799834,-126.0
2023-08-21 10:54:45.807523,-126.0
2023-08-21 10:54:45.815211,-123.0
2023-08-21 10:54:45.822900,-121.0
2023-08-21 10:54:45.830589,-119.0
2023-08-21 10:54:45.838277,-119.0
2023-08-21 10:54:45.845966,-116.0
2023-08-21 10:54:45.853655,-114.0
2023-08-21 10:54:45.861344,-111.0
2023-08-21 10:54:45.869032,-109.0
2023-08-21 10:54:45.876721,-106.0
2023-08-21 10:54:45.884410,-104.0
2023-08-21 10:54:45.892099,-102.0
2023-08-21 10:54:45.899787,-102.0
2023-08-21 10:54:45.907476,-99.0
2023-08-21 10:54:45.915165,-97.0
2023-08-21 10:54:45.922854,-97.0
2023-08-21 10:54:45.930542,-102.0
2023-08-21 10:54:45.938231,-102.0
2023-08-21 10:54:45.945920,-102.0
2023-08-21 10:54:45.953608,-99.0
2023-08-21 10:54:45.961297,-97.0
2023-08-21 10:54:45.968986,-80.0
2023-08-21 10:54:45.976675,-53.0
2023-08-21 10:54:45.984363,-38.0
2023-08-21 10:54:45.992052,-51.0
2023-08-21 10:54:45.999741,-70.0
2023-08-21 10:54:46.007430,-82.0
2023-08-21 10:54:46.015118,-99.0
2023-08-21 10:54:46.022807,-116.0
2023-08-21 10:54:46.030496,-116.0
2023-08-21 10:54:46.038184,-111.0
2023-08-21 10:54:46.045873,-111.0
2023-08-21 10:54:46.053562,-111.0
2023-08-21 10:54:46.061251,-106.0
2023-08-21 10:54:46.068939,-106.0
2023-08-21 10:54:46.076628,-106.0
2023-08-21 10:54:46.084317,-121.0
2023-08-21 10:54:46.092006,-119.0
2023-08-21 10:54:46.099694,31.0
2023-08-21 10:54:46.107383,485.0
2023-08-21 10:54:46.115072,1051.0
2023-08-21 10:54:46.122761,1132.0
2023-08-21 10:54:46.130449,459.0
2023-08-21 10:54:46.138138,-257.0
2023-08-21 10:54:46.145827,-279.0
2023-08-21 10:54:46.153515,-85.0
2023-08-21 10:54:46.161204,-174.0
2023-08-21 10:54:46.168893,-238.0
2023-08-21 10:54:46.176582,-170.0
2023-08-21 10:54:46.184270,-170.0
2023-08-21 10:54:46.191959,-189.0
2023-08-21 10:54:46.199648,-155.0
2023-08-21 10:54:46.207337,-140.0
2023-08-21 10:54:46.215025,-143.0
2023-08-21 10:54:46.222714,-128.0
2023-08-21 10:54:46.230403,-109.0
2023-08-21 10:54:46.238091,-104.0
2023-08-21 10:54:46.245780,-92.0
2023-08-21 10:54:46.253469,-77.0
2023-08-21 10:54:46.261158,-68.0
2023-08-21 10:54:46.268846,-58.0
2023-08-21 10:54:46.276535,-43.0
2023-08-21 10:54:46.284224,-26.0
2023-08-21 10:54:46.291913,-14.0
2023-08-21 10:54:46.299601,-4.0
2023-08-21 10:54:46.307290,7.0
2023-08-21 10:54:46.314979,24.0
2023-08-21 10:54:46.322668,41.0
2023-08-21 10:54:46.330356,51.0
2023-08-21 10:54:46.338045,60.0
2023-08-21 10:54:46.345734,70.0
2023-08-21 10:54:46.353422,75.0
2023-08-21 10:54:46.361111,80.0
2023-08-21 10:54:46.368800,82.0
2023-08-21 10:54:46.376489,85.0
2023-08-21 10:54:46.384177,80.0
2023-08-21 10:54:46.391866,68.0
2023-08-21 10:54:46.399555,43.0
2023-08-21 10:54:46.407244,12.0
2023-08-21 10:54:46.414932,-24.0
2023-08-21 10:54:46.422621,-65.0
2023-08-21 10:54:46.430310,-102.0
2023-08-21 10:54:46.437998,-128.0
2023-08-21 10:54:46.445687,-140.0
2023-08-21 10:54:46.453376,-143.0
2023-08-21 10:54:46.461065,-145.0
2023-08-21 10:54:46.468753,-140.0
2023-08-21 10:54:46.476442,-136.0
2023-08-21 10:54:46.484131,-133.0
2023-08-21 10:54:46.491820,-126.0
2023-08-21 10:54:46.499508,-116.0
2023-08-21 10:54:46.507197,-111.0
2023-08-21 10:54:46.514886,-109.0
2023-08-21 10:54:46.522575,-114.0
2023-08-21 10:54:46.530263,-116.0
2023-08-21 10:54:46.537952,-114.0
2023-08-21 10:54:46.545641,-106.0
2023-08-21 10:54:46.553329,-104.0
2023-08-21 10:54:46.561018,-104.0
2023-08-21 10:54:46.568707,-104.0
2023-08-21 10:54:46.576396,-109.0
2023-08-21 10:54:46.584084,-109.0
2023-08-21 10:54:46.591773,-111.0
2023-08-21 10:54:46.599462,-109.0
2023-08-21 10:54:46.607151,-106.0
2023-08-21 10:54:46.614839,-109.0
2023-08-21 10:54:46.622528,-111.0
2023-08-21 10:54:46.630217,-111.0
2023-08-21 10:54:46.637905,-109.0
2023-08-21 10:54:46.645594,-106.0
2023-08-21 10:54:46.653283,-106.0
2023-08-21 10:54:46.660972,-106.0
2023-08-21 10:54:46.668660,-109.0
2023-08-21 10:54:46.676349,-109.0
2023-08-21 10:54:46.684038,-106.0
2023-08-21 10:54:46.691727,-102.0
2023-08-21 10:54:46.699415,-102.0
2023-08-21 10:54:46.707104,-104.0
2023-08-21 10:54:46.714793,-104.0
2023-08-21 10:54:46.722482,-104.0
2023-08-21 10:54:46.730170,-102.0
2023-08-21 10:54:46.737859,-102.0
2023-08-21 10:54:46.745548,-102.0
2023-08-21 10:54:46.753236,-102.0
2023-08-21 10:54:46.760925,-102.0
2023-08-21 10:54:46.768614,-99.0
2023-08-21 10:54:46.776303,-97.0
2023-08-21 10:54:46.783991,-92.0
2023-08-21 10:54:46.791680,-92.0
2023-08-21 10:54:46.799369,-94.0
2023-08-21 10:54:46.807058,-82.0
2023-08-21 10:54:46.814746,-53.0
2023-08-21 10:54:46.822435,-31.0
2023-08-21 10:54:46.830124,-36.0
2023-08-21 10:54:46.837812,-53.0
2023-08-21 10:54:46.845501,-68.0
2023-08-21 10:54:46.853190,-85.0
2023-08-21 10:54:46.860879,-97.0
2023-08-21 10:54:46.868567,-97.0
2023-08-21 10:54:46.876256,-94.0
2023-08-21 10:54:46.883945,-97.0
2023-08-21 10:54:46.891634,-99.0
2023-08-21 10:54:46.899322,-97.0
2023-08-21 10:54:46.907011,-97.0
2023-08-21 10:54:46.914700,-97.0
2023-08-21 10:54:46.922389,-111.0
2023-08-21 10:54:46.930077,-121.0
2023-08-21 10:54:46.937766,-24.0
2023-08-21 10:54:46.945455,357.0
2023-08-21 10:54:46.953143,937.0
2023-08-21 10:54:46.960832,1192.0
2023-08-21 10:54:46.968521,672.0
2023-08-21 10:54:46.976210,-140.0
2023-08-21 10:54:46.983898,-344.0
2023-08-21 10:54:46.991587,-116.0
2023-08-21 10:54:46.999276,-140.0
2023-08-21 10:54:47.006965,-238.0
2023-08-21 10:54:47.014653,-172.0
2023-08-21 10:54:47.022342,-150.0
2023-08-21 10:54:47.030031,-189.0
2023-08-21 10:54:47.037719,-165.0
2023-08-21 10:54:47.045408,-136.0
2023-08-21 10:54:47.053097,-140.0
2023-08-21 10:54:47.060786,-133.0
2023-08-21 10:54:47.068474,-126.0
2023-08-21 10:54:47.076163,-126.0
2023-08-21 10:54:47.083852,-116.0
2023-08-21 10:54:47.091541,-99.0
2023-08-21 10:54:47.099229,-87.0
2023-08-21 10:54:47.106918,-77.0
2023-08-21 10:54:47.114607,-65.0
2023-08-21 10:54:47.122296,-53.0
2023-08-21 10:54:47.129984,-41.0
2023-08-21 10:54:47.137673,-29.0
2023-08-21 10:54:47.145362,-14.0
2023-08-21 10:54:47.153050,0.0
2023-08-21 10:54:47.160739,12.0
2023-08-21 10:54:47.168428,19.0
2023-08-21 10:54:47.176117,29.0
2023-08-21 10:54:47.183805,41.0
2023-08-21 10:54:47.191494,51.0
2023-08-21 10:54:47.199183,51.0
2023-08-21 10:54:47.206872,51.0
2023-08-21 10:54:47.214560,53.0
2023-08-21 10:54:47.222249,48.0
2023-08-21 10:54:47.229938,41.0
2023-08-21 10:54:47.237626,24.0
2023-08-21 10:54:47.245315,-9.0
2023-08-21 10:54:47.253004,-48.0
2023-08-21 10:54:47.260693,-82.0
2023-08-21 10:54:47.268381,-116.0
2023-08-21 10:54:47.276070,-145.0
2023-08-21 10:54:47.283759,-160.0
2023-08-21 10:54:47.291448,-167.0
2023-08-21 10:54:47.299136,-170.0
2023-08-21 10:54:47.306825,-167.0
2023-08-21 10:54:47.314514,-162.0
2023-08-21 10:54:47.322203,-155.0
2023-08-21 10:54:47.329891,-153.0
2023-08-21 10:54:47.337580,-155.0
2023-08-21 10:54:47.345269,-155.0
2023-08-21 10:54:47.352957,-145.0
2023-08-21 10:54:47.360646,-140.0
2023-08-21 10:54:47.368335,-138.0
2023-08-21 10:54:47.376024,-140.0
2023-08-21 10:54:47.383712,-150.0
2023-08-21 10:54:47.391401,-153.0
2023-08-21 10:54:47.399090,-148.0
2023-08-21 10:54:47.406779,-150.0
2023-08-21 10:54:47.414467,-155.0
2023-08-21 10:54:47.422156,-153.0
2023-08-21 10:54:47.429845,-150.0
2023-08-21 10:54:47.437533,-153.0
2023-08-21 10:54:47.445222,-148.0
2023-08-21 10:54:47.452911,-143.0
2023-08-21 10:54:47.460600,-143.0
2023-08-21 10:54:47.468288,-143.0
2023-08-21 10:54:47.475977,-140.0
2023-08-21 10:54:47.483666,-138.0
2023-08-21 10:54:47.491355,-136.0
2023-08-21 10:54:47.499043,-136.0
2023-08-21 10:54:47.506732,-136.0
2023-08-21 10:54:47.514421,-136.0
2023-08-21 10:54:47.522110,-138.0
2023-08-21 10:54:47.529798,-143.0
2023-08-21 10:54:47.537487,-143.0
2023-08-21 10:54:47.545176,-140.0
2023-08-21 10:54:47.552864,-138.0
2023-08-21 10:54:47.560553,-136.0
2023-08-21 10:54:47.568242,-131.0
2023-08-21 10:54:47.575931,-128.0
2023-08-21 10:54:47.583619,-126.0
2023-08-21 10:54:47.591308,-123.0
2023-08-21 10:54:47.598997,-121.0
2023-08-21 10:54:47.606686,-116.0
2023-08-21 10:54:47.614374,-111.0
2023-08-21 10:54:47.622063,-104.0
2023-08-21 10:54:47.629752,-102.0
2023-08-21 10:54:47.637440,-92.0
2023-08-21 10:54:47.645129,-60.0
2023-08-21 10:54:47.652818,-41.0
2023-08-21 10:54:47.660507,-53.0
2023-08-21 10:54:47.668195,-70.0
2023-08-21 10:54:47.675884,-77.0
2023-08-21 10:54:47.683573,-92.0
2023-08-21 10:54:47.691262,-104.0
2023-08-21 10:54:47.698950,-104.0
2023-08-21 10:54:47.706639,-99.0
2023-08-21 10:54:47.714328,-99.0
2023-08-21 10:54:47.722017,-99.0
2023-08-21 10:54:47.729705,-99.0
2023-08-21 10:54:47.737394,-97.0
2023-08-21 10:54:47.745083,-99.0
2023-08-21 10:54:47.752771,-111.0
2023-08-21 10:54:47.760460,-114.0
2023-08-21 10:54:47.768149,19.0
2023-08-21 10:54:47.775838,451.0
2023-08-21 10:54:47.783526,1025.0
2023-08-21 10:54:47.791215,1166.0
2023-08-21 10:54:47.798904,536.0
2023-08-21 10:54:47.806593,-218.0
2023-08-21 10:54:47.814281,-293.0
2023-08-21 10:54:47.821970,-82.0
2023-08-21 10:54:47.829659,-153.0
2023-08-21 10:54:47.837347,-225.0
2023-08-21 10:54:47.845036,-150.0
2023-08-21 10:54:47.852725,-140.0
2023-08-21 10:54:47.860414,-167.0
2023-08-21 10:54:47.868102,-140.0
2023-08-21 10:54:47.875791,-131.0
2023-08-21 10:54:47.883480,-140.0
2023-08-21 10:54:47.891169,-126.0
2023-08-21 10:54:47.898857,-106.0
2023-08-21 10:54:47.906546,-106.0
2023-08-21 10:54:47.914235,-99.0
2023-08-21 10:54:47.921924,-85.0
2023-08-21 10:54:47.929612,-72.0
2023-08-21 10:54:47.937301,-60.0
2023-08-21 10:54:47.944990,-46.0
2023-08-21 10:54:47.952678,-34.0
2023-08-21 10:54:47.960367,-21.0
2023-08-21 10:54:47.968056,-9.0
2023-08-21 10:54:47.975745,7.0
2023-08-21 10:54:47.983433,19.0
2023-08-21 10:54:47.991122,34.0
2023-08-21 10:54:47.998811,46.0
2023-08-21 10:54:48.006500,55.0
2023-08-21 10:54:48.014188,63.0
2023-08-21 10:54:48.021877,70.0
2023-08-21 10:54:48.029566,72.0
2023-08-21 10:54:48.037254,68.0
2023-08-21 10:54:48.044943,63.0
2023-08-21 10:54:48.052632,58.0
2023-08-21 10:54:48.060321,48.0
2023-08-21 10:54:48.068009,26.0
2023-08-21 10:54:48.075698,-4.0
2023-08-21 10:54:48.083387,-41.0
2023-08-21 10:54:48.091076,-77.0
2023-08-21 10:54:48.098764,-111.0
2023-08-21 10:54:48.106453,-136.0
2023-08-21 10:54:48.114142,-148.0
2023-08-21 10:54:48.121831,-153.0
2023-08-21 10:54:48.129519,-153.0
2023-08-21 10:54:48.137208,-150.0
2023-08-21 10:54:48.144897,-150.0
2023-08-21 10:54:48.152585,-148.0
2023-08-21 10:54:48.160274,-140.0
2023-08-21 10:54:48.167963,-133.0
2023-08-21 10:54:48.175652,-128.0
2023-08-21 10:54:48.183340,-123.0
2023-08-21 10:54:48.191029,-123.0
2023-08-21 10:54:48.198718,-123.0
2023-08-21 10:54:48.206407,-121.0
2023-08-21 10:54:48.214095,-116.0
2023-08-21 10:54:48.221784,-116.0
2023-08-21 10:54:48.229473,-116.0
2023-08-21 10:54:48.237162,-119.0
2023-08-21 10:54:48.244850,-119.0
2023-08-21 10:54:48.252539,-116.0
2023-08-21 10:54:48.260228,-116.0
2023-08-21 10:54:48.267916,-116.0
2023-08-21 10:54:48.275605,-116.0
2023-08-21 10:54:48.283294,-119.0
2023-08-21 10:54:48.290983,-119.0
2023-08-21 10:54:48.298671,-114.0
2023-08-21 10:54:48.306360,-111.0
2023-08-21 10:54:48.314049,-111.0
2023-08-21 10:54:48.321738,-114.0
2023-08-21 10:54:48.329426,-116.0
2023-08-21 10:54:48.337115,-116.0
2023-08-21 10:54:48.344804,-119.0
2023-08-21 10:54:48.352492,-116.0
2023-08-21 10:54:48.360181,-111.0
2023-08-21 10:54:48.367870,-114.0
2023-08-21 10:54:48.375559,-116.0
2023-08-21 10:54:48.383247,-114.0
2023-08-21 10:54:48.390936,-109.0
2023-08-21 10:54:48.398625,-114.0
2023-08-21 10:54:48.406314,-114.0
2023-08-21 10:54:48.414002,-111.0
2023-08-21 10:54:48.421691,-109.0
2023-08-21 10:54:48.429380,-104.0
2023-08-21 10:54:48.437069,-97.0
2023-08-21 10:54:48.444757,-94.0
2023-08-21 10:54:48.452446,-85.0
2023-08-21 10:54:48.460135,-58.0
2023-08-21 10:54:48.467823,-41.0
2023-08-21 10:54:48.475512,-43.0
2023-08-21 10:54:48.483201,-55.0
2023-08-21 10:54:48.490890,-72.0
2023-08-21 10:54:48.498578,-89.0
2023-08-21 10:54:48.506267,-106.0
2023-08-21 10:54:48.513956,-116.0
2023-08-21 10:54:48.521645,-114.0
2023-08-21 10:54:48.529333,-109.0
2023-08-21 10:54:48.537022,-114.0
2023-08-21 10:54:48.544711,-123.0
2023-08-21 10:54:48.552399,-133.0
2023-08-21 10:54:48.560088,-138.0
2023-08-21 10:54:48.567777,-143.0
2023-08-21 10:54:48.575466,-150.0
2023-08-21 10:54:48.583154,-55.0
2023-08-21 10:54:48.590843,323.0
2023-08-21 10:54:48.598532,898.0
2023-08-21 10:54:48.606221,1149.0
2023-08-21 10:54:48.613909,638.0
2023-08-21 10:54:48.621598,-165.0
2023-08-21 10:54:48.629287,-366.0
2023-08-21 10:54:48.636976,-140.0
2023-08-21 10:54:48.644664,-165.0
2023-08-21 10:54:48.652353,-264.0
2023-08-21 10:54:48.660042,-199.0
2023-08-21 10:54:48.667730,-170.0
2023-08-21 10:54:48.675419,-199.0
2023-08-21 10:54:48.683108,-177.0
2023-08-21 10:54:48.690797,-150.0
2023-08-21 10:54:48.698485,-153.0
2023-08-21 10:54:48.706174,-140.0
2023-08-21 10:54:48.713863,-121.0
2023-08-21 10:54:48.721552,-114.0
2023-08-21 10:54:48.729240,-111.0
2023-08-21 10:54:48.736929,-106.0
2023-08-21 10:54:48.744618,-94.0
2023-08-21 10:54:48.752306,-77.0
2023-08-21 10:54:48.759995,-65.0
2023-08-21 10:54:48.767684,-53.0
2023-08-21 10:54:48.775373,-46.0
2023-08-21 10:54:48.783061,-41.0
2023-08-21 10:54:48.790750,-29.0
2023-08-21 10:54:48.798439,-7.0
2023-08-21 10:54:48.806128,4.0
2023-08-21 10:54:48.813816,17.0
2023-08-21 10:54:48.821505,26.0
2023-08-21 10:54:48.829194,38.0
2023-08-21 10:54:48.836883,48.0
2023-08-21 10:54:48.844571,53.0
2023-08-21 10:54:48.852260,55.0
2023-08-21 10:54:48.859949,58.0
2023-08-21 10:54:48.867637,53.0
2023-08-21 10:54:48.875326,43.0
2023-08-21 10:54:48.883015,19.0
2023-08-21 10:54:48.890704,-14.0
2023-08-21 10:54:48.898392,-53.0
2023-08-21 10:54:48.906081,-87.0
2023-08-21 10:54:48.913770,-121.0
2023-08-21 10:54:48.921459,-148.0
2023-08-21 10:54:48.929147,-160.0
2023-08-21 10:54:48.936836,-165.0
2023-08-21 10:54:48.944525,-165.0
2023-08-21 10:54:48.952213,-160.0
2023-08-21 10:54:48.959902,-155.0
2023-08-21 10:54:48.967591,-150.0
2023-08-21 10:54:48.975280,-145.0
2023-08-21 10:54:48.982968,-138.0
2023-08-21 10:54:48.990657,-131.0
2023-08-21 10:54:48.998346,-133.0
2023-08-21 10:54:49.006035,-138.0
2023-08-21 10:54:49.013723,-136.0
2023-08-21 10:54:49.021412,-128.0
2023-08-21 10:54:49.029101,-126.0
2023-08-21 10:54:49.036790,-126.0
2023-08-21 10:54:49.044478,-128.0
2023-08-21 10:54:49.052167,-133.0
2023-08-21 10:54:49.059856,-136.0
2023-08-21 10:54:49.067544,-136.0
2023-08-21 10:54:49.075233,-133.0
2023-08-21 10:54:49.082922,-133.0
2023-08-21 10:54:49.090611,-140.0
2023-08-21 10:54:49.098299,-148.0
2023-08-21 10:54:49.105988,-143.0
2023-08-21 10:54:49.113677,-138.0
2023-08-21 10:54:49.121366,-138.0
2023-08-21 10:54:49.129054,-136.0
2023-08-21 10:54:49.136743,-133.0
2023-08-21 10:54:49.144432,-131.0
2023-08-21 10:54:49.152120,-126.0
2023-08-21 10:54:49.159809,-128.0
2023-08-21 10:54:49.167498,-128.0
2023-08-21 10:54:49.175187,-128.0
2023-08-21 10:54:49.182875,-136.0
2023-08-21 10:54:49.190564,-140.0
2023-08-21 10:54:49.198253,-136.0
2023-08-21 10:54:49.205942,-133.0
2023-08-21 10:54:49.213630,-131.0
2023-08-21 10:54:49.221319,-131.0
2023-08-21 10:54:49.229008,-138.0
2023-08-21 10:54:49.236697,-140.0
2023-08-21 10:54:49.244385,-131.0
2023-08-21 10:54:49.252074,-121.0
2023-08-21 10:54:49.259763,-119.0
2023-08-21 10:54:49.267451,-119.0
2023-08-21 10:54:49.275140,-114.0
2023-08-21 10:54:49.282829,-85.0
2023-08-21 10:54:49.290518,-63.0
2023-08-21 10:54:49.298206,-70.0
2023-08-21 10:54:49.305895,-82.0
2023-08-21 10:54:49.313584,-102.0
2023-08-21 10:54:49.321273,-123.0
2023-08-21 10:54:49.328961,-131.0
2023-08-21 10:54:49.336650,-121.0
2023-08-21 10:54:49.344339,-121.0
2023-08-21 10:54:49.352027,-121.0
2023-08-21 10:54:49.359716,-123.0
2023-08-21 10:54:49.367405,-128.0
2023-08-21 10:54:49.375094,-123.0
2023-08-21 10:54:49.382782,-123.0
2023-08-21 10:54:49.390471,-138.0
2023-08-21 10:54:49.398160,-138.0
2023-08-21 10:54:49.405849,0.0
2023-08-21 10:54:49.413537,432.0
2023-08-21 10:54:49.421226,1005.0
2023-08-21 10:54:49.428915,1129.0
2023-08-21 10:54:49.436604,478.0
2023-08-21 10:54:49.444292,-259.0
2023-08-21 10:54:49.451981,-308.0
2023-08-21 10:54:49.459670,-97.0
2023-08-21 10:54:49.467358,-170.0
2023-08-21 10:54:49.475047,-233.0
2023-08-21 10:54:49.482736,-157.0
2023-08-21 10:54:49.490425,-150.0
2023-08-21 10:54:49.498113,-170.0
2023-08-21 10:54:49.505802,-138.0
2023-08-21 10:54:49.513491,-116.0
2023-08-21 10:54:49.521180,-119.0
2023-08-21 10:54:49.528868,-109.0
2023-08-21 10:54:49.536557,-92.0
2023-08-21 10:54:49.544246,-92.0
2023-08-21 10:54:49.551934,-89.0
2023-08-21 10:54:49.559623,-77.0
2023-08-21 10:54:49.567312,-68.0
2023-08-21 10:54:49.575001,-55.0
2023-08-21 10:54:49.582689,-46.0
2023-08-21 10:54:49.590378,-41.0
2023-08-21 10:54:49.598067,-29.0
2023-08-21 10:54:49.605756,-9.0
2023-08-21 10:54:49.613444,4.0
2023-08-21 10:54:49.621133,17.0
2023-08-21 10:54:49.628822,21.0
2023-08-21 10:54:49.636511,26.0
2023-08-21 10:54:49.644199,41.0
2023-08-21 10:54:49.651888,55.0
2023-08-21 10:54:49.659577,65.0
2023-08-21 10:54:49.667265,68.0
2023-08-21 10:54:49.674954,65.0
2023-08-21 10:54:49.682643,58.0
2023-08-21 10:54:49.690332,58.0
2023-08-21 10:54:49.698020,53.0
2023-08-21 10:54:49.705709,29.0
2023-08-21 10:54:49.713398,-12.0
2023-08-21 10:54:49.721087,-55.0
2023-08-21 10:54:49.728775,-97.0
2023-08-21 10:54:49.736464,-126.0
2023-08-21 10:54:49.744153,-143.0
2023-08-21 10:54:49.751841,-155.0
2023-08-21 10:54:49.759530,-160.0
2023-08-21 10:54:49.767219,-162.0
2023-08-21 10:54:49.774908,-157.0
2023-08-21 10:54:49.782596,-148.0
2023-08-21 10:54:49.790285,-140.0
2023-08-21 10:54:49.797974,-131.0
2023-08-21 10:54:49.805663,-123.0
2023-08-21 10:54:49.813351,-119.0
2023-08-21 10:54:49.821040,-111.0
2023-08-21 10:54:49.828729,-104.0
2023-08-21 10:54:49.836418,-99.0
2023-08-21 10:54:49.844106,-97.0
2023-08-21 10:54:49.851795,-97.0
2023-08-21 10:54:49.859484,-97.0
2023-08-21 10:54:49.867172,-94.0
2023-08-21 10:54:49.874861,-97.0
2023-08-21 10:54:49.882550,-97.0
2023-08-21 10:54:49.890239,-99.0
2023-08-21 10:54:49.897927,-106.0
2023-08-21 10:54:49.905616,-102.0
2023-08-21 10:54:49.913305,-94.0
2023-08-21 10:54:49.920994,-97.0
2023-08-21 10:54:49.928682,-97.0
2023-08-21 10:54:49.936371,-94.0
2023-08-21 10:54:49.944060,-97.0
2023-08-21 10:54:49.951748,-97.0
2023-08-21 10:54:49.959437,-92.0
2023-08-21 10:54:49.967126,-89.0
2023-08-21 10:54:49.974815,-85.0
2023-08-21 10:54:49.982503,-85.0
2023-08-21 10:54:49.990192,-89.0
2023-08-21 10:54:49.997881,-92.0
2023-08-21 10:54:50.005570,-82.0
2023-08-21 10:54:50.013258,-77.0
2023-08-21 10:54:50.020947,-80.0
2023-08-21 10:54:50.028636,-85.0
2023-08-21 10:54:50.036325,-87.0
2023-08-21 10:54:50.044013,-87.0
2023-08-21 10:54:50.051702,-87.0
2023-08-21 10:54:50.059391,-89.0
2023-08-21 10:54:50.067079,-77.0
2023-08-21 10:54:50.074768,-53.0
2023-08-21 10:54:50.082457,-53.0
2023-08-21 10:54:50.090146,-75.0
2023-08-21 10:54:50.097834,-87.0
2023-08-21 10:54:50.105523,-97.0
2023-08-21 10:54:50.113212,-114.0
2023-08-21 10:54:50.120901,-128.0
2023-08-21 10:54:50.128589,-140.0
2023-08-21 10:54:50.136278,-140.0
2023-08-21 10:54:50.143967,-133.0
2023-08-21 10:54:50.151655,-131.0
2023-08-21 10:54:50.159344,-128.0
2023-08-21 10:54:50.167033,-131.0
2023-08-21 10:54:50.174722,-145.0
2023-08-21 10:54:50.182410,-162.0
2023-08-21 10:54:50.190099,-133.0
2023-08-21 10:54:50.197788,85.0
2023-08-21 10:54:50.205477,600.0
2023-08-21 10:54:50.213165,1112.0
2023-08-21 10:54:50.220854,1020.0
2023-08-21 10:54:50.228543,240.0
2023-08-21 10:54:50.236232,-359.0
2023-08-21 10:54:50.243920,-255.0
2023-08-21 10:54:50.251609,-102.0
2023-08-21 10:54:50.259298,-225.0
2023-08-21 10:54:50.266986,-238.0
2023-08-21 10:54:50.274675,-160.0
2023-08-21 10:54:50.282364,-177.0
2023-08-21 10:54:50.290053,-184.0
2023-08-21 10:54:50.297741,-148.0
2023-08-21 10:54:50.305430,-140.0
2023-08-21 10:54:50.313119,-143.0
2023-08-21 10:54:50.320808,-123.0
2023-08-21 10:54:50.328496,-106.0
2023-08-21 10:54:50.336185,-102.0
2023-08-21 10:54:50.343874,-87.0
2023-08-21 10:54:50.351562,-75.0
2023-08-21 10:54:50.359251,-65.0
2023-08-21 10:54:50.366940,-55.0
2023-08-21 10:54:50.374629,-38.0
2023-08-21 10:54:50.382317,-21.0
2023-08-21 10:54:50.390006,-9.0
2023-08-21 10:54:50.397695,0.0
2023-08-21 10:54:50.405384,14.0
2023-08-21 10:54:50.413072,29.0
2023-08-21 10:54:50.420761,46.0
2023-08-21 10:54:50.428450,58.0
2023-08-21 10:54:50.436139,70.0
2023-08-21 10:54:50.443827,77.0
2023-08-21 10:54:50.451516,82.0
2023-08-21 10:54:50.459205,87.0
2023-08-21 10:54:50.466893,87.0
2023-08-21 10:54:50.474582,85.0
2023-08-21 10:54:50.482271,77.0
2023-08-21 10:54:50.489960,60.0
2023-08-21 10:54:50.497648,31.0
2023-08-21 10:54:50.505337,-2.0
2023-08-21 10:54:50.513026,-41.0
2023-08-21 10:54:50.520715,-75.0
2023-08-21 10:54:50.528403,-102.0
2023-08-21 10:54:50.536092,-121.0
2023-08-21 10:54:50.543781,-131.0
2023-08-21 10:54:50.551469,-131.0
2023-08-21 10:54:50.559158,-128.0
2023-08-21 10:54:50.566847,-131.0
2023-08-21 10:54:50.574536,-133.0
2023-08-21 10:54:50.582224,-128.0
2023-08-21 10:54:50.589913,-121.0
2023-08-21 10:54:50.597602,-114.0
2023-08-21 10:54:50.605291,-106.0
2023-08-21 10:54:50.612979,-104.0
2023-08-21 10:54:50.620668,-102.0
2023-08-21 10:54:50.628357,-97.0
2023-08-21 10:54:50.636046,-97.0
2023-08-21 10:54:50.643734,-99.0
2023-08-21 10:54:50.651423,-94.0
2023-08-21 10:54:50.659112,-92.0
2023-08-21 10:54:50.666800,-94.0
2023-08-21 10:54:50.674489,-97.0
2023-08-21 10:54:50.682178,-97.0
2023-08-21 10:54:50.689867,-94.0
2023-08-21 10:54:50.697555,-94.0
2023-08-21 10:54:50.705244,-97.0
2023-08-21 10:54:50.712933,-109.0
2023-08-21 10:54:50.720622,-114.0
2023-08-21 10:54:50.728310,-111.0
2023-08-21 10:54:50.735999,-111.0
2023-08-21 10:54:50.743688,-109.0
2023-08-21 10:54:50.751376,-109.0
2023-08-21 10:54:50.759065,-116.0
2023-08-21 10:54:50.766754,-121.0
2023-08-21 10:54:50.774443,-114.0
2023-08-21 10:54:50.782131,-106.0
2023-08-21 10:54:50.789820,-106.0
2023-08-21 10:54:50.797509,-102.0
2023-08-21 10:54:50.805198,-99.0
2023-08-21 10:54:50.812886,-97.0
2023-08-21 10:54:50.820575,-92.0
2023-08-21 10:54:50.828264,-87.0
2023-08-21 10:54:50.835953,-87.0
2023-08-21 10:54:50.843641,-80.0
2023-08-21 10:54:50.851330,-53.0
2023-08-21 10:54:50.859019,-34.0
2023-08-21 10:54:50.866707,-38.0
2023-08-21 10:54:50.874396,-51.0
2023-08-21 10:54:50.882085,-68.0
2023-08-21 10:54:50.889774,-89.0
2023-08-21 10:54:50.897462,-102.0
2023-08-21 10:54:50.905151,-102.0
2023-08-21 10:54:50.912840,-99.0
2023-08-21 10:54:50.920529,-102.0
2023-08-21 10:54:50.928217,-99.0
2023-08-21 10:54:50.935906,-99.0
2023-08-21 10:54:50.943595,-97.0
2023-08-21 10:54:50.951284,-97.0
2023-08-21 10:54:50.958972,-102.0
2023-08-21 10:54:50.966661,-119.0
2023-08-21 10:54:50.974350,-65.0
2023-08-21 10:54:50.982038,233.0
2023-08-21 10:54:50.989727,806.0
2023-08-21 10:54:50.997416,1219.0
2023-08-21 10:54:51.005105,898.0
2023-08-21 10:54:51.012793,58.0
2023-08-21 10:54:51.020482,-347.0
2023-08-21 10:54:51.028171,-150.0
2023-08-21 10:54:51.035860,-89.0
2023-08-21 10:54:51.043548,-213.0
2023-08-21 10:54:51.051237,-179.0
2023-08-21 10:54:51.058926,-126.0
2023-08-21 10:54:51.066614,-155.0
2023-08-21 10:54:51.074303,-153.0
2023-08-21 10:54:51.081992,-126.0
2023-08-21 10:54:51.089681,-123.0
2023-08-21 10:54:51.097369,-116.0
2023-08-21 10:54:51.105058,-102.0
2023-08-21 10:54:51.112747,-97.0
2023-08-21 10:54:51.120436,-89.0
2023-08-21 10:54:51.128124,-75.0
2023-08-21 10:54:51.135813,-63.0
2023-08-21 10:54:51.143502,-53.0
2023-08-21 10:54:51.151191,-41.0
2023-08-21 10:54:51.158879,-26.0
2023-08-21 10:54:51.166568,-14.0
2023-08-21 10:54:51.174257,0.0
2023-08-21 10:54:51.181945,14.0
2023-08-21 10:54:51.189634,26.0
2023-08-21 10:54:51.197323,41.0
2023-08-21 10:54:51.205012,53.0
2023-08-21 10:54:51.212700,65.0
2023-08-21 10:54:51.220389,77.0
2023-08-21 10:54:51.228078,82.0
2023-08-21 10:54:51.235767,87.0
2023-08-21 10:54:51.243455,87.0
2023-08-21 10:54:51.251144,80.0
2023-08-21 10:54:51.258833,68.0
2023-08-21 10:54:51.266521,63.0
2023-08-21 10:54:51.274210,46.0
2023-08-21 10:54:51.281899,9.0
2023-08-21 10:54:51.289588,-29.0
2023-08-21 10:54:51.297276,-63.0
2023-08-21 10:54:51.304965,-97.0
2023-08-21 10:54:51.312654,-121.0
2023-08-21 10:54:51.320343,-133.0
2023-08-21 10:54:51.328031,-140.0
2023-08-21 10:54:51.335720,-143.0
2023-08-21 10:54:51.343409,-138.0
2023-08-21 10:54:51.351098,-136.0
2023-08-21 10:54:51.358786,-133.0
2023-08-21 10:54:51.366475,-123.0
2023-08-21 10:54:51.374164,-116.0
2023-08-21 10:54:51.381852,-111.0
2023-08-21 10:54:51.389541,-109.0
2023-08-21 10:54:51.397230,-102.0
2023-08-21 10:54:51.404919,-97.0
2023-08-21 10:54:51.412607,-97.0
2023-08-21 10:54:51.420296,-94.0
2023-08-21 10:54:51.427985,-94.0
2023-08-21 10:54:51.435674,-92.0
2023-08-21 10:54:51.443362,-92.0
2023-08-21 10:54:51.451051,-89.0
2023-08-21 10:54:51.458740,-92.0
2023-08-21 10:54:51.466428,-92.0
2023-08-21 10:54:51.474117,-92.0
2023-08-21 10:54:51.481806,-89.0
2023-08-21 10:54:51.489495,-89.0
2023-08-21 10:54:51.497183,-87.0
2023-08-21 10:54:51.504872,-87.0
2023-08-21 10:54:51.512561,-87.0
2023-08-21 10:54:51.520250,-89.0
2023-08-21 10:54:51.527938,-87.0
2023-08-21 10:54:51.535627,-82.0
2023-08-21 10:54:51.543316,-82.0
2023-08-21 10:54:51.551005,-82.0
2023-08-21 10:54:51.558693,-82.0
2023-08-21 10:54:51.566382,-85.0
2023-08-21 10:54:51.574071,-87.0
2023-08-21 10:54:51.581759,-92.0
2023-08-21 10:54:51.589448,-92.0
2023-08-21 10:54:51.597137,-89.0
2023-08-21 10:54:51.604826,-94.0
2023-08-21 10:54:51.612514,-94.0
2023-08-21 10:54:51.620203,-68.0
2023-08-21 10:54:51.627892,-31.0
2023-08-21 10:54:51.635581,-19.0
2023-08-21 10:54:51.643269,-34.0
2023-08-21 10:54:51.650958,-48.0
2023-08-21 10:54:51.658647,-65.0
2023-08-21 10:54:51.666335,-87.0
2023-08-21 10:54:51.674024,-89.0
2023-08-21 10:54:51.681713,-82.0
2023-08-21 10:54:51.689402,-89.0
2023-08-21 10:54:51.697090,-97.0
2023-08-21 10:54:51.704779,-99.0
2023-08-21 10:54:51.712468,-99.0
2023-08-21 10:54:51.720157,-99.0
2023-08-21 10:54:51.727845,-99.0
2023-08-21 10:54:51.735534,-116.0
2023-08-21 10:54:51.743223,-82.0
2023-08-21 10:54:51.750912,184.0
2023-08-21 10:54:51.758600,743.0
2023-08-21 10:54:51.766289,1185.0
2023-08-21 10:54:51.773978,925.0
2023-08-21 10:54:51.781666,94.0
2023-08-21 10:54:51.789355,-361.0
2023-08-21 10:54:51.797044,-177.0
2023-08-21 10:54:51.804733,-94.0
2023-08-21 10:54:51.812421,-223.0
2023-08-21 10:54:51.820110,-196.0
2023-08-21 10:54:51.827799,-136.0
2023-08-21 10:54:51.835488,-165.0
2023-08-21 10:54:51.843176,-165.0
2023-08-21 10:54:51.850865,-133.0
2023-08-21 10:54:51.858554,-128.0
2023-08-21 10:54:51.866242,-121.0
2023-08-21 10:54:51.873931,-106.0
2023-08-21 10:54:51.881620,-106.0
2023-08-21 10:54:51.889309,-106.0
2023-08-21 10:54:51.896997,-87.0
2023-08-21 10:54:51.904686,-75.0
2023-08-21 10:54:51.912375,-68.0
2023-08-21 10:54:51.920064,-53.0
2023-08-21 10:54:51.927752,-38.0
2023-08-21 10:54:51.935441,-29.0
2023-08-21 10:54:51.943130,-17.0
2023-08-21 10:54:51.950819,2.0
2023-08-21 10:54:51.958507,17.0
2023-08-21 10:54:51.966196,26.0
2023-08-21 10:54:51.973885,36.0
2023-08-21 10:54:51.981573,53.0
2023-08-21 10:54:51.989262,65.0
2023-08-21 10:54:51.996951,72.0
2023-08-21 10:54:52.004640,77.0
2023-08-21 10:54:52.012328,77.0
2023-08-21 10:54:52.020017,75.0
2023-08-21 10:54:52.027706,75.0
2023-08-21 10:54:52.035395,68.0
2023-08-21 10:54:52.043083,48.0
2023-08-21 10:54:52.050772,14.0
2023-08-21 10:54:52.058461,-24.0
2023-08-21 10:54:52.066149,-65.0
2023-08-21 10:54:52.073838,-99.0
2023-08-21 10:54:52.081527,-131.0
2023-08-21 10:54:52.089216,-155.0
2023-08-21 10:54:52.096904,-165.0
2023-08-21 10:54:52.104593,-165.0
2023-08-21 10:54:52.112282,-165.0
2023-08-21 10:54:52.119971,-160.0
2023-08-21 10:54:52.127659,-150.0
2023-08-21 10:54:52.135348,-145.0
2023-08-21 10:54:52.143037,-138.0
2023-08-21 10:54:52.150726,-133.0
2023-08-21 10:54:52.158414,-131.0
2023-08-21 10:54:52.166103,-126.0
2023-08-21 10:54:52.173792,-121.0
2023-08-21 10:54:52.181480,-116.0
2023-08-21 10:54:52.189169,-114.0
2023-08-21 10:54:52.196858,-116.0
2023-08-21 10:54:52.204547,-116.0
2023-08-21 10:54:52.212235,-114.0
2023-08-21 10:54:52.219924,-111.0
2023-08-21 10:54:52.227613,-111.0
2023-08-21 10:54:52.235302,-111.0
2023-08-21 10:54:52.242990,-114.0
2023-08-21 10:54:52.250679,-116.0
2023-08-21 10:54:52.258368,-114.0
2023-08-21 10:54:52.266056,-111.0
2023-08-21 10:54:52.273745,-111.0
2023-08-21 10:54:52.281434,-109.0
2023-08-21 10:54:52.289123,-109.0
2023-08-21 10:54:52.296811,-109.0
2023-08-21 10:54:52.304500,-106.0
2023-08-21 10:54:52.312189,-102.0
2023-08-21 10:54:52.319878,-99.0
2023-08-21 10:54:52.327566,-97.0
2023-08-21 10:54:52.335255,-99.0
2023-08-21 10:54:52.342944,-102.0
2023-08-21 10:54:52.350633,-97.0
2023-08-21 10:54:52.358321,-87.0
2023-08-21 10:54:52.366010,-89.0
2023-08-21 10:54:52.373699,-92.0
2023-08-21 10:54:52.381387,-70.0
2023-08-21 10:54:52.389076,-34.0
2023-08-21 10:54:52.396765,-26.0
2023-08-21 10:54:52.404454,-36.0
2023-08-21 10:54:52.412142,-43.0
2023-08-21 10:54:52.419831,-65.0
2023-08-21 10:54:52.427520,-94.0
2023-08-21 10:54:52.435209,-97.0
2023-08-21 10:54:52.442897,-87.0
2023-08-21 10:54:52.450586,-89.0
2023-08-21 10:54:52.458275,-94.0
2023-08-21 10:54:52.465963,-99.0
2023-08-21 10:54:52.473652,-106.0
2023-08-21 10:54:52.481341,-106.0
2023-08-21 10:54:52.489030,-109.0
2023-08-21 10:54:52.496718,-123.0
2023-08-21 10:54:52.504407,-53.0
2023-08-21 10:54:52.512096,291.0
2023-08-21 10:54:52.519785,867.0
2023-08-21 10:54:52.527473,1183.0
2023-08-21 10:54:52.535162,740.0
2023-08-21 10:54:52.542851,-89.0
2023-08-21 10:54:52.550540,-369.0
2023-08-21 10:54:52.558228,-143.0
2023-08-21 10:54:52.565917,-133.0
2023-08-21 10:54:52.573606,-247.0
2023-08-21 10:54:52.581294,-194.0
2023-08-21 10:54:52.588983,-160.0
2023-08-21 10:54:52.596672,-196.0
2023-08-21 10:54:52.604361,-177.0
2023-08-21 10:54:52.612049,-145.0
2023-08-21 10:54:52.619738,-148.0
2023-08-21 10:54:52.627427,-140.0
2023-08-21 10:54:52.635116,-119.0
2023-08-21 10:54:52.642804,-109.0
2023-08-21 10:54:52.650493,-102.0
2023-08-21 10:54:52.658182,-89.0
2023-08-21 10:54:52.665870,-75.0
2023-08-21 10:54:52.673559,-63.0
2023-08-21 10:54:52.681248,-48.0
2023-08-21 10:54:52.688937,-36.0
2023-08-21 10:54:52.696625,-26.0
2023-08-21 10:54:52.704314,-14.0
2023-08-21 10:54:52.712003,2.0
2023-08-21 10:54:52.719692,19.0
2023-08-21 10:54:52.727380,34.0
2023-08-21 10:54:52.735069,51.0
2023-08-21 10:54:52.742758,60.0
2023-08-21 10:54:52.750447,70.0
2023-08-21 10:54:52.758135,77.0
2023-08-21 10:54:52.765824,82.0
2023-08-21 10:54:52.773513,85.0
2023-08-21 10:54:52.781201,82.0
2023-08-21 10:54:52.788890,77.0
2023-08-21 10:54:52.796579,68.0
2023-08-21 10:54:52.804268,41.0
2023-08-21 10:54:52.811956,2.0
2023-08-21 10:54:52.819645,-31.0
2023-08-21 10:54:52.827334,-68.0
2023-08-21 10:54:52.835023,-109.0
2023-08-21 10:54:52.842711,-133.0
2023-08-21 10:54:52.850400,-143.0
2023-08-21 10:54:52.858089,-150.0
2023-08-21 10:54:52.865777,-155.0
2023-08-21 10:54:52.873466,-150.0
2023-08-21 10:54:52.881155,-140.0
2023-08-21 10:54:52.888844,-136.0
2023-08-21 10:54:52.896532,-131.0
2023-08-21 10:54:52.904221,-123.0
2023-08-21 10:54:52.911910,-119.0
2023-08-21 10:54:52.919599,-123.0
2023-08-21 10:54:52.927287,-126.0
2023-08-21 10:54:52.934976,-121.0
2023-08-21 10:54:52.942665,-119.0
2023-08-21 10:54:52.950354,-114.0
2023-08-21 10:54:52.958042,-116.0
2023-08-21 10:54:52.965731,-123.0
2023-08-21 10:54:52.973420,-128.0
2023-08-21 10:54:52.981108,-123.0
2023-08-21 10:54:52.988797,-121.0
2023-08-21 10:54:52.996486,-123.0
2023-08-21 10:54:53.004175,-128.0
2023-08-21 10:54:53.011863,-133.0
2023-08-21 10:54:53.019552,-133.0
2023-08-21 10:54:53.027241,-123.0
2023-08-21 10:54:53.034930,-121.0
2023-08-21 10:54:53.042618,-121.0
2023-08-21 10:54:53.050307,-128.0
2023-08-21 10:54:53.057996,-133.0
2023-08-21 10:54:53.065684,-128.0
2023-08-21 10:54:53.073373,-123.0
2023-08-21 10:54:53.081062,-123.0
2023-08-21 10:54:53.088751,-131.0
2023-08-21 10:54:53.096439,-140.0
2023-08-21 10:54:53.104128,-123.0
2023-08-21 10:54:53.111817,-87.0
2023-08-21 10:54:53.119506,-72.0
2023-08-21 10:54:53.127194,-80.0
2023-08-21 10:54:53.134883,-87.0
2023-08-21 10:54:53.142572,-114.0
2023-08-21 10:54:53.150261,-143.0
2023-08-21 10:54:53.157949,-136.0
2023-08-21 10:54:53.165638,-121.0
2023-08-21 10:54:53.173327,-126.0
2023-08-21 10:54:53.181015,-126.0
2023-08-21 10:54:53.188704,-119.0
2023-08-21 10:54:53.196393,-119.0
2023-08-21 10:54:53.204082,-119.0
2023-08-21 10:54:53.211770,-128.0
2023-08-21 10:54:53.219459,-133.0
2023-08-21 10:54:53.227148,-29.0
2023-08-21 10:54:53.234837,359.0
2023-08-21 10:54:53.242525,944.0
2023-08-21 10:54:53.250214,1204.0
2023-08-21 10:54:53.257903,685.0
2023-08-21 10:54:53.265591,-150.0
2023-08-21 10:54:53.273280,-366.0
2023-08-21 10:54:53.280969,-128.0
2023-08-21 10:54:53.288658,-145.0
2023-08-21 10:54:53.296346,-245.0
2023-08-21 10:54:53.304035,-174.0
2023-08-21 10:54:53.311724,-150.0
2023-08-21 10:54:53.319413,-187.0
2023-08-21 10:54:53.327101,-167.0
2023-08-21 10:54:53.334790,-140.0
2023-08-21 10:54:53.342479,-145.0
2023-08-21 10:54:53.350168,-140.0
2023-08-21 10:54:53.357856,-123.0
2023-08-21 10:54:53.365545,-116.0
2023-08-21 10:54:53.373234,-109.0
2023-08-21 10:54:53.380922,-94.0
2023-08-21 10:54:53.388611,-82.0
2023-08-21 10:54:53.396300,-72.0
2023-08-21 10:54:53.403989,-63.0
2023-08-21 10:54:53.411677,-51.0
2023-08-21 10:54:53.419366,-38.0
2023-08-21 10:54:53.427055,-21.0
2023-08-21 10:54:53.434744,-7.0
2023-08-21 10:54:53.442432,2.0
2023-08-21 10:54:53.450121,12.0
2023-08-21 10:54:53.457810,17.0
2023-08-21 10:54:53.465498,21.0
2023-08-21 10:54:53.473187,34.0
2023-08-21 10:54:53.480876,38.0
2023-08-21 10:54:53.488565,41.0
2023-08-21 10:54:53.496253,41.0
2023-08-21 10:54:53.503942,38.0
2023-08-21 10:54:53.511631,31.0
2023-08-21 10:54:53.519320,19.0
2023-08-21 10:54:53.527008,-9.0
2023-08-21 10:54:53.534697,-46.0
2023-08-21 10:54:53.542386,-82.0
2023-08-21 10:54:53.550075,-116.0
2023-08-21 10:54:53.557763,-143.0
2023-08-21 10:54:53.565452,-162.0
2023-08-21 10:54:53.573141,-174.0
2023-08-21 10:54:53.580829,-179.0
2023-08-21 10:54:53.588518,-182.0
2023-08-21 10:54:53.596207,-184.0
2023-08-21 10:54:53.603896,-177.0
2023-08-21 10:54:53.611584,-165.0
2023-08-21 10:54:53.619273,-157.0
2023-08-21 10:54:53.626962,-153.0
2023-08-21 10:54:53.634651,-148.0
2023-08-21 10:54:53.642339,-140.0
2023-08-21 10:54:53.650028,-133.0
2023-08-21 10:54:53.657717,-126.0
2023-08-21 10:54:53.665406,-123.0
2023-08-21 10:54:53.673094,-121.0
2023-08-21 10:54:53.680783,-121.0
2023-08-21 10:54:53.688472,-121.0
2023-08-21 10:54:53.696160,-119.0
2023-08-21 10:54:53.703849,-116.0
2023-08-21 10:54:53.711538,-114.0
2023-08-21 10:54:53.719227,-114.0
2023-08-21 10:54:53.726915,-116.0
2023-08-21 10:54:53.734604,-116.0
2023-08-21 10:54:53.742293,-114.0
2023-08-21 10:54:53.749982,-109.0
2023-08-21 10:54:53.757670,-109.0
2023-08-21 10:54:53.765359,-106.0
2023-08-21 10:54:53.773048,-109.0
2023-08-21 10:54:53.780736,-106.0
2023-08-21 10:54:53.788425,-102.0
2023-08-21 10:54:53.796114,-104.0
2023-08-21 10:54:53.803803,-104.0
2023-08-21 10:54:53.811491,-89.0
2023-08-21 10:54:53.819180,-63.0
2023-08-21 10:54:53.826869,-43.0
2023-08-21 10:54:53.834558,-41.0
2023-08-21 10:54:53.842246,-41.0
2023-08-21 10:54:53.849935,-58.0
2023-08-21 10:54:53.857624,-87.0
2023-08-21 10:54:53.865313,-97.0
2023-08-21 10:54:53.873001,-89.0
2023-08-21 10:54:53.880690,-87.0
2023-08-21 10:54:53.888379,-87.0
2023-08-21 10:54:53.896067,-85.0
2023-08-21 10:54:53.903756,-85.0
2023-08-21 10:54:53.911445,-89.0
2023-08-21 10:54:53.919134,-99.0
2023-08-21 10:54:53.926822,-109.0
2023-08-21 10:54:53.934511,-9.0
2023-08-21 10:54:53.942200,371.0
2023-08-21 10:54:53.949889,954.0
2023-08-21 10:54:53.957577,1200.0
2023-08-21 10:54:53.965266,677.0
2023-08-21 10:54:53.972955,-128.0
2023-08-21 10:54:53.980643,-320.0
2023-08-21 10:54:53.988332,-99.0
2023-08-21 10:54:53.996021,-128.0
2023-08-21 10:54:54.003710,-225.0
2023-08-21 10:54:54.011398,-160.0
2023-08-21 10:54:54.019087,-136.0
2023-08-21 10:54:54.026776,-165.0
2023-08-21 10:54:54.034465,-145.0
2023-08-21 10:54:54.042153,-121.0
2023-08-21 10:54:54.049842,-126.0
2023-08-21 10:54:54.057531,-119.0
2023-08-21 10:54:54.065220,-104.0
2023-08-21 10:54:54.072908,-94.0
2023-08-21 10:54:54.080597,-85.0
2023-08-21 10:54:54.088286,-75.0
2023-08-21 10:54:54.095974,-72.0
2023-08-21 10:54:54.103663,-65.0
2023-08-21 10:54:54.111352,-53.0
2023-08-21 10:54:54.119041,-46.0
2023-08-21 10:54:54.126729,-43.0
2023-08-21 10:54:54.134418,-41.0
2023-08-21 10:54:54.142107,-38.0
2023-08-21 10:54:54.149796,-36.0
2023-08-21 10:54:54.157484,-31.0
2023-08-21 10:54:54.165173,-24.0
2023-08-21 10:54:54.172862,-26.0
2023-08-21 10:54:54.180550,-26.0
2023-08-21 10:54:54.188239,-19.0
2023-08-21 10:54:54.195928,-9.0
2023-08-21 10:54:54.203617,-7.0
2023-08-21 10:54:54.211305,-7.0
2023-08-21 10:54:54.218994,-17.0
2023-08-21 10:54:54.226683,-43.0
2023-08-21 10:54:54.234372,-72.0
2023-08-21 10:54:54.242060,-99.0
2023-08-21 10:54:54.249749,-133.0
2023-08-21 10:54:54.257438,-165.0
2023-08-21 10:54:54.265127,-187.0
2023-08-21 10:54:54.272815,-199.0
2023-08-21 10:54:54.280504,-206.0
2023-08-21 10:54:54.288193,-204.0
2023-08-21 10:54:54.295881,-199.0
2023-08-21 10:54:54.303570,-196.0
2023-08-21 10:54:54.311259,-191.0
2023-08-21 10:54:54.318948,-184.0
2023-08-21 10:54:54.326636,-177.0
2023-08-21 10:54:54.334325,-167.0
2023-08-21 10:54:54.342014,-157.0
2023-08-21 10:54:54.349703,-150.0
2023-08-21 10:54:54.357391,-145.0
2023-08-21 10:54:54.365080,-140.0
2023-08-21 10:54:54.372769,-136.0
2023-08-21 10:54:54.380457,-131.0
2023-08-21 10:54:54.388146,-126.0
2023-08-21 10:54:54.395835,-123.0
2023-08-21 10:54:54.403524,-123.0
2023-08-21 10:54:54.411212,-123.0
2023-08-21 10:54:54.418901,-121.0
2023-08-21 10:54:54.426590,-119.0
2023-08-21 10:54:54.434279,-116.0
2023-08-21 10:54:54.441967,-114.0
2023-08-21 10:54:54.449656,-111.0
2023-08-21 10:54:54.457345,-109.0
2023-08-21 10:54:54.465034,-109.0
2023-08-21 10:54:54.472722,-106.0
2023-08-21 10:54:54.480411,-104.0
2023-08-21 10:54:54.488100,-102.0
2023-08-21 10:54:54.495788,-102.0
2023-08-21 10:54:54.503477,-99.0
2023-08-21 10:54:54.511166,-94.0
2023-08-21 10:54:54.518855,-94.0
2023-08-21 10:54:54.526543,-92.0
2023-08-21 10:54:54.534232,-94.0
2023-08-21 10:54:54.541921,-89.0
2023-08-21 10:54:54.549610,-72.0
2023-08-21 10:54:54.557298,-48.0
2023-08-21 10:54:54.564987,-34.0
2023-08-21 10:54:54.572676,-31.0
2023-08-21 10:54:54.580364,-41.0
2023-08-21 10:54:54.588053,-65.0
2023-08-21 10:54:54.595742,-92.0
2023-08-21 10:54:54.603431,-99.0
2023-08-21 10:54:54.611119,-92.0
2023-08-21 10:54:54.618808,-92.0
2023-08-21 10:54:54.626497,-102.0
2023-08-21 10:54:54.634186,-109.0
2023-08-21 10:54:54.641874,-102.0
2023-08-21 10:54:54.649563,-104.0
2023-08-21 10:54:54.657252,-121.0
2023-08-21 10:54:54.664941,-111.0
2023-08-21 10:54:54.672629,72.0
2023-08-21 10:54:54.680318,568.0
2023-08-21 10:54:54.688007,1115.0
2023-08-21 10:54:54.695695,1105.0
2023-08-21 10:54:54.703384,361.0
2023-08-21 10:54:54.711073,-298.0
2023-08-21 10:54:54.718762,-250.0
2023-08-21 10:54:54.726450,-72.0
2023-08-21 10:54:54.734139,-182.0
2023-08-21 10:54:54.741828,-218.0
2023-08-21 10:54:54.749517,-140.0
2023-08-21 10:54:54.757205,-150.0
2023-08-21 10:54:54.764894,-170.0
2023-08-21 10:54:54.772583,-138.0
2023-08-21 10:54:54.780271,-123.0
2023-08-21 10:54:54.787960,-128.0
2023-08-21 10:54:54.795649,-119.0
2023-08-21 10:54:54.803338,-106.0
2023-08-21 10:54:54.811026,-102.0
2023-08-21 10:54:54.818715,-89.0
2023-08-21 10:54:54.826404,-77.0
2023-08-21 10:54:54.834093,-65.0
2023-08-21 10:54:54.841781,-55.0
2023-08-21 10:54:54.849470,-41.0
2023-08-21 10:54:54.857159,-31.0
2023-08-21 10:54:54.864848,-14.0
2023-08-21 10:54:54.872536,-2.0
2023-08-21 10:54:54.880225,9.0
2023-08-21 10:54:54.887914,21.0
2023-08-21 10:54:54.895602,31.0
2023-08-21 10:54:54.903291,41.0
2023-08-21 10:54:54.910980,51.0
2023-08-21 10:54:54.918669,55.0
2023-08-21 10:54:54.926357,58.0
2023-08-21 10:54:54.934046,60.0
2023-08-21 10:54:54.941735,60.0
2023-08-21 10:54:54.949424,55.0
2023-08-21 10:54:54.957112,48.0
2023-08-21 10:54:54.964801,29.0
2023-08-21 10:54:54.972490,-4.0
2023-08-21 10:54:54.980178,-43.0
2023-08-21 10:54:54.987867,-82.0
2023-08-21 10:54:54.995556,-114.0
2023-08-21 10:54:55.003245,-136.0
2023-08-21 10:54:55.010933,-150.0
2023-08-21 10:54:55.018622,-157.0
2023-08-21 10:54:55.026311,-157.0
2023-08-21 10:54:55.034000,-157.0
2023-08-21 10:54:55.041688,-155.0
2023-08-21 10:54:55.049377,-150.0
2023-08-21 10:54:55.057066,-145.0
2023-08-21 10:54:55.064755,-138.0
2023-08-21 10:54:55.072443,-133.0
2023-08-21 10:54:55.080132,-128.0
2023-08-21 10:54:55.087821,-121.0
2023-08-21 10:54:55.095509,-116.0
2023-08-21 10:54:55.103198,-119.0
2023-08-21 10:54:55.110887,-126.0
2023-08-21 10:54:55.118576,-123.0
2023-08-21 10:54:55.126264,-121.0
2023-08-21 10:54:55.133953,-121.0
2023-08-21 10:54:55.141642,-119.0
2023-08-21 10:54:55.149331,-116.0
2023-08-21 10:54:55.157019,-119.0
2023-08-21 10:54:55.164708,-126.0
2023-08-21 10:54:55.172397,-133.0
2023-08-21 10:54:55.180085,-131.0
2023-08-21 10:54:55.187774,-123.0
2023-08-21 10:54:55.195463,-123.0
2023-08-21 10:54:55.203152,-123.0
2023-08-21 10:54:55.210840,-121.0
2023-08-21 10:54:55.218529,-119.0
2023-08-21 10:54:55.226218,-116.0
2023-08-21 10:54:55.233907,-111.0
2023-08-21 10:54:55.241595,-109.0
2023-08-21 10:54:55.249284,-106.0
2023-08-21 10:54:55.256973,-104.0
2023-08-21 10:54:55.264662,-102.0
2023-08-21 10:54:55.272350,-99.0
2023-08-21 10:54:55.280039,-94.0
2023-08-21 10:54:55.287728,-97.0
2023-08-21 10:54:55.295416,-99.0
2023-08-21 10:54:55.303105,-99.0
2023-08-21 10:54:55.310794,-92.0
2023-08-21 10:54:55.318483,-89.0
2023-08-21 10:54:55.326171,-94.0
2023-08-21 10:54:55.333860,-82.0
2023-08-21 10:54:55.341549,-46.0
2023-08-21 10:54:55.349238,-21.0
2023-08-21 10:54:55.356926,-26.0
2023-08-21 10:54:55.364615,-34.0
2023-08-21 10:54:55.372304,-46.0
2023-08-21 10:54:55.379992,-68.0
2023-08-21 10:54:55.387681,-87.0
2023-08-21 10:54:55.395370,-85.0
2023-08-21 10:54:55.403059,-80.0
2023-08-21 10:54:55.410747,-80.0
2023-08-21 10:54:55.418436,-82.0
2023-08-21 10:54:55.426125,-80.0
2023-08-21 10:54:55.433814,-80.0
2023-08-21 10:54:55.441502,-85.0
2023-08-21 10:54:55.449191,-102.0
2023-08-21 10:54:55.456880,-97.0
2023-08-21 10:54:55.464569,75.0
2023-08-21 10:54:55.472257,568.0
2023-08-21 10:54:55.479946,1129.0
2023-08-21 10:54:55.487635,1149.0
2023-08-21 10:54:55.495323,422.0
2023-08-21 10:54:55.503012,-267.0
2023-08-21 10:54:55.510701,-245.0
2023-08-21 10:54:55.518390,-63.0
2023-08-21 10:54:55.526078,-170.0
2023-08-21 10:54:55.533767,-216.0
2023-08-21 10:54:55.541456,-145.0
2023-08-21 10:54:55.549145,-150.0
2023-08-21 10:54:55.556833,-167.0
2023-08-21 10:54:55.564522,-138.0
2023-08-21 10:54:55.572211,-128.0
2023-08-21 10:54:55.579899,-128.0
2023-08-21 10:54:55.587588,-114.0
2023-08-21 10:54:55.595277,-99.0
2023-08-21 10:54:55.602966,-97.0
2023-08-21 10:54:55.610654,-92.0
2023-08-21 10:54:55.618343,-85.0
2023-08-21 10:54:55.626032,-72.0
2023-08-21 10:54:55.633721,-60.0
2023-08-21 10:54:55.641409,-46.0
2023-08-21 10:54:55.649098,-34.0
2023-08-21 10:54:55.656787,-24.0
2023-08-21 10:54:55.664476,-14.0
2023-08-21 10:54:55.672164,-4.0
2023-08-21 10:54:55.679853,7.0
2023-08-21 10:54:55.687542,17.0
2023-08-21 10:54:55.695230,29.0
2023-08-21 10:54:55.702919,38.0
2023-08-21 10:54:55.710608,41.0
2023-08-21 10:54:55.718297,46.0
2023-08-21 10:54:55.725985,51.0
2023-08-21 10:54:55.733674,51.0
2023-08-21 10:54:55.741363,51.0
2023-08-21 10:54:55.749052,38.0
2023-08-21 10:54:55.756740,12.0
2023-08-21 10:54:55.764429,-14.0
2023-08-21 10:54:55.772118,-46.0
2023-08-21 10:54:55.779806,-85.0
2023-08-21 10:54:55.787495,-123.0
2023-08-21 10:54:55.795184,-153.0
2023-08-21 10:54:55.802873,-170.0
2023-08-21 10:54:55.810561,-177.0
2023-08-21 10:54:55.818250,-177.0
2023-08-21 10:54:55.825939,-172.0
2023-08-21 10:54:55.833628,-170.0
2023-08-21 10:54:55.841316,-165.0
2023-08-21 10:54:55.849005,-162.0
2023-08-21 10:54:55.856694,-155.0
2023-08-21 10:54:55.864383,-145.0
2023-08-21 10:54:55.872071,-138.0
2023-08-21 10:54:55.879760,-136.0
2023-08-21 10:54:55.887449,-133.0
2023-08-21 10:54:55.895137,-128.0
2023-08-21 10:54:55.902826,-126.0
2023-08-21 10:54:55.910515,-123.0
2023-08-21 10:54:55.918204,-121.0
2023-08-21 10:54:55.925892,-121.0
2023-08-21 10:54:55.933581,-121.0
2023-08-21 10:54:55.941270,-121.0
2023-08-21 10:54:55.948959,-116.0
2023-08-21 10:54:55.956647,-114.0
2023-08-21 10:54:55.964336,-114.0
2023-08-21 10:54:55.972025,-114.0
2023-08-21 10:54:55.979713,-116.0
2023-08-21 10:54:55.987402,-116.0
2023-08-21 10:54:55.995091,-111.0
2023-08-21 10:54:56.002780,-109.0
2023-08-21 10:54:56.010468,-106.0
2023-08-21 10:54:56.018157,-102.0
2023-08-21 10:54:56.025846,-102.0
2023-08-21 10:54:56.033535,-102.0
2023-08-21 10:54:56.041223,-102.0
2023-08-21 10:54:56.048912,-97.0
2023-08-21 10:54:56.056601,-94.0
2023-08-21 10:54:56.064290,-94.0
2023-08-21 10:54:56.071978,-94.0
2023-08-21 10:54:56.079667,-92.0
2023-08-21 10:54:56.087356,-87.0
