time,ECG
2023-08-09 15:49:04.696828,-100.0
2023-08-09 15:49:04.704518,-78.0
2023-08-09 15:49:04.712208,-57.0
2023-08-09 15:49:04.719899,-38.0
2023-08-09 15:49:04.727589,-28.0
2023-08-09 15:49:04.735279,-31.0
2023-08-09 15:49:04.742970,-57.0
2023-08-09 15:49:04.750660,-78.0
2023-08-09 15:49:04.758350,-85.0
2023-08-09 15:49:04.766041,-97.0
2023-08-09 15:49:04.773731,-102.0
2023-08-09 15:49:04.781421,-93.0
2023-08-09 15:49:04.789112,-90.0
2023-08-09 15:49:04.796802,-95.0
2023-08-09 15:49:04.804492,-95.0
2023-08-09 15:49:04.812183,-95.0
2023-08-09 15:49:04.819873,-97.0
2023-08-09 15:49:04.827563,-100.0
2023-08-09 15:49:04.835254,-95.0
2023-08-09 15:49:04.842944,-90.0
2023-08-09 15:49:04.850634,-100.0
2023-08-09 15:49:04.858325,-131.0
2023-08-09 15:49:04.866015,-133.0
2023-08-09 15:49:04.873705,7.0
2023-08-09 15:49:04.881396,293.0
2023-08-09 15:49:04.889086,549.0
2023-08-09 15:49:04.896776,487.0
2023-08-09 15:49:04.904467,78.0
2023-08-09 15:49:04.912157,-222.0
2023-08-09 15:49:04.919847,-248.0
2023-08-09 15:49:04.927538,-265.0
2023-08-09 15:49:04.935228,-253.0
2023-08-09 15:49:04.942918,-157.0
2023-08-09 15:49:04.950609,-112.0
2023-08-09 15:49:04.958299,-117.0
2023-08-09 15:49:04.965989,-93.0
2023-08-09 15:49:04.973680,-81.0
2023-08-09 15:49:04.981370,-93.0
2023-08-09 15:49:04.989060,-66.0
2023-08-09 15:49:04.996751,-33.0
2023-08-09 15:49:05.004441,-40.0
2023-08-09 15:49:05.012131,-40.0
2023-08-09 15:49:05.019821,-19.0
2023-08-09 15:49:05.027512,0.0
2023-08-09 15:49:05.035202,11.0
2023-08-09 15:49:05.042892,16.0
2023-08-09 15:49:05.050583,35.0
2023-08-09 15:49:05.058273,74.0
2023-08-09 15:49:05.065963,107.0
2023-08-09 15:49:05.073654,117.0
2023-08-09 15:49:05.081344,109.0
2023-08-09 15:49:05.089034,114.0
2023-08-09 15:49:05.096725,128.0
2023-08-09 15:49:05.104415,97.0
2023-08-09 15:49:05.112105,33.0
2023-08-09 15:49:05.119796,-9.0
2023-08-09 15:49:05.127486,-52.0
2023-08-09 15:49:05.135176,-100.0
2023-08-09 15:49:05.142867,-117.0
2023-08-09 15:49:05.150557,-119.0
2023-08-09 15:49:05.158247,-138.0
2023-08-09 15:49:05.165938,-167.0
2023-08-09 15:49:05.173628,-174.0
2023-08-09 15:49:05.181318,-160.0
2023-08-09 15:49:05.189009,-167.0
2023-08-09 15:49:05.196699,-181.0
2023-08-09 15:49:05.204389,-152.0
2023-08-09 15:49:05.212080,-140.0
2023-08-09 15:49:05.219770,-157.0
2023-08-09 15:49:05.227460,-126.0
2023-08-09 15:49:05.235151,-95.0
2023-08-09 15:49:05.242841,-119.0
2023-08-09 15:49:05.250531,-117.0
2023-08-09 15:49:05.258222,-88.0
2023-08-09 15:49:05.265912,-102.0
2023-08-09 15:49:05.273602,-117.0
2023-08-09 15:49:05.281293,-102.0
2023-08-09 15:49:05.288983,-93.0
2023-08-09 15:49:05.296673,-97.0
2023-08-09 15:49:05.304364,-121.0
2023-08-09 15:49:05.312054,-124.0
2023-08-09 15:49:05.319744,-85.0
2023-08-09 15:49:05.327435,-71.0
2023-08-09 15:49:05.335125,-102.0
2023-08-09 15:49:05.342815,-126.0
2023-08-09 15:49:05.350506,-117.0
2023-08-09 15:49:05.358196,-88.0
2023-08-09 15:49:05.365886,-71.0
2023-08-09 15:49:05.373577,-74.0
2023-08-09 15:49:05.381267,-85.0
2023-08-09 15:49:05.388957,-114.0
2023-08-09 15:49:05.396648,-117.0
2023-08-09 15:49:05.404338,-69.0
2023-08-09 15:49:05.412028,-31.0
2023-08-09 15:49:05.419719,-33.0
2023-08-09 15:49:05.427409,-47.0
2023-08-09 15:49:05.435099,-62.0
2023-08-09 15:49:05.442790,-47.0
2023-08-09 15:49:05.450480,-38.0
2023-08-09 15:49:05.458170,-50.0
2023-08-09 15:49:05.465861,-69.0
2023-08-09 15:49:05.473551,-107.0
2023-08-09 15:49:05.481241,-124.0
2023-08-09 15:49:05.488932,-100.0
2023-08-09 15:49:05.496622,-88.0
2023-08-09 15:49:05.504312,-88.0
2023-08-09 15:49:05.512003,-95.0
2023-08-09 15:49:05.519693,-95.0
2023-08-09 15:49:05.527383,-78.0
2023-08-09 15:49:05.535074,-66.0
2023-08-09 15:49:05.542764,-71.0
2023-08-09 15:49:05.550454,-90.0
2023-08-09 15:49:05.558145,-119.0
2023-08-09 15:49:05.565835,-102.0
2023-08-09 15:49:05.573525,42.0
2023-08-09 15:49:05.581216,308.0
2023-08-09 15:49:05.588906,546.0
2023-08-09 15:49:05.596596,487.0
2023-08-09 15:49:05.604287,81.0
2023-08-09 15:49:05.611977,-210.0
2023-08-09 15:49:05.619667,-224.0
2023-08-09 15:49:05.627358,-243.0
2023-08-09 15:49:05.635048,-246.0
2023-08-09 15:49:05.642738,-136.0
2023-08-09 15:49:05.650429,-66.0
2023-08-09 15:49:05.658119,-93.0
2023-08-09 15:49:05.665809,-93.0
2023-08-09 15:49:05.673500,-57.0
2023-08-09 15:49:05.681190,-57.0
2023-08-09 15:49:05.688880,-54.0
2023-08-09 15:49:05.696570,-19.0
2023-08-09 15:49:05.704261,-9.0
2023-08-09 15:49:05.711951,-14.0
2023-08-09 15:49:05.719641,7.0
2023-08-09 15:49:05.727332,26.0
2023-08-09 15:49:05.735022,26.0
2023-08-09 15:49:05.742712,38.0
2023-08-09 15:49:05.750403,74.0
2023-08-09 15:49:05.758093,107.0
2023-08-09 15:49:05.765783,117.0
2023-08-09 15:49:05.773474,119.0
2023-08-09 15:49:05.781164,140.0
2023-08-09 15:49:05.788854,155.0
2023-08-09 15:49:05.796545,136.0
2023-08-09 15:49:05.804235,95.0
2023-08-09 15:49:05.811925,62.0
2023-08-09 15:49:05.819616,35.0
2023-08-09 15:49:05.827306,-2.0
2023-08-09 15:49:05.834996,-50.0
2023-08-09 15:49:05.842687,-83.0
2023-08-09 15:49:05.850377,-107.0
2023-08-09 15:49:05.858067,-112.0
2023-08-09 15:49:05.865758,-102.0
2023-08-09 15:49:05.873448,-119.0
2023-08-09 15:49:05.881138,-140.0
2023-08-09 15:49:05.888829,-131.0
2023-08-09 15:49:05.896519,-109.0
2023-08-09 15:49:05.904209,-112.0
2023-08-09 15:49:05.911900,-119.0
2023-08-09 15:49:05.919590,-107.0
2023-08-09 15:49:05.927280,-93.0
2023-08-09 15:49:05.934971,-97.0
2023-08-09 15:49:05.942661,-102.0
2023-08-09 15:49:05.950351,-93.0
2023-08-09 15:49:05.958042,-81.0
2023-08-09 15:49:05.965732,-83.0
2023-08-09 15:49:05.973422,-95.0
2023-08-09 15:49:05.981113,-100.0
2023-08-09 15:49:05.988803,-88.0
2023-08-09 15:49:05.996493,-85.0
2023-08-09 15:49:06.004184,-95.0
2023-08-09 15:49:06.011874,-95.0
2023-08-09 15:49:06.019564,-93.0
2023-08-09 15:49:06.027255,-97.0
2023-08-09 15:49:06.034945,-97.0
2023-08-09 15:49:06.042635,-88.0
2023-08-09 15:49:06.050326,-85.0
2023-08-09 15:49:06.058016,-88.0
2023-08-09 15:49:06.065706,-93.0
2023-08-09 15:49:06.073397,-90.0
2023-08-09 15:49:06.081087,-90.0
2023-08-09 15:49:06.088777,-93.0
2023-08-09 15:49:06.096468,-78.0
2023-08-09 15:49:06.104158,-54.0
2023-08-09 15:49:06.111848,-45.0
2023-08-09 15:49:06.119539,-47.0
2023-08-09 15:49:06.127229,-50.0
2023-08-09 15:49:06.134919,-57.0
2023-08-09 15:49:06.142610,-66.0
2023-08-09 15:49:06.150300,-81.0
2023-08-09 15:49:06.157990,-95.0
2023-08-09 15:49:06.165681,-102.0
2023-08-09 15:49:06.173371,-102.0
2023-08-09 15:49:06.181061,-105.0
2023-08-09 15:49:06.188752,-109.0
2023-08-09 15:49:06.196442,-109.0
2023-08-09 15:49:06.204132,-114.0
2023-08-09 15:49:06.211823,-112.0
2023-08-09 15:49:06.219513,-102.0
2023-08-09 15:49:06.227203,-95.0
2023-08-09 15:49:06.234894,-90.0
2023-08-09 15:49:06.242584,-93.0
2023-08-09 15:49:06.250274,-109.0
2023-08-09 15:49:06.257965,-136.0
2023-08-09 15:49:06.265655,-74.0
2023-08-09 15:49:06.273345,157.0
2023-08-09 15:49:06.281036,465.0
2023-08-09 15:49:06.288726,592.0
2023-08-09 15:49:06.296416,300.0
2023-08-09 15:49:06.304107,-136.0
2023-08-09 15:49:06.311797,-265.0
2023-08-09 15:49:06.319487,-234.0
2023-08-09 15:49:06.327178,-241.0
2023-08-09 15:49:06.334868,-162.0
2023-08-09 15:49:06.342558,-71.0
2023-08-09 15:49:06.350249,-88.0
2023-08-09 15:49:06.357939,-100.0
2023-08-09 15:49:06.365629,-69.0
2023-08-09 15:49:06.373320,-62.0
2023-08-09 15:49:06.381010,-57.0
2023-08-09 15:49:06.388700,-45.0
2023-08-09 15:49:06.396390,-35.0
2023-08-09 15:49:06.404081,-21.0
2023-08-09 15:49:06.411771,-7.0
2023-08-09 15:49:06.419461,0.0
2023-08-09 15:49:06.427152,11.0
2023-08-09 15:49:06.434842,31.0
2023-08-09 15:49:06.442532,47.0
2023-08-09 15:49:06.450223,76.0
2023-08-09 15:49:06.457913,102.0
2023-08-09 15:49:06.465603,109.0
2023-08-09 15:49:06.473294,112.0
2023-08-09 15:49:06.480984,119.0
2023-08-09 15:49:06.488674,119.0
2023-08-09 15:49:06.496365,107.0
2023-08-09 15:49:06.504055,78.0
2023-08-09 15:49:06.511745,38.0
2023-08-09 15:49:06.519436,-11.0
2023-08-09 15:49:06.527126,-59.0
2023-08-09 15:49:06.534816,-93.0
2023-08-09 15:49:06.542507,-121.0
2023-08-09 15:49:06.550197,-138.0
2023-08-09 15:49:06.557887,-138.0
2023-08-09 15:49:06.565578,-140.0
2023-08-09 15:49:06.573268,-150.0
2023-08-09 15:49:06.580958,-150.0
2023-08-09 15:49:06.588649,-143.0
2023-08-09 15:49:06.596339,-143.0
2023-08-09 15:49:06.604029,-140.0
2023-08-09 15:49:06.611720,-131.0
2023-08-09 15:49:06.619410,-121.0
2023-08-09 15:49:06.627100,-114.0
2023-08-09 15:49:06.634791,-114.0
2023-08-09 15:49:06.642481,-119.0
2023-08-09 15:49:06.650171,-124.0
2023-08-09 15:49:06.657862,-119.0
2023-08-09 15:49:06.665552,-109.0
2023-08-09 15:49:06.673242,-100.0
2023-08-09 15:49:06.680933,-100.0
2023-08-09 15:49:06.688623,-112.0
2023-08-09 15:49:06.696313,-117.0
2023-08-09 15:49:06.704004,-114.0
2023-08-09 15:49:06.711694,-114.0
2023-08-09 15:49:06.719384,-112.0
2023-08-09 15:49:06.727075,-109.0
2023-08-09 15:49:06.734765,-112.0
2023-08-09 15:49:06.742455,-114.0
2023-08-09 15:49:06.750146,-112.0
2023-08-09 15:49:06.757836,-109.0
2023-08-09 15:49:06.765526,-109.0
2023-08-09 15:49:06.773217,-112.0
2023-08-09 15:49:06.780907,-109.0
2023-08-09 15:49:06.788597,-95.0
2023-08-09 15:49:06.796288,-74.0
2023-08-09 15:49:06.803978,-59.0
2023-08-09 15:49:06.811668,-57.0
2023-08-09 15:49:06.819359,-71.0
2023-08-09 15:49:06.827049,-88.0
2023-08-09 15:49:06.834739,-93.0
2023-08-09 15:49:06.842430,-93.0
2023-08-09 15:49:06.850120,-112.0
2023-08-09 15:49:06.857810,-136.0
2023-08-09 15:49:06.865501,-138.0
2023-08-09 15:49:06.873191,-126.0
2023-08-09 15:49:06.880881,-124.0
2023-08-09 15:49:06.888572,-131.0
2023-08-09 15:49:06.896262,-124.0
2023-08-09 15:49:06.903952,-119.0
2023-08-09 15:49:06.911643,-124.0
2023-08-09 15:49:06.919333,-117.0
2023-08-09 15:49:06.927023,-109.0
2023-08-09 15:49:06.934714,-117.0
2023-08-09 15:49:06.942404,-138.0
2023-08-09 15:49:06.950094,-133.0
2023-08-09 15:49:06.957785,-2.0
2023-08-09 15:49:06.965475,284.0
2023-08-09 15:49:06.973165,570.0
2023-08-09 15:49:06.980856,535.0
2023-08-09 15:49:06.988546,83.0
2023-08-09 15:49:06.996236,-277.0
2023-08-09 15:49:07.003927,-293.0
2023-08-09 15:49:07.011617,-284.0
2023-08-09 15:49:07.019307,-267.0
2023-08-09 15:49:07.026998,-143.0
2023-08-09 15:49:07.034688,-81.0
2023-08-09 15:49:07.042378,-112.0
2023-08-09 15:49:07.050069,-97.0
2023-08-09 15:49:07.057759,-66.0
2023-08-09 15:49:07.065449,-74.0
2023-08-09 15:49:07.073139,-74.0
2023-08-09 15:49:07.080830,-50.0
2023-08-09 15:49:07.088520,-38.0
2023-08-09 15:49:07.096210,-31.0
2023-08-09 15:49:07.103901,-11.0
2023-08-09 15:49:07.111591,0.0
2023-08-09 15:49:07.119281,14.0
2023-08-09 15:49:07.126972,38.0
2023-08-09 15:49:07.134662,62.0
2023-08-09 15:49:07.142352,78.0
2023-08-09 15:49:07.150043,93.0
2023-08-09 15:49:07.157733,109.0
2023-08-09 15:49:07.165423,124.0
2023-08-09 15:49:07.173114,119.0
2023-08-09 15:49:07.180804,97.0
2023-08-09 15:49:07.188494,78.0
2023-08-09 15:49:07.196185,57.0
2023-08-09 15:49:07.203875,21.0
2023-08-09 15:49:07.211565,-33.0
2023-08-09 15:49:07.219256,-88.0
2023-08-09 15:49:07.226946,-124.0
2023-08-09 15:49:07.234636,-138.0
2023-08-09 15:49:07.242327,-148.0
2023-08-09 15:49:07.250017,-157.0
2023-08-09 15:49:07.257707,-157.0
2023-08-09 15:49:07.265398,-145.0
2023-08-09 15:49:07.273088,-140.0
2023-08-09 15:49:07.280778,-143.0
2023-08-09 15:49:07.288469,-143.0
2023-08-09 15:49:07.296159,-136.0
2023-08-09 15:49:07.303849,-126.0
2023-08-09 15:49:07.311540,-124.0
2023-08-09 15:49:07.319230,-128.0
2023-08-09 15:49:07.326920,-117.0
2023-08-09 15:49:07.334611,-105.0
2023-08-09 15:49:07.342301,-109.0
2023-08-09 15:49:07.349991,-112.0
2023-08-09 15:49:07.357682,-105.0
2023-08-09 15:49:07.365372,-93.0
2023-08-09 15:49:07.373062,-85.0
2023-08-09 15:49:07.380753,-85.0
2023-08-09 15:49:07.388443,-90.0
2023-08-09 15:49:07.396133,-95.0
2023-08-09 15:49:07.403824,-95.0
2023-08-09 15:49:07.411514,-95.0
2023-08-09 15:49:07.419204,-93.0
2023-08-09 15:49:07.426895,-93.0
2023-08-09 15:49:07.434585,-90.0
2023-08-09 15:49:07.442275,-90.0
2023-08-09 15:49:07.449966,-85.0
2023-08-09 15:49:07.457656,-76.0
2023-08-09 15:49:07.465346,-71.0
2023-08-09 15:49:07.473037,-74.0
2023-08-09 15:49:07.480727,-59.0
2023-08-09 15:49:07.488417,-42.0
2023-08-09 15:49:07.496108,-35.0
2023-08-09 15:49:07.503798,-40.0
2023-08-09 15:49:07.511488,-57.0
2023-08-09 15:49:07.519179,-69.0
2023-08-09 15:49:07.526869,-66.0
2023-08-09 15:49:07.534559,-74.0
2023-08-09 15:49:07.542250,-97.0
2023-08-09 15:49:07.549940,-105.0
2023-08-09 15:49:07.557630,-95.0
2023-08-09 15:49:07.565321,-95.0
2023-08-09 15:49:07.573011,-102.0
2023-08-09 15:49:07.580701,-107.0
2023-08-09 15:49:07.588392,-109.0
2023-08-09 15:49:07.596082,-109.0
2023-08-09 15:49:07.603772,-107.0
2023-08-09 15:49:07.611463,-105.0
2023-08-09 15:49:07.619153,-100.0
2023-08-09 15:49:07.626843,-109.0
2023-08-09 15:49:07.634534,-140.0
2023-08-09 15:49:07.642224,-102.0
2023-08-09 15:49:07.649914,95.0
2023-08-09 15:49:07.657605,401.0
2023-08-09 15:49:07.665295,616.0
2023-08-09 15:49:07.672985,425.0
2023-08-09 15:49:07.680676,-57.0
2023-08-09 15:49:07.688366,-289.0
2023-08-09 15:49:07.696056,-253.0
2023-08-09 15:49:07.703747,-243.0
2023-08-09 15:49:07.711437,-186.0
2023-08-09 15:49:07.719127,-85.0
2023-08-09 15:49:07.726818,-83.0
2023-08-09 15:49:07.734508,-105.0
2023-08-09 15:49:07.742198,-74.0
2023-08-09 15:49:07.749889,-57.0
2023-08-09 15:49:07.757579,-69.0
2023-08-09 15:49:07.765269,-54.0
2023-08-09 15:49:07.772959,-33.0
2023-08-09 15:49:07.780650,-33.0
2023-08-09 15:49:07.788340,-26.0
2023-08-09 15:49:07.796030,-7.0
2023-08-09 15:49:07.803721,0.0
2023-08-09 15:49:07.811411,9.0
2023-08-09 15:49:07.819101,38.0
2023-08-09 15:49:07.826792,64.0
2023-08-09 15:49:07.834482,83.0
2023-08-09 15:49:07.842172,102.0
2023-08-09 15:49:07.849863,117.0
2023-08-09 15:49:07.857553,114.0
2023-08-09 15:49:07.865243,109.0
2023-08-09 15:49:07.872934,105.0
2023-08-09 15:49:07.880624,85.0
2023-08-09 15:49:07.888314,42.0
2023-08-09 15:49:07.896005,-4.0
2023-08-09 15:49:07.903695,-57.0
2023-08-09 15:49:07.911385,-100.0
2023-08-09 15:49:07.919076,-126.0
2023-08-09 15:49:07.926766,-140.0
2023-08-09 15:49:07.934456,-152.0
2023-08-09 15:49:07.942147,-162.0
2023-08-09 15:49:07.949837,-150.0
2023-08-09 15:49:07.957527,-133.0
2023-08-09 15:49:07.965218,-136.0
2023-08-09 15:49:07.972908,-143.0
2023-08-09 15:49:07.980598,-133.0
2023-08-09 15:49:07.988289,-128.0
2023-08-09 15:49:07.995979,-128.0
2023-08-09 15:49:08.003669,-119.0
2023-08-09 15:49:08.011360,-109.0
2023-08-09 15:49:08.019050,-112.0
2023-08-09 15:49:08.026740,-119.0
2023-08-09 15:49:08.034431,-121.0
2023-08-09 15:49:08.042121,-119.0
2023-08-09 15:49:08.049811,-109.0
2023-08-09 15:49:08.057502,-105.0
2023-08-09 15:49:08.065192,-107.0
2023-08-09 15:49:08.072882,-105.0
2023-08-09 15:49:08.080573,-90.0
2023-08-09 15:49:08.088263,-85.0
2023-08-09 15:49:08.095953,-95.0
2023-08-09 15:49:08.103644,-97.0
2023-08-09 15:49:08.111334,-88.0
2023-08-09 15:49:08.119024,-90.0
2023-08-09 15:49:08.126715,-97.0
2023-08-09 15:49:08.134405,-97.0
2023-08-09 15:49:08.142095,-95.0
2023-08-09 15:49:08.149786,-85.0
2023-08-09 15:49:08.157476,-76.0
2023-08-09 15:49:08.165166,-74.0
2023-08-09 15:49:08.172857,-76.0
2023-08-09 15:49:08.180547,-81.0
2023-08-09 15:49:08.188237,-57.0
2023-08-09 15:49:08.195928,-33.0
2023-08-09 15:49:08.203618,-47.0
2023-08-09 15:49:08.211308,-54.0
2023-08-09 15:49:08.218999,-35.0
2023-08-09 15:49:08.226689,-31.0
2023-08-09 15:49:08.234379,-54.0
2023-08-09 15:49:08.242070,-74.0
2023-08-09 15:49:08.249760,-78.0
2023-08-09 15:49:08.257450,-81.0
2023-08-09 15:49:08.265141,-88.0
2023-08-09 15:49:08.272831,-93.0
2023-08-09 15:49:08.280521,-90.0
2023-08-09 15:49:08.288212,-93.0
2023-08-09 15:49:08.295902,-88.0
2023-08-09 15:49:08.303592,-83.0
2023-08-09 15:49:08.311283,-90.0
2023-08-09 15:49:08.318973,-95.0
2023-08-09 15:49:08.326663,-100.0
2023-08-09 15:49:08.334354,-117.0
2023-08-09 15:49:08.342044,-90.0
2023-08-09 15:49:08.349734,71.0
2023-08-09 15:49:08.357425,358.0
2023-08-09 15:49:08.365115,585.0
2023-08-09 15:49:08.372805,439.0
2023-08-09 15:49:08.380496,-4.0
2023-08-09 15:49:08.388186,-250.0
2023-08-09 15:49:08.395876,-243.0
2023-08-09 15:49:08.403567,-238.0
2023-08-09 15:49:08.411257,-193.0
2023-08-09 15:49:08.418947,-97.0
2023-08-09 15:49:08.426638,-88.0
2023-08-09 15:49:08.434328,-109.0
2023-08-09 15:49:08.442018,-83.0
2023-08-09 15:49:08.449708,-62.0
2023-08-09 15:49:08.457399,-59.0
2023-08-09 15:49:08.465089,-42.0
2023-08-09 15:49:08.472779,-21.0
2023-08-09 15:49:08.480470,-7.0
2023-08-09 15:49:08.488160,0.0
2023-08-09 15:49:08.495850,-7.0
2023-08-09 15:49:08.503541,-9.0
2023-08-09 15:49:08.511231,9.0
2023-08-09 15:49:08.518921,33.0
2023-08-09 15:49:08.526612,50.0
2023-08-09 15:49:08.534302,76.0
2023-08-09 15:49:08.541992,95.0
2023-08-09 15:49:08.549683,105.0
2023-08-09 15:49:08.557373,114.0
2023-08-09 15:49:08.565063,117.0
2023-08-09 15:49:08.572754,102.0
2023-08-09 15:49:08.580444,88.0
2023-08-09 15:49:08.588134,59.0
2023-08-09 15:49:08.595825,2.0
2023-08-09 15:49:08.603515,-45.0
2023-08-09 15:49:08.611205,-76.0
2023-08-09 15:49:08.618896,-97.0
2023-08-09 15:49:08.626586,-109.0
2023-08-09 15:49:08.634276,-114.0
2023-08-09 15:49:08.641967,-119.0
2023-08-09 15:49:08.649657,-128.0
2023-08-09 15:49:08.657347,-128.0
2023-08-09 15:49:08.665038,-126.0
2023-08-09 15:49:08.672728,-126.0
2023-08-09 15:49:08.680418,-117.0
2023-08-09 15:49:08.688109,-107.0
2023-08-09 15:49:08.695799,-105.0
2023-08-09 15:49:08.703489,-95.0
2023-08-09 15:49:08.711180,-81.0
2023-08-09 15:49:08.718870,-88.0
2023-08-09 15:49:08.726560,-105.0
2023-08-09 15:49:08.734251,-90.0
2023-08-09 15:49:08.741941,-69.0
2023-08-09 15:49:08.749631,-78.0
2023-08-09 15:49:08.757322,-85.0
2023-08-09 15:49:08.765012,-78.0
2023-08-09 15:49:08.772702,-76.0
2023-08-09 15:49:08.780393,-88.0
2023-08-09 15:49:08.788083,-95.0
2023-08-09 15:49:08.795773,-88.0
2023-08-09 15:49:08.803464,-78.0
2023-08-09 15:49:08.811154,-78.0
2023-08-09 15:49:08.818844,-78.0
2023-08-09 15:49:08.826535,-71.0
2023-08-09 15:49:08.834225,-71.0
2023-08-09 15:49:08.841915,-74.0
2023-08-09 15:49:08.849606,-69.0
2023-08-09 15:49:08.857296,-62.0
2023-08-09 15:49:08.864986,-54.0
2023-08-09 15:49:08.872677,-74.0
2023-08-09 15:49:08.880367,-76.0
2023-08-09 15:49:08.888057,-31.0
2023-08-09 15:49:08.895748,-9.0
2023-08-09 15:49:08.903438,-45.0
2023-08-09 15:49:08.911128,-64.0
2023-08-09 15:49:08.918819,-45.0
2023-08-09 15:49:08.926509,-50.0
2023-08-09 15:49:08.934199,-83.0
2023-08-09 15:49:08.941890,-95.0
2023-08-09 15:49:08.949580,-88.0
2023-08-09 15:49:08.957270,-90.0
2023-08-09 15:49:08.964961,-109.0
2023-08-09 15:49:08.972651,-121.0
2023-08-09 15:49:08.980341,-114.0
2023-08-09 15:49:08.988032,-105.0
2023-08-09 15:49:08.995722,-105.0
2023-08-09 15:49:09.003412,-105.0
2023-08-09 15:49:09.011103,-107.0
2023-08-09 15:49:09.018793,-128.0
2023-08-09 15:49:09.026483,-140.0
2023-08-09 15:49:09.034174,-114.0
2023-08-09 15:49:09.041864,16.0
2023-08-09 15:49:09.049554,289.0
2023-08-09 15:49:09.057245,549.0
2023-08-09 15:49:09.064935,451.0
2023-08-09 15:49:09.072625,16.0
2023-08-09 15:49:09.080316,-241.0
2023-08-09 15:49:09.088006,-238.0
2023-08-09 15:49:09.095696,-272.0
2023-08-09 15:49:09.103387,-255.0
2023-08-09 15:49:09.111077,-126.0
2023-08-09 15:49:09.118767,-71.0
2023-08-09 15:49:09.126458,-88.0
2023-08-09 15:49:09.134148,-81.0
2023-08-09 15:49:09.141838,-71.0
2023-08-09 15:49:09.149528,-66.0
2023-08-09 15:49:09.157219,-54.0
2023-08-09 15:49:09.164909,-42.0
2023-08-09 15:49:09.172599,-28.0
2023-08-09 15:49:09.180290,-11.0
2023-08-09 15:49:09.187980,0.0
2023-08-09 15:49:09.195670,11.0
2023-08-09 15:49:09.203361,21.0
2023-08-09 15:49:09.211051,42.0
2023-08-09 15:49:09.218741,78.0
2023-08-09 15:49:09.226432,102.0
2023-08-09 15:49:09.234122,114.0
2023-08-09 15:49:09.241812,126.0
2023-08-09 15:49:09.249503,140.0
2023-08-09 15:49:09.257193,138.0
2023-08-09 15:49:09.264883,109.0
2023-08-09 15:49:09.272574,83.0
2023-08-09 15:49:09.280264,50.0
2023-08-09 15:49:09.287954,4.0
2023-08-09 15:49:09.295645,-33.0
2023-08-09 15:49:09.303335,-59.0
2023-08-09 15:49:09.311025,-90.0
2023-08-09 15:49:09.318716,-126.0
2023-08-09 15:49:09.326406,-143.0
2023-08-09 15:49:09.334096,-140.0
2023-08-09 15:49:09.341787,-145.0
2023-08-09 15:49:09.349477,-145.0
2023-08-09 15:49:09.357167,-136.0
2023-08-09 15:49:09.364858,-133.0
2023-08-09 15:49:09.372548,-140.0
2023-08-09 15:49:09.380238,-143.0
2023-08-09 15:49:09.387929,-131.0
2023-08-09 15:49:09.395619,-114.0
2023-08-09 15:49:09.403309,-109.0
2023-08-09 15:49:09.411000,-105.0
2023-08-09 15:49:09.418690,-105.0
2023-08-09 15:49:09.426380,-112.0
2023-08-09 15:49:09.434071,-114.0
2023-08-09 15:49:09.441761,-107.0
2023-08-09 15:49:09.449451,-95.0
2023-08-09 15:49:09.457142,-90.0
2023-08-09 15:49:09.464832,-90.0
2023-08-09 15:49:09.472522,-90.0
2023-08-09 15:49:09.480213,-93.0
2023-08-09 15:49:09.487903,-100.0
2023-08-09 15:49:09.495593,-109.0
2023-08-09 15:49:09.503284,-112.0
2023-08-09 15:49:09.510974,-107.0
2023-08-09 15:49:09.518664,-107.0
2023-08-09 15:49:09.526355,-117.0
2023-08-09 15:49:09.534045,-121.0
2023-08-09 15:49:09.541735,-117.0
2023-08-09 15:49:09.549426,-100.0
2023-08-09 15:49:09.557116,-85.0
2023-08-09 15:49:09.564806,-74.0
2023-08-09 15:49:09.572497,-52.0
2023-08-09 15:49:09.580187,-47.0
2023-08-09 15:49:09.587877,-59.0
2023-08-09 15:49:09.595568,-76.0
2023-08-09 15:49:09.603258,-81.0
2023-08-09 15:49:09.610948,-81.0
2023-08-09 15:49:09.618639,-90.0
2023-08-09 15:49:09.626329,-100.0
2023-08-09 15:49:09.634019,-105.0
2023-08-09 15:49:09.641710,-105.0
2023-08-09 15:49:09.649400,-114.0
2023-08-09 15:49:09.657090,-124.0
2023-08-09 15:49:09.664781,-107.0
2023-08-09 15:49:09.672471,-95.0
2023-08-09 15:49:09.680161,-107.0
2023-08-09 15:49:09.687852,-97.0
2023-08-09 15:49:09.695542,-81.0
2023-08-09 15:49:09.703232,-102.0
2023-08-09 15:49:09.710923,-136.0
2023-08-09 15:49:09.718613,-128.0
2023-08-09 15:49:09.726303,-11.0
2023-08-09 15:49:09.733994,255.0
2023-08-09 15:49:09.741684,546.0
2023-08-09 15:49:09.749374,549.0
2023-08-09 15:49:09.757065,138.0
2023-08-09 15:49:09.764755,-229.0
2023-08-09 15:49:09.772445,-260.0
2023-08-09 15:49:09.780136,-243.0
2023-08-09 15:49:09.787826,-246.0
2023-08-09 15:49:09.795516,-145.0
2023-08-09 15:49:09.803207,-83.0
2023-08-09 15:49:09.810897,-107.0
2023-08-09 15:49:09.818587,-90.0
2023-08-09 15:49:09.826277,-54.0
2023-08-09 15:49:09.833968,-52.0
2023-08-09 15:49:09.841658,-45.0
2023-08-09 15:49:09.849348,-35.0
2023-08-09 15:49:09.857039,-35.0
2023-08-09 15:49:09.864729,-11.0
2023-08-09 15:49:09.872419,4.0
2023-08-09 15:49:09.880110,2.0
2023-08-09 15:49:09.887800,14.0
2023-08-09 15:49:09.895490,45.0
2023-08-09 15:49:09.903181,69.0
2023-08-09 15:49:09.910871,78.0
2023-08-09 15:49:09.918561,95.0
2023-08-09 15:49:09.926252,121.0
2023-08-09 15:49:09.933942,121.0
2023-08-09 15:49:09.941632,109.0
2023-08-09 15:49:09.949323,109.0
2023-08-09 15:49:09.957013,95.0
2023-08-09 15:49:09.964703,50.0
2023-08-09 15:49:09.972394,2.0
2023-08-09 15:49:09.980084,-33.0
2023-08-09 15:49:09.987774,-71.0
2023-08-09 15:49:09.995465,-102.0
2023-08-09 15:49:10.003155,-124.0
2023-08-09 15:49:10.010845,-152.0
2023-08-09 15:49:10.018536,-167.0
2023-08-09 15:49:10.026226,-150.0
2023-08-09 15:49:10.033916,-136.0
2023-08-09 15:49:10.041607,-138.0
2023-08-09 15:49:10.049297,-145.0
2023-08-09 15:49:10.056987,-157.0
2023-08-09 15:49:10.064678,-157.0
2023-08-09 15:49:10.072368,-136.0
2023-08-09 15:49:10.080058,-119.0
2023-08-09 15:49:10.087749,-119.0
2023-08-09 15:49:10.095439,-124.0
2023-08-09 15:49:10.103129,-126.0
2023-08-09 15:49:10.110820,-114.0
2023-08-09 15:49:10.118510,-97.0
2023-08-09 15:49:10.126200,-97.0
2023-08-09 15:49:10.133891,-100.0
2023-08-09 15:49:10.141581,-83.0
2023-08-09 15:49:10.149271,-83.0
2023-08-09 15:49:10.156962,-100.0
2023-08-09 15:49:10.164652,-97.0
2023-08-09 15:49:10.172342,-90.0
2023-08-09 15:49:10.180033,-95.0
2023-08-09 15:49:10.187723,-88.0
2023-08-09 15:49:10.195413,-81.0
2023-08-09 15:49:10.203104,-83.0
2023-08-09 15:49:10.210794,-81.0
2023-08-09 15:49:10.218484,-78.0
2023-08-09 15:49:10.226175,-74.0
2023-08-09 15:49:10.233865,-66.0
2023-08-09 15:49:10.241555,-74.0
2023-08-09 15:49:10.249246,-88.0
2023-08-09 15:49:10.256936,-78.0
2023-08-09 15:49:10.264626,-47.0
2023-08-09 15:49:10.272317,-21.0
2023-08-09 15:49:10.280007,-9.0
2023-08-09 15:49:10.287697,-19.0
2023-08-09 15:49:10.295388,-42.0
2023-08-09 15:49:10.303078,-47.0
2023-08-09 15:49:10.310768,-42.0
2023-08-09 15:49:10.318459,-52.0
2023-08-09 15:49:10.326149,-59.0
2023-08-09 15:49:10.333839,-62.0
2023-08-09 15:49:10.341530,-71.0
2023-08-09 15:49:10.349220,-71.0
2023-08-09 15:49:10.356910,-81.0
2023-08-09 15:49:10.364601,-88.0
2023-08-09 15:49:10.372291,-76.0
2023-08-09 15:49:10.379981,-78.0
2023-08-09 15:49:10.387672,-83.0
2023-08-09 15:49:10.395362,-69.0
2023-08-09 15:49:10.403052,-52.0
2023-08-09 15:49:10.410743,-71.0
2023-08-09 15:49:10.418433,-102.0
2023-08-09 15:49:10.426123,-9.0
2023-08-09 15:49:10.433814,243.0
2023-08-09 15:49:10.441504,501.0
2023-08-09 15:49:10.449194,599.0
2023-08-09 15:49:10.456885,332.0
2023-08-09 15:49:10.464575,-124.0
2023-08-09 15:49:10.472265,-277.0
2023-08-09 15:49:10.479956,-195.0
2023-08-09 15:49:10.487646,-176.0
2023-08-09 15:49:10.495336,-131.0
2023-08-09 15:49:10.503027,-47.0
2023-08-09 15:49:10.510717,-50.0
2023-08-09 15:49:10.518407,-81.0
2023-08-09 15:49:10.526097,-64.0
2023-08-09 15:49:10.533788,-42.0
2023-08-09 15:49:10.541478,-26.0
2023-08-09 15:49:10.549168,-9.0
2023-08-09 15:49:10.556859,-21.0
2023-08-09 15:49:10.564549,-28.0
2023-08-09 15:49:10.572239,-2.0
2023-08-09 15:49:10.579930,19.0
2023-08-09 15:49:10.587620,38.0
2023-08-09 15:49:10.595310,64.0
2023-08-09 15:49:10.603001,47.0
2023-08-09 15:49:10.610691,64.0
2023-08-09 15:49:10.618381,148.0
2023-08-09 15:49:10.626072,145.0
2023-08-09 15:49:10.633762,90.0
2023-08-09 15:49:10.641452,109.0
2023-08-09 15:49:10.649143,133.0
2023-08-09 15:49:10.656833,112.0
2023-08-09 15:49:10.664523,66.0
2023-08-09 15:49:10.672214,31.0
2023-08-09 15:49:10.679904,31.0
2023-08-09 15:49:10.687594,-16.0
2023-08-09 15:49:10.695285,-119.0
2023-08-09 15:49:10.702975,-136.0
2023-08-09 15:49:10.710665,-85.0
2023-08-09 15:49:10.718356,-97.0
2023-08-09 15:49:10.726046,-155.0
2023-08-09 15:49:10.733736,-143.0
2023-08-09 15:49:10.741427,-93.0
2023-08-09 15:49:10.749117,-112.0
2023-08-09 15:49:10.756807,-155.0
2023-08-09 15:49:10.764498,-145.0
2023-08-09 15:49:10.772188,-124.0
2023-08-09 15:49:10.779878,-114.0
2023-08-09 15:49:10.787569,-97.0
2023-08-09 15:49:10.795259,-78.0
2023-08-09 15:49:10.802949,-69.0
2023-08-09 15:49:10.810640,-88.0
2023-08-09 15:49:10.818330,-124.0
2023-08-09 15:49:10.826020,-112.0
2023-08-09 15:49:10.833711,-85.0
2023-08-09 15:49:10.841401,-90.0
2023-08-09 15:49:10.849091,-78.0
2023-08-09 15:49:10.856782,-54.0
2023-08-09 15:49:10.864472,-71.0
2023-08-09 15:49:10.872162,-97.0
2023-08-09 15:49:10.879853,-95.0
2023-08-09 15:49:10.887543,-78.0
2023-08-09 15:49:10.895233,-74.0
2023-08-09 15:49:10.902924,-76.0
2023-08-09 15:49:10.910614,-78.0
2023-08-09 15:49:10.918304,-88.0
2023-08-09 15:49:10.925995,-81.0
2023-08-09 15:49:10.933685,-54.0
2023-08-09 15:49:10.941375,-54.0
2023-08-09 15:49:10.949066,-88.0
2023-08-09 15:49:10.956756,-93.0
2023-08-09 15:49:10.964446,-62.0
2023-08-09 15:49:10.972137,-33.0
2023-08-09 15:49:10.979827,-21.0
2023-08-09 15:49:10.987517,-28.0
2023-08-09 15:49:10.995208,-47.0
2023-08-09 15:49:11.002898,-50.0
2023-08-09 15:49:11.010588,-31.0
2023-08-09 15:49:11.018279,-35.0
2023-08-09 15:49:11.025969,-90.0
2023-08-09 15:49:11.033659,-124.0
2023-08-09 15:49:11.041350,-97.0
2023-08-09 15:49:11.049040,-90.0
2023-08-09 15:49:11.056730,-100.0
2023-08-09 15:49:11.064421,-78.0
2023-08-09 15:49:11.072111,-88.0
2023-08-09 15:49:11.079801,-126.0
2023-08-09 15:49:11.087492,-112.0
2023-08-09 15:49:11.095182,-83.0
2023-08-09 15:49:11.102872,-93.0
2023-08-09 15:49:11.110563,-109.0
2023-08-09 15:49:11.118253,-109.0
2023-08-09 15:49:11.125943,-74.0
2023-08-09 15:49:11.133634,59.0
2023-08-09 15:49:11.141324,327.0
2023-08-09 15:49:11.149014,554.0
2023-08-09 15:49:11.156705,403.0
2023-08-09 15:49:11.164395,-50.0
2023-08-09 15:49:11.172085,-284.0
2023-08-09 15:49:11.179776,-257.0
2023-08-09 15:49:11.187466,-272.0
2023-08-09 15:49:11.195156,-243.0
2023-08-09 15:49:11.202846,-119.0
2023-08-09 15:49:11.210537,-64.0
2023-08-09 15:49:11.218227,-90.0
2023-08-09 15:49:11.225917,-112.0
2023-08-09 15:49:11.233608,-107.0
2023-08-09 15:49:11.241298,-83.0
2023-08-09 15:49:11.248988,-71.0
2023-08-09 15:49:11.256679,-69.0
2023-08-09 15:49:11.264369,-45.0
2023-08-09 15:49:11.272059,-35.0
2023-08-09 15:49:11.279750,-50.0
2023-08-09 15:49:11.287440,-38.0
2023-08-09 15:49:11.295130,-2.0
2023-08-09 15:49:11.302821,14.0
2023-08-09 15:49:11.310511,33.0
2023-08-09 15:49:11.318201,64.0
2023-08-09 15:49:11.325892,76.0
2023-08-09 15:49:11.333582,74.0
2023-08-09 15:49:11.341272,81.0
2023-08-09 15:49:11.348963,78.0
2023-08-09 15:49:11.356653,62.0
2023-08-09 15:49:11.364343,35.0
2023-08-09 15:49:11.372034,0.0
2023-08-09 15:49:11.379724,-33.0
2023-08-09 15:49:11.387414,-59.0
2023-08-09 15:49:11.395105,-109.0
2023-08-09 15:49:11.402795,-171.0
2023-08-09 15:49:11.410485,-186.0
2023-08-09 15:49:11.418176,-169.0
2023-08-09 15:49:11.425866,-181.0
2023-08-09 15:49:11.433556,-183.0
2023-08-09 15:49:11.441247,-160.0
2023-08-09 15:49:11.448937,-152.0
2023-08-09 15:49:11.456627,-176.0
2023-08-09 15:49:11.464318,-186.0
2023-08-09 15:49:11.472008,-167.0
2023-08-09 15:49:11.479698,-150.0
2023-08-09 15:49:11.487389,-150.0
2023-08-09 15:49:11.495079,-148.0
2023-08-09 15:49:11.502769,-131.0
2023-08-09 15:49:11.510460,-131.0
2023-08-09 15:49:11.518150,-136.0
2023-08-09 15:49:11.525840,-128.0
2023-08-09 15:49:11.533531,-124.0
2023-08-09 15:49:11.541221,-128.0
2023-08-09 15:49:11.548911,-140.0
2023-08-09 15:49:11.556602,-148.0
2023-08-09 15:49:11.564292,-124.0
2023-08-09 15:49:11.571982,-109.0
2023-08-09 15:49:11.579673,-119.0
2023-08-09 15:49:11.587363,-119.0
2023-08-09 15:49:11.595053,-112.0
2023-08-09 15:49:11.602744,-112.0
2023-08-09 15:49:11.610434,-107.0
2023-08-09 15:49:11.618124,-109.0
2023-08-09 15:49:11.625815,-121.0
2023-08-09 15:49:11.633505,-119.0
2023-08-09 15:49:11.641195,-102.0
2023-08-09 15:49:11.648886,-102.0
2023-08-09 15:49:11.656576,-112.0
2023-08-09 15:49:11.664266,-102.0
2023-08-09 15:49:11.671957,-88.0
2023-08-09 15:49:11.679647,-69.0
2023-08-09 15:49:11.687337,-40.0
2023-08-09 15:49:11.695028,-38.0
2023-08-09 15:49:11.702718,-54.0
2023-08-09 15:49:11.710408,-69.0
2023-08-09 15:49:11.718099,-74.0
2023-08-09 15:49:11.725789,-76.0
2023-08-09 15:49:11.733479,-93.0
2023-08-09 15:49:11.741170,-114.0
2023-08-09 15:49:11.748860,-109.0
2023-08-09 15:49:11.756550,-90.0
2023-08-09 15:49:11.764241,-102.0
2023-08-09 15:49:11.771931,-133.0
2023-08-09 15:49:11.779621,-128.0
2023-08-09 15:49:11.787312,-107.0
2023-08-09 15:49:11.795002,-117.0
2023-08-09 15:49:11.802692,-131.0
2023-08-09 15:49:11.810383,-124.0
2023-08-09 15:49:11.818073,-114.0
2023-08-09 15:49:11.825763,-128.0
2023-08-09 15:49:11.833454,-138.0
2023-08-09 15:49:11.841144,-42.0
2023-08-09 15:49:11.848834,207.0
2023-08-09 15:49:11.856525,489.0
2023-08-09 15:49:11.864215,551.0
2023-08-09 15:49:11.871905,205.0
2023-08-09 15:49:11.879596,-219.0
2023-08-09 15:49:11.887286,-310.0
2023-08-09 15:49:11.894976,-267.0
2023-08-09 15:49:11.902666,-267.0
2023-08-09 15:49:11.910357,-176.0
2023-08-09 15:49:11.918047,-78.0
2023-08-09 15:49:11.925737,-78.0
2023-08-09 15:49:11.933428,-83.0
2023-08-09 15:49:11.941118,-66.0
2023-08-09 15:49:11.948808,-64.0
2023-08-09 15:49:11.956499,-62.0
2023-08-09 15:49:11.964189,-45.0
2023-08-09 15:49:11.971879,-31.0
2023-08-09 15:49:11.979570,-16.0
2023-08-09 15:49:11.987260,0.0
2023-08-09 15:49:11.994950,11.0
2023-08-09 15:49:12.002641,23.0
2023-08-09 15:49:12.010331,35.0
2023-08-09 15:49:12.018021,52.0
2023-08-09 15:49:12.025712,81.0
2023-08-09 15:49:12.033402,105.0
2023-08-09 15:49:12.041092,112.0
2023-08-09 15:49:12.048783,117.0
2023-08-09 15:49:12.056473,124.0
2023-08-09 15:49:12.064163,121.0
2023-08-09 15:49:12.071854,100.0
2023-08-09 15:49:12.079544,59.0
2023-08-09 15:49:12.087234,9.0
2023-08-09 15:49:12.094925,-33.0
2023-08-09 15:49:12.102615,-69.0
2023-08-09 15:49:12.110305,-105.0
2023-08-09 15:49:12.117996,-126.0
2023-08-09 15:49:12.125686,-131.0
2023-08-09 15:49:12.133376,-140.0
2023-08-09 15:49:12.141067,-155.0
2023-08-09 15:49:12.148757,-155.0
2023-08-09 15:49:12.156447,-140.0
2023-08-09 15:49:12.164138,-136.0
2023-08-09 15:49:12.171828,-140.0
2023-08-09 15:49:12.179518,-138.0
2023-08-09 15:49:12.187209,-119.0
2023-08-09 15:49:12.194899,-109.0
2023-08-09 15:49:12.202589,-121.0
2023-08-09 15:49:12.210280,-126.0
2023-08-09 15:49:12.217970,-114.0
2023-08-09 15:49:12.225660,-105.0
2023-08-09 15:49:12.233351,-107.0
2023-08-09 15:49:12.241041,-105.0
2023-08-09 15:49:12.248731,-93.0
2023-08-09 15:49:12.256422,-93.0
2023-08-09 15:49:12.264112,-100.0
2023-08-09 15:49:12.271802,-97.0
2023-08-09 15:49:12.279493,-85.0
2023-08-09 15:49:12.287183,-78.0
2023-08-09 15:49:12.294873,-85.0
2023-08-09 15:49:12.302564,-105.0
2023-08-09 15:49:12.310254,-112.0
2023-08-09 15:49:12.317944,-105.0
2023-08-09 15:49:12.325635,-102.0
2023-08-09 15:49:12.333325,-105.0
2023-08-09 15:49:12.341015,-105.0
2023-08-09 15:49:12.348706,-100.0
2023-08-09 15:49:12.356396,-93.0
2023-08-09 15:49:12.364086,-90.0
2023-08-09 15:49:12.371777,-100.0
2023-08-09 15:49:12.379467,-105.0
2023-08-09 15:49:12.387157,-85.0
2023-08-09 15:49:12.394848,-57.0
2023-08-09 15:49:12.402538,-38.0
2023-08-09 15:49:12.410228,-28.0
2023-08-09 15:49:12.417919,-28.0
2023-08-09 15:49:12.425609,-47.0
2023-08-09 15:49:12.433299,-64.0
2023-08-09 15:49:12.440990,-66.0
2023-08-09 15:49:12.448680,-71.0
2023-08-09 15:49:12.456370,-81.0
2023-08-09 15:49:12.464061,-90.0
2023-08-09 15:49:12.471751,-105.0
2023-08-09 15:49:12.479441,-114.0
2023-08-09 15:49:12.487132,-102.0
2023-08-09 15:49:12.494822,-102.0
2023-08-09 15:49:12.502512,-109.0
2023-08-09 15:49:12.510203,-109.0
2023-08-09 15:49:12.517893,-102.0
2023-08-09 15:49:12.525583,-105.0
2023-08-09 15:49:12.533274,-105.0
2023-08-09 15:49:12.540964,-107.0
2023-08-09 15:49:12.548654,-119.0
2023-08-09 15:49:12.556345,-93.0
2023-08-09 15:49:12.564035,66.0
2023-08-09 15:49:12.571725,339.0
2023-08-09 15:49:12.579415,539.0
2023-08-09 15:49:12.587106,403.0
2023-08-09 15:49:12.594796,-26.0
2023-08-09 15:49:12.602486,-284.0
2023-08-09 15:49:12.610177,-269.0
2023-08-09 15:49:12.617867,-246.0
2023-08-09 15:49:12.625557,-198.0
2023-08-09 15:49:12.633248,-102.0
2023-08-09 15:49:12.640938,-81.0
2023-08-09 15:49:12.648628,-100.0
2023-08-09 15:49:12.656319,-76.0
2023-08-09 15:49:12.664009,-57.0
2023-08-09 15:49:12.671699,-62.0
2023-08-09 15:49:12.679390,-57.0
2023-08-09 15:49:12.687080,-47.0
2023-08-09 15:49:12.694770,-31.0
2023-08-09 15:49:12.702461,-16.0
2023-08-09 15:49:12.710151,-4.0
2023-08-09 15:49:12.717841,7.0
2023-08-09 15:49:12.725532,14.0
2023-08-09 15:49:12.733222,28.0
2023-08-09 15:49:12.740912,47.0
2023-08-09 15:49:12.748603,66.0
2023-08-09 15:49:12.756293,88.0
2023-08-09 15:49:12.763983,109.0
2023-08-09 15:49:12.771674,119.0
2023-08-09 15:49:12.779364,119.0
2023-08-09 15:49:12.787054,112.0
2023-08-09 15:49:12.794745,83.0
2023-08-09 15:49:12.802435,47.0
2023-08-09 15:49:12.810125,9.0
2023-08-09 15:49:12.817816,-38.0
2023-08-09 15:49:12.825506,-71.0
2023-08-09 15:49:12.833196,-93.0
2023-08-09 15:49:12.840887,-128.0
2023-08-09 15:49:12.848577,-157.0
2023-08-09 15:49:12.856267,-157.0
2023-08-09 15:49:12.863958,-155.0
2023-08-09 15:49:12.871648,-152.0
2023-08-09 15:49:12.879338,-145.0
2023-08-09 15:49:12.887029,-145.0
2023-08-09 15:49:12.894719,-140.0
2023-08-09 15:49:12.902409,-133.0
2023-08-09 15:49:12.910100,-136.0
2023-08-09 15:49:12.917790,-124.0
2023-08-09 15:49:12.925480,-109.0
2023-08-09 15:49:12.933171,-109.0
2023-08-09 15:49:12.940861,-119.0
2023-08-09 15:49:12.948551,-109.0
2023-08-09 15:49:12.956242,-97.0
2023-08-09 15:49:12.963932,-114.0
2023-08-09 15:49:12.971622,-126.0
2023-08-09 15:49:12.979313,-112.0
2023-08-09 15:49:12.987003,-95.0
2023-08-09 15:49:12.994693,-100.0
2023-08-09 15:49:13.002384,-117.0
2023-08-09 15:49:13.010074,-114.0
2023-08-09 15:49:13.017764,-97.0
2023-08-09 15:49:13.025455,-100.0
2023-08-09 15:49:13.033145,-112.0
2023-08-09 15:49:13.040835,-109.0
2023-08-09 15:49:13.048526,-107.0
2023-08-09 15:49:13.056216,-105.0
2023-08-09 15:49:13.063906,-100.0
2023-08-09 15:49:13.071597,-97.0
2023-08-09 15:49:13.079287,-100.0
2023-08-09 15:49:13.086977,-100.0
2023-08-09 15:49:13.094668,-100.0
2023-08-09 15:49:13.102358,-102.0
2023-08-09 15:49:13.110048,-97.0
2023-08-09 15:49:13.117739,-88.0
2023-08-09 15:49:13.125429,-78.0
2023-08-09 15:49:13.133119,-54.0
2023-08-09 15:49:13.140810,-26.0
2023-08-09 15:49:13.148500,-26.0
2023-08-09 15:49:13.156190,-57.0
2023-08-09 15:49:13.163881,-78.0
2023-08-09 15:49:13.171571,-76.0
2023-08-09 15:49:13.179261,-76.0
2023-08-09 15:49:13.186952,-90.0
2023-08-09 15:49:13.194642,-112.0
2023-08-09 15:49:13.202332,-121.0
2023-08-09 15:49:13.210023,-119.0
2023-08-09 15:49:13.217713,-124.0
2023-08-09 15:49:13.225403,-136.0
2023-08-09 15:49:13.233094,-126.0
2023-08-09 15:49:13.240784,-107.0
2023-08-09 15:49:13.248474,-109.0
2023-08-09 15:49:13.256165,-124.0
2023-08-09 15:49:13.263855,-117.0
2023-08-09 15:49:13.271545,-112.0
2023-08-09 15:49:13.279235,-131.0
2023-08-09 15:49:13.286926,-97.0
2023-08-09 15:49:13.294616,83.0
2023-08-09 15:49:13.302306,367.0
2023-08-09 15:49:13.309997,537.0
2023-08-09 15:49:13.317687,343.0
2023-08-09 15:49:13.325377,-85.0
2023-08-09 15:49:13.333068,-293.0
2023-08-09 15:49:13.340758,-286.0
2023-08-09 15:49:13.348448,-293.0
2023-08-09 15:49:13.356139,-217.0
2023-08-09 15:49:13.363829,-93.0
2023-08-09 15:49:13.371519,-83.0
2023-08-09 15:49:13.379210,-114.0
2023-08-09 15:49:13.386900,-90.0
2023-08-09 15:49:13.394590,-71.0
2023-08-09 15:49:13.402281,-71.0
2023-08-09 15:49:13.409971,-59.0
2023-08-09 15:49:13.417661,-50.0
2023-08-09 15:49:13.425352,-50.0
2023-08-09 15:49:13.433042,-38.0
2023-08-09 15:49:13.440732,-26.0
2023-08-09 15:49:13.448423,-21.0
2023-08-09 15:49:13.456113,-4.0
2023-08-09 15:49:13.463803,35.0
2023-08-09 15:49:13.471494,76.0
2023-08-09 15:49:13.479184,83.0
2023-08-09 15:49:13.486874,83.0
2023-08-09 15:49:13.494565,100.0
2023-08-09 15:49:13.502255,112.0
2023-08-09 15:49:13.509945,107.0
2023-08-09 15:49:13.517636,90.0
2023-08-09 15:49:13.525326,62.0
2023-08-09 15:49:13.533016,26.0
2023-08-09 15:49:13.540707,-26.0
2023-08-09 15:49:13.548397,-81.0
2023-08-09 15:49:13.556087,-121.0
2023-08-09 15:49:13.563778,-155.0
2023-08-09 15:49:13.571468,-174.0
2023-08-09 15:49:13.579158,-169.0
2023-08-09 15:49:13.586849,-162.0
2023-08-09 15:49:13.594539,-171.0
2023-08-09 15:49:13.602229,-181.0
2023-08-09 15:49:13.609920,-183.0
2023-08-09 15:49:13.617610,-186.0
2023-08-09 15:49:13.625300,-205.0
2023-08-09 15:49:13.632991,-195.0
2023-08-09 15:49:13.640681,-145.0
2023-08-09 15:49:13.648371,-148.0
2023-08-09 15:49:13.656062,-203.0
2023-08-09 15:49:13.663752,-191.0
2023-08-09 15:49:13.671442,-131.0
2023-08-09 15:49:13.679133,-126.0
2023-08-09 15:49:13.686823,-148.0
2023-08-09 15:49:13.694513,-155.0
2023-08-09 15:49:13.702204,-150.0
2023-08-09 15:49:13.709894,-148.0
2023-08-09 15:49:13.717584,-148.0
2023-08-09 15:49:13.725275,-140.0
2023-08-09 15:49:13.732965,-136.0
2023-08-09 15:49:13.740655,-136.0
2023-08-09 15:49:13.748346,-140.0
2023-08-09 15:49:13.756036,-143.0
2023-08-09 15:49:13.763726,-136.0
2023-08-09 15:49:13.771417,-124.0
2023-08-09 15:49:13.779107,-105.0
2023-08-09 15:49:13.786797,-105.0
2023-08-09 15:49:13.794488,-117.0
2023-08-09 15:49:13.802178,-119.0
2023-08-09 15:49:13.809868,-126.0
2023-08-09 15:49:13.817559,-128.0
2023-08-09 15:49:13.825249,-128.0
2023-08-09 15:49:13.832939,-133.0
2023-08-09 15:49:13.840630,-126.0
2023-08-09 15:49:13.848320,-85.0
2023-08-09 15:49:13.856010,-54.0
2023-08-09 15:49:13.863701,-62.0
2023-08-09 15:49:13.871391,-64.0
2023-08-09 15:49:13.879081,-66.0
2023-08-09 15:49:13.886772,-90.0
2023-08-09 15:49:13.894462,-112.0
2023-08-09 15:49:13.902152,-121.0
2023-08-09 15:49:13.909843,-131.0
2023-08-09 15:49:13.917533,-148.0
2023-08-09 15:49:13.925223,-148.0
2023-08-09 15:49:13.932914,-133.0
2023-08-09 15:49:13.940604,-143.0
2023-08-09 15:49:13.948294,-162.0
2023-08-09 15:49:13.955984,-150.0
2023-08-09 15:49:13.963675,-133.0
2023-08-09 15:49:13.971365,-152.0
2023-08-09 15:49:13.979055,-174.0
2023-08-09 15:49:13.986746,-162.0
2023-08-09 15:49:13.994436,-152.0
2023-08-09 15:49:14.002126,-176.0
2023-08-09 15:49:14.009817,-107.0
2023-08-09 15:49:14.017507,138.0
2023-08-09 15:49:14.025197,415.0
2023-08-09 15:49:14.032888,494.0
2023-08-09 15:49:14.040578,229.0
2023-08-09 15:49:14.048268,-167.0
2023-08-09 15:49:14.055959,-315.0
2023-08-09 15:49:14.063649,-308.0
2023-08-09 15:49:14.071339,-305.0
2023-08-09 15:49:14.079030,-212.0
2023-08-09 15:49:14.086720,-105.0
2023-08-09 15:49:14.094410,-109.0
2023-08-09 15:49:14.102101,-121.0
2023-08-09 15:49:14.109791,-85.0
2023-08-09 15:49:14.117481,-74.0
2023-08-09 15:49:14.125172,-69.0
2023-08-09 15:49:14.132862,-47.0
2023-08-09 15:49:14.140552,-31.0
2023-08-09 15:49:14.148243,-28.0
2023-08-09 15:49:14.155933,-16.0
2023-08-09 15:49:14.163623,0.0
2023-08-09 15:49:14.171314,7.0
2023-08-09 15:49:14.179004,26.0
2023-08-09 15:49:14.186694,50.0
2023-08-09 15:49:14.194385,66.0
2023-08-09 15:49:14.202075,88.0
2023-08-09 15:49:14.209765,100.0
2023-08-09 15:49:14.217456,100.0
2023-08-09 15:49:14.225146,109.0
2023-08-09 15:49:14.232836,124.0
2023-08-09 15:49:14.240527,109.0
2023-08-09 15:49:14.248217,62.0
2023-08-09 15:49:14.255907,23.0
2023-08-09 15:49:14.263598,-7.0
2023-08-09 15:49:14.271288,-59.0
2023-08-09 15:49:14.278978,-100.0
2023-08-09 15:49:14.286669,-117.0
2023-08-09 15:49:14.294359,-133.0
2023-08-09 15:49:14.302049,-148.0
2023-08-09 15:49:14.309740,-143.0
2023-08-09 15:49:14.317430,-138.0
2023-08-09 15:49:14.325120,-140.0
2023-08-09 15:49:14.332811,-138.0
2023-08-09 15:49:14.340501,-133.0
2023-08-09 15:49:14.348191,-121.0
2023-08-09 15:49:14.355882,-117.0
2023-08-09 15:49:14.363572,-121.0
2023-08-09 15:49:14.371262,-124.0
2023-08-09 15:49:14.378953,-112.0
2023-08-09 15:49:14.386643,-100.0
2023-08-09 15:49:14.394333,-93.0
2023-08-09 15:49:14.402024,-85.0
2023-08-09 15:49:14.409714,-83.0
2023-08-09 15:49:14.417404,-93.0
2023-08-09 15:49:14.425095,-97.0
2023-08-09 15:49:14.432785,-88.0
2023-08-09 15:49:14.440475,-83.0
2023-08-09 15:49:14.448166,-85.0
2023-08-09 15:49:14.455856,-88.0
2023-08-09 15:49:14.463546,-88.0
2023-08-09 15:49:14.471237,-93.0
2023-08-09 15:49:14.478927,-93.0
2023-08-09 15:49:14.486617,-88.0
2023-08-09 15:49:14.494308,-90.0
2023-08-09 15:49:14.501998,-95.0
2023-08-09 15:49:14.509688,-97.0
2023-08-09 15:49:14.517379,-95.0
2023-08-09 15:49:14.525069,-88.0
2023-08-09 15:49:14.532759,-83.0
2023-08-09 15:49:14.540450,-74.0
2023-08-09 15:49:14.548140,-74.0
2023-08-09 15:49:14.555830,-93.0
2023-08-09 15:49:14.563521,-85.0
2023-08-09 15:49:14.571211,-42.0
2023-08-09 15:49:14.578901,-21.0
2023-08-09 15:49:14.586592,-45.0
2023-08-09 15:49:14.594282,-69.0
2023-08-09 15:49:14.601972,-88.0
2023-08-09 15:49:14.609663,-97.0
2023-08-09 15:49:14.617353,-97.0
2023-08-09 15:49:14.625043,-105.0
2023-08-09 15:49:14.632733,-112.0
2023-08-09 15:49:14.640424,-112.0
2023-08-09 15:49:14.648114,-119.0
2023-08-09 15:49:14.655804,-126.0
2023-08-09 15:49:14.663495,-119.0
2023-08-09 15:49:14.671185,-114.0
2023-08-09 15:49:14.678875,-119.0
2023-08-09 15:49:14.686566,-119.0
2023-08-09 15:49:14.694256,-109.0
2023-08-09 15:49:14.701946,-109.0
2023-08-09 15:49:14.709637,-117.0
2023-08-09 15:49:14.717327,-136.0
2023-08-09 15:49:14.725017,-105.0
2023-08-09 15:49:14.732708,69.0
2023-08-09 15:49:14.740398,348.0
2023-08-09 15:49:14.748088,530.0
2023-08-09 15:49:14.755779,360.0
2023-08-09 15:49:14.763469,-52.0
2023-08-09 15:49:14.771159,-257.0
2023-08-09 15:49:14.778850,-246.0
2023-08-09 15:49:14.786540,-250.0
2023-08-09 15:49:14.794230,-195.0
2023-08-09 15:49:14.801921,-85.0
2023-08-09 15:49:14.809611,-74.0
2023-08-09 15:49:14.817301,-102.0
2023-08-09 15:49:14.824992,-74.0
2023-08-09 15:49:14.832682,-52.0
2023-08-09 15:49:14.840372,-54.0
2023-08-09 15:49:14.848063,-47.0
2023-08-09 15:49:14.855753,-42.0
2023-08-09 15:49:14.863443,-35.0
2023-08-09 15:49:14.871134,-19.0
2023-08-09 15:49:14.878824,-4.0
2023-08-09 15:49:14.886514,9.0
2023-08-09 15:49:14.894205,28.0
2023-08-09 15:49:14.901895,50.0
2023-08-09 15:49:14.909585,66.0
2023-08-09 15:49:14.917276,83.0
2023-08-09 15:49:14.924966,95.0
2023-08-09 15:49:14.932656,109.0
2023-08-09 15:49:14.940347,121.0
2023-08-09 15:49:14.948037,121.0
2023-08-09 15:49:14.955727,109.0
2023-08-09 15:49:14.963418,81.0
2023-08-09 15:49:14.971108,42.0
2023-08-09 15:49:14.978798,4.0
2023-08-09 15:49:14.986489,-33.0
2023-08-09 15:49:14.994179,-71.0
2023-08-09 15:49:15.001869,-97.0
2023-08-09 15:49:15.009560,-114.0
2023-08-09 15:49:15.017250,-126.0
2023-08-09 15:49:15.024940,-131.0
2023-08-09 15:49:15.032631,-126.0
2023-08-09 15:49:15.040321,-126.0
2023-08-09 15:49:15.048011,-124.0
2023-08-09 15:49:15.055702,-124.0
2023-08-09 15:49:15.063392,-126.0
2023-08-09 15:49:15.071082,-126.0
2023-08-09 15:49:15.078773,-117.0
2023-08-09 15:49:15.086463,-109.0
2023-08-09 15:49:15.094153,-109.0
2023-08-09 15:49:15.101844,-109.0
2023-08-09 15:49:15.109534,-105.0
2023-08-09 15:49:15.117224,-102.0
2023-08-09 15:49:15.124915,-102.0
2023-08-09 15:49:15.132605,-97.0
2023-08-09 15:49:15.140295,-97.0
2023-08-09 15:49:15.147986,-107.0
2023-08-09 15:49:15.155676,-109.0
2023-08-09 15:49:15.163366,-109.0
2023-08-09 15:49:15.171057,-112.0
2023-08-09 15:49:15.178747,-107.0
2023-08-09 15:49:15.186437,-100.0
2023-08-09 15:49:15.194128,-102.0
2023-08-09 15:49:15.201818,-107.0
2023-08-09 15:49:15.209508,-107.0
2023-08-09 15:49:15.217199,-107.0
2023-08-09 15:49:15.224889,-109.0
2023-08-09 15:49:15.232579,-109.0
2023-08-09 15:49:15.240270,-105.0
2023-08-09 15:49:15.247960,-97.0
2023-08-09 15:49:15.255650,-95.0
2023-08-09 15:49:15.263341,-97.0
2023-08-09 15:49:15.271031,-100.0
2023-08-09 15:49:15.278721,-97.0
2023-08-09 15:49:15.286412,-95.0
2023-08-09 15:49:15.294102,-76.0
2023-08-09 15:49:15.301792,-50.0
2023-08-09 15:49:15.309483,-47.0
2023-08-09 15:49:15.317173,-57.0
2023-08-09 15:49:15.324863,-74.0
2023-08-09 15:49:15.332553,-83.0
2023-08-09 15:49:15.340244,-83.0
2023-08-09 15:49:15.347934,-97.0
2023-08-09 15:49:15.355624,-117.0
2023-08-09 15:49:15.363315,-114.0
2023-08-09 15:49:15.371005,-105.0
2023-08-09 15:49:15.378695,-109.0
2023-08-09 15:49:15.386386,-112.0
2023-08-09 15:49:15.394076,-112.0
2023-08-09 15:49:15.401766,-112.0
2023-08-09 15:49:15.409457,-109.0
2023-08-09 15:49:15.417147,-107.0
2023-08-09 15:49:15.424837,-109.0
2023-08-09 15:49:15.432528,-114.0
2023-08-09 15:49:15.440218,-128.0
2023-08-09 15:49:15.447908,-112.0
2023-08-09 15:49:15.455599,26.0
2023-08-09 15:49:15.463289,293.0
2023-08-09 15:49:15.470979,530.0
2023-08-09 15:49:15.478670,458.0
2023-08-09 15:49:15.486360,57.0
2023-08-09 15:49:15.494050,-231.0
2023-08-09 15:49:15.501741,-260.0
2023-08-09 15:49:15.509431,-272.0
2023-08-09 15:49:15.517121,-243.0
2023-08-09 15:49:15.524812,-124.0
2023-08-09 15:49:15.532502,-76.0
2023-08-09 15:49:15.540192,-107.0
2023-08-09 15:49:15.547883,-97.0
2023-08-09 15:49:15.555573,-74.0
2023-08-09 15:49:15.563263,-71.0
2023-08-09 15:49:15.570954,-71.0
2023-08-09 15:49:15.578644,-59.0
2023-08-09 15:49:15.586334,-47.0
2023-08-09 15:49:15.594025,-40.0
2023-08-09 15:49:15.601715,-28.0
2023-08-09 15:49:15.609405,-9.0
2023-08-09 15:49:15.617096,4.0
2023-08-09 15:49:15.624786,19.0
2023-08-09 15:49:15.632476,42.0
2023-08-09 15:49:15.640167,69.0
2023-08-09 15:49:15.647857,85.0
2023-08-09 15:49:15.655547,95.0
2023-08-09 15:49:15.663238,95.0
2023-08-09 15:49:15.670928,95.0
2023-08-09 15:49:15.678618,88.0
2023-08-09 15:49:15.686309,59.0
2023-08-09 15:49:15.693999,23.0
2023-08-09 15:49:15.701689,-11.0
2023-08-09 15:49:15.709380,-59.0
2023-08-09 15:49:15.717070,-97.0
2023-08-09 15:49:15.724760,-119.0
2023-08-09 15:49:15.732451,-140.0
2023-08-09 15:49:15.740141,-157.0
2023-08-09 15:49:15.747831,-162.0
2023-08-09 15:49:15.755522,-167.0
2023-08-09 15:49:15.763212,-167.0
2023-08-09 15:49:15.770902,-160.0
2023-08-09 15:49:15.778593,-150.0
2023-08-09 15:49:15.786283,-148.0
2023-08-09 15:49:15.793973,-148.0
2023-08-09 15:49:15.801664,-145.0
2023-08-09 15:49:15.809354,-136.0
2023-08-09 15:49:15.817044,-126.0
2023-08-09 15:49:15.824735,-121.0
2023-08-09 15:49:15.832425,-121.0
2023-08-09 15:49:15.840115,-117.0
2023-08-09 15:49:15.847806,-114.0
2023-08-09 15:49:15.855496,-114.0
2023-08-09 15:49:15.863186,-112.0
2023-08-09 15:49:15.870877,-109.0
2023-08-09 15:49:15.878567,-107.0
2023-08-09 15:49:15.886257,-105.0
2023-08-09 15:49:15.893948,-102.0
2023-08-09 15:49:15.901638,-107.0
2023-08-09 15:49:15.909328,-109.0
2023-08-09 15:49:15.917019,-109.0
2023-08-09 15:49:15.924709,-109.0
2023-08-09 15:49:15.932399,-109.0
2023-08-09 15:49:15.940090,-107.0
2023-08-09 15:49:15.947780,-107.0
2023-08-09 15:49:15.955470,-109.0
2023-08-09 15:49:15.963161,-107.0
2023-08-09 15:49:15.970851,-102.0
2023-08-09 15:49:15.978541,-97.0
2023-08-09 15:49:15.986232,-88.0
2023-08-09 15:49:15.993922,-69.0
2023-08-09 15:49:16.001612,-54.0
2023-08-09 15:49:16.009302,-54.0
2023-08-09 15:49:16.016993,-64.0
2023-08-09 15:49:16.024683,-71.0
2023-08-09 15:49:16.032373,-74.0
2023-08-09 15:49:16.040064,-81.0
2023-08-09 15:49:16.047754,-97.0
2023-08-09 15:49:16.055444,-109.0
2023-08-09 15:49:16.063135,-114.0
2023-08-09 15:49:16.070825,-112.0
2023-08-09 15:49:16.078515,-119.0
2023-08-09 15:49:16.086206,-128.0
2023-08-09 15:49:16.093896,-124.0
2023-08-09 15:49:16.101586,-119.0
2023-08-09 15:49:16.109277,-119.0
2023-08-09 15:49:16.116967,-119.0
2023-08-09 15:49:16.124657,-112.0
2023-08-09 15:49:16.132348,-114.0
2023-08-09 15:49:16.140038,-140.0
2023-08-09 15:49:16.147728,-128.0
2023-08-09 15:49:16.155419,26.0
2023-08-09 15:49:16.163109,317.0
2023-08-09 15:49:16.170799,561.0
2023-08-09 15:49:16.178490,470.0
2023-08-09 15:49:16.186180,33.0
2023-08-09 15:49:16.193870,-265.0
2023-08-09 15:49:16.201561,-272.0
2023-08-09 15:49:16.209251,-269.0
2023-08-09 15:49:16.216941,-231.0
2023-08-09 15:49:16.224632,-119.0
2023-08-09 15:49:16.232322,-93.0
2023-08-09 15:49:16.240012,-117.0
2023-08-09 15:49:16.247703,-93.0
2023-08-09 15:49:16.255393,-71.0
2023-08-09 15:49:16.263083,-74.0
2023-08-09 15:49:16.270774,-66.0
2023-08-09 15:49:16.278464,-52.0
2023-08-09 15:49:16.286154,-40.0
2023-08-09 15:49:16.293845,-26.0
2023-08-09 15:49:16.301535,-11.0
2023-08-09 15:49:16.309225,2.0
2023-08-09 15:49:16.316916,21.0
2023-08-09 15:49:16.324606,38.0
2023-08-09 15:49:16.332296,57.0
2023-08-09 15:49:16.339987,81.0
2023-08-09 15:49:16.347677,105.0
2023-08-09 15:49:16.355367,114.0
2023-08-09 15:49:16.363058,117.0
2023-08-09 15:49:16.370748,119.0
2023-08-09 15:49:16.378438,109.0
2023-08-09 15:49:16.386129,83.0
2023-08-09 15:49:16.393819,40.0
2023-08-09 15:49:16.401509,-4.0
2023-08-09 15:49:16.409200,-42.0
2023-08-09 15:49:16.416890,-76.0
2023-08-09 15:49:16.424580,-107.0
2023-08-09 15:49:16.432271,-126.0
2023-08-09 15:49:16.439961,-136.0
2023-08-09 15:49:16.447651,-145.0
2023-08-09 15:49:16.455342,-145.0
2023-08-09 15:49:16.463032,-138.0
2023-08-09 15:49:16.470722,-133.0
2023-08-09 15:49:16.478413,-133.0
2023-08-09 15:49:16.486103,-131.0
2023-08-09 15:49:16.493793,-121.0
2023-08-09 15:49:16.501484,-114.0
2023-08-09 15:49:16.509174,-114.0
2023-08-09 15:49:16.516864,-109.0
2023-08-09 15:49:16.524555,-102.0
2023-08-09 15:49:16.532245,-95.0
2023-08-09 15:49:16.539935,-97.0
2023-08-09 15:49:16.547626,-97.0
2023-08-09 15:49:16.555316,-90.0
2023-08-09 15:49:16.563006,-88.0
2023-08-09 15:49:16.570697,-90.0
2023-08-09 15:49:16.578387,-95.0
2023-08-09 15:49:16.586077,-100.0
2023-08-09 15:49:16.593768,-97.0
2023-08-09 15:49:16.601458,-95.0
2023-08-09 15:49:16.609148,-95.0
2023-08-09 15:49:16.616839,-90.0
2023-08-09 15:49:16.624529,-90.0
2023-08-09 15:49:16.632219,-95.0
2023-08-09 15:49:16.639910,-97.0
2023-08-09 15:49:16.647600,-100.0
2023-08-09 15:49:16.655290,-97.0
2023-08-09 15:49:16.662981,-97.0
2023-08-09 15:49:16.670671,-100.0
2023-08-09 15:49:16.678361,-100.0
2023-08-09 15:49:16.686052,-97.0
2023-08-09 15:49:16.693742,-88.0
2023-08-09 15:49:16.701432,-71.0
2023-08-09 15:49:16.709122,-45.0
2023-08-09 15:49:16.716813,-31.0
2023-08-09 15:49:16.724503,-47.0
2023-08-09 15:49:16.732193,-69.0
2023-08-09 15:49:16.739884,-69.0
2023-08-09 15:49:16.747574,-64.0
2023-08-09 15:49:16.755264,-81.0
2023-08-09 15:49:16.762955,-105.0
2023-08-09 15:49:16.770645,-112.0
2023-08-09 15:49:16.778335,-105.0
2023-08-09 15:49:16.786026,-102.0
2023-08-09 15:49:16.793716,-105.0
2023-08-09 15:49:16.801406,-109.0
2023-08-09 15:49:16.809097,-114.0
2023-08-09 15:49:16.816787,-119.0
2023-08-09 15:49:16.824477,-112.0
2023-08-09 15:49:16.832168,-105.0
2023-08-09 15:49:16.839858,-105.0
2023-08-09 15:49:16.847548,-121.0
2023-08-09 15:49:16.855239,-140.0
2023-08-09 15:49:16.862929,-66.0
2023-08-09 15:49:16.870619,167.0
2023-08-09 15:49:16.878310,470.0
2023-08-09 15:49:16.886000,580.0
2023-08-09 15:49:16.893690,277.0
2023-08-09 15:49:16.901381,-150.0
2023-08-09 15:49:16.909071,-274.0
2023-08-09 15:49:16.916761,-241.0
2023-08-09 15:49:16.924452,-229.0
2023-08-09 15:49:16.932142,-150.0
2023-08-09 15:49:16.939832,-83.0
2023-08-09 15:49:16.947523,-97.0
2023-08-09 15:49:16.955213,-95.0
2023-08-09 15:49:16.962903,-62.0
2023-08-09 15:49:16.970594,-57.0
2023-08-09 15:49:16.978284,-59.0
2023-08-09 15:49:16.985974,-47.0
2023-08-09 15:49:16.993665,-38.0
2023-08-09 15:49:17.001355,-26.0
2023-08-09 15:49:17.009045,-9.0
2023-08-09 15:49:17.016736,2.0
2023-08-09 15:49:17.024426,19.0
2023-08-09 15:49:17.032116,38.0
2023-08-09 15:49:17.039807,54.0
2023-08-09 15:49:17.047497,71.0
2023-08-09 15:49:17.055187,93.0
2023-08-09 15:49:17.062878,109.0
2023-08-09 15:49:17.070568,117.0
2023-08-09 15:49:17.078258,119.0
2023-08-09 15:49:17.085949,112.0
2023-08-09 15:49:17.093639,93.0
2023-08-09 15:49:17.101329,66.0
2023-08-09 15:49:17.109020,31.0
2023-08-09 15:49:17.116710,-9.0
2023-08-09 15:49:17.124400,-52.0
2023-08-09 15:49:17.132091,-88.0
2023-08-09 15:49:17.139781,-114.0
2023-08-09 15:49:17.147471,-131.0
2023-08-09 15:49:17.155162,-136.0
2023-08-09 15:49:17.162852,-140.0
2023-08-09 15:49:17.170542,-143.0
2023-08-09 15:49:17.178233,-138.0
2023-08-09 15:49:17.185923,-133.0
2023-08-09 15:49:17.193613,-128.0
2023-08-09 15:49:17.201304,-119.0
2023-08-09 15:49:17.208994,-114.0
2023-08-09 15:49:17.216684,-112.0
2023-08-09 15:49:17.224375,-107.0
2023-08-09 15:49:17.232065,-102.0
2023-08-09 15:49:17.239755,-100.0
2023-08-09 15:49:17.247446,-95.0
2023-08-09 15:49:17.255136,-90.0
2023-08-09 15:49:17.262826,-90.0
2023-08-09 15:49:17.270517,-90.0
2023-08-09 15:49:17.278207,-85.0
2023-08-09 15:49:17.285897,-78.0
2023-08-09 15:49:17.293588,-81.0
2023-08-09 15:49:17.301278,-88.0
2023-08-09 15:49:17.308968,-85.0
2023-08-09 15:49:17.316659,-81.0
2023-08-09 15:49:17.324349,-83.0
2023-08-09 15:49:17.332039,-83.0
2023-08-09 15:49:17.339730,-81.0
2023-08-09 15:49:17.347420,-83.0
2023-08-09 15:49:17.355110,-83.0
2023-08-09 15:49:17.362801,-81.0
2023-08-09 15:49:17.370491,-81.0
2023-08-09 15:49:17.378181,-85.0
2023-08-09 15:49:17.385871,-93.0
2023-08-09 15:49:17.393562,-97.0
2023-08-09 15:49:17.401252,-97.0
2023-08-09 15:49:17.408942,-90.0
2023-08-09 15:49:17.416633,-69.0
2023-08-09 15:49:17.424323,-45.0
2023-08-09 15:49:17.432013,-33.0
2023-08-09 15:49:17.439704,-52.0
2023-08-09 15:49:17.447394,-74.0
2023-08-09 15:49:17.455084,-74.0
2023-08-09 15:49:17.462775,-76.0
2023-08-09 15:49:17.470465,-93.0
2023-08-09 15:49:17.478155,-107.0
2023-08-09 15:49:17.485846,-112.0
2023-08-09 15:49:17.493536,-114.0
2023-08-09 15:49:17.501226,-114.0
2023-08-09 15:49:17.508917,-112.0
2023-08-09 15:49:17.516607,-112.0
2023-08-09 15:49:17.524297,-112.0
2023-08-09 15:49:17.531988,-109.0
2023-08-09 15:49:17.539678,-105.0
2023-08-09 15:49:17.547368,-107.0
2023-08-09 15:49:17.555059,-112.0
2023-08-09 15:49:17.562749,-126.0
2023-08-09 15:49:17.570439,-124.0
2023-08-09 15:49:17.578130,-4.0
2023-08-09 15:49:17.585820,255.0
2023-08-09 15:49:17.593510,515.0
2023-08-09 15:49:17.601201,492.0
2023-08-09 15:49:17.608891,107.0
2023-08-09 15:49:17.616581,-219.0
2023-08-09 15:49:17.624272,-265.0
2023-08-09 15:49:17.631962,-265.0
2023-08-09 15:49:17.639652,-234.0
2023-08-09 15:49:17.647343,-121.0
2023-08-09 15:49:17.655033,-85.0
2023-08-09 15:49:17.662723,-117.0
2023-08-09 15:49:17.670414,-97.0
2023-08-09 15:49:17.678104,-64.0
2023-08-09 15:49:17.685794,-66.0
2023-08-09 15:49:17.693485,-66.0
2023-08-09 15:49:17.701175,-50.0
2023-08-09 15:49:17.708865,-35.0
2023-08-09 15:49:17.716556,-26.0
2023-08-09 15:49:17.724246,-16.0
2023-08-09 15:49:17.731936,4.0
2023-08-09 15:49:17.739627,23.0
2023-08-09 15:49:17.747317,38.0
2023-08-09 15:49:17.755007,57.0
2023-08-09 15:49:17.762698,76.0
2023-08-09 15:49:17.770388,88.0
2023-08-09 15:49:17.778078,93.0
2023-08-09 15:49:17.785769,102.0
2023-08-09 15:49:17.793459,112.0
2023-08-09 15:49:17.801149,105.0
2023-08-09 15:49:17.808840,76.0
2023-08-09 15:49:17.816530,47.0
2023-08-09 15:49:17.824220,7.0
2023-08-09 15:49:17.831911,-47.0
2023-08-09 15:49:17.839601,-76.0
2023-08-09 15:49:17.847291,-83.0
2023-08-09 15:49:17.854982,-117.0
2023-08-09 15:49:17.862672,-155.0
2023-08-09 15:49:17.870362,-148.0
2023-08-09 15:49:17.878053,-131.0
2023-08-09 15:49:17.885743,-143.0
2023-08-09 15:49:17.893433,-148.0
2023-08-09 15:49:17.901124,-143.0
2023-08-09 15:49:17.908814,-148.0
2023-08-09 15:49:17.916504,-150.0
2023-08-09 15:49:17.924195,-138.0
2023-08-09 15:49:17.931885,-136.0
2023-08-09 15:49:17.939575,-138.0
2023-08-09 15:49:17.947266,-131.0
2023-08-09 15:49:17.954956,-128.0
2023-08-09 15:49:17.962646,-131.0
2023-08-09 15:49:17.970337,-124.0
2023-08-09 15:49:17.978027,-114.0
2023-08-09 15:49:17.985717,-107.0
2023-08-09 15:49:17.993408,-107.0
2023-08-09 15:49:18.001098,-107.0
2023-08-09 15:49:18.008788,-100.0
2023-08-09 15:49:18.016479,-107.0
2023-08-09 15:49:18.024169,-112.0
2023-08-09 15:49:18.031859,-109.0
2023-08-09 15:49:18.039550,-117.0
2023-08-09 15:49:18.047240,-117.0
2023-08-09 15:49:18.054930,-102.0
2023-08-09 15:49:18.062621,-95.0
2023-08-09 15:49:18.070311,-97.0
2023-08-09 15:49:18.078001,-100.0
2023-08-09 15:49:18.085691,-109.0
2023-08-09 15:49:18.093382,-121.0
2023-08-09 15:49:18.101072,-124.0
2023-08-09 15:49:18.108762,-102.0
2023-08-09 15:49:18.116453,-69.0
2023-08-09 15:49:18.124143,-54.0
2023-08-09 15:49:18.131833,-62.0
2023-08-09 15:49:18.139524,-78.0
2023-08-09 15:49:18.147214,-83.0
2023-08-09 15:49:18.154904,-95.0
2023-08-09 15:49:18.162595,-114.0
2023-08-09 15:49:18.170285,-128.0
2023-08-09 15:49:18.177975,-138.0
2023-08-09 15:49:18.185666,-138.0
2023-08-09 15:49:18.193356,-133.0
2023-08-09 15:49:18.201046,-138.0
2023-08-09 15:49:18.208737,-150.0
2023-08-09 15:49:18.216427,-145.0
2023-08-09 15:49:18.224117,-128.0
2023-08-09 15:49:18.231808,-126.0
2023-08-09 15:49:18.239498,-131.0
2023-08-09 15:49:18.247188,-126.0
2023-08-09 15:49:18.254879,-140.0
2023-08-09 15:49:18.262569,-167.0
2023-08-09 15:49:18.270259,-85.0
2023-08-09 15:49:18.277950,160.0
2023-08-09 15:49:18.285640,449.0
2023-08-09 15:49:18.293330,523.0
2023-08-09 15:49:18.301021,210.0
2023-08-09 15:49:18.308711,-176.0
2023-08-09 15:49:18.316401,-286.0
2023-08-09 15:49:18.324092,-289.0
2023-08-09 15:49:18.331782,-281.0
2023-08-09 15:49:18.339472,-162.0
2023-08-09 15:49:18.347163,-83.0
2023-08-09 15:49:18.354853,-109.0
2023-08-09 15:49:18.362543,-97.0
2023-08-09 15:49:18.370234,-54.0
2023-08-09 15:49:18.377924,-59.0
2023-08-09 15:49:18.385614,-64.0
2023-08-09 15:49:18.393305,-42.0
2023-08-09 15:49:18.400995,-33.0
2023-08-09 15:49:18.408685,-26.0
2023-08-09 15:49:18.416376,-9.0
2023-08-09 15:49:18.424066,7.0
2023-08-09 15:49:18.431756,21.0
2023-08-09 15:49:18.439447,38.0
2023-08-09 15:49:18.447137,62.0
2023-08-09 15:49:18.454827,90.0
2023-08-09 15:49:18.462518,109.0
2023-08-09 15:49:18.470208,121.0
2023-08-09 15:49:18.477898,128.0
2023-08-09 15:49:18.485589,131.0
2023-08-09 15:49:18.493279,124.0
2023-08-09 15:49:18.500969,100.0
2023-08-09 15:49:18.508660,62.0
2023-08-09 15:49:18.516350,11.0
2023-08-09 15:49:18.524040,-40.0
2023-08-09 15:49:18.531731,-76.0
2023-08-09 15:49:18.539421,-95.0
2023-08-09 15:49:18.547111,-114.0
2023-08-09 15:49:18.554802,-131.0
2023-08-09 15:49:18.562492,-138.0
2023-08-09 15:49:18.570182,-145.0
2023-08-09 15:49:18.577873,-148.0
2023-08-09 15:49:18.585563,-140.0
2023-08-09 15:49:18.593253,-143.0
2023-08-09 15:49:18.600944,-150.0
2023-08-09 15:49:18.608634,-143.0
2023-08-09 15:49:18.616324,-128.0
2023-08-09 15:49:18.624015,-124.0
2023-08-09 15:49:18.631705,-124.0
2023-08-09 15:49:18.639395,-117.0
2023-08-09 15:49:18.647086,-107.0
2023-08-09 15:49:18.654776,-100.0
2023-08-09 15:49:18.662466,-90.0
2023-08-09 15:49:18.670157,-85.0
2023-08-09 15:49:18.677847,-81.0
2023-08-09 15:49:18.685537,-76.0
2023-08-09 15:49:18.693228,-78.0
2023-08-09 15:49:18.700918,-93.0
2023-08-09 15:49:18.708608,-93.0
2023-08-09 15:49:18.716299,-81.0
2023-08-09 15:49:18.723989,-83.0
2023-08-09 15:49:18.731679,-83.0
2023-08-09 15:49:18.739370,-78.0
2023-08-09 15:49:18.747060,-85.0
2023-08-09 15:49:18.754750,-88.0
2023-08-09 15:49:18.762440,-88.0
2023-08-09 15:49:18.770131,-93.0
2023-08-09 15:49:18.777821,-78.0
2023-08-09 15:49:18.785511,-64.0
2023-08-09 15:49:18.793202,-62.0
2023-08-09 15:49:18.800892,-47.0
2023-08-09 15:49:18.808582,-23.0
2023-08-09 15:49:18.816273,-16.0
2023-08-09 15:49:18.823963,-33.0
2023-08-09 15:49:18.831653,-57.0
2023-08-09 15:49:18.839344,-62.0
2023-08-09 15:49:18.847034,-59.0
2023-08-09 15:49:18.854724,-78.0
2023-08-09 15:49:18.862415,-102.0
2023-08-09 15:49:18.870105,-105.0
2023-08-09 15:49:18.877795,-90.0
2023-08-09 15:49:18.885486,-88.0
2023-08-09 15:49:18.893176,-100.0
2023-08-09 15:49:18.900866,-105.0
2023-08-09 15:49:18.908557,-102.0
2023-08-09 15:49:18.916247,-107.0
2023-08-09 15:49:18.923937,-102.0
2023-08-09 15:49:18.931628,-95.0
2023-08-09 15:49:18.939318,-100.0
2023-08-09 15:49:18.947008,-128.0
2023-08-09 15:49:18.954699,-121.0
2023-08-09 15:49:18.962389,21.0
2023-08-09 15:49:18.970079,296.0
2023-08-09 15:49:18.977770,537.0
2023-08-09 15:49:18.985460,475.0
2023-08-09 15:49:18.993150,88.0
2023-08-09 15:49:19.000841,-195.0
2023-08-09 15:49:19.008531,-229.0
2023-08-09 15:49:19.016221,-231.0
2023-08-09 15:49:19.023912,-183.0
2023-08-09 15:49:19.031602,-81.0
2023-08-09 15:49:19.039292,-64.0
2023-08-09 15:49:19.046983,-95.0
2023-08-09 15:49:19.054673,-81.0
2023-08-09 15:49:19.062363,-62.0
2023-08-09 15:49:19.070054,-57.0
2023-08-09 15:49:19.077744,-47.0
2023-08-09 15:49:19.085434,-33.0
2023-08-09 15:49:19.093125,-28.0
2023-08-09 15:49:19.100815,-23.0
2023-08-09 15:49:19.108505,-9.0
2023-08-09 15:49:19.116196,0.0
2023-08-09 15:49:19.123886,11.0
2023-08-09 15:49:19.131576,31.0
2023-08-09 15:49:19.139267,54.0
2023-08-09 15:49:19.146957,76.0
2023-08-09 15:49:19.154647,93.0
2023-08-09 15:49:19.162338,102.0
2023-08-09 15:49:19.170028,114.0
2023-08-09 15:49:19.177718,124.0
2023-08-09 15:49:19.185409,117.0
2023-08-09 15:49:19.193099,78.0
2023-08-09 15:49:19.200789,38.0
2023-08-09 15:49:19.208480,-7.0
2023-08-09 15:49:19.216170,-52.0
2023-08-09 15:49:19.223860,-74.0
2023-08-09 15:49:19.231551,-93.0
2023-08-09 15:49:19.239241,-124.0
2023-08-09 15:49:19.246931,-133.0
2023-08-09 15:49:19.254622,-131.0
2023-08-09 15:49:19.262312,-138.0
2023-08-09 15:49:19.270002,-136.0
2023-08-09 15:49:19.277693,-117.0
2023-08-09 15:49:19.285383,-114.0
2023-08-09 15:49:19.293073,-121.0
2023-08-09 15:49:19.300764,-109.0
2023-08-09 15:49:19.308454,-100.0
2023-08-09 15:49:19.316144,-102.0
2023-08-09 15:49:19.323835,-107.0
2023-08-09 15:49:19.331525,-105.0
2023-08-09 15:49:19.339215,-97.0
2023-08-09 15:49:19.346906,-93.0
2023-08-09 15:49:19.354596,-81.0
2023-08-09 15:49:19.362286,-78.0
2023-08-09 15:49:19.369977,-85.0
2023-08-09 15:49:19.377667,-88.0
2023-08-09 15:49:19.385357,-81.0
2023-08-09 15:49:19.393048,-74.0
2023-08-09 15:49:19.400738,-71.0
2023-08-09 15:49:19.408428,-71.0
2023-08-09 15:49:19.416119,-74.0
2023-08-09 15:49:19.423809,-78.0
2023-08-09 15:49:19.431499,-85.0
2023-08-09 15:49:19.439190,-78.0
2023-08-09 15:49:19.446880,-62.0
2023-08-09 15:49:19.454570,-62.0
2023-08-09 15:49:19.462260,-69.0
2023-08-09 15:49:19.469951,-64.0
2023-08-09 15:49:19.477641,-54.0
2023-08-09 15:49:19.485331,-40.0
2023-08-09 15:49:19.493022,-19.0
2023-08-09 15:49:19.500712,-9.0
2023-08-09 15:49:19.508402,-19.0
2023-08-09 15:49:19.516093,-31.0
2023-08-09 15:49:19.523783,-35.0
2023-08-09 15:49:19.531473,-35.0
2023-08-09 15:49:19.539164,-59.0
2023-08-09 15:49:19.546854,-85.0
2023-08-09 15:49:19.554544,-81.0
2023-08-09 15:49:19.562235,-71.0
2023-08-09 15:49:19.569925,-74.0
2023-08-09 15:49:19.577615,-76.0
2023-08-09 15:49:19.585306,-74.0
2023-08-09 15:49:19.592996,-78.0
2023-08-09 15:49:19.600686,-93.0
2023-08-09 15:49:19.608377,-95.0
2023-08-09 15:49:19.616067,-85.0
2023-08-09 15:49:19.623757,-85.0
2023-08-09 15:49:19.631448,-107.0
2023-08-09 15:49:19.639138,-126.0
2023-08-09 15:49:19.646828,-71.0
2023-08-09 15:49:19.654519,131.0
2023-08-09 15:49:19.662209,417.0
2023-08-09 15:49:19.669899,542.0
2023-08-09 15:49:19.677590,281.0
2023-08-09 15:49:19.685280,-109.0
2023-08-09 15:49:19.692970,-236.0
2023-08-09 15:49:19.700661,-229.0
2023-08-09 15:49:19.708351,-238.0
2023-08-09 15:49:19.716041,-150.0
2023-08-09 15:49:19.723732,-62.0
2023-08-09 15:49:19.731422,-90.0
2023-08-09 15:49:19.739112,-107.0
2023-08-09 15:49:19.746803,-71.0
2023-08-09 15:49:19.754493,-66.0
2023-08-09 15:49:19.762183,-74.0
2023-08-09 15:49:19.769874,-57.0
2023-08-09 15:49:19.777564,-40.0
2023-08-09 15:49:19.785254,-28.0
2023-08-09 15:49:19.792945,-21.0
2023-08-09 15:49:19.800635,-11.0
2023-08-09 15:49:19.808325,7.0
2023-08-09 15:49:19.816016,26.0
2023-08-09 15:49:19.823706,45.0
2023-08-09 15:49:19.831396,69.0
2023-08-09 15:49:19.839087,95.0
2023-08-09 15:49:19.846777,102.0
2023-08-09 15:49:19.854467,102.0
2023-08-09 15:49:19.862158,109.0
2023-08-09 15:49:19.869848,107.0
2023-08-09 15:49:19.877538,85.0
2023-08-09 15:49:19.885229,52.0
2023-08-09 15:49:19.892919,11.0
2023-08-09 15:49:19.900609,-33.0
2023-08-09 15:49:19.908300,-78.0
2023-08-09 15:49:19.915990,-114.0
2023-08-09 15:49:19.923680,-133.0
2023-08-09 15:49:19.931371,-145.0
2023-08-09 15:49:19.939061,-143.0
2023-08-09 15:49:19.946751,-143.0
2023-08-09 15:49:19.954442,-145.0
2023-08-09 15:49:19.962132,-145.0
2023-08-09 15:49:19.969822,-140.0
2023-08-09 15:49:19.977513,-138.0
2023-08-09 15:49:19.985203,-138.0
2023-08-09 15:49:19.992893,-136.0
2023-08-09 15:49:20.000584,-131.0
2023-08-09 15:49:20.008274,-124.0
2023-08-09 15:49:20.015964,-117.0
2023-08-09 15:49:20.023655,-117.0
2023-08-09 15:49:20.031345,-117.0
2023-08-09 15:49:20.039035,-114.0
2023-08-09 15:49:20.046726,-109.0
2023-08-09 15:49:20.054416,-107.0
2023-08-09 15:49:20.062106,-102.0
2023-08-09 15:49:20.069797,-95.0
2023-08-09 15:49:20.077487,-93.0
2023-08-09 15:49:20.085177,-100.0
2023-08-09 15:49:20.092868,-107.0
2023-08-09 15:49:20.100558,-102.0
2023-08-09 15:49:20.108248,-105.0
2023-08-09 15:49:20.115939,-114.0
2023-08-09 15:49:20.123629,-114.0
2023-08-09 15:49:20.131319,-109.0
2023-08-09 15:49:20.139009,-109.0
2023-08-09 15:49:20.146700,-107.0
2023-08-09 15:49:20.154390,-105.0
2023-08-09 15:49:20.162080,-112.0
2023-08-09 15:49:20.169771,-112.0
2023-08-09 15:49:20.177461,-97.0
2023-08-09 15:49:20.185151,-88.0
2023-08-09 15:49:20.192842,-69.0
2023-08-09 15:49:20.200532,-45.0
2023-08-09 15:49:20.208222,-57.0
2023-08-09 15:49:20.215913,-85.0
2023-08-09 15:49:20.223603,-93.0
2023-08-09 15:49:20.231293,-90.0
2023-08-09 15:49:20.238984,-100.0
2023-08-09 15:49:20.246674,-117.0
2023-08-09 15:49:20.254364,-121.0
2023-08-09 15:49:20.262055,-119.0
2023-08-09 15:49:20.269745,-124.0
2023-08-09 15:49:20.277435,-128.0
2023-08-09 15:49:20.285126,-126.0
2023-08-09 15:49:20.292816,-117.0
2023-08-09 15:49:20.300506,-114.0
2023-08-09 15:49:20.308197,-117.0
2023-08-09 15:49:20.315887,-114.0
2023-08-09 15:49:20.323577,-119.0
2023-08-09 15:49:20.331268,-138.0
2023-08-09 15:49:20.338958,-164.0
2023-08-09 15:49:20.346648,-133.0
2023-08-09 15:49:20.354339,52.0
2023-08-09 15:49:20.362029,351.0
2023-08-09 15:49:20.369719,539.0
2023-08-09 15:49:20.377410,351.0
2023-08-09 15:49:20.385100,-81.0
2023-08-09 15:49:20.392790,-281.0
2023-08-09 15:49:20.400481,-269.0
2023-08-09 15:49:20.408171,-291.0
2023-08-09 15:49:20.415861,-234.0
2023-08-09 15:49:20.423552,-114.0
2023-08-09 15:49:20.431242,-97.0
2023-08-09 15:49:20.438932,-121.0
2023-08-09 15:49:20.446623,-93.0
2023-08-09 15:49:20.454313,-74.0
2023-08-09 15:49:20.462003,-78.0
2023-08-09 15:49:20.469694,-66.0
2023-08-09 15:49:20.477384,-52.0
2023-08-09 15:49:20.485074,-45.0
2023-08-09 15:49:20.492765,-31.0
2023-08-09 15:49:20.500455,-11.0
2023-08-09 15:49:20.508145,-2.0
2023-08-09 15:49:20.515836,9.0
2023-08-09 15:49:20.523526,35.0
2023-08-09 15:49:20.531216,64.0
2023-08-09 15:49:20.538907,81.0
2023-08-09 15:49:20.546597,95.0
2023-08-09 15:49:20.554287,112.0
2023-08-09 15:49:20.561978,119.0
2023-08-09 15:49:20.569668,109.0
2023-08-09 15:49:20.577358,100.0
2023-08-09 15:49:20.585049,71.0
2023-08-09 15:49:20.592739,19.0
2023-08-09 15:49:20.600429,-33.0
2023-08-09 15:49:20.608120,-71.0
2023-08-09 15:49:20.615810,-109.0
2023-08-09 15:49:20.623500,-140.0
2023-08-09 15:49:20.631191,-155.0
2023-08-09 15:49:20.638881,-162.0
2023-08-09 15:49:20.646571,-164.0
2023-08-09 15:49:20.654262,-164.0
2023-08-09 15:49:20.661952,-162.0
2023-08-09 15:49:20.669642,-152.0
2023-08-09 15:49:20.677333,-145.0
2023-08-09 15:49:20.685023,-145.0
2023-08-09 15:49:20.692713,-145.0
2023-08-09 15:49:20.700404,-138.0
2023-08-09 15:49:20.708094,-131.0
2023-08-09 15:49:20.715784,-128.0
2023-08-09 15:49:20.723475,-131.0
2023-08-09 15:49:20.731165,-131.0
2023-08-09 15:49:20.738855,-126.0
2023-08-09 15:49:20.746546,-124.0
2023-08-09 15:49:20.754236,-119.0
2023-08-09 15:49:20.761926,-114.0
2023-08-09 15:49:20.769617,-109.0
2023-08-09 15:49:20.777307,-109.0
2023-08-09 15:49:20.784997,-112.0
2023-08-09 15:49:20.792688,-112.0
2023-08-09 15:49:20.800378,-105.0
2023-08-09 15:49:20.808068,-100.0
2023-08-09 15:49:20.815759,-102.0
2023-08-09 15:49:20.823449,-107.0
2023-08-09 15:49:20.831139,-109.0
2023-08-09 15:49:20.838829,-112.0
2023-08-09 15:49:20.846520,-100.0
2023-08-09 15:49:20.854210,-90.0
2023-08-09 15:49:20.861900,-90.0
2023-08-09 15:49:20.869591,-95.0
2023-08-09 15:49:20.877281,-100.0
2023-08-09 15:49:20.884971,-102.0
2023-08-09 15:49:20.892662,-90.0
2023-08-09 15:49:20.900352,-62.0
2023-08-09 15:49:20.908042,-31.0
2023-08-09 15:49:20.915733,-26.0
2023-08-09 15:49:20.923423,-50.0
2023-08-09 15:49:20.931113,-64.0
2023-08-09 15:49:20.938804,-64.0
2023-08-09 15:49:20.946494,-69.0
2023-08-09 15:49:20.954184,-83.0
2023-08-09 15:49:20.961875,-100.0
2023-08-09 15:49:20.969565,-105.0
2023-08-09 15:49:20.977255,-95.0
2023-08-09 15:49:20.984946,-90.0
2023-08-09 15:49:20.992636,-100.0
2023-08-09 15:49:21.000326,-102.0
2023-08-09 15:49:21.008017,-95.0
2023-08-09 15:49:21.015707,-93.0
2023-08-09 15:49:21.023397,-93.0
2023-08-09 15:49:21.031088,-97.0
2023-08-09 15:49:21.038778,-105.0
2023-08-09 15:49:21.046468,-133.0
2023-08-09 15:49:21.054159,-138.0
2023-08-09 15:49:21.061849,-7.0
2023-08-09 15:49:21.069539,277.0
2023-08-09 15:49:21.077230,556.0
2023-08-09 15:49:21.084920,525.0
2023-08-09 15:49:21.092610,112.0
2023-08-09 15:49:21.100301,-229.0
2023-08-09 15:49:21.107991,-257.0
2023-08-09 15:49:21.115681,-250.0
2023-08-09 15:49:21.123372,-236.0
2023-08-09 15:49:21.131062,-133.0
2023-08-09 15:49:21.138752,-85.0
2023-08-09 15:49:21.146443,-117.0
2023-08-09 15:49:21.154133,-100.0
2023-08-09 15:49:21.161823,-62.0
2023-08-09 15:49:21.169514,-64.0
2023-08-09 15:49:21.177204,-69.0
2023-08-09 15:49:21.184894,-57.0
2023-08-09 15:49:21.192585,-40.0
2023-08-09 15:49:21.200275,-23.0
2023-08-09 15:49:21.207965,-16.0
2023-08-09 15:49:21.215656,-4.0
2023-08-09 15:49:21.223346,14.0
2023-08-09 15:49:21.231036,35.0
2023-08-09 15:49:21.238727,57.0
2023-08-09 15:49:21.246417,76.0
2023-08-09 15:49:21.254107,100.0
2023-08-09 15:49:21.261798,114.0
2023-08-09 15:49:21.269488,112.0
2023-08-09 15:49:21.277178,109.0
2023-08-09 15:49:21.284869,114.0
2023-08-09 15:49:21.292559,90.0
2023-08-09 15:49:21.300249,42.0
2023-08-09 15:49:21.307940,0.0
2023-08-09 15:49:21.315630,-47.0
2023-08-09 15:49:21.323320,-93.0
2023-08-09 15:49:21.331011,-124.0
2023-08-09 15:49:21.338701,-143.0
2023-08-09 15:49:21.346391,-152.0
2023-08-09 15:49:21.354082,-157.0
2023-08-09 15:49:21.361772,-164.0
2023-08-09 15:49:21.369462,-152.0
2023-08-09 15:49:21.377153,-136.0
2023-08-09 15:49:21.384843,-138.0
2023-08-09 15:49:21.392533,-140.0
2023-08-09 15:49:21.400224,-128.0
2023-08-09 15:49:21.407914,-121.0
2023-08-09 15:49:21.415604,-121.0
2023-08-09 15:49:21.423295,-114.0
2023-08-09 15:49:21.430985,-109.0
2023-08-09 15:49:21.438675,-107.0
2023-08-09 15:49:21.446366,-100.0
2023-08-09 15:49:21.454056,-97.0
2023-08-09 15:49:21.461746,-93.0
2023-08-09 15:49:21.469437,-90.0
2023-08-09 15:49:21.477127,-90.0
2023-08-09 15:49:21.484817,-90.0
2023-08-09 15:49:21.492508,-93.0
2023-08-09 15:49:21.500198,-93.0
2023-08-09 15:49:21.507888,-85.0
2023-08-09 15:49:21.515578,-85.0
2023-08-09 15:49:21.523269,-88.0
2023-08-09 15:49:21.530959,-85.0
2023-08-09 15:49:21.538649,-88.0
2023-08-09 15:49:21.546340,-85.0
2023-08-09 15:49:21.554030,-78.0
2023-08-09 15:49:21.561720,-78.0
2023-08-09 15:49:21.569411,-85.0
2023-08-09 15:49:21.577101,-85.0
2023-08-09 15:49:21.584791,-76.0
2023-08-09 15:49:21.592482,-74.0
2023-08-09 15:49:21.600172,-76.0
2023-08-09 15:49:21.607862,-74.0
2023-08-09 15:49:21.615553,-71.0
2023-08-09 15:49:21.623243,-74.0
2023-08-09 15:49:21.630933,-59.0
2023-08-09 15:49:21.638624,-31.0
2023-08-09 15:49:21.646314,-31.0
2023-08-09 15:49:21.654004,-54.0
2023-08-09 15:49:21.661695,-54.0
2023-08-09 15:49:21.669385,-42.0
2023-08-09 15:49:21.677075,-59.0
2023-08-09 15:49:21.684766,-88.0
2023-08-09 15:49:21.692456,-95.0
2023-08-09 15:49:21.700146,-95.0
2023-08-09 15:49:21.707837,-90.0
2023-08-09 15:49:21.715527,-71.0
2023-08-09 15:49:21.723217,-64.0
2023-08-09 15:49:21.730908,-78.0
2023-08-09 15:49:21.738598,-85.0
2023-08-09 15:49:21.746288,-83.0
2023-08-09 15:49:21.753979,-90.0
2023-08-09 15:49:21.761669,-95.0
2023-08-09 15:49:21.769359,-100.0
2023-08-09 15:49:21.777050,-121.0
2023-08-09 15:49:21.784740,-128.0
2023-08-09 15:49:21.792430,-14.0
2023-08-09 15:49:21.800121,246.0
2023-08-09 15:49:21.807811,515.0
2023-08-09 15:49:21.815501,515.0
2023-08-09 15:49:21.823192,150.0
2023-08-09 15:49:21.830882,-183.0
2023-08-09 15:49:21.838572,-238.0
2023-08-09 15:49:21.846263,-241.0
2023-08-09 15:49:21.853953,-238.0
2023-08-09 15:49:21.861643,-140.0
2023-08-09 15:49:21.869334,-85.0
2023-08-09 15:49:21.877024,-109.0
2023-08-09 15:49:21.884714,-100.0
2023-08-09 15:49:21.892405,-69.0
2023-08-09 15:49:21.900095,-69.0
2023-08-09 15:49:21.907785,-71.0
2023-08-09 15:49:21.915476,-57.0
2023-08-09 15:49:21.923166,-45.0
2023-08-09 15:49:21.930856,-35.0
2023-08-09 15:49:21.938547,-28.0
2023-08-09 15:49:21.946237,-11.0
2023-08-09 15:49:21.953927,9.0
2023-08-09 15:49:21.961618,28.0
2023-08-09 15:49:21.969308,54.0
2023-08-09 15:49:21.976998,78.0
2023-08-09 15:49:21.984689,83.0
2023-08-09 15:49:21.992379,88.0
2023-08-09 15:49:22.000069,112.0
2023-08-09 15:49:22.007760,117.0
2023-08-09 15:49:22.015450,100.0
2023-08-09 15:49:22.023140,85.0
2023-08-09 15:49:22.030831,57.0
2023-08-09 15:49:22.038521,4.0
2023-08-09 15:49:22.046211,-33.0
2023-08-09 15:49:22.053902,-54.0
2023-08-09 15:49:22.061592,-97.0
2023-08-09 15:49:22.069282,-148.0
2023-08-09 15:49:22.076973,-160.0
2023-08-09 15:49:22.084663,-162.0
2023-08-09 15:49:22.092353,-167.0
2023-08-09 15:49:22.100044,-162.0
2023-08-09 15:49:22.107734,-162.0
2023-08-09 15:49:22.115424,-160.0
2023-08-09 15:49:22.123115,-152.0
2023-08-09 15:49:22.130805,-150.0
2023-08-09 15:49:22.138495,-148.0
2023-08-09 15:49:22.146186,-145.0
2023-08-09 15:49:22.153876,-145.0
2023-08-09 15:49:22.161566,-145.0
2023-08-09 15:49:22.169257,-140.0
2023-08-09 15:49:22.176947,-133.0
2023-08-09 15:49:22.184637,-124.0
2023-08-09 15:49:22.192328,-124.0
2023-08-09 15:49:22.200018,-126.0
2023-08-09 15:49:22.207708,-126.0
2023-08-09 15:49:22.215398,-128.0
2023-08-09 15:49:22.223089,-128.0
2023-08-09 15:49:22.230779,-119.0
2023-08-09 15:49:22.238469,-114.0
2023-08-09 15:49:22.246160,-114.0
2023-08-09 15:49:22.253850,-119.0
2023-08-09 15:49:22.261540,-124.0
2023-08-09 15:49:22.269231,-121.0
2023-08-09 15:49:22.276921,-114.0
2023-08-09 15:49:22.284611,-112.0
2023-08-09 15:49:22.292302,-117.0
2023-08-09 15:49:22.299992,-117.0
2023-08-09 15:49:22.307682,-114.0
2023-08-09 15:49:22.315373,-112.0
2023-08-09 15:49:22.323063,-102.0
2023-08-09 15:49:22.330753,-97.0
2023-08-09 15:49:22.338444,-107.0
2023-08-09 15:49:22.346134,-117.0
2023-08-09 15:49:22.353824,-112.0
2023-08-09 15:49:22.361515,-107.0
2023-08-09 15:49:22.369205,-105.0
2023-08-09 15:49:22.376895,-83.0
2023-08-09 15:49:22.384586,-50.0
2023-08-09 15:49:22.392276,-38.0
2023-08-09 15:49:22.399966,-50.0
2023-08-09 15:49:22.407657,-71.0
2023-08-09 15:49:22.415347,-74.0
2023-08-09 15:49:22.423037,-71.0
2023-08-09 15:49:22.430728,-90.0
2023-08-09 15:49:22.438418,-119.0
2023-08-09 15:49:22.446108,-126.0
2023-08-09 15:49:22.453799,-121.0
2023-08-09 15:49:22.461489,-124.0
2023-08-09 15:49:22.469179,-128.0
2023-08-09 15:49:22.476870,-128.0
2023-08-09 15:49:22.484560,-126.0
2023-08-09 15:49:22.492250,-124.0
2023-08-09 15:49:22.499941,-121.0
2023-08-09 15:49:22.507631,-117.0
2023-08-09 15:49:22.515321,-117.0
2023-08-09 15:49:22.523012,-140.0
2023-08-09 15:49:22.530702,-162.0
2023-08-09 15:49:22.538392,-90.0
2023-08-09 15:49:22.546083,143.0
2023-08-09 15:49:22.553773,446.0
2023-08-09 15:49:22.561463,568.0
2023-08-09 15:49:22.569154,291.0
2023-08-09 15:49:22.576844,-136.0
2023-08-09 15:49:22.584534,-284.0
2023-08-09 15:49:22.592225,-274.0
2023-08-09 15:49:22.599915,-277.0
2023-08-09 15:49:22.607605,-188.0
2023-08-09 15:49:22.615296,-90.0
2023-08-09 15:49:22.622986,-100.0
2023-08-09 15:49:22.630676,-107.0
2023-08-09 15:49:22.638367,-74.0
2023-08-09 15:49:22.646057,-66.0
2023-08-09 15:49:22.653747,-74.0
2023-08-09 15:49:22.661438,-57.0
2023-08-09 15:49:22.669128,-38.0
2023-08-09 15:49:22.676818,-31.0
2023-08-09 15:49:22.684509,-19.0
2023-08-09 15:49:22.692199,-2.0
2023-08-09 15:49:22.699889,14.0
2023-08-09 15:49:22.707580,35.0
2023-08-09 15:49:22.715270,54.0
2023-08-09 15:49:22.722960,74.0
2023-08-09 15:49:22.730651,95.0
2023-08-09 15:49:22.738341,114.0
2023-08-09 15:49:22.746031,124.0
2023-08-09 15:49:22.753722,121.0
2023-08-09 15:49:22.761412,117.0
2023-08-09 15:49:22.769102,102.0
2023-08-09 15:49:22.776793,74.0
2023-08-09 15:49:22.784483,26.0
2023-08-09 15:49:22.792173,-21.0
2023-08-09 15:49:22.799864,-59.0
2023-08-09 15:49:22.807554,-90.0
2023-08-09 15:49:22.815244,-117.0
2023-08-09 15:49:22.822935,-131.0
2023-08-09 15:49:22.830625,-136.0
2023-08-09 15:49:22.838315,-140.0
2023-08-09 15:49:22.846006,-145.0
2023-08-09 15:49:22.853696,-145.0
2023-08-09 15:49:22.861386,-138.0
2023-08-09 15:49:22.869077,-128.0
2023-08-09 15:49:22.876767,-126.0
2023-08-09 15:49:22.884457,-124.0
2023-08-09 15:49:22.892147,-117.0
2023-08-09 15:49:22.899838,-109.0
2023-08-09 15:49:22.907528,-107.0
2023-08-09 15:49:22.915218,-102.0
2023-08-09 15:49:22.922909,-93.0
2023-08-09 15:49:22.930599,-85.0
2023-08-09 15:49:22.938289,-88.0
2023-08-09 15:49:22.945980,-90.0
2023-08-09 15:49:22.953670,-83.0
2023-08-09 15:49:22.961360,-81.0
2023-08-09 15:49:22.969051,-81.0
2023-08-09 15:49:22.976741,-81.0
2023-08-09 15:49:22.984431,-78.0
2023-08-09 15:49:22.992122,-78.0
2023-08-09 15:49:22.999812,-74.0
2023-08-09 15:49:23.007502,-74.0
2023-08-09 15:49:23.015193,-78.0
2023-08-09 15:49:23.022883,-93.0
2023-08-09 15:49:23.030573,-97.0
2023-08-09 15:49:23.038264,-93.0
2023-08-09 15:49:23.045954,-95.0
2023-08-09 15:49:23.053644,-102.0
2023-08-09 15:49:23.061335,-97.0
2023-08-09 15:49:23.069025,-93.0
2023-08-09 15:49:23.076715,-90.0
2023-08-09 15:49:23.084406,-88.0
2023-08-09 15:49:23.092096,-83.0
2023-08-09 15:49:23.099786,-81.0
2023-08-09 15:49:23.107477,-83.0
2023-08-09 15:49:23.115167,-90.0
2023-08-09 15:49:23.122857,-90.0
2023-08-09 15:49:23.130548,-76.0
2023-08-09 15:49:23.138238,-54.0
2023-08-09 15:49:23.145928,-35.0
2023-08-09 15:49:23.153619,-40.0
2023-08-09 15:49:23.161309,-64.0
2023-08-09 15:49:23.168999,-71.0
2023-08-09 15:49:23.176690,-62.0
2023-08-09 15:49:23.184380,-64.0
2023-08-09 15:49:23.192070,-83.0
2023-08-09 15:49:23.199761,-97.0
2023-08-09 15:49:23.207451,-100.0
2023-08-09 15:49:23.215141,-95.0
2023-08-09 15:49:23.222832,-93.0
2023-08-09 15:49:23.230522,-90.0
2023-08-09 15:49:23.238212,-90.0
2023-08-09 15:49:23.245903,-90.0
2023-08-09 15:49:23.253593,-85.0
2023-08-09 15:49:23.261283,-81.0
2023-08-09 15:49:23.268974,-78.0
2023-08-09 15:49:23.276664,-88.0
2023-08-09 15:49:23.284354,-114.0
2023-08-09 15:49:23.292045,-93.0
2023-08-09 15:49:23.299735,71.0
2023-08-09 15:49:23.307425,363.0
2023-08-09 15:49:23.315116,594.0
2023-08-09 15:49:23.322806,470.0
2023-08-09 15:49:23.330496,38.0
2023-08-09 15:49:23.338187,-226.0
2023-08-09 15:49:23.345877,-234.0
2023-08-09 15:49:23.353567,-229.0
2023-08-09 15:49:23.361258,-181.0
2023-08-09 15:49:23.368948,-83.0
2023-08-09 15:49:23.376638,-66.0
2023-08-09 15:49:23.384329,-85.0
2023-08-09 15:49:23.392019,-59.0
2023-08-09 15:49:23.399709,-40.0
2023-08-09 15:49:23.407400,-40.0
2023-08-09 15:49:23.415090,-35.0
2023-08-09 15:49:23.422780,-23.0
2023-08-09 15:49:23.430471,-14.0
2023-08-09 15:49:23.438161,0.0
2023-08-09 15:49:23.445851,14.0
2023-08-09 15:49:23.453542,26.0
2023-08-09 15:49:23.461232,40.0
2023-08-09 15:49:23.468922,59.0
2023-08-09 15:49:23.476613,76.0
2023-08-09 15:49:23.484303,95.0
2023-08-09 15:49:23.491993,119.0
2023-08-09 15:49:23.499684,133.0
2023-08-09 15:49:23.507374,131.0
2023-08-09 15:49:23.515064,121.0
2023-08-09 15:49:23.522755,107.0
2023-08-09 15:49:23.530445,81.0
2023-08-09 15:49:23.538135,40.0
2023-08-09 15:49:23.545826,-7.0
2023-08-09 15:49:23.553516,-54.0
2023-08-09 15:49:23.561206,-97.0
2023-08-09 15:49:23.568896,-124.0
2023-08-09 15:49:23.576587,-133.0
2023-08-09 15:49:23.584277,-145.0
2023-08-09 15:49:23.591967,-155.0
2023-08-09 15:49:23.599658,-155.0
2023-08-09 15:49:23.607348,-150.0
2023-08-09 15:49:23.615038,-145.0
2023-08-09 15:49:23.622729,-143.0
2023-08-09 15:49:23.630419,-133.0
2023-08-09 15:49:23.638109,-124.0
2023-08-09 15:49:23.645800,-117.0
2023-08-09 15:49:23.653490,-121.0
2023-08-09 15:49:23.661180,-121.0
2023-08-09 15:49:23.668871,-109.0
2023-08-09 15:49:23.676561,-102.0
2023-08-09 15:49:23.684251,-100.0
2023-08-09 15:49:23.691942,-97.0
2023-08-09 15:49:23.699632,-95.0
2023-08-09 15:49:23.707322,-88.0
2023-08-09 15:49:23.715013,-81.0
2023-08-09 15:49:23.722703,-83.0
2023-08-09 15:49:23.730393,-85.0
2023-08-09 15:49:23.738084,-85.0
2023-08-09 15:49:23.745774,-85.0
2023-08-09 15:49:23.753464,-83.0
2023-08-09 15:49:23.761155,-78.0
2023-08-09 15:49:23.768845,-81.0
2023-08-09 15:49:23.776535,-83.0
2023-08-09 15:49:23.784226,-88.0
2023-08-09 15:49:23.791916,-88.0
2023-08-09 15:49:23.799606,-83.0
2023-08-09 15:49:23.807297,-78.0
2023-08-09 15:49:23.814987,-81.0
2023-08-09 15:49:23.822677,-90.0
2023-08-09 15:49:23.830368,-93.0
2023-08-09 15:49:23.838058,-88.0
2023-08-09 15:49:23.845748,-93.0
2023-08-09 15:49:23.853439,-95.0
2023-08-09 15:49:23.861129,-90.0
2023-08-09 15:49:23.868819,-88.0
2023-08-09 15:49:23.876510,-88.0
2023-08-09 15:49:23.884200,-85.0
2023-08-09 15:49:23.891890,-69.0
2023-08-09 15:49:23.899581,-42.0
2023-08-09 15:49:23.907271,-23.0
2023-08-09 15:49:23.914961,-28.0
2023-08-09 15:49:23.922652,-50.0
2023-08-09 15:49:23.930342,-54.0
2023-08-09 15:49:23.938032,-45.0
2023-08-09 15:49:23.945723,-54.0
2023-08-09 15:49:23.953413,-81.0
2023-08-09 15:49:23.961103,-93.0
2023-08-09 15:49:23.968794,-90.0
2023-08-09 15:49:23.976484,-83.0
2023-08-09 15:49:23.984174,-81.0
2023-08-09 15:49:23.991865,-81.0
2023-08-09 15:49:23.999555,-81.0
2023-08-09 15:49:24.007245,-81.0
2023-08-09 15:49:24.014936,-83.0
2023-08-09 15:49:24.022626,-78.0
2023-08-09 15:49:24.030316,-76.0
2023-08-09 15:49:24.038007,-93.0
2023-08-09 15:49:24.045697,-119.0
2023-08-09 15:49:24.053387,-64.0
2023-08-09 15:49:24.061078,140.0
2023-08-09 15:49:24.068768,432.0
2023-08-09 15:49:24.076458,578.0
2023-08-09 15:49:24.084149,339.0
2023-08-09 15:49:24.091839,-74.0
2023-08-09 15:49:24.099529,-241.0
2023-08-09 15:49:24.107220,-231.0
2023-08-09 15:49:24.114910,-222.0
2023-08-09 15:49:24.122600,-148.0
2023-08-09 15:49:24.130291,-71.0
2023-08-09 15:49:24.137981,-81.0
2023-08-09 15:49:24.145671,-90.0
2023-08-09 15:49:24.153362,-64.0
2023-08-09 15:49:24.161052,-52.0
2023-08-09 15:49:24.168742,-52.0
2023-08-09 15:49:24.176433,-38.0
2023-08-09 15:49:24.184123,-26.0
2023-08-09 15:49:24.191813,-19.0
2023-08-09 15:49:24.199504,-7.0
2023-08-09 15:49:24.207194,7.0
2023-08-09 15:49:24.214884,19.0
2023-08-09 15:49:24.222575,38.0
2023-08-09 15:49:24.230265,57.0
2023-08-09 15:49:24.237955,74.0
2023-08-09 15:49:24.245646,88.0
2023-08-09 15:49:24.253336,107.0
2023-08-09 15:49:24.261026,124.0
2023-08-09 15:49:24.268716,131.0
2023-08-09 15:49:24.276407,128.0
2023-08-09 15:49:24.284097,112.0
2023-08-09 15:49:24.291787,81.0
2023-08-09 15:49:24.299478,45.0
2023-08-09 15:49:24.307168,4.0
2023-08-09 15:49:24.314858,-38.0
2023-08-09 15:49:24.322549,-76.0
2023-08-09 15:49:24.330239,-102.0
2023-08-09 15:49:24.337929,-117.0
2023-08-09 15:49:24.345620,-131.0
2023-08-09 15:49:24.353310,-138.0
2023-08-09 15:49:24.361000,-136.0
2023-08-09 15:49:24.368691,-133.0
2023-08-09 15:49:24.376381,-133.0
2023-08-09 15:49:24.384071,-131.0
2023-08-09 15:49:24.391762,-126.0
2023-08-09 15:49:24.399452,-117.0
2023-08-09 15:49:24.407142,-112.0
2023-08-09 15:49:24.414833,-109.0
2023-08-09 15:49:24.422523,-109.0
2023-08-09 15:49:24.430213,-107.0
2023-08-09 15:49:24.437904,-105.0
2023-08-09 15:49:24.445594,-100.0
2023-08-09 15:49:24.453284,-97.0
2023-08-09 15:49:24.460975,-95.0
2023-08-09 15:49:24.468665,-97.0
2023-08-09 15:49:24.476355,-102.0
2023-08-09 15:49:24.484046,-97.0
2023-08-09 15:49:24.491736,-97.0
2023-08-09 15:49:24.499426,-100.0
2023-08-09 15:49:24.507117,-100.0
2023-08-09 15:49:24.514807,-100.0
2023-08-09 15:49:24.522497,-107.0
2023-08-09 15:49:24.530188,-109.0
2023-08-09 15:49:24.537878,-105.0
2023-08-09 15:49:24.545568,-105.0
2023-08-09 15:49:24.553259,-107.0
2023-08-09 15:49:24.560949,-105.0
2023-08-09 15:49:24.568639,-105.0
2023-08-09 15:49:24.576330,-105.0
2023-08-09 15:49:24.584020,-102.0
2023-08-09 15:49:24.591710,-100.0
2023-08-09 15:49:24.599401,-97.0
2023-08-09 15:49:24.607091,-97.0
2023-08-09 15:49:24.614781,-97.0
2023-08-09 15:49:24.622472,-95.0
2023-08-09 15:49:24.630162,-93.0
2023-08-09 15:49:24.637852,-90.0
2023-08-09 15:49:24.645543,-74.0
2023-08-09 15:49:24.653233,-45.0
2023-08-09 15:49:24.660923,-28.0
2023-08-09 15:49:24.668614,-38.0
2023-08-09 15:49:24.676304,-57.0
2023-08-09 15:49:24.683994,-66.0
2023-08-09 15:49:24.691685,-71.0
2023-08-09 15:49:24.699375,-83.0
2023-08-09 15:49:24.707065,-100.0
2023-08-09 15:49:24.714756,-109.0
2023-08-09 15:49:24.722446,-105.0
2023-08-09 15:49:24.730136,-105.0
2023-08-09 15:49:24.737827,-107.0
2023-08-09 15:49:24.745517,-102.0
2023-08-09 15:49:24.753207,-95.0
2023-08-09 15:49:24.760898,-95.0
2023-08-09 15:49:24.768588,-105.0
2023-08-09 15:49:24.776278,-107.0
2023-08-09 15:49:24.783969,-105.0
2023-08-09 15:49:24.791659,-119.0
2023-08-09 15:49:24.799349,-138.0
2023-08-09 15:49:24.807040,-50.0
2023-08-09 15:49:24.814730,198.0
2023-08-09 15:49:24.822420,484.0
2023-08-09 15:49:24.830111,542.0
2023-08-09 15:49:24.837801,217.0
2023-08-09 15:49:24.845491,-160.0
2023-08-09 15:49:24.853182,-253.0
2023-08-09 15:49:24.860872,-255.0
2023-08-09 15:49:24.868562,-255.0
2023-08-09 15:49:24.876253,-152.0
2023-08-09 15:49:24.883943,-71.0
2023-08-09 15:49:24.891633,-90.0
2023-08-09 15:49:24.899324,-95.0
2023-08-09 15:49:24.907014,-64.0
2023-08-09 15:49:24.914704,-52.0
2023-08-09 15:49:24.922395,-50.0
2023-08-09 15:49:24.930085,-35.0
2023-08-09 15:49:24.937775,-21.0
2023-08-09 15:49:24.945465,-16.0
2023-08-09 15:49:24.953156,-4.0
2023-08-09 15:49:24.960846,11.0
2023-08-09 15:49:24.968536,28.0
2023-08-09 15:49:24.976227,47.0
2023-08-09 15:49:24.983917,64.0
2023-08-09 15:49:24.991607,81.0
2023-08-09 15:49:24.999298,102.0
2023-08-09 15:49:25.006988,119.0
2023-08-09 15:49:25.014678,124.0
2023-08-09 15:49:25.022369,121.0
2023-08-09 15:49:25.030059,119.0
2023-08-09 15:49:25.037749,105.0
2023-08-09 15:49:25.045440,69.0
2023-08-09 15:49:25.053130,26.0
2023-08-09 15:49:25.060820,-14.0
2023-08-09 15:49:25.068511,-54.0
2023-08-09 15:49:25.076201,-90.0
2023-08-09 15:49:25.083891,-114.0
2023-08-09 15:49:25.091582,-126.0
2023-08-09 15:49:25.099272,-138.0
2023-08-09 15:49:25.106962,-140.0
2023-08-09 15:49:25.114653,-138.0
2023-08-09 15:49:25.122343,-138.0
2023-08-09 15:49:25.130033,-140.0
2023-08-09 15:49:25.137724,-138.0
2023-08-09 15:49:25.145414,-133.0
2023-08-09 15:49:25.153104,-128.0
2023-08-09 15:49:25.160795,-124.0
2023-08-09 15:49:25.168485,-121.0
2023-08-09 15:49:25.176175,-114.0
2023-08-09 15:49:25.183866,-112.0
2023-08-09 15:49:25.191556,-109.0
2023-08-09 15:49:25.199246,-105.0
2023-08-09 15:49:25.206937,-105.0
2023-08-09 15:49:25.214627,-107.0
2023-08-09 15:49:25.222317,-109.0
2023-08-09 15:49:25.230008,-117.0
2023-08-09 15:49:25.237698,-119.0
2023-08-09 15:49:25.245388,-117.0
2023-08-09 15:49:25.253079,-117.0
2023-08-09 15:49:25.260769,-121.0
2023-08-09 15:49:25.268459,-126.0
2023-08-09 15:49:25.276150,-126.0
2023-08-09 15:49:25.283840,-119.0
2023-08-09 15:49:25.291530,-119.0
2023-08-09 15:49:25.299221,-119.0
2023-08-09 15:49:25.306911,-117.0
2023-08-09 15:49:25.314601,-114.0
2023-08-09 15:49:25.322292,-109.0
2023-08-09 15:49:25.329982,-107.0
2023-08-09 15:49:25.337672,-105.0
2023-08-09 15:49:25.345363,-102.0
2023-08-09 15:49:25.353053,-107.0
2023-08-09 15:49:25.360743,-114.0
2023-08-09 15:49:25.368434,-109.0
2023-08-09 15:49:25.376124,-90.0
2023-08-09 15:49:25.383814,-62.0
2023-08-09 15:49:25.391505,-42.0
2023-08-09 15:49:25.399195,-47.0
2023-08-09 15:49:25.406885,-64.0
2023-08-09 15:49:25.414576,-69.0
2023-08-09 15:49:25.422266,-66.0
2023-08-09 15:49:25.429956,-76.0
2023-08-09 15:49:25.437647,-95.0
2023-08-09 15:49:25.445337,-105.0
2023-08-09 15:49:25.453027,-105.0
2023-08-09 15:49:25.460718,-102.0
2023-08-09 15:49:25.468408,-97.0
2023-08-09 15:49:25.476098,-95.0
2023-08-09 15:49:25.483789,-97.0
2023-08-09 15:49:25.491479,-97.0
2023-08-09 15:49:25.499169,-95.0
2023-08-09 15:49:25.506860,-95.0
2023-08-09 15:49:25.514550,-100.0
2023-08-09 15:49:25.522240,-112.0
2023-08-09 15:49:25.529931,-133.0
2023-08-09 15:49:25.537621,-85.0
2023-08-09 15:49:25.545311,126.0
2023-08-09 15:49:25.553002,434.0
2023-08-09 15:49:25.560692,587.0
2023-08-09 15:49:25.568382,339.0
2023-08-09 15:49:25.576073,-95.0
2023-08-09 15:49:25.583763,-260.0
2023-08-09 15:49:25.591453,-243.0
2023-08-09 15:49:25.599144,-248.0
2023-08-09 15:49:25.606834,-169.0
2023-08-09 15:49:25.614524,-66.0
2023-08-09 15:49:25.622215,-71.0
2023-08-09 15:49:25.629905,-90.0
2023-08-09 15:49:25.637595,-59.0
2023-08-09 15:49:25.645285,-42.0
2023-08-09 15:49:25.652976,-40.0
2023-08-09 15:49:25.660666,-31.0
2023-08-09 15:49:25.668356,-19.0
2023-08-09 15:49:25.676047,-14.0
2023-08-09 15:49:25.683737,0.0
2023-08-09 15:49:25.691427,14.0
2023-08-09 15:49:25.699118,28.0
2023-08-09 15:49:25.706808,47.0
2023-08-09 15:49:25.714498,66.0
2023-08-09 15:49:25.722189,81.0
2023-08-09 15:49:25.729879,100.0
2023-08-09 15:49:25.737569,121.0
2023-08-09 15:49:25.745260,133.0
2023-08-09 15:49:25.752950,131.0
2023-08-09 15:49:25.760640,121.0
2023-08-09 15:49:25.768331,105.0
2023-08-09 15:49:25.776021,78.0
2023-08-09 15:49:25.783711,38.0
2023-08-09 15:49:25.791402,-4.0
2023-08-09 15:49:25.799092,-45.0
2023-08-09 15:49:25.806782,-78.0
2023-08-09 15:49:25.814473,-102.0
2023-08-09 15:49:25.822163,-117.0
2023-08-09 15:49:25.829853,-124.0
2023-08-09 15:49:25.837544,-128.0
2023-08-09 15:49:25.845234,-131.0
2023-08-09 15:49:25.852924,-131.0
2023-08-09 15:49:25.860615,-136.0
2023-08-09 15:49:25.868305,-136.0
2023-08-09 15:49:25.875995,-128.0
2023-08-09 15:49:25.883686,-119.0
2023-08-09 15:49:25.891376,-121.0
2023-08-09 15:49:25.899066,-128.0
2023-08-09 15:49:25.906757,-128.0
2023-08-09 15:49:25.914447,-119.0
2023-08-09 15:49:25.922137,-114.0
2023-08-09 15:49:25.929828,-114.0
2023-08-09 15:49:25.937518,-109.0
2023-08-09 15:49:25.945208,-109.0
2023-08-09 15:49:25.952899,-112.0
2023-08-09 15:49:25.960589,-109.0
2023-08-09 15:49:25.968279,-109.0
2023-08-09 15:49:25.975970,-109.0
2023-08-09 15:49:25.983660,-107.0
2023-08-09 15:49:25.991350,-107.0
2023-08-09 15:49:25.999041,-114.0
2023-08-09 15:49:26.006731,-119.0
2023-08-09 15:49:26.014421,-114.0
2023-08-09 15:49:26.022112,-109.0
2023-08-09 15:49:26.029802,-112.0
2023-08-09 15:49:26.037492,-114.0
2023-08-09 15:49:26.045183,-109.0
2023-08-09 15:49:26.052873,-105.0
2023-08-09 15:49:26.060563,-100.0
2023-08-09 15:49:26.068254,-105.0
2023-08-09 15:49:26.075944,-105.0
2023-08-09 15:49:26.083634,-100.0
2023-08-09 15:49:26.091325,-97.0
2023-08-09 15:49:26.099015,-90.0
2023-08-09 15:49:26.106705,-71.0
2023-08-09 15:49:26.114396,-45.0
2023-08-09 15:49:26.122086,-33.0
2023-08-09 15:49:26.129776,-45.0
2023-08-09 15:49:26.137467,-62.0
2023-08-09 15:49:26.145157,-66.0
2023-08-09 15:49:26.152847,-66.0
2023-08-09 15:49:26.160538,-81.0
2023-08-09 15:49:26.168228,-97.0
2023-08-09 15:49:26.175918,-102.0
2023-08-09 15:49:26.183609,-97.0
2023-08-09 15:49:26.191299,-95.0
2023-08-09 15:49:26.198989,-97.0
2023-08-09 15:49:26.206680,-95.0
2023-08-09 15:49:26.214370,-90.0
2023-08-09 15:49:26.222060,-90.0
2023-08-09 15:49:26.229751,-90.0
2023-08-09 15:49:26.237441,-90.0
2023-08-09 15:49:26.245131,-93.0
2023-08-09 15:49:26.252822,-119.0
2023-08-09 15:49:26.260512,-131.0
2023-08-09 15:49:26.268202,-19.0
2023-08-09 15:49:26.275893,243.0
2023-08-09 15:49:26.283583,525.0
2023-08-09 15:49:26.291273,535.0
2023-08-09 15:49:26.298964,160.0
2023-08-09 15:49:26.306654,-195.0
2023-08-09 15:49:26.314344,-248.0
2023-08-09 15:49:26.322034,-231.0
2023-08-09 15:49:26.329725,-207.0
2023-08-09 15:49:26.337415,-109.0
2023-08-09 15:49:26.345105,-69.0
2023-08-09 15:49:26.352796,-102.0
2023-08-09 15:49:26.360486,-95.0
2023-08-09 15:49:26.368176,-69.0
2023-08-09 15:49:26.375867,-71.0
2023-08-09 15:49:26.383557,-64.0
2023-08-09 15:49:26.391247,-47.0
2023-08-09 15:49:26.398938,-42.0
2023-08-09 15:49:26.406628,-31.0
2023-08-09 15:49:26.414318,-16.0
2023-08-09 15:49:26.422009,-4.0
2023-08-09 15:49:26.429699,9.0
2023-08-09 15:49:26.437389,28.0
2023-08-09 15:49:26.445080,47.0
2023-08-09 15:49:26.452770,69.0
2023-08-09 15:49:26.460460,85.0
2023-08-09 15:49:26.468151,105.0
2023-08-09 15:49:26.475841,114.0
2023-08-09 15:49:26.483531,112.0
2023-08-09 15:49:26.491222,100.0
2023-08-09 15:49:26.498912,81.0
2023-08-09 15:49:26.506602,50.0
2023-08-09 15:49:26.514293,9.0
2023-08-09 15:49:26.521983,-33.0
2023-08-09 15:49:26.529673,-71.0
2023-08-09 15:49:26.537364,-100.0
2023-08-09 15:49:26.545054,-121.0
2023-08-09 15:49:26.552744,-136.0
2023-08-09 15:49:26.560435,-143.0
2023-08-09 15:49:26.568125,-143.0
2023-08-09 15:49:26.575815,-143.0
2023-08-09 15:49:26.583506,-140.0
2023-08-09 15:49:26.591196,-133.0
2023-08-09 15:49:26.598886,-128.0
2023-08-09 15:49:26.606577,-121.0
2023-08-09 15:49:26.614267,-121.0
2023-08-09 15:49:26.621957,-121.0
2023-08-09 15:49:26.629648,-114.0
2023-08-09 15:49:26.637338,-112.0
2023-08-09 15:49:26.645028,-109.0
2023-08-09 15:49:26.652719,-107.0
2023-08-09 15:49:26.660409,-102.0
2023-08-09 15:49:26.668099,-100.0
2023-08-09 15:49:26.675790,-100.0
2023-08-09 15:49:26.683480,-100.0
2023-08-09 15:49:26.691170,-100.0
2023-08-09 15:49:26.698861,-102.0
2023-08-09 15:49:26.706551,-102.0
2023-08-09 15:49:26.714241,-109.0
2023-08-09 15:49:26.721932,-109.0
2023-08-09 15:49:26.729622,-107.0
2023-08-09 15:49:26.737312,-109.0
2023-08-09 15:49:26.745003,-114.0
2023-08-09 15:49:26.752693,-112.0
2023-08-09 15:49:26.760383,-109.0
2023-08-09 15:49:26.768074,-112.0
2023-08-09 15:49:26.775764,-109.0
2023-08-09 15:49:26.783454,-107.0
2023-08-09 15:49:26.791145,-107.0
2023-08-09 15:49:26.798835,-107.0
2023-08-09 15:49:26.806525,-102.0
2023-08-09 15:49:26.814216,-100.0
2023-08-09 15:49:26.821906,-97.0
2023-08-09 15:49:26.829596,-88.0
2023-08-09 15:49:26.837287,-62.0
2023-08-09 15:49:26.844977,-38.0
2023-08-09 15:49:26.852667,-38.0
2023-08-09 15:49:26.860358,-59.0
2023-08-09 15:49:26.868048,-74.0
2023-08-09 15:49:26.875738,-74.0
2023-08-09 15:49:26.883429,-88.0
2023-08-09 15:49:26.891119,-117.0
2023-08-09 15:49:26.898809,-131.0
2023-08-09 15:49:26.906500,-126.0
2023-08-09 15:49:26.914190,-119.0
2023-08-09 15:49:26.921880,-119.0
2023-08-09 15:49:26.929571,-124.0
2023-08-09 15:49:26.937261,-121.0
2023-08-09 15:49:26.944951,-114.0
2023-08-09 15:49:26.952642,-107.0
2023-08-09 15:49:26.960332,-105.0
2023-08-09 15:49:26.968022,-107.0
2023-08-09 15:49:26.975713,-119.0
2023-08-09 15:49:26.983403,-143.0
2023-08-09 15:49:26.991093,-95.0
2023-08-09 15:49:26.998784,112.0
2023-08-09 15:49:27.006474,415.0
2023-08-09 15:49:27.014164,568.0
2023-08-09 15:49:27.021854,324.0
2023-08-09 15:49:27.029545,-100.0
2023-08-09 15:49:27.037235,-257.0
2023-08-09 15:49:27.044925,-243.0
2023-08-09 15:49:27.052616,-246.0
2023-08-09 15:49:27.060306,-164.0
2023-08-09 15:49:27.067996,-78.0
2023-08-09 15:49:27.075687,-90.0
2023-08-09 15:49:27.083377,-95.0
2023-08-09 15:49:27.091067,-62.0
2023-08-09 15:49:27.098758,-50.0
2023-08-09 15:49:27.106448,-52.0
2023-08-09 15:49:27.114138,-45.0
2023-08-09 15:49:27.121829,-38.0
2023-08-09 15:49:27.129519,-28.0
2023-08-09 15:49:27.137209,-11.0
2023-08-09 15:49:27.144900,2.0
2023-08-09 15:49:27.152590,14.0
2023-08-09 15:49:27.160280,31.0
2023-08-09 15:49:27.167971,54.0
2023-08-09 15:49:27.175661,74.0
2023-08-09 15:49:27.183351,90.0
2023-08-09 15:49:27.191042,102.0
2023-08-09 15:49:27.198732,114.0
2023-08-09 15:49:27.206422,119.0
2023-08-09 15:49:27.214113,114.0
2023-08-09 15:49:27.221803,102.0
2023-08-09 15:49:27.229493,74.0
2023-08-09 15:49:27.237184,31.0
2023-08-09 15:49:27.244874,-11.0
2023-08-09 15:49:27.252564,-54.0
2023-08-09 15:49:27.260255,-93.0
2023-08-09 15:49:27.267945,-121.0
2023-08-09 15:49:27.275635,-131.0
2023-08-09 15:49:27.283326,-138.0
2023-08-09 15:49:27.291016,-148.0
2023-08-09 15:49:27.298706,-155.0
2023-08-09 15:49:27.306397,-148.0
2023-08-09 15:49:27.314087,-138.0
2023-08-09 15:49:27.321777,-133.0
2023-08-09 15:49:27.329468,-131.0
2023-08-09 15:49:27.337158,-131.0
2023-08-09 15:49:27.344848,-131.0
2023-08-09 15:49:27.352539,-124.0
2023-08-09 15:49:27.360229,-114.0
2023-08-09 15:49:27.367919,-109.0
2023-08-09 15:49:27.375610,-119.0
2023-08-09 15:49:27.383300,-124.0
2023-08-09 15:49:27.390990,-117.0
2023-08-09 15:49:27.398681,-112.0
2023-08-09 15:49:27.406371,-114.0
2023-08-09 15:49:27.414061,-117.0
2023-08-09 15:49:27.421752,-117.0
2023-08-09 15:49:27.429442,-126.0
2023-08-09 15:49:27.437132,-124.0
2023-08-09 15:49:27.444823,-114.0
2023-08-09 15:49:27.452513,-114.0
2023-08-09 15:49:27.460203,-121.0
2023-08-09 15:49:27.467894,-128.0
2023-08-09 15:49:27.475584,-133.0
2023-08-09 15:49:27.483274,-133.0
2023-08-09 15:49:27.490965,-126.0
2023-08-09 15:49:27.498655,-121.0
2023-08-09 15:49:27.506345,-121.0
2023-08-09 15:49:27.514036,-121.0
2023-08-09 15:49:27.521726,-124.0
2023-08-09 15:49:27.529416,-114.0
2023-08-09 15:49:27.537107,-90.0
2023-08-09 15:49:27.544797,-66.0
2023-08-09 15:49:27.552487,-50.0
2023-08-09 15:49:27.560178,-54.0
2023-08-09 15:49:27.567868,-78.0
2023-08-09 15:49:27.575558,-90.0
2023-08-09 15:49:27.583249,-85.0
2023-08-09 15:49:27.590939,-95.0
2023-08-09 15:49:27.598629,-112.0
2023-08-09 15:49:27.606320,-121.0
2023-08-09 15:49:27.614010,-119.0
2023-08-09 15:49:27.621700,-117.0
2023-08-09 15:49:27.629391,-112.0
2023-08-09 15:49:27.637081,-109.0
2023-08-09 15:49:27.644771,-112.0
2023-08-09 15:49:27.652462,-114.0
2023-08-09 15:49:27.660152,-109.0
2023-08-09 15:49:27.667842,-105.0
2023-08-09 15:49:27.675533,-105.0
2023-08-09 15:49:27.683223,-119.0
2023-08-09 15:49:27.690913,-138.0
2023-08-09 15:49:27.698603,-59.0
2023-08-09 15:49:27.706294,188.0
2023-08-09 15:49:27.713984,494.0
2023-08-09 15:49:27.721674,570.0
2023-08-09 15:49:27.729365,226.0
2023-08-09 15:49:27.737055,-179.0
2023-08-09 15:49:27.744745,-269.0
2023-08-09 15:49:27.752436,-255.0
2023-08-09 15:49:27.760126,-253.0
2023-08-09 15:49:27.767816,-140.0
2023-08-09 15:49:27.775507,-57.0
2023-08-09 15:49:27.783197,-83.0
2023-08-09 15:49:27.790887,-88.0
2023-08-09 15:49:27.798578,-54.0
2023-08-09 15:49:27.806268,-47.0
2023-08-09 15:49:27.813958,-45.0
2023-08-09 15:49:27.821649,-28.0
2023-08-09 15:49:27.829339,-16.0
2023-08-09 15:49:27.837029,-9.0
2023-08-09 15:49:27.844720,2.0
2023-08-09 15:49:27.852410,19.0
2023-08-09 15:49:27.860100,38.0
2023-08-09 15:49:27.867791,54.0
2023-08-09 15:49:27.875481,66.0
2023-08-09 15:49:27.883171,88.0
2023-08-09 15:49:27.890862,109.0
2023-08-09 15:49:27.898552,124.0
2023-08-09 15:49:27.906242,133.0
2023-08-09 15:49:27.913933,138.0
2023-08-09 15:49:27.921623,128.0
2023-08-09 15:49:27.929313,107.0
2023-08-09 15:49:27.937004,71.0
2023-08-09 15:49:27.944694,26.0
2023-08-09 15:49:27.952384,-19.0
2023-08-09 15:49:27.960075,-57.0
2023-08-09 15:49:27.967765,-90.0
2023-08-09 15:49:27.975455,-114.0
2023-08-09 15:49:27.983146,-126.0
2023-08-09 15:49:27.990836,-131.0
2023-08-09 15:49:27.998526,-133.0
2023-08-09 15:49:28.006217,-133.0
2023-08-09 15:49:28.013907,-133.0
2023-08-09 15:49:28.021597,-133.0
2023-08-09 15:49:28.029288,-126.0
2023-08-09 15:49:28.036978,-117.0
2023-08-09 15:49:28.044668,-114.0
2023-08-09 15:49:28.052359,-114.0
2023-08-09 15:49:28.060049,-114.0
2023-08-09 15:49:28.067739,-112.0
2023-08-09 15:49:28.075430,-109.0
2023-08-09 15:49:28.083120,-102.0
2023-08-09 15:49:28.090810,-97.0
2023-08-09 15:49:28.098501,-97.0
2023-08-09 15:49:28.106191,-95.0
2023-08-09 15:49:28.113881,-90.0
2023-08-09 15:49:28.121572,-88.0
2023-08-09 15:49:28.129262,-88.0
2023-08-09 15:49:28.136952,-90.0
2023-08-09 15:49:28.144643,-95.0
2023-08-09 15:49:28.152333,-93.0
2023-08-09 15:49:28.160023,-90.0
2023-08-09 15:49:28.167714,-93.0
2023-08-09 15:49:28.175404,-93.0
2023-08-09 15:49:28.183094,-88.0
2023-08-09 15:49:28.190785,-83.0
2023-08-09 15:49:28.198475,-83.0
2023-08-09 15:49:28.206165,-83.0
2023-08-09 15:49:28.213856,-85.0
2023-08-09 15:49:28.221546,-90.0
2023-08-09 15:49:28.229236,-93.0
2023-08-09 15:49:28.236927,-93.0
2023-08-09 15:49:28.244617,-90.0
2023-08-09 15:49:28.252307,-81.0
2023-08-09 15:49:28.259998,-54.0
2023-08-09 15:49:28.267688,-28.0
2023-08-09 15:49:28.275378,-26.0
2023-08-09 15:49:28.283069,-47.0
2023-08-09 15:49:28.290759,-62.0
2023-08-09 15:49:28.298449,-57.0
2023-08-09 15:49:28.306140,-64.0
2023-08-09 15:49:28.313830,-85.0
2023-08-09 15:49:28.321520,-97.0
2023-08-09 15:49:28.329211,-97.0
2023-08-09 15:49:28.336901,-90.0
2023-08-09 15:49:28.344591,-88.0
2023-08-09 15:49:28.352282,-93.0
2023-08-09 15:49:28.359972,-93.0
2023-08-09 15:49:28.367662,-88.0
2023-08-09 15:49:28.375353,-90.0
2023-08-09 15:49:28.383043,-93.0
2023-08-09 15:49:28.390733,-88.0
2023-08-09 15:49:28.398423,-95.0
2023-08-09 15:49:28.406114,-124.0
2023-08-09 15:49:28.413804,-95.0
2023-08-09 15:49:28.421494,88.0
2023-08-09 15:49:28.429185,389.0
2023-08-09 15:49:28.436875,597.0
2023-08-09 15:49:28.444565,415.0
2023-08-09 15:49:28.452256,-23.0
2023-08-09 15:49:28.459946,-234.0
2023-08-09 15:49:28.467636,-224.0
2023-08-09 15:49:28.475327,-222.0
2023-08-09 15:49:28.483017,-155.0
2023-08-09 15:49:28.490707,-64.0
2023-08-09 15:49:28.498398,-66.0
2023-08-09 15:49:28.506088,-83.0
2023-08-09 15:49:28.513778,-54.0
2023-08-09 15:49:28.521469,-38.0
2023-08-09 15:49:28.529159,-38.0
2023-08-09 15:49:28.536849,-28.0
2023-08-09 15:49:28.544540,-14.0
2023-08-09 15:49:28.552230,-7.0
2023-08-09 15:49:28.559920,4.0
2023-08-09 15:49:28.567611,14.0
2023-08-09 15:49:28.575301,26.0
2023-08-09 15:49:28.582991,45.0
2023-08-09 15:49:28.590682,66.0
2023-08-09 15:49:28.598372,78.0
2023-08-09 15:49:28.606062,90.0
2023-08-09 15:49:28.613753,112.0
2023-08-09 15:49:28.621443,124.0
2023-08-09 15:49:28.629133,124.0
2023-08-09 15:49:28.636824,124.0
2023-08-09 15:49:28.644514,112.0
2023-08-09 15:49:28.652204,83.0
2023-08-09 15:49:28.659895,45.0
2023-08-09 15:49:28.667585,0.0
2023-08-09 15:49:28.675275,-42.0
2023-08-09 15:49:28.682966,-78.0
2023-08-09 15:49:28.690656,-105.0
2023-08-09 15:49:28.698346,-121.0
2023-08-09 15:49:28.706037,-126.0
2023-08-09 15:49:28.713727,-133.0
2023-08-09 15:49:28.721417,-138.0
2023-08-09 15:49:28.729108,-133.0
2023-08-09 15:49:28.736798,-128.0
2023-08-09 15:49:28.744488,-126.0
2023-08-09 15:49:28.752179,-121.0
2023-08-09 15:49:28.759869,-114.0
2023-08-09 15:49:28.767559,-112.0
2023-08-09 15:49:28.775250,-107.0
2023-08-09 15:49:28.782940,-102.0
2023-08-09 15:49:28.790630,-97.0
2023-08-09 15:49:28.798321,-95.0
2023-08-09 15:49:28.806011,-95.0
2023-08-09 15:49:28.813701,-90.0
2023-08-09 15:49:28.821392,-85.0
2023-08-09 15:49:28.829082,-88.0
2023-08-09 15:49:28.836772,-85.0
2023-08-09 15:49:28.844463,-85.0
2023-08-09 15:49:28.852153,-83.0
2023-08-09 15:49:28.859843,-81.0
2023-08-09 15:49:28.867534,-81.0
2023-08-09 15:49:28.875224,-83.0
2023-08-09 15:49:28.882914,-90.0
2023-08-09 15:49:28.890605,-95.0
2023-08-09 15:49:28.898295,-93.0
2023-08-09 15:49:28.905985,-93.0
2023-08-09 15:49:28.913676,-90.0
2023-08-09 15:49:28.921366,-90.0
2023-08-09 15:49:28.929056,-88.0
2023-08-09 15:49:28.936747,-90.0
2023-08-09 15:49:28.944437,-88.0
2023-08-09 15:49:28.952127,-85.0
2023-08-09 15:49:28.959818,-90.0
2023-08-09 15:49:28.967508,-93.0
2023-08-09 15:49:28.975198,-90.0
2023-08-09 15:49:28.982889,-90.0
2023-08-09 15:49:28.990579,-93.0
2023-08-09 15:49:28.998269,-95.0
2023-08-09 15:49:29.005960,-85.0
2023-08-09 15:49:29.013650,-64.0
2023-08-09 15:49:29.021340,-35.0
2023-08-09 15:49:29.029031,-23.0
2023-08-09 15:49:29.036721,-42.0
2023-08-09 15:49:29.044411,-62.0
2023-08-09 15:49:29.052102,-64.0
2023-08-09 15:49:29.059792,-62.0
2023-08-09 15:49:29.067482,-76.0
2023-08-09 15:49:29.075172,-93.0
2023-08-09 15:49:29.082863,-100.0
2023-08-09 15:49:29.090553,-95.0
2023-08-09 15:49:29.098243,-93.0
2023-08-09 15:49:29.105934,-93.0
2023-08-09 15:49:29.113624,-93.0
2023-08-09 15:49:29.121314,-90.0
2023-08-09 15:49:29.129005,-90.0
2023-08-09 15:49:29.136695,-97.0
2023-08-09 15:49:29.144385,-102.0
2023-08-09 15:49:29.152076,-100.0
2023-08-09 15:49:29.159766,-117.0
2023-08-09 15:49:29.167456,-131.0
2023-08-09 15:49:29.175147,-47.0
2023-08-09 15:49:29.182837,198.0
2023-08-09 15:49:29.190527,494.0
2023-08-09 15:49:29.198218,551.0
2023-08-09 15:49:29.205908,210.0
2023-08-09 15:49:29.213598,-162.0
2023-08-09 15:49:29.221289,-238.0
2023-08-09 15:49:29.228979,-226.0
2023-08-09 15:49:29.236669,-214.0
2023-08-09 15:49:29.244360,-121.0
2023-08-09 15:49:29.252050,-69.0
2023-08-09 15:49:29.259740,-90.0
2023-08-09 15:49:29.267431,-83.0
2023-08-09 15:49:29.275121,-59.0
2023-08-09 15:49:29.282811,-62.0
2023-08-09 15:49:29.290502,-52.0
2023-08-09 15:49:29.298192,-35.0
2023-08-09 15:49:29.305882,-28.0
2023-08-09 15:49:29.313573,-19.0
2023-08-09 15:49:29.321263,-9.0
2023-08-09 15:49:29.328953,2.0
2023-08-09 15:49:29.336644,19.0
2023-08-09 15:49:29.344334,38.0
2023-08-09 15:49:29.352024,57.0
2023-08-09 15:49:29.359715,78.0
2023-08-09 15:49:29.367405,95.0
2023-08-09 15:49:29.375095,107.0
2023-08-09 15:49:29.382786,119.0
2023-08-09 15:49:29.390476,124.0
2023-08-09 15:49:29.398166,109.0
2023-08-09 15:49:29.405857,85.0
2023-08-09 15:49:29.413547,54.0
2023-08-09 15:49:29.421237,19.0
2023-08-09 15:49:29.428928,-21.0
2023-08-09 15:49:29.436618,-59.0
2023-08-09 15:49:29.444308,-90.0
2023-08-09 15:49:29.451999,-119.0
2023-08-09 15:49:29.459689,-138.0
2023-08-09 15:49:29.467379,-143.0
2023-08-09 15:49:29.475070,-143.0
2023-08-09 15:49:29.482760,-140.0
2023-08-09 15:49:29.490450,-136.0
2023-08-09 15:49:29.498141,-133.0
2023-08-09 15:49:29.505831,-128.0
2023-08-09 15:49:29.513521,-121.0
2023-08-09 15:49:29.521212,-117.0
2023-08-09 15:49:29.528902,-114.0
2023-08-09 15:49:29.536592,-109.0
2023-08-09 15:49:29.544283,-105.0
2023-08-09 15:49:29.551973,-105.0
2023-08-09 15:49:29.559663,-105.0
2023-08-09 15:49:29.567354,-102.0
2023-08-09 15:49:29.575044,-95.0
2023-08-09 15:49:29.582734,-93.0
2023-08-09 15:49:29.590425,-93.0
2023-08-09 15:49:29.598115,-90.0
2023-08-09 15:49:29.605805,-88.0
2023-08-09 15:49:29.613496,-90.0
2023-08-09 15:49:29.621186,-93.0
2023-08-09 15:49:29.628876,-93.0
2023-08-09 15:49:29.636567,-95.0
2023-08-09 15:49:29.644257,-100.0
2023-08-09 15:49:29.651947,-97.0
2023-08-09 15:49:29.659638,-93.0
2023-08-09 15:49:29.667328,-90.0
2023-08-09 15:49:29.675018,-93.0
2023-08-09 15:49:29.682709,-95.0
2023-08-09 15:49:29.690399,-97.0
2023-08-09 15:49:29.698089,-97.0
2023-08-09 15:49:29.705780,-100.0
2023-08-09 15:49:29.713470,-102.0
2023-08-09 15:49:29.721160,-109.0
2023-08-09 15:49:29.728851,-117.0
2023-08-09 15:49:29.736541,-119.0
2023-08-09 15:49:29.744231,-114.0
2023-08-09 15:49:29.751922,-112.0
2023-08-09 15:49:29.759612,-107.0
2023-08-09 15:49:29.767302,-112.0
2023-08-09 15:49:29.774992,-114.0
2023-08-09 15:49:29.782683,-109.0
2023-08-09 15:49:29.790373,-102.0
2023-08-09 15:49:29.798063,-97.0
2023-08-09 15:49:29.805754,-97.0
2023-08-09 15:49:29.813444,-102.0
2023-08-09 15:49:29.821134,-102.0
2023-08-09 15:49:29.828825,-97.0
2023-08-09 15:49:29.836515,-93.0
2023-08-09 15:49:29.844205,-95.0
2023-08-09 15:49:29.851896,-93.0
2023-08-09 15:49:29.859586,-78.0
2023-08-09 15:49:29.867276,-52.0
2023-08-09 15:49:29.874967,-31.0
2023-08-09 15:49:29.882657,-31.0
2023-08-09 15:49:29.890347,-45.0
2023-08-09 15:49:29.898038,-62.0
2023-08-09 15:49:29.905728,-74.0
2023-08-09 15:49:29.913418,-85.0
2023-08-09 15:49:29.921109,-102.0
2023-08-09 15:49:29.928799,-112.0
2023-08-09 15:49:29.936489,-109.0
2023-08-09 15:49:29.944180,-109.0
2023-08-09 15:49:29.951870,-112.0
2023-08-09 15:49:29.959560,-109.0
2023-08-09 15:49:29.967251,-107.0
2023-08-09 15:49:29.974941,-102.0
2023-08-09 15:49:29.982631,-95.0
2023-08-09 15:49:29.990322,-95.0
2023-08-09 15:49:29.998012,-93.0
2023-08-09 15:49:30.005702,-100.0
2023-08-09 15:49:30.013393,-126.0
2023-08-09 15:49:30.021083,-97.0
2023-08-09 15:49:30.028773,90.0
2023-08-09 15:49:30.036464,386.0
2023-08-09 15:49:30.044154,554.0
2023-08-09 15:49:30.051844,346.0
2023-08-09 15:49:30.059535,-62.0
2023-08-09 15:49:30.067225,-234.0
2023-08-09 15:49:30.074915,-234.0
2023-08-09 15:49:30.082606,-257.0
2023-08-09 15:49:30.090296,-183.0
2023-08-09 15:49:30.097986,-76.0
2023-08-09 15:49:30.105677,-78.0
2023-08-09 15:49:30.113367,-90.0
2023-08-09 15:49:30.121057,-59.0
2023-08-09 15:49:30.128748,-50.0
2023-08-09 15:49:30.136438,-57.0
2023-08-09 15:49:30.144128,-45.0
2023-08-09 15:49:30.151819,-28.0
2023-08-09 15:49:30.159509,-21.0
2023-08-09 15:49:30.167199,-9.0
2023-08-09 15:49:30.174890,4.0
2023-08-09 15:49:30.182580,19.0
2023-08-09 15:49:30.190270,31.0
2023-08-09 15:49:30.197961,42.0
2023-08-09 15:49:30.205651,64.0
2023-08-09 15:49:30.213341,83.0
2023-08-09 15:49:30.221032,97.0
2023-08-09 15:49:30.228722,112.0
2023-08-09 15:49:30.236412,119.0
2023-08-09 15:49:30.244103,112.0
2023-08-09 15:49:30.251793,102.0
2023-08-09 15:49:30.259483,81.0
2023-08-09 15:49:30.267174,42.0
2023-08-09 15:49:30.274864,-7.0
2023-08-09 15:49:30.282554,-50.0
2023-08-09 15:49:30.290245,-85.0
2023-08-09 15:49:30.297935,-117.0
2023-08-09 15:49:30.305625,-133.0
2023-08-09 15:49:30.313316,-148.0
2023-08-09 15:49:30.321006,-155.0
2023-08-09 15:49:30.328696,-152.0
2023-08-09 15:49:30.336387,-150.0
2023-08-09 15:49:30.344077,-150.0
2023-08-09 15:49:30.351767,-148.0
2023-08-09 15:49:30.359458,-145.0
2023-08-09 15:49:30.367148,-140.0
2023-08-09 15:49:30.374838,-131.0
2023-08-09 15:49:30.382529,-126.0
2023-08-09 15:49:30.390219,-124.0
2023-08-09 15:49:30.397909,-119.0
2023-08-09 15:49:30.405600,-119.0
2023-08-09 15:49:30.413290,-121.0
2023-08-09 15:49:30.420980,-121.0
2023-08-09 15:49:30.428671,-121.0
2023-08-09 15:49:30.436361,-128.0
2023-08-09 15:49:30.444051,-133.0
2023-08-09 15:49:30.451741,-128.0
2023-08-09 15:49:30.459432,-124.0
2023-08-09 15:49:30.467122,-126.0
2023-08-09 15:49:30.474812,-131.0
2023-08-09 15:49:30.482503,-131.0
2023-08-09 15:49:30.490193,-128.0
2023-08-09 15:49:30.497883,-124.0
2023-08-09 15:49:30.505574,-121.0
2023-08-09 15:49:30.513264,-124.0
2023-08-09 15:49:30.520954,-121.0
2023-08-09 15:49:30.528645,-119.0
2023-08-09 15:49:30.536335,-117.0
2023-08-09 15:49:30.544025,-117.0
2023-08-09 15:49:30.551716,-112.0
2023-08-09 15:49:30.559406,-112.0
2023-08-09 15:49:30.567096,-109.0
2023-08-09 15:49:30.574787,-105.0
2023-08-09 15:49:30.582477,-105.0
2023-08-09 15:49:30.590167,-105.0
2023-08-09 15:49:30.597858,-100.0
2023-08-09 15:49:30.605548,-97.0
2023-08-09 15:49:30.613238,-97.0
2023-08-09 15:49:30.620929,-97.0
2023-08-09 15:49:30.628619,-95.0
2023-08-09 15:49:30.636309,-97.0
2023-08-09 15:49:30.644000,-95.0
2023-08-09 15:49:30.651690,-88.0
2023-08-09 15:49:30.659380,-85.0
2023-08-09 15:49:30.667071,-88.0
2023-08-09 15:49:30.674761,-90.0
2023-08-09 15:49:30.682451,-88.0
2023-08-09 15:49:30.690142,-83.0
2023-08-09 15:49:30.697832,-83.0
2023-08-09 15:49:30.705522,-88.0
2023-08-09 15:49:30.713213,-88.0
2023-08-09 15:49:30.720903,-83.0
2023-08-09 15:49:30.728593,-78.0
2023-08-09 15:49:30.736284,-81.0
2023-08-09 15:49:30.743974,-76.0
2023-08-09 15:49:30.751664,-64.0
2023-08-09 15:49:30.759355,-40.0
2023-08-09 15:49:30.767045,-19.0
2023-08-09 15:49:30.774735,-21.0
2023-08-09 15:49:30.782426,-40.0
2023-08-09 15:49:30.790116,-45.0
2023-08-09 15:49:30.797806,-47.0
2023-08-09 15:49:30.805497,-71.0
2023-08-09 15:49:30.813187,-90.0
2023-08-09 15:49:30.820877,-95.0
2023-08-09 15:49:30.828568,-97.0
2023-08-09 15:49:30.836258,-95.0
2023-08-09 15:49:30.843948,-93.0
2023-08-09 15:49:30.851639,-95.0
2023-08-09 15:49:30.859329,-93.0
2023-08-09 15:49:30.867019,-90.0
2023-08-09 15:49:30.874710,-85.0
2023-08-09 15:49:30.882400,-83.0
2023-08-09 15:49:30.890090,-85.0
2023-08-09 15:49:30.897781,-102.0
2023-08-09 15:49:30.905471,-121.0
2023-08-09 15:49:30.913161,-71.0
2023-08-09 15:49:30.920852,140.0
2023-08-09 15:49:30.928542,446.0
2023-08-09 15:49:30.936232,570.0
2023-08-09 15:49:30.943923,289.0
2023-08-09 15:49:30.951613,-121.0
2023-08-09 15:49:30.959303,-250.0
2023-08-09 15:49:30.966994,-234.0
2023-08-09 15:49:30.974684,-236.0
2023-08-09 15:49:30.982374,-157.0
2023-08-09 15:49:30.990065,-78.0
2023-08-09 15:49:30.997755,-93.0
2023-08-09 15:49:31.005445,-97.0
2023-08-09 15:49:31.013136,-64.0
2023-08-09 15:49:31.020826,-54.0
2023-08-09 15:49:31.028516,-54.0
2023-08-09 15:49:31.036207,-42.0
2023-08-09 15:49:31.043897,-33.0
2023-08-09 15:49:31.051587,-28.0
2023-08-09 15:49:31.059278,-16.0
2023-08-09 15:49:31.066968,0.0
2023-08-09 15:49:31.074658,9.0
2023-08-09 15:49:31.082349,26.0
2023-08-09 15:49:31.090039,47.0
2023-08-09 15:49:31.097729,66.0
2023-08-09 15:49:31.105420,85.0
2023-08-09 15:49:31.113110,105.0
2023-08-09 15:49:31.120800,117.0
2023-08-09 15:49:31.128491,121.0
2023-08-09 15:49:31.136181,117.0
2023-08-09 15:49:31.143871,105.0
2023-08-09 15:49:31.151561,81.0
2023-08-09 15:49:31.159252,38.0
2023-08-09 15:49:31.166942,-14.0
2023-08-09 15:49:31.174632,-59.0
2023-08-09 15:49:31.182323,-90.0
2023-08-09 15:49:31.190013,-117.0
2023-08-09 15:49:31.197703,-133.0
2023-08-09 15:49:31.205394,-145.0
2023-08-09 15:49:31.213084,-150.0
2023-08-09 15:49:31.220774,-152.0
2023-08-09 15:49:31.228465,-150.0
2023-08-09 15:49:31.236155,-145.0
2023-08-09 15:49:31.243845,-140.0
2023-08-09 15:49:31.251536,-138.0
2023-08-09 15:49:31.259226,-140.0
2023-08-09 15:49:31.266916,-136.0
2023-08-09 15:49:31.274607,-128.0
2023-08-09 15:49:31.282297,-124.0
2023-08-09 15:49:31.289987,-119.0
2023-08-09 15:49:31.297678,-119.0
2023-08-09 15:49:31.305368,-117.0
2023-08-09 15:49:31.313058,-109.0
2023-08-09 15:49:31.320749,-100.0
2023-08-09 15:49:31.328439,-97.0
2023-08-09 15:49:31.336129,-100.0
2023-08-09 15:49:31.343820,-102.0
2023-08-09 15:49:31.351510,-97.0
2023-08-09 15:49:31.359200,-93.0
2023-08-09 15:49:31.366891,-95.0
2023-08-09 15:49:31.374581,-97.0
2023-08-09 15:49:31.382271,-93.0
2023-08-09 15:49:31.389962,-93.0
2023-08-09 15:49:31.397652,-95.0
2023-08-09 15:49:31.405342,-93.0
2023-08-09 15:49:31.413033,-93.0
2023-08-09 15:49:31.420723,-97.0
2023-08-09 15:49:31.428413,-105.0
2023-08-09 15:49:31.436104,-107.0
2023-08-09 15:49:31.443794,-109.0
2023-08-09 15:49:31.451484,-107.0
2023-08-09 15:49:31.459175,-102.0
2023-08-09 15:49:31.466865,-97.0
2023-08-09 15:49:31.474555,-97.0
2023-08-09 15:49:31.482246,-97.0
2023-08-09 15:49:31.489936,-95.0
2023-08-09 15:49:31.497626,-90.0
2023-08-09 15:49:31.505317,-88.0
2023-08-09 15:49:31.513007,-88.0
2023-08-09 15:49:31.520697,-88.0
2023-08-09 15:49:31.528388,-85.0
2023-08-09 15:49:31.536078,-81.0
2023-08-09 15:49:31.543768,-78.0
2023-08-09 15:49:31.551459,-81.0
2023-08-09 15:49:31.559149,-81.0
2023-08-09 15:49:31.566839,-76.0
2023-08-09 15:49:31.574530,-76.0
2023-08-09 15:49:31.582220,-78.0
2023-08-09 15:49:31.589910,-71.0
2023-08-09 15:49:31.597601,-66.0
2023-08-09 15:49:31.605291,-59.0
2023-08-09 15:49:31.612981,-35.0
2023-08-09 15:49:31.620672,-9.0
2023-08-09 15:49:31.628362,-11.0
2023-08-09 15:49:31.636052,-35.0
2023-08-09 15:49:31.643743,-42.0
2023-08-09 15:49:31.651433,-38.0
2023-08-09 15:49:31.659123,-50.0
2023-08-09 15:49:31.666814,-69.0
2023-08-09 15:49:31.674504,-83.0
2023-08-09 15:49:31.682194,-83.0
2023-08-09 15:49:31.689885,-81.0
2023-08-09 15:49:31.697575,-83.0
2023-08-09 15:49:31.705265,-83.0
2023-08-09 15:49:31.712956,-83.0
2023-08-09 15:49:31.720646,-83.0
2023-08-09 15:49:31.728336,-81.0
2023-08-09 15:49:31.736027,-74.0
2023-08-09 15:49:31.743717,-74.0
2023-08-09 15:49:31.751407,-90.0
2023-08-09 15:49:31.759098,-112.0
2023-08-09 15:49:31.766788,-57.0
2023-08-09 15:49:31.774478,148.0
2023-08-09 15:49:31.782169,437.0
2023-08-09 15:49:31.789859,563.0
2023-08-09 15:49:31.797549,300.0
2023-08-09 15:49:31.805240,-95.0
2023-08-09 15:49:31.812930,-226.0
2023-08-09 15:49:31.820620,-214.0
2023-08-09 15:49:31.828310,-219.0
2023-08-09 15:49:31.836001,-140.0
2023-08-09 15:49:31.843691,-62.0
2023-08-09 15:49:31.851381,-81.0
2023-08-09 15:49:31.859072,-95.0
2023-08-09 15:49:31.866762,-64.0
2023-08-09 15:49:31.874452,-57.0
2023-08-09 15:49:31.882143,-62.0
2023-08-09 15:49:31.889833,-47.0
2023-08-09 15:49:31.897523,-40.0
2023-08-09 15:49:31.905214,-38.0
2023-08-09 15:49:31.912904,-28.0
2023-08-09 15:49:31.920594,-14.0
2023-08-09 15:49:31.928285,-7.0
2023-08-09 15:49:31.935975,2.0
2023-08-09 15:49:31.943665,19.0
2023-08-09 15:49:31.951356,38.0
2023-08-09 15:49:31.959046,62.0
2023-08-09 15:49:31.966736,83.0
2023-08-09 15:49:31.974427,90.0
2023-08-09 15:49:31.982117,88.0
2023-08-09 15:49:31.989807,88.0
2023-08-09 15:49:31.997498,81.0
2023-08-09 15:49:32.005188,59.0
2023-08-09 15:49:32.012878,16.0
2023-08-09 15:49:32.020569,-35.0
2023-08-09 15:49:32.028259,-78.0
2023-08-09 15:49:32.035949,-109.0
2023-08-09 15:49:32.043640,-136.0
2023-08-09 15:49:32.051330,-152.0
2023-08-09 15:49:32.059020,-162.0
2023-08-09 15:49:32.066711,-162.0
2023-08-09 15:49:32.074401,-164.0
2023-08-09 15:49:32.082091,-162.0
2023-08-09 15:49:32.089782,-157.0
2023-08-09 15:49:32.097472,-150.0
2023-08-09 15:49:32.105162,-145.0
2023-08-09 15:49:32.112853,-136.0
2023-08-09 15:49:32.120543,-133.0
2023-08-09 15:49:32.128233,-128.0
2023-08-09 15:49:32.135924,-124.0
2023-08-09 15:49:32.143614,-117.0
2023-08-09 15:49:32.151304,-114.0
2023-08-09 15:49:32.158995,-109.0
2023-08-09 15:49:32.166685,-109.0
2023-08-09 15:49:32.174375,-107.0
2023-08-09 15:49:32.182066,-102.0
2023-08-09 15:49:32.189756,-100.0
2023-08-09 15:49:32.197446,-102.0
2023-08-09 15:49:32.205137,-102.0
2023-08-09 15:49:32.212827,-93.0
2023-08-09 15:49:32.220517,-90.0
2023-08-09 15:49:32.228208,-97.0
2023-08-09 15:49:32.235898,-93.0
2023-08-09 15:49:32.243588,-95.0
2023-08-09 15:49:32.251279,-100.0
2023-08-09 15:49:32.258969,-93.0
2023-08-09 15:49:32.266659,-88.0
2023-08-09 15:49:32.274350,-88.0
2023-08-09 15:49:32.282040,-90.0
2023-08-09 15:49:32.289730,-90.0
2023-08-09 15:49:32.297421,-88.0
2023-08-09 15:49:32.305111,-88.0
2023-08-09 15:49:32.312801,-85.0
2023-08-09 15:49:32.320492,-83.0
2023-08-09 15:49:32.328182,-78.0
2023-08-09 15:49:32.335872,-76.0
2023-08-09 15:49:32.343563,-76.0
2023-08-09 15:49:32.351253,-78.0
2023-08-09 15:49:32.358943,-76.0
2023-08-09 15:49:32.366634,-71.0
2023-08-09 15:49:32.374324,-74.0
2023-08-09 15:49:32.382014,-76.0
2023-08-09 15:49:32.389705,-76.0
2023-08-09 15:49:32.397395,-71.0
2023-08-09 15:49:32.405085,-74.0
