time,ECG
2023-08-11 18:49:34.496579,127.0
2023-08-11 18:49:34.504269,150.0
2023-08-11 18:49:34.511959,170.0
2023-08-11 18:49:34.519648,196.0
2023-08-11 18:49:34.527338,225.0
2023-08-11 18:49:34.535028,239.0
2023-08-11 18:49:34.542718,251.0
2023-08-11 18:49:34.550407,258.0
2023-08-11 18:49:34.558097,254.0
2023-08-11 18:49:34.565787,232.0
2023-08-11 18:49:34.573476,198.0
2023-08-11 18:49:34.581166,143.0
2023-08-11 18:49:34.588856,67.0
2023-08-11 18:49:34.596546,-11.0
2023-08-11 18:49:34.604235,-79.0
2023-08-11 18:49:34.611925,-129.0
2023-08-11 18:49:34.619615,-167.0
2023-08-11 18:49:34.627305,-196.0
2023-08-11 18:49:34.634994,-210.0
2023-08-11 18:49:34.642684,-213.0
2023-08-11 18:49:34.650374,-213.0
2023-08-11 18:49:34.658064,-213.0
2023-08-11 18:49:34.665753,-206.0
2023-08-11 18:49:34.673443,-194.0
2023-08-11 18:49:34.681133,-182.0
2023-08-11 18:49:34.688823,-177.0
2023-08-11 18:49:34.696512,-177.0
2023-08-11 18:49:34.704202,-170.0
2023-08-11 18:49:34.711892,-167.0
2023-08-11 18:49:34.719582,-165.0
2023-08-11 18:49:34.727271,-158.0
2023-08-11 18:49:34.734961,-150.0
2023-08-11 18:49:34.742651,-148.0
2023-08-11 18:49:34.750340,-146.0
2023-08-11 18:49:34.758030,-143.0
2023-08-11 18:49:34.765720,-141.0
2023-08-11 18:49:34.773410,-141.0
2023-08-11 18:49:34.781099,-141.0
2023-08-11 18:49:34.788789,-139.0
2023-08-11 18:49:34.796479,-139.0
2023-08-11 18:49:34.804169,-134.0
2023-08-11 18:49:34.811858,-134.0
2023-08-11 18:49:34.819548,-134.0
2023-08-11 18:49:34.827238,-131.0
2023-08-11 18:49:34.834928,-127.0
2023-08-11 18:49:34.842617,-127.0
2023-08-11 18:49:34.850307,-124.0
2023-08-11 18:49:34.857997,-119.0
2023-08-11 18:49:34.865687,-119.0
2023-08-11 18:49:34.873376,-119.0
2023-08-11 18:49:34.881066,-115.0
2023-08-11 18:49:34.888756,-110.0
2023-08-11 18:49:34.896446,-110.0
2023-08-11 18:49:34.904135,-107.0
2023-08-11 18:49:34.911825,-105.0
2023-08-11 18:49:34.919515,-107.0
2023-08-11 18:49:34.927205,-107.0
2023-08-11 18:49:34.934894,-110.0
2023-08-11 18:49:34.942584,-112.0
2023-08-11 18:49:34.950274,-115.0
2023-08-11 18:49:34.957963,-112.0
2023-08-11 18:49:34.965653,-112.0
2023-08-11 18:49:34.973343,-115.0
2023-08-11 18:49:34.981033,-110.0
2023-08-11 18:49:34.988722,-105.0
2023-08-11 18:49:34.996412,-105.0
2023-08-11 18:49:35.004102,-105.0
2023-08-11 18:49:35.011792,-105.0
2023-08-11 18:49:35.019481,-105.0
2023-08-11 18:49:35.027171,-107.0
2023-08-11 18:49:35.034861,-105.0
2023-08-11 18:49:35.042551,-107.0
2023-08-11 18:49:35.050240,-117.0
2023-08-11 18:49:35.057930,-115.0
2023-08-11 18:49:35.065620,-107.0
2023-08-11 18:49:35.073310,-105.0
2023-08-11 18:49:35.080999,-105.0
2023-08-11 18:49:35.088689,-105.0
2023-08-11 18:49:35.096379,-103.0
2023-08-11 18:49:35.104069,-95.0
2023-08-11 18:49:35.111758,-95.0
2023-08-11 18:49:35.119448,-100.0
2023-08-11 18:49:35.127138,-95.0
2023-08-11 18:49:35.134827,-93.0
2023-08-11 18:49:35.142517,-93.0
2023-08-11 18:49:35.150207,-91.0
2023-08-11 18:49:35.157897,-86.0
2023-08-11 18:49:35.165586,-88.0
2023-08-11 18:49:35.173276,-88.0
2023-08-11 18:49:35.180966,-86.0
2023-08-11 18:49:35.188656,-86.0
2023-08-11 18:49:35.196345,-91.0
2023-08-11 18:49:35.204035,-93.0
2023-08-11 18:49:35.211725,-93.0
2023-08-11 18:49:35.219415,-69.0
2023-08-11 18:49:35.227104,-31.0
2023-08-11 18:49:35.234794,-14.0
2023-08-11 18:49:35.242484,-16.0
2023-08-11 18:49:35.250174,-14.0
2023-08-11 18:49:35.257863,-26.0
2023-08-11 18:49:35.265553,-64.0
2023-08-11 18:49:35.273243,-95.0
2023-08-11 18:49:35.280933,-93.0
2023-08-11 18:49:35.288622,-83.0
2023-08-11 18:49:35.296312,-83.0
2023-08-11 18:49:35.304002,-86.0
2023-08-11 18:49:35.311691,-88.0
2023-08-11 18:49:35.319381,-91.0
2023-08-11 18:49:35.327071,-86.0
2023-08-11 18:49:35.334761,-93.0
2023-08-11 18:49:35.342450,-110.0
2023-08-11 18:49:35.350140,28.0
2023-08-11 18:49:35.357830,575.0
2023-08-11 18:49:35.365520,1291.0
2023-08-11 18:49:35.373209,1476.0
2023-08-11 18:49:35.380899,680.0
2023-08-11 18:49:35.388589,-479.0
2023-08-11 18:49:35.396279,-795.0
2023-08-11 18:49:35.403968,-328.0
2023-08-11 18:49:35.411658,-105.0
2023-08-11 18:49:35.419348,-208.0
2023-08-11 18:49:35.427038,-194.0
2023-08-11 18:49:35.434727,-134.0
2023-08-11 18:49:35.442417,-158.0
2023-08-11 18:49:35.450107,-158.0
2023-08-11 18:49:35.457797,-119.0
2023-08-11 18:49:35.465486,-103.0
2023-08-11 18:49:35.473176,-95.0
2023-08-11 18:49:35.480866,-81.0
2023-08-11 18:49:35.488555,-71.0
2023-08-11 18:49:35.496245,-67.0
2023-08-11 18:49:35.503935,-50.0
2023-08-11 18:49:35.511625,-35.0
2023-08-11 18:49:35.519314,-26.0
2023-08-11 18:49:35.527004,-9.0
2023-08-11 18:49:35.534694,4.0
2023-08-11 18:49:35.542384,16.0
2023-08-11 18:49:35.550073,28.0
2023-08-11 18:49:35.557763,43.0
2023-08-11 18:49:35.565453,59.0
2023-08-11 18:49:35.573143,79.0
2023-08-11 18:49:35.580832,93.0
2023-08-11 18:49:35.588522,103.0
2023-08-11 18:49:35.596212,129.0
2023-08-11 18:49:35.603902,160.0
2023-08-11 18:49:35.611591,179.0
2023-08-11 18:49:35.619281,201.0
2023-08-11 18:49:35.626971,225.0
2023-08-11 18:49:35.634661,249.0
2023-08-11 18:49:35.642350,261.0
2023-08-11 18:49:35.650040,266.0
2023-08-11 18:49:35.657730,266.0
2023-08-11 18:49:35.665419,254.0
2023-08-11 18:49:35.673109,215.0
2023-08-11 18:49:35.680799,162.0
2023-08-11 18:49:35.688489,91.0
2023-08-11 18:49:35.696178,11.0
2023-08-11 18:49:35.703868,-55.0
2023-08-11 18:49:35.711558,-115.0
2023-08-11 18:49:35.719248,-165.0
2023-08-11 18:49:35.726937,-191.0
2023-08-11 18:49:35.734627,-203.0
2023-08-11 18:49:35.742317,-215.0
2023-08-11 18:49:35.750007,-210.0
2023-08-11 18:49:35.757696,-201.0
2023-08-11 18:49:35.765386,-198.0
2023-08-11 18:49:35.773076,-196.0
2023-08-11 18:49:35.780766,-179.0
2023-08-11 18:49:35.788455,-172.0
2023-08-11 18:49:35.796145,-172.0
2023-08-11 18:49:35.803835,-160.0
2023-08-11 18:49:35.811525,-153.0
2023-08-11 18:49:35.819214,-150.0
2023-08-11 18:49:35.826904,-141.0
2023-08-11 18:49:35.834594,-134.0
2023-08-11 18:49:35.842283,-131.0
2023-08-11 18:49:35.849973,-131.0
2023-08-11 18:49:35.857663,-129.0
2023-08-11 18:49:35.865353,-127.0
2023-08-11 18:49:35.873042,-127.0
2023-08-11 18:49:35.880732,-122.0
2023-08-11 18:49:35.888422,-119.0
2023-08-11 18:49:35.896112,-122.0
2023-08-11 18:49:35.903801,-124.0
2023-08-11 18:49:35.911491,-119.0
2023-08-11 18:49:35.919181,-115.0
2023-08-11 18:49:35.926871,-119.0
2023-08-11 18:49:35.934560,-122.0
2023-08-11 18:49:35.942250,-115.0
2023-08-11 18:49:35.949940,-119.0
2023-08-11 18:49:35.957630,-119.0
2023-08-11 18:49:35.965319,-107.0
2023-08-11 18:49:35.973009,-105.0
2023-08-11 18:49:35.980699,-105.0
2023-08-11 18:49:35.988389,-105.0
2023-08-11 18:49:35.996078,-107.0
2023-08-11 18:49:36.003768,-103.0
2023-08-11 18:49:36.011458,-98.0
2023-08-11 18:49:36.019147,-100.0
2023-08-11 18:49:36.026837,-100.0
2023-08-11 18:49:36.034527,-98.0
2023-08-11 18:49:36.042217,-98.0
2023-08-11 18:49:36.049906,-98.0
2023-08-11 18:49:36.057596,-95.0
2023-08-11 18:49:36.065286,-95.0
2023-08-11 18:49:36.072976,-95.0
2023-08-11 18:49:36.080665,-93.0
2023-08-11 18:49:36.088355,-95.0
2023-08-11 18:49:36.096045,-100.0
2023-08-11 18:49:36.103735,-98.0
2023-08-11 18:49:36.111424,-93.0
2023-08-11 18:49:36.119114,-86.0
2023-08-11 18:49:36.126804,-86.0
2023-08-11 18:49:36.134494,-93.0
2023-08-11 18:49:36.142183,-93.0
2023-08-11 18:49:36.149873,-88.0
2023-08-11 18:49:36.157563,-83.0
2023-08-11 18:49:36.165253,-86.0
2023-08-11 18:49:36.172942,-86.0
2023-08-11 18:49:36.180632,-83.0
2023-08-11 18:49:36.188322,-83.0
2023-08-11 18:49:36.196011,-86.0
2023-08-11 18:49:36.203701,-81.0
2023-08-11 18:49:36.211391,-81.0
2023-08-11 18:49:36.219081,-93.0
2023-08-11 18:49:36.226770,-91.0
2023-08-11 18:49:36.234460,-81.0
2023-08-11 18:49:36.242150,-81.0
2023-08-11 18:49:36.249840,-83.0
2023-08-11 18:49:36.257529,-76.0
2023-08-11 18:49:36.265219,-79.0
2023-08-11 18:49:36.272909,-86.0
2023-08-11 18:49:36.280599,-88.0
2023-08-11 18:49:36.288288,-83.0
2023-08-11 18:49:36.295978,-59.0
2023-08-11 18:49:36.303668,-21.0
2023-08-11 18:49:36.311358,-9.0
2023-08-11 18:49:36.319047,-16.0
2023-08-11 18:49:36.326737,-14.0
2023-08-11 18:49:36.334427,-23.0
2023-08-11 18:49:36.342117,-57.0
2023-08-11 18:49:36.349806,-83.0
2023-08-11 18:49:36.357496,-83.0
2023-08-11 18:49:36.365186,-76.0
2023-08-11 18:49:36.372875,-81.0
2023-08-11 18:49:36.380565,-83.0
2023-08-11 18:49:36.388255,-79.0
2023-08-11 18:49:36.395945,-76.0
2023-08-11 18:49:36.403634,-81.0
2023-08-11 18:49:36.411324,-98.0
2023-08-11 18:49:36.419014,-88.0
2023-08-11 18:49:36.426704,167.0
2023-08-11 18:49:36.434393,817.0
2023-08-11 18:49:36.442083,1409.0
2023-08-11 18:49:36.449773,1203.0
2023-08-11 18:49:36.457463,153.0
2023-08-11 18:49:36.465152,-730.0
2023-08-11 18:49:36.472842,-659.0
2023-08-11 18:49:36.480532,-225.0
2023-08-11 18:49:36.488222,-136.0
2023-08-11 18:49:36.495911,-196.0
2023-08-11 18:49:36.503601,-160.0
2023-08-11 18:49:36.511291,-129.0
2023-08-11 18:49:36.518981,-131.0
2023-08-11 18:49:36.526670,-115.0
2023-08-11 18:49:36.534360,-98.0
2023-08-11 18:49:36.542050,-91.0
2023-08-11 18:49:36.549740,-81.0
2023-08-11 18:49:36.557429,-67.0
2023-08-11 18:49:36.565119,-57.0
2023-08-11 18:49:36.572809,-47.0
2023-08-11 18:49:36.580498,-38.0
2023-08-11 18:49:36.588188,-26.0
2023-08-11 18:49:36.595878,-14.0
2023-08-11 18:49:36.603568,-2.0
2023-08-11 18:49:36.611257,11.0
2023-08-11 18:49:36.618947,21.0
2023-08-11 18:49:36.626637,35.0
2023-08-11 18:49:36.634327,55.0
2023-08-11 18:49:36.642016,69.0
2023-08-11 18:49:36.649706,86.0
2023-08-11 18:49:36.657396,105.0
2023-08-11 18:49:36.665086,119.0
2023-08-11 18:49:36.672775,136.0
2023-08-11 18:49:36.680465,162.0
2023-08-11 18:49:36.688155,184.0
2023-08-11 18:49:36.695845,203.0
2023-08-11 18:49:36.703534,227.0
2023-08-11 18:49:36.711224,237.0
2023-08-11 18:49:36.718914,239.0
2023-08-11 18:49:36.726604,246.0
2023-08-11 18:49:36.734293,242.0
2023-08-11 18:49:36.741983,218.0
2023-08-11 18:49:36.749673,179.0
2023-08-11 18:49:36.757362,122.0
2023-08-11 18:49:36.765052,43.0
2023-08-11 18:49:36.772742,-31.0
2023-08-11 18:49:36.780432,-88.0
2023-08-11 18:49:36.788121,-134.0
2023-08-11 18:49:36.795811,-174.0
2023-08-11 18:49:36.803501,-196.0
2023-08-11 18:49:36.811191,-206.0
2023-08-11 18:49:36.818880,-210.0
2023-08-11 18:49:36.826570,-206.0
2023-08-11 18:49:36.834260,-196.0
2023-08-11 18:49:36.841950,-191.0
2023-08-11 18:49:36.849639,-186.0
2023-08-11 18:49:36.857329,-174.0
2023-08-11 18:49:36.865019,-170.0
2023-08-11 18:49:36.872709,-162.0
2023-08-11 18:49:36.880398,-153.0
2023-08-11 18:49:36.888088,-146.0
2023-08-11 18:49:36.895778,-143.0
2023-08-11 18:49:36.903468,-136.0
2023-08-11 18:49:36.911157,-136.0
2023-08-11 18:49:36.918847,-139.0
2023-08-11 18:49:36.926537,-136.0
2023-08-11 18:49:36.934226,-136.0
2023-08-11 18:49:36.941916,-136.0
2023-08-11 18:49:36.949606,-141.0
2023-08-11 18:49:36.957296,-148.0
2023-08-11 18:49:36.964985,-141.0
2023-08-11 18:49:36.972675,-134.0
2023-08-11 18:49:36.980365,-139.0
2023-08-11 18:49:36.988055,-141.0
2023-08-11 18:49:36.995744,-131.0
2023-08-11 18:49:37.003434,-129.0
2023-08-11 18:49:37.011124,-136.0
2023-08-11 18:49:37.018814,-134.0
2023-08-11 18:49:37.026503,-127.0
2023-08-11 18:49:37.034193,-127.0
2023-08-11 18:49:37.041883,-122.0
2023-08-11 18:49:37.049573,-117.0
2023-08-11 18:49:37.057262,-119.0
2023-08-11 18:49:37.064952,-124.0
2023-08-11 18:49:37.072642,-127.0
2023-08-11 18:49:37.080332,-127.0
2023-08-11 18:49:37.088021,-119.0
2023-08-11 18:49:37.095711,-117.0
2023-08-11 18:49:37.103401,-117.0
2023-08-11 18:49:37.111090,-117.0
2023-08-11 18:49:37.118780,-117.0
2023-08-11 18:49:37.126470,-115.0
2023-08-11 18:49:37.134160,-110.0
2023-08-11 18:49:37.141849,-107.0
2023-08-11 18:49:37.149539,-112.0
2023-08-11 18:49:37.157229,-110.0
2023-08-11 18:49:37.164919,-107.0
2023-08-11 18:49:37.172608,-107.0
2023-08-11 18:49:37.180298,-105.0
2023-08-11 18:49:37.187988,-105.0
2023-08-11 18:49:37.195678,-105.0
2023-08-11 18:49:37.203367,-100.0
2023-08-11 18:49:37.211057,-95.0
2023-08-11 18:49:37.218747,-98.0
2023-08-11 18:49:37.226437,-93.0
2023-08-11 18:49:37.234126,-91.0
2023-08-11 18:49:37.241816,-93.0
2023-08-11 18:49:37.249506,-100.0
2023-08-11 18:49:37.257196,-105.0
2023-08-11 18:49:37.264885,-98.0
2023-08-11 18:49:37.272575,-93.0
2023-08-11 18:49:37.280265,-93.0
2023-08-11 18:49:37.287954,-93.0
2023-08-11 18:49:37.295644,-95.0
2023-08-11 18:49:37.303334,-91.0
2023-08-11 18:49:37.311024,-86.0
2023-08-11 18:49:37.318713,-86.0
2023-08-11 18:49:37.326403,-86.0
2023-08-11 18:49:37.334093,-86.0
2023-08-11 18:49:37.341783,-81.0
2023-08-11 18:49:37.349472,-83.0
2023-08-11 18:49:37.357162,-88.0
2023-08-11 18:49:37.364852,-91.0
2023-08-11 18:49:37.372542,-86.0
2023-08-11 18:49:37.380231,-57.0
2023-08-11 18:49:37.387921,-16.0
2023-08-11 18:49:37.395611,-4.0
2023-08-11 18:49:37.403301,-16.0
2023-08-11 18:49:37.410990,-19.0
2023-08-11 18:49:37.418680,-38.0
2023-08-11 18:49:37.426370,-79.0
2023-08-11 18:49:37.434060,-95.0
2023-08-11 18:49:37.441749,-88.0
2023-08-11 18:49:37.449439,-91.0
2023-08-11 18:49:37.457129,-95.0
2023-08-11 18:49:37.464818,-95.0
2023-08-11 18:49:37.472508,-98.0
2023-08-11 18:49:37.480198,-95.0
2023-08-11 18:49:37.487888,-93.0
2023-08-11 18:49:37.495577,-110.0
2023-08-11 18:49:37.503267,-95.0
2023-08-11 18:49:37.510957,172.0
2023-08-11 18:49:37.518647,819.0
2023-08-11 18:49:37.526336,1411.0
2023-08-11 18:49:37.534026,1241.0
2023-08-11 18:49:37.541716,194.0
2023-08-11 18:49:37.549406,-733.0
2023-08-11 18:49:37.557095,-637.0
2023-08-11 18:49:37.564785,-172.0
2023-08-11 18:49:37.572475,-136.0
2023-08-11 18:49:37.580165,-225.0
2023-08-11 18:49:37.587854,-162.0
2023-08-11 18:49:37.595544,-131.0
2023-08-11 18:49:37.603234,-155.0
2023-08-11 18:49:37.610924,-129.0
2023-08-11 18:49:37.618613,-100.0
2023-08-11 18:49:37.626303,-100.0
2023-08-11 18:49:37.633993,-88.0
2023-08-11 18:49:37.641682,-69.0
2023-08-11 18:49:37.649372,-64.0
2023-08-11 18:49:37.657062,-62.0
2023-08-11 18:49:37.664752,-47.0
2023-08-11 18:49:37.672441,-31.0
2023-08-11 18:49:37.680131,-21.0
2023-08-11 18:49:37.687821,-4.0
2023-08-11 18:49:37.695511,7.0
2023-08-11 18:49:37.703200,16.0
2023-08-11 18:49:37.710890,33.0
2023-08-11 18:49:37.718580,52.0
2023-08-11 18:49:37.726270,69.0
2023-08-11 18:49:37.733959,83.0
2023-08-11 18:49:37.741649,100.0
2023-08-11 18:49:37.749339,119.0
2023-08-11 18:49:37.757029,143.0
2023-08-11 18:49:37.764718,170.0
2023-08-11 18:49:37.772408,191.0
2023-08-11 18:49:37.780098,215.0
2023-08-11 18:49:37.787788,234.0
2023-08-11 18:49:37.795477,249.0
2023-08-11 18:49:37.803167,258.0
2023-08-11 18:49:37.810857,263.0
2023-08-11 18:49:37.818546,258.0
2023-08-11 18:49:37.826236,239.0
2023-08-11 18:49:37.833926,191.0
2023-08-11 18:49:37.841616,122.0
2023-08-11 18:49:37.849305,50.0
2023-08-11 18:49:37.856995,-23.0
2023-08-11 18:49:37.864685,-88.0
2023-08-11 18:49:37.872375,-139.0
2023-08-11 18:49:37.880064,-172.0
2023-08-11 18:49:37.887754,-198.0
2023-08-11 18:49:37.895444,-213.0
2023-08-11 18:49:37.903134,-215.0
2023-08-11 18:49:37.910823,-210.0
2023-08-11 18:49:37.918513,-203.0
2023-08-11 18:49:37.926203,-201.0
2023-08-11 18:49:37.933893,-196.0
2023-08-11 18:49:37.941582,-182.0
2023-08-11 18:49:37.949272,-172.0
2023-08-11 18:49:37.956962,-167.0
2023-08-11 18:49:37.964652,-167.0
2023-08-11 18:49:37.972341,-165.0
2023-08-11 18:49:37.980031,-158.0
2023-08-11 18:49:37.987721,-150.0
2023-08-11 18:49:37.995410,-141.0
2023-08-11 18:49:38.003100,-136.0
2023-08-11 18:49:38.010790,-139.0
2023-08-11 18:49:38.018480,-139.0
2023-08-11 18:49:38.026169,-134.0
2023-08-11 18:49:38.033859,-131.0
2023-08-11 18:49:38.041549,-131.0
2023-08-11 18:49:38.049239,-134.0
2023-08-11 18:49:38.056928,-136.0
2023-08-11 18:49:38.064618,-139.0
2023-08-11 18:49:38.072308,-139.0
2023-08-11 18:49:38.079998,-134.0
2023-08-11 18:49:38.087687,-136.0
2023-08-11 18:49:38.095377,-141.0
2023-08-11 18:49:38.103067,-143.0
2023-08-11 18:49:38.110757,-143.0
2023-08-11 18:49:38.118446,-141.0
2023-08-11 18:49:38.126136,-139.0
2023-08-11 18:49:38.133826,-136.0
2023-08-11 18:49:38.141516,-131.0
2023-08-11 18:49:38.149205,-136.0
2023-08-11 18:49:38.156895,-136.0
2023-08-11 18:49:38.164585,-129.0
2023-08-11 18:49:38.172275,-124.0
2023-08-11 18:49:38.179964,-124.0
2023-08-11 18:49:38.187654,-122.0
2023-08-11 18:49:38.195344,-122.0
2023-08-11 18:49:38.203033,-119.0
2023-08-11 18:49:38.210723,-112.0
2023-08-11 18:49:38.218413,-112.0
2023-08-11 18:49:38.226103,-115.0
2023-08-11 18:49:38.233792,-112.0
2023-08-11 18:49:38.241482,-107.0
2023-08-11 18:49:38.249172,-110.0
2023-08-11 18:49:38.256862,-110.0
2023-08-11 18:49:38.264551,-105.0
2023-08-11 18:49:38.272241,-103.0
2023-08-11 18:49:38.279931,-100.0
2023-08-11 18:49:38.287621,-100.0
2023-08-11 18:49:38.295310,-100.0
2023-08-11 18:49:38.303000,-98.0
2023-08-11 18:49:38.310690,-95.0
2023-08-11 18:49:38.318380,-95.0
2023-08-11 18:49:38.326069,-93.0
2023-08-11 18:49:38.333759,-93.0
2023-08-11 18:49:38.341449,-95.0
2023-08-11 18:49:38.349139,-93.0
2023-08-11 18:49:38.356828,-88.0
2023-08-11 18:49:38.364518,-86.0
2023-08-11 18:49:38.372208,-86.0
2023-08-11 18:49:38.379897,-88.0
2023-08-11 18:49:38.387587,-91.0
2023-08-11 18:49:38.395277,-93.0
2023-08-11 18:49:38.402967,-91.0
2023-08-11 18:49:38.410656,-83.0
2023-08-11 18:49:38.418346,-93.0
2023-08-11 18:49:38.426036,-100.0
2023-08-11 18:49:38.433726,-91.0
2023-08-11 18:49:38.441415,-86.0
2023-08-11 18:49:38.449105,-93.0
2023-08-11 18:49:38.456795,-88.0
2023-08-11 18:49:38.464485,-86.0
2023-08-11 18:49:38.472174,-91.0
2023-08-11 18:49:38.479864,-86.0
2023-08-11 18:49:38.487554,-83.0
2023-08-11 18:49:38.495244,-91.0
2023-08-11 18:49:38.502933,-93.0
2023-08-11 18:49:38.510623,-88.0
2023-08-11 18:49:38.518313,-59.0
2023-08-11 18:49:38.526003,-23.0
2023-08-11 18:49:38.533692,-21.0
2023-08-11 18:49:38.541382,-28.0
2023-08-11 18:49:38.549072,-26.0
2023-08-11 18:49:38.556761,-52.0
2023-08-11 18:49:38.564451,-93.0
2023-08-11 18:49:38.572141,-98.0
2023-08-11 18:49:38.579831,-86.0
2023-08-11 18:49:38.587520,-91.0
2023-08-11 18:49:38.595210,-98.0
2023-08-11 18:49:38.602900,-98.0
2023-08-11 18:49:38.610590,-91.0
2023-08-11 18:49:38.618279,-91.0
2023-08-11 18:49:38.625969,-95.0
2023-08-11 18:49:38.633659,-119.0
2023-08-11 18:49:38.641349,-40.0
2023-08-11 18:49:38.649038,397.0
2023-08-11 18:49:38.656728,1119.0
2023-08-11 18:49:38.664418,1485.0
2023-08-11 18:49:38.672108,910.0
2023-08-11 18:49:38.679797,-266.0
2023-08-11 18:49:38.687487,-826.0
2023-08-11 18:49:38.695177,-445.0
2023-08-11 18:49:38.702867,-110.0
2023-08-11 18:49:38.710556,-194.0
2023-08-11 18:49:38.718246,-230.0
2023-08-11 18:49:38.725936,-148.0
2023-08-11 18:49:38.733625,-148.0
2023-08-11 18:49:38.741315,-160.0
2023-08-11 18:49:38.749005,-124.0
2023-08-11 18:49:38.756695,-107.0
2023-08-11 18:49:38.764384,-107.0
2023-08-11 18:49:38.772074,-88.0
2023-08-11 18:49:38.779764,-74.0
2023-08-11 18:49:38.787454,-67.0
2023-08-11 18:49:38.795143,-57.0
2023-08-11 18:49:38.802833,-40.0
2023-08-11 18:49:38.810523,-31.0
2023-08-11 18:49:38.818213,-19.0
2023-08-11 18:49:38.825902,-7.0
2023-08-11 18:49:38.833592,4.0
2023-08-11 18:49:38.841282,21.0
2023-08-11 18:49:38.848972,43.0
2023-08-11 18:49:38.856661,55.0
2023-08-11 18:49:38.864351,67.0
2023-08-11 18:49:38.872041,83.0
2023-08-11 18:49:38.879731,103.0
2023-08-11 18:49:38.887420,124.0
2023-08-11 18:49:38.895110,148.0
2023-08-11 18:49:38.902800,170.0
2023-08-11 18:49:38.910489,191.0
2023-08-11 18:49:38.918179,218.0
2023-08-11 18:49:38.925869,239.0
2023-08-11 18:49:38.933559,254.0
2023-08-11 18:49:38.941248,261.0
2023-08-11 18:49:38.948938,261.0
2023-08-11 18:49:38.956628,246.0
2023-08-11 18:49:38.964318,218.0
2023-08-11 18:49:38.972007,170.0
2023-08-11 18:49:38.979697,100.0
2023-08-11 18:49:38.987387,21.0
2023-08-11 18:49:38.995077,-47.0
2023-08-11 18:49:39.002766,-112.0
2023-08-11 18:49:39.010456,-167.0
2023-08-11 18:49:39.018146,-198.0
2023-08-11 18:49:39.025836,-215.0
2023-08-11 18:49:39.033525,-220.0
2023-08-11 18:49:39.041215,-218.0
2023-08-11 18:49:39.048905,-218.0
2023-08-11 18:49:39.056595,-213.0
2023-08-11 18:49:39.064284,-203.0
2023-08-11 18:49:39.071974,-198.0
2023-08-11 18:49:39.079664,-191.0
2023-08-11 18:49:39.087353,-177.0
2023-08-11 18:49:39.095043,-170.0
2023-08-11 18:49:39.102733,-165.0
2023-08-11 18:49:39.110423,-155.0
2023-08-11 18:49:39.118112,-146.0
2023-08-11 18:49:39.125802,-146.0
2023-08-11 18:49:39.133492,-148.0
2023-08-11 18:49:39.141182,-146.0
2023-08-11 18:49:39.148871,-143.0
2023-08-11 18:49:39.156561,-143.0
2023-08-11 18:49:39.164251,-143.0
2023-08-11 18:49:39.171941,-141.0
2023-08-11 18:49:39.179630,-141.0
2023-08-11 18:49:39.187320,-139.0
2023-08-11 18:49:39.195010,-134.0
2023-08-11 18:49:39.202700,-136.0
2023-08-11 18:49:39.210389,-141.0
2023-08-11 18:49:39.218079,-136.0
2023-08-11 18:49:39.225769,-139.0
2023-08-11 18:49:39.233459,-143.0
2023-08-11 18:49:39.241148,-134.0
2023-08-11 18:49:39.248838,-124.0
2023-08-11 18:49:39.256528,-124.0
2023-08-11 18:49:39.264217,-124.0
2023-08-11 18:49:39.271907,-124.0
2023-08-11 18:49:39.279597,-124.0
2023-08-11 18:49:39.287287,-117.0
2023-08-11 18:49:39.294976,-112.0
2023-08-11 18:49:39.302666,-110.0
2023-08-11 18:49:39.310356,-115.0
2023-08-11 18:49:39.318046,-115.0
2023-08-11 18:49:39.325735,-110.0
2023-08-11 18:49:39.333425,-107.0
2023-08-11 18:49:39.341115,-105.0
2023-08-11 18:49:39.348805,-103.0
2023-08-11 18:49:39.356494,-98.0
2023-08-11 18:49:39.364184,-100.0
2023-08-11 18:49:39.371874,-105.0
2023-08-11 18:49:39.379564,-103.0
2023-08-11 18:49:39.387253,-98.0
2023-08-11 18:49:39.394943,-95.0
2023-08-11 18:49:39.402633,-95.0
2023-08-11 18:49:39.410323,-95.0
2023-08-11 18:49:39.418012,-91.0
2023-08-11 18:49:39.425702,-88.0
2023-08-11 18:49:39.433392,-88.0
2023-08-11 18:49:39.441081,-83.0
2023-08-11 18:49:39.448771,-79.0
2023-08-11 18:49:39.456461,-86.0
2023-08-11 18:49:39.464151,-86.0
2023-08-11 18:49:39.471840,-76.0
2023-08-11 18:49:39.479530,-79.0
2023-08-11 18:49:39.487220,-86.0
2023-08-11 18:49:39.494910,-88.0
2023-08-11 18:49:39.502599,-93.0
2023-08-11 18:49:39.510289,-95.0
2023-08-11 18:49:39.517979,-88.0
2023-08-11 18:49:39.525669,-86.0
2023-08-11 18:49:39.533358,-86.0
2023-08-11 18:49:39.541048,-81.0
2023-08-11 18:49:39.548738,-76.0
2023-08-11 18:49:39.556428,-81.0
2023-08-11 18:49:39.564117,-79.0
2023-08-11 18:49:39.571807,-74.0
2023-08-11 18:49:39.579497,-76.0
2023-08-11 18:49:39.587187,-83.0
2023-08-11 18:49:39.594876,-81.0
2023-08-11 18:49:39.602566,-47.0
2023-08-11 18:49:39.610256,-7.0
2023-08-11 18:49:39.617945,-7.0
2023-08-11 18:49:39.625635,-14.0
2023-08-11 18:49:39.633325,-9.0
2023-08-11 18:49:39.641015,-31.0
2023-08-11 18:49:39.648704,-74.0
2023-08-11 18:49:39.656394,-86.0
2023-08-11 18:49:39.664084,-74.0
2023-08-11 18:49:39.671774,-74.0
2023-08-11 18:49:39.679463,-81.0
2023-08-11 18:49:39.687153,-86.0
2023-08-11 18:49:39.694843,-81.0
2023-08-11 18:49:39.702533,-76.0
2023-08-11 18:49:39.710222,-81.0
2023-08-11 18:49:39.717912,-100.0
2023-08-11 18:49:39.725602,-57.0
2023-08-11 18:49:39.733292,292.0
2023-08-11 18:49:39.740981,992.0
2023-08-11 18:49:39.748671,1461.0
2023-08-11 18:49:39.756361,1030.0
2023-08-11 18:49:39.764051,-100.0
2023-08-11 18:49:39.771740,-795.0
2023-08-11 18:49:39.779430,-536.0
2023-08-11 18:49:39.787120,-148.0
2023-08-11 18:49:39.794809,-146.0
2023-08-11 18:49:39.802499,-191.0
2023-08-11 18:49:39.810189,-141.0
2023-08-11 18:49:39.817879,-127.0
2023-08-11 18:49:39.825568,-136.0
2023-08-11 18:49:39.833258,-110.0
2023-08-11 18:49:39.840948,-88.0
2023-08-11 18:49:39.848638,-83.0
2023-08-11 18:49:39.856327,-71.0
2023-08-11 18:49:39.864017,-59.0
2023-08-11 18:49:39.871707,-57.0
2023-08-11 18:49:39.879397,-47.0
2023-08-11 18:49:39.887086,-31.0
2023-08-11 18:49:39.894776,-21.0
2023-08-11 18:49:39.902466,-11.0
2023-08-11 18:49:39.910156,0.0
2023-08-11 18:49:39.917845,14.0
2023-08-11 18:49:39.925535,28.0
2023-08-11 18:49:39.933225,40.0
2023-08-11 18:49:39.940915,55.0
2023-08-11 18:49:39.948604,69.0
2023-08-11 18:49:39.956294,83.0
2023-08-11 18:49:39.963984,100.0
2023-08-11 18:49:39.971674,122.0
2023-08-11 18:49:39.979363,143.0
2023-08-11 18:49:39.987053,165.0
2023-08-11 18:49:39.994743,182.0
2023-08-11 18:49:40.002432,201.0
2023-08-11 18:49:40.010122,222.0
2023-08-11 18:49:40.017812,239.0
2023-08-11 18:49:40.025502,246.0
2023-08-11 18:49:40.033191,244.0
2023-08-11 18:49:40.040881,237.0
2023-08-11 18:49:40.048571,218.0
2023-08-11 18:49:40.056261,170.0
2023-08-11 18:49:40.063950,100.0
2023-08-11 18:49:40.071640,28.0
2023-08-11 18:49:40.079330,-40.0
2023-08-11 18:49:40.087020,-107.0
2023-08-11 18:49:40.094709,-165.0
2023-08-11 18:49:40.102399,-191.0
2023-08-11 18:49:40.110089,-206.0
2023-08-11 18:49:40.117779,-215.0
2023-08-11 18:49:40.125468,-222.0
2023-08-11 18:49:40.133158,-227.0
2023-08-11 18:49:40.140848,-220.0
2023-08-11 18:49:40.148538,-208.0
2023-08-11 18:49:40.156227,-198.0
2023-08-11 18:49:40.163917,-189.0
2023-08-11 18:49:40.171607,-184.0
2023-08-11 18:49:40.179296,-186.0
2023-08-11 18:49:40.186986,-177.0
2023-08-11 18:49:40.194676,-165.0
2023-08-11 18:49:40.202366,-158.0
2023-08-11 18:49:40.210055,-155.0
2023-08-11 18:49:40.217745,-158.0
2023-08-11 18:49:40.225435,-165.0
2023-08-11 18:49:40.233125,-165.0
2023-08-11 18:49:40.240814,-160.0
2023-08-11 18:49:40.248504,-155.0
2023-08-11 18:49:40.256194,-153.0
2023-08-11 18:49:40.263884,-153.0
2023-08-11 18:49:40.271573,-155.0
2023-08-11 18:49:40.279263,-155.0
2023-08-11 18:49:40.286953,-155.0
2023-08-11 18:49:40.294643,-153.0
2023-08-11 18:49:40.302332,-153.0
2023-08-11 18:49:40.310022,-148.0
2023-08-11 18:49:40.317712,-143.0
2023-08-11 18:49:40.325402,-141.0
2023-08-11 18:49:40.333091,-141.0
2023-08-11 18:49:40.340781,-139.0
2023-08-11 18:49:40.348471,-136.0
2023-08-11 18:49:40.356160,-134.0
2023-08-11 18:49:40.363850,-131.0
2023-08-11 18:49:40.371540,-129.0
2023-08-11 18:49:40.379230,-129.0
2023-08-11 18:49:40.386919,-124.0
2023-08-11 18:49:40.394609,-119.0
2023-08-11 18:49:40.402299,-119.0
2023-08-11 18:49:40.409989,-119.0
2023-08-11 18:49:40.417678,-119.0
2023-08-11 18:49:40.425368,-115.0
2023-08-11 18:49:40.433058,-110.0
2023-08-11 18:49:40.440748,-110.0
2023-08-11 18:49:40.448437,-115.0
2023-08-11 18:49:40.456127,-110.0
2023-08-11 18:49:40.463817,-105.0
2023-08-11 18:49:40.471507,-105.0
2023-08-11 18:49:40.479196,-105.0
2023-08-11 18:49:40.486886,-103.0
2023-08-11 18:49:40.494576,-103.0
2023-08-11 18:49:40.502266,-107.0
2023-08-11 18:49:40.509955,-107.0
2023-08-11 18:49:40.517645,-103.0
2023-08-11 18:49:40.525335,-98.0
2023-08-11 18:49:40.533024,-103.0
2023-08-11 18:49:40.540714,-100.0
2023-08-11 18:49:40.548404,-93.0
2023-08-11 18:49:40.556094,-91.0
2023-08-11 18:49:40.563783,-91.0
2023-08-11 18:49:40.571473,-91.0
2023-08-11 18:49:40.579163,-88.0
2023-08-11 18:49:40.586853,-86.0
2023-08-11 18:49:40.594542,-86.0
2023-08-11 18:49:40.602232,-86.0
2023-08-11 18:49:40.609922,-88.0
2023-08-11 18:49:40.617612,-88.0
2023-08-11 18:49:40.625301,-91.0
2023-08-11 18:49:40.632991,-100.0
2023-08-11 18:49:40.640681,-95.0
2023-08-11 18:49:40.648371,-86.0
2023-08-11 18:49:40.656060,-83.0
2023-08-11 18:49:40.663750,-83.0
2023-08-11 18:49:40.671440,-83.0
2023-08-11 18:49:40.679130,-83.0
2023-08-11 18:49:40.686819,-86.0
2023-08-11 18:49:40.694509,-88.0
2023-08-11 18:49:40.702199,-88.0
2023-08-11 18:49:40.709888,-69.0
2023-08-11 18:49:40.717578,-28.0
2023-08-11 18:49:40.725268,-4.0
2023-08-11 18:49:40.732958,-11.0
2023-08-11 18:49:40.740647,-14.0
2023-08-11 18:49:40.748337,-16.0
2023-08-11 18:49:40.756027,-52.0
2023-08-11 18:49:40.763717,-86.0
2023-08-11 18:49:40.771406,-83.0
2023-08-11 18:49:40.779096,-74.0
2023-08-11 18:49:40.786786,-81.0
2023-08-11 18:49:40.794476,-86.0
2023-08-11 18:49:40.802165,-79.0
2023-08-11 18:49:40.809855,-76.0
2023-08-11 18:49:40.817545,-81.0
2023-08-11 18:49:40.825235,-86.0
2023-08-11 18:49:40.832924,-103.0
2023-08-11 18:49:40.840614,43.0
2023-08-11 18:49:40.848304,587.0
2023-08-11 18:49:40.855994,1284.0
2023-08-11 18:49:40.863683,1440.0
2023-08-11 18:49:40.871373,630.0
2023-08-11 18:49:40.879063,-503.0
2023-08-11 18:49:40.886752,-769.0
2023-08-11 18:49:40.894442,-289.0
2023-08-11 18:49:40.902132,-93.0
2023-08-11 18:49:40.909822,-210.0
2023-08-11 18:49:40.917511,-189.0
2023-08-11 18:49:40.925201,-122.0
2023-08-11 18:49:40.932891,-143.0
2023-08-11 18:49:40.940581,-139.0
2023-08-11 18:49:40.948270,-98.0
2023-08-11 18:49:40.955960,-88.0
2023-08-11 18:49:40.963650,-86.0
2023-08-11 18:49:40.971340,-71.0
2023-08-11 18:49:40.979029,-62.0
2023-08-11 18:49:40.986719,-57.0
2023-08-11 18:49:40.994409,-40.0
2023-08-11 18:49:41.002099,-28.0
2023-08-11 18:49:41.009788,-21.0
2023-08-11 18:49:41.017478,-14.0
2023-08-11 18:49:41.025168,0.0
2023-08-11 18:49:41.032858,16.0
2023-08-11 18:49:41.040547,33.0
2023-08-11 18:49:41.048237,45.0
2023-08-11 18:49:41.055927,59.0
2023-08-11 18:49:41.063616,76.0
2023-08-11 18:49:41.071306,93.0
2023-08-11 18:49:41.078996,110.0
2023-08-11 18:49:41.086686,134.0
2023-08-11 18:49:41.094375,155.0
2023-08-11 18:49:41.102065,174.0
2023-08-11 18:49:41.109755,196.0
2023-08-11 18:49:41.117445,218.0
2023-08-11 18:49:41.125134,237.0
2023-08-11 18:49:41.132824,251.0
2023-08-11 18:49:41.140514,258.0
2023-08-11 18:49:41.148204,254.0
2023-08-11 18:49:41.155893,239.0
2023-08-11 18:49:41.163583,203.0
2023-08-11 18:49:41.171273,143.0
2023-08-11 18:49:41.178963,76.0
2023-08-11 18:49:41.186652,7.0
2023-08-11 18:49:41.194342,-64.0
2023-08-11 18:49:41.202032,-124.0
2023-08-11 18:49:41.209722,-167.0
2023-08-11 18:49:41.217411,-198.0
2023-08-11 18:49:41.225101,-210.0
2023-08-11 18:49:41.232791,-213.0
2023-08-11 18:49:41.240480,-215.0
2023-08-11 18:49:41.248170,-213.0
2023-08-11 18:49:41.255860,-208.0
2023-08-11 18:49:41.263550,-198.0
2023-08-11 18:49:41.271239,-191.0
2023-08-11 18:49:41.278929,-182.0
2023-08-11 18:49:41.286619,-172.0
2023-08-11 18:49:41.294309,-165.0
2023-08-11 18:49:41.301998,-160.0
2023-08-11 18:49:41.309688,-160.0
2023-08-11 18:49:41.317378,-158.0
2023-08-11 18:49:41.325068,-148.0
2023-08-11 18:49:41.332757,-143.0
2023-08-11 18:49:41.340447,-146.0
2023-08-11 18:49:41.348137,-146.0
2023-08-11 18:49:41.355827,-146.0
2023-08-11 18:49:41.363516,-146.0
2023-08-11 18:49:41.371206,-146.0
2023-08-11 18:49:41.378896,-148.0
2023-08-11 18:49:41.386586,-150.0
2023-08-11 18:49:41.394275,-153.0
2023-08-11 18:49:41.401965,-148.0
2023-08-11 18:49:41.409655,-146.0
2023-08-11 18:49:41.417344,-141.0
2023-08-11 18:49:41.425034,-136.0
2023-08-11 18:49:41.432724,-139.0
2023-08-11 18:49:41.440414,-141.0
2023-08-11 18:49:41.448103,-134.0
2023-08-11 18:49:41.455793,-127.0
2023-08-11 18:49:41.463483,-129.0
2023-08-11 18:49:41.471173,-129.0
2023-08-11 18:49:41.478862,-127.0
2023-08-11 18:49:41.486552,-127.0
2023-08-11 18:49:41.494242,-122.0
2023-08-11 18:49:41.501932,-119.0
2023-08-11 18:49:41.509621,-127.0
2023-08-11 18:49:41.517311,-127.0
2023-08-11 18:49:41.525001,-119.0
2023-08-11 18:49:41.532691,-119.0
2023-08-11 18:49:41.540380,-119.0
2023-08-11 18:49:41.548070,-115.0
2023-08-11 18:49:41.555760,-112.0
2023-08-11 18:49:41.563450,-112.0
2023-08-11 18:49:41.571139,-112.0
2023-08-11 18:49:41.578829,-110.0
2023-08-11 18:49:41.586519,-107.0
2023-08-11 18:49:41.594209,-107.0
2023-08-11 18:49:41.601898,-107.0
2023-08-11 18:49:41.609588,-105.0
2023-08-11 18:49:41.617278,-105.0
2023-08-11 18:49:41.624967,-105.0
2023-08-11 18:49:41.632657,-103.0
2023-08-11 18:49:41.640347,-100.0
2023-08-11 18:49:41.648037,-100.0
2023-08-11 18:49:41.655726,-98.0
2023-08-11 18:49:41.663416,-95.0
2023-08-11 18:49:41.671106,-95.0
2023-08-11 18:49:41.678796,-93.0
2023-08-11 18:49:41.686485,-88.0
2023-08-11 18:49:41.694175,-88.0
2023-08-11 18:49:41.701865,-88.0
2023-08-11 18:49:41.709555,-88.0
2023-08-11 18:49:41.717244,-83.0
2023-08-11 18:49:41.724934,-81.0
2023-08-11 18:49:41.732624,-81.0
2023-08-11 18:49:41.740314,-81.0
2023-08-11 18:49:41.748003,-79.0
2023-08-11 18:49:41.755693,-81.0
2023-08-11 18:49:41.763383,-81.0
2023-08-11 18:49:41.771073,-79.0
2023-08-11 18:49:41.778762,-74.0
2023-08-11 18:49:41.786452,-71.0
2023-08-11 18:49:41.794142,-81.0
2023-08-11 18:49:41.801831,-86.0
2023-08-11 18:49:41.809521,-83.0
2023-08-11 18:49:41.817211,-81.0
2023-08-11 18:49:41.824901,-86.0
2023-08-11 18:49:41.832590,-71.0
2023-08-11 18:49:41.840280,-28.0
2023-08-11 18:49:41.847970,-7.0
2023-08-11 18:49:41.855660,-14.0
2023-08-11 18:49:41.863349,-16.0
2023-08-11 18:49:41.871039,-16.0
2023-08-11 18:49:41.878729,-47.0
2023-08-11 18:49:41.886419,-83.0
2023-08-11 18:49:41.894108,-86.0
2023-08-11 18:49:41.901798,-81.0
2023-08-11 18:49:41.909488,-86.0
2023-08-11 18:49:41.917178,-86.0
2023-08-11 18:49:41.924867,-79.0
2023-08-11 18:49:41.932557,-79.0
2023-08-11 18:49:41.940247,-83.0
2023-08-11 18:49:41.947937,-93.0
2023-08-11 18:49:41.955626,-110.0
2023-08-11 18:49:41.963316,11.0
2023-08-11 18:49:41.971006,529.0
2023-08-11 18:49:41.978695,1263.0
2023-08-11 18:49:41.986385,1507.0
2023-08-11 18:49:41.994075,757.0
2023-08-11 18:49:42.001765,-431.0
2023-08-11 18:49:42.009454,-810.0
2023-08-11 18:49:42.017144,-357.0
2023-08-11 18:49:42.024834,-110.0
2023-08-11 18:49:42.032524,-215.0
2023-08-11 18:49:42.040213,-208.0
2023-08-11 18:49:42.047903,-136.0
2023-08-11 18:49:42.055593,-150.0
2023-08-11 18:49:42.063283,-150.0
2023-08-11 18:49:42.070972,-115.0
2023-08-11 18:49:42.078662,-107.0
2023-08-11 18:49:42.086352,-107.0
2023-08-11 18:49:42.094042,-88.0
2023-08-11 18:49:42.101731,-74.0
2023-08-11 18:49:42.109421,-67.0
2023-08-11 18:49:42.117111,-55.0
2023-08-11 18:49:42.124801,-38.0
2023-08-11 18:49:42.132490,-28.0
2023-08-11 18:49:42.140180,-14.0
2023-08-11 18:49:42.147870,-2.0
2023-08-11 18:49:42.155559,7.0
2023-08-11 18:49:42.163249,19.0
2023-08-11 18:49:42.170939,33.0
2023-08-11 18:49:42.178629,52.0
2023-08-11 18:49:42.186318,71.0
2023-08-11 18:49:42.194008,86.0
2023-08-11 18:49:42.201698,105.0
2023-08-11 18:49:42.209388,129.0
2023-08-11 18:49:42.217077,146.0
2023-08-11 18:49:42.224767,167.0
2023-08-11 18:49:42.232457,196.0
2023-08-11 18:49:42.240147,220.0
2023-08-11 18:49:42.247836,234.0
2023-08-11 18:49:42.255526,249.0
2023-08-11 18:49:42.263216,258.0
2023-08-11 18:49:42.270906,256.0
2023-08-11 18:49:42.278595,242.0
2023-08-11 18:49:42.286285,213.0
2023-08-11 18:49:42.293975,162.0
2023-08-11 18:49:42.301665,93.0
2023-08-11 18:49:42.309354,16.0
2023-08-11 18:49:42.317044,-55.0
2023-08-11 18:49:42.324734,-115.0
2023-08-11 18:49:42.332423,-165.0
2023-08-11 18:49:42.340113,-201.0
2023-08-11 18:49:42.347803,-210.0
2023-08-11 18:49:42.355493,-218.0
2023-08-11 18:49:42.363182,-220.0
2023-08-11 18:49:42.370872,-218.0
2023-08-11 18:49:42.378562,-215.0
2023-08-11 18:49:42.386252,-213.0
2023-08-11 18:49:42.393941,-206.0
2023-08-11 18:49:42.401631,-194.0
2023-08-11 18:49:42.409321,-184.0
2023-08-11 18:49:42.417011,-177.0
2023-08-11 18:49:42.424700,-167.0
2023-08-11 18:49:42.432390,-162.0
2023-08-11 18:49:42.440080,-160.0
2023-08-11 18:49:42.447770,-160.0
2023-08-11 18:49:42.455459,-155.0
2023-08-11 18:49:42.463149,-148.0
2023-08-11 18:49:42.470839,-146.0
2023-08-11 18:49:42.478529,-150.0
2023-08-11 18:49:42.486218,-148.0
2023-08-11 18:49:42.493908,-146.0
2023-08-11 18:49:42.501598,-146.0
2023-08-11 18:49:42.509287,-146.0
2023-08-11 18:49:42.516977,-150.0
2023-08-11 18:49:42.524667,-158.0
2023-08-11 18:49:42.532357,-155.0
2023-08-11 18:49:42.540046,-150.0
2023-08-11 18:49:42.547736,-148.0
2023-08-11 18:49:42.555426,-143.0
2023-08-11 18:49:42.563116,-139.0
2023-08-11 18:49:42.570805,-139.0
2023-08-11 18:49:42.578495,-139.0
2023-08-11 18:49:42.586185,-136.0
2023-08-11 18:49:42.593875,-131.0
2023-08-11 18:49:42.601564,-127.0
2023-08-11 18:49:42.609254,-129.0
2023-08-11 18:49:42.616944,-127.0
2023-08-11 18:49:42.624634,-124.0
2023-08-11 18:49:42.632323,-119.0
2023-08-11 18:49:42.640013,-117.0
2023-08-11 18:49:42.647703,-117.0
2023-08-11 18:49:42.655393,-117.0
2023-08-11 18:49:42.663082,-110.0
2023-08-11 18:49:42.670772,-107.0
2023-08-11 18:49:42.678462,-110.0
2023-08-11 18:49:42.686151,-110.0
2023-08-11 18:49:42.693841,-105.0
2023-08-11 18:49:42.701531,-100.0
2023-08-11 18:49:42.709221,-100.0
2023-08-11 18:49:42.716910,-103.0
2023-08-11 18:49:42.724600,-98.0
2023-08-11 18:49:42.732290,-95.0
2023-08-11 18:49:42.739980,-98.0
2023-08-11 18:49:42.747669,-95.0
2023-08-11 18:49:42.755359,-91.0
2023-08-11 18:49:42.763049,-88.0
2023-08-11 18:49:42.770739,-88.0
2023-08-11 18:49:42.778428,-88.0
2023-08-11 18:49:42.786118,-86.0
2023-08-11 18:49:42.793808,-86.0
2023-08-11 18:49:42.801498,-83.0
2023-08-11 18:49:42.809187,-81.0
2023-08-11 18:49:42.816877,-81.0
2023-08-11 18:49:42.824567,-81.0
2023-08-11 18:49:42.832257,-81.0
2023-08-11 18:49:42.839946,-79.0
2023-08-11 18:49:42.847636,-81.0
2023-08-11 18:49:42.855326,-79.0
2023-08-11 18:49:42.863015,-76.0
2023-08-11 18:49:42.870705,-81.0
2023-08-11 18:49:42.878395,-88.0
2023-08-11 18:49:42.886085,-86.0
2023-08-11 18:49:42.893774,-81.0
2023-08-11 18:49:42.901464,-81.0
2023-08-11 18:49:42.909154,-76.0
2023-08-11 18:49:42.916844,-79.0
2023-08-11 18:49:42.924533,-88.0
2023-08-11 18:49:42.932223,-81.0
2023-08-11 18:49:42.939913,-43.0
2023-08-11 18:49:42.947603,-7.0
2023-08-11 18:49:42.955292,-4.0
2023-08-11 18:49:42.962982,-9.0
2023-08-11 18:49:42.970672,-14.0
2023-08-11 18:49:42.978362,-45.0
2023-08-11 18:49:42.986051,-76.0
2023-08-11 18:49:42.993741,-79.0
2023-08-11 18:49:43.001431,-74.0
2023-08-11 18:49:43.009121,-79.0
2023-08-11 18:49:43.016810,-79.0
2023-08-11 18:49:43.024500,-74.0
2023-08-11 18:49:43.032190,-81.0
2023-08-11 18:49:43.039879,-86.0
2023-08-11 18:49:43.047569,-91.0
2023-08-11 18:49:43.055259,-107.0
2023-08-11 18:49:43.062949,21.0
2023-08-11 18:49:43.070638,556.0
2023-08-11 18:49:43.078328,1260.0
2023-08-11 18:49:43.086018,1404.0
2023-08-11 18:49:43.093708,584.0
2023-08-11 18:49:43.101397,-515.0
2023-08-11 18:49:43.109087,-783.0
2023-08-11 18:49:43.116777,-352.0
2023-08-11 18:49:43.124467,-127.0
2023-08-11 18:49:43.132156,-179.0
2023-08-11 18:49:43.139846,-172.0
2023-08-11 18:49:43.147536,-134.0
2023-08-11 18:49:43.155226,-139.0
2023-08-11 18:49:43.162915,-129.0
2023-08-11 18:49:43.170605,-100.0
2023-08-11 18:49:43.178295,-91.0
2023-08-11 18:49:43.185985,-86.0
2023-08-11 18:49:43.193674,-76.0
2023-08-11 18:49:43.201364,-64.0
2023-08-11 18:49:43.209054,-52.0
2023-08-11 18:49:43.216744,-38.0
2023-08-11 18:49:43.224433,-26.0
2023-08-11 18:49:43.232123,-21.0
2023-08-11 18:49:43.239813,-14.0
2023-08-11 18:49:43.247502,0.0
2023-08-11 18:49:43.255192,14.0
2023-08-11 18:49:43.262882,28.0
2023-08-11 18:49:43.270572,45.0
2023-08-11 18:49:43.278261,57.0
2023-08-11 18:49:43.285951,69.0
2023-08-11 18:49:43.293641,88.0
2023-08-11 18:49:43.301331,107.0
2023-08-11 18:49:43.309020,127.0
2023-08-11 18:49:43.316710,146.0
2023-08-11 18:49:43.324400,167.0
2023-08-11 18:49:43.332090,184.0
2023-08-11 18:49:43.339779,208.0
2023-08-11 18:49:43.347469,227.0
2023-08-11 18:49:43.355159,239.0
2023-08-11 18:49:43.362849,246.0
2023-08-11 18:49:43.370538,242.0
2023-08-11 18:49:43.378228,222.0
2023-08-11 18:49:43.385918,196.0
2023-08-11 18:49:43.393608,146.0
2023-08-11 18:49:43.401297,71.0
2023-08-11 18:49:43.408987,-2.0
2023-08-11 18:49:43.416677,-69.0
2023-08-11 18:49:43.424366,-127.0
2023-08-11 18:49:43.432056,-165.0
2023-08-11 18:49:43.439746,-191.0
2023-08-11 18:49:43.447436,-206.0
2023-08-11 18:49:43.455125,-215.0
2023-08-11 18:49:43.462815,-225.0
2023-08-11 18:49:43.470505,-222.0
2023-08-11 18:49:43.478195,-208.0
2023-08-11 18:49:43.485884,-198.0
2023-08-11 18:49:43.493574,-191.0
2023-08-11 18:49:43.501264,-179.0
2023-08-11 18:49:43.508954,-172.0
2023-08-11 18:49:43.516643,-167.0
2023-08-11 18:49:43.524333,-158.0
2023-08-11 18:49:43.532023,-160.0
2023-08-11 18:49:43.539713,-162.0
2023-08-11 18:49:43.547402,-158.0
2023-08-11 18:49:43.555092,-150.0
2023-08-11 18:49:43.562782,-155.0
2023-08-11 18:49:43.570472,-155.0
2023-08-11 18:49:43.578161,-155.0
2023-08-11 18:49:43.585851,-158.0
2023-08-11 18:49:43.593541,-158.0
2023-08-11 18:49:43.601230,-158.0
2023-08-11 18:49:43.608920,-158.0
2023-08-11 18:49:43.616610,-153.0
2023-08-11 18:49:43.624300,-150.0
2023-08-11 18:49:43.631989,-150.0
2023-08-11 18:49:43.639679,-148.0
2023-08-11 18:49:43.647369,-143.0
2023-08-11 18:49:43.655059,-143.0
2023-08-11 18:49:43.662748,-141.0
2023-08-11 18:49:43.670438,-139.0
2023-08-11 18:49:43.678128,-134.0
2023-08-11 18:49:43.685818,-131.0
2023-08-11 18:49:43.693507,-129.0
2023-08-11 18:49:43.701197,-124.0
2023-08-11 18:49:43.708887,-124.0
2023-08-11 18:49:43.716577,-122.0
2023-08-11 18:49:43.724266,-119.0
2023-08-11 18:49:43.731956,-119.0
2023-08-11 18:49:43.739646,-119.0
2023-08-11 18:49:43.747336,-117.0
2023-08-11 18:49:43.755025,-115.0
2023-08-11 18:49:43.762715,-110.0
2023-08-11 18:49:43.770405,-107.0
2023-08-11 18:49:43.778094,-105.0
2023-08-11 18:49:43.785784,-105.0
2023-08-11 18:49:43.793474,-103.0
2023-08-11 18:49:43.801164,-100.0
2023-08-11 18:49:43.808853,-103.0
2023-08-11 18:49:43.816543,-105.0
2023-08-11 18:49:43.824233,-103.0
2023-08-11 18:49:43.831923,-98.0
2023-08-11 18:49:43.839612,-98.0
2023-08-11 18:49:43.847302,-98.0
2023-08-11 18:49:43.854992,-95.0
2023-08-11 18:49:43.862682,-95.0
2023-08-11 18:49:43.870371,-93.0
2023-08-11 18:49:43.878061,-91.0
2023-08-11 18:49:43.885751,-91.0
2023-08-11 18:49:43.893441,-91.0
2023-08-11 18:49:43.901130,-86.0
2023-08-11 18:49:43.908820,-86.0
2023-08-11 18:49:43.916510,-88.0
2023-08-11 18:49:43.924200,-86.0
2023-08-11 18:49:43.931889,-83.0
2023-08-11 18:49:43.939579,-81.0
2023-08-11 18:49:43.947269,-81.0
2023-08-11 18:49:43.954958,-81.0
2023-08-11 18:49:43.962648,-81.0
2023-08-11 18:49:43.970338,-79.0
2023-08-11 18:49:43.978028,-79.0
2023-08-11 18:49:43.985717,-79.0
2023-08-11 18:49:43.993407,-86.0
2023-08-11 18:49:44.001097,-95.0
2023-08-11 18:49:44.008787,-79.0
2023-08-11 18:49:44.016476,-31.0
2023-08-11 18:49:44.024166,-9.0
2023-08-11 18:49:44.031856,-23.0
2023-08-11 18:49:44.039546,-28.0
2023-08-11 18:49:44.047235,-35.0
2023-08-11 18:49:44.054925,-76.0
2023-08-11 18:49:44.062615,-105.0
2023-08-11 18:49:44.070305,-100.0
2023-08-11 18:49:44.077994,-93.0
2023-08-11 18:49:44.085684,-100.0
2023-08-11 18:49:44.093374,-103.0
2023-08-11 18:49:44.101064,-98.0
2023-08-11 18:49:44.108753,-95.0
2023-08-11 18:49:44.116443,-95.0
2023-08-11 18:49:44.124133,-107.0
2023-08-11 18:49:44.131822,-112.0
2023-08-11 18:49:44.139512,93.0
2023-08-11 18:49:44.147202,707.0
2023-08-11 18:49:44.154892,1368.0
2023-08-11 18:49:44.162581,1344.0
2023-08-11 18:49:44.170271,385.0
2023-08-11 18:49:44.177961,-651.0
2023-08-11 18:49:44.185651,-718.0
2023-08-11 18:49:44.193340,-239.0
2023-08-11 18:49:44.201030,-122.0
2023-08-11 18:49:44.208720,-220.0
2023-08-11 18:49:44.216410,-177.0
2023-08-11 18:49:44.224099,-131.0
2023-08-11 18:49:44.231789,-153.0
2023-08-11 18:49:44.239479,-139.0
2023-08-11 18:49:44.247169,-107.0
2023-08-11 18:49:44.254858,-100.0
2023-08-11 18:49:44.262548,-95.0
2023-08-11 18:49:44.270238,-76.0
2023-08-11 18:49:44.277928,-67.0
2023-08-11 18:49:44.285617,-59.0
2023-08-11 18:49:44.293307,-45.0
2023-08-11 18:49:44.300997,-38.0
2023-08-11 18:49:44.308686,-26.0
2023-08-11 18:49:44.316376,-11.0
2023-08-11 18:49:44.324066,0.0
2023-08-11 18:49:44.331756,11.0
2023-08-11 18:49:44.339445,28.0
2023-08-11 18:49:44.347135,43.0
2023-08-11 18:49:44.354825,57.0
2023-08-11 18:49:44.362515,76.0
2023-08-11 18:49:44.370204,95.0
2023-08-11 18:49:44.377894,117.0
2023-08-11 18:49:44.385584,139.0
2023-08-11 18:49:44.393274,162.0
2023-08-11 18:49:44.400963,186.0
2023-08-11 18:49:44.408653,213.0
2023-08-11 18:49:44.416343,234.0
2023-08-11 18:49:44.424033,254.0
2023-08-11 18:49:44.431722,266.0
2023-08-11 18:49:44.439412,263.0
2023-08-11 18:49:44.447102,256.0
2023-08-11 18:49:44.454792,237.0
2023-08-11 18:49:44.462481,198.0
2023-08-11 18:49:44.470171,136.0
2023-08-11 18:49:44.477861,57.0
2023-08-11 18:49:44.485550,-19.0
2023-08-11 18:49:44.493240,-86.0
2023-08-11 18:49:44.500930,-143.0
2023-08-11 18:49:44.508620,-182.0
2023-08-11 18:49:44.516309,-203.0
2023-08-11 18:49:44.523999,-220.0
2023-08-11 18:49:44.531689,-225.0
2023-08-11 18:49:44.539379,-222.0
2023-08-11 18:49:44.547068,-222.0
2023-08-11 18:49:44.554758,-213.0
2023-08-11 18:49:44.562448,-198.0
2023-08-11 18:49:44.570138,-189.0
2023-08-11 18:49:44.577827,-186.0
2023-08-11 18:49:44.585517,-184.0
2023-08-11 18:49:44.593207,-179.0
2023-08-11 18:49:44.600897,-170.0
2023-08-11 18:49:44.608586,-160.0
2023-08-11 18:49:44.616276,-155.0
2023-08-11 18:49:44.623966,-150.0
2023-08-11 18:49:44.631656,-148.0
2023-08-11 18:49:44.639345,-148.0
2023-08-11 18:49:44.647035,-148.0
2023-08-11 18:49:44.654725,-146.0
2023-08-11 18:49:44.662414,-143.0
2023-08-11 18:49:44.670104,-146.0
2023-08-11 18:49:44.677794,-146.0
2023-08-11 18:49:44.685484,-143.0
2023-08-11 18:49:44.693173,-146.0
2023-08-11 18:49:44.700863,-150.0
2023-08-11 18:49:44.708553,-148.0
2023-08-11 18:49:44.716243,-148.0
2023-08-11 18:49:44.723932,-148.0
2023-08-11 18:49:44.731622,-143.0
2023-08-11 18:49:44.739312,-136.0
2023-08-11 18:49:44.747002,-136.0
2023-08-11 18:49:44.754691,-134.0
2023-08-11 18:49:44.762381,-134.0
2023-08-11 18:49:44.770071,-134.0
2023-08-11 18:49:44.777761,-129.0
2023-08-11 18:49:44.785450,-122.0
2023-08-11 18:49:44.793140,-124.0
2023-08-11 18:49:44.800830,-127.0
2023-08-11 18:49:44.808520,-124.0
2023-08-11 18:49:44.816209,-119.0
2023-08-11 18:49:44.823899,-119.0
2023-08-11 18:49:44.831589,-117.0
2023-08-11 18:49:44.839279,-112.0
2023-08-11 18:49:44.846968,-117.0
2023-08-11 18:49:44.854658,-122.0
2023-08-11 18:49:44.862348,-112.0
2023-08-11 18:49:44.870037,-107.0
2023-08-11 18:49:44.877727,-110.0
2023-08-11 18:49:44.885417,-105.0
2023-08-11 18:49:44.893107,-100.0
2023-08-11 18:49:44.900796,-107.0
2023-08-11 18:49:44.908486,-100.0
2023-08-11 18:49:44.916176,-93.0
2023-08-11 18:49:44.923866,-98.0
2023-08-11 18:49:44.931555,-98.0
2023-08-11 18:49:44.939245,-95.0
2023-08-11 18:49:44.946935,-95.0
2023-08-11 18:49:44.954625,-93.0
2023-08-11 18:49:44.962314,-86.0
2023-08-11 18:49:44.970004,-79.0
2023-08-11 18:49:44.977694,-79.0
2023-08-11 18:49:44.985384,-83.0
2023-08-11 18:49:44.993073,-81.0
2023-08-11 18:49:45.000763,-76.0
2023-08-11 18:49:45.008453,-74.0
2023-08-11 18:49:45.016143,-74.0
2023-08-11 18:49:45.023832,-74.0
2023-08-11 18:49:45.031522,-74.0
2023-08-11 18:49:45.039212,-76.0
2023-08-11 18:49:45.046901,-79.0
2023-08-11 18:49:45.054591,-76.0
2023-08-11 18:49:45.062281,-71.0
2023-08-11 18:49:45.069971,-71.0
2023-08-11 18:49:45.077660,-76.0
2023-08-11 18:49:45.085350,-71.0
2023-08-11 18:49:45.093040,-62.0
2023-08-11 18:49:45.100730,-67.0
2023-08-11 18:49:45.108419,-76.0
2023-08-11 18:49:45.116109,-59.0
2023-08-11 18:49:45.123799,-28.0
2023-08-11 18:49:45.131489,0.0
2023-08-11 18:49:45.139178,11.0
2023-08-11 18:49:45.146868,11.0
2023-08-11 18:49:45.154558,4.0
2023-08-11 18:49:45.162248,-19.0
2023-08-11 18:49:45.169937,-59.0
2023-08-11 18:49:45.177627,-83.0
2023-08-11 18:49:45.185317,-76.0
2023-08-11 18:49:45.193007,-67.0
2023-08-11 18:49:45.200696,-71.0
2023-08-11 18:49:45.208386,-76.0
2023-08-11 18:49:45.216076,-74.0
2023-08-11 18:49:45.223765,-67.0
2023-08-11 18:49:45.231455,-69.0
2023-08-11 18:49:45.239145,-95.0
2023-08-11 18:49:45.246835,-55.0
2023-08-11 18:49:45.254524,297.0
2023-08-11 18:49:45.262214,1011.0
2023-08-11 18:49:45.269904,1517.0
2023-08-11 18:49:45.277594,1114.0
2023-08-11 18:49:45.285283,-45.0
2023-08-11 18:49:45.292973,-795.0
2023-08-11 18:49:45.300663,-568.0
2023-08-11 18:49:45.308353,-162.0
2023-08-11 18:49:45.316042,-141.0
2023-08-11 18:49:45.323732,-189.0
2023-08-11 18:49:45.331422,-136.0
2023-08-11 18:49:45.339112,-115.0
2023-08-11 18:49:45.346801,-127.0
2023-08-11 18:49:45.354491,-110.0
2023-08-11 18:49:45.362181,-88.0
2023-08-11 18:49:45.369871,-74.0
2023-08-11 18:49:45.377560,-57.0
2023-08-11 18:49:45.385250,-43.0
2023-08-11 18:49:45.392940,-33.0
2023-08-11 18:49:45.400629,-31.0
2023-08-11 18:49:45.408319,-21.0
2023-08-11 18:49:45.416009,-2.0
2023-08-11 18:49:45.423699,16.0
2023-08-11 18:49:45.431388,26.0
2023-08-11 18:49:45.439078,38.0
2023-08-11 18:49:45.446768,55.0
2023-08-11 18:49:45.454458,69.0
2023-08-11 18:49:45.462147,86.0
2023-08-11 18:49:45.469837,105.0
2023-08-11 18:49:45.477527,119.0
2023-08-11 18:49:45.485217,136.0
2023-08-11 18:49:45.492906,153.0
2023-08-11 18:49:45.500596,174.0
2023-08-11 18:49:45.508286,201.0
2023-08-11 18:49:45.515976,227.0
2023-08-11 18:49:45.523665,249.0
2023-08-11 18:49:45.531355,266.0
2023-08-11 18:49:45.539045,275.0
2023-08-11 18:49:45.546735,285.0
2023-08-11 18:49:45.554424,280.0
2023-08-11 18:49:45.562114,263.0
2023-08-11 18:49:45.569804,239.0
2023-08-11 18:49:45.577493,196.0
2023-08-11 18:49:45.585183,131.0
2023-08-11 18:49:45.592873,52.0
2023-08-11 18:49:45.600563,-21.0
2023-08-11 18:49:45.608252,-86.0
2023-08-11 18:49:45.615942,-134.0
2023-08-11 18:49:45.623632,-170.0
2023-08-11 18:49:45.631322,-196.0
2023-08-11 18:49:45.639011,-210.0
2023-08-11 18:49:45.646701,-208.0
2023-08-11 18:49:45.654391,-203.0
2023-08-11 18:49:45.662081,-198.0
2023-08-11 18:49:45.669770,-191.0
2023-08-11 18:49:45.677460,-182.0
2023-08-11 18:49:45.685150,-177.0
2023-08-11 18:49:45.692840,-172.0
2023-08-11 18:49:45.700529,-160.0
2023-08-11 18:49:45.708219,-155.0
2023-08-11 18:49:45.715909,-158.0
2023-08-11 18:49:45.723599,-148.0
2023-08-11 18:49:45.731288,-139.0
2023-08-11 18:49:45.738978,-139.0
2023-08-11 18:49:45.746668,-141.0
2023-08-11 18:49:45.754357,-134.0
2023-08-11 18:49:45.762047,-131.0
2023-08-11 18:49:45.769737,-141.0
2023-08-11 18:49:45.777427,-146.0
2023-08-11 18:49:45.785116,-139.0
2023-08-11 18:49:45.792806,-136.0
2023-08-11 18:49:45.800496,-139.0
2023-08-11 18:49:45.808186,-136.0
2023-08-11 18:49:45.815875,-136.0
2023-08-11 18:49:45.823565,-141.0
2023-08-11 18:49:45.831255,-139.0
2023-08-11 18:49:45.838945,-131.0
2023-08-11 18:49:45.846634,-131.0
2023-08-11 18:49:45.854324,-134.0
2023-08-11 18:49:45.862014,-134.0
2023-08-11 18:49:45.869704,-129.0
2023-08-11 18:49:45.877393,-127.0
2023-08-11 18:49:45.885083,-119.0
2023-08-11 18:49:45.892773,-117.0
2023-08-11 18:49:45.900463,-119.0
2023-08-11 18:49:45.908152,-117.0
2023-08-11 18:49:45.915842,-112.0
2023-08-11 18:49:45.923532,-112.0
2023-08-11 18:49:45.931221,-112.0
2023-08-11 18:49:45.938911,-115.0
2023-08-11 18:49:45.946601,-110.0
2023-08-11 18:49:45.954291,-105.0
2023-08-11 18:49:45.961980,-103.0
2023-08-11 18:49:45.969670,-103.0
2023-08-11 18:49:45.977360,-103.0
2023-08-11 18:49:45.985050,-103.0
2023-08-11 18:49:45.992739,-100.0
2023-08-11 18:49:46.000429,-100.0
2023-08-11 18:49:46.008119,-100.0
2023-08-11 18:49:46.015809,-95.0
2023-08-11 18:49:46.023498,-95.0
2023-08-11 18:49:46.031188,-95.0
2023-08-11 18:49:46.038878,-95.0
2023-08-11 18:49:46.046568,-95.0
2023-08-11 18:49:46.054257,-98.0
2023-08-11 18:49:46.061947,-100.0
2023-08-11 18:49:46.069637,-98.0
2023-08-11 18:49:46.077327,-98.0
2023-08-11 18:49:46.085016,-93.0
2023-08-11 18:49:46.092706,-88.0
2023-08-11 18:49:46.100396,-88.0
2023-08-11 18:49:46.108085,-88.0
2023-08-11 18:49:46.115775,-86.0
2023-08-11 18:49:46.123465,-88.0
2023-08-11 18:49:46.131155,-93.0
2023-08-11 18:49:46.138844,-83.0
2023-08-11 18:49:46.146534,-45.0
2023-08-11 18:49:46.154224,-11.0
2023-08-11 18:49:46.161914,-19.0
2023-08-11 18:49:46.169603,-19.0
2023-08-11 18:49:46.177293,-14.0
2023-08-11 18:49:46.184983,-45.0
2023-08-11 18:49:46.192673,-86.0
2023-08-11 18:49:46.200362,-93.0
2023-08-11 18:49:46.208052,-86.0
2023-08-11 18:49:46.215742,-93.0
2023-08-11 18:49:46.223432,-95.0
2023-08-11 18:49:46.231121,-88.0
2023-08-11 18:49:46.238811,-88.0
2023-08-11 18:49:46.246501,-95.0
2023-08-11 18:49:46.254191,-110.0
2023-08-11 18:49:46.261880,-131.0
2023-08-11 18:49:46.269570,-40.0
2023-08-11 18:49:46.277260,417.0
2023-08-11 18:49:46.284949,1133.0
2023-08-11 18:49:46.292639,1423.0
2023-08-11 18:49:46.300329,752.0
2023-08-11 18:49:46.308019,-383.0
2023-08-11 18:49:46.315708,-826.0
2023-08-11 18:49:46.323398,-462.0
2023-08-11 18:49:46.331088,-167.0
2023-08-11 18:49:46.338778,-186.0
2023-08-11 18:49:46.346467,-201.0
2023-08-11 18:49:46.354157,-158.0
2023-08-11 18:49:46.361847,-143.0
2023-08-11 18:49:46.369537,-139.0
2023-08-11 18:49:46.377226,-115.0
2023-08-11 18:49:46.384916,-100.0
2023-08-11 18:49:46.392606,-95.0
2023-08-11 18:49:46.400296,-79.0
2023-08-11 18:49:46.407985,-59.0
2023-08-11 18:49:46.415675,-52.0
2023-08-11 18:49:46.423365,-45.0
2023-08-11 18:49:46.431055,-33.0
2023-08-11 18:49:46.438744,-19.0
2023-08-11 18:49:46.446434,0.0
2023-08-11 18:49:46.454124,11.0
2023-08-11 18:49:46.461814,26.0
2023-08-11 18:49:46.469503,40.0
2023-08-11 18:49:46.477193,45.0
2023-08-11 18:49:46.484883,57.0
2023-08-11 18:49:46.492572,83.0
2023-08-11 18:49:46.500262,107.0
2023-08-11 18:49:46.507952,124.0
2023-08-11 18:49:46.515642,143.0
2023-08-11 18:49:46.523331,174.0
2023-08-11 18:49:46.531021,206.0
2023-08-11 18:49:46.538711,220.0
2023-08-11 18:49:46.546401,239.0
2023-08-11 18:49:46.554090,270.0
2023-08-11 18:49:46.561780,278.0
2023-08-11 18:49:46.569470,270.0
2023-08-11 18:49:46.577160,266.0
2023-08-11 18:49:46.584849,242.0
2023-08-11 18:49:46.592539,198.0
2023-08-11 18:49:46.600229,143.0
2023-08-11 18:49:46.607919,74.0
2023-08-11 18:49:46.615608,-7.0
2023-08-11 18:49:46.623298,-69.0
2023-08-11 18:49:46.630988,-117.0
2023-08-11 18:49:46.638678,-165.0
2023-08-11 18:49:46.646367,-189.0
2023-08-11 18:49:46.654057,-198.0
2023-08-11 18:49:46.661747,-198.0
2023-08-11 18:49:46.669436,-179.0
2023-08-11 18:49:46.677126,-167.0
2023-08-11 18:49:46.684816,-162.0
2023-08-11 18:49:46.692506,-155.0
2023-08-11 18:49:46.700195,-141.0
2023-08-11 18:49:46.707885,-115.0
2023-08-11 18:49:46.715575,-100.0
2023-08-11 18:49:46.723265,-88.0
2023-08-11 18:49:46.730954,-86.0
2023-08-11 18:49:46.738644,-74.0
2023-08-11 18:49:46.746334,-33.0
2023-08-11 18:49:46.754024,-16.0
2023-08-11 18:49:46.761713,-23.0
2023-08-11 18:49:46.769403,-9.0
2023-08-11 18:49:46.777093,-9.0
2023-08-11 18:49:46.784783,-23.0
2023-08-11 18:49:46.792472,-21.0
2023-08-11 18:49:46.800162,-7.0
2023-08-11 18:49:46.807852,16.0
2023-08-11 18:49:46.815542,31.0
2023-08-11 18:49:46.823231,21.0
2023-08-11 18:49:46.830921,14.0
2023-08-11 18:49:46.838611,23.0
2023-08-11 18:49:46.846300,26.0
2023-08-11 18:49:46.853990,43.0
2023-08-11 18:49:46.861680,62.0
2023-08-11 18:49:46.869370,52.0
2023-08-11 18:49:46.877059,59.0
2023-08-11 18:49:46.884749,81.0
2023-08-11 18:49:46.892439,86.0
2023-08-11 18:49:46.900129,93.0
2023-08-11 18:49:46.907818,107.0
2023-08-11 18:49:46.915508,103.0
2023-08-11 18:49:46.923198,110.0
2023-08-11 18:49:46.930888,146.0
2023-08-11 18:49:46.938577,153.0
2023-08-11 18:49:46.946267,134.0
2023-08-11 18:49:46.953957,139.0
2023-08-11 18:49:46.961647,153.0
2023-08-11 18:49:46.969336,146.0
2023-08-11 18:49:46.977026,146.0
2023-08-11 18:49:46.984716,172.0
2023-08-11 18:49:46.992406,184.0
2023-08-11 18:49:47.000095,182.0
2023-08-11 18:49:47.007785,184.0
2023-08-11 18:49:47.015475,174.0
2023-08-11 18:49:47.023164,177.0
2023-08-11 18:49:47.030854,196.0
2023-08-11 18:49:47.038544,198.0
2023-08-11 18:49:47.046234,208.0
2023-08-11 18:49:47.053923,218.0
2023-08-11 18:49:47.061613,203.0
2023-08-11 18:49:47.069303,189.0
2023-08-11 18:49:47.076993,208.0
2023-08-11 18:49:47.084682,222.0
2023-08-11 18:49:47.092372,208.0
2023-08-11 18:49:47.100062,206.0
2023-08-11 18:49:47.107752,220.0
2023-08-11 18:49:47.115441,220.0
2023-08-11 18:49:47.123131,215.0
2023-08-11 18:49:47.130821,206.0
2023-08-11 18:49:47.138511,196.0
2023-08-11 18:49:47.146200,196.0
2023-08-11 18:49:47.153890,194.0
2023-08-11 18:49:47.161580,184.0
2023-08-11 18:49:47.169270,182.0
2023-08-11 18:49:47.176959,191.0
2023-08-11 18:49:47.184649,222.0
2023-08-11 18:49:47.192339,249.0
2023-08-11 18:49:47.200028,232.0
2023-08-11 18:49:47.207718,218.0
2023-08-11 18:49:47.215408,227.0
2023-08-11 18:49:47.223098,218.0
2023-08-11 18:49:47.230787,177.0
2023-08-11 18:49:47.238477,146.0
2023-08-11 18:49:47.246167,141.0
2023-08-11 18:49:47.253857,134.0
2023-08-11 18:49:47.261546,129.0
2023-08-11 18:49:47.269236,134.0
2023-08-11 18:49:47.276926,131.0
2023-08-11 18:49:47.284616,127.0
2023-08-11 18:49:47.292305,127.0
2023-08-11 18:49:47.299995,100.0
2023-08-11 18:49:47.307685,91.0
2023-08-11 18:49:47.315375,316.0
2023-08-11 18:49:47.323064,958.0
2023-08-11 18:49:47.330754,1629.0
2023-08-11 18:49:47.338444,1557.0
2023-08-11 18:49:47.346134,534.0
2023-08-11 18:49:47.353823,-498.0
2023-08-11 18:49:47.361513,-546.0
2023-08-11 18:49:47.369203,-86.0
2023-08-11 18:49:47.376892,21.0
2023-08-11 18:49:47.384582,-59.0
2023-08-11 18:49:47.392272,-21.0
2023-08-11 18:49:47.399962,11.0
2023-08-11 18:49:47.407651,4.0
2023-08-11 18:49:47.415341,21.0
2023-08-11 18:49:47.423031,45.0
2023-08-11 18:49:47.430721,55.0
2023-08-11 18:49:47.438410,47.0
2023-08-11 18:49:47.446100,50.0
2023-08-11 18:49:47.453790,74.0
2023-08-11 18:49:47.461480,88.0
2023-08-11 18:49:47.469169,88.0
2023-08-11 18:49:47.476859,91.0
2023-08-11 18:49:47.484549,103.0
2023-08-11 18:49:47.492239,124.0
2023-08-11 18:49:47.499928,129.0
2023-08-11 18:49:47.507618,129.0
2023-08-11 18:49:47.515308,139.0
2023-08-11 18:49:47.522998,160.0
2023-08-11 18:49:47.530687,172.0
2023-08-11 18:49:47.538377,186.0
2023-08-11 18:49:47.546067,206.0
2023-08-11 18:49:47.553756,230.0
2023-08-11 18:49:47.561446,249.0
2023-08-11 18:49:47.569136,261.0
2023-08-11 18:49:47.576826,275.0
2023-08-11 18:49:47.584515,306.0
2023-08-11 18:49:47.592205,330.0
2023-08-11 18:49:47.599895,345.0
2023-08-11 18:49:47.607585,359.0
2023-08-11 18:49:47.615274,347.0
2023-08-11 18:49:47.622964,330.0
2023-08-11 18:49:47.630654,321.0
2023-08-11 18:49:47.638344,270.0
2023-08-11 18:49:47.646033,198.0
2023-08-11 18:49:47.653723,124.0
2023-08-11 18:49:47.661413,35.0
2023-08-11 18:49:47.669103,-38.0
2023-08-11 18:49:47.676792,-91.0
2023-08-11 18:49:47.684482,-131.0
2023-08-11 18:49:47.692172,-158.0
2023-08-11 18:49:47.699862,-167.0
2023-08-11 18:49:47.707551,-172.0
2023-08-11 18:49:47.715241,-174.0
2023-08-11 18:49:47.722931,-170.0
2023-08-11 18:49:47.730620,-162.0
2023-08-11 18:49:47.738310,-155.0
2023-08-11 18:49:47.746000,-153.0
2023-08-11 18:49:47.753690,-150.0
2023-08-11 18:49:47.761379,-146.0
2023-08-11 18:49:47.769069,-134.0
2023-08-11 18:49:47.776759,-129.0
2023-08-11 18:49:47.784449,-131.0
2023-08-11 18:49:47.792138,-134.0
2023-08-11 18:49:47.799828,-134.0
2023-08-11 18:49:47.807518,-127.0
2023-08-11 18:49:47.815208,-122.0
2023-08-11 18:49:47.822897,-124.0
2023-08-11 18:49:47.830587,-127.0
2023-08-11 18:49:47.838277,-127.0
2023-08-11 18:49:47.845967,-131.0
2023-08-11 18:49:47.853656,-127.0
2023-08-11 18:49:47.861346,-124.0
2023-08-11 18:49:47.869036,-134.0
2023-08-11 18:49:47.876726,-136.0
2023-08-11 18:49:47.884415,-127.0
2023-08-11 18:49:47.892105,-124.0
2023-08-11 18:49:47.899795,-129.0
2023-08-11 18:49:47.907484,-129.0
2023-08-11 18:49:47.915174,-139.0
2023-08-11 18:49:47.922864,-146.0
2023-08-11 18:49:47.930554,-134.0
2023-08-11 18:49:47.938243,-136.0
2023-08-11 18:49:47.945933,-143.0
2023-08-11 18:49:47.953623,-136.0
2023-08-11 18:49:47.961313,-134.0
2023-08-11 18:49:47.969002,-136.0
2023-08-11 18:49:47.976692,-127.0
2023-08-11 18:49:47.984382,-129.0
2023-08-11 18:49:47.992072,-150.0
2023-08-11 18:49:47.999761,-162.0
2023-08-11 18:49:48.007451,-153.0
2023-08-11 18:49:48.015141,-150.0
2023-08-11 18:49:48.022831,-155.0
2023-08-11 18:49:48.030520,-150.0
2023-08-11 18:49:48.038210,-153.0
2023-08-11 18:49:48.045900,-158.0
2023-08-11 18:49:48.053590,-155.0
2023-08-11 18:49:48.061279,-155.0
2023-08-11 18:49:48.068969,-167.0
2023-08-11 18:49:48.076659,-172.0
2023-08-11 18:49:48.084349,-158.0
2023-08-11 18:49:48.092038,-155.0
2023-08-11 18:49:48.099728,-167.0
2023-08-11 18:49:48.107418,-167.0
2023-08-11 18:49:48.115107,-158.0
2023-08-11 18:49:48.122797,-160.0
2023-08-11 18:49:48.130487,-160.0
2023-08-11 18:49:48.138177,-158.0
2023-08-11 18:49:48.145866,-158.0
2023-08-11 18:49:48.153556,-153.0
2023-08-11 18:49:48.161246,-150.0
2023-08-11 18:49:48.168936,-153.0
2023-08-11 18:49:48.176625,-158.0
2023-08-11 18:49:48.184315,-160.0
2023-08-11 18:49:48.192005,-158.0
2023-08-11 18:49:48.199695,-155.0
2023-08-11 18:49:48.207384,-150.0
2023-08-11 18:49:48.215074,-148.0
2023-08-11 18:49:48.222764,-155.0
2023-08-11 18:49:48.230454,-162.0
2023-08-11 18:49:48.238143,-155.0
2023-08-11 18:49:48.245833,-122.0
2023-08-11 18:49:48.253523,-93.0
2023-08-11 18:49:48.261213,-95.0
2023-08-11 18:49:48.268902,-95.0
2023-08-11 18:49:48.276592,-93.0
2023-08-11 18:49:48.284282,-122.0
2023-08-11 18:49:48.291971,-158.0
2023-08-11 18:49:48.299661,-165.0
2023-08-11 18:49:48.307351,-162.0
2023-08-11 18:49:48.315041,-167.0
2023-08-11 18:49:48.322730,-167.0
2023-08-11 18:49:48.330420,-162.0
2023-08-11 18:49:48.338110,-165.0
2023-08-11 18:49:48.345800,-165.0
2023-08-11 18:49:48.353489,-170.0
2023-08-11 18:49:48.361179,-201.0
2023-08-11 18:49:48.368869,-134.0
2023-08-11 18:49:48.376559,316.0
2023-08-11 18:49:48.384248,1066.0
2023-08-11 18:49:48.391938,1452.0
2023-08-11 18:49:48.399628,860.0
2023-08-11 18:49:48.407318,-333.0
2023-08-11 18:49:48.415007,-925.0
2023-08-11 18:49:48.422697,-587.0
2023-08-11 18:49:48.430387,-230.0
2023-08-11 18:49:48.438077,-251.0
2023-08-11 18:49:48.445766,-287.0
2023-08-11 18:49:48.453456,-239.0
2023-08-11 18:49:48.461146,-232.0
2023-08-11 18:49:48.468835,-232.0
2023-08-11 18:49:48.476525,-203.0
2023-08-11 18:49:48.484215,-186.0
2023-08-11 18:49:48.491905,-189.0
2023-08-11 18:49:48.499594,-189.0
2023-08-11 18:49:48.507284,-172.0
2023-08-11 18:49:48.514974,-158.0
2023-08-11 18:49:48.522664,-148.0
2023-08-11 18:49:48.530353,-134.0
2023-08-11 18:49:48.538043,-124.0
2023-08-11 18:49:48.545733,-119.0
2023-08-11 18:49:48.553423,-107.0
2023-08-11 18:49:48.561112,-83.0
2023-08-11 18:49:48.568802,-69.0
2023-08-11 18:49:48.576492,-67.0
2023-08-11 18:49:48.584182,-55.0
2023-08-11 18:49:48.591871,-33.0
2023-08-11 18:49:48.599561,-16.0
2023-08-11 18:49:48.607251,4.0
2023-08-11 18:49:48.614941,23.0
2023-08-11 18:49:48.622630,45.0
2023-08-11 18:49:48.630320,69.0
2023-08-11 18:49:48.638010,93.0
2023-08-11 18:49:48.645699,119.0
2023-08-11 18:49:48.653389,143.0
2023-08-11 18:49:48.661079,153.0
2023-08-11 18:49:48.668769,162.0
2023-08-11 18:49:48.676458,165.0
2023-08-11 18:49:48.684148,150.0
2023-08-11 18:49:48.691838,124.0
2023-08-11 18:49:48.699528,76.0
2023-08-11 18:49:48.707217,9.0
2023-08-11 18:49:48.714907,-67.0
2023-08-11 18:49:48.722597,-146.0
2023-08-11 18:49:48.730287,-208.0
2023-08-11 18:49:48.737976,-254.0
2023-08-11 18:49:48.745666,-287.0
2023-08-11 18:49:48.753356,-301.0
2023-08-11 18:49:48.761046,-309.0
2023-08-11 18:49:48.768735,-309.0
2023-08-11 18:49:48.776425,-309.0
2023-08-11 18:49:48.784115,-304.0
2023-08-11 18:49:48.791805,-297.0
2023-08-11 18:49:48.799494,-289.0
2023-08-11 18:49:48.807184,-275.0
2023-08-11 18:49:48.814874,-268.0
2023-08-11 18:49:48.822563,-261.0
2023-08-11 18:49:48.830253,-254.0
2023-08-11 18:49:48.837943,-249.0
2023-08-11 18:49:48.845633,-246.0
2023-08-11 18:49:48.853322,-237.0
2023-08-11 18:49:48.861012,-234.0
2023-08-11 18:49:48.868702,-234.0
2023-08-11 18:49:48.876392,-232.0
2023-08-11 18:49:48.884081,-227.0
2023-08-11 18:49:48.891771,-225.0
2023-08-11 18:49:48.899461,-227.0
2023-08-11 18:49:48.907151,-227.0
2023-08-11 18:49:48.914840,-222.0
2023-08-11 18:49:48.922530,-218.0
2023-08-11 18:49:48.930220,-215.0
2023-08-11 18:49:48.937910,-215.0
2023-08-11 18:49:48.945599,-213.0
2023-08-11 18:49:48.953289,-210.0
2023-08-11 18:49:48.960979,-208.0
2023-08-11 18:49:48.968669,-203.0
2023-08-11 18:49:48.976358,-206.0
2023-08-11 18:49:48.984048,-203.0
2023-08-11 18:49:48.991738,-198.0
2023-08-11 18:49:48.999427,-201.0
2023-08-11 18:49:49.007117,-198.0
2023-08-11 18:49:49.014807,-194.0
2023-08-11 18:49:49.022497,-189.0
2023-08-11 18:49:49.030186,-184.0
2023-08-11 18:49:49.037876,-182.0
2023-08-11 18:49:49.045566,-184.0
2023-08-11 18:49:49.053256,-184.0
2023-08-11 18:49:49.060945,-182.0
2023-08-11 18:49:49.068635,-184.0
2023-08-11 18:49:49.076325,-191.0
2023-08-11 18:49:49.084015,-194.0
2023-08-11 18:49:49.091704,-194.0
2023-08-11 18:49:49.099394,-191.0
2023-08-11 18:49:49.107084,-189.0
2023-08-11 18:49:49.114774,-186.0
2023-08-11 18:49:49.122463,-186.0
2023-08-11 18:49:49.130153,-186.0
2023-08-11 18:49:49.137843,-182.0
2023-08-11 18:49:49.145533,-177.0
2023-08-11 18:49:49.153222,-174.0
2023-08-11 18:49:49.160912,-170.0
2023-08-11 18:49:49.168602,-167.0
2023-08-11 18:49:49.176291,-170.0
2023-08-11 18:49:49.183981,-167.0
2023-08-11 18:49:49.191671,-162.0
2023-08-11 18:49:49.199361,-165.0
2023-08-11 18:49:49.207050,-162.0
2023-08-11 18:49:49.214740,-160.0
2023-08-11 18:49:49.222430,-162.0
2023-08-11 18:49:49.230120,-170.0
2023-08-11 18:49:49.237809,-158.0
2023-08-11 18:49:49.245499,-110.0
2023-08-11 18:49:49.253189,-79.0
2023-08-11 18:49:49.260879,-88.0
2023-08-11 18:49:49.268568,-93.0
2023-08-11 18:49:49.276258,-95.0
2023-08-11 18:49:49.283948,-124.0
2023-08-11 18:49:49.291638,-155.0
2023-08-11 18:49:49.299327,-158.0
2023-08-11 18:49:49.307017,-148.0
2023-08-11 18:49:49.314707,-153.0
2023-08-11 18:49:49.322397,-155.0
2023-08-11 18:49:49.330086,-155.0
2023-08-11 18:49:49.337776,-153.0
2023-08-11 18:49:49.345466,-146.0
2023-08-11 18:49:49.353155,-150.0
2023-08-11 18:49:49.360845,-167.0
2023-08-11 18:49:49.368535,-31.0
2023-08-11 18:49:49.376225,500.0
2023-08-11 18:49:49.383914,1205.0
2023-08-11 18:49:49.391604,1361.0
2023-08-11 18:49:49.399294,556.0
2023-08-11 18:49:49.406984,-553.0
2023-08-11 18:49:49.414673,-848.0
2023-08-11 18:49:49.422363,-421.0
2023-08-11 18:49:49.430053,-179.0
2023-08-11 18:49:49.437743,-230.0
2023-08-11 18:49:49.445432,-227.0
2023-08-11 18:49:49.453122,-182.0
2023-08-11 18:49:49.460812,-182.0
2023-08-11 18:49:49.468502,-179.0
2023-08-11 18:49:49.476191,-158.0
2023-08-11 18:49:49.483881,-146.0
2023-08-11 18:49:49.491571,-136.0
2023-08-11 18:49:49.499261,-124.0
2023-08-11 18:49:49.506950,-110.0
2023-08-11 18:49:49.514640,-98.0
2023-08-11 18:49:49.522330,-88.0
2023-08-11 18:49:49.530019,-74.0
2023-08-11 18:49:49.537709,-62.0
2023-08-11 18:49:49.545399,-50.0
2023-08-11 18:49:49.553089,-33.0
2023-08-11 18:49:49.560778,-21.0
2023-08-11 18:49:49.568468,-9.0
2023-08-11 18:49:49.576158,2.0
2023-08-11 18:49:49.583848,14.0
2023-08-11 18:49:49.591537,31.0
2023-08-11 18:49:49.599227,47.0
2023-08-11 18:49:49.606917,69.0
2023-08-11 18:49:49.614607,93.0
2023-08-11 18:49:49.622296,112.0
2023-08-11 18:49:49.629986,122.0
2023-08-11 18:49:49.637676,146.0
2023-08-11 18:49:49.645366,177.0
2023-08-11 18:49:49.653055,191.0
2023-08-11 18:49:49.660745,201.0
2023-08-11 18:49:49.668435,203.0
2023-08-11 18:49:49.676125,189.0
2023-08-11 18:49:49.683814,177.0
2023-08-11 18:49:49.691504,150.0
2023-08-11 18:49:49.699194,93.0
2023-08-11 18:49:49.706884,21.0
2023-08-11 18:49:49.714573,-52.0
2023-08-11 18:49:49.722263,-129.0
2023-08-11 18:49:49.729953,-184.0
2023-08-11 18:49:49.737642,-218.0
2023-08-11 18:49:49.745332,-239.0
2023-08-11 18:49:49.753022,-254.0
2023-08-11 18:49:49.760712,-256.0
2023-08-11 18:49:49.768401,-251.0
2023-08-11 18:49:49.776091,-242.0
2023-08-11 18:49:49.783781,-232.0
2023-08-11 18:49:49.791471,-225.0
2023-08-11 18:49:49.799160,-220.0
2023-08-11 18:49:49.806850,-210.0
2023-08-11 18:49:49.814540,-201.0
2023-08-11 18:49:49.822230,-191.0
2023-08-11 18:49:49.829919,-184.0
2023-08-11 18:49:49.837609,-179.0
2023-08-11 18:49:49.845299,-174.0
2023-08-11 18:49:49.852989,-172.0
2023-08-11 18:49:49.860678,-170.0
2023-08-11 18:49:49.868368,-165.0
2023-08-11 18:49:49.876058,-162.0
2023-08-11 18:49:49.883748,-165.0
2023-08-11 18:49:49.891437,-162.0
2023-08-11 18:49:49.899127,-160.0
2023-08-11 18:49:49.906817,-162.0
2023-08-11 18:49:49.914506,-160.0
2023-08-11 18:49:49.922196,-158.0
2023-08-11 18:49:49.929886,-153.0
2023-08-11 18:49:49.937576,-150.0
2023-08-11 18:49:49.945265,-148.0
2023-08-11 18:49:49.952955,-146.0
2023-08-11 18:49:49.960645,-148.0
2023-08-11 18:49:49.968335,-150.0
2023-08-11 18:49:49.976024,-148.0
2023-08-11 18:49:49.983714,-141.0
2023-08-11 18:49:49.991404,-141.0
2023-08-11 18:49:49.999094,-139.0
2023-08-11 18:49:50.006783,-136.0
2023-08-11 18:49:50.014473,-134.0
2023-08-11 18:49:50.022163,-131.0
2023-08-11 18:49:50.029853,-129.0
2023-08-11 18:49:50.037542,-131.0
2023-08-11 18:49:50.045232,-129.0
2023-08-11 18:49:50.052922,-127.0
2023-08-11 18:49:50.060612,-127.0
2023-08-11 18:49:50.068301,-127.0
2023-08-11 18:49:50.075991,-129.0
2023-08-11 18:49:50.083681,-127.0
2023-08-11 18:49:50.091370,-127.0
2023-08-11 18:49:50.099060,-131.0
2023-08-11 18:49:50.106750,-129.0
2023-08-11 18:49:50.114440,-127.0
2023-08-11 18:49:50.122129,-131.0
2023-08-11 18:49:50.129819,-131.0
2023-08-11 18:49:50.137509,-129.0
2023-08-11 18:49:50.145199,-127.0
2023-08-11 18:49:50.152888,-129.0
2023-08-11 18:49:50.160578,-131.0
2023-08-11 18:49:50.168268,-139.0
2023-08-11 18:49:50.175958,-134.0
2023-08-11 18:49:50.183647,-122.0
2023-08-11 18:49:50.191337,-122.0
2023-08-11 18:49:50.199027,-124.0
2023-08-11 18:49:50.206717,-122.0
2023-08-11 18:49:50.214406,-119.0
2023-08-11 18:49:50.222096,-122.0
2023-08-11 18:49:50.229786,-117.0
2023-08-11 18:49:50.237476,-112.0
2023-08-11 18:49:50.245165,-115.0
2023-08-11 18:49:50.252855,-122.0
2023-08-11 18:49:50.260545,-119.0
2023-08-11 18:49:50.268234,-88.0
2023-08-11 18:49:50.275924,-47.0
2023-08-11 18:49:50.283614,-35.0
2023-08-11 18:49:50.291304,-40.0
2023-08-11 18:49:50.298993,-38.0
2023-08-11 18:49:50.306683,-55.0
2023-08-11 18:49:50.314373,-98.0
2023-08-11 18:49:50.322063,-117.0
2023-08-11 18:49:50.329752,-110.0
2023-08-11 18:49:50.337442,-107.0
2023-08-11 18:49:50.345132,-115.0
2023-08-11 18:49:50.352822,-115.0
2023-08-11 18:49:50.360511,-112.0
2023-08-11 18:49:50.368201,-110.0
2023-08-11 18:49:50.375891,-107.0
2023-08-11 18:49:50.383581,-119.0
2023-08-11 18:49:50.391270,-129.0
2023-08-11 18:49:50.398960,79.0
2023-08-11 18:49:50.406650,699.0
2023-08-11 18:49:50.414340,1375.0
2023-08-11 18:49:50.422029,1370.0
2023-08-11 18:49:50.429719,407.0
2023-08-11 18:49:50.437409,-659.0
2023-08-11 18:49:50.445098,-757.0
2023-08-11 18:49:50.452788,-270.0
2023-08-11 18:49:50.460478,-136.0
2023-08-11 18:49:50.468168,-237.0
2023-08-11 18:49:50.475857,-203.0
2023-08-11 18:49:50.483547,-153.0
2023-08-11 18:49:50.491237,-170.0
2023-08-11 18:49:50.498927,-153.0
2023-08-11 18:49:50.506616,-122.0
2023-08-11 18:49:50.514306,-117.0
2023-08-11 18:49:50.521996,-110.0
2023-08-11 18:49:50.529686,-93.0
2023-08-11 18:49:50.537375,-83.0
2023-08-11 18:49:50.545065,-71.0
2023-08-11 18:49:50.552755,-57.0
2023-08-11 18:49:50.560445,-47.0
2023-08-11 18:49:50.568134,-35.0
2023-08-11 18:49:50.575824,-23.0
2023-08-11 18:49:50.583514,-9.0
2023-08-11 18:49:50.591204,4.0
2023-08-11 18:49:50.598893,14.0
2023-08-11 18:49:50.606583,28.0
2023-08-11 18:49:50.614273,47.0
2023-08-11 18:49:50.621962,67.0
2023-08-11 18:49:50.629652,86.0
2023-08-11 18:49:50.637342,105.0
2023-08-11 18:49:50.645032,129.0
2023-08-11 18:49:50.652721,153.0
2023-08-11 18:49:50.660411,177.0
2023-08-11 18:49:50.668101,198.0
2023-08-11 18:49:50.675791,220.0
2023-08-11 18:49:50.683480,237.0
2023-08-11 18:49:50.691170,254.0
2023-08-11 18:49:50.698860,256.0
2023-08-11 18:49:50.706550,242.0
2023-08-11 18:49:50.714239,222.0
2023-08-11 18:49:50.721929,196.0
2023-08-11 18:49:50.729619,136.0
2023-08-11 18:49:50.737309,62.0
2023-08-11 18:49:50.744998,-16.0
2023-08-11 18:49:50.752688,-95.0
2023-08-11 18:49:50.760378,-153.0
2023-08-11 18:49:50.768068,-186.0
2023-08-11 18:49:50.775757,-208.0
2023-08-11 18:49:50.783447,-222.0
2023-08-11 18:49:50.791137,-230.0
2023-08-11 18:49:50.798826,-230.0
2023-08-11 18:49:50.806516,-222.0
2023-08-11 18:49:50.814206,-213.0
2023-08-11 18:49:50.821896,-203.0
2023-08-11 18:49:50.829585,-196.0
2023-08-11 18:49:50.837275,-191.0
2023-08-11 18:49:50.844965,-184.0
2023-08-11 18:49:50.852655,-179.0
2023-08-11 18:49:50.860344,-172.0
2023-08-11 18:49:50.868034,-165.0
2023-08-11 18:49:50.875724,-160.0
2023-08-11 18:49:50.883414,-160.0
2023-08-11 18:49:50.891103,-158.0
2023-08-11 18:49:50.898793,-153.0
2023-08-11 18:49:50.906483,-148.0
2023-08-11 18:49:50.914173,-148.0
2023-08-11 18:49:50.921862,-148.0
2023-08-11 18:49:50.929552,-146.0
2023-08-11 18:49:50.937242,-148.0
2023-08-11 18:49:50.944932,-150.0
2023-08-11 18:49:50.952621,-153.0
2023-08-11 18:49:50.960311,-148.0
2023-08-11 18:49:50.968001,-141.0
2023-08-11 18:49:50.975690,-141.0
2023-08-11 18:49:50.983380,-141.0
2023-08-11 18:49:50.991070,-136.0
2023-08-11 18:49:50.998760,-134.0
2023-08-11 18:49:51.006449,-134.0
2023-08-11 18:49:51.014139,-131.0
2023-08-11 18:49:51.021829,-131.0
2023-08-11 18:49:51.029519,-127.0
2023-08-11 18:49:51.037208,-124.0
2023-08-11 18:49:51.044898,-124.0
2023-08-11 18:49:51.052588,-124.0
2023-08-11 18:49:51.060278,-122.0
2023-08-11 18:49:51.067967,-119.0
2023-08-11 18:49:51.075657,-115.0
2023-08-11 18:49:51.083347,-112.0
2023-08-11 18:49:51.091037,-112.0
2023-08-11 18:49:51.098726,-115.0
2023-08-11 18:49:51.106416,-119.0
2023-08-11 18:49:51.114106,-122.0
2023-08-11 18:49:51.121796,-124.0
2023-08-11 18:49:51.129485,-122.0
2023-08-11 18:49:51.137175,-115.0
2023-08-11 18:49:51.144865,-112.0
2023-08-11 18:49:51.152554,-112.0
2023-08-11 18:49:51.160244,-112.0
2023-08-11 18:49:51.167934,-115.0
2023-08-11 18:49:51.175624,-117.0
2023-08-11 18:49:51.183313,-115.0
2023-08-11 18:49:51.191003,-115.0
2023-08-11 18:49:51.198693,-112.0
2023-08-11 18:49:51.206383,-110.0
2023-08-11 18:49:51.214072,-112.0
2023-08-11 18:49:51.221762,-115.0
2023-08-11 18:49:51.229452,-110.0
2023-08-11 18:49:51.237142,-105.0
2023-08-11 18:49:51.244831,-110.0
2023-08-11 18:49:51.252521,-107.0
2023-08-11 18:49:51.260211,-103.0
2023-08-11 18:49:51.267901,-105.0
2023-08-11 18:49:51.275590,-103.0
2023-08-11 18:49:51.283280,-103.0
2023-08-11 18:49:51.290970,-117.0
2023-08-11 18:49:51.298660,-124.0
2023-08-11 18:49:51.306349,-93.0
2023-08-11 18:49:51.314039,-45.0
2023-08-11 18:49:51.321729,-26.0
2023-08-11 18:49:51.329419,-35.0
2023-08-11 18:49:51.337108,-33.0
2023-08-11 18:49:51.344798,-45.0
2023-08-11 18:49:51.352488,-86.0
2023-08-11 18:49:51.360177,-112.0
2023-08-11 18:49:51.367867,-105.0
2023-08-11 18:49:51.375557,-100.0
2023-08-11 18:49:51.383247,-107.0
2023-08-11 18:49:51.390936,-100.0
2023-08-11 18:49:51.398626,-95.0
2023-08-11 18:49:51.406316,-98.0
2023-08-11 18:49:51.414006,-100.0
2023-08-11 18:49:51.421695,-115.0
2023-08-11 18:49:51.429385,-122.0
2023-08-11 18:49:51.437075,81.0
2023-08-11 18:49:51.444765,702.0
2023-08-11 18:49:51.452454,1385.0
2023-08-11 18:49:51.460144,1385.0
2023-08-11 18:49:51.467834,421.0
2023-08-11 18:49:51.475524,-656.0
2023-08-11 18:49:51.483213,-778.0
2023-08-11 18:49:51.490903,-306.0
2023-08-11 18:49:51.498593,-141.0
2023-08-11 18:49:51.506283,-213.0
2023-08-11 18:49:51.513972,-191.0
2023-08-11 18:49:51.521662,-148.0
2023-08-11 18:49:51.529352,-153.0
2023-08-11 18:49:51.537041,-139.0
2023-08-11 18:49:51.544731,-115.0
2023-08-11 18:49:51.552421,-110.0
2023-08-11 18:49:51.560111,-105.0
2023-08-11 18:49:51.567800,-83.0
2023-08-11 18:49:51.575490,-71.0
2023-08-11 18:49:51.583180,-69.0
2023-08-11 18:49:51.590870,-59.0
2023-08-11 18:49:51.598559,-43.0
2023-08-11 18:49:51.606249,-33.0
2023-08-11 18:49:51.613939,-23.0
2023-08-11 18:49:51.621629,-11.0
2023-08-11 18:49:51.629318,2.0
2023-08-11 18:49:51.637008,16.0
2023-08-11 18:49:51.644698,33.0
2023-08-11 18:49:51.652388,43.0
2023-08-11 18:49:51.660077,57.0
2023-08-11 18:49:51.667767,83.0
2023-08-11 18:49:51.675457,103.0
2023-08-11 18:49:51.683147,122.0
2023-08-11 18:49:51.690836,141.0
2023-08-11 18:49:51.698526,160.0
2023-08-11 18:49:51.706216,184.0
2023-08-11 18:49:51.713905,210.0
2023-08-11 18:49:51.721595,230.0
2023-08-11 18:49:51.729285,239.0
2023-08-11 18:49:51.736975,242.0
2023-08-11 18:49:51.744664,237.0
2023-08-11 18:49:51.752354,220.0
2023-08-11 18:49:51.760044,182.0
2023-08-11 18:49:51.767734,124.0
2023-08-11 18:49:51.775423,52.0
2023-08-11 18:49:51.783113,-19.0
2023-08-11 18:49:51.790803,-86.0
2023-08-11 18:49:51.798493,-139.0
2023-08-11 18:49:51.806182,-179.0
2023-08-11 18:49:51.813872,-206.0
2023-08-11 18:49:51.821562,-218.0
2023-08-11 18:49:51.829252,-220.0
2023-08-11 18:49:51.836941,-220.0
2023-08-11 18:49:51.844631,-218.0
2023-08-11 18:49:51.852321,-210.0
2023-08-11 18:49:51.860011,-203.0
2023-08-11 18:49:51.867700,-194.0
2023-08-11 18:49:51.875390,-194.0
2023-08-11 18:49:51.883080,-194.0
2023-08-11 18:49:51.890769,-182.0
2023-08-11 18:49:51.898459,-167.0
2023-08-11 18:49:51.906149,-165.0
2023-08-11 18:49:51.913839,-165.0
2023-08-11 18:49:51.921528,-160.0
2023-08-11 18:49:51.929218,-160.0
2023-08-11 18:49:51.936908,-162.0
2023-08-11 18:49:51.944598,-155.0
2023-08-11 18:49:51.952287,-153.0
2023-08-11 18:49:51.959977,-158.0
2023-08-11 18:49:51.967667,-158.0
2023-08-11 18:49:51.975357,-150.0
2023-08-11 18:49:51.983046,-146.0
2023-08-11 18:49:51.990736,-146.0
2023-08-11 18:49:51.998426,-146.0
2023-08-11 18:49:52.006116,-146.0
2023-08-11 18:49:52.013805,-143.0
2023-08-11 18:49:52.021495,-139.0
2023-08-11 18:49:52.029185,-134.0
2023-08-11 18:49:52.036875,-134.0
2023-08-11 18:49:52.044564,-131.0
2023-08-11 18:49:52.052254,-129.0
2023-08-11 18:49:52.059944,-129.0
2023-08-11 18:49:52.067633,-129.0
2023-08-11 18:49:52.075323,-129.0
2023-08-11 18:49:52.083013,-129.0
2023-08-11 18:49:52.090703,-131.0
2023-08-11 18:49:52.098392,-131.0
2023-08-11 18:49:52.106082,-129.0
2023-08-11 18:49:52.113772,-129.0
2023-08-11 18:49:52.121462,-134.0
2023-08-11 18:49:52.129151,-134.0
2023-08-11 18:49:52.136841,-134.0
2023-08-11 18:49:52.144531,-134.0
2023-08-11 18:49:52.152221,-131.0
2023-08-11 18:49:52.159910,-131.0
2023-08-11 18:49:52.167600,-131.0
2023-08-11 18:49:52.175290,-136.0
2023-08-11 18:49:52.182980,-139.0
2023-08-11 18:49:52.190669,-136.0
2023-08-11 18:49:52.198359,-131.0
2023-08-11 18:49:52.206049,-131.0
2023-08-11 18:49:52.213739,-129.0
2023-08-11 18:49:52.221428,-131.0
2023-08-11 18:49:52.229118,-136.0
2023-08-11 18:49:52.236808,-136.0
2023-08-11 18:49:52.244497,-134.0
2023-08-11 18:49:52.252187,-131.0
2023-08-11 18:49:52.259877,-127.0
2023-08-11 18:49:52.267567,-124.0
2023-08-11 18:49:52.275256,-129.0
2023-08-11 18:49:52.282946,-136.0
2023-08-11 18:49:52.290636,-131.0
2023-08-11 18:49:52.298326,-103.0
2023-08-11 18:49:52.306015,-59.0
2023-08-11 18:49:52.313705,-43.0
2023-08-11 18:49:52.321395,-55.0
2023-08-11 18:49:52.329085,-57.0
2023-08-11 18:49:52.336774,-64.0
2023-08-11 18:49:52.344464,-98.0
2023-08-11 18:49:52.352154,-124.0
2023-08-11 18:49:52.359844,-124.0
2023-08-11 18:49:52.367533,-122.0
2023-08-11 18:49:52.375223,-124.0
2023-08-11 18:49:52.382913,-117.0
2023-08-11 18:49:52.390603,-115.0
2023-08-11 18:49:52.398292,-117.0
2023-08-11 18:49:52.405982,-112.0
2023-08-11 18:49:52.413672,-129.0
2023-08-11 18:49:52.421361,-136.0
2023-08-11 18:49:52.429051,79.0
2023-08-11 18:49:52.436741,699.0
2023-08-11 18:49:52.444431,1339.0
2023-08-11 18:49:52.452120,1272.0
2023-08-11 18:49:52.459810,287.0
2023-08-11 18:49:52.467500,-721.0
2023-08-11 18:49:52.475190,-762.0
2023-08-11 18:49:52.482879,-285.0
2023-08-11 18:49:52.490569,-158.0
2023-08-11 18:49:52.498259,-239.0
2023-08-11 18:49:52.505949,-208.0
2023-08-11 18:49:52.513638,-167.0
2023-08-11 18:49:52.521328,-177.0
2023-08-11 18:49:52.529018,-160.0
2023-08-11 18:49:52.536708,-131.0
2023-08-11 18:49:52.544397,-127.0
2023-08-11 18:49:52.552087,-122.0
2023-08-11 18:49:52.559777,-110.0
2023-08-11 18:49:52.567467,-95.0
2023-08-11 18:49:52.575156,-83.0
2023-08-11 18:49:52.582846,-69.0
2023-08-11 18:49:52.590536,-59.0
2023-08-11 18:49:52.598225,-50.0
2023-08-11 18:49:52.605915,-33.0
2023-08-11 18:49:52.613605,-19.0
2023-08-11 18:49:52.621295,-11.0
2023-08-11 18:49:52.628984,0.0
2023-08-11 18:49:52.636674,16.0
2023-08-11 18:49:52.644364,31.0
2023-08-11 18:49:52.652054,45.0
2023-08-11 18:49:52.659743,69.0
2023-08-11 18:49:52.667433,91.0
2023-08-11 18:49:52.675123,107.0
2023-08-11 18:49:52.682813,127.0
2023-08-11 18:49:52.690502,153.0
2023-08-11 18:49:52.698192,179.0
2023-08-11 18:49:52.705882,196.0
2023-08-11 18:49:52.713572,213.0
2023-08-11 18:49:52.721261,222.0
2023-08-11 18:49:52.728951,225.0
2023-08-11 18:49:52.736641,218.0
2023-08-11 18:49:52.744331,198.0
2023-08-11 18:49:52.752020,160.0
2023-08-11 18:49:52.759710,103.0
2023-08-11 18:49:52.767400,31.0
2023-08-11 18:49:52.775089,-43.0
2023-08-11 18:49:52.782779,-110.0
2023-08-11 18:49:52.790469,-158.0
2023-08-11 18:49:52.798159,-186.0
2023-08-11 18:49:52.805848,-203.0
2023-08-11 18:49:52.813538,-215.0
2023-08-11 18:49:52.821228,-222.0
2023-08-11 18:49:52.828918,-222.0
2023-08-11 18:49:52.836607,-213.0
2023-08-11 18:49:52.844297,-206.0
2023-08-11 18:49:52.851987,-196.0
2023-08-11 18:49:52.859677,-189.0
2023-08-11 18:49:52.867366,-182.0
2023-08-11 18:49:52.875056,-174.0
2023-08-11 18:49:52.882746,-167.0
2023-08-11 18:49:52.890436,-160.0
2023-08-11 18:49:52.898125,-155.0
2023-08-11 18:49:52.905815,-148.0
2023-08-11 18:49:52.913505,-148.0
2023-08-11 18:49:52.921195,-150.0
2023-08-11 18:49:52.928884,-150.0
2023-08-11 18:49:52.936574,-146.0
2023-08-11 18:49:52.944264,-146.0
2023-08-11 18:49:52.951954,-148.0
2023-08-11 18:49:52.959643,-146.0
2023-08-11 18:49:52.967333,-143.0
2023-08-11 18:49:52.975023,-143.0
2023-08-11 18:49:52.982712,-143.0
2023-08-11 18:49:52.990402,-141.0
2023-08-11 18:49:52.998092,-143.0
2023-08-11 18:49:53.005782,-148.0
2023-08-11 18:49:53.013471,-143.0
2023-08-11 18:49:53.021161,-139.0
2023-08-11 18:49:53.028851,-136.0
2023-08-11 18:49:53.036541,-134.0
2023-08-11 18:49:53.044230,-129.0
2023-08-11 18:49:53.051920,-127.0
2023-08-11 18:49:53.059610,-127.0
2023-08-11 18:49:53.067300,-124.0
2023-08-11 18:49:53.074989,-122.0
2023-08-11 18:49:53.082679,-119.0
2023-08-11 18:49:53.090369,-117.0
2023-08-11 18:49:53.098059,-115.0
2023-08-11 18:49:53.105748,-110.0
2023-08-11 18:49:53.113438,-110.0
2023-08-11 18:49:53.121128,-107.0
2023-08-11 18:49:53.128818,-110.0
2023-08-11 18:49:53.136507,-117.0
2023-08-11 18:49:53.144197,-112.0
2023-08-11 18:49:53.151887,-105.0
2023-08-11 18:49:53.159576,-105.0
2023-08-11 18:49:53.167266,-112.0
2023-08-11 18:49:53.174956,-117.0
2023-08-11 18:49:53.182646,-115.0
2023-08-11 18:49:53.190335,-110.0
2023-08-11 18:49:53.198025,-105.0
2023-08-11 18:49:53.205715,-105.0
2023-08-11 18:49:53.213405,-103.0
2023-08-11 18:49:53.221094,-105.0
2023-08-11 18:49:53.228784,-107.0
2023-08-11 18:49:53.236474,-107.0
2023-08-11 18:49:53.244164,-107.0
2023-08-11 18:49:53.251853,-110.0
2023-08-11 18:49:53.259543,-105.0
2023-08-11 18:49:53.267233,-103.0
2023-08-11 18:49:53.274923,-105.0
2023-08-11 18:49:53.282612,-105.0
2023-08-11 18:49:53.290302,-103.0
2023-08-11 18:49:53.297992,-100.0
2023-08-11 18:49:53.305682,-98.0
2023-08-11 18:49:53.313371,-105.0
2023-08-11 18:49:53.321061,-103.0
2023-08-11 18:49:53.328751,-71.0
2023-08-11 18:49:53.336440,-28.0
2023-08-11 18:49:53.344130,-23.0
2023-08-11 18:49:53.351820,-33.0
2023-08-11 18:49:53.359510,-31.0
2023-08-11 18:49:53.367199,-52.0
2023-08-11 18:49:53.374889,-91.0
2023-08-11 18:49:53.382579,-105.0
2023-08-11 18:49:53.390269,-103.0
2023-08-11 18:49:53.397958,-103.0
2023-08-11 18:49:53.405648,-103.0
2023-08-11 18:49:53.413338,-100.0
2023-08-11 18:49:53.421028,-105.0
2023-08-11 18:49:53.428717,-107.0
2023-08-11 18:49:53.436407,-105.0
2023-08-11 18:49:53.444097,-122.0
2023-08-11 18:49:53.451787,-112.0
2023-08-11 18:49:53.459476,158.0
2023-08-11 18:49:53.467166,819.0
2023-08-11 18:49:53.474856,1428.0
2023-08-11 18:49:53.482546,1260.0
2023-08-11 18:49:53.490235,201.0
2023-08-11 18:49:53.497925,-752.0
2023-08-11 18:49:53.505615,-673.0
2023-08-11 18:49:53.513304,-194.0
2023-08-11 18:49:53.520994,-143.0
2023-08-11 18:49:53.528684,-239.0
2023-08-11 18:49:53.536374,-184.0
2023-08-11 18:49:53.544063,-153.0
2023-08-11 18:49:53.551753,-177.0
2023-08-11 18:49:53.559443,-150.0
2023-08-11 18:49:53.567133,-122.0
2023-08-11 18:49:53.574822,-122.0
2023-08-11 18:49:53.582512,-110.0
2023-08-11 18:49:53.590202,-93.0
2023-08-11 18:49:53.597892,-83.0
2023-08-11 18:49:53.605581,-74.0
2023-08-11 18:49:53.613271,-59.0
2023-08-11 18:49:53.620961,-50.0
2023-08-11 18:49:53.628651,-40.0
2023-08-11 18:49:53.636340,-28.0
2023-08-11 18:49:53.644030,-16.0
2023-08-11 18:49:53.651720,0.0
2023-08-11 18:49:53.659410,14.0
2023-08-11 18:49:53.667099,23.0
2023-08-11 18:49:53.674789,40.0
2023-08-11 18:49:53.682479,59.0
2023-08-11 18:49:53.690168,79.0
2023-08-11 18:49:53.697858,98.0
2023-08-11 18:49:53.705548,119.0
2023-08-11 18:49:53.713238,143.0
2023-08-11 18:49:53.720927,167.0
2023-08-11 18:49:53.728617,189.0
2023-08-11 18:49:53.736307,208.0
2023-08-11 18:49:53.743997,227.0
2023-08-11 18:49:53.751686,234.0
2023-08-11 18:49:53.759376,237.0
2023-08-11 18:49:53.767066,230.0
2023-08-11 18:49:53.774756,210.0
2023-08-11 18:49:53.782445,174.0
2023-08-11 18:49:53.790135,115.0
2023-08-11 18:49:53.797825,43.0
2023-08-11 18:49:53.805515,-31.0
2023-08-11 18:49:53.813204,-98.0
2023-08-11 18:49:53.820894,-148.0
2023-08-11 18:49:53.828584,-182.0
2023-08-11 18:49:53.836274,-203.0
2023-08-11 18:49:53.843963,-213.0
2023-08-11 18:49:53.851653,-218.0
2023-08-11 18:49:53.859343,-215.0
2023-08-11 18:49:53.867032,-206.0
2023-08-11 18:49:53.874722,-198.0
2023-08-11 18:49:53.882412,-194.0
2023-08-11 18:49:53.890102,-186.0
2023-08-11 18:49:53.897791,-179.0
2023-08-11 18:49:53.905481,-174.0
2023-08-11 18:49:53.913171,-170.0
2023-08-11 18:49:53.920861,-162.0
2023-08-11 18:49:53.928550,-155.0
2023-08-11 18:49:53.936240,-155.0
2023-08-11 18:49:53.943930,-153.0
2023-08-11 18:49:53.951620,-148.0
2023-08-11 18:49:53.959309,-146.0
2023-08-11 18:49:53.966999,-143.0
2023-08-11 18:49:53.974689,-143.0
2023-08-11 18:49:53.982379,-143.0
2023-08-11 18:49:53.990068,-143.0
2023-08-11 18:49:53.997758,-139.0
2023-08-11 18:49:54.005448,-139.0
2023-08-11 18:49:54.013138,-139.0
2023-08-11 18:49:54.020827,-136.0
2023-08-11 18:49:54.028517,-134.0
2023-08-11 18:49:54.036207,-134.0
2023-08-11 18:49:54.043896,-129.0
2023-08-11 18:49:54.051586,-124.0
2023-08-11 18:49:54.059276,-124.0
2023-08-11 18:49:54.066966,-122.0
2023-08-11 18:49:54.074655,-122.0
2023-08-11 18:49:54.082345,-129.0
2023-08-11 18:49:54.090035,-129.0
2023-08-11 18:49:54.097725,-119.0
2023-08-11 18:49:54.105414,-117.0
2023-08-11 18:49:54.113104,-117.0
2023-08-11 18:49:54.120794,-117.0
2023-08-11 18:49:54.128484,-115.0
2023-08-11 18:49:54.136173,-115.0
2023-08-11 18:49:54.143863,-117.0
2023-08-11 18:49:54.151553,-117.0
2023-08-11 18:49:54.159243,-115.0
2023-08-11 18:49:54.166932,-115.0
2023-08-11 18:49:54.174622,-115.0
2023-08-11 18:49:54.182312,-107.0
2023-08-11 18:49:54.190002,-105.0
2023-08-11 18:49:54.197691,-110.0
2023-08-11 18:49:54.205381,-110.0
2023-08-11 18:49:54.213071,-107.0
2023-08-11 18:49:54.220760,-105.0
2023-08-11 18:49:54.228450,-105.0
2023-08-11 18:49:54.236140,-103.0
2023-08-11 18:49:54.243830,-103.0
2023-08-11 18:49:54.251519,-103.0
2023-08-11 18:49:54.259209,-105.0
2023-08-11 18:49:54.266899,-105.0
2023-08-11 18:49:54.274589,-107.0
2023-08-11 18:49:54.282278,-105.0
2023-08-11 18:49:54.289968,-98.0
2023-08-11 18:49:54.297658,-95.0
2023-08-11 18:49:54.305348,-98.0
2023-08-11 18:49:54.313037,-98.0
2023-08-11 18:49:54.320727,-95.0
2023-08-11 18:49:54.328417,-93.0
2023-08-11 18:49:54.336107,-93.0
2023-08-11 18:49:54.343796,-91.0
2023-08-11 18:49:54.351486,-91.0
2023-08-11 18:49:54.359176,-91.0
2023-08-11 18:49:54.366866,-86.0
2023-08-11 18:49:54.374555,-86.0
2023-08-11 18:49:54.382245,-86.0
2023-08-11 18:49:54.389935,-88.0
2023-08-11 18:49:54.397624,-93.0
2023-08-11 18:49:54.405314,-76.0
2023-08-11 18:49:54.413004,-33.0
2023-08-11 18:49:54.420694,-7.0
2023-08-11 18:49:54.428383,-19.0
2023-08-11 18:49:54.436073,-19.0
2023-08-11 18:49:54.443763,-28.0
2023-08-11 18:49:54.451453,-69.0
2023-08-11 18:49:54.459142,-95.0
2023-08-11 18:49:54.466832,-91.0
2023-08-11 18:49:54.474522,-88.0
2023-08-11 18:49:54.482212,-93.0
2023-08-11 18:49:54.489901,-93.0
2023-08-11 18:49:54.497591,-93.0
2023-08-11 18:49:54.505281,-91.0
2023-08-11 18:49:54.512971,-91.0
2023-08-11 18:49:54.520660,-100.0
2023-08-11 18:49:54.528350,-117.0
2023-08-11 18:49:54.536040,35.0
2023-08-11 18:49:54.543730,599.0
2023-08-11 18:49:54.551419,1318.0
2023-08-11 18:49:54.559109,1469.0
2023-08-11 18:49:54.566799,625.0
2023-08-11 18:49:54.574488,-532.0
2023-08-11 18:49:54.582178,-793.0
2023-08-11 18:49:54.589868,-304.0
2023-08-11 18:49:54.597558,-105.0
2023-08-11 18:49:54.605247,-218.0
2023-08-11 18:49:54.612937,-198.0
2023-08-11 18:49:54.620627,-134.0
2023-08-11 18:49:54.628317,-153.0
2023-08-11 18:49:54.636006,-146.0
2023-08-11 18:49:54.643696,-115.0
2023-08-11 18:49:54.651386,-115.0
2023-08-11 18:49:54.659076,-110.0
2023-08-11 18:49:54.666765,-95.0
2023-08-11 18:49:54.674455,-88.0
2023-08-11 18:49:54.682145,-76.0
2023-08-11 18:49:54.689835,-59.0
2023-08-11 18:49:54.697524,-47.0
2023-08-11 18:49:54.705214,-35.0
2023-08-11 18:49:54.712904,-23.0
2023-08-11 18:49:54.720594,-9.0
2023-08-11 18:49:54.728283,4.0
2023-08-11 18:49:54.735973,16.0
2023-08-11 18:49:54.743663,31.0
2023-08-11 18:49:54.751353,47.0
2023-08-11 18:49:54.759042,64.0
2023-08-11 18:49:54.766732,81.0
2023-08-11 18:49:54.774422,98.0
2023-08-11 18:49:54.782111,119.0
2023-08-11 18:49:54.789801,146.0
2023-08-11 18:49:54.797491,167.0
2023-08-11 18:49:54.805181,186.0
2023-08-11 18:49:54.812870,206.0
2023-08-11 18:49:54.820560,222.0
2023-08-11 18:49:54.828250,237.0
2023-08-11 18:49:54.835940,246.0
2023-08-11 18:49:54.843629,242.0
2023-08-11 18:49:54.851319,227.0
2023-08-11 18:49:54.859009,201.0
2023-08-11 18:49:54.866699,153.0
2023-08-11 18:49:54.874388,86.0
2023-08-11 18:49:54.882078,14.0
2023-08-11 18:49:54.889768,-57.0
2023-08-11 18:49:54.897458,-115.0
2023-08-11 18:49:54.905147,-153.0
2023-08-11 18:49:54.912837,-182.0
2023-08-11 18:49:54.920527,-203.0
2023-08-11 18:49:54.928217,-210.0
2023-08-11 18:49:54.935906,-208.0
2023-08-11 18:49:54.943596,-203.0
2023-08-11 18:49:54.951286,-196.0
2023-08-11 18:49:54.958975,-189.0
2023-08-11 18:49:54.966665,-184.0
2023-08-11 18:49:54.974355,-177.0
2023-08-11 18:49:54.982045,-170.0
2023-08-11 18:49:54.989734,-162.0
2023-08-11 18:49:54.997424,-158.0
2023-08-11 18:49:55.005114,-150.0
2023-08-11 18:49:55.012804,-148.0
2023-08-11 18:49:55.020493,-143.0
2023-08-11 18:49:55.028183,-136.0
2023-08-11 18:49:55.035873,-134.0
2023-08-11 18:49:55.043563,-139.0
2023-08-11 18:49:55.051252,-136.0
2023-08-11 18:49:55.058942,-131.0
2023-08-11 18:49:55.066632,-129.0
2023-08-11 18:49:55.074322,-134.0
2023-08-11 18:49:55.082011,-131.0
2023-08-11 18:49:55.089701,-127.0
2023-08-11 18:49:55.097391,-127.0
2023-08-11 18:49:55.105081,-124.0
2023-08-11 18:49:55.112770,-122.0
2023-08-11 18:49:55.120460,-122.0
2023-08-11 18:49:55.128150,-117.0
2023-08-11 18:49:55.135839,-117.0
2023-08-11 18:49:55.143529,-124.0
2023-08-11 18:49:55.151219,-127.0
2023-08-11 18:49:55.158909,-122.0
2023-08-11 18:49:55.166598,-117.0
2023-08-11 18:49:55.174288,-117.0
2023-08-11 18:49:55.181978,-117.0
2023-08-11 18:49:55.189668,-110.0
2023-08-11 18:49:55.197357,-105.0
2023-08-11 18:49:55.205047,-103.0
2023-08-11 18:49:55.212737,-105.0
2023-08-11 18:49:55.220427,-103.0
2023-08-11 18:49:55.228116,-100.0
2023-08-11 18:49:55.235806,-100.0
2023-08-11 18:49:55.243496,-105.0
2023-08-11 18:49:55.251186,-110.0
2023-08-11 18:49:55.258875,-112.0
2023-08-11 18:49:55.266565,-110.0
2023-08-11 18:49:55.274255,-103.0
2023-08-11 18:49:55.281945,-103.0
2023-08-11 18:49:55.289634,-107.0
2023-08-11 18:49:55.297324,-117.0
2023-08-11 18:49:55.305014,-115.0
2023-08-11 18:49:55.312703,-112.0
2023-08-11 18:49:55.320393,-115.0
2023-08-11 18:49:55.328083,-110.0
2023-08-11 18:49:55.335773,-103.0
2023-08-11 18:49:55.343462,-105.0
2023-08-11 18:49:55.351152,-107.0
2023-08-11 18:49:55.358842,-100.0
2023-08-11 18:49:55.366532,-100.0
2023-08-11 18:49:55.374221,-100.0
2023-08-11 18:49:55.381911,-95.0
2023-08-11 18:49:55.389601,-95.0
2023-08-11 18:49:55.397291,-95.0
2023-08-11 18:49:55.404980,-91.0
2023-08-11 18:49:55.412670,-88.0
2023-08-11 18:49:55.420360,-91.0
2023-08-11 18:49:55.428050,-91.0
2023-08-11 18:49:55.435739,-91.0
2023-08-11 18:49:55.443429,-86.0
2023-08-11 18:49:55.451119,-86.0
2023-08-11 18:49:55.458809,-93.0
2023-08-11 18:49:55.466498,-91.0
2023-08-11 18:49:55.474188,-79.0
2023-08-11 18:49:55.481878,-50.0
2023-08-11 18:49:55.489567,-14.0
2023-08-11 18:49:55.497257,-9.0
2023-08-11 18:49:55.504947,-16.0
2023-08-11 18:49:55.512637,-14.0
2023-08-11 18:49:55.520326,-40.0
2023-08-11 18:49:55.528016,-81.0
2023-08-11 18:49:55.535706,-88.0
2023-08-11 18:49:55.543396,-79.0
2023-08-11 18:49:55.551085,-79.0
2023-08-11 18:49:55.558775,-83.0
2023-08-11 18:49:55.566465,-83.0
2023-08-11 18:49:55.574155,-81.0
2023-08-11 18:49:55.581844,-79.0
2023-08-11 18:49:55.589534,-83.0
2023-08-11 18:49:55.597224,-110.0
2023-08-11 18:49:55.604914,-52.0
2023-08-11 18:49:55.612603,359.0
2023-08-11 18:49:55.620293,1100.0
2023-08-11 18:49:55.627983,1512.0
2023-08-11 18:49:55.635673,965.0
2023-08-11 18:49:55.643362,-213.0
2023-08-11 18:49:55.651052,-829.0
2023-08-11 18:49:55.658742,-505.0
2023-08-11 18:49:55.666431,-146.0
2023-08-11 18:49:55.674121,-174.0
2023-08-11 18:49:55.681811,-210.0
2023-08-11 18:49:55.689501,-148.0
2023-08-11 18:49:55.697190,-136.0
2023-08-11 18:49:55.704880,-146.0
2023-08-11 18:49:55.712570,-117.0
2023-08-11 18:49:55.720260,-100.0
2023-08-11 18:49:55.727949,-95.0
2023-08-11 18:49:55.735639,-81.0
2023-08-11 18:49:55.743329,-71.0
2023-08-11 18:49:55.751019,-64.0
2023-08-11 18:49:55.758708,-50.0
2023-08-11 18:49:55.766398,-35.0
2023-08-11 18:49:55.774088,-23.0
2023-08-11 18:49:55.781778,-14.0
2023-08-11 18:49:55.789467,-9.0
2023-08-11 18:49:55.797157,-4.0
2023-08-11 18:49:55.804847,11.0
2023-08-11 18:49:55.812537,31.0
2023-08-11 18:49:55.820226,43.0
2023-08-11 18:49:55.827916,57.0
2023-08-11 18:49:55.835606,74.0
2023-08-11 18:49:55.843295,91.0
2023-08-11 18:49:55.850985,110.0
2023-08-11 18:49:55.858675,131.0
2023-08-11 18:49:55.866365,155.0
2023-08-11 18:49:55.874054,174.0
2023-08-11 18:49:55.881744,194.0
2023-08-11 18:49:55.889434,210.0
2023-08-11 18:49:55.897124,222.0
2023-08-11 18:49:55.904813,230.0
2023-08-11 18:49:55.912503,232.0
2023-08-11 18:49:55.920193,222.0
2023-08-11 18:49:55.927883,201.0
2023-08-11 18:49:55.935572,162.0
2023-08-11 18:49:55.943262,105.0
2023-08-11 18:49:55.950952,33.0
2023-08-11 18:49:55.958642,-40.0
2023-08-11 18:49:55.966331,-98.0
2023-08-11 18:49:55.974021,-139.0
2023-08-11 18:49:55.981711,-170.0
2023-08-11 18:49:55.989401,-189.0
2023-08-11 18:49:55.997090,-198.0
2023-08-11 18:49:56.004780,-196.0
2023-08-11 18:49:56.012470,-194.0
2023-08-11 18:49:56.020159,-191.0
2023-08-11 18:49:56.027849,-186.0
2023-08-11 18:49:56.035539,-174.0
2023-08-11 18:49:56.043229,-167.0
2023-08-11 18:49:56.050918,-160.0
2023-08-11 18:49:56.058608,-155.0
2023-08-11 18:49:56.066298,-148.0
2023-08-11 18:49:56.073988,-143.0
2023-08-11 18:49:56.081677,-139.0
2023-08-11 18:49:56.089367,-136.0
2023-08-11 18:49:56.097057,-134.0
2023-08-11 18:49:56.104747,-134.0
2023-08-11 18:49:56.112436,-134.0
2023-08-11 18:49:56.120126,-134.0
2023-08-11 18:49:56.127816,-136.0
2023-08-11 18:49:56.135506,-136.0
2023-08-11 18:49:56.143195,-136.0
2023-08-11 18:49:56.150885,-139.0
2023-08-11 18:49:56.158575,-141.0
2023-08-11 18:49:56.166265,-134.0
2023-08-11 18:49:56.173954,-129.0
2023-08-11 18:49:56.181644,-127.0
2023-08-11 18:49:56.189334,-124.0
2023-08-11 18:49:56.197023,-124.0
2023-08-11 18:49:56.204713,-127.0
2023-08-11 18:49:56.212403,-122.0
2023-08-11 18:49:56.220093,-117.0
2023-08-11 18:49:56.227782,-117.0
2023-08-11 18:49:56.235472,-122.0
2023-08-11 18:49:56.243162,-119.0
2023-08-11 18:49:56.250852,-115.0
2023-08-11 18:49:56.258541,-112.0
2023-08-11 18:49:56.266231,-112.0
2023-08-11 18:49:56.273921,-110.0
2023-08-11 18:49:56.281611,-110.0
2023-08-11 18:49:56.289300,-112.0
2023-08-11 18:49:56.296990,-115.0
2023-08-11 18:49:56.304680,-112.0
2023-08-11 18:49:56.312370,-112.0
2023-08-11 18:49:56.320059,-107.0
2023-08-11 18:49:56.327749,-107.0
2023-08-11 18:49:56.335439,-110.0
2023-08-11 18:49:56.343129,-110.0
2023-08-11 18:49:56.350818,-105.0
2023-08-11 18:49:56.358508,-103.0
2023-08-11 18:49:56.366198,-100.0
2023-08-11 18:49:56.373888,-107.0
2023-08-11 18:49:56.381577,-117.0
2023-08-11 18:49:56.389267,-112.0
2023-08-11 18:49:56.396957,-105.0
2023-08-11 18:49:56.404646,-107.0
2023-08-11 18:49:56.412336,-107.0
2023-08-11 18:49:56.420026,-103.0
2023-08-11 18:49:56.427716,-103.0
2023-08-11 18:49:56.435405,-103.0
2023-08-11 18:49:56.443095,-95.0
2023-08-11 18:49:56.450785,-95.0
2023-08-11 18:49:56.458475,-95.0
2023-08-11 18:49:56.466164,-91.0
2023-08-11 18:49:56.473854,-93.0
2023-08-11 18:49:56.481544,-95.0
2023-08-11 18:49:56.489234,-91.0
2023-08-11 18:49:56.496923,-88.0
2023-08-11 18:49:56.504613,-93.0
2023-08-11 18:49:56.512303,-98.0
2023-08-11 18:49:56.519993,-76.0
2023-08-11 18:49:56.527682,-35.0
2023-08-11 18:49:56.535372,-11.0
2023-08-11 18:49:56.543062,-19.0
2023-08-11 18:49:56.550752,-19.0
2023-08-11 18:49:56.558441,-26.0
2023-08-11 18:49:56.566131,-64.0
2023-08-11 18:49:56.573821,-93.0
2023-08-11 18:49:56.581510,-93.0
2023-08-11 18:49:56.589200,-86.0
2023-08-11 18:49:56.596890,-93.0
2023-08-11 18:49:56.604580,-93.0
2023-08-11 18:49:56.612269,-91.0
2023-08-11 18:49:56.619959,-93.0
2023-08-11 18:49:56.627649,-91.0
2023-08-11 18:49:56.635339,-100.0
2023-08-11 18:49:56.643028,-117.0
2023-08-11 18:49:56.650718,21.0
2023-08-11 18:49:56.658408,560.0
2023-08-11 18:49:56.666098,1260.0
2023-08-11 18:49:56.673787,1416.0
2023-08-11 18:49:56.681477,608.0
2023-08-11 18:49:56.689167,-517.0
2023-08-11 18:49:56.696857,-798.0
2023-08-11 18:49:56.704546,-335.0
2023-08-11 18:49:56.712236,-115.0
2023-08-11 18:49:56.719926,-206.0
2023-08-11 18:49:56.727616,-194.0
2023-08-11 18:49:56.735305,-134.0
2023-08-11 18:49:56.742995,-146.0
2023-08-11 18:49:56.750685,-141.0
2023-08-11 18:49:56.758374,-110.0
2023-08-11 18:49:56.766064,-103.0
2023-08-11 18:49:56.773754,-100.0
2023-08-11 18:49:56.781444,-83.0
2023-08-11 18:49:56.789133,-69.0
2023-08-11 18:49:56.796823,-59.0
2023-08-11 18:49:56.804513,-45.0
2023-08-11 18:49:56.812203,-35.0
2023-08-11 18:49:56.819892,-28.0
2023-08-11 18:49:56.827582,-14.0
2023-08-11 18:49:56.835272,2.0
2023-08-11 18:49:56.842962,11.0
2023-08-11 18:49:56.850651,26.0
2023-08-11 18:49:56.858341,40.0
2023-08-11 18:49:56.866031,50.0
2023-08-11 18:49:56.873721,62.0
2023-08-11 18:49:56.881410,83.0
2023-08-11 18:49:56.889100,105.0
2023-08-11 18:49:56.896790,122.0
2023-08-11 18:49:56.904480,146.0
2023-08-11 18:49:56.912169,165.0
2023-08-11 18:49:56.919859,177.0
2023-08-11 18:49:56.927549,196.0
2023-08-11 18:49:56.935238,215.0
2023-08-11 18:49:56.942928,230.0
2023-08-11 18:49:56.950618,234.0
2023-08-11 18:49:56.958308,232.0
2023-08-11 18:49:56.965997,215.0
2023-08-11 18:49:56.973687,184.0
2023-08-11 18:49:56.981377,131.0
2023-08-11 18:49:56.989067,62.0
2023-08-11 18:49:56.996756,-11.0
2023-08-11 18:49:57.004446,-79.0
2023-08-11 18:49:57.012136,-134.0
2023-08-11 18:49:57.019826,-167.0
2023-08-11 18:49:57.027515,-194.0
2023-08-11 18:49:57.035205,-208.0
2023-08-11 18:49:57.042895,-210.0
2023-08-11 18:49:57.050585,-210.0
2023-08-11 18:49:57.058274,-208.0
2023-08-11 18:49:57.065964,-198.0
2023-08-11 18:49:57.073654,-191.0
2023-08-11 18:49:57.081344,-186.0
2023-08-11 18:49:57.089033,-177.0
2023-08-11 18:49:57.096723,-170.0
2023-08-11 18:49:57.104413,-165.0
2023-08-11 18:49:57.112102,-158.0
2023-08-11 18:49:57.119792,-153.0
2023-08-11 18:49:57.127482,-148.0
2023-08-11 18:49:57.135172,-143.0
2023-08-11 18:49:57.142861,-139.0
2023-08-11 18:49:57.150551,-139.0
2023-08-11 18:49:57.158241,-141.0
2023-08-11 18:49:57.165931,-148.0
2023-08-11 18:49:57.173620,-148.0
2023-08-11 18:49:57.181310,-143.0
2023-08-11 18:49:57.189000,-141.0
2023-08-11 18:49:57.196690,-139.0
2023-08-11 18:49:57.204379,-134.0
2023-08-11 18:49:57.212069,-136.0
2023-08-11 18:49:57.219759,-134.0
2023-08-11 18:49:57.227449,-131.0
2023-08-11 18:49:57.235138,-131.0
2023-08-11 18:49:57.242828,-129.0
2023-08-11 18:49:57.250518,-122.0
2023-08-11 18:49:57.258208,-124.0
2023-08-11 18:49:57.265897,-129.0
2023-08-11 18:49:57.273587,-124.0
2023-08-11 18:49:57.281277,-119.0
2023-08-11 18:49:57.288966,-117.0
2023-08-11 18:49:57.296656,-112.0
2023-08-11 18:49:57.304346,-112.0
2023-08-11 18:49:57.312036,-119.0
2023-08-11 18:49:57.319725,-119.0
2023-08-11 18:49:57.327415,-117.0
2023-08-11 18:49:57.335105,-119.0
2023-08-11 18:49:57.342795,-115.0
2023-08-11 18:49:57.350484,-112.0
2023-08-11 18:49:57.358174,-117.0
2023-08-11 18:49:57.365864,-117.0
2023-08-11 18:49:57.373554,-112.0
2023-08-11 18:49:57.381243,-112.0
2023-08-11 18:49:57.388933,-107.0
2023-08-11 18:49:57.396623,-105.0
2023-08-11 18:49:57.404313,-105.0
2023-08-11 18:49:57.412002,-105.0
2023-08-11 18:49:57.419692,-103.0
2023-08-11 18:49:57.427382,-100.0
2023-08-11 18:49:57.435072,-98.0
2023-08-11 18:49:57.442761,-95.0
2023-08-11 18:49:57.450451,-100.0
2023-08-11 18:49:57.458141,-110.0
2023-08-11 18:49:57.465830,-107.0
2023-08-11 18:49:57.473520,-98.0
2023-08-11 18:49:57.481210,-98.0
2023-08-11 18:49:57.488900,-100.0
2023-08-11 18:49:57.496589,-95.0
2023-08-11 18:49:57.504279,-93.0
2023-08-11 18:49:57.511969,-93.0
2023-08-11 18:49:57.519659,-91.0
2023-08-11 18:49:57.527348,-88.0
2023-08-11 18:49:57.535038,-88.0
2023-08-11 18:49:57.542728,-86.0
2023-08-11 18:49:57.550418,-83.0
2023-08-11 18:49:57.558107,-83.0
2023-08-11 18:49:57.565797,-83.0
2023-08-11 18:49:57.573487,-81.0
2023-08-11 18:49:57.581177,-79.0
2023-08-11 18:49:57.588866,-81.0
2023-08-11 18:49:57.596556,-86.0
2023-08-11 18:49:57.604246,-83.0
2023-08-11 18:49:57.611936,-47.0
2023-08-11 18:49:57.619625,-7.0
2023-08-11 18:49:57.627315,-4.0
2023-08-11 18:49:57.635005,-16.0
2023-08-11 18:49:57.642694,-14.0
2023-08-11 18:49:57.650384,-35.0
2023-08-11 18:49:57.658074,-79.0
2023-08-11 18:49:57.665764,-93.0
2023-08-11 18:49:57.673453,-91.0
2023-08-11 18:49:57.681143,-98.0
2023-08-11 18:49:57.688833,-95.0
2023-08-11 18:49:57.696523,-88.0
2023-08-11 18:49:57.704212,-88.0
2023-08-11 18:49:57.711902,-86.0
2023-08-11 18:49:57.719592,-91.0
2023-08-11 18:49:57.727282,-115.0
2023-08-11 18:49:57.734971,-81.0
2023-08-11 18:49:57.742661,263.0
2023-08-11 18:49:57.750351,963.0
2023-08-11 18:49:57.758041,1485.0
2023-08-11 18:49:57.765730,1145.0
2023-08-11 18:49:57.773420,4.0
2023-08-11 18:49:57.781110,-800.0
2023-08-11 18:49:57.788800,-560.0
2023-08-11 18:49:57.796489,-124.0
2023-08-11 18:49:57.804179,-148.0
2023-08-11 18:49:57.811869,-225.0
2023-08-11 18:49:57.819558,-153.0
2023-08-11 18:49:57.827248,-129.0
2023-08-11 18:49:57.834938,-148.0
2023-08-11 18:49:57.842628,-122.0
2023-08-11 18:49:57.850317,-100.0
2023-08-11 18:49:57.858007,-98.0
2023-08-11 18:49:57.865697,-88.0
2023-08-11 18:49:57.873387,-74.0
2023-08-11 18:49:57.881076,-64.0
2023-08-11 18:49:57.888766,-52.0
2023-08-11 18:49:57.896456,-40.0
2023-08-11 18:49:57.904146,-28.0
2023-08-11 18:49:57.911835,-16.0
2023-08-11 18:49:57.919525,-2.0
2023-08-11 18:49:57.927215,11.0
2023-08-11 18:49:57.934905,23.0
2023-08-11 18:49:57.942594,38.0
2023-08-11 18:49:57.950284,50.0
2023-08-11 18:49:57.957974,64.0
2023-08-11 18:49:57.965664,81.0
2023-08-11 18:49:57.973353,100.0
2023-08-11 18:49:57.981043,122.0
2023-08-11 18:49:57.988733,143.0
2023-08-11 18:49:57.996423,162.0
2023-08-11 18:49:58.004112,184.0
2023-08-11 18:49:58.011802,208.0
2023-08-11 18:49:58.019492,230.0
2023-08-11 18:49:58.027181,244.0
2023-08-11 18:49:58.034871,246.0
2023-08-11 18:49:58.042561,239.0
2023-08-11 18:49:58.050251,227.0
2023-08-11 18:49:58.057940,210.0
2023-08-11 18:49:58.065630,174.0
2023-08-11 18:49:58.073320,110.0
2023-08-11 18:49:58.081010,38.0
2023-08-11 18:49:58.088699,-35.0
2023-08-11 18:49:58.096389,-103.0
2023-08-11 18:49:58.104079,-150.0
2023-08-11 18:49:58.111769,-182.0
2023-08-11 18:49:58.119458,-203.0
2023-08-11 18:49:58.127148,-220.0
2023-08-11 18:49:58.134838,-232.0
2023-08-11 18:49:58.142528,-232.0
2023-08-11 18:49:58.150217,-220.0
2023-08-11 18:49:58.157907,-210.0
2023-08-11 18:49:58.165597,-206.0
2023-08-11 18:49:58.173287,-201.0
2023-08-11 18:49:58.180976,-194.0
2023-08-11 18:49:58.188666,-184.0
2023-08-11 18:49:58.196356,-177.0
2023-08-11 18:49:58.204045,-170.0
2023-08-11 18:49:58.211735,-160.0
2023-08-11 18:49:58.219425,-162.0
2023-08-11 18:49:58.227115,-167.0
2023-08-11 18:49:58.234804,-162.0
2023-08-11 18:49:58.242494,-153.0
2023-08-11 18:49:58.250184,-153.0
2023-08-11 18:49:58.257874,-155.0
2023-08-11 18:49:58.265563,-150.0
2023-08-11 18:49:58.273253,-153.0
2023-08-11 18:49:58.280943,-153.0
2023-08-11 18:49:58.288633,-146.0
2023-08-11 18:49:58.296322,-143.0
2023-08-11 18:49:58.304012,-146.0
2023-08-11 18:49:58.311702,-146.0
2023-08-11 18:49:58.319392,-141.0
2023-08-11 18:49:58.327081,-136.0
2023-08-11 18:49:58.334771,-136.0
2023-08-11 18:49:58.342461,-139.0
2023-08-11 18:49:58.350151,-136.0
2023-08-11 18:49:58.357840,-131.0
2023-08-11 18:49:58.365530,-131.0
2023-08-11 18:49:58.373220,-129.0
2023-08-11 18:49:58.380909,-124.0
2023-08-11 18:49:58.388599,-124.0
2023-08-11 18:49:58.396289,-129.0
2023-08-11 18:49:58.403979,-124.0
2023-08-11 18:49:58.411668,-124.0
2023-08-11 18:49:58.419358,-129.0
2023-08-11 18:49:58.427048,-122.0
2023-08-11 18:49:58.434738,-117.0
2023-08-11 18:49:58.442427,-119.0
2023-08-11 18:49:58.450117,-115.0
2023-08-11 18:49:58.457807,-112.0
2023-08-11 18:49:58.465497,-112.0
2023-08-11 18:49:58.473186,-110.0
2023-08-11 18:49:58.480876,-107.0
2023-08-11 18:49:58.488566,-107.0
2023-08-11 18:49:58.496256,-105.0
2023-08-11 18:49:58.503945,-100.0
2023-08-11 18:49:58.511635,-103.0
2023-08-11 18:49:58.519325,-105.0
2023-08-11 18:49:58.527015,-98.0
2023-08-11 18:49:58.534704,-95.0
2023-08-11 18:49:58.542394,-98.0
2023-08-11 18:49:58.550084,-95.0
2023-08-11 18:49:58.557773,-93.0
2023-08-11 18:49:58.565463,-95.0
2023-08-11 18:49:58.573153,-95.0
2023-08-11 18:49:58.580843,-93.0
2023-08-11 18:49:58.588532,-86.0
2023-08-11 18:49:58.596222,-83.0
2023-08-11 18:49:58.603912,-88.0
2023-08-11 18:49:58.611602,-91.0
2023-08-11 18:49:58.619291,-88.0
2023-08-11 18:49:58.626981,-91.0
2023-08-11 18:49:58.634671,-93.0
2023-08-11 18:49:58.642361,-88.0
2023-08-11 18:49:58.650050,-83.0
2023-08-11 18:49:58.657740,-86.0
2023-08-11 18:49:58.665430,-81.0
2023-08-11 18:49:58.673120,-81.0
2023-08-11 18:49:58.680809,-95.0
2023-08-11 18:49:58.688499,-100.0
2023-08-11 18:49:58.696189,-79.0
2023-08-11 18:49:58.703879,-38.0
2023-08-11 18:49:58.711568,-11.0
2023-08-11 18:49:58.719258,-19.0
2023-08-11 18:49:58.726948,-16.0
2023-08-11 18:49:58.734637,-16.0
2023-08-11 18:49:58.742327,-55.0
2023-08-11 18:49:58.750017,-88.0
2023-08-11 18:49:58.757707,-83.0
2023-08-11 18:49:58.765396,-76.0
2023-08-11 18:49:58.773086,-83.0
2023-08-11 18:49:58.780776,-86.0
2023-08-11 18:49:58.788466,-81.0
2023-08-11 18:49:58.796155,-76.0
2023-08-11 18:49:58.803845,-76.0
2023-08-11 18:49:58.811535,-88.0
2023-08-11 18:49:58.819225,-110.0
2023-08-11 18:49:58.826914,7.0
2023-08-11 18:49:58.834604,517.0
2023-08-11 18:49:58.842294,1248.0
2023-08-11 18:49:58.849984,1478.0
2023-08-11 18:49:58.857673,718.0
2023-08-11 18:49:58.865363,-443.0
2023-08-11 18:49:58.873053,-807.0
2023-08-11 18:49:58.880743,-373.0
2023-08-11 18:49:58.888432,-110.0
2023-08-11 18:49:58.896122,-186.0
2023-08-11 18:49:58.903812,-191.0
2023-08-11 18:49:58.911501,-127.0
2023-08-11 18:49:58.919191,-131.0
2023-08-11 18:49:58.926881,-134.0
2023-08-11 18:49:58.934571,-103.0
2023-08-11 18:49:58.942260,-83.0
2023-08-11 18:49:58.949950,-83.0
2023-08-11 18:49:58.957640,-76.0
2023-08-11 18:49:58.965330,-57.0
2023-08-11 18:49:58.973019,-45.0
2023-08-11 18:49:58.980709,-38.0
2023-08-11 18:49:58.988399,-23.0
2023-08-11 18:49:58.996089,-9.0
2023-08-11 18:49:59.003778,-2.0
2023-08-11 18:49:59.011468,7.0
2023-08-11 18:49:59.019158,23.0
2023-08-11 18:49:59.026848,33.0
2023-08-11 18:49:59.034537,43.0
2023-08-11 18:49:59.042227,64.0
2023-08-11 18:49:59.049917,83.0
2023-08-11 18:49:59.057607,95.0
2023-08-11 18:49:59.065296,112.0
2023-08-11 18:49:59.072986,136.0
2023-08-11 18:49:59.080676,155.0
2023-08-11 18:49:59.088365,174.0
2023-08-11 18:49:59.096055,198.0
2023-08-11 18:49:59.103745,218.0
2023-08-11 18:49:59.111435,232.0
2023-08-11 18:49:59.119124,244.0
2023-08-11 18:49:59.126814,251.0
2023-08-11 18:49:59.134504,246.0
2023-08-11 18:49:59.142194,234.0
2023-08-11 18:49:59.149883,206.0
2023-08-11 18:49:59.157573,148.0
2023-08-11 18:49:59.165263,74.0
2023-08-11 18:49:59.172953,-7.0
2023-08-11 18:49:59.180642,-76.0
2023-08-11 18:49:59.188332,-127.0
2023-08-11 18:49:59.196022,-165.0
2023-08-11 18:49:59.203712,-196.0
2023-08-11 18:49:59.211401,-208.0
2023-08-11 18:49:59.219091,-210.0
2023-08-11 18:49:59.226781,-213.0
2023-08-11 18:49:59.234471,-208.0
2023-08-11 18:49:59.242160,-201.0
2023-08-11 18:49:59.249850,-191.0
2023-08-11 18:49:59.257540,-182.0
2023-08-11 18:49:59.265229,-174.0
2023-08-11 18:49:59.272919,-165.0
2023-08-11 18:49:59.280609,-155.0
2023-08-11 18:49:59.288299,-150.0
2023-08-11 18:49:59.295988,-148.0
2023-08-11 18:49:59.303678,-141.0
2023-08-11 18:49:59.311368,-134.0
2023-08-11 18:49:59.319058,-136.0
2023-08-11 18:49:59.326747,-136.0
2023-08-11 18:49:59.334437,-134.0
2023-08-11 18:49:59.342127,-131.0
2023-08-11 18:49:59.349817,-131.0
2023-08-11 18:49:59.357506,-131.0
2023-08-11 18:49:59.365196,-131.0
2023-08-11 18:49:59.372886,-131.0
2023-08-11 18:49:59.380576,-131.0
2023-08-11 18:49:59.388265,-129.0
2023-08-11 18:49:59.395955,-127.0
2023-08-11 18:49:59.403645,-124.0
2023-08-11 18:49:59.411335,-127.0
2023-08-11 18:49:59.419024,-124.0
2023-08-11 18:49:59.426714,-119.0
2023-08-11 18:49:59.434404,-122.0
2023-08-11 18:49:59.442093,-122.0
2023-08-11 18:49:59.449783,-115.0
2023-08-11 18:49:59.457473,-112.0
2023-08-11 18:49:59.465163,-115.0
2023-08-11 18:49:59.472852,-117.0
2023-08-11 18:49:59.480542,-119.0
2023-08-11 18:49:59.488232,-119.0
2023-08-11 18:49:59.495922,-112.0
2023-08-11 18:49:59.503611,-112.0
2023-08-11 18:49:59.511301,-115.0
2023-08-11 18:49:59.518991,-112.0
2023-08-11 18:49:59.526681,-107.0
2023-08-11 18:49:59.534370,-110.0
2023-08-11 18:49:59.542060,-110.0
2023-08-11 18:49:59.549750,-103.0
2023-08-11 18:49:59.557440,-100.0
2023-08-11 18:49:59.565129,-105.0
2023-08-11 18:49:59.572819,-105.0
2023-08-11 18:49:59.580509,-100.0
2023-08-11 18:49:59.588199,-98.0
2023-08-11 18:49:59.595888,-98.0
2023-08-11 18:49:59.603578,-95.0
2023-08-11 18:49:59.611268,-93.0
2023-08-11 18:49:59.618958,-95.0
2023-08-11 18:49:59.626647,-93.0
2023-08-11 18:49:59.634337,-91.0
2023-08-11 18:49:59.642027,-88.0
2023-08-11 18:49:59.649716,-83.0
2023-08-11 18:49:59.657406,-86.0
2023-08-11 18:49:59.665096,-91.0
2023-08-11 18:49:59.672786,-86.0
2023-08-11 18:49:59.680475,-91.0
2023-08-11 18:49:59.688165,-93.0
2023-08-11 18:49:59.695855,-86.0
2023-08-11 18:49:59.703545,-93.0
2023-08-11 18:49:59.711234,-110.0
2023-08-11 18:49:59.718924,-107.0
2023-08-11 18:49:59.726614,-76.0
2023-08-11 18:49:59.734304,-35.0
2023-08-11 18:49:59.741993,-21.0
2023-08-11 18:49:59.749683,-31.0
2023-08-11 18:49:59.757373,-28.0
2023-08-11 18:49:59.765063,-38.0
2023-08-11 18:49:59.772752,-76.0
2023-08-11 18:49:59.780442,-100.0
2023-08-11 18:49:59.788132,-91.0
2023-08-11 18:49:59.795822,-91.0
2023-08-11 18:49:59.803511,-100.0
2023-08-11 18:49:59.811201,-95.0
2023-08-11 18:49:59.818891,-93.0
2023-08-11 18:49:59.826580,-93.0
2023-08-11 18:49:59.834270,-93.0
2023-08-11 18:49:59.841960,-110.0
2023-08-11 18:49:59.849650,-115.0
2023-08-11 18:49:59.857339,110.0
2023-08-11 18:49:59.865029,730.0
2023-08-11 18:49:59.872719,1368.0
2023-08-11 18:49:59.880409,1301.0
2023-08-11 18:49:59.888098,321.0
2023-08-11 18:49:59.895788,-680.0
2023-08-11 18:49:59.903478,-709.0
2023-08-11 18:49:59.911168,-237.0
2023-08-11 18:49:59.918857,-122.0
2023-08-11 18:49:59.926547,-208.0
2023-08-11 18:49:59.934237,-172.0
2023-08-11 18:49:59.941927,-129.0
2023-08-11 18:49:59.949616,-139.0
2023-08-11 18:49:59.957306,-127.0
2023-08-11 18:49:59.964996,-100.0
2023-08-11 18:49:59.972686,-98.0
2023-08-11 18:49:59.980375,-93.0
2023-08-11 18:49:59.988065,-71.0
2023-08-11 18:49:59.995755,-59.0
2023-08-11 18:50:00.003444,-55.0
2023-08-11 18:50:00.011134,-40.0
2023-08-11 18:50:00.018824,-26.0
2023-08-11 18:50:00.026514,-16.0
2023-08-11 18:50:00.034203,-4.0
2023-08-11 18:50:00.041893,9.0
2023-08-11 18:50:00.049583,26.0
2023-08-11 18:50:00.057273,38.0
2023-08-11 18:50:00.064962,47.0
2023-08-11 18:50:00.072652,62.0
2023-08-11 18:50:00.080342,79.0
2023-08-11 18:50:00.088032,98.0
2023-08-11 18:50:00.095721,117.0
2023-08-11 18:50:00.103411,143.0
2023-08-11 18:50:00.111101,167.0
2023-08-11 18:50:00.118791,186.0
2023-08-11 18:50:00.126480,206.0
2023-08-11 18:50:00.134170,230.0
2023-08-11 18:50:00.141860,246.0
2023-08-11 18:50:00.149550,256.0
2023-08-11 18:50:00.157239,256.0
2023-08-11 18:50:00.164929,246.0
2023-08-11 18:50:00.172619,222.0
2023-08-11 18:50:00.180308,179.0
2023-08-11 18:50:00.187998,107.0
2023-08-11 18:50:00.195688,23.0
2023-08-11 18:50:00.203378,-43.0
2023-08-11 18:50:00.211067,-103.0
2023-08-11 18:50:00.218757,-158.0
2023-08-11 18:50:00.226447,-186.0
2023-08-11 18:50:00.234137,-206.0
2023-08-11 18:50:00.241826,-220.0
2023-08-11 18:50:00.249516,-222.0
2023-08-11 18:50:00.257206,-218.0
2023-08-11 18:50:00.264896,-213.0
2023-08-11 18:50:00.272585,-201.0
2023-08-11 18:50:00.280275,-191.0
2023-08-11 18:50:00.287965,-189.0
2023-08-11 18:50:00.295655,-186.0
2023-08-11 18:50:00.303344,-177.0
2023-08-11 18:50:00.311034,-170.0
2023-08-11 18:50:00.318724,-165.0
2023-08-11 18:50:00.326414,-155.0
2023-08-11 18:50:00.334103,-148.0
2023-08-11 18:50:00.341793,-146.0
2023-08-11 18:50:00.349483,-143.0
2023-08-11 18:50:00.357172,-143.0
2023-08-11 18:50:00.364862,-139.0
2023-08-11 18:50:00.372552,-136.0
2023-08-11 18:50:00.380242,-139.0
2023-08-11 18:50:00.387931,-139.0
2023-08-11 18:50:00.395621,-136.0
2023-08-11 18:50:00.403311,-139.0
2023-08-11 18:50:00.411001,-136.0
2023-08-11 18:50:00.418690,-134.0
2023-08-11 18:50:00.426380,-129.0
2023-08-11 18:50:00.434070,-129.0
2023-08-11 18:50:00.441760,-127.0
2023-08-11 18:50:00.449449,-124.0
2023-08-11 18:50:00.457139,-127.0
2023-08-11 18:50:00.464829,-127.0
2023-08-11 18:50:00.472519,-122.0
2023-08-11 18:50:00.480208,-117.0
2023-08-11 18:50:00.487898,-115.0
2023-08-11 18:50:00.495588,-112.0
2023-08-11 18:50:00.503278,-115.0
2023-08-11 18:50:00.510967,-117.0
2023-08-11 18:50:00.518657,-115.0
2023-08-11 18:50:00.526347,-117.0
2023-08-11 18:50:00.534036,-119.0
2023-08-11 18:50:00.541726,-115.0
2023-08-11 18:50:00.549416,-110.0
2023-08-11 18:50:00.557106,-115.0
2023-08-11 18:50:00.564795,-117.0
2023-08-11 18:50:00.572485,-110.0
2023-08-11 18:50:00.580175,-107.0
2023-08-11 18:50:00.587865,-105.0
2023-08-11 18:50:00.595554,-103.0
2023-08-11 18:50:00.603244,-105.0
2023-08-11 18:50:00.610934,-100.0
2023-08-11 18:50:00.618624,-98.0
2023-08-11 18:50:00.626313,-103.0
2023-08-11 18:50:00.634003,-103.0
2023-08-11 18:50:00.641693,-95.0
2023-08-11 18:50:00.649383,-93.0
2023-08-11 18:50:00.657072,-95.0
2023-08-11 18:50:00.664762,-93.0
2023-08-11 18:50:00.672452,-88.0
2023-08-11 18:50:00.680142,-88.0
2023-08-11 18:50:00.687831,-88.0
2023-08-11 18:50:00.695521,-91.0
2023-08-11 18:50:00.703211,-93.0
2023-08-11 18:50:00.710900,-88.0
2023-08-11 18:50:00.718590,-88.0
2023-08-11 18:50:00.726280,-86.0
2023-08-11 18:50:00.733970,-83.0
2023-08-11 18:50:00.741659,-81.0
2023-08-11 18:50:00.749349,-79.0
2023-08-11 18:50:00.757039,-79.0
2023-08-11 18:50:00.764729,-76.0
2023-08-11 18:50:00.772418,-74.0
2023-08-11 18:50:00.780108,-81.0
2023-08-11 18:50:00.787798,-81.0
2023-08-11 18:50:00.795488,-62.0
2023-08-11 18:50:00.803177,-23.0
2023-08-11 18:50:00.810867,-7.0
2023-08-11 18:50:00.818557,-11.0
2023-08-11 18:50:00.826247,-14.0
2023-08-11 18:50:00.833936,-35.0
2023-08-11 18:50:00.841626,-76.0
2023-08-11 18:50:00.849316,-93.0
2023-08-11 18:50:00.857006,-91.0
2023-08-11 18:50:00.864695,-93.0
2023-08-11 18:50:00.872385,-93.0
2023-08-11 18:50:00.880075,-93.0
2023-08-11 18:50:00.887764,-93.0
2023-08-11 18:50:00.895454,-91.0
2023-08-11 18:50:00.903144,-86.0
2023-08-11 18:50:00.910834,-95.0
2023-08-11 18:50:00.918523,-119.0
2023-08-11 18:50:00.926213,23.0
2023-08-11 18:50:00.933903,584.0
2023-08-11 18:50:00.941593,1303.0
2023-08-11 18:50:00.949282,1454.0
2023-08-11 18:50:00.956972,618.0
2023-08-11 18:50:00.964662,-517.0
2023-08-11 18:50:00.972352,-778.0
2023-08-11 18:50:00.980041,-321.0
2023-08-11 18:50:00.987731,-112.0
2023-08-11 18:50:00.995421,-203.0
2023-08-11 18:50:01.003111,-189.0
2023-08-11 18:50:01.010800,-131.0
2023-08-11 18:50:01.018490,-146.0
2023-08-11 18:50:01.026180,-136.0
2023-08-11 18:50:01.033870,-100.0
2023-08-11 18:50:01.041559,-98.0
2023-08-11 18:50:01.049249,-98.0
2023-08-11 18:50:01.056939,-83.0
2023-08-11 18:50:01.064628,-69.0
2023-08-11 18:50:01.072318,-57.0
2023-08-11 18:50:01.080008,-43.0
2023-08-11 18:50:01.087698,-31.0
2023-08-11 18:50:01.095387,-21.0
2023-08-11 18:50:01.103077,-11.0
2023-08-11 18:50:01.110767,2.0
2023-08-11 18:50:01.118457,16.0
2023-08-11 18:50:01.126146,33.0
2023-08-11 18:50:01.133836,50.0
2023-08-11 18:50:01.141526,64.0
2023-08-11 18:50:01.149216,81.0
2023-08-11 18:50:01.156905,98.0
2023-08-11 18:50:01.164595,119.0
2023-08-11 18:50:01.172285,143.0
2023-08-11 18:50:01.179975,165.0
2023-08-11 18:50:01.187664,191.0
2023-08-11 18:50:01.195354,210.0
2023-08-11 18:50:01.203044,225.0
2023-08-11 18:50:01.210734,244.0
2023-08-11 18:50:01.218423,258.0
2023-08-11 18:50:01.226113,263.0
2023-08-11 18:50:01.233803,256.0
2023-08-11 18:50:01.241493,237.0
2023-08-11 18:50:01.249182,198.0
2023-08-11 18:50:01.256872,141.0
2023-08-11 18:50:01.264562,71.0
2023-08-11 18:50:01.272251,-4.0
2023-08-11 18:50:01.279941,-81.0
2023-08-11 18:50:01.287631,-136.0
2023-08-11 18:50:01.295321,-174.0
2023-08-11 18:50:01.303010,-206.0
2023-08-11 18:50:01.310700,-215.0
2023-08-11 18:50:01.318390,-218.0
2023-08-11 18:50:01.326080,-222.0
2023-08-11 18:50:01.333769,-215.0
2023-08-11 18:50:01.341459,-203.0
2023-08-11 18:50:01.349149,-196.0
2023-08-11 18:50:01.356839,-189.0
2023-08-11 18:50:01.364528,-179.0
2023-08-11 18:50:01.372218,-182.0
2023-08-11 18:50:01.379908,-179.0
2023-08-11 18:50:01.387598,-160.0
2023-08-11 18:50:01.395287,-148.0
2023-08-11 18:50:01.402977,-148.0
2023-08-11 18:50:01.410667,-148.0
2023-08-11 18:50:01.418357,-146.0
2023-08-11 18:50:01.426046,-141.0
2023-08-11 18:50:01.433736,-136.0
2023-08-11 18:50:01.441426,-139.0
2023-08-11 18:50:01.449115,-136.0
2023-08-11 18:50:01.456805,-139.0
2023-08-11 18:50:01.464495,-141.0
2023-08-11 18:50:01.472185,-136.0
2023-08-11 18:50:01.479874,-131.0
2023-08-11 18:50:01.487564,-131.0
2023-08-11 18:50:01.495254,-129.0
2023-08-11 18:50:01.502944,-127.0
2023-08-11 18:50:01.510633,-124.0
2023-08-11 18:50:01.518323,-124.0
2023-08-11 18:50:01.526013,-119.0
2023-08-11 18:50:01.533703,-115.0
2023-08-11 18:50:01.541392,-124.0
2023-08-11 18:50:01.549082,-131.0
2023-08-11 18:50:01.556772,-124.0
2023-08-11 18:50:01.564462,-115.0
2023-08-11 18:50:01.572151,-112.0
2023-08-11 18:50:01.579841,-115.0
2023-08-11 18:50:01.587531,-112.0
2023-08-11 18:50:01.595221,-115.0
2023-08-11 18:50:01.602910,-115.0
2023-08-11 18:50:01.610600,-110.0
2023-08-11 18:50:01.618290,-115.0
2023-08-11 18:50:01.625979,-117.0
2023-08-11 18:50:01.633669,-112.0
2023-08-11 18:50:01.641359,-110.0
2023-08-11 18:50:01.649049,-107.0
2023-08-11 18:50:01.656738,-103.0
2023-08-11 18:50:01.664428,-98.0
2023-08-11 18:50:01.672118,-103.0
2023-08-11 18:50:01.679808,-105.0
2023-08-11 18:50:01.687497,-103.0
2023-08-11 18:50:01.695187,-103.0
2023-08-11 18:50:01.702877,-105.0
2023-08-11 18:50:01.710567,-105.0
2023-08-11 18:50:01.718256,-100.0
2023-08-11 18:50:01.725946,-98.0
2023-08-11 18:50:01.733636,-103.0
2023-08-11 18:50:01.741326,-100.0
2023-08-11 18:50:01.749015,-93.0
2023-08-11 18:50:01.756705,-91.0
2023-08-11 18:50:01.764395,-91.0
2023-08-11 18:50:01.772085,-93.0
2023-08-11 18:50:01.779774,-93.0
2023-08-11 18:50:01.787464,-93.0
2023-08-11 18:50:01.795154,-91.0
2023-08-11 18:50:01.802843,-86.0
2023-08-11 18:50:01.810533,-86.0
2023-08-11 18:50:01.818223,-88.0
2023-08-11 18:50:01.825913,-86.0
2023-08-11 18:50:01.833602,-86.0
2023-08-11 18:50:01.841292,-81.0
2023-08-11 18:50:01.848982,-74.0
2023-08-11 18:50:01.856672,-79.0
2023-08-11 18:50:01.864361,-86.0
2023-08-11 18:50:01.872051,-79.0
2023-08-11 18:50:01.879741,-74.0
2023-08-11 18:50:01.887431,-79.0
2023-08-11 18:50:01.895120,-79.0
2023-08-11 18:50:01.902810,-69.0
2023-08-11 18:50:01.910500,-43.0
2023-08-11 18:50:01.918190,-11.0
2023-08-11 18:50:01.925879,-7.0
2023-08-11 18:50:01.933569,-11.0
2023-08-11 18:50:01.941259,-4.0
2023-08-11 18:50:01.948949,-26.0
2023-08-11 18:50:01.956638,-71.0
2023-08-11 18:50:01.964328,-83.0
2023-08-11 18:50:01.972018,-74.0
2023-08-11 18:50:01.979707,-79.0
2023-08-11 18:50:01.987397,-81.0
2023-08-11 18:50:01.995087,-81.0
2023-08-11 18:50:02.002777,-88.0
2023-08-11 18:50:02.010466,-86.0
2023-08-11 18:50:02.018156,-83.0
2023-08-11 18:50:02.025846,-105.0
2023-08-11 18:50:02.033536,-91.0
2023-08-11 18:50:02.041225,215.0
2023-08-11 18:50:02.048915,922.0
2023-08-11 18:50:02.056605,1497.0
2023-08-11 18:50:02.064295,1191.0
2023-08-11 18:50:02.071984,62.0
