time,ECG
2023-08-21 17:34:09.015886,-84.0
2023-08-21 17:34:09.023574,-74.0
2023-08-21 17:34:09.031262,-64.0
2023-08-21 17:34:09.038951,24.0
2023-08-21 17:34:09.046639,331.0
2023-08-21 17:34:09.054327,739.0
2023-08-21 17:34:09.062015,758.0
2023-08-21 17:34:09.069704,225.0
2023-08-21 17:34:09.077392,-273.0
2023-08-21 17:34:09.085080,-273.0
2023-08-21 17:34:09.092769,-112.0
2023-08-21 17:34:09.100457,-141.0
2023-08-21 17:34:09.108145,-180.0
2023-08-21 17:34:09.115834,-141.0
2023-08-21 17:34:09.123522,-134.0
2023-08-21 17:34:09.131210,-146.0
2023-08-21 17:34:09.138899,-129.0
2023-08-21 17:34:09.146587,-117.0
2023-08-21 17:34:09.154275,-117.0
2023-08-21 17:34:09.161964,-112.0
2023-08-21 17:34:09.169652,-103.0
2023-08-21 17:34:09.177340,-96.0
2023-08-21 17:34:09.185029,-96.0
2023-08-21 17:34:09.192717,-91.0
2023-08-21 17:34:09.200405,-81.0
2023-08-21 17:34:09.208094,-81.0
2023-08-21 17:34:09.215782,-88.0
2023-08-21 17:34:09.223470,-86.0
2023-08-21 17:34:09.231159,-74.0
2023-08-21 17:34:09.238847,-72.0
2023-08-21 17:34:09.246535,-64.0
2023-08-21 17:34:09.254224,-55.0
2023-08-21 17:34:09.261912,-50.0
2023-08-21 17:34:09.269600,-45.0
2023-08-21 17:34:09.277289,-38.0
2023-08-21 17:34:09.284977,-28.0
2023-08-21 17:34:09.292665,-26.0
2023-08-21 17:34:09.300354,-21.0
2023-08-21 17:34:09.308042,-9.0
2023-08-21 17:34:09.315730,2.0
2023-08-21 17:34:09.323418,14.0
2023-08-21 17:34:09.331107,33.0
2023-08-21 17:34:09.338795,48.0
2023-08-21 17:34:09.346483,60.0
2023-08-21 17:34:09.354172,76.0
2023-08-21 17:34:09.361860,88.0
2023-08-21 17:34:09.369548,88.0
2023-08-21 17:34:09.377237,84.0
2023-08-21 17:34:09.384925,67.0
2023-08-21 17:34:09.392613,38.0
2023-08-21 17:34:09.400302,0.0
2023-08-21 17:34:09.407990,-33.0
2023-08-21 17:34:09.415678,-64.0
2023-08-21 17:34:09.423367,-91.0
2023-08-21 17:34:09.431055,-112.0
2023-08-21 17:34:09.438743,-124.0
2023-08-21 17:34:09.446432,-132.0
2023-08-21 17:34:09.454120,-129.0
2023-08-21 17:34:09.461808,-124.0
2023-08-21 17:34:09.469497,-122.0
2023-08-21 17:34:09.477185,-120.0
2023-08-21 17:34:09.484873,-120.0
2023-08-21 17:34:09.492562,-115.0
2023-08-21 17:34:09.500250,-108.0
2023-08-21 17:34:09.507938,-103.0
2023-08-21 17:34:09.515627,-98.0
2023-08-21 17:34:09.523315,-93.0
2023-08-21 17:34:09.531003,-88.0
2023-08-21 17:34:09.538692,-86.0
2023-08-21 17:34:09.546380,-84.0
2023-08-21 17:34:09.554068,-81.0
2023-08-21 17:34:09.561757,-86.0
2023-08-21 17:34:09.569445,-88.0
2023-08-21 17:34:09.577133,-88.0
2023-08-21 17:34:09.584821,-84.0
2023-08-21 17:34:09.592510,-86.0
2023-08-21 17:34:09.600198,-86.0
2023-08-21 17:34:09.607886,-88.0
2023-08-21 17:34:09.615575,-91.0
2023-08-21 17:34:09.623263,-91.0
2023-08-21 17:34:09.630951,-88.0
2023-08-21 17:34:09.638640,-88.0
2023-08-21 17:34:09.646328,-88.0
2023-08-21 17:34:09.654016,-91.0
2023-08-21 17:34:09.661705,-93.0
2023-08-21 17:34:09.669393,-91.0
2023-08-21 17:34:09.677081,-86.0
2023-08-21 17:34:09.684770,-84.0
2023-08-21 17:34:09.692458,-81.0
2023-08-21 17:34:09.700146,-86.0
2023-08-21 17:34:09.707835,-88.0
2023-08-21 17:34:09.715523,-84.0
2023-08-21 17:34:09.723211,-74.0
2023-08-21 17:34:09.730900,-76.0
2023-08-21 17:34:09.738588,-76.0
2023-08-21 17:34:09.746276,-81.0
2023-08-21 17:34:09.753965,-93.0
2023-08-21 17:34:09.761653,-96.0
2023-08-21 17:34:09.769341,-86.0
2023-08-21 17:34:09.777030,-86.0
2023-08-21 17:34:09.784718,-91.0
2023-08-21 17:34:09.792406,-88.0
2023-08-21 17:34:09.800095,-91.0
2023-08-21 17:34:09.807783,-98.0
2023-08-21 17:34:09.815471,-96.0
2023-08-21 17:34:09.823160,-88.0
2023-08-21 17:34:09.830848,-88.0
2023-08-21 17:34:09.838536,-93.0
2023-08-21 17:34:09.846224,-91.0
2023-08-21 17:34:09.853913,-88.0
2023-08-21 17:34:09.861601,-86.0
2023-08-21 17:34:09.869289,-86.0
2023-08-21 17:34:09.876978,-88.0
2023-08-21 17:34:09.884666,-91.0
2023-08-21 17:34:09.892354,-88.0
2023-08-21 17:34:09.900043,-88.0
2023-08-21 17:34:09.907731,-88.0
2023-08-21 17:34:09.915419,-81.0
2023-08-21 17:34:09.923108,-81.0
2023-08-21 17:34:09.930796,-88.0
2023-08-21 17:34:09.938484,-91.0
2023-08-21 17:34:09.946173,-86.0
2023-08-21 17:34:09.953861,-86.0
2023-08-21 17:34:09.961549,-91.0
2023-08-21 17:34:09.969238,-88.0
2023-08-21 17:34:09.976926,-74.0
2023-08-21 17:34:09.984614,-64.0
2023-08-21 17:34:09.992303,-62.0
2023-08-21 17:34:09.999991,-57.0
2023-08-21 17:34:10.007679,-62.0
2023-08-21 17:34:10.015368,-67.0
2023-08-21 17:34:10.023056,-60.0
2023-08-21 17:34:10.030744,-45.0
2023-08-21 17:34:10.038433,-31.0
2023-08-21 17:34:10.046121,-40.0
2023-08-21 17:34:10.053809,-67.0
2023-08-21 17:34:10.061498,-69.0
2023-08-21 17:34:10.069186,-50.0
2023-08-21 17:34:10.076874,-62.0
2023-08-21 17:34:10.084563,-84.0
2023-08-21 17:34:10.092251,-74.0
2023-08-21 17:34:10.099939,-62.0
2023-08-21 17:34:10.107627,-76.0
2023-08-21 17:34:10.115316,-86.0
2023-08-21 17:34:10.123004,-74.0
2023-08-21 17:34:10.130692,-67.0
2023-08-21 17:34:10.138381,-45.0
2023-08-21 17:34:10.146069,127.0
2023-08-21 17:34:10.153757,516.0
2023-08-21 17:34:10.161446,806.0
2023-08-21 17:34:10.169134,597.0
2023-08-21 17:34:10.176822,26.0
2023-08-21 17:34:10.184511,-304.0
2023-08-21 17:34:10.192199,-199.0
2023-08-21 17:34:10.199887,-100.0
2023-08-21 17:34:10.207576,-163.0
2023-08-21 17:34:10.215264,-170.0
2023-08-21 17:34:10.222952,-132.0
2023-08-21 17:34:10.230641,-141.0
2023-08-21 17:34:10.238329,-139.0
2023-08-21 17:34:10.246017,-122.0
2023-08-21 17:34:10.253706,-124.0
2023-08-21 17:34:10.261394,-122.0
2023-08-21 17:34:10.269082,-110.0
2023-08-21 17:34:10.276771,-96.0
2023-08-21 17:34:10.284459,-86.0
2023-08-21 17:34:10.292147,-84.0
2023-08-21 17:34:10.299836,-86.0
2023-08-21 17:34:10.307524,-88.0
2023-08-21 17:34:10.315212,-86.0
2023-08-21 17:34:10.322901,-84.0
2023-08-21 17:34:10.330589,-81.0
2023-08-21 17:34:10.338277,-84.0
2023-08-21 17:34:10.345966,-88.0
2023-08-21 17:34:10.353654,-84.0
2023-08-21 17:34:10.361342,-72.0
2023-08-21 17:34:10.369030,-55.0
2023-08-21 17:34:10.376719,-45.0
2023-08-21 17:34:10.384407,-43.0
2023-08-21 17:34:10.392095,-31.0
2023-08-21 17:34:10.399784,-19.0
2023-08-21 17:34:10.407472,-12.0
2023-08-21 17:34:10.415160,0.0
2023-08-21 17:34:10.422849,19.0
2023-08-21 17:34:10.430537,33.0
2023-08-21 17:34:10.438225,40.0
2023-08-21 17:34:10.445914,50.0
2023-08-21 17:34:10.453602,72.0
2023-08-21 17:34:10.461290,88.0
2023-08-21 17:34:10.468979,91.0
2023-08-21 17:34:10.476667,88.0
2023-08-21 17:34:10.484355,84.0
2023-08-21 17:34:10.492044,67.0
2023-08-21 17:34:10.499732,31.0
2023-08-21 17:34:10.507420,-2.0
2023-08-21 17:34:10.515109,-26.0
2023-08-21 17:34:10.522797,-48.0
2023-08-21 17:34:10.530485,-74.0
2023-08-21 17:34:10.538174,-96.0
2023-08-21 17:34:10.545862,-112.0
2023-08-21 17:34:10.553550,-122.0
2023-08-21 17:34:10.561239,-117.0
2023-08-21 17:34:10.568927,-120.0
2023-08-21 17:34:10.576615,-124.0
2023-08-21 17:34:10.584304,-117.0
2023-08-21 17:34:10.591992,-110.0
2023-08-21 17:34:10.599680,-108.0
2023-08-21 17:34:10.607369,-108.0
2023-08-21 17:34:10.615057,-105.0
2023-08-21 17:34:10.622745,-98.0
2023-08-21 17:34:10.630433,-91.0
2023-08-21 17:34:10.638122,-91.0
2023-08-21 17:34:10.645810,-91.0
2023-08-21 17:34:10.653498,-81.0
2023-08-21 17:34:10.661187,-76.0
2023-08-21 17:34:10.668875,-84.0
2023-08-21 17:34:10.676563,-86.0
2023-08-21 17:34:10.684252,-81.0
2023-08-21 17:34:10.691940,-84.0
2023-08-21 17:34:10.699628,-86.0
2023-08-21 17:34:10.707317,-84.0
2023-08-21 17:34:10.715005,-93.0
2023-08-21 17:34:10.722693,-100.0
2023-08-21 17:34:10.730382,-91.0
2023-08-21 17:34:10.738070,-93.0
2023-08-21 17:34:10.745758,-91.0
2023-08-21 17:34:10.753447,-76.0
2023-08-21 17:34:10.761135,-81.0
2023-08-21 17:34:10.768823,-88.0
2023-08-21 17:34:10.776512,-86.0
2023-08-21 17:34:10.784200,-91.0
2023-08-21 17:34:10.791888,-93.0
2023-08-21 17:34:10.799577,-91.0
2023-08-21 17:34:10.807265,-96.0
2023-08-21 17:34:10.814953,-108.0
2023-08-21 17:34:10.822642,-110.0
2023-08-21 17:34:10.830330,-96.0
2023-08-21 17:34:10.838018,-81.0
2023-08-21 17:34:10.845707,-91.0
2023-08-21 17:34:10.853395,-105.0
2023-08-21 17:34:10.861083,-103.0
2023-08-21 17:34:10.868772,-105.0
2023-08-21 17:34:10.876460,-108.0
2023-08-21 17:34:10.884148,-100.0
2023-08-21 17:34:10.891836,-103.0
2023-08-21 17:34:10.899525,-110.0
2023-08-21 17:34:10.907213,-103.0
2023-08-21 17:34:10.914901,-93.0
2023-08-21 17:34:10.922590,-98.0
2023-08-21 17:34:10.930278,-100.0
2023-08-21 17:34:10.937966,-93.0
2023-08-21 17:34:10.945655,-98.0
2023-08-21 17:34:10.953343,-108.0
2023-08-21 17:34:10.961031,-115.0
2023-08-21 17:34:10.968720,-108.0
2023-08-21 17:34:10.976408,-91.0
2023-08-21 17:34:10.984096,-86.0
2023-08-21 17:34:10.991785,-91.0
2023-08-21 17:34:10.999473,-91.0
2023-08-21 17:34:11.007161,-86.0
2023-08-21 17:34:11.014850,-84.0
2023-08-21 17:34:11.022538,-88.0
2023-08-21 17:34:11.030226,-91.0
2023-08-21 17:34:11.037915,-88.0
2023-08-21 17:34:11.045603,-86.0
2023-08-21 17:34:11.053291,-91.0
2023-08-21 17:34:11.060980,-91.0
2023-08-21 17:34:11.068668,-76.0
2023-08-21 17:34:11.076356,-74.0
2023-08-21 17:34:11.084045,-86.0
2023-08-21 17:34:11.091733,-84.0
2023-08-21 17:34:11.099421,-64.0
2023-08-21 17:34:11.107110,-50.0
2023-08-21 17:34:11.114798,-28.0
2023-08-21 17:34:11.122486,-21.0
2023-08-21 17:34:11.130175,-43.0
2023-08-21 17:34:11.137863,-50.0
2023-08-21 17:34:11.145551,-55.0
2023-08-21 17:34:11.153239,-84.0
2023-08-21 17:34:11.160928,-98.0
2023-08-21 17:34:11.168616,-88.0
2023-08-21 17:34:11.176304,-76.0
2023-08-21 17:34:11.183993,-79.0
2023-08-21 17:34:11.191681,-79.0
2023-08-21 17:34:11.199369,-69.0
2023-08-21 17:34:11.207058,-67.0
2023-08-21 17:34:11.214746,-16.0
2023-08-21 17:34:11.222434,232.0
2023-08-21 17:34:11.230123,657.0
2023-08-21 17:34:11.237811,833.0
2023-08-21 17:34:11.245499,429.0
2023-08-21 17:34:11.253188,-160.0
2023-08-21 17:34:11.260876,-316.0
2023-08-21 17:34:11.268564,-141.0
2023-08-21 17:34:11.276253,-103.0
2023-08-21 17:34:11.283941,-168.0
2023-08-21 17:34:11.291629,-144.0
2023-08-21 17:34:11.299318,-117.0
2023-08-21 17:34:11.307006,-134.0
2023-08-21 17:34:11.314694,-134.0
2023-08-21 17:34:11.322383,-127.0
2023-08-21 17:34:11.330071,-124.0
2023-08-21 17:34:11.337759,-108.0
2023-08-21 17:34:11.345448,-96.0
2023-08-21 17:34:11.353136,-100.0
2023-08-21 17:34:11.360824,-96.0
2023-08-21 17:34:11.368513,-88.0
2023-08-21 17:34:11.376201,-84.0
2023-08-21 17:34:11.383889,-76.0
2023-08-21 17:34:11.391578,-67.0
2023-08-21 17:34:11.399266,-64.0
2023-08-21 17:34:11.406954,-57.0
2023-08-21 17:34:11.414642,-52.0
2023-08-21 17:34:11.422331,-60.0
2023-08-21 17:34:11.430019,-52.0
2023-08-21 17:34:11.437707,-36.0
2023-08-21 17:34:11.445396,-24.0
2023-08-21 17:34:11.453084,-19.0
2023-08-21 17:34:11.460772,-21.0
2023-08-21 17:34:11.468461,-21.0
2023-08-21 17:34:11.476149,-7.0
2023-08-21 17:34:11.483837,9.0
2023-08-21 17:34:11.491526,19.0
2023-08-21 17:34:11.499214,36.0
2023-08-21 17:34:11.506902,52.0
2023-08-21 17:34:11.514591,64.0
2023-08-21 17:34:11.522279,76.0
2023-08-21 17:34:11.529967,88.0
2023-08-21 17:34:11.537656,96.0
2023-08-21 17:34:11.545344,100.0
2023-08-21 17:34:11.553032,103.0
2023-08-21 17:34:11.560721,98.0
2023-08-21 17:34:11.568409,72.0
2023-08-21 17:34:11.576097,28.0
2023-08-21 17:34:11.583786,-12.0
2023-08-21 17:34:11.591474,-45.0
2023-08-21 17:34:11.599162,-81.0
2023-08-21 17:34:11.606851,-108.0
2023-08-21 17:34:11.614539,-117.0
2023-08-21 17:34:11.622227,-120.0
2023-08-21 17:34:11.629916,-129.0
2023-08-21 17:34:11.637604,-136.0
2023-08-21 17:34:11.645292,-132.0
2023-08-21 17:34:11.652981,-124.0
2023-08-21 17:34:11.660669,-115.0
2023-08-21 17:34:11.668357,-112.0
2023-08-21 17:34:11.676045,-105.0
2023-08-21 17:34:11.683734,-98.0
2023-08-21 17:34:11.691422,-96.0
2023-08-21 17:34:11.699110,-96.0
2023-08-21 17:34:11.706799,-88.0
2023-08-21 17:34:11.714487,-81.0
2023-08-21 17:34:11.722175,-84.0
2023-08-21 17:34:11.729864,-86.0
2023-08-21 17:34:11.737552,-81.0
2023-08-21 17:34:11.745240,-76.0
2023-08-21 17:34:11.752929,-79.0
2023-08-21 17:34:11.760617,-81.0
2023-08-21 17:34:11.768305,-81.0
2023-08-21 17:34:11.775994,-88.0
2023-08-21 17:34:11.783682,-93.0
2023-08-21 17:34:11.791370,-88.0
2023-08-21 17:34:11.799059,-84.0
2023-08-21 17:34:11.806747,-86.0
2023-08-21 17:34:11.814435,-93.0
2023-08-21 17:34:11.822124,-100.0
2023-08-21 17:34:11.829812,-98.0
2023-08-21 17:34:11.837500,-96.0
2023-08-21 17:34:11.845189,-96.0
2023-08-21 17:34:11.852877,-93.0
2023-08-21 17:34:11.860565,-91.0
2023-08-21 17:34:11.868254,-88.0
2023-08-21 17:34:11.875942,-91.0
2023-08-21 17:34:11.883630,-91.0
2023-08-21 17:34:11.891319,-88.0
2023-08-21 17:34:11.899007,-91.0
2023-08-21 17:34:11.906695,-93.0
2023-08-21 17:34:11.914384,-88.0
2023-08-21 17:34:11.922072,-86.0
2023-08-21 17:34:11.929760,-88.0
2023-08-21 17:34:11.937448,-91.0
2023-08-21 17:34:11.945137,-88.0
2023-08-21 17:34:11.952825,-84.0
2023-08-21 17:34:11.960513,-81.0
2023-08-21 17:34:11.968202,-84.0
2023-08-21 17:34:11.975890,-81.0
2023-08-21 17:34:11.983578,-84.0
2023-08-21 17:34:11.991267,-86.0
2023-08-21 17:34:11.998955,-86.0
2023-08-21 17:34:12.006643,-84.0
2023-08-21 17:34:12.014332,-81.0
2023-08-21 17:34:12.022020,-84.0
2023-08-21 17:34:12.029708,-86.0
2023-08-21 17:34:12.037397,-86.0
2023-08-21 17:34:12.045085,-93.0
2023-08-21 17:34:12.052773,-105.0
2023-08-21 17:34:12.060462,-100.0
2023-08-21 17:34:12.068150,-88.0
2023-08-21 17:34:12.075838,-84.0
2023-08-21 17:34:12.083527,-91.0
2023-08-21 17:34:12.091215,-88.0
2023-08-21 17:34:12.098903,-86.0
2023-08-21 17:34:12.106592,-88.0
2023-08-21 17:34:12.114280,-81.0
2023-08-21 17:34:12.121968,-76.0
2023-08-21 17:34:12.129657,-84.0
2023-08-21 17:34:12.137345,-86.0
2023-08-21 17:34:12.145033,-81.0
2023-08-21 17:34:12.152722,-76.0
2023-08-21 17:34:12.160410,-72.0
2023-08-21 17:34:12.168098,-64.0
2023-08-21 17:34:12.175786,-60.0
2023-08-21 17:34:12.183475,-55.0
2023-08-21 17:34:12.191163,-31.0
2023-08-21 17:34:12.198851,-14.0
2023-08-21 17:34:12.206540,-26.0
2023-08-21 17:34:12.214228,-38.0
2023-08-21 17:34:12.221916,-45.0
2023-08-21 17:34:12.229605,-69.0
2023-08-21 17:34:12.237293,-88.0
2023-08-21 17:34:12.244981,-81.0
2023-08-21 17:34:12.252670,-72.0
2023-08-21 17:34:12.260358,-69.0
2023-08-21 17:34:12.268046,-74.0
2023-08-21 17:34:12.275735,-79.0
2023-08-21 17:34:12.283423,-74.0
2023-08-21 17:34:12.291111,-43.0
2023-08-21 17:34:12.298800,124.0
2023-08-21 17:34:12.306488,511.0
2023-08-21 17:34:12.314176,828.0
2023-08-21 17:34:12.321865,640.0
2023-08-21 17:34:12.329553,45.0
2023-08-21 17:34:12.337241,-321.0
2023-08-21 17:34:12.344930,-211.0
2023-08-21 17:34:12.352618,-86.0
2023-08-21 17:34:12.360306,-160.0
2023-08-21 17:34:12.367995,-184.0
2023-08-21 17:34:12.375683,-136.0
2023-08-21 17:34:12.383371,-139.0
2023-08-21 17:34:12.391060,-148.0
2023-08-21 17:34:12.398748,-124.0
2023-08-21 17:34:12.406436,-112.0
2023-08-21 17:34:12.414125,-115.0
2023-08-21 17:34:12.421813,-108.0
2023-08-21 17:34:12.429501,-96.0
2023-08-21 17:34:12.437189,-93.0
2023-08-21 17:34:12.444878,-91.0
2023-08-21 17:34:12.452566,-86.0
2023-08-21 17:34:12.460254,-81.0
2023-08-21 17:34:12.467943,-76.0
2023-08-21 17:34:12.475631,-72.0
2023-08-21 17:34:12.483319,-67.0
2023-08-21 17:34:12.491008,-60.0
2023-08-21 17:34:12.498696,-55.0
2023-08-21 17:34:12.506384,-57.0
2023-08-21 17:34:12.514073,-55.0
2023-08-21 17:34:12.521761,-45.0
2023-08-21 17:34:12.529449,-33.0
2023-08-21 17:34:12.537138,-28.0
2023-08-21 17:34:12.544826,-19.0
2023-08-21 17:34:12.552514,-12.0
2023-08-21 17:34:12.560203,-9.0
2023-08-21 17:34:12.567891,2.0
2023-08-21 17:34:12.575579,21.0
2023-08-21 17:34:12.583268,31.0
2023-08-21 17:34:12.590956,36.0
2023-08-21 17:34:12.598644,45.0
2023-08-21 17:34:12.606333,57.0
2023-08-21 17:34:12.614021,69.0
2023-08-21 17:34:12.621709,81.0
2023-08-21 17:34:12.629398,81.0
2023-08-21 17:34:12.637086,69.0
2023-08-21 17:34:12.644774,52.0
2023-08-21 17:34:12.652463,24.0
2023-08-21 17:34:12.660151,-9.0
2023-08-21 17:34:12.667839,-43.0
2023-08-21 17:34:12.675528,-79.0
2023-08-21 17:34:12.683216,-110.0
2023-08-21 17:34:12.690904,-124.0
2023-08-21 17:34:12.698592,-134.0
2023-08-21 17:34:12.706281,-141.0
2023-08-21 17:34:12.713969,-144.0
2023-08-21 17:34:12.721657,-139.0
2023-08-21 17:34:12.729346,-132.0
2023-08-21 17:34:12.737034,-129.0
2023-08-21 17:34:12.744722,-127.0
2023-08-21 17:34:12.752411,-122.0
2023-08-21 17:34:12.760099,-120.0
2023-08-21 17:34:12.767787,-117.0
2023-08-21 17:34:12.775476,-108.0
2023-08-21 17:34:12.783164,-108.0
2023-08-21 17:34:12.790852,-108.0
2023-08-21 17:34:12.798541,-100.0
2023-08-21 17:34:12.806229,-98.0
2023-08-21 17:34:12.813917,-98.0
2023-08-21 17:34:12.821606,-93.0
2023-08-21 17:34:12.829294,-98.0
2023-08-21 17:34:12.836982,-105.0
2023-08-21 17:34:12.844671,-100.0
2023-08-21 17:34:12.852359,-96.0
2023-08-21 17:34:12.860047,-100.0
2023-08-21 17:34:12.867736,-103.0
2023-08-21 17:34:12.875424,-103.0
2023-08-21 17:34:12.883112,-100.0
2023-08-21 17:34:12.890801,-96.0
2023-08-21 17:34:12.898489,-96.0
2023-08-21 17:34:12.906177,-96.0
2023-08-21 17:34:12.913866,-93.0
2023-08-21 17:34:12.921554,-91.0
2023-08-21 17:34:12.929242,-93.0
2023-08-21 17:34:12.936931,-93.0
2023-08-21 17:34:12.944619,-93.0
2023-08-21 17:34:12.952307,-93.0
2023-08-21 17:34:12.959995,-93.0
2023-08-21 17:34:12.967684,-88.0
2023-08-21 17:34:12.975372,-88.0
2023-08-21 17:34:12.983060,-93.0
2023-08-21 17:34:12.990749,-88.0
2023-08-21 17:34:12.998437,-84.0
2023-08-21 17:34:13.006125,-88.0
2023-08-21 17:34:13.013814,-91.0
2023-08-21 17:34:13.021502,-88.0
2023-08-21 17:34:13.029190,-86.0
2023-08-21 17:34:13.036879,-84.0
2023-08-21 17:34:13.044567,-81.0
2023-08-21 17:34:13.052255,-84.0
2023-08-21 17:34:13.059944,-86.0
2023-08-21 17:34:13.067632,-84.0
2023-08-21 17:34:13.075320,-86.0
2023-08-21 17:34:13.083009,-86.0
2023-08-21 17:34:13.090697,-79.0
2023-08-21 17:34:13.098385,-76.0
2023-08-21 17:34:13.106074,-79.0
2023-08-21 17:34:13.113762,-79.0
2023-08-21 17:34:13.121450,-81.0
2023-08-21 17:34:13.129139,-88.0
2023-08-21 17:34:13.136827,-91.0
2023-08-21 17:34:13.144515,-81.0
2023-08-21 17:34:13.152204,-74.0
2023-08-21 17:34:13.159892,-74.0
2023-08-21 17:34:13.167580,-79.0
2023-08-21 17:34:13.175269,-91.0
2023-08-21 17:34:13.182957,-93.0
2023-08-21 17:34:13.190645,-79.0
2023-08-21 17:34:13.198334,-74.0
2023-08-21 17:34:13.206022,-79.0
2023-08-21 17:34:13.213710,-84.0
2023-08-21 17:34:13.221398,-86.0
2023-08-21 17:34:13.229087,-86.0
2023-08-21 17:34:13.236775,-81.0
2023-08-21 17:34:13.244463,-76.0
2023-08-21 17:34:13.252152,-84.0
2023-08-21 17:34:13.259840,-88.0
2023-08-21 17:34:13.267528,-81.0
2023-08-21 17:34:13.275217,-69.0
2023-08-21 17:34:13.282905,-55.0
2023-08-21 17:34:13.290593,-38.0
2023-08-21 17:34:13.298282,-26.0
2023-08-21 17:34:13.305970,-33.0
2023-08-21 17:34:13.313658,-48.0
2023-08-21 17:34:13.321347,-55.0
2023-08-21 17:34:13.329035,-69.0
2023-08-21 17:34:13.336723,-96.0
2023-08-21 17:34:13.344412,-103.0
2023-08-21 17:34:13.352100,-88.0
2023-08-21 17:34:13.359788,-84.0
2023-08-21 17:34:13.367477,-81.0
2023-08-21 17:34:13.375165,-74.0
2023-08-21 17:34:13.382853,-74.0
2023-08-21 17:34:13.390542,-69.0
2023-08-21 17:34:13.398230,12.0
2023-08-21 17:34:13.405918,302.0
2023-08-21 17:34:13.413607,708.0
2023-08-21 17:34:13.421295,773.0
2023-08-21 17:34:13.428983,295.0
2023-08-21 17:34:13.436672,-220.0
2023-08-21 17:34:13.444360,-271.0
2023-08-21 17:34:13.452048,-112.0
2023-08-21 17:34:13.459737,-120.0
2023-08-21 17:34:13.467425,-168.0
2023-08-21 17:34:13.475113,-136.0
2023-08-21 17:34:13.482801,-124.0
2023-08-21 17:34:13.490490,-136.0
2023-08-21 17:34:13.498178,-127.0
2023-08-21 17:34:13.505866,-112.0
2023-08-21 17:34:13.513555,-105.0
2023-08-21 17:34:13.521243,-103.0
2023-08-21 17:34:13.528931,-103.0
2023-08-21 17:34:13.536620,-93.0
2023-08-21 17:34:13.544308,-79.0
2023-08-21 17:34:13.551996,-76.0
2023-08-21 17:34:13.559685,-76.0
2023-08-21 17:34:13.567373,-72.0
2023-08-21 17:34:13.575061,-67.0
2023-08-21 17:34:13.582750,-64.0
2023-08-21 17:34:13.590438,-60.0
2023-08-21 17:34:13.598126,-50.0
2023-08-21 17:34:13.605815,-40.0
2023-08-21 17:34:13.613503,-36.0
2023-08-21 17:34:13.621191,-31.0
2023-08-21 17:34:13.628880,-24.0
2023-08-21 17:34:13.636568,-14.0
2023-08-21 17:34:13.644256,-4.0
2023-08-21 17:34:13.651945,0.0
2023-08-21 17:34:13.659633,4.0
2023-08-21 17:34:13.667321,4.0
2023-08-21 17:34:13.675010,14.0
2023-08-21 17:34:13.682698,36.0
2023-08-21 17:34:13.690386,50.0
2023-08-21 17:34:13.698075,57.0
2023-08-21 17:34:13.705763,72.0
2023-08-21 17:34:13.713451,81.0
2023-08-21 17:34:13.721140,93.0
2023-08-21 17:34:13.728828,108.0
2023-08-21 17:34:13.736516,105.0
2023-08-21 17:34:13.744204,91.0
2023-08-21 17:34:13.751893,74.0
2023-08-21 17:34:13.759581,43.0
2023-08-21 17:34:13.767269,-2.0
2023-08-21 17:34:13.774958,-40.0
2023-08-21 17:34:13.782646,-64.0
2023-08-21 17:34:13.790334,-84.0
2023-08-21 17:34:13.798023,-108.0
2023-08-21 17:34:13.805711,-124.0
2023-08-21 17:34:13.813399,-127.0
2023-08-21 17:34:13.821088,-122.0
2023-08-21 17:34:13.828776,-120.0
2023-08-21 17:34:13.836464,-127.0
2023-08-21 17:34:13.844153,-132.0
2023-08-21 17:34:13.851841,-120.0
2023-08-21 17:34:13.859529,-108.0
2023-08-21 17:34:13.867218,-100.0
2023-08-21 17:34:13.874906,-96.0
2023-08-21 17:34:13.882594,-98.0
2023-08-21 17:34:13.890283,-100.0
2023-08-21 17:34:13.897971,-96.0
2023-08-21 17:34:13.905659,-86.0
2023-08-21 17:34:13.913348,-84.0
2023-08-21 17:34:13.921036,-86.0
2023-08-21 17:34:13.928724,-91.0
2023-08-21 17:34:13.936413,-98.0
2023-08-21 17:34:13.944101,-91.0
2023-08-21 17:34:13.951789,-81.0
2023-08-21 17:34:13.959478,-79.0
2023-08-21 17:34:13.967166,-93.0
2023-08-21 17:34:13.974854,-96.0
2023-08-21 17:34:13.982543,-88.0
2023-08-21 17:34:13.990231,-93.0
2023-08-21 17:34:13.997919,-103.0
2023-08-21 17:34:14.005607,-100.0
2023-08-21 17:34:14.013296,-91.0
2023-08-21 17:34:14.020984,-91.0
2023-08-21 17:34:14.028672,-93.0
2023-08-21 17:34:14.036361,-96.0
2023-08-21 17:34:14.044049,-96.0
2023-08-21 17:34:14.051737,-96.0
2023-08-21 17:34:14.059426,-91.0
2023-08-21 17:34:14.067114,-86.0
2023-08-21 17:34:14.074802,-88.0
2023-08-21 17:34:14.082491,-88.0
2023-08-21 17:34:14.090179,-88.0
2023-08-21 17:34:14.097867,-91.0
2023-08-21 17:34:14.105556,-91.0
2023-08-21 17:34:14.113244,-86.0
2023-08-21 17:34:14.120932,-84.0
2023-08-21 17:34:14.128621,-88.0
2023-08-21 17:34:14.136309,-86.0
2023-08-21 17:34:14.143997,-81.0
2023-08-21 17:34:14.151686,-86.0
2023-08-21 17:34:14.159374,-93.0
2023-08-21 17:34:14.167062,-86.0
2023-08-21 17:34:14.174751,-81.0
2023-08-21 17:34:14.182439,-86.0
2023-08-21 17:34:14.190127,-86.0
2023-08-21 17:34:14.197816,-84.0
2023-08-21 17:34:14.205504,-84.0
2023-08-21 17:34:14.213192,-91.0
2023-08-21 17:34:14.220881,-88.0
2023-08-21 17:34:14.228569,-79.0
2023-08-21 17:34:14.236257,-76.0
2023-08-21 17:34:14.243946,-84.0
2023-08-21 17:34:14.251634,-93.0
2023-08-21 17:34:14.259322,-98.0
2023-08-21 17:34:14.267010,-91.0
2023-08-21 17:34:14.274699,-86.0
2023-08-21 17:34:14.282387,-88.0
2023-08-21 17:34:14.290075,-91.0
2023-08-21 17:34:14.297764,-93.0
2023-08-21 17:34:14.305452,-98.0
2023-08-21 17:34:14.313140,-93.0
2023-08-21 17:34:14.320829,-86.0
2023-08-21 17:34:14.328517,-91.0
2023-08-21 17:34:14.336205,-93.0
2023-08-21 17:34:14.343894,-91.0
2023-08-21 17:34:14.351582,-86.0
2023-08-21 17:34:14.359270,-74.0
2023-08-21 17:34:14.366959,-52.0
2023-08-21 17:34:14.374647,-33.0
2023-08-21 17:34:14.382335,-40.0
2023-08-21 17:34:14.390024,-67.0
2023-08-21 17:34:14.397712,-86.0
2023-08-21 17:34:14.405400,-100.0
2023-08-21 17:34:14.413089,-105.0
2023-08-21 17:34:14.420777,-100.0
2023-08-21 17:34:14.428465,-103.0
2023-08-21 17:34:14.436154,-110.0
2023-08-21 17:34:14.443842,-108.0
2023-08-21 17:34:14.451530,-96.0
2023-08-21 17:34:14.459219,-88.0
2023-08-21 17:34:14.466907,-69.0
2023-08-21 17:34:14.474595,69.0
2023-08-21 17:34:14.482284,436.0
2023-08-21 17:34:14.489972,785.0
2023-08-21 17:34:14.497660,638.0
2023-08-21 17:34:14.505349,55.0
2023-08-21 17:34:14.513037,-324.0
2023-08-21 17:34:14.520725,-244.0
2023-08-21 17:34:14.528413,-127.0
2023-08-21 17:34:14.536102,-170.0
2023-08-21 17:34:14.543790,-184.0
2023-08-21 17:34:14.551478,-148.0
2023-08-21 17:34:14.559167,-151.0
2023-08-21 17:34:14.566855,-163.0
2023-08-21 17:34:14.574543,-148.0
2023-08-21 17:34:14.582232,-132.0
2023-08-21 17:34:14.589920,-132.0
2023-08-21 17:34:14.597608,-127.0
2023-08-21 17:34:14.605297,-115.0
2023-08-21 17:34:14.612985,-108.0
2023-08-21 17:34:14.620673,-103.0
2023-08-21 17:34:14.628362,-98.0
2023-08-21 17:34:14.636050,-93.0
2023-08-21 17:34:14.643738,-86.0
2023-08-21 17:34:14.651427,-76.0
2023-08-21 17:34:14.659115,-74.0
2023-08-21 17:34:14.666803,-72.0
2023-08-21 17:34:14.674492,-64.0
2023-08-21 17:34:14.682180,-55.0
2023-08-21 17:34:14.689868,-48.0
2023-08-21 17:34:14.697557,-40.0
2023-08-21 17:34:14.705245,-31.0
2023-08-21 17:34:14.712933,-26.0
2023-08-21 17:34:14.720622,-21.0
2023-08-21 17:34:14.728310,-14.0
2023-08-21 17:34:14.735998,-7.0
2023-08-21 17:34:14.743687,2.0
2023-08-21 17:34:14.751375,19.0
2023-08-21 17:34:14.759063,38.0
2023-08-21 17:34:14.766752,48.0
2023-08-21 17:34:14.774440,52.0
2023-08-21 17:34:14.782128,67.0
2023-08-21 17:34:14.789816,76.0
2023-08-21 17:34:14.797505,79.0
2023-08-21 17:34:14.805193,88.0
2023-08-21 17:34:14.812881,96.0
2023-08-21 17:34:14.820570,74.0
2023-08-21 17:34:14.828258,43.0
2023-08-21 17:34:14.835946,14.0
2023-08-21 17:34:14.843635,-21.0
2023-08-21 17:34:14.851323,-52.0
2023-08-21 17:34:14.859011,-76.0
2023-08-21 17:34:14.866700,-98.0
2023-08-21 17:34:14.874388,-115.0
2023-08-21 17:34:14.882076,-122.0
2023-08-21 17:34:14.889765,-122.0
2023-08-21 17:34:14.897453,-120.0
2023-08-21 17:34:14.905141,-117.0
2023-08-21 17:34:14.912830,-110.0
2023-08-21 17:34:14.920518,-105.0
2023-08-21 17:34:14.928206,-112.0
2023-08-21 17:34:14.935895,-117.0
2023-08-21 17:34:14.943583,-108.0
2023-08-21 17:34:14.951271,-103.0
2023-08-21 17:34:14.958960,-98.0
2023-08-21 17:34:14.966648,-91.0
2023-08-21 17:34:14.974336,-88.0
2023-08-21 17:34:14.982025,-93.0
2023-08-21 17:34:14.989713,-88.0
2023-08-21 17:34:14.997401,-84.0
2023-08-21 17:34:15.005090,-91.0
2023-08-21 17:34:15.012778,-98.0
2023-08-21 17:34:15.020466,-98.0
2023-08-21 17:34:15.028155,-98.0
2023-08-21 17:34:15.035843,-100.0
2023-08-21 17:34:15.043531,-103.0
2023-08-21 17:34:15.051219,-103.0
2023-08-21 17:34:15.058908,-103.0
2023-08-21 17:34:15.066596,-103.0
2023-08-21 17:34:15.074284,-98.0
2023-08-21 17:34:15.081973,-93.0
2023-08-21 17:34:15.089661,-93.0
2023-08-21 17:34:15.097349,-96.0
2023-08-21 17:34:15.105038,-93.0
2023-08-21 17:34:15.112726,-91.0
2023-08-21 17:34:15.120414,-93.0
2023-08-21 17:34:15.128103,-93.0
2023-08-21 17:34:15.135791,-88.0
2023-08-21 17:34:15.143479,-91.0
2023-08-21 17:34:15.151168,-93.0
2023-08-21 17:34:15.158856,-91.0
2023-08-21 17:34:15.166544,-86.0
2023-08-21 17:34:15.174233,-84.0
2023-08-21 17:34:15.181921,-86.0
2023-08-21 17:34:15.189609,-86.0
2023-08-21 17:34:15.197298,-84.0
2023-08-21 17:34:15.204986,-79.0
2023-08-21 17:34:15.212674,-79.0
2023-08-21 17:34:15.220363,-84.0
2023-08-21 17:34:15.228051,-91.0
2023-08-21 17:34:15.235739,-91.0
2023-08-21 17:34:15.243428,-91.0
2023-08-21 17:34:15.251116,-88.0
2023-08-21 17:34:15.258804,-86.0
2023-08-21 17:34:15.266493,-86.0
2023-08-21 17:34:15.274181,-86.0
2023-08-21 17:34:15.281869,-84.0
2023-08-21 17:34:15.289558,-81.0
2023-08-21 17:34:15.297246,-81.0
2023-08-21 17:34:15.304934,-81.0
2023-08-21 17:34:15.312622,-79.0
2023-08-21 17:34:15.320311,-76.0
2023-08-21 17:34:15.327999,-79.0
2023-08-21 17:34:15.335687,-79.0
2023-08-21 17:34:15.343376,-79.0
2023-08-21 17:34:15.351064,-79.0
2023-08-21 17:34:15.358752,-81.0
2023-08-21 17:34:15.366441,-79.0
2023-08-21 17:34:15.374129,-84.0
2023-08-21 17:34:15.381817,-88.0
2023-08-21 17:34:15.389506,-88.0
2023-08-21 17:34:15.397194,-81.0
2023-08-21 17:34:15.404882,-81.0
2023-08-21 17:34:15.412571,-81.0
2023-08-21 17:34:15.420259,-79.0
2023-08-21 17:34:15.427947,-79.0
2023-08-21 17:34:15.435636,-67.0
2023-08-21 17:34:15.443324,-64.0
2023-08-21 17:34:15.451012,-74.0
2023-08-21 17:34:15.458701,-69.0
2023-08-21 17:34:15.466389,-57.0
2023-08-21 17:34:15.474077,-48.0
2023-08-21 17:34:15.481766,-26.0
2023-08-21 17:34:15.489454,-9.0
2023-08-21 17:34:15.497142,-21.0
2023-08-21 17:34:15.504831,-40.0
2023-08-21 17:34:15.512519,-52.0
2023-08-21 17:34:15.520207,-69.0
2023-08-21 17:34:15.527896,-79.0
2023-08-21 17:34:15.535584,-72.0
2023-08-21 17:34:15.543272,-67.0
2023-08-21 17:34:15.550961,-69.0
2023-08-21 17:34:15.558649,-69.0
2023-08-21 17:34:15.566337,-62.0
2023-08-21 17:34:15.574025,-60.0
2023-08-21 17:34:15.581714,-28.0
2023-08-21 17:34:15.589402,175.0
2023-08-21 17:34:15.597090,573.0
2023-08-21 17:34:15.604779,821.0
2023-08-21 17:34:15.612467,556.0
2023-08-21 17:34:15.620155,-21.0
2023-08-21 17:34:15.627844,-297.0
2023-08-21 17:34:15.635532,-160.0
2023-08-21 17:34:15.643220,-81.0
2023-08-21 17:34:15.650909,-160.0
2023-08-21 17:34:15.658597,-160.0
2023-08-21 17:34:15.666285,-120.0
2023-08-21 17:34:15.673974,-127.0
2023-08-21 17:34:15.681662,-127.0
2023-08-21 17:34:15.689350,-110.0
2023-08-21 17:34:15.697039,-110.0
2023-08-21 17:34:15.704727,-108.0
2023-08-21 17:34:15.712415,-98.0
2023-08-21 17:34:15.720104,-96.0
2023-08-21 17:34:15.727792,-91.0
2023-08-21 17:34:15.735480,-81.0
2023-08-21 17:34:15.743169,-76.0
2023-08-21 17:34:15.750857,-74.0
2023-08-21 17:34:15.758545,-74.0
2023-08-21 17:34:15.766234,-69.0
2023-08-21 17:34:15.773922,-57.0
2023-08-21 17:34:15.781610,-52.0
2023-08-21 17:34:15.789299,-52.0
2023-08-21 17:34:15.796987,-45.0
2023-08-21 17:34:15.804675,-33.0
2023-08-21 17:34:15.812364,-21.0
2023-08-21 17:34:15.820052,-16.0
2023-08-21 17:34:15.827740,-9.0
2023-08-21 17:34:15.835428,-2.0
2023-08-21 17:34:15.843117,0.0
2023-08-21 17:34:15.850805,4.0
2023-08-21 17:34:15.858493,19.0
2023-08-21 17:34:15.866182,31.0
2023-08-21 17:34:15.873870,40.0
2023-08-21 17:34:15.881558,55.0
2023-08-21 17:34:15.889247,74.0
2023-08-21 17:34:15.896935,81.0
2023-08-21 17:34:15.904623,86.0
2023-08-21 17:34:15.912312,98.0
2023-08-21 17:34:15.920000,100.0
2023-08-21 17:34:15.927688,91.0
2023-08-21 17:34:15.935377,76.0
2023-08-21 17:34:15.943065,52.0
2023-08-21 17:34:15.950753,19.0
2023-08-21 17:34:15.958442,-14.0
2023-08-21 17:34:15.966130,-52.0
2023-08-21 17:34:15.973818,-81.0
2023-08-21 17:34:15.981507,-96.0
2023-08-21 17:34:15.989195,-105.0
2023-08-21 17:34:15.996883,-117.0
2023-08-21 17:34:16.004572,-129.0
2023-08-21 17:34:16.012260,-132.0
2023-08-21 17:34:16.019948,-129.0
2023-08-21 17:34:16.027637,-124.0
2023-08-21 17:34:16.035325,-122.0
2023-08-21 17:34:16.043013,-115.0
2023-08-21 17:34:16.050702,-105.0
2023-08-21 17:34:16.058390,-100.0
2023-08-21 17:34:16.066078,-100.0
2023-08-21 17:34:16.073767,-98.0
2023-08-21 17:34:16.081455,-96.0
2023-08-21 17:34:16.089143,-88.0
2023-08-21 17:34:16.096831,-84.0
2023-08-21 17:34:16.104520,-88.0
2023-08-21 17:34:16.112208,-88.0
2023-08-21 17:34:16.119896,-81.0
2023-08-21 17:34:16.127585,-81.0
2023-08-21 17:34:16.135273,-86.0
2023-08-21 17:34:16.142961,-81.0
2023-08-21 17:34:16.150650,-79.0
2023-08-21 17:34:16.158338,-86.0
2023-08-21 17:34:16.166026,-88.0
2023-08-21 17:34:16.173715,-86.0
2023-08-21 17:34:16.181403,-81.0
2023-08-21 17:34:16.189091,-81.0
2023-08-21 17:34:16.196780,-84.0
2023-08-21 17:34:16.204468,-88.0
2023-08-21 17:34:16.212156,-98.0
2023-08-21 17:34:16.219845,-93.0
2023-08-21 17:34:16.227533,-84.0
2023-08-21 17:34:16.235221,-88.0
2023-08-21 17:34:16.242910,-91.0
2023-08-21 17:34:16.250598,-86.0
2023-08-21 17:34:16.258286,-84.0
2023-08-21 17:34:16.265975,-88.0
2023-08-21 17:34:16.273663,-88.0
2023-08-21 17:34:16.281351,-84.0
2023-08-21 17:34:16.289040,-88.0
2023-08-21 17:34:16.296728,-91.0
2023-08-21 17:34:16.304416,-86.0
2023-08-21 17:34:16.312105,-84.0
2023-08-21 17:34:16.319793,-91.0
2023-08-21 17:34:16.327481,-91.0
2023-08-21 17:34:16.335170,-81.0
2023-08-21 17:34:16.342858,-79.0
2023-08-21 17:34:16.350546,-86.0
2023-08-21 17:34:16.358234,-96.0
2023-08-21 17:34:16.365923,-96.0
2023-08-21 17:34:16.373611,-88.0
2023-08-21 17:34:16.381299,-88.0
2023-08-21 17:34:16.388988,-93.0
2023-08-21 17:34:16.396676,-86.0
2023-08-21 17:34:16.404364,-79.0
2023-08-21 17:34:16.412053,-81.0
2023-08-21 17:34:16.419741,-76.0
2023-08-21 17:34:16.427429,-72.0
2023-08-21 17:34:16.435118,-76.0
2023-08-21 17:34:16.442806,-81.0
2023-08-21 17:34:16.450494,-81.0
2023-08-21 17:34:16.458183,-79.0
2023-08-21 17:34:16.465871,-72.0
2023-08-21 17:34:16.473559,-67.0
2023-08-21 17:34:16.481248,-76.0
2023-08-21 17:34:16.488936,-79.0
2023-08-21 17:34:16.496624,-72.0
2023-08-21 17:34:16.504313,-69.0
2023-08-21 17:34:16.512001,-72.0
2023-08-21 17:34:16.519689,-69.0
2023-08-21 17:34:16.527378,-67.0
2023-08-21 17:34:16.535066,-64.0
2023-08-21 17:34:16.542754,-62.0
2023-08-21 17:34:16.550443,-64.0
2023-08-21 17:34:16.558131,-55.0
2023-08-21 17:34:16.565819,-28.0
2023-08-21 17:34:16.573508,-19.0
2023-08-21 17:34:16.581196,-36.0
2023-08-21 17:34:16.588884,-52.0
2023-08-21 17:34:16.596573,-60.0
2023-08-21 17:34:16.604261,-79.0
2023-08-21 17:34:16.611949,-93.0
2023-08-21 17:34:16.619637,-86.0
2023-08-21 17:34:16.627326,-74.0
2023-08-21 17:34:16.635014,-76.0
2023-08-21 17:34:16.642702,-74.0
2023-08-21 17:34:16.650391,-69.0
2023-08-21 17:34:16.658079,-64.0
2023-08-21 17:34:16.665767,-9.0
2023-08-21 17:34:16.673456,235.0
2023-08-21 17:34:16.681144,650.0
2023-08-21 17:34:16.688832,816.0
2023-08-21 17:34:16.696521,400.0
2023-08-21 17:34:16.704209,-175.0
2023-08-21 17:34:16.711897,-307.0
2023-08-21 17:34:16.719586,-136.0
2023-08-21 17:34:16.727274,-105.0
2023-08-21 17:34:16.734962,-160.0
2023-08-21 17:34:16.742651,-139.0
2023-08-21 17:34:16.750339,-120.0
2023-08-21 17:34:16.758027,-132.0
2023-08-21 17:34:16.765716,-122.0
2023-08-21 17:34:16.773404,-105.0
2023-08-21 17:34:16.781092,-105.0
2023-08-21 17:34:16.788781,-100.0
2023-08-21 17:34:16.796469,-91.0
2023-08-21 17:34:16.804157,-79.0
2023-08-21 17:34:16.811846,-79.0
2023-08-21 17:34:16.819534,-81.0
2023-08-21 17:34:16.827222,-76.0
2023-08-21 17:34:16.834911,-62.0
2023-08-21 17:34:16.842599,-60.0
2023-08-21 17:34:16.850287,-60.0
2023-08-21 17:34:16.857975,-57.0
2023-08-21 17:34:16.865664,-60.0
2023-08-21 17:34:16.873352,-52.0
2023-08-21 17:34:16.881040,-38.0
2023-08-21 17:34:16.888729,-36.0
2023-08-21 17:34:16.896417,-31.0
2023-08-21 17:34:16.904105,-19.0
2023-08-21 17:34:16.911794,-12.0
2023-08-21 17:34:16.919482,-12.0
2023-08-21 17:34:16.927170,0.0
2023-08-21 17:34:16.934859,16.0
2023-08-21 17:34:16.942547,21.0
2023-08-21 17:34:16.950235,26.0
2023-08-21 17:34:16.957924,45.0
2023-08-21 17:34:16.965612,64.0
2023-08-21 17:34:16.973300,72.0
2023-08-21 17:34:16.980989,81.0
2023-08-21 17:34:16.988677,93.0
2023-08-21 17:34:16.996365,98.0
2023-08-21 17:34:17.004054,103.0
2023-08-21 17:34:17.011742,98.0
2023-08-21 17:34:17.019430,79.0
2023-08-21 17:34:17.027119,45.0
2023-08-21 17:34:17.034807,2.0
2023-08-21 17:34:17.042495,-40.0
2023-08-21 17:34:17.050184,-79.0
2023-08-21 17:34:17.057872,-100.0
2023-08-21 17:34:17.065560,-115.0
2023-08-21 17:34:17.073249,-127.0
2023-08-21 17:34:17.080937,-136.0
2023-08-21 17:34:17.088625,-144.0
2023-08-21 17:34:17.096314,-141.0
2023-08-21 17:34:17.104002,-134.0
2023-08-21 17:34:17.111690,-129.0
2023-08-21 17:34:17.119378,-127.0
2023-08-21 17:34:17.127067,-127.0
2023-08-21 17:34:17.134755,-129.0
2023-08-21 17:34:17.142443,-120.0
2023-08-21 17:34:17.150132,-112.0
2023-08-21 17:34:17.157820,-108.0
2023-08-21 17:34:17.165508,-103.0
2023-08-21 17:34:17.173197,-103.0
2023-08-21 17:34:17.180885,-103.0
2023-08-21 17:34:17.188573,-98.0
2023-08-21 17:34:17.196262,-100.0
2023-08-21 17:34:17.203950,-100.0
2023-08-21 17:34:17.211638,-96.0
2023-08-21 17:34:17.219327,-100.0
2023-08-21 17:34:17.227015,-105.0
2023-08-21 17:34:17.234703,-100.0
2023-08-21 17:34:17.242392,-98.0
2023-08-21 17:34:17.250080,-100.0
2023-08-21 17:34:17.257768,-100.0
2023-08-21 17:34:17.265457,-98.0
2023-08-21 17:34:17.273145,-100.0
2023-08-21 17:34:17.280833,-96.0
2023-08-21 17:34:17.288522,-91.0
2023-08-21 17:34:17.296210,-96.0
2023-08-21 17:34:17.303898,-98.0
2023-08-21 17:34:17.311587,-96.0
2023-08-21 17:34:17.319275,-93.0
2023-08-21 17:34:17.326963,-93.0
2023-08-21 17:34:17.334652,-93.0
2023-08-21 17:34:17.342340,-88.0
2023-08-21 17:34:17.350028,-88.0
2023-08-21 17:34:17.357717,-91.0
2023-08-21 17:34:17.365405,-93.0
2023-08-21 17:34:17.373093,-93.0
2023-08-21 17:34:17.380781,-93.0
2023-08-21 17:34:17.388470,-93.0
2023-08-21 17:34:17.396158,-93.0
2023-08-21 17:34:17.403846,-96.0
2023-08-21 17:34:17.411535,-96.0
2023-08-21 17:34:17.419223,-98.0
2023-08-21 17:34:17.426911,-91.0
2023-08-21 17:34:17.434600,-88.0
2023-08-21 17:34:17.442288,-96.0
2023-08-21 17:34:17.449976,-98.0
2023-08-21 17:34:17.457665,-91.0
2023-08-21 17:34:17.465353,-86.0
2023-08-21 17:34:17.473041,-84.0
2023-08-21 17:34:17.480730,-81.0
2023-08-21 17:34:17.488418,-81.0
2023-08-21 17:34:17.496106,-86.0
2023-08-21 17:34:17.503795,-81.0
2023-08-21 17:34:17.511483,-74.0
2023-08-21 17:34:17.519171,-74.0
2023-08-21 17:34:17.526860,-74.0
2023-08-21 17:34:17.534548,-74.0
2023-08-21 17:34:17.542236,-74.0
2023-08-21 17:34:17.549925,-72.0
2023-08-21 17:34:17.557613,-67.0
2023-08-21 17:34:17.565301,-64.0
2023-08-21 17:34:17.572990,-64.0
2023-08-21 17:34:17.580678,-64.0
2023-08-21 17:34:17.588366,-64.0
2023-08-21 17:34:17.596055,-67.0
2023-08-21 17:34:17.603743,-62.0
2023-08-21 17:34:17.611431,-60.0
2023-08-21 17:34:17.619120,-57.0
2023-08-21 17:34:17.626808,-57.0
2023-08-21 17:34:17.634496,-55.0
2023-08-21 17:34:17.642184,-48.0
2023-08-21 17:34:17.649873,-33.0
2023-08-21 17:34:17.657561,-16.0
2023-08-21 17:34:17.665249,-4.0
2023-08-21 17:34:17.672938,-19.0
2023-08-21 17:34:17.680626,-45.0
2023-08-21 17:34:17.688314,-55.0
2023-08-21 17:34:17.696003,-67.0
2023-08-21 17:34:17.703691,-81.0
2023-08-21 17:34:17.711379,-84.0
2023-08-21 17:34:17.719068,-76.0
2023-08-21 17:34:17.726756,-74.0
2023-08-21 17:34:17.734444,-72.0
2023-08-21 17:34:17.742133,-67.0
2023-08-21 17:34:17.749821,-64.0
2023-08-21 17:34:17.757509,-55.0
2023-08-21 17:34:17.765198,55.0
2023-08-21 17:34:17.772886,400.0
2023-08-21 17:34:17.780574,777.0
2023-08-21 17:34:17.788263,710.0
2023-08-21 17:34:17.795951,170.0
2023-08-21 17:34:17.803639,-271.0
2023-08-21 17:34:17.811328,-247.0
2023-08-21 17:34:17.819016,-98.0
2023-08-21 17:34:17.826704,-134.0
2023-08-21 17:34:17.834393,-175.0
2023-08-21 17:34:17.842081,-134.0
2023-08-21 17:34:17.849769,-127.0
2023-08-21 17:34:17.857458,-136.0
2023-08-21 17:34:17.865146,-122.0
2023-08-21 17:34:17.872834,-115.0
2023-08-21 17:34:17.880523,-122.0
2023-08-21 17:34:17.888211,-112.0
2023-08-21 17:34:17.895899,-98.0
2023-08-21 17:34:17.903587,-96.0
2023-08-21 17:34:17.911276,-96.0
2023-08-21 17:34:17.918964,-86.0
2023-08-21 17:34:17.926652,-81.0
2023-08-21 17:34:17.934341,-79.0
2023-08-21 17:34:17.942029,-74.0
2023-08-21 17:34:17.949717,-69.0
2023-08-21 17:34:17.957406,-64.0
2023-08-21 17:34:17.965094,-60.0
2023-08-21 17:34:17.972782,-52.0
2023-08-21 17:34:17.980471,-43.0
2023-08-21 17:34:17.988159,-33.0
2023-08-21 17:34:17.995847,-26.0
2023-08-21 17:34:18.003536,-21.0
2023-08-21 17:34:18.011224,-14.0
2023-08-21 17:34:18.018912,-4.0
2023-08-21 17:34:18.026601,2.0
2023-08-21 17:34:18.034289,16.0
2023-08-21 17:34:18.041977,26.0
2023-08-21 17:34:18.049666,38.0
2023-08-21 17:34:18.057354,55.0
2023-08-21 17:34:18.065042,69.0
2023-08-21 17:34:18.072731,81.0
2023-08-21 17:34:18.080419,91.0
2023-08-21 17:34:18.088107,96.0
2023-08-21 17:34:18.095796,103.0
2023-08-21 17:34:18.103484,100.0
2023-08-21 17:34:18.111172,88.0
2023-08-21 17:34:18.118861,69.0
2023-08-21 17:34:18.126549,38.0
2023-08-21 17:34:18.134237,0.0
2023-08-21 17:34:18.141926,-31.0
2023-08-21 17:34:18.149614,-57.0
2023-08-21 17:34:18.157302,-81.0
2023-08-21 17:34:18.164990,-93.0
2023-08-21 17:34:18.172679,-103.0
2023-08-21 17:34:18.180367,-110.0
2023-08-21 17:34:18.188055,-112.0
2023-08-21 17:34:18.195744,-108.0
2023-08-21 17:34:18.203432,-105.0
2023-08-21 17:34:18.211120,-112.0
2023-08-21 17:34:18.218809,-115.0
2023-08-21 17:34:18.226497,-105.0
2023-08-21 17:34:18.234185,-100.0
2023-08-21 17:34:18.241874,-98.0
2023-08-21 17:34:18.249562,-91.0
2023-08-21 17:34:18.257250,-86.0
2023-08-21 17:34:18.264939,-88.0
2023-08-21 17:34:18.272627,-86.0
2023-08-21 17:34:18.280315,-81.0
2023-08-21 17:34:18.288004,-81.0
2023-08-21 17:34:18.295692,-79.0
2023-08-21 17:34:18.303380,-81.0
2023-08-21 17:34:18.311069,-84.0
2023-08-21 17:34:18.318757,-84.0
2023-08-21 17:34:18.326445,-81.0
2023-08-21 17:34:18.334134,-81.0
2023-08-21 17:34:18.341822,-84.0
2023-08-21 17:34:18.349510,-88.0
2023-08-21 17:34:18.357199,-86.0
2023-08-21 17:34:18.364887,-84.0
2023-08-21 17:34:18.372575,-91.0
2023-08-21 17:34:18.380264,-100.0
2023-08-21 17:34:18.387952,-98.0
2023-08-21 17:34:18.395640,-93.0
2023-08-21 17:34:18.403329,-93.0
2023-08-21 17:34:18.411017,-96.0
2023-08-21 17:34:18.418705,-96.0
2023-08-21 17:34:18.426393,-93.0
2023-08-21 17:34:18.434082,-88.0
2023-08-21 17:34:18.441770,-88.0
2023-08-21 17:34:18.449458,-91.0
2023-08-21 17:34:18.457147,-88.0
2023-08-21 17:34:18.464835,-86.0
2023-08-21 17:34:18.472523,-91.0
2023-08-21 17:34:18.480212,-96.0
2023-08-21 17:34:18.487900,-96.0
2023-08-21 17:34:18.495588,-93.0
2023-08-21 17:34:18.503277,-91.0
2023-08-21 17:34:18.510965,-91.0
2023-08-21 17:34:18.518653,-93.0
2023-08-21 17:34:18.526342,-88.0
2023-08-21 17:34:18.534030,-81.0
2023-08-21 17:34:18.541718,-84.0
2023-08-21 17:34:18.549407,-88.0
2023-08-21 17:34:18.557095,-86.0
2023-08-21 17:34:18.564783,-79.0
2023-08-21 17:34:18.572472,-81.0
2023-08-21 17:34:18.580160,-81.0
2023-08-21 17:34:18.587848,-72.0
2023-08-21 17:34:18.595537,-69.0
2023-08-21 17:34:18.603225,-76.0
2023-08-21 17:34:18.610913,-79.0
2023-08-21 17:34:18.618602,-72.0
2023-08-21 17:34:18.626290,-64.0
2023-08-21 17:34:18.633978,-69.0
2023-08-21 17:34:18.641667,-72.0
2023-08-21 17:34:18.649355,-69.0
2023-08-21 17:34:18.657043,-67.0
2023-08-21 17:34:18.664732,-67.0
2023-08-21 17:34:18.672420,-69.0
2023-08-21 17:34:18.680108,-64.0
2023-08-21 17:34:18.687796,-60.0
2023-08-21 17:34:18.695485,-62.0
2023-08-21 17:34:18.703173,-67.0
2023-08-21 17:34:18.710861,-67.0
2023-08-21 17:34:18.718550,-60.0
2023-08-21 17:34:18.726238,-60.0
2023-08-21 17:34:18.733926,-62.0
2023-08-21 17:34:18.741615,-55.0
2023-08-21 17:34:18.749303,-50.0
2023-08-21 17:34:18.756991,-45.0
2023-08-21 17:34:18.764680,-24.0
2023-08-21 17:34:18.772368,-9.0
2023-08-21 17:34:18.780056,-31.0
2023-08-21 17:34:18.787745,-55.0
2023-08-21 17:34:18.795433,-72.0
2023-08-21 17:34:18.803121,-93.0
2023-08-21 17:34:18.810810,-91.0
2023-08-21 17:34:18.818498,-79.0
2023-08-21 17:34:18.826186,-84.0
2023-08-21 17:34:18.833875,-84.0
2023-08-21 17:34:18.841563,-76.0
2023-08-21 17:34:18.849251,-81.0
2023-08-21 17:34:18.856940,-79.0
2023-08-21 17:34:18.864628,9.0
2023-08-21 17:34:18.872316,314.0
2023-08-21 17:34:18.880005,720.0
2023-08-21 17:34:18.887693,744.0
2023-08-21 17:34:18.895381,232.0
2023-08-21 17:34:18.903070,-268.0
2023-08-21 17:34:18.910758,-288.0
2023-08-21 17:34:18.918446,-120.0
2023-08-21 17:34:18.926135,-129.0
2023-08-21 17:34:18.933823,-177.0
2023-08-21 17:34:18.941511,-139.0
2023-08-21 17:34:18.949199,-122.0
2023-08-21 17:34:18.956888,-139.0
2023-08-21 17:34:18.964576,-124.0
2023-08-21 17:34:18.972264,-105.0
2023-08-21 17:34:18.979953,-103.0
2023-08-21 17:34:18.987641,-98.0
2023-08-21 17:34:18.995329,-88.0
2023-08-21 17:34:19.003018,-81.0
2023-08-21 17:34:19.010706,-76.0
2023-08-21 17:34:19.018394,-74.0
2023-08-21 17:34:19.026083,-72.0
2023-08-21 17:34:19.033771,-64.0
2023-08-21 17:34:19.041459,-57.0
2023-08-21 17:34:19.049148,-60.0
2023-08-21 17:34:19.056836,-52.0
2023-08-21 17:34:19.064524,-40.0
2023-08-21 17:34:19.072213,-40.0
2023-08-21 17:34:19.079901,-36.0
2023-08-21 17:34:19.087589,-24.0
2023-08-21 17:34:19.095278,-19.0
2023-08-21 17:34:19.102966,-16.0
2023-08-21 17:34:19.110654,-9.0
2023-08-21 17:34:19.118343,0.0
2023-08-21 17:34:19.126031,12.0
2023-08-21 17:34:19.133719,26.0
2023-08-21 17:34:19.141408,38.0
2023-08-21 17:34:19.149096,50.0
2023-08-21 17:34:19.156784,57.0
2023-08-21 17:34:19.164473,72.0
2023-08-21 17:34:19.172161,91.0
2023-08-21 17:34:19.179849,103.0
2023-08-21 17:34:19.187538,110.0
2023-08-21 17:34:19.195226,120.0
2023-08-21 17:34:19.202914,120.0
2023-08-21 17:34:19.210602,103.0
2023-08-21 17:34:19.218291,81.0
2023-08-21 17:34:19.225979,52.0
2023-08-21 17:34:19.233667,12.0
2023-08-21 17:34:19.241356,-33.0
2023-08-21 17:34:19.249044,-69.0
2023-08-21 17:34:19.256732,-91.0
2023-08-21 17:34:19.264421,-103.0
2023-08-21 17:34:19.272109,-112.0
2023-08-21 17:34:19.279797,-122.0
2023-08-21 17:34:19.287486,-122.0
2023-08-21 17:34:19.295174,-115.0
2023-08-21 17:34:19.302862,-110.0
2023-08-21 17:34:19.310551,-103.0
2023-08-21 17:34:19.318239,-103.0
2023-08-21 17:34:19.325927,-98.0
2023-08-21 17:34:19.333616,-96.0
2023-08-21 17:34:19.341304,-105.0
2023-08-21 17:34:19.348992,-103.0
2023-08-21 17:34:19.356681,-91.0
2023-08-21 17:34:19.364369,-88.0
2023-08-21 17:34:19.372057,-86.0
2023-08-21 17:34:19.379746,-84.0
2023-08-21 17:34:19.387434,-93.0
2023-08-21 17:34:19.395122,-96.0
2023-08-21 17:34:19.402811,-93.0
2023-08-21 17:34:19.410499,-98.0
2023-08-21 17:34:19.418187,-93.0
2023-08-21 17:34:19.425876,-91.0
2023-08-21 17:34:19.433564,-100.0
2023-08-21 17:34:19.441252,-105.0
2023-08-21 17:34:19.448941,-100.0
2023-08-21 17:34:19.456629,-98.0
2023-08-21 17:34:19.464317,-96.0
2023-08-21 17:34:19.472005,-98.0
2023-08-21 17:34:19.479694,-100.0
2023-08-21 17:34:19.487382,-96.0
2023-08-21 17:34:19.495070,-93.0
2023-08-21 17:34:19.502759,-93.0
2023-08-21 17:34:19.510447,-96.0
2023-08-21 17:34:19.518135,-98.0
2023-08-21 17:34:19.525824,-96.0
2023-08-21 17:34:19.533512,-98.0
2023-08-21 17:34:19.541200,-100.0
2023-08-21 17:34:19.548889,-91.0
2023-08-21 17:34:19.556577,-86.0
2023-08-21 17:34:19.564265,-88.0
2023-08-21 17:34:19.571954,-88.0
2023-08-21 17:34:19.579642,-88.0
2023-08-21 17:34:19.587330,-96.0
2023-08-21 17:34:19.595019,-93.0
2023-08-21 17:34:19.602707,-88.0
2023-08-21 17:34:19.610395,-88.0
2023-08-21 17:34:19.618084,-91.0
2023-08-21 17:34:19.625772,-91.0
2023-08-21 17:34:19.633460,-88.0
2023-08-21 17:34:19.641149,-86.0
2023-08-21 17:34:19.648837,-84.0
2023-08-21 17:34:19.656525,-86.0
2023-08-21 17:34:19.664214,-88.0
2023-08-21 17:34:19.671902,-81.0
2023-08-21 17:34:19.679590,-79.0
2023-08-21 17:34:19.687279,-81.0
2023-08-21 17:34:19.694967,-79.0
2023-08-21 17:34:19.702655,-74.0
2023-08-21 17:34:19.710344,-76.0
2023-08-21 17:34:19.718032,-79.0
2023-08-21 17:34:19.725720,-76.0
2023-08-21 17:34:19.733408,-74.0
2023-08-21 17:34:19.741097,-69.0
2023-08-21 17:34:19.748785,-69.0
2023-08-21 17:34:19.756473,-69.0
2023-08-21 17:34:19.764162,-64.0
2023-08-21 17:34:19.771850,-60.0
2023-08-21 17:34:19.779538,-50.0
2023-08-21 17:34:19.787227,-38.0
2023-08-21 17:34:19.794915,-21.0
2023-08-21 17:34:19.802603,-19.0
2023-08-21 17:34:19.810292,-33.0
2023-08-21 17:34:19.817980,-45.0
2023-08-21 17:34:19.825668,-62.0
2023-08-21 17:34:19.833357,-81.0
2023-08-21 17:34:19.841045,-81.0
2023-08-21 17:34:19.848733,-69.0
2023-08-21 17:34:19.856422,-69.0
2023-08-21 17:34:19.864110,-72.0
2023-08-21 17:34:19.871798,-64.0
2023-08-21 17:34:19.879487,-64.0
2023-08-21 17:34:19.887175,-60.0
2023-08-21 17:34:19.894863,52.0
2023-08-21 17:34:19.902552,400.0
2023-08-21 17:34:19.910240,782.0
2023-08-21 17:34:19.917928,713.0
2023-08-21 17:34:19.925617,146.0
2023-08-21 17:34:19.933305,-309.0
2023-08-21 17:34:19.940993,-268.0
2023-08-21 17:34:19.948682,-108.0
2023-08-21 17:34:19.956370,-146.0
2023-08-21 17:34:19.964058,-184.0
2023-08-21 17:34:19.971747,-144.0
2023-08-21 17:34:19.979435,-139.0
2023-08-21 17:34:19.987123,-148.0
2023-08-21 17:34:19.994811,-124.0
2023-08-21 17:34:20.002500,-112.0
2023-08-21 17:34:20.010188,-120.0
2023-08-21 17:34:20.017876,-112.0
2023-08-21 17:34:20.025565,-96.0
2023-08-21 17:34:20.033253,-88.0
2023-08-21 17:34:20.040941,-88.0
2023-08-21 17:34:20.048630,-88.0
2023-08-21 17:34:20.056318,-81.0
2023-08-21 17:34:20.064006,-74.0
2023-08-21 17:34:20.071695,-69.0
2023-08-21 17:34:20.079383,-67.0
2023-08-21 17:34:20.087071,-60.0
2023-08-21 17:34:20.094760,-50.0
2023-08-21 17:34:20.102448,-45.0
2023-08-21 17:34:20.110136,-40.0
2023-08-21 17:34:20.117825,-31.0
2023-08-21 17:34:20.125513,-26.0
2023-08-21 17:34:20.133201,-19.0
2023-08-21 17:34:20.140890,-14.0
2023-08-21 17:34:20.148578,-12.0
2023-08-21 17:34:20.156266,-2.0
2023-08-21 17:34:20.163955,24.0
2023-08-21 17:34:20.171643,43.0
2023-08-21 17:34:20.179331,50.0
2023-08-21 17:34:20.187020,62.0
2023-08-21 17:34:20.194708,79.0
2023-08-21 17:34:20.202396,91.0
2023-08-21 17:34:20.210085,93.0
2023-08-21 17:34:20.217773,98.0
2023-08-21 17:34:20.225461,112.0
2023-08-21 17:34:20.233150,108.0
2023-08-21 17:34:20.240838,86.0
2023-08-21 17:34:20.248526,57.0
2023-08-21 17:34:20.256214,21.0
2023-08-21 17:34:20.263903,-9.0
2023-08-21 17:34:20.271591,-38.0
2023-08-21 17:34:20.279279,-69.0
2023-08-21 17:34:20.286968,-93.0
2023-08-21 17:34:20.294656,-103.0
2023-08-21 17:34:20.302344,-110.0
2023-08-21 17:34:20.310033,-115.0
2023-08-21 17:34:20.317721,-112.0
2023-08-21 17:34:20.325409,-110.0
2023-08-21 17:34:20.333098,-110.0
2023-08-21 17:34:20.340786,-103.0
2023-08-21 17:34:20.348474,-93.0
2023-08-21 17:34:20.356163,-91.0
2023-08-21 17:34:20.363851,-91.0
2023-08-21 17:34:20.371539,-88.0
2023-08-21 17:34:20.379228,-86.0
2023-08-21 17:34:20.386916,-88.0
2023-08-21 17:34:20.394604,-91.0
2023-08-21 17:34:20.402293,-88.0
2023-08-21 17:34:20.409981,-86.0
2023-08-21 17:34:20.417669,-96.0
2023-08-21 17:34:20.425358,-100.0
2023-08-21 17:34:20.433046,-93.0
2023-08-21 17:34:20.440734,-88.0
2023-08-21 17:34:20.448423,-91.0
2023-08-21 17:34:20.456111,-93.0
2023-08-21 17:34:20.463799,-93.0
2023-08-21 17:34:20.471488,-96.0
2023-08-21 17:34:20.479176,-98.0
2023-08-21 17:34:20.486864,-96.0
2023-08-21 17:34:20.494553,-96.0
2023-08-21 17:34:20.502241,-98.0
2023-08-21 17:34:20.509929,-96.0
2023-08-21 17:34:20.517617,-91.0
2023-08-21 17:34:20.525306,-88.0
2023-08-21 17:34:20.532994,-91.0
2023-08-21 17:34:20.540682,-93.0
2023-08-21 17:34:20.548371,-91.0
2023-08-21 17:34:20.556059,-91.0
2023-08-21 17:34:20.563747,-91.0
2023-08-21 17:34:20.571436,-93.0
2023-08-21 17:34:20.579124,-96.0
2023-08-21 17:34:20.586812,-91.0
2023-08-21 17:34:20.594501,-88.0
2023-08-21 17:34:20.602189,-91.0
2023-08-21 17:34:20.609877,-88.0
2023-08-21 17:34:20.617566,-84.0
2023-08-21 17:34:20.625254,-84.0
2023-08-21 17:34:20.632942,-86.0
2023-08-21 17:34:20.640631,-88.0
2023-08-21 17:34:20.648319,-84.0
2023-08-21 17:34:20.656007,-81.0
2023-08-21 17:34:20.663696,-91.0
2023-08-21 17:34:20.671384,-93.0
2023-08-21 17:34:20.679072,-84.0
2023-08-21 17:34:20.686761,-81.0
2023-08-21 17:34:20.694449,-88.0
2023-08-21 17:34:20.702137,-93.0
2023-08-21 17:34:20.709826,-91.0
2023-08-21 17:34:20.717514,-84.0
2023-08-21 17:34:20.725202,-81.0
2023-08-21 17:34:20.732891,-79.0
2023-08-21 17:34:20.740579,-76.0
2023-08-21 17:34:20.748267,-79.0
2023-08-21 17:34:20.755956,-79.0
2023-08-21 17:34:20.763644,-74.0
2023-08-21 17:34:20.771332,-74.0
2023-08-21 17:34:20.779020,-81.0
2023-08-21 17:34:20.786709,-76.0
2023-08-21 17:34:20.794397,-69.0
2023-08-21 17:34:20.802085,-72.0
2023-08-21 17:34:20.809774,-72.0
2023-08-21 17:34:20.817462,-62.0
2023-08-21 17:34:20.825150,-64.0
2023-08-21 17:34:20.832839,-69.0
2023-08-21 17:34:20.840527,-64.0
2023-08-21 17:34:20.848215,-60.0
2023-08-21 17:34:20.855904,-60.0
2023-08-21 17:34:20.863592,-55.0
2023-08-21 17:34:20.871280,-40.0
2023-08-21 17:34:20.878969,-19.0
2023-08-21 17:34:20.886657,-9.0
2023-08-21 17:34:20.894345,-24.0
2023-08-21 17:34:20.902034,-43.0
2023-08-21 17:34:20.909722,-57.0
2023-08-21 17:34:20.917410,-76.0
2023-08-21 17:34:20.925099,-88.0
2023-08-21 17:34:20.932787,-81.0
2023-08-21 17:34:20.940475,-72.0
2023-08-21 17:34:20.948164,-74.0
2023-08-21 17:34:20.955852,-84.0
2023-08-21 17:34:20.963540,-84.0
2023-08-21 17:34:20.971229,-74.0
2023-08-21 17:34:20.978917,-60.0
2023-08-21 17:34:20.986605,40.0
2023-08-21 17:34:20.994294,369.0
2023-08-21 17:34:21.001982,753.0
2023-08-21 17:34:21.009670,722.0
2023-08-21 17:34:21.017359,204.0
2023-08-21 17:34:21.025047,-261.0
2023-08-21 17:34:21.032735,-261.0
2023-08-21 17:34:21.040423,-100.0
2023-08-21 17:34:21.048112,-124.0
2023-08-21 17:34:21.055800,-177.0
2023-08-21 17:34:21.063488,-136.0
2023-08-21 17:34:21.071177,-117.0
2023-08-21 17:34:21.078865,-129.0
2023-08-21 17:34:21.086553,-120.0
2023-08-21 17:34:21.094242,-108.0
2023-08-21 17:34:21.101930,-105.0
2023-08-21 17:34:21.109618,-98.0
2023-08-21 17:34:21.117307,-91.0
2023-08-21 17:34:21.124995,-88.0
2023-08-21 17:34:21.132683,-81.0
2023-08-21 17:34:21.140372,-74.0
2023-08-21 17:34:21.148060,-67.0
2023-08-21 17:34:21.155748,-62.0
2023-08-21 17:34:21.163437,-60.0
2023-08-21 17:34:21.171125,-52.0
2023-08-21 17:34:21.178813,-50.0
2023-08-21 17:34:21.186502,-52.0
2023-08-21 17:34:21.194190,-50.0
2023-08-21 17:34:21.201878,-38.0
2023-08-21 17:34:21.209567,-33.0
2023-08-21 17:34:21.217255,-26.0
2023-08-21 17:34:21.224943,-19.0
2023-08-21 17:34:21.232632,-16.0
2023-08-21 17:34:21.240320,-9.0
2023-08-21 17:34:21.248008,2.0
2023-08-21 17:34:21.255697,16.0
2023-08-21 17:34:21.263385,36.0
2023-08-21 17:34:21.271073,48.0
2023-08-21 17:34:21.278762,55.0
2023-08-21 17:34:21.286450,69.0
2023-08-21 17:34:21.294138,81.0
2023-08-21 17:34:21.301826,88.0
2023-08-21 17:34:21.309515,100.0
2023-08-21 17:34:21.317203,115.0
2023-08-21 17:34:21.324891,115.0
2023-08-21 17:34:21.332580,96.0
2023-08-21 17:34:21.340268,62.0
2023-08-21 17:34:21.347956,28.0
2023-08-21 17:34:21.355645,-2.0
2023-08-21 17:34:21.363333,-36.0
2023-08-21 17:34:21.371021,-67.0
2023-08-21 17:34:21.378710,-96.0
2023-08-21 17:34:21.386398,-117.0
2023-08-21 17:34:21.394086,-127.0
2023-08-21 17:34:21.401775,-129.0
2023-08-21 17:34:21.409463,-134.0
2023-08-21 17:34:21.417151,-132.0
2023-08-21 17:34:21.424840,-124.0
2023-08-21 17:34:21.432528,-120.0
2023-08-21 17:34:21.440216,-112.0
2023-08-21 17:34:21.447905,-110.0
2023-08-21 17:34:21.455593,-110.0
2023-08-21 17:34:21.463281,-105.0
2023-08-21 17:34:21.470970,-96.0
2023-08-21 17:34:21.478658,-96.0
2023-08-21 17:34:21.486346,-98.0
2023-08-21 17:34:21.494035,-96.0
2023-08-21 17:34:21.501723,-86.0
2023-08-21 17:34:21.509411,-91.0
2023-08-21 17:34:21.517100,-98.0
2023-08-21 17:34:21.524788,-88.0
2023-08-21 17:34:21.532476,-76.0
2023-08-21 17:34:21.540164,-91.0
2023-08-21 17:34:21.547853,-100.0
2023-08-21 17:34:21.555541,-88.0
2023-08-21 17:34:21.563229,-91.0
2023-08-21 17:34:21.570918,-98.0
2023-08-21 17:34:21.578606,-96.0
2023-08-21 17:34:21.586294,-98.0
2023-08-21 17:34:21.593983,-108.0
2023-08-21 17:34:21.601671,-103.0
2023-08-21 17:34:21.609359,-98.0
2023-08-21 17:34:21.617048,-105.0
2023-08-21 17:34:21.624736,-105.0
2023-08-21 17:34:21.632424,-100.0
2023-08-21 17:34:21.640113,-105.0
2023-08-21 17:34:21.647801,-105.0
2023-08-21 17:34:21.655489,-96.0
2023-08-21 17:34:21.663178,-96.0
2023-08-21 17:34:21.670866,-98.0
2023-08-21 17:34:21.678554,-100.0
2023-08-21 17:34:21.686243,-98.0
2023-08-21 17:34:21.693931,-96.0
2023-08-21 17:34:21.701619,-96.0
2023-08-21 17:34:21.709308,-98.0
2023-08-21 17:34:21.716996,-91.0
2023-08-21 17:34:21.724684,-84.0
2023-08-21 17:34:21.732373,-91.0
2023-08-21 17:34:21.740061,-91.0
2023-08-21 17:34:21.747749,-84.0
2023-08-21 17:34:21.755438,-84.0
2023-08-21 17:34:21.763126,-88.0
2023-08-21 17:34:21.770814,-88.0
2023-08-21 17:34:21.778503,-93.0
2023-08-21 17:34:21.786191,-98.0
2023-08-21 17:34:21.793879,-96.0
2023-08-21 17:34:21.801567,-91.0
2023-08-21 17:34:21.809256,-88.0
2023-08-21 17:34:21.816944,-86.0
2023-08-21 17:34:21.824632,-86.0
2023-08-21 17:34:21.832321,-86.0
2023-08-21 17:34:21.840009,-84.0
2023-08-21 17:34:21.847697,-86.0
2023-08-21 17:34:21.855386,-91.0
2023-08-21 17:34:21.863074,-86.0
2023-08-21 17:34:21.870762,-79.0
2023-08-21 17:34:21.878451,-84.0
2023-08-21 17:34:21.886139,-88.0
2023-08-21 17:34:21.893827,-88.0
2023-08-21 17:34:21.901516,-88.0
2023-08-21 17:34:21.909204,-86.0
2023-08-21 17:34:21.916892,-79.0
2023-08-21 17:34:21.924581,-67.0
2023-08-21 17:34:21.932269,-50.0
2023-08-21 17:34:21.939957,-36.0
2023-08-21 17:34:21.947646,-36.0
2023-08-21 17:34:21.955334,-45.0
2023-08-21 17:34:21.963022,-57.0
2023-08-21 17:34:21.970711,-79.0
2023-08-21 17:34:21.978399,-96.0
2023-08-21 17:34:21.986087,-93.0
2023-08-21 17:34:21.993776,-84.0
2023-08-21 17:34:22.001464,-81.0
2023-08-21 17:34:22.009152,-76.0
2023-08-21 17:34:22.016841,-74.0
2023-08-21 17:34:22.024529,-76.0
2023-08-21 17:34:22.032217,-64.0
2023-08-21 17:34:22.039906,45.0
2023-08-21 17:34:22.047594,374.0
2023-08-21 17:34:22.055282,761.0
2023-08-21 17:34:22.062970,705.0
2023-08-21 17:34:22.070659,139.0
2023-08-21 17:34:22.078347,-304.0
2023-08-21 17:34:22.086035,-252.0
2023-08-21 17:34:22.093724,-96.0
2023-08-21 17:34:22.101412,-132.0
2023-08-21 17:34:22.109100,-165.0
2023-08-21 17:34:22.116789,-132.0
2023-08-21 17:34:22.124477,-139.0
2023-08-21 17:34:22.132165,-158.0
2023-08-21 17:34:22.139854,-134.0
2023-08-21 17:34:22.147542,-117.0
2023-08-21 17:34:22.155230,-120.0
2023-08-21 17:34:22.162919,-117.0
2023-08-21 17:34:22.170607,-115.0
2023-08-21 17:34:22.178295,-112.0
2023-08-21 17:34:22.185984,-100.0
2023-08-21 17:34:22.193672,-98.0
2023-08-21 17:34:22.201360,-98.0
2023-08-21 17:34:22.209049,-88.0
2023-08-21 17:34:22.216737,-86.0
2023-08-21 17:34:22.224425,-93.0
2023-08-21 17:34:22.232114,-86.0
2023-08-21 17:34:22.239802,-72.0
2023-08-21 17:34:22.247490,-69.0
2023-08-21 17:34:22.255179,-64.0
2023-08-21 17:34:22.262867,-52.0
2023-08-21 17:34:22.270555,-48.0
2023-08-21 17:34:22.278244,-43.0
2023-08-21 17:34:22.285932,-31.0
2023-08-21 17:34:22.293620,-19.0
2023-08-21 17:34:22.301309,-9.0
2023-08-21 17:34:22.308997,2.0
2023-08-21 17:34:22.316685,16.0
2023-08-21 17:34:22.324373,33.0
2023-08-21 17:34:22.332062,48.0
2023-08-21 17:34:22.339750,60.0
2023-08-21 17:34:22.347438,69.0
2023-08-21 17:34:22.355127,81.0
2023-08-21 17:34:22.362815,91.0
2023-08-21 17:34:22.370503,88.0
2023-08-21 17:34:22.378192,84.0
2023-08-21 17:34:22.385880,74.0
2023-08-21 17:34:22.393568,43.0
2023-08-21 17:34:22.401257,2.0
2023-08-21 17:34:22.408945,-33.0
2023-08-21 17:34:22.416633,-67.0
2023-08-21 17:34:22.424322,-100.0
2023-08-21 17:34:22.432010,-124.0
2023-08-21 17:34:22.439698,-134.0
2023-08-21 17:34:22.447387,-139.0
2023-08-21 17:34:22.455075,-144.0
2023-08-21 17:34:22.462763,-141.0
2023-08-21 17:34:22.470452,-134.0
2023-08-21 17:34:22.478140,-129.0
2023-08-21 17:34:22.485828,-127.0
2023-08-21 17:34:22.493517,-117.0
2023-08-21 17:34:22.501205,-110.0
2023-08-21 17:34:22.508893,-105.0
2023-08-21 17:34:22.516582,-100.0
2023-08-21 17:34:22.524270,-103.0
2023-08-21 17:34:22.531958,-98.0
2023-08-21 17:34:22.539647,-91.0
2023-08-21 17:34:22.547335,-93.0
2023-08-21 17:34:22.555023,-91.0
2023-08-21 17:34:22.562712,-84.0
2023-08-21 17:34:22.570400,-84.0
2023-08-21 17:34:22.578088,-88.0
2023-08-21 17:34:22.585776,-86.0
2023-08-21 17:34:22.593465,-86.0
2023-08-21 17:34:22.601153,-88.0
2023-08-21 17:34:22.608841,-96.0
2023-08-21 17:34:22.616530,-96.0
2023-08-21 17:34:22.624218,-93.0
2023-08-21 17:34:22.631906,-93.0
2023-08-21 17:34:22.639595,-93.0
2023-08-21 17:34:22.647283,-93.0
2023-08-21 17:34:22.654971,-93.0
2023-08-21 17:34:22.662660,-96.0
2023-08-21 17:34:22.670348,-103.0
2023-08-21 17:34:22.678036,-100.0
2023-08-21 17:34:22.685725,-88.0
2023-08-21 17:34:22.693413,-91.0
2023-08-21 17:34:22.701101,-98.0
2023-08-21 17:34:22.708790,-96.0
2023-08-21 17:34:22.716478,-88.0
2023-08-21 17:34:22.724166,-88.0
2023-08-21 17:34:22.731855,-88.0
2023-08-21 17:34:22.739543,-86.0
2023-08-21 17:34:22.747231,-91.0
2023-08-21 17:34:22.754920,-86.0
2023-08-21 17:34:22.762608,-81.0
2023-08-21 17:34:22.770296,-84.0
2023-08-21 17:34:22.777985,-88.0
2023-08-21 17:34:22.785673,-84.0
2023-08-21 17:34:22.793361,-81.0
2023-08-21 17:34:22.801050,-84.0
2023-08-21 17:34:22.808738,-79.0
2023-08-21 17:34:22.816426,-74.0
2023-08-21 17:34:22.824115,-76.0
2023-08-21 17:34:22.831803,-79.0
2023-08-21 17:34:22.839491,-76.0
2023-08-21 17:34:22.847179,-76.0
2023-08-21 17:34:22.854868,-79.0
2023-08-21 17:34:22.862556,-86.0
2023-08-21 17:34:22.870244,-84.0
2023-08-21 17:34:22.877933,-79.0
2023-08-21 17:34:22.885621,-81.0
2023-08-21 17:34:22.893309,-81.0
2023-08-21 17:34:22.900998,-81.0
2023-08-21 17:34:22.908686,-86.0
2023-08-21 17:34:22.916374,-91.0
2023-08-21 17:34:22.924063,-88.0
2023-08-21 17:34:22.931751,-86.0
2023-08-21 17:34:22.939439,-88.0
2023-08-21 17:34:22.947128,-88.0
2023-08-21 17:34:22.954816,-84.0
2023-08-21 17:34:22.962504,-79.0
2023-08-21 17:34:22.970193,-79.0
2023-08-21 17:34:22.977881,-76.0
2023-08-21 17:34:22.985569,-76.0
2023-08-21 17:34:22.993258,-74.0
2023-08-21 17:34:23.000946,-69.0
2023-08-21 17:34:23.008634,-69.0
2023-08-21 17:34:23.016323,-74.0
2023-08-21 17:34:23.024011,-72.0
2023-08-21 17:34:23.031699,-72.0
2023-08-21 17:34:23.039388,-69.0
2023-08-21 17:34:23.047076,-57.0
2023-08-21 17:34:23.054764,-38.0
2023-08-21 17:34:23.062453,-16.0
2023-08-21 17:34:23.070141,-12.0
2023-08-21 17:34:23.077829,-28.0
2023-08-21 17:34:23.085518,-43.0
2023-08-21 17:34:23.093206,-57.0
2023-08-21 17:34:23.100894,-74.0
2023-08-21 17:34:23.108582,-81.0
2023-08-21 17:34:23.116271,-79.0
2023-08-21 17:34:23.123959,-76.0
2023-08-21 17:34:23.131647,-74.0
2023-08-21 17:34:23.139336,-67.0
2023-08-21 17:34:23.147024,-62.0
2023-08-21 17:34:23.154712,-62.0
2023-08-21 17:34:23.162401,-28.0
2023-08-21 17:34:23.170089,175.0
2023-08-21 17:34:23.177777,571.0
2023-08-21 17:34:23.185466,804.0
2023-08-21 17:34:23.193154,523.0
2023-08-21 17:34:23.200842,-45.0
2023-08-21 17:34:23.208531,-314.0
2023-08-21 17:34:23.216219,-172.0
2023-08-21 17:34:23.223907,-79.0
2023-08-21 17:34:23.231596,-151.0
2023-08-21 17:34:23.239284,-156.0
2023-08-21 17:34:23.246972,-120.0
2023-08-21 17:34:23.254661,-136.0
2023-08-21 17:34:23.262349,-146.0
2023-08-21 17:34:23.270037,-124.0
2023-08-21 17:34:23.277726,-112.0
2023-08-21 17:34:23.285414,-112.0
2023-08-21 17:34:23.293102,-105.0
2023-08-21 17:34:23.300791,-96.0
2023-08-21 17:34:23.308479,-91.0
2023-08-21 17:34:23.316167,-91.0
2023-08-21 17:34:23.323856,-86.0
2023-08-21 17:34:23.331544,-72.0
2023-08-21 17:34:23.339232,-67.0
2023-08-21 17:34:23.346921,-72.0
2023-08-21 17:34:23.354609,-72.0
2023-08-21 17:34:23.362297,-62.0
2023-08-21 17:34:23.369985,-50.0
2023-08-21 17:34:23.377674,-43.0
2023-08-21 17:34:23.385362,-48.0
2023-08-21 17:34:23.393050,-45.0
2023-08-21 17:34:23.400739,-28.0
2023-08-21 17:34:23.408427,-16.0
2023-08-21 17:34:23.416115,-16.0
2023-08-21 17:34:23.423804,-19.0
2023-08-21 17:34:23.431492,-7.0
2023-08-21 17:34:23.439180,12.0
2023-08-21 17:34:23.446869,24.0
2023-08-21 17:34:23.454557,31.0
2023-08-21 17:34:23.462245,45.0
2023-08-21 17:34:23.469934,62.0
2023-08-21 17:34:23.477622,69.0
2023-08-21 17:34:23.485310,79.0
2023-08-21 17:34:23.492999,93.0
2023-08-21 17:34:23.500687,93.0
2023-08-21 17:34:23.508375,91.0
2023-08-21 17:34:23.516064,79.0
2023-08-21 17:34:23.523752,48.0
2023-08-21 17:34:23.531440,14.0
2023-08-21 17:34:23.539129,-21.0
2023-08-21 17:34:23.546817,-55.0
2023-08-21 17:34:23.554505,-76.0
2023-08-21 17:34:23.562194,-88.0
2023-08-21 17:34:23.569882,-100.0
2023-08-21 17:34:23.577570,-112.0
2023-08-21 17:34:23.585259,-120.0
2023-08-21 17:34:23.592947,-112.0
2023-08-21 17:34:23.600635,-110.0
2023-08-21 17:34:23.608324,-108.0
2023-08-21 17:34:23.616012,-103.0
2023-08-21 17:34:23.623700,-103.0
2023-08-21 17:34:23.631388,-108.0
2023-08-21 17:34:23.639077,-98.0
2023-08-21 17:34:23.646765,-86.0
2023-08-21 17:34:23.654453,-86.0
2023-08-21 17:34:23.662142,-86.0
2023-08-21 17:34:23.669830,-84.0
2023-08-21 17:34:23.677518,-79.0
2023-08-21 17:34:23.685207,-72.0
2023-08-21 17:34:23.692895,-74.0
2023-08-21 17:34:23.700583,-81.0
2023-08-21 17:34:23.708272,-79.0
2023-08-21 17:34:23.715960,-79.0
2023-08-21 17:34:23.723648,-84.0
2023-08-21 17:34:23.731337,-81.0
2023-08-21 17:34:23.739025,-79.0
2023-08-21 17:34:23.746713,-81.0
2023-08-21 17:34:23.754402,-81.0
2023-08-21 17:34:23.762090,-84.0
2023-08-21 17:34:23.769778,-84.0
2023-08-21 17:34:23.777467,-81.0
2023-08-21 17:34:23.785155,-81.0
2023-08-21 17:34:23.792843,-84.0
2023-08-21 17:34:23.800532,-86.0
2023-08-21 17:34:23.808220,-86.0
2023-08-21 17:34:23.815908,-84.0
2023-08-21 17:34:23.823597,-81.0
2023-08-21 17:34:23.831285,-79.0
2023-08-21 17:34:23.838973,-86.0
2023-08-21 17:34:23.846662,-88.0
2023-08-21 17:34:23.854350,-84.0
2023-08-21 17:34:23.862038,-76.0
2023-08-21 17:34:23.869727,-79.0
2023-08-21 17:34:23.877415,-88.0
2023-08-21 17:34:23.885103,-100.0
2023-08-21 17:34:23.892791,-100.0
2023-08-21 17:34:23.900480,-100.0
2023-08-21 17:34:23.908168,-103.0
2023-08-21 17:34:23.915856,-100.0
2023-08-21 17:34:23.923545,-100.0
2023-08-21 17:34:23.931233,-105.0
2023-08-21 17:34:23.938921,-98.0
2023-08-21 17:34:23.946610,-93.0
2023-08-21 17:34:23.954298,-98.0
2023-08-21 17:34:23.961986,-98.0
2023-08-21 17:34:23.969675,-100.0
2023-08-21 17:34:23.977363,-105.0
2023-08-21 17:34:23.985051,-98.0
2023-08-21 17:34:23.992740,-91.0
2023-08-21 17:34:24.000428,-91.0
2023-08-21 17:34:24.008116,-98.0
2023-08-21 17:34:24.015805,-96.0
2023-08-21 17:34:24.023493,-91.0
2023-08-21 17:34:24.031181,-88.0
2023-08-21 17:34:24.038870,-91.0
2023-08-21 17:34:24.046558,-86.0
2023-08-21 17:34:24.054246,-84.0
2023-08-21 17:34:24.061935,-86.0
2023-08-21 17:34:24.069623,-81.0
2023-08-21 17:34:24.077311,-76.0
2023-08-21 17:34:24.085000,-86.0
2023-08-21 17:34:24.092688,-91.0
2023-08-21 17:34:24.100376,-76.0
2023-08-21 17:34:24.108065,-69.0
2023-08-21 17:34:24.115753,-74.0
2023-08-21 17:34:24.123441,-76.0
2023-08-21 17:34:24.131130,-79.0
2023-08-21 17:34:24.138818,-84.0
2023-08-21 17:34:24.146506,-81.0
2023-08-21 17:34:24.154194,-74.0
2023-08-21 17:34:24.161883,-64.0
2023-08-21 17:34:24.169571,-52.0
2023-08-21 17:34:24.177259,-36.0
2023-08-21 17:34:24.184948,-19.0
2023-08-21 17:34:24.192636,-21.0
2023-08-21 17:34:24.200324,-36.0
2023-08-21 17:34:24.208013,-50.0
2023-08-21 17:34:24.215701,-74.0
2023-08-21 17:34:24.223389,-88.0
2023-08-21 17:34:24.231078,-79.0
2023-08-21 17:34:24.238766,-72.0
2023-08-21 17:34:24.246454,-69.0
2023-08-21 17:34:24.254143,-72.0
2023-08-21 17:34:24.261831,-74.0
2023-08-21 17:34:24.269519,-67.0
2023-08-21 17:34:24.277208,-48.0
2023-08-21 17:34:24.284896,67.0
2023-08-21 17:34:24.292584,405.0
2023-08-21 17:34:24.300273,773.0
2023-08-21 17:34:24.307961,684.0
2023-08-21 17:34:24.315649,122.0
2023-08-21 17:34:24.323338,-285.0
2023-08-21 17:34:24.331026,-232.0
2023-08-21 17:34:24.338714,-105.0
2023-08-21 17:34:24.346403,-141.0
2023-08-21 17:34:24.354091,-160.0
2023-08-21 17:34:24.361779,-124.0
2023-08-21 17:34:24.369468,-122.0
2023-08-21 17:34:24.377156,-139.0
2023-08-21 17:34:24.384844,-132.0
2023-08-21 17:34:24.392533,-120.0
2023-08-21 17:34:24.400221,-120.0
2023-08-21 17:34:24.407909,-112.0
2023-08-21 17:34:24.415597,-105.0
2023-08-21 17:34:24.423286,-105.0
2023-08-21 17:34:24.430974,-100.0
2023-08-21 17:34:24.438662,-88.0
2023-08-21 17:34:24.446351,-86.0
2023-08-21 17:34:24.454039,-91.0
2023-08-21 17:34:24.461727,-84.0
2023-08-21 17:34:24.469416,-76.0
2023-08-21 17:34:24.477104,-76.0
2023-08-21 17:34:24.484792,-72.0
2023-08-21 17:34:24.492481,-55.0
2023-08-21 17:34:24.500169,-52.0
2023-08-21 17:34:24.507857,-50.0
2023-08-21 17:34:24.515546,-38.0
2023-08-21 17:34:24.523234,-33.0
2023-08-21 17:34:24.530922,-26.0
2023-08-21 17:34:24.538611,-12.0
2023-08-21 17:34:24.546299,-4.0
2023-08-21 17:34:24.553987,2.0
2023-08-21 17:34:24.561676,21.0
2023-08-21 17:34:24.569364,38.0
2023-08-21 17:34:24.577052,50.0
2023-08-21 17:34:24.584741,60.0
2023-08-21 17:34:24.592429,64.0
2023-08-21 17:34:24.600117,72.0
2023-08-21 17:34:24.607806,84.0
2023-08-21 17:34:24.615494,88.0
2023-08-21 17:34:24.623182,91.0
2023-08-21 17:34:24.630871,88.0
2023-08-21 17:34:24.638559,62.0
2023-08-21 17:34:24.646247,24.0
2023-08-21 17:34:24.653936,-9.0
2023-08-21 17:34:24.661624,-45.0
2023-08-21 17:34:24.669312,-84.0
2023-08-21 17:34:24.677000,-105.0
2023-08-21 17:34:24.684689,-117.0
2023-08-21 17:34:24.692377,-127.0
2023-08-21 17:34:24.700065,-139.0
2023-08-21 17:34:24.707754,-141.0
2023-08-21 17:34:24.715442,-134.0
2023-08-21 17:34:24.723130,-127.0
2023-08-21 17:34:24.730819,-127.0
2023-08-21 17:34:24.738507,-117.0
2023-08-21 17:34:24.746195,-108.0
2023-08-21 17:34:24.753884,-105.0
2023-08-21 17:34:24.761572,-100.0
2023-08-21 17:34:24.769260,-96.0
2023-08-21 17:34:24.776949,-96.0
2023-08-21 17:34:24.784637,-96.0
2023-08-21 17:34:24.792325,-93.0
2023-08-21 17:34:24.800014,-91.0
2023-08-21 17:34:24.807702,-84.0
2023-08-21 17:34:24.815390,-86.0
2023-08-21 17:34:24.823079,-96.0
2023-08-21 17:34:24.830767,-98.0
2023-08-21 17:34:24.838455,-96.0
2023-08-21 17:34:24.846144,-96.0
2023-08-21 17:34:24.853832,-93.0
2023-08-21 17:34:24.861520,-88.0
2023-08-21 17:34:24.869209,-93.0
2023-08-21 17:34:24.876897,-103.0
2023-08-21 17:34:24.884585,-98.0
2023-08-21 17:34:24.892274,-88.0
2023-08-21 17:34:24.899962,-100.0
2023-08-21 17:34:24.907650,-110.0
2023-08-21 17:34:24.915339,-100.0
2023-08-21 17:34:24.923027,-98.0
2023-08-21 17:34:24.930715,-108.0
2023-08-21 17:34:24.938403,-112.0
2023-08-21 17:34:24.946092,-105.0
2023-08-21 17:34:24.953780,-105.0
2023-08-21 17:34:24.961468,-117.0
2023-08-21 17:34:24.969157,-122.0
2023-08-21 17:34:24.976845,-115.0
2023-08-21 17:34:24.984533,-112.0
2023-08-21 17:34:24.992222,-112.0
2023-08-21 17:34:24.999910,-112.0
2023-08-21 17:34:25.007598,-112.0
2023-08-21 17:34:25.015287,-112.0
2023-08-21 17:34:25.022975,-115.0
2023-08-21 17:34:25.030663,-115.0
2023-08-21 17:34:25.038352,-110.0
2023-08-21 17:34:25.046040,-105.0
2023-08-21 17:34:25.053728,-100.0
2023-08-21 17:34:25.061417,-100.0
2023-08-21 17:34:25.069105,-100.0
2023-08-21 17:34:25.076793,-103.0
2023-08-21 17:34:25.084482,-100.0
2023-08-21 17:34:25.092170,-93.0
2023-08-21 17:34:25.099858,-93.0
2023-08-21 17:34:25.107547,-96.0
2023-08-21 17:34:25.115235,-93.0
2023-08-21 17:34:25.122923,-91.0
2023-08-21 17:34:25.130612,-86.0
2023-08-21 17:34:25.138300,-84.0
2023-08-21 17:34:25.145988,-84.0
2023-08-21 17:34:25.153677,-81.0
2023-08-21 17:34:25.161365,-79.0
2023-08-21 17:34:25.169053,-84.0
2023-08-21 17:34:25.176742,-84.0
2023-08-21 17:34:25.184430,-76.0
2023-08-21 17:34:25.192118,-72.0
2023-08-21 17:34:25.199806,-72.0
2023-08-21 17:34:25.207495,-67.0
2023-08-21 17:34:25.215183,-55.0
2023-08-21 17:34:25.222871,-31.0
2023-08-21 17:34:25.230560,-19.0
2023-08-21 17:34:25.238248,-33.0
2023-08-21 17:34:25.245936,-45.0
2023-08-21 17:34:25.253625,-55.0
2023-08-21 17:34:25.261313,-76.0
2023-08-21 17:34:25.269001,-91.0
2023-08-21 17:34:25.276690,-86.0
2023-08-21 17:34:25.284378,-81.0
2023-08-21 17:34:25.292066,-76.0
2023-08-21 17:34:25.299755,-72.0
2023-08-21 17:34:25.307443,-67.0
2023-08-21 17:34:25.315131,-69.0
2023-08-21 17:34:25.322820,-40.0
2023-08-21 17:34:25.330508,148.0
2023-08-21 17:34:25.338196,547.0
2023-08-21 17:34:25.345885,813.0
2023-08-21 17:34:25.353573,537.0
2023-08-21 17:34:25.361261,-55.0
2023-08-21 17:34:25.368950,-324.0
2023-08-21 17:34:25.376638,-182.0
2023-08-21 17:34:25.384326,-91.0
2023-08-21 17:34:25.392015,-153.0
2023-08-21 17:34:25.399703,-156.0
2023-08-21 17:34:25.407391,-120.0
2023-08-21 17:34:25.415080,-129.0
2023-08-21 17:34:25.422768,-129.0
2023-08-21 17:34:25.430456,-115.0
2023-08-21 17:34:25.438145,-117.0
2023-08-21 17:34:25.445833,-120.0
2023-08-21 17:34:25.453521,-103.0
2023-08-21 17:34:25.461209,-91.0
2023-08-21 17:34:25.468898,-93.0
2023-08-21 17:34:25.476586,-96.0
2023-08-21 17:34:25.484274,-86.0
2023-08-21 17:34:25.491963,-79.0
2023-08-21 17:34:25.499651,-79.0
2023-08-21 17:34:25.507339,-79.0
2023-08-21 17:34:25.515028,-74.0
2023-08-21 17:34:25.522716,-67.0
2023-08-21 17:34:25.530404,-62.0
2023-08-21 17:34:25.538093,-52.0
2023-08-21 17:34:25.545781,-45.0
2023-08-21 17:34:25.553469,-43.0
2023-08-21 17:34:25.561158,-38.0
2023-08-21 17:34:25.568846,-31.0
2023-08-21 17:34:25.576534,-24.0
2023-08-21 17:34:25.584223,-9.0
2023-08-21 17:34:25.591911,-4.0
2023-08-21 17:34:25.599599,4.0
2023-08-21 17:34:25.607288,26.0
2023-08-21 17:34:25.614976,38.0
2023-08-21 17:34:25.622664,45.0
2023-08-21 17:34:25.630353,60.0
2023-08-21 17:34:25.638041,76.0
2023-08-21 17:34:25.645729,88.0
2023-08-21 17:34:25.653418,91.0
2023-08-21 17:34:25.661106,91.0
2023-08-21 17:34:25.668794,84.0
2023-08-21 17:34:25.676483,67.0
2023-08-21 17:34:25.684171,43.0
2023-08-21 17:34:25.691859,12.0
2023-08-21 17:34:25.699548,-21.0
2023-08-21 17:34:25.707236,-57.0
2023-08-21 17:34:25.714924,-81.0
2023-08-21 17:34:25.722612,-93.0
2023-08-21 17:34:25.730301,-108.0
2023-08-21 17:34:25.737989,-120.0
2023-08-21 17:34:25.745677,-124.0
2023-08-21 17:34:25.753366,-122.0
2023-08-21 17:34:25.761054,-115.0
2023-08-21 17:34:25.768742,-112.0
2023-08-21 17:34:25.776431,-108.0
2023-08-21 17:34:25.784119,-98.0
2023-08-21 17:34:25.791807,-91.0
2023-08-21 17:34:25.799496,-84.0
2023-08-21 17:34:25.807184,-86.0
2023-08-21 17:34:25.814872,-98.0
2023-08-21 17:34:25.822561,-91.0
2023-08-21 17:34:25.830249,-74.0
2023-08-21 17:34:25.837937,-76.0
2023-08-21 17:34:25.845626,-81.0
2023-08-21 17:34:25.853314,-64.0
2023-08-21 17:34:25.861002,-76.0
2023-08-21 17:34:25.868691,-91.0
2023-08-21 17:34:25.876379,-79.0
2023-08-21 17:34:25.884067,-74.0
2023-08-21 17:34:25.891756,-81.0
2023-08-21 17:34:25.899444,-91.0
2023-08-21 17:34:25.907132,-86.0
2023-08-21 17:34:25.914821,-72.0
2023-08-21 17:34:25.922509,-84.0
2023-08-21 17:34:25.930197,-98.0
2023-08-21 17:34:25.937886,-91.0
2023-08-21 17:34:25.945574,-96.0
2023-08-21 17:34:25.953262,-108.0
2023-08-21 17:34:25.960951,-100.0
2023-08-21 17:34:25.968639,-91.0
2023-08-21 17:34:25.976327,-96.0
2023-08-21 17:34:25.984015,-88.0
2023-08-21 17:34:25.991704,-84.0
2023-08-21 17:34:25.999392,-98.0
2023-08-21 17:34:26.007080,-93.0
2023-08-21 17:34:26.014769,-76.0
2023-08-21 17:34:26.022457,-84.0
2023-08-21 17:34:26.030145,-93.0
2023-08-21 17:34:26.037834,-93.0
2023-08-21 17:34:26.045522,-98.0
2023-08-21 17:34:26.053210,-108.0
2023-08-21 17:34:26.060899,-103.0
2023-08-21 17:34:26.068587,-103.0
2023-08-21 17:34:26.076275,-108.0
2023-08-21 17:34:26.083964,-108.0
2023-08-21 17:34:26.091652,-103.0
2023-08-21 17:34:26.099340,-96.0
2023-08-21 17:34:26.107029,-96.0
2023-08-21 17:34:26.114717,-96.0
2023-08-21 17:34:26.122405,-98.0
2023-08-21 17:34:26.130094,-96.0
2023-08-21 17:34:26.137782,-91.0
2023-08-21 17:34:26.145470,-88.0
2023-08-21 17:34:26.153159,-88.0
2023-08-21 17:34:26.160847,-86.0
2023-08-21 17:34:26.168535,-91.0
2023-08-21 17:34:26.176224,-91.0
2023-08-21 17:34:26.183912,-81.0
2023-08-21 17:34:26.191600,-76.0
2023-08-21 17:34:26.199289,-76.0
2023-08-21 17:34:26.206977,-76.0
2023-08-21 17:34:26.214665,-79.0
2023-08-21 17:34:26.222353,-81.0
2023-08-21 17:34:26.230042,-74.0
2023-08-21 17:34:26.237730,-67.0
2023-08-21 17:34:26.245418,-69.0
2023-08-21 17:34:26.253107,-72.0
2023-08-21 17:34:26.260795,-72.0
2023-08-21 17:34:26.268483,-72.0
2023-08-21 17:34:26.276172,-67.0
2023-08-21 17:34:26.283860,-57.0
2023-08-21 17:34:26.291548,-48.0
2023-08-21 17:34:26.299237,-28.0
2023-08-21 17:34:26.306925,-14.0
2023-08-21 17:34:26.314613,-26.0
2023-08-21 17:34:26.322302,-43.0
2023-08-21 17:34:26.329990,-52.0
2023-08-21 17:34:26.337678,-72.0
2023-08-21 17:34:26.345367,-86.0
2023-08-21 17:34:26.353055,-81.0
2023-08-21 17:34:26.360743,-76.0
2023-08-21 17:34:26.368432,-79.0
2023-08-21 17:34:26.376120,-74.0
2023-08-21 17:34:26.383808,-64.0
2023-08-21 17:34:26.391497,-62.0
2023-08-21 17:34:26.399185,-50.0
2023-08-21 17:34:26.406873,76.0
2023-08-21 17:34:26.414562,422.0
2023-08-21 17:34:26.422250,756.0
2023-08-21 17:34:26.429938,633.0
2023-08-21 17:34:26.437627,96.0
2023-08-21 17:34:26.445315,-278.0
2023-08-21 17:34:26.453003,-230.0
2023-08-21 17:34:26.460692,-110.0
2023-08-21 17:34:26.468380,-139.0
2023-08-21 17:34:26.476068,-165.0
2023-08-21 17:34:26.483756,-136.0
2023-08-21 17:34:26.491445,-134.0
2023-08-21 17:34:26.499133,-139.0
2023-08-21 17:34:26.506821,-122.0
2023-08-21 17:34:26.514510,-110.0
2023-08-21 17:34:26.522198,-110.0
2023-08-21 17:34:26.529886,-103.0
2023-08-21 17:34:26.537575,-93.0
2023-08-21 17:34:26.545263,-96.0
2023-08-21 17:34:26.552951,-96.0
2023-08-21 17:34:26.560640,-84.0
2023-08-21 17:34:26.568328,-74.0
2023-08-21 17:34:26.576016,-79.0
2023-08-21 17:34:26.583705,-86.0
2023-08-21 17:34:26.591393,-81.0
2023-08-21 17:34:26.599081,-74.0
2023-08-21 17:34:26.606770,-67.0
2023-08-21 17:34:26.614458,-55.0
2023-08-21 17:34:26.622146,-48.0
2023-08-21 17:34:26.629835,-48.0
2023-08-21 17:34:26.637523,-43.0
2023-08-21 17:34:26.645211,-36.0
2023-08-21 17:34:26.652900,-24.0
2023-08-21 17:34:26.660588,-9.0
2023-08-21 17:34:26.668276,-7.0
2023-08-21 17:34:26.675965,-9.0
2023-08-21 17:34:26.683653,0.0
2023-08-21 17:34:26.691341,14.0
2023-08-21 17:34:26.699030,26.0
2023-08-21 17:34:26.706718,40.0
2023-08-21 17:34:26.714406,57.0
2023-08-21 17:34:26.722095,60.0
2023-08-21 17:34:26.729783,67.0
2023-08-21 17:34:26.737471,81.0
2023-08-21 17:34:26.745159,79.0
2023-08-21 17:34:26.752848,62.0
2023-08-21 17:34:26.760536,43.0
2023-08-21 17:34:26.768224,24.0
2023-08-21 17:34:26.775913,-7.0
2023-08-21 17:34:26.783601,-43.0
2023-08-21 17:34:26.791289,-72.0
2023-08-21 17:34:26.798978,-96.0
2023-08-21 17:34:26.806666,-112.0
2023-08-21 17:34:26.814354,-120.0
2023-08-21 17:34:26.822043,-124.0
2023-08-21 17:34:26.829731,-122.0
2023-08-21 17:34:26.837419,-120.0
2023-08-21 17:34:26.845108,-120.0
2023-08-21 17:34:26.852796,-117.0
2023-08-21 17:34:26.860484,-105.0
2023-08-21 17:34:26.868173,-100.0
2023-08-21 17:34:26.875861,-103.0
2023-08-21 17:34:26.883549,-103.0
2023-08-21 17:34:26.891238,-98.0
2023-08-21 17:34:26.898926,-93.0
2023-08-21 17:34:26.906614,-91.0
2023-08-21 17:34:26.914303,-86.0
2023-08-21 17:34:26.921991,-86.0
2023-08-21 17:34:26.929679,-84.0
2023-08-21 17:34:26.937368,-86.0
2023-08-21 17:34:26.945056,-91.0
2023-08-21 17:34:26.952744,-100.0
2023-08-21 17:34:26.960433,-105.0
2023-08-21 17:34:26.968121,-96.0
2023-08-21 17:34:26.975809,-91.0
2023-08-21 17:34:26.983498,-98.0
2023-08-21 17:34:26.991186,-105.0
2023-08-21 17:34:26.998874,-98.0
2023-08-21 17:34:27.006562,-98.0
2023-08-21 17:34:27.014251,-100.0
2023-08-21 17:34:27.021939,-91.0
2023-08-21 17:34:27.029627,-88.0
2023-08-21 17:34:27.037316,-100.0
2023-08-21 17:34:27.045004,-105.0
2023-08-21 17:34:27.052692,-98.0
2023-08-21 17:34:27.060381,-93.0
2023-08-21 17:34:27.068069,-96.0
2023-08-21 17:34:27.075757,-100.0
2023-08-21 17:34:27.083446,-98.0
2023-08-21 17:34:27.091134,-96.0
2023-08-21 17:34:27.098822,-98.0
2023-08-21 17:34:27.106511,-98.0
2023-08-21 17:34:27.114199,-96.0
2023-08-21 17:34:27.121887,-91.0
2023-08-21 17:34:27.129576,-84.0
2023-08-21 17:34:27.137264,-81.0
2023-08-21 17:34:27.144952,-88.0
2023-08-21 17:34:27.152641,-98.0
2023-08-21 17:34:27.160329,-93.0
2023-08-21 17:34:27.168017,-93.0
2023-08-21 17:34:27.175706,-105.0
2023-08-21 17:34:27.183394,-108.0
2023-08-21 17:34:27.191082,-100.0
2023-08-21 17:34:27.198771,-98.0
2023-08-21 17:34:27.206459,-96.0
2023-08-21 17:34:27.214147,-96.0
2023-08-21 17:34:27.221836,-100.0
2023-08-21 17:34:27.229524,-103.0
2023-08-21 17:34:27.237212,-96.0
2023-08-21 17:34:27.244901,-84.0
2023-08-21 17:34:27.252589,-86.0
2023-08-21 17:34:27.260277,-93.0
2023-08-21 17:34:27.267965,-88.0
2023-08-21 17:34:27.275654,-81.0
2023-08-21 17:34:27.283342,-84.0
2023-08-21 17:34:27.291030,-91.0
2023-08-21 17:34:27.298719,-93.0
2023-08-21 17:34:27.306407,-86.0
2023-08-21 17:34:27.314095,-84.0
2023-08-21 17:34:27.321784,-86.0
2023-08-21 17:34:27.329472,-84.0
2023-08-21 17:34:27.337160,-74.0
2023-08-21 17:34:27.344849,-62.0
2023-08-21 17:34:27.352537,-52.0
2023-08-21 17:34:27.360225,-40.0
2023-08-21 17:34:27.367914,-36.0
2023-08-21 17:34:27.375602,-40.0
2023-08-21 17:34:27.383290,-52.0
2023-08-21 17:34:27.390979,-69.0
2023-08-21 17:34:27.398667,-91.0
2023-08-21 17:34:27.406355,-93.0
2023-08-21 17:34:27.414044,-84.0
2023-08-21 17:34:27.421732,-79.0
2023-08-21 17:34:27.429420,-79.0
2023-08-21 17:34:27.437109,-79.0
2023-08-21 17:34:27.444797,-74.0
2023-08-21 17:34:27.452485,-69.0
2023-08-21 17:34:27.460174,0.0
2023-08-21 17:34:27.467862,278.0
2023-08-21 17:34:27.475550,686.0
2023-08-21 17:34:27.483239,758.0
2023-08-21 17:34:27.490927,271.0
2023-08-21 17:34:27.498615,-244.0
2023-08-21 17:34:27.506304,-290.0
2023-08-21 17:34:27.513992,-129.0
2023-08-21 17:34:27.521680,-129.0
2023-08-21 17:34:27.529368,-175.0
2023-08-21 17:34:27.537057,-148.0
2023-08-21 17:34:27.544745,-129.0
2023-08-21 17:34:27.552433,-139.0
2023-08-21 17:34:27.560122,-134.0
2023-08-21 17:34:27.567810,-124.0
2023-08-21 17:34:27.575498,-120.0
2023-08-21 17:34:27.583187,-105.0
2023-08-21 17:34:27.590875,-103.0
2023-08-21 17:34:27.598563,-100.0
2023-08-21 17:34:27.606252,-91.0
2023-08-21 17:34:27.613940,-84.0
2023-08-21 17:34:27.621628,-81.0
2023-08-21 17:34:27.629317,-72.0
2023-08-21 17:34:27.637005,-67.0
2023-08-21 17:34:27.644693,-69.0
2023-08-21 17:34:27.652382,-69.0
2023-08-21 17:34:27.660070,-62.0
2023-08-21 17:34:27.667758,-55.0
2023-08-21 17:34:27.675447,-50.0
2023-08-21 17:34:27.683135,-40.0
2023-08-21 17:34:27.690823,-33.0
2023-08-21 17:34:27.698512,-26.0
2023-08-21 17:34:27.706200,-26.0
2023-08-21 17:34:27.713888,-28.0
2023-08-21 17:34:27.721577,-14.0
2023-08-21 17:34:27.729265,4.0
2023-08-21 17:34:27.736953,9.0
2023-08-21 17:34:27.744642,19.0
2023-08-21 17:34:27.752330,38.0
2023-08-21 17:34:27.760018,50.0
2023-08-21 17:34:27.767707,55.0
2023-08-21 17:34:27.775395,67.0
2023-08-21 17:34:27.783083,76.0
2023-08-21 17:34:27.790771,79.0
2023-08-21 17:34:27.798460,84.0
2023-08-21 17:34:27.806148,79.0
2023-08-21 17:34:27.813836,57.0
2023-08-21 17:34:27.821525,28.0
2023-08-21 17:34:27.829213,-4.0
2023-08-21 17:34:27.836901,-48.0
2023-08-21 17:34:27.844590,-79.0
2023-08-21 17:34:27.852278,-96.0
2023-08-21 17:34:27.859966,-105.0
2023-08-21 17:34:27.867655,-120.0
2023-08-21 17:34:27.875343,-129.0
2023-08-21 17:34:27.883031,-132.0
2023-08-21 17:34:27.890720,-127.0
2023-08-21 17:34:27.898408,-117.0
2023-08-21 17:34:27.906096,-108.0
2023-08-21 17:34:27.913785,-105.0
2023-08-21 17:34:27.921473,-103.0
2023-08-21 17:34:27.929161,-98.0
2023-08-21 17:34:27.936850,-91.0
2023-08-21 17:34:27.944538,-84.0
2023-08-21 17:34:27.952226,-86.0
2023-08-21 17:34:27.959915,-84.0
2023-08-21 17:34:27.967603,-86.0
2023-08-21 17:34:27.975291,-93.0
2023-08-21 17:34:27.982980,-96.0
2023-08-21 17:34:27.990668,-91.0
2023-08-21 17:34:27.998356,-88.0
2023-08-21 17:34:28.006045,-91.0
2023-08-21 17:34:28.013733,-88.0
2023-08-21 17:34:28.021421,-81.0
2023-08-21 17:34:28.029110,-84.0
2023-08-21 17:34:28.036798,-93.0
2023-08-21 17:34:28.044486,-96.0
2023-08-21 17:34:28.052174,-93.0
2023-08-21 17:34:28.059863,-91.0
2023-08-21 17:34:28.067551,-93.0
2023-08-21 17:34:28.075239,-93.0
2023-08-21 17:34:28.082928,-91.0
2023-08-21 17:34:28.090616,-88.0
2023-08-21 17:34:28.098304,-86.0
2023-08-21 17:34:28.105993,-86.0
2023-08-21 17:34:28.113681,-86.0
2023-08-21 17:34:28.121369,-86.0
2023-08-21 17:34:28.129058,-86.0
2023-08-21 17:34:28.136746,-84.0
2023-08-21 17:34:28.144434,-84.0
2023-08-21 17:34:28.152123,-84.0
2023-08-21 17:34:28.159811,-76.0
2023-08-21 17:34:28.167499,-76.0
2023-08-21 17:34:28.175188,-84.0
2023-08-21 17:34:28.182876,-81.0
2023-08-21 17:34:28.190564,-74.0
2023-08-21 17:34:28.198253,-76.0
2023-08-21 17:34:28.205941,-81.0
2023-08-21 17:34:28.213629,-84.0
2023-08-21 17:34:28.221318,-81.0
2023-08-21 17:34:28.229006,-76.0
2023-08-21 17:34:28.236694,-74.0
2023-08-21 17:34:28.244383,-72.0
2023-08-21 17:34:28.252071,-69.0
2023-08-21 17:34:28.259759,-74.0
2023-08-21 17:34:28.267448,-81.0
2023-08-21 17:34:28.275136,-76.0
2023-08-21 17:34:28.282824,-79.0
2023-08-21 17:34:28.290513,-100.0
2023-08-21 17:34:28.298201,-105.0
2023-08-21 17:34:28.305889,-93.0
2023-08-21 17:34:28.313577,-91.0
2023-08-21 17:34:28.321266,-96.0
2023-08-21 17:34:28.328954,-93.0
2023-08-21 17:34:28.336642,-93.0
2023-08-21 17:34:28.344331,-93.0
2023-08-21 17:34:28.352019,-86.0
2023-08-21 17:34:28.359707,-84.0
2023-08-21 17:34:28.367396,-84.0
2023-08-21 17:34:28.375084,-84.0
2023-08-21 17:34:28.382772,-84.0
2023-08-21 17:34:28.390461,-79.0
2023-08-21 17:34:28.398149,-74.0
2023-08-21 17:34:28.405837,-74.0
2023-08-21 17:34:28.413526,-60.0
2023-08-21 17:34:28.421214,-50.0
2023-08-21 17:34:28.428902,-36.0
2023-08-21 17:34:28.436591,-28.0
2023-08-21 17:34:28.444279,-40.0
2023-08-21 17:34:28.451967,-52.0
2023-08-21 17:34:28.459656,-62.0
2023-08-21 17:34:28.467344,-84.0
2023-08-21 17:34:28.475032,-98.0
2023-08-21 17:34:28.482721,-88.0
2023-08-21 17:34:28.490409,-81.0
2023-08-21 17:34:28.498097,-84.0
2023-08-21 17:34:28.505786,-79.0
2023-08-21 17:34:28.513474,-76.0
2023-08-21 17:34:28.521162,-79.0
2023-08-21 17:34:28.528851,-28.0
2023-08-21 17:34:28.536539,201.0
2023-08-21 17:34:28.544227,602.0
2023-08-21 17:34:28.551916,801.0
2023-08-21 17:34:28.559604,477.0
2023-08-21 17:34:28.567292,-98.0
2023-08-21 17:34:28.574980,-314.0
2023-08-21 17:34:28.582669,-160.0
2023-08-21 17:34:28.590357,-98.0
2023-08-21 17:34:28.598045,-170.0
2023-08-21 17:34:28.605734,-163.0
2023-08-21 17:34:28.613422,-132.0
2023-08-21 17:34:28.621110,-141.0
2023-08-21 17:34:28.628799,-134.0
2023-08-21 17:34:28.636487,-115.0
2023-08-21 17:34:28.644175,-117.0
2023-08-21 17:34:28.651864,-120.0
2023-08-21 17:34:28.659552,-108.0
2023-08-21 17:34:28.667240,-100.0
2023-08-21 17:34:28.674929,-93.0
2023-08-21 17:34:28.682617,-86.0
2023-08-21 17:34:28.690305,-81.0
2023-08-21 17:34:28.697994,-81.0
2023-08-21 17:34:28.705682,-76.0
2023-08-21 17:34:28.713370,-64.0
2023-08-21 17:34:28.721059,-60.0
2023-08-21 17:34:28.728747,-62.0
2023-08-21 17:34:28.736435,-57.0
2023-08-21 17:34:28.744124,-48.0
2023-08-21 17:34:28.751812,-45.0
2023-08-21 17:34:28.759500,-40.0
2023-08-21 17:34:28.767189,-33.0
2023-08-21 17:34:28.774877,-26.0
2023-08-21 17:34:28.782565,-16.0
2023-08-21 17:34:28.790254,-9.0
2023-08-21 17:34:28.797942,-4.0
2023-08-21 17:34:28.805630,9.0
2023-08-21 17:34:28.813319,26.0
2023-08-21 17:34:28.821007,38.0
2023-08-21 17:34:28.828695,50.0
2023-08-21 17:34:28.836383,62.0
2023-08-21 17:34:28.844072,74.0
2023-08-21 17:34:28.851760,81.0
2023-08-21 17:34:28.859448,88.0
2023-08-21 17:34:28.867137,88.0
2023-08-21 17:34:28.874825,76.0
2023-08-21 17:34:28.882513,50.0
2023-08-21 17:34:28.890202,28.0
2023-08-21 17:34:28.897890,-4.0
2023-08-21 17:34:28.905578,-43.0
2023-08-21 17:34:28.913267,-72.0
2023-08-21 17:34:28.920955,-91.0
2023-08-21 17:34:28.928643,-110.0
2023-08-21 17:34:28.936332,-122.0
2023-08-21 17:34:28.944020,-124.0
2023-08-21 17:34:28.951708,-120.0
2023-08-21 17:34:28.959397,-117.0
2023-08-21 17:34:28.967085,-124.0
2023-08-21 17:34:28.974773,-129.0
2023-08-21 17:34:28.982462,-117.0
2023-08-21 17:34:28.990150,-108.0
2023-08-21 17:34:28.997838,-110.0
2023-08-21 17:34:29.005527,-110.0
2023-08-21 17:34:29.013215,-103.0
2023-08-21 17:34:29.020903,-100.0
2023-08-21 17:34:29.028592,-103.0
2023-08-21 17:34:29.036280,-96.0
2023-08-21 17:34:29.043968,-86.0
2023-08-21 17:34:29.051657,-86.0
2023-08-21 17:34:29.059345,-86.0
2023-08-21 17:34:29.067033,-86.0
2023-08-21 17:34:29.074722,-88.0
2023-08-21 17:34:29.082410,-88.0
2023-08-21 17:34:29.090098,-86.0
2023-08-21 17:34:29.097786,-86.0
2023-08-21 17:34:29.105475,-88.0
2023-08-21 17:34:29.113163,-93.0
2023-08-21 17:34:29.120851,-91.0
2023-08-21 17:34:29.128540,-84.0
2023-08-21 17:34:29.136228,-84.0
2023-08-21 17:34:29.143916,-91.0
2023-08-21 17:34:29.151605,-88.0
2023-08-21 17:34:29.159293,-84.0
2023-08-21 17:34:29.166981,-86.0
2023-08-21 17:34:29.174670,-91.0
2023-08-21 17:34:29.182358,-86.0
2023-08-21 17:34:29.190046,-88.0
2023-08-21 17:34:29.197735,-96.0
2023-08-21 17:34:29.205423,-93.0
2023-08-21 17:34:29.213111,-86.0
2023-08-21 17:34:29.220800,-88.0
2023-08-21 17:34:29.228488,-96.0
2023-08-21 17:34:29.236176,-98.0
2023-08-21 17:34:29.243865,-93.0
2023-08-21 17:34:29.251553,-91.0
2023-08-21 17:34:29.259241,-96.0
2023-08-21 17:34:29.266930,-96.0
2023-08-21 17:34:29.274618,-91.0
2023-08-21 17:34:29.282306,-88.0
2023-08-21 17:34:29.289995,-86.0
2023-08-21 17:34:29.297683,-84.0
2023-08-21 17:34:29.305371,-86.0
2023-08-21 17:34:29.313060,-86.0
2023-08-21 17:34:29.320748,-86.0
2023-08-21 17:34:29.328436,-86.0
2023-08-21 17:34:29.336125,-93.0
2023-08-21 17:34:29.343813,-96.0
2023-08-21 17:34:29.351501,-91.0
2023-08-21 17:34:29.359189,-86.0
2023-08-21 17:34:29.366878,-91.0
2023-08-21 17:34:29.374566,-91.0
2023-08-21 17:34:29.382254,-86.0
2023-08-21 17:34:29.389943,-84.0
2023-08-21 17:34:29.397631,-84.0
2023-08-21 17:34:29.405319,-81.0
2023-08-21 17:34:29.413008,-88.0
2023-08-21 17:34:29.420696,-100.0
2023-08-21 17:34:29.428384,-96.0
2023-08-21 17:34:29.436073,-86.0
2023-08-21 17:34:29.443761,-88.0
2023-08-21 17:34:29.451449,-88.0
2023-08-21 17:34:29.459138,-86.0
2023-08-21 17:34:29.466826,-86.0
2023-08-21 17:34:29.474514,-86.0
2023-08-21 17:34:29.482203,-84.0
2023-08-21 17:34:29.489891,-76.0
2023-08-21 17:34:29.497579,-67.0
2023-08-21 17:34:29.505268,-50.0
2023-08-21 17:34:29.512956,-31.0
2023-08-21 17:34:29.520644,-28.0
2023-08-21 17:34:29.528333,-45.0
2023-08-21 17:34:29.536021,-60.0
2023-08-21 17:34:29.543709,-76.0
2023-08-21 17:34:29.551398,-105.0
2023-08-21 17:34:29.559086,-112.0
2023-08-21 17:34:29.566774,-93.0
2023-08-21 17:34:29.574463,-84.0
2023-08-21 17:34:29.582151,-81.0
2023-08-21 17:34:29.589839,-86.0
2023-08-21 17:34:29.597528,-93.0
2023-08-21 17:34:29.605216,-81.0
2023-08-21 17:34:29.612904,26.0
2023-08-21 17:34:29.620592,343.0
2023-08-21 17:34:29.628281,737.0
2023-08-21 17:34:29.635969,725.0
2023-08-21 17:34:29.643657,201.0
2023-08-21 17:34:29.651346,-264.0
2023-08-21 17:34:29.659034,-259.0
2023-08-21 17:34:29.666722,-112.0
2023-08-21 17:34:29.674411,-136.0
2023-08-21 17:34:29.682099,-168.0
2023-08-21 17:34:29.689787,-136.0
2023-08-21 17:34:29.697476,-134.0
2023-08-21 17:34:29.705164,-144.0
2023-08-21 17:34:29.712852,-129.0
2023-08-21 17:34:29.720541,-120.0
2023-08-21 17:34:29.728229,-120.0
2023-08-21 17:34:29.735917,-117.0
2023-08-21 17:34:29.743606,-103.0
2023-08-21 17:34:29.751294,-93.0
2023-08-21 17:34:29.758982,-98.0
2023-08-21 17:34:29.766671,-100.0
2023-08-21 17:34:29.774359,-91.0
2023-08-21 17:34:29.782047,-76.0
2023-08-21 17:34:29.789736,-69.0
2023-08-21 17:34:29.797424,-72.0
2023-08-21 17:34:29.805112,-72.0
2023-08-21 17:34:29.812801,-60.0
2023-08-21 17:34:29.820489,-52.0
2023-08-21 17:34:29.828177,-50.0
2023-08-21 17:34:29.835866,-40.0
2023-08-21 17:34:29.843554,-31.0
2023-08-21 17:34:29.851242,-24.0
2023-08-21 17:34:29.858931,-12.0
2023-08-21 17:34:29.866619,-7.0
2023-08-21 17:34:29.874307,2.0
2023-08-21 17:34:29.881995,24.0
2023-08-21 17:34:29.889684,36.0
2023-08-21 17:34:29.897372,38.0
2023-08-21 17:34:29.905060,52.0
2023-08-21 17:34:29.912749,69.0
2023-08-21 17:34:29.920437,84.0
2023-08-21 17:34:29.928125,96.0
2023-08-21 17:34:29.935814,110.0
2023-08-21 17:34:29.943502,112.0
2023-08-21 17:34:29.951190,103.0
2023-08-21 17:34:29.958879,79.0
2023-08-21 17:34:29.966567,52.0
2023-08-21 17:34:29.974255,26.0
2023-08-21 17:34:29.981944,-12.0
2023-08-21 17:34:29.989632,-55.0
2023-08-21 17:34:29.997320,-88.0
2023-08-21 17:34:30.005009,-110.0
2023-08-21 17:34:30.012697,-132.0
2023-08-21 17:34:30.020385,-139.0
2023-08-21 17:34:30.028074,-134.0
2023-08-21 17:34:30.035762,-132.0
2023-08-21 17:34:30.043450,-136.0
2023-08-21 17:34:30.051139,-132.0
2023-08-21 17:34:30.058827,-120.0
2023-08-21 17:34:30.066515,-117.0
2023-08-21 17:34:30.074204,-117.0
2023-08-21 17:34:30.081892,-112.0
2023-08-21 17:34:30.089580,-103.0
2023-08-21 17:34:30.097269,-98.0
2023-08-21 17:34:30.104957,-96.0
2023-08-21 17:34:30.112645,-93.0
2023-08-21 17:34:30.120334,-91.0
2023-08-21 17:34:30.128022,-88.0
2023-08-21 17:34:30.135710,-84.0
2023-08-21 17:34:30.143398,-81.0
2023-08-21 17:34:30.151087,-86.0
2023-08-21 17:34:30.158775,-93.0
2023-08-21 17:34:30.166463,-91.0
2023-08-21 17:34:30.174152,-91.0
2023-08-21 17:34:30.181840,-91.0
2023-08-21 17:34:30.189528,-88.0
2023-08-21 17:34:30.197217,-91.0
2023-08-21 17:34:30.204905,-98.0
2023-08-21 17:34:30.212593,-103.0
2023-08-21 17:34:30.220282,-100.0
2023-08-21 17:34:30.227970,-103.0
2023-08-21 17:34:30.235658,-110.0
2023-08-21 17:34:30.243347,-108.0
2023-08-21 17:34:30.251035,-105.0
2023-08-21 17:34:30.258723,-103.0
2023-08-21 17:34:30.266412,-98.0
2023-08-21 17:34:30.274100,-93.0
2023-08-21 17:34:30.281788,-96.0
2023-08-21 17:34:30.289477,-98.0
2023-08-21 17:34:30.297165,-96.0
2023-08-21 17:34:30.304853,-91.0
2023-08-21 17:34:30.312542,-93.0
2023-08-21 17:34:30.320230,-96.0
2023-08-21 17:34:30.327918,-91.0
2023-08-21 17:34:30.335607,-88.0
2023-08-21 17:34:30.343295,-91.0
2023-08-21 17:34:30.350983,-88.0
2023-08-21 17:34:30.358672,-91.0
2023-08-21 17:34:30.366360,-98.0
2023-08-21 17:34:30.374048,-96.0
2023-08-21 17:34:30.381737,-88.0
2023-08-21 17:34:30.389425,-84.0
2023-08-21 17:34:30.397113,-88.0
2023-08-21 17:34:30.404801,-93.0
2023-08-21 17:34:30.412490,-96.0
2023-08-21 17:34:30.420178,-96.0
2023-08-21 17:34:30.427866,-88.0
2023-08-21 17:34:30.435555,-86.0
2023-08-21 17:34:30.443243,-88.0
2023-08-21 17:34:30.450931,-91.0
2023-08-21 17:34:30.458620,-88.0
2023-08-21 17:34:30.466308,-86.0
2023-08-21 17:34:30.473996,-84.0
2023-08-21 17:34:30.481685,-84.0
2023-08-21 17:34:30.489373,-86.0
2023-08-21 17:34:30.497061,-84.0
2023-08-21 17:34:30.504750,-84.0
2023-08-21 17:34:30.512438,-84.0
2023-08-21 17:34:30.520126,-69.0
2023-08-21 17:34:30.527815,-43.0
2023-08-21 17:34:30.535503,-31.0
2023-08-21 17:34:30.543191,-48.0
2023-08-21 17:34:30.550880,-72.0
2023-08-21 17:34:30.558568,-81.0
2023-08-21 17:34:30.566256,-88.0
2023-08-21 17:34:30.573945,-98.0
2023-08-21 17:34:30.581633,-100.0
2023-08-21 17:34:30.589321,-96.0
2023-08-21 17:34:30.597010,-91.0
2023-08-21 17:34:30.604698,-88.0
2023-08-21 17:34:30.612386,-81.0
2023-08-21 17:34:30.620075,-79.0
2023-08-21 17:34:30.627763,-64.0
2023-08-21 17:34:30.635451,60.0
2023-08-21 17:34:30.643140,412.0
2023-08-21 17:34:30.650828,777.0
2023-08-21 17:34:30.658516,684.0
2023-08-21 17:34:30.666204,127.0
2023-08-21 17:34:30.673893,-292.0
2023-08-21 17:34:30.681581,-244.0
2023-08-21 17:34:30.689269,-103.0
2023-08-21 17:34:30.696958,-136.0
2023-08-21 17:34:30.704646,-170.0
2023-08-21 17:34:30.712334,-141.0
2023-08-21 17:34:30.720023,-141.0
2023-08-21 17:34:30.727711,-151.0
2023-08-21 17:34:30.735399,-136.0
2023-08-21 17:34:30.743088,-129.0
2023-08-21 17:34:30.750776,-124.0
2023-08-21 17:34:30.758464,-115.0
2023-08-21 17:34:30.766153,-105.0
2023-08-21 17:34:30.773841,-103.0
2023-08-21 17:34:30.781529,-96.0
2023-08-21 17:34:30.789218,-86.0
2023-08-21 17:34:30.796906,-86.0
2023-08-21 17:34:30.804594,-81.0
2023-08-21 17:34:30.812283,-74.0
2023-08-21 17:34:30.819971,-69.0
2023-08-21 17:34:30.827659,-67.0
2023-08-21 17:34:30.835348,-57.0
2023-08-21 17:34:30.843036,-50.0
2023-08-21 17:34:30.850724,-48.0
2023-08-21 17:34:30.858413,-45.0
2023-08-21 17:34:30.866101,-38.0
2023-08-21 17:34:30.873789,-28.0
2023-08-21 17:34:30.881478,-19.0
2023-08-21 17:34:30.889166,-9.0
2023-08-21 17:34:30.896854,4.0
2023-08-21 17:34:30.904542,16.0
2023-08-21 17:34:30.912231,24.0
2023-08-21 17:34:30.919919,38.0
2023-08-21 17:34:30.927607,55.0
2023-08-21 17:34:30.935296,64.0
2023-08-21 17:34:30.942984,72.0
2023-08-21 17:34:30.950672,86.0
2023-08-21 17:34:30.958361,96.0
2023-08-21 17:34:30.966049,96.0
2023-08-21 17:34:30.973737,91.0
2023-08-21 17:34:30.981426,76.0
2023-08-21 17:34:30.989114,45.0
2023-08-21 17:34:30.996802,12.0
2023-08-21 17:34:31.004491,-19.0
2023-08-21 17:34:31.012179,-55.0
2023-08-21 17:34:31.019867,-81.0
2023-08-21 17:34:31.027556,-96.0
2023-08-21 17:34:31.035244,-110.0
2023-08-21 17:34:31.042932,-120.0
2023-08-21 17:34:31.050621,-122.0
2023-08-21 17:34:31.058309,-120.0
2023-08-21 17:34:31.065997,-115.0
2023-08-21 17:34:31.073686,-115.0
2023-08-21 17:34:31.081374,-120.0
2023-08-21 17:34:31.089062,-117.0
2023-08-21 17:34:31.096751,-108.0
2023-08-21 17:34:31.104439,-100.0
2023-08-21 17:34:31.112127,-98.0
2023-08-21 17:34:31.119816,-98.0
2023-08-21 17:34:31.127504,-93.0
2023-08-21 17:34:31.135192,-91.0
2023-08-21 17:34:31.142881,-84.0
2023-08-21 17:34:31.150569,-81.0
2023-08-21 17:34:31.158257,-86.0
2023-08-21 17:34:31.165945,-84.0
2023-08-21 17:34:31.173634,-81.0
2023-08-21 17:34:31.181322,-84.0
2023-08-21 17:34:31.189010,-84.0
2023-08-21 17:34:31.196699,-81.0
2023-08-21 17:34:31.204387,-81.0
2023-08-21 17:34:31.212075,-88.0
2023-08-21 17:34:31.219764,-98.0
2023-08-21 17:34:31.227452,-96.0
2023-08-21 17:34:31.235140,-93.0
2023-08-21 17:34:31.242829,-103.0
2023-08-21 17:34:31.250517,-100.0
2023-08-21 17:34:31.258205,-93.0
2023-08-21 17:34:31.265894,-93.0
2023-08-21 17:34:31.273582,-93.0
2023-08-21 17:34:31.281270,-91.0
2023-08-21 17:34:31.288959,-91.0
2023-08-21 17:34:31.296647,-91.0
2023-08-21 17:34:31.304335,-88.0
2023-08-21 17:34:31.312024,-86.0
2023-08-21 17:34:31.319712,-86.0
2023-08-21 17:34:31.327400,-86.0
2023-08-21 17:34:31.335089,-86.0
2023-08-21 17:34:31.342777,-88.0
2023-08-21 17:34:31.350465,-81.0
2023-08-21 17:34:31.358154,-76.0
2023-08-21 17:34:31.365842,-81.0
2023-08-21 17:34:31.373530,-84.0
2023-08-21 17:34:31.381219,-79.0
2023-08-21 17:34:31.388907,-76.0
2023-08-21 17:34:31.396595,-79.0
2023-08-21 17:34:31.404284,-79.0
2023-08-21 17:34:31.411972,-81.0
2023-08-21 17:34:31.419660,-84.0
2023-08-21 17:34:31.427348,-76.0
2023-08-21 17:34:31.435037,-69.0
2023-08-21 17:34:31.442725,-69.0
2023-08-21 17:34:31.450413,-74.0
2023-08-21 17:34:31.458102,-74.0
2023-08-21 17:34:31.465790,-72.0
2023-08-21 17:34:31.473478,-76.0
2023-08-21 17:34:31.481167,-84.0
2023-08-21 17:34:31.488855,-84.0
2023-08-21 17:34:31.496543,-81.0
2023-08-21 17:34:31.504232,-84.0
2023-08-21 17:34:31.511920,-79.0
2023-08-21 17:34:31.519608,-74.0
2023-08-21 17:34:31.527297,-76.0
2023-08-21 17:34:31.534985,-81.0
2023-08-21 17:34:31.542673,-76.0
2023-08-21 17:34:31.550362,-69.0
2023-08-21 17:34:31.558050,-72.0
2023-08-21 17:34:31.565738,-74.0
2023-08-21 17:34:31.573427,-74.0
2023-08-21 17:34:31.581115,-67.0
2023-08-21 17:34:31.588803,-50.0
2023-08-21 17:34:31.596492,-26.0
2023-08-21 17:34:31.604180,-16.0
2023-08-21 17:34:31.611868,-28.0
2023-08-21 17:34:31.619557,-45.0
2023-08-21 17:34:31.627245,-60.0
2023-08-21 17:34:31.634933,-76.0
2023-08-21 17:34:31.642622,-84.0
2023-08-21 17:34:31.650310,-79.0
2023-08-21 17:34:31.657998,-81.0
2023-08-21 17:34:31.665687,-93.0
2023-08-21 17:34:31.673375,-93.0
2023-08-21 17:34:31.681063,-81.0
2023-08-21 17:34:31.688751,-79.0
2023-08-21 17:34:31.696440,-48.0
2023-08-21 17:34:31.704128,129.0
2023-08-21 17:34:31.711816,501.0
2023-08-21 17:34:31.719505,777.0
2023-08-21 17:34:31.727193,564.0
2023-08-21 17:34:31.734881,0.0
2023-08-21 17:34:31.742570,-319.0
2023-08-21 17:34:31.750258,-213.0
2023-08-21 17:34:31.757946,-112.0
2023-08-21 17:34:31.765635,-170.0
2023-08-21 17:34:31.773323,-182.0
2023-08-21 17:34:31.781011,-141.0
2023-08-21 17:34:31.788700,-144.0
2023-08-21 17:34:31.796388,-151.0
2023-08-21 17:34:31.804076,-132.0
2023-08-21 17:34:31.811765,-127.0
2023-08-21 17:34:31.819453,-129.0
2023-08-21 17:34:31.827141,-110.0
2023-08-21 17:34:31.834830,-98.0
2023-08-21 17:34:31.842518,-103.0
2023-08-21 17:34:31.850206,-100.0
2023-08-21 17:34:31.857895,-91.0
2023-08-21 17:34:31.865583,-81.0
2023-08-21 17:34:31.873271,-79.0
2023-08-21 17:34:31.880960,-79.0
2023-08-21 17:34:31.888648,-74.0
2023-08-21 17:34:31.896336,-67.0
2023-08-21 17:34:31.904025,-62.0
2023-08-21 17:34:31.911713,-55.0
2023-08-21 17:34:31.919401,-43.0
2023-08-21 17:34:31.927090,-36.0
2023-08-21 17:34:31.934778,-36.0
2023-08-21 17:34:31.942466,-28.0
2023-08-21 17:34:31.950154,-19.0
2023-08-21 17:34:31.957843,-9.0
2023-08-21 17:34:31.965531,-4.0
2023-08-21 17:34:31.973219,0.0
2023-08-21 17:34:31.980908,12.0
2023-08-21 17:34:31.988596,28.0
2023-08-21 17:34:31.996284,43.0
2023-08-21 17:34:32.003973,57.0
2023-08-21 17:34:32.011661,69.0
2023-08-21 17:34:32.019349,74.0
2023-08-21 17:34:32.027038,79.0
2023-08-21 17:34:32.034726,88.0
2023-08-21 17:34:32.042414,88.0
2023-08-21 17:34:32.050103,69.0
2023-08-21 17:34:32.057791,43.0
2023-08-21 17:34:32.065479,9.0
2023-08-21 17:34:32.073168,-24.0
2023-08-21 17:34:32.080856,-52.0
2023-08-21 17:34:32.088544,-79.0
2023-08-21 17:34:32.096233,-93.0
2023-08-21 17:34:32.103921,-105.0
2023-08-21 17:34:32.111609,-112.0
2023-08-21 17:34:32.119298,-112.0
2023-08-21 17:34:32.126986,-108.0
2023-08-21 17:34:32.134674,-108.0
2023-08-21 17:34:32.142363,-108.0
2023-08-21 17:34:32.150051,-103.0
2023-08-21 17:34:32.157739,-100.0
2023-08-21 17:34:32.165428,-100.0
2023-08-21 17:34:32.173116,-96.0
2023-08-21 17:34:32.180804,-86.0
2023-08-21 17:34:32.188493,-81.0
2023-08-21 17:34:32.196181,-79.0
2023-08-21 17:34:32.203869,-81.0
2023-08-21 17:34:32.211557,-88.0
2023-08-21 17:34:32.219246,-88.0
2023-08-21 17:34:32.226934,-86.0
2023-08-21 17:34:32.234622,-84.0
2023-08-21 17:34:32.242311,-88.0
2023-08-21 17:34:32.249999,-96.0
2023-08-21 17:34:32.257687,-98.0
2023-08-21 17:34:32.265376,-98.0
2023-08-21 17:34:32.273064,-100.0
2023-08-21 17:34:32.280752,-100.0
2023-08-21 17:34:32.288441,-98.0
2023-08-21 17:34:32.296129,-100.0
2023-08-21 17:34:32.303817,-103.0
2023-08-21 17:34:32.311506,-103.0
2023-08-21 17:34:32.319194,-98.0
2023-08-21 17:34:32.326882,-93.0
2023-08-21 17:34:32.334571,-91.0
2023-08-21 17:34:32.342259,-93.0
2023-08-21 17:34:32.349947,-96.0
2023-08-21 17:34:32.357636,-91.0
2023-08-21 17:34:32.365324,-86.0
2023-08-21 17:34:32.373012,-88.0
2023-08-21 17:34:32.380701,-86.0
2023-08-21 17:34:32.388389,-81.0
2023-08-21 17:34:32.396077,-84.0
2023-08-21 17:34:32.403766,-88.0
2023-08-21 17:34:32.411454,-81.0
2023-08-21 17:34:32.419142,-76.0
2023-08-21 17:34:32.426831,-81.0
2023-08-21 17:34:32.434519,-81.0
2023-08-21 17:34:32.442207,-76.0
2023-08-21 17:34:32.449896,-79.0
2023-08-21 17:34:32.457584,-79.0
2023-08-21 17:34:32.465272,-76.0
2023-08-21 17:34:32.472960,-84.0
2023-08-21 17:34:32.480649,-88.0
2023-08-21 17:34:32.488337,-81.0
2023-08-21 17:34:32.496025,-76.0
2023-08-21 17:34:32.503714,-81.0
2023-08-21 17:34:32.511402,-76.0
2023-08-21 17:34:32.519090,-76.0
2023-08-21 17:34:32.526779,-81.0
2023-08-21 17:34:32.534467,-86.0
2023-08-21 17:34:32.542155,-86.0
2023-08-21 17:34:32.549844,-86.0
2023-08-21 17:34:32.557532,-81.0
2023-08-21 17:34:32.565220,-84.0
2023-08-21 17:34:32.572909,-79.0
2023-08-21 17:34:32.580597,-74.0
2023-08-21 17:34:32.588285,-79.0
2023-08-21 17:34:32.595974,-86.0
2023-08-21 17:34:32.603662,-79.0
2023-08-21 17:34:32.611350,-76.0
2023-08-21 17:34:32.619039,-79.0
2023-08-21 17:34:32.626727,-79.0
2023-08-21 17:34:32.634415,-76.0
2023-08-21 17:34:32.642104,-67.0
2023-08-21 17:34:32.649792,-60.0
2023-08-21 17:34:32.657480,-43.0
2023-08-21 17:34:32.665169,-21.0
2023-08-21 17:34:32.672857,-26.0
2023-08-21 17:34:32.680545,-48.0
2023-08-21 17:34:32.688234,-57.0
2023-08-21 17:34:32.695922,-72.0
2023-08-21 17:34:32.703610,-91.0
2023-08-21 17:34:32.711299,-91.0
2023-08-21 17:34:32.718987,-91.0
2023-08-21 17:34:32.726675,-98.0
2023-08-21 17:34:32.734363,-93.0
2023-08-21 17:34:32.742052,-76.0
2023-08-21 17:34:32.749740,-76.0
2023-08-21 17:34:32.757428,-76.0
2023-08-21 17:34:32.765117,33.0
2023-08-21 17:34:32.772805,386.0
2023-08-21 17:34:32.780493,770.0
2023-08-21 17:34:32.788182,698.0
2023-08-21 17:34:32.795870,132.0
2023-08-21 17:34:32.803558,-316.0
2023-08-21 17:34:32.811247,-276.0
2023-08-21 17:34:32.818935,-120.0
2023-08-21 17:34:32.826623,-146.0
2023-08-21 17:34:32.834312,-184.0
2023-08-21 17:34:32.842000,-148.0
2023-08-21 17:34:32.849688,-139.0
2023-08-21 17:34:32.857377,-156.0
2023-08-21 17:34:32.865065,-141.0
2023-08-21 17:34:32.872753,-120.0
2023-08-21 17:34:32.880442,-117.0
2023-08-21 17:34:32.888130,-120.0
2023-08-21 17:34:32.895818,-112.0
2023-08-21 17:34:32.903507,-103.0
2023-08-21 17:34:32.911195,-96.0
2023-08-21 17:34:32.918883,-88.0
2023-08-21 17:34:32.926572,-84.0
2023-08-21 17:34:32.934260,-81.0
2023-08-21 17:34:32.941948,-76.0
2023-08-21 17:34:32.949637,-72.0
2023-08-21 17:34:32.957325,-69.0
2023-08-21 17:34:32.965013,-64.0
2023-08-21 17:34:32.972702,-57.0
2023-08-21 17:34:32.980390,-50.0
2023-08-21 17:34:32.988078,-45.0
2023-08-21 17:34:32.995766,-43.0
2023-08-21 17:34:33.003455,-31.0
2023-08-21 17:34:33.011143,-16.0
2023-08-21 17:34:33.018831,-12.0
2023-08-21 17:34:33.026520,-4.0
2023-08-21 17:34:33.034208,14.0
2023-08-21 17:34:33.041896,28.0
2023-08-21 17:34:33.049585,36.0
2023-08-21 17:34:33.057273,55.0
2023-08-21 17:34:33.064961,72.0
2023-08-21 17:34:33.072650,84.0
2023-08-21 17:34:33.080338,93.0
2023-08-21 17:34:33.088026,103.0
2023-08-21 17:34:33.095715,108.0
2023-08-21 17:34:33.103403,100.0
2023-08-21 17:34:33.111091,79.0
2023-08-21 17:34:33.118780,55.0
2023-08-21 17:34:33.126468,21.0
2023-08-21 17:34:33.134156,-21.0
2023-08-21 17:34:33.141845,-62.0
2023-08-21 17:34:33.149533,-86.0
2023-08-21 17:34:33.157221,-103.0
2023-08-21 17:34:33.164910,-120.0
2023-08-21 17:34:33.172598,-124.0
2023-08-21 17:34:33.180286,-124.0
2023-08-21 17:34:33.187975,-129.0
2023-08-21 17:34:33.195663,-127.0
2023-08-21 17:34:33.203351,-122.0
2023-08-21 17:34:33.211040,-122.0
2023-08-21 17:34:33.218728,-122.0
2023-08-21 17:34:33.226416,-117.0
2023-08-21 17:34:33.234105,-112.0
2023-08-21 17:34:33.241793,-108.0
2023-08-21 17:34:33.249481,-105.0
2023-08-21 17:34:33.257169,-100.0
2023-08-21 17:34:33.264858,-96.0
2023-08-21 17:34:33.272546,-93.0
2023-08-21 17:34:33.280234,-91.0
2023-08-21 17:34:33.287923,-91.0
2023-08-21 17:34:33.295611,-88.0
2023-08-21 17:34:33.303299,-91.0
2023-08-21 17:34:33.310988,-93.0
2023-08-21 17:34:33.318676,-91.0
2023-08-21 17:34:33.326364,-98.0
2023-08-21 17:34:33.334053,-110.0
2023-08-21 17:34:33.341741,-110.0
2023-08-21 17:34:33.349429,-103.0
2023-08-21 17:34:33.357118,-100.0
2023-08-21 17:34:33.364806,-100.0
2023-08-21 17:34:33.372494,-103.0
2023-08-21 17:34:33.380183,-105.0
2023-08-21 17:34:33.387871,-103.0
2023-08-21 17:34:33.395559,-93.0
2023-08-21 17:34:33.403248,-91.0
2023-08-21 17:34:33.410936,-96.0
2023-08-21 17:34:33.418624,-98.0
2023-08-21 17:34:33.426313,-93.0
2023-08-21 17:34:33.434001,-88.0
2023-08-21 17:34:33.441689,-93.0
2023-08-21 17:34:33.449378,-96.0
2023-08-21 17:34:33.457066,-88.0
2023-08-21 17:34:33.464754,-88.0
2023-08-21 17:34:33.472443,-88.0
2023-08-21 17:34:33.480131,-81.0
2023-08-21 17:34:33.487819,-79.0
2023-08-21 17:34:33.495508,-81.0
2023-08-21 17:34:33.503196,-84.0
2023-08-21 17:34:33.510884,-84.0
2023-08-21 17:34:33.518572,-84.0
2023-08-21 17:34:33.526261,-79.0
2023-08-21 17:34:33.533949,-76.0
2023-08-21 17:34:33.541637,-76.0
2023-08-21 17:34:33.549326,-79.0
2023-08-21 17:34:33.557014,-81.0
2023-08-21 17:34:33.564702,-76.0
2023-08-21 17:34:33.572391,-69.0
2023-08-21 17:34:33.580079,-69.0
2023-08-21 17:34:33.587767,-74.0
2023-08-21 17:34:33.595456,-81.0
2023-08-21 17:34:33.603144,-81.0
2023-08-21 17:34:33.610832,-76.0
2023-08-21 17:34:33.618521,-72.0
2023-08-21 17:34:33.626209,-72.0
2023-08-21 17:34:33.633897,-74.0
2023-08-21 17:34:33.641586,-76.0
2023-08-21 17:34:33.649274,-81.0
2023-08-21 17:34:33.656962,-81.0
2023-08-21 17:34:33.664651,-74.0
2023-08-21 17:34:33.672339,-74.0
2023-08-21 17:34:33.680027,-79.0
2023-08-21 17:34:33.687716,-79.0
2023-08-21 17:34:33.695404,-72.0
2023-08-21 17:34:33.703092,-55.0
2023-08-21 17:34:33.710781,-26.0
2023-08-21 17:34:33.718469,-16.0
2023-08-21 17:34:33.726157,-45.0
2023-08-21 17:34:33.733846,-67.0
2023-08-21 17:34:33.741534,-69.0
2023-08-21 17:34:33.749222,-86.0
2023-08-21 17:34:33.756911,-105.0
2023-08-21 17:34:33.764599,-93.0
2023-08-21 17:34:33.772287,-81.0
2023-08-21 17:34:33.779975,-93.0
2023-08-21 17:34:33.787664,-93.0
2023-08-21 17:34:33.795352,-79.0
2023-08-21 17:34:33.803040,-74.0
2023-08-21 17:34:33.810729,-50.0
2023-08-21 17:34:33.818417,115.0
2023-08-21 17:34:33.826105,501.0
2023-08-21 17:34:33.833794,811.0
2023-08-21 17:34:33.841482,616.0
2023-08-21 17:34:33.849170,28.0
2023-08-21 17:34:33.856859,-316.0
2023-08-21 17:34:33.864547,-211.0
2023-08-21 17:34:33.872235,-108.0
2023-08-21 17:34:33.879924,-177.0
2023-08-21 17:34:33.887612,-184.0
2023-08-21 17:34:33.895300,-141.0
2023-08-21 17:34:33.902989,-148.0
2023-08-21 17:34:33.910677,-151.0
2023-08-21 17:34:33.918365,-129.0
2023-08-21 17:34:33.926054,-127.0
2023-08-21 17:34:33.933742,-129.0
2023-08-21 17:34:33.941430,-120.0
2023-08-21 17:34:33.949119,-108.0
2023-08-21 17:34:33.956807,-110.0
2023-08-21 17:34:33.964495,-105.0
2023-08-21 17:34:33.972184,-88.0
2023-08-21 17:34:33.979872,-81.0
2023-08-21 17:34:33.987560,-79.0
2023-08-21 17:34:33.995249,-74.0
2023-08-21 17:34:34.002937,-72.0
2023-08-21 17:34:34.010625,-72.0
2023-08-21 17:34:34.018314,-60.0
2023-08-21 17:34:34.026002,-50.0
2023-08-21 17:34:34.033690,-45.0
2023-08-21 17:34:34.041378,-38.0
2023-08-21 17:34:34.049067,-31.0
2023-08-21 17:34:34.056755,-24.0
2023-08-21 17:34:34.064443,-16.0
2023-08-21 17:34:34.072132,-4.0
2023-08-21 17:34:34.079820,9.0
2023-08-21 17:34:34.087508,19.0
2023-08-21 17:34:34.095197,28.0
2023-08-21 17:34:34.102885,45.0
2023-08-21 17:34:34.110573,60.0
2023-08-21 17:34:34.118262,67.0
2023-08-21 17:34:34.125950,84.0
2023-08-21 17:34:34.133638,98.0
2023-08-21 17:34:34.141327,103.0
2023-08-21 17:34:34.149015,103.0
2023-08-21 17:34:34.156703,98.0
2023-08-21 17:34:34.164392,84.0
2023-08-21 17:34:34.172080,57.0
2023-08-21 17:34:34.179768,24.0
2023-08-21 17:34:34.187457,-14.0
2023-08-21 17:34:34.195145,-48.0
2023-08-21 17:34:34.202833,-72.0
2023-08-21 17:34:34.210522,-96.0
2023-08-21 17:34:34.218210,-103.0
2023-08-21 17:34:34.225898,-105.0
2023-08-21 17:34:34.233587,-117.0
2023-08-21 17:34:34.241275,-120.0
2023-08-21 17:34:34.248963,-108.0
2023-08-21 17:34:34.256652,-103.0
2023-08-21 17:34:34.264340,-105.0
2023-08-21 17:34:34.272028,-100.0
2023-08-21 17:34:34.279717,-98.0
2023-08-21 17:34:34.287405,-93.0
2023-08-21 17:34:34.295093,-81.0
2023-08-21 17:34:34.302781,-76.0
2023-08-21 17:34:34.310470,-79.0
2023-08-21 17:34:34.318158,-76.0
2023-08-21 17:34:34.325846,-74.0
2023-08-21 17:34:34.333535,-72.0
2023-08-21 17:34:34.341223,-69.0
2023-08-21 17:34:34.348911,-67.0
2023-08-21 17:34:34.356600,-69.0
2023-08-21 17:34:34.364288,-72.0
2023-08-21 17:34:34.371976,-69.0
2023-08-21 17:34:34.379665,-69.0
2023-08-21 17:34:34.387353,-72.0
2023-08-21 17:34:34.395041,-74.0
2023-08-21 17:34:34.402730,-74.0
2023-08-21 17:34:34.410418,-76.0
2023-08-21 17:34:34.418106,-76.0
2023-08-21 17:34:34.425795,-76.0
2023-08-21 17:34:34.433483,-81.0
2023-08-21 17:34:34.441171,-79.0
2023-08-21 17:34:34.448860,-74.0
2023-08-21 17:34:34.456548,-84.0
2023-08-21 17:34:34.464236,-98.0
2023-08-21 17:34:34.471925,-91.0
2023-08-21 17:34:34.479613,-81.0
2023-08-21 17:34:34.487301,-84.0
2023-08-21 17:34:34.494990,-81.0
2023-08-21 17:34:34.502678,-76.0
2023-08-21 17:34:34.510366,-81.0
2023-08-21 17:34:34.518055,-84.0
2023-08-21 17:34:34.525743,-81.0
2023-08-21 17:34:34.533431,-76.0
2023-08-21 17:34:34.541120,-76.0
2023-08-21 17:34:34.548808,-79.0
2023-08-21 17:34:34.556496,-76.0
2023-08-21 17:34:34.564184,-72.0
2023-08-21 17:34:34.571873,-76.0
2023-08-21 17:34:34.579561,-76.0
2023-08-21 17:34:34.587249,-69.0
2023-08-21 17:34:34.594938,-69.0
2023-08-21 17:34:34.602626,-72.0
2023-08-21 17:34:34.610314,-62.0
2023-08-21 17:34:34.618003,-60.0
2023-08-21 17:34:34.625691,-74.0
2023-08-21 17:34:34.633379,-79.0
2023-08-21 17:34:34.641068,-67.0
2023-08-21 17:34:34.648756,-67.0
2023-08-21 17:34:34.656444,-74.0
2023-08-21 17:34:34.664133,-72.0
2023-08-21 17:34:34.671821,-69.0
2023-08-21 17:34:34.679509,-72.0
2023-08-21 17:34:34.687198,-74.0
2023-08-21 17:34:34.694886,-69.0
2023-08-21 17:34:34.702574,-69.0
2023-08-21 17:34:34.710263,-74.0
2023-08-21 17:34:34.717951,-72.0
2023-08-21 17:34:34.725639,-69.0
2023-08-21 17:34:34.733328,-72.0
2023-08-21 17:34:34.741016,-76.0
2023-08-21 17:34:34.748704,-74.0
2023-08-21 17:34:34.756393,-69.0
2023-08-21 17:34:34.764081,-72.0
2023-08-21 17:34:34.771769,-72.0
2023-08-21 17:34:34.779458,-64.0
2023-08-21 17:34:34.787146,-57.0
2023-08-21 17:34:34.794834,-45.0
2023-08-21 17:34:34.802523,-24.0
2023-08-21 17:34:34.810211,-14.0
2023-08-21 17:34:34.817899,-28.0
2023-08-21 17:34:34.825587,-38.0
2023-08-21 17:34:34.833276,-45.0
2023-08-21 17:34:34.840964,-69.0
2023-08-21 17:34:34.848652,-84.0
2023-08-21 17:34:34.856341,-76.0
2023-08-21 17:34:34.864029,-72.0
2023-08-21 17:34:34.871717,-74.0
2023-08-21 17:34:34.879406,-67.0
2023-08-21 17:34:34.887094,-62.0
2023-08-21 17:34:34.894782,-64.0
2023-08-21 17:34:34.902471,-36.0
2023-08-21 17:34:34.910159,139.0
2023-08-21 17:34:34.917847,528.0
2023-08-21 17:34:34.925536,806.0
2023-08-21 17:34:34.933224,573.0
2023-08-21 17:34:34.940912,4.0
2023-08-21 17:34:34.948601,-297.0
2023-08-21 17:34:34.956289,-187.0
2023-08-21 17:34:34.963977,-91.0
2023-08-21 17:34:34.971666,-151.0
2023-08-21 17:34:34.979354,-163.0
2023-08-21 17:34:34.987042,-129.0
2023-08-21 17:34:34.994731,-132.0
2023-08-21 17:34:35.002419,-134.0
2023-08-21 17:34:35.010107,-115.0
2023-08-21 17:34:35.017796,-105.0
2023-08-21 17:34:35.025484,-108.0
2023-08-21 17:34:35.033172,-98.0
2023-08-21 17:34:35.040861,-96.0
2023-08-21 17:34:35.048549,-103.0
2023-08-21 17:34:35.056237,-100.0
2023-08-21 17:34:35.063926,-96.0
2023-08-21 17:34:35.071614,-91.0
2023-08-21 17:34:35.079302,-72.0
2023-08-21 17:34:35.086990,-64.0
2023-08-21 17:34:35.094679,-72.0
2023-08-21 17:34:35.102367,-67.0
2023-08-21 17:34:35.110055,-57.0
2023-08-21 17:34:35.117744,-55.0
2023-08-21 17:34:35.125432,-50.0
2023-08-21 17:34:35.133120,-43.0
2023-08-21 17:34:35.140809,-33.0
2023-08-21 17:34:35.148497,-21.0
2023-08-21 17:34:35.156185,-16.0
2023-08-21 17:34:35.163874,-16.0
2023-08-21 17:34:35.171562,-2.0
2023-08-21 17:34:35.179250,14.0
2023-08-21 17:34:35.186939,24.0
2023-08-21 17:34:35.194627,31.0
2023-08-21 17:34:35.202315,38.0
2023-08-21 17:34:35.210004,57.0
2023-08-21 17:34:35.217692,74.0
2023-08-21 17:34:35.225380,79.0
2023-08-21 17:34:35.233069,84.0
2023-08-21 17:34:35.240757,88.0
2023-08-21 17:34:35.248445,84.0
2023-08-21 17:34:35.256134,67.0
2023-08-21 17:34:35.263822,40.0
2023-08-21 17:34:35.271510,4.0
2023-08-21 17:34:35.279199,-31.0
2023-08-21 17:34:35.286887,-55.0
2023-08-21 17:34:35.294575,-79.0
2023-08-21 17:34:35.302264,-103.0
2023-08-21 17:34:35.309952,-115.0
2023-08-21 17:34:35.317640,-122.0
2023-08-21 17:34:35.325329,-127.0
2023-08-21 17:34:35.333017,-120.0
2023-08-21 17:34:35.340705,-115.0
2023-08-21 17:34:35.348393,-115.0
2023-08-21 17:34:35.356082,-115.0
2023-08-21 17:34:35.363770,-112.0
2023-08-21 17:34:35.371458,-103.0
2023-08-21 17:34:35.379147,-91.0
2023-08-21 17:34:35.386835,-88.0
2023-08-21 17:34:35.394523,-88.0
2023-08-21 17:34:35.402212,-88.0
2023-08-21 17:34:35.409900,-88.0
2023-08-21 17:34:35.417588,-91.0
2023-08-21 17:34:35.425277,-86.0
2023-08-21 17:34:35.432965,-84.0
2023-08-21 17:34:35.440653,-88.0
2023-08-21 17:34:35.448342,-88.0
2023-08-21 17:34:35.456030,-86.0
2023-08-21 17:34:35.463718,-86.0
2023-08-21 17:34:35.471407,-88.0
2023-08-21 17:34:35.479095,-91.0
2023-08-21 17:34:35.486783,-93.0
2023-08-21 17:34:35.494472,-93.0
2023-08-21 17:34:35.502160,-88.0
2023-08-21 17:34:35.509848,-86.0
2023-08-21 17:34:35.517537,-86.0
2023-08-21 17:34:35.525225,-88.0
2023-08-21 17:34:35.532913,-88.0
2023-08-21 17:34:35.540602,-86.0
2023-08-21 17:34:35.548290,-86.0
2023-08-21 17:34:35.555978,-81.0
2023-08-21 17:34:35.563667,-81.0
2023-08-21 17:34:35.571355,-86.0
2023-08-21 17:34:35.579043,-88.0
2023-08-21 17:34:35.586731,-86.0
2023-08-21 17:34:35.594420,-84.0
2023-08-21 17:34:35.602108,-84.0
2023-08-21 17:34:35.609796,-86.0
2023-08-21 17:34:35.617485,-84.0
2023-08-21 17:34:35.625173,-88.0
2023-08-21 17:34:35.632861,-98.0
2023-08-21 17:34:35.640550,-98.0
2023-08-21 17:34:35.648238,-91.0
2023-08-21 17:34:35.655926,-91.0
2023-08-21 17:34:35.663615,-98.0
2023-08-21 17:34:35.671303,-108.0
2023-08-21 17:34:35.678991,-115.0
2023-08-21 17:34:35.686680,-108.0
2023-08-21 17:34:35.694368,-98.0
2023-08-21 17:34:35.702056,-100.0
2023-08-21 17:34:35.709745,-108.0
2023-08-21 17:34:35.717433,-108.0
2023-08-21 17:34:35.725121,-103.0
2023-08-21 17:34:35.732810,-100.0
2023-08-21 17:34:35.740498,-108.0
2023-08-21 17:34:35.748186,-110.0
2023-08-21 17:34:35.755875,-103.0
2023-08-21 17:34:35.763563,-103.0
2023-08-21 17:34:35.771251,-108.0
2023-08-21 17:34:35.778940,-108.0
2023-08-21 17:34:35.786628,-105.0
2023-08-21 17:34:35.794316,-96.0
2023-08-21 17:34:35.802005,-91.0
2023-08-21 17:34:35.809693,-93.0
2023-08-21 17:34:35.817381,-93.0
2023-08-21 17:34:35.825070,-84.0
2023-08-21 17:34:35.832758,-81.0
2023-08-21 17:34:35.840446,-86.0
2023-08-21 17:34:35.848134,-79.0
2023-08-21 17:34:35.855823,-57.0
2023-08-21 17:34:35.863511,-40.0
2023-08-21 17:34:35.871199,-31.0
2023-08-21 17:34:35.878888,-33.0
2023-08-21 17:34:35.886576,-45.0
2023-08-21 17:34:35.894264,-64.0
2023-08-21 17:34:35.901953,-86.0
2023-08-21 17:34:35.909641,-105.0
2023-08-21 17:34:35.917329,-103.0
2023-08-21 17:34:35.925018,-88.0
2023-08-21 17:34:35.932706,-81.0
2023-08-21 17:34:35.940394,-84.0
2023-08-21 17:34:35.948083,-79.0
2023-08-21 17:34:35.955771,-72.0
2023-08-21 17:34:35.963459,-50.0
2023-08-21 17:34:35.971148,120.0
2023-08-21 17:34:35.978836,523.0
2023-08-21 17:34:35.986524,823.0
2023-08-21 17:34:35.994213,564.0
2023-08-21 17:34:36.001901,-48.0
2023-08-21 17:34:36.009589,-326.0
2023-08-21 17:34:36.017278,-187.0
2023-08-21 17:34:36.024966,-98.0
2023-08-21 17:34:36.032654,-153.0
2023-08-21 17:34:36.040343,-156.0
2023-08-21 17:34:36.048031,-129.0
2023-08-21 17:34:36.055719,-134.0
2023-08-21 17:34:36.063408,-132.0
2023-08-21 17:34:36.071096,-112.0
2023-08-21 17:34:36.078784,-110.0
2023-08-21 17:34:36.086473,-108.0
2023-08-21 17:34:36.094161,-100.0
2023-08-21 17:34:36.101849,-91.0
2023-08-21 17:34:36.109537,-84.0
2023-08-21 17:34:36.117226,-74.0
2023-08-21 17:34:36.124914,-74.0
2023-08-21 17:34:36.132602,-74.0
2023-08-21 17:34:36.140291,-69.0
2023-08-21 17:34:36.147979,-62.0
2023-08-21 17:34:36.155667,-60.0
2023-08-21 17:34:36.163356,-64.0
2023-08-21 17:34:36.171044,-69.0
2023-08-21 17:34:36.178732,-64.0
2023-08-21 17:34:36.186421,-52.0
2023-08-21 17:34:36.194109,-45.0
2023-08-21 17:34:36.201797,-40.0
2023-08-21 17:34:36.209486,-33.0
2023-08-21 17:34:36.217174,-19.0
2023-08-21 17:34:36.224862,-7.0
2023-08-21 17:34:36.232551,2.0
2023-08-21 17:34:36.240239,9.0
2023-08-21 17:34:36.247927,16.0
2023-08-21 17:34:36.255616,28.0
2023-08-21 17:34:36.263304,45.0
2023-08-21 17:34:36.270992,60.0
2023-08-21 17:34:36.278681,64.0
2023-08-21 17:34:36.286369,79.0
2023-08-21 17:34:36.294057,96.0
2023-08-21 17:34:36.301746,93.0
2023-08-21 17:34:36.309434,88.0
2023-08-21 17:34:36.317122,74.0
2023-08-21 17:34:36.324811,45.0
2023-08-21 17:34:36.332499,7.0
2023-08-21 17:34:36.340187,-31.0
2023-08-21 17:34:36.347876,-62.0
2023-08-21 17:34:36.355564,-91.0
2023-08-21 17:34:36.363252,-108.0
2023-08-21 17:34:36.370940,-115.0
2023-08-21 17:34:36.378629,-124.0
2023-08-21 17:34:36.386317,-132.0
2023-08-21 17:34:36.394005,-129.0
2023-08-21 17:34:36.401694,-127.0
2023-08-21 17:34:36.409382,-124.0
2023-08-21 17:34:36.417070,-117.0
2023-08-21 17:34:36.424759,-112.0
2023-08-21 17:34:36.432447,-108.0
2023-08-21 17:34:36.440135,-105.0
2023-08-21 17:34:36.447824,-103.0
2023-08-21 17:34:36.455512,-98.0
2023-08-21 17:34:36.463200,-88.0
2023-08-21 17:34:36.470889,-84.0
2023-08-21 17:34:36.478577,-86.0
2023-08-21 17:34:36.486265,-81.0
2023-08-21 17:34:36.493954,-81.0
2023-08-21 17:34:36.501642,-86.0
2023-08-21 17:34:36.509330,-84.0
2023-08-21 17:34:36.517019,-81.0
2023-08-21 17:34:36.524707,-88.0
2023-08-21 17:34:36.532395,-91.0
2023-08-21 17:34:36.540084,-88.0
2023-08-21 17:34:36.547772,-91.0
2023-08-21 17:34:36.555460,-88.0
2023-08-21 17:34:36.563149,-81.0
2023-08-21 17:34:36.570837,-86.0
2023-08-21 17:34:36.578525,-91.0
2023-08-21 17:34:36.586214,-88.0
2023-08-21 17:34:36.593902,-84.0
2023-08-21 17:34:36.601590,-84.0
2023-08-21 17:34:36.609279,-81.0
2023-08-21 17:34:36.616967,-84.0
2023-08-21 17:34:36.624655,-84.0
2023-08-21 17:34:36.632343,-86.0
2023-08-21 17:34:36.640032,-84.0
2023-08-21 17:34:36.647720,-79.0
2023-08-21 17:34:36.655408,-84.0
2023-08-21 17:34:36.663097,-91.0
2023-08-21 17:34:36.670785,-86.0
2023-08-21 17:34:36.678473,-81.0
2023-08-21 17:34:36.686162,-86.0
2023-08-21 17:34:36.693850,-88.0
2023-08-21 17:34:36.701538,-86.0
2023-08-21 17:34:36.709227,-96.0
2023-08-21 17:34:36.716915,-98.0
2023-08-21 17:34:36.724603,-93.0
2023-08-21 17:34:36.732292,-93.0
2023-08-21 17:34:36.739980,-86.0
2023-08-21 17:34:36.747668,-88.0
2023-08-21 17:34:36.755357,-96.0
2023-08-21 17:34:36.763045,-91.0
2023-08-21 17:34:36.770733,-88.0
2023-08-21 17:34:36.778422,-98.0
2023-08-21 17:34:36.786110,-100.0
2023-08-21 17:34:36.793798,-96.0
2023-08-21 17:34:36.801487,-93.0
2023-08-21 17:34:36.809175,-91.0
2023-08-21 17:34:36.816863,-84.0
2023-08-21 17:34:36.824552,-84.0
2023-08-21 17:34:36.832240,-86.0
2023-08-21 17:34:36.839928,-88.0
2023-08-21 17:34:36.847617,-88.0
2023-08-21 17:34:36.855305,-86.0
2023-08-21 17:34:36.862993,-79.0
2023-08-21 17:34:36.870682,-79.0
2023-08-21 17:34:36.878370,-81.0
