time,ECG
2023-08-11 18:29:24.692959,-59.0
2023-08-11 18:29:24.700649,-50.0
2023-08-11 18:29:24.708338,-38.0
2023-08-11 18:29:24.716028,-26.0
2023-08-11 18:29:24.723718,-14.0
2023-08-11 18:29:24.731408,-2.0
2023-08-11 18:29:24.739097,9.0
2023-08-11 18:29:24.746787,23.0
2023-08-11 18:29:24.754477,38.0
2023-08-11 18:29:24.762167,55.0
2023-08-11 18:29:24.769856,74.0
2023-08-11 18:29:24.777546,91.0
2023-08-11 18:29:24.785236,105.0
2023-08-11 18:29:24.792925,124.0
2023-08-11 18:29:24.800615,150.0
2023-08-11 18:29:24.808305,174.0
2023-08-11 18:29:24.815995,194.0
2023-08-11 18:29:24.823684,210.0
2023-08-11 18:29:24.831374,215.0
2023-08-11 18:29:24.839064,215.0
2023-08-11 18:29:24.846754,208.0
2023-08-11 18:29:24.854443,184.0
2023-08-11 18:29:24.862133,141.0
2023-08-11 18:29:24.869823,79.0
2023-08-11 18:29:24.877513,4.0
2023-08-11 18:29:24.885202,-64.0
2023-08-11 18:29:24.892892,-122.0
2023-08-11 18:29:24.900582,-162.0
2023-08-11 18:29:24.908272,-191.0
2023-08-11 18:29:24.915961,-208.0
2023-08-11 18:29:24.923651,-215.0
2023-08-11 18:29:24.931341,-218.0
2023-08-11 18:29:24.939031,-213.0
2023-08-11 18:29:24.946720,-206.0
2023-08-11 18:29:24.954410,-198.0
2023-08-11 18:29:24.962100,-191.0
2023-08-11 18:29:24.969790,-182.0
2023-08-11 18:29:24.977479,-174.0
2023-08-11 18:29:24.985169,-172.0
2023-08-11 18:29:24.992859,-167.0
2023-08-11 18:29:25.000548,-158.0
2023-08-11 18:29:25.008238,-148.0
2023-08-11 18:29:25.015928,-146.0
2023-08-11 18:29:25.023618,-141.0
2023-08-11 18:29:25.031307,-139.0
2023-08-11 18:29:25.038997,-139.0
2023-08-11 18:29:25.046687,-136.0
2023-08-11 18:29:25.054377,-136.0
2023-08-11 18:29:25.062066,-134.0
2023-08-11 18:29:25.069756,-134.0
2023-08-11 18:29:25.077446,-134.0
2023-08-11 18:29:25.085136,-134.0
2023-08-11 18:29:25.092825,-131.0
2023-08-11 18:29:25.100515,-127.0
2023-08-11 18:29:25.108205,-124.0
2023-08-11 18:29:25.115895,-127.0
2023-08-11 18:29:25.123584,-124.0
2023-08-11 18:29:25.131274,-122.0
2023-08-11 18:29:25.138964,-119.0
2023-08-11 18:29:25.146654,-127.0
2023-08-11 18:29:25.154343,-136.0
2023-08-11 18:29:25.162033,-129.0
2023-08-11 18:29:25.169723,-119.0
2023-08-11 18:29:25.177412,-122.0
2023-08-11 18:29:25.185102,-124.0
2023-08-11 18:29:25.192792,-119.0
2023-08-11 18:29:25.200482,-119.0
2023-08-11 18:29:25.208171,-119.0
2023-08-11 18:29:25.215861,-117.0
2023-08-11 18:29:25.223551,-122.0
2023-08-11 18:29:25.231241,-129.0
2023-08-11 18:29:25.238930,-122.0
2023-08-11 18:29:25.246620,-115.0
2023-08-11 18:29:25.254310,-112.0
2023-08-11 18:29:25.262000,-115.0
2023-08-11 18:29:25.269689,-115.0
2023-08-11 18:29:25.277379,-119.0
2023-08-11 18:29:25.285069,-124.0
2023-08-11 18:29:25.292759,-115.0
2023-08-11 18:29:25.300448,-107.0
2023-08-11 18:29:25.308138,-110.0
2023-08-11 18:29:25.315828,-110.0
2023-08-11 18:29:25.323518,-107.0
2023-08-11 18:29:25.331207,-105.0
2023-08-11 18:29:25.338897,-103.0
2023-08-11 18:29:25.346587,-98.0
2023-08-11 18:29:25.354276,-100.0
2023-08-11 18:29:25.361966,-98.0
2023-08-11 18:29:25.369656,-98.0
2023-08-11 18:29:25.377346,-98.0
2023-08-11 18:29:25.385035,-95.0
2023-08-11 18:29:25.392725,-95.0
2023-08-11 18:29:25.400415,-91.0
2023-08-11 18:29:25.408105,-86.0
2023-08-11 18:29:25.415794,-91.0
2023-08-11 18:29:25.423484,-91.0
2023-08-11 18:29:25.431174,-86.0
2023-08-11 18:29:25.438864,-81.0
2023-08-11 18:29:25.446553,-79.0
2023-08-11 18:29:25.454243,-83.0
2023-08-11 18:29:25.461933,-88.0
2023-08-11 18:29:25.469623,-93.0
2023-08-11 18:29:25.477312,-91.0
2023-08-11 18:29:25.485002,-64.0
2023-08-11 18:29:25.492692,-21.0
2023-08-11 18:29:25.500382,-11.0
2023-08-11 18:29:25.508071,-23.0
2023-08-11 18:29:25.515761,-21.0
2023-08-11 18:29:25.523451,-31.0
2023-08-11 18:29:25.531140,-67.0
2023-08-11 18:29:25.538830,-88.0
2023-08-11 18:29:25.546520,-88.0
2023-08-11 18:29:25.554210,-88.0
2023-08-11 18:29:25.561899,-83.0
2023-08-11 18:29:25.569589,-79.0
2023-08-11 18:29:25.577279,-81.0
2023-08-11 18:29:25.584969,-81.0
2023-08-11 18:29:25.592658,-83.0
2023-08-11 18:29:25.600348,-110.0
2023-08-11 18:29:25.608038,-93.0
2023-08-11 18:29:25.615728,222.0
2023-08-11 18:29:25.623417,932.0
2023-08-11 18:29:25.631107,1488.0
2023-08-11 18:29:25.638797,1155.0
2023-08-11 18:29:25.646487,14.0
2023-08-11 18:29:25.654176,-800.0
2023-08-11 18:29:25.661866,-601.0
2023-08-11 18:29:25.669556,-174.0
2023-08-11 18:29:25.677246,-158.0
2023-08-11 18:29:25.684935,-225.0
2023-08-11 18:29:25.692625,-165.0
2023-08-11 18:29:25.700315,-134.0
2023-08-11 18:29:25.708004,-148.0
2023-08-11 18:29:25.715694,-129.0
2023-08-11 18:29:25.723384,-107.0
2023-08-11 18:29:25.731074,-105.0
2023-08-11 18:29:25.738763,-93.0
2023-08-11 18:29:25.746453,-79.0
2023-08-11 18:29:25.754143,-67.0
2023-08-11 18:29:25.761833,-55.0
2023-08-11 18:29:25.769522,-45.0
2023-08-11 18:29:25.777212,-33.0
2023-08-11 18:29:25.784902,-21.0
2023-08-11 18:29:25.792592,-11.0
2023-08-11 18:29:25.800281,0.0
2023-08-11 18:29:25.807971,11.0
2023-08-11 18:29:25.815661,26.0
2023-08-11 18:29:25.823351,40.0
2023-08-11 18:29:25.831040,52.0
2023-08-11 18:29:25.838730,71.0
2023-08-11 18:29:25.846420,91.0
2023-08-11 18:29:25.854110,112.0
2023-08-11 18:29:25.861799,129.0
2023-08-11 18:29:25.869489,150.0
2023-08-11 18:29:25.877179,172.0
2023-08-11 18:29:25.884868,196.0
2023-08-11 18:29:25.892558,213.0
2023-08-11 18:29:25.900248,225.0
2023-08-11 18:29:25.907938,225.0
2023-08-11 18:29:25.915627,215.0
2023-08-11 18:29:25.923317,203.0
2023-08-11 18:29:25.931007,174.0
2023-08-11 18:29:25.938697,124.0
2023-08-11 18:29:25.946386,57.0
2023-08-11 18:29:25.954076,-21.0
2023-08-11 18:29:25.961766,-91.0
2023-08-11 18:29:25.969456,-141.0
2023-08-11 18:29:25.977145,-177.0
2023-08-11 18:29:25.984835,-201.0
2023-08-11 18:29:25.992525,-218.0
2023-08-11 18:29:26.000215,-232.0
2023-08-11 18:29:26.007904,-232.0
2023-08-11 18:29:26.015594,-218.0
2023-08-11 18:29:26.023284,-208.0
2023-08-11 18:29:26.030974,-203.0
2023-08-11 18:29:26.038663,-196.0
2023-08-11 18:29:26.046353,-191.0
2023-08-11 18:29:26.054043,-184.0
2023-08-11 18:29:26.061732,-170.0
2023-08-11 18:29:26.069422,-162.0
2023-08-11 18:29:26.077112,-158.0
2023-08-11 18:29:26.084802,-155.0
2023-08-11 18:29:26.092491,-155.0
2023-08-11 18:29:26.100181,-150.0
2023-08-11 18:29:26.107871,-148.0
2023-08-11 18:29:26.115561,-148.0
2023-08-11 18:29:26.123250,-146.0
2023-08-11 18:29:26.130940,-146.0
2023-08-11 18:29:26.138630,-146.0
2023-08-11 18:29:26.146320,-143.0
2023-08-11 18:29:26.154009,-141.0
2023-08-11 18:29:26.161699,-141.0
2023-08-11 18:29:26.169389,-143.0
2023-08-11 18:29:26.177079,-148.0
2023-08-11 18:29:26.184768,-143.0
2023-08-11 18:29:26.192458,-139.0
2023-08-11 18:29:26.200148,-136.0
2023-08-11 18:29:26.207838,-134.0
2023-08-11 18:29:26.215527,-134.0
2023-08-11 18:29:26.223217,-139.0
2023-08-11 18:29:26.230907,-139.0
2023-08-11 18:29:26.238596,-131.0
2023-08-11 18:29:26.246286,-127.0
2023-08-11 18:29:26.253976,-124.0
2023-08-11 18:29:26.261666,-119.0
2023-08-11 18:29:26.269355,-124.0
2023-08-11 18:29:26.277045,-129.0
2023-08-11 18:29:26.284735,-127.0
2023-08-11 18:29:26.292425,-124.0
2023-08-11 18:29:26.300114,-124.0
2023-08-11 18:29:26.307804,-124.0
2023-08-11 18:29:26.315494,-122.0
2023-08-11 18:29:26.323184,-119.0
2023-08-11 18:29:26.330873,-119.0
2023-08-11 18:29:26.338563,-117.0
2023-08-11 18:29:26.346253,-112.0
2023-08-11 18:29:26.353943,-110.0
2023-08-11 18:29:26.361632,-112.0
2023-08-11 18:29:26.369322,-110.0
2023-08-11 18:29:26.377012,-107.0
2023-08-11 18:29:26.384702,-105.0
2023-08-11 18:29:26.392391,-105.0
2023-08-11 18:29:26.400081,-105.0
2023-08-11 18:29:26.407771,-105.0
2023-08-11 18:29:26.415460,-103.0
2023-08-11 18:29:26.423150,-100.0
2023-08-11 18:29:26.430840,-100.0
2023-08-11 18:29:26.438530,-100.0
2023-08-11 18:29:26.446219,-105.0
2023-08-11 18:29:26.453909,-115.0
2023-08-11 18:29:26.461599,-112.0
2023-08-11 18:29:26.469289,-107.0
2023-08-11 18:29:26.476978,-105.0
2023-08-11 18:29:26.484668,-110.0
2023-08-11 18:29:26.492358,-122.0
2023-08-11 18:29:26.500048,-127.0
2023-08-11 18:29:26.507737,-95.0
2023-08-11 18:29:26.515427,-47.0
2023-08-11 18:29:26.523117,-35.0
2023-08-11 18:29:26.530807,-45.0
2023-08-11 18:29:26.538496,-40.0
2023-08-11 18:29:26.546186,-52.0
2023-08-11 18:29:26.553876,-93.0
2023-08-11 18:29:26.561566,-112.0
2023-08-11 18:29:26.569255,-105.0
2023-08-11 18:29:26.576945,-105.0
2023-08-11 18:29:26.584635,-110.0
2023-08-11 18:29:26.592324,-107.0
2023-08-11 18:29:26.600014,-105.0
2023-08-11 18:29:26.607704,-105.0
2023-08-11 18:29:26.615394,-107.0
2023-08-11 18:29:26.623083,-122.0
2023-08-11 18:29:26.630773,-124.0
2023-08-11 18:29:26.638463,103.0
2023-08-11 18:29:26.646153,730.0
2023-08-11 18:29:26.653842,1363.0
2023-08-11 18:29:26.661532,1265.0
2023-08-11 18:29:26.669222,256.0
2023-08-11 18:29:26.676912,-728.0
2023-08-11 18:29:26.684601,-711.0
2023-08-11 18:29:26.692291,-230.0
2023-08-11 18:29:26.699981,-150.0
2023-08-11 18:29:26.707671,-246.0
2023-08-11 18:29:26.715360,-194.0
2023-08-11 18:29:26.723050,-150.0
2023-08-11 18:29:26.730740,-170.0
2023-08-11 18:29:26.738430,-150.0
2023-08-11 18:29:26.746119,-119.0
2023-08-11 18:29:26.753809,-117.0
2023-08-11 18:29:26.761499,-110.0
2023-08-11 18:29:26.769189,-93.0
2023-08-11 18:29:26.776878,-81.0
2023-08-11 18:29:26.784568,-69.0
2023-08-11 18:29:26.792258,-59.0
2023-08-11 18:29:26.799947,-50.0
2023-08-11 18:29:26.807637,-38.0
2023-08-11 18:29:26.815327,-26.0
2023-08-11 18:29:26.823017,-11.0
2023-08-11 18:29:26.830706,2.0
2023-08-11 18:29:26.838396,16.0
2023-08-11 18:29:26.846086,28.0
2023-08-11 18:29:26.853776,43.0
2023-08-11 18:29:26.861465,59.0
2023-08-11 18:29:26.869155,76.0
2023-08-11 18:29:26.876845,98.0
2023-08-11 18:29:26.884535,119.0
2023-08-11 18:29:26.892224,141.0
2023-08-11 18:29:26.899914,165.0
2023-08-11 18:29:26.907604,186.0
2023-08-11 18:29:26.915294,206.0
2023-08-11 18:29:26.922983,220.0
2023-08-11 18:29:26.930673,225.0
2023-08-11 18:29:26.938363,220.0
2023-08-11 18:29:26.946053,208.0
2023-08-11 18:29:26.953742,174.0
2023-08-11 18:29:26.961432,122.0
2023-08-11 18:29:26.969122,57.0
2023-08-11 18:29:26.976811,-14.0
2023-08-11 18:29:26.984501,-88.0
2023-08-11 18:29:26.992191,-150.0
2023-08-11 18:29:26.999881,-186.0
2023-08-11 18:29:27.007570,-206.0
2023-08-11 18:29:27.015260,-222.0
2023-08-11 18:29:27.022950,-227.0
2023-08-11 18:29:27.030640,-225.0
2023-08-11 18:29:27.038329,-220.0
2023-08-11 18:29:27.046019,-210.0
2023-08-11 18:29:27.053709,-201.0
2023-08-11 18:29:27.061399,-189.0
2023-08-11 18:29:27.069088,-182.0
2023-08-11 18:29:27.076778,-174.0
2023-08-11 18:29:27.084468,-165.0
2023-08-11 18:29:27.092158,-153.0
2023-08-11 18:29:27.099847,-143.0
2023-08-11 18:29:27.107537,-139.0
2023-08-11 18:29:27.115227,-136.0
2023-08-11 18:29:27.122917,-136.0
2023-08-11 18:29:27.130606,-134.0
2023-08-11 18:29:27.138296,-129.0
2023-08-11 18:29:27.145986,-129.0
2023-08-11 18:29:27.153675,-129.0
2023-08-11 18:29:27.161365,-129.0
2023-08-11 18:29:27.169055,-131.0
2023-08-11 18:29:27.176745,-136.0
2023-08-11 18:29:27.184434,-139.0
2023-08-11 18:29:27.192124,-136.0
2023-08-11 18:29:27.199814,-134.0
2023-08-11 18:29:27.207504,-136.0
2023-08-11 18:29:27.215193,-136.0
2023-08-11 18:29:27.222883,-134.0
2023-08-11 18:29:27.230573,-131.0
2023-08-11 18:29:27.238263,-131.0
2023-08-11 18:29:27.245952,-129.0
2023-08-11 18:29:27.253642,-127.0
2023-08-11 18:29:27.261332,-124.0
2023-08-11 18:29:27.269022,-119.0
2023-08-11 18:29:27.276711,-115.0
2023-08-11 18:29:27.284401,-115.0
2023-08-11 18:29:27.292091,-119.0
2023-08-11 18:29:27.299781,-119.0
2023-08-11 18:29:27.307470,-122.0
2023-08-11 18:29:27.315160,-122.0
2023-08-11 18:29:27.322850,-115.0
2023-08-11 18:29:27.330539,-112.0
2023-08-11 18:29:27.338229,-112.0
2023-08-11 18:29:27.345919,-112.0
2023-08-11 18:29:27.353609,-115.0
2023-08-11 18:29:27.361298,-112.0
2023-08-11 18:29:27.368988,-107.0
2023-08-11 18:29:27.376678,-107.0
2023-08-11 18:29:27.384368,-105.0
2023-08-11 18:29:27.392057,-105.0
2023-08-11 18:29:27.399747,-105.0
2023-08-11 18:29:27.407437,-100.0
2023-08-11 18:29:27.415127,-98.0
2023-08-11 18:29:27.422816,-98.0
2023-08-11 18:29:27.430506,-95.0
2023-08-11 18:29:27.438196,-95.0
2023-08-11 18:29:27.445886,-98.0
2023-08-11 18:29:27.453575,-95.0
2023-08-11 18:29:27.461265,-91.0
2023-08-11 18:29:27.468955,-91.0
2023-08-11 18:29:27.476645,-91.0
2023-08-11 18:29:27.484334,-91.0
2023-08-11 18:29:27.492024,-88.0
2023-08-11 18:29:27.499714,-86.0
2023-08-11 18:29:27.507403,-81.0
2023-08-11 18:29:27.515093,-79.0
2023-08-11 18:29:27.522783,-79.0
2023-08-11 18:29:27.530473,-81.0
2023-08-11 18:29:27.538162,-83.0
2023-08-11 18:29:27.545852,-79.0
2023-08-11 18:29:27.553542,-76.0
2023-08-11 18:29:27.561232,-79.0
2023-08-11 18:29:27.568921,-86.0
2023-08-11 18:29:27.576611,-95.0
2023-08-11 18:29:27.584301,-76.0
2023-08-11 18:29:27.591991,-31.0
2023-08-11 18:29:27.599680,-9.0
2023-08-11 18:29:27.607370,-19.0
2023-08-11 18:29:27.615060,-19.0
2023-08-11 18:29:27.622750,-28.0
2023-08-11 18:29:27.630439,-67.0
2023-08-11 18:29:27.638129,-93.0
2023-08-11 18:29:27.645819,-88.0
2023-08-11 18:29:27.653509,-86.0
2023-08-11 18:29:27.661198,-93.0
2023-08-11 18:29:27.668888,-93.0
2023-08-11 18:29:27.676578,-93.0
2023-08-11 18:29:27.684267,-95.0
2023-08-11 18:29:27.691957,-100.0
2023-08-11 18:29:27.699647,-110.0
2023-08-11 18:29:27.707337,-127.0
2023-08-11 18:29:27.715026,31.0
2023-08-11 18:29:27.722716,601.0
2023-08-11 18:29:27.730406,1308.0
2023-08-11 18:29:27.738096,1418.0
2023-08-11 18:29:27.745785,546.0
2023-08-11 18:29:27.753475,-582.0
2023-08-11 18:29:27.761165,-800.0
2023-08-11 18:29:27.768855,-318.0
2023-08-11 18:29:27.776544,-124.0
2023-08-11 18:29:27.784234,-220.0
2023-08-11 18:29:27.791924,-198.0
2023-08-11 18:29:27.799614,-141.0
2023-08-11 18:29:27.807303,-153.0
2023-08-11 18:29:27.814993,-148.0
2023-08-11 18:29:27.822683,-112.0
2023-08-11 18:29:27.830373,-105.0
2023-08-11 18:29:27.838062,-100.0
2023-08-11 18:29:27.845752,-83.0
2023-08-11 18:29:27.853442,-74.0
2023-08-11 18:29:27.861131,-67.0
2023-08-11 18:29:27.868821,-52.0
2023-08-11 18:29:27.876511,-35.0
2023-08-11 18:29:27.884201,-28.0
2023-08-11 18:29:27.891890,-19.0
2023-08-11 18:29:27.899580,-2.0
2023-08-11 18:29:27.907270,9.0
2023-08-11 18:29:27.914960,21.0
2023-08-11 18:29:27.922649,33.0
2023-08-11 18:29:27.930339,50.0
2023-08-11 18:29:27.938029,64.0
2023-08-11 18:29:27.945719,79.0
2023-08-11 18:29:27.953408,98.0
2023-08-11 18:29:27.961098,119.0
2023-08-11 18:29:27.968788,141.0
2023-08-11 18:29:27.976478,165.0
2023-08-11 18:29:27.984167,189.0
2023-08-11 18:29:27.991857,208.0
2023-08-11 18:29:27.999547,220.0
2023-08-11 18:29:28.007237,232.0
2023-08-11 18:29:28.014926,234.0
2023-08-11 18:29:28.022616,222.0
2023-08-11 18:29:28.030306,198.0
2023-08-11 18:29:28.037995,162.0
2023-08-11 18:29:28.045685,103.0
2023-08-11 18:29:28.053375,26.0
2023-08-11 18:29:28.061065,-43.0
2023-08-11 18:29:28.068754,-105.0
2023-08-11 18:29:28.076444,-153.0
2023-08-11 18:29:28.084134,-184.0
2023-08-11 18:29:28.091824,-203.0
2023-08-11 18:29:28.099513,-208.0
2023-08-11 18:29:28.107203,-213.0
2023-08-11 18:29:28.114893,-220.0
2023-08-11 18:29:28.122583,-213.0
2023-08-11 18:29:28.130272,-201.0
2023-08-11 18:29:28.137962,-194.0
2023-08-11 18:29:28.145652,-186.0
2023-08-11 18:29:28.153342,-174.0
2023-08-11 18:29:28.161031,-172.0
2023-08-11 18:29:28.168721,-167.0
2023-08-11 18:29:28.176411,-158.0
2023-08-11 18:29:28.184101,-158.0
2023-08-11 18:29:28.191790,-160.0
2023-08-11 18:29:28.199480,-150.0
2023-08-11 18:29:28.207170,-141.0
2023-08-11 18:29:28.214859,-141.0
2023-08-11 18:29:28.222549,-139.0
2023-08-11 18:29:28.230239,-139.0
2023-08-11 18:29:28.237929,-136.0
2023-08-11 18:29:28.245618,-134.0
2023-08-11 18:29:28.253308,-136.0
2023-08-11 18:29:28.260998,-134.0
2023-08-11 18:29:28.268688,-131.0
2023-08-11 18:29:28.276377,-131.0
2023-08-11 18:29:28.284067,-124.0
2023-08-11 18:29:28.291757,-119.0
2023-08-11 18:29:28.299447,-122.0
2023-08-11 18:29:28.307136,-127.0
2023-08-11 18:29:28.314826,-129.0
2023-08-11 18:29:28.322516,-122.0
2023-08-11 18:29:28.330206,-112.0
2023-08-11 18:29:28.337895,-115.0
2023-08-11 18:29:28.345585,-115.0
2023-08-11 18:29:28.353275,-110.0
2023-08-11 18:29:28.360965,-112.0
2023-08-11 18:29:28.368654,-117.0
2023-08-11 18:29:28.376344,-117.0
2023-08-11 18:29:28.384034,-115.0
2023-08-11 18:29:28.391724,-110.0
2023-08-11 18:29:28.399413,-107.0
2023-08-11 18:29:28.407103,-107.0
2023-08-11 18:29:28.414793,-107.0
2023-08-11 18:29:28.422482,-105.0
2023-08-11 18:29:28.430172,-105.0
2023-08-11 18:29:28.437862,-107.0
2023-08-11 18:29:28.445552,-103.0
2023-08-11 18:29:28.453241,-98.0
2023-08-11 18:29:28.460931,-98.0
2023-08-11 18:29:28.468621,-98.0
2023-08-11 18:29:28.476311,-98.0
2023-08-11 18:29:28.484000,-95.0
2023-08-11 18:29:28.491690,-93.0
2023-08-11 18:29:28.499380,-93.0
2023-08-11 18:29:28.507070,-88.0
2023-08-11 18:29:28.514759,-86.0
2023-08-11 18:29:28.522449,-86.0
2023-08-11 18:29:28.530139,-83.0
2023-08-11 18:29:28.537829,-81.0
2023-08-11 18:29:28.545518,-81.0
2023-08-11 18:29:28.553208,-79.0
2023-08-11 18:29:28.560898,-79.0
2023-08-11 18:29:28.568588,-76.0
2023-08-11 18:29:28.576277,-76.0
2023-08-11 18:29:28.583967,-76.0
2023-08-11 18:29:28.591657,-76.0
2023-08-11 18:29:28.599346,-74.0
2023-08-11 18:29:28.607036,-71.0
2023-08-11 18:29:28.614726,-74.0
2023-08-11 18:29:28.622416,-74.0
2023-08-11 18:29:28.630105,-74.0
2023-08-11 18:29:28.637795,-79.0
2023-08-11 18:29:28.645485,-69.0
2023-08-11 18:29:28.653175,-28.0
2023-08-11 18:29:28.660864,0.0
2023-08-11 18:29:28.668554,-4.0
2023-08-11 18:29:28.676244,-11.0
2023-08-11 18:29:28.683934,-21.0
2023-08-11 18:29:28.691623,-62.0
2023-08-11 18:29:28.699313,-98.0
2023-08-11 18:29:28.707003,-100.0
2023-08-11 18:29:28.714693,-91.0
2023-08-11 18:29:28.722382,-88.0
2023-08-11 18:29:28.730072,-88.0
2023-08-11 18:29:28.737762,-86.0
2023-08-11 18:29:28.745452,-83.0
2023-08-11 18:29:28.753141,-83.0
2023-08-11 18:29:28.760831,-95.0
2023-08-11 18:29:28.768521,-110.0
2023-08-11 18:29:28.776210,45.0
2023-08-11 18:29:28.783900,608.0
2023-08-11 18:29:28.791590,1294.0
2023-08-11 18:29:28.799280,1351.0
2023-08-11 18:29:28.806969,464.0
2023-08-11 18:29:28.814659,-587.0
2023-08-11 18:29:28.822349,-754.0
2023-08-11 18:29:28.830039,-311.0
2023-08-11 18:29:28.837728,-131.0
2023-08-11 18:29:28.845418,-198.0
2023-08-11 18:29:28.853108,-179.0
2023-08-11 18:29:28.860798,-131.0
2023-08-11 18:29:28.868487,-134.0
2023-08-11 18:29:28.876177,-129.0
2023-08-11 18:29:28.883867,-103.0
2023-08-11 18:29:28.891557,-91.0
2023-08-11 18:29:28.899246,-83.0
2023-08-11 18:29:28.906936,-71.0
2023-08-11 18:29:28.914626,-62.0
2023-08-11 18:29:28.922316,-55.0
2023-08-11 18:29:28.930005,-47.0
2023-08-11 18:29:28.937695,-33.0
2023-08-11 18:29:28.945385,-23.0
2023-08-11 18:29:28.953074,-14.0
2023-08-11 18:29:28.960764,0.0
2023-08-11 18:29:28.968454,9.0
2023-08-11 18:29:28.976144,21.0
2023-08-11 18:29:28.983833,35.0
2023-08-11 18:29:28.991523,50.0
2023-08-11 18:29:28.999213,64.0
2023-08-11 18:29:29.006903,81.0
2023-08-11 18:29:29.014592,95.0
2023-08-11 18:29:29.022282,117.0
2023-08-11 18:29:29.029972,143.0
2023-08-11 18:29:29.037662,165.0
2023-08-11 18:29:29.045351,184.0
2023-08-11 18:29:29.053041,198.0
2023-08-11 18:29:29.060731,210.0
2023-08-11 18:29:29.068421,222.0
2023-08-11 18:29:29.076110,227.0
2023-08-11 18:29:29.083800,215.0
2023-08-11 18:29:29.091490,194.0
2023-08-11 18:29:29.099180,150.0
2023-08-11 18:29:29.106869,88.0
2023-08-11 18:29:29.114559,16.0
2023-08-11 18:29:29.122249,-43.0
2023-08-11 18:29:29.129938,-95.0
2023-08-11 18:29:29.137628,-143.0
2023-08-11 18:29:29.145318,-177.0
2023-08-11 18:29:29.153008,-194.0
2023-08-11 18:29:29.160697,-201.0
2023-08-11 18:29:29.168387,-206.0
2023-08-11 18:29:29.176077,-203.0
2023-08-11 18:29:29.183767,-189.0
2023-08-11 18:29:29.191456,-182.0
2023-08-11 18:29:29.199146,-184.0
2023-08-11 18:29:29.206836,-174.0
2023-08-11 18:29:29.214526,-160.0
2023-08-11 18:29:29.222215,-153.0
2023-08-11 18:29:29.229905,-150.0
2023-08-11 18:29:29.237595,-146.0
2023-08-11 18:29:29.245285,-141.0
2023-08-11 18:29:29.252974,-134.0
2023-08-11 18:29:29.260664,-129.0
2023-08-11 18:29:29.268354,-124.0
2023-08-11 18:29:29.276044,-124.0
2023-08-11 18:29:29.283733,-129.0
2023-08-11 18:29:29.291423,-129.0
2023-08-11 18:29:29.299113,-124.0
2023-08-11 18:29:29.306802,-127.0
2023-08-11 18:29:29.314492,-129.0
2023-08-11 18:29:29.322182,-129.0
2023-08-11 18:29:29.329872,-134.0
2023-08-11 18:29:29.337561,-136.0
2023-08-11 18:29:29.345251,-129.0
2023-08-11 18:29:29.352941,-124.0
2023-08-11 18:29:29.360631,-124.0
2023-08-11 18:29:29.368320,-122.0
2023-08-11 18:29:29.376010,-122.0
2023-08-11 18:29:29.383700,-127.0
2023-08-11 18:29:29.391390,-127.0
2023-08-11 18:29:29.399079,-119.0
2023-08-11 18:29:29.406769,-117.0
2023-08-11 18:29:29.414459,-119.0
2023-08-11 18:29:29.422149,-119.0
2023-08-11 18:29:29.429838,-117.0
2023-08-11 18:29:29.437528,-119.0
2023-08-11 18:29:29.445218,-119.0
2023-08-11 18:29:29.452908,-117.0
2023-08-11 18:29:29.460597,-119.0
2023-08-11 18:29:29.468287,-117.0
2023-08-11 18:29:29.475977,-117.0
2023-08-11 18:29:29.483666,-115.0
2023-08-11 18:29:29.491356,-110.0
2023-08-11 18:29:29.499046,-107.0
2023-08-11 18:29:29.506736,-107.0
2023-08-11 18:29:29.514425,-112.0
2023-08-11 18:29:29.522115,-107.0
2023-08-11 18:29:29.529805,-103.0
2023-08-11 18:29:29.537495,-103.0
2023-08-11 18:29:29.545184,-103.0
2023-08-11 18:29:29.552874,-105.0
2023-08-11 18:29:29.560564,-105.0
2023-08-11 18:29:29.568254,-103.0
2023-08-11 18:29:29.575943,-98.0
2023-08-11 18:29:29.583633,-98.0
2023-08-11 18:29:29.591323,-98.0
2023-08-11 18:29:29.599013,-95.0
2023-08-11 18:29:29.606702,-95.0
2023-08-11 18:29:29.614392,-93.0
2023-08-11 18:29:29.622082,-91.0
2023-08-11 18:29:29.629772,-91.0
2023-08-11 18:29:29.637461,-93.0
2023-08-11 18:29:29.645151,-91.0
2023-08-11 18:29:29.652841,-91.0
2023-08-11 18:29:29.660530,-103.0
2023-08-11 18:29:29.668220,-105.0
2023-08-11 18:29:29.675910,-83.0
2023-08-11 18:29:29.683600,-43.0
2023-08-11 18:29:29.691289,-21.0
2023-08-11 18:29:29.698979,-35.0
2023-08-11 18:29:29.706669,-40.0
2023-08-11 18:29:29.714359,-43.0
2023-08-11 18:29:29.722048,-74.0
2023-08-11 18:29:29.729738,-107.0
2023-08-11 18:29:29.737428,-107.0
2023-08-11 18:29:29.745118,-98.0
2023-08-11 18:29:29.752807,-105.0
2023-08-11 18:29:29.760497,-107.0
2023-08-11 18:29:29.768187,-100.0
2023-08-11 18:29:29.775877,-100.0
2023-08-11 18:29:29.783566,-100.0
2023-08-11 18:29:29.791256,-115.0
2023-08-11 18:29:29.798946,-127.0
2023-08-11 18:29:29.806636,47.0
2023-08-11 18:29:29.814325,615.0
2023-08-11 18:29:29.822015,1277.0
2023-08-11 18:29:29.829705,1318.0
2023-08-11 18:29:29.837394,426.0
2023-08-11 18:29:29.845084,-625.0
2023-08-11 18:29:29.852774,-762.0
2023-08-11 18:29:29.860464,-292.0
2023-08-11 18:29:29.868153,-141.0
2023-08-11 18:29:29.875843,-232.0
2023-08-11 18:29:29.883533,-198.0
2023-08-11 18:29:29.891223,-148.0
2023-08-11 18:29:29.898912,-160.0
2023-08-11 18:29:29.906602,-150.0
2023-08-11 18:29:29.914292,-124.0
2023-08-11 18:29:29.921982,-117.0
2023-08-11 18:29:29.929671,-110.0
2023-08-11 18:29:29.937361,-93.0
2023-08-11 18:29:29.945051,-88.0
2023-08-11 18:29:29.952741,-79.0
2023-08-11 18:29:29.960430,-64.0
2023-08-11 18:29:29.968120,-52.0
2023-08-11 18:29:29.975810,-43.0
2023-08-11 18:29:29.983500,-31.0
2023-08-11 18:29:29.991189,-16.0
2023-08-11 18:29:29.998879,-4.0
2023-08-11 18:29:30.006569,4.0
2023-08-11 18:29:30.014259,21.0
2023-08-11 18:29:30.021948,38.0
2023-08-11 18:29:30.029638,50.0
2023-08-11 18:29:30.037328,67.0
2023-08-11 18:29:30.045017,91.0
2023-08-11 18:29:30.052707,110.0
2023-08-11 18:29:30.060397,131.0
2023-08-11 18:29:30.068087,155.0
2023-08-11 18:29:30.075776,177.0
2023-08-11 18:29:30.083466,198.0
2023-08-11 18:29:30.091156,213.0
2023-08-11 18:29:30.098846,218.0
2023-08-11 18:29:30.106535,218.0
2023-08-11 18:29:30.114225,210.0
2023-08-11 18:29:30.121915,186.0
2023-08-11 18:29:30.129605,143.0
2023-08-11 18:29:30.137294,83.0
2023-08-11 18:29:30.144984,11.0
2023-08-11 18:29:30.152674,-59.0
2023-08-11 18:29:30.160364,-117.0
2023-08-11 18:29:30.168053,-158.0
2023-08-11 18:29:30.175743,-186.0
2023-08-11 18:29:30.183433,-203.0
2023-08-11 18:29:30.191123,-213.0
2023-08-11 18:29:30.198812,-215.0
2023-08-11 18:29:30.206502,-215.0
2023-08-11 18:29:30.214192,-210.0
2023-08-11 18:29:30.221881,-194.0
2023-08-11 18:29:30.229571,-182.0
2023-08-11 18:29:30.237261,-174.0
2023-08-11 18:29:30.244951,-160.0
2023-08-11 18:29:30.252640,-150.0
2023-08-11 18:29:30.260330,-146.0
2023-08-11 18:29:30.268020,-136.0
2023-08-11 18:29:30.275710,-134.0
2023-08-11 18:29:30.283399,-134.0
2023-08-11 18:29:30.291089,-127.0
2023-08-11 18:29:30.298779,-122.0
2023-08-11 18:29:30.306469,-124.0
2023-08-11 18:29:30.314158,-127.0
2023-08-11 18:29:30.321848,-119.0
2023-08-11 18:29:30.329538,-122.0
2023-08-11 18:29:30.337228,-122.0
2023-08-11 18:29:30.344917,-117.0
2023-08-11 18:29:30.352607,-117.0
2023-08-11 18:29:30.360297,-122.0
2023-08-11 18:29:30.367987,-131.0
2023-08-11 18:29:30.375676,-124.0
2023-08-11 18:29:30.383366,-112.0
2023-08-11 18:29:30.391056,-112.0
2023-08-11 18:29:30.398745,-117.0
2023-08-11 18:29:30.406435,-117.0
2023-08-11 18:29:30.414125,-115.0
2023-08-11 18:29:30.421815,-110.0
2023-08-11 18:29:30.429504,-107.0
2023-08-11 18:29:30.437194,-100.0
2023-08-11 18:29:30.444884,-98.0
2023-08-11 18:29:30.452574,-100.0
2023-08-11 18:29:30.460263,-100.0
2023-08-11 18:29:30.467953,-98.0
2023-08-11 18:29:30.475643,-100.0
2023-08-11 18:29:30.483333,-103.0
2023-08-11 18:29:30.491022,-100.0
2023-08-11 18:29:30.498712,-98.0
2023-08-11 18:29:30.506402,-93.0
2023-08-11 18:29:30.514092,-91.0
2023-08-11 18:29:30.521781,-88.0
2023-08-11 18:29:30.529471,-86.0
2023-08-11 18:29:30.537161,-88.0
2023-08-11 18:29:30.544851,-86.0
2023-08-11 18:29:30.552540,-83.0
2023-08-11 18:29:30.560230,-83.0
2023-08-11 18:29:30.567920,-81.0
2023-08-11 18:29:30.575609,-76.0
2023-08-11 18:29:30.583299,-81.0
2023-08-11 18:29:30.590989,-81.0
2023-08-11 18:29:30.598679,-76.0
2023-08-11 18:29:30.606368,-71.0
2023-08-11 18:29:30.614058,-74.0
2023-08-11 18:29:30.621748,-69.0
2023-08-11 18:29:30.629438,-69.0
2023-08-11 18:29:30.637127,-71.0
2023-08-11 18:29:30.644817,-74.0
2023-08-11 18:29:30.652507,-71.0
2023-08-11 18:29:30.660197,-69.0
2023-08-11 18:29:30.667886,-67.0
2023-08-11 18:29:30.675576,-67.0
2023-08-11 18:29:30.683266,-62.0
2023-08-11 18:29:30.690956,-59.0
2023-08-11 18:29:30.698645,-57.0
2023-08-11 18:29:30.706335,-59.0
2023-08-11 18:29:30.714025,-67.0
2023-08-11 18:29:30.721715,-67.0
2023-08-11 18:29:30.729404,-62.0
2023-08-11 18:29:30.737094,-64.0
2023-08-11 18:29:30.744784,-62.0
2023-08-11 18:29:30.752473,-38.0
2023-08-11 18:29:30.760163,4.0
2023-08-11 18:29:30.767853,23.0
2023-08-11 18:29:30.775543,9.0
2023-08-11 18:29:30.783232,11.0
2023-08-11 18:29:30.790922,4.0
2023-08-11 18:29:30.798612,-33.0
2023-08-11 18:29:30.806302,-59.0
2023-08-11 18:29:30.813991,-57.0
2023-08-11 18:29:30.821681,-52.0
2023-08-11 18:29:30.829371,-55.0
2023-08-11 18:29:30.837061,-55.0
2023-08-11 18:29:30.844750,-50.0
2023-08-11 18:29:30.852440,-47.0
2023-08-11 18:29:30.860130,-52.0
2023-08-11 18:29:30.867820,-74.0
2023-08-11 18:29:30.875509,-74.0
2023-08-11 18:29:30.883199,158.0
2023-08-11 18:29:30.890889,781.0
2023-08-11 18:29:30.898579,1404.0
2023-08-11 18:29:30.906268,1298.0
2023-08-11 18:29:30.913958,294.0
2023-08-11 18:29:30.921648,-671.0
2023-08-11 18:29:30.929337,-649.0
2023-08-11 18:29:30.937027,-184.0
2023-08-11 18:29:30.944717,-115.0
2023-08-11 18:29:30.952407,-215.0
2023-08-11 18:29:30.960096,-160.0
2023-08-11 18:29:30.967786,-112.0
2023-08-11 18:29:30.975476,-134.0
2023-08-11 18:29:30.983166,-117.0
2023-08-11 18:29:30.990855,-86.0
2023-08-11 18:29:30.998545,-83.0
2023-08-11 18:29:31.006235,-79.0
2023-08-11 18:29:31.013925,-62.0
2023-08-11 18:29:31.021614,-47.0
2023-08-11 18:29:31.029304,-40.0
2023-08-11 18:29:31.036994,-33.0
2023-08-11 18:29:31.044684,-23.0
2023-08-11 18:29:31.052373,-11.0
2023-08-11 18:29:31.060063,2.0
2023-08-11 18:29:31.067753,9.0
2023-08-11 18:29:31.075443,19.0
2023-08-11 18:29:31.083132,35.0
2023-08-11 18:29:31.090822,50.0
2023-08-11 18:29:31.098512,62.0
2023-08-11 18:29:31.106201,79.0
2023-08-11 18:29:31.113891,93.0
2023-08-11 18:29:31.121581,115.0
2023-08-11 18:29:31.129271,131.0
2023-08-11 18:29:31.136960,148.0
2023-08-11 18:29:31.144650,174.0
2023-08-11 18:29:31.152340,196.0
2023-08-11 18:29:31.160030,210.0
2023-08-11 18:29:31.167719,225.0
2023-08-11 18:29:31.175409,234.0
2023-08-11 18:29:31.183099,232.0
2023-08-11 18:29:31.190789,220.0
2023-08-11 18:29:31.198478,198.0
2023-08-11 18:29:31.206168,162.0
2023-08-11 18:29:31.213858,103.0
2023-08-11 18:29:31.221548,28.0
2023-08-11 18:29:31.229237,-40.0
2023-08-11 18:29:31.236927,-95.0
2023-08-11 18:29:31.244617,-139.0
2023-08-11 18:29:31.252307,-167.0
2023-08-11 18:29:31.259996,-179.0
2023-08-11 18:29:31.267686,-189.0
2023-08-11 18:29:31.275376,-194.0
2023-08-11 18:29:31.283065,-189.0
2023-08-11 18:29:31.290755,-184.0
2023-08-11 18:29:31.298445,-174.0
2023-08-11 18:29:31.306135,-162.0
2023-08-11 18:29:31.313824,-160.0
2023-08-11 18:29:31.321514,-153.0
2023-08-11 18:29:31.329204,-143.0
2023-08-11 18:29:31.336894,-134.0
2023-08-11 18:29:31.344583,-124.0
2023-08-11 18:29:31.352273,-127.0
2023-08-11 18:29:31.359963,-127.0
2023-08-11 18:29:31.367653,-122.0
2023-08-11 18:29:31.375342,-115.0
2023-08-11 18:29:31.383032,-115.0
2023-08-11 18:29:31.390722,-117.0
2023-08-11 18:29:31.398412,-119.0
2023-08-11 18:29:31.406101,-117.0
2023-08-11 18:29:31.413791,-115.0
2023-08-11 18:29:31.421481,-115.0
2023-08-11 18:29:31.429171,-122.0
2023-08-11 18:29:31.436860,-119.0
2023-08-11 18:29:31.444550,-110.0
2023-08-11 18:29:31.452240,-112.0
2023-08-11 18:29:31.459929,-115.0
2023-08-11 18:29:31.467619,-110.0
2023-08-11 18:29:31.475309,-105.0
2023-08-11 18:29:31.482999,-105.0
2023-08-11 18:29:31.490688,-112.0
2023-08-11 18:29:31.498378,-110.0
2023-08-11 18:29:31.506068,-103.0
2023-08-11 18:29:31.513758,-100.0
2023-08-11 18:29:31.521447,-98.0
2023-08-11 18:29:31.529137,-98.0
2023-08-11 18:29:31.536827,-103.0
2023-08-11 18:29:31.544517,-107.0
2023-08-11 18:29:31.552206,-110.0
2023-08-11 18:29:31.559896,-107.0
2023-08-11 18:29:31.567586,-105.0
2023-08-11 18:29:31.575276,-107.0
2023-08-11 18:29:31.582965,-112.0
2023-08-11 18:29:31.590655,-112.0
2023-08-11 18:29:31.598345,-107.0
2023-08-11 18:29:31.606035,-107.0
2023-08-11 18:29:31.613724,-105.0
2023-08-11 18:29:31.621414,-98.0
2023-08-11 18:29:31.629104,-100.0
2023-08-11 18:29:31.636794,-103.0
2023-08-11 18:29:31.644483,-100.0
2023-08-11 18:29:31.652173,-98.0
2023-08-11 18:29:31.659863,-98.0
2023-08-11 18:29:31.667552,-95.0
2023-08-11 18:29:31.675242,-95.0
2023-08-11 18:29:31.682932,-98.0
2023-08-11 18:29:31.690622,-98.0
2023-08-11 18:29:31.698311,-91.0
2023-08-11 18:29:31.706001,-86.0
2023-08-11 18:29:31.713691,-93.0
2023-08-11 18:29:31.721381,-98.0
2023-08-11 18:29:31.729070,-95.0
2023-08-11 18:29:31.736760,-88.0
2023-08-11 18:29:31.744450,-88.0
2023-08-11 18:29:31.752140,-91.0
2023-08-11 18:29:31.759829,-91.0
2023-08-11 18:29:31.767519,-91.0
2023-08-11 18:29:31.775209,-93.0
2023-08-11 18:29:31.782899,-95.0
2023-08-11 18:29:31.790588,-81.0
2023-08-11 18:29:31.798278,-43.0
2023-08-11 18:29:31.805968,-19.0
2023-08-11 18:29:31.813658,-23.0
2023-08-11 18:29:31.821347,-21.0
2023-08-11 18:29:31.829037,-28.0
2023-08-11 18:29:31.836727,-59.0
2023-08-11 18:29:31.844416,-91.0
2023-08-11 18:29:31.852106,-95.0
2023-08-11 18:29:31.859796,-86.0
2023-08-11 18:29:31.867486,-88.0
2023-08-11 18:29:31.875175,-93.0
2023-08-11 18:29:31.882865,-91.0
2023-08-11 18:29:31.890555,-93.0
2023-08-11 18:29:31.898245,-95.0
2023-08-11 18:29:31.905934,-103.0
2023-08-11 18:29:31.913624,-119.0
2023-08-11 18:29:31.921314,31.0
2023-08-11 18:29:31.929004,589.0
2023-08-11 18:29:31.936693,1265.0
2023-08-11 18:29:31.944383,1327.0
2023-08-11 18:29:31.952073,460.0
2023-08-11 18:29:31.959763,-579.0
2023-08-11 18:29:31.967452,-735.0
2023-08-11 18:29:31.975142,-287.0
2023-08-11 18:29:31.982832,-129.0
2023-08-11 18:29:31.990522,-215.0
2023-08-11 18:29:31.998211,-184.0
2023-08-11 18:29:32.005901,-134.0
2023-08-11 18:29:32.013591,-148.0
2023-08-11 18:29:32.021280,-141.0
2023-08-11 18:29:32.028970,-117.0
2023-08-11 18:29:32.036660,-115.0
2023-08-11 18:29:32.044350,-107.0
2023-08-11 18:29:32.052039,-88.0
2023-08-11 18:29:32.059729,-79.0
2023-08-11 18:29:32.067419,-71.0
2023-08-11 18:29:32.075109,-59.0
2023-08-11 18:29:32.082798,-47.0
2023-08-11 18:29:32.090488,-38.0
2023-08-11 18:29:32.098178,-23.0
2023-08-11 18:29:32.105868,-11.0
2023-08-11 18:29:32.113557,-4.0
2023-08-11 18:29:32.121247,9.0
2023-08-11 18:29:32.128937,23.0
2023-08-11 18:29:32.136627,35.0
2023-08-11 18:29:32.144316,50.0
2023-08-11 18:29:32.152006,64.0
2023-08-11 18:29:32.159696,83.0
2023-08-11 18:29:32.167386,105.0
2023-08-11 18:29:32.175075,122.0
2023-08-11 18:29:32.182765,143.0
2023-08-11 18:29:32.190455,162.0
2023-08-11 18:29:32.198144,184.0
2023-08-11 18:29:32.205834,196.0
2023-08-11 18:29:32.213524,198.0
2023-08-11 18:29:32.221214,196.0
2023-08-11 18:29:32.228903,186.0
2023-08-11 18:29:32.236593,167.0
2023-08-11 18:29:32.244283,129.0
2023-08-11 18:29:32.251973,74.0
2023-08-11 18:29:32.259662,9.0
2023-08-11 18:29:32.267352,-55.0
2023-08-11 18:29:32.275042,-110.0
2023-08-11 18:29:32.282732,-153.0
2023-08-11 18:29:32.290421,-184.0
2023-08-11 18:29:32.298111,-201.0
2023-08-11 18:29:32.305801,-203.0
2023-08-11 18:29:32.313491,-203.0
2023-08-11 18:29:32.321180,-203.0
2023-08-11 18:29:32.328870,-198.0
2023-08-11 18:29:32.336560,-189.0
2023-08-11 18:29:32.344250,-184.0
2023-08-11 18:29:32.351939,-174.0
2023-08-11 18:29:32.359629,-160.0
2023-08-11 18:29:32.367319,-155.0
2023-08-11 18:29:32.375008,-153.0
2023-08-11 18:29:32.382698,-146.0
2023-08-11 18:29:32.390388,-143.0
2023-08-11 18:29:32.398078,-139.0
2023-08-11 18:29:32.405767,-131.0
2023-08-11 18:29:32.413457,-131.0
2023-08-11 18:29:32.421147,-129.0
2023-08-11 18:29:32.428837,-134.0
2023-08-11 18:29:32.436526,-134.0
2023-08-11 18:29:32.444216,-129.0
2023-08-11 18:29:32.451906,-129.0
2023-08-11 18:29:32.459596,-129.0
2023-08-11 18:29:32.467285,-127.0
2023-08-11 18:29:32.474975,-129.0
2023-08-11 18:29:32.482665,-129.0
2023-08-11 18:29:32.490355,-124.0
2023-08-11 18:29:32.498044,-117.0
2023-08-11 18:29:32.505734,-117.0
2023-08-11 18:29:32.513424,-119.0
2023-08-11 18:29:32.521114,-119.0
2023-08-11 18:29:32.528803,-115.0
2023-08-11 18:29:32.536493,-110.0
2023-08-11 18:29:32.544183,-112.0
2023-08-11 18:29:32.551872,-117.0
2023-08-11 18:29:32.559562,-110.0
2023-08-11 18:29:32.567252,-110.0
2023-08-11 18:29:32.574942,-112.0
2023-08-11 18:29:32.582631,-105.0
2023-08-11 18:29:32.590321,-103.0
2023-08-11 18:29:32.598011,-107.0
2023-08-11 18:29:32.605701,-110.0
2023-08-11 18:29:32.613390,-110.0
2023-08-11 18:29:32.621080,-115.0
2023-08-11 18:29:32.628770,-115.0
2023-08-11 18:29:32.636460,-107.0
2023-08-11 18:29:32.644149,-105.0
2023-08-11 18:29:32.651839,-110.0
2023-08-11 18:29:32.659529,-117.0
2023-08-11 18:29:32.667219,-117.0
2023-08-11 18:29:32.674908,-112.0
2023-08-11 18:29:32.682598,-107.0
2023-08-11 18:29:32.690288,-110.0
2023-08-11 18:29:32.697978,-112.0
2023-08-11 18:29:32.705667,-119.0
2023-08-11 18:29:32.713357,-117.0
2023-08-11 18:29:32.721047,-112.0
2023-08-11 18:29:32.728736,-115.0
2023-08-11 18:29:32.736426,-115.0
2023-08-11 18:29:32.744116,-115.0
2023-08-11 18:29:32.751806,-112.0
2023-08-11 18:29:32.759495,-107.0
2023-08-11 18:29:32.767185,-103.0
2023-08-11 18:29:32.774875,-100.0
2023-08-11 18:29:32.782565,-103.0
2023-08-11 18:29:32.790254,-103.0
2023-08-11 18:29:32.797944,-100.0
2023-08-11 18:29:32.805634,-100.0
2023-08-11 18:29:32.813324,-100.0
2023-08-11 18:29:32.821013,-93.0
2023-08-11 18:29:32.828703,-98.0
2023-08-11 18:29:32.836393,-103.0
2023-08-11 18:29:32.844083,-103.0
2023-08-11 18:29:32.851772,-74.0
2023-08-11 18:29:32.859462,-33.0
2023-08-11 18:29:32.867152,-21.0
2023-08-11 18:29:32.874842,-33.0
2023-08-11 18:29:32.882531,-31.0
2023-08-11 18:29:32.890221,-50.0
2023-08-11 18:29:32.897911,-88.0
2023-08-11 18:29:32.905600,-105.0
2023-08-11 18:29:32.913290,-98.0
2023-08-11 18:29:32.920980,-93.0
2023-08-11 18:29:32.928670,-103.0
2023-08-11 18:29:32.936359,-103.0
2023-08-11 18:29:32.944049,-95.0
2023-08-11 18:29:32.951739,-93.0
2023-08-11 18:29:32.959429,-95.0
2023-08-11 18:29:32.967118,-117.0
2023-08-11 18:29:32.974808,-112.0
2023-08-11 18:29:32.982498,162.0
2023-08-11 18:29:32.990188,824.0
2023-08-11 18:29:32.997877,1392.0
2023-08-11 18:29:33.005567,1164.0
2023-08-11 18:29:33.013257,110.0
2023-08-11 18:29:33.020947,-745.0
2023-08-11 18:29:33.028636,-606.0
2023-08-11 18:29:33.036326,-162.0
2023-08-11 18:29:33.044016,-153.0
2023-08-11 18:29:33.051706,-237.0
2023-08-11 18:29:33.059395,-170.0
2023-08-11 18:29:33.067085,-141.0
2023-08-11 18:29:33.074775,-160.0
2023-08-11 18:29:33.082464,-134.0
2023-08-11 18:29:33.090154,-107.0
2023-08-11 18:29:33.097844,-105.0
2023-08-11 18:29:33.105534,-100.0
2023-08-11 18:29:33.113223,-88.0
2023-08-11 18:29:33.120913,-76.0
2023-08-11 18:29:33.128603,-64.0
2023-08-11 18:29:33.136293,-52.0
2023-08-11 18:29:33.143982,-43.0
2023-08-11 18:29:33.151672,-31.0
2023-08-11 18:29:33.159362,-23.0
2023-08-11 18:29:33.167052,-14.0
2023-08-11 18:29:33.174741,2.0
2023-08-11 18:29:33.182431,19.0
2023-08-11 18:29:33.190121,28.0
2023-08-11 18:29:33.197811,33.0
2023-08-11 18:29:33.205500,43.0
2023-08-11 18:29:33.213190,62.0
2023-08-11 18:29:33.220880,86.0
2023-08-11 18:29:33.228570,103.0
2023-08-11 18:29:33.236259,119.0
2023-08-11 18:29:33.243949,136.0
2023-08-11 18:29:33.251639,155.0
2023-08-11 18:29:33.259329,179.0
2023-08-11 18:29:33.267018,191.0
2023-08-11 18:29:33.274708,196.0
2023-08-11 18:29:33.282398,196.0
2023-08-11 18:29:33.290087,179.0
2023-08-11 18:29:33.297777,153.0
2023-08-11 18:29:33.305467,117.0
2023-08-11 18:29:33.313157,62.0
2023-08-11 18:29:33.320846,-2.0
2023-08-11 18:29:33.328536,-67.0
2023-08-11 18:29:33.336226,-119.0
2023-08-11 18:29:33.343916,-162.0
2023-08-11 18:29:33.351605,-189.0
2023-08-11 18:29:33.359295,-208.0
2023-08-11 18:29:33.366985,-215.0
2023-08-11 18:29:33.374675,-210.0
2023-08-11 18:29:33.382364,-208.0
2023-08-11 18:29:33.390054,-203.0
2023-08-11 18:29:33.397744,-191.0
2023-08-11 18:29:33.405434,-182.0
2023-08-11 18:29:33.413123,-177.0
2023-08-11 18:29:33.420813,-170.0
2023-08-11 18:29:33.428503,-160.0
2023-08-11 18:29:33.436193,-153.0
2023-08-11 18:29:33.443882,-148.0
2023-08-11 18:29:33.451572,-143.0
2023-08-11 18:29:33.459262,-139.0
2023-08-11 18:29:33.466951,-136.0
2023-08-11 18:29:33.474641,-136.0
2023-08-11 18:29:33.482331,-136.0
2023-08-11 18:29:33.490021,-134.0
2023-08-11 18:29:33.497710,-131.0
2023-08-11 18:29:33.505400,-131.0
2023-08-11 18:29:33.513090,-134.0
2023-08-11 18:29:33.520780,-131.0
2023-08-11 18:29:33.528469,-129.0
2023-08-11 18:29:33.536159,-127.0
2023-08-11 18:29:33.543849,-127.0
2023-08-11 18:29:33.551539,-124.0
2023-08-11 18:29:33.559228,-122.0
2023-08-11 18:29:33.566918,-122.0
2023-08-11 18:29:33.574608,-124.0
2023-08-11 18:29:33.582298,-124.0
2023-08-11 18:29:33.589987,-119.0
2023-08-11 18:29:33.597677,-117.0
2023-08-11 18:29:33.605367,-117.0
2023-08-11 18:29:33.613057,-119.0
2023-08-11 18:29:33.620746,-117.0
2023-08-11 18:29:33.628436,-119.0
2023-08-11 18:29:33.636126,-122.0
2023-08-11 18:29:33.643815,-119.0
2023-08-11 18:29:33.651505,-119.0
2023-08-11 18:29:33.659195,-117.0
2023-08-11 18:29:33.666885,-115.0
2023-08-11 18:29:33.674574,-115.0
2023-08-11 18:29:33.682264,-112.0
2023-08-11 18:29:33.689954,-110.0
2023-08-11 18:29:33.697644,-110.0
2023-08-11 18:29:33.705333,-110.0
2023-08-11 18:29:33.713023,-107.0
2023-08-11 18:29:33.720713,-107.0
2023-08-11 18:29:33.728403,-105.0
2023-08-11 18:29:33.736092,-105.0
2023-08-11 18:29:33.743782,-110.0
2023-08-11 18:29:33.751472,-110.0
2023-08-11 18:29:33.759162,-103.0
2023-08-11 18:29:33.766851,-103.0
2023-08-11 18:29:33.774541,-103.0
2023-08-11 18:29:33.782231,-100.0
2023-08-11 18:29:33.789921,-100.0
2023-08-11 18:29:33.797610,-100.0
2023-08-11 18:29:33.805300,-98.0
2023-08-11 18:29:33.812990,-98.0
2023-08-11 18:29:33.820679,-100.0
2023-08-11 18:29:33.828369,-105.0
2023-08-11 18:29:33.836059,-110.0
2023-08-11 18:29:33.843749,-105.0
2023-08-11 18:29:33.851438,-107.0
2023-08-11 18:29:33.859128,-107.0
2023-08-11 18:29:33.866818,-105.0
2023-08-11 18:29:33.874508,-103.0
2023-08-11 18:29:33.882197,-103.0
2023-08-11 18:29:33.889887,-100.0
2023-08-11 18:29:33.897577,-100.0
2023-08-11 18:29:33.905267,-107.0
2023-08-11 18:29:33.912956,-107.0
2023-08-11 18:29:33.920646,-88.0
2023-08-11 18:29:33.928336,-45.0
2023-08-11 18:29:33.936026,-19.0
2023-08-11 18:29:33.943715,-31.0
2023-08-11 18:29:33.951405,-33.0
2023-08-11 18:29:33.959095,-38.0
2023-08-11 18:29:33.966785,-81.0
2023-08-11 18:29:33.974474,-110.0
2023-08-11 18:29:33.982164,-103.0
2023-08-11 18:29:33.989854,-100.0
2023-08-11 18:29:33.997543,-107.0
2023-08-11 18:29:34.005233,-107.0
2023-08-11 18:29:34.012923,-105.0
2023-08-11 18:29:34.020613,-103.0
2023-08-11 18:29:34.028302,-103.0
2023-08-11 18:29:34.035992,-117.0
2023-08-11 18:29:34.043682,-131.0
2023-08-11 18:29:34.051372,50.0
2023-08-11 18:29:34.059061,639.0
2023-08-11 18:29:34.066751,1318.0
2023-08-11 18:29:34.074441,1356.0
2023-08-11 18:29:34.082131,428.0
2023-08-11 18:29:34.089820,-649.0
2023-08-11 18:29:34.097510,-747.0
2023-08-11 18:29:34.105200,-251.0
2023-08-11 18:29:34.112890,-134.0
2023-08-11 18:29:34.120579,-251.0
2023-08-11 18:29:34.128269,-206.0
2023-08-11 18:29:34.135959,-148.0
2023-08-11 18:29:34.143649,-170.0
2023-08-11 18:29:34.151338,-155.0
2023-08-11 18:29:34.159028,-127.0
2023-08-11 18:29:34.166718,-124.0
2023-08-11 18:29:34.174407,-117.0
2023-08-11 18:29:34.182097,-98.0
2023-08-11 18:29:34.189787,-88.0
2023-08-11 18:29:34.197477,-79.0
2023-08-11 18:29:34.205166,-64.0
2023-08-11 18:29:34.212856,-52.0
2023-08-11 18:29:34.220546,-43.0
2023-08-11 18:29:34.228236,-33.0
2023-08-11 18:29:34.235925,-21.0
2023-08-11 18:29:34.243615,-11.0
2023-08-11 18:29:34.251305,-2.0
2023-08-11 18:29:34.258995,9.0
2023-08-11 18:29:34.266684,26.0
2023-08-11 18:29:34.274374,38.0
2023-08-11 18:29:34.282064,52.0
2023-08-11 18:29:34.289754,71.0
2023-08-11 18:29:34.297443,95.0
2023-08-11 18:29:34.305133,117.0
2023-08-11 18:29:34.312823,134.0
2023-08-11 18:29:34.320513,148.0
2023-08-11 18:29:34.328202,167.0
2023-08-11 18:29:34.335892,184.0
2023-08-11 18:29:34.343582,189.0
2023-08-11 18:29:34.351271,189.0
2023-08-11 18:29:34.358961,189.0
2023-08-11 18:29:34.366651,165.0
2023-08-11 18:29:34.374341,119.0
2023-08-11 18:29:34.382030,74.0
2023-08-11 18:29:34.389720,19.0
2023-08-11 18:29:34.397410,-50.0
2023-08-11 18:29:34.405100,-112.0
2023-08-11 18:29:34.412789,-162.0
2023-08-11 18:29:34.420479,-201.0
2023-08-11 18:29:34.428169,-213.0
2023-08-11 18:29:34.435859,-213.0
2023-08-11 18:29:34.443548,-215.0
2023-08-11 18:29:34.451238,-215.0
2023-08-11 18:29:34.458928,-213.0
2023-08-11 18:29:34.466618,-206.0
2023-08-11 18:29:34.474307,-191.0
2023-08-11 18:29:34.481997,-182.0
2023-08-11 18:29:34.489687,-177.0
2023-08-11 18:29:34.497377,-172.0
2023-08-11 18:29:34.505066,-165.0
2023-08-11 18:29:34.512756,-158.0
2023-08-11 18:29:34.520446,-148.0
2023-08-11 18:29:34.528135,-143.0
2023-08-11 18:29:34.535825,-141.0
2023-08-11 18:29:34.543515,-141.0
2023-08-11 18:29:34.551205,-143.0
2023-08-11 18:29:34.558894,-141.0
2023-08-11 18:29:34.566584,-134.0
2023-08-11 18:29:34.574274,-131.0
2023-08-11 18:29:34.581964,-136.0
2023-08-11 18:29:34.589653,-139.0
2023-08-11 18:29:34.597343,-139.0
2023-08-11 18:29:34.605033,-136.0
2023-08-11 18:29:34.612723,-129.0
2023-08-11 18:29:34.620412,-127.0
2023-08-11 18:29:34.628102,-124.0
2023-08-11 18:29:34.635792,-122.0
2023-08-11 18:29:34.643482,-124.0
2023-08-11 18:29:34.651171,-127.0
2023-08-11 18:29:34.658861,-129.0
2023-08-11 18:29:34.666551,-124.0
2023-08-11 18:29:34.674241,-115.0
2023-08-11 18:29:34.681930,-117.0
2023-08-11 18:29:34.689620,-122.0
2023-08-11 18:29:34.697310,-119.0
2023-08-11 18:29:34.704999,-117.0
2023-08-11 18:29:34.712689,-115.0
2023-08-11 18:29:34.720379,-117.0
2023-08-11 18:29:34.728069,-122.0
2023-08-11 18:29:34.735758,-122.0
2023-08-11 18:29:34.743448,-122.0
2023-08-11 18:29:34.751138,-124.0
2023-08-11 18:29:34.758828,-119.0
2023-08-11 18:29:34.766517,-112.0
2023-08-11 18:29:34.774207,-117.0
2023-08-11 18:29:34.781897,-119.0
2023-08-11 18:29:34.789587,-112.0
2023-08-11 18:29:34.797276,-110.0
2023-08-11 18:29:34.804966,-110.0
2023-08-11 18:29:34.812656,-107.0
2023-08-11 18:29:34.820346,-107.0
2023-08-11 18:29:34.828035,-110.0
2023-08-11 18:29:34.835725,-105.0
2023-08-11 18:29:34.843415,-103.0
2023-08-11 18:29:34.851105,-100.0
2023-08-11 18:29:34.858794,-105.0
2023-08-11 18:29:34.866484,-110.0
2023-08-11 18:29:34.874174,-107.0
2023-08-11 18:29:34.881864,-100.0
2023-08-11 18:29:34.889553,-98.0
2023-08-11 18:29:34.897243,-98.0
2023-08-11 18:29:34.904933,-98.0
2023-08-11 18:29:34.912622,-100.0
2023-08-11 18:29:34.920312,-107.0
2023-08-11 18:29:34.928002,-115.0
2023-08-11 18:29:34.935692,-115.0
2023-08-11 18:29:34.943381,-105.0
2023-08-11 18:29:34.951071,-74.0
2023-08-11 18:29:34.958761,-31.0
2023-08-11 18:29:34.966451,-26.0
2023-08-11 18:29:34.974140,-35.0
2023-08-11 18:29:34.981830,-33.0
2023-08-11 18:29:34.989520,-50.0
2023-08-11 18:29:34.997210,-91.0
2023-08-11 18:29:35.004899,-105.0
2023-08-11 18:29:35.012589,-95.0
2023-08-11 18:29:35.020279,-93.0
2023-08-11 18:29:35.027969,-95.0
2023-08-11 18:29:35.035658,-91.0
2023-08-11 18:29:35.043348,-91.0
2023-08-11 18:29:35.051038,-93.0
2023-08-11 18:29:35.058728,-103.0
2023-08-11 18:29:35.066417,-122.0
2023-08-11 18:29:35.074107,-16.0
2023-08-11 18:29:35.081797,462.0
2023-08-11 18:29:35.089486,1162.0
2023-08-11 18:29:35.097176,1387.0
2023-08-11 18:29:35.104866,654.0
2023-08-11 18:29:35.112556,-457.0
2023-08-11 18:29:35.120245,-793.0
2023-08-11 18:29:35.127935,-369.0
2023-08-11 18:29:35.135625,-127.0
2023-08-11 18:29:35.143315,-198.0
2023-08-11 18:29:35.151004,-194.0
2023-08-11 18:29:35.158694,-136.0
2023-08-11 18:29:35.166384,-139.0
2023-08-11 18:29:35.174074,-139.0
2023-08-11 18:29:35.181763,-115.0
2023-08-11 18:29:35.189453,-103.0
2023-08-11 18:29:35.197143,-98.0
2023-08-11 18:29:35.204833,-81.0
2023-08-11 18:29:35.212522,-67.0
2023-08-11 18:29:35.220212,-62.0
2023-08-11 18:29:35.227902,-55.0
2023-08-11 18:29:35.235592,-43.0
2023-08-11 18:29:35.243281,-31.0
2023-08-11 18:29:35.250971,-16.0
2023-08-11 18:29:35.258661,-4.0
2023-08-11 18:29:35.266350,4.0
2023-08-11 18:29:35.274040,11.0
2023-08-11 18:29:35.281730,23.0
2023-08-11 18:29:35.289420,40.0
2023-08-11 18:29:35.297109,55.0
2023-08-11 18:29:35.304799,69.0
2023-08-11 18:29:35.312489,86.0
2023-08-11 18:29:35.320179,103.0
2023-08-11 18:29:35.327868,119.0
2023-08-11 18:29:35.335558,136.0
2023-08-11 18:29:35.343248,155.0
2023-08-11 18:29:35.350938,174.0
2023-08-11 18:29:35.358627,186.0
2023-08-11 18:29:35.366317,194.0
2023-08-11 18:29:35.374007,198.0
2023-08-11 18:29:35.381697,194.0
2023-08-11 18:29:35.389386,177.0
2023-08-11 18:29:35.397076,143.0
2023-08-11 18:29:35.404766,86.0
2023-08-11 18:29:35.412456,19.0
2023-08-11 18:29:35.420145,-43.0
2023-08-11 18:29:35.427835,-103.0
2023-08-11 18:29:35.435525,-141.0
2023-08-11 18:29:35.443214,-170.0
2023-08-11 18:29:35.450904,-196.0
2023-08-11 18:29:35.458594,-203.0
2023-08-11 18:29:35.466284,-198.0
2023-08-11 18:29:35.473973,-198.0
2023-08-11 18:29:35.481663,-194.0
2023-08-11 18:29:35.489353,-184.0
2023-08-11 18:29:35.497043,-179.0
2023-08-11 18:29:35.504732,-172.0
2023-08-11 18:29:35.512422,-160.0
2023-08-11 18:29:35.520112,-150.0
2023-08-11 18:29:35.527802,-143.0
2023-08-11 18:29:35.535491,-139.0
2023-08-11 18:29:35.543181,-136.0
2023-08-11 18:29:35.550871,-129.0
2023-08-11 18:29:35.558561,-124.0
2023-08-11 18:29:35.566250,-129.0
2023-08-11 18:29:35.573940,-129.0
2023-08-11 18:29:35.581630,-129.0
2023-08-11 18:29:35.589320,-127.0
2023-08-11 18:29:35.597009,-127.0
2023-08-11 18:29:35.604699,-127.0
2023-08-11 18:29:35.612389,-124.0
2023-08-11 18:29:35.620078,-122.0
2023-08-11 18:29:35.627768,-119.0
2023-08-11 18:29:35.635458,-119.0
2023-08-11 18:29:35.643148,-117.0
2023-08-11 18:29:35.650837,-115.0
2023-08-11 18:29:35.658527,-110.0
2023-08-11 18:29:35.666217,-110.0
2023-08-11 18:29:35.673907,-110.0
2023-08-11 18:29:35.681596,-107.0
2023-08-11 18:29:35.689286,-107.0
2023-08-11 18:29:35.696976,-112.0
2023-08-11 18:29:35.704666,-110.0
2023-08-11 18:29:35.712355,-105.0
2023-08-11 18:29:35.720045,-105.0
2023-08-11 18:29:35.727735,-103.0
2023-08-11 18:29:35.735425,-103.0
2023-08-11 18:29:35.743114,-107.0
2023-08-11 18:29:35.750804,-110.0
2023-08-11 18:29:35.758494,-107.0
2023-08-11 18:29:35.766184,-107.0
2023-08-11 18:29:35.773873,-105.0
2023-08-11 18:29:35.781563,-100.0
2023-08-11 18:29:35.789253,-103.0
2023-08-11 18:29:35.796942,-105.0
2023-08-11 18:29:35.804632,-103.0
2023-08-11 18:29:35.812322,-103.0
2023-08-11 18:29:35.820012,-105.0
2023-08-11 18:29:35.827701,-105.0
2023-08-11 18:29:35.835391,-103.0
2023-08-11 18:29:35.843081,-100.0
2023-08-11 18:29:35.850771,-98.0
2023-08-11 18:29:35.858460,-98.0
2023-08-11 18:29:35.866150,-98.0
2023-08-11 18:29:35.873840,-95.0
2023-08-11 18:29:35.881530,-95.0
2023-08-11 18:29:35.889219,-98.0
2023-08-11 18:29:35.896909,-105.0
2023-08-11 18:29:35.904599,-95.0
2023-08-11 18:29:35.912289,-59.0
2023-08-11 18:29:35.919978,-26.0
2023-08-11 18:29:35.927668,-28.0
2023-08-11 18:29:35.935358,-38.0
2023-08-11 18:29:35.943048,-35.0
2023-08-11 18:29:35.950737,-57.0
2023-08-11 18:29:35.958427,-95.0
2023-08-11 18:29:35.966117,-103.0
2023-08-11 18:29:35.973806,-95.0
2023-08-11 18:29:35.981496,-107.0
2023-08-11 18:29:35.989186,-115.0
2023-08-11 18:29:35.996876,-112.0
2023-08-11 18:29:36.004565,-107.0
2023-08-11 18:29:36.012255,-105.0
2023-08-11 18:29:36.019945,-110.0
2023-08-11 18:29:36.027635,-134.0
2023-08-11 18:29:36.035324,-88.0
2023-08-11 18:29:36.043014,282.0
2023-08-11 18:29:36.050704,980.0
2023-08-11 18:29:36.058394,1414.0
2023-08-11 18:29:36.066083,941.0
2023-08-11 18:29:36.073773,-210.0
2023-08-11 18:29:36.081463,-860.0
2023-08-11 18:29:36.089153,-539.0
2023-08-11 18:29:36.096842,-165.0
2023-08-11 18:29:36.104532,-201.0
2023-08-11 18:29:36.112222,-239.0
2023-08-11 18:29:36.119912,-172.0
2023-08-11 18:29:36.127601,-165.0
2023-08-11 18:29:36.135291,-174.0
2023-08-11 18:29:36.142981,-143.0
2023-08-11 18:29:36.150670,-124.0
2023-08-11 18:29:36.158360,-122.0
2023-08-11 18:29:36.166050,-110.0
2023-08-11 18:29:36.173740,-93.0
2023-08-11 18:29:36.181429,-83.0
2023-08-11 18:29:36.189119,-71.0
2023-08-11 18:29:36.196809,-57.0
2023-08-11 18:29:36.204499,-45.0
2023-08-11 18:29:36.212188,-35.0
2023-08-11 18:29:36.219878,-23.0
2023-08-11 18:29:36.227568,-11.0
2023-08-11 18:29:36.235258,2.0
2023-08-11 18:29:36.242947,16.0
2023-08-11 18:29:36.250637,28.0
2023-08-11 18:29:36.258327,38.0
2023-08-11 18:29:36.266017,57.0
2023-08-11 18:29:36.273706,79.0
2023-08-11 18:29:36.281396,95.0
2023-08-11 18:29:36.289086,112.0
2023-08-11 18:29:36.296776,131.0
2023-08-11 18:29:36.304465,150.0
2023-08-11 18:29:36.312155,167.0
2023-08-11 18:29:36.319845,182.0
2023-08-11 18:29:36.327534,194.0
2023-08-11 18:29:36.335224,198.0
2023-08-11 18:29:36.342914,191.0
2023-08-11 18:29:36.350604,174.0
2023-08-11 18:29:36.358293,143.0
2023-08-11 18:29:36.365983,98.0
2023-08-11 18:29:36.373673,33.0
2023-08-11 18:29:36.381363,-40.0
2023-08-11 18:29:36.389052,-98.0
2023-08-11 18:29:36.396742,-143.0
2023-08-11 18:29:36.404432,-174.0
2023-08-11 18:29:36.412122,-194.0
2023-08-11 18:29:36.419811,-201.0
2023-08-11 18:29:36.427501,-206.0
2023-08-11 18:29:36.435191,-210.0
2023-08-11 18:29:36.442881,-206.0
2023-08-11 18:29:36.450570,-191.0
2023-08-11 18:29:36.458260,-184.0
2023-08-11 18:29:36.465950,-177.0
2023-08-11 18:29:36.473640,-162.0
2023-08-11 18:29:36.481329,-155.0
2023-08-11 18:29:36.489019,-153.0
2023-08-11 18:29:36.496709,-146.0
2023-08-11 18:29:36.504399,-139.0
2023-08-11 18:29:36.512088,-131.0
2023-08-11 18:29:36.519778,-131.0
2023-08-11 18:29:36.527468,-134.0
2023-08-11 18:29:36.535157,-136.0
2023-08-11 18:29:36.542847,-131.0
2023-08-11 18:29:36.550537,-129.0
2023-08-11 18:29:36.558227,-134.0
2023-08-11 18:29:36.565916,-136.0
2023-08-11 18:29:36.573606,-141.0
2023-08-11 18:29:36.581296,-146.0
2023-08-11 18:29:36.588986,-136.0
2023-08-11 18:29:36.596675,-129.0
2023-08-11 18:29:36.604365,-129.0
2023-08-11 18:29:36.612055,-127.0
2023-08-11 18:29:36.619745,-129.0
2023-08-11 18:29:36.627434,-127.0
2023-08-11 18:29:36.635124,-119.0
2023-08-11 18:29:36.642814,-119.0
2023-08-11 18:29:36.650504,-115.0
2023-08-11 18:29:36.658193,-110.0
2023-08-11 18:29:36.665883,-112.0
2023-08-11 18:29:36.673573,-112.0
2023-08-11 18:29:36.681263,-107.0
2023-08-11 18:29:36.688952,-103.0
2023-08-11 18:29:36.696642,-103.0
2023-08-11 18:29:36.704332,-103.0
2023-08-11 18:29:36.712021,-103.0
2023-08-11 18:29:36.719711,-103.0
2023-08-11 18:29:36.727401,-98.0
2023-08-11 18:29:36.735091,-95.0
2023-08-11 18:29:36.742780,-98.0
2023-08-11 18:29:36.750470,-100.0
2023-08-11 18:29:36.758160,-103.0
2023-08-11 18:29:36.765850,-100.0
2023-08-11 18:29:36.773539,-95.0
2023-08-11 18:29:36.781229,-93.0
2023-08-11 18:29:36.788919,-91.0
2023-08-11 18:29:36.796609,-95.0
2023-08-11 18:29:36.804298,-103.0
2023-08-11 18:29:36.811988,-103.0
2023-08-11 18:29:36.819678,-100.0
2023-08-11 18:29:36.827368,-100.0
2023-08-11 18:29:36.835057,-100.0
2023-08-11 18:29:36.842747,-95.0
2023-08-11 18:29:36.850437,-95.0
2023-08-11 18:29:36.858127,-95.0
2023-08-11 18:29:36.865816,-91.0
2023-08-11 18:29:36.873506,-91.0
2023-08-11 18:29:36.881196,-88.0
2023-08-11 18:29:36.888885,-88.0
2023-08-11 18:29:36.896575,-93.0
2023-08-11 18:29:36.904265,-98.0
2023-08-11 18:29:36.911955,-83.0
2023-08-11 18:29:36.919644,-45.0
2023-08-11 18:29:36.927334,-16.0
2023-08-11 18:29:36.935024,-26.0
2023-08-11 18:29:36.942714,-35.0
2023-08-11 18:29:36.950403,-33.0
2023-08-11 18:29:36.958093,-64.0
2023-08-11 18:29:36.965783,-100.0
2023-08-11 18:29:36.973473,-103.0
2023-08-11 18:29:36.981162,-95.0
2023-08-11 18:29:36.988852,-100.0
2023-08-11 18:29:36.996542,-100.0
2023-08-11 18:29:37.004232,-95.0
2023-08-11 18:29:37.011921,-93.0
2023-08-11 18:29:37.019611,-93.0
2023-08-11 18:29:37.027301,-103.0
2023-08-11 18:29:37.034991,-129.0
2023-08-11 18:29:37.042680,-23.0
2023-08-11 18:29:37.050370,472.0
2023-08-11 18:29:37.058060,1193.0
2023-08-11 18:29:37.065749,1445.0
2023-08-11 18:29:37.073439,711.0
2023-08-11 18:29:37.081129,-455.0
2023-08-11 18:29:37.088819,-817.0
2023-08-11 18:29:37.096508,-364.0
2023-08-11 18:29:37.104198,-119.0
2023-08-11 18:29:37.111888,-218.0
2023-08-11 18:29:37.119578,-213.0
2023-08-11 18:29:37.127267,-143.0
2023-08-11 18:29:37.134957,-153.0
2023-08-11 18:29:37.142647,-150.0
2023-08-11 18:29:37.150337,-117.0
2023-08-11 18:29:37.158026,-110.0
2023-08-11 18:29:37.165716,-105.0
2023-08-11 18:29:37.173406,-86.0
2023-08-11 18:29:37.181096,-76.0
2023-08-11 18:29:37.188785,-71.0
2023-08-11 18:29:37.196475,-62.0
2023-08-11 18:29:37.204165,-57.0
2023-08-11 18:29:37.211855,-50.0
2023-08-11 18:29:37.219544,-33.0
2023-08-11 18:29:37.227234,-19.0
2023-08-11 18:29:37.234924,-7.0
2023-08-11 18:29:37.242613,4.0
2023-08-11 18:29:37.250303,16.0
2023-08-11 18:29:37.257993,28.0
2023-08-11 18:29:37.265683,45.0
2023-08-11 18:29:37.273372,62.0
2023-08-11 18:29:37.281062,79.0
2023-08-11 18:29:37.288752,98.0
2023-08-11 18:29:37.296442,115.0
2023-08-11 18:29:37.304131,136.0
2023-08-11 18:29:37.311821,158.0
2023-08-11 18:29:37.319511,174.0
2023-08-11 18:29:37.327201,189.0
2023-08-11 18:29:37.334890,198.0
2023-08-11 18:29:37.342580,198.0
2023-08-11 18:29:37.350270,194.0
2023-08-11 18:29:37.357960,179.0
2023-08-11 18:29:37.365649,143.0
2023-08-11 18:29:37.373339,88.0
2023-08-11 18:29:37.381029,21.0
2023-08-11 18:29:37.388719,-45.0
2023-08-11 18:29:37.396408,-98.0
2023-08-11 18:29:37.404098,-141.0
2023-08-11 18:29:37.411788,-174.0
2023-08-11 18:29:37.419477,-191.0
2023-08-11 18:29:37.427167,-201.0
2023-08-11 18:29:37.434857,-206.0
2023-08-11 18:29:37.442547,-208.0
2023-08-11 18:29:37.450236,-201.0
2023-08-11 18:29:37.457926,-189.0
2023-08-11 18:29:37.465616,-179.0
2023-08-11 18:29:37.473306,-177.0
2023-08-11 18:29:37.480995,-170.0
2023-08-11 18:29:37.488685,-158.0
2023-08-11 18:29:37.496375,-153.0
2023-08-11 18:29:37.504065,-153.0
2023-08-11 18:29:37.511754,-146.0
2023-08-11 18:29:37.519444,-141.0
2023-08-11 18:29:37.527134,-134.0
2023-08-11 18:29:37.534824,-134.0
2023-08-11 18:29:37.542513,-139.0
2023-08-11 18:29:37.550203,-139.0
2023-08-11 18:29:37.557893,-139.0
2023-08-11 18:29:37.565583,-136.0
2023-08-11 18:29:37.573272,-134.0
2023-08-11 18:29:37.580962,-131.0
2023-08-11 18:29:37.588652,-131.0
2023-08-11 18:29:37.596341,-129.0
2023-08-11 18:29:37.604031,-127.0
2023-08-11 18:29:37.611721,-127.0
2023-08-11 18:29:37.619411,-127.0
2023-08-11 18:29:37.627100,-119.0
2023-08-11 18:29:37.634790,-119.0
2023-08-11 18:29:37.642480,-117.0
2023-08-11 18:29:37.650170,-119.0
2023-08-11 18:29:37.657859,-129.0
2023-08-11 18:29:37.665549,-124.0
2023-08-11 18:29:37.673239,-115.0
2023-08-11 18:29:37.680929,-115.0
2023-08-11 18:29:37.688618,-115.0
2023-08-11 18:29:37.696308,-110.0
2023-08-11 18:29:37.703998,-107.0
2023-08-11 18:29:37.711688,-107.0
2023-08-11 18:29:37.719377,-105.0
2023-08-11 18:29:37.727067,-100.0
2023-08-11 18:29:37.734757,-100.0
2023-08-11 18:29:37.742447,-103.0
2023-08-11 18:29:37.750136,-100.0
2023-08-11 18:29:37.757826,-98.0
2023-08-11 18:29:37.765516,-98.0
2023-08-11 18:29:37.773205,-95.0
2023-08-11 18:29:37.780895,-93.0
2023-08-11 18:29:37.788585,-95.0
2023-08-11 18:29:37.796275,-93.0
2023-08-11 18:29:37.803964,-91.0
2023-08-11 18:29:37.811654,-91.0
2023-08-11 18:29:37.819344,-93.0
2023-08-11 18:29:37.827034,-100.0
2023-08-11 18:29:37.834723,-98.0
2023-08-11 18:29:37.842413,-88.0
2023-08-11 18:29:37.850103,-83.0
2023-08-11 18:29:37.857793,-86.0
2023-08-11 18:29:37.865482,-91.0
2023-08-11 18:29:37.873172,-95.0
2023-08-11 18:29:37.880862,-98.0
2023-08-11 18:29:37.888552,-95.0
2023-08-11 18:29:37.896241,-95.0
2023-08-11 18:29:37.903931,-93.0
2023-08-11 18:29:37.911621,-86.0
2023-08-11 18:29:37.919311,-91.0
2023-08-11 18:29:37.927000,-98.0
2023-08-11 18:29:37.934690,-83.0
2023-08-11 18:29:37.942380,-47.0
2023-08-11 18:29:37.950069,-23.0
2023-08-11 18:29:37.957759,-26.0
2023-08-11 18:29:37.965449,-28.0
2023-08-11 18:29:37.973139,-38.0
2023-08-11 18:29:37.980828,-76.0
2023-08-11 18:29:37.988518,-105.0
2023-08-11 18:29:37.996208,-103.0
2023-08-11 18:29:38.003898,-95.0
2023-08-11 18:29:38.011587,-98.0
2023-08-11 18:29:38.019277,-98.0
2023-08-11 18:29:38.026967,-93.0
2023-08-11 18:29:38.034657,-95.0
2023-08-11 18:29:38.042346,-95.0
2023-08-11 18:29:38.050036,-107.0
2023-08-11 18:29:38.057726,-131.0
2023-08-11 18:29:38.065416,16.0
2023-08-11 18:29:38.073105,587.0
2023-08-11 18:29:38.080795,1298.0
2023-08-11 18:29:38.088485,1392.0
2023-08-11 18:29:38.096175,500.0
2023-08-11 18:29:38.103864,-618.0
2023-08-11 18:29:38.111554,-814.0
2023-08-11 18:29:38.119244,-340.0
2023-08-11 18:29:38.126934,-170.0
2023-08-11 18:29:38.134623,-266.0
2023-08-11 18:29:38.142313,-242.0
2023-08-11 18:29:38.150003,-186.0
2023-08-11 18:29:38.157692,-194.0
2023-08-11 18:29:38.165382,-177.0
2023-08-11 18:29:38.173072,-143.0
2023-08-11 18:29:38.180762,-136.0
2023-08-11 18:29:38.188451,-131.0
2023-08-11 18:29:38.196141,-124.0
2023-08-11 18:29:38.203831,-115.0
2023-08-11 18:29:38.211521,-95.0
2023-08-11 18:29:38.219210,-79.0
2023-08-11 18:29:38.226900,-69.0
2023-08-11 18:29:38.234590,-62.0
2023-08-11 18:29:38.242280,-50.0
2023-08-11 18:29:38.249969,-31.0
2023-08-11 18:29:38.257659,-14.0
2023-08-11 18:29:38.265349,-4.0
2023-08-11 18:29:38.273039,9.0
2023-08-11 18:29:38.280728,23.0
2023-08-11 18:29:38.288418,35.0
2023-08-11 18:29:38.296108,50.0
2023-08-11 18:29:38.303798,74.0
2023-08-11 18:29:38.311487,95.0
2023-08-11 18:29:38.319177,115.0
2023-08-11 18:29:38.326867,134.0
2023-08-11 18:29:38.334556,153.0
2023-08-11 18:29:38.342246,174.0
2023-08-11 18:29:38.349936,191.0
2023-08-11 18:29:38.357626,198.0
2023-08-11 18:29:38.365315,198.0
2023-08-11 18:29:38.373005,189.0
2023-08-11 18:29:38.380695,170.0
2023-08-11 18:29:38.388385,131.0
2023-08-11 18:29:38.396074,76.0
2023-08-11 18:29:38.403764,11.0
2023-08-11 18:29:38.411454,-50.0
2023-08-11 18:29:38.419144,-110.0
2023-08-11 18:29:38.426833,-150.0
2023-08-11 18:29:38.434523,-177.0
2023-08-11 18:29:38.442213,-191.0
2023-08-11 18:29:38.449903,-203.0
2023-08-11 18:29:38.457592,-206.0
2023-08-11 18:29:38.465282,-201.0
2023-08-11 18:29:38.472972,-191.0
2023-08-11 18:29:38.480662,-182.0
2023-08-11 18:29:38.488351,-172.0
2023-08-11 18:29:38.496041,-167.0
2023-08-11 18:29:38.503731,-158.0
2023-08-11 18:29:38.511420,-150.0
2023-08-11 18:29:38.519110,-146.0
2023-08-11 18:29:38.526800,-139.0
2023-08-11 18:29:38.534490,-136.0
2023-08-11 18:29:38.542179,-134.0
2023-08-11 18:29:38.549869,-129.0
2023-08-11 18:29:38.557559,-129.0
2023-08-11 18:29:38.565249,-129.0
2023-08-11 18:29:38.572938,-127.0
2023-08-11 18:29:38.580628,-127.0
2023-08-11 18:29:38.588318,-124.0
2023-08-11 18:29:38.596008,-124.0
2023-08-11 18:29:38.603697,-124.0
2023-08-11 18:29:38.611387,-122.0
2023-08-11 18:29:38.619077,-119.0
2023-08-11 18:29:38.626767,-117.0
2023-08-11 18:29:38.634456,-115.0
2023-08-11 18:29:38.642146,-110.0
2023-08-11 18:29:38.649836,-110.0
2023-08-11 18:29:38.657526,-110.0
2023-08-11 18:29:38.665215,-105.0
2023-08-11 18:29:38.672905,-105.0
2023-08-11 18:29:38.680595,-103.0
2023-08-11 18:29:38.688284,-98.0
2023-08-11 18:29:38.695974,-100.0
2023-08-11 18:29:38.703664,-103.0
2023-08-11 18:29:38.711354,-95.0
2023-08-11 18:29:38.719043,-93.0
2023-08-11 18:29:38.726733,-93.0
2023-08-11 18:29:38.734423,-93.0
2023-08-11 18:29:38.742113,-93.0
2023-08-11 18:29:38.749802,-93.0
2023-08-11 18:29:38.757492,-91.0
2023-08-11 18:29:38.765182,-88.0
2023-08-11 18:29:38.772872,-95.0
2023-08-11 18:29:38.780561,-105.0
2023-08-11 18:29:38.788251,-105.0
2023-08-11 18:29:38.795941,-98.0
2023-08-11 18:29:38.803631,-95.0
2023-08-11 18:29:38.811320,-93.0
2023-08-11 18:29:38.819010,-91.0
2023-08-11 18:29:38.826700,-91.0
2023-08-11 18:29:38.834390,-93.0
2023-08-11 18:29:38.842079,-95.0
2023-08-11 18:29:38.849769,-98.0
2023-08-11 18:29:38.857459,-95.0
2023-08-11 18:29:38.865148,-91.0
2023-08-11 18:29:38.872838,-88.0
2023-08-11 18:29:38.880528,-86.0
2023-08-11 18:29:38.888218,-86.0
2023-08-11 18:29:38.895907,-91.0
2023-08-11 18:29:38.903597,-98.0
2023-08-11 18:29:38.911287,-103.0
2023-08-11 18:29:38.918977,-107.0
2023-08-11 18:29:38.926666,-79.0
2023-08-11 18:29:38.934356,-31.0
2023-08-11 18:29:38.942046,-21.0
2023-08-11 18:29:38.949736,-38.0
2023-08-11 18:29:38.957425,-38.0
2023-08-11 18:29:38.965115,-50.0
2023-08-11 18:29:38.972805,-88.0
2023-08-11 18:29:38.980495,-110.0
2023-08-11 18:29:38.988184,-100.0
2023-08-11 18:29:38.995874,-98.0
2023-08-11 18:29:39.003564,-100.0
2023-08-11 18:29:39.011254,-100.0
2023-08-11 18:29:39.018943,-105.0
2023-08-11 18:29:39.026633,-105.0
2023-08-11 18:29:39.034323,-100.0
2023-08-11 18:29:39.042012,-122.0
2023-08-11 18:29:39.049702,-119.0
2023-08-11 18:29:39.057392,153.0
2023-08-11 18:29:39.065082,822.0
2023-08-11 18:29:39.072771,1402.0
2023-08-11 18:29:39.080461,1169.0
2023-08-11 18:29:39.088151,91.0
2023-08-11 18:29:39.095841,-778.0
2023-08-11 18:29:39.103530,-635.0
2023-08-11 18:29:39.111220,-184.0
2023-08-11 18:29:39.118910,-155.0
2023-08-11 18:29:39.126600,-230.0
2023-08-11 18:29:39.134289,-170.0
2023-08-11 18:29:39.141979,-143.0
2023-08-11 18:29:39.149669,-155.0
2023-08-11 18:29:39.157359,-131.0
2023-08-11 18:29:39.165048,-107.0
2023-08-11 18:29:39.172738,-105.0
2023-08-11 18:29:39.180428,-95.0
2023-08-11 18:29:39.188118,-81.0
2023-08-11 18:29:39.195807,-71.0
2023-08-11 18:29:39.203497,-62.0
2023-08-11 18:29:39.211187,-52.0
2023-08-11 18:29:39.218876,-40.0
2023-08-11 18:29:39.226566,-28.0
2023-08-11 18:29:39.234256,-19.0
2023-08-11 18:29:39.241946,-7.0
2023-08-11 18:29:39.249635,4.0
2023-08-11 18:29:39.257325,14.0
2023-08-11 18:29:39.265015,26.0
2023-08-11 18:29:39.272705,38.0
2023-08-11 18:29:39.280394,55.0
2023-08-11 18:29:39.288084,74.0
2023-08-11 18:29:39.295774,93.0
2023-08-11 18:29:39.303464,112.0
2023-08-11 18:29:39.311153,131.0
2023-08-11 18:29:39.318843,150.0
2023-08-11 18:29:39.326533,170.0
2023-08-11 18:29:39.334223,184.0
2023-08-11 18:29:39.341912,194.0
2023-08-11 18:29:39.349602,201.0
2023-08-11 18:29:39.357292,198.0
2023-08-11 18:29:39.364982,174.0
2023-08-11 18:29:39.372671,143.0
2023-08-11 18:29:39.380361,103.0
2023-08-11 18:29:39.388051,40.0
2023-08-11 18:29:39.395740,-31.0
2023-08-11 18:29:39.403430,-86.0
2023-08-11 18:29:39.411120,-134.0
2023-08-11 18:29:39.418810,-172.0
2023-08-11 18:29:39.426499,-189.0
2023-08-11 18:29:39.434189,-201.0
2023-08-11 18:29:39.441879,-206.0
2023-08-11 18:29:39.449569,-201.0
2023-08-11 18:29:39.457258,-198.0
2023-08-11 18:29:39.464948,-201.0
2023-08-11 18:29:39.472638,-186.0
2023-08-11 18:29:39.480328,-172.0
2023-08-11 18:29:39.488017,-167.0
2023-08-11 18:29:39.495707,-160.0
2023-08-11 18:29:39.503397,-153.0
2023-08-11 18:29:39.511087,-148.0
2023-08-11 18:29:39.518776,-143.0
2023-08-11 18:29:39.526466,-139.0
2023-08-11 18:29:39.534156,-136.0
2023-08-11 18:29:39.541846,-134.0
2023-08-11 18:29:39.549535,-131.0
2023-08-11 18:29:39.557225,-131.0
2023-08-11 18:29:39.564915,-129.0
2023-08-11 18:29:39.572604,-127.0
2023-08-11 18:29:39.580294,-129.0
2023-08-11 18:29:39.587984,-129.0
2023-08-11 18:29:39.595674,-127.0
2023-08-11 18:29:39.603363,-124.0
2023-08-11 18:29:39.611053,-124.0
2023-08-11 18:29:39.618743,-124.0
2023-08-11 18:29:39.626433,-122.0
2023-08-11 18:29:39.634122,-117.0
2023-08-11 18:29:39.641812,-115.0
2023-08-11 18:29:39.649502,-115.0
2023-08-11 18:29:39.657192,-112.0
2023-08-11 18:29:39.664881,-110.0
2023-08-11 18:29:39.672571,-110.0
2023-08-11 18:29:39.680261,-107.0
2023-08-11 18:29:39.687951,-105.0
2023-08-11 18:29:39.695640,-103.0
2023-08-11 18:29:39.703330,-100.0
2023-08-11 18:29:39.711020,-98.0
2023-08-11 18:29:39.718710,-100.0
2023-08-11 18:29:39.726399,-100.0
2023-08-11 18:29:39.734089,-95.0
2023-08-11 18:29:39.741779,-93.0
2023-08-11 18:29:39.749469,-93.0
2023-08-11 18:29:39.757158,-98.0
2023-08-11 18:29:39.764848,-100.0
2023-08-11 18:29:39.772538,-98.0
2023-08-11 18:29:39.780227,-93.0
2023-08-11 18:29:39.787917,-91.0
2023-08-11 18:29:39.795607,-91.0
2023-08-11 18:29:39.803297,-91.0
2023-08-11 18:29:39.810986,-95.0
2023-08-11 18:29:39.818676,-98.0
2023-08-11 18:29:39.826366,-91.0
2023-08-11 18:29:39.834056,-88.0
2023-08-11 18:29:39.841745,-88.0
2023-08-11 18:29:39.849435,-86.0
2023-08-11 18:29:39.857125,-93.0
2023-08-11 18:29:39.864815,-98.0
2023-08-11 18:29:39.872504,-93.0
2023-08-11 18:29:39.880194,-93.0
2023-08-11 18:29:39.887884,-95.0
2023-08-11 18:29:39.895574,-95.0
2023-08-11 18:29:39.903263,-103.0
2023-08-11 18:29:39.910953,-105.0
2023-08-11 18:29:39.918643,-98.0
2023-08-11 18:29:39.926333,-95.0
2023-08-11 18:29:39.934022,-98.0
2023-08-11 18:29:39.941712,-95.0
2023-08-11 18:29:39.949402,-93.0
2023-08-11 18:29:39.957091,-98.0
2023-08-11 18:29:39.964781,-107.0
2023-08-11 18:29:39.972471,-110.0
2023-08-11 18:29:39.980161,-86.0
2023-08-11 18:29:39.987850,-43.0
2023-08-11 18:29:39.995540,-21.0
2023-08-11 18:29:40.003230,-33.0
2023-08-11 18:29:40.010920,-35.0
2023-08-11 18:29:40.018609,-40.0
2023-08-11 18:29:40.026299,-76.0
2023-08-11 18:29:40.033989,-107.0
2023-08-11 18:29:40.041679,-105.0
2023-08-11 18:29:40.049368,-98.0
2023-08-11 18:29:40.057058,-100.0
2023-08-11 18:29:40.064748,-100.0
2023-08-11 18:29:40.072438,-95.0
2023-08-11 18:29:40.080127,-98.0
2023-08-11 18:29:40.087817,-98.0
2023-08-11 18:29:40.095507,-110.0
2023-08-11 18:29:40.103197,-129.0
2023-08-11 18:29:40.110886,16.0
2023-08-11 18:29:40.118576,568.0
2023-08-11 18:29:40.126266,1272.0
2023-08-11 18:29:40.133955,1399.0
2023-08-11 18:29:40.141645,551.0
2023-08-11 18:29:40.149335,-558.0
2023-08-11 18:29:40.157025,-759.0
2023-08-11 18:29:40.164714,-273.0
2023-08-11 18:29:40.172404,-115.0
2023-08-11 18:29:40.180094,-234.0
2023-08-11 18:29:40.187784,-201.0
2023-08-11 18:29:40.195473,-136.0
2023-08-11 18:29:40.203163,-155.0
2023-08-11 18:29:40.210853,-146.0
2023-08-11 18:29:40.218543,-115.0
2023-08-11 18:29:40.226232,-110.0
2023-08-11 18:29:40.233922,-103.0
2023-08-11 18:29:40.241612,-83.0
2023-08-11 18:29:40.249302,-79.0
2023-08-11 18:29:40.256991,-74.0
2023-08-11 18:29:40.264681,-62.0
2023-08-11 18:29:40.272371,-50.0
2023-08-11 18:29:40.280061,-35.0
2023-08-11 18:29:40.287750,-23.0
2023-08-11 18:29:40.295440,-9.0
2023-08-11 18:29:40.303130,2.0
2023-08-11 18:29:40.310819,11.0
2023-08-11 18:29:40.318509,23.0
2023-08-11 18:29:40.326199,43.0
2023-08-11 18:29:40.333889,57.0
2023-08-11 18:29:40.341578,71.0
2023-08-11 18:29:40.349268,88.0
2023-08-11 18:29:40.356958,103.0
2023-08-11 18:29:40.364648,124.0
2023-08-11 18:29:40.372337,148.0
2023-08-11 18:29:40.380027,170.0
2023-08-11 18:29:40.387717,186.0
2023-08-11 18:29:40.395407,198.0
2023-08-11 18:29:40.403096,206.0
2023-08-11 18:29:40.410786,206.0
2023-08-11 18:29:40.418476,203.0
2023-08-11 18:29:40.426166,186.0
2023-08-11 18:29:40.433855,150.0
2023-08-11 18:29:40.441545,95.0
2023-08-11 18:29:40.449235,26.0
2023-08-11 18:29:40.456925,-40.0
2023-08-11 18:29:40.464614,-93.0
2023-08-11 18:29:40.472304,-141.0
2023-08-11 18:29:40.479994,-174.0
2023-08-11 18:29:40.487683,-198.0
2023-08-11 18:29:40.495373,-215.0
2023-08-11 18:29:40.503063,-215.0
2023-08-11 18:29:40.510753,-206.0
2023-08-11 18:29:40.518442,-198.0
2023-08-11 18:29:40.526132,-191.0
2023-08-11 18:29:40.533822,-182.0
2023-08-11 18:29:40.541512,-177.0
2023-08-11 18:29:40.549201,-167.0
2023-08-11 18:29:40.556891,-155.0
2023-08-11 18:29:40.564581,-148.0
2023-08-11 18:29:40.572271,-146.0
2023-08-11 18:29:40.579960,-141.0
2023-08-11 18:29:40.587650,-136.0
2023-08-11 18:29:40.595340,-134.0
2023-08-11 18:29:40.603030,-129.0
2023-08-11 18:29:40.610719,-127.0
2023-08-11 18:29:40.618409,-124.0
2023-08-11 18:29:40.626099,-127.0
2023-08-11 18:29:40.633789,-127.0
2023-08-11 18:29:40.641478,-124.0
2023-08-11 18:29:40.649168,-122.0
2023-08-11 18:29:40.656858,-122.0
2023-08-11 18:29:40.664547,-119.0
2023-08-11 18:29:40.672237,-119.0
2023-08-11 18:29:40.679927,-122.0
2023-08-11 18:29:40.687617,-115.0
2023-08-11 18:29:40.695306,-112.0
2023-08-11 18:29:40.702996,-112.0
2023-08-11 18:29:40.710686,-112.0
2023-08-11 18:29:40.718376,-110.0
2023-08-11 18:29:40.726065,-107.0
2023-08-11 18:29:40.733755,-107.0
2023-08-11 18:29:40.741445,-107.0
2023-08-11 18:29:40.749135,-107.0
2023-08-11 18:29:40.756824,-105.0
2023-08-11 18:29:40.764514,-103.0
2023-08-11 18:29:40.772204,-100.0
2023-08-11 18:29:40.779894,-98.0
2023-08-11 18:29:40.787583,-95.0
2023-08-11 18:29:40.795273,-95.0
2023-08-11 18:29:40.802963,-95.0
2023-08-11 18:29:40.810653,-95.0
2023-08-11 18:29:40.818342,-100.0
2023-08-11 18:29:40.826032,-98.0
2023-08-11 18:29:40.833722,-93.0
2023-08-11 18:29:40.841411,-93.0
2023-08-11 18:29:40.849101,-95.0
2023-08-11 18:29:40.856791,-93.0
2023-08-11 18:29:40.864481,-95.0
2023-08-11 18:29:40.872170,-98.0
2023-08-11 18:29:40.879860,-93.0
2023-08-11 18:29:40.887550,-95.0
2023-08-11 18:29:40.895240,-100.0
2023-08-11 18:29:40.902929,-98.0
2023-08-11 18:29:40.910619,-93.0
2023-08-11 18:29:40.918309,-93.0
2023-08-11 18:29:40.925999,-91.0
2023-08-11 18:29:40.933688,-88.0
2023-08-11 18:29:40.941378,-91.0
2023-08-11 18:29:40.949068,-91.0
2023-08-11 18:29:40.956758,-86.0
2023-08-11 18:29:40.964447,-83.0
2023-08-11 18:29:40.972137,-86.0
2023-08-11 18:29:40.979827,-93.0
2023-08-11 18:29:40.987517,-95.0
2023-08-11 18:29:40.995206,-93.0
2023-08-11 18:29:41.002896,-91.0
2023-08-11 18:29:41.010586,-88.0
2023-08-11 18:29:41.018275,-88.0
2023-08-11 18:29:41.025965,-93.0
2023-08-11 18:29:41.033655,-100.0
2023-08-11 18:29:41.041345,-100.0
2023-08-11 18:29:41.049034,-98.0
2023-08-11 18:29:41.056724,-93.0
2023-08-11 18:29:41.064414,-59.0
2023-08-11 18:29:41.072104,-19.0
2023-08-11 18:29:41.079793,-16.0
2023-08-11 18:29:41.087483,-23.0
2023-08-11 18:29:41.095173,-23.0
2023-08-11 18:29:41.102863,-50.0
2023-08-11 18:29:41.110552,-88.0
2023-08-11 18:29:41.118242,-98.0
2023-08-11 18:29:41.125932,-91.0
2023-08-11 18:29:41.133622,-91.0
2023-08-11 18:29:41.141311,-93.0
2023-08-11 18:29:41.149001,-91.0
2023-08-11 18:29:41.156691,-91.0
2023-08-11 18:29:41.164381,-91.0
2023-08-11 18:29:41.172070,-93.0
2023-08-11 18:29:41.179760,-117.0
2023-08-11 18:29:41.187450,-110.0
2023-08-11 18:29:41.195139,167.0
2023-08-11 18:29:41.202829,850.0
2023-08-11 18:29:41.210519,1457.0
2023-08-11 18:29:41.218209,1239.0
2023-08-11 18:29:41.225898,134.0
2023-08-11 18:29:41.233588,-774.0
2023-08-11 18:29:41.241278,-618.0
2023-08-11 18:29:41.248968,-153.0
2023-08-11 18:29:41.256657,-160.0
2023-08-11 18:29:41.264347,-254.0
2023-08-11 18:29:41.272037,-172.0
2023-08-11 18:29:41.279727,-139.0
2023-08-11 18:29:41.287416,-165.0
2023-08-11 18:29:41.295106,-139.0
2023-08-11 18:29:41.302796,-107.0
2023-08-11 18:29:41.310486,-110.0
2023-08-11 18:29:41.318175,-98.0
2023-08-11 18:29:41.325865,-76.0
2023-08-11 18:29:41.333555,-71.0
2023-08-11 18:29:41.341245,-67.0
2023-08-11 18:29:41.348934,-52.0
2023-08-11 18:29:41.356624,-38.0
2023-08-11 18:29:41.364314,-26.0
2023-08-11 18:29:41.372004,-16.0
2023-08-11 18:29:41.379693,-4.0
2023-08-11 18:29:41.387383,9.0
2023-08-11 18:29:41.395073,19.0
2023-08-11 18:29:41.402762,31.0
2023-08-11 18:29:41.410452,50.0
2023-08-11 18:29:41.418142,67.0
2023-08-11 18:29:41.425832,79.0
2023-08-11 18:29:41.433521,95.0
2023-08-11 18:29:41.441211,117.0
2023-08-11 18:29:41.448901,139.0
2023-08-11 18:29:41.456591,155.0
2023-08-11 18:29:41.464280,174.0
2023-08-11 18:29:41.471970,191.0
2023-08-11 18:29:41.479660,198.0
2023-08-11 18:29:41.487350,201.0
2023-08-11 18:29:41.495039,206.0
2023-08-11 18:29:41.502729,201.0
2023-08-11 18:29:41.510419,174.0
2023-08-11 18:29:41.518109,124.0
2023-08-11 18:29:41.525798,64.0
2023-08-11 18:29:41.533488,0.0
2023-08-11 18:29:41.541178,-59.0
2023-08-11 18:29:41.548868,-110.0
2023-08-11 18:29:41.556557,-150.0
2023-08-11 18:29:41.564247,-184.0
2023-08-11 18:29:41.571937,-208.0
2023-08-11 18:29:41.579626,-208.0
2023-08-11 18:29:41.587316,-201.0
2023-08-11 18:29:41.595006,-201.0
2023-08-11 18:29:41.602696,-194.0
2023-08-11 18:29:41.610385,-182.0
2023-08-11 18:29:41.618075,-174.0
2023-08-11 18:29:41.625765,-165.0
2023-08-11 18:29:41.633455,-158.0
2023-08-11 18:29:41.641144,-150.0
2023-08-11 18:29:41.648834,-143.0
2023-08-11 18:29:41.656524,-141.0
2023-08-11 18:29:41.664214,-136.0
2023-08-11 18:29:41.671903,-127.0
2023-08-11 18:29:41.679593,-122.0
2023-08-11 18:29:41.687283,-124.0
2023-08-11 18:29:41.694973,-124.0
2023-08-11 18:29:41.702662,-122.0
2023-08-11 18:29:41.710352,-117.0
2023-08-11 18:29:41.718042,-115.0
2023-08-11 18:29:41.725732,-119.0
2023-08-11 18:29:41.733421,-124.0
2023-08-11 18:29:41.741111,-124.0
2023-08-11 18:29:41.748801,-124.0
2023-08-11 18:29:41.756490,-124.0
2023-08-11 18:29:41.764180,-119.0
2023-08-11 18:29:41.771870,-110.0
2023-08-11 18:29:41.779560,-105.0
2023-08-11 18:29:41.787249,-107.0
2023-08-11 18:29:41.794939,-112.0
2023-08-11 18:29:41.802629,-110.0
2023-08-11 18:29:41.810319,-103.0
2023-08-11 18:29:41.818008,-98.0
2023-08-11 18:29:41.825698,-98.0
2023-08-11 18:29:41.833388,-98.0
2023-08-11 18:29:41.841078,-103.0
2023-08-11 18:29:41.848767,-103.0
2023-08-11 18:29:41.856457,-93.0
2023-08-11 18:29:41.864147,-91.0
2023-08-11 18:29:41.871837,-93.0
2023-08-11 18:29:41.879526,-93.0
2023-08-11 18:29:41.887216,-100.0
2023-08-11 18:29:41.894906,-100.0
2023-08-11 18:29:41.902596,-95.0
2023-08-11 18:29:41.910285,-98.0
2023-08-11 18:29:41.917975,-98.0
2023-08-11 18:29:41.925665,-91.0
2023-08-11 18:29:41.933354,-95.0
2023-08-11 18:29:41.941044,-98.0
2023-08-11 18:29:41.948734,-91.0
2023-08-11 18:29:41.956424,-88.0
2023-08-11 18:29:41.964113,-88.0
2023-08-11 18:29:41.971803,-86.0
2023-08-11 18:29:41.979493,-91.0
2023-08-11 18:29:41.987183,-95.0
2023-08-11 18:29:41.994872,-93.0
2023-08-11 18:29:42.002562,-91.0
2023-08-11 18:29:42.010252,-88.0
2023-08-11 18:29:42.017942,-86.0
2023-08-11 18:29:42.025631,-83.0
2023-08-11 18:29:42.033321,-83.0
2023-08-11 18:29:42.041011,-79.0
2023-08-11 18:29:42.048701,-76.0
2023-08-11 18:29:42.056390,-76.0
2023-08-11 18:29:42.064080,-79.0
2023-08-11 18:29:42.071770,-79.0
2023-08-11 18:29:42.079460,-79.0
2023-08-11 18:29:42.087149,-76.0
2023-08-11 18:29:42.094839,-71.0
2023-08-11 18:29:42.102529,-69.0
2023-08-11 18:29:42.110218,-81.0
2023-08-11 18:29:42.117908,-91.0
2023-08-11 18:29:42.125598,-79.0
2023-08-11 18:29:42.133288,-40.0
2023-08-11 18:29:42.140977,-2.0
2023-08-11 18:29:42.148667,-7.0
2023-08-11 18:29:42.156357,-23.0
2023-08-11 18:29:42.164047,-23.0
2023-08-11 18:29:42.171736,-45.0
2023-08-11 18:29:42.179426,-81.0
2023-08-11 18:29:42.187116,-86.0
2023-08-11 18:29:42.194806,-76.0
2023-08-11 18:29:42.202495,-83.0
2023-08-11 18:29:42.210185,-86.0
2023-08-11 18:29:42.217875,-81.0
2023-08-11 18:29:42.225565,-83.0
2023-08-11 18:29:42.233254,-83.0
2023-08-11 18:29:42.240944,-91.0
2023-08-11 18:29:42.248634,-117.0
2023-08-11 18:29:42.256324,-47.0
2023-08-11 18:29:42.264013,393.0
2023-08-11 18:29:42.271703,1124.0
2023-08-11 18:29:42.279393,1457.0
2023-08-11 18:29:42.287082,817.0
2023-08-11 18:29:42.294772,-342.0
2023-08-11 18:29:42.302462,-810.0
2023-08-11 18:29:42.310152,-409.0
2023-08-11 18:29:42.317841,-115.0
2023-08-11 18:29:42.325531,-186.0
2023-08-11 18:29:42.333221,-201.0
2023-08-11 18:29:42.340911,-134.0
2023-08-11 18:29:42.348600,-136.0
2023-08-11 18:29:42.356290,-141.0
2023-08-11 18:29:42.363980,-110.0
2023-08-11 18:29:42.371670,-95.0
2023-08-11 18:29:42.379359,-95.0
2023-08-11 18:29:42.387049,-81.0
2023-08-11 18:29:42.394739,-67.0
2023-08-11 18:29:42.402429,-57.0
2023-08-11 18:29:42.410118,-47.0
2023-08-11 18:29:42.417808,-40.0
2023-08-11 18:29:42.425498,-31.0
2023-08-11 18:29:42.433188,-19.0
2023-08-11 18:29:42.440877,-9.0
2023-08-11 18:29:42.448567,4.0
2023-08-11 18:29:42.456257,16.0
2023-08-11 18:29:42.463946,26.0
2023-08-11 18:29:42.471636,33.0
2023-08-11 18:29:42.479326,40.0
2023-08-11 18:29:42.487016,55.0
2023-08-11 18:29:42.494705,79.0
2023-08-11 18:29:42.502395,100.0
2023-08-11 18:29:42.510085,115.0
2023-08-11 18:29:42.517775,131.0
2023-08-11 18:29:42.525464,153.0
2023-08-11 18:29:42.533154,170.0
2023-08-11 18:29:42.540844,184.0
2023-08-11 18:29:42.548534,191.0
2023-08-11 18:29:42.556223,194.0
2023-08-11 18:29:42.563913,191.0
2023-08-11 18:29:42.571603,177.0
2023-08-11 18:29:42.579293,146.0
2023-08-11 18:29:42.586982,98.0
2023-08-11 18:29:42.594672,35.0
2023-08-11 18:29:42.602362,-28.0
2023-08-11 18:29:42.610052,-83.0
2023-08-11 18:29:42.617741,-131.0
2023-08-11 18:29:42.625431,-165.0
2023-08-11 18:29:42.633121,-184.0
2023-08-11 18:29:42.640810,-191.0
2023-08-11 18:29:42.648500,-191.0
2023-08-11 18:29:42.656190,-191.0
2023-08-11 18:29:42.663880,-184.0
2023-08-11 18:29:42.671569,-174.0
2023-08-11 18:29:42.679259,-167.0
2023-08-11 18:29:42.686949,-160.0
2023-08-11 18:29:42.694639,-155.0
2023-08-11 18:29:42.702328,-148.0
2023-08-11 18:29:42.710018,-141.0
2023-08-11 18:29:42.717708,-139.0
2023-08-11 18:29:42.725398,-131.0
2023-08-11 18:29:42.733087,-131.0
2023-08-11 18:29:42.740777,-139.0
2023-08-11 18:29:42.748467,-139.0
2023-08-11 18:29:42.756157,-134.0
2023-08-11 18:29:42.763846,-134.0
2023-08-11 18:29:42.771536,-134.0
2023-08-11 18:29:42.779226,-134.0
2023-08-11 18:29:42.786916,-131.0
2023-08-11 18:29:42.794605,-127.0
2023-08-11 18:29:42.802295,-129.0
2023-08-11 18:29:42.809985,-131.0
2023-08-11 18:29:42.817674,-127.0
2023-08-11 18:29:42.825364,-129.0
2023-08-11 18:29:42.833054,-131.0
2023-08-11 18:29:42.840744,-124.0
2023-08-11 18:29:42.848433,-117.0
2023-08-11 18:29:42.856123,-119.0
2023-08-11 18:29:42.863813,-119.0
2023-08-11 18:29:42.871503,-117.0
2023-08-11 18:29:42.879192,-119.0
2023-08-11 18:29:42.886882,-119.0
2023-08-11 18:29:42.894572,-119.0
2023-08-11 18:29:42.902262,-119.0
2023-08-11 18:29:42.909951,-115.0
2023-08-11 18:29:42.917641,-112.0
2023-08-11 18:29:42.925331,-112.0
2023-08-11 18:29:42.933021,-112.0
2023-08-11 18:29:42.940710,-110.0
2023-08-11 18:29:42.948400,-110.0
2023-08-11 18:29:42.956090,-110.0
2023-08-11 18:29:42.963780,-107.0
2023-08-11 18:29:42.971469,-105.0
2023-08-11 18:29:42.979159,-110.0
2023-08-11 18:29:42.986849,-117.0
2023-08-11 18:29:42.994538,-112.0
2023-08-11 18:29:43.002228,-105.0
2023-08-11 18:29:43.009918,-107.0
2023-08-11 18:29:43.017608,-107.0
2023-08-11 18:29:43.025297,-103.0
2023-08-11 18:29:43.032987,-103.0
2023-08-11 18:29:43.040677,-100.0
2023-08-11 18:29:43.048367,-98.0
2023-08-11 18:29:43.056056,-98.0
2023-08-11 18:29:43.063746,-95.0
2023-08-11 18:29:43.071436,-93.0
2023-08-11 18:29:43.079126,-93.0
2023-08-11 18:29:43.086815,-93.0
2023-08-11 18:29:43.094505,-93.0
2023-08-11 18:29:43.102195,-91.0
2023-08-11 18:29:43.109885,-88.0
2023-08-11 18:29:43.117574,-86.0
2023-08-11 18:29:43.125264,-86.0
2023-08-11 18:29:43.132954,-86.0
2023-08-11 18:29:43.140644,-83.0
2023-08-11 18:29:43.148333,-81.0
2023-08-11 18:29:43.156023,-81.0
2023-08-11 18:29:43.163713,-81.0
2023-08-11 18:29:43.171403,-86.0
2023-08-11 18:29:43.179092,-91.0
2023-08-11 18:29:43.186782,-86.0
2023-08-11 18:29:43.194472,-52.0
2023-08-11 18:29:43.202161,-14.0
2023-08-11 18:29:43.209851,-14.0
2023-08-11 18:29:43.217541,-23.0
2023-08-11 18:29:43.225231,-21.0
2023-08-11 18:29:43.232920,-50.0
2023-08-11 18:29:43.240610,-91.0
2023-08-11 18:29:43.248300,-93.0
2023-08-11 18:29:43.255990,-83.0
2023-08-11 18:29:43.263679,-88.0
2023-08-11 18:29:43.271369,-95.0
2023-08-11 18:29:43.279059,-100.0
2023-08-11 18:29:43.286749,-105.0
2023-08-11 18:29:43.294438,-98.0
2023-08-11 18:29:43.302128,-98.0
2023-08-11 18:29:43.309818,-129.0
2023-08-11 18:29:43.317508,-76.0
2023-08-11 18:29:43.325197,330.0
2023-08-11 18:29:43.332887,1047.0
2023-08-11 18:29:43.340577,1454.0
2023-08-11 18:29:43.348267,929.0
2023-08-11 18:29:43.355956,-237.0
2023-08-11 18:29:43.363646,-829.0
2023-08-11 18:29:43.371336,-462.0
2023-08-11 18:29:43.379025,-112.0
2023-08-11 18:29:43.386715,-189.0
2023-08-11 18:29:43.394405,-225.0
2023-08-11 18:29:43.402095,-146.0
2023-08-11 18:29:43.409784,-143.0
2023-08-11 18:29:43.417474,-155.0
2023-08-11 18:29:43.425164,-122.0
2023-08-11 18:29:43.432854,-103.0
2023-08-11 18:29:43.440543,-103.0
2023-08-11 18:29:43.448233,-93.0
2023-08-11 18:29:43.455923,-83.0
2023-08-11 18:29:43.463613,-76.0
2023-08-11 18:29:43.471302,-64.0
2023-08-11 18:29:43.478992,-52.0
2023-08-11 18:29:43.486682,-47.0
2023-08-11 18:29:43.494372,-43.0
2023-08-11 18:29:43.502061,-28.0
2023-08-11 18:29:43.509751,-11.0
2023-08-11 18:29:43.517441,0.0
2023-08-11 18:29:43.525131,14.0
2023-08-11 18:29:43.532820,28.0
2023-08-11 18:29:43.540510,40.0
2023-08-11 18:29:43.548200,52.0
2023-08-11 18:29:43.555889,71.0
2023-08-11 18:29:43.563579,93.0
2023-08-11 18:29:43.571269,112.0
2023-08-11 18:29:43.578959,131.0
2023-08-11 18:29:43.586648,153.0
2023-08-11 18:29:43.594338,170.0
2023-08-11 18:29:43.602028,182.0
2023-08-11 18:29:43.609718,194.0
2023-08-11 18:29:43.617407,201.0
2023-08-11 18:29:43.625097,196.0
2023-08-11 18:29:43.632787,179.0
2023-08-11 18:29:43.640477,148.0
2023-08-11 18:29:43.648166,103.0
2023-08-11 18:29:43.655856,43.0
2023-08-11 18:29:43.663546,-23.0
2023-08-11 18:29:43.671236,-81.0
2023-08-11 18:29:43.678925,-129.0
2023-08-11 18:29:43.686615,-167.0
2023-08-11 18:29:43.694305,-191.0
2023-08-11 18:29:43.701995,-203.0
2023-08-11 18:29:43.709684,-208.0
2023-08-11 18:29:43.717374,-203.0
2023-08-11 18:29:43.725064,-198.0
2023-08-11 18:29:43.732753,-194.0
2023-08-11 18:29:43.740443,-182.0
2023-08-11 18:29:43.748133,-172.0
2023-08-11 18:29:43.755823,-165.0
2023-08-11 18:29:43.763512,-155.0
2023-08-11 18:29:43.771202,-148.0
2023-08-11 18:29:43.778892,-146.0
2023-08-11 18:29:43.786582,-139.0
2023-08-11 18:29:43.794271,-131.0
2023-08-11 18:29:43.801961,-129.0
2023-08-11 18:29:43.809651,-129.0
2023-08-11 18:29:43.817341,-129.0
2023-08-11 18:29:43.825030,-129.0
2023-08-11 18:29:43.832720,-129.0
2023-08-11 18:29:43.840410,-127.0
2023-08-11 18:29:43.848100,-127.0
2023-08-11 18:29:43.855789,-127.0
2023-08-11 18:29:43.863479,-134.0
2023-08-11 18:29:43.871169,-139.0
2023-08-11 18:29:43.878859,-136.0
2023-08-11 18:29:43.886548,-134.0
2023-08-11 18:29:43.894238,-134.0
2023-08-11 18:29:43.901928,-129.0
2023-08-11 18:29:43.909617,-129.0
2023-08-11 18:29:43.917307,-129.0
2023-08-11 18:29:43.924997,-124.0
2023-08-11 18:29:43.932687,-124.0
2023-08-11 18:29:43.940376,-129.0
2023-08-11 18:29:43.948066,-129.0
2023-08-11 18:29:43.955756,-131.0
2023-08-11 18:29:43.963446,-131.0
2023-08-11 18:29:43.971135,-122.0
2023-08-11 18:29:43.978825,-117.0
2023-08-11 18:29:43.986515,-119.0
2023-08-11 18:29:43.994205,-122.0
2023-08-11 18:29:44.001894,-124.0
2023-08-11 18:29:44.009584,-119.0
2023-08-11 18:29:44.017274,-115.0
2023-08-11 18:29:44.024964,-112.0
2023-08-11 18:29:44.032653,-112.0
2023-08-11 18:29:44.040343,-110.0
2023-08-11 18:29:44.048033,-110.0
2023-08-11 18:29:44.055723,-110.0
2023-08-11 18:29:44.063412,-105.0
2023-08-11 18:29:44.071102,-105.0
2023-08-11 18:29:44.078792,-103.0
2023-08-11 18:29:44.086481,-103.0
2023-08-11 18:29:44.094171,-105.0
2023-08-11 18:29:44.101861,-100.0
2023-08-11 18:29:44.109551,-95.0
2023-08-11 18:29:44.117240,-95.0
2023-08-11 18:29:44.124930,-93.0
2023-08-11 18:29:44.132620,-93.0
2023-08-11 18:29:44.140310,-95.0
2023-08-11 18:29:44.147999,-91.0
2023-08-11 18:29:44.155689,-88.0
2023-08-11 18:29:44.163379,-88.0
2023-08-11 18:29:44.171069,-88.0
2023-08-11 18:29:44.178758,-88.0
2023-08-11 18:29:44.186448,-88.0
2023-08-11 18:29:44.194138,-91.0
2023-08-11 18:29:44.201828,-86.0
2023-08-11 18:29:44.209517,-81.0
2023-08-11 18:29:44.217207,-83.0
2023-08-11 18:29:44.224897,-86.0
2023-08-11 18:29:44.232587,-83.0
2023-08-11 18:29:44.240276,-81.0
2023-08-11 18:29:44.247966,-79.0
2023-08-11 18:29:44.255656,-79.0
2023-08-11 18:29:44.263345,-79.0
2023-08-11 18:29:44.271035,-81.0
2023-08-11 18:29:44.278725,-83.0
2023-08-11 18:29:44.286415,-86.0
2023-08-11 18:29:44.294104,-83.0
2023-08-11 18:29:44.301794,-57.0
2023-08-11 18:29:44.309484,-14.0
2023-08-11 18:29:44.317174,-2.0
2023-08-11 18:29:44.324863,-14.0
2023-08-11 18:29:44.332553,-14.0
2023-08-11 18:29:44.340243,-26.0
2023-08-11 18:29:44.347933,-69.0
2023-08-11 18:29:44.355622,-88.0
2023-08-11 18:29:44.363312,-81.0
2023-08-11 18:29:44.371002,-79.0
2023-08-11 18:29:44.378692,-86.0
2023-08-11 18:29:44.386381,-83.0
2023-08-11 18:29:44.394071,-81.0
2023-08-11 18:29:44.401761,-91.0
2023-08-11 18:29:44.409451,-98.0
2023-08-11 18:29:44.417140,-115.0
2023-08-11 18:29:44.424830,-107.0
2023-08-11 18:29:44.432520,155.0
2023-08-11 18:29:44.440209,824.0
2023-08-11 18:29:44.447899,1428.0
2023-08-11 18:29:44.455589,1227.0
2023-08-11 18:29:44.463279,146.0
2023-08-11 18:29:44.470968,-762.0
2023-08-11 18:29:44.478658,-620.0
2023-08-11 18:29:44.486348,-153.0
2023-08-11 18:29:44.494038,-148.0
2023-08-11 18:29:44.501727,-249.0
2023-08-11 18:29:44.509417,-179.0
2023-08-11 18:29:44.517107,-143.0
2023-08-11 18:29:44.524797,-165.0
2023-08-11 18:29:44.532486,-139.0
2023-08-11 18:29:44.540176,-110.0
2023-08-11 18:29:44.547866,-110.0
2023-08-11 18:29:44.555556,-105.0
2023-08-11 18:29:44.563245,-86.0
2023-08-11 18:29:44.570935,-74.0
2023-08-11 18:29:44.578625,-64.0
2023-08-11 18:29:44.586315,-52.0
2023-08-11 18:29:44.594004,-40.0
2023-08-11 18:29:44.601694,-31.0
2023-08-11 18:29:44.609384,-19.0
2023-08-11 18:29:44.617073,-7.0
2023-08-11 18:29:44.624763,4.0
2023-08-11 18:29:44.632453,14.0
2023-08-11 18:29:44.640143,31.0
2023-08-11 18:29:44.647832,45.0
2023-08-11 18:29:44.655522,59.0
2023-08-11 18:29:44.663212,74.0
2023-08-11 18:29:44.670902,91.0
2023-08-11 18:29:44.678591,105.0
2023-08-11 18:29:44.686281,122.0
2023-08-11 18:29:44.693971,141.0
2023-08-11 18:29:44.701661,162.0
2023-08-11 18:29:44.709350,179.0
2023-08-11 18:29:44.717040,189.0
2023-08-11 18:29:44.724730,196.0
2023-08-11 18:29:44.732420,201.0
2023-08-11 18:29:44.740109,196.0
2023-08-11 18:29:44.747799,172.0
2023-08-11 18:29:44.755489,136.0
2023-08-11 18:29:44.763179,83.0
2023-08-11 18:29:44.770868,16.0
2023-08-11 18:29:44.778558,-45.0
2023-08-11 18:29:44.786248,-100.0
2023-08-11 18:29:44.793938,-143.0
2023-08-11 18:29:44.801627,-172.0
2023-08-11 18:29:44.809317,-186.0
2023-08-11 18:29:44.817007,-191.0
2023-08-11 18:29:44.824696,-191.0
2023-08-11 18:29:44.832386,-191.0
2023-08-11 18:29:44.840076,-186.0
2023-08-11 18:29:44.847766,-179.0
2023-08-11 18:29:44.855455,-172.0
2023-08-11 18:29:44.863145,-162.0
2023-08-11 18:29:44.870835,-153.0
2023-08-11 18:29:44.878525,-148.0
2023-08-11 18:29:44.886214,-143.0
2023-08-11 18:29:44.893904,-139.0
2023-08-11 18:29:44.901594,-134.0
2023-08-11 18:29:44.909284,-129.0
2023-08-11 18:29:44.916973,-124.0
2023-08-11 18:29:44.924663,-124.0
2023-08-11 18:29:44.932353,-129.0
2023-08-11 18:29:44.940043,-136.0
2023-08-11 18:29:44.947732,-139.0
2023-08-11 18:29:44.955422,-136.0
2023-08-11 18:29:44.963112,-139.0
2023-08-11 18:29:44.970802,-141.0
2023-08-11 18:29:44.978491,-136.0
2023-08-11 18:29:44.986181,-134.0
2023-08-11 18:29:44.993871,-134.0
2023-08-11 18:29:45.001560,-134.0
2023-08-11 18:29:45.009250,-139.0
2023-08-11 18:29:45.016940,-141.0
2023-08-11 18:29:45.024630,-139.0
2023-08-11 18:29:45.032319,-136.0
2023-08-11 18:29:45.040009,-139.0
2023-08-11 18:29:45.047699,-134.0
2023-08-11 18:29:45.055389,-127.0
2023-08-11 18:29:45.063078,-124.0
2023-08-11 18:29:45.070768,-127.0
2023-08-11 18:29:45.078458,-122.0
2023-08-11 18:29:45.086148,-119.0
2023-08-11 18:29:45.093837,-119.0
2023-08-11 18:29:45.101527,-115.0
2023-08-11 18:29:45.109217,-112.0
2023-08-11 18:29:45.116907,-112.0
2023-08-11 18:29:45.124596,-112.0
2023-08-11 18:29:45.132286,-110.0
2023-08-11 18:29:45.139976,-107.0
2023-08-11 18:29:45.147666,-105.0
2023-08-11 18:29:45.155355,-105.0
2023-08-11 18:29:45.163045,-103.0
2023-08-11 18:29:45.170735,-100.0
2023-08-11 18:29:45.178424,-105.0
2023-08-11 18:29:45.186114,-105.0
2023-08-11 18:29:45.193804,-100.0
2023-08-11 18:29:45.201494,-98.0
2023-08-11 18:29:45.209183,-100.0
2023-08-11 18:29:45.216873,-103.0
2023-08-11 18:29:45.224563,-95.0
2023-08-11 18:29:45.232253,-91.0
2023-08-11 18:29:45.239942,-93.0
2023-08-11 18:29:45.247632,-93.0
2023-08-11 18:29:45.255322,-93.0
2023-08-11 18:29:45.263012,-91.0
2023-08-11 18:29:45.270701,-88.0
2023-08-11 18:29:45.278391,-86.0
2023-08-11 18:29:45.286081,-86.0
2023-08-11 18:29:45.293771,-86.0
2023-08-11 18:29:45.301460,-86.0
2023-08-11 18:29:45.309150,-86.0
2023-08-11 18:29:45.316840,-81.0
2023-08-11 18:29:45.324530,-81.0
2023-08-11 18:29:45.332219,-79.0
2023-08-11 18:29:45.339909,-76.0
2023-08-11 18:29:45.347599,-79.0
2023-08-11 18:29:45.355288,-81.0
2023-08-11 18:29:45.362978,-76.0
2023-08-11 18:29:45.370668,-74.0
2023-08-11 18:29:45.378358,-74.0
2023-08-11 18:29:45.386047,-76.0
2023-08-11 18:29:45.393737,-79.0
2023-08-11 18:29:45.401427,-81.0
2023-08-11 18:29:45.409117,-86.0
2023-08-11 18:29:45.416806,-74.0
2023-08-11 18:29:45.424496,-35.0
2023-08-11 18:29:45.432186,-7.0
2023-08-11 18:29:45.439876,-11.0
2023-08-11 18:29:45.447565,-14.0
2023-08-11 18:29:45.455255,-14.0
2023-08-11 18:29:45.462945,-47.0
2023-08-11 18:29:45.470635,-83.0
2023-08-11 18:29:45.478324,-93.0
2023-08-11 18:29:45.486014,-98.0
2023-08-11 18:29:45.493704,-100.0
2023-08-11 18:29:45.501394,-93.0
2023-08-11 18:29:45.509083,-95.0
2023-08-11 18:29:45.516773,-100.0
2023-08-11 18:29:45.524463,-95.0
2023-08-11 18:29:45.532152,-105.0
2023-08-11 18:29:45.539842,-134.0
2023-08-11 18:29:45.547532,-26.0
2023-08-11 18:29:45.555222,484.0
2023-08-11 18:29:45.562911,1227.0
2023-08-11 18:29:45.570601,1485.0
2023-08-11 18:29:45.578291,733.0
2023-08-11 18:29:45.585981,-460.0
2023-08-11 18:29:45.593670,-824.0
2023-08-11 18:29:45.601360,-352.0
2023-08-11 18:29:45.609050,-103.0
2023-08-11 18:29:45.616740,-218.0
2023-08-11 18:29:45.624429,-215.0
2023-08-11 18:29:45.632119,-139.0
2023-08-11 18:29:45.639809,-148.0
2023-08-11 18:29:45.647499,-150.0
2023-08-11 18:29:45.655188,-112.0
2023-08-11 18:29:45.662878,-105.0
2023-08-11 18:29:45.670568,-107.0
2023-08-11 18:29:45.678258,-91.0
2023-08-11 18:29:45.685947,-74.0
2023-08-11 18:29:45.693637,-64.0
2023-08-11 18:29:45.701327,-52.0
2023-08-11 18:29:45.709016,-43.0
2023-08-11 18:29:45.716706,-35.0
2023-08-11 18:29:45.724396,-21.0
2023-08-11 18:29:45.732086,-7.0
2023-08-11 18:29:45.739775,2.0
2023-08-11 18:29:45.747465,11.0
2023-08-11 18:29:45.755155,26.0
2023-08-11 18:29:45.762845,38.0
2023-08-11 18:29:45.770534,55.0
2023-08-11 18:29:45.778224,71.0
2023-08-11 18:29:45.785914,81.0
2023-08-11 18:29:45.793604,98.0
2023-08-11 18:29:45.801293,119.0
2023-08-11 18:29:45.808983,139.0
2023-08-11 18:29:45.816673,158.0
2023-08-11 18:29:45.824363,177.0
2023-08-11 18:29:45.832052,194.0
2023-08-11 18:29:45.839742,201.0
2023-08-11 18:29:45.847432,201.0
2023-08-11 18:29:45.855122,198.0
2023-08-11 18:29:45.862811,186.0
2023-08-11 18:29:45.870501,160.0
2023-08-11 18:29:45.878191,115.0
2023-08-11 18:29:45.885880,55.0
2023-08-11 18:29:45.893570,-14.0
2023-08-11 18:29:45.901260,-74.0
2023-08-11 18:29:45.908950,-122.0
2023-08-11 18:29:45.916639,-158.0
2023-08-11 18:29:45.924329,-179.0
2023-08-11 18:29:45.932019,-191.0
2023-08-11 18:29:45.939709,-196.0
2023-08-11 18:29:45.947398,-194.0
2023-08-11 18:29:45.955088,-189.0
2023-08-11 18:29:45.962778,-182.0
2023-08-11 18:29:45.970468,-172.0
2023-08-11 18:29:45.978157,-165.0
2023-08-11 18:29:45.985847,-160.0
2023-08-11 18:29:45.993537,-153.0
2023-08-11 18:29:46.001227,-146.0
2023-08-11 18:29:46.008916,-146.0
2023-08-11 18:29:46.016606,-143.0
2023-08-11 18:29:46.024296,-141.0
2023-08-11 18:29:46.031986,-143.0
2023-08-11 18:29:46.039675,-141.0
2023-08-11 18:29:46.047365,-134.0
2023-08-11 18:29:46.055055,-134.0
2023-08-11 18:29:46.062744,-136.0
2023-08-11 18:29:46.070434,-131.0
2023-08-11 18:29:46.078124,-134.0
2023-08-11 18:29:46.085814,-141.0
2023-08-11 18:29:46.093503,-131.0
2023-08-11 18:29:46.101193,-129.0
2023-08-11 18:29:46.108883,-143.0
2023-08-11 18:29:46.116573,-148.0
2023-08-11 18:29:46.124262,-141.0
2023-08-11 18:29:46.131952,-139.0
2023-08-11 18:29:46.139642,-136.0
2023-08-11 18:29:46.147332,-129.0
2023-08-11 18:29:46.155021,-127.0
2023-08-11 18:29:46.162711,-131.0
2023-08-11 18:29:46.170401,-131.0
2023-08-11 18:29:46.178091,-122.0
2023-08-11 18:29:46.185780,-117.0
2023-08-11 18:29:46.193470,-117.0
2023-08-11 18:29:46.201160,-117.0
2023-08-11 18:29:46.208850,-117.0
2023-08-11 18:29:46.216539,-115.0
2023-08-11 18:29:46.224229,-112.0
2023-08-11 18:29:46.231919,-107.0
2023-08-11 18:29:46.239608,-107.0
2023-08-11 18:29:46.247298,-107.0
2023-08-11 18:29:46.254988,-105.0
2023-08-11 18:29:46.262678,-100.0
2023-08-11 18:29:46.270367,-103.0
2023-08-11 18:29:46.278057,-100.0
2023-08-11 18:29:46.285747,-93.0
2023-08-11 18:29:46.293437,-95.0
2023-08-11 18:29:46.301126,-95.0
2023-08-11 18:29:46.308816,-91.0
2023-08-11 18:29:46.316506,-91.0
2023-08-11 18:29:46.324196,-91.0
2023-08-11 18:29:46.331885,-88.0
2023-08-11 18:29:46.339575,-86.0
2023-08-11 18:29:46.347265,-86.0
2023-08-11 18:29:46.354955,-86.0
2023-08-11 18:29:46.362644,-83.0
2023-08-11 18:29:46.370334,-83.0
2023-08-11 18:29:46.378024,-81.0
2023-08-11 18:29:46.385714,-79.0
2023-08-11 18:29:46.393403,-76.0
2023-08-11 18:29:46.401093,-74.0
2023-08-11 18:29:46.408783,-81.0
2023-08-11 18:29:46.416473,-83.0
2023-08-11 18:29:46.424162,-81.0
2023-08-11 18:29:46.431852,-79.0
2023-08-11 18:29:46.439542,-74.0
2023-08-11 18:29:46.447231,-74.0
2023-08-11 18:29:46.454921,-74.0
2023-08-11 18:29:46.462611,-74.0
2023-08-11 18:29:46.470301,-76.0
2023-08-11 18:29:46.477990,-74.0
2023-08-11 18:29:46.485680,-71.0
2023-08-11 18:29:46.493370,-79.0
2023-08-11 18:29:46.501060,-81.0
2023-08-11 18:29:46.508749,-50.0
2023-08-11 18:29:46.516439,-14.0
2023-08-11 18:29:46.524129,-11.0
2023-08-11 18:29:46.531819,-14.0
2023-08-11 18:29:46.539508,-11.0
2023-08-11 18:29:46.547198,-38.0
2023-08-11 18:29:46.554888,-79.0
2023-08-11 18:29:46.562578,-86.0
2023-08-11 18:29:46.570267,-76.0
2023-08-11 18:29:46.577957,-76.0
2023-08-11 18:29:46.585647,-83.0
2023-08-11 18:29:46.593337,-83.0
2023-08-11 18:29:46.601026,-76.0
2023-08-11 18:29:46.608716,-76.0
2023-08-11 18:29:46.616406,-83.0
2023-08-11 18:29:46.624095,-107.0
2023-08-11 18:29:46.631785,-40.0
2023-08-11 18:29:46.639475,393.0
2023-08-11 18:29:46.647165,1119.0
2023-08-11 18:29:46.654854,1457.0
2023-08-11 18:29:46.662544,822.0
2023-08-11 18:29:46.670234,-335.0
2023-08-11 18:29:46.677924,-812.0
2023-08-11 18:29:46.685613,-417.0
2023-08-11 18:29:46.693303,-119.0
2023-08-11 18:29:46.700993,-198.0
2023-08-11 18:29:46.708683,-218.0
2023-08-11 18:29:46.716372,-141.0
2023-08-11 18:29:46.724062,-143.0
2023-08-11 18:29:46.731752,-148.0
2023-08-11 18:29:46.739442,-115.0
2023-08-11 18:29:46.747131,-103.0
2023-08-11 18:29:46.754821,-103.0
2023-08-11 18:29:46.762511,-88.0
2023-08-11 18:29:46.770201,-74.0
2023-08-11 18:29:46.777890,-64.0
2023-08-11 18:29:46.785580,-57.0
2023-08-11 18:29:46.793270,-47.0
2023-08-11 18:29:46.800959,-38.0
2023-08-11 18:29:46.808649,-23.0
2023-08-11 18:29:46.816339,-11.0
2023-08-11 18:29:46.824029,-2.0
2023-08-11 18:29:46.831718,4.0
2023-08-11 18:29:46.839408,14.0
2023-08-11 18:29:46.847098,31.0
2023-08-11 18:29:46.854788,47.0
2023-08-11 18:29:46.862477,62.0
2023-08-11 18:29:46.870167,74.0
2023-08-11 18:29:46.877857,91.0
2023-08-11 18:29:46.885547,107.0
2023-08-11 18:29:46.893236,124.0
2023-08-11 18:29:46.900926,143.0
2023-08-11 18:29:46.908616,160.0
2023-08-11 18:29:46.916306,174.0
2023-08-11 18:29:46.923995,182.0
2023-08-11 18:29:46.931685,184.0
2023-08-11 18:29:46.939375,186.0
2023-08-11 18:29:46.947065,179.0
2023-08-11 18:29:46.954754,150.0
2023-08-11 18:29:46.962444,98.0
2023-08-11 18:29:46.970134,40.0
2023-08-11 18:29:46.977823,-19.0
2023-08-11 18:29:46.985513,-76.0
2023-08-11 18:29:46.993203,-124.0
2023-08-11 18:29:47.000893,-158.0
2023-08-11 18:29:47.008582,-182.0
2023-08-11 18:29:47.016272,-194.0
2023-08-11 18:29:47.023962,-198.0
2023-08-11 18:29:47.031652,-201.0
2023-08-11 18:29:47.039341,-191.0
2023-08-11 18:29:47.047031,-182.0
2023-08-11 18:29:47.054721,-179.0
2023-08-11 18:29:47.062411,-172.0
2023-08-11 18:29:47.070100,-165.0
2023-08-11 18:29:47.077790,-153.0
2023-08-11 18:29:47.085480,-148.0
2023-08-11 18:29:47.093170,-150.0
2023-08-11 18:29:47.100859,-148.0
2023-08-11 18:29:47.108549,-136.0
2023-08-11 18:29:47.116239,-131.0
2023-08-11 18:29:47.123929,-134.0
2023-08-11 18:29:47.131618,-131.0
2023-08-11 18:29:47.139308,-131.0
2023-08-11 18:29:47.146998,-143.0
2023-08-11 18:29:47.154687,-146.0
2023-08-11 18:29:47.162377,-141.0
2023-08-11 18:29:47.170067,-141.0
2023-08-11 18:29:47.177757,-141.0
2023-08-11 18:29:47.185446,-141.0
2023-08-11 18:29:47.193136,-148.0
2023-08-11 18:29:47.200826,-148.0
2023-08-11 18:29:47.208516,-141.0
2023-08-11 18:29:47.216205,-136.0
2023-08-11 18:29:47.223895,-136.0
2023-08-11 18:29:47.231585,-136.0
2023-08-11 18:29:47.239275,-134.0
2023-08-11 18:29:47.246964,-129.0
2023-08-11 18:29:47.254654,-124.0
2023-08-11 18:29:47.262344,-124.0
2023-08-11 18:29:47.270034,-124.0
2023-08-11 18:29:47.277723,-122.0
2023-08-11 18:29:47.285413,-119.0
2023-08-11 18:29:47.293103,-115.0
2023-08-11 18:29:47.300793,-112.0
2023-08-11 18:29:47.308482,-112.0
2023-08-11 18:29:47.316172,-110.0
2023-08-11 18:29:47.323862,-107.0
2023-08-11 18:29:47.331551,-110.0
2023-08-11 18:29:47.339241,-107.0
2023-08-11 18:29:47.346931,-105.0
2023-08-11 18:29:47.354621,-103.0
2023-08-11 18:29:47.362310,-100.0
2023-08-11 18:29:47.370000,-103.0
2023-08-11 18:29:47.377690,-103.0
2023-08-11 18:29:47.385380,-98.0
2023-08-11 18:29:47.393069,-98.0
2023-08-11 18:29:47.400759,-100.0
2023-08-11 18:29:47.408449,-98.0
2023-08-11 18:29:47.416139,-98.0
2023-08-11 18:29:47.423828,-98.0
2023-08-11 18:29:47.431518,-93.0
2023-08-11 18:29:47.439208,-91.0
2023-08-11 18:29:47.446898,-88.0
2023-08-11 18:29:47.454587,-88.0
2023-08-11 18:29:47.462277,-91.0
2023-08-11 18:29:47.469967,-91.0
2023-08-11 18:29:47.477657,-86.0
2023-08-11 18:29:47.485346,-83.0
2023-08-11 18:29:47.493036,-86.0
2023-08-11 18:29:47.500726,-83.0
2023-08-11 18:29:47.508415,-83.0
2023-08-11 18:29:47.516105,-83.0
2023-08-11 18:29:47.523795,-88.0
2023-08-11 18:29:47.531485,-91.0
2023-08-11 18:29:47.539174,-86.0
2023-08-11 18:29:47.546864,-81.0
2023-08-11 18:29:47.554554,-81.0
2023-08-11 18:29:47.562244,-86.0
2023-08-11 18:29:47.569933,-83.0
2023-08-11 18:29:47.577623,-88.0
2023-08-11 18:29:47.585313,-91.0
2023-08-11 18:29:47.593003,-69.0
2023-08-11 18:29:47.600692,-26.0
2023-08-11 18:29:47.608382,-7.0
2023-08-11 18:29:47.616072,-16.0
2023-08-11 18:29:47.623762,-16.0
2023-08-11 18:29:47.631451,-26.0
2023-08-11 18:29:47.639141,-69.0
2023-08-11 18:29:47.646831,-98.0
2023-08-11 18:29:47.654521,-91.0
2023-08-11 18:29:47.662210,-86.0
2023-08-11 18:29:47.669900,-91.0
2023-08-11 18:29:47.677590,-86.0
2023-08-11 18:29:47.685279,-83.0
2023-08-11 18:29:47.692969,-88.0
2023-08-11 18:29:47.700659,-91.0
2023-08-11 18:29:47.708349,-105.0
2023-08-11 18:29:47.716038,-107.0
2023-08-11 18:29:47.723728,127.0
2023-08-11 18:29:47.731418,764.0
2023-08-11 18:29:47.739108,1387.0
2023-08-11 18:29:47.746797,1246.0
2023-08-11 18:29:47.754487,208.0
2023-08-11 18:29:47.762177,-730.0
2023-08-11 18:29:47.769867,-651.0
2023-08-11 18:29:47.777556,-189.0
2023-08-11 18:29:47.785246,-150.0
2023-08-11 18:29:47.792936,-239.0
2023-08-11 18:29:47.800626,-172.0
2023-08-11 18:29:47.808315,-139.0
2023-08-11 18:29:47.816005,-158.0
2023-08-11 18:29:47.823695,-136.0
2023-08-11 18:29:47.831385,-110.0
2023-08-11 18:29:47.839074,-107.0
2023-08-11 18:29:47.846764,-98.0
2023-08-11 18:29:47.854454,-81.0
2023-08-11 18:29:47.862143,-74.0
2023-08-11 18:29:47.869833,-64.0
2023-08-11 18:29:47.877523,-52.0
2023-08-11 18:29:47.885213,-47.0
2023-08-11 18:29:47.892902,-38.0
2023-08-11 18:29:47.900592,-21.0
2023-08-11 18:29:47.908282,-9.0
2023-08-11 18:29:47.915972,0.0
2023-08-11 18:29:47.923661,11.0
2023-08-11 18:29:47.931351,23.0
2023-08-11 18:29:47.939041,38.0
2023-08-11 18:29:47.946731,55.0
2023-08-11 18:29:47.954420,69.0
2023-08-11 18:29:47.962110,83.0
2023-08-11 18:29:47.969800,100.0
2023-08-11 18:29:47.977490,122.0
2023-08-11 18:29:47.985179,143.0
2023-08-11 18:29:47.992869,162.0
2023-08-11 18:29:48.000559,179.0
2023-08-11 18:29:48.008249,189.0
2023-08-11 18:29:48.015938,198.0
2023-08-11 18:29:48.023628,196.0
2023-08-11 18:29:48.031318,184.0
2023-08-11 18:29:48.039008,162.0
2023-08-11 18:29:48.046697,124.0
2023-08-11 18:29:48.054387,67.0
2023-08-11 18:29:48.062077,2.0
2023-08-11 18:29:48.069766,-59.0
2023-08-11 18:29:48.077456,-110.0
2023-08-11 18:29:48.085146,-148.0
2023-08-11 18:29:48.092836,-179.0
2023-08-11 18:29:48.100525,-196.0
2023-08-11 18:29:48.108215,-201.0
2023-08-11 18:29:48.115905,-203.0
2023-08-11 18:29:48.123595,-201.0
2023-08-11 18:29:48.131284,-196.0
2023-08-11 18:29:48.138974,-191.0
2023-08-11 18:29:48.146664,-182.0
2023-08-11 18:29:48.154354,-172.0
2023-08-11 18:29:48.162043,-165.0
2023-08-11 18:29:48.169733,-155.0
2023-08-11 18:29:48.177423,-148.0
2023-08-11 18:29:48.185113,-146.0
2023-08-11 18:29:48.192802,-141.0
2023-08-11 18:29:48.200492,-139.0
2023-08-11 18:29:48.208182,-141.0
2023-08-11 18:29:48.215872,-136.0
2023-08-11 18:29:48.223561,-134.0
2023-08-11 18:29:48.231251,-136.0
2023-08-11 18:29:48.238941,-134.0
2023-08-11 18:29:48.246630,-134.0
2023-08-11 18:29:48.254320,-141.0
2023-08-11 18:29:48.262010,-139.0
2023-08-11 18:29:48.269700,-139.0
2023-08-11 18:29:48.277389,-143.0
2023-08-11 18:29:48.285079,-139.0
2023-08-11 18:29:48.292769,-131.0
2023-08-11 18:29:48.300459,-134.0
2023-08-11 18:29:48.308148,-134.0
2023-08-11 18:29:48.315838,-136.0
2023-08-11 18:29:48.323528,-143.0
2023-08-11 18:29:48.331218,-139.0
2023-08-11 18:29:48.338907,-131.0
2023-08-11 18:29:48.346597,-131.0
2023-08-11 18:29:48.354287,-127.0
2023-08-11 18:29:48.361977,-124.0
2023-08-11 18:29:48.369666,-124.0
2023-08-11 18:29:48.377356,-124.0
2023-08-11 18:29:48.385046,-122.0
2023-08-11 18:29:48.392736,-122.0
2023-08-11 18:29:48.400425,-117.0
2023-08-11 18:29:48.408115,-117.0
2023-08-11 18:29:48.415805,-117.0
2023-08-11 18:29:48.423494,-112.0
2023-08-11 18:29:48.431184,-110.0
2023-08-11 18:29:48.438874,-110.0
2023-08-11 18:29:48.446564,-110.0
2023-08-11 18:29:48.454253,-105.0
2023-08-11 18:29:48.461943,-105.0
2023-08-11 18:29:48.469633,-103.0
2023-08-11 18:29:48.477323,-100.0
2023-08-11 18:29:48.485012,-100.0
2023-08-11 18:29:48.492702,-98.0
2023-08-11 18:29:48.500392,-98.0
2023-08-11 18:29:48.508082,-98.0
2023-08-11 18:29:48.515771,-93.0
2023-08-11 18:29:48.523461,-93.0
2023-08-11 18:29:48.531151,-95.0
2023-08-11 18:29:48.538841,-98.0
2023-08-11 18:29:48.546530,-98.0
2023-08-11 18:29:48.554220,-95.0
2023-08-11 18:29:48.561910,-93.0
2023-08-11 18:29:48.569600,-95.0
2023-08-11 18:29:48.577289,-91.0
2023-08-11 18:29:48.584979,-88.0
2023-08-11 18:29:48.592669,-91.0
2023-08-11 18:29:48.600358,-88.0
2023-08-11 18:29:48.608048,-86.0
2023-08-11 18:29:48.615738,-86.0
2023-08-11 18:29:48.623428,-91.0
2023-08-11 18:29:48.631117,-95.0
2023-08-11 18:29:48.638807,-91.0
2023-08-11 18:29:48.646497,-86.0
2023-08-11 18:29:48.654187,-83.0
2023-08-11 18:29:48.661876,-86.0
2023-08-11 18:29:48.669566,-86.0
2023-08-11 18:29:48.677256,-83.0
2023-08-11 18:29:48.684946,-83.0
2023-08-11 18:29:48.692635,-83.0
2023-08-11 18:29:48.700325,-86.0
2023-08-11 18:29:48.708015,-91.0
2023-08-11 18:29:48.715705,-81.0
2023-08-11 18:29:48.723394,-45.0
2023-08-11 18:29:48.731084,-9.0
2023-08-11 18:29:48.738774,-11.0
2023-08-11 18:29:48.746464,-19.0
2023-08-11 18:29:48.754153,-19.0
2023-08-11 18:29:48.761843,-55.0
2023-08-11 18:29:48.769533,-93.0
2023-08-11 18:29:48.777222,-91.0
2023-08-11 18:29:48.784912,-83.0
2023-08-11 18:29:48.792602,-91.0
2023-08-11 18:29:48.800292,-93.0
2023-08-11 18:29:48.807981,-88.0
2023-08-11 18:29:48.815671,-88.0
2023-08-11 18:29:48.823361,-88.0
2023-08-11 18:29:48.831051,-98.0
2023-08-11 18:29:48.838740,-124.0
2023-08-11 18:29:48.846430,-21.0
2023-08-11 18:29:48.854120,479.0
2023-08-11 18:29:48.861810,1210.0
2023-08-11 18:29:48.869499,1471.0
2023-08-11 18:29:48.877189,730.0
2023-08-11 18:29:48.884879,-455.0
2023-08-11 18:29:48.892569,-817.0
2023-08-11 18:29:48.900258,-349.0
2023-08-11 18:29:48.907948,-124.0
2023-08-11 18:29:48.915638,-244.0
2023-08-11 18:29:48.923328,-230.0
2023-08-11 18:29:48.931017,-153.0
2023-08-11 18:29:48.938707,-172.0
2023-08-11 18:29:48.946397,-172.0
2023-08-11 18:29:48.954086,-134.0
2023-08-11 18:29:48.961776,-122.0
2023-08-11 18:29:48.969466,-117.0
2023-08-11 18:29:48.977156,-100.0
2023-08-11 18:29:48.984845,-88.0
2023-08-11 18:29:48.992535,-81.0
2023-08-11 18:29:49.000225,-71.0
2023-08-11 18:29:49.007915,-57.0
2023-08-11 18:29:49.015604,-45.0
2023-08-11 18:29:49.023294,-35.0
2023-08-11 18:29:49.030984,-21.0
2023-08-11 18:29:49.038674,-11.0
2023-08-11 18:29:49.046363,-4.0
2023-08-11 18:29:49.054053,7.0
2023-08-11 18:29:49.061743,23.0
2023-08-11 18:29:49.069433,38.0
2023-08-11 18:29:49.077122,50.0
2023-08-11 18:29:49.084812,67.0
2023-08-11 18:29:49.092502,83.0
2023-08-11 18:29:49.100192,105.0
2023-08-11 18:29:49.107881,127.0
2023-08-11 18:29:49.115571,143.0
2023-08-11 18:29:49.123261,158.0
2023-08-11 18:29:49.130950,170.0
2023-08-11 18:29:49.138640,182.0
2023-08-11 18:29:49.146330,189.0
2023-08-11 18:29:49.154020,186.0
2023-08-11 18:29:49.161709,172.0
2023-08-11 18:29:49.169399,143.0
2023-08-11 18:29:49.177089,98.0
2023-08-11 18:29:49.184779,38.0
2023-08-11 18:29:49.192468,-28.0
2023-08-11 18:29:49.200158,-86.0
2023-08-11 18:29:49.207848,-134.0
2023-08-11 18:29:49.215538,-172.0
2023-08-11 18:29:49.223227,-196.0
2023-08-11 18:29:49.230917,-206.0
2023-08-11 18:29:49.238607,-208.0
2023-08-11 18:29:49.246297,-208.0
2023-08-11 18:29:49.253986,-201.0
2023-08-11 18:29:49.261676,-194.0
2023-08-11 18:29:49.269366,-189.0
2023-08-11 18:29:49.277056,-179.0
2023-08-11 18:29:49.284745,-172.0
2023-08-11 18:29:49.292435,-167.0
2023-08-11 18:29:49.300125,-160.0
2023-08-11 18:29:49.307814,-153.0
2023-08-11 18:29:49.315504,-150.0
2023-08-11 18:29:49.323194,-150.0
2023-08-11 18:29:49.330884,-148.0
2023-08-11 18:29:49.338573,-141.0
2023-08-11 18:29:49.346263,-139.0
2023-08-11 18:29:49.353953,-141.0
2023-08-11 18:29:49.361643,-146.0
2023-08-11 18:29:49.369332,-148.0
2023-08-11 18:29:49.377022,-148.0
2023-08-11 18:29:49.384712,-148.0
2023-08-11 18:29:49.392402,-153.0
2023-08-11 18:29:49.400091,-155.0
2023-08-11 18:29:49.407781,-148.0
2023-08-11 18:29:49.415471,-141.0
2023-08-11 18:29:49.423161,-143.0
2023-08-11 18:29:49.430850,-143.0
2023-08-11 18:29:49.438540,-136.0
2023-08-11 18:29:49.446230,-136.0
2023-08-11 18:29:49.453920,-136.0
2023-08-11 18:29:49.461609,-129.0
2023-08-11 18:29:49.469299,-127.0
2023-08-11 18:29:49.476989,-129.0
2023-08-11 18:29:49.484678,-131.0
2023-08-11 18:29:49.492368,-134.0
2023-08-11 18:29:49.500058,-136.0
2023-08-11 18:29:49.507748,-129.0
2023-08-11 18:29:49.515437,-122.0
2023-08-11 18:29:49.523127,-122.0
2023-08-11 18:29:49.530817,-127.0
2023-08-11 18:29:49.538507,-136.0
2023-08-11 18:29:49.546196,-136.0
2023-08-11 18:29:49.553886,-131.0
2023-08-11 18:29:49.561576,-127.0
2023-08-11 18:29:49.569266,-124.0
2023-08-11 18:29:49.576955,-129.0
2023-08-11 18:29:49.584645,-134.0
2023-08-11 18:29:49.592335,-129.0
2023-08-11 18:29:49.600025,-124.0
2023-08-11 18:29:49.607714,-124.0
2023-08-11 18:29:49.615404,-119.0
2023-08-11 18:29:49.623094,-117.0
2023-08-11 18:29:49.630784,-119.0
2023-08-11 18:29:49.638473,-117.0
2023-08-11 18:29:49.646163,-110.0
2023-08-11 18:29:49.653853,-107.0
2023-08-11 18:29:49.661543,-105.0
2023-08-11 18:29:49.669232,-105.0
2023-08-11 18:29:49.676922,-107.0
2023-08-11 18:29:49.684612,-103.0
2023-08-11 18:29:49.692301,-93.0
2023-08-11 18:29:49.699991,-93.0
2023-08-11 18:29:49.707681,-98.0
2023-08-11 18:29:49.715371,-95.0
2023-08-11 18:29:49.723060,-88.0
2023-08-11 18:29:49.730750,-88.0
2023-08-11 18:29:49.738440,-88.0
2023-08-11 18:29:49.746130,-88.0
2023-08-11 18:29:49.753819,-86.0
2023-08-11 18:29:49.761509,-86.0
2023-08-11 18:29:49.769199,-83.0
2023-08-11 18:29:49.776889,-81.0
2023-08-11 18:29:49.784578,-81.0
2023-08-11 18:29:49.792268,-81.0
2023-08-11 18:29:49.799958,-79.0
2023-08-11 18:29:49.807648,-83.0
2023-08-11 18:29:49.815337,-86.0
2023-08-11 18:29:49.823027,-81.0
2023-08-11 18:29:49.830717,-57.0
2023-08-11 18:29:49.838407,-19.0
2023-08-11 18:29:49.846096,-4.0
2023-08-11 18:29:49.853786,-11.0
2023-08-11 18:29:49.861476,-14.0
2023-08-11 18:29:49.869165,-31.0
2023-08-11 18:29:49.876855,-69.0
2023-08-11 18:29:49.884545,-88.0
2023-08-11 18:29:49.892235,-83.0
2023-08-11 18:29:49.899924,-79.0
2023-08-11 18:29:49.907614,-81.0
2023-08-11 18:29:49.915304,-81.0
2023-08-11 18:29:49.922994,-79.0
2023-08-11 18:29:49.930683,-79.0
2023-08-11 18:29:49.938373,-83.0
2023-08-11 18:29:49.946063,-103.0
2023-08-11 18:29:49.953753,-81.0
2023-08-11 18:29:49.961442,227.0
2023-08-11 18:29:49.969132,939.0
2023-08-11 18:29:49.976822,1493.0
2023-08-11 18:29:49.984512,1126.0
2023-08-11 18:29:49.992201,-31.0
2023-08-11 18:29:49.999891,-810.0
2023-08-11 18:29:50.007581,-591.0
2023-08-11 18:29:50.015271,-172.0
2023-08-11 18:29:50.022960,-148.0
2023-08-11 18:29:50.030650,-210.0
2023-08-11 18:29:50.038340,-160.0
2023-08-11 18:29:50.046029,-139.0
2023-08-11 18:29:50.053719,-153.0
2023-08-11 18:29:50.061409,-131.0
2023-08-11 18:29:50.069099,-103.0
2023-08-11 18:29:50.076788,-100.0
2023-08-11 18:29:50.084478,-91.0
2023-08-11 18:29:50.092168,-74.0
2023-08-11 18:29:50.099858,-71.0
2023-08-11 18:29:50.107547,-62.0
2023-08-11 18:29:50.115237,-47.0
2023-08-11 18:29:50.122927,-35.0
2023-08-11 18:29:50.130617,-23.0
2023-08-11 18:29:50.138306,-9.0
2023-08-11 18:29:50.145996,-2.0
2023-08-11 18:29:50.153686,9.0
2023-08-11 18:29:50.161376,21.0
2023-08-11 18:29:50.169065,33.0
2023-08-11 18:29:50.176755,50.0
2023-08-11 18:29:50.184445,64.0
2023-08-11 18:29:50.192135,79.0
2023-08-11 18:29:50.199824,95.0
2023-08-11 18:29:50.207514,115.0
2023-08-11 18:29:50.215204,131.0
2023-08-11 18:29:50.222893,153.0
2023-08-11 18:29:50.230583,174.0
2023-08-11 18:29:50.238273,186.0
2023-08-11 18:29:50.245963,196.0
2023-08-11 18:29:50.253652,206.0
2023-08-11 18:29:50.261342,203.0
2023-08-11 18:29:50.269032,196.0
2023-08-11 18:29:50.276722,177.0
2023-08-11 18:29:50.284411,134.0
2023-08-11 18:29:50.292101,74.0
2023-08-11 18:29:50.299791,7.0
2023-08-11 18:29:50.307481,-52.0
2023-08-11 18:29:50.315170,-105.0
2023-08-11 18:29:50.322860,-148.0
2023-08-11 18:29:50.330550,-172.0
2023-08-11 18:29:50.338240,-182.0
2023-08-11 18:29:50.345929,-189.0
2023-08-11 18:29:50.353619,-191.0
2023-08-11 18:29:50.361309,-184.0
2023-08-11 18:29:50.368999,-177.0
2023-08-11 18:29:50.376688,-174.0
2023-08-11 18:29:50.384378,-167.0
2023-08-11 18:29:50.392068,-155.0
2023-08-11 18:29:50.399757,-150.0
2023-08-11 18:29:50.407447,-148.0
2023-08-11 18:29:50.415137,-141.0
2023-08-11 18:29:50.422827,-134.0
2023-08-11 18:29:50.430516,-131.0
2023-08-11 18:29:50.438206,-129.0
2023-08-11 18:29:50.445896,-127.0
2023-08-11 18:29:50.453586,-129.0
2023-08-11 18:29:50.461275,-134.0
2023-08-11 18:29:50.468965,-136.0
2023-08-11 18:29:50.476655,-136.0
2023-08-11 18:29:50.484345,-136.0
2023-08-11 18:29:50.492034,-129.0
2023-08-11 18:29:50.499724,-129.0
2023-08-11 18:29:50.507414,-131.0
2023-08-11 18:29:50.515104,-134.0
2023-08-11 18:29:50.522793,-131.0
2023-08-11 18:29:50.530483,-129.0
2023-08-11 18:29:50.538173,-127.0
2023-08-11 18:29:50.545863,-122.0
2023-08-11 18:29:50.553552,-124.0
2023-08-11 18:29:50.561242,-134.0
2023-08-11 18:29:50.568932,-139.0
2023-08-11 18:29:50.576621,-136.0
2023-08-11 18:29:50.584311,-129.0
2023-08-11 18:29:50.592001,-129.0
2023-08-11 18:29:50.599691,-131.0
2023-08-11 18:29:50.607380,-127.0
2023-08-11 18:29:50.615070,-122.0
2023-08-11 18:29:50.622760,-122.0
2023-08-11 18:29:50.630450,-119.0
2023-08-11 18:29:50.638139,-117.0
2023-08-11 18:29:50.645829,-115.0
2023-08-11 18:29:50.653519,-115.0
2023-08-11 18:29:50.661209,-115.0
2023-08-11 18:29:50.668898,-110.0
2023-08-11 18:29:50.676588,-103.0
2023-08-11 18:29:50.684278,-103.0
2023-08-11 18:29:50.691968,-105.0
2023-08-11 18:29:50.699657,-107.0
2023-08-11 18:29:50.707347,-105.0
2023-08-11 18:29:50.715037,-98.0
2023-08-11 18:29:50.722727,-95.0
2023-08-11 18:29:50.730416,-95.0
2023-08-11 18:29:50.738106,-95.0
2023-08-11 18:29:50.745796,-98.0
2023-08-11 18:29:50.753485,-95.0
2023-08-11 18:29:50.761175,-93.0
2023-08-11 18:29:50.768865,-91.0
2023-08-11 18:29:50.776555,-86.0
2023-08-11 18:29:50.784244,-88.0
2023-08-11 18:29:50.791934,-88.0
2023-08-11 18:29:50.799624,-88.0
2023-08-11 18:29:50.807314,-83.0
2023-08-11 18:29:50.815003,-81.0
2023-08-11 18:29:50.822693,-79.0
2023-08-11 18:29:50.830383,-81.0
2023-08-11 18:29:50.838073,-81.0
2023-08-11 18:29:50.845762,-86.0
2023-08-11 18:29:50.853452,-88.0
2023-08-11 18:29:50.861142,-91.0
2023-08-11 18:29:50.868832,-76.0
2023-08-11 18:29:50.876521,-35.0
2023-08-11 18:29:50.884211,-7.0
2023-08-11 18:29:50.891901,-14.0
2023-08-11 18:29:50.899591,-16.0
2023-08-11 18:29:50.907280,-16.0
2023-08-11 18:29:50.914970,-55.0
2023-08-11 18:29:50.922660,-91.0
2023-08-11 18:29:50.930349,-91.0
2023-08-11 18:29:50.938039,-81.0
2023-08-11 18:29:50.945729,-81.0
2023-08-11 18:29:50.953419,-86.0
2023-08-11 18:29:50.961108,-83.0
2023-08-11 18:29:50.968798,-81.0
2023-08-11 18:29:50.976488,-86.0
2023-08-11 18:29:50.984178,-98.0
2023-08-11 18:29:50.991867,-105.0
2023-08-11 18:29:50.999557,64.0
2023-08-11 18:29:51.007247,637.0
2023-08-11 18:29:51.014937,1320.0
2023-08-11 18:29:51.022626,1358.0
2023-08-11 18:29:51.030316,438.0
2023-08-11 18:29:51.038006,-627.0
2023-08-11 18:29:51.045696,-757.0
2023-08-11 18:29:51.053385,-280.0
2023-08-11 18:29:51.061075,-122.0
2023-08-11 18:29:51.068765,-213.0
2023-08-11 18:29:51.076455,-182.0
2023-08-11 18:29:51.084144,-134.0
2023-08-11 18:29:51.091834,-150.0
2023-08-11 18:29:51.099524,-141.0
2023-08-11 18:29:51.107213,-110.0
2023-08-11 18:29:51.114903,-103.0
2023-08-11 18:29:51.122593,-98.0
2023-08-11 18:29:51.130283,-81.0
2023-08-11 18:29:51.137972,-67.0
2023-08-11 18:29:51.145662,-62.0
2023-08-11 18:29:51.153352,-62.0
2023-08-11 18:29:51.161042,-55.0
2023-08-11 18:29:51.168731,-38.0
2023-08-11 18:29:51.176421,-21.0
2023-08-11 18:29:51.184111,-11.0
2023-08-11 18:29:51.191801,0.0
2023-08-11 18:29:51.199490,9.0
2023-08-11 18:29:51.207180,21.0
2023-08-11 18:29:51.214870,40.0
2023-08-11 18:29:51.222560,57.0
2023-08-11 18:29:51.230249,74.0
2023-08-11 18:29:51.237939,88.0
2023-08-11 18:29:51.245629,103.0
2023-08-11 18:29:51.253319,127.0
2023-08-11 18:29:51.261008,148.0
2023-08-11 18:29:51.268698,167.0
2023-08-11 18:29:51.276388,184.0
2023-08-11 18:29:51.284078,198.0
2023-08-11 18:29:51.291767,201.0
2023-08-11 18:29:51.299457,201.0
2023-08-11 18:29:51.307147,196.0
2023-08-11 18:29:51.314836,177.0
2023-08-11 18:29:51.322526,134.0
2023-08-11 18:29:51.330216,74.0
2023-08-11 18:29:51.337906,4.0
2023-08-11 18:29:51.345595,-59.0
2023-08-11 18:29:51.353285,-112.0
2023-08-11 18:29:51.360975,-153.0
2023-08-11 18:29:51.368665,-182.0
2023-08-11 18:29:51.376354,-203.0
2023-08-11 18:29:51.384044,-210.0
2023-08-11 18:29:51.391734,-208.0
2023-08-11 18:29:51.399424,-201.0
2023-08-11 18:29:51.407113,-194.0
2023-08-11 18:29:51.414803,-184.0
2023-08-11 18:29:51.422493,-177.0
2023-08-11 18:29:51.430183,-170.0
2023-08-11 18:29:51.437872,-160.0
2023-08-11 18:29:51.445562,-150.0
2023-08-11 18:29:51.453252,-143.0
2023-08-11 18:29:51.460942,-139.0
2023-08-11 18:29:51.468631,-134.0
2023-08-11 18:29:51.476321,-131.0
2023-08-11 18:29:51.484011,-129.0
2023-08-11 18:29:51.491700,-131.0
2023-08-11 18:29:51.499390,-134.0
2023-08-11 18:29:51.507080,-131.0
2023-08-11 18:29:51.514770,-131.0
2023-08-11 18:29:51.522459,-131.0
2023-08-11 18:29:51.530149,-129.0
2023-08-11 18:29:51.537839,-129.0
2023-08-11 18:29:51.545529,-134.0
2023-08-11 18:29:51.553218,-136.0
2023-08-11 18:29:51.560908,-136.0
2023-08-11 18:29:51.568598,-143.0
2023-08-11 18:29:51.576288,-148.0
2023-08-11 18:29:51.583977,-143.0
2023-08-11 18:29:51.591667,-136.0
2023-08-11 18:29:51.599357,-134.0
2023-08-11 18:29:51.607047,-134.0
2023-08-11 18:29:51.614736,-129.0
2023-08-11 18:29:51.622426,-129.0
2023-08-11 18:29:51.630116,-127.0
2023-08-11 18:29:51.637806,-122.0
2023-08-11 18:29:51.645495,-122.0
2023-08-11 18:29:51.653185,-122.0
2023-08-11 18:29:51.660875,-119.0
2023-08-11 18:29:51.668564,-117.0
2023-08-11 18:29:51.676254,-115.0
2023-08-11 18:29:51.683944,-112.0
2023-08-11 18:29:51.691634,-117.0
2023-08-11 18:29:51.699323,-124.0
2023-08-11 18:29:51.707013,-119.0
2023-08-11 18:29:51.714703,-115.0
2023-08-11 18:29:51.722393,-115.0
2023-08-11 18:29:51.730082,-112.0
2023-08-11 18:29:51.737772,-110.0
2023-08-11 18:29:51.745462,-107.0
2023-08-11 18:29:51.753152,-105.0
2023-08-11 18:29:51.760841,-105.0
2023-08-11 18:29:51.768531,-103.0
2023-08-11 18:29:51.776221,-95.0
2023-08-11 18:29:51.783911,-98.0
2023-08-11 18:29:51.791600,-100.0
2023-08-11 18:29:51.799290,-95.0
2023-08-11 18:29:51.806980,-93.0
2023-08-11 18:29:51.814670,-91.0
2023-08-11 18:29:51.822359,-93.0
2023-08-11 18:29:51.830049,-93.0
2023-08-11 18:29:51.837739,-91.0
2023-08-11 18:29:51.845428,-88.0
2023-08-11 18:29:51.853118,-86.0
2023-08-11 18:29:51.860808,-83.0
2023-08-11 18:29:51.868498,-83.0
2023-08-11 18:29:51.876187,-86.0
2023-08-11 18:29:51.883877,-81.0
2023-08-11 18:29:51.891567,-79.0
2023-08-11 18:29:51.899257,-81.0
2023-08-11 18:29:51.906946,-79.0
2023-08-11 18:29:51.914636,-76.0
2023-08-11 18:29:51.922326,-81.0
2023-08-11 18:29:51.930016,-83.0
2023-08-11 18:29:51.937705,-79.0
2023-08-11 18:29:51.945395,-50.0
2023-08-11 18:29:51.953085,-7.0
2023-08-11 18:29:51.960775,-2.0
2023-08-11 18:29:51.968464,-11.0
2023-08-11 18:29:51.976154,-9.0
2023-08-11 18:29:51.983844,-33.0
2023-08-11 18:29:51.991534,-79.0
2023-08-11 18:29:51.999223,-88.0
2023-08-11 18:29:52.006913,-76.0
2023-08-11 18:29:52.014603,-79.0
2023-08-11 18:29:52.022292,-81.0
2023-08-11 18:29:52.029982,-79.0
2023-08-11 18:29:52.037672,-81.0
2023-08-11 18:29:52.045362,-81.0
2023-08-11 18:29:52.053051,-83.0
2023-08-11 18:29:52.060741,-112.0
2023-08-11 18:29:52.068431,-55.0
2023-08-11 18:29:52.076121,357.0
2023-08-11 18:29:52.083810,1083.0
2023-08-11 18:29:52.091500,1495.0
2023-08-11 18:29:52.099190,944.0
2023-08-11 18:29:52.106880,-249.0
2023-08-11 18:29:52.114569,-834.0
2023-08-11 18:29:52.122259,-450.0
2023-08-11 18:29:52.129949,-107.0
2023-08-11 18:29:52.137639,-191.0
2023-08-11 18:29:52.145328,-225.0
2023-08-11 18:29:52.153018,-146.0
2023-08-11 18:29:52.160708,-146.0
2023-08-11 18:29:52.168398,-153.0
2023-08-11 18:29:52.176087,-119.0
2023-08-11 18:29:52.183777,-103.0
2023-08-11 18:29:52.191467,-100.0
2023-08-11 18:29:52.199156,-83.0
2023-08-11 18:29:52.206846,-69.0
2023-08-11 18:29:52.214536,-62.0
2023-08-11 18:29:52.222226,-55.0
2023-08-11 18:29:52.229915,-43.0
2023-08-11 18:29:52.237605,-40.0
2023-08-11 18:29:52.245295,-31.0
2023-08-11 18:29:52.252985,-14.0
2023-08-11 18:29:52.260674,-2.0
2023-08-11 18:29:52.268364,9.0
2023-08-11 18:29:52.276054,23.0
2023-08-11 18:29:52.283744,35.0
