time,ECG
2023-08-11 20:28:15.743114,9.0
2023-08-11 20:28:15.750804,286.0
2023-08-11 20:28:15.758493,42.0
2023-08-11 20:28:15.766182,-62.0
2023-08-11 20:28:15.773871,26.0
2023-08-11 20:28:15.781561,2.0
2023-08-11 20:28:15.789250,-38.0
2023-08-11 20:28:15.796939,-14.0
2023-08-11 20:28:15.804628,-16.0
2023-08-11 20:28:15.812317,-35.0
2023-08-11 20:28:15.820007,-28.0
2023-08-11 20:28:15.827696,-23.0
2023-08-11 20:28:15.835385,-31.0
2023-08-11 20:28:15.843074,-33.0
2023-08-11 20:28:15.850763,-33.0
2023-08-11 20:28:15.858453,-35.0
2023-08-11 20:28:15.866142,-40.0
2023-08-11 20:28:15.873831,-45.0
2023-08-11 20:28:15.881520,-52.0
2023-08-11 20:28:15.889209,-57.0
2023-08-11 20:28:15.896899,-62.0
2023-08-11 20:28:15.904588,-64.0
2023-08-11 20:28:15.912277,-71.0
2023-08-11 20:28:15.919966,-83.0
2023-08-11 20:28:15.927656,-95.0
2023-08-11 20:28:15.935345,-100.0
2023-08-11 20:28:15.943034,-105.0
2023-08-11 20:28:15.950723,-112.0
2023-08-11 20:28:15.958412,-119.0
2023-08-11 20:28:15.966102,-126.0
2023-08-11 20:28:15.973791,-133.0
2023-08-11 20:28:15.981480,-136.0
2023-08-11 20:28:15.989169,-136.0
2023-08-11 20:28:15.996858,-133.0
2023-08-11 20:28:16.004548,-121.0
2023-08-11 20:28:16.012237,-107.0
2023-08-11 20:28:16.019926,-97.0
2023-08-11 20:28:16.027615,-83.0
2023-08-11 20:28:16.035304,-59.0
2023-08-11 20:28:16.042994,-45.0
2023-08-11 20:28:16.050683,-42.0
2023-08-11 20:28:16.058372,-42.0
2023-08-11 20:28:16.066061,-42.0
2023-08-11 20:28:16.073751,-38.0
2023-08-11 20:28:16.081440,-35.0
2023-08-11 20:28:16.089129,-35.0
2023-08-11 20:28:16.096818,-35.0
2023-08-11 20:28:16.104507,-35.0
2023-08-11 20:28:16.112197,-38.0
2023-08-11 20:28:16.119886,-38.0
2023-08-11 20:28:16.127575,-40.0
2023-08-11 20:28:16.135264,-38.0
2023-08-11 20:28:16.142953,-35.0
2023-08-11 20:28:16.150643,-35.0
2023-08-11 20:28:16.158332,-38.0
2023-08-11 20:28:16.166021,-38.0
2023-08-11 20:28:16.173710,-33.0
2023-08-11 20:28:16.181400,-31.0
2023-08-11 20:28:16.189089,-28.0
2023-08-11 20:28:16.196778,-28.0
2023-08-11 20:28:16.204467,-26.0
2023-08-11 20:28:16.212156,-21.0
2023-08-11 20:28:16.219846,-19.0
2023-08-11 20:28:16.227535,-14.0
2023-08-11 20:28:16.235224,-14.0
2023-08-11 20:28:16.242913,-14.0
2023-08-11 20:28:16.250602,-11.0
2023-08-11 20:28:16.258292,-7.0
2023-08-11 20:28:16.265981,-4.0
2023-08-11 20:28:16.273670,2.0
2023-08-11 20:28:16.281359,0.0
2023-08-11 20:28:16.289048,-14.0
2023-08-11 20:28:16.296738,-40.0
2023-08-11 20:28:16.304427,-54.0
2023-08-11 20:28:16.312116,-45.0
2023-08-11 20:28:16.319805,-23.0
2023-08-11 20:28:16.327495,-7.0
2023-08-11 20:28:16.335184,-2.0
2023-08-11 20:28:16.342873,-2.0
2023-08-11 20:28:16.350562,0.0
2023-08-11 20:28:16.358251,2.0
2023-08-11 20:28:16.365941,2.0
2023-08-11 20:28:16.373630,2.0
2023-08-11 20:28:16.381319,14.0
2023-08-11 20:28:16.389008,35.0
2023-08-11 20:28:16.396697,-28.0
2023-08-11 20:28:16.404387,-293.0
2023-08-11 20:28:16.412076,-611.0
2023-08-11 20:28:16.419765,-484.0
2023-08-11 20:28:16.427454,102.0
2023-08-11 20:28:16.435143,317.0
2023-08-11 20:28:16.442833,50.0
2023-08-11 20:28:16.450522,-28.0
2023-08-11 20:28:16.458211,64.0
2023-08-11 20:28:16.465900,33.0
2023-08-11 20:28:16.473590,-4.0
2023-08-11 20:28:16.481279,21.0
2023-08-11 20:28:16.488968,19.0
2023-08-11 20:28:16.496657,0.0
2023-08-11 20:28:16.504346,7.0
2023-08-11 20:28:16.512036,7.0
2023-08-11 20:28:16.519725,-2.0
2023-08-11 20:28:16.527414,-4.0
2023-08-11 20:28:16.535103,-2.0
2023-08-11 20:28:16.542792,-7.0
2023-08-11 20:28:16.550482,-11.0
2023-08-11 20:28:16.558171,-16.0
2023-08-11 20:28:16.565860,-23.0
2023-08-11 20:28:16.573549,-26.0
2023-08-11 20:28:16.581239,-28.0
2023-08-11 20:28:16.588928,-33.0
2023-08-11 20:28:16.596617,-42.0
2023-08-11 20:28:16.604306,-57.0
2023-08-11 20:28:16.611995,-66.0
2023-08-11 20:28:16.619685,-74.0
2023-08-11 20:28:16.627374,-81.0
2023-08-11 20:28:16.635063,-88.0
2023-08-11 20:28:16.642752,-93.0
2023-08-11 20:28:16.650441,-97.0
2023-08-11 20:28:16.658131,-105.0
2023-08-11 20:28:16.665820,-107.0
2023-08-11 20:28:16.673509,-102.0
2023-08-11 20:28:16.681198,-97.0
2023-08-11 20:28:16.688887,-90.0
2023-08-11 20:28:16.696577,-83.0
2023-08-11 20:28:16.704266,-66.0
2023-08-11 20:28:16.711955,-47.0
2023-08-11 20:28:16.719644,-31.0
2023-08-11 20:28:16.727334,-19.0
2023-08-11 20:28:16.735023,-11.0
2023-08-11 20:28:16.742712,-7.0
2023-08-11 20:28:16.750401,-7.0
2023-08-11 20:28:16.758090,-4.0
2023-08-11 20:28:16.765780,-4.0
2023-08-11 20:28:16.773469,-4.0
2023-08-11 20:28:16.781158,-7.0
2023-08-11 20:28:16.788847,-9.0
2023-08-11 20:28:16.796536,-9.0
2023-08-11 20:28:16.804226,-14.0
2023-08-11 20:28:16.811915,-14.0
2023-08-11 20:28:16.819604,-14.0
2023-08-11 20:28:16.827293,-14.0
2023-08-11 20:28:16.834982,-16.0
2023-08-11 20:28:16.842672,-16.0
2023-08-11 20:28:16.850361,-14.0
2023-08-11 20:28:16.858050,-14.0
2023-08-11 20:28:16.865739,-9.0
2023-08-11 20:28:16.873429,-9.0
2023-08-11 20:28:16.881118,-7.0
2023-08-11 20:28:16.888807,-7.0
2023-08-11 20:28:16.896496,-7.0
2023-08-11 20:28:16.904185,-7.0
2023-08-11 20:28:16.911875,-4.0
2023-08-11 20:28:16.919564,-2.0
2023-08-11 20:28:16.927253,-2.0
2023-08-11 20:28:16.934942,-4.0
2023-08-11 20:28:16.942631,-4.0
2023-08-11 20:28:16.950321,-2.0
2023-08-11 20:28:16.958010,-2.0
2023-08-11 20:28:16.965699,-2.0
2023-08-11 20:28:16.973388,-2.0
2023-08-11 20:28:16.981078,-11.0
2023-08-11 20:28:16.988767,-38.0
2023-08-11 20:28:16.996456,-59.0
2023-08-11 20:28:17.004145,-52.0
2023-08-11 20:28:17.011834,-33.0
2023-08-11 20:28:17.019524,-19.0
2023-08-11 20:28:17.027213,-9.0
2023-08-11 20:28:17.034902,-4.0
2023-08-11 20:28:17.042591,-4.0
2023-08-11 20:28:17.050280,-7.0
2023-08-11 20:28:17.057970,-11.0
2023-08-11 20:28:17.065659,-16.0
2023-08-11 20:28:17.073348,-16.0
2023-08-11 20:28:17.081037,7.0
2023-08-11 20:28:17.088726,2.0
2023-08-11 20:28:17.096416,-160.0
2023-08-11 20:28:17.104105,-489.0
2023-08-11 20:28:17.111794,-613.0
2023-08-11 20:28:17.119483,-179.0
2023-08-11 20:28:17.127173,284.0
2023-08-11 20:28:17.134862,162.0
2023-08-11 20:28:17.142551,-64.0
2023-08-11 20:28:17.150240,2.0
2023-08-11 20:28:17.157929,35.0
2023-08-11 20:28:17.165619,-23.0
2023-08-11 20:28:17.173308,-16.0
2023-08-11 20:28:17.180997,2.0
2023-08-11 20:28:17.188686,-23.0
2023-08-11 20:28:17.196375,-38.0
2023-08-11 20:28:17.204065,-28.0
2023-08-11 20:28:17.211754,-33.0
2023-08-11 20:28:17.219443,-42.0
2023-08-11 20:28:17.227132,-42.0
2023-08-11 20:28:17.234821,-50.0
2023-08-11 20:28:17.242511,-59.0
2023-08-11 20:28:17.250200,-64.0
2023-08-11 20:28:17.257889,-66.0
2023-08-11 20:28:17.265578,-69.0
2023-08-11 20:28:17.273268,-71.0
2023-08-11 20:28:17.280957,-78.0
2023-08-11 20:28:17.288646,-85.0
2023-08-11 20:28:17.296335,-93.0
2023-08-11 20:28:17.304024,-95.0
2023-08-11 20:28:17.311714,-102.0
2023-08-11 20:28:17.319403,-109.0
2023-08-11 20:28:17.327092,-114.0
2023-08-11 20:28:17.334781,-119.0
2023-08-11 20:28:17.342470,-126.0
2023-08-11 20:28:17.350160,-131.0
2023-08-11 20:28:17.357849,-131.0
2023-08-11 20:28:17.365538,-133.0
2023-08-11 20:28:17.373227,-133.0
2023-08-11 20:28:17.380917,-124.0
2023-08-11 20:28:17.388606,-112.0
2023-08-11 20:28:17.396295,-100.0
2023-08-11 20:28:17.403984,-81.0
2023-08-11 20:28:17.411673,-59.0
2023-08-11 20:28:17.419363,-42.0
2023-08-11 20:28:17.427052,-35.0
2023-08-11 20:28:17.434741,-28.0
2023-08-11 20:28:17.442430,-26.0
2023-08-11 20:28:17.450119,-28.0
2023-08-11 20:28:17.457809,-31.0
2023-08-11 20:28:17.465498,-31.0
2023-08-11 20:28:17.473187,-33.0
2023-08-11 20:28:17.480876,-33.0
2023-08-11 20:28:17.488565,-35.0
2023-08-11 20:28:17.496255,-38.0
2023-08-11 20:28:17.503944,-40.0
2023-08-11 20:28:17.511633,-40.0
2023-08-11 20:28:17.519322,-35.0
2023-08-11 20:28:17.527012,-38.0
2023-08-11 20:28:17.534701,-42.0
2023-08-11 20:28:17.542390,-45.0
2023-08-11 20:28:17.550079,-40.0
2023-08-11 20:28:17.557768,-38.0
2023-08-11 20:28:17.565458,-40.0
2023-08-11 20:28:17.573147,-50.0
2023-08-11 20:28:17.580836,-47.0
2023-08-11 20:28:17.588525,-42.0
2023-08-11 20:28:17.596214,-47.0
2023-08-11 20:28:17.603904,-47.0
2023-08-11 20:28:17.611593,-42.0
2023-08-11 20:28:17.619282,-45.0
2023-08-11 20:28:17.626971,-47.0
2023-08-11 20:28:17.634660,-52.0
2023-08-11 20:28:17.642350,-54.0
2023-08-11 20:28:17.650039,-50.0
2023-08-11 20:28:17.657728,-47.0
2023-08-11 20:28:17.665417,-47.0
2023-08-11 20:28:17.673107,-50.0
2023-08-11 20:28:17.680796,-69.0
2023-08-11 20:28:17.688485,-107.0
2023-08-11 20:28:17.696174,-119.0
2023-08-11 20:28:17.703863,-100.0
2023-08-11 20:28:17.711553,-81.0
2023-08-11 20:28:17.719242,-69.0
2023-08-11 20:28:17.726931,-59.0
2023-08-11 20:28:17.734620,-57.0
2023-08-11 20:28:17.742309,-59.0
2023-08-11 20:28:17.749999,-62.0
2023-08-11 20:28:17.757688,-62.0
2023-08-11 20:28:17.765377,-59.0
2023-08-11 20:28:17.773066,-47.0
2023-08-11 20:28:17.780755,-28.0
2023-08-11 20:28:17.788445,-95.0
2023-08-11 20:28:17.796134,-346.0
2023-08-11 20:28:17.803823,-630.0
2023-08-11 20:28:17.811512,-492.0
2023-08-11 20:28:17.819202,47.0
2023-08-11 20:28:17.826891,234.0
2023-08-11 20:28:17.834580,2.0
2023-08-11 20:28:17.842269,-74.0
2023-08-11 20:28:17.849958,-14.0
2023-08-11 20:28:17.857648,-50.0
2023-08-11 20:28:17.865337,-78.0
2023-08-11 20:28:17.873026,-57.0
2023-08-11 20:28:17.880715,-64.0
2023-08-11 20:28:17.888404,-88.0
2023-08-11 20:28:17.896094,-83.0
2023-08-11 20:28:17.903783,-76.0
2023-08-11 20:28:17.911472,-83.0
2023-08-11 20:28:17.919161,-88.0
2023-08-11 20:28:17.926851,-85.0
2023-08-11 20:28:17.934540,-88.0
2023-08-11 20:28:17.942229,-93.0
2023-08-11 20:28:17.949918,-95.0
2023-08-11 20:28:17.957607,-100.0
2023-08-11 20:28:17.965297,-107.0
2023-08-11 20:28:17.972986,-112.0
2023-08-11 20:28:17.980675,-117.0
2023-08-11 20:28:17.988364,-119.0
2023-08-11 20:28:17.996053,-124.0
2023-08-11 20:28:18.003743,-133.0
2023-08-11 20:28:18.011432,-138.0
2023-08-11 20:28:18.019121,-145.0
2023-08-11 20:28:18.026810,-145.0
2023-08-11 20:28:18.034499,-145.0
2023-08-11 20:28:18.042189,-150.0
2023-08-11 20:28:18.049878,-155.0
2023-08-11 20:28:18.057567,-160.0
2023-08-11 20:28:18.065256,-162.0
2023-08-11 20:28:18.072946,-155.0
2023-08-11 20:28:18.080635,-148.0
2023-08-11 20:28:18.088324,-143.0
2023-08-11 20:28:18.096013,-126.0
2023-08-11 20:28:18.103702,-102.0
2023-08-11 20:28:18.111392,-83.0
2023-08-11 20:28:18.119081,-69.0
2023-08-11 20:28:18.126770,-54.0
2023-08-11 20:28:18.134459,-54.0
2023-08-11 20:28:18.142148,-59.0
2023-08-11 20:28:18.149838,-52.0
2023-08-11 20:28:18.157527,-47.0
2023-08-11 20:28:18.165216,-54.0
2023-08-11 20:28:18.172905,-59.0
2023-08-11 20:28:18.180594,-62.0
2023-08-11 20:28:18.188284,-66.0
2023-08-11 20:28:18.195973,-66.0
2023-08-11 20:28:18.203662,-64.0
2023-08-11 20:28:18.211351,-64.0
2023-08-11 20:28:18.219041,-64.0
2023-08-11 20:28:18.226730,-66.0
2023-08-11 20:28:18.234419,-69.0
2023-08-11 20:28:18.242108,-69.0
2023-08-11 20:28:18.249797,-64.0
2023-08-11 20:28:18.257487,-64.0
2023-08-11 20:28:18.265176,-69.0
2023-08-11 20:28:18.272865,-76.0
2023-08-11 20:28:18.280554,-78.0
2023-08-11 20:28:18.288243,-74.0
2023-08-11 20:28:18.295933,-74.0
2023-08-11 20:28:18.303622,-71.0
2023-08-11 20:28:18.311311,-64.0
2023-08-11 20:28:18.319000,-66.0
2023-08-11 20:28:18.326690,-74.0
2023-08-11 20:28:18.334379,-83.0
2023-08-11 20:28:18.342068,-102.0
2023-08-11 20:28:18.349757,-114.0
2023-08-11 20:28:18.357446,-102.0
2023-08-11 20:28:18.365136,-83.0
2023-08-11 20:28:18.372825,-74.0
2023-08-11 20:28:18.380514,-71.0
2023-08-11 20:28:18.388203,-71.0
2023-08-11 20:28:18.395892,-71.0
2023-08-11 20:28:18.403582,-74.0
2023-08-11 20:28:18.411271,-76.0
2023-08-11 20:28:18.418960,-66.0
2023-08-11 20:28:18.426649,-38.0
2023-08-11 20:28:18.434338,-59.0
2023-08-11 20:28:18.442028,-267.0
2023-08-11 20:28:18.449717,-613.0
2023-08-11 20:28:18.457406,-642.0
2023-08-11 20:28:18.465095,-114.0
2023-08-11 20:28:18.472785,267.0
2023-08-11 20:28:18.480474,90.0
2023-08-11 20:28:18.488163,-69.0
2023-08-11 20:28:18.495852,-11.0
2023-08-11 20:28:18.503541,-21.0
2023-08-11 20:28:18.511231,-64.0
2023-08-11 20:28:18.518920,-47.0
2023-08-11 20:28:18.526609,-38.0
2023-08-11 20:28:18.534298,-54.0
2023-08-11 20:28:18.541987,-57.0
2023-08-11 20:28:18.549677,-50.0
2023-08-11 20:28:18.557366,-54.0
2023-08-11 20:28:18.565055,-57.0
2023-08-11 20:28:18.572744,-54.0
2023-08-11 20:28:18.580433,-62.0
2023-08-11 20:28:18.588123,-69.0
2023-08-11 20:28:18.595812,-69.0
2023-08-11 20:28:18.603501,-71.0
2023-08-11 20:28:18.611190,-74.0
2023-08-11 20:28:18.618880,-78.0
2023-08-11 20:28:18.626569,-88.0
2023-08-11 20:28:18.634258,-93.0
2023-08-11 20:28:18.641947,-93.0
2023-08-11 20:28:18.649636,-100.0
2023-08-11 20:28:18.657326,-102.0
2023-08-11 20:28:18.665015,-107.0
2023-08-11 20:28:18.672704,-112.0
2023-08-11 20:28:18.680393,-112.0
2023-08-11 20:28:18.688082,-112.0
2023-08-11 20:28:18.695772,-112.0
2023-08-11 20:28:18.703461,-112.0
2023-08-11 20:28:18.711150,-105.0
2023-08-11 20:28:18.718839,-97.0
2023-08-11 20:28:18.726529,-83.0
2023-08-11 20:28:18.734218,-64.0
2023-08-11 20:28:18.741907,-45.0
2023-08-11 20:28:18.749596,-23.0
2023-08-11 20:28:18.757285,-4.0
2023-08-11 20:28:18.764975,7.0
2023-08-11 20:28:18.772664,16.0
2023-08-11 20:28:18.780353,28.0
2023-08-11 20:28:18.788042,31.0
2023-08-11 20:28:18.795731,33.0
2023-08-11 20:28:18.803421,31.0
2023-08-11 20:28:18.811110,26.0
2023-08-11 20:28:18.818799,23.0
2023-08-11 20:28:18.826488,26.0
2023-08-11 20:28:18.834177,26.0
2023-08-11 20:28:18.841867,21.0
2023-08-11 20:28:18.849556,16.0
2023-08-11 20:28:18.857245,9.0
2023-08-11 20:28:18.864934,7.0
2023-08-11 20:28:18.872624,4.0
2023-08-11 20:28:18.880313,2.0
2023-08-11 20:28:18.888002,4.0
2023-08-11 20:28:18.895691,2.0
2023-08-11 20:28:18.903380,-2.0
2023-08-11 20:28:18.911070,4.0
2023-08-11 20:28:18.918759,11.0
2023-08-11 20:28:18.926448,11.0
2023-08-11 20:28:18.934137,9.0
2023-08-11 20:28:18.941826,11.0
2023-08-11 20:28:18.949516,11.0
2023-08-11 20:28:18.957205,19.0
2023-08-11 20:28:18.964894,26.0
2023-08-11 20:28:18.972583,26.0
2023-08-11 20:28:18.980272,23.0
2023-08-11 20:28:18.987962,11.0
2023-08-11 20:28:18.995651,-11.0
2023-08-11 20:28:19.003340,-26.0
2023-08-11 20:28:19.011029,-16.0
2023-08-11 20:28:19.018719,4.0
2023-08-11 20:28:19.026408,19.0
2023-08-11 20:28:19.034097,21.0
2023-08-11 20:28:19.041786,19.0
2023-08-11 20:28:19.049475,21.0
2023-08-11 20:28:19.057165,23.0
2023-08-11 20:28:19.064854,23.0
2023-08-11 20:28:19.072543,26.0
2023-08-11 20:28:19.080232,45.0
2023-08-11 20:28:19.087921,40.0
2023-08-11 20:28:19.095611,-112.0
2023-08-11 20:28:19.103300,-458.0
2023-08-11 20:28:19.110989,-652.0
2023-08-11 20:28:19.118678,-243.0
2023-08-11 20:28:19.126368,308.0
2023-08-11 20:28:19.134057,243.0
2023-08-11 20:28:19.141746,-16.0
2023-08-11 20:28:19.149435,38.0
2023-08-11 20:28:19.157124,90.0
2023-08-11 20:28:19.164814,23.0
2023-08-11 20:28:19.172503,19.0
2023-08-11 20:28:19.180192,42.0
2023-08-11 20:28:19.187881,21.0
2023-08-11 20:28:19.195570,11.0
2023-08-11 20:28:19.203260,16.0
2023-08-11 20:28:19.210949,14.0
2023-08-11 20:28:19.218638,7.0
2023-08-11 20:28:19.226327,7.0
2023-08-11 20:28:19.234016,4.0
2023-08-11 20:28:19.241706,0.0
2023-08-11 20:28:19.249395,-2.0
2023-08-11 20:28:19.257084,-4.0
2023-08-11 20:28:19.264773,-11.0
2023-08-11 20:28:19.272463,-19.0
2023-08-11 20:28:19.280152,-23.0
2023-08-11 20:28:19.287841,-28.0
2023-08-11 20:28:19.295530,-40.0
2023-08-11 20:28:19.303219,-47.0
2023-08-11 20:28:19.310909,-54.0
2023-08-11 20:28:19.318598,-62.0
2023-08-11 20:28:19.326287,-69.0
2023-08-11 20:28:19.333976,-74.0
2023-08-11 20:28:19.341665,-81.0
2023-08-11 20:28:19.349355,-88.0
2023-08-11 20:28:19.357044,-90.0
2023-08-11 20:28:19.364733,-93.0
2023-08-11 20:28:19.372422,-90.0
2023-08-11 20:28:19.380111,-78.0
2023-08-11 20:28:19.387801,-64.0
2023-08-11 20:28:19.395490,-52.0
2023-08-11 20:28:19.403179,-35.0
2023-08-11 20:28:19.410868,-11.0
2023-08-11 20:28:19.418558,2.0
2023-08-11 20:28:19.426247,9.0
2023-08-11 20:28:19.433936,14.0
2023-08-11 20:28:19.441625,16.0
2023-08-11 20:28:19.449314,19.0
2023-08-11 20:28:19.457004,16.0
2023-08-11 20:28:19.464693,14.0
2023-08-11 20:28:19.472382,11.0
2023-08-11 20:28:19.480071,9.0
2023-08-11 20:28:19.487760,7.0
2023-08-11 20:28:19.495450,4.0
2023-08-11 20:28:19.503139,7.0
2023-08-11 20:28:19.510828,7.0
2023-08-11 20:28:19.518517,2.0
2023-08-11 20:28:19.526207,-4.0
2023-08-11 20:28:19.533896,-4.0
2023-08-11 20:28:19.541585,0.0
2023-08-11 20:28:19.549274,2.0
2023-08-11 20:28:19.556963,2.0
2023-08-11 20:28:19.564653,0.0
2023-08-11 20:28:19.572342,0.0
2023-08-11 20:28:19.580031,0.0
2023-08-11 20:28:19.587720,-2.0
2023-08-11 20:28:19.595409,-4.0
2023-08-11 20:28:19.603099,-2.0
2023-08-11 20:28:19.610788,-2.0
2023-08-11 20:28:19.618477,-2.0
2023-08-11 20:28:19.626166,4.0
2023-08-11 20:28:19.633855,11.0
2023-08-11 20:28:19.641545,7.0
2023-08-11 20:28:19.649234,-7.0
2023-08-11 20:28:19.656923,-33.0
2023-08-11 20:28:19.664612,-47.0
2023-08-11 20:28:19.672302,-31.0
2023-08-11 20:28:19.679991,-7.0
2023-08-11 20:28:19.687680,4.0
2023-08-11 20:28:19.695369,9.0
2023-08-11 20:28:19.703058,9.0
2023-08-11 20:28:19.710748,4.0
2023-08-11 20:28:19.718437,7.0
2023-08-11 20:28:19.726126,9.0
2023-08-11 20:28:19.733815,9.0
2023-08-11 20:28:19.741504,28.0
2023-08-11 20:28:19.749194,40.0
2023-08-11 20:28:19.756883,-74.0
2023-08-11 20:28:19.764572,-379.0
2023-08-11 20:28:19.772261,-611.0
2023-08-11 20:28:19.779950,-312.0
2023-08-11 20:28:19.787640,238.0
2023-08-11 20:28:19.795329,262.0
2023-08-11 20:28:19.803018,-9.0
2023-08-11 20:28:19.810707,4.0
2023-08-11 20:28:19.818397,76.0
2023-08-11 20:28:19.826086,19.0
2023-08-11 20:28:19.833775,2.0
2023-08-11 20:28:19.841464,28.0
2023-08-11 20:28:19.849153,7.0
2023-08-11 20:28:19.856843,-11.0
2023-08-11 20:28:19.864532,-4.0
2023-08-11 20:28:19.872221,-4.0
2023-08-11 20:28:19.879910,-11.0
2023-08-11 20:28:19.887599,-16.0
2023-08-11 20:28:19.895289,-19.0
2023-08-11 20:28:19.902978,-21.0
2023-08-11 20:28:19.910667,-28.0
2023-08-11 20:28:19.918356,-33.0
2023-08-11 20:28:19.926045,-33.0
2023-08-11 20:28:19.933735,-38.0
2023-08-11 20:28:19.941424,-47.0
2023-08-11 20:28:19.949113,-54.0
2023-08-11 20:28:19.956802,-59.0
2023-08-11 20:28:19.964492,-66.0
2023-08-11 20:28:19.972181,-81.0
2023-08-11 20:28:19.979870,-97.0
2023-08-11 20:28:19.987559,-107.0
2023-08-11 20:28:19.995248,-107.0
2023-08-11 20:28:20.002938,-114.0
2023-08-11 20:28:20.010627,-124.0
2023-08-11 20:28:20.018316,-128.0
2023-08-11 20:28:20.026005,-128.0
2023-08-11 20:28:20.033694,-128.0
2023-08-11 20:28:20.041384,-121.0
2023-08-11 20:28:20.049073,-107.0
2023-08-11 20:28:20.056762,-93.0
2023-08-11 20:28:20.064451,-74.0
2023-08-11 20:28:20.072141,-52.0
2023-08-11 20:28:20.079830,-38.0
2023-08-11 20:28:20.087519,-31.0
2023-08-11 20:28:20.095208,-28.0
2023-08-11 20:28:20.102897,-31.0
2023-08-11 20:28:20.110587,-31.0
2023-08-11 20:28:20.118276,-31.0
2023-08-11 20:28:20.125965,-33.0
2023-08-11 20:28:20.133654,-38.0
2023-08-11 20:28:20.141343,-35.0
2023-08-11 20:28:20.149033,-38.0
2023-08-11 20:28:20.156722,-42.0
2023-08-11 20:28:20.164411,-42.0
2023-08-11 20:28:20.172100,-42.0
2023-08-11 20:28:20.179789,-40.0
2023-08-11 20:28:20.187479,-40.0
2023-08-11 20:28:20.195168,-42.0
2023-08-11 20:28:20.202857,-42.0
2023-08-11 20:28:20.210546,-50.0
2023-08-11 20:28:20.218236,-52.0
2023-08-11 20:28:20.225925,-45.0
2023-08-11 20:28:20.233614,-45.0
2023-08-11 20:28:20.241303,-50.0
2023-08-11 20:28:20.248992,-47.0
2023-08-11 20:28:20.256682,-45.0
2023-08-11 20:28:20.264371,-45.0
2023-08-11 20:28:20.272060,-45.0
2023-08-11 20:28:20.279749,-40.0
2023-08-11 20:28:20.287438,-42.0
2023-08-11 20:28:20.295128,-59.0
2023-08-11 20:28:20.302817,-83.0
2023-08-11 20:28:20.310506,-95.0
2023-08-11 20:28:20.318195,-85.0
2023-08-11 20:28:20.325884,-62.0
2023-08-11 20:28:20.333574,-45.0
2023-08-11 20:28:20.341263,-50.0
2023-08-11 20:28:20.348952,-54.0
2023-08-11 20:28:20.356641,-52.0
2023-08-11 20:28:20.364331,-54.0
2023-08-11 20:28:20.372020,-62.0
2023-08-11 20:28:20.379709,-57.0
2023-08-11 20:28:20.387398,-35.0
2023-08-11 20:28:20.395087,-54.0
2023-08-11 20:28:20.402777,-231.0
2023-08-11 20:28:20.410466,-554.0
2023-08-11 20:28:20.418155,-632.0
2023-08-11 20:28:20.425844,-179.0
2023-08-11 20:28:20.433533,222.0
2023-08-11 20:28:20.441223,81.0
2023-08-11 20:28:20.448912,-95.0
2023-08-11 20:28:20.456601,-45.0
2023-08-11 20:28:20.464290,-42.0
2023-08-11 20:28:20.471980,-85.0
2023-08-11 20:28:20.479669,-69.0
2023-08-11 20:28:20.487358,-64.0
2023-08-11 20:28:20.495047,-85.0
2023-08-11 20:28:20.502736,-85.0
2023-08-11 20:28:20.510426,-78.0
2023-08-11 20:28:20.518115,-90.0
2023-08-11 20:28:20.525804,-102.0
2023-08-11 20:28:20.533493,-105.0
2023-08-11 20:28:20.541182,-105.0
2023-08-11 20:28:20.548872,-107.0
2023-08-11 20:28:20.556561,-112.0
2023-08-11 20:28:20.564250,-119.0
2023-08-11 20:28:20.571939,-124.0
2023-08-11 20:28:20.579628,-128.0
2023-08-11 20:28:20.587318,-133.0
2023-08-11 20:28:20.595007,-145.0
2023-08-11 20:28:20.602696,-152.0
2023-08-11 20:28:20.610385,-162.0
2023-08-11 20:28:20.618075,-171.0
2023-08-11 20:28:20.625764,-176.0
2023-08-11 20:28:20.633453,-181.0
2023-08-11 20:28:20.641142,-183.0
2023-08-11 20:28:20.648831,-186.0
2023-08-11 20:28:20.656521,-191.0
2023-08-11 20:28:20.664210,-193.0
2023-08-11 20:28:20.671899,-195.0
2023-08-11 20:28:20.679588,-191.0
2023-08-11 20:28:20.687277,-183.0
2023-08-11 20:28:20.694967,-174.0
2023-08-11 20:28:20.702656,-150.0
2023-08-11 20:28:20.710345,-126.0
2023-08-11 20:28:20.718034,-112.0
2023-08-11 20:28:20.725723,-100.0
2023-08-11 20:28:20.733413,-85.0
2023-08-11 20:28:20.741102,-81.0
2023-08-11 20:28:20.748791,-81.0
2023-08-11 20:28:20.756480,-81.0
2023-08-11 20:28:20.764170,-78.0
2023-08-11 20:28:20.771859,-81.0
2023-08-11 20:28:20.779548,-83.0
2023-08-11 20:28:20.787237,-83.0
2023-08-11 20:28:20.794926,-83.0
2023-08-11 20:28:20.802616,-85.0
2023-08-11 20:28:20.810305,-85.0
2023-08-11 20:28:20.817994,-83.0
2023-08-11 20:28:20.825683,-83.0
2023-08-11 20:28:20.833372,-83.0
2023-08-11 20:28:20.841062,-81.0
2023-08-11 20:28:20.848751,-81.0
2023-08-11 20:28:20.856440,-81.0
2023-08-11 20:28:20.864129,-76.0
2023-08-11 20:28:20.871819,-69.0
2023-08-11 20:28:20.879508,-66.0
2023-08-11 20:28:20.887197,-64.0
2023-08-11 20:28:20.894886,-64.0
2023-08-11 20:28:20.902575,-74.0
2023-08-11 20:28:20.910265,-90.0
2023-08-11 20:28:20.917954,-100.0
2023-08-11 20:28:20.925643,-97.0
2023-08-11 20:28:20.933332,-81.0
2023-08-11 20:28:20.941021,-59.0
2023-08-11 20:28:20.948711,-57.0
2023-08-11 20:28:20.956400,-64.0
2023-08-11 20:28:20.964089,-62.0
2023-08-11 20:28:20.971778,-59.0
2023-08-11 20:28:20.979467,-59.0
2023-08-11 20:28:20.987157,-52.0
2023-08-11 20:28:20.994846,-28.0
2023-08-11 20:28:21.002535,-50.0
2023-08-11 20:28:21.010224,-248.0
2023-08-11 20:28:21.017914,-594.0
2023-08-11 20:28:21.025603,-659.0
2023-08-11 20:28:21.033292,-150.0
2023-08-11 20:28:21.040981,272.0
2023-08-11 20:28:21.048670,117.0
2023-08-11 20:28:21.056360,-64.0
2023-08-11 20:28:21.064049,-7.0
2023-08-11 20:28:21.071738,-4.0
2023-08-11 20:28:21.079427,-52.0
2023-08-11 20:28:21.087116,-40.0
2023-08-11 20:28:21.094806,-33.0
2023-08-11 20:28:21.102495,-47.0
2023-08-11 20:28:21.110184,-50.0
2023-08-11 20:28:21.117873,-50.0
2023-08-11 20:28:21.125562,-50.0
2023-08-11 20:28:21.133252,-52.0
2023-08-11 20:28:21.140941,-57.0
2023-08-11 20:28:21.148630,-62.0
2023-08-11 20:28:21.156319,-64.0
2023-08-11 20:28:21.164009,-66.0
2023-08-11 20:28:21.171698,-74.0
2023-08-11 20:28:21.179387,-78.0
2023-08-11 20:28:21.187076,-78.0
2023-08-11 20:28:21.194765,-83.0
2023-08-11 20:28:21.202455,-90.0
2023-08-11 20:28:21.210144,-97.0
2023-08-11 20:28:21.217833,-102.0
2023-08-11 20:28:21.225522,-109.0
2023-08-11 20:28:21.233211,-121.0
2023-08-11 20:28:21.240901,-126.0
2023-08-11 20:28:21.248590,-133.0
2023-08-11 20:28:21.256279,-138.0
2023-08-11 20:28:21.263968,-138.0
2023-08-11 20:28:21.271658,-136.0
2023-08-11 20:28:21.279347,-136.0
2023-08-11 20:28:21.287036,-131.0
2023-08-11 20:28:21.294725,-119.0
2023-08-11 20:28:21.302414,-105.0
2023-08-11 20:28:21.310104,-85.0
2023-08-11 20:28:21.317793,-66.0
2023-08-11 20:28:21.325482,-52.0
2023-08-11 20:28:21.333171,-45.0
2023-08-11 20:28:21.340860,-35.0
2023-08-11 20:28:21.348550,-28.0
2023-08-11 20:28:21.356239,-28.0
2023-08-11 20:28:21.363928,-33.0
2023-08-11 20:28:21.371617,-33.0
2023-08-11 20:28:21.379306,-33.0
2023-08-11 20:28:21.386996,-33.0
2023-08-11 20:28:21.394685,-35.0
2023-08-11 20:28:21.402374,-40.0
2023-08-11 20:28:21.410063,-42.0
2023-08-11 20:28:21.417753,-42.0
2023-08-11 20:28:21.425442,-42.0
2023-08-11 20:28:21.433131,-47.0
2023-08-11 20:28:21.440820,-45.0
2023-08-11 20:28:21.448509,-40.0
2023-08-11 20:28:21.456199,-42.0
2023-08-11 20:28:21.463888,-42.0
2023-08-11 20:28:21.471577,-40.0
2023-08-11 20:28:21.479266,-38.0
2023-08-11 20:28:21.486955,-33.0
2023-08-11 20:28:21.494645,-23.0
2023-08-11 20:28:21.502334,-21.0
2023-08-11 20:28:21.510023,-28.0
2023-08-11 20:28:21.517712,-38.0
2023-08-11 20:28:21.525401,-52.0
2023-08-11 20:28:21.533091,-64.0
2023-08-11 20:28:21.540780,-57.0
2023-08-11 20:28:21.548469,-35.0
2023-08-11 20:28:21.556158,-21.0
2023-08-11 20:28:21.563848,-23.0
2023-08-11 20:28:21.571537,-26.0
2023-08-11 20:28:21.579226,-23.0
2023-08-11 20:28:21.586915,-26.0
2023-08-11 20:28:21.594604,-33.0
2023-08-11 20:28:21.602294,-33.0
2023-08-11 20:28:21.609983,-9.0
2023-08-11 20:28:21.617672,-33.0
2023-08-11 20:28:21.625361,-238.0
2023-08-11 20:28:21.633050,-599.0
2023-08-11 20:28:21.640740,-666.0
2023-08-11 20:28:21.648429,-143.0
2023-08-11 20:28:21.656118,289.0
2023-08-11 20:28:21.663807,112.0
2023-08-11 20:28:21.671497,-74.0
2023-08-11 20:28:21.679186,9.0
2023-08-11 20:28:21.686875,14.0
2023-08-11 20:28:21.694564,-50.0
2023-08-11 20:28:21.702253,-31.0
2023-08-11 20:28:21.709943,-14.0
2023-08-11 20:28:21.717632,-33.0
2023-08-11 20:28:21.725321,-35.0
2023-08-11 20:28:21.733010,-28.0
2023-08-11 20:28:21.740699,-35.0
2023-08-11 20:28:21.748389,-35.0
2023-08-11 20:28:21.756078,-31.0
2023-08-11 20:28:21.763767,-35.0
2023-08-11 20:28:21.771456,-40.0
2023-08-11 20:28:21.779145,-42.0
2023-08-11 20:28:21.786835,-45.0
2023-08-11 20:28:21.794524,-50.0
2023-08-11 20:28:21.802213,-54.0
2023-08-11 20:28:21.809902,-59.0
2023-08-11 20:28:21.817592,-66.0
2023-08-11 20:28:21.825281,-76.0
2023-08-11 20:28:21.832970,-85.0
2023-08-11 20:28:21.840659,-93.0
2023-08-11 20:28:21.848348,-97.0
2023-08-11 20:28:21.856038,-102.0
2023-08-11 20:28:21.863727,-109.0
2023-08-11 20:28:21.871416,-114.0
2023-08-11 20:28:21.879105,-119.0
2023-08-11 20:28:21.886794,-119.0
2023-08-11 20:28:21.894484,-119.0
2023-08-11 20:28:21.902173,-114.0
2023-08-11 20:28:21.909862,-100.0
2023-08-11 20:28:21.917551,-83.0
2023-08-11 20:28:21.925240,-66.0
2023-08-11 20:28:21.932930,-45.0
2023-08-11 20:28:21.940619,-26.0
2023-08-11 20:28:21.948308,-11.0
2023-08-11 20:28:21.955997,-4.0
2023-08-11 20:28:21.963687,-2.0
2023-08-11 20:28:21.971376,-4.0
2023-08-11 20:28:21.979065,0.0
2023-08-11 20:28:21.986754,2.0
2023-08-11 20:28:21.994443,0.0
2023-08-11 20:28:22.002133,-2.0
2023-08-11 20:28:22.009822,-2.0
2023-08-11 20:28:22.017511,-4.0
2023-08-11 20:28:22.025200,-4.0
2023-08-11 20:28:22.032889,-2.0
2023-08-11 20:28:22.040579,0.0
2023-08-11 20:28:22.048268,-2.0
2023-08-11 20:28:22.055957,-2.0
2023-08-11 20:28:22.063646,-4.0
2023-08-11 20:28:22.071335,-4.0
2023-08-11 20:28:22.079025,-2.0
2023-08-11 20:28:22.086714,2.0
2023-08-11 20:28:22.094403,4.0
2023-08-11 20:28:22.102092,7.0
2023-08-11 20:28:22.109782,9.0
2023-08-11 20:28:22.117471,9.0
2023-08-11 20:28:22.125160,9.0
2023-08-11 20:28:22.132849,16.0
2023-08-11 20:28:22.140538,21.0
2023-08-11 20:28:22.148228,16.0
2023-08-11 20:28:22.155917,4.0
2023-08-11 20:28:22.163606,-14.0
2023-08-11 20:28:22.171295,-23.0
2023-08-11 20:28:22.178984,-19.0
2023-08-11 20:28:22.186674,2.0
2023-08-11 20:28:22.194363,19.0
2023-08-11 20:28:22.202052,21.0
2023-08-11 20:28:22.209741,19.0
2023-08-11 20:28:22.217431,21.0
2023-08-11 20:28:22.225120,19.0
2023-08-11 20:28:22.232809,7.0
2023-08-11 20:28:22.240498,9.0
2023-08-11 20:28:22.248187,40.0
2023-08-11 20:28:22.255877,40.0
2023-08-11 20:28:22.263566,-124.0
2023-08-11 20:28:22.271255,-477.0
2023-08-11 20:28:22.278944,-637.0
2023-08-11 20:28:22.286633,-191.0
2023-08-11 20:28:22.294323,329.0
2023-08-11 20:28:22.302012,226.0
2023-08-11 20:28:22.309701,-14.0
2023-08-11 20:28:22.317390,50.0
2023-08-11 20:28:22.325079,90.0
2023-08-11 20:28:22.332769,28.0
2023-08-11 20:28:22.340458,31.0
2023-08-11 20:28:22.348147,54.0
2023-08-11 20:28:22.355836,35.0
2023-08-11 20:28:22.363526,26.0
2023-08-11 20:28:22.371215,35.0
2023-08-11 20:28:22.378904,33.0
2023-08-11 20:28:22.386593,28.0
2023-08-11 20:28:22.394282,28.0
2023-08-11 20:28:22.401972,23.0
2023-08-11 20:28:22.409661,21.0
2023-08-11 20:28:22.417350,19.0
2023-08-11 20:28:22.425039,16.0
2023-08-11 20:28:22.432728,9.0
2023-08-11 20:28:22.440418,4.0
2023-08-11 20:28:22.448107,2.0
2023-08-11 20:28:22.455796,-4.0
2023-08-11 20:28:22.463485,-14.0
2023-08-11 20:28:22.471174,-19.0
2023-08-11 20:28:22.478864,-23.0
2023-08-11 20:28:22.486553,-33.0
2023-08-11 20:28:22.494242,-42.0
2023-08-11 20:28:22.501931,-47.0
2023-08-11 20:28:22.509621,-54.0
2023-08-11 20:28:22.517310,-59.0
2023-08-11 20:28:22.524999,-64.0
2023-08-11 20:28:22.532688,-64.0
2023-08-11 20:28:22.540377,-62.0
2023-08-11 20:28:22.548067,-54.0
2023-08-11 20:28:22.555756,-42.0
2023-08-11 20:28:22.563445,-28.0
2023-08-11 20:28:22.571134,-14.0
2023-08-11 20:28:22.578823,2.0
2023-08-11 20:28:22.586513,16.0
2023-08-11 20:28:22.594202,26.0
2023-08-11 20:28:22.601891,33.0
2023-08-11 20:28:22.609580,35.0
2023-08-11 20:28:22.617270,33.0
2023-08-11 20:28:22.624959,28.0
2023-08-11 20:28:22.632648,23.0
2023-08-11 20:28:22.640337,21.0
2023-08-11 20:28:22.648026,23.0
2023-08-11 20:28:22.655716,21.0
2023-08-11 20:28:22.663405,19.0
2023-08-11 20:28:22.671094,19.0
2023-08-11 20:28:22.678783,16.0
2023-08-11 20:28:22.686472,14.0
2023-08-11 20:28:22.694162,16.0
2023-08-11 20:28:22.701851,19.0
2023-08-11 20:28:22.709540,16.0
2023-08-11 20:28:22.717229,16.0
2023-08-11 20:28:22.724918,19.0
2023-08-11 20:28:22.732608,23.0
2023-08-11 20:28:22.740297,26.0
2023-08-11 20:28:22.747986,23.0
2023-08-11 20:28:22.755675,23.0
2023-08-11 20:28:22.763365,21.0
2023-08-11 20:28:22.771054,16.0
2023-08-11 20:28:22.778743,14.0
2023-08-11 20:28:22.786432,21.0
2023-08-11 20:28:22.794121,26.0
2023-08-11 20:28:22.801811,26.0
2023-08-11 20:28:22.809500,26.0
2023-08-11 20:28:22.817189,19.0
2023-08-11 20:28:22.824878,4.0
2023-08-11 20:28:22.832567,-16.0
2023-08-11 20:28:22.840257,-26.0
2023-08-11 20:28:22.847946,-9.0
2023-08-11 20:28:22.855635,11.0
2023-08-11 20:28:22.863324,19.0
2023-08-11 20:28:22.871013,21.0
2023-08-11 20:28:22.878703,26.0
2023-08-11 20:28:22.886392,21.0
2023-08-11 20:28:22.894081,16.0
2023-08-11 20:28:22.901770,16.0
2023-08-11 20:28:22.909460,23.0
2023-08-11 20:28:22.917149,47.0
2023-08-11 20:28:22.924838,45.0
2023-08-11 20:28:22.932527,-119.0
2023-08-11 20:28:22.940216,-456.0
2023-08-11 20:28:22.947906,-587.0
2023-08-11 20:28:22.955595,-140.0
2023-08-11 20:28:22.963284,329.0
2023-08-11 20:28:22.970973,200.0
2023-08-11 20:28:22.978662,-21.0
2023-08-11 20:28:22.986352,50.0
2023-08-11 20:28:22.994041,81.0
2023-08-11 20:28:23.001730,14.0
2023-08-11 20:28:23.009419,26.0
2023-08-11 20:28:23.017109,47.0
2023-08-11 20:28:23.024798,23.0
2023-08-11 20:28:23.032487,16.0
2023-08-11 20:28:23.040176,26.0
2023-08-11 20:28:23.047865,19.0
2023-08-11 20:28:23.055555,9.0
2023-08-11 20:28:23.063244,9.0
2023-08-11 20:28:23.070933,7.0
2023-08-11 20:28:23.078622,2.0
2023-08-11 20:28:23.086311,0.0
2023-08-11 20:28:23.094001,-4.0
2023-08-11 20:28:23.101690,-11.0
2023-08-11 20:28:23.109379,-19.0
2023-08-11 20:28:23.117068,-23.0
2023-08-11 20:28:23.124757,-31.0
2023-08-11 20:28:23.132447,-42.0
2023-08-11 20:28:23.140136,-54.0
2023-08-11 20:28:23.147825,-62.0
2023-08-11 20:28:23.155514,-69.0
2023-08-11 20:28:23.163204,-76.0
2023-08-11 20:28:23.170893,-83.0
2023-08-11 20:28:23.178582,-90.0
2023-08-11 20:28:23.186271,-97.0
2023-08-11 20:28:23.193960,-105.0
2023-08-11 20:28:23.201650,-109.0
2023-08-11 20:28:23.209339,-112.0
2023-08-11 20:28:23.217028,-107.0
2023-08-11 20:28:23.224717,-95.0
2023-08-11 20:28:23.232406,-78.0
2023-08-11 20:28:23.240096,-59.0
2023-08-11 20:28:23.247785,-42.0
2023-08-11 20:28:23.255474,-26.0
2023-08-11 20:28:23.263163,-16.0
2023-08-11 20:28:23.270852,-14.0
2023-08-11 20:28:23.278542,-16.0
2023-08-11 20:28:23.286231,-16.0
2023-08-11 20:28:23.293920,-14.0
2023-08-11 20:28:23.301609,-19.0
2023-08-11 20:28:23.309299,-31.0
2023-08-11 20:28:23.316988,-40.0
2023-08-11 20:28:23.324677,-35.0
2023-08-11 20:28:23.332366,-33.0
2023-08-11 20:28:23.340055,-35.0
2023-08-11 20:28:23.347745,-38.0
2023-08-11 20:28:23.355434,-40.0
2023-08-11 20:28:23.363123,-40.0
2023-08-11 20:28:23.370812,-40.0
2023-08-11 20:28:23.378501,-42.0
2023-08-11 20:28:23.386191,-40.0
2023-08-11 20:28:23.393880,-38.0
2023-08-11 20:28:23.401569,-40.0
2023-08-11 20:28:23.409258,-40.0
2023-08-11 20:28:23.416948,-33.0
2023-08-11 20:28:23.424637,-28.0
2023-08-11 20:28:23.432326,-31.0
2023-08-11 20:28:23.440015,-31.0
2023-08-11 20:28:23.447704,-33.0
2023-08-11 20:28:23.455394,-31.0
2023-08-11 20:28:23.463083,-31.0
2023-08-11 20:28:23.470772,-31.0
2023-08-11 20:28:23.478461,-23.0
2023-08-11 20:28:23.486150,-21.0
2023-08-11 20:28:23.493840,-31.0
2023-08-11 20:28:23.501529,-42.0
2023-08-11 20:28:23.509218,-64.0
2023-08-11 20:28:23.516907,-83.0
2023-08-11 20:28:23.524596,-76.0
2023-08-11 20:28:23.532286,-57.0
2023-08-11 20:28:23.539975,-45.0
2023-08-11 20:28:23.547664,-42.0
2023-08-11 20:28:23.555353,-45.0
2023-08-11 20:28:23.563043,-40.0
2023-08-11 20:28:23.570732,-40.0
2023-08-11 20:28:23.578421,-47.0
2023-08-11 20:28:23.586110,-54.0
2023-08-11 20:28:23.593799,-38.0
2023-08-11 20:28:23.601489,-16.0
2023-08-11 20:28:23.609178,-97.0
2023-08-11 20:28:23.616867,-370.0
2023-08-11 20:28:23.624556,-642.0
2023-08-11 20:28:23.632245,-446.0
2023-08-11 20:28:23.639935,100.0
2023-08-11 20:28:23.647624,222.0
2023-08-11 20:28:23.655313,-21.0
2023-08-11 20:28:23.663002,-66.0
2023-08-11 20:28:23.670691,-7.0
2023-08-11 20:28:23.678381,-47.0
2023-08-11 20:28:23.686070,-69.0
2023-08-11 20:28:23.693759,-47.0
2023-08-11 20:28:23.701448,-52.0
2023-08-11 20:28:23.709138,-62.0
2023-08-11 20:28:23.716827,-57.0
2023-08-11 20:28:23.724516,-62.0
2023-08-11 20:28:23.732205,-66.0
2023-08-11 20:28:23.739894,-62.0
2023-08-11 20:28:23.747584,-66.0
2023-08-11 20:28:23.755273,-78.0
2023-08-11 20:28:23.762962,-81.0
2023-08-11 20:28:23.770651,-78.0
2023-08-11 20:28:23.778340,-83.0
2023-08-11 20:28:23.786030,-93.0
2023-08-11 20:28:23.793719,-100.0
2023-08-11 20:28:23.801408,-109.0
2023-08-11 20:28:23.809097,-119.0
2023-08-11 20:28:23.816787,-121.0
2023-08-11 20:28:23.824476,-126.0
2023-08-11 20:28:23.832165,-136.0
2023-08-11 20:28:23.839854,-148.0
2023-08-11 20:28:23.847543,-157.0
2023-08-11 20:28:23.855233,-167.0
2023-08-11 20:28:23.862922,-176.0
2023-08-11 20:28:23.870611,-179.0
2023-08-11 20:28:23.878300,-176.0
2023-08-11 20:28:23.885989,-179.0
2023-08-11 20:28:23.893679,-181.0
2023-08-11 20:28:23.901368,-179.0
2023-08-11 20:28:23.909057,-162.0
2023-08-11 20:28:23.916746,-143.0
2023-08-11 20:28:23.924435,-124.0
2023-08-11 20:28:23.932125,-105.0
2023-08-11 20:28:23.939814,-90.0
2023-08-11 20:28:23.947503,-83.0
2023-08-11 20:28:23.955192,-81.0
2023-08-11 20:28:23.962882,-76.0
2023-08-11 20:28:23.970571,-74.0
2023-08-11 20:28:23.978260,-74.0
2023-08-11 20:28:23.985949,-76.0
2023-08-11 20:28:23.993638,-81.0
2023-08-11 20:28:24.001328,-83.0
2023-08-11 20:28:24.009017,-83.0
2023-08-11 20:28:24.016706,-78.0
2023-08-11 20:28:24.024395,-83.0
2023-08-11 20:28:24.032084,-93.0
2023-08-11 20:28:24.039774,-97.0
2023-08-11 20:28:24.047463,-95.0
2023-08-11 20:28:24.055152,-93.0
2023-08-11 20:28:24.062841,-88.0
2023-08-11 20:28:24.070530,-88.0
2023-08-11 20:28:24.078220,-90.0
2023-08-11 20:28:24.085909,-88.0
2023-08-11 20:28:24.093598,-83.0
2023-08-11 20:28:24.101287,-78.0
2023-08-11 20:28:24.108977,-76.0
2023-08-11 20:28:24.116666,-74.0
2023-08-11 20:28:24.124355,-71.0
2023-08-11 20:28:24.132044,-66.0
2023-08-11 20:28:24.139733,-76.0
2023-08-11 20:28:24.147423,-93.0
2023-08-11 20:28:24.155112,-107.0
2023-08-11 20:28:24.162801,-107.0
2023-08-11 20:28:24.170490,-90.0
2023-08-11 20:28:24.178179,-69.0
2023-08-11 20:28:24.185869,-66.0
2023-08-11 20:28:24.193558,-71.0
2023-08-11 20:28:24.201247,-64.0
2023-08-11 20:28:24.208936,-64.0
2023-08-11 20:28:24.216625,-69.0
2023-08-11 20:28:24.224315,-66.0
2023-08-11 20:28:24.232004,-45.0
2023-08-11 20:28:24.239693,-35.0
2023-08-11 20:28:24.247382,-160.0
2023-08-11 20:28:24.255072,-477.0
2023-08-11 20:28:24.262761,-683.0
2023-08-11 20:28:24.270450,-334.0
2023-08-11 20:28:24.278139,195.0
2023-08-11 20:28:24.285828,188.0
2023-08-11 20:28:24.293518,-45.0
2023-08-11 20:28:24.301207,-33.0
2023-08-11 20:28:24.308896,2.0
2023-08-11 20:28:24.316585,-42.0
2023-08-11 20:28:24.324274,-42.0
2023-08-11 20:28:24.331964,-26.0
2023-08-11 20:28:24.339653,-40.0
2023-08-11 20:28:24.347342,-50.0
2023-08-11 20:28:24.355031,-42.0
2023-08-11 20:28:24.362721,-45.0
2023-08-11 20:28:24.370410,-54.0
2023-08-11 20:28:24.378099,-54.0
2023-08-11 20:28:24.385788,-54.0
2023-08-11 20:28:24.393477,-59.0
2023-08-11 20:28:24.401167,-59.0
2023-08-11 20:28:24.408856,-59.0
2023-08-11 20:28:24.416545,-66.0
2023-08-11 20:28:24.424234,-74.0
2023-08-11 20:28:24.431923,-85.0
2023-08-11 20:28:24.439613,-95.0
2023-08-11 20:28:24.447302,-100.0
2023-08-11 20:28:24.454991,-105.0
2023-08-11 20:28:24.462680,-117.0
2023-08-11 20:28:24.470369,-126.0
2023-08-11 20:28:24.478059,-136.0
2023-08-11 20:28:24.485748,-145.0
2023-08-11 20:28:24.493437,-145.0
2023-08-11 20:28:24.501126,-145.0
2023-08-11 20:28:24.508816,-148.0
2023-08-11 20:28:24.516505,-148.0
2023-08-11 20:28:24.524194,-145.0
2023-08-11 20:28:24.531883,-138.0
2023-08-11 20:28:24.539572,-124.0
2023-08-11 20:28:24.547262,-105.0
2023-08-11 20:28:24.554951,-85.0
2023-08-11 20:28:24.562640,-71.0
2023-08-11 20:28:24.570329,-57.0
2023-08-11 20:28:24.578018,-40.0
2023-08-11 20:28:24.585708,-33.0
2023-08-11 20:28:24.593397,-33.0
2023-08-11 20:28:24.601086,-33.0
2023-08-11 20:28:24.608775,-31.0
2023-08-11 20:28:24.616464,-31.0
2023-08-11 20:28:24.624154,-35.0
2023-08-11 20:28:24.631843,-33.0
2023-08-11 20:28:24.639532,-31.0
2023-08-11 20:28:24.647221,-38.0
2023-08-11 20:28:24.654911,-42.0
2023-08-11 20:28:24.662600,-42.0
2023-08-11 20:28:24.670289,-40.0
2023-08-11 20:28:24.677978,-40.0
2023-08-11 20:28:24.685667,-38.0
2023-08-11 20:28:24.693357,-38.0
2023-08-11 20:28:24.701046,-35.0
2023-08-11 20:28:24.708735,-31.0
2023-08-11 20:28:24.716424,-28.0
2023-08-11 20:28:24.724113,-28.0
2023-08-11 20:28:24.731803,-23.0
2023-08-11 20:28:24.739492,-21.0
2023-08-11 20:28:24.747181,-19.0
2023-08-11 20:28:24.754870,-11.0
2023-08-11 20:28:24.762560,-7.0
2023-08-11 20:28:24.770249,-4.0
2023-08-11 20:28:24.777938,-9.0
2023-08-11 20:28:24.785627,-23.0
2023-08-11 20:28:24.793316,-45.0
2023-08-11 20:28:24.801006,-54.0
2023-08-11 20:28:24.808695,-45.0
2023-08-11 20:28:24.816384,-23.0
2023-08-11 20:28:24.824073,-7.0
2023-08-11 20:28:24.831762,-4.0
2023-08-11 20:28:24.839452,-4.0
2023-08-11 20:28:24.847141,-7.0
2023-08-11 20:28:24.854830,-14.0
2023-08-11 20:28:24.862519,-16.0
2023-08-11 20:28:24.870208,-4.0
2023-08-11 20:28:24.877898,21.0
2023-08-11 20:28:24.885587,4.0
2023-08-11 20:28:24.893276,-183.0
2023-08-11 20:28:24.900965,-532.0
2023-08-11 20:28:24.908655,-630.0
2023-08-11 20:28:24.916344,-138.0
2023-08-11 20:28:24.924033,320.0
2023-08-11 20:28:24.931722,167.0
2023-08-11 20:28:24.939411,-35.0
2023-08-11 20:28:24.947101,45.0
2023-08-11 20:28:24.954790,64.0
2023-08-11 20:28:24.962479,4.0
2023-08-11 20:28:24.970168,14.0
2023-08-11 20:28:24.977857,21.0
2023-08-11 20:28:24.985547,0.0
2023-08-11 20:28:24.993236,0.0
2023-08-11 20:28:25.000925,7.0
2023-08-11 20:28:25.008614,2.0
2023-08-11 20:28:25.016303,0.0
2023-08-11 20:28:25.023993,0.0
2023-08-11 20:28:25.031682,-2.0
2023-08-11 20:28:25.039371,0.0
2023-08-11 20:28:25.047060,0.0
2023-08-11 20:28:25.054750,-7.0
2023-08-11 20:28:25.062439,-16.0
2023-08-11 20:28:25.070128,-28.0
2023-08-11 20:28:25.077817,-33.0
2023-08-11 20:28:25.085506,-35.0
2023-08-11 20:28:25.093196,-40.0
2023-08-11 20:28:25.100885,-47.0
2023-08-11 20:28:25.108574,-57.0
2023-08-11 20:28:25.116263,-66.0
2023-08-11 20:28:25.123952,-71.0
2023-08-11 20:28:25.131642,-71.0
2023-08-11 20:28:25.139331,-76.0
2023-08-11 20:28:25.147020,-81.0
2023-08-11 20:28:25.154709,-85.0
2023-08-11 20:28:25.162399,-81.0
2023-08-11 20:28:25.170088,-71.0
2023-08-11 20:28:25.177777,-54.0
2023-08-11 20:28:25.185466,-40.0
2023-08-11 20:28:25.193155,-23.0
2023-08-11 20:28:25.200845,-2.0
2023-08-11 20:28:25.208534,16.0
2023-08-11 20:28:25.216223,31.0
2023-08-11 20:28:25.223912,45.0
2023-08-11 20:28:25.231601,52.0
2023-08-11 20:28:25.239291,50.0
2023-08-11 20:28:25.246980,50.0
2023-08-11 20:28:25.254669,52.0
2023-08-11 20:28:25.262358,52.0
2023-08-11 20:28:25.270047,47.0
2023-08-11 20:28:25.277737,42.0
2023-08-11 20:28:25.285426,40.0
2023-08-11 20:28:25.293115,40.0
2023-08-11 20:28:25.300804,40.0
2023-08-11 20:28:25.308494,40.0
2023-08-11 20:28:25.316183,38.0
2023-08-11 20:28:25.323872,38.0
2023-08-11 20:28:25.331561,38.0
2023-08-11 20:28:25.339250,38.0
2023-08-11 20:28:25.346940,38.0
2023-08-11 20:28:25.354629,40.0
2023-08-11 20:28:25.362318,35.0
2023-08-11 20:28:25.370007,33.0
2023-08-11 20:28:25.377696,35.0
2023-08-11 20:28:25.385386,40.0
2023-08-11 20:28:25.393075,45.0
2023-08-11 20:28:25.400764,50.0
2023-08-11 20:28:25.408453,50.0
2023-08-11 20:28:25.416142,54.0
2023-08-11 20:28:25.423832,59.0
2023-08-11 20:28:25.431521,59.0
2023-08-11 20:28:25.439210,59.0
2023-08-11 20:28:25.446899,45.0
2023-08-11 20:28:25.454589,26.0
2023-08-11 20:28:25.462278,23.0
2023-08-11 20:28:25.469967,47.0
2023-08-11 20:28:25.477656,71.0
2023-08-11 20:28:25.485345,78.0
2023-08-11 20:28:25.493035,78.0
2023-08-11 20:28:25.500724,78.0
2023-08-11 20:28:25.508413,76.0
2023-08-11 20:28:25.516102,69.0
2023-08-11 20:28:25.523791,64.0
2023-08-11 20:28:25.531481,71.0
2023-08-11 20:28:25.539170,95.0
2023-08-11 20:28:25.546859,64.0
2023-08-11 20:28:25.554548,-155.0
2023-08-11 20:28:25.562238,-503.0
2023-08-11 20:28:25.569927,-515.0
2023-08-11 20:28:25.577616,31.0
2023-08-11 20:28:25.585305,391.0
2023-08-11 20:28:25.592994,167.0
2023-08-11 20:28:25.600684,4.0
2023-08-11 20:28:25.608373,95.0
2023-08-11 20:28:25.616062,90.0
2023-08-11 20:28:25.623751,38.0
2023-08-11 20:28:25.631440,57.0
2023-08-11 20:28:25.639130,64.0
2023-08-11 20:28:25.646819,42.0
2023-08-11 20:28:25.654508,40.0
2023-08-11 20:28:25.662197,45.0
2023-08-11 20:28:25.669886,40.0
2023-08-11 20:28:25.677576,38.0
2023-08-11 20:28:25.685265,35.0
2023-08-11 20:28:25.692954,31.0
2023-08-11 20:28:25.700643,23.0
2023-08-11 20:28:25.708333,16.0
2023-08-11 20:28:25.716022,11.0
2023-08-11 20:28:25.723711,4.0
2023-08-11 20:28:25.731400,0.0
2023-08-11 20:28:25.739089,-7.0
2023-08-11 20:28:25.746779,-16.0
2023-08-11 20:28:25.754468,-23.0
2023-08-11 20:28:25.762157,-31.0
2023-08-11 20:28:25.769846,-40.0
2023-08-11 20:28:25.777535,-47.0
2023-08-11 20:28:25.785225,-54.0
2023-08-11 20:28:25.792914,-62.0
2023-08-11 20:28:25.800603,-69.0
2023-08-11 20:28:25.808292,-74.0
2023-08-11 20:28:25.815981,-78.0
2023-08-11 20:28:25.823671,-81.0
2023-08-11 20:28:25.831360,-78.0
2023-08-11 20:28:25.839049,-66.0
2023-08-11 20:28:25.846738,-47.0
2023-08-11 20:28:25.854428,-28.0
2023-08-11 20:28:25.862117,-14.0
2023-08-11 20:28:25.869806,0.0
2023-08-11 20:28:25.877495,11.0
2023-08-11 20:28:25.885184,16.0
2023-08-11 20:28:25.892874,19.0
2023-08-11 20:28:25.900563,19.0
2023-08-11 20:28:25.908252,21.0
2023-08-11 20:28:25.915941,21.0
2023-08-11 20:28:25.923630,19.0
2023-08-11 20:28:25.931320,14.0
2023-08-11 20:28:25.939009,14.0
2023-08-11 20:28:25.946698,11.0
2023-08-11 20:28:25.954387,9.0
2023-08-11 20:28:25.962077,7.0
2023-08-11 20:28:25.969766,7.0
2023-08-11 20:28:25.977455,4.0
2023-08-11 20:28:25.985144,4.0
2023-08-11 20:28:25.992833,7.0
2023-08-11 20:28:26.000523,7.0
2023-08-11 20:28:26.008212,2.0
2023-08-11 20:28:26.015901,0.0
2023-08-11 20:28:26.023590,2.0
2023-08-11 20:28:26.031279,4.0
2023-08-11 20:28:26.038969,2.0
2023-08-11 20:28:26.046658,2.0
2023-08-11 20:28:26.054347,2.0
2023-08-11 20:28:26.062036,2.0
2023-08-11 20:28:26.069725,4.0
2023-08-11 20:28:26.077415,7.0
2023-08-11 20:28:26.085104,11.0
2023-08-11 20:28:26.092793,16.0
2023-08-11 20:28:26.100482,11.0
2023-08-11 20:28:26.108172,-2.0
2023-08-11 20:28:26.115861,-21.0
2023-08-11 20:28:26.123550,-38.0
2023-08-11 20:28:26.131239,-33.0
2023-08-11 20:28:26.138928,-14.0
2023-08-11 20:28:26.146618,-4.0
2023-08-11 20:28:26.154307,-2.0
2023-08-11 20:28:26.161996,0.0
2023-08-11 20:28:26.169685,0.0
2023-08-11 20:28:26.177374,0.0
2023-08-11 20:28:26.185064,-4.0
2023-08-11 20:28:26.192753,-11.0
2023-08-11 20:28:26.200442,-2.0
2023-08-11 20:28:26.208131,14.0
2023-08-11 20:28:26.215820,-78.0
2023-08-11 20:28:26.223510,-365.0
2023-08-11 20:28:26.231199,-621.0
2023-08-11 20:28:26.238888,-372.0
2023-08-11 20:28:26.246577,181.0
2023-08-11 20:28:26.254267,241.0
2023-08-11 20:28:26.261956,-35.0
2023-08-11 20:28:26.269645,-45.0
2023-08-11 20:28:26.277334,31.0
2023-08-11 20:28:26.285023,-23.0
2023-08-11 20:28:26.292713,-47.0
2023-08-11 20:28:26.300402,-21.0
2023-08-11 20:28:26.308091,-33.0
2023-08-11 20:28:26.315780,-47.0
2023-08-11 20:28:26.323469,-42.0
2023-08-11 20:28:26.331159,-47.0
2023-08-11 20:28:26.338848,-52.0
2023-08-11 20:28:26.346537,-50.0
2023-08-11 20:28:26.354226,-52.0
2023-08-11 20:28:26.361915,-62.0
2023-08-11 20:28:26.369605,-69.0
2023-08-11 20:28:26.377294,-74.0
2023-08-11 20:28:26.384983,-74.0
2023-08-11 20:28:26.392672,-78.0
2023-08-11 20:28:26.400362,-85.0
2023-08-11 20:28:26.408051,-95.0
2023-08-11 20:28:26.415740,-100.0
2023-08-11 20:28:26.423429,-109.0
2023-08-11 20:28:26.431118,-117.0
2023-08-11 20:28:26.438808,-126.0
2023-08-11 20:28:26.446497,-136.0
2023-08-11 20:28:26.454186,-143.0
2023-08-11 20:28:26.461875,-148.0
2023-08-11 20:28:26.469564,-152.0
2023-08-11 20:28:26.477254,-160.0
2023-08-11 20:28:26.484943,-162.0
2023-08-11 20:28:26.492632,-164.0
2023-08-11 20:28:26.500321,-162.0
2023-08-11 20:28:26.508011,-155.0
2023-08-11 20:28:26.515700,-143.0
2023-08-11 20:28:26.523389,-121.0
2023-08-11 20:28:26.531078,-100.0
2023-08-11 20:28:26.538767,-88.0
2023-08-11 20:28:26.546457,-83.0
2023-08-11 20:28:26.554146,-76.0
2023-08-11 20:28:26.561835,-66.0
2023-08-11 20:28:26.569524,-62.0
2023-08-11 20:28:26.577213,-69.0
2023-08-11 20:28:26.584903,-76.0
2023-08-11 20:28:26.592592,-76.0
2023-08-11 20:28:26.600281,-76.0
2023-08-11 20:28:26.607970,-76.0
2023-08-11 20:28:26.615659,-74.0
2023-08-11 20:28:26.623349,-74.0
2023-08-11 20:28:26.631038,-78.0
2023-08-11 20:28:26.638727,-76.0
2023-08-11 20:28:26.646416,-76.0
2023-08-11 20:28:26.654106,-78.0
2023-08-11 20:28:26.661795,-74.0
2023-08-11 20:28:26.669484,-74.0
2023-08-11 20:28:26.677173,-78.0
2023-08-11 20:28:26.684862,-81.0
2023-08-11 20:28:26.692552,-81.0
2023-08-11 20:28:26.700241,-88.0
2023-08-11 20:28:26.707930,-83.0
2023-08-11 20:28:26.715619,-74.0
2023-08-11 20:28:26.723308,-74.0
2023-08-11 20:28:26.730998,-78.0
2023-08-11 20:28:26.738687,-78.0
2023-08-11 20:28:26.746376,-83.0
2023-08-11 20:28:26.754065,-100.0
2023-08-11 20:28:26.761754,-114.0
2023-08-11 20:28:26.769444,-119.0
2023-08-11 20:28:26.777133,-114.0
2023-08-11 20:28:26.784822,-93.0
2023-08-11 20:28:26.792511,-71.0
2023-08-11 20:28:26.800201,-71.0
2023-08-11 20:28:26.807890,-74.0
2023-08-11 20:28:26.815579,-81.0
2023-08-11 20:28:26.823268,-90.0
2023-08-11 20:28:26.830957,-85.0
2023-08-11 20:28:26.838647,-66.0
2023-08-11 20:28:26.846336,-47.0
2023-08-11 20:28:26.854025,-107.0
2023-08-11 20:28:26.861714,-348.0
2023-08-11 20:28:26.869403,-647.0
2023-08-11 20:28:26.877093,-532.0
2023-08-11 20:28:26.884782,9.0
2023-08-11 20:28:26.892471,222.0
2023-08-11 20:28:26.900160,-2.0
2023-08-11 20:28:26.907850,-88.0
2023-08-11 20:28:26.915539,-33.0
2023-08-11 20:28:26.923228,-57.0
2023-08-11 20:28:26.930917,-83.0
2023-08-11 20:28:26.938606,-66.0
2023-08-11 20:28:26.946296,-71.0
2023-08-11 20:28:26.953985,-85.0
2023-08-11 20:28:26.961674,-83.0
2023-08-11 20:28:26.969363,-83.0
2023-08-11 20:28:26.977052,-90.0
2023-08-11 20:28:26.984742,-93.0
2023-08-11 20:28:26.992431,-95.0
2023-08-11 20:28:27.000120,-107.0
2023-08-11 20:28:27.007809,-114.0
2023-08-11 20:28:27.015498,-114.0
2023-08-11 20:28:27.023188,-119.0
2023-08-11 20:28:27.030877,-124.0
2023-08-11 20:28:27.038566,-131.0
2023-08-11 20:28:27.046255,-140.0
2023-08-11 20:28:27.053945,-148.0
2023-08-11 20:28:27.061634,-150.0
2023-08-11 20:28:27.069323,-160.0
2023-08-11 20:28:27.077012,-171.0
2023-08-11 20:28:27.084701,-176.0
2023-08-11 20:28:27.092391,-181.0
2023-08-11 20:28:27.100080,-188.0
2023-08-11 20:28:27.107769,-193.0
2023-08-11 20:28:27.115458,-193.0
2023-08-11 20:28:27.123147,-188.0
2023-08-11 20:28:27.130837,-186.0
2023-08-11 20:28:27.138526,-186.0
2023-08-11 20:28:27.146215,-176.0
2023-08-11 20:28:27.153904,-155.0
2023-08-11 20:28:27.161593,-136.0
2023-08-11 20:28:27.169283,-121.0
2023-08-11 20:28:27.176972,-105.0
2023-08-11 20:28:27.184661,-88.0
2023-08-11 20:28:27.192350,-78.0
2023-08-11 20:28:27.200040,-74.0
2023-08-11 20:28:27.207729,-74.0
2023-08-11 20:28:27.215418,-74.0
2023-08-11 20:28:27.223107,-74.0
2023-08-11 20:28:27.230796,-78.0
2023-08-11 20:28:27.238486,-83.0
2023-08-11 20:28:27.246175,-83.0
2023-08-11 20:28:27.253864,-85.0
2023-08-11 20:28:27.261553,-85.0
2023-08-11 20:28:27.269242,-95.0
2023-08-11 20:28:27.276932,-102.0
2023-08-11 20:28:27.284621,-97.0
2023-08-11 20:28:27.292310,-95.0
2023-08-11 20:28:27.299999,-95.0
2023-08-11 20:28:27.307689,-85.0
2023-08-11 20:28:27.315378,-81.0
2023-08-11 20:28:27.323067,-83.0
2023-08-11 20:28:27.330756,-76.0
2023-08-11 20:28:27.338445,-69.0
2023-08-11 20:28:27.346135,-66.0
2023-08-11 20:28:27.353824,-76.0
2023-08-11 20:28:27.361513,-95.0
2023-08-11 20:28:27.369202,-119.0
2023-08-11 20:28:27.376891,-126.0
2023-08-11 20:28:27.384581,-114.0
2023-08-11 20:28:27.392270,-95.0
2023-08-11 20:28:27.399959,-81.0
2023-08-11 20:28:27.407648,-81.0
2023-08-11 20:28:27.415337,-78.0
2023-08-11 20:28:27.423027,-71.0
2023-08-11 20:28:27.430716,-71.0
2023-08-11 20:28:27.438405,-74.0
2023-08-11 20:28:27.446094,-66.0
2023-08-11 20:28:27.453784,-47.0
2023-08-11 20:28:27.461473,-88.0
2023-08-11 20:28:27.469162,-315.0
2023-08-11 20:28:27.476851,-644.0
2023-08-11 20:28:27.484540,-599.0
2023-08-11 20:28:27.492230,-47.0
2023-08-11 20:28:27.499919,255.0
2023-08-11 20:28:27.507608,47.0
2023-08-11 20:28:27.515297,-69.0
2023-08-11 20:28:27.522986,-2.0
2023-08-11 20:28:27.530676,-19.0
2023-08-11 20:28:27.538365,-52.0
2023-08-11 20:28:27.546054,-33.0
2023-08-11 20:28:27.553743,-35.0
2023-08-11 20:28:27.561432,-47.0
2023-08-11 20:28:27.569122,-40.0
2023-08-11 20:28:27.576811,-40.0
2023-08-11 20:28:27.584500,-47.0
2023-08-11 20:28:27.592189,-45.0
2023-08-11 20:28:27.599879,-42.0
2023-08-11 20:28:27.607568,-50.0
2023-08-11 20:28:27.615257,-54.0
2023-08-11 20:28:27.622946,-54.0
2023-08-11 20:28:27.630635,-64.0
2023-08-11 20:28:27.638325,-69.0
2023-08-11 20:28:27.646014,-69.0
2023-08-11 20:28:27.653703,-74.0
2023-08-11 20:28:27.661392,-83.0
2023-08-11 20:28:27.669081,-90.0
2023-08-11 20:28:27.676771,-95.0
2023-08-11 20:28:27.684460,-102.0
2023-08-11 20:28:27.692149,-112.0
2023-08-11 20:28:27.699838,-119.0
2023-08-11 20:28:27.707528,-126.0
2023-08-11 20:28:27.715217,-131.0
2023-08-11 20:28:27.722906,-131.0
2023-08-11 20:28:27.730595,-136.0
2023-08-11 20:28:27.738284,-136.0
2023-08-11 20:28:27.745974,-126.0
2023-08-11 20:28:27.753663,-114.0
2023-08-11 20:28:27.761352,-100.0
2023-08-11 20:28:27.769041,-81.0
2023-08-11 20:28:27.776730,-62.0
2023-08-11 20:28:27.784420,-50.0
2023-08-11 20:28:27.792109,-40.0
2023-08-11 20:28:27.799798,-28.0
2023-08-11 20:28:27.807487,-21.0
2023-08-11 20:28:27.815176,-23.0
2023-08-11 20:28:27.822866,-23.0
2023-08-11 20:28:27.830555,-26.0
2023-08-11 20:28:27.838244,-28.0
2023-08-11 20:28:27.845933,-31.0
2023-08-11 20:28:27.853623,-38.0
2023-08-11 20:28:27.861312,-42.0
2023-08-11 20:28:27.869001,-42.0
2023-08-11 20:28:27.876690,-47.0
2023-08-11 20:28:27.884379,-54.0
2023-08-11 20:28:27.892069,-54.0
2023-08-11 20:28:27.899758,-52.0
2023-08-11 20:28:27.907447,-50.0
2023-08-11 20:28:27.915136,-47.0
2023-08-11 20:28:27.922825,-40.0
2023-08-11 20:28:27.930515,-38.0
2023-08-11 20:28:27.938204,-38.0
2023-08-11 20:28:27.945893,-35.0
2023-08-11 20:28:27.953582,-26.0
2023-08-11 20:28:27.961271,-21.0
2023-08-11 20:28:27.968961,-19.0
2023-08-11 20:28:27.976650,-26.0
2023-08-11 20:28:27.984339,-45.0
2023-08-11 20:28:27.992028,-62.0
2023-08-11 20:28:27.999718,-64.0
2023-08-11 20:28:28.007407,-50.0
2023-08-11 20:28:28.015096,-26.0
2023-08-11 20:28:28.022785,-14.0
2023-08-11 20:28:28.030474,-16.0
2023-08-11 20:28:28.038164,-19.0
2023-08-11 20:28:28.045853,-16.0
2023-08-11 20:28:28.053542,-14.0
2023-08-11 20:28:28.061231,-14.0
2023-08-11 20:28:28.068920,4.0
2023-08-11 20:28:28.076610,23.0
2023-08-11 20:28:28.084299,-74.0
2023-08-11 20:28:28.091988,-379.0
2023-08-11 20:28:28.099677,-673.0
2023-08-11 20:28:28.107367,-432.0
2023-08-11 20:28:28.115056,179.0
2023-08-11 20:28:28.122745,291.0
2023-08-11 20:28:28.130434,11.0
2023-08-11 20:28:28.138123,-11.0
2023-08-11 20:28:28.145813,69.0
2023-08-11 20:28:28.153502,21.0
2023-08-11 20:28:28.161191,-2.0
2023-08-11 20:28:28.168880,26.0
2023-08-11 20:28:28.176569,16.0
2023-08-11 20:28:28.184259,2.0
2023-08-11 20:28:28.191948,11.0
2023-08-11 20:28:28.199637,11.0
2023-08-11 20:28:28.207326,4.0
2023-08-11 20:28:28.215015,4.0
2023-08-11 20:28:28.222705,4.0
2023-08-11 20:28:28.230394,-2.0
2023-08-11 20:28:28.238083,-9.0
2023-08-11 20:28:28.245772,-11.0
2023-08-11 20:28:28.253462,-19.0
2023-08-11 20:28:28.261151,-23.0
2023-08-11 20:28:28.268840,-28.0
2023-08-11 20:28:28.276529,-33.0
2023-08-11 20:28:28.284218,-40.0
2023-08-11 20:28:28.291908,-47.0
2023-08-11 20:28:28.299597,-54.0
2023-08-11 20:28:28.307286,-62.0
2023-08-11 20:28:28.314975,-71.0
2023-08-11 20:28:28.322664,-76.0
2023-08-11 20:28:28.330354,-81.0
2023-08-11 20:28:28.338043,-88.0
2023-08-11 20:28:28.345732,-97.0
2023-08-11 20:28:28.353421,-105.0
2023-08-11 20:28:28.361110,-100.0
2023-08-11 20:28:28.368800,-88.0
2023-08-11 20:28:28.376489,-76.0
2023-08-11 20:28:28.384178,-66.0
2023-08-11 20:28:28.391867,-47.0
2023-08-11 20:28:28.399557,-23.0
2023-08-11 20:28:28.407246,-7.0
2023-08-11 20:28:28.414935,2.0
2023-08-11 20:28:28.422624,9.0
2023-08-11 20:28:28.430313,11.0
2023-08-11 20:28:28.438003,9.0
2023-08-11 20:28:28.445692,7.0
2023-08-11 20:28:28.453381,4.0
2023-08-11 20:28:28.461070,2.0
2023-08-11 20:28:28.468759,0.0
2023-08-11 20:28:28.476449,-4.0
2023-08-11 20:28:28.484138,-7.0
2023-08-11 20:28:28.491827,-9.0
2023-08-11 20:28:28.499516,-7.0
2023-08-11 20:28:28.507205,-4.0
2023-08-11 20:28:28.514895,-7.0
2023-08-11 20:28:28.522584,-7.0
2023-08-11 20:28:28.530273,-7.0
2023-08-11 20:28:28.537962,-4.0
2023-08-11 20:28:28.545652,0.0
2023-08-11 20:28:28.553341,0.0
2023-08-11 20:28:28.561030,0.0
2023-08-11 20:28:28.568719,0.0
2023-08-11 20:28:28.576408,0.0
2023-08-11 20:28:28.584098,4.0
2023-08-11 20:28:28.591787,9.0
2023-08-11 20:28:28.599476,16.0
2023-08-11 20:28:28.607165,16.0
2023-08-11 20:28:28.614854,11.0
2023-08-11 20:28:28.622544,-2.0
2023-08-11 20:28:28.630233,-19.0
2023-08-11 20:28:28.637922,-28.0
2023-08-11 20:28:28.645611,-21.0
2023-08-11 20:28:28.653301,-2.0
2023-08-11 20:28:28.660990,11.0
2023-08-11 20:28:28.668679,11.0
2023-08-11 20:28:28.676368,11.0
2023-08-11 20:28:28.684057,14.0
2023-08-11 20:28:28.691747,16.0
2023-08-11 20:28:28.699436,14.0
2023-08-11 20:28:28.707125,19.0
2023-08-11 20:28:28.714814,42.0
2023-08-11 20:28:28.722503,19.0
2023-08-11 20:28:28.730193,-186.0
2023-08-11 20:28:28.737882,-539.0
2023-08-11 20:28:28.745571,-597.0
2023-08-11 20:28:28.753260,-71.0
2023-08-11 20:28:28.760949,343.0
2023-08-11 20:28:28.768639,145.0
2023-08-11 20:28:28.776328,-40.0
2023-08-11 20:28:28.784017,59.0
2023-08-11 20:28:28.791706,69.0
2023-08-11 20:28:28.799396,2.0
2023-08-11 20:28:28.807085,21.0
2023-08-11 20:28:28.814774,35.0
2023-08-11 20:28:28.822463,11.0
2023-08-11 20:28:28.830152,9.0
2023-08-11 20:28:28.837842,14.0
2023-08-11 20:28:28.845531,4.0
2023-08-11 20:28:28.853220,2.0
2023-08-11 20:28:28.860909,2.0
2023-08-11 20:28:28.868598,-2.0
2023-08-11 20:28:28.876288,-2.0
2023-08-11 20:28:28.883977,-4.0
2023-08-11 20:28:28.891666,-16.0
2023-08-11 20:28:28.899355,-23.0
2023-08-11 20:28:28.907044,-23.0
2023-08-11 20:28:28.914734,-28.0
2023-08-11 20:28:28.922423,-35.0
2023-08-11 20:28:28.930112,-42.0
2023-08-11 20:28:28.937801,-54.0
2023-08-11 20:28:28.945491,-66.0
2023-08-11 20:28:28.953180,-71.0
2023-08-11 20:28:28.960869,-78.0
2023-08-11 20:28:28.968558,-90.0
2023-08-11 20:28:28.976247,-105.0
2023-08-11 20:28:28.983937,-117.0
2023-08-11 20:28:28.991626,-119.0
2023-08-11 20:28:28.999315,-117.0
2023-08-11 20:28:29.007004,-112.0
2023-08-11 20:28:29.014693,-102.0
2023-08-11 20:28:29.022383,-88.0
2023-08-11 20:28:29.030072,-71.0
2023-08-11 20:28:29.037761,-52.0
2023-08-11 20:28:29.045450,-33.0
2023-08-11 20:28:29.053140,-21.0
2023-08-11 20:28:29.060829,-16.0
2023-08-11 20:28:29.068518,-14.0
2023-08-11 20:28:29.076207,-16.0
2023-08-11 20:28:29.083896,-16.0
2023-08-11 20:28:29.091586,-14.0
2023-08-11 20:28:29.099275,-14.0
2023-08-11 20:28:29.106964,-16.0
2023-08-11 20:28:29.114653,-21.0
2023-08-11 20:28:29.122342,-21.0
2023-08-11 20:28:29.130032,-23.0
2023-08-11 20:28:29.137721,-23.0
2023-08-11 20:28:29.145410,-23.0
2023-08-11 20:28:29.153099,-23.0
2023-08-11 20:28:29.160788,-28.0
2023-08-11 20:28:29.168478,-28.0
2023-08-11 20:28:29.176167,-28.0
2023-08-11 20:28:29.183856,-28.0
2023-08-11 20:28:29.191545,-23.0
2023-08-11 20:28:29.199235,-21.0
2023-08-11 20:28:29.206924,-26.0
2023-08-11 20:28:29.214613,-28.0
2023-08-11 20:28:29.222302,-26.0
2023-08-11 20:28:29.229991,-23.0
2023-08-11 20:28:29.237681,-21.0
2023-08-11 20:28:29.245370,-21.0
2023-08-11 20:28:29.253059,-19.0
2023-08-11 20:28:29.260748,-14.0
2023-08-11 20:28:29.268437,-14.0
2023-08-11 20:28:29.276127,-23.0
2023-08-11 20:28:29.283816,-40.0
2023-08-11 20:28:29.291505,-57.0
2023-08-11 20:28:29.299194,-64.0
2023-08-11 20:28:29.306883,-52.0
2023-08-11 20:28:29.314573,-28.0
2023-08-11 20:28:29.322262,-19.0
2023-08-11 20:28:29.329951,-21.0
2023-08-11 20:28:29.337640,-23.0
2023-08-11 20:28:29.345330,-26.0
2023-08-11 20:28:29.353019,-28.0
2023-08-11 20:28:29.360708,-23.0
2023-08-11 20:28:29.368397,-9.0
2023-08-11 20:28:29.376086,9.0
2023-08-11 20:28:29.383776,-64.0
2023-08-11 20:28:29.391465,-336.0
2023-08-11 20:28:29.399154,-640.0
2023-08-11 20:28:29.406843,-472.0
2023-08-11 20:28:29.414532,102.0
2023-08-11 20:28:29.422222,267.0
2023-08-11 20:28:29.429911,2.0
2023-08-11 20:28:29.437600,-52.0
2023-08-11 20:28:29.445289,31.0
2023-08-11 20:28:29.452979,-4.0
2023-08-11 20:28:29.460668,-38.0
2023-08-11 20:28:29.468357,-16.0
2023-08-11 20:28:29.476046,-23.0
2023-08-11 20:28:29.483735,-40.0
2023-08-11 20:28:29.491425,-33.0
2023-08-11 20:28:29.499114,-33.0
2023-08-11 20:28:29.506803,-45.0
2023-08-11 20:28:29.514492,-50.0
2023-08-11 20:28:29.522181,-52.0
2023-08-11 20:28:29.529871,-57.0
2023-08-11 20:28:29.537560,-62.0
2023-08-11 20:28:29.545249,-66.0
2023-08-11 20:28:29.552938,-69.0
2023-08-11 20:28:29.560627,-71.0
2023-08-11 20:28:29.568317,-81.0
2023-08-11 20:28:29.576006,-88.0
2023-08-11 20:28:29.583695,-93.0
2023-08-11 20:28:29.591384,-100.0
2023-08-11 20:28:29.599074,-107.0
2023-08-11 20:28:29.606763,-114.0
2023-08-11 20:28:29.614452,-124.0
2023-08-11 20:28:29.622141,-133.0
2023-08-11 20:28:29.629830,-136.0
2023-08-11 20:28:29.637520,-138.0
2023-08-11 20:28:29.645209,-148.0
2023-08-11 20:28:29.652898,-155.0
2023-08-11 20:28:29.660587,-155.0
2023-08-11 20:28:29.668276,-152.0
2023-08-11 20:28:29.675966,-148.0
2023-08-11 20:28:29.683655,-131.0
2023-08-11 20:28:29.691344,-109.0
2023-08-11 20:28:29.699033,-93.0
2023-08-11 20:28:29.706722,-78.0
2023-08-11 20:28:29.714412,-69.0
2023-08-11 20:28:29.722101,-62.0
2023-08-11 20:28:29.729790,-57.0
2023-08-11 20:28:29.737479,-57.0
2023-08-11 20:28:29.745169,-62.0
2023-08-11 20:28:29.752858,-64.0
2023-08-11 20:28:29.760547,-64.0
2023-08-11 20:28:29.768236,-64.0
2023-08-11 20:28:29.775925,-64.0
2023-08-11 20:28:29.783615,-66.0
2023-08-11 20:28:29.791304,-71.0
2023-08-11 20:28:29.798993,-74.0
2023-08-11 20:28:29.806682,-71.0
2023-08-11 20:28:29.814371,-71.0
2023-08-11 20:28:29.822061,-78.0
2023-08-11 20:28:29.829750,-78.0
2023-08-11 20:28:29.837439,-71.0
2023-08-11 20:28:29.845128,-71.0
2023-08-11 20:28:29.852818,-74.0
2023-08-11 20:28:29.860507,-71.0
2023-08-11 20:28:29.868196,-66.0
2023-08-11 20:28:29.875885,-66.0
2023-08-11 20:28:29.883574,-62.0
2023-08-11 20:28:29.891264,-57.0
2023-08-11 20:28:29.898953,-66.0
2023-08-11 20:28:29.906642,-90.0
2023-08-11 20:28:29.914331,-105.0
2023-08-11 20:28:29.922020,-107.0
2023-08-11 20:28:29.929710,-97.0
2023-08-11 20:28:29.937399,-76.0
2023-08-11 20:28:29.945088,-64.0
2023-08-11 20:28:29.952777,-71.0
2023-08-11 20:28:29.960466,-76.0
2023-08-11 20:28:29.968156,-71.0
2023-08-11 20:28:29.975845,-69.0
2023-08-11 20:28:29.983534,-74.0
2023-08-11 20:28:29.991223,-64.0
2023-08-11 20:28:29.998913,-40.0
2023-08-11 20:28:30.006602,-102.0
2023-08-11 20:28:30.014291,-365.0
2023-08-11 20:28:30.021980,-675.0
2023-08-11 20:28:30.029669,-542.0
2023-08-11 20:28:30.037359,21.0
2023-08-11 20:28:30.045048,231.0
2023-08-11 20:28:30.052737,0.0
2023-08-11 20:28:30.060426,-78.0
2023-08-11 20:28:30.068115,-21.0
2023-08-11 20:28:30.075805,-52.0
2023-08-11 20:28:30.083494,-78.0
2023-08-11 20:28:30.091183,-59.0
2023-08-11 20:28:30.098872,-64.0
2023-08-11 20:28:30.106561,-76.0
2023-08-11 20:28:30.114251,-71.0
2023-08-11 20:28:30.121940,-69.0
2023-08-11 20:28:30.129629,-74.0
2023-08-11 20:28:30.137318,-76.0
2023-08-11 20:28:30.145008,-76.0
2023-08-11 20:28:30.152697,-78.0
2023-08-11 20:28:30.160386,-81.0
2023-08-11 20:28:30.168075,-85.0
2023-08-11 20:28:30.175764,-93.0
2023-08-11 20:28:30.183454,-93.0
2023-08-11 20:28:30.191143,-95.0
2023-08-11 20:28:30.198832,-102.0
2023-08-11 20:28:30.206521,-107.0
2023-08-11 20:28:30.214210,-112.0
2023-08-11 20:28:30.221900,-121.0
2023-08-11 20:28:30.229589,-133.0
2023-08-11 20:28:30.237278,-136.0
2023-08-11 20:28:30.244967,-138.0
2023-08-11 20:28:30.252656,-143.0
2023-08-11 20:28:30.260346,-143.0
2023-08-11 20:28:30.268035,-145.0
2023-08-11 20:28:30.275724,-150.0
2023-08-11 20:28:30.283413,-150.0
2023-08-11 20:28:30.291103,-145.0
2023-08-11 20:28:30.298792,-131.0
2023-08-11 20:28:30.306481,-114.0
2023-08-11 20:28:30.314170,-100.0
2023-08-11 20:28:30.321859,-83.0
2023-08-11 20:28:30.329549,-69.0
2023-08-11 20:28:30.337238,-57.0
2023-08-11 20:28:30.344927,-50.0
2023-08-11 20:28:30.352616,-47.0
2023-08-11 20:28:30.360305,-47.0
2023-08-11 20:28:30.367995,-47.0
2023-08-11 20:28:30.375684,-52.0
2023-08-11 20:28:30.383373,-50.0
2023-08-11 20:28:30.391062,-52.0
2023-08-11 20:28:30.398752,-57.0
2023-08-11 20:28:30.406441,-59.0
2023-08-11 20:28:30.414130,-66.0
2023-08-11 20:28:30.421819,-69.0
2023-08-11 20:28:30.429508,-64.0
2023-08-11 20:28:30.437198,-66.0
2023-08-11 20:28:30.444887,-66.0
2023-08-11 20:28:30.452576,-64.0
2023-08-11 20:28:30.460265,-59.0
2023-08-11 20:28:30.467954,-59.0
2023-08-11 20:28:30.475644,-57.0
2023-08-11 20:28:30.483333,-50.0
2023-08-11 20:28:30.491022,-45.0
2023-08-11 20:28:30.498711,-42.0
2023-08-11 20:28:30.506400,-40.0
2023-08-11 20:28:30.514090,-35.0
2023-08-11 20:28:30.521779,-31.0
2023-08-11 20:28:30.529468,-26.0
2023-08-11 20:28:30.537157,-33.0
2023-08-11 20:28:30.544847,-45.0
2023-08-11 20:28:30.552536,-62.0
2023-08-11 20:28:30.560225,-69.0
2023-08-11 20:28:30.567914,-57.0
2023-08-11 20:28:30.575603,-33.0
2023-08-11 20:28:30.583293,-21.0
2023-08-11 20:28:30.590982,-26.0
2023-08-11 20:28:30.598671,-33.0
2023-08-11 20:28:30.606360,-35.0
2023-08-11 20:28:30.614049,-35.0
2023-08-11 20:28:30.621739,-31.0
2023-08-11 20:28:30.629428,-19.0
2023-08-11 20:28:30.637117,4.0
2023-08-11 20:28:30.644806,-50.0
2023-08-11 20:28:30.652495,-305.0
2023-08-11 20:28:30.660185,-635.0
2023-08-11 20:28:30.667874,-527.0
2023-08-11 20:28:30.675563,64.0
2023-08-11 20:28:30.683252,310.0
2023-08-11 20:28:30.690942,50.0
2023-08-11 20:28:30.698631,-45.0
2023-08-11 20:28:30.706320,45.0
2023-08-11 20:28:30.714009,19.0
2023-08-11 20:28:30.721698,-19.0
2023-08-11 20:28:30.729388,4.0
2023-08-11 20:28:30.737077,2.0
2023-08-11 20:28:30.744766,-14.0
2023-08-11 20:28:30.752455,-7.0
2023-08-11 20:28:30.760144,-2.0
2023-08-11 20:28:30.767834,-9.0
2023-08-11 20:28:30.775523,-11.0
2023-08-11 20:28:30.783212,-11.0
2023-08-11 20:28:30.790901,-14.0
2023-08-11 20:28:30.798591,-14.0
2023-08-11 20:28:30.806280,-16.0
2023-08-11 20:28:30.813969,-19.0
2023-08-11 20:28:30.821658,-23.0
2023-08-11 20:28:30.829347,-31.0
2023-08-11 20:28:30.837037,-35.0
2023-08-11 20:28:30.844726,-38.0
2023-08-11 20:28:30.852415,-42.0
2023-08-11 20:28:30.860104,-47.0
2023-08-11 20:28:30.867793,-57.0
2023-08-11 20:28:30.875483,-69.0
2023-08-11 20:28:30.883172,-76.0
2023-08-11 20:28:30.890861,-81.0
2023-08-11 20:28:30.898550,-93.0
2023-08-11 20:28:30.906239,-100.0
2023-08-11 20:28:30.913929,-109.0
2023-08-11 20:28:30.921618,-112.0
2023-08-11 20:28:30.929307,-105.0
2023-08-11 20:28:30.936996,-95.0
2023-08-11 20:28:30.944686,-81.0
2023-08-11 20:28:30.952375,-62.0
2023-08-11 20:28:30.960064,-42.0
2023-08-11 20:28:30.967753,-28.0
2023-08-11 20:28:30.975442,-14.0
2023-08-11 20:28:30.983132,-7.0
2023-08-11 20:28:30.990821,-4.0
2023-08-11 20:28:30.998510,-4.0
2023-08-11 20:28:31.006199,-7.0
2023-08-11 20:28:31.013888,-11.0
2023-08-11 20:28:31.021578,-11.0
2023-08-11 20:28:31.029267,-11.0
2023-08-11 20:28:31.036956,-14.0
2023-08-11 20:28:31.044645,-14.0
2023-08-11 20:28:31.052334,-14.0
2023-08-11 20:28:31.060024,-14.0
2023-08-11 20:28:31.067713,-16.0
2023-08-11 20:28:31.075402,-14.0
2023-08-11 20:28:31.083091,-14.0
2023-08-11 20:28:31.090781,-14.0
2023-08-11 20:28:31.098470,-14.0
2023-08-11 20:28:31.106159,-9.0
2023-08-11 20:28:31.113848,-7.0
2023-08-11 20:28:31.121537,-7.0
2023-08-11 20:28:31.129227,-4.0
2023-08-11 20:28:31.136916,-2.0
2023-08-11 20:28:31.144605,0.0
2023-08-11 20:28:31.152294,0.0
2023-08-11 20:28:31.159983,2.0
2023-08-11 20:28:31.167673,4.0
2023-08-11 20:28:31.175362,9.0
2023-08-11 20:28:31.183051,14.0
2023-08-11 20:28:31.190740,14.0
2023-08-11 20:28:31.198430,7.0
2023-08-11 20:28:31.206119,-4.0
2023-08-11 20:28:31.213808,-21.0
2023-08-11 20:28:31.221497,-33.0
2023-08-11 20:28:31.229186,-28.0
2023-08-11 20:28:31.236876,-11.0
2023-08-11 20:28:31.244565,4.0
2023-08-11 20:28:31.252254,7.0
2023-08-11 20:28:31.259943,2.0
2023-08-11 20:28:31.267632,2.0
2023-08-11 20:28:31.275322,0.0
2023-08-11 20:28:31.283011,-4.0
2023-08-11 20:28:31.290700,0.0
2023-08-11 20:28:31.298389,28.0
2023-08-11 20:28:31.306078,11.0
2023-08-11 20:28:31.313768,-176.0
2023-08-11 20:28:31.321457,-518.0
2023-08-11 20:28:31.329146,-597.0
2023-08-11 20:28:31.336835,-102.0
2023-08-11 20:28:31.344525,327.0
2023-08-11 20:28:31.352214,152.0
2023-08-11 20:28:31.359903,-47.0
2023-08-11 20:28:31.367592,38.0
2023-08-11 20:28:31.375281,57.0
2023-08-11 20:28:31.382971,-4.0
2023-08-11 20:28:31.390660,9.0
2023-08-11 20:28:31.398349,26.0
2023-08-11 20:28:31.406038,2.0
2023-08-11 20:28:31.413727,-7.0
2023-08-11 20:28:31.421417,-2.0
2023-08-11 20:28:31.429106,-9.0
2023-08-11 20:28:31.436795,-16.0
2023-08-11 20:28:31.444484,-16.0
2023-08-11 20:28:31.452173,-21.0
2023-08-11 20:28:31.459863,-26.0
2023-08-11 20:28:31.467552,-26.0
2023-08-11 20:28:31.475241,-31.0
2023-08-11 20:28:31.482930,-35.0
2023-08-11 20:28:31.490620,-38.0
2023-08-11 20:28:31.498309,-42.0
2023-08-11 20:28:31.505998,-47.0
2023-08-11 20:28:31.513687,-54.0
2023-08-11 20:28:31.521376,-64.0
2023-08-11 20:28:31.529066,-71.0
2023-08-11 20:28:31.536755,-76.0
2023-08-11 20:28:31.544444,-83.0
2023-08-11 20:28:31.552133,-90.0
2023-08-11 20:28:31.559822,-95.0
2023-08-11 20:28:31.567512,-100.0
2023-08-11 20:28:31.575201,-105.0
2023-08-11 20:28:31.582890,-105.0
2023-08-11 20:28:31.590579,-105.0
2023-08-11 20:28:31.598269,-97.0
2023-08-11 20:28:31.605958,-83.0
2023-08-11 20:28:31.613647,-66.0
2023-08-11 20:28:31.621336,-47.0
2023-08-11 20:28:31.629025,-31.0
2023-08-11 20:28:31.636715,-19.0
2023-08-11 20:28:31.644404,-11.0
2023-08-11 20:28:31.652093,-9.0
2023-08-11 20:28:31.659782,-7.0
2023-08-11 20:28:31.667471,-9.0
2023-08-11 20:28:31.675161,-14.0
2023-08-11 20:28:31.682850,-19.0
2023-08-11 20:28:31.690539,-21.0
2023-08-11 20:28:31.698228,-23.0
2023-08-11 20:28:31.705917,-26.0
2023-08-11 20:28:31.713607,-26.0
2023-08-11 20:28:31.721296,-31.0
2023-08-11 20:28:31.728985,-38.0
2023-08-11 20:28:31.736674,-40.0
2023-08-11 20:28:31.744364,-40.0
2023-08-11 20:28:31.752053,-42.0
2023-08-11 20:28:31.759742,-42.0
2023-08-11 20:28:31.767431,-47.0
2023-08-11 20:28:31.775120,-52.0
2023-08-11 20:28:31.782810,-50.0
2023-08-11 20:28:31.790499,-47.0
2023-08-11 20:28:31.798188,-45.0
2023-08-11 20:28:31.805877,-45.0
2023-08-11 20:28:31.813566,-50.0
2023-08-11 20:28:31.821256,-52.0
2023-08-11 20:28:31.828945,-50.0
2023-08-11 20:28:31.836634,-50.0
2023-08-11 20:28:31.844323,-47.0
2023-08-11 20:28:31.852012,-47.0
2023-08-11 20:28:31.859702,-52.0
2023-08-11 20:28:31.867391,-52.0
2023-08-11 20:28:31.875080,-47.0
2023-08-11 20:28:31.882769,-52.0
2023-08-11 20:28:31.890459,-69.0
2023-08-11 20:28:31.898148,-85.0
2023-08-11 20:28:31.905837,-97.0
2023-08-11 20:28:31.913526,-88.0
2023-08-11 20:28:31.921215,-66.0
2023-08-11 20:28:31.928905,-59.0
2023-08-11 20:28:31.936594,-62.0
2023-08-11 20:28:31.944283,-62.0
2023-08-11 20:28:31.951972,-62.0
2023-08-11 20:28:31.959661,-64.0
2023-08-11 20:28:31.967351,-64.0
2023-08-11 20:28:31.975040,-52.0
2023-08-11 20:28:31.982729,-28.0
2023-08-11 20:28:31.990418,-64.0
2023-08-11 20:28:31.998108,-274.0
2023-08-11 20:28:32.005797,-589.0
2023-08-11 20:28:32.013486,-580.0
2023-08-11 20:28:32.021175,-66.0
2023-08-11 20:28:32.028864,253.0
2023-08-11 20:28:32.036554,52.0
2023-08-11 20:28:32.044243,-88.0
2023-08-11 20:28:32.051932,-9.0
2023-08-11 20:28:32.059621,-11.0
2023-08-11 20:28:32.067310,-57.0
2023-08-11 20:28:32.075000,-40.0
2023-08-11 20:28:32.082689,-31.0
2023-08-11 20:28:32.090378,-47.0
2023-08-11 20:28:32.098067,-50.0
2023-08-11 20:28:32.105756,-40.0
2023-08-11 20:28:32.113446,-42.0
2023-08-11 20:28:32.121135,-50.0
2023-08-11 20:28:32.128824,-52.0
2023-08-11 20:28:32.136513,-52.0
2023-08-11 20:28:32.144203,-57.0
2023-08-11 20:28:32.151892,-66.0
2023-08-11 20:28:32.159581,-71.0
2023-08-11 20:28:32.167270,-83.0
2023-08-11 20:28:32.174959,-97.0
2023-08-11 20:28:32.182649,-102.0
2023-08-11 20:28:32.190338,-105.0
2023-08-11 20:28:32.198027,-112.0
2023-08-11 20:28:32.205716,-119.0
2023-08-11 20:28:32.213405,-128.0
2023-08-11 20:28:32.221095,-140.0
2023-08-11 20:28:32.228784,-145.0
2023-08-11 20:28:32.236473,-148.0
2023-08-11 20:28:32.244162,-152.0
2023-08-11 20:28:32.251851,-155.0
2023-08-11 20:28:32.259541,-155.0
2023-08-11 20:28:32.267230,-162.0
2023-08-11 20:28:32.274919,-167.0
2023-08-11 20:28:32.282608,-155.0
2023-08-11 20:28:32.290298,-138.0
2023-08-11 20:28:32.297987,-126.0
2023-08-11 20:28:32.305676,-119.0
2023-08-11 20:28:32.313365,-105.0
2023-08-11 20:28:32.321054,-85.0
2023-08-11 20:28:32.328744,-76.0
2023-08-11 20:28:32.336433,-78.0
2023-08-11 20:28:32.344122,-78.0
2023-08-11 20:28:32.351811,-81.0
2023-08-11 20:28:32.359500,-83.0
2023-08-11 20:28:32.367190,-83.0
2023-08-11 20:28:32.374879,-81.0
2023-08-11 20:28:32.382568,-83.0
2023-08-11 20:28:32.390257,-88.0
2023-08-11 20:28:32.397946,-90.0
2023-08-11 20:28:32.405636,-90.0
2023-08-11 20:28:32.413325,-93.0
2023-08-11 20:28:32.421014,-100.0
2023-08-11 20:28:32.428703,-105.0
2023-08-11 20:28:32.436393,-100.0
2023-08-11 20:28:32.444082,-95.0
2023-08-11 20:28:32.451771,-95.0
2023-08-11 20:28:32.459460,-95.0
2023-08-11 20:28:32.467149,-90.0
2023-08-11 20:28:32.474839,-85.0
2023-08-11 20:28:32.482528,-83.0
2023-08-11 20:28:32.490217,-81.0
2023-08-11 20:28:32.497906,-78.0
2023-08-11 20:28:32.505595,-78.0
2023-08-11 20:28:32.513285,-88.0
2023-08-11 20:28:32.520974,-102.0
2023-08-11 20:28:32.528663,-112.0
2023-08-11 20:28:32.536352,-117.0
2023-08-11 20:28:32.544042,-97.0
2023-08-11 20:28:32.551731,-74.0
2023-08-11 20:28:32.559420,-74.0
2023-08-11 20:28:32.567109,-81.0
2023-08-11 20:28:32.574798,-76.0
2023-08-11 20:28:32.582488,-71.0
2023-08-11 20:28:32.590177,-74.0
2023-08-11 20:28:32.597866,-66.0
2023-08-11 20:28:32.605555,-42.0
2023-08-11 20:28:32.613244,-57.0
2023-08-11 20:28:32.620934,-238.0
2023-08-11 20:28:32.628623,-580.0
2023-08-11 20:28:32.636312,-668.0
2023-08-11 20:28:32.644001,-193.0
2023-08-11 20:28:32.651690,243.0
2023-08-11 20:28:32.659380,114.0
2023-08-11 20:28:32.667069,-71.0
2023-08-11 20:28:32.674758,-26.0
2023-08-11 20:28:32.682447,-16.0
2023-08-11 20:28:32.690137,-57.0
2023-08-11 20:28:32.697826,-47.0
2023-08-11 20:28:32.705515,-40.0
2023-08-11 20:28:32.713204,-57.0
2023-08-11 20:28:32.720893,-57.0
2023-08-11 20:28:32.728583,-52.0
2023-08-11 20:28:32.736272,-54.0
2023-08-11 20:28:32.743961,-59.0
2023-08-11 20:28:32.751650,-62.0
2023-08-11 20:28:32.759339,-64.0
2023-08-11 20:28:32.767029,-69.0
2023-08-11 20:28:32.774718,-71.0
2023-08-11 20:28:32.782407,-74.0
2023-08-11 20:28:32.790096,-81.0
2023-08-11 20:28:32.797785,-88.0
2023-08-11 20:28:32.805475,-88.0
2023-08-11 20:28:32.813164,-93.0
2023-08-11 20:28:32.820853,-105.0
2023-08-11 20:28:32.828542,-112.0
2023-08-11 20:28:32.836232,-114.0
2023-08-11 20:28:32.843921,-121.0
2023-08-11 20:28:32.851610,-131.0
2023-08-11 20:28:32.859299,-140.0
2023-08-11 20:28:32.866988,-140.0
2023-08-11 20:28:32.874678,-140.0
2023-08-11 20:28:32.882367,-143.0
2023-08-11 20:28:32.890056,-148.0
2023-08-11 20:28:32.897745,-152.0
2023-08-11 20:28:32.905434,-145.0
2023-08-11 20:28:32.913124,-131.0
2023-08-11 20:28:32.920813,-114.0
2023-08-11 20:28:32.928502,-97.0
2023-08-11 20:28:32.936191,-85.0
2023-08-11 20:28:32.943881,-81.0
2023-08-11 20:28:32.951570,-69.0
2023-08-11 20:28:32.959259,-59.0
2023-08-11 20:28:32.966948,-59.0
2023-08-11 20:28:32.974637,-59.0
2023-08-11 20:28:32.982327,-57.0
2023-08-11 20:28:32.990016,-59.0
2023-08-11 20:28:32.997705,-62.0
2023-08-11 20:28:33.005394,-62.0
2023-08-11 20:28:33.013083,-62.0
2023-08-11 20:28:33.020773,-62.0
2023-08-11 20:28:33.028462,-66.0
2023-08-11 20:28:33.036151,-69.0
2023-08-11 20:28:33.043840,-64.0
2023-08-11 20:28:33.051529,-62.0
2023-08-11 20:28:33.059219,-62.0
2023-08-11 20:28:33.066908,-59.0
2023-08-11 20:28:33.074597,-57.0
2023-08-11 20:28:33.082286,-52.0
2023-08-11 20:28:33.089976,-50.0
2023-08-11 20:28:33.097665,-50.0
2023-08-11 20:28:33.105354,-42.0
2023-08-11 20:28:33.113043,-35.0
2023-08-11 20:28:33.120732,-33.0
2023-08-11 20:28:33.128422,-33.0
2023-08-11 20:28:33.136111,-35.0
2023-08-11 20:28:33.143800,-42.0
2023-08-11 20:28:33.151489,-59.0
2023-08-11 20:28:33.159178,-74.0
2023-08-11 20:28:33.166868,-74.0
2023-08-11 20:28:33.174557,-54.0
2023-08-11 20:28:33.182246,-35.0
2023-08-11 20:28:33.189935,-33.0
2023-08-11 20:28:33.197624,-38.0
2023-08-11 20:28:33.205314,-33.0
2023-08-11 20:28:33.213003,-31.0
2023-08-11 20:28:33.220692,-38.0
2023-08-11 20:28:33.228381,-35.0
2023-08-11 20:28:33.236071,-9.0
2023-08-11 20:28:33.243760,-16.0
2023-08-11 20:28:33.251449,-193.0
2023-08-11 20:28:33.259138,-539.0
2023-08-11 20:28:33.266827,-652.0
2023-08-11 20:28:33.274517,-183.0
2023-08-11 20:28:33.282206,284.0
2023-08-11 20:28:33.289895,157.0
2023-08-11 20:28:33.297584,-52.0
2023-08-11 20:28:33.305273,11.0
2023-08-11 20:28:33.312963,33.0
2023-08-11 20:28:33.320652,-21.0
2023-08-11 20:28:33.328341,-11.0
2023-08-11 20:28:33.336030,2.0
2023-08-11 20:28:33.343720,-16.0
2023-08-11 20:28:33.351409,-21.0
2023-08-11 20:28:33.359098,-11.0
2023-08-11 20:28:33.366787,-16.0
2023-08-11 20:28:33.374476,-23.0
2023-08-11 20:28:33.382166,-23.0
2023-08-11 20:28:33.389855,-26.0
2023-08-11 20:28:33.397544,-33.0
2023-08-11 20:28:33.405233,-38.0
2023-08-11 20:28:33.412922,-42.0
2023-08-11 20:28:33.420612,-47.0
2023-08-11 20:28:33.428301,-50.0
2023-08-11 20:28:33.435990,-62.0
2023-08-11 20:28:33.443679,-74.0
2023-08-11 20:28:33.451368,-76.0
2023-08-11 20:28:33.459058,-83.0
2023-08-11 20:28:33.466747,-95.0
2023-08-11 20:28:33.474436,-107.0
2023-08-11 20:28:33.482125,-119.0
2023-08-11 20:28:33.489815,-124.0
2023-08-11 20:28:33.497504,-126.0
2023-08-11 20:28:33.505193,-128.0
2023-08-11 20:28:33.512882,-133.0
2023-08-11 20:28:33.520571,-131.0
2023-08-11 20:28:33.528261,-126.0
2023-08-11 20:28:33.535950,-112.0
2023-08-11 20:28:33.543639,-95.0
2023-08-11 20:28:33.551328,-78.0
2023-08-11 20:28:33.559017,-59.0
2023-08-11 20:28:33.566707,-45.0
2023-08-11 20:28:33.574396,-38.0
2023-08-11 20:28:33.582085,-28.0
2023-08-11 20:28:33.589774,-23.0
2023-08-11 20:28:33.597463,-23.0
2023-08-11 20:28:33.605153,-21.0
2023-08-11 20:28:33.612842,-26.0
2023-08-11 20:28:33.620531,-33.0
2023-08-11 20:28:33.628220,-31.0
2023-08-11 20:28:33.635910,-31.0
2023-08-11 20:28:33.643599,-38.0
2023-08-11 20:28:33.651288,-40.0
2023-08-11 20:28:33.658977,-38.0
2023-08-11 20:28:33.666666,-38.0
2023-08-11 20:28:33.674356,-38.0
2023-08-11 20:28:33.682045,-38.0
2023-08-11 20:28:33.689734,-35.0
2023-08-11 20:28:33.697423,-33.0
2023-08-11 20:28:33.705112,-33.0
2023-08-11 20:28:33.712802,-31.0
2023-08-11 20:28:33.720491,-26.0
2023-08-11 20:28:33.728180,-21.0
2023-08-11 20:28:33.735869,-19.0
2023-08-11 20:28:33.743559,-21.0
2023-08-11 20:28:33.751248,-21.0
2023-08-11 20:28:33.758937,-16.0
2023-08-11 20:28:33.766626,-9.0
2023-08-11 20:28:33.774315,-4.0
2023-08-11 20:28:33.782005,-4.0
2023-08-11 20:28:33.789694,-14.0
2023-08-11 20:28:33.797383,-28.0
2023-08-11 20:28:33.805072,-42.0
2023-08-11 20:28:33.812761,-50.0
2023-08-11 20:28:33.820451,-40.0
2023-08-11 20:28:33.828140,-19.0
2023-08-11 20:28:33.835829,-7.0
2023-08-11 20:28:33.843518,-9.0
2023-08-11 20:28:33.851207,-7.0
2023-08-11 20:28:33.858897,-7.0
2023-08-11 20:28:33.866586,-9.0
2023-08-11 20:28:33.874275,-9.0
2023-08-11 20:28:33.881964,2.0
2023-08-11 20:28:33.889654,26.0
2023-08-11 20:28:33.897343,-23.0
2023-08-11 20:28:33.905032,-274.0
2023-08-11 20:28:33.912721,-616.0
2023-08-11 20:28:33.920410,-546.0
2023-08-11 20:28:33.928100,42.0
2023-08-11 20:28:33.935789,327.0
2023-08-11 20:28:33.943478,64.0
2023-08-11 20:28:33.951167,-50.0
2023-08-11 20:28:33.958856,57.0
2023-08-11 20:28:33.966546,33.0
2023-08-11 20:28:33.974235,-23.0
2023-08-11 20:28:33.981924,0.0
2023-08-11 20:28:33.989613,9.0
2023-08-11 20:28:33.997302,-9.0
2023-08-11 20:28:34.004992,-7.0
2023-08-11 20:28:34.012681,-2.0
2023-08-11 20:28:34.020370,-11.0
2023-08-11 20:28:34.028059,-11.0
2023-08-11 20:28:34.035749,-9.0
2023-08-11 20:28:34.043438,-11.0
2023-08-11 20:28:34.051127,-16.0
2023-08-11 20:28:34.058816,-21.0
2023-08-11 20:28:34.066505,-23.0
2023-08-11 20:28:34.074195,-31.0
2023-08-11 20:28:34.081884,-35.0
2023-08-11 20:28:34.089573,-38.0
2023-08-11 20:28:34.097262,-45.0
2023-08-11 20:28:34.104951,-54.0
2023-08-11 20:28:34.112641,-64.0
2023-08-11 20:28:34.120330,-69.0
2023-08-11 20:28:34.128019,-76.0
2023-08-11 20:28:34.135708,-83.0
2023-08-11 20:28:34.143398,-88.0
2023-08-11 20:28:34.151087,-93.0
2023-08-11 20:28:34.158776,-97.0
2023-08-11 20:28:34.166465,-97.0
2023-08-11 20:28:34.174154,-97.0
2023-08-11 20:28:34.181844,-95.0
2023-08-11 20:28:34.189533,-83.0
2023-08-11 20:28:34.197222,-69.0
2023-08-11 20:28:34.204911,-52.0
2023-08-11 20:28:34.212600,-35.0
2023-08-11 20:28:34.220290,-19.0
2023-08-11 20:28:34.227979,-7.0
2023-08-11 20:28:34.235668,0.0
2023-08-11 20:28:34.243357,0.0
2023-08-11 20:28:34.251046,2.0
2023-08-11 20:28:34.258736,0.0
2023-08-11 20:28:34.266425,0.0
2023-08-11 20:28:34.274114,-2.0
2023-08-11 20:28:34.281803,-2.0
2023-08-11 20:28:34.289493,-4.0
2023-08-11 20:28:34.297182,-7.0
2023-08-11 20:28:34.304871,-4.0
2023-08-11 20:28:34.312560,-2.0
2023-08-11 20:28:34.320249,0.0
2023-08-11 20:28:34.327939,0.0
2023-08-11 20:28:34.335628,-4.0
2023-08-11 20:28:34.343317,-7.0
2023-08-11 20:28:34.351006,-7.0
2023-08-11 20:28:34.358695,-4.0
2023-08-11 20:28:34.366385,-2.0
2023-08-11 20:28:34.374074,-2.0
2023-08-11 20:28:34.381763,-4.0
2023-08-11 20:28:34.389452,-4.0
2023-08-11 20:28:34.397141,-4.0
2023-08-11 20:28:34.404831,-2.0
2023-08-11 20:28:34.412520,-2.0
2023-08-11 20:28:34.420209,-2.0
2023-08-11 20:28:34.427898,-2.0
2023-08-11 20:28:34.435588,0.0
2023-08-11 20:28:34.443277,2.0
2023-08-11 20:28:34.450966,0.0
2023-08-11 20:28:34.458655,-7.0
2023-08-11 20:28:34.466344,-26.0
2023-08-11 20:28:34.474034,-50.0
2023-08-11 20:28:34.481723,-54.0
2023-08-11 20:28:34.489412,-38.0
2023-08-11 20:28:34.497101,-16.0
2023-08-11 20:28:34.504790,-7.0
2023-08-11 20:28:34.512480,-9.0
2023-08-11 20:28:34.520169,-11.0
2023-08-11 20:28:34.527858,-9.0
2023-08-11 20:28:34.535547,-9.0
2023-08-11 20:28:34.543236,-9.0
2023-08-11 20:28:34.550926,0.0
2023-08-11 20:28:34.558615,16.0
2023-08-11 20:28:34.566304,-31.0
2023-08-11 20:28:34.573993,-253.0
2023-08-11 20:28:34.581683,-580.0
2023-08-11 20:28:34.589372,-546.0
2023-08-11 20:28:34.597061,2.0
2023-08-11 20:28:34.604750,312.0
2023-08-11 20:28:34.612439,69.0
2023-08-11 20:28:34.620129,-62.0
2023-08-11 20:28:34.627818,40.0
2023-08-11 20:28:34.635507,23.0
2023-08-11 20:28:34.643196,-28.0
2023-08-11 20:28:34.650885,-4.0
2023-08-11 20:28:34.658575,2.0
2023-08-11 20:28:34.666264,-19.0
2023-08-11 20:28:34.673953,-19.0
2023-08-11 20:28:34.681642,-14.0
2023-08-11 20:28:34.689332,-21.0
2023-08-11 20:28:34.697021,-28.0
2023-08-11 20:28:34.704710,-28.0
2023-08-11 20:28:34.712399,-31.0
2023-08-11 20:28:34.720088,-33.0
2023-08-11 20:28:34.727778,-35.0
2023-08-11 20:28:34.735467,-40.0
2023-08-11 20:28:34.743156,-47.0
2023-08-11 20:28:34.750845,-54.0
2023-08-11 20:28:34.758534,-59.0
2023-08-11 20:28:34.766224,-66.0
2023-08-11 20:28:34.773913,-76.0
2023-08-11 20:28:34.781602,-85.0
2023-08-11 20:28:34.789291,-95.0
2023-08-11 20:28:34.796980,-102.0
2023-08-11 20:28:34.804670,-107.0
2023-08-11 20:28:34.812359,-112.0
2023-08-11 20:28:34.820048,-119.0
2023-08-11 20:28:34.827737,-126.0
2023-08-11 20:28:34.835427,-131.0
2023-08-11 20:28:34.843116,-133.0
2023-08-11 20:28:34.850805,-128.0
2023-08-11 20:28:34.858494,-117.0
2023-08-11 20:28:34.866183,-102.0
2023-08-11 20:28:34.873873,-88.0
2023-08-11 20:28:34.881562,-71.0
2023-08-11 20:28:34.889251,-52.0
2023-08-11 20:28:34.896940,-40.0
2023-08-11 20:28:34.904629,-35.0
2023-08-11 20:28:34.912319,-31.0
2023-08-11 20:28:34.920008,-28.0
2023-08-11 20:28:34.927697,-33.0
2023-08-11 20:28:34.935386,-35.0
2023-08-11 20:28:34.943075,-38.0
2023-08-11 20:28:34.950765,-42.0
2023-08-11 20:28:34.958454,-47.0
2023-08-11 20:28:34.966143,-47.0
2023-08-11 20:28:34.973832,-47.0
2023-08-11 20:28:34.981522,-47.0
2023-08-11 20:28:34.989211,-50.0
2023-08-11 20:28:34.996900,-50.0
2023-08-11 20:28:35.004589,-47.0
2023-08-11 20:28:35.012278,-50.0
2023-08-11 20:28:35.019968,-54.0
2023-08-11 20:28:35.027657,-52.0
2023-08-11 20:28:35.035346,-45.0
2023-08-11 20:28:35.043035,-42.0
2023-08-11 20:28:35.050724,-45.0
2023-08-11 20:28:35.058414,-45.0
2023-08-11 20:28:35.066103,-45.0
2023-08-11 20:28:35.073792,-47.0
2023-08-11 20:28:35.081481,-45.0
2023-08-11 20:28:35.089171,-42.0
2023-08-11 20:28:35.096860,-47.0
2023-08-11 20:28:35.104549,-50.0
2023-08-11 20:28:35.112238,-42.0
2023-08-11 20:28:35.119927,-47.0
2023-08-11 20:28:35.127617,-64.0
2023-08-11 20:28:35.135306,-76.0
2023-08-11 20:28:35.142995,-83.0
2023-08-11 20:28:35.150684,-95.0
2023-08-11 20:28:35.158373,-88.0
2023-08-11 20:28:35.166063,-69.0
2023-08-11 20:28:35.173752,-57.0
2023-08-11 20:28:35.181441,-59.0
2023-08-11 20:28:35.189130,-57.0
2023-08-11 20:28:35.196819,-57.0
2023-08-11 20:28:35.204509,-62.0
2023-08-11 20:28:35.212198,-66.0
2023-08-11 20:28:35.219887,-52.0
2023-08-11 20:28:35.227576,-35.0
2023-08-11 20:28:35.235266,-90.0
2023-08-11 20:28:35.242955,-320.0
2023-08-11 20:28:35.250644,-623.0
2023-08-11 20:28:35.258333,-537.0
2023-08-11 20:28:35.266022,0.0
2023-08-11 20:28:35.273712,243.0
2023-08-11 20:28:35.281401,21.0
2023-08-11 20:28:35.289090,-78.0
2023-08-11 20:28:35.296779,-16.0
2023-08-11 20:28:35.304468,-40.0
2023-08-11 20:28:35.312158,-69.0
2023-08-11 20:28:35.319847,-52.0
2023-08-11 20:28:35.327536,-54.0
2023-08-11 20:28:35.335225,-66.0
2023-08-11 20:28:35.342914,-66.0
2023-08-11 20:28:35.350604,-66.0
2023-08-11 20:28:35.358293,-76.0
2023-08-11 20:28:35.365982,-76.0
2023-08-11 20:28:35.373671,-76.0
2023-08-11 20:28:35.381361,-81.0
2023-08-11 20:28:35.389050,-88.0
2023-08-11 20:28:35.396739,-88.0
2023-08-11 20:28:35.404428,-93.0
2023-08-11 20:28:35.412117,-102.0
2023-08-11 20:28:35.419807,-112.0
2023-08-11 20:28:35.427496,-114.0
2023-08-11 20:28:35.435185,-117.0
2023-08-11 20:28:35.442874,-124.0
2023-08-11 20:28:35.450563,-136.0
2023-08-11 20:28:35.458253,-150.0
2023-08-11 20:28:35.465942,-160.0
2023-08-11 20:28:35.473631,-160.0
2023-08-11 20:28:35.481320,-162.0
2023-08-11 20:28:35.489010,-169.0
2023-08-11 20:28:35.496699,-171.0
2023-08-11 20:28:35.504388,-174.0
2023-08-11 20:28:35.512077,-176.0
2023-08-11 20:28:35.519766,-171.0
2023-08-11 20:28:35.527456,-164.0
2023-08-11 20:28:35.535145,-155.0
2023-08-11 20:28:35.542834,-136.0
2023-08-11 20:28:35.550523,-114.0
2023-08-11 20:28:35.558212,-95.0
2023-08-11 20:28:35.565902,-83.0
2023-08-11 20:28:35.573591,-76.0
2023-08-11 20:28:35.581280,-76.0
2023-08-11 20:28:35.588969,-74.0
2023-08-11 20:28:35.596658,-76.0
2023-08-11 20:28:35.604348,-78.0
2023-08-11 20:28:35.612037,-81.0
2023-08-11 20:28:35.619726,-83.0
2023-08-11 20:28:35.627415,-88.0
2023-08-11 20:28:35.635105,-88.0
2023-08-11 20:28:35.642794,-85.0
2023-08-11 20:28:35.650483,-88.0
2023-08-11 20:28:35.658172,-90.0
2023-08-11 20:28:35.665861,-93.0
2023-08-11 20:28:35.673551,-93.0
2023-08-11 20:28:35.681240,-93.0
2023-08-11 20:28:35.688929,-97.0
2023-08-11 20:28:35.696618,-95.0
2023-08-11 20:28:35.704307,-90.0
2023-08-11 20:28:35.711997,-85.0
2023-08-11 20:28:35.719686,-83.0
2023-08-11 20:28:35.727375,-81.0
2023-08-11 20:28:35.735064,-81.0
2023-08-11 20:28:35.742753,-81.0
2023-08-11 20:28:35.750443,-88.0
2023-08-11 20:28:35.758132,-105.0
2023-08-11 20:28:35.765821,-114.0
2023-08-11 20:28:35.773510,-112.0
2023-08-11 20:28:35.781200,-93.0
2023-08-11 20:28:35.788889,-74.0
2023-08-11 20:28:35.796578,-69.0
2023-08-11 20:28:35.804267,-74.0
2023-08-11 20:28:35.811956,-71.0
2023-08-11 20:28:35.819646,-69.0
2023-08-11 20:28:35.827335,-71.0
2023-08-11 20:28:35.835024,-62.0
2023-08-11 20:28:35.842713,-33.0
2023-08-11 20:28:35.850402,-50.0
2023-08-11 20:28:35.858092,-241.0
2023-08-11 20:28:35.865781,-585.0
2023-08-11 20:28:35.873470,-661.0
2023-08-11 20:28:35.881159,-174.0
2023-08-11 20:28:35.888849,253.0
2023-08-11 20:28:35.896538,114.0
2023-08-11 20:28:35.904227,-64.0
2023-08-11 20:28:35.911916,-9.0
2023-08-11 20:28:35.919605,-7.0
2023-08-11 20:28:35.927295,-50.0
2023-08-11 20:28:35.934984,-33.0
2023-08-11 20:28:35.942673,-26.0
2023-08-11 20:28:35.950362,-45.0
2023-08-11 20:28:35.958051,-50.0
2023-08-11 20:28:35.965741,-45.0
2023-08-11 20:28:35.973430,-45.0
2023-08-11 20:28:35.981119,-52.0
2023-08-11 20:28:35.988808,-57.0
2023-08-11 20:28:35.996497,-62.0
2023-08-11 20:28:36.004187,-62.0
2023-08-11 20:28:36.011876,-64.0
2023-08-11 20:28:36.019565,-69.0
2023-08-11 20:28:36.027254,-71.0
2023-08-11 20:28:36.034944,-76.0
2023-08-11 20:28:36.042633,-83.0
2023-08-11 20:28:36.050322,-88.0
2023-08-11 20:28:36.058011,-95.0
2023-08-11 20:28:36.065700,-105.0
2023-08-11 20:28:36.073390,-112.0
2023-08-11 20:28:36.081079,-119.0
2023-08-11 20:28:36.088768,-128.0
2023-08-11 20:28:36.096457,-131.0
2023-08-11 20:28:36.104146,-131.0
2023-08-11 20:28:36.111836,-140.0
2023-08-11 20:28:36.119525,-140.0
2023-08-11 20:28:36.127214,-136.0
2023-08-11 20:28:36.134903,-131.0
2023-08-11 20:28:36.142592,-124.0
2023-08-11 20:28:36.150282,-107.0
2023-08-11 20:28:36.157971,-88.0
2023-08-11 20:28:36.165660,-69.0
2023-08-11 20:28:36.173349,-52.0
2023-08-11 20:28:36.181039,-40.0
2023-08-11 20:28:36.188728,-33.0
2023-08-11 20:28:36.196417,-28.0
2023-08-11 20:28:36.204106,-26.0
2023-08-11 20:28:36.211795,-23.0
2023-08-11 20:28:36.219485,-28.0
2023-08-11 20:28:36.227174,-38.0
2023-08-11 20:28:36.234863,-42.0
2023-08-11 20:28:36.242552,-40.0
2023-08-11 20:28:36.250241,-40.0
2023-08-11 20:28:36.257931,-42.0
2023-08-11 20:28:36.265620,-45.0
2023-08-11 20:28:36.273309,-47.0
2023-08-11 20:28:36.280998,-45.0
2023-08-11 20:28:36.288688,-40.0
2023-08-11 20:28:36.296377,-42.0
2023-08-11 20:28:36.304066,-40.0
2023-08-11 20:28:36.311755,-33.0
2023-08-11 20:28:36.319444,-33.0
2023-08-11 20:28:36.327134,-35.0
2023-08-11 20:28:36.334823,-31.0
2023-08-11 20:28:36.342512,-23.0
2023-08-11 20:28:36.350201,-23.0
2023-08-11 20:28:36.357890,-21.0
2023-08-11 20:28:36.365580,-19.0
2023-08-11 20:28:36.373269,-19.0
2023-08-11 20:28:36.380958,-21.0
2023-08-11 20:28:36.388647,-35.0
2023-08-11 20:28:36.396336,-50.0
2023-08-11 20:28:36.404026,-57.0
2023-08-11 20:28:36.411715,-47.0
2023-08-11 20:28:36.419404,-23.0
2023-08-11 20:28:36.427093,-11.0
2023-08-11 20:28:36.434783,-16.0
2023-08-11 20:28:36.442472,-16.0
2023-08-11 20:28:36.450161,-19.0
2023-08-11 20:28:36.457850,-26.0
2023-08-11 20:28:36.465539,-28.0
2023-08-11 20:28:36.473229,-9.0
2023-08-11 20:28:36.480918,11.0
2023-08-11 20:28:36.488607,-71.0
2023-08-11 20:28:36.496296,-355.0
2023-08-11 20:28:36.503985,-668.0
2023-08-11 20:28:36.511675,-484.0
2023-08-11 20:28:36.519364,126.0
2023-08-11 20:28:36.527053,298.0
2023-08-11 20:28:36.534742,21.0
2023-08-11 20:28:36.542431,-33.0
2023-08-11 20:28:36.550121,52.0
2023-08-11 20:28:36.557810,11.0
2023-08-11 20:28:36.565499,-19.0
2023-08-11 20:28:36.573188,9.0
2023-08-11 20:28:36.580878,4.0
2023-08-11 20:28:36.588567,-14.0
2023-08-11 20:28:36.596256,-7.0
2023-08-11 20:28:36.603945,-9.0
2023-08-11 20:28:36.611634,-19.0
2023-08-11 20:28:36.619324,-19.0
2023-08-11 20:28:36.627013,-19.0
2023-08-11 20:28:36.634702,-23.0
2023-08-11 20:28:36.642391,-28.0
2023-08-11 20:28:36.650080,-28.0
2023-08-11 20:28:36.657770,-31.0
2023-08-11 20:28:36.665459,-35.0
2023-08-11 20:28:36.673148,-40.0
2023-08-11 20:28:36.680837,-47.0
2023-08-11 20:28:36.688526,-54.0
2023-08-11 20:28:36.696216,-62.0
2023-08-11 20:28:36.703905,-69.0
2023-08-11 20:28:36.711594,-74.0
2023-08-11 20:28:36.719283,-81.0
2023-08-11 20:28:36.726973,-90.0
2023-08-11 20:28:36.734662,-93.0
2023-08-11 20:28:36.742351,-97.0
2023-08-11 20:28:36.750040,-102.0
2023-08-11 20:28:36.757729,-107.0
2023-08-11 20:28:36.765419,-105.0
2023-08-11 20:28:36.773108,-100.0
2023-08-11 20:28:36.780797,-85.0
2023-08-11 20:28:36.788486,-69.0
2023-08-11 20:28:36.796175,-50.0
2023-08-11 20:28:36.803865,-31.0
2023-08-11 20:28:36.811554,-21.0
2023-08-11 20:28:36.819243,-14.0
2023-08-11 20:28:36.826932,-4.0
2023-08-11 20:28:36.834622,-2.0
2023-08-11 20:28:36.842311,-4.0
2023-08-11 20:28:36.850000,-9.0
2023-08-11 20:28:36.857689,-14.0
2023-08-11 20:28:36.865378,-14.0
2023-08-11 20:28:36.873068,-16.0
2023-08-11 20:28:36.880757,-16.0
2023-08-11 20:28:36.888446,-16.0
2023-08-11 20:28:36.896135,-19.0
2023-08-11 20:28:36.903824,-21.0
2023-08-11 20:28:36.911514,-21.0
2023-08-11 20:28:36.919203,-21.0
2023-08-11 20:28:36.926892,-19.0
2023-08-11 20:28:36.934581,-19.0
2023-08-11 20:28:36.942270,-19.0
2023-08-11 20:28:36.949960,-16.0
2023-08-11 20:28:36.957649,-19.0
2023-08-11 20:28:36.965338,-21.0
2023-08-11 20:28:36.973027,-19.0
2023-08-11 20:28:36.980717,-14.0
2023-08-11 20:28:36.988406,-14.0
2023-08-11 20:28:36.996095,-11.0
2023-08-11 20:28:37.003784,-2.0
2023-08-11 20:28:37.011473,2.0
2023-08-11 20:28:37.019163,0.0
2023-08-11 20:28:37.026852,-4.0
2023-08-11 20:28:37.034541,-21.0
2023-08-11 20:28:37.042230,-40.0
2023-08-11 20:28:37.049919,-42.0
2023-08-11 20:28:37.057609,-26.0
2023-08-11 20:28:37.065298,-2.0
2023-08-11 20:28:37.072987,7.0
2023-08-11 20:28:37.080676,4.0
2023-08-11 20:28:37.088365,0.0
2023-08-11 20:28:37.096055,-2.0
2023-08-11 20:28:37.103744,-4.0
2023-08-11 20:28:37.111433,-4.0
2023-08-11 20:28:37.119122,11.0
2023-08-11 20:28:37.126812,28.0
2023-08-11 20:28:37.134501,-64.0
2023-08-11 20:28:37.142190,-367.0
2023-08-11 20:28:37.149879,-652.0
2023-08-11 20:28:37.157568,-408.0
2023-08-11 20:28:37.165258,191.0
2023-08-11 20:28:37.172947,286.0
2023-08-11 20:28:37.180636,2.0
2023-08-11 20:28:37.188325,-14.0
2023-08-11 20:28:37.196014,71.0
2023-08-11 20:28:37.203704,21.0
2023-08-11 20:28:37.211393,0.0
2023-08-11 20:28:37.219082,28.0
2023-08-11 20:28:37.226771,19.0
2023-08-11 20:28:37.234461,2.0
2023-08-11 20:28:37.242150,9.0
2023-08-11 20:28:37.249839,9.0
2023-08-11 20:28:37.257528,-2.0
2023-08-11 20:28:37.265217,-4.0
2023-08-11 20:28:37.272907,-4.0
2023-08-11 20:28:37.280596,-7.0
2023-08-11 20:28:37.288285,-14.0
2023-08-11 20:28:37.295974,-16.0
2023-08-11 20:28:37.303663,-19.0
2023-08-11 20:28:37.311353,-26.0
2023-08-11 20:28:37.319042,-31.0
2023-08-11 20:28:37.326731,-35.0
2023-08-11 20:28:37.334420,-47.0
2023-08-11 20:28:37.342109,-59.0
2023-08-11 20:28:37.349799,-74.0
2023-08-11 20:28:37.357488,-85.0
2023-08-11 20:28:37.365177,-90.0
2023-08-11 20:28:37.372866,-93.0
2023-08-11 20:28:37.380556,-100.0
2023-08-11 20:28:37.388245,-105.0
2023-08-11 20:28:37.395934,-109.0
2023-08-11 20:28:37.403623,-109.0
2023-08-11 20:28:37.411312,-105.0
2023-08-11 20:28:37.419002,-95.0
2023-08-11 20:28:37.426691,-83.0
2023-08-11 20:28:37.434380,-69.0
2023-08-11 20:28:37.442069,-52.0
2023-08-11 20:28:37.449758,-33.0
2023-08-11 20:28:37.457448,-21.0
2023-08-11 20:28:37.465137,-16.0
2023-08-11 20:28:37.472826,-16.0
2023-08-11 20:28:37.480515,-14.0
2023-08-11 20:28:37.488204,-16.0
2023-08-11 20:28:37.495894,-16.0
2023-08-11 20:28:37.503583,-16.0
2023-08-11 20:28:37.511272,-19.0
2023-08-11 20:28:37.518961,-21.0
2023-08-11 20:28:37.526651,-21.0
2023-08-11 20:28:37.534340,-21.0
2023-08-11 20:28:37.542029,-21.0
2023-08-11 20:28:37.549718,-23.0
2023-08-11 20:28:37.557407,-21.0
2023-08-11 20:28:37.565097,-21.0
2023-08-11 20:28:37.572786,-23.0
2023-08-11 20:28:37.580475,-26.0
2023-08-11 20:28:37.588164,-23.0
2023-08-11 20:28:37.595853,-23.0
2023-08-11 20:28:37.603543,-23.0
2023-08-11 20:28:37.611232,-21.0
2023-08-11 20:28:37.618921,-19.0
2023-08-11 20:28:37.626610,-19.0
2023-08-11 20:28:37.634300,-16.0
2023-08-11 20:28:37.641989,-11.0
2023-08-11 20:28:37.649678,-11.0
2023-08-11 20:28:37.657367,-11.0
2023-08-11 20:28:37.665056,-4.0
2023-08-11 20:28:37.672746,0.0
2023-08-11 20:28:37.680435,0.0
2023-08-11 20:28:37.688124,-11.0
2023-08-11 20:28:37.695813,-33.0
2023-08-11 20:28:37.703502,-47.0
2023-08-11 20:28:37.711192,-47.0
2023-08-11 20:28:37.718881,-31.0
2023-08-11 20:28:37.726570,-11.0
2023-08-11 20:28:37.734259,-2.0
2023-08-11 20:28:37.741948,-4.0
2023-08-11 20:28:37.749638,-7.0
2023-08-11 20:28:37.757327,-7.0
2023-08-11 20:28:37.765016,-7.0
2023-08-11 20:28:37.772705,-7.0
2023-08-11 20:28:37.780395,9.0
2023-08-11 20:28:37.788084,23.0
2023-08-11 20:28:37.795773,-78.0
2023-08-11 20:28:37.803462,-374.0
2023-08-11 20:28:37.811151,-628.0
2023-08-11 20:28:37.818841,-358.0
2023-08-11 20:28:37.826530,207.0
2023-08-11 20:28:37.834219,262.0
2023-08-11 20:28:37.841908,-14.0
2023-08-11 20:28:37.849597,-19.0
2023-08-11 20:28:37.857287,59.0
2023-08-11 20:28:37.864976,9.0
2023-08-11 20:28:37.872665,-9.0
2023-08-11 20:28:37.880354,16.0
2023-08-11 20:28:37.888043,-2.0
2023-08-11 20:28:37.895733,-23.0
2023-08-11 20:28:37.903422,-9.0
2023-08-11 20:28:37.911111,-9.0
2023-08-11 20:28:37.918800,-19.0
2023-08-11 20:28:37.926490,-19.0
2023-08-11 20:28:37.934179,-26.0
2023-08-11 20:28:37.941868,-38.0
2023-08-11 20:28:37.949557,-38.0
2023-08-11 20:28:37.957246,-42.0
2023-08-11 20:28:37.964936,-50.0
2023-08-11 20:28:37.972625,-57.0
2023-08-11 20:28:37.980314,-62.0
2023-08-11 20:28:37.988003,-66.0
2023-08-11 20:28:37.995692,-69.0
2023-08-11 20:28:38.003382,-76.0
2023-08-11 20:28:38.011071,-81.0
2023-08-11 20:28:38.018760,-88.0
2023-08-11 20:28:38.026449,-97.0
2023-08-11 20:28:38.034139,-105.0
2023-08-11 20:28:38.041828,-107.0
2023-08-11 20:28:38.049517,-112.0
2023-08-11 20:28:38.057206,-117.0
2023-08-11 20:28:38.064895,-121.0
2023-08-11 20:28:38.072585,-124.0
2023-08-11 20:28:38.080274,-121.0
2023-08-11 20:28:38.087963,-109.0
2023-08-11 20:28:38.095652,-93.0
2023-08-11 20:28:38.103341,-74.0
2023-08-11 20:28:38.111031,-54.0
2023-08-11 20:28:38.118720,-45.0
2023-08-11 20:28:38.126409,-35.0
2023-08-11 20:28:38.134098,-26.0
2023-08-11 20:28:38.141787,-23.0
2023-08-11 20:28:38.149477,-28.0
2023-08-11 20:28:38.157166,-33.0
2023-08-11 20:28:38.164855,-38.0
2023-08-11 20:28:38.172544,-33.0
2023-08-11 20:28:38.180234,-31.0
2023-08-11 20:28:38.187923,-35.0
2023-08-11 20:28:38.195612,-42.0
2023-08-11 20:28:38.203301,-42.0
2023-08-11 20:28:38.210990,-42.0
2023-08-11 20:28:38.218680,-42.0
2023-08-11 20:28:38.226369,-42.0
2023-08-11 20:28:38.234058,-42.0
2023-08-11 20:28:38.241747,-42.0
2023-08-11 20:28:38.249436,-40.0
2023-08-11 20:28:38.257126,-38.0
2023-08-11 20:28:38.264815,-35.0
2023-08-11 20:28:38.272504,-38.0
2023-08-11 20:28:38.280193,-38.0
2023-08-11 20:28:38.287882,-33.0
2023-08-11 20:28:38.295572,-31.0
2023-08-11 20:28:38.303261,-33.0
2023-08-11 20:28:38.310950,-31.0
2023-08-11 20:28:38.318639,-26.0
2023-08-11 20:28:38.326329,-31.0
2023-08-11 20:28:38.334018,-33.0
2023-08-11 20:28:38.341707,-26.0
2023-08-11 20:28:38.349396,-19.0
2023-08-11 20:28:38.357085,-21.0
2023-08-11 20:28:38.364775,-31.0
2023-08-11 20:28:38.372464,-47.0
2023-08-11 20:28:38.380153,-64.0
2023-08-11 20:28:38.387842,-71.0
2023-08-11 20:28:38.395531,-59.0
2023-08-11 20:28:38.403221,-35.0
2023-08-11 20:28:38.410910,-23.0
2023-08-11 20:28:38.418599,-28.0
2023-08-11 20:28:38.426288,-28.0
2023-08-11 20:28:38.433978,-31.0
2023-08-11 20:28:38.441667,-35.0
2023-08-11 20:28:38.449356,-33.0
2023-08-11 20:28:38.457045,-21.0
2023-08-11 20:28:38.464734,-9.0
2023-08-11 20:28:38.472424,-78.0
2023-08-11 20:28:38.480113,-327.0
2023-08-11 20:28:38.487802,-609.0
2023-08-11 20:28:38.495491,-470.0
2023-08-11 20:28:38.503180,66.0
2023-08-11 20:28:38.510870,250.0
2023-08-11 20:28:38.518559,9.0
2023-08-11 20:28:38.526248,-71.0
2023-08-11 20:28:38.533937,-2.0
2023-08-11 20:28:38.541626,-28.0
2023-08-11 20:28:38.549316,-59.0
2023-08-11 20:28:38.557005,-40.0
2023-08-11 20:28:38.564694,-42.0
2023-08-11 20:28:38.572383,-59.0
2023-08-11 20:28:38.580073,-57.0
2023-08-11 20:28:38.587762,-57.0
2023-08-11 20:28:38.595451,-62.0
2023-08-11 20:28:38.603140,-64.0
2023-08-11 20:28:38.610829,-66.0
2023-08-11 20:28:38.618519,-71.0
2023-08-11 20:28:38.626208,-78.0
2023-08-11 20:28:38.633897,-81.0
2023-08-11 20:28:38.641586,-81.0
2023-08-11 20:28:38.649275,-88.0
2023-08-11 20:28:38.656965,-90.0
2023-08-11 20:28:38.664654,-93.0
2023-08-11 20:28:38.672343,-102.0
2023-08-11 20:28:38.680032,-112.0
2023-08-11 20:28:38.687721,-117.0
2023-08-11 20:28:38.695411,-126.0
2023-08-11 20:28:38.703100,-133.0
2023-08-11 20:28:38.710789,-138.0
2023-08-11 20:28:38.718478,-145.0
2023-08-11 20:28:38.726168,-152.0
2023-08-11 20:28:38.733857,-150.0
2023-08-11 20:28:38.741546,-152.0
2023-08-11 20:28:38.749235,-162.0
2023-08-11 20:28:38.756924,-162.0
2023-08-11 20:28:38.764614,-150.0
2023-08-11 20:28:38.772303,-133.0
2023-08-11 20:28:38.779992,-119.0
2023-08-11 20:28:38.787681,-107.0
2023-08-11 20:28:38.795370,-90.0
2023-08-11 20:28:38.803060,-71.0
2023-08-11 20:28:38.810749,-64.0
2023-08-11 20:28:38.818438,-66.0
2023-08-11 20:28:38.826127,-66.0
2023-08-11 20:28:38.833816,-64.0
2023-08-11 20:28:38.841506,-66.0
2023-08-11 20:28:38.849195,-71.0
2023-08-11 20:28:38.856884,-74.0
2023-08-11 20:28:38.864573,-74.0
2023-08-11 20:28:38.872263,-74.0
2023-08-11 20:28:38.879952,-74.0
2023-08-11 20:28:38.887641,-74.0
2023-08-11 20:28:38.895330,-78.0
2023-08-11 20:28:38.903019,-78.0
2023-08-11 20:28:38.910709,-76.0
2023-08-11 20:28:38.918398,-76.0
2023-08-11 20:28:38.926087,-76.0
2023-08-11 20:28:38.933776,-71.0
2023-08-11 20:28:38.941465,-71.0
2023-08-11 20:28:38.949155,-71.0
2023-08-11 20:28:38.956844,-69.0
2023-08-11 20:28:38.964533,-64.0
2023-08-11 20:28:38.972222,-64.0
2023-08-11 20:28:38.979912,-64.0
2023-08-11 20:28:38.987601,-66.0
2023-08-11 20:28:38.995290,-83.0
2023-08-11 20:28:39.002979,-100.0
2023-08-11 20:28:39.010668,-107.0
2023-08-11 20:28:39.018358,-100.0
2023-08-11 20:28:39.026047,-78.0
2023-08-11 20:28:39.033736,-62.0
2023-08-11 20:28:39.041425,-66.0
2023-08-11 20:28:39.049114,-71.0
2023-08-11 20:28:39.056804,-71.0
2023-08-11 20:28:39.064493,-71.0
2023-08-11 20:28:39.072182,-71.0
2023-08-11 20:28:39.079871,-62.0
2023-08-11 20:28:39.087560,-42.0
2023-08-11 20:28:39.095250,-93.0
2023-08-11 20:28:39.102939,-329.0
2023-08-11 20:28:39.110628,-654.0
2023-08-11 20:28:39.118317,-587.0
2023-08-11 20:28:39.126007,-33.0
2023-08-11 20:28:39.133696,246.0
2023-08-11 20:28:39.141385,35.0
2023-08-11 20:28:39.149074,-71.0
2023-08-11 20:28:39.156763,-9.0
2023-08-11 20:28:39.164453,-33.0
2023-08-11 20:28:39.172142,-64.0
2023-08-11 20:28:39.179831,-45.0
2023-08-11 20:28:39.187520,-45.0
2023-08-11 20:28:39.195209,-57.0
2023-08-11 20:28:39.202899,-54.0
2023-08-11 20:28:39.210588,-52.0
2023-08-11 20:28:39.218277,-57.0
2023-08-11 20:28:39.225966,-62.0
2023-08-11 20:28:39.233655,-64.0
2023-08-11 20:28:39.241345,-66.0
2023-08-11 20:28:39.249034,-69.0
2023-08-11 20:28:39.256723,-71.0
2023-08-11 20:28:39.264412,-76.0
2023-08-11 20:28:39.272102,-81.0
2023-08-11 20:28:39.279791,-85.0
2023-08-11 20:28:39.287480,-88.0
2023-08-11 20:28:39.295169,-93.0
2023-08-11 20:28:39.302858,-102.0
2023-08-11 20:28:39.310548,-114.0
2023-08-11 20:28:39.318237,-121.0
2023-08-11 20:28:39.325926,-126.0
2023-08-11 20:28:39.333615,-128.0
2023-08-11 20:28:39.341304,-133.0
2023-08-11 20:28:39.348994,-133.0
2023-08-11 20:28:39.356683,-133.0
2023-08-11 20:28:39.364372,-136.0
2023-08-11 20:28:39.372061,-136.0
2023-08-11 20:28:39.379751,-128.0
2023-08-11 20:28:39.387440,-117.0
2023-08-11 20:28:39.395129,-102.0
2023-08-11 20:28:39.402818,-88.0
2023-08-11 20:28:39.410507,-71.0
2023-08-11 20:28:39.418197,-50.0
2023-08-11 20:28:39.425886,-38.0
2023-08-11 20:28:39.433575,-35.0
2023-08-11 20:28:39.441264,-31.0
2023-08-11 20:28:39.448953,-28.0
2023-08-11 20:28:39.456643,-31.0
2023-08-11 20:28:39.464332,-35.0
2023-08-11 20:28:39.472021,-35.0
2023-08-11 20:28:39.479710,-42.0
2023-08-11 20:28:39.487399,-47.0
2023-08-11 20:28:39.495089,-45.0
2023-08-11 20:28:39.502778,-47.0
2023-08-11 20:28:39.510467,-50.0
2023-08-11 20:28:39.518156,-47.0
2023-08-11 20:28:39.525846,-47.0
2023-08-11 20:28:39.533535,-47.0
2023-08-11 20:28:39.541224,-45.0
2023-08-11 20:28:39.548913,-42.0
2023-08-11 20:28:39.556602,-42.0
2023-08-11 20:28:39.564292,-40.0
2023-08-11 20:28:39.571981,-35.0
2023-08-11 20:28:39.579670,-38.0
2023-08-11 20:28:39.587359,-38.0
2023-08-11 20:28:39.595048,-35.0
2023-08-11 20:28:39.602738,-35.0
2023-08-11 20:28:39.610427,-35.0
2023-08-11 20:28:39.618116,-35.0
2023-08-11 20:28:39.625805,-42.0
2023-08-11 20:28:39.633494,-57.0
2023-08-11 20:28:39.641184,-74.0
2023-08-11 20:28:39.648873,-81.0
2023-08-11 20:28:39.656562,-62.0
2023-08-11 20:28:39.664251,-35.0
2023-08-11 20:28:39.671941,-31.0
2023-08-11 20:28:39.679630,-38.0
2023-08-11 20:28:39.687319,-35.0
2023-08-11 20:28:39.695008,-38.0
2023-08-11 20:28:39.702697,-38.0
2023-08-11 20:28:39.710387,-33.0
2023-08-11 20:28:39.718076,-14.0
2023-08-11 20:28:39.725765,-2.0
2023-08-11 20:28:39.733454,-124.0
2023-08-11 20:28:39.741143,-444.0
2023-08-11 20:28:39.748833,-680.0
2023-08-11 20:28:39.756522,-355.0
2023-08-11 20:28:39.764211,217.0
2023-08-11 20:28:39.771900,238.0
2023-08-11 20:28:39.779590,-28.0
2023-08-11 20:28:39.787279,-16.0
2023-08-11 20:28:39.794968,45.0
2023-08-11 20:28:39.802657,-11.0
2023-08-11 20:28:39.810346,-23.0
2023-08-11 20:28:39.818036,0.0
2023-08-11 20:28:39.825725,-16.0
2023-08-11 20:28:39.833414,-31.0
2023-08-11 20:28:39.841103,-19.0
2023-08-11 20:28:39.848792,-19.0
2023-08-11 20:28:39.856482,-28.0
2023-08-11 20:28:39.864171,-26.0
2023-08-11 20:28:39.871860,-31.0
2023-08-11 20:28:39.879549,-40.0
2023-08-11 20:28:39.887238,-40.0
2023-08-11 20:28:39.894928,-42.0
2023-08-11 20:28:39.902617,-47.0
2023-08-11 20:28:39.910306,-54.0
2023-08-11 20:28:39.917995,-62.0
2023-08-11 20:28:39.925685,-66.0
2023-08-11 20:28:39.933374,-74.0
2023-08-11 20:28:39.941063,-81.0
2023-08-11 20:28:39.948752,-90.0
2023-08-11 20:28:39.956441,-97.0
2023-08-11 20:28:39.964131,-102.0
2023-08-11 20:28:39.971820,-107.0
2023-08-11 20:28:39.979509,-112.0
2023-08-11 20:28:39.987198,-121.0
2023-08-11 20:28:39.994887,-124.0
2023-08-11 20:28:40.002577,-126.0
2023-08-11 20:28:40.010266,-126.0
2023-08-11 20:28:40.017955,-114.0
2023-08-11 20:28:40.025644,-100.0
2023-08-11 20:28:40.033333,-83.0
2023-08-11 20:28:40.041023,-64.0
2023-08-11 20:28:40.048712,-47.0
2023-08-11 20:28:40.056401,-35.0
2023-08-11 20:28:40.064090,-26.0
2023-08-11 20:28:40.071780,-16.0
2023-08-11 20:28:40.079469,-11.0
2023-08-11 20:28:40.087158,-11.0
2023-08-11 20:28:40.094847,-14.0
2023-08-11 20:28:40.102536,-14.0
2023-08-11 20:28:40.110226,-14.0
2023-08-11 20:28:40.117915,-11.0
2023-08-11 20:28:40.125604,-14.0
2023-08-11 20:28:40.133293,-16.0
2023-08-11 20:28:40.140982,-16.0
2023-08-11 20:28:40.148672,-19.0
2023-08-11 20:28:40.156361,-19.0
2023-08-11 20:28:40.164050,-16.0
2023-08-11 20:28:40.171739,-16.0
2023-08-11 20:28:40.179429,-21.0
2023-08-11 20:28:40.187118,-23.0
2023-08-11 20:28:40.194807,-23.0
2023-08-11 20:28:40.202496,-19.0
2023-08-11 20:28:40.210185,-14.0
2023-08-11 20:28:40.217875,-11.0
2023-08-11 20:28:40.225564,-7.0
2023-08-11 20:28:40.233253,-4.0
2023-08-11 20:28:40.240942,-4.0
2023-08-11 20:28:40.248631,4.0
2023-08-11 20:28:40.256321,11.0
2023-08-11 20:28:40.264010,11.0
2023-08-11 20:28:40.271699,4.0
2023-08-11 20:28:40.279388,-9.0
2023-08-11 20:28:40.287077,-28.0
2023-08-11 20:28:40.294767,-40.0
2023-08-11 20:28:40.302456,-38.0
2023-08-11 20:28:40.310145,-16.0
2023-08-11 20:28:40.317834,-2.0
2023-08-11 20:28:40.325524,-2.0
2023-08-11 20:28:40.333213,-2.0
2023-08-11 20:28:40.340902,2.0
2023-08-11 20:28:40.348591,2.0
2023-08-11 20:28:40.356280,0.0
2023-08-11 20:28:40.363970,9.0
2023-08-11 20:28:40.371659,33.0
2023-08-11 20:28:40.379348,-4.0
2023-08-11 20:28:40.387037,-234.0
2023-08-11 20:28:40.394726,-575.0
2023-08-11 20:28:40.402416,-563.0
2023-08-11 20:28:40.410105,-2.0
2023-08-11 20:28:40.417794,343.0
2023-08-11 20:28:40.425483,112.0
2023-08-11 20:28:40.433172,-33.0
2023-08-11 20:28:40.440862,64.0
2023-08-11 20:28:40.448551,57.0
2023-08-11 20:28:40.456240,4.0
2023-08-11 20:28:40.463929,28.0
2023-08-11 20:28:40.471619,35.0
2023-08-11 20:28:40.479308,11.0
2023-08-11 20:28:40.486997,9.0
2023-08-11 20:28:40.494686,11.0
2023-08-11 20:28:40.502375,7.0
2023-08-11 20:28:40.510065,4.0
2023-08-11 20:28:40.517754,4.0
2023-08-11 20:28:40.525443,2.0
2023-08-11 20:28:40.533132,0.0
2023-08-11 20:28:40.540821,-4.0
2023-08-11 20:28:40.548511,-11.0
2023-08-11 20:28:40.556200,-14.0
2023-08-11 20:28:40.563889,-16.0
2023-08-11 20:28:40.571578,-23.0
2023-08-11 20:28:40.579268,-33.0
2023-08-11 20:28:40.586957,-40.0
2023-08-11 20:28:40.594646,-45.0
2023-08-11 20:28:40.602335,-52.0
2023-08-11 20:28:40.610024,-54.0
2023-08-11 20:28:40.617714,-59.0
2023-08-11 20:28:40.625403,-66.0
2023-08-11 20:28:40.633092,-74.0
2023-08-11 20:28:40.640781,-81.0
2023-08-11 20:28:40.648470,-83.0
2023-08-11 20:28:40.656160,-88.0
2023-08-11 20:28:40.663849,-83.0
2023-08-11 20:28:40.671538,-71.0
2023-08-11 20:28:40.679227,-57.0
2023-08-11 20:28:40.686916,-40.0
2023-08-11 20:28:40.694606,-21.0
2023-08-11 20:28:40.702295,-7.0
2023-08-11 20:28:40.709984,4.0
2023-08-11 20:28:40.717673,9.0
2023-08-11 20:28:40.725363,7.0
2023-08-11 20:28:40.733052,7.0
2023-08-11 20:28:40.740741,9.0
2023-08-11 20:28:40.748430,11.0
2023-08-11 20:28:40.756119,11.0
2023-08-11 20:28:40.763809,11.0
2023-08-11 20:28:40.771498,9.0
2023-08-11 20:28:40.779187,7.0
2023-08-11 20:28:40.786876,4.0
2023-08-11 20:28:40.794565,0.0
2023-08-11 20:28:40.802255,0.0
2023-08-11 20:28:40.809944,0.0
2023-08-11 20:28:40.817633,-4.0
2023-08-11 20:28:40.825322,-2.0
2023-08-11 20:28:40.833011,2.0
2023-08-11 20:28:40.840701,0.0
2023-08-11 20:28:40.848390,0.0
2023-08-11 20:28:40.856079,2.0
2023-08-11 20:28:40.863768,0.0
2023-08-11 20:28:40.871458,0.0
2023-08-11 20:28:40.879147,4.0
2023-08-11 20:28:40.886836,4.0
2023-08-11 20:28:40.894525,4.0
2023-08-11 20:28:40.902214,7.0
2023-08-11 20:28:40.909904,14.0
2023-08-11 20:28:40.917593,21.0
2023-08-11 20:28:40.925282,23.0
2023-08-11 20:28:40.932971,19.0
2023-08-11 20:28:40.940660,4.0
2023-08-11 20:28:40.948350,-14.0
2023-08-11 20:28:40.956039,-26.0
2023-08-11 20:28:40.963728,-19.0
2023-08-11 20:28:40.971417,0.0
2023-08-11 20:28:40.979106,16.0
2023-08-11 20:28:40.986796,16.0
2023-08-11 20:28:40.994485,9.0
2023-08-11 20:28:41.002174,11.0
2023-08-11 20:28:41.009863,14.0
2023-08-11 20:28:41.017553,14.0
2023-08-11 20:28:41.025242,16.0
2023-08-11 20:28:41.032931,35.0
2023-08-11 20:28:41.040620,23.0
2023-08-11 20:28:41.048309,-143.0
2023-08-11 20:28:41.055999,-475.0
2023-08-11 20:28:41.063688,-582.0
2023-08-11 20:28:41.071377,-126.0
2023-08-11 20:28:41.079066,320.0
2023-08-11 20:28:41.086755,174.0
2023-08-11 20:28:41.094445,-38.0
2023-08-11 20:28:41.102134,38.0
2023-08-11 20:28:41.109823,66.0
2023-08-11 20:28:41.117512,4.0
2023-08-11 20:28:41.125202,14.0
2023-08-11 20:28:41.132891,28.0
2023-08-11 20:28:41.140580,4.0
2023-08-11 20:28:41.148269,2.0
2023-08-11 20:28:41.155958,9.0
2023-08-11 20:28:41.163648,0.0
2023-08-11 20:28:41.171337,-7.0
2023-08-11 20:28:41.179026,-4.0
2023-08-11 20:28:41.186715,-9.0
2023-08-11 20:28:41.194404,-14.0
2023-08-11 20:28:41.202094,-16.0
2023-08-11 20:28:41.209783,-19.0
2023-08-11 20:28:41.217472,-26.0
2023-08-11 20:28:41.225161,-33.0
2023-08-11 20:28:41.232850,-42.0
2023-08-11 20:28:41.240540,-47.0
2023-08-11 20:28:41.248229,-54.0
2023-08-11 20:28:41.255918,-64.0
2023-08-11 20:28:41.263607,-74.0
2023-08-11 20:28:41.271297,-81.0
2023-08-11 20:28:41.278986,-90.0
2023-08-11 20:28:41.286675,-97.0
2023-08-11 20:28:41.294364,-102.0
2023-08-11 20:28:41.302053,-112.0
2023-08-11 20:28:41.309743,-121.0
2023-08-11 20:28:41.317432,-128.0
2023-08-11 20:28:41.325121,-128.0
2023-08-11 20:28:41.332810,-117.0
2023-08-11 20:28:41.340499,-105.0
2023-08-11 20:28:41.348189,-90.0
2023-08-11 20:28:41.355878,-76.0
2023-08-11 20:28:41.363567,-59.0
2023-08-11 20:28:41.371256,-42.0
2023-08-11 20:28:41.378945,-35.0
2023-08-11 20:28:41.386635,-33.0
2023-08-11 20:28:41.394324,-28.0
2023-08-11 20:28:41.402013,-28.0
2023-08-11 20:28:41.409702,-33.0
2023-08-11 20:28:41.417392,-35.0
2023-08-11 20:28:41.425081,-35.0
2023-08-11 20:28:41.432770,-38.0
2023-08-11 20:28:41.440459,-40.0
2023-08-11 20:28:41.448148,-40.0
2023-08-11 20:28:41.455838,-42.0
2023-08-11 20:28:41.463527,-42.0
2023-08-11 20:28:41.471216,-40.0
2023-08-11 20:28:41.478905,-38.0
2023-08-11 20:28:41.486594,-42.0
2023-08-11 20:28:41.494284,-47.0
2023-08-11 20:28:41.501973,-45.0
2023-08-11 20:28:41.509662,-38.0
2023-08-11 20:28:41.517351,-38.0
2023-08-11 20:28:41.525041,-38.0
2023-08-11 20:28:41.532730,-42.0
2023-08-11 20:28:41.540419,-42.0
2023-08-11 20:28:41.548108,-38.0
2023-08-11 20:28:41.555797,-31.0
2023-08-11 20:28:41.563487,-28.0
2023-08-11 20:28:41.571176,-23.0
2023-08-11 20:28:41.578865,-23.0
2023-08-11 20:28:41.586554,-35.0
2023-08-11 20:28:41.594243,-52.0
2023-08-11 20:28:41.601933,-64.0
2023-08-11 20:28:41.609622,-69.0
2023-08-11 20:28:41.617311,-57.0
2023-08-11 20:28:41.625000,-35.0
2023-08-11 20:28:41.632689,-28.0
2023-08-11 20:28:41.640379,-31.0
2023-08-11 20:28:41.648068,-26.0
2023-08-11 20:28:41.655757,-26.0
2023-08-11 20:28:41.663446,-35.0
2023-08-11 20:28:41.671136,-38.0
2023-08-11 20:28:41.678825,-21.0
2023-08-11 20:28:41.686514,-4.0
2023-08-11 20:28:41.694203,-88.0
2023-08-11 20:28:41.701892,-355.0
2023-08-11 20:28:41.709582,-621.0
2023-08-11 20:28:41.717271,-413.0
2023-08-11 20:28:41.724960,121.0
2023-08-11 20:28:41.732649,231.0
2023-08-11 20:28:41.740338,0.0
2023-08-11 20:28:41.748028,-35.0
2023-08-11 20:28:41.755717,9.0
2023-08-11 20:28:41.763406,-35.0
2023-08-11 20:28:41.771095,-52.0
2023-08-11 20:28:41.778784,-31.0
2023-08-11 20:28:41.786474,-42.0
2023-08-11 20:28:41.794163,-57.0
2023-08-11 20:28:41.801852,-57.0
2023-08-11 20:28:41.809541,-59.0
2023-08-11 20:28:41.817231,-59.0
2023-08-11 20:28:41.824920,-54.0
2023-08-11 20:28:41.832609,-62.0
2023-08-11 20:28:41.840298,-74.0
2023-08-11 20:28:41.847987,-83.0
2023-08-11 20:28:41.855677,-93.0
2023-08-11 20:28:41.863366,-97.0
2023-08-11 20:28:41.871055,-102.0
2023-08-11 20:28:41.878744,-105.0
2023-08-11 20:28:41.886433,-105.0
2023-08-11 20:28:41.894123,-112.0
2023-08-11 20:28:41.901812,-121.0
2023-08-11 20:28:41.909501,-126.0
2023-08-11 20:28:41.917190,-131.0
2023-08-11 20:28:41.924880,-138.0
2023-08-11 20:28:41.932569,-148.0
2023-08-11 20:28:41.940258,-155.0
2023-08-11 20:28:41.947947,-157.0
2023-08-11 20:28:41.955636,-162.0
2023-08-11 20:28:41.963326,-162.0
2023-08-11 20:28:41.971015,-162.0
2023-08-11 20:28:41.978704,-155.0
2023-08-11 20:28:41.986393,-145.0
2023-08-11 20:28:41.994082,-138.0
2023-08-11 20:28:42.001772,-124.0
2023-08-11 20:28:42.009461,-102.0
2023-08-11 20:28:42.017150,-88.0
2023-08-11 20:28:42.024839,-83.0
2023-08-11 20:28:42.032528,-78.0
2023-08-11 20:28:42.040218,-71.0
2023-08-11 20:28:42.047907,-69.0
2023-08-11 20:28:42.055596,-69.0
2023-08-11 20:28:42.063285,-66.0
2023-08-11 20:28:42.070975,-66.0
2023-08-11 20:28:42.078664,-74.0
2023-08-11 20:28:42.086353,-78.0
2023-08-11 20:28:42.094042,-74.0
2023-08-11 20:28:42.101731,-74.0
2023-08-11 20:28:42.109421,-76.0
2023-08-11 20:28:42.117110,-78.0
2023-08-11 20:28:42.124799,-78.0
2023-08-11 20:28:42.132488,-78.0
2023-08-11 20:28:42.140177,-74.0
2023-08-11 20:28:42.147867,-66.0
2023-08-11 20:28:42.155556,-64.0
2023-08-11 20:28:42.163245,-62.0
2023-08-11 20:28:42.170934,-59.0
2023-08-11 20:28:42.178623,-54.0
2023-08-11 20:28:42.186313,-50.0
2023-08-11 20:28:42.194002,-42.0
2023-08-11 20:28:42.201691,-47.0
2023-08-11 20:28:42.209380,-69.0
2023-08-11 20:28:42.217070,-85.0
2023-08-11 20:28:42.224759,-85.0
2023-08-11 20:28:42.232448,-69.0
2023-08-11 20:28:42.240137,-42.0
2023-08-11 20:28:42.247826,-35.0
2023-08-11 20:28:42.255516,-40.0
2023-08-11 20:28:42.263205,-42.0
2023-08-11 20:28:42.270894,-45.0
2023-08-11 20:28:42.278583,-42.0
2023-08-11 20:28:42.286272,-38.0
2023-08-11 20:28:42.293962,-23.0
2023-08-11 20:28:42.301651,-16.0
2023-08-11 20:28:42.309340,-131.0
2023-08-11 20:28:42.317029,-441.0
2023-08-11 20:28:42.324719,-680.0
2023-08-11 20:28:42.332408,-367.0
2023-08-11 20:28:42.340097,195.0
2023-08-11 20:28:42.347786,229.0
2023-08-11 20:28:42.355475,-21.0
2023-08-11 20:28:42.363165,-19.0
2023-08-11 20:28:42.370854,28.0
2023-08-11 20:28:42.378543,-19.0
2023-08-11 20:28:42.386232,-26.0
2023-08-11 20:28:42.393921,-7.0
2023-08-11 20:28:42.401611,-23.0
2023-08-11 20:28:42.409300,-31.0
2023-08-11 20:28:42.416989,-21.0
2023-08-11 20:28:42.424678,-23.0
2023-08-11 20:28:42.432367,-38.0
2023-08-11 20:28:42.440057,-42.0
2023-08-11 20:28:42.447746,-40.0
2023-08-11 20:28:42.455435,-47.0
2023-08-11 20:28:42.463124,-54.0
2023-08-11 20:28:42.470814,-57.0
2023-08-11 20:28:42.478503,-59.0
2023-08-11 20:28:42.486192,-66.0
2023-08-11 20:28:42.493881,-71.0
2023-08-11 20:28:42.501570,-78.0
2023-08-11 20:28:42.509260,-93.0
2023-08-11 20:28:42.516949,-102.0
2023-08-11 20:28:42.524638,-109.0
2023-08-11 20:28:42.532327,-114.0
2023-08-11 20:28:42.540016,-124.0
2023-08-11 20:28:42.547706,-128.0
2023-08-11 20:28:42.555395,-128.0
2023-08-11 20:28:42.563084,-133.0
2023-08-11 20:28:42.570773,-138.0
2023-08-11 20:28:42.578462,-138.0
2023-08-11 20:28:42.586152,-136.0
2023-08-11 20:28:42.593841,-128.0
2023-08-11 20:28:42.601530,-114.0
2023-08-11 20:28:42.609219,-97.0
2023-08-11 20:28:42.616909,-81.0
2023-08-11 20:28:42.624598,-64.0
2023-08-11 20:28:42.632287,-47.0
2023-08-11 20:28:42.639976,-40.0
2023-08-11 20:28:42.647665,-38.0
2023-08-11 20:28:42.655355,-33.0
2023-08-11 20:28:42.663044,-31.0
2023-08-11 20:28:42.670733,-31.0
2023-08-11 20:28:42.678422,-33.0
2023-08-11 20:28:42.686111,-35.0
2023-08-11 20:28:42.693801,-38.0
2023-08-11 20:28:42.701490,-40.0
2023-08-11 20:28:42.709179,-40.0
2023-08-11 20:28:42.716868,-40.0
2023-08-11 20:28:42.724558,-40.0
2023-08-11 20:28:42.732247,-42.0
2023-08-11 20:28:42.739936,-42.0
2023-08-11 20:28:42.747625,-40.0
2023-08-11 20:28:42.755314,-40.0
2023-08-11 20:28:42.763004,-40.0
2023-08-11 20:28:42.770693,-40.0
2023-08-11 20:28:42.778382,-38.0
2023-08-11 20:28:42.786071,-33.0
2023-08-11 20:28:42.793760,-31.0
2023-08-11 20:28:42.801450,-31.0
2023-08-11 20:28:42.809139,-23.0
2023-08-11 20:28:42.816828,-16.0
2023-08-11 20:28:42.824517,-16.0
2023-08-11 20:28:42.832206,-23.0
2023-08-11 20:28:42.839896,-35.0
2023-08-11 20:28:42.847585,-54.0
2023-08-11 20:28:42.855274,-62.0
2023-08-11 20:28:42.862963,-50.0
2023-08-11 20:28:42.870653,-26.0
2023-08-11 20:28:42.878342,-16.0
2023-08-11 20:28:42.886031,-21.0
2023-08-11 20:28:42.893720,-21.0
2023-08-11 20:28:42.901409,-16.0
2023-08-11 20:28:42.909099,-19.0
2023-08-11 20:28:42.916788,-21.0
2023-08-11 20:28:42.924477,-7.0
2023-08-11 20:28:42.932166,11.0
2023-08-11 20:28:42.939855,-66.0
2023-08-11 20:28:42.947545,-351.0
2023-08-11 20:28:42.955234,-664.0
2023-08-11 20:28:42.962923,-482.0
2023-08-11 20:28:42.970612,126.0
2023-08-11 20:28:42.978301,289.0
2023-08-11 20:28:42.985991,7.0
2023-08-11 20:28:42.993680,-40.0
2023-08-11 20:28:43.001369,50.0
2023-08-11 20:28:43.009058,2.0
2023-08-11 20:28:43.016748,-31.0
2023-08-11 20:28:43.024437,2.0
2023-08-11 20:28:43.032126,-4.0
2023-08-11 20:28:43.039815,-21.0
2023-08-11 20:28:43.047504,-11.0
2023-08-11 20:28:43.055194,-9.0
2023-08-11 20:28:43.062883,-19.0
2023-08-11 20:28:43.070572,-19.0
2023-08-11 20:28:43.078261,-16.0
2023-08-11 20:28:43.085950,-19.0
2023-08-11 20:28:43.093640,-23.0
2023-08-11 20:28:43.101329,-28.0
2023-08-11 20:28:43.109018,-31.0
2023-08-11 20:28:43.116707,-33.0
2023-08-11 20:28:43.124396,-35.0
2023-08-11 20:28:43.132086,-45.0
2023-08-11 20:28:43.139775,-50.0
2023-08-11 20:28:43.147464,-54.0
2023-08-11 20:28:43.155153,-59.0
2023-08-11 20:28:43.162843,-69.0
2023-08-11 20:28:43.170532,-76.0
2023-08-11 20:28:43.178221,-83.0
2023-08-11 20:28:43.185910,-88.0
2023-08-11 20:28:43.193599,-97.0
2023-08-11 20:28:43.201289,-105.0
2023-08-11 20:28:43.208978,-107.0
2023-08-11 20:28:43.216667,-102.0
2023-08-11 20:28:43.224356,-95.0
2023-08-11 20:28:43.232045,-83.0
2023-08-11 20:28:43.239735,-66.0
2023-08-11 20:28:43.247424,-50.0
2023-08-11 20:28:43.255113,-33.0
2023-08-11 20:28:43.262802,-19.0
2023-08-11 20:28:43.270492,-9.0
2023-08-11 20:28:43.278181,-2.0
2023-08-11 20:28:43.285870,-2.0
2023-08-11 20:28:43.293559,-2.0
2023-08-11 20:28:43.301248,-2.0
2023-08-11 20:28:43.308938,-4.0
2023-08-11 20:28:43.316627,-4.0
2023-08-11 20:28:43.324316,-7.0
2023-08-11 20:28:43.332005,-9.0
2023-08-11 20:28:43.339694,-11.0
2023-08-11 20:28:43.347384,-9.0
2023-08-11 20:28:43.355073,-9.0
2023-08-11 20:28:43.362762,-9.0
2023-08-11 20:28:43.370451,-9.0
2023-08-11 20:28:43.378140,-11.0
2023-08-11 20:28:43.385830,-11.0
2023-08-11 20:28:43.393519,-9.0
2023-08-11 20:28:43.401208,-7.0
2023-08-11 20:28:43.408897,-4.0
2023-08-11 20:28:43.416587,-2.0
2023-08-11 20:28:43.424276,-2.0
2023-08-11 20:28:43.431965,0.0
2023-08-11 20:28:43.439654,2.0
2023-08-11 20:28:43.447343,4.0
2023-08-11 20:28:43.455033,9.0
2023-08-11 20:28:43.462722,14.0
2023-08-11 20:28:43.470411,14.0
2023-08-11 20:28:43.478100,11.0
2023-08-11 20:28:43.485789,0.0
2023-08-11 20:28:43.493479,-23.0
2023-08-11 20:28:43.501168,-35.0
2023-08-11 20:28:43.508857,-31.0
2023-08-11 20:28:43.516546,-16.0
2023-08-11 20:28:43.524235,-2.0
2023-08-11 20:28:43.531925,-2.0
2023-08-11 20:28:43.539614,-4.0
2023-08-11 20:28:43.547303,-2.0
2023-08-11 20:28:43.554992,-7.0
2023-08-11 20:28:43.562682,-19.0
2023-08-11 20:28:43.570371,-11.0
2023-08-11 20:28:43.578060,19.0
2023-08-11 20:28:43.585749,-11.0
2023-08-11 20:28:43.593438,-229.0
2023-08-11 20:28:43.601128,-573.0
2023-08-11 20:28:43.608817,-582.0
2023-08-11 20:28:43.616506,-40.0
2023-08-11 20:28:43.624195,324.0
2023-08-11 20:28:43.631884,105.0
2023-08-11 20:28:43.639574,-52.0
2023-08-11 20:28:43.647263,42.0
2023-08-11 20:28:43.654952,40.0
2023-08-11 20:28:43.662641,-14.0
2023-08-11 20:28:43.670331,11.0
2023-08-11 20:28:43.678020,23.0
2023-08-11 20:28:43.685709,0.0
2023-08-11 20:28:43.693398,-2.0
2023-08-11 20:28:43.701087,4.0
2023-08-11 20:28:43.708777,-2.0
2023-08-11 20:28:43.716466,-2.0
2023-08-11 20:28:43.724155,-2.0
2023-08-11 20:28:43.731844,-4.0
2023-08-11 20:28:43.739533,-9.0
2023-08-11 20:28:43.747223,-14.0
2023-08-11 20:28:43.754912,-16.0
2023-08-11 20:28:43.762601,-16.0
2023-08-11 20:28:43.770290,-19.0
2023-08-11 20:28:43.777979,-28.0
2023-08-11 20:28:43.785669,-35.0
2023-08-11 20:28:43.793358,-38.0
2023-08-11 20:28:43.801047,-42.0
