time,ECG
2023-08-15 12:58:36.882582,-9.0
2023-08-15 12:58:36.890271,-26.0
2023-08-15 12:58:36.897961,-48.0
2023-08-15 12:58:36.905650,-43.0
2023-08-15 12:58:36.913339,-36.0
2023-08-15 12:58:36.921029,-43.0
2023-08-15 12:58:36.928718,-53.0
2023-08-15 12:58:36.936408,-55.0
2023-08-15 12:58:36.944097,-50.0
2023-08-15 12:58:36.951786,-48.0
2023-08-15 12:58:36.959476,-43.0
2023-08-15 12:58:36.967165,-41.0
2023-08-15 12:58:36.974854,-45.0
2023-08-15 12:58:36.982544,-45.0
2023-08-15 12:58:36.990233,-38.0
2023-08-15 12:58:36.997922,-26.0
2023-08-15 12:58:37.005612,-12.0
2023-08-15 12:58:37.013301,-19.0
2023-08-15 12:58:37.020990,-41.0
2023-08-15 12:58:37.028680,-50.0
2023-08-15 12:58:37.036369,-48.0
2023-08-15 12:58:37.044059,-45.0
2023-08-15 12:58:37.051748,-43.0
2023-08-15 12:58:37.059437,-55.0
2023-08-15 12:58:37.067127,-79.0
2023-08-15 12:58:37.074816,-108.0
2023-08-15 12:58:37.082505,-132.0
2023-08-15 12:58:37.090195,-132.0
2023-08-15 12:58:37.097884,-96.0
2023-08-15 12:58:37.105573,-67.0
2023-08-15 12:58:37.113263,-45.0
2023-08-15 12:58:37.120952,-19.0
2023-08-15 12:58:37.128642,-14.0
2023-08-15 12:58:37.136331,-16.0
2023-08-15 12:58:37.144020,-12.0
2023-08-15 12:58:37.151710,-9.0
2023-08-15 12:58:37.159399,-12.0
2023-08-15 12:58:37.167088,-9.0
2023-08-15 12:58:37.174778,-16.0
2023-08-15 12:58:37.182467,-38.0
2023-08-15 12:58:37.190156,-31.0
2023-08-15 12:58:37.197846,-41.0
2023-08-15 12:58:37.205535,-212.0
2023-08-15 12:58:37.213224,-593.0
2023-08-15 12:58:37.220914,-962.0
2023-08-15 12:58:37.228603,-880.0
2023-08-15 12:58:37.236293,-248.0
2023-08-15 12:58:37.243982,294.0
2023-08-15 12:58:37.251671,224.0
2023-08-15 12:58:37.259361,-55.0
2023-08-15 12:58:37.267050,-26.0
2023-08-15 12:58:37.274739,69.0
2023-08-15 12:58:37.282429,21.0
2023-08-15 12:58:37.290118,9.0
2023-08-15 12:58:37.297807,28.0
2023-08-15 12:58:37.305497,0.0
2023-08-15 12:58:37.313186,-19.0
2023-08-15 12:58:37.320875,-9.0
2023-08-15 12:58:37.328565,-12.0
2023-08-15 12:58:37.336254,-16.0
2023-08-15 12:58:37.343944,-12.0
2023-08-15 12:58:37.351633,-24.0
2023-08-15 12:58:37.359322,-48.0
2023-08-15 12:58:37.367012,-57.0
2023-08-15 12:58:37.374701,-55.0
2023-08-15 12:58:37.382390,-67.0
2023-08-15 12:58:37.390080,-82.0
2023-08-15 12:58:37.397769,-74.0
2023-08-15 12:58:37.405458,-65.0
2023-08-15 12:58:37.413148,-77.0
2023-08-15 12:58:37.420837,-94.0
2023-08-15 12:58:37.428526,-86.0
2023-08-15 12:58:37.436216,-65.0
2023-08-15 12:58:37.443905,-60.0
2023-08-15 12:58:37.451595,-57.0
2023-08-15 12:58:37.459284,-28.0
2023-08-15 12:58:37.466973,-16.0
2023-08-15 12:58:37.474663,-24.0
2023-08-15 12:58:37.482352,-21.0
2023-08-15 12:58:37.490041,-24.0
2023-08-15 12:58:37.497731,-41.0
2023-08-15 12:58:37.505420,-38.0
2023-08-15 12:58:37.513109,-36.0
2023-08-15 12:58:37.520799,-36.0
2023-08-15 12:58:37.528488,-28.0
2023-08-15 12:58:37.536178,-36.0
2023-08-15 12:58:37.543867,-43.0
2023-08-15 12:58:37.551556,-33.0
2023-08-15 12:58:37.559246,-21.0
2023-08-15 12:58:37.566935,-33.0
2023-08-15 12:58:37.574624,-53.0
2023-08-15 12:58:37.582314,-48.0
2023-08-15 12:58:37.590003,-38.0
2023-08-15 12:58:37.597692,-33.0
2023-08-15 12:58:37.605382,-31.0
2023-08-15 12:58:37.613071,-38.0
2023-08-15 12:58:37.620760,-48.0
2023-08-15 12:58:37.628450,-24.0
2023-08-15 12:58:37.636139,-4.0
2023-08-15 12:58:37.643829,-24.0
2023-08-15 12:58:37.651518,-31.0
2023-08-15 12:58:37.659207,-16.0
2023-08-15 12:58:37.666897,-16.0
2023-08-15 12:58:37.674586,-21.0
2023-08-15 12:58:37.682275,-31.0
2023-08-15 12:58:37.689965,-45.0
2023-08-15 12:58:37.697654,-50.0
2023-08-15 12:58:37.705343,-69.0
2023-08-15 12:58:37.713033,-118.0
2023-08-15 12:58:37.720722,-147.0
2023-08-15 12:58:37.728411,-120.0
2023-08-15 12:58:37.736101,-79.0
2023-08-15 12:58:37.743790,-69.0
2023-08-15 12:58:37.751480,-62.0
2023-08-15 12:58:37.759169,-33.0
2023-08-15 12:58:37.766858,-16.0
2023-08-15 12:58:37.774548,-24.0
2023-08-15 12:58:37.782237,-21.0
2023-08-15 12:58:37.789926,0.0
2023-08-15 12:58:37.797616,-2.0
2023-08-15 12:58:37.805305,-28.0
2023-08-15 12:58:37.812994,-38.0
2023-08-15 12:58:37.820684,-16.0
2023-08-15 12:58:37.828373,-12.0
2023-08-15 12:58:37.836062,-103.0
2023-08-15 12:58:37.843752,-381.0
2023-08-15 12:58:37.851441,-793.0
2023-08-15 12:58:37.859131,-982.0
2023-08-15 12:58:37.866820,-583.0
2023-08-15 12:58:37.874509,127.0
2023-08-15 12:58:37.882199,398.0
2023-08-15 12:58:37.889888,118.0
2023-08-15 12:58:37.897577,-50.0
2023-08-15 12:58:37.905267,60.0
2023-08-15 12:58:37.912956,69.0
2023-08-15 12:58:37.920645,7.0
2023-08-15 12:58:37.928335,31.0
2023-08-15 12:58:37.936024,36.0
2023-08-15 12:58:37.943714,0.0
2023-08-15 12:58:37.951403,0.0
2023-08-15 12:58:37.959092,7.0
2023-08-15 12:58:37.966782,-12.0
2023-08-15 12:58:37.974471,-16.0
2023-08-15 12:58:37.982160,-9.0
2023-08-15 12:58:37.989850,-21.0
2023-08-15 12:58:37.997539,-36.0
2023-08-15 12:58:38.005228,-48.0
2023-08-15 12:58:38.012918,-60.0
2023-08-15 12:58:38.020607,-57.0
2023-08-15 12:58:38.028296,-62.0
2023-08-15 12:58:38.035986,-82.0
2023-08-15 12:58:38.043675,-74.0
2023-08-15 12:58:38.051365,-65.0
2023-08-15 12:58:38.059054,-65.0
2023-08-15 12:58:38.066743,-62.0
2023-08-15 12:58:38.074433,-60.0
2023-08-15 12:58:38.082122,-65.0
2023-08-15 12:58:38.089811,-50.0
2023-08-15 12:58:38.097501,-19.0
2023-08-15 12:58:38.105190,-7.0
2023-08-15 12:58:38.112879,-31.0
2023-08-15 12:58:38.120569,-50.0
2023-08-15 12:58:38.128258,-41.0
2023-08-15 12:58:38.135947,-26.0
2023-08-15 12:58:38.143637,-31.0
2023-08-15 12:58:38.151326,-24.0
2023-08-15 12:58:38.159016,-14.0
2023-08-15 12:58:38.166705,-26.0
2023-08-15 12:58:38.174394,-33.0
2023-08-15 12:58:38.182084,-24.0
2023-08-15 12:58:38.189773,-16.0
2023-08-15 12:58:38.197462,-24.0
2023-08-15 12:58:38.205152,-38.0
2023-08-15 12:58:38.212841,-45.0
2023-08-15 12:58:38.220530,-41.0
2023-08-15 12:58:38.228220,-31.0
2023-08-15 12:58:38.235909,-26.0
2023-08-15 12:58:38.243599,-28.0
2023-08-15 12:58:38.251288,-31.0
2023-08-15 12:58:38.258977,-38.0
2023-08-15 12:58:38.266667,-41.0
2023-08-15 12:58:38.274356,-28.0
2023-08-15 12:58:38.282045,-31.0
2023-08-15 12:58:38.289735,-45.0
2023-08-15 12:58:38.297424,-50.0
2023-08-15 12:58:38.305113,-55.0
2023-08-15 12:58:38.312803,-62.0
2023-08-15 12:58:38.320492,-74.0
2023-08-15 12:58:38.328181,-98.0
2023-08-15 12:58:38.335871,-115.0
2023-08-15 12:58:38.343560,-115.0
2023-08-15 12:58:38.351250,-82.0
2023-08-15 12:58:38.358939,-45.0
2023-08-15 12:58:38.366628,-41.0
2023-08-15 12:58:38.374318,-38.0
2023-08-15 12:58:38.382007,-4.0
2023-08-15 12:58:38.389696,12.0
2023-08-15 12:58:38.397386,2.0
2023-08-15 12:58:38.405075,-9.0
2023-08-15 12:58:38.412764,-9.0
2023-08-15 12:58:38.420454,-9.0
2023-08-15 12:58:38.428143,-19.0
2023-08-15 12:58:38.435832,-24.0
2023-08-15 12:58:38.443522,-24.0
2023-08-15 12:58:38.451211,-110.0
2023-08-15 12:58:38.458901,-390.0
2023-08-15 12:58:38.466590,-805.0
2023-08-15 12:58:38.474279,-989.0
2023-08-15 12:58:38.481969,-567.0
2023-08-15 12:58:38.489658,149.0
2023-08-15 12:58:38.497347,390.0
2023-08-15 12:58:38.505037,108.0
2023-08-15 12:58:38.512726,-33.0
2023-08-15 12:58:38.520415,77.0
2023-08-15 12:58:38.528105,82.0
2023-08-15 12:58:38.535794,4.0
2023-08-15 12:58:38.543483,9.0
2023-08-15 12:58:38.551173,26.0
2023-08-15 12:58:38.558862,12.0
2023-08-15 12:58:38.566552,14.0
2023-08-15 12:58:38.574241,4.0
2023-08-15 12:58:38.581930,-14.0
2023-08-15 12:58:38.589620,-2.0
2023-08-15 12:58:38.597309,-7.0
2023-08-15 12:58:38.604998,-43.0
2023-08-15 12:58:38.612688,-60.0
2023-08-15 12:58:38.620377,-53.0
2023-08-15 12:58:38.628066,-45.0
2023-08-15 12:58:38.635756,-38.0
2023-08-15 12:58:38.643445,-53.0
2023-08-15 12:58:38.651135,-86.0
2023-08-15 12:58:38.658824,-91.0
2023-08-15 12:58:38.666513,-67.0
2023-08-15 12:58:38.674203,-55.0
2023-08-15 12:58:38.681892,-55.0
2023-08-15 12:58:38.689581,-53.0
2023-08-15 12:58:38.697271,-43.0
2023-08-15 12:58:38.704960,-26.0
2023-08-15 12:58:38.712649,-19.0
2023-08-15 12:58:38.720339,-26.0
2023-08-15 12:58:38.728028,-36.0
2023-08-15 12:58:38.735717,-38.0
2023-08-15 12:58:38.743407,-41.0
2023-08-15 12:58:38.751096,-36.0
2023-08-15 12:58:38.758786,-24.0
2023-08-15 12:58:38.766475,-24.0
2023-08-15 12:58:38.774164,-31.0
2023-08-15 12:58:38.781854,-31.0
2023-08-15 12:58:38.789543,-36.0
2023-08-15 12:58:38.797232,-43.0
2023-08-15 12:58:38.804922,-33.0
2023-08-15 12:58:38.812611,-21.0
2023-08-15 12:58:38.820300,-24.0
2023-08-15 12:58:38.827990,-28.0
2023-08-15 12:58:38.835679,-28.0
2023-08-15 12:58:38.843368,-41.0
2023-08-15 12:58:38.851058,-57.0
2023-08-15 12:58:38.858747,-55.0
2023-08-15 12:58:38.866437,-31.0
2023-08-15 12:58:38.874126,-16.0
2023-08-15 12:58:38.881815,-21.0
2023-08-15 12:58:38.889505,-31.0
2023-08-15 12:58:38.897194,-28.0
2023-08-15 12:58:38.904883,-19.0
2023-08-15 12:58:38.912573,-28.0
2023-08-15 12:58:38.920262,-62.0
2023-08-15 12:58:38.927951,-86.0
2023-08-15 12:58:38.935641,-86.0
2023-08-15 12:58:38.943330,-94.0
2023-08-15 12:58:38.951019,-115.0
2023-08-15 12:58:38.958709,-123.0
2023-08-15 12:58:38.966398,-94.0
2023-08-15 12:58:38.974088,-50.0
2023-08-15 12:58:38.981777,-24.0
2023-08-15 12:58:38.989466,-28.0
2023-08-15 12:58:38.997156,-28.0
2023-08-15 12:58:39.004845,-9.0
2023-08-15 12:58:39.012534,-2.0
2023-08-15 12:58:39.020224,-9.0
2023-08-15 12:58:39.027913,-16.0
2023-08-15 12:58:39.035602,-12.0
2023-08-15 12:58:39.043292,-12.0
2023-08-15 12:58:39.050981,-14.0
2023-08-15 12:58:39.058671,-28.0
2023-08-15 12:58:39.066360,-123.0
2023-08-15 12:58:39.074049,-424.0
2023-08-15 12:58:39.081739,-892.0
2023-08-15 12:58:39.089428,-1117.0
2023-08-15 12:58:39.097117,-704.0
2023-08-15 12:58:39.104807,74.0
2023-08-15 12:58:39.112496,422.0
2023-08-15 12:58:39.120185,154.0
2023-08-15 12:58:39.127875,-16.0
2023-08-15 12:58:39.135564,103.0
2023-08-15 12:58:39.143253,108.0
2023-08-15 12:58:39.150943,28.0
2023-08-15 12:58:39.158632,50.0
2023-08-15 12:58:39.166322,45.0
2023-08-15 12:58:39.174011,12.0
2023-08-15 12:58:39.181700,31.0
2023-08-15 12:58:39.189390,45.0
2023-08-15 12:58:39.197079,12.0
2023-08-15 12:58:39.204768,-14.0
2023-08-15 12:58:39.212458,-12.0
2023-08-15 12:58:39.220147,-16.0
2023-08-15 12:58:39.227836,-31.0
2023-08-15 12:58:39.235526,-36.0
2023-08-15 12:58:39.243215,-36.0
2023-08-15 12:58:39.250904,-43.0
2023-08-15 12:58:39.258594,-55.0
2023-08-15 12:58:39.266283,-67.0
2023-08-15 12:58:39.273973,-84.0
2023-08-15 12:58:39.281662,-82.0
2023-08-15 12:58:39.289351,-53.0
2023-08-15 12:58:39.297041,-43.0
2023-08-15 12:58:39.304730,-43.0
2023-08-15 12:58:39.312419,-24.0
2023-08-15 12:58:39.320109,4.0
2023-08-15 12:58:39.327798,0.0
2023-08-15 12:58:39.335487,-26.0
2023-08-15 12:58:39.343177,-28.0
2023-08-15 12:58:39.350866,-14.0
2023-08-15 12:58:39.358555,-21.0
2023-08-15 12:58:39.366245,-33.0
2023-08-15 12:58:39.373934,-24.0
2023-08-15 12:58:39.381624,-28.0
2023-08-15 12:58:39.389313,-36.0
2023-08-15 12:58:39.397002,-12.0
2023-08-15 12:58:39.404692,-7.0
2023-08-15 12:58:39.412381,-28.0
2023-08-15 12:58:39.420070,-36.0
2023-08-15 12:58:39.427760,-41.0
2023-08-15 12:58:39.435449,-43.0
2023-08-15 12:58:39.443138,-31.0
2023-08-15 12:58:39.450828,-31.0
2023-08-15 12:58:39.458517,-33.0
2023-08-15 12:58:39.466207,-26.0
2023-08-15 12:58:39.473896,-33.0
2023-08-15 12:58:39.481585,-36.0
2023-08-15 12:58:39.489275,-19.0
2023-08-15 12:58:39.496964,-26.0
2023-08-15 12:58:39.504653,-33.0
2023-08-15 12:58:39.512343,-26.0
2023-08-15 12:58:39.520032,-45.0
2023-08-15 12:58:39.527721,-53.0
2023-08-15 12:58:39.535411,-48.0
2023-08-15 12:58:39.543100,-72.0
2023-08-15 12:58:39.550789,-86.0
2023-08-15 12:58:39.558479,-94.0
2023-08-15 12:58:39.566168,-127.0
2023-08-15 12:58:39.573858,-137.0
2023-08-15 12:58:39.581547,-96.0
2023-08-15 12:58:39.589236,-60.0
2023-08-15 12:58:39.596926,-53.0
2023-08-15 12:58:39.604615,-41.0
2023-08-15 12:58:39.612304,-31.0
2023-08-15 12:58:39.619994,-24.0
2023-08-15 12:58:39.627683,-7.0
2023-08-15 12:58:39.635372,-2.0
2023-08-15 12:58:39.643062,-28.0
2023-08-15 12:58:39.650751,-45.0
2023-08-15 12:58:39.658440,-31.0
2023-08-15 12:58:39.666130,-19.0
2023-08-15 12:58:39.673819,-21.0
2023-08-15 12:58:39.681509,-98.0
2023-08-15 12:58:39.689198,-415.0
2023-08-15 12:58:39.696887,-900.0
2023-08-15 12:58:39.704577,-1097.0
2023-08-15 12:58:39.712266,-680.0
2023-08-15 12:58:39.719955,55.0
2023-08-15 12:58:39.727645,374.0
2023-08-15 12:58:39.735334,113.0
2023-08-15 12:58:39.743023,-55.0
2023-08-15 12:58:39.750713,69.0
2023-08-15 12:58:39.758402,89.0
2023-08-15 12:58:39.766091,-2.0
2023-08-15 12:58:39.773781,12.0
2023-08-15 12:58:39.781470,57.0
2023-08-15 12:58:39.789160,28.0
2023-08-15 12:58:39.796849,-7.0
2023-08-15 12:58:39.804538,-12.0
2023-08-15 12:58:39.812228,-9.0
2023-08-15 12:58:39.819917,-14.0
2023-08-15 12:58:39.827606,-28.0
2023-08-15 12:58:39.835296,-31.0
2023-08-15 12:58:39.842985,-31.0
2023-08-15 12:58:39.850674,-50.0
2023-08-15 12:58:39.858364,-60.0
2023-08-15 12:58:39.866053,-62.0
2023-08-15 12:58:39.873743,-74.0
2023-08-15 12:58:39.881432,-77.0
2023-08-15 12:58:39.889121,-77.0
2023-08-15 12:58:39.896811,-84.0
2023-08-15 12:58:39.904500,-74.0
2023-08-15 12:58:39.912189,-60.0
2023-08-15 12:58:39.919879,-69.0
2023-08-15 12:58:39.927568,-62.0
2023-08-15 12:58:39.935257,-28.0
2023-08-15 12:58:39.942947,-12.0
2023-08-15 12:58:39.950636,-24.0
2023-08-15 12:58:39.958325,-36.0
2023-08-15 12:58:39.966015,-41.0
2023-08-15 12:58:39.973704,-38.0
2023-08-15 12:58:39.981394,-31.0
2023-08-15 12:58:39.989083,-31.0
2023-08-15 12:58:39.996772,-33.0
2023-08-15 12:58:40.004462,-19.0
2023-08-15 12:58:40.012151,-31.0
2023-08-15 12:58:40.019840,-60.0
2023-08-15 12:58:40.027530,-43.0
2023-08-15 12:58:40.035219,-19.0
2023-08-15 12:58:40.042908,-38.0
2023-08-15 12:58:40.050598,-55.0
2023-08-15 12:58:40.058287,-48.0
2023-08-15 12:58:40.065976,-43.0
2023-08-15 12:58:40.073666,-41.0
2023-08-15 12:58:40.081355,-36.0
2023-08-15 12:58:40.089045,-43.0
2023-08-15 12:58:40.096734,-48.0
2023-08-15 12:58:40.104423,-36.0
2023-08-15 12:58:40.112113,-16.0
2023-08-15 12:58:40.119802,-16.0
2023-08-15 12:58:40.127491,-38.0
2023-08-15 12:58:40.135181,-45.0
2023-08-15 12:58:40.142870,-41.0
2023-08-15 12:58:40.150559,-53.0
2023-08-15 12:58:40.158249,-69.0
2023-08-15 12:58:40.165938,-89.0
2023-08-15 12:58:40.173627,-115.0
2023-08-15 12:58:40.181317,-110.0
2023-08-15 12:58:40.189006,-74.0
2023-08-15 12:58:40.196696,-43.0
2023-08-15 12:58:40.204385,-21.0
2023-08-15 12:58:40.212074,0.0
2023-08-15 12:58:40.219764,9.0
2023-08-15 12:58:40.227453,12.0
2023-08-15 12:58:40.235142,24.0
2023-08-15 12:58:40.242832,14.0
2023-08-15 12:58:40.250521,-12.0
2023-08-15 12:58:40.258210,-4.0
2023-08-15 12:58:40.265900,12.0
2023-08-15 12:58:40.273589,0.0
2023-08-15 12:58:40.281279,-9.0
2023-08-15 12:58:40.288968,-82.0
2023-08-15 12:58:40.296657,-376.0
2023-08-15 12:58:40.304347,-851.0
2023-08-15 12:58:40.312036,-1088.0
2023-08-15 12:58:40.319725,-697.0
2023-08-15 12:58:40.327415,38.0
2023-08-15 12:58:40.335104,352.0
2023-08-15 12:58:40.342793,115.0
2023-08-15 12:58:40.350483,-19.0
2023-08-15 12:58:40.358172,94.0
2023-08-15 12:58:40.365861,84.0
2023-08-15 12:58:40.373551,12.0
2023-08-15 12:58:40.381240,33.0
2023-08-15 12:58:40.388930,50.0
2023-08-15 12:58:40.396619,21.0
2023-08-15 12:58:40.404308,16.0
2023-08-15 12:58:40.411998,12.0
2023-08-15 12:58:40.419687,-16.0
2023-08-15 12:58:40.427376,-24.0
2023-08-15 12:58:40.435066,-4.0
2023-08-15 12:58:40.442755,-14.0
2023-08-15 12:58:40.450444,-43.0
2023-08-15 12:58:40.458134,-55.0
2023-08-15 12:58:40.465823,-50.0
2023-08-15 12:58:40.473512,-60.0
2023-08-15 12:58:40.481202,-77.0
2023-08-15 12:58:40.488891,-82.0
2023-08-15 12:58:40.496581,-84.0
2023-08-15 12:58:40.504270,-96.0
2023-08-15 12:58:40.511959,-96.0
2023-08-15 12:58:40.519649,-77.0
2023-08-15 12:58:40.527338,-50.0
2023-08-15 12:58:40.535027,-41.0
2023-08-15 12:58:40.542717,-50.0
2023-08-15 12:58:40.550406,-48.0
2023-08-15 12:58:40.558095,-36.0
2023-08-15 12:58:40.565785,-38.0
2023-08-15 12:58:40.573474,-41.0
2023-08-15 12:58:40.581164,-38.0
2023-08-15 12:58:40.588853,-43.0
2023-08-15 12:58:40.596542,-33.0
2023-08-15 12:58:40.604232,-21.0
2023-08-15 12:58:40.611921,-36.0
2023-08-15 12:58:40.619610,-60.0
2023-08-15 12:58:40.627300,-48.0
2023-08-15 12:58:40.634989,-31.0
2023-08-15 12:58:40.642678,-38.0
2023-08-15 12:58:40.650368,-41.0
2023-08-15 12:58:40.658057,-41.0
2023-08-15 12:58:40.665746,-53.0
2023-08-15 12:58:40.673436,-57.0
2023-08-15 12:58:40.681125,-41.0
2023-08-15 12:58:40.688815,-38.0
2023-08-15 12:58:40.696504,-43.0
2023-08-15 12:58:40.704193,-38.0
2023-08-15 12:58:40.711883,-36.0
2023-08-15 12:58:40.719572,-38.0
2023-08-15 12:58:40.727261,-26.0
2023-08-15 12:58:40.734951,-31.0
2023-08-15 12:58:40.742640,-60.0
2023-08-15 12:58:40.750329,-69.0
2023-08-15 12:58:40.758019,-72.0
2023-08-15 12:58:40.765708,-106.0
2023-08-15 12:58:40.773397,-135.0
2023-08-15 12:58:40.781087,-106.0
2023-08-15 12:58:40.788776,-53.0
2023-08-15 12:58:40.796466,-33.0
2023-08-15 12:58:40.804155,-26.0
2023-08-15 12:58:40.811844,4.0
2023-08-15 12:58:40.819534,24.0
2023-08-15 12:58:40.827223,14.0
2023-08-15 12:58:40.834912,16.0
2023-08-15 12:58:40.842602,26.0
2023-08-15 12:58:40.850291,24.0
2023-08-15 12:58:40.857980,19.0
2023-08-15 12:58:40.865670,14.0
2023-08-15 12:58:40.873359,12.0
2023-08-15 12:58:40.881048,-12.0
2023-08-15 12:58:40.888738,-214.0
2023-08-15 12:58:40.896427,-673.0
2023-08-15 12:58:40.904117,-1061.0
2023-08-15 12:58:40.911806,-916.0
2023-08-15 12:58:40.919495,-229.0
2023-08-15 12:58:40.927185,332.0
2023-08-15 12:58:40.934874,241.0
2023-08-15 12:58:40.942563,-43.0
2023-08-15 12:58:40.950253,28.0
2023-08-15 12:58:40.957942,139.0
2023-08-15 12:58:40.965631,67.0
2023-08-15 12:58:40.973321,38.0
2023-08-15 12:58:40.981010,60.0
2023-08-15 12:58:40.988700,33.0
2023-08-15 12:58:40.996389,12.0
2023-08-15 12:58:41.004078,7.0
2023-08-15 12:58:41.011768,2.0
2023-08-15 12:58:41.019457,0.0
2023-08-15 12:58:41.027146,-12.0
2023-08-15 12:58:41.034836,-16.0
2023-08-15 12:58:41.042525,-24.0
2023-08-15 12:58:41.050214,-48.0
2023-08-15 12:58:41.057904,-60.0
2023-08-15 12:58:41.065593,-53.0
2023-08-15 12:58:41.073282,-50.0
2023-08-15 12:58:41.080972,-67.0
2023-08-15 12:58:41.088661,-94.0
2023-08-15 12:58:41.096351,-103.0
2023-08-15 12:58:41.104040,-79.0
2023-08-15 12:58:41.111729,-69.0
2023-08-15 12:58:41.119419,-77.0
2023-08-15 12:58:41.127108,-55.0
2023-08-15 12:58:41.134797,-28.0
2023-08-15 12:58:41.142487,-36.0
2023-08-15 12:58:41.150176,-38.0
2023-08-15 12:58:41.157865,-21.0
2023-08-15 12:58:41.165555,-21.0
2023-08-15 12:58:41.173244,-31.0
2023-08-15 12:58:41.180933,-28.0
2023-08-15 12:58:41.188623,-28.0
2023-08-15 12:58:41.196312,-41.0
2023-08-15 12:58:41.204002,-45.0
2023-08-15 12:58:41.211691,-36.0
2023-08-15 12:58:41.219380,-45.0
2023-08-15 12:58:41.227070,-57.0
2023-08-15 12:58:41.234759,-53.0
2023-08-15 12:58:41.242448,-33.0
2023-08-15 12:58:41.250138,-21.0
2023-08-15 12:58:41.257827,-24.0
2023-08-15 12:58:41.265516,-31.0
2023-08-15 12:58:41.273206,-28.0
2023-08-15 12:58:41.280895,-33.0
2023-08-15 12:58:41.288584,-38.0
2023-08-15 12:58:41.296274,-33.0
2023-08-15 12:58:41.303963,-33.0
2023-08-15 12:58:41.311653,-31.0
2023-08-15 12:58:41.319342,-21.0
2023-08-15 12:58:41.327031,-38.0
2023-08-15 12:58:41.334721,-57.0
2023-08-15 12:58:41.342410,-53.0
2023-08-15 12:58:41.350099,-62.0
2023-08-15 12:58:41.357789,-103.0
2023-08-15 12:58:41.365478,-110.0
2023-08-15 12:58:41.373167,-74.0
2023-08-15 12:58:41.380857,-38.0
2023-08-15 12:58:41.388546,-14.0
2023-08-15 12:58:41.396236,9.0
2023-08-15 12:58:41.403925,26.0
2023-08-15 12:58:41.411614,24.0
2023-08-15 12:58:41.419304,24.0
2023-08-15 12:58:41.426993,31.0
2023-08-15 12:58:41.434682,31.0
2023-08-15 12:58:41.442372,19.0
2023-08-15 12:58:41.450061,7.0
2023-08-15 12:58:41.457750,12.0
2023-08-15 12:58:41.465440,24.0
2023-08-15 12:58:41.473129,-50.0
2023-08-15 12:58:41.480818,-332.0
2023-08-15 12:58:41.488508,-789.0
2023-08-15 12:58:41.496197,-1011.0
2023-08-15 12:58:41.503887,-610.0
2023-08-15 12:58:41.511576,113.0
2023-08-15 12:58:41.519265,378.0
2023-08-15 12:58:41.526955,98.0
2023-08-15 12:58:41.534644,-45.0
2023-08-15 12:58:41.542333,86.0
2023-08-15 12:58:41.550023,106.0
2023-08-15 12:58:41.557712,28.0
2023-08-15 12:58:41.565401,45.0
2023-08-15 12:58:41.573091,60.0
2023-08-15 12:58:41.580780,24.0
2023-08-15 12:58:41.588469,12.0
2023-08-15 12:58:41.596159,19.0
2023-08-15 12:58:41.603848,9.0
2023-08-15 12:58:41.611538,-4.0
2023-08-15 12:58:41.619227,-26.0
2023-08-15 12:58:41.626916,-38.0
2023-08-15 12:58:41.634606,-33.0
2023-08-15 12:58:41.642295,-41.0
2023-08-15 12:58:41.649984,-57.0
2023-08-15 12:58:41.657674,-67.0
2023-08-15 12:58:41.665363,-72.0
2023-08-15 12:58:41.673052,-69.0
2023-08-15 12:58:41.680742,-67.0
2023-08-15 12:58:41.688431,-82.0
2023-08-15 12:58:41.696120,-98.0
2023-08-15 12:58:41.703810,-79.0
2023-08-15 12:58:41.711499,-50.0
2023-08-15 12:58:41.719189,-41.0
2023-08-15 12:58:41.726878,-38.0
2023-08-15 12:58:41.734567,-33.0
2023-08-15 12:58:41.742257,-31.0
2023-08-15 12:58:41.749946,-26.0
2023-08-15 12:58:41.757635,-31.0
2023-08-15 12:58:41.765325,-48.0
2023-08-15 12:58:41.773014,-48.0
2023-08-15 12:58:41.780703,-41.0
2023-08-15 12:58:41.788393,-53.0
2023-08-15 12:58:41.796082,-55.0
2023-08-15 12:58:41.803772,-43.0
2023-08-15 12:58:41.811461,-50.0
2023-08-15 12:58:41.819150,-48.0
2023-08-15 12:58:41.826840,-28.0
2023-08-15 12:58:41.834529,-38.0
2023-08-15 12:58:41.842218,-60.0
2023-08-15 12:58:41.849908,-43.0
2023-08-15 12:58:41.857597,-33.0
2023-08-15 12:58:41.865286,-38.0
2023-08-15 12:58:41.872976,-33.0
2023-08-15 12:58:41.880665,-24.0
2023-08-15 12:58:41.888354,-24.0
2023-08-15 12:58:41.896044,-24.0
2023-08-15 12:58:41.903733,-16.0
2023-08-15 12:58:41.911423,-14.0
2023-08-15 12:58:41.919112,-36.0
2023-08-15 12:58:41.926801,-67.0
2023-08-15 12:58:41.934491,-77.0
2023-08-15 12:58:41.942180,-84.0
2023-08-15 12:58:41.949869,-98.0
2023-08-15 12:58:41.957559,-113.0
2023-08-15 12:58:41.965248,-94.0
2023-08-15 12:58:41.972937,-45.0
2023-08-15 12:58:41.980627,-14.0
2023-08-15 12:58:41.988316,-12.0
2023-08-15 12:58:41.996005,2.0
2023-08-15 12:58:42.003695,24.0
2023-08-15 12:58:42.011384,16.0
2023-08-15 12:58:42.019074,14.0
2023-08-15 12:58:42.026763,33.0
2023-08-15 12:58:42.034452,33.0
2023-08-15 12:58:42.042142,12.0
2023-08-15 12:58:42.049831,7.0
2023-08-15 12:58:42.057520,16.0
2023-08-15 12:58:42.065210,-12.0
2023-08-15 12:58:42.072899,-168.0
2023-08-15 12:58:42.080588,-530.0
2023-08-15 12:58:42.088278,-892.0
2023-08-15 12:58:42.095967,-793.0
2023-08-15 12:58:42.103656,-171.0
2023-08-15 12:58:42.111346,330.0
2023-08-15 12:58:42.119035,243.0
2023-08-15 12:58:42.126725,-7.0
2023-08-15 12:58:42.134414,26.0
2023-08-15 12:58:42.142103,98.0
2023-08-15 12:58:42.149793,31.0
2023-08-15 12:58:42.157482,7.0
2023-08-15 12:58:42.165171,45.0
2023-08-15 12:58:42.172861,33.0
2023-08-15 12:58:42.180550,-9.0
2023-08-15 12:58:42.188239,-24.0
2023-08-15 12:58:42.195929,-16.0
2023-08-15 12:58:42.203618,-14.0
2023-08-15 12:58:42.211308,-26.0
2023-08-15 12:58:42.218997,-45.0
2023-08-15 12:58:42.226686,-53.0
2023-08-15 12:58:42.234376,-60.0
2023-08-15 12:58:42.242065,-67.0
2023-08-15 12:58:42.249754,-67.0
2023-08-15 12:58:42.257444,-77.0
2023-08-15 12:58:42.265133,-96.0
2023-08-15 12:58:42.272822,-98.0
2023-08-15 12:58:42.280512,-89.0
2023-08-15 12:58:42.288201,-84.0
2023-08-15 12:58:42.295890,-69.0
2023-08-15 12:58:42.303580,-41.0
2023-08-15 12:58:42.311269,-28.0
2023-08-15 12:58:42.318959,-31.0
2023-08-15 12:58:42.326648,-36.0
2023-08-15 12:58:42.334337,-31.0
2023-08-15 12:58:42.342027,-26.0
2023-08-15 12:58:42.349716,-38.0
2023-08-15 12:58:42.357405,-55.0
2023-08-15 12:58:42.365095,-57.0
2023-08-15 12:58:42.372784,-48.0
2023-08-15 12:58:42.380473,-38.0
2023-08-15 12:58:42.388163,-26.0
2023-08-15 12:58:42.395852,-33.0
2023-08-15 12:58:42.403541,-57.0
2023-08-15 12:58:42.411231,-57.0
2023-08-15 12:58:42.418920,-33.0
2023-08-15 12:58:42.426610,-31.0
2023-08-15 12:58:42.434299,-48.0
2023-08-15 12:58:42.441988,-43.0
2023-08-15 12:58:42.449678,-36.0
2023-08-15 12:58:42.457367,-38.0
2023-08-15 12:58:42.465056,-38.0
2023-08-15 12:58:42.472746,-31.0
2023-08-15 12:58:42.480435,-16.0
2023-08-15 12:58:42.488124,-26.0
2023-08-15 12:58:42.495814,-36.0
2023-08-15 12:58:42.503503,-21.0
2023-08-15 12:58:42.511193,-7.0
2023-08-15 12:58:42.518882,-12.0
2023-08-15 12:58:42.526571,-36.0
2023-08-15 12:58:42.534261,-43.0
2023-08-15 12:58:42.541950,-31.0
2023-08-15 12:58:42.549639,-45.0
2023-08-15 12:58:42.557329,-62.0
2023-08-15 12:58:42.565018,-74.0
2023-08-15 12:58:42.572707,-106.0
2023-08-15 12:58:42.580397,-120.0
2023-08-15 12:58:42.588086,-77.0
2023-08-15 12:58:42.595775,-24.0
2023-08-15 12:58:42.603465,-2.0
2023-08-15 12:58:42.611154,7.0
2023-08-15 12:58:42.618844,28.0
2023-08-15 12:58:42.626533,33.0
2023-08-15 12:58:42.634222,19.0
2023-08-15 12:58:42.641912,7.0
2023-08-15 12:58:42.649601,-2.0
2023-08-15 12:58:42.657290,-2.0
2023-08-15 12:58:42.664980,-2.0
2023-08-15 12:58:42.672669,-9.0
2023-08-15 12:58:42.680358,-2.0
2023-08-15 12:58:42.688048,-45.0
2023-08-15 12:58:42.695737,-263.0
2023-08-15 12:58:42.703426,-641.0
2023-08-15 12:58:42.711116,-914.0
2023-08-15 12:58:42.718805,-680.0
2023-08-15 12:58:42.726495,-7.0
2023-08-15 12:58:42.734184,378.0
2023-08-15 12:58:42.741873,164.0
2023-08-15 12:58:42.749563,-53.0
2023-08-15 12:58:42.757252,41.0
2023-08-15 12:58:42.764941,79.0
2023-08-15 12:58:42.772631,7.0
2023-08-15 12:58:42.780320,19.0
2023-08-15 12:58:42.788009,41.0
2023-08-15 12:58:42.795699,-2.0
2023-08-15 12:58:42.803388,-19.0
2023-08-15 12:58:42.811077,-12.0
2023-08-15 12:58:42.818767,-28.0
2023-08-15 12:58:42.826456,-38.0
2023-08-15 12:58:42.834146,-31.0
2023-08-15 12:58:42.841835,-43.0
2023-08-15 12:58:42.849524,-62.0
2023-08-15 12:58:42.857214,-57.0
2023-08-15 12:58:42.864903,-48.0
2023-08-15 12:58:42.872592,-60.0
2023-08-15 12:58:42.880282,-69.0
2023-08-15 12:58:42.887971,-69.0
2023-08-15 12:58:42.895660,-84.0
2023-08-15 12:58:42.903350,-96.0
2023-08-15 12:58:42.911039,-82.0
2023-08-15 12:58:42.918729,-60.0
2023-08-15 12:58:42.926418,-57.0
2023-08-15 12:58:42.934107,-48.0
2023-08-15 12:58:42.941797,-31.0
2023-08-15 12:58:42.949486,-28.0
2023-08-15 12:58:42.957175,-26.0
2023-08-15 12:58:42.964865,-33.0
2023-08-15 12:58:42.972554,-53.0
2023-08-15 12:58:42.980243,-60.0
2023-08-15 12:58:42.987933,-50.0
2023-08-15 12:58:42.995622,-45.0
2023-08-15 12:58:43.003311,-53.0
2023-08-15 12:58:43.011001,-57.0
2023-08-15 12:58:43.018690,-43.0
2023-08-15 12:58:43.026380,-33.0
2023-08-15 12:58:43.034069,-45.0
2023-08-15 12:58:43.041758,-55.0
2023-08-15 12:58:43.049448,-45.0
2023-08-15 12:58:43.057137,-41.0
2023-08-15 12:58:43.064826,-43.0
2023-08-15 12:58:43.072516,-41.0
2023-08-15 12:58:43.080205,-31.0
2023-08-15 12:58:43.087894,-28.0
2023-08-15 12:58:43.095584,-28.0
2023-08-15 12:58:43.103273,-33.0
2023-08-15 12:58:43.110962,-36.0
2023-08-15 12:58:43.118652,-26.0
2023-08-15 12:58:43.126341,-21.0
2023-08-15 12:58:43.134031,-19.0
2023-08-15 12:58:43.141720,-14.0
2023-08-15 12:58:43.149409,-19.0
2023-08-15 12:58:43.157099,-36.0
2023-08-15 12:58:43.164788,-45.0
2023-08-15 12:58:43.172477,-53.0
2023-08-15 12:58:43.180167,-67.0
2023-08-15 12:58:43.187856,-74.0
2023-08-15 12:58:43.195545,-98.0
2023-08-15 12:58:43.203235,-127.0
2023-08-15 12:58:43.210924,-113.0
2023-08-15 12:58:43.218613,-60.0
2023-08-15 12:58:43.226303,-31.0
2023-08-15 12:58:43.233992,-21.0
2023-08-15 12:58:43.241682,-7.0
2023-08-15 12:58:43.249371,9.0
2023-08-15 12:58:43.257060,14.0
2023-08-15 12:58:43.264750,9.0
2023-08-15 12:58:43.272439,4.0
2023-08-15 12:58:43.280128,9.0
2023-08-15 12:58:43.287818,9.0
2023-08-15 12:58:43.295507,-7.0
2023-08-15 12:58:43.303196,-16.0
2023-08-15 12:58:43.310886,-55.0
2023-08-15 12:58:43.318575,-253.0
2023-08-15 12:58:43.326265,-653.0
2023-08-15 12:58:43.333954,-991.0
2023-08-15 12:58:43.341643,-820.0
2023-08-15 12:58:43.349333,-147.0
2023-08-15 12:58:43.357022,337.0
2023-08-15 12:58:43.364711,217.0
2023-08-15 12:58:43.372401,-19.0
2023-08-15 12:58:43.380090,38.0
2023-08-15 12:58:43.387779,103.0
2023-08-15 12:58:43.395469,36.0
2023-08-15 12:58:43.403158,16.0
2023-08-15 12:58:43.410847,36.0
2023-08-15 12:58:43.418537,21.0
2023-08-15 12:58:43.426226,4.0
2023-08-15 12:58:43.433916,-7.0
2023-08-15 12:58:43.441605,-21.0
2023-08-15 12:58:43.449294,-24.0
2023-08-15 12:58:43.456984,-33.0
2023-08-15 12:58:43.464673,-48.0
2023-08-15 12:58:43.472362,-48.0
2023-08-15 12:58:43.480052,-41.0
2023-08-15 12:58:43.487741,-45.0
2023-08-15 12:58:43.495430,-65.0
2023-08-15 12:58:43.503120,-74.0
2023-08-15 12:58:43.510809,-69.0
2023-08-15 12:58:43.518498,-67.0
2023-08-15 12:58:43.526188,-69.0
2023-08-15 12:58:43.533877,-62.0
2023-08-15 12:58:43.541567,-53.0
2023-08-15 12:58:43.549256,-45.0
2023-08-15 12:58:43.556945,-26.0
2023-08-15 12:58:43.564635,-9.0
2023-08-15 12:58:43.572324,-14.0
2023-08-15 12:58:43.580013,-28.0
2023-08-15 12:58:43.587703,-28.0
2023-08-15 12:58:43.595392,-38.0
2023-08-15 12:58:43.603081,-53.0
2023-08-15 12:58:43.610771,-53.0
2023-08-15 12:58:43.618460,-45.0
2023-08-15 12:58:43.626149,-48.0
2023-08-15 12:58:43.633839,-60.0
2023-08-15 12:58:43.641528,-55.0
2023-08-15 12:58:43.649218,-41.0
2023-08-15 12:58:43.656907,-33.0
2023-08-15 12:58:43.664596,-45.0
2023-08-15 12:58:43.672286,-67.0
2023-08-15 12:58:43.679975,-67.0
2023-08-15 12:58:43.687664,-48.0
2023-08-15 12:58:43.695354,-50.0
2023-08-15 12:58:43.703043,-48.0
2023-08-15 12:58:43.710732,-31.0
2023-08-15 12:58:43.718422,-31.0
2023-08-15 12:58:43.726111,-31.0
2023-08-15 12:58:43.733801,-21.0
2023-08-15 12:58:43.741490,-19.0
2023-08-15 12:58:43.749179,-28.0
2023-08-15 12:58:43.756869,-33.0
2023-08-15 12:58:43.764558,-31.0
2023-08-15 12:58:43.772247,-26.0
2023-08-15 12:58:43.779937,-31.0
2023-08-15 12:58:43.787626,-43.0
2023-08-15 12:58:43.795315,-53.0
2023-08-15 12:58:43.803005,-67.0
2023-08-15 12:58:43.810694,-91.0
2023-08-15 12:58:43.818383,-94.0
2023-08-15 12:58:43.826073,-72.0
2023-08-15 12:58:43.833762,-50.0
2023-08-15 12:58:43.841452,-24.0
2023-08-15 12:58:43.849141,0.0
2023-08-15 12:58:43.856830,4.0
2023-08-15 12:58:43.864520,4.0
2023-08-15 12:58:43.872209,7.0
2023-08-15 12:58:43.879898,-2.0
2023-08-15 12:58:43.887588,0.0
2023-08-15 12:58:43.895277,7.0
2023-08-15 12:58:43.902966,0.0
2023-08-15 12:58:43.910656,4.0
2023-08-15 12:58:43.918345,2.0
2023-08-15 12:58:43.926034,-130.0
2023-08-15 12:58:43.933724,-489.0
2023-08-15 12:58:43.941413,-965.0
2023-08-15 12:58:43.949103,-1134.0
2023-08-15 12:58:43.956792,-624.0
2023-08-15 12:58:43.964481,180.0
2023-08-15 12:58:43.972171,431.0
2023-08-15 12:58:43.979860,125.0
2023-08-15 12:58:43.987549,-14.0
2023-08-15 12:58:43.995239,98.0
2023-08-15 12:58:44.002928,106.0
2023-08-15 12:58:44.010617,55.0
2023-08-15 12:58:44.018307,43.0
2023-08-15 12:58:44.025996,16.0
2023-08-15 12:58:44.033685,14.0
2023-08-15 12:58:44.041375,48.0
2023-08-15 12:58:44.049064,33.0
2023-08-15 12:58:44.056754,-24.0
2023-08-15 12:58:44.064443,-43.0
2023-08-15 12:58:44.072132,-24.0
2023-08-15 12:58:44.079822,-9.0
2023-08-15 12:58:44.087511,-14.0
2023-08-15 12:58:44.095200,-38.0
2023-08-15 12:58:44.102890,-48.0
2023-08-15 12:58:44.110579,-48.0
2023-08-15 12:58:44.118268,-69.0
2023-08-15 12:58:44.125958,-69.0
2023-08-15 12:58:44.133647,-57.0
2023-08-15 12:58:44.141337,-65.0
2023-08-15 12:58:44.149026,-57.0
2023-08-15 12:58:44.156715,-28.0
2023-08-15 12:58:44.164405,-16.0
2023-08-15 12:58:44.172094,-2.0
2023-08-15 12:58:44.179783,7.0
2023-08-15 12:58:44.187473,-2.0
2023-08-15 12:58:44.195162,-4.0
2023-08-15 12:58:44.202851,-16.0
2023-08-15 12:58:44.210541,-50.0
2023-08-15 12:58:44.218230,-60.0
2023-08-15 12:58:44.225919,-36.0
2023-08-15 12:58:44.233609,-31.0
2023-08-15 12:58:44.241298,-50.0
2023-08-15 12:58:44.248988,-60.0
2023-08-15 12:58:44.256677,-38.0
2023-08-15 12:58:44.264366,-38.0
2023-08-15 12:58:44.272056,-65.0
2023-08-15 12:58:44.279745,-57.0
2023-08-15 12:58:44.287434,-33.0
2023-08-15 12:58:44.295124,-28.0
2023-08-15 12:58:44.302813,-31.0
2023-08-15 12:58:44.310502,-36.0
2023-08-15 12:58:44.318192,-57.0
2023-08-15 12:58:44.325881,-67.0
2023-08-15 12:58:44.333570,-48.0
2023-08-15 12:58:44.341260,-31.0
2023-08-15 12:58:44.348949,-28.0
2023-08-15 12:58:44.356639,-19.0
2023-08-15 12:58:44.364328,7.0
2023-08-15 12:58:44.372017,-7.0
2023-08-15 12:58:44.379707,-50.0
2023-08-15 12:58:44.387396,-31.0
2023-08-15 12:58:44.395085,-7.0
2023-08-15 12:58:44.402775,-50.0
2023-08-15 12:58:44.410464,-79.0
2023-08-15 12:58:44.418153,-62.0
2023-08-15 12:58:44.425843,-89.0
2023-08-15 12:58:44.433532,-139.0
2023-08-15 12:58:44.441221,-118.0
2023-08-15 12:58:44.448911,-48.0
2023-08-15 12:58:44.456600,-24.0
2023-08-15 12:58:44.464290,-21.0
2023-08-15 12:58:44.471979,2.0
2023-08-15 12:58:44.479668,2.0
2023-08-15 12:58:44.487358,-14.0
2023-08-15 12:58:44.495047,-2.0
2023-08-15 12:58:44.502736,14.0
2023-08-15 12:58:44.510426,2.0
2023-08-15 12:58:44.518115,-12.0
2023-08-15 12:58:44.525804,-4.0
2023-08-15 12:58:44.533494,4.0
2023-08-15 12:58:44.541183,-31.0
2023-08-15 12:58:44.548873,-243.0
2023-08-15 12:58:44.556562,-690.0
2023-08-15 12:58:44.564251,-1102.0
2023-08-15 12:58:44.571941,-984.0
2023-08-15 12:58:44.579630,-243.0
2023-08-15 12:58:44.587319,398.0
2023-08-15 12:58:44.595009,335.0
2023-08-15 12:58:44.602698,28.0
2023-08-15 12:58:44.610387,41.0
2023-08-15 12:58:44.618077,118.0
2023-08-15 12:58:44.625766,53.0
2023-08-15 12:58:44.633455,45.0
2023-08-15 12:58:44.641145,72.0
2023-08-15 12:58:44.648834,9.0
2023-08-15 12:58:44.656524,-28.0
2023-08-15 12:58:44.664213,14.0
2023-08-15 12:58:44.671902,16.0
2023-08-15 12:58:44.679592,-21.0
2023-08-15 12:58:44.687281,-36.0
2023-08-15 12:58:44.694970,-36.0
2023-08-15 12:58:44.702660,-43.0
2023-08-15 12:58:44.710349,-48.0
2023-08-15 12:58:44.718038,-57.0
2023-08-15 12:58:44.725728,-62.0
2023-08-15 12:58:44.733417,-77.0
2023-08-15 12:58:44.741106,-96.0
2023-08-15 12:58:44.748796,-82.0
2023-08-15 12:58:44.756485,-65.0
2023-08-15 12:58:44.764175,-82.0
2023-08-15 12:58:44.771864,-79.0
2023-08-15 12:58:44.779553,-55.0
2023-08-15 12:58:44.787243,-36.0
2023-08-15 12:58:44.794932,-19.0
2023-08-15 12:58:44.802621,-21.0
2023-08-15 12:58:44.810311,-38.0
2023-08-15 12:58:44.818000,-43.0
2023-08-15 12:58:44.825689,-38.0
2023-08-15 12:58:44.833379,-38.0
2023-08-15 12:58:44.841068,-48.0
2023-08-15 12:58:44.848758,-48.0
2023-08-15 12:58:44.856447,-41.0
2023-08-15 12:58:44.864136,-43.0
2023-08-15 12:58:44.871826,-55.0
2023-08-15 12:58:44.879515,-45.0
2023-08-15 12:58:44.887204,-33.0
2023-08-15 12:58:44.894894,-50.0
2023-08-15 12:58:44.902583,-62.0
2023-08-15 12:58:44.910272,-50.0
2023-08-15 12:58:44.917962,-48.0
2023-08-15 12:58:44.925651,-53.0
2023-08-15 12:58:44.933340,-33.0
2023-08-15 12:58:44.941030,-14.0
2023-08-15 12:58:44.948719,-24.0
2023-08-15 12:58:44.956409,-57.0
2023-08-15 12:58:44.964098,-69.0
2023-08-15 12:58:44.971787,-41.0
2023-08-15 12:58:44.979477,-16.0
2023-08-15 12:58:44.987166,-31.0
2023-08-15 12:58:44.994855,-38.0
2023-08-15 12:58:45.002545,-28.0
2023-08-15 12:58:45.010234,-43.0
2023-08-15 12:58:45.017923,-60.0
2023-08-15 12:58:45.025613,-57.0
2023-08-15 12:58:45.033302,-67.0
2023-08-15 12:58:45.040991,-69.0
2023-08-15 12:58:45.048681,-72.0
2023-08-15 12:58:45.056370,-110.0
2023-08-15 12:58:45.064060,-130.0
2023-08-15 12:58:45.071749,-94.0
2023-08-15 12:58:45.079438,-57.0
2023-08-15 12:58:45.087128,-43.0
2023-08-15 12:58:45.094817,-21.0
2023-08-15 12:58:45.102506,4.0
2023-08-15 12:58:45.110196,14.0
2023-08-15 12:58:45.117885,2.0
2023-08-15 12:58:45.125574,-12.0
2023-08-15 12:58:45.133264,-12.0
2023-08-15 12:58:45.140953,-2.0
2023-08-15 12:58:45.148642,0.0
2023-08-15 12:58:45.156332,12.0
2023-08-15 12:58:45.164021,21.0
2023-08-15 12:58:45.171711,-98.0
2023-08-15 12:58:45.179400,-439.0
2023-08-15 12:58:45.187089,-904.0
2023-08-15 12:58:45.194779,-1163.0
2023-08-15 12:58:45.202468,-791.0
2023-08-15 12:58:45.210157,24.0
2023-08-15 12:58:45.217847,424.0
2023-08-15 12:58:45.225536,173.0
2023-08-15 12:58:45.233225,-24.0
2023-08-15 12:58:45.240915,67.0
2023-08-15 12:58:45.248604,89.0
2023-08-15 12:58:45.256294,33.0
2023-08-15 12:58:45.263983,41.0
2023-08-15 12:58:45.271672,45.0
2023-08-15 12:58:45.279362,24.0
2023-08-15 12:58:45.287051,19.0
2023-08-15 12:58:45.294740,19.0
2023-08-15 12:58:45.302430,12.0
2023-08-15 12:58:45.310119,-4.0
2023-08-15 12:58:45.317808,-19.0
2023-08-15 12:58:45.325498,-31.0
2023-08-15 12:58:45.333187,-31.0
2023-08-15 12:58:45.340876,-31.0
2023-08-15 12:58:45.348566,-43.0
2023-08-15 12:58:45.356255,-55.0
2023-08-15 12:58:45.363945,-77.0
2023-08-15 12:58:45.371634,-86.0
2023-08-15 12:58:45.379323,-69.0
2023-08-15 12:58:45.387013,-77.0
2023-08-15 12:58:45.394702,-82.0
2023-08-15 12:58:45.402391,-50.0
2023-08-15 12:58:45.410081,-36.0
2023-08-15 12:58:45.417770,-45.0
2023-08-15 12:58:45.425459,-41.0
2023-08-15 12:58:45.433149,-21.0
2023-08-15 12:58:45.440838,-14.0
2023-08-15 12:58:45.448527,-31.0
2023-08-15 12:58:45.456217,-48.0
2023-08-15 12:58:45.463906,-41.0
2023-08-15 12:58:45.471596,-36.0
2023-08-15 12:58:45.479285,-36.0
2023-08-15 12:58:45.486974,-31.0
2023-08-15 12:58:45.494664,-41.0
2023-08-15 12:58:45.502353,-48.0
2023-08-15 12:58:45.510042,-28.0
2023-08-15 12:58:45.517732,-21.0
2023-08-15 12:58:45.525421,-41.0
2023-08-15 12:58:45.533110,-48.0
2023-08-15 12:58:45.540800,-43.0
2023-08-15 12:58:45.548489,-38.0
2023-08-15 12:58:45.556178,-31.0
2023-08-15 12:58:45.563868,-28.0
2023-08-15 12:58:45.571557,-33.0
2023-08-15 12:58:45.579247,-36.0
2023-08-15 12:58:45.586936,-45.0
2023-08-15 12:58:45.594625,-48.0
2023-08-15 12:58:45.602315,-33.0
2023-08-15 12:58:45.610004,-26.0
2023-08-15 12:58:45.617693,-38.0
2023-08-15 12:58:45.625383,-41.0
2023-08-15 12:58:45.633072,-36.0
2023-08-15 12:58:45.640761,-41.0
2023-08-15 12:58:45.648451,-33.0
2023-08-15 12:58:45.656140,-24.0
2023-08-15 12:58:45.663830,-28.0
2023-08-15 12:58:45.671519,-43.0
2023-08-15 12:58:45.679208,-60.0
2023-08-15 12:58:45.686898,-79.0
2023-08-15 12:58:45.694587,-101.0
2023-08-15 12:58:45.702276,-118.0
2023-08-15 12:58:45.709966,-127.0
2023-08-15 12:58:45.717655,-103.0
2023-08-15 12:58:45.725344,-60.0
2023-08-15 12:58:45.733034,-45.0
2023-08-15 12:58:45.740723,-43.0
2023-08-15 12:58:45.748412,-26.0
2023-08-15 12:58:45.756102,-9.0
2023-08-15 12:58:45.763791,2.0
2023-08-15 12:58:45.771481,16.0
2023-08-15 12:58:45.779170,26.0
2023-08-15 12:58:45.786859,0.0
2023-08-15 12:58:45.794549,-43.0
2023-08-15 12:58:45.802238,-45.0
2023-08-15 12:58:45.809927,-16.0
2023-08-15 12:58:45.817617,-82.0
2023-08-15 12:58:45.825306,-345.0
2023-08-15 12:58:45.832995,-789.0
2023-08-15 12:58:45.840685,-1167.0
2023-08-15 12:58:45.848374,-1003.0
2023-08-15 12:58:45.856063,-236.0
2023-08-15 12:58:45.863753,376.0
2023-08-15 12:58:45.871442,284.0
2023-08-15 12:58:45.879132,-2.0
2023-08-15 12:58:45.886821,45.0
2023-08-15 12:58:45.894510,130.0
2023-08-15 12:58:45.902200,55.0
2023-08-15 12:58:45.909889,43.0
2023-08-15 12:58:45.917578,74.0
2023-08-15 12:58:45.925268,41.0
2023-08-15 12:58:45.932957,14.0
2023-08-15 12:58:45.940646,26.0
2023-08-15 12:58:45.948336,26.0
2023-08-15 12:58:45.956025,4.0
2023-08-15 12:58:45.963714,-4.0
2023-08-15 12:58:45.971404,-2.0
2023-08-15 12:58:45.979093,-4.0
2023-08-15 12:58:45.986783,-21.0
2023-08-15 12:58:45.994472,-45.0
2023-08-15 12:58:46.002161,-50.0
2023-08-15 12:58:46.009851,-50.0
2023-08-15 12:58:46.017540,-79.0
2023-08-15 12:58:46.025229,-91.0
2023-08-15 12:58:46.032919,-55.0
2023-08-15 12:58:46.040608,-31.0
2023-08-15 12:58:46.048297,-55.0
2023-08-15 12:58:46.055987,-74.0
2023-08-15 12:58:46.063676,-55.0
2023-08-15 12:58:46.071366,-28.0
2023-08-15 12:58:46.079055,-12.0
2023-08-15 12:58:46.086744,-9.0
2023-08-15 12:58:46.094434,-26.0
2023-08-15 12:58:46.102123,-38.0
2023-08-15 12:58:46.109812,-26.0
2023-08-15 12:58:46.117502,-19.0
2023-08-15 12:58:46.125191,-38.0
2023-08-15 12:58:46.132880,-41.0
2023-08-15 12:58:46.140570,-31.0
2023-08-15 12:58:46.148259,-33.0
2023-08-15 12:58:46.155948,-33.0
2023-08-15 12:58:46.163638,-36.0
2023-08-15 12:58:46.171327,-28.0
2023-08-15 12:58:46.179017,-28.0
2023-08-15 12:58:46.186706,-57.0
2023-08-15 12:58:46.194395,-53.0
2023-08-15 12:58:46.202085,-28.0
2023-08-15 12:58:46.209774,-33.0
2023-08-15 12:58:46.217463,-43.0
2023-08-15 12:58:46.225153,-50.0
2023-08-15 12:58:46.232842,-65.0
2023-08-15 12:58:46.240531,-53.0
2023-08-15 12:58:46.248221,-19.0
2023-08-15 12:58:46.255910,-24.0
2023-08-15 12:58:46.263599,-62.0
2023-08-15 12:58:46.271289,-50.0
2023-08-15 12:58:46.278978,-12.0
2023-08-15 12:58:46.286668,-16.0
2023-08-15 12:58:46.294357,-26.0
2023-08-15 12:58:46.302046,-16.0
2023-08-15 12:58:46.309736,-24.0
2023-08-15 12:58:46.317425,-36.0
2023-08-15 12:58:46.325114,-14.0
2023-08-15 12:58:46.332804,-2.0
2023-08-15 12:58:46.340493,-38.0
2023-08-15 12:58:46.348182,-74.0
2023-08-15 12:58:46.355872,-86.0
2023-08-15 12:58:46.363561,-113.0
2023-08-15 12:58:46.371250,-125.0
2023-08-15 12:58:46.378940,-84.0
2023-08-15 12:58:46.386629,-31.0
2023-08-15 12:58:46.394319,-21.0
2023-08-15 12:58:46.402008,-31.0
2023-08-15 12:58:46.409697,-26.0
2023-08-15 12:58:46.417387,-14.0
2023-08-15 12:58:46.425076,4.0
2023-08-15 12:58:46.432765,24.0
2023-08-15 12:58:46.440455,21.0
2023-08-15 12:58:46.448144,-16.0
2023-08-15 12:58:46.455833,-43.0
2023-08-15 12:58:46.463523,-7.0
2023-08-15 12:58:46.471212,21.0
2023-08-15 12:58:46.478902,-50.0
2023-08-15 12:58:46.486591,-279.0
2023-08-15 12:58:46.494280,-697.0
2023-08-15 12:58:46.501970,-1093.0
2023-08-15 12:58:46.509659,-977.0
2023-08-15 12:58:46.517348,-250.0
2023-08-15 12:58:46.525038,376.0
2023-08-15 12:58:46.532727,330.0
2023-08-15 12:58:46.540416,38.0
2023-08-15 12:58:46.548106,50.0
2023-08-15 12:58:46.555795,144.0
2023-08-15 12:58:46.563484,72.0
2023-08-15 12:58:46.571174,33.0
2023-08-15 12:58:46.578863,67.0
2023-08-15 12:58:46.586553,50.0
2023-08-15 12:58:46.594242,16.0
2023-08-15 12:58:46.601931,24.0
2023-08-15 12:58:46.609621,31.0
2023-08-15 12:58:46.617310,16.0
2023-08-15 12:58:46.624999,4.0
2023-08-15 12:58:46.632689,0.0
2023-08-15 12:58:46.640378,-24.0
2023-08-15 12:58:46.648067,-45.0
2023-08-15 12:58:46.655757,-36.0
2023-08-15 12:58:46.663446,-31.0
2023-08-15 12:58:46.671135,-53.0
2023-08-15 12:58:46.678825,-79.0
2023-08-15 12:58:46.686514,-82.0
2023-08-15 12:58:46.694204,-60.0
2023-08-15 12:58:46.701893,-57.0
2023-08-15 12:58:46.709582,-74.0
2023-08-15 12:58:46.717272,-69.0
2023-08-15 12:58:46.724961,-57.0
2023-08-15 12:58:46.732650,-53.0
2023-08-15 12:58:46.740340,-45.0
2023-08-15 12:58:46.748029,-26.0
2023-08-15 12:58:46.755718,-21.0
2023-08-15 12:58:46.763408,-36.0
2023-08-15 12:58:46.771097,-38.0
2023-08-15 12:58:46.778787,-41.0
2023-08-15 12:58:46.786476,-55.0
2023-08-15 12:58:46.794165,-36.0
2023-08-15 12:58:46.801855,-12.0
2023-08-15 12:58:46.809544,-28.0
2023-08-15 12:58:46.817233,-36.0
2023-08-15 12:58:46.824923,-7.0
2023-08-15 12:58:46.832612,0.0
2023-08-15 12:58:46.840301,-24.0
2023-08-15 12:58:46.847991,-36.0
2023-08-15 12:58:46.855680,-31.0
2023-08-15 12:58:46.863369,-31.0
2023-08-15 12:58:46.871059,-33.0
2023-08-15 12:58:46.878748,-28.0
2023-08-15 12:58:46.886438,-31.0
2023-08-15 12:58:46.894127,-33.0
2023-08-15 12:58:46.901816,-26.0
2023-08-15 12:58:46.909506,-33.0
2023-08-15 12:58:46.917195,-41.0
2023-08-15 12:58:46.924884,-14.0
2023-08-15 12:58:46.932574,-4.0
2023-08-15 12:58:46.940263,-31.0
2023-08-15 12:58:46.947952,-36.0
2023-08-15 12:58:46.955642,-14.0
2023-08-15 12:58:46.963331,-14.0
2023-08-15 12:58:46.971020,-7.0
2023-08-15 12:58:46.978710,4.0
2023-08-15 12:58:46.986399,-7.0
2023-08-15 12:58:46.994089,-14.0
2023-08-15 12:58:47.001778,-2.0
2023-08-15 12:58:47.009467,-2.0
2023-08-15 12:58:47.017157,-9.0
2023-08-15 12:58:47.024846,-16.0
2023-08-15 12:58:47.032535,-43.0
2023-08-15 12:58:47.040225,-69.0
2023-08-15 12:58:47.047914,-67.0
2023-08-15 12:58:47.055603,-74.0
2023-08-15 12:58:47.063293,-98.0
2023-08-15 12:58:47.070982,-98.0
2023-08-15 12:58:47.078671,-79.0
2023-08-15 12:58:47.086361,-62.0
2023-08-15 12:58:47.094050,-43.0
2023-08-15 12:58:47.101740,-31.0
2023-08-15 12:58:47.109429,-26.0
2023-08-15 12:58:47.117118,-12.0
2023-08-15 12:58:47.124808,2.0
2023-08-15 12:58:47.132497,-4.0
2023-08-15 12:58:47.140186,-16.0
2023-08-15 12:58:47.147876,-7.0
2023-08-15 12:58:47.155565,2.0
2023-08-15 12:58:47.163254,7.0
2023-08-15 12:58:47.170944,7.0
2023-08-15 12:58:47.178633,-48.0
2023-08-15 12:58:47.186323,-226.0
2023-08-15 12:58:47.194012,-583.0
2023-08-15 12:58:47.201701,-989.0
2023-08-15 12:58:47.209391,-989.0
2023-08-15 12:58:47.217080,-357.0
2023-08-15 12:58:47.224769,318.0
2023-08-15 12:58:47.232459,349.0
2023-08-15 12:58:47.240148,45.0
2023-08-15 12:58:47.247837,19.0
2023-08-15 12:58:47.255527,108.0
2023-08-15 12:58:47.263216,50.0
2023-08-15 12:58:47.270905,14.0
2023-08-15 12:58:47.278595,48.0
2023-08-15 12:58:47.286284,36.0
2023-08-15 12:58:47.293974,4.0
2023-08-15 12:58:47.301663,12.0
2023-08-15 12:58:47.309352,26.0
2023-08-15 12:58:47.317042,26.0
2023-08-15 12:58:47.324731,12.0
2023-08-15 12:58:47.332420,-16.0
2023-08-15 12:58:47.340110,-43.0
2023-08-15 12:58:47.347799,-48.0
2023-08-15 12:58:47.355488,-41.0
2023-08-15 12:58:47.363178,-53.0
2023-08-15 12:58:47.370867,-69.0
2023-08-15 12:58:47.378556,-72.0
2023-08-15 12:58:47.386246,-77.0
2023-08-15 12:58:47.393935,-86.0
2023-08-15 12:58:47.401625,-79.0
2023-08-15 12:58:47.409314,-74.0
2023-08-15 12:58:47.417003,-72.0
2023-08-15 12:58:47.424693,-48.0
2023-08-15 12:58:47.432382,-28.0
2023-08-15 12:58:47.440071,-50.0
2023-08-15 12:58:47.447761,-60.0
2023-08-15 12:58:47.455450,-28.0
2023-08-15 12:58:47.463139,-9.0
2023-08-15 12:58:47.470829,-31.0
2023-08-15 12:58:47.478518,-55.0
2023-08-15 12:58:47.486207,-33.0
2023-08-15 12:58:47.493897,2.0
2023-08-15 12:58:47.501586,-4.0
2023-08-15 12:58:47.509276,-26.0
2023-08-15 12:58:47.516965,-24.0
2023-08-15 12:58:47.524654,-26.0
2023-08-15 12:58:47.532344,-41.0
2023-08-15 12:58:47.540033,-28.0
2023-08-15 12:58:47.547722,-7.0
2023-08-15 12:58:47.555412,-16.0
2023-08-15 12:58:47.563101,-28.0
2023-08-15 12:58:47.570790,-21.0
2023-08-15 12:58:47.578480,-9.0
2023-08-15 12:58:47.586169,-14.0
2023-08-15 12:58:47.593859,-43.0
2023-08-15 12:58:47.601548,-41.0
2023-08-15 12:58:47.609237,-12.0
2023-08-15 12:58:47.616927,-12.0
2023-08-15 12:58:47.624616,-24.0
2023-08-15 12:58:47.632305,-26.0
2023-08-15 12:58:47.639995,-24.0
2023-08-15 12:58:47.647684,-26.0
2023-08-15 12:58:47.655373,-28.0
2023-08-15 12:58:47.663063,-19.0
2023-08-15 12:58:47.670752,-7.0
2023-08-15 12:58:47.678441,-16.0
2023-08-15 12:58:47.686131,-24.0
2023-08-15 12:58:47.693820,-24.0
2023-08-15 12:58:47.701510,-33.0
2023-08-15 12:58:47.709199,-36.0
2023-08-15 12:58:47.716888,-28.0
2023-08-15 12:58:47.724578,-31.0
2023-08-15 12:58:47.732267,-41.0
2023-08-15 12:58:47.739956,-38.0
2023-08-15 12:58:47.747646,-36.0
2023-08-15 12:58:47.755335,-45.0
2023-08-15 12:58:47.763024,-62.0
2023-08-15 12:58:47.770714,-69.0
2023-08-15 12:58:47.778403,-79.0
2023-08-15 12:58:47.786092,-101.0
2023-08-15 12:58:47.793782,-127.0
2023-08-15 12:58:47.801471,-127.0
2023-08-15 12:58:47.809161,-91.0
2023-08-15 12:58:47.816850,-55.0
2023-08-15 12:58:47.824539,-43.0
2023-08-15 12:58:47.832229,-36.0
2023-08-15 12:58:47.839918,-24.0
2023-08-15 12:58:47.847607,-21.0
2023-08-15 12:58:47.855297,-21.0
2023-08-15 12:58:47.862986,-9.0
2023-08-15 12:58:47.870675,-4.0
2023-08-15 12:58:47.878365,-24.0
2023-08-15 12:58:47.886054,-33.0
2023-08-15 12:58:47.893743,-21.0
2023-08-15 12:58:47.901433,-19.0
2023-08-15 12:58:47.909122,-106.0
2023-08-15 12:58:47.916812,-398.0
2023-08-15 12:58:47.924501,-856.0
2023-08-15 12:58:47.932190,-1100.0
2023-08-15 12:58:47.939880,-719.0
2023-08-15 12:58:47.947569,57.0
2023-08-15 12:58:47.955258,422.0
2023-08-15 12:58:47.962948,166.0
2023-08-15 12:58:47.970637,-21.0
2023-08-15 12:58:47.978326,89.0
2023-08-15 12:58:47.986016,103.0
2023-08-15 12:58:47.993705,28.0
2023-08-15 12:58:48.001395,57.0
2023-08-15 12:58:48.009084,65.0
2023-08-15 12:58:48.016773,7.0
2023-08-15 12:58:48.024463,9.0
2023-08-15 12:58:48.032152,28.0
2023-08-15 12:58:48.039841,4.0
2023-08-15 12:58:48.047531,-4.0
2023-08-15 12:58:48.055220,7.0
2023-08-15 12:58:48.062909,-7.0
2023-08-15 12:58:48.070599,-26.0
2023-08-15 12:58:48.078288,-16.0
2023-08-15 12:58:48.085977,-36.0
2023-08-15 12:58:48.093667,-74.0
2023-08-15 12:58:48.101356,-72.0
2023-08-15 12:58:48.109046,-65.0
2023-08-15 12:58:48.116735,-72.0
2023-08-15 12:58:48.124424,-77.0
2023-08-15 12:58:48.132114,-72.0
2023-08-15 12:58:48.139803,-65.0
2023-08-15 12:58:48.147492,-79.0
2023-08-15 12:58:48.155182,-86.0
2023-08-15 12:58:48.162871,-60.0
2023-08-15 12:58:48.170560,-33.0
2023-08-15 12:58:48.178250,-31.0
2023-08-15 12:58:48.185939,-36.0
2023-08-15 12:58:48.193628,-36.0
2023-08-15 12:58:48.201318,-55.0
2023-08-15 12:58:48.209007,-69.0
2023-08-15 12:58:48.216697,-45.0
2023-08-15 12:58:48.224386,-24.0
2023-08-15 12:58:48.232075,-33.0
2023-08-15 12:58:48.239765,-43.0
2023-08-15 12:58:48.247454,-43.0
2023-08-15 12:58:48.255143,-31.0
2023-08-15 12:58:48.262833,-31.0
2023-08-15 12:58:48.270522,-48.0
2023-08-15 12:58:48.278211,-43.0
2023-08-15 12:58:48.285901,-28.0
2023-08-15 12:58:48.293590,-43.0
2023-08-15 12:58:48.301279,-55.0
2023-08-15 12:58:48.308969,-45.0
2023-08-15 12:58:48.316658,-36.0
2023-08-15 12:58:48.324348,-41.0
2023-08-15 12:58:48.332037,-53.0
2023-08-15 12:58:48.339726,-48.0
2023-08-15 12:58:48.347416,-36.0
2023-08-15 12:58:48.355105,-31.0
2023-08-15 12:58:48.362794,-36.0
2023-08-15 12:58:48.370484,-43.0
2023-08-15 12:58:48.378173,-31.0
2023-08-15 12:58:48.385862,-24.0
2023-08-15 12:58:48.393552,-33.0
2023-08-15 12:58:48.401241,-28.0
2023-08-15 12:58:48.408931,-36.0
2023-08-15 12:58:48.416620,-60.0
2023-08-15 12:58:48.424309,-45.0
2023-08-15 12:58:48.431999,-19.0
2023-08-15 12:58:48.439688,-28.0
2023-08-15 12:58:48.447377,-33.0
2023-08-15 12:58:48.455067,-33.0
2023-08-15 12:58:48.462756,-55.0
2023-08-15 12:58:48.470445,-69.0
2023-08-15 12:58:48.478135,-62.0
2023-08-15 12:58:48.485824,-65.0
2023-08-15 12:58:48.493513,-98.0
2023-08-15 12:58:48.501203,-115.0
2023-08-15 12:58:48.508892,-96.0
2023-08-15 12:58:48.516582,-69.0
2023-08-15 12:58:48.524271,-55.0
2023-08-15 12:58:48.531960,-33.0
2023-08-15 12:58:48.539650,-9.0
2023-08-15 12:58:48.547339,2.0
2023-08-15 12:58:48.555028,-7.0
2023-08-15 12:58:48.562718,-9.0
2023-08-15 12:58:48.570407,2.0
2023-08-15 12:58:48.578096,2.0
2023-08-15 12:58:48.585786,-7.0
2023-08-15 12:58:48.593475,-9.0
2023-08-15 12:58:48.601164,-2.0
2023-08-15 12:58:48.608854,-19.0
2023-08-15 12:58:48.616543,-173.0
2023-08-15 12:58:48.624233,-574.0
2023-08-15 12:58:48.631922,-1064.0
2023-08-15 12:58:48.639611,-1136.0
2023-08-15 12:58:48.647301,-526.0
2023-08-15 12:58:48.654990,238.0
2023-08-15 12:58:48.662679,400.0
2023-08-15 12:58:48.670369,98.0
2023-08-15 12:58:48.678058,21.0
2023-08-15 12:58:48.685747,130.0
2023-08-15 12:58:48.693437,94.0
2023-08-15 12:58:48.701126,45.0
2023-08-15 12:58:48.708815,77.0
2023-08-15 12:58:48.716505,55.0
2023-08-15 12:58:48.724194,19.0
2023-08-15 12:58:48.731884,33.0
2023-08-15 12:58:48.739573,26.0
2023-08-15 12:58:48.747262,9.0
2023-08-15 12:58:48.754952,14.0
2023-08-15 12:58:48.762641,-16.0
2023-08-15 12:58:48.770330,-48.0
2023-08-15 12:58:48.778020,-26.0
2023-08-15 12:58:48.785709,-26.0
2023-08-15 12:58:48.793398,-60.0
2023-08-15 12:58:48.801088,-60.0
2023-08-15 12:58:48.808777,-55.0
2023-08-15 12:58:48.816467,-67.0
2023-08-15 12:58:48.824156,-65.0
2023-08-15 12:58:48.831845,-79.0
2023-08-15 12:58:48.839535,-98.0
2023-08-15 12:58:48.847224,-74.0
2023-08-15 12:58:48.854913,-45.0
2023-08-15 12:58:48.862603,-55.0
2023-08-15 12:58:48.870292,-50.0
2023-08-15 12:58:48.877981,-26.0
2023-08-15 12:58:48.885671,-19.0
2023-08-15 12:58:48.893360,-31.0
2023-08-15 12:58:48.901049,-36.0
2023-08-15 12:58:48.908739,-41.0
2023-08-15 12:58:48.916428,-43.0
2023-08-15 12:58:48.924118,-28.0
2023-08-15 12:58:48.931807,-21.0
2023-08-15 12:58:48.939496,-33.0
2023-08-15 12:58:48.947186,-41.0
2023-08-15 12:58:48.954875,-43.0
2023-08-15 12:58:48.962564,-45.0
2023-08-15 12:58:48.970254,-48.0
2023-08-15 12:58:48.977943,-38.0
2023-08-15 12:58:48.985632,-31.0
2023-08-15 12:58:48.993322,-55.0
2023-08-15 12:58:49.001011,-69.0
2023-08-15 12:58:49.008700,-50.0
2023-08-15 12:58:49.016390,-55.0
2023-08-15 12:58:49.024079,-60.0
2023-08-15 12:58:49.031769,-33.0
2023-08-15 12:58:49.039458,-36.0
2023-08-15 12:58:49.047147,-48.0
2023-08-15 12:58:49.054837,-33.0
2023-08-15 12:58:49.062526,-26.0
2023-08-15 12:58:49.070215,-31.0
2023-08-15 12:58:49.077905,-38.0
2023-08-15 12:58:49.085594,-38.0
2023-08-15 12:58:49.093283,-24.0
2023-08-15 12:58:49.100973,-14.0
2023-08-15 12:58:49.108662,-24.0
2023-08-15 12:58:49.116352,-36.0
2023-08-15 12:58:49.124041,-28.0
2023-08-15 12:58:49.131730,-14.0
2023-08-15 12:58:49.139420,-21.0
2023-08-15 12:58:49.147109,-36.0
2023-08-15 12:58:49.154798,-31.0
2023-08-15 12:58:49.162488,-31.0
2023-08-15 12:58:49.170177,-38.0
2023-08-15 12:58:49.177866,-45.0
2023-08-15 12:58:49.185556,-55.0
2023-08-15 12:58:49.193245,-67.0
2023-08-15 12:58:49.200934,-77.0
2023-08-15 12:58:49.208624,-103.0
2023-08-15 12:58:49.216313,-115.0
2023-08-15 12:58:49.224003,-98.0
2023-08-15 12:58:49.231692,-82.0
2023-08-15 12:58:49.239381,-62.0
2023-08-15 12:58:49.247071,-36.0
2023-08-15 12:58:49.254760,-19.0
2023-08-15 12:58:49.262449,-4.0
2023-08-15 12:58:49.270139,14.0
2023-08-15 12:58:49.277828,19.0
2023-08-15 12:58:49.285517,9.0
2023-08-15 12:58:49.293207,4.0
2023-08-15 12:58:49.300896,4.0
2023-08-15 12:58:49.308585,-2.0
2023-08-15 12:58:49.316275,-12.0
2023-08-15 12:58:49.323964,-50.0
2023-08-15 12:58:49.331654,-253.0
2023-08-15 12:58:49.339343,-680.0
2023-08-15 12:58:49.347032,-1076.0
2023-08-15 12:58:49.354722,-977.0
2023-08-15 12:58:49.362411,-287.0
2023-08-15 12:58:49.370100,337.0
2023-08-15 12:58:49.377790,289.0
2023-08-15 12:58:49.385479,4.0
2023-08-15 12:58:49.393168,41.0
2023-08-15 12:58:49.400858,127.0
2023-08-15 12:58:49.408547,67.0
2023-08-15 12:58:49.416236,41.0
2023-08-15 12:58:49.423926,60.0
2023-08-15 12:58:49.431615,60.0
2023-08-15 12:58:49.439305,41.0
2023-08-15 12:58:49.446994,21.0
2023-08-15 12:58:49.454683,21.0
2023-08-15 12:58:49.462373,9.0
2023-08-15 12:58:49.470062,-19.0
2023-08-15 12:58:49.477751,-21.0
2023-08-15 12:58:49.485441,-14.0
2023-08-15 12:58:49.493130,-12.0
2023-08-15 12:58:49.500819,-31.0
2023-08-15 12:58:49.508509,-82.0
2023-08-15 12:58:49.516198,-101.0
2023-08-15 12:58:49.523888,-94.0
2023-08-15 12:58:49.531577,-110.0
2023-08-15 12:58:49.539266,-113.0
2023-08-15 12:58:49.546956,-98.0
2023-08-15 12:58:49.554645,-110.0
2023-08-15 12:58:49.562334,-123.0
2023-08-15 12:58:49.570024,-108.0
2023-08-15 12:58:49.577713,-74.0
2023-08-15 12:58:49.585402,-60.0
2023-08-15 12:58:49.593092,-77.0
2023-08-15 12:58:49.600781,-77.0
2023-08-15 12:58:49.608470,-57.0
2023-08-15 12:58:49.616160,-53.0
2023-08-15 12:58:49.623849,-57.0
2023-08-15 12:58:49.631539,-50.0
2023-08-15 12:58:49.639228,-41.0
2023-08-15 12:58:49.646917,-50.0
2023-08-15 12:58:49.654607,-53.0
2023-08-15 12:58:49.662296,-28.0
2023-08-15 12:58:49.669985,-28.0
2023-08-15 12:58:49.677675,-57.0
2023-08-15 12:58:49.685364,-48.0
2023-08-15 12:58:49.693053,-24.0
2023-08-15 12:58:49.700743,-43.0
2023-08-15 12:58:49.708432,-55.0
2023-08-15 12:58:49.716121,-41.0
2023-08-15 12:58:49.723811,-38.0
2023-08-15 12:58:49.731500,-41.0
2023-08-15 12:58:49.739190,-41.0
2023-08-15 12:58:49.746879,-43.0
2023-08-15 12:58:49.754568,-41.0
2023-08-15 12:58:49.762258,-33.0
2023-08-15 12:58:49.769947,-21.0
2023-08-15 12:58:49.777636,-21.0
2023-08-15 12:58:49.785326,-28.0
2023-08-15 12:58:49.793015,-31.0
2023-08-15 12:58:49.800704,-21.0
2023-08-15 12:58:49.808394,-19.0
2023-08-15 12:58:49.816083,-28.0
2023-08-15 12:58:49.823772,-31.0
2023-08-15 12:58:49.831462,-24.0
2023-08-15 12:58:49.839151,-24.0
2023-08-15 12:58:49.846841,-28.0
2023-08-15 12:58:49.854530,-19.0
2023-08-15 12:58:49.862219,-9.0
2023-08-15 12:58:49.869909,-16.0
2023-08-15 12:58:49.877598,-24.0
2023-08-15 12:58:49.885287,-19.0
2023-08-15 12:58:49.892977,-31.0
2023-08-15 12:58:49.900666,-43.0
2023-08-15 12:58:49.908355,-45.0
2023-08-15 12:58:49.916045,-57.0
2023-08-15 12:58:49.923734,-74.0
2023-08-15 12:58:49.931424,-96.0
2023-08-15 12:58:49.939113,-115.0
2023-08-15 12:58:49.946802,-106.0
2023-08-15 12:58:49.954492,-65.0
2023-08-15 12:58:49.962181,-48.0
2023-08-15 12:58:49.969870,-41.0
2023-08-15 12:58:49.977560,-7.0
2023-08-15 12:58:49.985249,31.0
2023-08-15 12:58:49.992938,24.0
2023-08-15 12:58:50.000628,-9.0
2023-08-15 12:58:50.008317,-12.0
2023-08-15 12:58:50.016006,12.0
2023-08-15 12:58:50.023696,16.0
2023-08-15 12:58:50.031385,0.0
2023-08-15 12:58:50.039075,-2.0
2023-08-15 12:58:50.046764,-33.0
2023-08-15 12:58:50.054453,-209.0
2023-08-15 12:58:50.062143,-576.0
2023-08-15 12:58:50.069832,-979.0
2023-08-15 12:58:50.077521,-1011.0
2023-08-15 12:58:50.085211,-439.0
2023-08-15 12:58:50.092900,250.0
2023-08-15 12:58:50.100589,345.0
2023-08-15 12:58:50.108279,33.0
2023-08-15 12:58:50.115968,-12.0
2023-08-15 12:58:50.123657,118.0
2023-08-15 12:58:50.131347,77.0
2023-08-15 12:58:50.139036,9.0
2023-08-15 12:58:50.146726,33.0
2023-08-15 12:58:50.154415,53.0
2023-08-15 12:58:50.162104,26.0
2023-08-15 12:58:50.169794,-9.0
2023-08-15 12:58:50.177483,-21.0
2023-08-15 12:58:50.185172,-4.0
2023-08-15 12:58:50.192862,-2.0
2023-08-15 12:58:50.200551,-28.0
2023-08-15 12:58:50.208240,-43.0
2023-08-15 12:58:50.215930,-57.0
2023-08-15 12:58:50.223619,-74.0
2023-08-15 12:58:50.231308,-72.0
2023-08-15 12:58:50.238998,-62.0
2023-08-15 12:58:50.246687,-86.0
2023-08-15 12:58:50.254377,-110.0
2023-08-15 12:58:50.262066,-108.0
2023-08-15 12:58:50.269755,-125.0
2023-08-15 12:58:50.277445,-130.0
2023-08-15 12:58:50.285134,-91.0
2023-08-15 12:58:50.292823,-67.0
2023-08-15 12:58:50.300513,-77.0
2023-08-15 12:58:50.308202,-69.0
2023-08-15 12:58:50.315891,-53.0
2023-08-15 12:58:50.323581,-65.0
2023-08-15 12:58:50.331270,-67.0
2023-08-15 12:58:50.338960,-33.0
2023-08-15 12:58:50.346649,-14.0
2023-08-15 12:58:50.354338,-31.0
2023-08-15 12:58:50.362028,-38.0
2023-08-15 12:58:50.369717,-28.0
2023-08-15 12:58:50.377406,-33.0
2023-08-15 12:58:50.385096,-41.0
2023-08-15 12:58:50.392785,-21.0
2023-08-15 12:58:50.400474,-16.0
2023-08-15 12:58:50.408164,-45.0
2023-08-15 12:58:50.415853,-50.0
2023-08-15 12:58:50.423542,-26.0
2023-08-15 12:58:50.431232,-24.0
2023-08-15 12:58:50.438921,-33.0
2023-08-15 12:58:50.446611,-28.0
2023-08-15 12:58:50.454300,-14.0
2023-08-15 12:58:50.461989,-16.0
2023-08-15 12:58:50.469679,-36.0
2023-08-15 12:58:50.477368,-41.0
2023-08-15 12:58:50.485057,-26.0
2023-08-15 12:58:50.492747,-7.0
2023-08-15 12:58:50.500436,-4.0
2023-08-15 12:58:50.508125,-12.0
2023-08-15 12:58:50.515815,-7.0
2023-08-15 12:58:50.523504,0.0
2023-08-15 12:58:50.531193,2.0
2023-08-15 12:58:50.538883,7.0
2023-08-15 12:58:50.546572,14.0
2023-08-15 12:58:50.554262,4.0
2023-08-15 12:58:50.561951,-24.0
2023-08-15 12:58:50.569640,-31.0
2023-08-15 12:58:50.577330,-12.0
2023-08-15 12:58:50.585019,-7.0
2023-08-15 12:58:50.592708,-26.0
2023-08-15 12:58:50.600398,-16.0
2023-08-15 12:58:50.608087,4.0
2023-08-15 12:58:50.615776,-9.0
2023-08-15 12:58:50.623466,-26.0
2023-08-15 12:58:50.631155,-38.0
2023-08-15 12:58:50.638844,-60.0
2023-08-15 12:58:50.646534,-65.0
2023-08-15 12:58:50.654223,-77.0
2023-08-15 12:58:50.661913,-94.0
2023-08-15 12:58:50.669602,-106.0
2023-08-15 12:58:50.677291,-120.0
2023-08-15 12:58:50.684981,-91.0
2023-08-15 12:58:50.692670,-53.0
2023-08-15 12:58:50.700359,-69.0
2023-08-15 12:58:50.708049,-60.0
2023-08-15 12:58:50.715738,-7.0
2023-08-15 12:58:50.723427,-7.0
2023-08-15 12:58:50.731117,-28.0
2023-08-15 12:58:50.738806,-21.0
2023-08-15 12:58:50.746496,-12.0
2023-08-15 12:58:50.754185,-9.0
2023-08-15 12:58:50.761874,-12.0
2023-08-15 12:58:50.769564,-16.0
2023-08-15 12:58:50.777253,-21.0
2023-08-15 12:58:50.784942,-103.0
2023-08-15 12:58:50.792632,-383.0
2023-08-15 12:58:50.800321,-813.0
2023-08-15 12:58:50.808010,-1035.0
2023-08-15 12:58:50.815700,-663.0
2023-08-15 12:58:50.823389,84.0
2023-08-15 12:58:50.831078,402.0
2023-08-15 12:58:50.838768,115.0
2023-08-15 12:58:50.846457,-57.0
2023-08-15 12:58:50.854147,65.0
2023-08-15 12:58:50.861836,84.0
2023-08-15 12:58:50.869525,9.0
2023-08-15 12:58:50.877215,19.0
2023-08-15 12:58:50.884904,43.0
2023-08-15 12:58:50.892593,12.0
2023-08-15 12:58:50.900283,-12.0
2023-08-15 12:58:50.907972,4.0
2023-08-15 12:58:50.915661,2.0
2023-08-15 12:58:50.923351,-21.0
2023-08-15 12:58:50.931040,-16.0
2023-08-15 12:58:50.938729,-19.0
2023-08-15 12:58:50.946419,-55.0
2023-08-15 12:58:50.954108,-65.0
2023-08-15 12:58:50.961798,-57.0
2023-08-15 12:58:50.969487,-74.0
2023-08-15 12:58:50.977176,-82.0
2023-08-15 12:58:50.984866,-72.0
2023-08-15 12:58:50.992555,-69.0
2023-08-15 12:58:51.000244,-77.0
2023-08-15 12:58:51.007934,-84.0
2023-08-15 12:58:51.015623,-77.0
2023-08-15 12:58:51.023312,-69.0
2023-08-15 12:58:51.031002,-72.0
2023-08-15 12:58:51.038691,-62.0
2023-08-15 12:58:51.046380,-43.0
2023-08-15 12:58:51.054070,-31.0
2023-08-15 12:58:51.061759,-31.0
2023-08-15 12:58:51.069449,-43.0
2023-08-15 12:58:51.077138,-38.0
2023-08-15 12:58:51.084827,-28.0
2023-08-15 12:58:51.092517,-41.0
2023-08-15 12:58:51.100206,-43.0
2023-08-15 12:58:51.107895,-26.0
2023-08-15 12:58:51.115585,-16.0
2023-08-15 12:58:51.123274,-24.0
2023-08-15 12:58:51.130963,-38.0
2023-08-15 12:58:51.138653,-41.0
2023-08-15 12:58:51.146342,-28.0
2023-08-15 12:58:51.154032,-16.0
2023-08-15 12:58:51.161721,-24.0
2023-08-15 12:58:51.169410,-28.0
2023-08-15 12:58:51.177100,-16.0
2023-08-15 12:58:51.184789,-21.0
2023-08-15 12:58:51.192478,-38.0
2023-08-15 12:58:51.200168,-16.0
2023-08-15 12:58:51.207857,16.0
2023-08-15 12:58:51.215546,-12.0
2023-08-15 12:58:51.223236,-50.0
2023-08-15 12:58:51.230925,-26.0
2023-08-15 12:58:51.238614,0.0
2023-08-15 12:58:51.246304,-2.0
2023-08-15 12:58:51.253993,-16.0
2023-08-15 12:58:51.261683,-31.0
2023-08-15 12:58:51.269372,-28.0
2023-08-15 12:58:51.277061,-21.0
2023-08-15 12:58:51.284751,-33.0
2023-08-15 12:58:51.292440,-43.0
2023-08-15 12:58:51.300129,-28.0
2023-08-15 12:58:51.307819,-14.0
2023-08-15 12:58:51.315508,-24.0
2023-08-15 12:58:51.323197,-43.0
2023-08-15 12:58:51.330887,-38.0
2023-08-15 12:58:51.338576,-33.0
2023-08-15 12:58:51.346265,-43.0
2023-08-15 12:58:51.353955,-45.0
2023-08-15 12:58:51.361644,-53.0
2023-08-15 12:58:51.369334,-65.0
2023-08-15 12:58:51.377023,-86.0
2023-08-15 12:58:51.384712,-123.0
2023-08-15 12:58:51.392402,-144.0
2023-08-15 12:58:51.400091,-110.0
2023-08-15 12:58:51.407780,-53.0
2023-08-15 12:58:51.415470,-31.0
2023-08-15 12:58:51.423159,-33.0
2023-08-15 12:58:51.430848,-26.0
2023-08-15 12:58:51.438538,-21.0
2023-08-15 12:58:51.446227,-9.0
2023-08-15 12:58:51.453917,9.0
2023-08-15 12:58:51.461606,4.0
2023-08-15 12:58:51.469295,-16.0
2023-08-15 12:58:51.476985,-24.0
2023-08-15 12:58:51.484674,-16.0
2023-08-15 12:58:51.492363,-7.0
2023-08-15 12:58:51.500053,-31.0
2023-08-15 12:58:51.507742,-180.0
2023-08-15 12:58:51.515431,-538.0
2023-08-15 12:58:51.523121,-969.0
2023-08-15 12:58:51.530810,-1018.0
2023-08-15 12:58:51.538499,-417.0
2023-08-15 12:58:51.546189,275.0
2023-08-15 12:58:51.553878,332.0
2023-08-15 12:58:51.561568,12.0
2023-08-15 12:58:51.569257,-24.0
2023-08-15 12:58:51.576946,96.0
2023-08-15 12:58:51.584636,55.0
2023-08-15 12:58:51.592325,21.0
2023-08-15 12:58:51.600014,53.0
2023-08-15 12:58:51.607704,24.0
2023-08-15 12:58:51.615393,-7.0
2023-08-15 12:58:51.623082,9.0
2023-08-15 12:58:51.630772,14.0
2023-08-15 12:58:51.638461,-7.0
2023-08-15 12:58:51.646150,-33.0
2023-08-15 12:58:51.653840,-41.0
2023-08-15 12:58:51.661529,-36.0
2023-08-15 12:58:51.669219,-41.0
2023-08-15 12:58:51.676908,-50.0
2023-08-15 12:58:51.684597,-60.0
2023-08-15 12:58:51.692287,-72.0
2023-08-15 12:58:51.699976,-79.0
2023-08-15 12:58:51.707665,-84.0
2023-08-15 12:58:51.715355,-86.0
2023-08-15 12:58:51.723044,-98.0
2023-08-15 12:58:51.730733,-113.0
2023-08-15 12:58:51.738423,-103.0
2023-08-15 12:58:51.746112,-77.0
2023-08-15 12:58:51.753801,-60.0
2023-08-15 12:58:51.761491,-57.0
2023-08-15 12:58:51.769180,-53.0
2023-08-15 12:58:51.776870,-33.0
2023-08-15 12:58:51.784559,-41.0
2023-08-15 12:58:51.792248,-67.0
2023-08-15 12:58:51.799938,-65.0
2023-08-15 12:58:51.807627,-48.0
2023-08-15 12:58:51.815316,-45.0
2023-08-15 12:58:51.823006,-50.0
2023-08-15 12:58:51.830695,-48.0
2023-08-15 12:58:51.838384,-36.0
2023-08-15 12:58:51.846074,-43.0
2023-08-15 12:58:51.853763,-57.0
2023-08-15 12:58:51.861453,-48.0
2023-08-15 12:58:51.869142,-36.0
2023-08-15 12:58:51.876831,-48.0
2023-08-15 12:58:51.884521,-50.0
2023-08-15 12:58:51.892210,-28.0
2023-08-15 12:58:51.899899,-21.0
2023-08-15 12:58:51.907589,-33.0
2023-08-15 12:58:51.915278,-26.0
2023-08-15 12:58:51.922967,-26.0
2023-08-15 12:58:51.930657,-45.0
2023-08-15 12:58:51.938346,-41.0
2023-08-15 12:58:51.946035,-12.0
2023-08-15 12:58:51.953725,-12.0
2023-08-15 12:58:51.961414,-24.0
2023-08-15 12:58:51.969104,-16.0
2023-08-15 12:58:51.976793,-19.0
2023-08-15 12:58:51.984482,-24.0
2023-08-15 12:58:51.992172,-2.0
2023-08-15 12:58:51.999861,-4.0
2023-08-15 12:58:52.007550,-31.0
2023-08-15 12:58:52.015240,-24.0
2023-08-15 12:58:52.022929,-4.0
2023-08-15 12:58:52.030618,-7.0
2023-08-15 12:58:52.038308,-14.0
2023-08-15 12:58:52.045997,-16.0
2023-08-15 12:58:52.053686,-41.0
2023-08-15 12:58:52.061376,-60.0
2023-08-15 12:58:52.069065,-65.0
2023-08-15 12:58:52.076755,-79.0
2023-08-15 12:58:52.084444,-86.0
2023-08-15 12:58:52.092133,-91.0
2023-08-15 12:58:52.099823,-86.0
2023-08-15 12:58:52.107512,-60.0
2023-08-15 12:58:52.115201,-41.0
2023-08-15 12:58:52.122891,-33.0
2023-08-15 12:58:52.130580,-24.0
2023-08-15 12:58:52.138269,-4.0
2023-08-15 12:58:52.145959,7.0
2023-08-15 12:58:52.153648,2.0
2023-08-15 12:58:52.161337,0.0
2023-08-15 12:58:52.169027,-4.0
2023-08-15 12:58:52.176716,-12.0
2023-08-15 12:58:52.184406,-4.0
2023-08-15 12:58:52.192095,2.0
2023-08-15 12:58:52.199784,-16.0
2023-08-15 12:58:52.207474,-173.0
2023-08-15 12:58:52.215163,-567.0
2023-08-15 12:58:52.222852,-1035.0
2023-08-15 12:58:52.230542,-1095.0
2023-08-15 12:58:52.238231,-472.0
2023-08-15 12:58:52.245920,275.0
2023-08-15 12:58:52.253610,369.0
2023-08-15 12:58:52.261299,45.0
2023-08-15 12:58:52.268989,-4.0
2023-08-15 12:58:52.276678,103.0
2023-08-15 12:58:52.284367,57.0
2023-08-15 12:58:52.292057,16.0
2023-08-15 12:58:52.299746,43.0
2023-08-15 12:58:52.307435,28.0
2023-08-15 12:58:52.315125,9.0
2023-08-15 12:58:52.322814,9.0
2023-08-15 12:58:52.330503,-4.0
2023-08-15 12:58:52.338193,-16.0
2023-08-15 12:58:52.345882,-24.0
2023-08-15 12:58:52.353571,-31.0
2023-08-15 12:58:52.361261,-36.0
2023-08-15 12:58:52.368950,-43.0
2023-08-15 12:58:52.376640,-55.0
2023-08-15 12:58:52.384329,-69.0
2023-08-15 12:58:52.392018,-98.0
2023-08-15 12:58:52.399708,-113.0
2023-08-15 12:58:52.407397,-98.0
2023-08-15 12:58:52.415086,-94.0
2023-08-15 12:58:52.422776,-101.0
2023-08-15 12:58:52.430465,-101.0
2023-08-15 12:58:52.438154,-91.0
2023-08-15 12:58:52.445844,-79.0
2023-08-15 12:58:52.453533,-65.0
2023-08-15 12:58:52.461222,-53.0
2023-08-15 12:58:52.468912,-43.0
2023-08-15 12:58:52.476601,-33.0
2023-08-15 12:58:52.484291,-31.0
2023-08-15 12:58:52.491980,-43.0
2023-08-15 12:58:52.499669,-62.0
2023-08-15 12:58:52.507359,-60.0
2023-08-15 12:58:52.515048,-36.0
2023-08-15 12:58:52.522737,-31.0
2023-08-15 12:58:52.530427,-41.0
2023-08-15 12:58:52.538116,-45.0
2023-08-15 12:58:52.545805,-53.0
2023-08-15 12:58:52.553495,-60.0
2023-08-15 12:58:52.561184,-57.0
2023-08-15 12:58:52.568873,-55.0
2023-08-15 12:58:52.576563,-60.0
2023-08-15 12:58:52.584252,-57.0
2023-08-15 12:58:52.591942,-48.0
2023-08-15 12:58:52.599631,-38.0
2023-08-15 12:58:52.607320,-36.0
2023-08-15 12:58:52.615010,-33.0
2023-08-15 12:58:52.622699,-28.0
2023-08-15 12:58:52.630388,-31.0
2023-08-15 12:58:52.638078,-41.0
2023-08-15 12:58:52.645767,-33.0
2023-08-15 12:58:52.653456,-9.0
2023-08-15 12:58:52.661146,-12.0
2023-08-15 12:58:52.668835,-31.0
2023-08-15 12:58:52.676525,-28.0
2023-08-15 12:58:52.684214,-14.0
2023-08-15 12:58:52.691903,-12.0
2023-08-15 12:58:52.699593,-21.0
2023-08-15 12:58:52.707282,-31.0
2023-08-15 12:58:52.714971,-21.0
2023-08-15 12:58:52.722661,-14.0
2023-08-15 12:58:52.730350,-31.0
2023-08-15 12:58:52.738039,-38.0
2023-08-15 12:58:52.745729,-28.0
2023-08-15 12:58:52.753418,-31.0
2023-08-15 12:58:52.761107,-43.0
2023-08-15 12:58:52.768797,-53.0
2023-08-15 12:58:52.776486,-72.0
2023-08-15 12:58:52.784176,-106.0
2023-08-15 12:58:52.791865,-118.0
2023-08-15 12:58:52.799554,-103.0
2023-08-15 12:58:52.807244,-84.0
2023-08-15 12:58:52.814933,-77.0
2023-08-15 12:58:52.822622,-62.0
2023-08-15 12:58:52.830312,-38.0
2023-08-15 12:58:52.838001,-14.0
2023-08-15 12:58:52.845690,-2.0
2023-08-15 12:58:52.853380,-4.0
2023-08-15 12:58:52.861069,-7.0
2023-08-15 12:58:52.868758,-4.0
2023-08-15 12:58:52.876448,-14.0
2023-08-15 12:58:52.884137,-21.0
2023-08-15 12:58:52.891827,-21.0
2023-08-15 12:58:52.899516,-31.0
2023-08-15 12:58:52.907205,-115.0
2023-08-15 12:58:52.914895,-400.0
2023-08-15 12:58:52.922584,-866.0
2023-08-15 12:58:52.930273,-1126.0
2023-08-15 12:58:52.937963,-760.0
2023-08-15 12:58:52.945652,9.0
2023-08-15 12:58:52.953341,378.0
2023-08-15 12:58:52.961031,137.0
2023-08-15 12:58:52.968720,-28.0
2023-08-15 12:58:52.976409,84.0
2023-08-15 12:58:52.984099,91.0
2023-08-15 12:58:52.991788,19.0
2023-08-15 12:58:52.999478,38.0
2023-08-15 12:58:53.007167,41.0
2023-08-15 12:58:53.014856,-9.0
2023-08-15 12:58:53.022546,-7.0
2023-08-15 12:58:53.030235,21.0
2023-08-15 12:58:53.037924,4.0
2023-08-15 12:58:53.045614,-26.0
2023-08-15 12:58:53.053303,-31.0
2023-08-15 12:58:53.060992,-31.0
2023-08-15 12:58:53.068682,-28.0
2023-08-15 12:58:53.076371,-21.0
2023-08-15 12:58:53.084061,-45.0
2023-08-15 12:58:53.091750,-86.0
2023-08-15 12:58:53.099439,-84.0
2023-08-15 12:58:53.107129,-69.0
2023-08-15 12:58:53.114818,-79.0
2023-08-15 12:58:53.122507,-98.0
2023-08-15 12:58:53.130197,-84.0
2023-08-15 12:58:53.137886,-50.0
2023-08-15 12:58:53.145575,-33.0
2023-08-15 12:58:53.153265,-41.0
2023-08-15 12:58:53.160954,-43.0
2023-08-15 12:58:53.168643,-31.0
2023-08-15 12:58:53.176333,-7.0
2023-08-15 12:58:53.184022,0.0
2023-08-15 12:58:53.191712,-26.0
2023-08-15 12:58:53.199401,-43.0
2023-08-15 12:58:53.207090,-36.0
2023-08-15 12:58:53.214780,-26.0
2023-08-15 12:58:53.222469,-12.0
2023-08-15 12:58:53.230158,-4.0
2023-08-15 12:58:53.237848,-24.0
2023-08-15 12:58:53.245537,-41.0
2023-08-15 12:58:53.253226,-33.0
2023-08-15 12:58:53.260916,-43.0
2023-08-15 12:58:53.268605,-60.0
2023-08-15 12:58:53.276294,-36.0
2023-08-15 12:58:53.283984,-12.0
2023-08-15 12:58:53.291673,-45.0
2023-08-15 12:58:53.299363,-57.0
2023-08-15 12:58:53.307052,-28.0
2023-08-15 12:58:53.314741,-24.0
2023-08-15 12:58:53.322431,-21.0
2023-08-15 12:58:53.330120,-19.0
2023-08-15 12:58:53.337809,-41.0
2023-08-15 12:58:53.345499,-43.0
2023-08-15 12:58:53.353188,-28.0
2023-08-15 12:58:53.360877,-16.0
2023-08-15 12:58:53.368567,-7.0
2023-08-15 12:58:53.376256,-4.0
2023-08-15 12:58:53.383946,-12.0
2023-08-15 12:58:53.391635,-21.0
2023-08-15 12:58:53.399324,-19.0
2023-08-15 12:58:53.407014,-4.0
2023-08-15 12:58:53.414703,2.0
2023-08-15 12:58:53.422392,-7.0
2023-08-15 12:58:53.430082,-16.0
2023-08-15 12:58:53.437771,-26.0
2023-08-15 12:58:53.445460,-45.0
2023-08-15 12:58:53.453150,-55.0
2023-08-15 12:58:53.460839,-53.0
2023-08-15 12:58:53.468528,-79.0
2023-08-15 12:58:53.476218,-108.0
2023-08-15 12:58:53.483907,-115.0
2023-08-15 12:58:53.491597,-96.0
2023-08-15 12:58:53.499286,-53.0
2023-08-15 12:58:53.506975,-33.0
2023-08-15 12:58:53.514665,-36.0
2023-08-15 12:58:53.522354,-21.0
2023-08-15 12:58:53.530043,2.0
2023-08-15 12:58:53.537733,12.0
2023-08-15 12:58:53.545422,7.0
2023-08-15 12:58:53.553111,0.0
2023-08-15 12:58:53.560801,-9.0
2023-08-15 12:58:53.568490,-24.0
2023-08-15 12:58:53.576179,-9.0
2023-08-15 12:58:53.583869,24.0
2023-08-15 12:58:53.591558,-14.0
2023-08-15 12:58:53.599248,-202.0
2023-08-15 12:58:53.606937,-567.0
2023-08-15 12:58:53.614626,-977.0
2023-08-15 12:58:53.622316,-996.0
2023-08-15 12:58:53.630005,-400.0
2023-08-15 12:58:53.637694,282.0
2023-08-15 12:58:53.645384,364.0
2023-08-15 12:58:53.653073,55.0
2023-08-15 12:58:53.660762,-4.0
2023-08-15 12:58:53.668452,110.0
2023-08-15 12:58:53.676141,77.0
2023-08-15 12:58:53.683830,21.0
2023-08-15 12:58:53.691520,50.0
2023-08-15 12:58:53.699209,41.0
2023-08-15 12:58:53.706899,2.0
2023-08-15 12:58:53.714588,7.0
2023-08-15 12:58:53.722277,19.0
2023-08-15 12:58:53.729967,-9.0
2023-08-15 12:58:53.737656,-38.0
2023-08-15 12:58:53.745345,-31.0
2023-08-15 12:58:53.753035,-12.0
2023-08-15 12:58:53.760724,-33.0
2023-08-15 12:58:53.768413,-79.0
2023-08-15 12:58:53.776103,-72.0
2023-08-15 12:58:53.783792,-53.0
2023-08-15 12:58:53.791482,-82.0
2023-08-15 12:58:53.799171,-91.0
2023-08-15 12:58:53.806860,-91.0
2023-08-15 12:58:53.814550,-113.0
2023-08-15 12:58:53.822239,-101.0
2023-08-15 12:58:53.829928,-77.0
2023-08-15 12:58:53.837618,-86.0
2023-08-15 12:58:53.845307,-82.0
2023-08-15 12:58:53.852996,-38.0
2023-08-15 12:58:53.860686,-9.0
2023-08-15 12:58:53.868375,-19.0
2023-08-15 12:58:53.876064,-53.0
2023-08-15 12:58:53.883754,-55.0
2023-08-15 12:58:53.891443,-41.0
2023-08-15 12:58:53.899133,-41.0
2023-08-15 12:58:53.906822,-28.0
2023-08-15 12:58:53.914511,-12.0
2023-08-15 12:58:53.922201,-21.0
2023-08-15 12:58:53.929890,-43.0
2023-08-15 12:58:53.937579,-48.0
2023-08-15 12:58:53.945269,-36.0
2023-08-15 12:58:53.952958,-28.0
2023-08-15 12:58:53.960647,-24.0
2023-08-15 12:58:53.968337,-21.0
2023-08-15 12:58:53.976026,-33.0
2023-08-15 12:58:53.983715,-48.0
2023-08-15 12:58:53.991405,-41.0
2023-08-15 12:58:53.999094,-24.0
2023-08-15 12:58:54.006784,-26.0
2023-08-15 12:58:54.014473,-24.0
2023-08-15 12:58:54.022162,-19.0
2023-08-15 12:58:54.029852,-36.0
2023-08-15 12:58:54.037541,-26.0
2023-08-15 12:58:54.045230,0.0
2023-08-15 12:58:54.052920,-21.0
2023-08-15 12:58:54.060609,-50.0
2023-08-15 12:58:54.068298,-36.0
2023-08-15 12:58:54.075988,-2.0
2023-08-15 12:58:54.083677,7.0
2023-08-15 12:58:54.091366,-26.0
2023-08-15 12:58:54.099056,-50.0
2023-08-15 12:58:54.106745,-33.0
2023-08-15 12:58:54.114435,-19.0
2023-08-15 12:58:54.122124,-33.0
2023-08-15 12:58:54.129813,-45.0
2023-08-15 12:58:54.137503,-41.0
2023-08-15 12:58:54.145192,-62.0
2023-08-15 12:58:54.152881,-101.0
2023-08-15 12:58:54.160571,-118.0
2023-08-15 12:58:54.168260,-101.0
2023-08-15 12:58:54.175949,-60.0
2023-08-15 12:58:54.183639,-41.0
2023-08-15 12:58:54.191328,-45.0
2023-08-15 12:58:54.199018,-16.0
2023-08-15 12:58:54.206707,12.0
2023-08-15 12:58:54.214396,12.0
2023-08-15 12:58:54.222086,9.0
2023-08-15 12:58:54.229775,12.0
2023-08-15 12:58:54.237464,-2.0
2023-08-15 12:58:54.245154,-21.0
2023-08-15 12:58:54.252843,-16.0
2023-08-15 12:58:54.260532,-12.0
2023-08-15 12:58:54.268222,-16.0
2023-08-15 12:58:54.275911,-67.0
2023-08-15 12:58:54.283600,-296.0
2023-08-15 12:58:54.291290,-702.0
2023-08-15 12:58:54.298979,-1011.0
2023-08-15 12:58:54.306669,-801.0
2023-08-15 12:58:54.314358,-84.0
2023-08-15 12:58:54.322047,405.0
2023-08-15 12:58:54.329737,243.0
2023-08-15 12:58:54.337426,-14.0
2023-08-15 12:58:54.345115,48.0
2023-08-15 12:58:54.352805,103.0
2023-08-15 12:58:54.360494,14.0
2023-08-15 12:58:54.368183,4.0
2023-08-15 12:58:54.375873,41.0
2023-08-15 12:58:54.383562,9.0
2023-08-15 12:58:54.391251,-12.0
2023-08-15 12:58:54.398941,4.0
2023-08-15 12:58:54.406630,-4.0
2023-08-15 12:58:54.414320,-36.0
2023-08-15 12:58:54.422009,-28.0
2023-08-15 12:58:54.429698,-21.0
2023-08-15 12:58:54.437388,-45.0
2023-08-15 12:58:54.445077,-50.0
2023-08-15 12:58:54.452766,-62.0
2023-08-15 12:58:54.460456,-91.0
2023-08-15 12:58:54.468145,-84.0
2023-08-15 12:58:54.475834,-74.0
2023-08-15 12:58:54.483524,-96.0
2023-08-15 12:58:54.491213,-103.0
2023-08-15 12:58:54.498902,-98.0
2023-08-15 12:58:54.506592,-94.0
2023-08-15 12:58:54.514281,-86.0
2023-08-15 12:58:54.521971,-86.0
2023-08-15 12:58:54.529660,-82.0
2023-08-15 12:58:54.537349,-67.0
2023-08-15 12:58:54.545039,-62.0
2023-08-15 12:58:54.552728,-65.0
2023-08-15 12:58:54.560417,-57.0
2023-08-15 12:58:54.568107,-55.0
2023-08-15 12:58:54.575796,-57.0
2023-08-15 12:58:54.583485,-45.0
2023-08-15 12:58:54.591175,-41.0
2023-08-15 12:58:54.598864,-50.0
2023-08-15 12:58:54.606554,-53.0
2023-08-15 12:58:54.614243,-45.0
2023-08-15 12:58:54.621932,-53.0
2023-08-15 12:58:54.629622,-62.0
2023-08-15 12:58:54.637311,-53.0
2023-08-15 12:58:54.645000,-41.0
2023-08-15 12:58:54.652690,-33.0
2023-08-15 12:58:54.660379,-41.0
2023-08-15 12:58:54.668068,-53.0
2023-08-15 12:58:54.675758,-48.0
2023-08-15 12:58:54.683447,-21.0
2023-08-15 12:58:54.691136,-16.0
2023-08-15 12:58:54.698826,-28.0
2023-08-15 12:58:54.706515,-24.0
2023-08-15 12:58:54.714205,-28.0
2023-08-15 12:58:54.721894,-38.0
2023-08-15 12:58:54.729583,-28.0
2023-08-15 12:58:54.737273,-21.0
2023-08-15 12:58:54.744962,-24.0
2023-08-15 12:58:54.752651,-16.0
2023-08-15 12:58:54.760341,-19.0
2023-08-15 12:58:54.768030,-28.0
2023-08-15 12:58:54.775719,-21.0
2023-08-15 12:58:54.783409,-28.0
2023-08-15 12:58:54.791098,-55.0
2023-08-15 12:58:54.798787,-69.0
2023-08-15 12:58:54.806477,-74.0
2023-08-15 12:58:54.814166,-74.0
2023-08-15 12:58:54.821856,-74.0
2023-08-15 12:58:54.829545,-101.0
2023-08-15 12:58:54.837234,-127.0
2023-08-15 12:58:54.844924,-86.0
2023-08-15 12:58:54.852613,-28.0
2023-08-15 12:58:54.860302,-28.0
2023-08-15 12:58:54.867992,-26.0
2023-08-15 12:58:54.875681,14.0
2023-08-15 12:58:54.883370,24.0
2023-08-15 12:58:54.891060,-7.0
2023-08-15 12:58:54.898749,-16.0
2023-08-15 12:58:54.906438,0.0
2023-08-15 12:58:54.914128,9.0
2023-08-15 12:58:54.921817,14.0
2023-08-15 12:58:54.929507,21.0
2023-08-15 12:58:54.937196,-4.0
2023-08-15 12:58:54.944885,-113.0
2023-08-15 12:58:54.952575,-393.0
2023-08-15 12:58:54.960264,-837.0
2023-08-15 12:58:54.967953,-1083.0
2023-08-15 12:58:54.975643,-692.0
2023-08-15 12:58:54.983332,94.0
2023-08-15 12:58:54.991021,436.0
2023-08-15 12:58:54.998711,161.0
2023-08-15 12:58:55.006400,-31.0
2023-08-15 12:58:55.014090,77.0
2023-08-15 12:58:55.021779,103.0
2023-08-15 12:58:55.029468,36.0
2023-08-15 12:58:55.037158,36.0
2023-08-15 12:58:55.044847,41.0
2023-08-15 12:58:55.052536,14.0
2023-08-15 12:58:55.060226,14.0
2023-08-15 12:58:55.067915,24.0
2023-08-15 12:58:55.075604,12.0
2023-08-15 12:58:55.083294,-4.0
2023-08-15 12:58:55.090983,-19.0
2023-08-15 12:58:55.098672,-50.0
2023-08-15 12:58:55.106362,-69.0
2023-08-15 12:58:55.114051,-67.0
2023-08-15 12:58:55.121741,-65.0
2023-08-15 12:58:55.129430,-72.0
2023-08-15 12:58:55.137119,-91.0
2023-08-15 12:58:55.144809,-103.0
2023-08-15 12:58:55.152498,-103.0
2023-08-15 12:58:55.160187,-110.0
2023-08-15 12:58:55.167877,-103.0
2023-08-15 12:58:55.175566,-84.0
2023-08-15 12:58:55.183255,-79.0
2023-08-15 12:58:55.190945,-82.0
2023-08-15 12:58:55.198634,-67.0
2023-08-15 12:58:55.206323,-48.0
2023-08-15 12:58:55.214013,-48.0
2023-08-15 12:58:55.221702,-60.0
2023-08-15 12:58:55.229392,-67.0
2023-08-15 12:58:55.237081,-62.0
2023-08-15 12:58:55.244770,-53.0
2023-08-15 12:58:55.252460,-50.0
2023-08-15 12:58:55.260149,-53.0
2023-08-15 12:58:55.267838,-50.0
2023-08-15 12:58:55.275528,-50.0
2023-08-15 12:58:55.283217,-67.0
2023-08-15 12:58:55.290906,-72.0
2023-08-15 12:58:55.298596,-55.0
2023-08-15 12:58:55.306285,-60.0
2023-08-15 12:58:55.313974,-69.0
2023-08-15 12:58:55.321664,-53.0
2023-08-15 12:58:55.329353,-41.0
2023-08-15 12:58:55.337043,-67.0
2023-08-15 12:58:55.344732,-74.0
2023-08-15 12:58:55.352421,-48.0
2023-08-15 12:58:55.360111,-38.0
2023-08-15 12:58:55.367800,-48.0
2023-08-15 12:58:55.375489,-41.0
2023-08-15 12:58:55.383179,-28.0
2023-08-15 12:58:55.390868,-31.0
2023-08-15 12:58:55.398557,-41.0
2023-08-15 12:58:55.406247,-31.0
2023-08-15 12:58:55.413936,-21.0
2023-08-15 12:58:55.421626,-28.0
2023-08-15 12:58:55.429315,-33.0
2023-08-15 12:58:55.437004,-26.0
2023-08-15 12:58:55.444694,-24.0
2023-08-15 12:58:55.452383,-36.0
2023-08-15 12:58:55.460072,-57.0
2023-08-15 12:58:55.467762,-62.0
2023-08-15 12:58:55.475451,-62.0
2023-08-15 12:58:55.483140,-96.0
2023-08-15 12:58:55.490830,-123.0
2023-08-15 12:58:55.498519,-91.0
2023-08-15 12:58:55.506208,-53.0
2023-08-15 12:58:55.513898,-43.0
2023-08-15 12:58:55.521587,-41.0
2023-08-15 12:58:55.529277,-16.0
2023-08-15 12:58:55.536966,0.0
2023-08-15 12:58:55.544655,-4.0
2023-08-15 12:58:55.552345,-7.0
2023-08-15 12:58:55.560034,2.0
2023-08-15 12:58:55.567723,4.0
2023-08-15 12:58:55.575413,-4.0
2023-08-15 12:58:55.583102,-9.0
2023-08-15 12:58:55.590791,0.0
2023-08-15 12:58:55.598481,-28.0
2023-08-15 12:58:55.606170,-221.0
2023-08-15 12:58:55.613859,-661.0
2023-08-15 12:58:55.621549,-1129.0
2023-08-15 12:58:55.629238,-1112.0
2023-08-15 12:58:55.636928,-400.0
2023-08-15 12:58:55.644617,347.0
2023-08-15 12:58:55.652306,402.0
2023-08-15 12:58:55.659996,77.0
2023-08-15 12:58:55.667685,31.0
2023-08-15 12:58:55.675374,125.0
2023-08-15 12:58:55.683064,72.0
2023-08-15 12:58:55.690753,28.0
2023-08-15 12:58:55.698442,57.0
2023-08-15 12:58:55.706132,43.0
2023-08-15 12:58:55.713821,2.0
2023-08-15 12:58:55.721511,-7.0
2023-08-15 12:58:55.729200,-9.0
2023-08-15 12:58:55.736889,-21.0
2023-08-15 12:58:55.744579,-31.0
2023-08-15 12:58:55.752268,-31.0
2023-08-15 12:58:55.759957,-33.0
2023-08-15 12:58:55.767647,-48.0
2023-08-15 12:58:55.775336,-60.0
2023-08-15 12:58:55.783025,-65.0
2023-08-15 12:58:55.790715,-74.0
2023-08-15 12:58:55.798404,-86.0
2023-08-15 12:58:55.806093,-89.0
2023-08-15 12:58:55.813783,-96.0
2023-08-15 12:58:55.821472,-108.0
2023-08-15 12:58:55.829162,-110.0
2023-08-15 12:58:55.836851,-98.0
2023-08-15 12:58:55.844540,-84.0
2023-08-15 12:58:55.852230,-69.0
2023-08-15 12:58:55.859919,-55.0
2023-08-15 12:58:55.867608,-48.0
2023-08-15 12:58:55.875298,-53.0
2023-08-15 12:58:55.882987,-60.0
2023-08-15 12:58:55.890676,-50.0
2023-08-15 12:58:55.898366,-43.0
2023-08-15 12:58:55.906055,-38.0
2023-08-15 12:58:55.913744,-28.0
2023-08-15 12:58:55.921434,-31.0
2023-08-15 12:58:55.929123,-48.0
2023-08-15 12:58:55.936813,-50.0
2023-08-15 12:58:55.944502,-43.0
2023-08-15 12:58:55.952191,-38.0
2023-08-15 12:58:55.959881,-36.0
2023-08-15 12:58:55.967570,-43.0
2023-08-15 12:58:55.975259,-50.0
2023-08-15 12:58:55.982949,-53.0
2023-08-15 12:58:55.990638,-48.0
2023-08-15 12:58:55.998327,-43.0
2023-08-15 12:58:56.006017,-45.0
2023-08-15 12:58:56.013706,-48.0
2023-08-15 12:58:56.021395,-41.0
2023-08-15 12:58:56.029085,-36.0
2023-08-15 12:58:56.036774,-24.0
2023-08-15 12:58:56.044464,-9.0
2023-08-15 12:58:56.052153,-4.0
2023-08-15 12:58:56.059842,-14.0
2023-08-15 12:58:56.067532,-26.0
2023-08-15 12:58:56.075221,-31.0
2023-08-15 12:58:56.082910,-21.0
2023-08-15 12:58:56.090600,-16.0
2023-08-15 12:58:56.098289,-19.0
2023-08-15 12:58:56.105978,-28.0
2023-08-15 12:58:56.113668,-48.0
2023-08-15 12:58:56.121357,-55.0
2023-08-15 12:58:56.129047,-60.0
2023-08-15 12:58:56.136736,-79.0
2023-08-15 12:58:56.144425,-84.0
2023-08-15 12:58:56.152115,-55.0
2023-08-15 12:58:56.159804,-14.0
2023-08-15 12:58:56.167493,0.0
2023-08-15 12:58:56.175183,-7.0
2023-08-15 12:58:56.182872,9.0
2023-08-15 12:58:56.190561,28.0
2023-08-15 12:58:56.198251,14.0
2023-08-15 12:58:56.205940,4.0
2023-08-15 12:58:56.213629,26.0
2023-08-15 12:58:56.221319,19.0
2023-08-15 12:58:56.229008,-14.0
2023-08-15 12:58:56.236698,2.0
2023-08-15 12:58:56.244387,7.0
2023-08-15 12:58:56.252076,-159.0
2023-08-15 12:58:56.259766,-576.0
2023-08-15 12:58:56.267455,-1090.0
2023-08-15 12:58:56.275144,-1225.0
2023-08-15 12:58:56.282834,-620.0
2023-08-15 12:58:56.290523,265.0
2023-08-15 12:58:56.298212,516.0
2023-08-15 12:58:56.305902,156.0
2023-08-15 12:58:56.313591,2.0
2023-08-15 12:58:56.321280,110.0
2023-08-15 12:58:56.328970,84.0
2023-08-15 12:58:56.336659,24.0
2023-08-15 12:58:56.344349,55.0
2023-08-15 12:58:56.352038,62.0
2023-08-15 12:58:56.359727,38.0
2023-08-15 12:58:56.367417,33.0
2023-08-15 12:58:56.375106,31.0
2023-08-15 12:58:56.382795,16.0
2023-08-15 12:58:56.390485,7.0
2023-08-15 12:58:56.398174,4.0
2023-08-15 12:58:56.405863,-9.0
2023-08-15 12:58:56.413553,-41.0
2023-08-15 12:58:56.421242,-48.0
2023-08-15 12:58:56.428931,-38.0
2023-08-15 12:58:56.436621,-41.0
2023-08-15 12:58:56.444310,-48.0
2023-08-15 12:58:56.452000,-62.0
2023-08-15 12:58:56.459689,-91.0
2023-08-15 12:58:56.467378,-103.0
2023-08-15 12:58:56.475068,-86.0
2023-08-15 12:58:56.482757,-69.0
2023-08-15 12:58:56.490446,-57.0
2023-08-15 12:58:56.498136,-43.0
2023-08-15 12:58:56.505825,-33.0
2023-08-15 12:58:56.513514,-31.0
2023-08-15 12:58:56.521204,-24.0
2023-08-15 12:58:56.528893,-16.0
2023-08-15 12:58:56.536583,-31.0
2023-08-15 12:58:56.544272,-43.0
2023-08-15 12:58:56.551961,-41.0
2023-08-15 12:58:56.559651,-31.0
2023-08-15 12:58:56.567340,-19.0
2023-08-15 12:58:56.575029,-12.0
2023-08-15 12:58:56.582719,-26.0
2023-08-15 12:58:56.590408,-38.0
2023-08-15 12:58:56.598097,-31.0
2023-08-15 12:58:56.605787,-24.0
2023-08-15 12:58:56.613476,-31.0
2023-08-15 12:58:56.621165,-38.0
2023-08-15 12:58:56.628855,-28.0
2023-08-15 12:58:56.636544,-33.0
2023-08-15 12:58:56.644234,-53.0
2023-08-15 12:58:56.651923,-57.0
2023-08-15 12:58:56.659612,-41.0
2023-08-15 12:58:56.667302,-28.0
2023-08-15 12:58:56.674991,-28.0
2023-08-15 12:58:56.682680,-36.0
2023-08-15 12:58:56.690370,-33.0
2023-08-15 12:58:56.698059,-19.0
2023-08-15 12:58:56.705748,-9.0
2023-08-15 12:58:56.713438,-19.0
2023-08-15 12:58:56.721127,-38.0
2023-08-15 12:58:56.728816,-33.0
2023-08-15 12:58:56.736506,-19.0
2023-08-15 12:58:56.744195,-16.0
2023-08-15 12:58:56.751885,-21.0
2023-08-15 12:58:56.759574,-28.0
2023-08-15 12:58:56.767263,-41.0
2023-08-15 12:58:56.774953,-53.0
2023-08-15 12:58:56.782642,-79.0
2023-08-15 12:58:56.790331,-115.0
2023-08-15 12:58:56.798021,-118.0
2023-08-15 12:58:56.805710,-84.0
2023-08-15 12:58:56.813399,-48.0
2023-08-15 12:58:56.821089,-28.0
2023-08-15 12:58:56.828778,-24.0
2023-08-15 12:58:56.836467,-9.0
2023-08-15 12:58:56.844157,9.0
2023-08-15 12:58:56.851846,14.0
2023-08-15 12:58:56.859536,0.0
2023-08-15 12:58:56.867225,-14.0
2023-08-15 12:58:56.874914,-9.0
2023-08-15 12:58:56.882604,-2.0
2023-08-15 12:58:56.890293,-4.0
2023-08-15 12:58:56.897982,-12.0
2023-08-15 12:58:56.905672,-96.0
2023-08-15 12:58:56.913361,-419.0
2023-08-15 12:58:56.921050,-955.0
2023-08-15 12:58:56.928740,-1293.0
2023-08-15 12:58:56.936429,-950.0
2023-08-15 12:58:56.944119,-57.0
2023-08-15 12:58:56.951808,465.0
2023-08-15 12:58:56.959497,217.0
2023-08-15 12:58:56.967187,-38.0
2023-08-15 12:58:56.974876,82.0
2023-08-15 12:58:56.982565,127.0
2023-08-15 12:58:56.990255,38.0
2023-08-15 12:58:56.997944,36.0
2023-08-15 12:58:57.005633,62.0
2023-08-15 12:58:57.013323,31.0
2023-08-15 12:58:57.021012,7.0
2023-08-15 12:58:57.028701,14.0
2023-08-15 12:58:57.036391,14.0
2023-08-15 12:58:57.044080,-4.0
2023-08-15 12:58:57.051770,-12.0
2023-08-15 12:58:57.059459,-12.0
2023-08-15 12:58:57.067148,-26.0
2023-08-15 12:58:57.074838,-41.0
2023-08-15 12:58:57.082527,-48.0
2023-08-15 12:58:57.090216,-60.0
2023-08-15 12:58:57.097906,-72.0
2023-08-15 12:58:57.105595,-77.0
2023-08-15 12:58:57.113284,-84.0
2023-08-15 12:58:57.120974,-96.0
2023-08-15 12:58:57.128663,-96.0
2023-08-15 12:58:57.136352,-84.0
2023-08-15 12:58:57.144042,-74.0
2023-08-15 12:58:57.151731,-62.0
2023-08-15 12:58:57.159421,-45.0
2023-08-15 12:58:57.167110,-33.0
2023-08-15 12:58:57.174799,-24.0
2023-08-15 12:58:57.182489,-19.0
2023-08-15 12:58:57.190178,-26.0
2023-08-15 12:58:57.197867,-31.0
2023-08-15 12:58:57.205557,-28.0
2023-08-15 12:58:57.213246,-28.0
2023-08-15 12:58:57.220935,-26.0
2023-08-15 12:58:57.228625,-21.0
2023-08-15 12:58:57.236314,-21.0
2023-08-15 12:58:57.244003,-33.0
2023-08-15 12:58:57.251693,-53.0
2023-08-15 12:58:57.259382,-45.0
2023-08-15 12:58:57.267072,-36.0
2023-08-15 12:58:57.274761,-43.0
2023-08-15 12:58:57.282450,-50.0
2023-08-15 12:58:57.290140,-41.0
2023-08-15 12:58:57.297829,-41.0
2023-08-15 12:58:57.305518,-57.0
2023-08-15 12:58:57.313208,-77.0
2023-08-15 12:58:57.320897,-69.0
2023-08-15 12:58:57.328586,-55.0
2023-08-15 12:58:57.336276,-53.0
2023-08-15 12:58:57.343965,-50.0
2023-08-15 12:58:57.351655,-48.0
2023-08-15 12:58:57.359344,-50.0
2023-08-15 12:58:57.367033,-60.0
2023-08-15 12:58:57.374723,-67.0
2023-08-15 12:58:57.382412,-60.0
2023-08-15 12:58:57.390101,-36.0
2023-08-15 12:58:57.397791,-26.0
2023-08-15 12:58:57.405480,-36.0
2023-08-15 12:58:57.413169,-38.0
2023-08-15 12:58:57.420859,-36.0
2023-08-15 12:58:57.428548,-36.0
2023-08-15 12:58:57.436237,-41.0
2023-08-15 12:58:57.443927,-48.0
2023-08-15 12:58:57.451616,-65.0
2023-08-15 12:58:57.459306,-86.0
2023-08-15 12:58:57.466995,-103.0
2023-08-15 12:58:57.474684,-120.0
2023-08-15 12:58:57.482374,-118.0
2023-08-15 12:58:57.490063,-89.0
2023-08-15 12:58:57.497752,-62.0
2023-08-15 12:58:57.505442,-50.0
2023-08-15 12:58:57.513131,-28.0
2023-08-15 12:58:57.520820,-4.0
2023-08-15 12:58:57.528510,0.0
2023-08-15 12:58:57.536199,0.0
2023-08-15 12:58:57.543888,7.0
2023-08-15 12:58:57.551578,9.0
2023-08-15 12:58:57.559267,-7.0
2023-08-15 12:58:57.566957,-19.0
2023-08-15 12:58:57.574646,-4.0
2023-08-15 12:58:57.582335,12.0
2023-08-15 12:58:57.590025,-33.0
2023-08-15 12:58:57.597714,-250.0
2023-08-15 12:58:57.605403,-711.0
2023-08-15 12:58:57.613093,-1191.0
2023-08-15 12:58:57.620782,-1141.0
2023-08-15 12:58:57.628471,-371.0
2023-08-15 12:58:57.636161,376.0
2023-08-15 12:58:57.643850,347.0
2023-08-15 12:58:57.651539,14.0
2023-08-15 12:58:57.659229,67.0
2023-08-15 12:58:57.666918,168.0
2023-08-15 12:58:57.674608,69.0
2023-08-15 12:58:57.682297,50.0
2023-08-15 12:58:57.689986,101.0
2023-08-15 12:58:57.697676,72.0
2023-08-15 12:58:57.705365,41.0
2023-08-15 12:58:57.713054,48.0
2023-08-15 12:58:57.720744,33.0
2023-08-15 12:58:57.728433,14.0
2023-08-15 12:58:57.736122,14.0
2023-08-15 12:58:57.743812,4.0
2023-08-15 12:58:57.751501,-7.0
2023-08-15 12:58:57.759191,-12.0
2023-08-15 12:58:57.766880,-24.0
2023-08-15 12:58:57.774569,-33.0
2023-08-15 12:58:57.782259,-45.0
2023-08-15 12:58:57.789948,-69.0
2023-08-15 12:58:57.797637,-82.0
2023-08-15 12:58:57.805327,-84.0
2023-08-15 12:58:57.813016,-89.0
2023-08-15 12:58:57.820705,-86.0
2023-08-15 12:58:57.828395,-79.0
2023-08-15 12:58:57.836084,-74.0
2023-08-15 12:58:57.843773,-60.0
2023-08-15 12:58:57.851463,-38.0
2023-08-15 12:58:57.859152,-28.0
2023-08-15 12:58:57.866842,-28.0
2023-08-15 12:58:57.874531,-28.0
2023-08-15 12:58:57.882220,-26.0
2023-08-15 12:58:57.889910,-26.0
2023-08-15 12:58:57.897599,-28.0
2023-08-15 12:58:57.905288,-24.0
2023-08-15 12:58:57.912978,-16.0
2023-08-15 12:58:57.920667,-24.0
2023-08-15 12:58:57.928356,-26.0
2023-08-15 12:58:57.936046,-19.0
2023-08-15 12:58:57.943735,-36.0
2023-08-15 12:58:57.951424,-50.0
2023-08-15 12:58:57.959114,-36.0
2023-08-15 12:58:57.966803,-24.0
2023-08-15 12:58:57.974493,-43.0
2023-08-15 12:58:57.982182,-62.0
2023-08-15 12:58:57.989871,-55.0
2023-08-15 12:58:57.997561,-50.0
2023-08-15 12:58:58.005250,-57.0
2023-08-15 12:58:58.012939,-57.0
2023-08-15 12:58:58.020629,-65.0
2023-08-15 12:58:58.028318,-72.0
2023-08-15 12:58:58.036007,-55.0
2023-08-15 12:58:58.043697,-48.0
2023-08-15 12:58:58.051386,-55.0
2023-08-15 12:58:58.059076,-50.0
2023-08-15 12:58:58.066765,-55.0
2023-08-15 12:58:58.074454,-55.0
2023-08-15 12:58:58.082144,-38.0
2023-08-15 12:58:58.089833,-31.0
2023-08-15 12:58:58.097522,-41.0
2023-08-15 12:58:58.105212,-45.0
2023-08-15 12:58:58.112901,-43.0
2023-08-15 12:58:58.120590,-33.0
2023-08-15 12:58:58.128280,-31.0
2023-08-15 12:58:58.135969,-41.0
2023-08-15 12:58:58.143658,-38.0
2023-08-15 12:58:58.151348,-38.0
2023-08-15 12:58:58.159037,-53.0
2023-08-15 12:58:58.166727,-57.0
2023-08-15 12:58:58.174416,-60.0
2023-08-15 12:58:58.182105,-79.0
2023-08-15 12:58:58.189795,-98.0
2023-08-15 12:58:58.197484,-113.0
2023-08-15 12:58:58.205173,-123.0
2023-08-15 12:58:58.212863,-113.0
2023-08-15 12:58:58.220552,-77.0
2023-08-15 12:58:58.228241,-45.0
2023-08-15 12:58:58.235931,-33.0
2023-08-15 12:58:58.243620,-26.0
2023-08-15 12:58:58.251309,-9.0
2023-08-15 12:58:58.258999,-4.0
2023-08-15 12:58:58.266688,-2.0
2023-08-15 12:58:58.274378,0.0
2023-08-15 12:58:58.282067,-2.0
2023-08-15 12:58:58.289756,-21.0
2023-08-15 12:58:58.297446,-43.0
2023-08-15 12:58:58.305135,-26.0
2023-08-15 12:58:58.312824,-38.0
2023-08-15 12:58:58.320514,-246.0
2023-08-15 12:58:58.328203,-678.0
2023-08-15 12:58:58.335892,-1080.0
2023-08-15 12:58:58.343582,-1015.0
2023-08-15 12:58:58.351271,-359.0
2023-08-15 12:58:58.358960,294.0
2023-08-15 12:58:58.366650,306.0
2023-08-15 12:58:58.374339,19.0
2023-08-15 12:58:58.382029,36.0
2023-08-15 12:58:58.389718,135.0
2023-08-15 12:58:58.397407,69.0
2023-08-15 12:58:58.405097,45.0
2023-08-15 12:58:58.412786,67.0
2023-08-15 12:58:58.420475,38.0
2023-08-15 12:58:58.428165,36.0
2023-08-15 12:58:58.435854,50.0
2023-08-15 12:58:58.443543,14.0
2023-08-15 12:58:58.451233,-16.0
2023-08-15 12:58:58.458922,-14.0
2023-08-15 12:58:58.466612,-16.0
2023-08-15 12:58:58.474301,-24.0
2023-08-15 12:58:58.481990,-33.0
2023-08-15 12:58:58.489680,-50.0
2023-08-15 12:58:58.497369,-62.0
2023-08-15 12:58:58.505058,-74.0
2023-08-15 12:58:58.512748,-96.0
2023-08-15 12:58:58.520437,-103.0
2023-08-15 12:58:58.528126,-106.0
2023-08-15 12:58:58.535816,-113.0
2023-08-15 12:58:58.543505,-110.0
2023-08-15 12:58:58.551194,-98.0
2023-08-15 12:58:58.558884,-79.0
2023-08-15 12:58:58.566573,-72.0
2023-08-15 12:58:58.574263,-65.0
2023-08-15 12:58:58.581952,-41.0
2023-08-15 12:58:58.589641,-28.0
2023-08-15 12:58:58.597331,-38.0
2023-08-15 12:58:58.605020,-45.0
2023-08-15 12:58:58.612709,-50.0
2023-08-15 12:58:58.620399,-53.0
2023-08-15 12:58:58.628088,-45.0
2023-08-15 12:58:58.635777,-45.0
2023-08-15 12:58:58.643467,-43.0
2023-08-15 12:58:58.651156,-36.0
2023-08-15 12:58:58.658845,-36.0
2023-08-15 12:58:58.666535,-31.0
2023-08-15 12:58:58.674224,-28.0
2023-08-15 12:58:58.681914,-45.0
2023-08-15 12:58:58.689603,-65.0
2023-08-15 12:58:58.697292,-55.0
2023-08-15 12:58:58.704982,-41.0
2023-08-15 12:58:58.712671,-38.0
2023-08-15 12:58:58.720360,-28.0
2023-08-15 12:58:58.728050,-26.0
2023-08-15 12:58:58.735739,-38.0
2023-08-15 12:58:58.743428,-45.0
2023-08-15 12:58:58.751118,-43.0
2023-08-15 12:58:58.758807,-24.0
2023-08-15 12:58:58.766496,-9.0
2023-08-15 12:58:58.774186,-16.0
2023-08-15 12:58:58.781875,-26.0
2023-08-15 12:58:58.789565,-38.0
2023-08-15 12:58:58.797254,-38.0
2023-08-15 12:58:58.804943,-21.0
2023-08-15 12:58:58.812633,-9.0
2023-08-15 12:58:58.820322,-19.0
2023-08-15 12:58:58.828011,-19.0
2023-08-15 12:58:58.835701,-9.0
2023-08-15 12:58:58.843390,-14.0
2023-08-15 12:58:58.851079,-16.0
2023-08-15 12:58:58.858769,-24.0
2023-08-15 12:58:58.866458,-38.0
2023-08-15 12:58:58.874148,-24.0
2023-08-15 12:58:58.881837,-19.0
2023-08-15 12:58:58.889526,-43.0
2023-08-15 12:58:58.897216,-67.0
2023-08-15 12:58:58.904905,-91.0
2023-08-15 12:58:58.912594,-106.0
2023-08-15 12:58:58.920284,-103.0
2023-08-15 12:58:58.927973,-89.0
2023-08-15 12:58:58.935662,-53.0
2023-08-15 12:58:58.943352,-24.0
2023-08-15 12:58:58.951041,-26.0
2023-08-15 12:58:58.958730,-7.0
2023-08-15 12:58:58.966420,28.0
2023-08-15 12:58:58.974109,21.0
2023-08-15 12:58:58.981799,-9.0
2023-08-15 12:58:58.989488,9.0
2023-08-15 12:58:58.997177,19.0
2023-08-15 12:58:59.004867,-21.0
2023-08-15 12:58:59.012556,-24.0
2023-08-15 12:58:59.020245,2.0
2023-08-15 12:58:59.027935,-45.0
2023-08-15 12:58:59.035624,-238.0
2023-08-15 12:58:59.043313,-600.0
2023-08-15 12:58:59.051003,-969.0
2023-08-15 12:58:59.058692,-897.0
2023-08-15 12:58:59.066381,-234.0
2023-08-15 12:58:59.074071,374.0
2023-08-15 12:58:59.081760,325.0
2023-08-15 12:58:59.089450,16.0
2023-08-15 12:58:59.097139,12.0
2023-08-15 12:58:59.104828,115.0
2023-08-15 12:58:59.112518,69.0
2023-08-15 12:58:59.120207,31.0
2023-08-15 12:58:59.127896,55.0
2023-08-15 12:58:59.135586,45.0
2023-08-15 12:58:59.143275,7.0
2023-08-15 12:58:59.150964,2.0
2023-08-15 12:58:59.158654,14.0
2023-08-15 12:58:59.166343,12.0
2023-08-15 12:58:59.174032,0.0
2023-08-15 12:58:59.181722,-12.0
2023-08-15 12:58:59.189411,-33.0
2023-08-15 12:58:59.197101,-48.0
2023-08-15 12:58:59.204790,-50.0
2023-08-15 12:58:59.212479,-62.0
2023-08-15 12:58:59.220169,-67.0
2023-08-15 12:58:59.227858,-57.0
2023-08-15 12:58:59.235547,-67.0
2023-08-15 12:58:59.243237,-108.0
2023-08-15 12:58:59.250926,-115.0
2023-08-15 12:58:59.258615,-91.0
2023-08-15 12:58:59.266305,-91.0
2023-08-15 12:58:59.273994,-91.0
2023-08-15 12:58:59.281684,-62.0
2023-08-15 12:58:59.289373,-43.0
2023-08-15 12:58:59.297062,-65.0
2023-08-15 12:58:59.304752,-77.0
2023-08-15 12:58:59.312441,-55.0
2023-08-15 12:58:59.320130,-50.0
2023-08-15 12:58:59.327820,-67.0
2023-08-15 12:58:59.335509,-62.0
2023-08-15 12:58:59.343198,-28.0
2023-08-15 12:58:59.350888,-19.0
2023-08-15 12:58:59.358577,-48.0
2023-08-15 12:58:59.366266,-53.0
2023-08-15 12:58:59.373956,-31.0
2023-08-15 12:58:59.381645,-36.0
2023-08-15 12:58:59.389335,-50.0
2023-08-15 12:58:59.397024,-38.0
2023-08-15 12:58:59.404713,-28.0
2023-08-15 12:58:59.412403,-43.0
2023-08-15 12:58:59.420092,-55.0
2023-08-15 12:58:59.427781,-57.0
2023-08-15 12:58:59.435471,-45.0
2023-08-15 12:58:59.443160,-38.0
2023-08-15 12:58:59.450849,-36.0
2023-08-15 12:58:59.458539,-21.0
2023-08-15 12:58:59.466228,-21.0
2023-08-15 12:58:59.473917,-41.0
2023-08-15 12:58:59.481607,-28.0
2023-08-15 12:58:59.489296,-16.0
2023-08-15 12:58:59.496986,-24.0
2023-08-15 12:58:59.504675,-33.0
2023-08-15 12:58:59.512364,-36.0
2023-08-15 12:58:59.520054,-21.0
2023-08-15 12:58:59.527743,-9.0
2023-08-15 12:58:59.535432,-12.0
2023-08-15 12:58:59.543122,-9.0
2023-08-15 12:58:59.550811,-12.0
2023-08-15 12:58:59.558500,-28.0
2023-08-15 12:58:59.566190,-31.0
2023-08-15 12:58:59.573879,-21.0
2023-08-15 12:58:59.581568,-26.0
2023-08-15 12:58:59.589258,-41.0
2023-08-15 12:58:59.596947,-57.0
2023-08-15 12:58:59.604637,-77.0
2023-08-15 12:58:59.612326,-91.0
2023-08-15 12:58:59.620015,-101.0
2023-08-15 12:58:59.627705,-91.0
2023-08-15 12:58:59.635394,-60.0
2023-08-15 12:58:59.643083,-33.0
2023-08-15 12:58:59.650773,-16.0
2023-08-15 12:58:59.658462,-9.0
2023-08-15 12:58:59.666151,-7.0
2023-08-15 12:58:59.673841,-12.0
2023-08-15 12:58:59.681530,-14.0
2023-08-15 12:58:59.689220,-7.0
2023-08-15 12:58:59.696909,-2.0
2023-08-15 12:58:59.704598,-2.0
2023-08-15 12:58:59.712288,-12.0
2023-08-15 12:58:59.719977,-21.0
2023-08-15 12:58:59.727666,-41.0
2023-08-15 12:58:59.735356,-168.0
2023-08-15 12:58:59.743045,-501.0
2023-08-15 12:58:59.750734,-904.0
2023-08-15 12:58:59.758424,-972.0
2023-08-15 12:58:59.766113,-436.0
2023-08-15 12:58:59.773802,265.0
2023-08-15 12:58:59.781492,405.0
2023-08-15 12:58:59.789181,96.0
2023-08-15 12:58:59.796871,-7.0
2023-08-15 12:58:59.804560,86.0
2023-08-15 12:58:59.812249,67.0
2023-08-15 12:58:59.819939,21.0
2023-08-15 12:58:59.827628,31.0
2023-08-15 12:58:59.835317,19.0
2023-08-15 12:58:59.843007,2.0
2023-08-15 12:58:59.850696,4.0
2023-08-15 12:58:59.858385,-9.0
2023-08-15 12:58:59.866075,-19.0
2023-08-15 12:58:59.873764,-9.0
2023-08-15 12:58:59.881453,-16.0
2023-08-15 12:58:59.889143,-41.0
2023-08-15 12:58:59.896832,-41.0
2023-08-15 12:58:59.904522,-33.0
2023-08-15 12:58:59.912211,-67.0
2023-08-15 12:58:59.919900,-89.0
2023-08-15 12:58:59.927590,-77.0
2023-08-15 12:58:59.935279,-86.0
2023-08-15 12:58:59.942968,-108.0
2023-08-15 12:58:59.950658,-106.0
2023-08-15 12:58:59.958347,-103.0
2023-08-15 12:58:59.966036,-108.0
2023-08-15 12:58:59.973726,-91.0
2023-08-15 12:58:59.981415,-86.0
2023-08-15 12:58:59.989105,-96.0
2023-08-15 12:58:59.996794,-77.0
2023-08-15 12:59:00.004483,-43.0
2023-08-15 12:59:00.012173,-50.0
2023-08-15 12:59:00.019862,-67.0
2023-08-15 12:59:00.027551,-60.0
2023-08-15 12:59:00.035241,-53.0
2023-08-15 12:59:00.042930,-45.0
2023-08-15 12:59:00.050619,-41.0
2023-08-15 12:59:00.058309,-48.0
2023-08-15 12:59:00.065998,-43.0
2023-08-15 12:59:00.073687,-21.0
2023-08-15 12:59:00.081377,-16.0
2023-08-15 12:59:00.089066,-24.0
2023-08-15 12:59:00.096756,-24.0
2023-08-15 12:59:00.104445,-31.0
2023-08-15 12:59:00.112134,-41.0
2023-08-15 12:59:00.119824,-31.0
2023-08-15 12:59:00.127513,-26.0
2023-08-15 12:59:00.135202,-33.0
2023-08-15 12:59:00.142892,-33.0
2023-08-15 12:59:00.150581,-28.0
2023-08-15 12:59:00.158270,-19.0
2023-08-15 12:59:00.165960,-7.0
2023-08-15 12:59:00.173649,-21.0
2023-08-15 12:59:00.181338,-50.0
2023-08-15 12:59:00.189028,-45.0
2023-08-15 12:59:00.196717,-21.0
2023-08-15 12:59:00.204407,-14.0
2023-08-15 12:59:00.212096,-14.0
2023-08-15 12:59:00.219785,-24.0
2023-08-15 12:59:00.227475,-24.0
2023-08-15 12:59:00.235164,-9.0
2023-08-15 12:59:00.242853,-7.0
2023-08-15 12:59:00.250543,-19.0
2023-08-15 12:59:00.258232,-28.0
2023-08-15 12:59:00.265921,-38.0
2023-08-15 12:59:00.273611,-45.0
2023-08-15 12:59:00.281300,-45.0
2023-08-15 12:59:00.288989,-72.0
2023-08-15 12:59:00.296679,-115.0
2023-08-15 12:59:00.304368,-98.0
2023-08-15 12:59:00.312058,-50.0
2023-08-15 12:59:00.319747,-48.0
2023-08-15 12:59:00.327436,-65.0
2023-08-15 12:59:00.335126,-36.0
2023-08-15 12:59:00.342815,9.0
2023-08-15 12:59:00.350504,21.0
2023-08-15 12:59:00.358194,2.0
2023-08-15 12:59:00.365883,-4.0
2023-08-15 12:59:00.373572,0.0
2023-08-15 12:59:00.381262,9.0
2023-08-15 12:59:00.388951,12.0
2023-08-15 12:59:00.396641,-7.0
2023-08-15 12:59:00.404330,-12.0
2023-08-15 12:59:00.412019,-43.0
2023-08-15 12:59:00.419709,-258.0
2023-08-15 12:59:00.427398,-697.0
2023-08-15 12:59:00.435087,-1095.0
2023-08-15 12:59:00.442777,-982.0
2023-08-15 12:59:00.450466,-253.0
2023-08-15 12:59:00.458155,400.0
2023-08-15 12:59:00.465845,345.0
2023-08-15 12:59:00.473534,31.0
2023-08-15 12:59:00.481223,45.0
2023-08-15 12:59:00.488913,123.0
2023-08-15 12:59:00.496602,48.0
2023-08-15 12:59:00.504292,24.0
2023-08-15 12:59:00.511981,65.0
2023-08-15 12:59:00.519670,55.0
2023-08-15 12:59:00.527360,28.0
2023-08-15 12:59:00.535049,24.0
2023-08-15 12:59:00.542738,16.0
2023-08-15 12:59:00.550428,4.0
2023-08-15 12:59:00.558117,-9.0
2023-08-15 12:59:00.565806,-24.0
2023-08-15 12:59:00.573496,-26.0
2023-08-15 12:59:00.581185,-24.0
2023-08-15 12:59:00.588874,-33.0
2023-08-15 12:59:00.596564,-43.0
2023-08-15 12:59:00.604253,-60.0
2023-08-15 12:59:00.611943,-96.0
2023-08-15 12:59:00.619632,-103.0
2023-08-15 12:59:00.627321,-77.0
2023-08-15 12:59:00.635011,-65.0
2023-08-15 12:59:00.642700,-79.0
2023-08-15 12:59:00.650389,-96.0
2023-08-15 12:59:00.658079,-96.0
2023-08-15 12:59:00.665768,-74.0
2023-08-15 12:59:00.673457,-45.0
2023-08-15 12:59:00.681147,-45.0
2023-08-15 12:59:00.688836,-53.0
2023-08-15 12:59:00.696525,-48.0
2023-08-15 12:59:00.704215,-60.0
2023-08-15 12:59:00.711904,-72.0
2023-08-15 12:59:00.719594,-53.0
2023-08-15 12:59:00.727283,-36.0
2023-08-15 12:59:00.734972,-24.0
2023-08-15 12:59:00.742662,-12.0
2023-08-15 12:59:00.750351,-31.0
2023-08-15 12:59:00.758040,-53.0
2023-08-15 12:59:00.765730,-43.0
2023-08-15 12:59:00.773419,-26.0
2023-08-15 12:59:00.781108,-33.0
2023-08-15 12:59:00.788798,-48.0
2023-08-15 12:59:00.796487,-41.0
2023-08-15 12:59:00.804177,-19.0
2023-08-15 12:59:00.811866,-24.0
2023-08-15 12:59:00.819555,-41.0
2023-08-15 12:59:00.827245,-45.0
2023-08-15 12:59:00.834934,-38.0
2023-08-15 12:59:00.842623,-33.0
2023-08-15 12:59:00.850313,-33.0
2023-08-15 12:59:00.858002,-33.0
2023-08-15 12:59:00.865691,-19.0
2023-08-15 12:59:00.873381,-16.0
2023-08-15 12:59:00.881070,-33.0
2023-08-15 12:59:00.888759,-36.0
2023-08-15 12:59:00.896449,-26.0
2023-08-15 12:59:00.904138,-19.0
2023-08-15 12:59:00.911828,-9.0
2023-08-15 12:59:00.919517,-4.0
2023-08-15 12:59:00.927206,-26.0
2023-08-15 12:59:00.934896,-38.0
2023-08-15 12:59:00.942585,-26.0
2023-08-15 12:59:00.950274,-38.0
2023-08-15 12:59:00.957964,-60.0
2023-08-15 12:59:00.965653,-50.0
2023-08-15 12:59:00.973342,-60.0
2023-08-15 12:59:00.981032,-106.0
2023-08-15 12:59:00.988721,-123.0
2023-08-15 12:59:00.996410,-86.0
2023-08-15 12:59:01.004100,-45.0
2023-08-15 12:59:01.011789,-24.0
2023-08-15 12:59:01.019479,-7.0
2023-08-15 12:59:01.027168,4.0
2023-08-15 12:59:01.034857,4.0
2023-08-15 12:59:01.042547,9.0
2023-08-15 12:59:01.050236,19.0
2023-08-15 12:59:01.057925,12.0
2023-08-15 12:59:01.065615,-4.0
2023-08-15 12:59:01.073304,-9.0
2023-08-15 12:59:01.080993,-2.0
2023-08-15 12:59:01.088683,16.0
2023-08-15 12:59:01.096372,-7.0
2023-08-15 12:59:01.104061,-188.0
2023-08-15 12:59:01.111751,-576.0
2023-08-15 12:59:01.119440,-986.0
2023-08-15 12:59:01.127130,-991.0
2023-08-15 12:59:01.134819,-386.0
2023-08-15 12:59:01.142508,299.0
2023-08-15 12:59:01.150198,376.0
2023-08-15 12:59:01.157887,57.0
2023-08-15 12:59:01.165576,-2.0
2023-08-15 12:59:01.173266,106.0
2023-08-15 12:59:01.180955,72.0
2023-08-15 12:59:01.188644,24.0
2023-08-15 12:59:01.196334,45.0
2023-08-15 12:59:01.204023,43.0
2023-08-15 12:59:01.211713,21.0
2023-08-15 12:59:01.219402,24.0
2023-08-15 12:59:01.227091,19.0
2023-08-15 12:59:01.234781,0.0
2023-08-15 12:59:01.242470,-14.0
2023-08-15 12:59:01.250159,-21.0
2023-08-15 12:59:01.257849,-31.0
2023-08-15 12:59:01.265538,-50.0
2023-08-15 12:59:01.273227,-55.0
2023-08-15 12:59:01.280917,-62.0
2023-08-15 12:59:01.288606,-84.0
2023-08-15 12:59:01.296295,-101.0
2023-08-15 12:59:01.303985,-108.0
2023-08-15 12:59:01.311674,-106.0
2023-08-15 12:59:01.319364,-118.0
2023-08-15 12:59:01.327053,-135.0
2023-08-15 12:59:01.334742,-123.0
2023-08-15 12:59:01.342432,-108.0
2023-08-15 12:59:01.350121,-113.0
2023-08-15 12:59:01.357810,-106.0
2023-08-15 12:59:01.365500,-79.0
2023-08-15 12:59:01.373189,-60.0
2023-08-15 12:59:01.380878,-60.0
2023-08-15 12:59:01.388568,-65.0
2023-08-15 12:59:01.396257,-53.0
2023-08-15 12:59:01.403946,-43.0
2023-08-15 12:59:01.411636,-45.0
2023-08-15 12:59:01.419325,-33.0
2023-08-15 12:59:01.427015,-16.0
2023-08-15 12:59:01.434704,-26.0
2023-08-15 12:59:01.442393,-28.0
2023-08-15 12:59:01.450083,-21.0
2023-08-15 12:59:01.457772,-28.0
2023-08-15 12:59:01.465461,-36.0
2023-08-15 12:59:01.473151,-21.0
2023-08-15 12:59:01.480840,-16.0
2023-08-15 12:59:01.488529,-45.0
2023-08-15 12:59:01.496219,-50.0
2023-08-15 12:59:01.503908,-26.0
2023-08-15 12:59:01.511597,-24.0
2023-08-15 12:59:01.519287,-24.0
2023-08-15 12:59:01.526976,-21.0
2023-08-15 12:59:01.534666,-21.0
2023-08-15 12:59:01.542355,-16.0
2023-08-15 12:59:01.550044,-21.0
2023-08-15 12:59:01.557734,-24.0
2023-08-15 12:59:01.565423,-14.0
2023-08-15 12:59:01.573112,-14.0
2023-08-15 12:59:01.580802,-14.0
2023-08-15 12:59:01.588491,0.0
2023-08-15 12:59:01.596180,-7.0
2023-08-15 12:59:01.603870,-26.0
2023-08-15 12:59:01.611559,-21.0
2023-08-15 12:59:01.619249,-7.0
2023-08-15 12:59:01.626938,-7.0
2023-08-15 12:59:01.634627,-12.0
2023-08-15 12:59:01.642317,-19.0
2023-08-15 12:59:01.650006,-38.0
2023-08-15 12:59:01.657695,-48.0
2023-08-15 12:59:01.665385,-53.0
2023-08-15 12:59:01.673074,-67.0
2023-08-15 12:59:01.680763,-86.0
2023-08-15 12:59:01.688453,-106.0
2023-08-15 12:59:01.696142,-110.0
2023-08-15 12:59:01.703831,-69.0
2023-08-15 12:59:01.711521,-24.0
2023-08-15 12:59:01.719210,-9.0
2023-08-15 12:59:01.726900,4.0
2023-08-15 12:59:01.734589,9.0
2023-08-15 12:59:01.742278,-4.0
2023-08-15 12:59:01.749968,-4.0
2023-08-15 12:59:01.757657,9.0
2023-08-15 12:59:01.765346,4.0
2023-08-15 12:59:01.773036,-4.0
2023-08-15 12:59:01.780725,2.0
2023-08-15 12:59:01.788414,16.0
2023-08-15 12:59:01.796104,16.0
2023-08-15 12:59:01.803793,-89.0
2023-08-15 12:59:01.811482,-390.0
2023-08-15 12:59:01.819172,-810.0
2023-08-15 12:59:01.826861,-1032.0
2023-08-15 12:59:01.834551,-694.0
2023-08-15 12:59:01.842240,38.0
2023-08-15 12:59:01.849929,400.0
2023-08-15 12:59:01.857619,156.0
2023-08-15 12:59:01.865308,-26.0
2023-08-15 12:59:01.872997,82.0
2023-08-15 12:59:01.880687,94.0
2023-08-15 12:59:01.888376,14.0
2023-08-15 12:59:01.896065,36.0
2023-08-15 12:59:01.903755,48.0
2023-08-15 12:59:01.911444,16.0
2023-08-15 12:59:01.919133,12.0
2023-08-15 12:59:01.926823,12.0
2023-08-15 12:59:01.934512,-19.0
2023-08-15 12:59:01.942202,-48.0
2023-08-15 12:59:01.949891,-53.0
2023-08-15 12:59:01.957580,-50.0
2023-08-15 12:59:01.965270,-55.0
2023-08-15 12:59:01.972959,-65.0
2023-08-15 12:59:01.980648,-77.0
2023-08-15 12:59:01.988338,-84.0
2023-08-15 12:59:01.996027,-91.0
2023-08-15 12:59:02.003716,-103.0
2023-08-15 12:59:02.011406,-120.0
2023-08-15 12:59:02.019095,-118.0
2023-08-15 12:59:02.026785,-115.0
2023-08-15 12:59:02.034474,-120.0
2023-08-15 12:59:02.042163,-103.0
2023-08-15 12:59:02.049853,-98.0
2023-08-15 12:59:02.057542,-108.0
2023-08-15 12:59:02.065231,-89.0
2023-08-15 12:59:02.072921,-65.0
2023-08-15 12:59:02.080610,-69.0
2023-08-15 12:59:02.088299,-65.0
2023-08-15 12:59:02.095989,-45.0
2023-08-15 12:59:02.103678,-41.0
2023-08-15 12:59:02.111367,-50.0
2023-08-15 12:59:02.119057,-41.0
2023-08-15 12:59:02.126746,-31.0
2023-08-15 12:59:02.134436,-33.0
2023-08-15 12:59:02.142125,-24.0
2023-08-15 12:59:02.149814,-9.0
2023-08-15 12:59:02.157504,-24.0
2023-08-15 12:59:02.165193,-45.0
2023-08-15 12:59:02.172882,-41.0
2023-08-15 12:59:02.180572,-33.0
2023-08-15 12:59:02.188261,-33.0
2023-08-15 12:59:02.195950,-38.0
2023-08-15 12:59:02.203640,-45.0
2023-08-15 12:59:02.211329,-38.0
2023-08-15 12:59:02.219018,-19.0
2023-08-15 12:59:02.226708,-16.0
2023-08-15 12:59:02.234397,-36.0
2023-08-15 12:59:02.242087,-41.0
2023-08-15 12:59:02.249776,-24.0
2023-08-15 12:59:02.257465,-14.0
2023-08-15 12:59:02.265155,-16.0
2023-08-15 12:59:02.272844,-19.0
2023-08-15 12:59:02.280533,-24.0
2023-08-15 12:59:02.288223,-21.0
2023-08-15 12:59:02.295912,-2.0
2023-08-15 12:59:02.303601,-2.0
2023-08-15 12:59:02.311291,-28.0
2023-08-15 12:59:02.318980,-28.0
2023-08-15 12:59:02.326670,-4.0
2023-08-15 12:59:02.334359,-14.0
2023-08-15 12:59:02.342048,-28.0
2023-08-15 12:59:02.349738,-31.0
2023-08-15 12:59:02.357427,-41.0
2023-08-15 12:59:02.365116,-55.0
2023-08-15 12:59:02.372806,-65.0
2023-08-15 12:59:02.380495,-79.0
2023-08-15 12:59:02.388184,-98.0
2023-08-15 12:59:02.395874,-115.0
2023-08-15 12:59:02.403563,-108.0
2023-08-15 12:59:02.411252,-77.0
2023-08-15 12:59:02.418942,-62.0
2023-08-15 12:59:02.426631,-57.0
2023-08-15 12:59:02.434321,-36.0
2023-08-15 12:59:02.442010,-4.0
2023-08-15 12:59:02.449699,4.0
2023-08-15 12:59:02.457389,2.0
2023-08-15 12:59:02.465078,-4.0
2023-08-15 12:59:02.472767,-14.0
2023-08-15 12:59:02.480457,-16.0
2023-08-15 12:59:02.488146,2.0
2023-08-15 12:59:02.495835,9.0
2023-08-15 12:59:02.503525,-12.0
2023-08-15 12:59:02.511214,-96.0
2023-08-15 12:59:02.518903,-330.0
2023-08-15 12:59:02.526593,-731.0
2023-08-15 12:59:02.534282,-1027.0
2023-08-15 12:59:02.541972,-786.0
2023-08-15 12:59:02.549661,-72.0
2023-08-15 12:59:02.557350,371.0
2023-08-15 12:59:02.565040,188.0
2023-08-15 12:59:02.572729,-21.0
2023-08-15 12:59:02.580418,77.0
2023-08-15 12:59:02.588108,113.0
2023-08-15 12:59:02.595797,31.0
2023-08-15 12:59:02.603486,45.0
2023-08-15 12:59:02.611176,60.0
2023-08-15 12:59:02.618865,7.0
2023-08-15 12:59:02.626554,-4.0
2023-08-15 12:59:02.634244,9.0
2023-08-15 12:59:02.641933,-7.0
2023-08-15 12:59:02.649623,-12.0
2023-08-15 12:59:02.657312,-4.0
2023-08-15 12:59:02.665001,-14.0
2023-08-15 12:59:02.672691,-26.0
2023-08-15 12:59:02.680380,-53.0
2023-08-15 12:59:02.688069,-82.0
2023-08-15 12:59:02.695759,-86.0
2023-08-15 12:59:02.703448,-82.0
2023-08-15 12:59:02.711137,-94.0
2023-08-15 12:59:02.718827,-108.0
2023-08-15 12:59:02.726516,-106.0
2023-08-15 12:59:02.734206,-96.0
2023-08-15 12:59:02.741895,-96.0
2023-08-15 12:59:02.749584,-106.0
2023-08-15 12:59:02.757274,-94.0
2023-08-15 12:59:02.764963,-60.0
2023-08-15 12:59:02.772652,-62.0
2023-08-15 12:59:02.780342,-86.0
2023-08-15 12:59:02.788031,-79.0
2023-08-15 12:59:02.795720,-45.0
2023-08-15 12:59:02.803410,-24.0
2023-08-15 12:59:02.811099,-31.0
2023-08-15 12:59:02.818788,-48.0
2023-08-15 12:59:02.826478,-36.0
2023-08-15 12:59:02.834167,-16.0
2023-08-15 12:59:02.841857,-24.0
2023-08-15 12:59:02.849546,-43.0
2023-08-15 12:59:02.857235,-41.0
2023-08-15 12:59:02.864925,-36.0
2023-08-15 12:59:02.872614,-36.0
2023-08-15 12:59:02.880303,-33.0
2023-08-15 12:59:02.887993,-31.0
2023-08-15 12:59:02.895682,-31.0
2023-08-15 12:59:02.903371,-38.0
2023-08-15 12:59:02.911061,-36.0
2023-08-15 12:59:02.918750,-16.0
2023-08-15 12:59:02.926439,-14.0
2023-08-15 12:59:02.934129,-41.0
2023-08-15 12:59:02.941818,-50.0
2023-08-15 12:59:02.949508,-24.0
2023-08-15 12:59:02.957197,-14.0
2023-08-15 12:59:02.964886,-31.0
2023-08-15 12:59:02.972576,-31.0
2023-08-15 12:59:02.980265,-21.0
2023-08-15 12:59:02.987954,-21.0
2023-08-15 12:59:02.995644,-26.0
2023-08-15 12:59:03.003333,-28.0
2023-08-15 12:59:03.011022,-24.0
2023-08-15 12:59:03.018712,-31.0
2023-08-15 12:59:03.026401,-45.0
2023-08-15 12:59:03.034090,-33.0
2023-08-15 12:59:03.041780,-9.0
2023-08-15 12:59:03.049469,-21.0
2023-08-15 12:59:03.057159,-53.0
2023-08-15 12:59:03.064848,-65.0
2023-08-15 12:59:03.072537,-69.0
2023-08-15 12:59:03.080227,-103.0
2023-08-15 12:59:03.087916,-123.0
2023-08-15 12:59:03.095605,-86.0
2023-08-15 12:59:03.103295,-48.0
2023-08-15 12:59:03.110984,-33.0
2023-08-15 12:59:03.118673,-19.0
2023-08-15 12:59:03.126363,-4.0
2023-08-15 12:59:03.134052,2.0
2023-08-15 12:59:03.141742,0.0
2023-08-15 12:59:03.149431,7.0
2023-08-15 12:59:03.157120,12.0
2023-08-15 12:59:03.164810,-4.0
2023-08-15 12:59:03.172499,-2.0
2023-08-15 12:59:03.180188,14.0
2023-08-15 12:59:03.187878,4.0
2023-08-15 12:59:03.195567,-53.0
2023-08-15 12:59:03.203256,-207.0
2023-08-15 12:59:03.210946,-571.0
2023-08-15 12:59:03.218635,-1003.0
2023-08-15 12:59:03.226324,-979.0
2023-08-15 12:59:03.234014,-328.0
2023-08-15 12:59:03.241703,318.0
2023-08-15 12:59:03.249393,340.0
2023-08-15 12:59:03.257082,41.0
2023-08-15 12:59:03.264771,14.0
2023-08-15 12:59:03.272461,118.0
2023-08-15 12:59:03.280150,74.0
2023-08-15 12:59:03.287839,41.0
2023-08-15 12:59:03.295529,62.0
2023-08-15 12:59:03.303218,36.0
2023-08-15 12:59:03.310907,7.0
2023-08-15 12:59:03.318597,16.0
2023-08-15 12:59:03.326286,12.0
2023-08-15 12:59:03.333975,2.0
2023-08-15 12:59:03.341665,9.0
2023-08-15 12:59:03.349354,-2.0
2023-08-15 12:59:03.357044,-31.0
2023-08-15 12:59:03.364733,-48.0
2023-08-15 12:59:03.372422,-60.0
2023-08-15 12:59:03.380112,-79.0
2023-08-15 12:59:03.387801,-79.0
2023-08-15 12:59:03.395490,-82.0
2023-08-15 12:59:03.403180,-103.0
2023-08-15 12:59:03.410869,-110.0
2023-08-15 12:59:03.418558,-98.0
2023-08-15 12:59:03.426248,-89.0
2023-08-15 12:59:03.433937,-96.0
2023-08-15 12:59:03.441626,-94.0
2023-08-15 12:59:03.449316,-86.0
2023-08-15 12:59:03.457005,-82.0
2023-08-15 12:59:03.464695,-60.0
2023-08-15 12:59:03.472384,-41.0
2023-08-15 12:59:03.480073,-50.0
2023-08-15 12:59:03.487763,-50.0
2023-08-15 12:59:03.495452,-41.0
2023-08-15 12:59:03.503141,-43.0
2023-08-15 12:59:03.510831,-48.0
2023-08-15 12:59:03.518520,-36.0
2023-08-15 12:59:03.526209,-19.0
2023-08-15 12:59:03.533899,-19.0
2023-08-15 12:59:03.541588,-33.0
2023-08-15 12:59:03.549278,-50.0
2023-08-15 12:59:03.556967,-53.0
2023-08-15 12:59:03.564656,-38.0
2023-08-15 12:59:03.572346,-36.0
2023-08-15 12:59:03.580035,-50.0
2023-08-15 12:59:03.587724,-53.0
2023-08-15 12:59:03.595414,-41.0
2023-08-15 12:59:03.603103,-38.0
2023-08-15 12:59:03.610792,-53.0
2023-08-15 12:59:03.618482,-57.0
2023-08-15 12:59:03.626171,-41.0
2023-08-15 12:59:03.633860,-53.0
2023-08-15 12:59:03.641550,-65.0
2023-08-15 12:59:03.649239,-48.0
2023-08-15 12:59:03.656929,-43.0
2023-08-15 12:59:03.664618,-48.0
2023-08-15 12:59:03.672307,-38.0
2023-08-15 12:59:03.679997,-38.0
2023-08-15 12:59:03.687686,-48.0
2023-08-15 12:59:03.695375,-36.0
2023-08-15 12:59:03.703065,-21.0
2023-08-15 12:59:03.710754,-31.0
2023-08-15 12:59:03.718443,-26.0
2023-08-15 12:59:03.726133,-28.0
2023-08-15 12:59:03.733822,-55.0
2023-08-15 12:59:03.741511,-60.0
2023-08-15 12:59:03.749201,-55.0
2023-08-15 12:59:03.756890,-72.0
2023-08-15 12:59:03.764580,-79.0
2023-08-15 12:59:03.772269,-98.0
2023-08-15 12:59:03.779958,-132.0
2023-08-15 12:59:03.787648,-115.0
2023-08-15 12:59:03.795337,-57.0
2023-08-15 12:59:03.803026,-24.0
2023-08-15 12:59:03.810716,-16.0
2023-08-15 12:59:03.818405,-9.0
2023-08-15 12:59:03.826094,14.0
2023-08-15 12:59:03.833784,24.0
2023-08-15 12:59:03.841473,-4.0
2023-08-15 12:59:03.849162,-16.0
2023-08-15 12:59:03.856852,-4.0
2023-08-15 12:59:03.864541,-14.0
2023-08-15 12:59:03.872231,-16.0
2023-08-15 12:59:03.879920,2.0
2023-08-15 12:59:03.887609,-26.0
2023-08-15 12:59:03.895299,-185.0
2023-08-15 12:59:03.902988,-513.0
2023-08-15 12:59:03.910677,-909.0
2023-08-15 12:59:03.918367,-962.0
2023-08-15 12:59:03.926056,-400.0
2023-08-15 12:59:03.933745,263.0
2023-08-15 12:59:03.941435,332.0
2023-08-15 12:59:03.949124,33.0
2023-08-15 12:59:03.956814,-7.0
2023-08-15 12:59:03.964503,106.0
2023-08-15 12:59:03.972192,67.0
2023-08-15 12:59:03.979882,21.0
2023-08-15 12:59:03.987571,50.0
2023-08-15 12:59:03.995260,38.0
2023-08-15 12:59:04.002950,7.0
2023-08-15 12:59:04.010639,7.0
2023-08-15 12:59:04.018328,9.0
2023-08-15 12:59:04.026018,2.0
2023-08-15 12:59:04.033707,-4.0
2023-08-15 12:59:04.041396,-19.0
2023-08-15 12:59:04.049086,-33.0
2023-08-15 12:59:04.056775,-41.0
2023-08-15 12:59:04.064465,-53.0
2023-08-15 12:59:04.072154,-69.0
2023-08-15 12:59:04.079843,-74.0
2023-08-15 12:59:04.087533,-79.0
2023-08-15 12:59:04.095222,-98.0
2023-08-15 12:59:04.102911,-123.0
2023-08-15 12:59:04.110601,-137.0
2023-08-15 12:59:04.118290,-132.0
2023-08-15 12:59:04.125979,-115.0
2023-08-15 12:59:04.133669,-110.0
2023-08-15 12:59:04.141358,-106.0
2023-08-15 12:59:04.149047,-96.0
2023-08-15 12:59:04.156737,-84.0
2023-08-15 12:59:04.164426,-67.0
2023-08-15 12:59:04.172116,-60.0
2023-08-15 12:59:04.179805,-60.0
2023-08-15 12:59:04.187494,-50.0
2023-08-15 12:59:04.195184,-48.0
2023-08-15 12:59:04.202873,-48.0
2023-08-15 12:59:04.210562,-36.0
2023-08-15 12:59:04.218252,-26.0
2023-08-15 12:59:04.225941,-38.0
2023-08-15 12:59:04.233630,-48.0
2023-08-15 12:59:04.241320,-33.0
2023-08-15 12:59:04.249009,-12.0
2023-08-15 12:59:04.256699,-16.0
2023-08-15 12:59:04.264388,-48.0
2023-08-15 12:59:04.272077,-50.0
2023-08-15 12:59:04.279767,-28.0
2023-08-15 12:59:04.287456,-31.0
2023-08-15 12:59:04.295145,-33.0
2023-08-15 12:59:04.302835,-16.0
2023-08-15 12:59:04.310524,-16.0
2023-08-15 12:59:04.318213,-36.0
2023-08-15 12:59:04.325903,-38.0
2023-08-15 12:59:04.333592,-21.0
2023-08-15 12:59:04.341281,-19.0
2023-08-15 12:59:04.348971,-24.0
2023-08-15 12:59:04.356660,-24.0
2023-08-15 12:59:04.364350,-16.0
2023-08-15 12:59:04.372039,-9.0
2023-08-15 12:59:04.379728,-12.0
2023-08-15 12:59:04.387418,-24.0
2023-08-15 12:59:04.395107,-36.0
2023-08-15 12:59:04.402796,-41.0
2023-08-15 12:59:04.410486,-26.0
2023-08-15 12:59:04.418175,-12.0
2023-08-15 12:59:04.425864,-24.0
2023-08-15 12:59:04.433554,-41.0
2023-08-15 12:59:04.441243,-50.0
2023-08-15 12:59:04.448932,-65.0
2023-08-15 12:59:04.456622,-74.0
2023-08-15 12:59:04.464311,-94.0
2023-08-15 12:59:04.472001,-132.0
2023-08-15 12:59:04.479690,-118.0
2023-08-15 12:59:04.487379,-50.0
2023-08-15 12:59:04.495069,-19.0
2023-08-15 12:59:04.502758,-28.0
2023-08-15 12:59:04.510447,-9.0
2023-08-15 12:59:04.518137,24.0
2023-08-15 12:59:04.525826,21.0
2023-08-15 12:59:04.533515,0.0
2023-08-15 12:59:04.541205,0.0
2023-08-15 12:59:04.548894,2.0
2023-08-15 12:59:04.556583,-7.0
2023-08-15 12:59:04.564273,-2.0
2023-08-15 12:59:04.571962,14.0
2023-08-15 12:59:04.579652,0.0
2023-08-15 12:59:04.587341,-113.0
2023-08-15 12:59:04.595030,-400.0
2023-08-15 12:59:04.602720,-791.0
2023-08-15 12:59:04.610409,-945.0
2023-08-15 12:59:04.618098,-552.0
2023-08-15 12:59:04.625788,120.0
2023-08-15 12:59:04.633477,361.0
2023-08-15 12:59:04.641166,103.0
2023-08-15 12:59:04.648856,-16.0
2023-08-15 12:59:04.656545,91.0
2023-08-15 12:59:04.664235,84.0
2023-08-15 12:59:04.671924,4.0
2023-08-15 12:59:04.679613,0.0
2023-08-15 12:59:04.687303,33.0
2023-08-15 12:59:04.694992,28.0
2023-08-15 12:59:04.702681,0.0
2023-08-15 12:59:04.710371,-21.0
2023-08-15 12:59:04.718060,-31.0
2023-08-15 12:59:04.725749,-38.0
2023-08-15 12:59:04.733439,-38.0
2023-08-15 12:59:04.741128,-50.0
2023-08-15 12:59:04.748817,-60.0
2023-08-15 12:59:04.756507,-67.0
2023-08-15 12:59:04.764196,-82.0
2023-08-15 12:59:04.771886,-94.0
2023-08-15 12:59:04.779575,-96.0
2023-08-15 12:59:04.787264,-96.0
2023-08-15 12:59:04.794954,-96.0
2023-08-15 12:59:04.802643,-113.0
2023-08-15 12:59:04.810332,-135.0
2023-08-15 12:59:04.818022,-123.0
2023-08-15 12:59:04.825711,-91.0
2023-08-15 12:59:04.833400,-79.0
2023-08-15 12:59:04.841090,-89.0
2023-08-15 12:59:04.848779,-89.0
2023-08-15 12:59:04.856468,-74.0
2023-08-15 12:59:04.864158,-79.0
2023-08-15 12:59:04.871847,-79.0
2023-08-15 12:59:04.879537,-62.0
2023-08-15 12:59:04.887226,-53.0
2023-08-15 12:59:04.894915,-55.0
2023-08-15 12:59:04.902605,-60.0
2023-08-15 12:59:04.910294,-48.0
2023-08-15 12:59:04.917983,-28.0
2023-08-15 12:59:04.925673,-33.0
2023-08-15 12:59:04.933362,-55.0
2023-08-15 12:59:04.941051,-55.0
2023-08-15 12:59:04.948741,-45.0
2023-08-15 12:59:04.956430,-41.0
2023-08-15 12:59:04.964119,-31.0
