time,ECG
2023-08-12 14:29:49.797948,-76.0
2023-08-12 14:29:49.805638,-78.0
2023-08-12 14:29:49.813328,-73.0
2023-08-12 14:29:49.821018,-71.0
2023-08-12 14:29:49.828708,-71.0
2023-08-12 14:29:49.836398,-71.0
2023-08-12 14:29:49.844088,-69.0
2023-08-12 14:29:49.851778,-66.0
2023-08-12 14:29:49.859467,-59.0
2023-08-12 14:29:49.867157,-57.0
2023-08-12 14:29:49.874847,-54.0
2023-08-12 14:29:49.882537,-47.0
2023-08-12 14:29:49.890227,-40.0
2023-08-12 14:29:49.897917,-35.0
2023-08-12 14:29:49.905607,-33.0
2023-08-12 14:29:49.913297,-40.0
2023-08-12 14:29:49.920987,-47.0
2023-08-12 14:29:49.928677,-49.0
2023-08-12 14:29:49.936367,-57.0
2023-08-12 14:29:49.944057,-71.0
2023-08-12 14:29:49.951747,-83.0
2023-08-12 14:29:49.959437,-83.0
2023-08-12 14:29:49.967127,-76.0
2023-08-12 14:29:49.974817,-76.0
2023-08-12 14:29:49.982507,-78.0
2023-08-12 14:29:49.990197,-78.0
2023-08-12 14:29:49.997887,-73.0
2023-08-12 14:29:50.005577,-2.0
2023-08-12 14:29:50.013267,207.0
2023-08-12 14:29:50.020957,464.0
2023-08-12 14:29:50.028647,495.0
2023-08-12 14:29:50.036337,188.0
2023-08-12 14:29:50.044027,-149.0
2023-08-12 14:29:50.051717,-204.0
2023-08-12 14:29:50.059407,-154.0
2023-08-12 14:29:50.067097,-169.0
2023-08-12 14:29:50.074787,-142.0
2023-08-12 14:29:50.082476,-92.0
2023-08-12 14:29:50.090166,-102.0
2023-08-12 14:29:50.097856,-107.0
2023-08-12 14:29:50.105546,-90.0
2023-08-12 14:29:50.113236,-88.0
2023-08-12 14:29:50.120926,-88.0
2023-08-12 14:29:50.128616,-73.0
2023-08-12 14:29:50.136306,-69.0
2023-08-12 14:29:50.143996,-69.0
2023-08-12 14:29:50.151686,-59.0
2023-08-12 14:29:50.159376,-49.0
2023-08-12 14:29:50.167066,-47.0
2023-08-12 14:29:50.174756,-33.0
2023-08-12 14:29:50.182446,-11.0
2023-08-12 14:29:50.190136,-4.0
2023-08-12 14:29:50.197826,4.0
2023-08-12 14:29:50.205516,19.0
2023-08-12 14:29:50.213206,35.0
2023-08-12 14:29:50.220896,47.0
2023-08-12 14:29:50.228586,64.0
2023-08-12 14:29:50.236276,71.0
2023-08-12 14:29:50.243966,66.0
2023-08-12 14:29:50.251656,54.0
2023-08-12 14:29:50.259346,45.0
2023-08-12 14:29:50.267036,30.0
2023-08-12 14:29:50.274726,4.0
2023-08-12 14:29:50.282416,-33.0
2023-08-12 14:29:50.290106,-71.0
2023-08-12 14:29:50.297796,-104.0
2023-08-12 14:29:50.305485,-130.0
2023-08-12 14:29:50.313175,-142.0
2023-08-12 14:29:50.320865,-145.0
2023-08-12 14:29:50.328555,-147.0
2023-08-12 14:29:50.336245,-149.0
2023-08-12 14:29:50.343935,-145.0
2023-08-12 14:29:50.351625,-140.0
2023-08-12 14:29:50.359315,-135.0
2023-08-12 14:29:50.367005,-128.0
2023-08-12 14:29:50.374695,-126.0
2023-08-12 14:29:50.382385,-123.0
2023-08-12 14:29:50.390075,-121.0
2023-08-12 14:29:50.397765,-111.0
2023-08-12 14:29:50.405455,-109.0
2023-08-12 14:29:50.413145,-107.0
2023-08-12 14:29:50.420835,-102.0
2023-08-12 14:29:50.428525,-97.0
2023-08-12 14:29:50.436215,-97.0
2023-08-12 14:29:50.443905,-92.0
2023-08-12 14:29:50.451595,-85.0
2023-08-12 14:29:50.459285,-83.0
2023-08-12 14:29:50.466975,-85.0
2023-08-12 14:29:50.474665,-85.0
2023-08-12 14:29:50.482355,-85.0
2023-08-12 14:29:50.490045,-83.0
2023-08-12 14:29:50.497735,-78.0
2023-08-12 14:29:50.505425,-76.0
2023-08-12 14:29:50.513115,-80.0
2023-08-12 14:29:50.520805,-80.0
2023-08-12 14:29:50.528494,-80.0
2023-08-12 14:29:50.536184,-80.0
2023-08-12 14:29:50.543874,-78.0
2023-08-12 14:29:50.551564,-76.0
2023-08-12 14:29:50.559254,-80.0
2023-08-12 14:29:50.566944,-88.0
2023-08-12 14:29:50.574634,-85.0
2023-08-12 14:29:50.582324,-80.0
2023-08-12 14:29:50.590014,-78.0
2023-08-12 14:29:50.597704,-78.0
2023-08-12 14:29:50.605394,-76.0
2023-08-12 14:29:50.613084,-76.0
2023-08-12 14:29:50.620774,-73.0
2023-08-12 14:29:50.628464,-76.0
2023-08-12 14:29:50.636154,-78.0
2023-08-12 14:29:50.643844,-76.0
2023-08-12 14:29:50.651534,-73.0
2023-08-12 14:29:50.659224,-73.0
2023-08-12 14:29:50.666914,-71.0
2023-08-12 14:29:50.674604,-69.0
2023-08-12 14:29:50.682294,-69.0
2023-08-12 14:29:50.689984,-69.0
2023-08-12 14:29:50.697674,-66.0
2023-08-12 14:29:50.705364,-64.0
2023-08-12 14:29:50.713054,-66.0
2023-08-12 14:29:50.720744,-66.0
2023-08-12 14:29:50.728434,-64.0
2023-08-12 14:29:50.736124,-61.0
2023-08-12 14:29:50.743814,-64.0
2023-08-12 14:29:50.751504,-64.0
2023-08-12 14:29:50.759193,-59.0
2023-08-12 14:29:50.766883,-57.0
2023-08-12 14:29:50.774573,-49.0
2023-08-12 14:29:50.782263,-40.0
2023-08-12 14:29:50.789953,-33.0
2023-08-12 14:29:50.797643,-33.0
2023-08-12 14:29:50.805333,-38.0
2023-08-12 14:29:50.813023,-42.0
2023-08-12 14:29:50.820713,-45.0
2023-08-12 14:29:50.828403,-52.0
2023-08-12 14:29:50.836093,-66.0
2023-08-12 14:29:50.843783,-76.0
2023-08-12 14:29:50.851473,-78.0
2023-08-12 14:29:50.859163,-76.0
2023-08-12 14:29:50.866853,-71.0
2023-08-12 14:29:50.874543,-69.0
2023-08-12 14:29:50.882233,-71.0
2023-08-12 14:29:50.889923,-69.0
2023-08-12 14:29:50.897613,-14.0
2023-08-12 14:29:50.905303,169.0
2023-08-12 14:29:50.912993,433.0
2023-08-12 14:29:50.920683,533.0
2023-08-12 14:29:50.928373,283.0
2023-08-12 14:29:50.936063,-83.0
2023-08-12 14:29:50.943753,-202.0
2023-08-12 14:29:50.951443,-157.0
2023-08-12 14:29:50.959133,-164.0
2023-08-12 14:29:50.966823,-145.0
2023-08-12 14:29:50.974513,-85.0
2023-08-12 14:29:50.982202,-85.0
2023-08-12 14:29:50.989892,-99.0
2023-08-12 14:29:50.997582,-83.0
2023-08-12 14:29:51.005272,-71.0
2023-08-12 14:29:51.012962,-71.0
2023-08-12 14:29:51.020652,-61.0
2023-08-12 14:29:51.028342,-52.0
2023-08-12 14:29:51.036032,-47.0
2023-08-12 14:29:51.043722,-40.0
2023-08-12 14:29:51.051412,-35.0
2023-08-12 14:29:51.059102,-28.0
2023-08-12 14:29:51.066792,-16.0
2023-08-12 14:29:51.074482,-2.0
2023-08-12 14:29:51.082172,7.0
2023-08-12 14:29:51.089862,19.0
2023-08-12 14:29:51.097552,33.0
2023-08-12 14:29:51.105242,47.0
2023-08-12 14:29:51.112932,59.0
2023-08-12 14:29:51.120622,69.0
2023-08-12 14:29:51.128312,76.0
2023-08-12 14:29:51.136002,80.0
2023-08-12 14:29:51.143692,71.0
2023-08-12 14:29:51.151382,54.0
2023-08-12 14:29:51.159072,35.0
2023-08-12 14:29:51.166762,16.0
2023-08-12 14:29:51.174452,-19.0
2023-08-12 14:29:51.182142,-59.0
2023-08-12 14:29:51.189832,-92.0
2023-08-12 14:29:51.197522,-116.0
2023-08-12 14:29:51.205211,-128.0
2023-08-12 14:29:51.212901,-138.0
2023-08-12 14:29:51.220591,-142.0
2023-08-12 14:29:51.228281,-145.0
2023-08-12 14:29:51.235971,-142.0
2023-08-12 14:29:51.243661,-138.0
2023-08-12 14:29:51.251351,-138.0
2023-08-12 14:29:51.259041,-135.0
2023-08-12 14:29:51.266731,-130.0
2023-08-12 14:29:51.274421,-128.0
2023-08-12 14:29:51.282111,-123.0
2023-08-12 14:29:51.289801,-116.0
2023-08-12 14:29:51.297491,-109.0
2023-08-12 14:29:51.305181,-107.0
2023-08-12 14:29:51.312871,-104.0
2023-08-12 14:29:51.320561,-99.0
2023-08-12 14:29:51.328251,-97.0
2023-08-12 14:29:51.335941,-99.0
2023-08-12 14:29:51.343631,-92.0
2023-08-12 14:29:51.351321,-85.0
2023-08-12 14:29:51.359011,-88.0
2023-08-12 14:29:51.366701,-95.0
2023-08-12 14:29:51.374391,-97.0
2023-08-12 14:29:51.382081,-90.0
2023-08-12 14:29:51.389771,-88.0
2023-08-12 14:29:51.397461,-90.0
2023-08-12 14:29:51.405151,-90.0
2023-08-12 14:29:51.412841,-90.0
2023-08-12 14:29:51.420531,-90.0
2023-08-12 14:29:51.428220,-90.0
2023-08-12 14:29:51.435910,-85.0
2023-08-12 14:29:51.443600,-80.0
2023-08-12 14:29:51.451290,-80.0
2023-08-12 14:29:51.458980,-83.0
2023-08-12 14:29:51.466670,-83.0
2023-08-12 14:29:51.474360,-78.0
2023-08-12 14:29:51.482050,-76.0
2023-08-12 14:29:51.489740,-73.0
2023-08-12 14:29:51.497430,-73.0
2023-08-12 14:29:51.505120,-76.0
2023-08-12 14:29:51.512810,-76.0
2023-08-12 14:29:51.520500,-73.0
2023-08-12 14:29:51.528190,-71.0
2023-08-12 14:29:51.535880,-71.0
2023-08-12 14:29:51.543570,-69.0
2023-08-12 14:29:51.551260,-69.0
2023-08-12 14:29:51.558950,-71.0
2023-08-12 14:29:51.566640,-66.0
2023-08-12 14:29:51.574330,-64.0
2023-08-12 14:29:51.582020,-61.0
2023-08-12 14:29:51.589710,-64.0
2023-08-12 14:29:51.597400,-69.0
2023-08-12 14:29:51.605090,-73.0
2023-08-12 14:29:51.612780,-76.0
2023-08-12 14:29:51.620470,-73.0
2023-08-12 14:29:51.628160,-69.0
2023-08-12 14:29:51.635850,-66.0
2023-08-12 14:29:51.643540,-71.0
2023-08-12 14:29:51.651230,-71.0
2023-08-12 14:29:51.658919,-61.0
2023-08-12 14:29:51.666609,-57.0
2023-08-12 14:29:51.674299,-57.0
2023-08-12 14:29:51.681989,-57.0
2023-08-12 14:29:51.689679,-54.0
2023-08-12 14:29:51.697369,-45.0
2023-08-12 14:29:51.705059,-38.0
2023-08-12 14:29:51.712749,-40.0
2023-08-12 14:29:51.720439,-47.0
2023-08-12 14:29:51.728129,-52.0
2023-08-12 14:29:51.735819,-61.0
2023-08-12 14:29:51.743509,-73.0
2023-08-12 14:29:51.751199,-85.0
2023-08-12 14:29:51.758889,-99.0
2023-08-12 14:29:51.766579,-99.0
2023-08-12 14:29:51.774269,-92.0
2023-08-12 14:29:51.781959,-92.0
2023-08-12 14:29:51.789649,-92.0
2023-08-12 14:29:51.797339,-90.0
2023-08-12 14:29:51.805029,-49.0
2023-08-12 14:29:51.812719,116.0
2023-08-12 14:29:51.820409,380.0
2023-08-12 14:29:51.828099,523.0
2023-08-12 14:29:51.835789,328.0
2023-08-12 14:29:51.843479,-47.0
2023-08-12 14:29:51.851169,-211.0
2023-08-12 14:29:51.858859,-176.0
2023-08-12 14:29:51.866549,-176.0
2023-08-12 14:29:51.874239,-166.0
2023-08-12 14:29:51.881928,-104.0
2023-08-12 14:29:51.889618,-97.0
2023-08-12 14:29:51.897308,-109.0
2023-08-12 14:29:51.904998,-90.0
2023-08-12 14:29:51.912688,-80.0
2023-08-12 14:29:51.920378,-85.0
2023-08-12 14:29:51.928068,-73.0
2023-08-12 14:29:51.935758,-59.0
2023-08-12 14:29:51.943448,-54.0
2023-08-12 14:29:51.951138,-45.0
2023-08-12 14:29:51.958828,-38.0
2023-08-12 14:29:51.966518,-33.0
2023-08-12 14:29:51.974208,-19.0
2023-08-12 14:29:51.981898,-4.0
2023-08-12 14:29:51.989588,4.0
2023-08-12 14:29:51.997278,14.0
2023-08-12 14:29:52.004968,26.0
2023-08-12 14:29:52.012658,42.0
2023-08-12 14:29:52.020348,59.0
2023-08-12 14:29:52.028038,76.0
2023-08-12 14:29:52.035728,80.0
2023-08-12 14:29:52.043418,83.0
2023-08-12 14:29:52.051108,78.0
2023-08-12 14:29:52.058798,69.0
2023-08-12 14:29:52.066488,57.0
2023-08-12 14:29:52.074178,33.0
2023-08-12 14:29:52.081868,2.0
2023-08-12 14:29:52.089558,-35.0
2023-08-12 14:29:52.097248,-73.0
2023-08-12 14:29:52.104937,-104.0
2023-08-12 14:29:52.112627,-123.0
2023-08-12 14:29:52.120317,-133.0
2023-08-12 14:29:52.128007,-138.0
2023-08-12 14:29:52.135697,-135.0
2023-08-12 14:29:52.143387,-130.0
2023-08-12 14:29:52.151077,-128.0
2023-08-12 14:29:52.158767,-126.0
2023-08-12 14:29:52.166457,-119.0
2023-08-12 14:29:52.174147,-114.0
2023-08-12 14:29:52.181837,-109.0
2023-08-12 14:29:52.189527,-107.0
2023-08-12 14:29:52.197217,-102.0
2023-08-12 14:29:52.204907,-97.0
2023-08-12 14:29:52.212597,-92.0
2023-08-12 14:29:52.220287,-92.0
2023-08-12 14:29:52.227977,-90.0
2023-08-12 14:29:52.235667,-85.0
2023-08-12 14:29:52.243357,-85.0
2023-08-12 14:29:52.251047,-80.0
2023-08-12 14:29:52.258737,-73.0
2023-08-12 14:29:52.266427,-78.0
2023-08-12 14:29:52.274117,-90.0
2023-08-12 14:29:52.281807,-92.0
2023-08-12 14:29:52.289497,-88.0
2023-08-12 14:29:52.297187,-80.0
2023-08-12 14:29:52.304877,-80.0
2023-08-12 14:29:52.312567,-83.0
2023-08-12 14:29:52.320257,-85.0
2023-08-12 14:29:52.327946,-83.0
2023-08-12 14:29:52.335636,-80.0
2023-08-12 14:29:52.343326,-80.0
2023-08-12 14:29:52.351016,-80.0
2023-08-12 14:29:52.358706,-83.0
2023-08-12 14:29:52.366396,-83.0
2023-08-12 14:29:52.374086,-83.0
2023-08-12 14:29:52.381776,-80.0
2023-08-12 14:29:52.389466,-80.0
2023-08-12 14:29:52.397156,-78.0
2023-08-12 14:29:52.404846,-78.0
2023-08-12 14:29:52.412536,-80.0
2023-08-12 14:29:52.420226,-78.0
2023-08-12 14:29:52.427916,-76.0
2023-08-12 14:29:52.435606,-73.0
2023-08-12 14:29:52.443296,-73.0
2023-08-12 14:29:52.450986,-73.0
2023-08-12 14:29:52.458676,-73.0
2023-08-12 14:29:52.466366,-71.0
2023-08-12 14:29:52.474056,-73.0
2023-08-12 14:29:52.481746,-71.0
2023-08-12 14:29:52.489436,-69.0
2023-08-12 14:29:52.497126,-71.0
2023-08-12 14:29:52.504816,-71.0
2023-08-12 14:29:52.512506,-71.0
2023-08-12 14:29:52.520196,-76.0
2023-08-12 14:29:52.527886,-78.0
2023-08-12 14:29:52.535576,-76.0
2023-08-12 14:29:52.543266,-71.0
2023-08-12 14:29:52.550956,-69.0
2023-08-12 14:29:52.558645,-66.0
2023-08-12 14:29:52.566335,-57.0
2023-08-12 14:29:52.574025,-45.0
2023-08-12 14:29:52.581715,-42.0
2023-08-12 14:29:52.589405,-40.0
2023-08-12 14:29:52.597095,-49.0
2023-08-12 14:29:52.604785,-61.0
2023-08-12 14:29:52.612475,-61.0
2023-08-12 14:29:52.620165,-64.0
2023-08-12 14:29:52.627855,-76.0
2023-08-12 14:29:52.635545,-92.0
2023-08-12 14:29:52.643235,-95.0
2023-08-12 14:29:52.650925,-90.0
2023-08-12 14:29:52.658615,-88.0
2023-08-12 14:29:52.666305,-83.0
2023-08-12 14:29:52.673995,-83.0
2023-08-12 14:29:52.681685,-76.0
2023-08-12 14:29:52.689375,-2.0
2023-08-12 14:29:52.697065,202.0
2023-08-12 14:29:52.704755,459.0
2023-08-12 14:29:52.712445,499.0
2023-08-12 14:29:52.720135,192.0
2023-08-12 14:29:52.727825,-152.0
2023-08-12 14:29:52.735515,-207.0
2023-08-12 14:29:52.743205,-157.0
2023-08-12 14:29:52.750895,-171.0
2023-08-12 14:29:52.758585,-130.0
2023-08-12 14:29:52.766275,-76.0
2023-08-12 14:29:52.773965,-90.0
2023-08-12 14:29:52.781654,-102.0
2023-08-12 14:29:52.789344,-78.0
2023-08-12 14:29:52.797034,-69.0
2023-08-12 14:29:52.804724,-69.0
2023-08-12 14:29:52.812414,-66.0
2023-08-12 14:29:52.820104,-64.0
2023-08-12 14:29:52.827794,-57.0
2023-08-12 14:29:52.835484,-47.0
2023-08-12 14:29:52.843174,-40.0
2023-08-12 14:29:52.850864,-38.0
2023-08-12 14:29:52.858554,-40.0
2023-08-12 14:29:52.866244,-23.0
2023-08-12 14:29:52.873934,2.0
2023-08-12 14:29:52.881624,11.0
2023-08-12 14:29:52.889314,16.0
2023-08-12 14:29:52.897004,35.0
2023-08-12 14:29:52.904694,57.0
2023-08-12 14:29:52.912384,69.0
2023-08-12 14:29:52.920074,78.0
2023-08-12 14:29:52.927764,83.0
2023-08-12 14:29:52.935454,76.0
2023-08-12 14:29:52.943144,66.0
2023-08-12 14:29:52.950834,49.0
2023-08-12 14:29:52.958524,16.0
2023-08-12 14:29:52.966214,-21.0
2023-08-12 14:29:52.973904,-57.0
2023-08-12 14:29:52.981594,-90.0
2023-08-12 14:29:52.989284,-119.0
2023-08-12 14:29:52.996974,-145.0
2023-08-12 14:29:53.004663,-152.0
2023-08-12 14:29:53.012353,-149.0
2023-08-12 14:29:53.020043,-154.0
2023-08-12 14:29:53.027733,-152.0
2023-08-12 14:29:53.035423,-142.0
2023-08-12 14:29:53.043113,-140.0
2023-08-12 14:29:53.050803,-138.0
2023-08-12 14:29:53.058493,-128.0
2023-08-12 14:29:53.066183,-119.0
2023-08-12 14:29:53.073873,-116.0
2023-08-12 14:29:53.081563,-116.0
2023-08-12 14:29:53.089253,-114.0
2023-08-12 14:29:53.096943,-111.0
2023-08-12 14:29:53.104633,-107.0
2023-08-12 14:29:53.112323,-99.0
2023-08-12 14:29:53.120013,-102.0
2023-08-12 14:29:53.127703,-104.0
2023-08-12 14:29:53.135393,-95.0
2023-08-12 14:29:53.143083,-90.0
2023-08-12 14:29:53.150773,-92.0
2023-08-12 14:29:53.158463,-90.0
2023-08-12 14:29:53.166153,-85.0
2023-08-12 14:29:53.173843,-88.0
2023-08-12 14:29:53.181533,-88.0
2023-08-12 14:29:53.189223,-85.0
2023-08-12 14:29:53.196913,-80.0
2023-08-12 14:29:53.204603,-85.0
2023-08-12 14:29:53.212293,-90.0
2023-08-12 14:29:53.219983,-90.0
2023-08-12 14:29:53.227672,-85.0
2023-08-12 14:29:53.235362,-85.0
2023-08-12 14:29:53.243052,-78.0
2023-08-12 14:29:53.250742,-76.0
2023-08-12 14:29:53.258432,-83.0
2023-08-12 14:29:53.266122,-83.0
2023-08-12 14:29:53.273812,-73.0
2023-08-12 14:29:53.281502,-73.0
2023-08-12 14:29:53.289192,-76.0
2023-08-12 14:29:53.296882,-73.0
2023-08-12 14:29:53.304572,-73.0
2023-08-12 14:29:53.312262,-78.0
2023-08-12 14:29:53.319952,-78.0
2023-08-12 14:29:53.327642,-73.0
2023-08-12 14:29:53.335332,-71.0
2023-08-12 14:29:53.343022,-76.0
2023-08-12 14:29:53.350712,-83.0
2023-08-12 14:29:53.358402,-85.0
2023-08-12 14:29:53.366092,-78.0
2023-08-12 14:29:53.373782,-71.0
2023-08-12 14:29:53.381472,-73.0
2023-08-12 14:29:53.389162,-73.0
2023-08-12 14:29:53.396852,-66.0
2023-08-12 14:29:53.404542,-66.0
2023-08-12 14:29:53.412232,-64.0
2023-08-12 14:29:53.419922,-64.0
2023-08-12 14:29:53.427612,-66.0
2023-08-12 14:29:53.435302,-69.0
2023-08-12 14:29:53.442992,-78.0
2023-08-12 14:29:53.450682,-92.0
2023-08-12 14:29:53.458371,-102.0
2023-08-12 14:29:53.466061,-97.0
2023-08-12 14:29:53.473751,-90.0
2023-08-12 14:29:53.481441,-92.0
2023-08-12 14:29:53.489131,-95.0
2023-08-12 14:29:53.496821,-92.0
2023-08-12 14:29:53.504511,-85.0
2023-08-12 14:29:53.512201,-19.0
2023-08-12 14:29:53.519891,192.0
2023-08-12 14:29:53.527581,466.0
2023-08-12 14:29:53.535271,507.0
2023-08-12 14:29:53.542961,164.0
2023-08-12 14:29:53.550651,-185.0
2023-08-12 14:29:53.558341,-207.0
2023-08-12 14:29:53.566031,-145.0
2023-08-12 14:29:53.573721,-188.0
2023-08-12 14:29:53.581411,-154.0
2023-08-12 14:29:53.589101,-83.0
2023-08-12 14:29:53.596791,-95.0
2023-08-12 14:29:53.604481,-107.0
2023-08-12 14:29:53.612171,-76.0
2023-08-12 14:29:53.619861,-69.0
2023-08-12 14:29:53.627551,-76.0
2023-08-12 14:29:53.635241,-59.0
2023-08-12 14:29:53.642931,-47.0
2023-08-12 14:29:53.650621,-45.0
2023-08-12 14:29:53.658311,-33.0
2023-08-12 14:29:53.666001,-28.0
2023-08-12 14:29:53.673691,-23.0
2023-08-12 14:29:53.681380,-9.0
2023-08-12 14:29:53.689070,2.0
2023-08-12 14:29:53.696760,11.0
2023-08-12 14:29:53.704450,26.0
2023-08-12 14:29:53.712140,42.0
2023-08-12 14:29:53.719830,61.0
2023-08-12 14:29:53.727520,78.0
2023-08-12 14:29:53.735210,90.0
2023-08-12 14:29:53.742900,97.0
2023-08-12 14:29:53.750590,97.0
2023-08-12 14:29:53.758280,90.0
2023-08-12 14:29:53.765970,80.0
2023-08-12 14:29:53.773660,59.0
2023-08-12 14:29:53.781350,28.0
2023-08-12 14:29:53.789040,-9.0
2023-08-12 14:29:53.796730,-54.0
2023-08-12 14:29:53.804420,-95.0
2023-08-12 14:29:53.812110,-116.0
2023-08-12 14:29:53.819800,-128.0
2023-08-12 14:29:53.827490,-138.0
2023-08-12 14:29:53.835180,-140.0
2023-08-12 14:29:53.842870,-140.0
2023-08-12 14:29:53.850560,-140.0
2023-08-12 14:29:53.858250,-135.0
2023-08-12 14:29:53.865940,-123.0
2023-08-12 14:29:53.873630,-123.0
2023-08-12 14:29:53.881320,-121.0
2023-08-12 14:29:53.889010,-114.0
2023-08-12 14:29:53.896700,-114.0
2023-08-12 14:29:53.904389,-114.0
2023-08-12 14:29:53.912079,-99.0
2023-08-12 14:29:53.919769,-90.0
2023-08-12 14:29:53.927459,-92.0
2023-08-12 14:29:53.935149,-99.0
2023-08-12 14:29:53.942839,-97.0
2023-08-12 14:29:53.950529,-90.0
2023-08-12 14:29:53.958219,-90.0
2023-08-12 14:29:53.965909,-85.0
2023-08-12 14:29:53.973599,-80.0
2023-08-12 14:29:53.981289,-83.0
2023-08-12 14:29:53.988979,-88.0
2023-08-12 14:29:53.996669,-85.0
2023-08-12 14:29:54.004359,-76.0
2023-08-12 14:29:54.012049,-78.0
2023-08-12 14:29:54.019739,-92.0
2023-08-12 14:29:54.027429,-99.0
2023-08-12 14:29:54.035119,-92.0
2023-08-12 14:29:54.042809,-83.0
2023-08-12 14:29:54.050499,-88.0
2023-08-12 14:29:54.058189,-92.0
2023-08-12 14:29:54.065879,-88.0
2023-08-12 14:29:54.073569,-85.0
2023-08-12 14:29:54.081259,-90.0
2023-08-12 14:29:54.088949,-90.0
2023-08-12 14:29:54.096639,-78.0
2023-08-12 14:29:54.104329,-76.0
2023-08-12 14:29:54.112019,-80.0
2023-08-12 14:29:54.119709,-83.0
2023-08-12 14:29:54.127398,-85.0
2023-08-12 14:29:54.135088,-83.0
2023-08-12 14:29:54.142778,-78.0
2023-08-12 14:29:54.150468,-76.0
2023-08-12 14:29:54.158158,-71.0
2023-08-12 14:29:54.165848,-71.0
2023-08-12 14:29:54.173538,-73.0
2023-08-12 14:29:54.181228,-73.0
2023-08-12 14:29:54.188918,-66.0
2023-08-12 14:29:54.196608,-61.0
2023-08-12 14:29:54.204298,-59.0
2023-08-12 14:29:54.211988,-52.0
2023-08-12 14:29:54.219678,-42.0
2023-08-12 14:29:54.227368,-38.0
2023-08-12 14:29:54.235058,-40.0
2023-08-12 14:29:54.242748,-45.0
2023-08-12 14:29:54.250438,-49.0
2023-08-12 14:29:54.258128,-52.0
2023-08-12 14:29:54.265818,-57.0
2023-08-12 14:29:54.273508,-66.0
2023-08-12 14:29:54.281198,-80.0
2023-08-12 14:29:54.288888,-90.0
2023-08-12 14:29:54.296578,-90.0
2023-08-12 14:29:54.304268,-80.0
2023-08-12 14:29:54.311958,-78.0
2023-08-12 14:29:54.319648,-83.0
2023-08-12 14:29:54.327338,-85.0
2023-08-12 14:29:54.335028,-52.0
2023-08-12 14:29:54.342718,92.0
2023-08-12 14:29:54.350408,359.0
2023-08-12 14:29:54.358097,540.0
2023-08-12 14:29:54.365787,383.0
2023-08-12 14:29:54.373477,-4.0
2023-08-12 14:29:54.381167,-209.0
2023-08-12 14:29:54.388857,-176.0
2023-08-12 14:29:54.396547,-161.0
2023-08-12 14:29:54.404237,-161.0
2023-08-12 14:29:54.411927,-107.0
2023-08-12 14:29:54.419617,-88.0
2023-08-12 14:29:54.427307,-99.0
2023-08-12 14:29:54.434997,-88.0
2023-08-12 14:29:54.442687,-73.0
2023-08-12 14:29:54.450377,-73.0
2023-08-12 14:29:54.458067,-71.0
2023-08-12 14:29:54.465757,-57.0
2023-08-12 14:29:54.473447,-49.0
2023-08-12 14:29:54.481137,-47.0
2023-08-12 14:29:54.488827,-33.0
2023-08-12 14:29:54.496517,-21.0
2023-08-12 14:29:54.504207,-19.0
2023-08-12 14:29:54.511897,-9.0
2023-08-12 14:29:54.519587,0.0
2023-08-12 14:29:54.527277,2.0
2023-08-12 14:29:54.534967,16.0
2023-08-12 14:29:54.542657,42.0
2023-08-12 14:29:54.550347,57.0
2023-08-12 14:29:54.558037,66.0
2023-08-12 14:29:54.565727,80.0
2023-08-12 14:29:54.573417,88.0
2023-08-12 14:29:54.581106,85.0
2023-08-12 14:29:54.588796,73.0
2023-08-12 14:29:54.596486,57.0
2023-08-12 14:29:54.604176,28.0
2023-08-12 14:29:54.611866,-16.0
2023-08-12 14:29:54.619556,-64.0
2023-08-12 14:29:54.627246,-97.0
2023-08-12 14:29:54.634936,-126.0
2023-08-12 14:29:54.642626,-145.0
2023-08-12 14:29:54.650316,-152.0
2023-08-12 14:29:54.658006,-152.0
2023-08-12 14:29:54.665696,-154.0
2023-08-12 14:29:54.673386,-149.0
2023-08-12 14:29:54.681076,-138.0
2023-08-12 14:29:54.688766,-138.0
2023-08-12 14:29:54.696456,-140.0
2023-08-12 14:29:54.704146,-135.0
2023-08-12 14:29:54.711836,-128.0
2023-08-12 14:29:54.719526,-123.0
2023-08-12 14:29:54.727216,-119.0
2023-08-12 14:29:54.734906,-111.0
2023-08-12 14:29:54.742596,-109.0
2023-08-12 14:29:54.750286,-114.0
2023-08-12 14:29:54.757976,-109.0
2023-08-12 14:29:54.765666,-95.0
2023-08-12 14:29:54.773356,-95.0
2023-08-12 14:29:54.781046,-95.0
2023-08-12 14:29:54.788736,-88.0
2023-08-12 14:29:54.796426,-88.0
2023-08-12 14:29:54.804115,-88.0
2023-08-12 14:29:54.811805,-85.0
2023-08-12 14:29:54.819495,-88.0
2023-08-12 14:29:54.827185,-90.0
2023-08-12 14:29:54.834875,-90.0
2023-08-12 14:29:54.842565,-88.0
2023-08-12 14:29:54.850255,-85.0
2023-08-12 14:29:54.857945,-85.0
2023-08-12 14:29:54.865635,-88.0
2023-08-12 14:29:54.873325,-88.0
2023-08-12 14:29:54.881015,-88.0
2023-08-12 14:29:54.888705,-88.0
2023-08-12 14:29:54.896395,-85.0
2023-08-12 14:29:54.904085,-80.0
2023-08-12 14:29:54.911775,-78.0
2023-08-12 14:29:54.919465,-80.0
2023-08-12 14:29:54.927155,-78.0
2023-08-12 14:29:54.934845,-78.0
2023-08-12 14:29:54.942535,-80.0
2023-08-12 14:29:54.950225,-78.0
2023-08-12 14:29:54.957915,-73.0
2023-08-12 14:29:54.965605,-76.0
2023-08-12 14:29:54.973295,-78.0
2023-08-12 14:29:54.980985,-73.0
2023-08-12 14:29:54.988675,-73.0
2023-08-12 14:29:54.996365,-76.0
2023-08-12 14:29:55.004055,-71.0
2023-08-12 14:29:55.011745,-71.0
2023-08-12 14:29:55.019435,-73.0
2023-08-12 14:29:55.027124,-80.0
2023-08-12 14:29:55.034814,-80.0
2023-08-12 14:29:55.042504,-76.0
2023-08-12 14:29:55.050194,-64.0
2023-08-12 14:29:55.057884,-61.0
2023-08-12 14:29:55.065574,-61.0
2023-08-12 14:29:55.073264,-54.0
2023-08-12 14:29:55.080954,-47.0
2023-08-12 14:29:55.088644,-45.0
2023-08-12 14:29:55.096334,-45.0
2023-08-12 14:29:55.104024,-59.0
2023-08-12 14:29:55.111714,-73.0
2023-08-12 14:29:55.119404,-73.0
2023-08-12 14:29:55.127094,-78.0
2023-08-12 14:29:55.134784,-92.0
2023-08-12 14:29:55.142474,-97.0
2023-08-12 14:29:55.150164,-99.0
2023-08-12 14:29:55.157854,-104.0
2023-08-12 14:29:55.165544,-104.0
2023-08-12 14:29:55.173234,-99.0
2023-08-12 14:29:55.180924,-99.0
2023-08-12 14:29:55.188614,-92.0
2023-08-12 14:29:55.196304,-4.0
2023-08-12 14:29:55.203994,223.0
2023-08-12 14:29:55.211684,478.0
2023-08-12 14:29:55.219374,480.0
2023-08-12 14:29:55.227064,149.0
2023-08-12 14:29:55.234754,-166.0
2023-08-12 14:29:55.242444,-204.0
2023-08-12 14:29:55.250134,-166.0
2023-08-12 14:29:55.257823,-176.0
2023-08-12 14:29:55.265513,-130.0
2023-08-12 14:29:55.273203,-83.0
2023-08-12 14:29:55.280893,-102.0
2023-08-12 14:29:55.288583,-107.0
2023-08-12 14:29:55.296273,-85.0
2023-08-12 14:29:55.303963,-78.0
2023-08-12 14:29:55.311653,-78.0
2023-08-12 14:29:55.319343,-71.0
2023-08-12 14:29:55.327033,-61.0
2023-08-12 14:29:55.334723,-57.0
2023-08-12 14:29:55.342413,-45.0
2023-08-12 14:29:55.350103,-35.0
2023-08-12 14:29:55.357793,-28.0
2023-08-12 14:29:55.365483,-16.0
2023-08-12 14:29:55.373173,-2.0
2023-08-12 14:29:55.380863,7.0
2023-08-12 14:29:55.388553,21.0
2023-08-12 14:29:55.396243,40.0
2023-08-12 14:29:55.403933,57.0
2023-08-12 14:29:55.411623,71.0
2023-08-12 14:29:55.419313,80.0
2023-08-12 14:29:55.427003,83.0
2023-08-12 14:29:55.434693,85.0
2023-08-12 14:29:55.442383,83.0
2023-08-12 14:29:55.450073,71.0
2023-08-12 14:29:55.457763,49.0
2023-08-12 14:29:55.465453,16.0
2023-08-12 14:29:55.473143,-26.0
2023-08-12 14:29:55.480832,-61.0
2023-08-12 14:29:55.488522,-92.0
2023-08-12 14:29:55.496212,-114.0
2023-08-12 14:29:55.503902,-128.0
2023-08-12 14:29:55.511592,-133.0
2023-08-12 14:29:55.519282,-138.0
2023-08-12 14:29:55.526972,-140.0
2023-08-12 14:29:55.534662,-138.0
2023-08-12 14:29:55.542352,-133.0
2023-08-12 14:29:55.550042,-128.0
2023-08-12 14:29:55.557732,-128.0
2023-08-12 14:29:55.565422,-123.0
2023-08-12 14:29:55.573112,-116.0
2023-08-12 14:29:55.580802,-114.0
2023-08-12 14:29:55.588492,-109.0
2023-08-12 14:29:55.596182,-107.0
2023-08-12 14:29:55.603872,-104.0
2023-08-12 14:29:55.611562,-102.0
2023-08-12 14:29:55.619252,-95.0
2023-08-12 14:29:55.626942,-90.0
2023-08-12 14:29:55.634632,-88.0
2023-08-12 14:29:55.642322,-92.0
2023-08-12 14:29:55.650012,-97.0
2023-08-12 14:29:55.657702,-95.0
2023-08-12 14:29:55.665392,-90.0
2023-08-12 14:29:55.673082,-90.0
2023-08-12 14:29:55.680772,-90.0
2023-08-12 14:29:55.688462,-88.0
2023-08-12 14:29:55.696152,-85.0
2023-08-12 14:29:55.703841,-85.0
2023-08-12 14:29:55.711531,-83.0
2023-08-12 14:29:55.719221,-83.0
2023-08-12 14:29:55.726911,-83.0
2023-08-12 14:29:55.734601,-80.0
2023-08-12 14:29:55.742291,-78.0
2023-08-12 14:29:55.749981,-76.0
2023-08-12 14:29:55.757671,-76.0
2023-08-12 14:29:55.765361,-76.0
2023-08-12 14:29:55.773051,-73.0
2023-08-12 14:29:55.780741,-73.0
2023-08-12 14:29:55.788431,-78.0
2023-08-12 14:29:55.796121,-71.0
2023-08-12 14:29:55.803811,-69.0
2023-08-12 14:29:55.811501,-73.0
2023-08-12 14:29:55.819191,-78.0
2023-08-12 14:29:55.826881,-76.0
2023-08-12 14:29:55.834571,-73.0
2023-08-12 14:29:55.842261,-73.0
2023-08-12 14:29:55.849951,-73.0
2023-08-12 14:29:55.857641,-71.0
2023-08-12 14:29:55.865331,-73.0
2023-08-12 14:29:55.873021,-76.0
2023-08-12 14:29:55.880711,-73.0
2023-08-12 14:29:55.888401,-73.0
2023-08-12 14:29:55.896091,-73.0
2023-08-12 14:29:55.903781,-69.0
2023-08-12 14:29:55.911471,-64.0
2023-08-12 14:29:55.919161,-64.0
2023-08-12 14:29:55.926850,-66.0
2023-08-12 14:29:55.934540,-69.0
2023-08-12 14:29:55.942230,-69.0
2023-08-12 14:29:55.949920,-61.0
2023-08-12 14:29:55.957610,-54.0
2023-08-12 14:29:55.965300,-47.0
2023-08-12 14:29:55.972990,-38.0
2023-08-12 14:29:55.980680,-33.0
2023-08-12 14:29:55.988370,-35.0
2023-08-12 14:29:55.996060,-47.0
2023-08-12 14:29:56.003750,-52.0
2023-08-12 14:29:56.011440,-52.0
2023-08-12 14:29:56.019130,-54.0
2023-08-12 14:29:56.026820,-69.0
2023-08-12 14:29:56.034510,-90.0
2023-08-12 14:29:56.042200,-102.0
2023-08-12 14:29:56.049890,-97.0
2023-08-12 14:29:56.057580,-90.0
2023-08-12 14:29:56.065270,-88.0
2023-08-12 14:29:56.072960,-90.0
2023-08-12 14:29:56.080650,-90.0
2023-08-12 14:29:56.088340,-42.0
2023-08-12 14:29:56.096030,133.0
2023-08-12 14:29:56.103720,407.0
2023-08-12 14:29:56.111410,540.0
2023-08-12 14:29:56.119100,309.0
2023-08-12 14:29:56.126790,-80.0
2023-08-12 14:29:56.134480,-211.0
2023-08-12 14:29:56.142170,-161.0
2023-08-12 14:29:56.149860,-171.0
2023-08-12 14:29:56.157549,-154.0
2023-08-12 14:29:56.165239,-90.0
2023-08-12 14:29:56.172929,-95.0
2023-08-12 14:29:56.180619,-111.0
2023-08-12 14:29:56.188309,-95.0
2023-08-12 14:29:56.195999,-85.0
2023-08-12 14:29:56.203689,-83.0
2023-08-12 14:29:56.211379,-71.0
2023-08-12 14:29:56.219069,-61.0
2023-08-12 14:29:56.226759,-61.0
2023-08-12 14:29:56.234449,-59.0
2023-08-12 14:29:56.242139,-52.0
2023-08-12 14:29:56.249829,-45.0
2023-08-12 14:29:56.257519,-33.0
2023-08-12 14:29:56.265209,-19.0
2023-08-12 14:29:56.272899,-4.0
2023-08-12 14:29:56.280589,7.0
2023-08-12 14:29:56.288279,19.0
2023-08-12 14:29:56.295969,33.0
2023-08-12 14:29:56.303659,54.0
2023-08-12 14:29:56.311349,71.0
2023-08-12 14:29:56.319039,80.0
2023-08-12 14:29:56.326729,80.0
2023-08-12 14:29:56.334419,78.0
2023-08-12 14:29:56.342109,73.0
2023-08-12 14:29:56.349799,59.0
2023-08-12 14:29:56.357489,30.0
2023-08-12 14:29:56.365179,-11.0
2023-08-12 14:29:56.372869,-57.0
2023-08-12 14:29:56.380558,-88.0
2023-08-12 14:29:56.388248,-114.0
2023-08-12 14:29:56.395938,-138.0
2023-08-12 14:29:56.403628,-149.0
2023-08-12 14:29:56.411318,-145.0
2023-08-12 14:29:56.419008,-145.0
2023-08-12 14:29:56.426698,-149.0
2023-08-12 14:29:56.434388,-149.0
2023-08-12 14:29:56.442078,-135.0
2023-08-12 14:29:56.449768,-126.0
2023-08-12 14:29:56.457458,-130.0
2023-08-12 14:29:56.465148,-133.0
2023-08-12 14:29:56.472838,-123.0
2023-08-12 14:29:56.480528,-114.0
2023-08-12 14:29:56.488218,-111.0
2023-08-12 14:29:56.495908,-107.0
2023-08-12 14:29:56.503598,-102.0
2023-08-12 14:29:56.511288,-99.0
2023-08-12 14:29:56.518978,-95.0
2023-08-12 14:29:56.526668,-90.0
2023-08-12 14:29:56.534358,-95.0
2023-08-12 14:29:56.542048,-107.0
2023-08-12 14:29:56.549738,-102.0
2023-08-12 14:29:56.557428,-88.0
2023-08-12 14:29:56.565118,-90.0
2023-08-12 14:29:56.572808,-95.0
2023-08-12 14:29:56.580498,-88.0
2023-08-12 14:29:56.588188,-85.0
2023-08-12 14:29:56.595878,-90.0
2023-08-12 14:29:56.603567,-88.0
2023-08-12 14:29:56.611257,-85.0
2023-08-12 14:29:56.618947,-85.0
2023-08-12 14:29:56.626637,-88.0
2023-08-12 14:29:56.634327,-90.0
2023-08-12 14:29:56.642017,-88.0
2023-08-12 14:29:56.649707,-80.0
2023-08-12 14:29:56.657397,-78.0
2023-08-12 14:29:56.665087,-76.0
2023-08-12 14:29:56.672777,-76.0
2023-08-12 14:29:56.680467,-78.0
2023-08-12 14:29:56.688157,-78.0
2023-08-12 14:29:56.695847,-76.0
2023-08-12 14:29:56.703537,-76.0
2023-08-12 14:29:56.711227,-78.0
2023-08-12 14:29:56.718917,-80.0
2023-08-12 14:29:56.726607,-85.0
2023-08-12 14:29:56.734297,-90.0
2023-08-12 14:29:56.741987,-85.0
2023-08-12 14:29:56.749677,-80.0
2023-08-12 14:29:56.757367,-80.0
2023-08-12 14:29:56.765057,-80.0
2023-08-12 14:29:56.772747,-83.0
2023-08-12 14:29:56.780437,-88.0
2023-08-12 14:29:56.788127,-85.0
2023-08-12 14:29:56.795817,-78.0
2023-08-12 14:29:56.803507,-78.0
2023-08-12 14:29:56.811197,-80.0
2023-08-12 14:29:56.818887,-71.0
2023-08-12 14:29:56.826576,-64.0
2023-08-12 14:29:56.834266,-64.0
2023-08-12 14:29:56.841956,-57.0
2023-08-12 14:29:56.849646,-45.0
2023-08-12 14:29:56.857336,-40.0
2023-08-12 14:29:56.865026,-45.0
2023-08-12 14:29:56.872716,-54.0
2023-08-12 14:29:56.880406,-57.0
2023-08-12 14:29:56.888096,-54.0
2023-08-12 14:29:56.895786,-69.0
2023-08-12 14:29:56.903476,-83.0
2023-08-12 14:29:56.911166,-90.0
2023-08-12 14:29:56.918856,-92.0
2023-08-12 14:29:56.926546,-88.0
2023-08-12 14:29:56.934236,-78.0
2023-08-12 14:29:56.941926,-78.0
2023-08-12 14:29:56.949616,-85.0
2023-08-12 14:29:56.957306,-76.0
2023-08-12 14:29:56.964996,21.0
2023-08-12 14:29:56.972686,266.0
2023-08-12 14:29:56.980376,533.0
2023-08-12 14:29:56.988066,507.0
2023-08-12 14:29:56.995756,126.0
2023-08-12 14:29:57.003446,-185.0
2023-08-12 14:29:57.011136,-185.0
2023-08-12 14:29:57.018826,-145.0
2023-08-12 14:29:57.026516,-178.0
2023-08-12 14:29:57.034206,-133.0
2023-08-12 14:29:57.041896,-83.0
2023-08-12 14:29:57.049586,-107.0
2023-08-12 14:29:57.057275,-111.0
2023-08-12 14:29:57.064965,-80.0
2023-08-12 14:29:57.072655,-76.0
2023-08-12 14:29:57.080345,-80.0
2023-08-12 14:29:57.088035,-71.0
2023-08-12 14:29:57.095725,-59.0
2023-08-12 14:29:57.103415,-49.0
2023-08-12 14:29:57.111105,-40.0
2023-08-12 14:29:57.118795,-30.0
2023-08-12 14:29:57.126485,-26.0
2023-08-12 14:29:57.134175,-21.0
2023-08-12 14:29:57.141865,-7.0
2023-08-12 14:29:57.149555,11.0
2023-08-12 14:29:57.157245,26.0
2023-08-12 14:29:57.164935,40.0
2023-08-12 14:29:57.172625,57.0
2023-08-12 14:29:57.180315,73.0
2023-08-12 14:29:57.188005,85.0
2023-08-12 14:29:57.195695,92.0
2023-08-12 14:29:57.203385,92.0
2023-08-12 14:29:57.211075,92.0
2023-08-12 14:29:57.218765,78.0
2023-08-12 14:29:57.226455,49.0
2023-08-12 14:29:57.234145,19.0
2023-08-12 14:29:57.241835,-19.0
2023-08-12 14:29:57.249525,-64.0
2023-08-12 14:29:57.257215,-92.0
2023-08-12 14:29:57.264905,-116.0
2023-08-12 14:29:57.272595,-138.0
2023-08-12 14:29:57.280284,-147.0
2023-08-12 14:29:57.287974,-140.0
2023-08-12 14:29:57.295664,-138.0
2023-08-12 14:29:57.303354,-138.0
2023-08-12 14:29:57.311044,-142.0
2023-08-12 14:29:57.318734,-149.0
2023-08-12 14:29:57.326424,-140.0
2023-08-12 14:29:57.334114,-126.0
2023-08-12 14:29:57.341804,-126.0
2023-08-12 14:29:57.349494,-128.0
2023-08-12 14:29:57.357184,-121.0
2023-08-12 14:29:57.364874,-119.0
2023-08-12 14:29:57.372564,-114.0
2023-08-12 14:29:57.380254,-111.0
2023-08-12 14:29:57.387944,-104.0
2023-08-12 14:29:57.395634,-102.0
2023-08-12 14:29:57.403324,-109.0
2023-08-12 14:29:57.411014,-111.0
2023-08-12 14:29:57.418704,-99.0
2023-08-12 14:29:57.426394,-95.0
2023-08-12 14:29:57.434084,-95.0
2023-08-12 14:29:57.441774,-95.0
2023-08-12 14:29:57.449464,-104.0
2023-08-12 14:29:57.457154,-111.0
2023-08-12 14:29:57.464844,-99.0
2023-08-12 14:29:57.472534,-92.0
2023-08-12 14:29:57.480224,-97.0
2023-08-12 14:29:57.487914,-99.0
2023-08-12 14:29:57.495604,-99.0
2023-08-12 14:29:57.503293,-99.0
2023-08-12 14:29:57.510983,-90.0
2023-08-12 14:29:57.518673,-85.0
2023-08-12 14:29:57.526363,-90.0
2023-08-12 14:29:57.534053,-95.0
2023-08-12 14:29:57.541743,-90.0
2023-08-12 14:29:57.549433,-92.0
2023-08-12 14:29:57.557123,-95.0
2023-08-12 14:29:57.564813,-85.0
2023-08-12 14:29:57.572503,-80.0
2023-08-12 14:29:57.580193,-83.0
2023-08-12 14:29:57.587883,-85.0
2023-08-12 14:29:57.595573,-88.0
2023-08-12 14:29:57.603263,-85.0
2023-08-12 14:29:57.610953,-78.0
2023-08-12 14:29:57.618643,-78.0
2023-08-12 14:29:57.626333,-83.0
2023-08-12 14:29:57.634023,-80.0
2023-08-12 14:29:57.641713,-80.0
2023-08-12 14:29:57.649403,-73.0
2023-08-12 14:29:57.657093,-69.0
2023-08-12 14:29:57.664783,-71.0
2023-08-12 14:29:57.672473,-73.0
2023-08-12 14:29:57.680163,-71.0
2023-08-12 14:29:57.687853,-73.0
2023-08-12 14:29:57.695543,-73.0
2023-08-12 14:29:57.703233,-71.0
2023-08-12 14:29:57.710923,-71.0
2023-08-12 14:29:57.718613,-69.0
2023-08-12 14:29:57.726302,-64.0
2023-08-12 14:29:57.733992,-66.0
2023-08-12 14:29:57.741682,-66.0
2023-08-12 14:29:57.749372,-57.0
2023-08-12 14:29:57.757062,-52.0
2023-08-12 14:29:57.764752,-52.0
2023-08-12 14:29:57.772442,-42.0
2023-08-12 14:29:57.780132,-38.0
2023-08-12 14:29:57.787822,-40.0
2023-08-12 14:29:57.795512,-45.0
2023-08-12 14:29:57.803202,-47.0
2023-08-12 14:29:57.810892,-52.0
2023-08-12 14:29:57.818582,-52.0
2023-08-12 14:29:57.826272,-59.0
2023-08-12 14:29:57.833962,-76.0
2023-08-12 14:29:57.841652,-85.0
2023-08-12 14:29:57.849342,-85.0
2023-08-12 14:29:57.857032,-78.0
2023-08-12 14:29:57.864722,-73.0
2023-08-12 14:29:57.872412,-76.0
2023-08-12 14:29:57.880102,-80.0
2023-08-12 14:29:57.887792,-49.0
2023-08-12 14:29:57.895482,88.0
2023-08-12 14:29:57.903172,347.0
2023-08-12 14:29:57.910862,542.0
2023-08-12 14:29:57.918552,416.0
2023-08-12 14:29:57.926242,35.0
2023-08-12 14:29:57.933932,-197.0
2023-08-12 14:29:57.941622,-185.0
2023-08-12 14:29:57.949312,-169.0
2023-08-12 14:29:57.957001,-164.0
2023-08-12 14:29:57.964691,-116.0
2023-08-12 14:29:57.972381,-104.0
2023-08-12 14:29:57.980071,-111.0
2023-08-12 14:29:57.987761,-95.0
2023-08-12 14:29:57.995451,-83.0
2023-08-12 14:29:58.003141,-85.0
2023-08-12 14:29:58.010831,-78.0
2023-08-12 14:29:58.018521,-69.0
2023-08-12 14:29:58.026211,-61.0
2023-08-12 14:29:58.033901,-57.0
2023-08-12 14:29:58.041591,-45.0
2023-08-12 14:29:58.049281,-40.0
2023-08-12 14:29:58.056971,-40.0
2023-08-12 14:29:58.064661,-30.0
2023-08-12 14:29:58.072351,-16.0
2023-08-12 14:29:58.080041,-4.0
2023-08-12 14:29:58.087731,9.0
2023-08-12 14:29:58.095421,23.0
2023-08-12 14:29:58.103111,40.0
2023-08-12 14:29:58.110801,59.0
2023-08-12 14:29:58.118491,71.0
2023-08-12 14:29:58.126181,73.0
2023-08-12 14:29:58.133871,73.0
2023-08-12 14:29:58.141561,64.0
2023-08-12 14:29:58.149251,49.0
2023-08-12 14:29:58.156941,33.0
2023-08-12 14:29:58.164631,2.0
2023-08-12 14:29:58.172321,-40.0
2023-08-12 14:29:58.180010,-80.0
2023-08-12 14:29:58.187700,-107.0
2023-08-12 14:29:58.195390,-126.0
2023-08-12 14:29:58.203080,-138.0
2023-08-12 14:29:58.210770,-142.0
2023-08-12 14:29:58.218460,-140.0
2023-08-12 14:29:58.226150,-135.0
2023-08-12 14:29:58.233840,-130.0
2023-08-12 14:29:58.241530,-128.0
2023-08-12 14:29:58.249220,-126.0
2023-08-12 14:29:58.256910,-121.0
2023-08-12 14:29:58.264600,-119.0
2023-08-12 14:29:58.272290,-116.0
2023-08-12 14:29:58.279980,-111.0
2023-08-12 14:29:58.287670,-104.0
2023-08-12 14:29:58.295360,-99.0
2023-08-12 14:29:58.303050,-99.0
2023-08-12 14:29:58.310740,-107.0
2023-08-12 14:29:58.318430,-102.0
2023-08-12 14:29:58.326120,-92.0
2023-08-12 14:29:58.333810,-88.0
2023-08-12 14:29:58.341500,-90.0
2023-08-12 14:29:58.349190,-90.0
2023-08-12 14:29:58.356880,-85.0
2023-08-12 14:29:58.364570,-80.0
2023-08-12 14:29:58.372260,-78.0
2023-08-12 14:29:58.379950,-76.0
2023-08-12 14:29:58.387640,-78.0
2023-08-12 14:29:58.395330,-78.0
2023-08-12 14:29:58.403019,-78.0
2023-08-12 14:29:58.410709,-83.0
2023-08-12 14:29:58.418399,-83.0
2023-08-12 14:29:58.426089,-78.0
2023-08-12 14:29:58.433779,-73.0
2023-08-12 14:29:58.441469,-73.0
2023-08-12 14:29:58.449159,-73.0
2023-08-12 14:29:58.456849,-69.0
2023-08-12 14:29:58.464539,-71.0
2023-08-12 14:29:58.472229,-76.0
2023-08-12 14:29:58.479919,-80.0
2023-08-12 14:29:58.487609,-85.0
2023-08-12 14:29:58.495299,-83.0
2023-08-12 14:29:58.502989,-80.0
2023-08-12 14:29:58.510679,-85.0
2023-08-12 14:29:58.518369,-88.0
2023-08-12 14:29:58.526059,-90.0
2023-08-12 14:29:58.533749,-95.0
2023-08-12 14:29:58.541439,-90.0
2023-08-12 14:29:58.549129,-85.0
2023-08-12 14:29:58.556819,-88.0
2023-08-12 14:29:58.564509,-95.0
2023-08-12 14:29:58.572199,-95.0
2023-08-12 14:29:58.579889,-90.0
2023-08-12 14:29:58.587579,-88.0
2023-08-12 14:29:58.595269,-88.0
2023-08-12 14:29:58.602959,-85.0
2023-08-12 14:29:58.610649,-83.0
2023-08-12 14:29:58.618339,-78.0
2023-08-12 14:29:58.626028,-73.0
2023-08-12 14:29:58.633718,-76.0
2023-08-12 14:29:58.641408,-76.0
2023-08-12 14:29:58.649098,-76.0
2023-08-12 14:29:58.656788,-78.0
2023-08-12 14:29:58.664478,-83.0
2023-08-12 14:29:58.672168,-76.0
2023-08-12 14:29:58.679858,-73.0
2023-08-12 14:29:58.687548,-71.0
2023-08-12 14:29:58.695238,-61.0
2023-08-12 14:29:58.702928,-49.0
2023-08-12 14:29:58.710618,-45.0
2023-08-12 14:29:58.718308,-47.0
2023-08-12 14:29:58.725998,-54.0
2023-08-12 14:29:58.733688,-57.0
2023-08-12 14:29:58.741378,-57.0
2023-08-12 14:29:58.749068,-69.0
2023-08-12 14:29:58.756758,-85.0
2023-08-12 14:29:58.764448,-92.0
2023-08-12 14:29:58.772138,-85.0
2023-08-12 14:29:58.779828,-78.0
2023-08-12 14:29:58.787518,-80.0
2023-08-12 14:29:58.795208,-85.0
2023-08-12 14:29:58.802898,-88.0
2023-08-12 14:29:58.810588,-61.0
2023-08-12 14:29:58.818278,64.0
2023-08-12 14:29:58.825968,323.0
2023-08-12 14:29:58.833658,554.0
2023-08-12 14:29:58.841348,468.0
2023-08-12 14:29:58.849038,76.0
2023-08-12 14:29:58.856727,-190.0
2023-08-12 14:29:58.864417,-169.0
2023-08-12 14:29:58.872107,-152.0
2023-08-12 14:29:58.879797,-178.0
2023-08-12 14:29:58.887487,-119.0
2023-08-12 14:29:58.895177,-78.0
2023-08-12 14:29:58.902867,-97.0
2023-08-12 14:29:58.910557,-88.0
2023-08-12 14:29:58.918247,-69.0
2023-08-12 14:29:58.925937,-78.0
2023-08-12 14:29:58.933627,-76.0
2023-08-12 14:29:58.941317,-61.0
2023-08-12 14:29:58.949007,-54.0
2023-08-12 14:29:58.956697,-49.0
2023-08-12 14:29:58.964387,-38.0
2023-08-12 14:29:58.972077,-30.0
2023-08-12 14:29:58.979767,-30.0
2023-08-12 14:29:58.987457,-23.0
2023-08-12 14:29:58.995147,-16.0
2023-08-12 14:29:59.002837,-7.0
2023-08-12 14:29:59.010527,14.0
2023-08-12 14:29:59.018217,28.0
2023-08-12 14:29:59.025907,42.0
2023-08-12 14:29:59.033597,66.0
2023-08-12 14:29:59.041287,83.0
2023-08-12 14:29:59.048977,83.0
2023-08-12 14:29:59.056667,83.0
2023-08-12 14:29:59.064357,88.0
2023-08-12 14:29:59.072047,66.0
2023-08-12 14:29:59.079736,30.0
2023-08-12 14:29:59.087426,4.0
2023-08-12 14:29:59.095116,-30.0
2023-08-12 14:29:59.102806,-76.0
2023-08-12 14:29:59.110496,-114.0
2023-08-12 14:29:59.118186,-140.0
2023-08-12 14:29:59.125876,-154.0
2023-08-12 14:29:59.133566,-161.0
2023-08-12 14:29:59.141256,-166.0
2023-08-12 14:29:59.148946,-161.0
2023-08-12 14:29:59.156636,-154.0
2023-08-12 14:29:59.164326,-149.0
2023-08-12 14:29:59.172016,-145.0
2023-08-12 14:29:59.179706,-140.0
2023-08-12 14:29:59.187396,-133.0
2023-08-12 14:29:59.195086,-130.0
2023-08-12 14:29:59.202776,-128.0
2023-08-12 14:29:59.210466,-130.0
2023-08-12 14:29:59.218156,-123.0
2023-08-12 14:29:59.225846,-104.0
2023-08-12 14:29:59.233536,-102.0
2023-08-12 14:29:59.241226,-104.0
2023-08-12 14:29:59.248916,-104.0
2023-08-12 14:29:59.256606,-104.0
2023-08-12 14:29:59.264296,-99.0
2023-08-12 14:29:59.271986,-88.0
2023-08-12 14:29:59.279676,-90.0
2023-08-12 14:29:59.287366,-97.0
2023-08-12 14:29:59.295056,-92.0
2023-08-12 14:29:59.302745,-88.0
2023-08-12 14:29:59.310435,-92.0
2023-08-12 14:29:59.318125,-95.0
2023-08-12 14:29:59.325815,-90.0
2023-08-12 14:29:59.333505,-88.0
2023-08-12 14:29:59.341195,-88.0
2023-08-12 14:29:59.348885,-88.0
2023-08-12 14:29:59.356575,-90.0
2023-08-12 14:29:59.364265,-90.0
2023-08-12 14:29:59.371955,-80.0
2023-08-12 14:29:59.379645,-76.0
2023-08-12 14:29:59.387335,-85.0
2023-08-12 14:29:59.395025,-85.0
2023-08-12 14:29:59.402715,-78.0
2023-08-12 14:29:59.410405,-80.0
2023-08-12 14:29:59.418095,-78.0
2023-08-12 14:29:59.425785,-76.0
2023-08-12 14:29:59.433475,-78.0
2023-08-12 14:29:59.441165,-76.0
2023-08-12 14:29:59.448855,-73.0
2023-08-12 14:29:59.456545,-73.0
2023-08-12 14:29:59.464235,-71.0
2023-08-12 14:29:59.471925,-73.0
2023-08-12 14:29:59.479615,-80.0
2023-08-12 14:29:59.487305,-85.0
2023-08-12 14:29:59.494995,-83.0
2023-08-12 14:29:59.502685,-78.0
2023-08-12 14:29:59.510375,-76.0
2023-08-12 14:29:59.518065,-71.0
2023-08-12 14:29:59.525754,-66.0
2023-08-12 14:29:59.533444,-54.0
2023-08-12 14:29:59.541134,-42.0
2023-08-12 14:29:59.548824,-45.0
2023-08-12 14:29:59.556514,-57.0
2023-08-12 14:29:59.564204,-66.0
2023-08-12 14:29:59.571894,-76.0
2023-08-12 14:29:59.579584,-90.0
2023-08-12 14:29:59.587274,-95.0
2023-08-12 14:29:59.594964,-92.0
2023-08-12 14:29:59.602654,-99.0
2023-08-12 14:29:59.610344,-99.0
2023-08-12 14:29:59.618034,-92.0
2023-08-12 14:29:59.625724,-92.0
2023-08-12 14:29:59.633414,-92.0
2023-08-12 14:29:59.641104,-85.0
2023-08-12 14:29:59.648794,-45.0
2023-08-12 14:29:59.656484,119.0
2023-08-12 14:29:59.664174,407.0
2023-08-12 14:29:59.671864,568.0
2023-08-12 14:29:59.679554,347.0
2023-08-12 14:29:59.687244,-59.0
2023-08-12 14:29:59.694934,-216.0
2023-08-12 14:29:59.702624,-164.0
2023-08-12 14:29:59.710314,-169.0
2023-08-12 14:29:59.718004,-161.0
2023-08-12 14:29:59.725694,-92.0
2023-08-12 14:29:59.733384,-85.0
2023-08-12 14:29:59.741074,-111.0
2023-08-12 14:29:59.748764,-88.0
2023-08-12 14:29:59.756453,-69.0
2023-08-12 14:29:59.764143,-73.0
2023-08-12 14:29:59.771833,-71.0
2023-08-12 14:29:59.779523,-57.0
2023-08-12 14:29:59.787213,-49.0
2023-08-12 14:29:59.794903,-49.0
2023-08-12 14:29:59.802593,-38.0
2023-08-12 14:29:59.810283,-21.0
2023-08-12 14:29:59.817973,-9.0
2023-08-12 14:29:59.825663,-4.0
2023-08-12 14:29:59.833353,4.0
2023-08-12 14:29:59.841043,23.0
2023-08-12 14:29:59.848733,40.0
2023-08-12 14:29:59.856423,52.0
2023-08-12 14:29:59.864113,71.0
2023-08-12 14:29:59.871803,85.0
2023-08-12 14:29:59.879493,95.0
2023-08-12 14:29:59.887183,104.0
2023-08-12 14:29:59.894873,99.0
2023-08-12 14:29:59.902563,88.0
2023-08-12 14:29:59.910253,73.0
2023-08-12 14:29:59.917943,52.0
2023-08-12 14:29:59.925633,9.0
2023-08-12 14:29:59.933323,-40.0
2023-08-12 14:29:59.941013,-78.0
2023-08-12 14:29:59.948703,-102.0
2023-08-12 14:29:59.956393,-123.0
2023-08-12 14:29:59.964083,-138.0
2023-08-12 14:29:59.971773,-142.0
2023-08-12 14:29:59.979462,-138.0
2023-08-12 14:29:59.987152,-135.0
2023-08-12 14:29:59.994842,-140.0
2023-08-12 14:30:00.002532,-138.0
2023-08-12 14:30:00.010222,-126.0
2023-08-12 14:30:00.017912,-123.0
2023-08-12 14:30:00.025602,-119.0
2023-08-12 14:30:00.033292,-111.0
2023-08-12 14:30:00.040982,-111.0
2023-08-12 14:30:00.048672,-107.0
2023-08-12 14:30:00.056362,-97.0
2023-08-12 14:30:00.064052,-92.0
2023-08-12 14:30:00.071742,-95.0
2023-08-12 14:30:00.079432,-99.0
2023-08-12 14:30:00.087122,-95.0
2023-08-12 14:30:00.094812,-92.0
2023-08-12 14:30:00.102502,-99.0
2023-08-12 14:30:00.110192,-102.0
2023-08-12 14:30:00.117882,-92.0
2023-08-12 14:30:00.125572,-88.0
2023-08-12 14:30:00.133262,-90.0
2023-08-12 14:30:00.140952,-95.0
2023-08-12 14:30:00.148642,-104.0
2023-08-12 14:30:00.156332,-107.0
2023-08-12 14:30:00.164022,-99.0
2023-08-12 14:30:00.171712,-95.0
2023-08-12 14:30:00.179402,-102.0
2023-08-12 14:30:00.187092,-99.0
2023-08-12 14:30:00.194782,-95.0
2023-08-12 14:30:00.202471,-95.0
2023-08-12 14:30:00.210161,-95.0
2023-08-12 14:30:00.217851,-92.0
2023-08-12 14:30:00.225541,-88.0
2023-08-12 14:30:00.233231,-88.0
2023-08-12 14:30:00.240921,-85.0
2023-08-12 14:30:00.248611,-83.0
2023-08-12 14:30:00.256301,-83.0
2023-08-12 14:30:00.263991,-80.0
2023-08-12 14:30:00.271681,-78.0
2023-08-12 14:30:00.279371,-78.0
2023-08-12 14:30:00.287061,-80.0
2023-08-12 14:30:00.294751,-80.0
2023-08-12 14:30:00.302441,-78.0
2023-08-12 14:30:00.310131,-80.0
2023-08-12 14:30:00.317821,-83.0
2023-08-12 14:30:00.325511,-80.0
2023-08-12 14:30:00.333201,-78.0
2023-08-12 14:30:00.340891,-73.0
2023-08-12 14:30:00.348581,-64.0
2023-08-12 14:30:00.356271,-61.0
2023-08-12 14:30:00.363961,-59.0
2023-08-12 14:30:00.371651,-49.0
2023-08-12 14:30:00.379341,-45.0
2023-08-12 14:30:00.387031,-42.0
2023-08-12 14:30:00.394721,-45.0
2023-08-12 14:30:00.402411,-47.0
2023-08-12 14:30:00.410101,-49.0
2023-08-12 14:30:00.417791,-54.0
2023-08-12 14:30:00.425480,-66.0
2023-08-12 14:30:00.433170,-80.0
2023-08-12 14:30:00.440860,-85.0
2023-08-12 14:30:00.448550,-80.0
2023-08-12 14:30:00.456240,-73.0
2023-08-12 14:30:00.463930,-73.0
2023-08-12 14:30:00.471620,-76.0
2023-08-12 14:30:00.479310,-76.0
2023-08-12 14:30:00.487000,-45.0
2023-08-12 14:30:00.494690,102.0
2023-08-12 14:30:00.502380,368.0
2023-08-12 14:30:00.510070,549.0
2023-08-12 14:30:00.517760,404.0
2023-08-12 14:30:00.525450,28.0
2023-08-12 14:30:00.533140,-188.0
2023-08-12 14:30:00.540830,-166.0
2023-08-12 14:30:00.548520,-149.0
2023-08-12 14:30:00.556210,-149.0
2023-08-12 14:30:00.563900,-99.0
2023-08-12 14:30:00.571590,-83.0
2023-08-12 14:30:00.579280,-102.0
2023-08-12 14:30:00.586970,-97.0
2023-08-12 14:30:00.594660,-83.0
2023-08-12 14:30:00.602350,-76.0
2023-08-12 14:30:00.610040,-69.0
2023-08-12 14:30:00.617730,-59.0
2023-08-12 14:30:00.625420,-57.0
2023-08-12 14:30:00.633110,-49.0
2023-08-12 14:30:00.640800,-49.0
2023-08-12 14:30:00.648490,-47.0
2023-08-12 14:30:00.656179,-33.0
2023-08-12 14:30:00.663869,-19.0
2023-08-12 14:30:00.671559,-9.0
2023-08-12 14:30:00.679249,0.0
2023-08-12 14:30:00.686939,16.0
2023-08-12 14:30:00.694629,33.0
2023-08-12 14:30:00.702319,45.0
2023-08-12 14:30:00.710009,59.0
2023-08-12 14:30:00.717699,71.0
2023-08-12 14:30:00.725389,71.0
2023-08-12 14:30:00.733079,64.0
2023-08-12 14:30:00.740769,57.0
2023-08-12 14:30:00.748459,47.0
2023-08-12 14:30:00.756149,23.0
2023-08-12 14:30:00.763839,-9.0
2023-08-12 14:30:00.771529,-49.0
2023-08-12 14:30:00.779219,-85.0
2023-08-12 14:30:00.786909,-109.0
2023-08-12 14:30:00.794599,-126.0
2023-08-12 14:30:00.802289,-138.0
2023-08-12 14:30:00.809979,-140.0
2023-08-12 14:30:00.817669,-138.0
2023-08-12 14:30:00.825359,-142.0
2023-08-12 14:30:00.833049,-140.0
2023-08-12 14:30:00.840739,-130.0
2023-08-12 14:30:00.848429,-121.0
2023-08-12 14:30:00.856119,-119.0
2023-08-12 14:30:00.863809,-116.0
2023-08-12 14:30:00.871499,-114.0
2023-08-12 14:30:00.879188,-109.0
2023-08-12 14:30:00.886878,-104.0
2023-08-12 14:30:00.894568,-102.0
2023-08-12 14:30:00.902258,-102.0
2023-08-12 14:30:00.909948,-99.0
2023-08-12 14:30:00.917638,-99.0
2023-08-12 14:30:00.925328,-95.0
2023-08-12 14:30:00.933018,-88.0
2023-08-12 14:30:00.940708,-85.0
2023-08-12 14:30:00.948398,-85.0
2023-08-12 14:30:00.956088,-88.0
2023-08-12 14:30:00.963778,-92.0
2023-08-12 14:30:00.971468,-90.0
2023-08-12 14:30:00.979158,-90.0
2023-08-12 14:30:00.986848,-90.0
2023-08-12 14:30:00.994538,-92.0
2023-08-12 14:30:01.002228,-92.0
2023-08-12 14:30:01.009918,-92.0
2023-08-12 14:30:01.017608,-90.0
2023-08-12 14:30:01.025298,-92.0
2023-08-12 14:30:01.032988,-95.0
2023-08-12 14:30:01.040678,-90.0
2023-08-12 14:30:01.048368,-88.0
2023-08-12 14:30:01.056058,-85.0
2023-08-12 14:30:01.063748,-85.0
2023-08-12 14:30:01.071438,-88.0
2023-08-12 14:30:01.079128,-90.0
2023-08-12 14:30:01.086818,-90.0
2023-08-12 14:30:01.094508,-92.0
2023-08-12 14:30:01.102197,-92.0
2023-08-12 14:30:01.109887,-90.0
2023-08-12 14:30:01.117577,-88.0
2023-08-12 14:30:01.125267,-88.0
2023-08-12 14:30:01.132957,-83.0
2023-08-12 14:30:01.140647,-85.0
2023-08-12 14:30:01.148337,-90.0
2023-08-12 14:30:01.156027,-90.0
2023-08-12 14:30:01.163717,-83.0
2023-08-12 14:30:01.171407,-83.0
2023-08-12 14:30:01.179097,-90.0
2023-08-12 14:30:01.186787,-90.0
2023-08-12 14:30:01.194477,-83.0
2023-08-12 14:30:01.202167,-78.0
2023-08-12 14:30:01.209857,-76.0
2023-08-12 14:30:01.217547,-73.0
2023-08-12 14:30:01.225237,-64.0
2023-08-12 14:30:01.232927,-57.0
2023-08-12 14:30:01.240617,-57.0
2023-08-12 14:30:01.248307,-59.0
2023-08-12 14:30:01.255997,-61.0
2023-08-12 14:30:01.263687,-61.0
2023-08-12 14:30:01.271377,-66.0
2023-08-12 14:30:01.279067,-76.0
2023-08-12 14:30:01.286757,-85.0
2023-08-12 14:30:01.294447,-92.0
2023-08-12 14:30:01.302137,-92.0
2023-08-12 14:30:01.309827,-88.0
2023-08-12 14:30:01.317517,-95.0
2023-08-12 14:30:01.325206,-99.0
2023-08-12 14:30:01.332896,-95.0
2023-08-12 14:30:01.340586,-59.0
2023-08-12 14:30:01.348276,83.0
2023-08-12 14:30:01.355966,342.0
2023-08-12 14:30:01.363656,537.0
2023-08-12 14:30:01.371346,414.0
2023-08-12 14:30:01.379036,28.0
2023-08-12 14:30:01.386726,-207.0
2023-08-12 14:30:01.394416,-180.0
2023-08-12 14:30:01.402106,-161.0
2023-08-12 14:30:01.409796,-171.0
2023-08-12 14:30:01.417486,-109.0
2023-08-12 14:30:01.425176,-78.0
2023-08-12 14:30:01.432866,-99.0
2023-08-12 14:30:01.440556,-90.0
2023-08-12 14:30:01.448246,-73.0
2023-08-12 14:30:01.455936,-78.0
2023-08-12 14:30:01.463626,-71.0
2023-08-12 14:30:01.471316,-59.0
2023-08-12 14:30:01.479006,-57.0
2023-08-12 14:30:01.486696,-54.0
2023-08-12 14:30:01.494386,-40.0
2023-08-12 14:30:01.502076,-23.0
2023-08-12 14:30:01.509766,-19.0
2023-08-12 14:30:01.517456,-19.0
2023-08-12 14:30:01.525146,-2.0
2023-08-12 14:30:01.532836,16.0
2023-08-12 14:30:01.540526,28.0
2023-08-12 14:30:01.548216,40.0
2023-08-12 14:30:01.555905,59.0
2023-08-12 14:30:01.563595,78.0
2023-08-12 14:30:01.571285,92.0
2023-08-12 14:30:01.578975,102.0
2023-08-12 14:30:01.586665,97.0
2023-08-12 14:30:01.594355,83.0
2023-08-12 14:30:01.602045,64.0
2023-08-12 14:30:01.609735,42.0
2023-08-12 14:30:01.617425,7.0
2023-08-12 14:30:01.625115,-40.0
2023-08-12 14:30:01.632805,-80.0
2023-08-12 14:30:01.640495,-109.0
2023-08-12 14:30:01.648185,-135.0
2023-08-12 14:30:01.655875,-147.0
2023-08-12 14:30:01.663565,-147.0
2023-08-12 14:30:01.671255,-152.0
2023-08-12 14:30:01.678945,-152.0
2023-08-12 14:30:01.686635,-138.0
2023-08-12 14:30:01.694325,-133.0
2023-08-12 14:30:01.702015,-142.0
2023-08-12 14:30:01.709705,-142.0
2023-08-12 14:30:01.717395,-130.0
2023-08-12 14:30:01.725085,-128.0
2023-08-12 14:30:01.732775,-123.0
2023-08-12 14:30:01.740465,-114.0
2023-08-12 14:30:01.748155,-109.0
2023-08-12 14:30:01.755845,-116.0
2023-08-12 14:30:01.763535,-111.0
2023-08-12 14:30:01.771225,-95.0
2023-08-12 14:30:01.778914,-97.0
2023-08-12 14:30:01.786604,-107.0
2023-08-12 14:30:01.794294,-95.0
2023-08-12 14:30:01.801984,-78.0
2023-08-12 14:30:01.809674,-95.0
2023-08-12 14:30:01.817364,-111.0
2023-08-12 14:30:01.825054,-97.0
2023-08-12 14:30:01.832744,-90.0
2023-08-12 14:30:01.840434,-95.0
2023-08-12 14:30:01.848124,-95.0
2023-08-12 14:30:01.855814,-90.0
2023-08-12 14:30:01.863504,-88.0
2023-08-12 14:30:01.871194,-88.0
2023-08-12 14:30:01.878884,-90.0
2023-08-12 14:30:01.886574,-92.0
2023-08-12 14:30:01.894264,-85.0
2023-08-12 14:30:01.901954,-80.0
2023-08-12 14:30:01.909644,-83.0
2023-08-12 14:30:01.917334,-83.0
2023-08-12 14:30:01.925024,-80.0
2023-08-12 14:30:01.932714,-78.0
2023-08-12 14:30:01.940404,-80.0
2023-08-12 14:30:01.948094,-83.0
2023-08-12 14:30:01.955784,-85.0
2023-08-12 14:30:01.963474,-85.0
2023-08-12 14:30:01.971164,-83.0
2023-08-12 14:30:01.978854,-85.0
2023-08-12 14:30:01.986544,-80.0
2023-08-12 14:30:01.994234,-73.0
2023-08-12 14:30:02.001923,-76.0
2023-08-12 14:30:02.009613,-71.0
2023-08-12 14:30:02.017303,-64.0
2023-08-12 14:30:02.024993,-61.0
2023-08-12 14:30:02.032683,-61.0
2023-08-12 14:30:02.040373,-52.0
2023-08-12 14:30:02.048063,-40.0
2023-08-12 14:30:02.055753,-40.0
2023-08-12 14:30:02.063443,-49.0
2023-08-12 14:30:02.071133,-54.0
2023-08-12 14:30:02.078823,-57.0
2023-08-12 14:30:02.086513,-66.0
2023-08-12 14:30:02.094203,-85.0
2023-08-12 14:30:02.101893,-95.0
2023-08-12 14:30:02.109583,-95.0
2023-08-12 14:30:02.117273,-90.0
2023-08-12 14:30:02.124963,-90.0
2023-08-12 14:30:02.132653,-92.0
2023-08-12 14:30:02.140343,-97.0
2023-08-12 14:30:02.148033,-92.0
2023-08-12 14:30:02.155723,-35.0
2023-08-12 14:30:02.163413,161.0
2023-08-12 14:30:02.171103,476.0
2023-08-12 14:30:02.178793,618.0
2023-08-12 14:30:02.186483,345.0
2023-08-12 14:30:02.194173,-90.0
2023-08-12 14:30:02.201863,-230.0
2023-08-12 14:30:02.209553,-169.0
2023-08-12 14:30:02.217243,-192.0
2023-08-12 14:30:02.224932,-188.0
2023-08-12 14:30:02.232622,-102.0
2023-08-12 14:30:02.240312,-85.0
2023-08-12 14:30:02.248002,-114.0
2023-08-12 14:30:02.255692,-99.0
2023-08-12 14:30:02.263382,-83.0
2023-08-12 14:30:02.271072,-80.0
2023-08-12 14:30:02.278762,-71.0
2023-08-12 14:30:02.286452,-59.0
2023-08-12 14:30:02.294142,-52.0
2023-08-12 14:30:02.301832,-47.0
2023-08-12 14:30:02.309522,-40.0
2023-08-12 14:30:02.317212,-28.0
2023-08-12 14:30:02.324902,-19.0
2023-08-12 14:30:02.332592,-9.0
2023-08-12 14:30:02.340282,4.0
2023-08-12 14:30:02.347972,14.0
2023-08-12 14:30:02.355662,28.0
2023-08-12 14:30:02.363352,47.0
2023-08-12 14:30:02.371042,66.0
2023-08-12 14:30:02.378732,78.0
2023-08-12 14:30:02.386422,92.0
2023-08-12 14:30:02.394112,92.0
2023-08-12 14:30:02.401802,78.0
2023-08-12 14:30:02.409492,71.0
2023-08-12 14:30:02.417182,59.0
2023-08-12 14:30:02.424872,26.0
2023-08-12 14:30:02.432562,-14.0
2023-08-12 14:30:02.440252,-59.0
2023-08-12 14:30:02.447942,-104.0
2023-08-12 14:30:02.455631,-133.0
2023-08-12 14:30:02.463321,-149.0
2023-08-12 14:30:02.471011,-157.0
2023-08-12 14:30:02.478701,-161.0
2023-08-12 14:30:02.486391,-171.0
2023-08-12 14:30:02.494081,-173.0
2023-08-12 14:30:02.501771,-164.0
2023-08-12 14:30:02.509461,-154.0
2023-08-12 14:30:02.517151,-152.0
2023-08-12 14:30:02.524841,-149.0
2023-08-12 14:30:02.532531,-142.0
2023-08-12 14:30:02.540221,-130.0
2023-08-12 14:30:02.547911,-121.0
2023-08-12 14:30:02.555601,-119.0
2023-08-12 14:30:02.563291,-114.0
2023-08-12 14:30:02.570981,-111.0
2023-08-12 14:30:02.578671,-109.0
2023-08-12 14:30:02.586361,-102.0
2023-08-12 14:30:02.594051,-99.0
2023-08-12 14:30:02.601741,-102.0
2023-08-12 14:30:02.609431,-99.0
2023-08-12 14:30:02.617121,-97.0
2023-08-12 14:30:02.624811,-95.0
2023-08-12 14:30:02.632501,-92.0
2023-08-12 14:30:02.640191,-90.0
2023-08-12 14:30:02.647881,-92.0
2023-08-12 14:30:02.655571,-92.0
2023-08-12 14:30:02.663261,-90.0
2023-08-12 14:30:02.670951,-88.0
2023-08-12 14:30:02.678640,-88.0
2023-08-12 14:30:02.686330,-88.0
2023-08-12 14:30:02.694020,-92.0
2023-08-12 14:30:02.701710,-92.0
2023-08-12 14:30:02.709400,-85.0
2023-08-12 14:30:02.717090,-83.0
2023-08-12 14:30:02.724780,-83.0
2023-08-12 14:30:02.732470,-80.0
2023-08-12 14:30:02.740160,-78.0
2023-08-12 14:30:02.747850,-76.0
2023-08-12 14:30:02.755540,-73.0
2023-08-12 14:30:02.763230,-78.0
2023-08-12 14:30:02.770920,-78.0
2023-08-12 14:30:02.778610,-76.0
2023-08-12 14:30:02.786300,-73.0
2023-08-12 14:30:02.793990,-73.0
2023-08-12 14:30:02.801680,-71.0
2023-08-12 14:30:02.809370,-69.0
2023-08-12 14:30:02.817060,-61.0
2023-08-12 14:30:02.824750,-57.0
2023-08-12 14:30:02.832440,-42.0
2023-08-12 14:30:02.840130,-28.0
2023-08-12 14:30:02.847820,-30.0
2023-08-12 14:30:02.855510,-40.0
2023-08-12 14:30:02.863200,-45.0
2023-08-12 14:30:02.870890,-40.0
2023-08-12 14:30:02.878580,-40.0
2023-08-12 14:30:02.886270,-52.0
2023-08-12 14:30:02.893960,-64.0
2023-08-12 14:30:02.901649,-69.0
2023-08-12 14:30:02.909339,-73.0
2023-08-12 14:30:02.917029,-78.0
2023-08-12 14:30:02.924719,-73.0
2023-08-12 14:30:02.932409,-69.0
2023-08-12 14:30:02.940099,-78.0
2023-08-12 14:30:02.947789,-83.0
2023-08-12 14:30:02.955479,-11.0
2023-08-12 14:30:02.963169,204.0
2023-08-12 14:30:02.970859,476.0
2023-08-12 14:30:02.978549,549.0
2023-08-12 14:30:02.986239,273.0
2023-08-12 14:30:02.993929,-99.0
2023-08-12 14:30:03.001619,-218.0
2023-08-12 14:30:03.009309,-173.0
2023-08-12 14:30:03.016999,-169.0
2023-08-12 14:30:03.024689,-142.0
2023-08-12 14:30:03.032379,-99.0
2023-08-12 14:30:03.040069,-111.0
2023-08-12 14:30:03.047759,-111.0
2023-08-12 14:30:03.055449,-85.0
2023-08-12 14:30:03.063139,-80.0
2023-08-12 14:30:03.070829,-83.0
2023-08-12 14:30:03.078519,-73.0
2023-08-12 14:30:03.086209,-64.0
2023-08-12 14:30:03.093899,-59.0
2023-08-12 14:30:03.101589,-54.0
2023-08-12 14:30:03.109279,-49.0
2023-08-12 14:30:03.116969,-45.0
2023-08-12 14:30:03.124658,-28.0
2023-08-12 14:30:03.132348,-14.0
2023-08-12 14:30:03.140038,-4.0
2023-08-12 14:30:03.147728,7.0
2023-08-12 14:30:03.155418,21.0
2023-08-12 14:30:03.163108,35.0
2023-08-12 14:30:03.170798,52.0
2023-08-12 14:30:03.178488,66.0
2023-08-12 14:30:03.186178,76.0
2023-08-12 14:30:03.193868,78.0
2023-08-12 14:30:03.201558,69.0
2023-08-12 14:30:03.209248,59.0
2023-08-12 14:30:03.216938,42.0
2023-08-12 14:30:03.224628,9.0
2023-08-12 14:30:03.232318,-30.0
2023-08-12 14:30:03.240008,-61.0
2023-08-12 14:30:03.247698,-90.0
2023-08-12 14:30:03.255388,-119.0
2023-08-12 14:30:03.263078,-133.0
2023-08-12 14:30:03.270768,-138.0
2023-08-12 14:30:03.278458,-138.0
2023-08-12 14:30:03.286148,-133.0
2023-08-12 14:30:03.293838,-130.0
2023-08-12 14:30:03.301528,-130.0
2023-08-12 14:30:03.309218,-121.0
2023-08-12 14:30:03.316908,-111.0
2023-08-12 14:30:03.324598,-111.0
2023-08-12 14:30:03.332288,-107.0
2023-08-12 14:30:03.339978,-99.0
2023-08-12 14:30:03.347668,-104.0
2023-08-12 14:30:03.355357,-104.0
2023-08-12 14:30:03.363047,-95.0
2023-08-12 14:30:03.370737,-92.0
2023-08-12 14:30:03.378427,-90.0
2023-08-12 14:30:03.386117,-90.0
2023-08-12 14:30:03.393807,-88.0
2023-08-12 14:30:03.401497,-83.0
2023-08-12 14:30:03.409187,-83.0
2023-08-12 14:30:03.416877,-80.0
2023-08-12 14:30:03.424567,-78.0
2023-08-12 14:30:03.432257,-78.0
2023-08-12 14:30:03.439947,-78.0
2023-08-12 14:30:03.447637,-78.0
2023-08-12 14:30:03.455327,-76.0
2023-08-12 14:30:03.463017,-73.0
2023-08-12 14:30:03.470707,-78.0
2023-08-12 14:30:03.478397,-85.0
2023-08-12 14:30:03.486087,-85.0
2023-08-12 14:30:03.493777,-80.0
2023-08-12 14:30:03.501467,-80.0
2023-08-12 14:30:03.509157,-78.0
2023-08-12 14:30:03.516847,-78.0
2023-08-12 14:30:03.524537,-78.0
2023-08-12 14:30:03.532227,-76.0
2023-08-12 14:30:03.539917,-73.0
2023-08-12 14:30:03.547607,-73.0
2023-08-12 14:30:03.555297,-66.0
2023-08-12 14:30:03.562987,-64.0
2023-08-12 14:30:03.570677,-71.0
2023-08-12 14:30:03.578366,-73.0
2023-08-12 14:30:03.586056,-69.0
2023-08-12 14:30:03.593746,-66.0
2023-08-12 14:30:03.601436,-64.0
2023-08-12 14:30:03.609126,-66.0
2023-08-12 14:30:03.616816,-69.0
2023-08-12 14:30:03.624506,-59.0
2023-08-12 14:30:03.632196,-52.0
2023-08-12 14:30:03.639886,-52.0
2023-08-12 14:30:03.647576,-38.0
2023-08-12 14:30:03.655266,-26.0
2023-08-12 14:30:03.662956,-33.0
2023-08-12 14:30:03.670646,-38.0
2023-08-12 14:30:03.678336,-38.0
2023-08-12 14:30:03.686026,-45.0
2023-08-12 14:30:03.693716,-57.0
2023-08-12 14:30:03.701406,-66.0
2023-08-12 14:30:03.709096,-71.0
2023-08-12 14:30:03.716786,-76.0
2023-08-12 14:30:03.724476,-88.0
2023-08-12 14:30:03.732166,-88.0
2023-08-12 14:30:03.739856,-80.0
2023-08-12 14:30:03.747546,-80.0
2023-08-12 14:30:03.755236,-85.0
2023-08-12 14:30:03.762926,-59.0
2023-08-12 14:30:03.770616,61.0
2023-08-12 14:30:03.778306,309.0
2023-08-12 14:30:03.785996,530.0
2023-08-12 14:30:03.793686,464.0
2023-08-12 14:30:03.801375,104.0
2023-08-12 14:30:03.809065,-173.0
2023-08-12 14:30:03.816755,-178.0
2023-08-12 14:30:03.824445,-147.0
2023-08-12 14:30:03.832135,-154.0
2023-08-12 14:30:03.839825,-109.0
2023-08-12 14:30:03.847515,-83.0
2023-08-12 14:30:03.855205,-104.0
2023-08-12 14:30:03.862895,-99.0
2023-08-12 14:30:03.870585,-83.0
2023-08-12 14:30:03.878275,-90.0
2023-08-12 14:30:03.885965,-85.0
2023-08-12 14:30:03.893655,-71.0
2023-08-12 14:30:03.901345,-61.0
2023-08-12 14:30:03.909035,-57.0
2023-08-12 14:30:03.916725,-47.0
2023-08-12 14:30:03.924415,-40.0
2023-08-12 14:30:03.932105,-33.0
2023-08-12 14:30:03.939795,-23.0
2023-08-12 14:30:03.947485,-14.0
2023-08-12 14:30:03.955175,-2.0
2023-08-12 14:30:03.962865,11.0
2023-08-12 14:30:03.970555,26.0
2023-08-12 14:30:03.978245,45.0
2023-08-12 14:30:03.985935,59.0
2023-08-12 14:30:03.993625,71.0
2023-08-12 14:30:04.001315,83.0
2023-08-12 14:30:04.009005,80.0
2023-08-12 14:30:04.016695,64.0
2023-08-12 14:30:04.024384,40.0
2023-08-12 14:30:04.032074,23.0
2023-08-12 14:30:04.039764,-9.0
2023-08-12 14:30:04.047454,-54.0
2023-08-12 14:30:04.055144,-92.0
2023-08-12 14:30:04.062834,-119.0
2023-08-12 14:30:04.070524,-135.0
2023-08-12 14:30:04.078214,-147.0
2023-08-12 14:30:04.085904,-152.0
2023-08-12 14:30:04.093594,-154.0
2023-08-12 14:30:04.101284,-152.0
2023-08-12 14:30:04.108974,-145.0
2023-08-12 14:30:04.116664,-142.0
2023-08-12 14:30:04.124354,-145.0
2023-08-12 14:30:04.132044,-140.0
2023-08-12 14:30:04.139734,-133.0
2023-08-12 14:30:04.147424,-130.0
2023-08-12 14:30:04.155114,-128.0
2023-08-12 14:30:04.162804,-123.0
2023-08-12 14:30:04.170494,-116.0
2023-08-12 14:30:04.178184,-114.0
2023-08-12 14:30:04.185874,-116.0
2023-08-12 14:30:04.193564,-116.0
2023-08-12 14:30:04.201254,-109.0
2023-08-12 14:30:04.208944,-109.0
2023-08-12 14:30:04.216634,-109.0
2023-08-12 14:30:04.224324,-102.0
2023-08-12 14:30:04.232014,-95.0
2023-08-12 14:30:04.239704,-92.0
2023-08-12 14:30:04.247394,-92.0
2023-08-12 14:30:04.255083,-97.0
2023-08-12 14:30:04.262773,-95.0
2023-08-12 14:30:04.270463,-88.0
2023-08-12 14:30:04.278153,-88.0
2023-08-12 14:30:04.285843,-92.0
2023-08-12 14:30:04.293533,-90.0
2023-08-12 14:30:04.301223,-90.0
2023-08-12 14:30:04.308913,-88.0
2023-08-12 14:30:04.316603,-76.0
2023-08-12 14:30:04.324293,-73.0
2023-08-12 14:30:04.331983,-90.0
2023-08-12 14:30:04.339673,-92.0
2023-08-12 14:30:04.347363,-78.0
2023-08-12 14:30:04.355053,-73.0
2023-08-12 14:30:04.362743,-80.0
2023-08-12 14:30:04.370433,-83.0
2023-08-12 14:30:04.378123,-73.0
2023-08-12 14:30:04.385813,-69.0
2023-08-12 14:30:04.393503,-71.0
2023-08-12 14:30:04.401193,-69.0
2023-08-12 14:30:04.408883,-69.0
2023-08-12 14:30:04.416573,-71.0
2023-08-12 14:30:04.424263,-64.0
2023-08-12 14:30:04.431953,-45.0
2023-08-12 14:30:04.439643,-30.0
2023-08-12 14:30:04.447333,-33.0
2023-08-12 14:30:04.455023,-33.0
2023-08-12 14:30:04.462713,-45.0
2023-08-12 14:30:04.470403,-59.0
2023-08-12 14:30:04.478092,-52.0
2023-08-12 14:30:04.485782,-52.0
2023-08-12 14:30:04.493472,-71.0
2023-08-12 14:30:04.501162,-85.0
2023-08-12 14:30:04.508852,-83.0
2023-08-12 14:30:04.516542,-73.0
2023-08-12 14:30:04.524232,-71.0
2023-08-12 14:30:04.531922,-76.0
2023-08-12 14:30:04.539612,-76.0
2023-08-12 14:30:04.547302,-66.0
2023-08-12 14:30:04.554992,7.0
2023-08-12 14:30:04.562682,235.0
2023-08-12 14:30:04.570372,542.0
2023-08-12 14:30:04.578062,597.0
2023-08-12 14:30:04.585752,240.0
2023-08-12 14:30:04.593442,-149.0
2023-08-12 14:30:04.601132,-209.0
2023-08-12 14:30:04.608822,-152.0
2023-08-12 14:30:04.616512,-183.0
2023-08-12 14:30:04.624202,-159.0
2023-08-12 14:30:04.631892,-90.0
2023-08-12 14:30:04.639582,-99.0
2023-08-12 14:30:04.647272,-126.0
2023-08-12 14:30:04.654962,-109.0
2023-08-12 14:30:04.662652,-92.0
2023-08-12 14:30:04.670342,-95.0
2023-08-12 14:30:04.678032,-90.0
2023-08-12 14:30:04.685722,-78.0
2023-08-12 14:30:04.693412,-76.0
2023-08-12 14:30:04.701101,-66.0
2023-08-12 14:30:04.708791,-52.0
2023-08-12 14:30:04.716481,-38.0
2023-08-12 14:30:04.724171,-33.0
2023-08-12 14:30:04.731861,-30.0
2023-08-12 14:30:04.739551,-14.0
2023-08-12 14:30:04.747241,7.0
2023-08-12 14:30:04.754931,21.0
2023-08-12 14:30:04.762621,38.0
2023-08-12 14:30:04.770311,57.0
2023-08-12 14:30:04.778001,73.0
2023-08-12 14:30:04.785691,78.0
2023-08-12 14:30:04.793381,76.0
2023-08-12 14:30:04.801071,71.0
2023-08-12 14:30:04.808761,59.0
2023-08-12 14:30:04.816451,40.0
2023-08-12 14:30:04.824141,4.0
2023-08-12 14:30:04.831831,-42.0
2023-08-12 14:30:04.839521,-92.0
2023-08-12 14:30:04.847211,-133.0
2023-08-12 14:30:04.854901,-157.0
2023-08-12 14:30:04.862591,-166.0
2023-08-12 14:30:04.870281,-171.0
2023-08-12 14:30:04.877971,-176.0
2023-08-12 14:30:04.885661,-180.0
2023-08-12 14:30:04.893351,-173.0
2023-08-12 14:30:04.901041,-164.0
2023-08-12 14:30:04.908731,-164.0
2023-08-12 14:30:04.916421,-164.0
2023-08-12 14:30:04.924110,-164.0
2023-08-12 14:30:04.931800,-161.0
2023-08-12 14:30:04.939490,-157.0
2023-08-12 14:30:04.947180,-142.0
2023-08-12 14:30:04.954870,-133.0
2023-08-12 14:30:04.962560,-130.0
2023-08-12 14:30:04.970250,-128.0
2023-08-12 14:30:04.977940,-121.0
2023-08-12 14:30:04.985630,-119.0
2023-08-12 14:30:04.993320,-119.0
2023-08-12 14:30:05.001010,-114.0
2023-08-12 14:30:05.008700,-107.0
2023-08-12 14:30:05.016390,-104.0
2023-08-12 14:30:05.024080,-109.0
2023-08-12 14:30:05.031770,-109.0
2023-08-12 14:30:05.039460,-104.0
2023-08-12 14:30:05.047150,-107.0
2023-08-12 14:30:05.054840,-107.0
2023-08-12 14:30:05.062530,-102.0
2023-08-12 14:30:05.070220,-102.0
2023-08-12 14:30:05.077910,-104.0
2023-08-12 14:30:05.085600,-104.0
2023-08-12 14:30:05.093290,-104.0
2023-08-12 14:30:05.100980,-97.0
2023-08-12 14:30:05.108670,-90.0
2023-08-12 14:30:05.116360,-92.0
2023-08-12 14:30:05.124050,-102.0
2023-08-12 14:30:05.131740,-99.0
2023-08-12 14:30:05.139430,-92.0
2023-08-12 14:30:05.147120,-97.0
2023-08-12 14:30:05.154809,-102.0
2023-08-12 14:30:05.162499,-97.0
2023-08-12 14:30:05.170189,-90.0
2023-08-12 14:30:05.177879,-92.0
2023-08-12 14:30:05.185569,-92.0
2023-08-12 14:30:05.193259,-90.0
2023-08-12 14:30:05.200949,-76.0
2023-08-12 14:30:05.208639,-59.0
2023-08-12 14:30:05.216329,-54.0
2023-08-12 14:30:05.224019,-61.0
2023-08-12 14:30:05.231709,-76.0
2023-08-12 14:30:05.239399,-78.0
2023-08-12 14:30:05.247089,-73.0
2023-08-12 14:30:05.254779,-83.0
2023-08-12 14:30:05.262469,-95.0
2023-08-12 14:30:05.270159,-95.0
2023-08-12 14:30:05.277849,-99.0
2023-08-12 14:30:05.285539,-97.0
2023-08-12 14:30:05.293229,-90.0
2023-08-12 14:30:05.300919,-92.0
2023-08-12 14:30:05.308609,-95.0
2023-08-12 14:30:05.316299,-85.0
2023-08-12 14:30:05.323989,-26.0
2023-08-12 14:30:05.331679,166.0
2023-08-12 14:30:05.339369,440.0
2023-08-12 14:30:05.347059,547.0
2023-08-12 14:30:05.354749,307.0
2023-08-12 14:30:05.362439,-71.0
2023-08-12 14:30:05.370129,-211.0
2023-08-12 14:30:05.377818,-164.0
2023-08-12 14:30:05.385508,-159.0
2023-08-12 14:30:05.393198,-142.0
2023-08-12 14:30:05.400888,-92.0
2023-08-12 14:30:05.408578,-99.0
2023-08-12 14:30:05.416268,-109.0
2023-08-12 14:30:05.423958,-88.0
2023-08-12 14:30:05.431648,-80.0
2023-08-12 14:30:05.439338,-83.0
2023-08-12 14:30:05.447028,-69.0
2023-08-12 14:30:05.454718,-57.0
2023-08-12 14:30:05.462408,-61.0
2023-08-12 14:30:05.470098,-54.0
2023-08-12 14:30:05.477788,-38.0
2023-08-12 14:30:05.485478,-33.0
2023-08-12 14:30:05.493168,-26.0
2023-08-12 14:30:05.500858,-11.0
2023-08-12 14:30:05.508548,-4.0
2023-08-12 14:30:05.516238,9.0
2023-08-12 14:30:05.523928,28.0
2023-08-12 14:30:05.531618,45.0
2023-08-12 14:30:05.539308,61.0
2023-08-12 14:30:05.546998,73.0
2023-08-12 14:30:05.554688,78.0
2023-08-12 14:30:05.562378,76.0
2023-08-12 14:30:05.570068,76.0
2023-08-12 14:30:05.577758,71.0
2023-08-12 14:30:05.585448,49.0
2023-08-12 14:30:05.593138,9.0
2023-08-12 14:30:05.600827,-30.0
2023-08-12 14:30:05.608517,-64.0
2023-08-12 14:30:05.616207,-97.0
2023-08-12 14:30:05.623897,-126.0
2023-08-12 14:30:05.631587,-142.0
2023-08-12 14:30:05.639277,-154.0
2023-08-12 14:30:05.646967,-161.0
2023-08-12 14:30:05.654657,-161.0
2023-08-12 14:30:05.662347,-157.0
2023-08-12 14:30:05.670037,-157.0
2023-08-12 14:30:05.677727,-147.0
2023-08-12 14:30:05.685417,-140.0
2023-08-12 14:30:05.693107,-135.0
2023-08-12 14:30:05.700797,-128.0
2023-08-12 14:30:05.708487,-123.0
2023-08-12 14:30:05.716177,-126.0
2023-08-12 14:30:05.723867,-133.0
2023-08-12 14:30:05.731557,-138.0
2023-08-12 14:30:05.739247,-128.0
2023-08-12 14:30:05.746937,-119.0
2023-08-12 14:30:05.754627,-116.0
2023-08-12 14:30:05.762317,-114.0
2023-08-12 14:30:05.770007,-111.0
2023-08-12 14:30:05.777697,-109.0
2023-08-12 14:30:05.785387,-102.0
2023-08-12 14:30:05.793077,-97.0
2023-08-12 14:30:05.800767,-97.0
2023-08-12 14:30:05.808457,-102.0
2023-08-12 14:30:05.816147,-99.0
2023-08-12 14:30:05.823836,-92.0
2023-08-12 14:30:05.831526,-92.0
2023-08-12 14:30:05.839216,-99.0
2023-08-12 14:30:05.846906,-99.0
2023-08-12 14:30:05.854596,-90.0
2023-08-12 14:30:05.862286,-90.0
2023-08-12 14:30:05.869976,-95.0
2023-08-12 14:30:05.877666,-88.0
2023-08-12 14:30:05.885356,-80.0
2023-08-12 14:30:05.893046,-85.0
2023-08-12 14:30:05.900736,-88.0
2023-08-12 14:30:05.908426,-88.0
2023-08-12 14:30:05.916116,-88.0
2023-08-12 14:30:05.923806,-88.0
2023-08-12 14:30:05.931496,-83.0
2023-08-12 14:30:05.939186,-78.0
2023-08-12 14:30:05.946876,-80.0
2023-08-12 14:30:05.954566,-80.0
2023-08-12 14:30:05.962256,-76.0
2023-08-12 14:30:05.969946,-76.0
2023-08-12 14:30:05.977636,-76.0
2023-08-12 14:30:05.985326,-66.0
2023-08-12 14:30:05.993016,-61.0
2023-08-12 14:30:06.000706,-64.0
2023-08-12 14:30:06.008396,-57.0
2023-08-12 14:30:06.016086,-40.0
2023-08-12 14:30:06.023776,-33.0
2023-08-12 14:30:06.031466,-35.0
2023-08-12 14:30:06.039156,-38.0
2023-08-12 14:30:06.046846,-42.0
2023-08-12 14:30:06.054535,-42.0
2023-08-12 14:30:06.062225,-42.0
2023-08-12 14:30:06.069915,-52.0
2023-08-12 14:30:06.077605,-64.0
2023-08-12 14:30:06.085295,-73.0
2023-08-12 14:30:06.092985,-78.0
2023-08-12 14:30:06.100675,-73.0
2023-08-12 14:30:06.108365,-69.0
2023-08-12 14:30:06.116055,-69.0
2023-08-12 14:30:06.123745,-71.0
2023-08-12 14:30:06.131435,-69.0
2023-08-12 14:30:06.139125,-7.0
2023-08-12 14:30:06.146815,188.0
2023-08-12 14:30:06.154505,449.0
2023-08-12 14:30:06.162195,528.0
2023-08-12 14:30:06.169885,268.0
2023-08-12 14:30:06.177575,-88.0
2023-08-12 14:30:06.185265,-199.0
2023-08-12 14:30:06.192955,-149.0
2023-08-12 14:30:06.200645,-152.0
2023-08-12 14:30:06.208335,-135.0
2023-08-12 14:30:06.216025,-92.0
2023-08-12 14:30:06.223715,-102.0
2023-08-12 14:30:06.231405,-104.0
2023-08-12 14:30:06.239095,-78.0
2023-08-12 14:30:06.246785,-71.0
2023-08-12 14:30:06.254475,-71.0
2023-08-12 14:30:06.262165,-66.0
2023-08-12 14:30:06.269855,-66.0
2023-08-12 14:30:06.277544,-66.0
2023-08-12 14:30:06.285234,-52.0
2023-08-12 14:30:06.292924,-47.0
2023-08-12 14:30:06.300614,-45.0
2023-08-12 14:30:06.308304,-35.0
2023-08-12 14:30:06.315994,-21.0
2023-08-12 14:30:06.323684,-9.0
2023-08-12 14:30:06.331374,0.0
2023-08-12 14:30:06.339064,16.0
2023-08-12 14:30:06.346754,35.0
2023-08-12 14:30:06.354444,47.0
2023-08-12 14:30:06.362134,54.0
2023-08-12 14:30:06.369824,66.0
2023-08-12 14:30:06.377514,71.0
2023-08-12 14:30:06.385204,61.0
2023-08-12 14:30:06.392894,49.0
2023-08-12 14:30:06.400584,33.0
2023-08-12 14:30:06.408274,2.0
2023-08-12 14:30:06.415964,-33.0
2023-08-12 14:30:06.423654,-71.0
2023-08-12 14:30:06.431344,-102.0
2023-08-12 14:30:06.439034,-126.0
2023-08-12 14:30:06.446724,-140.0
2023-08-12 14:30:06.454414,-149.0
2023-08-12 14:30:06.462104,-154.0
2023-08-12 14:30:06.469794,-152.0
2023-08-12 14:30:06.477484,-145.0
2023-08-12 14:30:06.485174,-142.0
2023-08-12 14:30:06.492864,-145.0
2023-08-12 14:30:06.500553,-142.0
2023-08-12 14:30:06.508243,-135.0
2023-08-12 14:30:06.515933,-133.0
2023-08-12 14:30:06.523623,-128.0
2023-08-12 14:30:06.531313,-121.0
2023-08-12 14:30:06.539003,-119.0
2023-08-12 14:30:06.546693,-119.0
2023-08-12 14:30:06.554383,-114.0
2023-08-12 14:30:06.562073,-114.0
2023-08-12 14:30:06.569763,-109.0
2023-08-12 14:30:06.577453,-102.0
2023-08-12 14:30:06.585143,-99.0
2023-08-12 14:30:06.592833,-104.0
2023-08-12 14:30:06.600523,-97.0
2023-08-12 14:30:06.608213,-85.0
2023-08-12 14:30:06.615903,-90.0
2023-08-12 14:30:06.623593,-95.0
2023-08-12 14:30:06.631283,-90.0
2023-08-12 14:30:06.638973,-92.0
2023-08-12 14:30:06.646663,-95.0
2023-08-12 14:30:06.654353,-99.0
2023-08-12 14:30:06.662043,-97.0
2023-08-12 14:30:06.669733,-88.0
2023-08-12 14:30:06.677423,-92.0
2023-08-12 14:30:06.685113,-95.0
2023-08-12 14:30:06.692803,-88.0
2023-08-12 14:30:06.700493,-85.0
2023-08-12 14:30:06.708183,-85.0
2023-08-12 14:30:06.715873,-80.0
2023-08-12 14:30:06.723562,-80.0
2023-08-12 14:30:06.731252,-85.0
2023-08-12 14:30:06.738942,-80.0
2023-08-12 14:30:06.746632,-78.0
2023-08-12 14:30:06.754322,-76.0
2023-08-12 14:30:06.762012,-71.0
2023-08-12 14:30:06.769702,-76.0
2023-08-12 14:30:06.777392,-73.0
2023-08-12 14:30:06.785082,-66.0
2023-08-12 14:30:06.792772,-66.0
2023-08-12 14:30:06.800462,-71.0
2023-08-12 14:30:06.808152,-69.0
2023-08-12 14:30:06.815842,-66.0
2023-08-12 14:30:06.823532,-64.0
2023-08-12 14:30:06.831222,-59.0
2023-08-12 14:30:06.838912,-59.0
2023-08-12 14:30:06.846602,-59.0
2023-08-12 14:30:06.854292,-61.0
2023-08-12 14:30:06.861982,-57.0
2023-08-12 14:30:06.869672,-49.0
2023-08-12 14:30:06.877362,-45.0
2023-08-12 14:30:06.885052,-42.0
2023-08-12 14:30:06.892742,-40.0
2023-08-12 14:30:06.900432,-45.0
2023-08-12 14:30:06.908122,-52.0
2023-08-12 14:30:06.915812,-54.0
2023-08-12 14:30:06.923502,-69.0
2023-08-12 14:30:06.931192,-80.0
2023-08-12 14:30:06.938882,-80.0
2023-08-12 14:30:06.946572,-78.0
2023-08-12 14:30:06.954261,-80.0
2023-08-12 14:30:06.961951,-69.0
2023-08-12 14:30:06.969641,-57.0
2023-08-12 14:30:06.977331,-61.0
2023-08-12 14:30:06.985021,-40.0
2023-08-12 14:30:06.992711,114.0
2023-08-12 14:30:07.000401,407.0
2023-08-12 14:30:07.008091,614.0
2023-08-12 14:30:07.015781,447.0
2023-08-12 14:30:07.023471,11.0
2023-08-12 14:30:07.031161,-216.0
2023-08-12 14:30:07.038851,-164.0
2023-08-12 14:30:07.046541,-157.0
2023-08-12 14:30:07.054231,-171.0
2023-08-12 14:30:07.061921,-95.0
2023-08-12 14:30:07.069611,-69.0
2023-08-12 14:30:07.077301,-99.0
2023-08-12 14:30:07.084991,-80.0
2023-08-12 14:30:07.092681,-52.0
2023-08-12 14:30:07.100371,-61.0
2023-08-12 14:30:07.108061,-61.0
2023-08-12 14:30:07.115751,-42.0
2023-08-12 14:30:07.123441,-40.0
2023-08-12 14:30:07.131131,-42.0
2023-08-12 14:30:07.138821,-33.0
2023-08-12 14:30:07.146511,-21.0
2023-08-12 14:30:07.154201,-16.0
2023-08-12 14:30:07.161891,-11.0
2023-08-12 14:30:07.169581,-2.0
2023-08-12 14:30:07.177270,19.0
2023-08-12 14:30:07.184960,38.0
2023-08-12 14:30:07.192650,47.0
2023-08-12 14:30:07.200340,59.0
2023-08-12 14:30:07.208030,80.0
2023-08-12 14:30:07.215720,95.0
2023-08-12 14:30:07.223410,102.0
2023-08-12 14:30:07.231100,97.0
2023-08-12 14:30:07.238790,88.0
2023-08-12 14:30:07.246480,76.0
2023-08-12 14:30:07.254170,47.0
2023-08-12 14:30:07.261860,-2.0
2023-08-12 14:30:07.269550,-49.0
2023-08-12 14:30:07.277240,-88.0
2023-08-12 14:30:07.284930,-116.0
2023-08-12 14:30:07.292620,-135.0
2023-08-12 14:30:07.300310,-147.0
2023-08-12 14:30:07.308000,-157.0
2023-08-12 14:30:07.315690,-157.0
2023-08-12 14:30:07.323380,-154.0
2023-08-12 14:30:07.331070,-154.0
2023-08-12 14:30:07.338760,-147.0
2023-08-12 14:30:07.346450,-142.0
2023-08-12 14:30:07.354140,-145.0
2023-08-12 14:30:07.361830,-135.0
2023-08-12 14:30:07.369520,-126.0
2023-08-12 14:30:07.377210,-135.0
2023-08-12 14:30:07.384900,-138.0
2023-08-12 14:30:07.392590,-128.0
2023-08-12 14:30:07.400279,-128.0
2023-08-12 14:30:07.407969,-123.0
2023-08-12 14:30:07.415659,-111.0
2023-08-12 14:30:07.423349,-111.0
2023-08-12 14:30:07.431039,-114.0
2023-08-12 14:30:07.438729,-111.0
2023-08-12 14:30:07.446419,-109.0
2023-08-12 14:30:07.454109,-104.0
2023-08-12 14:30:07.461799,-99.0
2023-08-12 14:30:07.469489,-99.0
2023-08-12 14:30:07.477179,-99.0
2023-08-12 14:30:07.484869,-99.0
2023-08-12 14:30:07.492559,-102.0
2023-08-12 14:30:07.500249,-97.0
2023-08-12 14:30:07.507939,-92.0
2023-08-12 14:30:07.515629,-95.0
2023-08-12 14:30:07.523319,-95.0
2023-08-12 14:30:07.531009,-92.0
2023-08-12 14:30:07.538699,-88.0
2023-08-12 14:30:07.546389,-88.0
2023-08-12 14:30:07.554079,-92.0
2023-08-12 14:30:07.561769,-92.0
2023-08-12 14:30:07.569459,-85.0
2023-08-12 14:30:07.577149,-85.0
2023-08-12 14:30:07.584839,-85.0
2023-08-12 14:30:07.592529,-80.0
2023-08-12 14:30:07.600219,-78.0
2023-08-12 14:30:07.607909,-85.0
2023-08-12 14:30:07.615599,-83.0
2023-08-12 14:30:07.623288,-76.0
2023-08-12 14:30:07.630978,-80.0
2023-08-12 14:30:07.638668,-80.0
2023-08-12 14:30:07.646358,-73.0
2023-08-12 14:30:07.654048,-73.0
2023-08-12 14:30:07.661738,-76.0
2023-08-12 14:30:07.669428,-73.0
2023-08-12 14:30:07.677118,-59.0
2023-08-12 14:30:07.684808,-42.0
2023-08-12 14:30:07.692498,-40.0
2023-08-12 14:30:07.700188,-45.0
2023-08-12 14:30:07.707878,-52.0
2023-08-12 14:30:07.715568,-54.0
2023-08-12 14:30:07.723258,-42.0
2023-08-12 14:30:07.730948,-45.0
2023-08-12 14:30:07.738638,-69.0
2023-08-12 14:30:07.746328,-83.0
2023-08-12 14:30:07.754018,-85.0
2023-08-12 14:30:07.761708,-80.0
2023-08-12 14:30:07.769398,-73.0
2023-08-12 14:30:07.777088,-69.0
2023-08-12 14:30:07.784778,-76.0
2023-08-12 14:30:07.792468,-80.0
2023-08-12 14:30:07.800158,-54.0
2023-08-12 14:30:07.807848,83.0
2023-08-12 14:30:07.815538,361.0
2023-08-12 14:30:07.823228,583.0
2023-08-12 14:30:07.830918,464.0
2023-08-12 14:30:07.838608,59.0
2023-08-12 14:30:07.846298,-197.0
2023-08-12 14:30:07.853987,-176.0
2023-08-12 14:30:07.861677,-152.0
2023-08-12 14:30:07.869367,-164.0
2023-08-12 14:30:07.877057,-104.0
2023-08-12 14:30:07.884747,-73.0
2023-08-12 14:30:07.892437,-97.0
2023-08-12 14:30:07.900127,-90.0
2023-08-12 14:30:07.907817,-64.0
2023-08-12 14:30:07.915507,-61.0
2023-08-12 14:30:07.923197,-69.0
2023-08-12 14:30:07.930887,-61.0
2023-08-12 14:30:07.938577,-45.0
2023-08-12 14:30:07.946267,-33.0
2023-08-12 14:30:07.953957,-35.0
2023-08-12 14:30:07.961647,-35.0
2023-08-12 14:30:07.969337,-23.0
2023-08-12 14:30:07.977027,-21.0
2023-08-12 14:30:07.984717,-16.0
2023-08-12 14:30:07.992407,0.0
2023-08-12 14:30:08.000097,16.0
2023-08-12 14:30:08.007787,40.0
2023-08-12 14:30:08.015477,54.0
2023-08-12 14:30:08.023167,45.0
2023-08-12 14:30:08.030857,54.0
2023-08-12 14:30:08.038547,83.0
2023-08-12 14:30:08.046237,97.0
2023-08-12 14:30:08.053927,80.0
2023-08-12 14:30:08.061617,49.0
2023-08-12 14:30:08.069307,26.0
2023-08-12 14:30:08.076996,4.0
2023-08-12 14:30:08.084686,-42.0
2023-08-12 14:30:08.092376,-99.0
2023-08-12 14:30:08.100066,-128.0
2023-08-12 14:30:08.107756,-121.0
2023-08-12 14:30:08.115446,-119.0
2023-08-12 14:30:08.123136,-147.0
2023-08-12 14:30:08.130826,-173.0
2023-08-12 14:30:08.138516,-171.0
2023-08-12 14:30:08.146206,-147.0
2023-08-12 14:30:08.153896,-140.0
2023-08-12 14:30:08.161586,-147.0
2023-08-12 14:30:08.169276,-149.0
2023-08-12 14:30:08.176966,-142.0
2023-08-12 14:30:08.184656,-128.0
2023-08-12 14:30:08.192346,-121.0
2023-08-12 14:30:08.200036,-119.0
2023-08-12 14:30:08.207726,-109.0
2023-08-12 14:30:08.215416,-92.0
2023-08-12 14:30:08.223106,-92.0
2023-08-12 14:30:08.230796,-97.0
2023-08-12 14:30:08.238486,-102.0
2023-08-12 14:30:08.246176,-97.0
2023-08-12 14:30:08.253866,-95.0
2023-08-12 14:30:08.261556,-102.0
2023-08-12 14:30:08.269246,-97.0
2023-08-12 14:30:08.276936,-76.0
2023-08-12 14:30:08.284626,-66.0
2023-08-12 14:30:08.292316,-78.0
2023-08-12 14:30:08.300005,-97.0
2023-08-12 14:30:08.307695,-104.0
2023-08-12 14:30:08.315385,-78.0
2023-08-12 14:30:08.323075,-57.0
2023-08-12 14:30:08.330765,-69.0
2023-08-12 14:30:08.338455,-76.0
2023-08-12 14:30:08.346145,-76.0
2023-08-12 14:30:08.353835,-83.0
2023-08-12 14:30:08.361525,-76.0
2023-08-12 14:30:08.369215,-71.0
2023-08-12 14:30:08.376905,-73.0
2023-08-12 14:30:08.384595,-73.0
2023-08-12 14:30:08.392285,-85.0
2023-08-12 14:30:08.399975,-90.0
2023-08-12 14:30:08.407665,-64.0
2023-08-12 14:30:08.415355,-52.0
2023-08-12 14:30:08.423045,-66.0
2023-08-12 14:30:08.430735,-71.0
2023-08-12 14:30:08.438425,-69.0
2023-08-12 14:30:08.446115,-78.0
2023-08-12 14:30:08.453805,-66.0
2023-08-12 14:30:08.461495,-47.0
2023-08-12 14:30:08.469185,-57.0
2023-08-12 14:30:08.476875,-76.0
2023-08-12 14:30:08.484565,-73.0
2023-08-12 14:30:08.492255,-59.0
2023-08-12 14:30:08.499945,-49.0
2023-08-12 14:30:08.507635,-47.0
2023-08-12 14:30:08.515325,-54.0
2023-08-12 14:30:08.523014,-54.0
2023-08-12 14:30:08.530704,-38.0
2023-08-12 14:30:08.538394,-26.0
2023-08-12 14:30:08.546084,-30.0
2023-08-12 14:30:08.553774,-30.0
2023-08-12 14:30:08.561464,-42.0
2023-08-12 14:30:08.569154,-59.0
2023-08-12 14:30:08.576844,-57.0
2023-08-12 14:30:08.584534,-57.0
2023-08-12 14:30:08.592224,-64.0
2023-08-12 14:30:08.599914,-66.0
2023-08-12 14:30:08.607604,-73.0
2023-08-12 14:30:08.615294,-76.0
2023-08-12 14:30:08.622984,-85.0
2023-08-12 14:30:08.630674,-83.0
2023-08-12 14:30:08.638364,-59.0
2023-08-12 14:30:08.646054,-52.0
2023-08-12 14:30:08.653744,-33.0
2023-08-12 14:30:08.661434,114.0
2023-08-12 14:30:08.669124,378.0
2023-08-12 14:30:08.676814,537.0
2023-08-12 14:30:08.684504,364.0
2023-08-12 14:30:08.692194,-11.0
2023-08-12 14:30:08.699884,-204.0
2023-08-12 14:30:08.707574,-180.0
2023-08-12 14:30:08.715264,-154.0
2023-08-12 14:30:08.722954,-133.0
2023-08-12 14:30:08.730644,-97.0
2023-08-12 14:30:08.738334,-97.0
2023-08-12 14:30:08.746024,-97.0
2023-08-12 14:30:08.753713,-83.0
2023-08-12 14:30:08.761403,-76.0
2023-08-12 14:30:08.769093,-73.0
2023-08-12 14:30:08.776783,-69.0
2023-08-12 14:30:08.784473,-71.0
2023-08-12 14:30:08.792163,-69.0
2023-08-12 14:30:08.799853,-54.0
2023-08-12 14:30:08.807543,-35.0
2023-08-12 14:30:08.815233,-30.0
2023-08-12 14:30:08.822923,-26.0
2023-08-12 14:30:08.830613,-11.0
2023-08-12 14:30:08.838303,-4.0
2023-08-12 14:30:08.845993,4.0
2023-08-12 14:30:08.853683,21.0
2023-08-12 14:30:08.861373,30.0
2023-08-12 14:30:08.869063,35.0
2023-08-12 14:30:08.876753,54.0
2023-08-12 14:30:08.884443,69.0
2023-08-12 14:30:08.892133,66.0
2023-08-12 14:30:08.899823,59.0
2023-08-12 14:30:08.907513,54.0
2023-08-12 14:30:08.915203,47.0
2023-08-12 14:30:08.922893,19.0
2023-08-12 14:30:08.930583,-21.0
2023-08-12 14:30:08.938273,-64.0
2023-08-12 14:30:08.945963,-102.0
2023-08-12 14:30:08.953653,-119.0
2023-08-12 14:30:08.961343,-130.0
2023-08-12 14:30:08.969033,-152.0
2023-08-12 14:30:08.976722,-152.0
2023-08-12 14:30:08.984412,-138.0
2023-08-12 14:30:08.992102,-138.0
2023-08-12 14:30:08.999792,-147.0
2023-08-12 14:30:09.007482,-142.0
2023-08-12 14:30:09.015172,-135.0
2023-08-12 14:30:09.022862,-128.0
2023-08-12 14:30:09.030552,-126.0
2023-08-12 14:30:09.038242,-128.0
2023-08-12 14:30:09.045932,-126.0
2023-08-12 14:30:09.053622,-109.0
2023-08-12 14:30:09.061312,-99.0
2023-08-12 14:30:09.069002,-104.0
2023-08-12 14:30:09.076692,-111.0
2023-08-12 14:30:09.084382,-114.0
2023-08-12 14:30:09.092072,-104.0
2023-08-12 14:30:09.099762,-90.0
2023-08-12 14:30:09.107452,-90.0
2023-08-12 14:30:09.115142,-95.0
2023-08-12 14:30:09.122832,-92.0
2023-08-12 14:30:09.130522,-92.0
2023-08-12 14:30:09.138212,-97.0
2023-08-12 14:30:09.145902,-102.0
2023-08-12 14:30:09.153592,-97.0
2023-08-12 14:30:09.161282,-92.0
2023-08-12 14:30:09.168972,-102.0
2023-08-12 14:30:09.176662,-97.0
2023-08-12 14:30:09.184352,-78.0
2023-08-12 14:30:09.192042,-88.0
2023-08-12 14:30:09.199731,-109.0
2023-08-12 14:30:09.207421,-107.0
2023-08-12 14:30:09.215111,-107.0
2023-08-12 14:30:09.222801,-107.0
2023-08-12 14:30:09.230491,-92.0
2023-08-12 14:30:09.238181,-92.0
2023-08-12 14:30:09.245871,-109.0
2023-08-12 14:30:09.253561,-111.0
2023-08-12 14:30:09.261251,-90.0
2023-08-12 14:30:09.268941,-80.0
2023-08-12 14:30:09.276631,-76.0
2023-08-12 14:30:09.284321,-64.0
2023-08-12 14:30:09.292011,-76.0
2023-08-12 14:30:09.299701,-85.0
2023-08-12 14:30:09.307391,-78.0
2023-08-12 14:30:09.315081,-99.0
2023-08-12 14:30:09.322771,-109.0
2023-08-12 14:30:09.330461,-76.0
2023-08-12 14:30:09.338151,-57.0
2023-08-12 14:30:09.345841,-71.0
2023-08-12 14:30:09.353531,-59.0
2023-08-12 14:30:09.361221,-59.0
2023-08-12 14:30:09.368911,-95.0
2023-08-12 14:30:09.376601,-71.0
2023-08-12 14:30:09.384291,-14.0
2023-08-12 14:30:09.391981,-35.0
2023-08-12 14:30:09.399671,-57.0
2023-08-12 14:30:09.407361,-40.0
2023-08-12 14:30:09.415051,-59.0
2023-08-12 14:30:09.422740,-99.0
2023-08-12 14:30:09.430430,-97.0
2023-08-12 14:30:09.438120,-45.0
2023-08-12 14:30:09.445810,-26.0
2023-08-12 14:30:09.453500,-76.0
2023-08-12 14:30:09.461190,-114.0
2023-08-12 14:30:09.468880,-104.0
2023-08-12 14:30:09.476570,-73.0
2023-08-12 14:30:09.484260,-40.0
2023-08-12 14:30:09.491950,-42.0
2023-08-12 14:30:09.499640,-28.0
2023-08-12 14:30:09.507330,173.0
2023-08-12 14:30:09.515020,490.0
2023-08-12 14:30:09.522710,561.0
2023-08-12 14:30:09.530400,271.0
2023-08-12 14:30:09.538090,-85.0
2023-08-12 14:30:09.545780,-204.0
2023-08-12 14:30:09.553470,-147.0
2023-08-12 14:30:09.561160,-154.0
2023-08-12 14:30:09.568850,-188.0
2023-08-12 14:30:09.576540,-130.0
2023-08-12 14:30:09.584230,-76.0
2023-08-12 14:30:09.591920,-69.0
2023-08-12 14:30:09.599610,-64.0
2023-08-12 14:30:09.607300,-76.0
2023-08-12 14:30:09.614990,-92.0
2023-08-12 14:30:09.622680,-92.0
2023-08-12 14:30:09.630370,-85.0
2023-08-12 14:30:09.638060,-59.0
2023-08-12 14:30:09.645750,-47.0
2023-08-12 14:30:09.653439,-78.0
2023-08-12 14:30:09.661129,-71.0
2023-08-12 14:30:09.668819,-28.0
2023-08-12 14:30:09.676509,-30.0
2023-08-12 14:30:09.684199,-30.0
2023-08-12 14:30:09.691889,7.0
2023-08-12 14:30:09.699579,42.0
2023-08-12 14:30:09.707269,45.0
2023-08-12 14:30:09.714959,33.0
2023-08-12 14:30:09.722649,59.0
2023-08-12 14:30:09.730339,78.0
2023-08-12 14:30:09.738029,52.0
2023-08-12 14:30:09.745719,54.0
2023-08-12 14:30:09.753409,59.0
2023-08-12 14:30:09.761099,30.0
2023-08-12 14:30:09.768789,23.0
2023-08-12 14:30:09.776479,-4.0
2023-08-12 14:30:09.784169,-85.0
2023-08-12 14:30:09.791859,-126.0
2023-08-12 14:30:09.799549,-135.0
2023-08-12 14:30:09.807239,-169.0
2023-08-12 14:30:09.814929,-190.0
2023-08-12 14:30:09.822619,-183.0
2023-08-12 14:30:09.830309,-176.0
2023-08-12 14:30:09.837999,-176.0
2023-08-12 14:30:09.845689,-164.0
2023-08-12 14:30:09.853379,-147.0
2023-08-12 14:30:09.861069,-169.0
2023-08-12 14:30:09.868759,-192.0
2023-08-12 14:30:09.876448,-145.0
2023-08-12 14:30:09.884138,-107.0
2023-08-12 14:30:09.891828,-135.0
2023-08-12 14:30:09.899518,-140.0
2023-08-12 14:30:09.907208,-126.0
2023-08-12 14:30:09.914898,-130.0
2023-08-12 14:30:09.922588,-123.0
2023-08-12 14:30:09.930278,-121.0
2023-08-12 14:30:09.937968,-121.0
2023-08-12 14:30:09.945658,-95.0
2023-08-12 14:30:09.953348,-107.0
2023-08-12 14:30:09.961038,-140.0
2023-08-12 14:30:09.968728,-85.0
2023-08-12 14:30:09.976418,-26.0
2023-08-12 14:30:09.984108,-71.0
2023-08-12 14:30:09.991798,-116.0
2023-08-12 14:30:09.999488,-116.0
2023-08-12 14:30:10.007178,-126.0
2023-08-12 14:30:10.014868,-102.0
2023-08-12 14:30:10.022558,-73.0
2023-08-12 14:30:10.030248,-97.0
2023-08-12 14:30:10.037938,-107.0
2023-08-12 14:30:10.045628,-73.0
2023-08-12 14:30:10.053318,-61.0
2023-08-12 14:30:10.061008,-78.0
2023-08-12 14:30:10.068698,-90.0
2023-08-12 14:30:10.076388,-97.0
2023-08-12 14:30:10.084078,-107.0
2023-08-12 14:30:10.091768,-102.0
2023-08-12 14:30:10.099457,-92.0
2023-08-12 14:30:10.107147,-92.0
2023-08-12 14:30:10.114837,-71.0
2023-08-12 14:30:10.122527,-47.0
2023-08-12 14:30:10.130217,-80.0
2023-08-12 14:30:10.137907,-107.0
2023-08-12 14:30:10.145597,-80.0
2023-08-12 14:30:10.153287,-73.0
2023-08-12 14:30:10.160977,-99.0
2023-08-12 14:30:10.168667,-90.0
2023-08-12 14:30:10.176357,-45.0
2023-08-12 14:30:10.184047,-21.0
2023-08-12 14:30:10.191737,-57.0
2023-08-12 14:30:10.199427,-102.0
2023-08-12 14:30:10.207117,-42.0
2023-08-12 14:30:10.214807,16.0
2023-08-12 14:30:10.222497,-71.0
2023-08-12 14:30:10.230187,-121.0
2023-08-12 14:30:10.237877,-45.0
2023-08-12 14:30:10.245567,-52.0
2023-08-12 14:30:10.253257,-121.0
2023-08-12 14:30:10.260947,-102.0
2023-08-12 14:30:10.268637,-85.0
2023-08-12 14:30:10.276327,-121.0
2023-08-12 14:30:10.284017,-114.0
2023-08-12 14:30:10.291707,-59.0
2023-08-12 14:30:10.299397,-59.0
2023-08-12 14:30:10.307087,-42.0
2023-08-12 14:30:10.314777,192.0
2023-08-12 14:30:10.322466,509.0
2023-08-12 14:30:10.330156,566.0
2023-08-12 14:30:10.337846,271.0
2023-08-12 14:30:10.345536,-99.0
2023-08-12 14:30:10.353226,-202.0
2023-08-12 14:30:10.360916,-166.0
2023-08-12 14:30:10.368606,-185.0
2023-08-12 14:30:10.376296,-126.0
2023-08-12 14:30:10.383986,-66.0
2023-08-12 14:30:10.391676,-121.0
2023-08-12 14:30:10.399366,-145.0
2023-08-12 14:30:10.407056,-116.0
2023-08-12 14:30:10.414746,-114.0
2023-08-12 14:30:10.422436,-69.0
2023-08-12 14:30:10.430126,-33.0
2023-08-12 14:30:10.437816,-85.0
2023-08-12 14:30:10.445506,-97.0
2023-08-12 14:30:10.453196,-45.0
2023-08-12 14:30:10.460886,-45.0
2023-08-12 14:30:10.468576,-52.0
2023-08-12 14:30:10.476266,16.0
2023-08-12 14:30:10.483956,30.0
2023-08-12 14:30:10.491646,-40.0
2023-08-12 14:30:10.499336,-28.0
2023-08-12 14:30:10.507026,40.0
2023-08-12 14:30:10.514716,45.0
2023-08-12 14:30:10.522406,19.0
2023-08-12 14:30:10.530096,47.0
2023-08-12 14:30:10.537786,102.0
2023-08-12 14:30:10.545476,90.0
2023-08-12 14:30:10.553165,59.0
2023-08-12 14:30:10.560855,47.0
2023-08-12 14:30:10.568545,28.0
2023-08-12 14:30:10.576235,9.0
2023-08-12 14:30:10.583925,-59.0
2023-08-12 14:30:10.591615,-135.0
2023-08-12 14:30:10.599305,-90.0
2023-08-12 14:30:10.606995,-76.0
2023-08-12 14:30:10.614685,-180.0
2023-08-12 14:30:10.622375,-204.0
2023-08-12 14:30:10.630065,-140.0
2023-08-12 14:30:10.637755,-149.0
2023-08-12 14:30:10.645445,-178.0
2023-08-12 14:30:10.653135,-147.0
2023-08-12 14:30:10.660825,-133.0
2023-08-12 14:30:10.668515,-159.0
2023-08-12 14:30:10.676205,-140.0
2023-08-12 14:30:10.683895,-116.0
2023-08-12 14:30:10.691585,-142.0
2023-08-12 14:30:10.699275,-169.0
2023-08-12 14:30:10.706965,-161.0
2023-08-12 14:30:10.714655,-119.0
2023-08-12 14:30:10.722345,-85.0
2023-08-12 14:30:10.730035,-95.0
2023-08-12 14:30:10.737725,-109.0
2023-08-12 14:30:10.745415,-119.0
2023-08-12 14:30:10.753105,-111.0
2023-08-12 14:30:10.760795,-88.0
2023-08-12 14:30:10.768485,-116.0
2023-08-12 14:30:10.776174,-133.0
2023-08-12 14:30:10.783864,-76.0
2023-08-12 14:30:10.791554,-66.0
2023-08-12 14:30:10.799244,-116.0
2023-08-12 14:30:10.806934,-111.0
2023-08-12 14:30:10.814624,-69.0
2023-08-12 14:30:10.822314,-97.0
2023-08-12 14:30:10.830004,-157.0
2023-08-12 14:30:10.837694,-114.0
2023-08-12 14:30:10.845384,-47.0
2023-08-12 14:30:10.853074,-83.0
2023-08-12 14:30:10.860764,-99.0
2023-08-12 14:30:10.868454,-64.0
2023-08-12 14:30:10.876144,-99.0
2023-08-12 14:30:10.883834,-130.0
2023-08-12 14:30:10.891524,-66.0
2023-08-12 14:30:10.899214,-49.0
2023-08-12 14:30:10.906904,-92.0
2023-08-12 14:30:10.914594,-95.0
2023-08-12 14:30:10.922284,-88.0
2023-08-12 14:30:10.929974,-78.0
2023-08-12 14:30:10.937664,-69.0
2023-08-12 14:30:10.945354,-83.0
2023-08-12 14:30:10.953044,-80.0
2023-08-12 14:30:10.960734,-78.0
2023-08-12 14:30:10.968424,-90.0
2023-08-12 14:30:10.976114,-47.0
2023-08-12 14:30:10.983804,-16.0
2023-08-12 14:30:10.991494,-40.0
2023-08-12 14:30:10.999183,-35.0
2023-08-12 14:30:11.006873,-35.0
2023-08-12 14:30:11.014563,-83.0
2023-08-12 14:30:11.022253,-76.0
2023-08-12 14:30:11.029943,-4.0
2023-08-12 14:30:11.037633,-16.0
2023-08-12 14:30:11.045323,-83.0
2023-08-12 14:30:11.053013,-80.0
2023-08-12 14:30:11.060703,-54.0
2023-08-12 14:30:11.068393,-76.0
2023-08-12 14:30:11.076083,-90.0
2023-08-12 14:30:11.083773,-71.0
2023-08-12 14:30:11.091463,-78.0
2023-08-12 14:30:11.099153,-95.0
2023-08-12 14:30:11.106843,-47.0
2023-08-12 14:30:11.114533,97.0
2023-08-12 14:30:11.122223,318.0
2023-08-12 14:30:11.129913,509.0
2023-08-12 14:30:11.137603,452.0
2023-08-12 14:30:11.145293,123.0
2023-08-12 14:30:11.152983,-133.0
2023-08-12 14:30:11.160673,-157.0
2023-08-12 14:30:11.168363,-149.0
2023-08-12 14:30:11.176053,-152.0
2023-08-12 14:30:11.183743,-121.0
2023-08-12 14:30:11.191433,-133.0
2023-08-12 14:30:11.199123,-147.0
2023-08-12 14:30:11.206813,-85.0
2023-08-12 14:30:11.214503,-59.0
2023-08-12 14:30:11.222192,-107.0
2023-08-12 14:30:11.229882,-104.0
2023-08-12 14:30:11.237572,-57.0
2023-08-12 14:30:11.245262,-73.0
2023-08-12 14:30:11.252952,-95.0
2023-08-12 14:30:11.260642,-57.0
2023-08-12 14:30:11.268332,-40.0
2023-08-12 14:30:11.276022,-52.0
2023-08-12 14:30:11.283712,-35.0
2023-08-12 14:30:11.291402,-16.0
2023-08-12 14:30:11.299092,-14.0
2023-08-12 14:30:11.306782,0.0
2023-08-12 14:30:11.314472,19.0
2023-08-12 14:30:11.322162,4.0
2023-08-12 14:30:11.329852,21.0
2023-08-12 14:30:11.337542,59.0
2023-08-12 14:30:11.345232,52.0
2023-08-12 14:30:11.352922,28.0
2023-08-12 14:30:11.360612,26.0
2023-08-12 14:30:11.368302,9.0
2023-08-12 14:30:11.375992,-38.0
2023-08-12 14:30:11.383682,-54.0
2023-08-12 14:30:11.391372,-40.0
2023-08-12 14:30:11.399062,-78.0
2023-08-12 14:30:11.406752,-135.0
2023-08-12 14:30:11.414442,-154.0
2023-08-12 14:30:11.422132,-159.0
2023-08-12 14:30:11.429822,-157.0
2023-08-12 14:30:11.437512,-157.0
2023-08-12 14:30:11.445202,-161.0
2023-08-12 14:30:11.452891,-159.0
2023-08-12 14:30:11.460581,-140.0
2023-08-12 14:30:11.468271,-119.0
2023-08-12 14:30:11.475961,-119.0
2023-08-12 14:30:11.483651,-128.0
2023-08-12 14:30:11.491341,-133.0
2023-08-12 14:30:11.499031,-126.0
2023-08-12 14:30:11.506721,-119.0
2023-08-12 14:30:11.514411,-114.0
2023-08-12 14:30:11.522101,-102.0
2023-08-12 14:30:11.529791,-95.0
2023-08-12 14:30:11.537481,-109.0
2023-08-12 14:30:11.545171,-119.0
2023-08-12 14:30:11.552861,-104.0
2023-08-12 14:30:11.560551,-88.0
2023-08-12 14:30:11.568241,-95.0
2023-08-12 14:30:11.575931,-109.0
2023-08-12 14:30:11.583621,-90.0
2023-08-12 14:30:11.591311,-83.0
2023-08-12 14:30:11.599001,-114.0
2023-08-12 14:30:11.606691,-109.0
2023-08-12 14:30:11.614381,-66.0
2023-08-12 14:30:11.622071,-71.0
2023-08-12 14:30:11.629761,-109.0
2023-08-12 14:30:11.637451,-114.0
2023-08-12 14:30:11.645141,-90.0
2023-08-12 14:30:11.652831,-80.0
2023-08-12 14:30:11.660521,-88.0
2023-08-12 14:30:11.668211,-95.0
2023-08-12 14:30:11.675900,-90.0
2023-08-12 14:30:11.683590,-80.0
2023-08-12 14:30:11.691280,-90.0
2023-08-12 14:30:11.698970,-97.0
2023-08-12 14:30:11.706660,-88.0
2023-08-12 14:30:11.714350,-88.0
2023-08-12 14:30:11.722040,-92.0
2023-08-12 14:30:11.729730,-90.0
2023-08-12 14:30:11.737420,-85.0
2023-08-12 14:30:11.745110,-95.0
2023-08-12 14:30:11.752800,-99.0
2023-08-12 14:30:11.760490,-80.0
2023-08-12 14:30:11.768180,-64.0
2023-08-12 14:30:11.775870,-76.0
2023-08-12 14:30:11.783560,-90.0
2023-08-12 14:30:11.791250,-76.0
2023-08-12 14:30:11.798940,-49.0
2023-08-12 14:30:11.806630,-59.0
2023-08-12 14:30:11.814320,-78.0
2023-08-12 14:30:11.822010,-45.0
2023-08-12 14:30:11.829700,-9.0
2023-08-12 14:30:11.837390,-42.0
2023-08-12 14:30:11.845080,-80.0
2023-08-12 14:30:11.852770,-64.0
2023-08-12 14:30:11.860460,-54.0
2023-08-12 14:30:11.868150,-80.0
2023-08-12 14:30:11.875840,-80.0
2023-08-12 14:30:11.883530,-76.0
2023-08-12 14:30:11.891220,-90.0
2023-08-12 14:30:11.898909,-88.0
2023-08-12 14:30:11.906599,-73.0
2023-08-12 14:30:11.914289,-92.0
2023-08-12 14:30:11.921979,-102.0
2023-08-12 14:30:11.929669,2.0
2023-08-12 14:30:11.937359,207.0
2023-08-12 14:30:11.945049,440.0
2023-08-12 14:30:11.952739,530.0
2023-08-12 14:30:11.960429,288.0
2023-08-12 14:30:11.968119,-76.0
2023-08-12 14:30:11.975809,-197.0
2023-08-12 14:30:11.983499,-169.0
2023-08-12 14:30:11.991189,-176.0
2023-08-12 14:30:11.998879,-145.0
2023-08-12 14:30:12.006569,-99.0
2023-08-12 14:30:12.014259,-121.0
2023-08-12 14:30:12.021949,-128.0
2023-08-12 14:30:12.029639,-114.0
2023-08-12 14:30:12.037329,-111.0
2023-08-12 14:30:12.045019,-83.0
2023-08-12 14:30:12.052709,-61.0
2023-08-12 14:30:12.060399,-85.0
2023-08-12 14:30:12.068089,-107.0
2023-08-12 14:30:12.075779,-80.0
2023-08-12 14:30:12.083469,-42.0
2023-08-12 14:30:12.091159,-42.0
2023-08-12 14:30:12.098849,-49.0
2023-08-12 14:30:12.106539,-33.0
2023-08-12 14:30:12.114229,-23.0
2023-08-12 14:30:12.121918,-26.0
2023-08-12 14:30:12.129608,-16.0
2023-08-12 14:30:12.137298,23.0
2023-08-12 14:30:12.144988,52.0
2023-08-12 14:30:12.152678,49.0
2023-08-12 14:30:12.160368,57.0
2023-08-12 14:30:12.168058,59.0
2023-08-12 14:30:12.175748,38.0
2023-08-12 14:30:12.183438,28.0
2023-08-12 14:30:12.191128,35.0
2023-08-12 14:30:12.198818,2.0
2023-08-12 14:30:12.206508,-59.0
2023-08-12 14:30:12.214198,-95.0
2023-08-12 14:30:12.221888,-111.0
2023-08-12 14:30:12.229578,-149.0
2023-08-12 14:30:12.237268,-190.0
2023-08-12 14:30:12.244958,-199.0
2023-08-12 14:30:12.252648,-161.0
2023-08-12 14:30:12.260338,-123.0
2023-08-12 14:30:12.268028,-140.0
2023-08-12 14:30:12.275718,-176.0
2023-08-12 14:30:12.283408,-171.0
2023-08-12 14:30:12.291098,-157.0
2023-08-12 14:30:12.298788,-152.0
2023-08-12 14:30:12.306478,-133.0
2023-08-12 14:30:12.314168,-114.0
2023-08-12 14:30:12.321858,-130.0
2023-08-12 14:30:12.329548,-152.0
2023-08-12 14:30:12.337238,-147.0
2023-08-12 14:30:12.344928,-119.0
2023-08-12 14:30:12.352617,-92.0
2023-08-12 14:30:12.360307,-102.0
2023-08-12 14:30:12.367997,-111.0
2023-08-12 14:30:12.375687,-107.0
2023-08-12 14:30:12.383377,-111.0
2023-08-12 14:30:12.391067,-111.0
2023-08-12 14:30:12.398757,-104.0
2023-08-12 14:30:12.406447,-114.0
2023-08-12 14:30:12.414137,-121.0
2023-08-12 14:30:12.421827,-102.0
2023-08-12 14:30:12.429517,-69.0
2023-08-12 14:30:12.437207,-73.0
2023-08-12 14:30:12.444897,-107.0
2023-08-12 14:30:12.452587,-114.0
2023-08-12 14:30:12.460277,-90.0
2023-08-12 14:30:12.467967,-88.0
2023-08-12 14:30:12.475657,-116.0
2023-08-12 14:30:12.483347,-111.0
2023-08-12 14:30:12.491037,-95.0
2023-08-12 14:30:12.498727,-95.0
2023-08-12 14:30:12.506417,-90.0
2023-08-12 14:30:12.514107,-104.0
2023-08-12 14:30:12.521797,-119.0
2023-08-12 14:30:12.529487,-90.0
2023-08-12 14:30:12.537177,-69.0
2023-08-12 14:30:12.544867,-97.0
2023-08-12 14:30:12.552557,-114.0
2023-08-12 14:30:12.560247,-97.0
2023-08-12 14:30:12.567937,-88.0
2023-08-12 14:30:12.575626,-83.0
2023-08-12 14:30:12.583316,-83.0
2023-08-12 14:30:12.591006,-109.0
2023-08-12 14:30:12.598696,-116.0
2023-08-12 14:30:12.606386,-66.0
2023-08-12 14:30:12.614076,-42.0
2023-08-12 14:30:12.621766,-71.0
2023-08-12 14:30:12.629456,-69.0
2023-08-12 14:30:12.637146,-42.0
2023-08-12 14:30:12.644836,-49.0
2023-08-12 14:30:12.652526,-59.0
2023-08-12 14:30:12.660216,-52.0
2023-08-12 14:30:12.667906,-54.0
2023-08-12 14:30:12.675596,-69.0
2023-08-12 14:30:12.683286,-76.0
2023-08-12 14:30:12.690976,-85.0
2023-08-12 14:30:12.698666,-104.0
2023-08-12 14:30:12.706356,-97.0
2023-08-12 14:30:12.714046,-69.0
2023-08-12 14:30:12.721736,-80.0
2023-08-12 14:30:12.729426,-116.0
2023-08-12 14:30:12.737116,-97.0
2023-08-12 14:30:12.744806,-16.0
2023-08-12 14:30:12.752496,142.0
2023-08-12 14:30:12.760186,395.0
2023-08-12 14:30:12.767876,559.0
2023-08-12 14:30:12.775566,383.0
2023-08-12 14:30:12.783256,0.0
2023-08-12 14:30:12.790946,-195.0
2023-08-12 14:30:12.798635,-183.0
2023-08-12 14:30:12.806325,-169.0
2023-08-12 14:30:12.814015,-138.0
2023-08-12 14:30:12.821705,-99.0
2023-08-12 14:30:12.829395,-123.0
2023-08-12 14:30:12.837085,-147.0
2023-08-12 14:30:12.844775,-109.0
2023-08-12 14:30:12.852465,-73.0
2023-08-12 14:30:12.860155,-92.0
2023-08-12 14:30:12.867845,-99.0
2023-08-12 14:30:12.875535,-73.0
2023-08-12 14:30:12.883225,-66.0
2023-08-12 14:30:12.890915,-66.0
2023-08-12 14:30:12.898605,-52.0
2023-08-12 14:30:12.906295,-42.0
2023-08-12 14:30:12.913985,-40.0
2023-08-12 14:30:12.921675,-35.0
2023-08-12 14:30:12.929365,-23.0
2023-08-12 14:30:12.937055,-9.0
2023-08-12 14:30:12.944745,16.0
2023-08-12 14:30:12.952435,40.0
2023-08-12 14:30:12.960125,40.0
2023-08-12 14:30:12.967815,35.0
2023-08-12 14:30:12.975505,49.0
2023-08-12 14:30:12.983195,57.0
2023-08-12 14:30:12.990885,52.0
2023-08-12 14:30:12.998575,38.0
2023-08-12 14:30:13.006265,16.0
2023-08-12 14:30:13.013955,-16.0
2023-08-12 14:30:13.021644,-52.0
2023-08-12 14:30:13.029334,-90.0
2023-08-12 14:30:13.037024,-121.0
2023-08-12 14:30:13.044714,-142.0
2023-08-12 14:30:13.052404,-164.0
2023-08-12 14:30:13.060094,-166.0
2023-08-12 14:30:13.067784,-159.0
2023-08-12 14:30:13.075474,-164.0
2023-08-12 14:30:13.083164,-161.0
2023-08-12 14:30:13.090854,-147.0
2023-08-12 14:30:13.098544,-154.0
2023-08-12 14:30:13.106234,-157.0
2023-08-12 14:30:13.113924,-138.0
2023-08-12 14:30:13.121614,-128.0
2023-08-12 14:30:13.129304,-128.0
2023-08-12 14:30:13.136994,-138.0
2023-08-12 14:30:13.144684,-140.0
2023-08-12 14:30:13.152374,-114.0
2023-08-12 14:30:13.160064,-92.0
2023-08-12 14:30:13.167754,-104.0
2023-08-12 14:30:13.175444,-114.0
2023-08-12 14:30:13.183134,-109.0
2023-08-12 14:30:13.190824,-104.0
2023-08-12 14:30:13.198514,-102.0
2023-08-12 14:30:13.206204,-99.0
2023-08-12 14:30:13.213894,-109.0
2023-08-12 14:30:13.221584,-114.0
2023-08-12 14:30:13.229274,-107.0
2023-08-12 14:30:13.236964,-102.0
2023-08-12 14:30:13.244654,-104.0
2023-08-12 14:30:13.252343,-95.0
2023-08-12 14:30:13.260033,-85.0
2023-08-12 14:30:13.267723,-95.0
2023-08-12 14:30:13.275413,-99.0
2023-08-12 14:30:13.283103,-92.0
2023-08-12 14:30:13.290793,-95.0
2023-08-12 14:30:13.298483,-99.0
2023-08-12 14:30:13.306173,-97.0
2023-08-12 14:30:13.313863,-95.0
2023-08-12 14:30:13.321553,-80.0
2023-08-12 14:30:13.329243,-71.0
2023-08-12 14:30:13.336933,-88.0
2023-08-12 14:30:13.344623,-95.0
2023-08-12 14:30:13.352313,-88.0
2023-08-12 14:30:13.360003,-76.0
2023-08-12 14:30:13.367693,-73.0
2023-08-12 14:30:13.375383,-85.0
2023-08-12 14:30:13.383073,-83.0
2023-08-12 14:30:13.390763,-73.0
2023-08-12 14:30:13.398453,-73.0
2023-08-12 14:30:13.406143,-78.0
2023-08-12 14:30:13.413833,-80.0
2023-08-12 14:30:13.421523,-78.0
2023-08-12 14:30:13.429213,-66.0
2023-08-12 14:30:13.436903,-54.0
2023-08-12 14:30:13.444593,-66.0
2023-08-12 14:30:13.452283,-71.0
2023-08-12 14:30:13.459973,-54.0
2023-08-12 14:30:13.467663,-45.0
2023-08-12 14:30:13.475352,-40.0
2023-08-12 14:30:13.483042,-16.0
2023-08-12 14:30:13.490732,-21.0
2023-08-12 14:30:13.498422,-45.0
2023-08-12 14:30:13.506112,-49.0
2023-08-12 14:30:13.513802,-47.0
2023-08-12 14:30:13.521492,-59.0
2023-08-12 14:30:13.529182,-69.0
2023-08-12 14:30:13.536872,-78.0
2023-08-12 14:30:13.544562,-92.0
2023-08-12 14:30:13.552252,-88.0
2023-08-12 14:30:13.559942,-83.0
2023-08-12 14:30:13.567632,-95.0
2023-08-12 14:30:13.575322,-92.0
2023-08-12 14:30:13.583012,-69.0
2023-08-12 14:30:13.590702,30.0
2023-08-12 14:30:13.598392,242.0
2023-08-12 14:30:13.606082,459.0
2023-08-12 14:30:13.613772,473.0
2023-08-12 14:30:13.621462,183.0
2023-08-12 14:30:13.629152,-133.0
2023-08-12 14:30:13.636842,-192.0
2023-08-12 14:30:13.644532,-159.0
2023-08-12 14:30:13.652222,-171.0
2023-08-12 14:30:13.659912,-121.0
2023-08-12 14:30:13.667602,-73.0
2023-08-12 14:30:13.675292,-95.0
2023-08-12 14:30:13.682982,-104.0
2023-08-12 14:30:13.690672,-88.0
2023-08-12 14:30:13.698361,-85.0
2023-08-12 14:30:13.706051,-78.0
2023-08-12 14:30:13.713741,-73.0
2023-08-12 14:30:13.721431,-76.0
2023-08-12 14:30:13.729121,-69.0
2023-08-12 14:30:13.736811,-59.0
2023-08-12 14:30:13.744501,-59.0
2023-08-12 14:30:13.752191,-54.0
2023-08-12 14:30:13.759881,-45.0
2023-08-12 14:30:13.767571,-35.0
2023-08-12 14:30:13.775261,-23.0
2023-08-12 14:30:13.782951,-7.0
2023-08-12 14:30:13.790641,4.0
2023-08-12 14:30:13.798331,9.0
2023-08-12 14:30:13.806021,19.0
2023-08-12 14:30:13.813711,33.0
2023-08-12 14:30:13.821401,45.0
2023-08-12 14:30:13.829091,42.0
2023-08-12 14:30:13.836781,33.0
2023-08-12 14:30:13.844471,23.0
2023-08-12 14:30:13.852161,-2.0
2023-08-12 14:30:13.859851,-30.0
2023-08-12 14:30:13.867541,-49.0
2023-08-12 14:30:13.875231,-88.0
2023-08-12 14:30:13.882921,-123.0
2023-08-12 14:30:13.890611,-135.0
2023-08-12 14:30:13.898301,-142.0
2023-08-12 14:30:13.905991,-147.0
2023-08-12 14:30:13.913681,-147.0
2023-08-12 14:30:13.921370,-149.0
2023-08-12 14:30:13.929060,-152.0
2023-08-12 14:30:13.936750,-149.0
2023-08-12 14:30:13.944440,-138.0
2023-08-12 14:30:13.952130,-128.0
2023-08-12 14:30:13.959820,-128.0
2023-08-12 14:30:13.967510,-133.0
2023-08-12 14:30:13.975200,-128.0
2023-08-12 14:30:13.982890,-111.0
2023-08-12 14:30:13.990580,-104.0
2023-08-12 14:30:13.998270,-111.0
2023-08-12 14:30:14.005960,-114.0
2023-08-12 14:30:14.013650,-109.0
2023-08-12 14:30:14.021340,-102.0
2023-08-12 14:30:14.029030,-99.0
2023-08-12 14:30:14.036720,-104.0
2023-08-12 14:30:14.044410,-102.0
2023-08-12 14:30:14.052100,-95.0
2023-08-12 14:30:14.059790,-97.0
2023-08-12 14:30:14.067480,-102.0
2023-08-12 14:30:14.075170,-99.0
2023-08-12 14:30:14.082860,-90.0
2023-08-12 14:30:14.090550,-83.0
2023-08-12 14:30:14.098240,-85.0
2023-08-12 14:30:14.105930,-95.0
2023-08-12 14:30:14.113620,-99.0
2023-08-12 14:30:14.121310,-95.0
2023-08-12 14:30:14.129000,-88.0
2023-08-12 14:30:14.136690,-85.0
2023-08-12 14:30:14.144380,-92.0
2023-08-12 14:30:14.152069,-107.0
2023-08-12 14:30:14.159759,-111.0
2023-08-12 14:30:14.167449,-97.0
2023-08-12 14:30:14.175139,-78.0
2023-08-12 14:30:14.182829,-92.0
2023-08-12 14:30:14.190519,-114.0
2023-08-12 14:30:14.198209,-99.0
2023-08-12 14:30:14.205899,-80.0
2023-08-12 14:30:14.213589,-95.0
2023-08-12 14:30:14.221279,-102.0
2023-08-12 14:30:14.228969,-92.0
2023-08-12 14:30:14.236659,-97.0
2023-08-12 14:30:14.244349,-102.0
2023-08-12 14:30:14.252039,-90.0
2023-08-12 14:30:14.259729,-83.0
2023-08-12 14:30:14.267419,-88.0
2023-08-12 14:30:14.275109,-97.0
2023-08-12 14:30:14.282799,-97.0
2023-08-12 14:30:14.290489,-92.0
2023-08-12 14:30:14.298179,-78.0
2023-08-12 14:30:14.305869,-47.0
2023-08-12 14:30:14.313559,-35.0
2023-08-12 14:30:14.321249,-54.0
2023-08-12 14:30:14.328939,-64.0
2023-08-12 14:30:14.336629,-52.0
2023-08-12 14:30:14.344319,-59.0
2023-08-12 14:30:14.352009,-71.0
2023-08-12 14:30:14.359699,-71.0
2023-08-12 14:30:14.367389,-83.0
2023-08-12 14:30:14.375078,-92.0
2023-08-12 14:30:14.382768,-80.0
2023-08-12 14:30:14.390458,-83.0
2023-08-12 14:30:14.398148,-95.0
2023-08-12 14:30:14.405838,-83.0
2023-08-12 14:30:14.413528,-76.0
2023-08-12 14:30:14.421218,-69.0
2023-08-12 14:30:14.428908,49.0
2023-08-12 14:30:14.436598,314.0
2023-08-12 14:30:14.444288,545.0
2023-08-12 14:30:14.451978,476.0
2023-08-12 14:30:14.459668,107.0
2023-08-12 14:30:14.467358,-178.0
2023-08-12 14:30:14.475048,-185.0
2023-08-12 14:30:14.482738,-164.0
2023-08-12 14:30:14.490428,-183.0
2023-08-12 14:30:14.498118,-130.0
2023-08-12 14:30:14.505808,-90.0
2023-08-12 14:30:14.513498,-114.0
2023-08-12 14:30:14.521188,-109.0
2023-08-12 14:30:14.528878,-85.0
2023-08-12 14:30:14.536568,-83.0
2023-08-12 14:30:14.544258,-83.0
2023-08-12 14:30:14.551948,-71.0
2023-08-12 14:30:14.559638,-61.0
2023-08-12 14:30:14.567328,-66.0
2023-08-12 14:30:14.575018,-61.0
2023-08-12 14:30:14.582708,-42.0
2023-08-12 14:30:14.590398,-28.0
2023-08-12 14:30:14.598087,-19.0
2023-08-12 14:30:14.605777,-4.0
2023-08-12 14:30:14.613467,7.0
2023-08-12 14:30:14.621157,14.0
2023-08-12 14:30:14.628847,26.0
2023-08-12 14:30:14.636537,45.0
2023-08-12 14:30:14.644227,57.0
2023-08-12 14:30:14.651917,61.0
2023-08-12 14:30:14.659607,61.0
2023-08-12 14:30:14.667297,61.0
2023-08-12 14:30:14.674987,57.0
2023-08-12 14:30:14.682677,47.0
2023-08-12 14:30:14.690367,23.0
2023-08-12 14:30:14.698057,-16.0
2023-08-12 14:30:14.705747,-54.0
2023-08-12 14:30:14.713437,-80.0
2023-08-12 14:30:14.721127,-116.0
2023-08-12 14:30:14.728817,-157.0
2023-08-12 14:30:14.736507,-169.0
2023-08-12 14:30:14.744197,-161.0
2023-08-12 14:30:14.751887,-166.0
2023-08-12 14:30:14.759577,-166.0
2023-08-12 14:30:14.767267,-164.0
2023-08-12 14:30:14.774957,-171.0
2023-08-12 14:30:14.782647,-176.0
2023-08-12 14:30:14.790337,-166.0
2023-08-12 14:30:14.798027,-154.0
2023-08-12 14:30:14.805717,-145.0
2023-08-12 14:30:14.813407,-140.0
2023-08-12 14:30:14.821096,-140.0
2023-08-12 14:30:14.828786,-140.0
2023-08-12 14:30:14.836476,-133.0
2023-08-12 14:30:14.844166,-116.0
2023-08-12 14:30:14.851856,-104.0
2023-08-12 14:30:14.859546,-107.0
2023-08-12 14:30:14.867236,-111.0
2023-08-12 14:30:14.874926,-104.0
2023-08-12 14:30:14.882616,-102.0
2023-08-12 14:30:14.890306,-104.0
2023-08-12 14:30:14.897996,-102.0
2023-08-12 14:30:14.905686,-107.0
2023-08-12 14:30:14.913376,-109.0
2023-08-12 14:30:14.921066,-102.0
2023-08-12 14:30:14.928756,-99.0
2023-08-12 14:30:14.936446,-99.0
2023-08-12 14:30:14.944136,-92.0
2023-08-12 14:30:14.951826,-95.0
2023-08-12 14:30:14.959516,-97.0
2023-08-12 14:30:14.967206,-90.0
2023-08-12 14:30:14.974896,-88.0
2023-08-12 14:30:14.982586,-95.0
2023-08-12 14:30:14.990276,-90.0
2023-08-12 14:30:14.997966,-80.0
2023-08-12 14:30:15.005656,-85.0
2023-08-12 14:30:15.013346,-97.0
2023-08-12 14:30:15.021036,-90.0
2023-08-12 14:30:15.028726,-78.0
2023-08-12 14:30:15.036416,-76.0
2023-08-12 14:30:15.044106,-78.0
2023-08-12 14:30:15.051795,-90.0
2023-08-12 14:30:15.059485,-90.0
2023-08-12 14:30:15.067175,-76.0
2023-08-12 14:30:15.074865,-64.0
2023-08-12 14:30:15.082555,-61.0
2023-08-12 14:30:15.090245,-59.0
2023-08-12 14:30:15.097935,-47.0
2023-08-12 14:30:15.105625,-33.0
2023-08-12 14:30:15.113315,-28.0
2023-08-12 14:30:15.121005,-40.0
2023-08-12 14:30:15.128695,-52.0
2023-08-12 14:30:15.136385,-47.0
2023-08-12 14:30:15.144075,-45.0
2023-08-12 14:30:15.151765,-52.0
2023-08-12 14:30:15.159455,-54.0
2023-08-12 14:30:15.167145,-71.0
2023-08-12 14:30:15.174835,-90.0
2023-08-12 14:30:15.182525,-83.0
2023-08-12 14:30:15.190215,-76.0
2023-08-12 14:30:15.197905,-76.0
2023-08-12 14:30:15.205595,-73.0
2023-08-12 14:30:15.213285,-66.0
2023-08-12 14:30:15.220975,19.0
2023-08-12 14:30:15.228665,240.0
2023-08-12 14:30:15.236355,497.0
2023-08-12 14:30:15.244045,526.0
2023-08-12 14:30:15.251735,199.0
2023-08-12 14:30:15.259425,-145.0
2023-08-12 14:30:15.267115,-199.0
2023-08-12 14:30:15.274804,-161.0
2023-08-12 14:30:15.282494,-180.0
2023-08-12 14:30:15.290184,-147.0
2023-08-12 14:30:15.297874,-97.0
2023-08-12 14:30:15.305564,-104.0
2023-08-12 14:30:15.313254,-119.0
2023-08-12 14:30:15.320944,-104.0
2023-08-12 14:30:15.328634,-83.0
2023-08-12 14:30:15.336324,-66.0
2023-08-12 14:30:15.344014,-66.0
2023-08-12 14:30:15.351704,-71.0
2023-08-12 14:30:15.359394,-64.0
2023-08-12 14:30:15.367084,-57.0
2023-08-12 14:30:15.374774,-49.0
2023-08-12 14:30:15.382464,-33.0
2023-08-12 14:30:15.390154,-26.0
2023-08-12 14:30:15.397844,-21.0
2023-08-12 14:30:15.405534,-7.0
2023-08-12 14:30:15.413224,4.0
2023-08-12 14:30:15.420914,21.0
2023-08-12 14:30:15.428604,49.0
2023-08-12 14:30:15.436294,66.0
2023-08-12 14:30:15.443984,61.0
2023-08-12 14:30:15.451674,66.0
2023-08-12 14:30:15.459364,73.0
2023-08-12 14:30:15.467054,61.0
2023-08-12 14:30:15.474744,45.0
2023-08-12 14:30:15.482434,26.0
2023-08-12 14:30:15.490124,-11.0
2023-08-12 14:30:15.497813,-57.0
2023-08-12 14:30:15.505503,-90.0
2023-08-12 14:30:15.513193,-121.0
2023-08-12 14:30:15.520883,-138.0
2023-08-12 14:30:15.528573,-145.0
2023-08-12 14:30:15.536263,-157.0
2023-08-12 14:30:15.543953,-159.0
2023-08-12 14:30:15.551643,-149.0
2023-08-12 14:30:15.559333,-145.0
2023-08-12 14:30:15.567023,-138.0
2023-08-12 14:30:15.574713,-130.0
2023-08-12 14:30:15.582403,-133.0
2023-08-12 14:30:15.590093,-130.0
2023-08-12 14:30:15.597783,-119.0
2023-08-12 14:30:15.605473,-116.0
2023-08-12 14:30:15.613163,-121.0
2023-08-12 14:30:15.620853,-111.0
2023-08-12 14:30:15.628543,-107.0
2023-08-12 14:30:15.636233,-109.0
2023-08-12 14:30:15.643923,-95.0
2023-08-12 14:30:15.651613,-83.0
2023-08-12 14:30:15.659303,-95.0
2023-08-12 14:30:15.666993,-99.0
2023-08-12 14:30:15.674683,-88.0
2023-08-12 14:30:15.682373,-83.0
2023-08-12 14:30:15.690063,-92.0
2023-08-12 14:30:15.697753,-95.0
2023-08-12 14:30:15.705443,-83.0
2023-08-12 14:30:15.713133,-78.0
2023-08-12 14:30:15.720822,-88.0
2023-08-12 14:30:15.728512,-99.0
2023-08-12 14:30:15.736202,-97.0
2023-08-12 14:30:15.743892,-97.0
2023-08-12 14:30:15.751582,-99.0
2023-08-12 14:30:15.759272,-90.0
2023-08-12 14:30:15.766962,-85.0
2023-08-12 14:30:15.774652,-92.0
2023-08-12 14:30:15.782342,-88.0
2023-08-12 14:30:15.790032,-73.0
2023-08-12 14:30:15.797722,-78.0
2023-08-12 14:30:15.805412,-90.0
2023-08-12 14:30:15.813102,-85.0
2023-08-12 14:30:15.820792,-80.0
2023-08-12 14:30:15.828482,-85.0
2023-08-12 14:30:15.836172,-78.0
2023-08-12 14:30:15.843862,-66.0
2023-08-12 14:30:15.851552,-71.0
2023-08-12 14:30:15.859242,-83.0
2023-08-12 14:30:15.866932,-78.0
2023-08-12 14:30:15.874622,-66.0
2023-08-12 14:30:15.882312,-61.0
2023-08-12 14:30:15.890002,-47.0
2023-08-12 14:30:15.897692,-33.0
2023-08-12 14:30:15.905382,-40.0
2023-08-12 14:30:15.913072,-57.0
2023-08-12 14:30:15.920762,-47.0
2023-08-12 14:30:15.928452,-42.0
2023-08-12 14:30:15.936142,-64.0
2023-08-12 14:30:15.943832,-76.0
2023-08-12 14:30:15.951521,-71.0
2023-08-12 14:30:15.959211,-73.0
2023-08-12 14:30:15.966901,-78.0
2023-08-12 14:30:15.974591,-78.0
2023-08-12 14:30:15.982281,-71.0
2023-08-12 14:30:15.989971,-73.0
2023-08-12 14:30:15.997661,-69.0
2023-08-12 14:30:16.005351,7.0
2023-08-12 14:30:16.013041,207.0
2023-08-12 14:30:16.020731,449.0
2023-08-12 14:30:16.028421,504.0
2023-08-12 14:30:16.036111,226.0
2023-08-12 14:30:16.043801,-126.0
2023-08-12 14:30:16.051491,-202.0
2023-08-12 14:30:16.059181,-140.0
2023-08-12 14:30:16.066871,-147.0
2023-08-12 14:30:16.074561,-128.0
2023-08-12 14:30:16.082251,-80.0
2023-08-12 14:30:16.089941,-83.0
2023-08-12 14:30:16.097631,-88.0
2023-08-12 14:30:16.105321,-66.0
2023-08-12 14:30:16.113011,-64.0
2023-08-12 14:30:16.120701,-73.0
2023-08-12 14:30:16.128391,-64.0
2023-08-12 14:30:16.136081,-49.0
2023-08-12 14:30:16.143771,-49.0
2023-08-12 14:30:16.151461,-52.0
2023-08-12 14:30:16.159151,-35.0
2023-08-12 14:30:16.166841,-16.0
2023-08-12 14:30:16.174530,-14.0
2023-08-12 14:30:16.182220,-16.0
2023-08-12 14:30:16.189910,-2.0
2023-08-12 14:30:16.197600,16.0
2023-08-12 14:30:16.205290,33.0
2023-08-12 14:30:16.212980,49.0
2023-08-12 14:30:16.220670,57.0
2023-08-12 14:30:16.228360,61.0
2023-08-12 14:30:16.236050,69.0
2023-08-12 14:30:16.243740,59.0
2023-08-12 14:30:16.251430,45.0
2023-08-12 14:30:16.259120,28.0
2023-08-12 14:30:16.266810,11.0
2023-08-12 14:30:16.274500,-4.0
2023-08-12 14:30:16.282190,-38.0
2023-08-12 14:30:16.289880,-78.0
2023-08-12 14:30:16.297570,-107.0
2023-08-12 14:30:16.305260,-123.0
2023-08-12 14:30:16.312950,-142.0
2023-08-12 14:30:16.320640,-154.0
2023-08-12 14:30:16.328330,-147.0
2023-08-12 14:30:16.336020,-140.0
2023-08-12 14:30:16.343710,-140.0
2023-08-12 14:30:16.351400,-140.0
2023-08-12 14:30:16.359090,-133.0
2023-08-12 14:30:16.366780,-128.0
2023-08-12 14:30:16.374470,-126.0
2023-08-12 14:30:16.382160,-121.0
2023-08-12 14:30:16.389850,-123.0
2023-08-12 14:30:16.397539,-116.0
2023-08-12 14:30:16.405229,-104.0
2023-08-12 14:30:16.412919,-107.0
2023-08-12 14:30:16.420609,-107.0
2023-08-12 14:30:16.428299,-99.0
2023-08-12 14:30:16.435989,-104.0
2023-08-12 14:30:16.443679,-114.0
2023-08-12 14:30:16.451369,-104.0
2023-08-12 14:30:16.459059,-99.0
2023-08-12 14:30:16.466749,-104.0
2023-08-12 14:30:16.474439,-104.0
2023-08-12 14:30:16.482129,-99.0
2023-08-12 14:30:16.489819,-102.0
2023-08-12 14:30:16.497509,-99.0
2023-08-12 14:30:16.505199,-102.0
2023-08-12 14:30:16.512889,-99.0
2023-08-12 14:30:16.520579,-88.0
2023-08-12 14:30:16.528269,-88.0
2023-08-12 14:30:16.535959,-90.0
2023-08-12 14:30:16.543649,-80.0
2023-08-12 14:30:16.551339,-83.0
2023-08-12 14:30:16.559029,-99.0
2023-08-12 14:30:16.566719,-90.0
2023-08-12 14:30:16.574409,-69.0
2023-08-12 14:30:16.582099,-80.0
2023-08-12 14:30:16.589789,-88.0
2023-08-12 14:30:16.597479,-73.0
2023-08-12 14:30:16.605169,-73.0
2023-08-12 14:30:16.612859,-85.0
2023-08-12 14:30:16.620548,-90.0
2023-08-12 14:30:16.628238,-85.0
2023-08-12 14:30:16.635928,-59.0
2023-08-12 14:30:16.643618,-47.0
2023-08-12 14:30:16.651308,-61.0
2023-08-12 14:30:16.658998,-59.0
2023-08-12 14:30:16.666688,-45.0
2023-08-12 14:30:16.674378,-40.0
2023-08-12 14:30:16.682068,-30.0
2023-08-12 14:30:16.689758,-26.0
2023-08-12 14:30:16.697448,-47.0
2023-08-12 14:30:16.705138,-57.0
2023-08-12 14:30:16.712828,-47.0
2023-08-12 14:30:16.720518,-54.0
2023-08-12 14:30:16.728208,-76.0
2023-08-12 14:30:16.735898,-90.0
2023-08-12 14:30:16.743588,-88.0
2023-08-12 14:30:16.751278,-80.0
2023-08-12 14:30:16.758968,-69.0
2023-08-12 14:30:16.766658,-66.0
2023-08-12 14:30:16.774348,-73.0
2023-08-12 14:30:16.782038,-33.0
2023-08-12 14:30:16.789728,145.0
2023-08-12 14:30:16.797418,423.0
2023-08-12 14:30:16.805108,564.0
2023-08-12 14:30:16.812798,328.0
2023-08-12 14:30:16.820488,-78.0
2023-08-12 14:30:16.828178,-214.0
2023-08-12 14:30:16.835868,-147.0
2023-08-12 14:30:16.843558,-166.0
2023-08-12 14:30:16.851247,-161.0
2023-08-12 14:30:16.858937,-73.0
2023-08-12 14:30:16.866627,-59.0
2023-08-12 14:30:16.874317,-95.0
2023-08-12 14:30:16.882007,-80.0
2023-08-12 14:30:16.889697,-61.0
2023-08-12 14:30:16.897387,-69.0
2023-08-12 14:30:16.905077,-59.0
2023-08-12 14:30:16.912767,-47.0
2023-08-12 14:30:16.920457,-47.0
2023-08-12 14:30:16.928147,-42.0
2023-08-12 14:30:16.935837,-42.0
2023-08-12 14:30:16.943527,-45.0
2023-08-12 14:30:16.951217,-30.0
2023-08-12 14:30:16.958907,-4.0
2023-08-12 14:30:16.966597,9.0
2023-08-12 14:30:16.974287,14.0
2023-08-12 14:30:16.981977,28.0
2023-08-12 14:30:16.989667,47.0
2023-08-12 14:30:16.997357,64.0
2023-08-12 14:30:17.005047,71.0
2023-08-12 14:30:17.012737,76.0
2023-08-12 14:30:17.020427,80.0
2023-08-12 14:30:17.028117,76.0
2023-08-12 14:30:17.035807,69.0
2023-08-12 14:30:17.043497,59.0
2023-08-12 14:30:17.051187,23.0
2023-08-12 14:30:17.058877,-28.0
2023-08-12 14:30:17.066567,-69.0
2023-08-12 14:30:17.074256,-95.0
2023-08-12 14:30:17.081946,-123.0
2023-08-12 14:30:17.089636,-145.0
2023-08-12 14:30:17.097326,-152.0
2023-08-12 14:30:17.105016,-157.0
2023-08-12 14:30:17.112706,-169.0
2023-08-12 14:30:17.120396,-166.0
2023-08-12 14:30:17.128086,-138.0
2023-08-12 14:30:17.135776,-128.0
2023-08-12 14:30:17.143466,-147.0
2023-08-12 14:30:17.151156,-135.0
2023-08-12 14:30:17.158846,-111.0
2023-08-12 14:30:17.166536,-121.0
2023-08-12 14:30:17.174226,-130.0
2023-08-12 14:30:17.181916,-128.0
2023-08-12 14:30:17.189606,-121.0
2023-08-12 14:30:17.197296,-102.0
2023-08-12 14:30:17.204986,-88.0
2023-08-12 14:30:17.212676,-92.0
2023-08-12 14:30:17.220366,-107.0
2023-08-12 14:30:17.228056,-116.0
2023-08-12 14:30:17.235746,-107.0
2023-08-12 14:30:17.243436,-92.0
2023-08-12 14:30:17.251126,-102.0
2023-08-12 14:30:17.258816,-107.0
2023-08-12 14:30:17.266506,-102.0
2023-08-12 14:30:17.274196,-102.0
2023-08-12 14:30:17.281886,-99.0
2023-08-12 14:30:17.289576,-92.0
2023-08-12 14:30:17.297265,-95.0
2023-08-12 14:30:17.304955,-99.0
2023-08-12 14:30:17.312645,-95.0
2023-08-12 14:30:17.320335,-97.0
2023-08-12 14:30:17.328025,-102.0
2023-08-12 14:30:17.335715,-95.0
2023-08-12 14:30:17.343405,-88.0
2023-08-12 14:30:17.351095,-80.0
2023-08-12 14:30:17.358785,-78.0
2023-08-12 14:30:17.366475,-78.0
2023-08-12 14:30:17.374165,-76.0
2023-08-12 14:30:17.381855,-78.0
2023-08-12 14:30:17.389545,-80.0
2023-08-12 14:30:17.397235,-76.0
2023-08-12 14:30:17.404925,-54.0
2023-08-12 14:30:17.412615,-26.0
2023-08-12 14:30:17.420305,-28.0
2023-08-12 14:30:17.427995,-42.0
2023-08-12 14:30:17.435685,-42.0
2023-08-12 14:30:17.443375,-45.0
2023-08-12 14:30:17.451065,-57.0
2023-08-12 14:30:17.458755,-66.0
2023-08-12 14:30:17.466445,-71.0
2023-08-12 14:30:17.474135,-80.0
2023-08-12 14:30:17.481825,-95.0
2023-08-12 14:30:17.489515,-90.0
2023-08-12 14:30:17.497205,-71.0
2023-08-12 14:30:17.504895,-64.0
2023-08-12 14:30:17.512585,-73.0
2023-08-12 14:30:17.520274,-66.0
2023-08-12 14:30:17.527964,59.0
2023-08-12 14:30:17.535654,340.0
2023-08-12 14:30:17.543344,557.0
2023-08-12 14:30:17.551034,428.0
2023-08-12 14:30:17.558724,26.0
2023-08-12 14:30:17.566414,-216.0
2023-08-12 14:30:17.574104,-183.0
2023-08-12 14:30:17.581794,-159.0
2023-08-12 14:30:17.589484,-171.0
2023-08-12 14:30:17.597174,-107.0
2023-08-12 14:30:17.604864,-69.0
2023-08-12 14:30:17.612554,-95.0
2023-08-12 14:30:17.620244,-95.0
2023-08-12 14:30:17.627934,-64.0
2023-08-12 14:30:17.635624,-57.0
2023-08-12 14:30:17.643314,-64.0
