time,ECG
2023-12-19 11:51:46.408570,59.0
2023-12-19 11:51:46.416259,78.0
2023-12-19 11:51:46.423948,40.0
2023-12-19 11:51:46.431637,14.0
2023-12-19 11:51:46.439326,30.0
2023-12-19 11:51:46.447015,35.0
2023-12-19 11:51:46.454703,14.0
2023-12-19 11:51:46.462392,-19.0
2023-12-19 11:51:46.470081,-47.0
2023-12-19 11:51:46.477770,-52.0
2023-12-19 11:51:46.485459,-54.0
2023-12-19 11:51:46.493148,-69.0
2023-12-19 11:51:46.500837,-90.0
2023-12-19 11:51:46.508526,-107.0
2023-12-19 11:51:46.516214,-135.0
2023-12-19 11:51:46.523903,-169.0
2023-12-19 11:51:46.531592,-181.0
2023-12-19 11:51:46.539281,-176.0
2023-12-19 11:51:46.546970,-178.0
2023-12-19 11:51:46.554659,-181.0
2023-12-19 11:51:46.562348,-176.0
2023-12-19 11:51:46.570037,-145.0
2023-12-19 11:51:46.577725,-107.0
2023-12-19 11:51:46.585414,-88.0
2023-12-19 11:51:46.593103,-76.0
2023-12-19 11:51:46.600792,-61.0
2023-12-19 11:51:46.608481,-45.0
2023-12-19 11:51:46.616170,-30.0
2023-12-19 11:51:46.623859,-14.0
2023-12-19 11:51:46.631547,0.0
2023-12-19 11:51:46.639236,4.0
2023-12-19 11:51:46.646925,0.0
2023-12-19 11:51:46.654614,-2.0
2023-12-19 11:51:46.662303,7.0
2023-12-19 11:51:46.669992,14.0
2023-12-19 11:51:46.677681,14.0
2023-12-19 11:51:46.685370,7.0
2023-12-19 11:51:46.693058,0.0
2023-12-19 11:51:46.700747,-9.0
2023-12-19 11:51:46.708436,-19.0
2023-12-19 11:51:46.716125,-30.0
2023-12-19 11:51:46.723814,-42.0
2023-12-19 11:51:46.731503,-45.0
2023-12-19 11:51:46.739192,-47.0
2023-12-19 11:51:46.746881,-52.0
2023-12-19 11:51:46.754569,-50.0
2023-12-19 11:51:46.762258,-42.0
2023-12-19 11:51:46.769947,-40.0
2023-12-19 11:51:46.777636,-35.0
2023-12-19 11:51:46.785325,-35.0
2023-12-19 11:51:46.793014,-35.0
2023-12-19 11:51:46.800703,-23.0
2023-12-19 11:51:46.808391,-14.0
2023-12-19 11:51:46.816080,-11.0
2023-12-19 11:51:46.823769,-19.0
2023-12-19 11:51:46.831458,-23.0
2023-12-19 11:51:46.839147,-11.0
2023-12-19 11:51:46.846836,-2.0
2023-12-19 11:51:46.854525,-7.0
2023-12-19 11:51:46.862214,-7.0
2023-12-19 11:51:46.869902,0.0
2023-12-19 11:51:46.877591,-4.0
2023-12-19 11:51:46.885280,-7.0
2023-12-19 11:51:46.892969,4.0
2023-12-19 11:51:46.900658,4.0
2023-12-19 11:51:46.908347,-4.0
2023-12-19 11:51:46.916036,-7.0
2023-12-19 11:51:46.923725,-4.0
2023-12-19 11:51:46.931413,-4.0
2023-12-19 11:51:46.939102,-2.0
2023-12-19 11:51:46.946791,-2.0
2023-12-19 11:51:46.954480,0.0
2023-12-19 11:51:46.962169,-2.0
2023-12-19 11:51:46.969858,-9.0
2023-12-19 11:51:46.977547,-7.0
2023-12-19 11:51:46.985235,-2.0
2023-12-19 11:51:46.992924,-16.0
2023-12-19 11:51:47.000613,-45.0
2023-12-19 11:51:47.008302,-83.0
2023-12-19 11:51:47.015991,-95.0
2023-12-19 11:51:47.023680,-73.0
2023-12-19 11:51:47.031369,-45.0
2023-12-19 11:51:47.039058,-35.0
2023-12-19 11:51:47.046746,-54.0
2023-12-19 11:51:47.054435,-64.0
2023-12-19 11:51:47.062124,-54.0
2023-12-19 11:51:47.069813,-52.0
2023-12-19 11:51:47.077502,-61.0
2023-12-19 11:51:47.085191,-50.0
2023-12-19 11:51:47.092880,-28.0
2023-12-19 11:51:47.100569,-123.0
2023-12-19 11:51:47.108257,-467.0
2023-12-19 11:51:47.115946,-929.0
2023-12-19 11:51:47.123635,-1001.0
2023-12-19 11:51:47.131324,-417.0
2023-12-19 11:51:47.139013,200.0
2023-12-19 11:51:47.146702,224.0
2023-12-19 11:51:47.154391,23.0
2023-12-19 11:51:47.162079,40.0
2023-12-19 11:51:47.169768,76.0
2023-12-19 11:51:47.177457,23.0
2023-12-19 11:51:47.185146,21.0
2023-12-19 11:51:47.192835,30.0
2023-12-19 11:51:47.200524,-2.0
2023-12-19 11:51:47.208213,-21.0
2023-12-19 11:51:47.215902,-21.0
2023-12-19 11:51:47.223590,-33.0
2023-12-19 11:51:47.231279,-45.0
2023-12-19 11:51:47.238968,-42.0
2023-12-19 11:51:47.246657,-42.0
2023-12-19 11:51:47.254346,-54.0
2023-12-19 11:51:47.262035,-64.0
2023-12-19 11:51:47.269724,-73.0
2023-12-19 11:51:47.277413,-92.0
2023-12-19 11:51:47.285101,-107.0
2023-12-19 11:51:47.292790,-116.0
2023-12-19 11:51:47.300479,-135.0
2023-12-19 11:51:47.308168,-157.0
2023-12-19 11:51:47.315857,-176.0
2023-12-19 11:51:47.323546,-183.0
2023-12-19 11:51:47.331235,-164.0
2023-12-19 11:51:47.338923,-140.0
2023-12-19 11:51:47.346612,-131.0
2023-12-19 11:51:47.354301,-109.0
2023-12-19 11:51:47.361990,-73.0
2023-12-19 11:51:47.369679,-57.0
2023-12-19 11:51:47.377368,-52.0
2023-12-19 11:51:47.385057,-42.0
2023-12-19 11:51:47.392746,-23.0
2023-12-19 11:51:47.400434,-7.0
2023-12-19 11:51:47.408123,2.0
2023-12-19 11:51:47.415812,4.0
2023-12-19 11:51:47.423501,19.0
2023-12-19 11:51:47.431190,28.0
2023-12-19 11:51:47.438879,16.0
2023-12-19 11:51:47.446568,7.0
2023-12-19 11:51:47.454257,7.0
2023-12-19 11:51:47.461945,-7.0
2023-12-19 11:51:47.469634,-33.0
2023-12-19 11:51:47.477323,-33.0
2023-12-19 11:51:47.485012,-26.0
2023-12-19 11:51:47.492701,-35.0
2023-12-19 11:51:47.500390,-57.0
2023-12-19 11:51:47.508079,-64.0
2023-12-19 11:51:47.515767,-52.0
2023-12-19 11:51:47.523456,-45.0
2023-12-19 11:51:47.531145,-57.0
2023-12-19 11:51:47.538834,-64.0
2023-12-19 11:51:47.546523,-69.0
2023-12-19 11:51:47.554212,-76.0
2023-12-19 11:51:47.561901,-73.0
2023-12-19 11:51:47.569590,-61.0
2023-12-19 11:51:47.577278,-59.0
2023-12-19 11:51:47.584967,-52.0
2023-12-19 11:51:47.592656,-42.0
2023-12-19 11:51:47.600345,-45.0
2023-12-19 11:51:47.608034,-42.0
2023-12-19 11:51:47.615723,-30.0
2023-12-19 11:51:47.623412,-26.0
2023-12-19 11:51:47.631101,-28.0
2023-12-19 11:51:47.638789,-28.0
2023-12-19 11:51:47.646478,-21.0
2023-12-19 11:51:47.654167,-16.0
2023-12-19 11:51:47.661856,-21.0
2023-12-19 11:51:47.669545,-21.0
2023-12-19 11:51:47.677234,-16.0
2023-12-19 11:51:47.684923,-16.0
2023-12-19 11:51:47.692611,-21.0
2023-12-19 11:51:47.700300,-21.0
2023-12-19 11:51:47.707989,-23.0
2023-12-19 11:51:47.715678,-28.0
2023-12-19 11:51:47.723367,-38.0
2023-12-19 11:51:47.731056,-40.0
2023-12-19 11:51:47.738745,-33.0
2023-12-19 11:51:47.746434,-33.0
2023-12-19 11:51:47.754122,-33.0
2023-12-19 11:51:47.761811,-26.0
2023-12-19 11:51:47.769500,-23.0
2023-12-19 11:51:47.777189,-26.0
2023-12-19 11:51:47.784878,-16.0
2023-12-19 11:51:47.792567,-7.0
2023-12-19 11:51:47.800256,-30.0
2023-12-19 11:51:47.807945,-59.0
2023-12-19 11:51:47.815633,-59.0
2023-12-19 11:51:47.823322,-57.0
2023-12-19 11:51:47.831011,-47.0
2023-12-19 11:51:47.838700,-23.0
2023-12-19 11:51:47.846389,-19.0
2023-12-19 11:51:47.854078,-33.0
2023-12-19 11:51:47.861767,-38.0
2023-12-19 11:51:47.869455,-42.0
2023-12-19 11:51:47.877144,-57.0
2023-12-19 11:51:47.884833,-59.0
2023-12-19 11:51:47.892522,-26.0
2023-12-19 11:51:47.900211,-57.0
2023-12-19 11:51:47.907900,-317.0
2023-12-19 11:51:47.915589,-772.0
2023-12-19 11:51:47.923278,-1037.0
2023-12-19 11:51:47.930966,-667.0
2023-12-19 11:51:47.938655,23.0
2023-12-19 11:51:47.946344,238.0
2023-12-19 11:51:47.954033,26.0
2023-12-19 11:51:47.961722,-11.0
2023-12-19 11:51:47.969411,61.0
2023-12-19 11:51:47.977100,14.0
2023-12-19 11:51:47.984789,-16.0
2023-12-19 11:51:47.992477,4.0
2023-12-19 11:51:48.000166,-7.0
2023-12-19 11:51:48.007855,-21.0
2023-12-19 11:51:48.015544,-9.0
2023-12-19 11:51:48.023233,-7.0
2023-12-19 11:51:48.030922,-19.0
2023-12-19 11:51:48.038611,-23.0
2023-12-19 11:51:48.046299,-23.0
2023-12-19 11:51:48.053988,-28.0
2023-12-19 11:51:48.061677,-35.0
2023-12-19 11:51:48.069366,-42.0
2023-12-19 11:51:48.077055,-50.0
2023-12-19 11:51:48.084744,-66.0
2023-12-19 11:51:48.092433,-95.0
2023-12-19 11:51:48.100122,-112.0
2023-12-19 11:51:48.107810,-116.0
2023-12-19 11:51:48.115499,-131.0
2023-12-19 11:51:48.123188,-150.0
2023-12-19 11:51:48.130877,-162.0
2023-12-19 11:51:48.138566,-159.0
2023-12-19 11:51:48.146255,-135.0
2023-12-19 11:51:48.153944,-112.0
2023-12-19 11:51:48.161633,-97.0
2023-12-19 11:51:48.169321,-83.0
2023-12-19 11:51:48.177010,-83.0
2023-12-19 11:51:48.184699,-76.0
2023-12-19 11:51:48.192388,-59.0
2023-12-19 11:51:48.200077,-57.0
2023-12-19 11:51:48.207766,-54.0
2023-12-19 11:51:48.215455,-30.0
2023-12-19 11:51:48.223143,-28.0
2023-12-19 11:51:48.230832,-45.0
2023-12-19 11:51:48.238521,-40.0
2023-12-19 11:51:48.246210,-16.0
2023-12-19 11:51:48.253899,-4.0
2023-12-19 11:51:48.261588,-21.0
2023-12-19 11:51:48.269277,-33.0
2023-12-19 11:51:48.276966,-26.0
2023-12-19 11:51:48.284654,-26.0
2023-12-19 11:51:48.292343,-35.0
2023-12-19 11:51:48.300032,-21.0
2023-12-19 11:51:48.307721,-19.0
2023-12-19 11:51:48.315410,-40.0
2023-12-19 11:51:48.323099,-50.0
2023-12-19 11:51:48.330788,-33.0
2023-12-19 11:51:48.338477,-30.0
2023-12-19 11:51:48.346165,-38.0
2023-12-19 11:51:48.353854,-38.0
2023-12-19 11:51:48.361543,-38.0
2023-12-19 11:51:48.369232,-33.0
2023-12-19 11:51:48.376921,-21.0
2023-12-19 11:51:48.384610,-11.0
2023-12-19 11:51:48.392299,-14.0
2023-12-19 11:51:48.399987,-28.0
2023-12-19 11:51:48.407676,-35.0
2023-12-19 11:51:48.415365,-28.0
2023-12-19 11:51:48.423054,-23.0
2023-12-19 11:51:48.430743,-26.0
2023-12-19 11:51:48.438432,-23.0
2023-12-19 11:51:48.446121,-30.0
2023-12-19 11:51:48.453810,-42.0
2023-12-19 11:51:48.461498,-35.0
2023-12-19 11:51:48.469187,-38.0
2023-12-19 11:51:48.476876,-64.0
2023-12-19 11:51:48.484565,-66.0
2023-12-19 11:51:48.492254,-54.0
2023-12-19 11:51:48.499943,-59.0
2023-12-19 11:51:48.507632,-57.0
2023-12-19 11:51:48.515321,-47.0
2023-12-19 11:51:48.523009,-47.0
2023-12-19 11:51:48.530698,-59.0
2023-12-19 11:51:48.538387,-66.0
2023-12-19 11:51:48.546076,-61.0
2023-12-19 11:51:48.553765,-57.0
2023-12-19 11:51:48.561454,-59.0
2023-12-19 11:51:48.569143,-57.0
2023-12-19 11:51:48.576831,-50.0
2023-12-19 11:51:48.584520,-52.0
2023-12-19 11:51:48.592209,-83.0
2023-12-19 11:51:48.599898,-109.0
2023-12-19 11:51:48.607587,-97.0
2023-12-19 11:51:48.615276,-83.0
2023-12-19 11:51:48.622965,-78.0
2023-12-19 11:51:48.630654,-71.0
2023-12-19 11:51:48.638342,-59.0
2023-12-19 11:51:48.646031,-54.0
2023-12-19 11:51:48.653720,-59.0
2023-12-19 11:51:48.661409,-57.0
2023-12-19 11:51:48.669098,-50.0
2023-12-19 11:51:48.676787,-45.0
2023-12-19 11:51:48.684476,-33.0
2023-12-19 11:51:48.692165,-76.0
2023-12-19 11:51:48.699853,-295.0
2023-12-19 11:51:48.707542,-705.0
2023-12-19 11:51:48.715231,-975.0
2023-12-19 11:51:48.722920,-655.0
2023-12-19 11:51:48.730609,-7.0
2023-12-19 11:51:48.738298,193.0
2023-12-19 11:51:48.745987,0.0
2023-12-19 11:51:48.753676,-14.0
2023-12-19 11:51:48.761364,69.0
2023-12-19 11:51:48.769053,26.0
2023-12-19 11:51:48.776742,0.0
2023-12-19 11:51:48.784431,26.0
2023-12-19 11:51:48.792120,19.0
2023-12-19 11:51:48.799809,7.0
2023-12-19 11:51:48.807498,11.0
2023-12-19 11:51:48.815186,4.0
2023-12-19 11:51:48.822875,-4.0
2023-12-19 11:51:48.830564,2.0
2023-12-19 11:51:48.838253,9.0
2023-12-19 11:51:48.845942,4.0
2023-12-19 11:51:48.853631,-16.0
2023-12-19 11:51:48.861320,-30.0
2023-12-19 11:51:48.869009,-30.0
2023-12-19 11:51:48.876697,-42.0
2023-12-19 11:51:48.884386,-61.0
2023-12-19 11:51:48.892075,-73.0
2023-12-19 11:51:48.899764,-92.0
2023-12-19 11:51:48.907453,-112.0
2023-12-19 11:51:48.915142,-119.0
2023-12-19 11:51:48.922831,-114.0
2023-12-19 11:51:48.930520,-104.0
2023-12-19 11:51:48.938208,-92.0
2023-12-19 11:51:48.945897,-73.0
2023-12-19 11:51:48.953586,-66.0
2023-12-19 11:51:48.961275,-64.0
2023-12-19 11:51:48.968964,-42.0
2023-12-19 11:51:48.976653,-28.0
2023-12-19 11:51:48.984342,-35.0
2023-12-19 11:51:48.992030,-21.0
2023-12-19 11:51:48.999719,-7.0
2023-12-19 11:51:49.007408,-11.0
2023-12-19 11:51:49.015097,4.0
2023-12-19 11:51:49.022786,16.0
2023-12-19 11:51:49.030475,2.0
2023-12-19 11:51:49.038164,9.0
2023-12-19 11:51:49.045853,26.0
2023-12-19 11:51:49.053541,9.0
2023-12-19 11:51:49.061230,-11.0
2023-12-19 11:51:49.068919,-9.0
2023-12-19 11:51:49.076608,-11.0
2023-12-19 11:51:49.084297,-9.0
2023-12-19 11:51:49.091986,-9.0
2023-12-19 11:51:49.099675,-21.0
2023-12-19 11:51:49.107364,-19.0
2023-12-19 11:51:49.115052,-9.0
2023-12-19 11:51:49.122741,-19.0
2023-12-19 11:51:49.130430,-35.0
2023-12-19 11:51:49.138119,-28.0
2023-12-19 11:51:49.145808,-9.0
2023-12-19 11:51:49.153497,-9.0
2023-12-19 11:51:49.161186,-16.0
2023-12-19 11:51:49.168874,-26.0
2023-12-19 11:51:49.176563,-33.0
2023-12-19 11:51:49.184252,-26.0
2023-12-19 11:51:49.191941,-28.0
2023-12-19 11:51:49.199630,-45.0
2023-12-19 11:51:49.207319,-52.0
2023-12-19 11:51:49.215008,-61.0
2023-12-19 11:51:49.222697,-66.0
2023-12-19 11:51:49.230385,-64.0
2023-12-19 11:51:49.238074,-69.0
2023-12-19 11:51:49.245763,-73.0
2023-12-19 11:51:49.253452,-73.0
2023-12-19 11:51:49.261141,-73.0
2023-12-19 11:51:49.268830,-61.0
2023-12-19 11:51:49.276519,-59.0
2023-12-19 11:51:49.284208,-76.0
2023-12-19 11:51:49.291896,-76.0
2023-12-19 11:51:49.299585,-59.0
2023-12-19 11:51:49.307274,-59.0
2023-12-19 11:51:49.314963,-64.0
2023-12-19 11:51:49.322652,-57.0
2023-12-19 11:51:49.330341,-52.0
2023-12-19 11:51:49.338030,-50.0
2023-12-19 11:51:49.345718,-45.0
2023-12-19 11:51:49.353407,-45.0
2023-12-19 11:51:49.361096,-52.0
2023-12-19 11:51:49.368785,-78.0
2023-12-19 11:51:49.376474,-100.0
2023-12-19 11:51:49.384163,-85.0
2023-12-19 11:51:49.391852,-64.0
2023-12-19 11:51:49.399541,-57.0
2023-12-19 11:51:49.407229,-50.0
2023-12-19 11:51:49.414918,-52.0
2023-12-19 11:51:49.422607,-57.0
2023-12-19 11:51:49.430296,-57.0
2023-12-19 11:51:49.437985,-57.0
2023-12-19 11:51:49.445674,-57.0
2023-12-19 11:51:49.453363,-52.0
2023-12-19 11:51:49.461052,-47.0
2023-12-19 11:51:49.468740,-140.0
2023-12-19 11:51:49.476429,-467.0
2023-12-19 11:51:49.484118,-867.0
2023-12-19 11:51:49.491807,-853.0
2023-12-19 11:51:49.499496,-271.0
2023-12-19 11:51:49.507185,236.0
2023-12-19 11:51:49.514874,202.0
2023-12-19 11:51:49.522562,19.0
2023-12-19 11:51:49.530251,23.0
2023-12-19 11:51:49.537940,40.0
2023-12-19 11:51:49.545629,7.0
2023-12-19 11:51:49.553318,11.0
2023-12-19 11:51:49.561007,16.0
2023-12-19 11:51:49.568696,-2.0
2023-12-19 11:51:49.576385,-9.0
2023-12-19 11:51:49.584073,2.0
2023-12-19 11:51:49.591762,2.0
2023-12-19 11:51:49.599451,-4.0
2023-12-19 11:51:49.607140,-11.0
2023-12-19 11:51:49.614829,-19.0
2023-12-19 11:51:49.622518,-28.0
2023-12-19 11:51:49.630207,-38.0
2023-12-19 11:51:49.637896,-42.0
2023-12-19 11:51:49.645584,-57.0
2023-12-19 11:51:49.653273,-81.0
2023-12-19 11:51:49.660962,-104.0
2023-12-19 11:51:49.668651,-126.0
2023-12-19 11:51:49.676340,-140.0
2023-12-19 11:51:49.684029,-145.0
2023-12-19 11:51:49.691718,-157.0
2023-12-19 11:51:49.699406,-174.0
2023-12-19 11:51:49.707095,-154.0
2023-12-19 11:51:49.714784,-128.0
2023-12-19 11:51:49.722473,-121.0
2023-12-19 11:51:49.730162,-95.0
2023-12-19 11:51:49.737851,-61.0
2023-12-19 11:51:49.745540,-66.0
2023-12-19 11:51:49.753229,-61.0
2023-12-19 11:51:49.760917,-30.0
2023-12-19 11:51:49.768606,-19.0
2023-12-19 11:51:49.776295,-9.0
2023-12-19 11:51:49.783984,9.0
2023-12-19 11:51:49.791673,-7.0
2023-12-19 11:51:49.799362,-42.0
2023-12-19 11:51:49.807051,-45.0
2023-12-19 11:51:49.814740,-28.0
2023-12-19 11:51:49.822428,-30.0
2023-12-19 11:51:49.830117,-42.0
2023-12-19 11:51:49.837806,-52.0
2023-12-19 11:51:49.845495,-57.0
2023-12-19 11:51:49.853184,-59.0
2023-12-19 11:51:49.860873,-69.0
2023-12-19 11:51:49.868562,-69.0
2023-12-19 11:51:49.876250,-61.0
2023-12-19 11:51:49.883939,-64.0
2023-12-19 11:51:49.891628,-71.0
2023-12-19 11:51:49.899317,-76.0
2023-12-19 11:51:49.907006,-71.0
2023-12-19 11:51:49.914695,-71.0
2023-12-19 11:51:49.922384,-81.0
2023-12-19 11:51:49.930073,-83.0
2023-12-19 11:51:49.937761,-78.0
2023-12-19 11:51:49.945450,-71.0
2023-12-19 11:51:49.953139,-64.0
2023-12-19 11:51:49.960828,-69.0
2023-12-19 11:51:49.968517,-78.0
2023-12-19 11:51:49.976206,-73.0
2023-12-19 11:51:49.983895,-59.0
2023-12-19 11:51:49.991584,-59.0
2023-12-19 11:51:49.999272,-73.0
2023-12-19 11:51:50.006961,-73.0
2023-12-19 11:51:50.014650,-61.0
2023-12-19 11:51:50.022339,-57.0
2023-12-19 11:51:50.030028,-54.0
2023-12-19 11:51:50.037717,-47.0
2023-12-19 11:51:50.045406,-47.0
2023-12-19 11:51:50.053094,-38.0
2023-12-19 11:51:50.060783,-21.0
2023-12-19 11:51:50.068472,-38.0
2023-12-19 11:51:50.076161,-71.0
2023-12-19 11:51:50.083850,-73.0
2023-12-19 11:51:50.091539,-69.0
2023-12-19 11:51:50.099228,-64.0
2023-12-19 11:51:50.106917,-40.0
2023-12-19 11:51:50.114605,-38.0
2023-12-19 11:51:50.122294,-50.0
2023-12-19 11:51:50.129983,-35.0
2023-12-19 11:51:50.137672,-21.0
2023-12-19 11:51:50.145361,-21.0
2023-12-19 11:51:50.153050,-26.0
2023-12-19 11:51:50.160739,-19.0
2023-12-19 11:51:50.168428,-9.0
2023-12-19 11:51:50.176116,-133.0
2023-12-19 11:51:50.183805,-491.0
2023-12-19 11:51:50.191494,-884.0
2023-12-19 11:51:50.199183,-841.0
2023-12-19 11:51:50.206872,-231.0
2023-12-19 11:51:50.214561,286.0
2023-12-19 11:51:50.222250,221.0
2023-12-19 11:51:50.229938,28.0
2023-12-19 11:51:50.237627,64.0
2023-12-19 11:51:50.245316,78.0
2023-12-19 11:51:50.253005,16.0
2023-12-19 11:51:50.260694,35.0
2023-12-19 11:51:50.268383,59.0
2023-12-19 11:51:50.276072,26.0
2023-12-19 11:51:50.283761,19.0
2023-12-19 11:51:50.291449,33.0
2023-12-19 11:51:50.299138,21.0
2023-12-19 11:51:50.306827,9.0
2023-12-19 11:51:50.314516,21.0
2023-12-19 11:51:50.322205,14.0
2023-12-19 11:51:50.329894,0.0
2023-12-19 11:51:50.337583,2.0
2023-12-19 11:51:50.345272,-21.0
2023-12-19 11:51:50.352960,-59.0
2023-12-19 11:51:50.360649,-57.0
2023-12-19 11:51:50.368338,-57.0
2023-12-19 11:51:50.376027,-114.0
2023-12-19 11:51:50.383716,-159.0
2023-12-19 11:51:50.391405,-150.0
2023-12-19 11:51:50.399094,-123.0
2023-12-19 11:51:50.406782,-119.0
2023-12-19 11:51:50.414471,-114.0
2023-12-19 11:51:50.422160,-100.0
2023-12-19 11:51:50.429849,-90.0
2023-12-19 11:51:50.437538,-69.0
2023-12-19 11:51:50.445227,-40.0
2023-12-19 11:51:50.452916,-19.0
2023-12-19 11:51:50.460605,4.0
2023-12-19 11:51:50.468293,7.0
2023-12-19 11:51:50.475982,7.0
2023-12-19 11:51:50.483671,28.0
2023-12-19 11:51:50.491360,42.0
2023-12-19 11:51:50.499049,33.0
2023-12-19 11:51:50.506738,33.0
2023-12-19 11:51:50.514427,47.0
2023-12-19 11:51:50.522116,42.0
2023-12-19 11:51:50.529804,35.0
2023-12-19 11:51:50.537493,33.0
2023-12-19 11:51:50.545182,21.0
2023-12-19 11:51:50.552871,4.0
2023-12-19 11:51:50.560560,-11.0
2023-12-19 11:51:50.568249,-21.0
2023-12-19 11:51:50.575938,-21.0
2023-12-19 11:51:50.583626,-16.0
2023-12-19 11:51:50.591315,-21.0
2023-12-19 11:51:50.599004,-30.0
2023-12-19 11:51:50.606693,-30.0
2023-12-19 11:51:50.614382,-28.0
2023-12-19 11:51:50.622071,-30.0
2023-12-19 11:51:50.629760,-23.0
2023-12-19 11:51:50.637449,-4.0
2023-12-19 11:51:50.645137,-2.0
2023-12-19 11:51:50.652826,-11.0
2023-12-19 11:51:50.660515,-11.0
2023-12-19 11:51:50.668204,-16.0
2023-12-19 11:51:50.675893,-30.0
2023-12-19 11:51:50.683582,-30.0
2023-12-19 11:51:50.691271,-30.0
2023-12-19 11:51:50.698960,-50.0
2023-12-19 11:51:50.706648,-61.0
2023-12-19 11:51:50.714337,-57.0
2023-12-19 11:51:50.722026,-52.0
2023-12-19 11:51:50.729715,-50.0
2023-12-19 11:51:50.737404,-50.0
2023-12-19 11:51:50.745093,-57.0
2023-12-19 11:51:50.752782,-61.0
2023-12-19 11:51:50.760470,-50.0
2023-12-19 11:51:50.768159,-40.0
2023-12-19 11:51:50.775848,-47.0
2023-12-19 11:51:50.783537,-35.0
2023-12-19 11:51:50.791226,-23.0
2023-12-19 11:51:50.798915,-38.0
2023-12-19 11:51:50.806604,-59.0
2023-12-19 11:51:50.814293,-69.0
2023-12-19 11:51:50.821981,-71.0
2023-12-19 11:51:50.829670,-64.0
2023-12-19 11:51:50.837359,-50.0
2023-12-19 11:51:50.845048,-42.0
2023-12-19 11:51:50.852737,-45.0
2023-12-19 11:51:50.860426,-38.0
2023-12-19 11:51:50.868115,-19.0
2023-12-19 11:51:50.875804,-26.0
2023-12-19 11:51:50.883492,-42.0
2023-12-19 11:51:50.891181,-26.0
2023-12-19 11:51:50.898870,2.0
2023-12-19 11:51:50.906559,-40.0
2023-12-19 11:51:50.914248,-255.0
2023-12-19 11:51:50.921937,-670.0
2023-12-19 11:51:50.929626,-980.0
2023-12-19 11:51:50.937314,-715.0
2023-12-19 11:51:50.945003,-54.0
2023-12-19 11:51:50.952692,231.0
2023-12-19 11:51:50.960381,61.0
2023-12-19 11:51:50.968070,-2.0
2023-12-19 11:51:50.975759,69.0
2023-12-19 11:51:50.983448,45.0
2023-12-19 11:51:50.991137,19.0
2023-12-19 11:51:50.998825,45.0
2023-12-19 11:51:51.006514,38.0
2023-12-19 11:51:51.014203,11.0
2023-12-19 11:51:51.021892,19.0
2023-12-19 11:51:51.029581,26.0
2023-12-19 11:51:51.037270,11.0
2023-12-19 11:51:51.044959,4.0
2023-12-19 11:51:51.052648,7.0
2023-12-19 11:51:51.060336,4.0
2023-12-19 11:51:51.068025,0.0
2023-12-19 11:51:51.075714,-9.0
2023-12-19 11:51:51.083403,-23.0
2023-12-19 11:51:51.091092,-40.0
2023-12-19 11:51:51.098781,-61.0
2023-12-19 11:51:51.106470,-85.0
2023-12-19 11:51:51.114158,-102.0
2023-12-19 11:51:51.121847,-109.0
2023-12-19 11:51:51.129536,-114.0
2023-12-19 11:51:51.137225,-112.0
2023-12-19 11:51:51.144914,-102.0
2023-12-19 11:51:51.152603,-97.0
2023-12-19 11:51:51.160292,-85.0
2023-12-19 11:51:51.167981,-57.0
2023-12-19 11:51:51.175669,-26.0
2023-12-19 11:51:51.183358,-16.0
2023-12-19 11:51:51.191047,-16.0
2023-12-19 11:51:51.198736,-11.0
2023-12-19 11:51:51.206425,-2.0
2023-12-19 11:51:51.214114,4.0
2023-12-19 11:51:51.221803,11.0
2023-12-19 11:51:51.229492,19.0
2023-12-19 11:51:51.237180,23.0
2023-12-19 11:51:51.244869,19.0
2023-12-19 11:51:51.252558,16.0
2023-12-19 11:51:51.260247,21.0
2023-12-19 11:51:51.267936,23.0
2023-12-19 11:51:51.275625,21.0
2023-12-19 11:51:51.283314,23.0
2023-12-19 11:51:51.291002,26.0
2023-12-19 11:51:51.298691,7.0
2023-12-19 11:51:51.306380,-11.0
2023-12-19 11:51:51.314069,-11.0
2023-12-19 11:51:51.321758,-14.0
2023-12-19 11:51:51.329447,-26.0
2023-12-19 11:51:51.337136,-33.0
2023-12-19 11:51:51.344825,-38.0
2023-12-19 11:51:51.352513,-38.0
2023-12-19 11:51:51.360202,-35.0
2023-12-19 11:51:51.367891,-35.0
2023-12-19 11:51:51.375580,-35.0
2023-12-19 11:51:51.383269,-35.0
2023-12-19 11:51:51.390958,-30.0
2023-12-19 11:51:51.398647,-30.0
2023-12-19 11:51:51.406336,-33.0
2023-12-19 11:51:51.414024,-30.0
2023-12-19 11:51:51.421713,-40.0
2023-12-19 11:51:51.429402,-38.0
2023-12-19 11:51:51.437091,-21.0
2023-12-19 11:51:51.444780,-23.0
2023-12-19 11:51:51.452469,-38.0
2023-12-19 11:51:51.460158,-57.0
2023-12-19 11:51:51.467846,-73.0
2023-12-19 11:51:51.475535,-78.0
2023-12-19 11:51:51.483224,-71.0
2023-12-19 11:51:51.490913,-76.0
2023-12-19 11:51:51.498602,-92.0
2023-12-19 11:51:51.506291,-95.0
2023-12-19 11:51:51.513980,-78.0
2023-12-19 11:51:51.521669,-66.0
2023-12-19 11:51:51.529357,-66.0
2023-12-19 11:51:51.537046,-61.0
2023-12-19 11:51:51.544735,-54.0
2023-12-19 11:51:51.552424,-52.0
2023-12-19 11:51:51.560113,-57.0
2023-12-19 11:51:51.567802,-78.0
2023-12-19 11:51:51.575491,-95.0
2023-12-19 11:51:51.583180,-88.0
2023-12-19 11:51:51.590868,-83.0
2023-12-19 11:51:51.598557,-83.0
2023-12-19 11:51:51.606246,-66.0
2023-12-19 11:51:51.613935,-42.0
2023-12-19 11:51:51.621624,-33.0
2023-12-19 11:51:51.629313,-42.0
2023-12-19 11:51:51.637002,-59.0
2023-12-19 11:51:51.644690,-61.0
2023-12-19 11:51:51.652379,-45.0
2023-12-19 11:51:51.660068,-21.0
2023-12-19 11:51:51.667757,-52.0
2023-12-19 11:51:51.675446,-259.0
2023-12-19 11:51:51.683135,-650.0
2023-12-19 11:51:51.690824,-925.0
2023-12-19 11:51:51.698513,-643.0
2023-12-19 11:51:51.706201,-21.0
2023-12-19 11:51:51.713890,207.0
2023-12-19 11:51:51.721579,30.0
2023-12-19 11:51:51.729268,-7.0
2023-12-19 11:51:51.736957,73.0
2023-12-19 11:51:51.744646,35.0
2023-12-19 11:51:51.752335,2.0
2023-12-19 11:51:51.760024,35.0
2023-12-19 11:51:51.767712,33.0
2023-12-19 11:51:51.775401,9.0
2023-12-19 11:51:51.783090,16.0
2023-12-19 11:51:51.790779,21.0
2023-12-19 11:51:51.798468,9.0
2023-12-19 11:51:51.806157,7.0
2023-12-19 11:51:51.813846,4.0
2023-12-19 11:51:51.821534,-4.0
2023-12-19 11:51:51.829223,-19.0
2023-12-19 11:51:51.836912,-28.0
2023-12-19 11:51:51.844601,-33.0
2023-12-19 11:51:51.852290,-35.0
2023-12-19 11:51:51.859979,-52.0
2023-12-19 11:51:51.867668,-88.0
2023-12-19 11:51:51.875357,-107.0
2023-12-19 11:51:51.883045,-112.0
2023-12-19 11:51:51.890734,-126.0
2023-12-19 11:51:51.898423,-135.0
2023-12-19 11:51:51.906112,-128.0
2023-12-19 11:51:51.913801,-116.0
2023-12-19 11:51:51.921490,-95.0
2023-12-19 11:51:51.929179,-64.0
2023-12-19 11:51:51.936868,-47.0
2023-12-19 11:51:51.944556,-35.0
2023-12-19 11:51:51.952245,-21.0
2023-12-19 11:51:51.959934,-7.0
2023-12-19 11:51:51.967623,7.0
2023-12-19 11:51:51.975312,19.0
2023-12-19 11:51:51.983001,23.0
2023-12-19 11:51:51.990690,28.0
2023-12-19 11:51:51.998378,28.0
2023-12-19 11:51:52.006067,23.0
2023-12-19 11:51:52.013756,26.0
2023-12-19 11:51:52.021445,33.0
2023-12-19 11:51:52.029134,35.0
2023-12-19 11:51:52.036823,28.0
2023-12-19 11:51:52.044512,11.0
2023-12-19 11:51:52.052201,-11.0
2023-12-19 11:51:52.059889,-23.0
2023-12-19 11:51:52.067578,-23.0
2023-12-19 11:51:52.075267,-21.0
2023-12-19 11:51:52.082956,-16.0
2023-12-19 11:51:52.090645,-23.0
2023-12-19 11:51:52.098334,-45.0
2023-12-19 11:51:52.106023,-50.0
2023-12-19 11:51:52.113712,-35.0
2023-12-19 11:51:52.121400,-38.0
2023-12-19 11:51:52.129089,-50.0
2023-12-19 11:51:52.136778,-57.0
2023-12-19 11:51:52.144467,-64.0
2023-12-19 11:51:52.152156,-59.0
2023-12-19 11:51:52.159845,-50.0
2023-12-19 11:51:52.167534,-42.0
2023-12-19 11:51:52.175222,-38.0
2023-12-19 11:51:52.182911,-42.0
2023-12-19 11:51:52.190600,-45.0
2023-12-19 11:51:52.198289,-47.0
2023-12-19 11:51:52.205978,-59.0
2023-12-19 11:51:52.213667,-71.0
2023-12-19 11:51:52.221356,-61.0
2023-12-19 11:51:52.229045,-47.0
2023-12-19 11:51:52.236733,-54.0
2023-12-19 11:51:52.244422,-71.0
2023-12-19 11:51:52.252111,-71.0
2023-12-19 11:51:52.259800,-59.0
2023-12-19 11:51:52.267489,-69.0
2023-12-19 11:51:52.275178,-78.0
2023-12-19 11:51:52.282867,-73.0
2023-12-19 11:51:52.290556,-73.0
2023-12-19 11:51:52.298244,-85.0
2023-12-19 11:51:52.305933,-78.0
2023-12-19 11:51:52.313622,-66.0
2023-12-19 11:51:52.321311,-66.0
2023-12-19 11:51:52.329000,-64.0
2023-12-19 11:51:52.336689,-71.0
2023-12-19 11:51:52.344378,-95.0
2023-12-19 11:51:52.352066,-107.0
2023-12-19 11:51:52.359755,-102.0
2023-12-19 11:51:52.367444,-95.0
2023-12-19 11:51:52.375133,-85.0
2023-12-19 11:51:52.382822,-78.0
2023-12-19 11:51:52.390511,-85.0
2023-12-19 11:51:52.398200,-83.0
2023-12-19 11:51:52.405889,-78.0
2023-12-19 11:51:52.413577,-81.0
2023-12-19 11:51:52.421266,-76.0
2023-12-19 11:51:52.428955,-57.0
2023-12-19 11:51:52.436644,-42.0
2023-12-19 11:51:52.444333,-121.0
2023-12-19 11:51:52.452022,-407.0
2023-12-19 11:51:52.459711,-805.0
2023-12-19 11:51:52.467400,-913.0
2023-12-19 11:51:52.475088,-448.0
2023-12-19 11:51:52.482777,131.0
2023-12-19 11:51:52.490466,214.0
2023-12-19 11:51:52.498155,28.0
2023-12-19 11:51:52.505844,23.0
2023-12-19 11:51:52.513533,64.0
2023-12-19 11:51:52.521222,16.0
2023-12-19 11:51:52.528910,14.0
2023-12-19 11:51:52.536599,38.0
2023-12-19 11:51:52.544288,16.0
2023-12-19 11:51:52.551977,0.0
2023-12-19 11:51:52.559666,4.0
2023-12-19 11:51:52.567355,-2.0
2023-12-19 11:51:52.575044,-11.0
2023-12-19 11:51:52.582733,-14.0
2023-12-19 11:51:52.590421,-30.0
2023-12-19 11:51:52.598110,-54.0
2023-12-19 11:51:52.605799,-69.0
2023-12-19 11:51:52.613488,-71.0
2023-12-19 11:51:52.621177,-78.0
2023-12-19 11:51:52.628866,-102.0
2023-12-19 11:51:52.636555,-123.0
2023-12-19 11:51:52.644244,-145.0
2023-12-19 11:51:52.651932,-164.0
2023-12-19 11:51:52.659621,-164.0
2023-12-19 11:51:52.667310,-159.0
2023-12-19 11:51:52.674999,-164.0
2023-12-19 11:51:52.682688,-154.0
2023-12-19 11:51:52.690377,-128.0
2023-12-19 11:51:52.698066,-109.0
2023-12-19 11:51:52.705754,-104.0
2023-12-19 11:51:52.713443,-97.0
2023-12-19 11:51:52.721132,-88.0
2023-12-19 11:51:52.728821,-69.0
2023-12-19 11:51:52.736510,-42.0
2023-12-19 11:51:52.744199,-26.0
2023-12-19 11:51:52.751888,-19.0
2023-12-19 11:51:52.759577,-14.0
2023-12-19 11:51:52.767265,-9.0
2023-12-19 11:51:52.774954,2.0
2023-12-19 11:51:52.782643,2.0
2023-12-19 11:51:52.790332,0.0
2023-12-19 11:51:52.798021,7.0
2023-12-19 11:51:52.805710,14.0
2023-12-19 11:51:52.813399,2.0
2023-12-19 11:51:52.821088,-9.0
2023-12-19 11:51:52.828776,-14.0
2023-12-19 11:51:52.836465,-21.0
2023-12-19 11:51:52.844154,-33.0
2023-12-19 11:51:52.851843,-33.0
2023-12-19 11:51:52.859532,-33.0
2023-12-19 11:51:52.867221,-42.0
2023-12-19 11:51:52.874910,-50.0
2023-12-19 11:51:52.882598,-45.0
2023-12-19 11:51:52.890287,-47.0
2023-12-19 11:51:52.897976,-57.0
2023-12-19 11:51:52.905665,-59.0
2023-12-19 11:51:52.913354,-50.0
2023-12-19 11:51:52.921043,-52.0
2023-12-19 11:51:52.928732,-47.0
2023-12-19 11:51:52.936421,-30.0
2023-12-19 11:51:52.944109,-26.0
2023-12-19 11:51:52.951798,-42.0
2023-12-19 11:51:52.959487,-54.0
2023-12-19 11:51:52.967176,-42.0
2023-12-19 11:51:52.974865,-28.0
2023-12-19 11:51:52.982554,-30.0
2023-12-19 11:51:52.990243,-35.0
2023-12-19 11:51:52.997932,-26.0
2023-12-19 11:51:53.005620,-16.0
2023-12-19 11:51:53.013309,-28.0
2023-12-19 11:51:53.020998,-33.0
2023-12-19 11:51:53.028687,-28.0
2023-12-19 11:51:53.036376,-28.0
2023-12-19 11:51:53.044065,-35.0
2023-12-19 11:51:53.051754,-33.0
2023-12-19 11:51:53.059442,-33.0
2023-12-19 11:51:53.067131,-33.0
2023-12-19 11:51:53.074820,-30.0
2023-12-19 11:51:53.082509,-47.0
2023-12-19 11:51:53.090198,-85.0
2023-12-19 11:51:53.097887,-85.0
2023-12-19 11:51:53.105576,-69.0
2023-12-19 11:51:53.113265,-76.0
2023-12-19 11:51:53.120953,-81.0
2023-12-19 11:51:53.128642,-73.0
2023-12-19 11:51:53.136331,-71.0
2023-12-19 11:51:53.144020,-61.0
2023-12-19 11:51:53.151709,-57.0
2023-12-19 11:51:53.159398,-66.0
2023-12-19 11:51:53.167087,-76.0
2023-12-19 11:51:53.174776,-76.0
2023-12-19 11:51:53.182464,-76.0
2023-12-19 11:51:53.190153,-195.0
2023-12-19 11:51:53.197842,-550.0
2023-12-19 11:51:53.205531,-946.0
2023-12-19 11:51:53.213220,-894.0
2023-12-19 11:51:53.220909,-290.0
2023-12-19 11:51:53.228598,183.0
2023-12-19 11:51:53.236286,121.0
2023-12-19 11:51:53.243975,-21.0
2023-12-19 11:51:53.251664,19.0
2023-12-19 11:51:53.259353,21.0
2023-12-19 11:51:53.267042,-23.0
2023-12-19 11:51:53.274731,0.0
2023-12-19 11:51:53.282420,19.0
2023-12-19 11:51:53.290109,-2.0
2023-12-19 11:51:53.297797,-11.0
2023-12-19 11:51:53.305486,-4.0
2023-12-19 11:51:53.313175,-4.0
2023-12-19 11:51:53.320864,-19.0
2023-12-19 11:51:53.328553,-21.0
2023-12-19 11:51:53.336242,-11.0
2023-12-19 11:51:53.343931,-19.0
2023-12-19 11:51:53.351620,-35.0
2023-12-19 11:51:53.359308,-42.0
2023-12-19 11:51:53.366997,-64.0
2023-12-19 11:51:53.374686,-95.0
2023-12-19 11:51:53.382375,-107.0
2023-12-19 11:51:53.390064,-119.0
2023-12-19 11:51:53.397753,-143.0
2023-12-19 11:51:53.405442,-154.0
2023-12-19 11:51:53.413130,-143.0
2023-12-19 11:51:53.420819,-123.0
2023-12-19 11:51:53.428508,-109.0
2023-12-19 11:51:53.436197,-102.0
2023-12-19 11:51:53.443886,-90.0
2023-12-19 11:51:53.451575,-54.0
2023-12-19 11:51:53.459264,-19.0
2023-12-19 11:51:53.466953,-16.0
2023-12-19 11:51:53.474641,-11.0
2023-12-19 11:51:53.482330,7.0
2023-12-19 11:51:53.490019,19.0
2023-12-19 11:51:53.497708,23.0
2023-12-19 11:51:53.505397,28.0
2023-12-19 11:51:53.513086,35.0
2023-12-19 11:51:53.520775,45.0
2023-12-19 11:51:53.528464,50.0
2023-12-19 11:51:53.536152,35.0
2023-12-19 11:51:53.543841,33.0
2023-12-19 11:51:53.551530,42.0
2023-12-19 11:51:53.559219,40.0
2023-12-19 11:51:53.566908,33.0
2023-12-19 11:51:53.574597,26.0
2023-12-19 11:51:53.582286,7.0
2023-12-19 11:51:53.589974,-2.0
2023-12-19 11:51:53.597663,7.0
2023-12-19 11:51:53.605352,4.0
2023-12-19 11:51:53.613041,-16.0
2023-12-19 11:51:53.620730,-30.0
2023-12-19 11:51:53.628419,-28.0
2023-12-19 11:51:53.636108,-23.0
2023-12-19 11:51:53.643797,-23.0
2023-12-19 11:51:53.651485,-21.0
2023-12-19 11:51:53.659174,-14.0
2023-12-19 11:51:53.666863,-16.0
2023-12-19 11:51:53.674552,-21.0
2023-12-19 11:51:53.682241,-14.0
2023-12-19 11:51:53.689930,-16.0
2023-12-19 11:51:53.697619,-21.0
2023-12-19 11:51:53.705308,-11.0
2023-12-19 11:51:53.712996,-21.0
2023-12-19 11:51:53.720685,-42.0
2023-12-19 11:51:53.728374,-50.0
2023-12-19 11:51:53.736063,-40.0
2023-12-19 11:51:53.743752,-35.0
2023-12-19 11:51:53.751441,-45.0
2023-12-19 11:51:53.759130,-64.0
2023-12-19 11:51:53.766818,-71.0
2023-12-19 11:51:53.774507,-64.0
2023-12-19 11:51:53.782196,-61.0
2023-12-19 11:51:53.789885,-57.0
2023-12-19 11:51:53.797574,-54.0
2023-12-19 11:51:53.805263,-66.0
2023-12-19 11:51:53.812952,-73.0
2023-12-19 11:51:53.820641,-64.0
2023-12-19 11:51:53.828329,-64.0
2023-12-19 11:51:53.836018,-69.0
2023-12-19 11:51:53.843707,-61.0
2023-12-19 11:51:53.851396,-64.0
2023-12-19 11:51:53.859085,-95.0
2023-12-19 11:51:53.866774,-128.0
2023-12-19 11:51:53.874463,-126.0
2023-12-19 11:51:53.882152,-112.0
2023-12-19 11:51:53.889840,-112.0
2023-12-19 11:51:53.897529,-104.0
2023-12-19 11:51:53.905218,-88.0
2023-12-19 11:51:53.912907,-81.0
2023-12-19 11:51:53.920596,-78.0
2023-12-19 11:51:53.928285,-71.0
2023-12-19 11:51:53.935974,-78.0
2023-12-19 11:51:53.943662,-88.0
2023-12-19 11:51:53.951351,-61.0
2023-12-19 11:51:53.959040,-35.0
2023-12-19 11:51:53.966729,-128.0
2023-12-19 11:51:53.974418,-441.0
2023-12-19 11:51:53.982107,-848.0
2023-12-19 11:51:53.989796,-922.0
2023-12-19 11:51:53.997485,-410.0
2023-12-19 11:51:54.005173,138.0
2023-12-19 11:51:54.012862,159.0
2023-12-19 11:51:54.020551,0.0
2023-12-19 11:51:54.028240,35.0
2023-12-19 11:51:54.035929,71.0
2023-12-19 11:51:54.043618,28.0
2023-12-19 11:51:54.051307,26.0
2023-12-19 11:51:54.058996,40.0
2023-12-19 11:51:54.066684,30.0
2023-12-19 11:51:54.074373,19.0
2023-12-19 11:51:54.082062,7.0
2023-12-19 11:51:54.089751,2.0
2023-12-19 11:51:54.097440,4.0
2023-12-19 11:51:54.105129,0.0
2023-12-19 11:51:54.112818,-4.0
2023-12-19 11:51:54.120506,-16.0
2023-12-19 11:51:54.128195,-38.0
2023-12-19 11:51:54.135884,-45.0
2023-12-19 11:51:54.143573,-50.0
2023-12-19 11:51:54.151262,-66.0
2023-12-19 11:51:54.158951,-85.0
2023-12-19 11:51:54.166640,-114.0
2023-12-19 11:51:54.174329,-135.0
2023-12-19 11:51:54.182017,-135.0
2023-12-19 11:51:54.189706,-131.0
2023-12-19 11:51:54.197395,-131.0
2023-12-19 11:51:54.205084,-121.0
2023-12-19 11:51:54.212773,-97.0
2023-12-19 11:51:54.220462,-97.0
2023-12-19 11:51:54.228151,-107.0
2023-12-19 11:51:54.235840,-83.0
2023-12-19 11:51:54.243528,-50.0
2023-12-19 11:51:54.251217,-45.0
2023-12-19 11:51:54.258906,-40.0
2023-12-19 11:51:54.266595,-21.0
2023-12-19 11:51:54.274284,0.0
2023-12-19 11:51:54.281973,11.0
2023-12-19 11:51:54.289662,0.0
2023-12-19 11:51:54.297350,-28.0
2023-12-19 11:51:54.305039,-35.0
2023-12-19 11:51:54.312728,-19.0
2023-12-19 11:51:54.320417,-11.0
2023-12-19 11:51:54.328106,-16.0
2023-12-19 11:51:54.335795,-14.0
2023-12-19 11:51:54.343484,-19.0
2023-12-19 11:51:54.351173,-38.0
2023-12-19 11:51:54.358861,-50.0
2023-12-19 11:51:54.366550,-42.0
2023-12-19 11:51:54.374239,-40.0
2023-12-19 11:51:54.381928,-50.0
2023-12-19 11:51:54.389617,-57.0
2023-12-19 11:51:54.397306,-73.0
2023-12-19 11:51:54.404995,-81.0
2023-12-19 11:51:54.412684,-66.0
2023-12-19 11:51:54.420372,-59.0
2023-12-19 11:51:54.428061,-64.0
2023-12-19 11:51:54.435750,-54.0
2023-12-19 11:51:54.443439,-50.0
2023-12-19 11:51:54.451128,-54.0
2023-12-19 11:51:54.458817,-50.0
2023-12-19 11:51:54.466506,-42.0
2023-12-19 11:51:54.474194,-45.0
2023-12-19 11:51:54.481883,-52.0
2023-12-19 11:51:54.489572,-45.0
2023-12-19 11:51:54.497261,-28.0
2023-12-19 11:51:54.504950,-19.0
2023-12-19 11:51:54.512639,-23.0
2023-12-19 11:51:54.520328,-40.0
2023-12-19 11:51:54.528017,-54.0
2023-12-19 11:51:54.535705,-57.0
2023-12-19 11:51:54.543394,-54.0
2023-12-19 11:51:54.551083,-50.0
2023-12-19 11:51:54.558772,-42.0
2023-12-19 11:51:54.566461,-52.0
2023-12-19 11:51:54.574150,-64.0
2023-12-19 11:51:54.581839,-64.0
2023-12-19 11:51:54.589528,-61.0
2023-12-19 11:51:54.597216,-66.0
2023-12-19 11:51:54.604905,-73.0
2023-12-19 11:51:54.612594,-73.0
2023-12-19 11:51:54.620283,-66.0
2023-12-19 11:51:54.627972,-59.0
2023-12-19 11:51:54.635661,-50.0
2023-12-19 11:51:54.643350,-50.0
2023-12-19 11:51:54.651038,-81.0
2023-12-19 11:51:54.658727,-114.0
2023-12-19 11:51:54.666416,-107.0
2023-12-19 11:51:54.674105,-83.0
2023-12-19 11:51:54.681794,-71.0
2023-12-19 11:51:54.689483,-64.0
2023-12-19 11:51:54.697172,-54.0
2023-12-19 11:51:54.704861,-50.0
2023-12-19 11:51:54.712549,-52.0
2023-12-19 11:51:54.720238,-64.0
2023-12-19 11:51:54.727927,-71.0
2023-12-19 11:51:54.735616,-66.0
2023-12-19 11:51:54.743305,-52.0
2023-12-19 11:51:54.750994,-71.0
2023-12-19 11:51:54.758683,-247.0
2023-12-19 11:51:54.766372,-627.0
2023-12-19 11:51:54.774060,-918.0
2023-12-19 11:51:54.781749,-672.0
2023-12-19 11:51:54.789438,-57.0
2023-12-19 11:51:54.797127,214.0
2023-12-19 11:51:54.804816,61.0
2023-12-19 11:51:54.812505,0.0
2023-12-19 11:51:54.820194,61.0
2023-12-19 11:51:54.827882,45.0
2023-12-19 11:51:54.835571,16.0
2023-12-19 11:51:54.843260,30.0
2023-12-19 11:51:54.850949,26.0
2023-12-19 11:51:54.858638,16.0
2023-12-19 11:51:54.866327,11.0
2023-12-19 11:51:54.874016,0.0
2023-12-19 11:51:54.881705,-26.0
2023-12-19 11:51:54.889393,-42.0
2023-12-19 11:51:54.897082,-35.0
2023-12-19 11:51:54.904771,-30.0
2023-12-19 11:51:54.912460,-40.0
2023-12-19 11:51:54.920149,-54.0
2023-12-19 11:51:54.927838,-78.0
2023-12-19 11:51:54.935527,-95.0
2023-12-19 11:51:54.943216,-97.0
2023-12-19 11:51:54.950904,-112.0
2023-12-19 11:51:54.958593,-135.0
2023-12-19 11:51:54.966282,-147.0
2023-12-19 11:51:54.973971,-147.0
2023-12-19 11:51:54.981660,-147.0
2023-12-19 11:51:54.989349,-138.0
2023-12-19 11:51:54.997038,-123.0
2023-12-19 11:51:55.004726,-116.0
2023-12-19 11:51:55.012415,-97.0
2023-12-19 11:51:55.020104,-64.0
2023-12-19 11:51:55.027793,-45.0
2023-12-19 11:51:55.035482,-30.0
2023-12-19 11:51:55.043171,-14.0
2023-12-19 11:51:55.050860,-9.0
2023-12-19 11:51:55.058549,4.0
2023-12-19 11:51:55.066237,21.0
2023-12-19 11:51:55.073926,28.0
2023-12-19 11:51:55.081615,26.0
2023-12-19 11:51:55.089304,23.0
2023-12-19 11:51:55.096993,11.0
2023-12-19 11:51:55.104682,4.0
2023-12-19 11:51:55.112371,9.0
2023-12-19 11:51:55.120060,11.0
2023-12-19 11:51:55.127748,0.0
2023-12-19 11:51:55.135437,-16.0
2023-12-19 11:51:55.143126,-21.0
2023-12-19 11:51:55.150815,-23.0
2023-12-19 11:51:55.158504,-35.0
2023-12-19 11:51:55.166193,-40.0
2023-12-19 11:51:55.173882,-35.0
2023-12-19 11:51:55.181570,-33.0
2023-12-19 11:51:55.189259,-30.0
2023-12-19 11:51:55.196948,-30.0
2023-12-19 11:51:55.204637,-42.0
2023-12-19 11:51:55.212326,-40.0
2023-12-19 11:51:55.220015,-30.0
2023-12-19 11:51:55.227704,-40.0
2023-12-19 11:51:55.235393,-57.0
2023-12-19 11:51:55.243081,-61.0
2023-12-19 11:51:55.250770,-52.0
2023-12-19 11:51:55.258459,-50.0
2023-12-19 11:51:55.266148,-57.0
2023-12-19 11:51:55.273837,-64.0
2023-12-19 11:51:55.281526,-73.0
2023-12-19 11:51:55.289215,-71.0
2023-12-19 11:51:55.296904,-54.0
2023-12-19 11:51:55.304592,-54.0
2023-12-19 11:51:55.312281,-71.0
2023-12-19 11:51:55.319970,-71.0
2023-12-19 11:51:55.327659,-59.0
2023-12-19 11:51:55.335348,-61.0
2023-12-19 11:51:55.343037,-73.0
2023-12-19 11:51:55.350726,-73.0
2023-12-19 11:51:55.358414,-59.0
2023-12-19 11:51:55.366103,-59.0
2023-12-19 11:51:55.373792,-83.0
2023-12-19 11:51:55.381481,-102.0
2023-12-19 11:51:55.389170,-88.0
2023-12-19 11:51:55.396859,-66.0
2023-12-19 11:51:55.404548,-64.0
2023-12-19 11:51:55.412237,-71.0
2023-12-19 11:51:55.419925,-95.0
2023-12-19 11:51:55.427614,-116.0
2023-12-19 11:51:55.435303,-112.0
2023-12-19 11:51:55.442992,-88.0
2023-12-19 11:51:55.450681,-66.0
2023-12-19 11:51:55.458370,-66.0
2023-12-19 11:51:55.466059,-61.0
2023-12-19 11:51:55.473748,-42.0
2023-12-19 11:51:55.481436,-35.0
2023-12-19 11:51:55.489125,-47.0
2023-12-19 11:51:55.496814,-54.0
2023-12-19 11:51:55.504503,-38.0
2023-12-19 11:51:55.512192,-19.0
2023-12-19 11:51:55.519881,-85.0
2023-12-19 11:51:55.527570,-357.0
2023-12-19 11:51:55.535258,-753.0
2023-12-19 11:51:55.542947,-867.0
2023-12-19 11:51:55.550636,-417.0
2023-12-19 11:51:55.558325,154.0
2023-12-19 11:51:55.566014,250.0
2023-12-19 11:51:55.573703,71.0
2023-12-19 11:51:55.581392,54.0
2023-12-19 11:51:55.589081,83.0
2023-12-19 11:51:55.596769,38.0
2023-12-19 11:51:55.604458,30.0
2023-12-19 11:51:55.612147,52.0
2023-12-19 11:51:55.619836,42.0
2023-12-19 11:51:55.627525,21.0
2023-12-19 11:51:55.635214,23.0
2023-12-19 11:51:55.642903,23.0
2023-12-19 11:51:55.650592,14.0
2023-12-19 11:51:55.658280,21.0
2023-12-19 11:51:55.665969,23.0
2023-12-19 11:51:55.673658,9.0
2023-12-19 11:51:55.681347,0.0
2023-12-19 11:51:55.689036,-11.0
2023-12-19 11:51:55.696725,-33.0
2023-12-19 11:51:55.704414,-47.0
2023-12-19 11:51:55.712102,-59.0
2023-12-19 11:51:55.719791,-73.0
2023-12-19 11:51:55.727480,-95.0
2023-12-19 11:51:55.735169,-121.0
2023-12-19 11:51:55.742858,-131.0
2023-12-19 11:51:55.750547,-116.0
2023-12-19 11:51:55.758236,-100.0
2023-12-19 11:51:55.765925,-97.0
2023-12-19 11:51:55.773613,-81.0
2023-12-19 11:51:55.781302,-52.0
2023-12-19 11:51:55.788991,-40.0
2023-12-19 11:51:55.796680,-21.0
2023-12-19 11:51:55.804369,11.0
2023-12-19 11:51:55.812058,26.0
2023-12-19 11:51:55.819747,16.0
2023-12-19 11:51:55.827436,19.0
2023-12-19 11:51:55.835124,28.0
2023-12-19 11:51:55.842813,28.0
2023-12-19 11:51:55.850502,30.0
2023-12-19 11:51:55.858191,45.0
2023-12-19 11:51:55.865880,57.0
2023-12-19 11:51:55.873569,38.0
2023-12-19 11:51:55.881258,14.0
2023-12-19 11:51:55.888946,9.0
2023-12-19 11:51:55.896635,7.0
2023-12-19 11:51:55.904324,2.0
2023-12-19 11:51:55.912013,-2.0
2023-12-19 11:51:55.919702,-16.0
2023-12-19 11:51:55.927391,-23.0
2023-12-19 11:51:55.935080,-21.0
2023-12-19 11:51:55.942769,-26.0
2023-12-19 11:51:55.950457,-33.0
2023-12-19 11:51:55.958146,-45.0
2023-12-19 11:51:55.965835,-69.0
2023-12-19 11:51:55.973524,-61.0
2023-12-19 11:51:55.981213,-47.0
2023-12-19 11:51:55.988902,-57.0
2023-12-19 11:51:55.996591,-50.0
2023-12-19 11:51:56.004280,-33.0
2023-12-19 11:51:56.011968,-47.0
2023-12-19 11:51:56.019657,-66.0
2023-12-19 11:51:56.027346,-52.0
2023-12-19 11:51:56.035035,-40.0
2023-12-19 11:51:56.042724,-57.0
2023-12-19 11:51:56.050413,-57.0
2023-12-19 11:51:56.058102,-57.0
2023-12-19 11:51:56.065790,-66.0
2023-12-19 11:51:56.073479,-57.0
2023-12-19 11:51:56.081168,-57.0
2023-12-19 11:51:56.088857,-71.0
2023-12-19 11:51:56.096546,-76.0
2023-12-19 11:51:56.104235,-81.0
2023-12-19 11:51:56.111924,-78.0
2023-12-19 11:51:56.119613,-59.0
2023-12-19 11:51:56.127301,-54.0
2023-12-19 11:51:56.134990,-61.0
2023-12-19 11:51:56.142679,-54.0
2023-12-19 11:51:56.150368,-52.0
2023-12-19 11:51:56.158057,-54.0
2023-12-19 11:51:56.165746,-45.0
2023-12-19 11:51:56.173435,-38.0
2023-12-19 11:51:56.181124,-38.0
2023-12-19 11:51:56.188812,-40.0
2023-12-19 11:51:56.196501,-66.0
2023-12-19 11:51:56.204190,-90.0
2023-12-19 11:51:56.211879,-81.0
2023-12-19 11:51:56.219568,-50.0
2023-12-19 11:51:56.227257,-35.0
2023-12-19 11:51:56.234946,-40.0
2023-12-19 11:51:56.242634,-52.0
2023-12-19 11:51:56.250323,-59.0
2023-12-19 11:51:56.258012,-57.0
2023-12-19 11:51:56.265701,-50.0
2023-12-19 11:51:56.273390,-45.0
2023-12-19 11:51:56.281079,-33.0
2023-12-19 11:51:56.288768,-26.0
2023-12-19 11:51:56.296457,-131.0
2023-12-19 11:51:56.304145,-448.0
2023-12-19 11:51:56.311834,-825.0
2023-12-19 11:51:56.319523,-832.0
2023-12-19 11:51:56.327212,-307.0
2023-12-19 11:51:56.334901,181.0
2023-12-19 11:51:56.342590,169.0
2023-12-19 11:51:56.350279,26.0
2023-12-19 11:51:56.357968,69.0
2023-12-19 11:51:56.365656,95.0
2023-12-19 11:51:56.373345,52.0
2023-12-19 11:51:56.381034,47.0
2023-12-19 11:51:56.388723,52.0
2023-12-19 11:51:56.396412,45.0
2023-12-19 11:51:56.404101,45.0
2023-12-19 11:51:56.411790,38.0
2023-12-19 11:51:56.419478,33.0
2023-12-19 11:51:56.427167,45.0
2023-12-19 11:51:56.434856,40.0
2023-12-19 11:51:56.442545,21.0
2023-12-19 11:51:56.450234,11.0
2023-12-19 11:51:56.457923,4.0
2023-12-19 11:51:56.465612,4.0
2023-12-19 11:51:56.473301,-4.0
2023-12-19 11:51:56.480989,-30.0
2023-12-19 11:51:56.488678,-47.0
2023-12-19 11:51:56.496367,-69.0
2023-12-19 11:51:56.504056,-92.0
2023-12-19 11:51:56.511745,-95.0
2023-12-19 11:51:56.519434,-95.0
2023-12-19 11:51:56.527123,-90.0
2023-12-19 11:51:56.534812,-66.0
2023-12-19 11:51:56.542500,-57.0
2023-12-19 11:51:56.550189,-76.0
2023-12-19 11:51:56.557878,-71.0
2023-12-19 11:51:56.565567,-40.0
2023-12-19 11:51:56.573256,-28.0
2023-12-19 11:51:56.580945,-23.0
2023-12-19 11:51:56.588634,-2.0
2023-12-19 11:51:56.596322,26.0
2023-12-19 11:51:56.604011,28.0
2023-12-19 11:51:56.611700,16.0
2023-12-19 11:51:56.619389,26.0
2023-12-19 11:51:56.627078,45.0
2023-12-19 11:51:56.634767,35.0
2023-12-19 11:51:56.642456,26.0
2023-12-19 11:51:56.650145,40.0
2023-12-19 11:51:56.657833,40.0
2023-12-19 11:51:56.665522,26.0
2023-12-19 11:51:56.673211,26.0
2023-12-19 11:51:56.680900,19.0
2023-12-19 11:51:56.688589,-4.0
2023-12-19 11:51:56.696278,0.0
2023-12-19 11:51:56.703967,9.0
2023-12-19 11:51:56.711656,-7.0
2023-12-19 11:51:56.719344,-14.0
2023-12-19 11:51:56.727033,-11.0
2023-12-19 11:51:56.734722,-14.0
2023-12-19 11:51:56.742411,-16.0
2023-12-19 11:51:56.750100,-30.0
2023-12-19 11:51:56.757789,-26.0
2023-12-19 11:51:56.765478,30.0
2023-12-19 11:51:56.773166,57.0
2023-12-19 11:51:56.780855,26.0
2023-12-19 11:51:56.788544,35.0
2023-12-19 11:51:56.796233,69.0
2023-12-19 11:51:56.803922,16.0
2023-12-19 11:51:56.811611,-69.0
2023-12-19 11:51:56.819300,-78.0
2023-12-19 11:51:56.826989,-47.0
2023-12-19 11:51:56.834677,-38.0
2023-12-19 11:51:56.842366,-26.0
2023-12-19 11:51:56.850055,4.0
2023-12-19 11:51:56.857744,26.0
2023-12-19 11:51:56.865433,11.0
2023-12-19 11:51:56.873122,-9.0
2023-12-19 11:51:56.880811,-14.0
2023-12-19 11:51:56.888500,-35.0
2023-12-19 11:51:56.896188,-64.0
2023-12-19 11:51:56.903877,-16.0
2023-12-19 11:51:56.911566,42.0
2023-12-19 11:51:56.919255,2.0
2023-12-19 11:51:56.926944,-45.0
2023-12-19 11:51:56.934633,-9.0
2023-12-19 11:51:56.942322,16.0
2023-12-19 11:51:56.950010,-2.0
2023-12-19 11:51:56.957699,-26.0
2023-12-19 11:51:56.965388,-54.0
2023-12-19 11:51:56.973077,-69.0
2023-12-19 11:51:56.980766,-57.0
2023-12-19 11:51:56.988455,-35.0
2023-12-19 11:51:56.996144,-26.0
2023-12-19 11:51:57.003833,-28.0
2023-12-19 11:51:57.011521,-23.0
2023-12-19 11:51:57.019210,-14.0
2023-12-19 11:51:57.026899,-16.0
2023-12-19 11:51:57.034588,-23.0
2023-12-19 11:51:57.042277,-23.0
2023-12-19 11:51:57.049966,-4.0
2023-12-19 11:51:57.057655,9.0
2023-12-19 11:51:57.065344,-78.0
2023-12-19 11:51:57.073032,-367.0
2023-12-19 11:51:57.080721,-779.0
2023-12-19 11:51:57.088410,-915.0
2023-12-19 11:51:57.096099,-450.0
2023-12-19 11:51:57.103788,143.0
2023-12-19 11:51:57.111477,214.0
2023-12-19 11:51:57.119166,26.0
2023-12-19 11:51:57.126854,33.0
2023-12-19 11:51:57.134543,66.0
2023-12-19 11:51:57.142232,4.0
2023-12-19 11:51:57.149921,7.0
2023-12-19 11:51:57.157610,45.0
2023-12-19 11:51:57.165299,35.0
2023-12-19 11:51:57.172988,14.0
2023-12-19 11:51:57.180677,2.0
2023-12-19 11:51:57.188365,4.0
2023-12-19 11:51:57.196054,11.0
2023-12-19 11:51:57.203743,7.0
2023-12-19 11:51:57.211432,-4.0
2023-12-19 11:51:57.219121,-4.0
2023-12-19 11:51:57.226810,-14.0
2023-12-19 11:51:57.234499,-35.0
2023-12-19 11:51:57.242188,-42.0
2023-12-19 11:51:57.249876,-52.0
2023-12-19 11:51:57.257565,-97.0
2023-12-19 11:51:57.265254,-133.0
2023-12-19 11:51:57.272943,-131.0
2023-12-19 11:51:57.280632,-135.0
2023-12-19 11:51:57.288321,-157.0
2023-12-19 11:51:57.296010,-145.0
2023-12-19 11:51:57.303698,-126.0
2023-12-19 11:51:57.311387,-135.0
2023-12-19 11:51:57.319076,-128.0
2023-12-19 11:51:57.326765,-85.0
2023-12-19 11:51:57.334454,-57.0
2023-12-19 11:51:57.342143,-50.0
2023-12-19 11:51:57.349832,-40.0
2023-12-19 11:51:57.357521,-16.0
2023-12-19 11:51:57.365209,0.0
2023-12-19 11:51:57.372898,2.0
2023-12-19 11:51:57.380587,9.0
2023-12-19 11:51:57.388276,21.0
2023-12-19 11:51:57.395965,21.0
2023-12-19 11:51:57.403654,11.0
2023-12-19 11:51:57.411343,4.0
2023-12-19 11:51:57.419032,-4.0
2023-12-19 11:51:57.426720,-11.0
2023-12-19 11:51:57.434409,-14.0
2023-12-19 11:51:57.442098,-19.0
2023-12-19 11:51:57.449787,-35.0
2023-12-19 11:51:57.457476,-54.0
2023-12-19 11:51:57.465165,-52.0
2023-12-19 11:51:57.472854,-45.0
2023-12-19 11:51:57.480542,-50.0
2023-12-19 11:51:57.488231,-66.0
2023-12-19 11:51:57.495920,-73.0
2023-12-19 11:51:57.503609,-71.0
2023-12-19 11:51:57.511298,-69.0
2023-12-19 11:51:57.518987,-71.0
2023-12-19 11:51:57.526676,-64.0
2023-12-19 11:51:57.534365,-64.0
2023-12-19 11:51:57.542053,-81.0
2023-12-19 11:51:57.549742,-88.0
2023-12-19 11:51:57.557431,-85.0
2023-12-19 11:51:57.565120,-88.0
2023-12-19 11:51:57.572809,-85.0
2023-12-19 11:51:57.580498,-85.0
2023-12-19 11:51:57.588187,-90.0
2023-12-19 11:51:57.595876,-95.0
2023-12-19 11:51:57.603564,-102.0
2023-12-19 11:51:57.611253,-95.0
2023-12-19 11:51:57.618942,-83.0
2023-12-19 11:51:57.626631,-90.0
2023-12-19 11:51:57.634320,-92.0
2023-12-19 11:51:57.642009,-88.0
2023-12-19 11:51:57.649698,-88.0
2023-12-19 11:51:57.657386,-83.0
2023-12-19 11:51:57.665075,-85.0
2023-12-19 11:51:57.672764,-100.0
2023-12-19 11:51:57.680453,-109.0
2023-12-19 11:51:57.688142,-107.0
2023-12-19 11:51:57.695831,-112.0
2023-12-19 11:51:57.703520,-114.0
2023-12-19 11:51:57.711209,-121.0
2023-12-19 11:51:57.718897,-138.0
2023-12-19 11:51:57.726586,-140.0
2023-12-19 11:51:57.734275,-119.0
2023-12-19 11:51:57.741964,-95.0
2023-12-19 11:51:57.749653,-90.0
2023-12-19 11:51:57.757342,-104.0
2023-12-19 11:51:57.765031,-123.0
2023-12-19 11:51:57.772720,-116.0
2023-12-19 11:51:57.780408,-95.0
2023-12-19 11:51:57.788097,-88.0
2023-12-19 11:51:57.795786,-88.0
2023-12-19 11:51:57.803475,-83.0
2023-12-19 11:51:57.811164,-131.0
2023-12-19 11:51:57.818853,-355.0
2023-12-19 11:51:57.826542,-772.0
2023-12-19 11:51:57.834230,-1032.0
2023-12-19 11:51:57.841919,-703.0
2023-12-19 11:51:57.849608,-19.0
2023-12-19 11:51:57.857297,259.0
2023-12-19 11:51:57.864986,69.0
2023-12-19 11:51:57.872675,-16.0
2023-12-19 11:51:57.880364,40.0
2023-12-19 11:51:57.888053,11.0
2023-12-19 11:51:57.895741,-16.0
2023-12-19 11:51:57.903430,7.0
2023-12-19 11:51:57.911119,4.0
2023-12-19 11:51:57.918808,-14.0
2023-12-19 11:51:57.926497,-11.0
2023-12-19 11:51:57.934186,-11.0
2023-12-19 11:51:57.941875,-21.0
2023-12-19 11:51:57.949564,-28.0
2023-12-19 11:51:57.957252,-26.0
2023-12-19 11:51:57.964941,-33.0
2023-12-19 11:51:57.972630,-40.0
2023-12-19 11:51:57.980319,-45.0
2023-12-19 11:51:57.988008,-57.0
2023-12-19 11:51:57.995697,-88.0
2023-12-19 11:51:58.003386,-119.0
2023-12-19 11:51:58.011074,-133.0
2023-12-19 11:51:58.018763,-150.0
2023-12-19 11:51:58.026452,-169.0
2023-12-19 11:51:58.034141,-174.0
2023-12-19 11:51:58.041830,-181.0
2023-12-19 11:51:58.049519,-176.0
2023-12-19 11:51:58.057208,-152.0
2023-12-19 11:51:58.064897,-126.0
2023-12-19 11:51:58.072585,-100.0
2023-12-19 11:51:58.080274,-81.0
2023-12-19 11:51:58.087963,-73.0
2023-12-19 11:51:58.095652,-57.0
2023-12-19 11:51:58.103341,-28.0
2023-12-19 11:51:58.111030,-4.0
2023-12-19 11:51:58.118719,2.0
2023-12-19 11:51:58.126408,-2.0
2023-12-19 11:51:58.134096,-2.0
2023-12-19 11:51:58.141785,11.0
2023-12-19 11:51:58.149474,23.0
2023-12-19 11:51:58.157163,21.0
2023-12-19 11:51:58.164852,23.0
2023-12-19 11:51:58.172541,30.0
2023-12-19 11:51:58.180230,19.0
2023-12-19 11:51:58.187918,0.0
2023-12-19 11:51:58.195607,-11.0
2023-12-19 11:51:58.203296,-28.0
2023-12-19 11:51:58.210985,-57.0
2023-12-19 11:51:58.218674,-78.0
2023-12-19 11:51:58.226363,-85.0
2023-12-19 11:51:58.234052,-95.0
2023-12-19 11:51:58.241741,-97.0
2023-12-19 11:51:58.249429,-85.0
2023-12-19 11:51:58.257118,-85.0
2023-12-19 11:51:58.264807,-104.0
2023-12-19 11:51:58.272496,-123.0
2023-12-19 11:51:58.280185,-119.0
2023-12-19 11:51:58.287874,-107.0
2023-12-19 11:51:58.295563,-123.0
2023-12-19 11:51:58.303252,-135.0
2023-12-19 11:51:58.310940,-119.0
2023-12-19 11:51:58.318629,-114.0
2023-12-19 11:51:58.326318,-119.0
2023-12-19 11:51:58.334007,-121.0
2023-12-19 11:51:58.341696,-121.0
2023-12-19 11:51:58.349385,-116.0
2023-12-19 11:51:58.357074,-112.0
2023-12-19 11:51:58.364762,-123.0
2023-12-19 11:51:58.372451,-135.0
2023-12-19 11:51:58.380140,-123.0
2023-12-19 11:51:58.387829,-102.0
2023-12-19 11:51:58.395518,-95.0
2023-12-19 11:51:58.403207,-95.0
2023-12-19 11:51:58.410896,-90.0
2023-12-19 11:51:58.418585,-88.0
2023-12-19 11:51:58.426273,-102.0
2023-12-19 11:51:58.433962,-119.0
2023-12-19 11:51:58.441651,-123.0
2023-12-19 11:51:58.449340,-126.0
2023-12-19 11:51:58.457029,-121.0
2023-12-19 11:51:58.464718,-97.0
2023-12-19 11:51:58.472407,-83.0
2023-12-19 11:51:58.480096,-92.0
2023-12-19 11:51:58.487784,-85.0
2023-12-19 11:51:58.495473,-69.0
2023-12-19 11:51:58.503162,-69.0
2023-12-19 11:51:58.510851,-71.0
2023-12-19 11:51:58.518540,-52.0
2023-12-19 11:51:58.526229,-78.0
2023-12-19 11:51:58.533918,-305.0
2023-12-19 11:51:58.541606,-743.0
2023-12-19 11:51:58.549295,-1063.0
2023-12-19 11:51:58.556984,-791.0
2023-12-19 11:51:58.564673,-81.0
2023-12-19 11:51:58.572362,259.0
2023-12-19 11:51:58.580051,81.0
2023-12-19 11:51:58.587740,-14.0
2023-12-19 11:51:58.595429,61.0
2023-12-19 11:51:58.603117,42.0
2023-12-19 11:51:58.610806,-7.0
2023-12-19 11:51:58.618495,11.0
2023-12-19 11:51:58.626184,30.0
2023-12-19 11:51:58.633873,23.0
2023-12-19 11:51:58.641562,4.0
2023-12-19 11:51:58.649251,-4.0
2023-12-19 11:51:58.656940,-4.0
2023-12-19 11:51:58.664628,-9.0
2023-12-19 11:51:58.672317,-14.0
2023-12-19 11:51:58.680006,-16.0
2023-12-19 11:51:58.687695,-23.0
2023-12-19 11:51:58.695384,-40.0
2023-12-19 11:51:58.703073,-57.0
2023-12-19 11:51:58.710762,-71.0
2023-12-19 11:51:58.718450,-92.0
2023-12-19 11:51:58.726139,-126.0
2023-12-19 11:51:58.733828,-154.0
2023-12-19 11:51:58.741517,-166.0
2023-12-19 11:51:58.749206,-183.0
2023-12-19 11:51:58.756895,-202.0
2023-12-19 11:51:58.764584,-190.0
2023-12-19 11:51:58.772273,-174.0
2023-12-19 11:51:58.779961,-171.0
2023-12-19 11:51:58.787650,-164.0
2023-12-19 11:51:58.795339,-147.0
2023-12-19 11:51:58.803028,-112.0
2023-12-19 11:51:58.810717,-71.0
2023-12-19 11:51:58.818406,-52.0
2023-12-19 11:51:58.826095,-45.0
2023-12-19 11:51:58.833784,-28.0
2023-12-19 11:51:58.841472,-19.0
2023-12-19 11:51:58.849161,-11.0
2023-12-19 11:51:58.856850,-9.0
2023-12-19 11:51:58.864539,-14.0
2023-12-19 11:51:58.872228,-9.0
2023-12-19 11:51:58.879917,4.0
2023-12-19 11:51:58.887606,2.0
2023-12-19 11:51:58.895294,4.0
2023-12-19 11:51:58.902983,14.0
2023-12-19 11:51:58.910672,2.0
2023-12-19 11:51:58.918361,-4.0
2023-12-19 11:51:58.926050,0.0
2023-12-19 11:51:58.933739,-14.0
2023-12-19 11:51:58.941428,-38.0
2023-12-19 11:51:58.949117,-45.0
2023-12-19 11:51:58.956805,-40.0
2023-12-19 11:51:58.964494,-42.0
2023-12-19 11:51:58.972183,-54.0
2023-12-19 11:51:58.979872,-64.0
2023-12-19 11:51:58.987561,-59.0
2023-12-19 11:51:58.995250,-47.0
2023-12-19 11:51:59.002939,-42.0
2023-12-19 11:51:59.010628,-40.0
2023-12-19 11:51:59.018316,-40.0
2023-12-19 11:51:59.026005,-45.0
2023-12-19 11:51:59.033694,-54.0
2023-12-19 11:51:59.041383,-59.0
2023-12-19 11:51:59.049072,-52.0
2023-12-19 11:51:59.056761,-47.0
2023-12-19 11:51:59.064450,-57.0
2023-12-19 11:51:59.072138,-57.0
2023-12-19 11:51:59.079827,-35.0
2023-12-19 11:51:59.087516,-23.0
2023-12-19 11:51:59.095205,-30.0
2023-12-19 11:51:59.102894,-45.0
2023-12-19 11:51:59.110583,-54.0
2023-12-19 11:51:59.118272,-57.0
2023-12-19 11:51:59.125961,-59.0
2023-12-19 11:51:59.133649,-61.0
2023-12-19 11:51:59.141338,-52.0
2023-12-19 11:51:59.149027,-38.0
2023-12-19 11:51:59.156716,-42.0
2023-12-19 11:51:59.164405,-66.0
2023-12-19 11:51:59.172094,-73.0
2023-12-19 11:51:59.179783,-69.0
2023-12-19 11:51:59.187472,-85.0
2023-12-19 11:51:59.195160,-88.0
2023-12-19 11:51:59.202849,-61.0
2023-12-19 11:51:59.210538,-47.0
2023-12-19 11:51:59.218227,-47.0
2023-12-19 11:51:59.225916,-35.0
2023-12-19 11:51:59.233605,-30.0
2023-12-19 11:51:59.241294,-42.0
2023-12-19 11:51:59.248982,-38.0
2023-12-19 11:51:59.256671,-23.0
2023-12-19 11:51:59.264360,-23.0
2023-12-19 11:51:59.272049,-140.0
2023-12-19 11:51:59.279738,-503.0
2023-12-19 11:51:59.287427,-996.0
2023-12-19 11:51:59.295116,-1061.0
2023-12-19 11:51:59.302805,-419.0
2023-12-19 11:51:59.310493,195.0
2023-12-19 11:51:59.318182,162.0
2023-12-19 11:51:59.325871,-30.0
2023-12-19 11:51:59.333560,28.0
2023-12-19 11:51:59.341249,50.0
2023-12-19 11:51:59.348938,-16.0
2023-12-19 11:51:59.356627,4.0
2023-12-19 11:51:59.364316,35.0
2023-12-19 11:51:59.372004,14.0
2023-12-19 11:51:59.379693,9.0
2023-12-19 11:51:59.387382,9.0
2023-12-19 11:51:59.395071,-4.0
2023-12-19 11:51:59.402760,-2.0
2023-12-19 11:51:59.410449,-2.0
2023-12-19 11:51:59.418138,-14.0
2023-12-19 11:51:59.425826,-23.0
2023-12-19 11:51:59.433515,-28.0
2023-12-19 11:51:59.441204,-30.0
2023-12-19 11:51:59.448893,-38.0
2023-12-19 11:51:59.456582,-59.0
2023-12-19 11:51:59.464271,-92.0
2023-12-19 11:51:59.471960,-114.0
2023-12-19 11:51:59.479649,-135.0
2023-12-19 11:51:59.487337,-152.0
2023-12-19 11:51:59.495026,-150.0
2023-12-19 11:51:59.502715,-133.0
2023-12-19 11:51:59.510404,-114.0
2023-12-19 11:51:59.518093,-97.0
2023-12-19 11:51:59.525782,-83.0
2023-12-19 11:51:59.533471,-59.0
2023-12-19 11:51:59.541160,-33.0
2023-12-19 11:51:59.548848,-4.0
2023-12-19 11:51:59.556537,16.0
2023-12-19 11:51:59.564226,23.0
2023-12-19 11:51:59.571915,35.0
2023-12-19 11:51:59.579604,54.0
2023-12-19 11:51:59.587293,64.0
2023-12-19 11:51:59.594982,66.0
2023-12-19 11:51:59.602670,66.0
2023-12-19 11:51:59.610359,66.0
2023-12-19 11:51:59.618048,66.0
2023-12-19 11:51:59.625737,66.0
2023-12-19 11:51:59.633426,66.0
2023-12-19 11:51:59.641115,71.0
2023-12-19 11:51:59.648804,69.0
2023-12-19 11:51:59.656493,59.0
2023-12-19 11:51:59.664181,54.0
2023-12-19 11:51:59.671870,54.0
2023-12-19 11:51:59.679559,45.0
2023-12-19 11:51:59.687248,28.0
2023-12-19 11:51:59.694937,26.0
2023-12-19 11:51:59.702626,23.0
2023-12-19 11:51:59.710315,19.0
2023-12-19 11:51:59.718004,14.0
2023-12-19 11:51:59.725692,11.0
2023-12-19 11:51:59.733381,11.0
2023-12-19 11:51:59.741070,4.0
2023-12-19 11:51:59.748759,0.0
2023-12-19 11:51:59.756448,0.0
2023-12-19 11:51:59.764137,0.0
2023-12-19 11:51:59.771826,2.0
2023-12-19 11:51:59.779514,2.0
2023-12-19 11:51:59.787203,-14.0
2023-12-19 11:51:59.794892,-30.0
2023-12-19 11:51:59.802581,-28.0
2023-12-19 11:51:59.810270,-19.0
2023-12-19 11:51:59.817959,-16.0
2023-12-19 11:51:59.825648,-16.0
2023-12-19 11:51:59.833337,-19.0
2023-12-19 11:51:59.841025,-19.0
2023-12-19 11:51:59.848714,-11.0
2023-12-19 11:51:59.856403,-4.0
2023-12-19 11:51:59.864092,-4.0
2023-12-19 11:51:59.871781,-14.0
2023-12-19 11:51:59.879470,-23.0
2023-12-19 11:51:59.887159,-33.0
2023-12-19 11:51:59.894848,-35.0
2023-12-19 11:51:59.902536,-28.0
2023-12-19 11:51:59.910225,-11.0
2023-12-19 11:51:59.917914,-21.0
2023-12-19 11:51:59.925603,-66.0
2023-12-19 11:51:59.933292,-102.0
2023-12-19 11:51:59.940981,-102.0
2023-12-19 11:51:59.948670,-88.0
2023-12-19 11:51:59.956358,-71.0
2023-12-19 11:51:59.964047,-59.0
2023-12-19 11:51:59.971736,-57.0
2023-12-19 11:51:59.979425,-59.0
2023-12-19 11:51:59.987114,-64.0
2023-12-19 11:51:59.994803,-52.0
2023-12-19 11:52:00.002492,-38.0
2023-12-19 11:52:00.010181,-42.0
2023-12-19 11:52:00.017869,-42.0
2023-12-19 11:52:00.025558,-21.0
2023-12-19 11:52:00.033247,-71.0
2023-12-19 11:52:00.040936,-329.0
2023-12-19 11:52:00.048625,-767.0
2023-12-19 11:52:00.056314,-1003.0
2023-12-19 11:52:00.064003,-603.0
2023-12-19 11:52:00.071692,81.0
2023-12-19 11:52:00.079380,250.0
2023-12-19 11:52:00.087069,42.0
2023-12-19 11:52:00.094758,45.0
2023-12-19 11:52:00.102447,123.0
2023-12-19 11:52:00.110136,69.0
2023-12-19 11:52:00.117825,45.0
2023-12-19 11:52:00.125514,73.0
2023-12-19 11:52:00.133202,64.0
2023-12-19 11:52:00.140891,45.0
2023-12-19 11:52:00.148580,45.0
2023-12-19 11:52:00.156269,40.0
2023-12-19 11:52:00.163958,35.0
2023-12-19 11:52:00.171647,38.0
2023-12-19 11:52:00.179336,30.0
2023-12-19 11:52:00.187025,23.0
2023-12-19 11:52:00.194713,23.0
2023-12-19 11:52:00.202402,11.0
2023-12-19 11:52:00.210091,-11.0
2023-12-19 11:52:00.217780,-28.0
2023-12-19 11:52:00.225469,-33.0
2023-12-19 11:52:00.233158,-59.0
2023-12-19 11:52:00.240847,-97.0
2023-12-19 11:52:00.248536,-102.0
2023-12-19 11:52:00.256224,-102.0
2023-12-19 11:52:00.263913,-121.0
2023-12-19 11:52:00.271602,-121.0
2023-12-19 11:52:00.279291,-102.0
2023-12-19 11:52:00.286980,-83.0
2023-12-19 11:52:00.294669,-61.0
2023-12-19 11:52:00.302358,-47.0
2023-12-19 11:52:00.310046,-33.0
2023-12-19 11:52:00.317735,-4.0
2023-12-19 11:52:00.325424,16.0
2023-12-19 11:52:00.333113,26.0
2023-12-19 11:52:00.340802,35.0
2023-12-19 11:52:00.348491,42.0
2023-12-19 11:52:00.356180,45.0
2023-12-19 11:52:00.363869,52.0
2023-12-19 11:52:00.371557,54.0
2023-12-19 11:52:00.379246,50.0
2023-12-19 11:52:00.386935,54.0
2023-12-19 11:52:00.394624,57.0
2023-12-19 11:52:00.402313,57.0
2023-12-19 11:52:00.410002,64.0
2023-12-19 11:52:00.417691,64.0
2023-12-19 11:52:00.425380,50.0
2023-12-19 11:52:00.433068,47.0
2023-12-19 11:52:00.440757,57.0
2023-12-19 11:52:00.448446,45.0
2023-12-19 11:52:00.456135,23.0
2023-12-19 11:52:00.463824,2.0
2023-12-19 11:52:00.471513,-9.0
2023-12-19 11:52:00.479202,0.0
2023-12-19 11:52:00.486890,2.0
2023-12-19 11:52:00.494579,-4.0
2023-12-19 11:52:00.502268,-4.0
2023-12-19 11:52:00.509957,-11.0
2023-12-19 11:52:00.517646,-23.0
2023-12-19 11:52:00.525335,-14.0
2023-12-19 11:52:00.533024,-4.0
2023-12-19 11:52:00.540713,-7.0
2023-12-19 11:52:00.548401,-11.0
2023-12-19 11:52:00.556090,-14.0
2023-12-19 11:52:00.563779,-9.0
2023-12-19 11:52:00.571468,2.0
2023-12-19 11:52:00.579157,-4.0
2023-12-19 11:52:00.586846,-14.0
2023-12-19 11:52:00.594535,-7.0
2023-12-19 11:52:00.602224,0.0
2023-12-19 11:52:00.609912,-2.0
2023-12-19 11:52:00.617601,2.0
2023-12-19 11:52:00.625290,9.0
2023-12-19 11:52:00.632979,4.0
2023-12-19 11:52:00.640668,-4.0
2023-12-19 11:52:00.648357,-9.0
2023-12-19 11:52:00.656046,-11.0
2023-12-19 11:52:00.663734,-19.0
2023-12-19 11:52:00.671423,-23.0
2023-12-19 11:52:00.679112,-28.0
2023-12-19 11:52:00.686801,-30.0
2023-12-19 11:52:00.694490,-33.0
2023-12-19 11:52:00.702179,-28.0
2023-12-19 11:52:00.709868,-16.0
2023-12-19 11:52:00.717557,-19.0
2023-12-19 11:52:00.725245,-26.0
2023-12-19 11:52:00.732934,-33.0
2023-12-19 11:52:00.740623,-50.0
2023-12-19 11:52:00.748312,-71.0
2023-12-19 11:52:00.756001,-78.0
2023-12-19 11:52:00.763690,-78.0
2023-12-19 11:52:00.771379,-71.0
2023-12-19 11:52:00.779068,-52.0
2023-12-19 11:52:00.786756,-40.0
2023-12-19 11:52:00.794445,-52.0
2023-12-19 11:52:00.802134,-71.0
2023-12-19 11:52:00.809823,-76.0
2023-12-19 11:52:00.817512,-73.0
2023-12-19 11:52:00.825201,-66.0
2023-12-19 11:52:00.832890,-45.0
2023-12-19 11:52:00.840578,-64.0
2023-12-19 11:52:00.848267,-276.0
2023-12-19 11:52:00.855956,-693.0
2023-12-19 11:52:00.863645,-991.0
2023-12-19 11:52:00.871334,-722.0
2023-12-19 11:52:00.879023,-45.0
2023-12-19 11:52:00.886712,269.0
2023-12-19 11:52:00.894401,95.0
2023-12-19 11:52:00.902089,4.0
2023-12-19 11:52:00.909778,73.0
2023-12-19 11:52:00.917467,59.0
2023-12-19 11:52:00.925156,26.0
2023-12-19 11:52:00.932845,40.0
2023-12-19 11:52:00.940534,38.0
2023-12-19 11:52:00.948223,26.0
2023-12-19 11:52:00.955912,28.0
2023-12-19 11:52:00.963600,19.0
2023-12-19 11:52:00.971289,2.0
2023-12-19 11:52:00.978978,-2.0
2023-12-19 11:52:00.986667,2.0
2023-12-19 11:52:00.994356,0.0
2023-12-19 11:52:01.002045,-26.0
2023-12-19 11:52:01.009734,-47.0
2023-12-19 11:52:01.017422,-47.0
2023-12-19 11:52:01.025111,-59.0
2023-12-19 11:52:01.032800,-85.0
2023-12-19 11:52:01.040489,-114.0
2023-12-19 11:52:01.048178,-159.0
2023-12-19 11:52:01.055867,-202.0
2023-12-19 11:52:01.063556,-207.0
2023-12-19 11:52:01.071245,-190.0
2023-12-19 11:52:01.078933,-181.0
2023-12-19 11:52:01.086622,-164.0
2023-12-19 11:52:01.094311,-147.0
2023-12-19 11:52:01.102000,-138.0
2023-12-19 11:52:01.109689,-104.0
2023-12-19 11:52:01.117378,-66.0
2023-12-19 11:52:01.125067,-45.0
2023-12-19 11:52:01.132756,-30.0
2023-12-19 11:52:01.140444,-16.0
2023-12-19 11:52:01.148133,-7.0
2023-12-19 11:52:01.155822,2.0
2023-12-19 11:52:01.163511,11.0
2023-12-19 11:52:01.171200,21.0
2023-12-19 11:52:01.178889,28.0
2023-12-19 11:52:01.186578,19.0
2023-12-19 11:52:01.194266,16.0
2023-12-19 11:52:01.201955,33.0
2023-12-19 11:52:01.209644,42.0
2023-12-19 11:52:01.217333,26.0
2023-12-19 11:52:01.225022,11.0
2023-12-19 11:52:01.232711,14.0
2023-12-19 11:52:01.240400,11.0
2023-12-19 11:52:01.248089,2.0
2023-12-19 11:52:01.255777,-7.0
2023-12-19 11:52:01.263466,-19.0
2023-12-19 11:52:01.271155,-26.0
2023-12-19 11:52:01.278844,-30.0
2023-12-19 11:52:01.286533,-45.0
2023-12-19 11:52:01.294222,-52.0
2023-12-19 11:52:01.301911,-61.0
2023-12-19 11:52:01.309600,-76.0
2023-12-19 11:52:01.317288,-71.0
2023-12-19 11:52:01.324977,-69.0
2023-12-19 11:52:01.332666,-71.0
2023-12-19 11:52:01.340355,-59.0
2023-12-19 11:52:01.348044,-50.0
2023-12-19 11:52:01.355733,-47.0
2023-12-19 11:52:01.363422,-54.0
2023-12-19 11:52:01.371110,-61.0
2023-12-19 11:52:01.378799,-54.0
2023-12-19 11:52:01.386488,-42.0
2023-12-19 11:52:01.394177,-30.0
2023-12-19 11:52:01.401866,-35.0
2023-12-19 11:52:01.409555,-54.0
2023-12-19 11:52:01.417244,-59.0
2023-12-19 11:52:01.424933,-47.0
2023-12-19 11:52:01.432621,-40.0
2023-12-19 11:52:01.440310,-47.0
2023-12-19 11:52:01.447999,-61.0
2023-12-19 11:52:01.455688,-73.0
2023-12-19 11:52:01.463377,-76.0
2023-12-19 11:52:01.471066,-69.0
2023-12-19 11:52:01.478755,-66.0
2023-12-19 11:52:01.486444,-64.0
2023-12-19 11:52:01.494132,-61.0
2023-12-19 11:52:01.501821,-61.0
2023-12-19 11:52:01.509510,-59.0
2023-12-19 11:52:01.517199,-61.0
2023-12-19 11:52:01.524888,-76.0
2023-12-19 11:52:01.532577,-95.0
2023-12-19 11:52:01.540266,-95.0
2023-12-19 11:52:01.547954,-85.0
2023-12-19 11:52:01.555643,-78.0
2023-12-19 11:52:01.563332,-69.0
2023-12-19 11:52:01.571021,-59.0
2023-12-19 11:52:01.578710,-64.0
2023-12-19 11:52:01.586399,-76.0
2023-12-19 11:52:01.594088,-83.0
2023-12-19 11:52:01.601777,-85.0
2023-12-19 11:52:01.609465,-78.0
2023-12-19 11:52:01.617154,-59.0
2023-12-19 11:52:01.624843,-128.0
2023-12-19 11:52:01.632532,-448.0
2023-12-19 11:52:01.640221,-922.0
2023-12-19 11:52:01.647910,-1089.0
2023-12-19 11:52:01.655599,-603.0
2023-12-19 11:52:01.663288,85.0
2023-12-19 11:52:01.670976,255.0
2023-12-19 11:52:01.678665,45.0
2023-12-19 11:52:01.686354,4.0
2023-12-19 11:52:01.694043,52.0
2023-12-19 11:52:01.701732,0.0
2023-12-19 11:52:01.709421,-11.0
2023-12-19 11:52:01.717110,21.0
2023-12-19 11:52:01.724798,7.0
2023-12-19 11:52:01.732487,-9.0
2023-12-19 11:52:01.740176,-2.0
2023-12-19 11:52:01.747865,-7.0
2023-12-19 11:52:01.755554,-23.0
2023-12-19 11:52:01.763243,-23.0
2023-12-19 11:52:01.770932,-28.0
2023-12-19 11:52:01.778621,-40.0
2023-12-19 11:52:01.786309,-47.0
2023-12-19 11:52:01.793998,-47.0
2023-12-19 11:52:01.801687,-71.0
2023-12-19 11:52:01.809376,-116.0
2023-12-19 11:52:01.817065,-133.0
2023-12-19 11:52:01.824754,-154.0
2023-12-19 11:52:01.832443,-200.0
2023-12-19 11:52:01.840132,-212.0
2023-12-19 11:52:01.847820,-188.0
2023-12-19 11:52:01.855509,-181.0
2023-12-19 11:52:01.863198,-176.0
2023-12-19 11:52:01.870887,-152.0
2023-12-19 11:52:01.878576,-126.0
2023-12-19 11:52:01.886265,-109.0
2023-12-19 11:52:01.893954,-85.0
2023-12-19 11:52:01.901642,-52.0
2023-12-19 11:52:01.909331,-23.0
2023-12-19 11:52:01.917020,-9.0
2023-12-19 11:52:01.924709,2.0
2023-12-19 11:52:01.932398,19.0
2023-12-19 11:52:01.940087,28.0
2023-12-19 11:52:01.947776,33.0
2023-12-19 11:52:01.955465,38.0
2023-12-19 11:52:01.963153,38.0
2023-12-19 11:52:01.970842,35.0
2023-12-19 11:52:01.978531,40.0
2023-12-19 11:52:01.986220,42.0
2023-12-19 11:52:01.993909,38.0
2023-12-19 11:52:02.001598,30.0
2023-12-19 11:52:02.009287,28.0
2023-12-19 11:52:02.016976,16.0
2023-12-19 11:52:02.024664,-4.0
2023-12-19 11:52:02.032353,-16.0
2023-12-19 11:52:02.040042,-26.0
2023-12-19 11:52:02.047731,-40.0
2023-12-19 11:52:02.055420,-50.0
2023-12-19 11:52:02.063109,-50.0
2023-12-19 11:52:02.070798,-40.0
2023-12-19 11:52:02.078486,-35.0
2023-12-19 11:52:02.086175,-42.0
2023-12-19 11:52:02.093864,-45.0
2023-12-19 11:52:02.101553,-40.0
2023-12-19 11:52:02.109242,-35.0
2023-12-19 11:52:02.116931,-35.0
2023-12-19 11:52:02.124620,-33.0
2023-12-19 11:52:02.132309,-26.0
2023-12-19 11:52:02.139997,-23.0
2023-12-19 11:52:02.147686,-26.0
2023-12-19 11:52:02.155375,-21.0
2023-12-19 11:52:02.163064,-26.0
2023-12-19 11:52:02.170753,-50.0
2023-12-19 11:52:02.178442,-69.0
2023-12-19 11:52:02.186131,-66.0
2023-12-19 11:52:02.193820,-73.0
2023-12-19 11:52:02.201508,-83.0
2023-12-19 11:52:02.209197,-76.0
2023-12-19 11:52:02.216886,-69.0
2023-12-19 11:52:02.224575,-69.0
2023-12-19 11:52:02.232264,-69.0
2023-12-19 11:52:02.239953,-64.0
2023-12-19 11:52:02.247642,-64.0
2023-12-19 11:52:02.255330,-69.0
2023-12-19 11:52:02.263019,-83.0
2023-12-19 11:52:02.270708,-95.0
2023-12-19 11:52:02.278397,-100.0
2023-12-19 11:52:02.286086,-100.0
2023-12-19 11:52:02.293775,-88.0
2023-12-19 11:52:02.301464,-71.0
2023-12-19 11:52:02.309153,-71.0
2023-12-19 11:52:02.316841,-78.0
2023-12-19 11:52:02.324530,-78.0
2023-12-19 11:52:02.332219,-81.0
2023-12-19 11:52:02.339908,-83.0
2023-12-19 11:52:02.347597,-64.0
2023-12-19 11:52:02.355286,-33.0
2023-12-19 11:52:02.362975,-57.0
2023-12-19 11:52:02.370664,-288.0
2023-12-19 11:52:02.378352,-760.0
2023-12-19 11:52:02.386041,-1101.0
2023-12-19 11:52:02.393730,-796.0
2023-12-19 11:52:02.401419,-40.0
2023-12-19 11:52:02.409108,307.0
2023-12-19 11:52:02.416797,114.0
2023-12-19 11:52:02.424486,21.0
2023-12-19 11:52:02.432174,100.0
2023-12-19 11:52:02.439863,57.0
2023-12-19 11:52:02.447552,14.0
2023-12-19 11:52:02.455241,64.0
2023-12-19 11:52:02.462930,64.0
2023-12-19 11:52:02.470619,30.0
2023-12-19 11:52:02.478308,38.0
2023-12-19 11:52:02.485997,30.0
2023-12-19 11:52:02.493685,2.0
2023-12-19 11:52:02.501374,-4.0
2023-12-19 11:52:02.509063,2.0
2023-12-19 11:52:02.516752,2.0
2023-12-19 11:52:02.524441,-7.0
2023-12-19 11:52:02.532130,-26.0
2023-12-19 11:52:02.539819,-42.0
2023-12-19 11:52:02.547508,-50.0
2023-12-19 11:52:02.555196,-69.0
2023-12-19 11:52:02.562885,-97.0
2023-12-19 11:52:02.570574,-128.0
2023-12-19 11:52:02.578263,-140.0
2023-12-19 11:52:02.585952,-145.0
2023-12-19 11:52:02.593641,-143.0
2023-12-19 11:52:02.601330,-131.0
2023-12-19 11:52:02.609018,-116.0
2023-12-19 11:52:02.616707,-97.0
2023-12-19 11:52:02.624396,-69.0
2023-12-19 11:52:02.632085,-38.0
2023-12-19 11:52:02.639774,-2.0
2023-12-19 11:52:02.647463,21.0
2023-12-19 11:52:02.655152,16.0
2023-12-19 11:52:02.662841,11.0
2023-12-19 11:52:02.670529,19.0
2023-12-19 11:52:02.678218,23.0
2023-12-19 11:52:02.685907,33.0
2023-12-19 11:52:02.693596,35.0
2023-12-19 11:52:02.701285,35.0
2023-12-19 11:52:02.708974,42.0
2023-12-19 11:52:02.716663,45.0
2023-12-19 11:52:02.724352,33.0
2023-12-19 11:52:02.732040,16.0
2023-12-19 11:52:02.739729,16.0
2023-12-19 11:52:02.747418,19.0
2023-12-19 11:52:02.755107,0.0
2023-12-19 11:52:02.762796,-14.0
2023-12-19 11:52:02.770485,-7.0
2023-12-19 11:52:02.778174,-9.0
2023-12-19 11:52:02.785862,-28.0
2023-12-19 11:52:02.793551,-35.0
2023-12-19 11:52:02.801240,-33.0
2023-12-19 11:52:02.808929,-47.0
2023-12-19 11:52:02.816618,-66.0
2023-12-19 11:52:02.824307,-61.0
2023-12-19 11:52:02.831996,-52.0
2023-12-19 11:52:02.839685,-57.0
2023-12-19 11:52:02.847373,-54.0
2023-12-19 11:52:02.855062,-40.0
2023-12-19 11:52:02.862751,-40.0
2023-12-19 11:52:02.870440,-42.0
2023-12-19 11:52:02.878129,-38.0
2023-12-19 11:52:02.885818,-35.0
2023-12-19 11:52:02.893507,-50.0
2023-12-19 11:52:02.901196,-59.0
2023-12-19 11:52:02.908884,-54.0
2023-12-19 11:52:02.916573,-54.0
2023-12-19 11:52:02.924262,-61.0
2023-12-19 11:52:02.931951,-61.0
2023-12-19 11:52:02.939640,-61.0
2023-12-19 11:52:02.947329,-59.0
2023-12-19 11:52:02.955018,-52.0
2023-12-19 11:52:02.962706,-52.0
2023-12-19 11:52:02.970395,-57.0
2023-12-19 11:52:02.978084,-66.0
2023-12-19 11:52:02.985773,-71.0
2023-12-19 11:52:02.993462,-64.0
2023-12-19 11:52:03.001151,-57.0
2023-12-19 11:52:03.008840,-47.0
2023-12-19 11:52:03.016529,-45.0
2023-12-19 11:52:03.024217,-54.0
2023-12-19 11:52:03.031906,-52.0
2023-12-19 11:52:03.039595,-38.0
2023-12-19 11:52:03.047284,-42.0
2023-12-19 11:52:03.054973,-61.0
2023-12-19 11:52:03.062662,-66.0
2023-12-19 11:52:03.070351,-66.0
2023-12-19 11:52:03.078040,-69.0
2023-12-19 11:52:03.085728,-54.0
2023-12-19 11:52:03.093417,-35.0
2023-12-19 11:52:03.101106,-30.0
2023-12-19 11:52:03.108795,-33.0
2023-12-19 11:52:03.116484,-35.0
2023-12-19 11:52:03.124173,-30.0
2023-12-19 11:52:03.131862,-28.0
2023-12-19 11:52:03.139550,-19.0
2023-12-19 11:52:03.147239,-7.0
2023-12-19 11:52:03.154928,-123.0
2023-12-19 11:52:03.162617,-512.0
2023-12-19 11:52:03.170306,-991.0
2023-12-19 11:52:03.177995,-996.0
2023-12-19 11:52:03.185684,-340.0
2023-12-19 11:52:03.193373,240.0
2023-12-19 11:52:03.201061,202.0
2023-12-19 11:52:03.208750,30.0
2023-12-19 11:52:03.216439,81.0
2023-12-19 11:52:03.224128,95.0
2023-12-19 11:52:03.231817,40.0
2023-12-19 11:52:03.239506,64.0
2023-12-19 11:52:03.247195,83.0
2023-12-19 11:52:03.254884,52.0
2023-12-19 11:52:03.262572,28.0
2023-12-19 11:52:03.270261,26.0
2023-12-19 11:52:03.277950,40.0
2023-12-19 11:52:03.285639,50.0
2023-12-19 11:52:03.293328,23.0
2023-12-19 11:52:03.301017,-14.0
2023-12-19 11:52:03.308706,-30.0
2023-12-19 11:52:03.316394,-42.0
2023-12-19 11:52:03.324083,-64.0
2023-12-19 11:52:03.331772,-78.0
2023-12-19 11:52:03.339461,-90.0
2023-12-19 11:52:03.347150,-126.0
2023-12-19 11:52:03.354839,-154.0
2023-12-19 11:52:03.362528,-159.0
2023-12-19 11:52:03.370217,-171.0
2023-12-19 11:52:03.377905,-176.0
2023-12-19 11:52:03.385594,-174.0
2023-12-19 11:52:03.393283,-166.0
2023-12-19 11:52:03.400972,-140.0
2023-12-19 11:52:03.408661,-109.0
2023-12-19 11:52:03.416350,-95.0
2023-12-19 11:52:03.424039,-71.0
2023-12-19 11:52:03.431728,-33.0
2023-12-19 11:52:03.439416,-11.0
2023-12-19 11:52:03.447105,-9.0
2023-12-19 11:52:03.454794,4.0
2023-12-19 11:52:03.462483,23.0
2023-12-19 11:52:03.470172,26.0
2023-12-19 11:52:03.477861,19.0
2023-12-19 11:52:03.485550,14.0
2023-12-19 11:52:03.493238,9.0
2023-12-19 11:52:03.500927,7.0
2023-12-19 11:52:03.508616,7.0
2023-12-19 11:52:03.516305,11.0
2023-12-19 11:52:03.523994,16.0
2023-12-19 11:52:03.531683,14.0
2023-12-19 11:52:03.539372,4.0
2023-12-19 11:52:03.547061,0.0
2023-12-19 11:52:03.554749,0.0
2023-12-19 11:52:03.562438,-4.0
2023-12-19 11:52:03.570127,-11.0
2023-12-19 11:52:03.577816,-11.0
2023-12-19 11:52:03.585505,-14.0
2023-12-19 11:52:03.593194,-28.0
2023-12-19 11:52:03.600883,-33.0
2023-12-19 11:52:03.608572,-23.0
2023-12-19 11:52:03.616260,-28.0
2023-12-19 11:52:03.623949,-42.0
2023-12-19 11:52:03.631638,-40.0
2023-12-19 11:52:03.639327,-30.0
2023-12-19 11:52:03.647016,-38.0
2023-12-19 11:52:03.654705,-52.0
2023-12-19 11:52:03.662394,-52.0
2023-12-19 11:52:03.670082,-47.0
2023-12-19 11:52:03.677771,-40.0
2023-12-19 11:52:03.685460,-40.0
2023-12-19 11:52:03.693149,-45.0
2023-12-19 11:52:03.700838,-38.0
2023-12-19 11:52:03.708527,-35.0
2023-12-19 11:52:03.716216,-50.0
2023-12-19 11:52:03.723905,-57.0
2023-12-19 11:52:03.731593,-47.0
2023-12-19 11:52:03.739282,-42.0
2023-12-19 11:52:03.746971,-40.0
2023-12-19 11:52:03.754660,-42.0
2023-12-19 11:52:03.762349,-40.0
2023-12-19 11:52:03.770038,-35.0
2023-12-19 11:52:03.777727,-38.0
2023-12-19 11:52:03.785416,-40.0
2023-12-19 11:52:03.793104,-38.0
2023-12-19 11:52:03.800793,-30.0
2023-12-19 11:52:03.808482,-33.0
2023-12-19 11:52:03.816171,-38.0
2023-12-19 11:52:03.823860,-42.0
2023-12-19 11:52:03.831549,-57.0
2023-12-19 11:52:03.839238,-76.0
2023-12-19 11:52:03.846926,-81.0
2023-12-19 11:52:03.854615,-66.0
2023-12-19 11:52:03.862304,-61.0
2023-12-19 11:52:03.869993,-71.0
2023-12-19 11:52:03.877682,-92.0
2023-12-19 11:52:03.885371,-114.0
2023-12-19 11:52:03.893060,-102.0
2023-12-19 11:52:03.900749,-71.0
2023-12-19 11:52:03.908437,-64.0
2023-12-19 11:52:03.916126,-64.0
2023-12-19 11:52:03.923815,-47.0
2023-12-19 11:52:03.931504,-42.0
2023-12-19 11:52:03.939193,-50.0
2023-12-19 11:52:03.946882,-50.0
2023-12-19 11:52:03.954571,-45.0
2023-12-19 11:52:03.962260,-35.0
2023-12-19 11:52:03.969948,-30.0
2023-12-19 11:52:03.977637,-159.0
2023-12-19 11:52:03.985326,-531.0
2023-12-19 11:52:03.993015,-956.0
2023-12-19 11:52:04.000704,-920.0
2023-12-19 11:52:04.008393,-283.0
2023-12-19 11:52:04.016082,221.0
2023-12-19 11:52:04.023770,145.0
2023-12-19 11:52:04.031459,4.0
2023-12-19 11:52:04.039148,78.0
2023-12-19 11:52:04.046837,90.0
2023-12-19 11:52:04.054526,35.0
2023-12-19 11:52:04.062215,54.0
2023-12-19 11:52:04.069904,71.0
2023-12-19 11:52:04.077593,50.0
2023-12-19 11:52:04.085281,47.0
2023-12-19 11:52:04.092970,42.0
2023-12-19 11:52:04.100659,26.0
2023-12-19 11:52:04.108348,26.0
2023-12-19 11:52:04.116037,26.0
2023-12-19 11:52:04.123726,16.0
2023-12-19 11:52:04.131415,7.0
2023-12-19 11:52:04.139104,0.0
2023-12-19 11:52:04.146792,-11.0
2023-12-19 11:52:04.154481,-30.0
2023-12-19 11:52:04.162170,-59.0
2023-12-19 11:52:04.169859,-78.0
2023-12-19 11:52:04.177548,-90.0
2023-12-19 11:52:04.185237,-109.0
2023-12-19 11:52:04.192926,-131.0
2023-12-19 11:52:04.200614,-140.0
2023-12-19 11:52:04.208303,-138.0
2023-12-19 11:52:04.215992,-128.0
2023-12-19 11:52:04.223681,-114.0
2023-12-19 11:52:04.231370,-92.0
2023-12-19 11:52:04.239059,-66.0
2023-12-19 11:52:04.246748,-50.0
2023-12-19 11:52:04.254437,-40.0
2023-12-19 11:52:04.262125,-19.0
2023-12-19 11:52:04.269814,-2.0
2023-12-19 11:52:04.277503,2.0
2023-12-19 11:52:04.285192,7.0
2023-12-19 11:52:04.292881,14.0
2023-12-19 11:52:04.300570,16.0
2023-12-19 11:52:04.308259,16.0
2023-12-19 11:52:04.315948,19.0
2023-12-19 11:52:04.323636,21.0
2023-12-19 11:52:04.331325,4.0
2023-12-19 11:52:04.339014,-19.0
2023-12-19 11:52:04.346703,-16.0
2023-12-19 11:52:04.354392,-2.0
2023-12-19 11:52:04.362081,-16.0
2023-12-19 11:52:04.369770,-33.0
2023-12-19 11:52:04.377458,-45.0
2023-12-19 11:52:04.385147,-69.0
2023-12-19 11:52:04.392836,-85.0
2023-12-19 11:52:04.400525,-78.0
2023-12-19 11:52:04.408214,-81.0
2023-12-19 11:52:04.415903,-102.0
2023-12-19 11:52:04.423592,-116.0
2023-12-19 11:52:04.431281,-112.0
2023-12-19 11:52:04.438969,-100.0
2023-12-19 11:52:04.446658,-97.0
2023-12-19 11:52:04.454347,-102.0
2023-12-19 11:52:04.462036,-104.0
2023-12-19 11:52:04.469725,-107.0
2023-12-19 11:52:04.477414,-109.0
2023-12-19 11:52:04.485103,-95.0
2023-12-19 11:52:04.492792,-78.0
2023-12-19 11:52:04.500480,-83.0
2023-12-19 11:52:04.508169,-100.0
2023-12-19 11:52:04.515858,-100.0
2023-12-19 11:52:04.523547,-81.0
2023-12-19 11:52:04.531236,-73.0
2023-12-19 11:52:04.538925,-76.0
2023-12-19 11:52:04.546614,-73.0
2023-12-19 11:52:04.554302,-78.0
2023-12-19 11:52:04.561991,-76.0
2023-12-19 11:52:04.569680,-64.0
2023-12-19 11:52:04.577369,-66.0
2023-12-19 11:52:04.585058,-66.0
2023-12-19 11:52:04.592747,-54.0
2023-12-19 11:52:04.600436,-61.0
2023-12-19 11:52:04.608125,-71.0
2023-12-19 11:52:04.615813,-64.0
2023-12-19 11:52:04.623502,-54.0
2023-12-19 11:52:04.631191,-50.0
2023-12-19 11:52:04.638880,-47.0
2023-12-19 11:52:04.646569,-50.0
2023-12-19 11:52:04.654258,-52.0
2023-12-19 11:52:04.661947,-47.0
2023-12-19 11:52:04.669636,-38.0
2023-12-19 11:52:04.677324,-23.0
2023-12-19 11:52:04.685013,-26.0
2023-12-19 11:52:04.692702,-57.0
2023-12-19 11:52:04.700391,-85.0
2023-12-19 11:52:04.708080,-88.0
2023-12-19 11:52:04.715769,-71.0
2023-12-19 11:52:04.723458,-52.0
2023-12-19 11:52:04.731146,-47.0
2023-12-19 11:52:04.738835,-42.0
2023-12-19 11:52:04.746524,-35.0
2023-12-19 11:52:04.754213,-42.0
2023-12-19 11:52:04.761902,-50.0
2023-12-19 11:52:04.769591,-33.0
2023-12-19 11:52:04.777280,-16.0
2023-12-19 11:52:04.784969,-9.0
2023-12-19 11:52:04.792657,-73.0
2023-12-19 11:52:04.800346,-340.0
2023-12-19 11:52:04.808035,-765.0
2023-12-19 11:52:04.815724,-965.0
2023-12-19 11:52:04.823413,-565.0
2023-12-19 11:52:04.831102,95.0
2023-12-19 11:52:04.838791,288.0
2023-12-19 11:52:04.846480,85.0
2023-12-19 11:52:04.854168,35.0
2023-12-19 11:52:04.861857,83.0
2023-12-19 11:52:04.869546,35.0
2023-12-19 11:52:04.877235,16.0
2023-12-19 11:52:04.884924,38.0
2023-12-19 11:52:04.892613,23.0
2023-12-19 11:52:04.900302,14.0
2023-12-19 11:52:04.907990,23.0
2023-12-19 11:52:04.915679,11.0
2023-12-19 11:52:04.923368,0.0
2023-12-19 11:52:04.931057,2.0
2023-12-19 11:52:04.938746,-9.0
2023-12-19 11:52:04.946435,-33.0
2023-12-19 11:52:04.954124,-40.0
2023-12-19 11:52:04.961813,-64.0
2023-12-19 11:52:04.969501,-112.0
2023-12-19 11:52:04.977190,-123.0
2023-12-19 11:52:04.984879,-116.0
2023-12-19 11:52:04.992568,-147.0
2023-12-19 11:52:05.000257,-185.0
2023-12-19 11:52:05.007946,-193.0
2023-12-19 11:52:05.015635,-190.0
2023-12-19 11:52:05.023324,-195.0
2023-12-19 11:52:05.031012,-185.0
2023-12-19 11:52:05.038701,-147.0
2023-12-19 11:52:05.046390,-119.0
2023-12-19 11:52:05.054079,-112.0
2023-12-19 11:52:05.061768,-92.0
2023-12-19 11:52:05.069457,-76.0
2023-12-19 11:52:05.077146,-59.0
2023-12-19 11:52:05.084834,-35.0
2023-12-19 11:52:05.092523,-23.0
2023-12-19 11:52:05.100212,-21.0
2023-12-19 11:52:05.107901,-16.0
2023-12-19 11:52:05.115590,-4.0
2023-12-19 11:52:05.123279,9.0
2023-12-19 11:52:05.130968,16.0
2023-12-19 11:52:05.138657,2.0
2023-12-19 11:52:05.146345,-7.0
2023-12-19 11:52:05.154034,4.0
2023-12-19 11:52:05.161723,4.0
2023-12-19 11:52:05.169412,-7.0
2023-12-19 11:52:05.177101,-7.0
2023-12-19 11:52:05.184790,-21.0
2023-12-19 11:52:05.192479,-54.0
2023-12-19 11:52:05.200168,-66.0
2023-12-19 11:52:05.207856,-61.0
2023-12-19 11:52:05.215545,-76.0
2023-12-19 11:52:05.223234,-76.0
2023-12-19 11:52:05.230923,-76.0
2023-12-19 11:52:05.238612,-90.0
2023-12-19 11:52:05.246301,-85.0
2023-12-19 11:52:05.253990,-71.0
2023-12-19 11:52:05.261678,-76.0
2023-12-19 11:52:05.269367,-71.0
2023-12-19 11:52:05.277056,-64.0
2023-12-19 11:52:05.284745,-64.0
2023-12-19 11:52:05.292434,-52.0
2023-12-19 11:52:05.300123,-47.0
2023-12-19 11:52:05.307812,-52.0
2023-12-19 11:52:05.315501,-45.0
2023-12-19 11:52:05.323189,-47.0
2023-12-19 11:52:05.330878,-61.0
2023-12-19 11:52:05.338567,-66.0
2023-12-19 11:52:05.346256,-61.0
2023-12-19 11:52:05.353945,-57.0
2023-12-19 11:52:05.361634,-57.0
2023-12-19 11:52:05.369323,-59.0
2023-12-19 11:52:05.377012,-59.0
2023-12-19 11:52:05.384700,-57.0
2023-12-19 11:52:05.392389,-52.0
2023-12-19 11:52:05.400078,-45.0
2023-12-19 11:52:05.407767,-42.0
2023-12-19 11:52:05.415456,-38.0
2023-12-19 11:52:05.423145,-23.0
2023-12-19 11:52:05.430834,-21.0
2023-12-19 11:52:05.438522,-42.0
2023-12-19 11:52:05.446211,-64.0
2023-12-19 11:52:05.453900,-69.0
2023-12-19 11:52:05.461589,-78.0
2023-12-19 11:52:05.469278,-73.0
2023-12-19 11:52:05.476967,-50.0
2023-12-19 11:52:05.484656,-30.0
2023-12-19 11:52:05.492345,-21.0
2023-12-19 11:52:05.500033,-40.0
2023-12-19 11:52:05.507722,-71.0
2023-12-19 11:52:05.515411,-66.0
2023-12-19 11:52:05.523100,-47.0
2023-12-19 11:52:05.530789,-40.0
2023-12-19 11:52:05.538478,-47.0
2023-12-19 11:52:05.546167,-195.0
2023-12-19 11:52:05.553856,-593.0
2023-12-19 11:52:05.561544,-984.0
2023-12-19 11:52:05.569233,-860.0
2023-12-19 11:52:05.576922,-193.0
2023-12-19 11:52:05.584611,278.0
2023-12-19 11:52:05.592300,183.0
2023-12-19 11:52:05.599989,40.0
2023-12-19 11:52:05.607678,88.0
2023-12-19 11:52:05.615366,73.0
2023-12-19 11:52:05.623055,21.0
2023-12-19 11:52:05.630744,50.0
2023-12-19 11:52:05.638433,66.0
2023-12-19 11:52:05.646122,45.0
2023-12-19 11:52:05.653811,35.0
2023-12-19 11:52:05.661500,30.0
2023-12-19 11:52:05.669189,28.0
2023-12-19 11:52:05.676877,28.0
2023-12-19 11:52:05.684566,16.0
2023-12-19 11:52:05.692255,7.0
2023-12-19 11:52:05.699944,-2.0
2023-12-19 11:52:05.707633,-19.0
2023-12-19 11:52:05.715322,-30.0
2023-12-19 11:52:05.723011,-38.0
2023-12-19 11:52:05.730700,-54.0
2023-12-19 11:52:05.738388,-83.0
2023-12-19 11:52:05.746077,-104.0
2023-12-19 11:52:05.753766,-121.0
2023-12-19 11:52:05.761455,-135.0
2023-12-19 11:52:05.769144,-135.0
2023-12-19 11:52:05.776833,-121.0
2023-12-19 11:52:05.784522,-102.0
2023-12-19 11:52:05.792210,-78.0
2023-12-19 11:52:05.799899,-59.0
2023-12-19 11:52:05.807588,-38.0
2023-12-19 11:52:05.815277,-4.0
2023-12-19 11:52:05.822966,14.0
2023-12-19 11:52:05.830655,16.0
2023-12-19 11:52:05.838344,19.0
2023-12-19 11:52:05.846033,9.0
2023-12-19 11:52:05.853721,7.0
2023-12-19 11:52:05.861410,19.0
2023-12-19 11:52:05.869099,19.0
2023-12-19 11:52:05.876788,23.0
2023-12-19 11:52:05.884477,35.0
2023-12-19 11:52:05.892166,33.0
2023-12-19 11:52:05.899855,26.0
2023-12-19 11:52:05.907544,19.0
2023-12-19 11:52:05.915232,7.0
2023-12-19 11:52:05.922921,-4.0
2023-12-19 11:52:05.930610,-16.0
2023-12-19 11:52:05.938299,-21.0
2023-12-19 11:52:05.945988,-23.0
2023-12-19 11:52:05.953677,-28.0
2023-12-19 11:52:05.961366,-33.0
2023-12-19 11:52:05.969055,-33.0
2023-12-19 11:52:05.976743,-40.0
2023-12-19 11:52:05.984432,-57.0
2023-12-19 11:52:05.992121,-66.0
2023-12-19 11:52:05.999810,-64.0
2023-12-19 11:52:06.007499,-59.0
2023-12-19 11:52:06.015188,-57.0
2023-12-19 11:52:06.022877,-59.0
2023-12-19 11:52:06.030565,-54.0
2023-12-19 11:52:06.038254,-59.0
2023-12-19 11:52:06.045943,-88.0
2023-12-19 11:52:06.053632,-97.0
2023-12-19 11:52:06.061321,-78.0
2023-12-19 11:52:06.069010,-69.0
2023-12-19 11:52:06.076699,-71.0
2023-12-19 11:52:06.084388,-73.0
2023-12-19 11:52:06.092076,-69.0
2023-12-19 11:52:06.099765,-61.0
2023-12-19 11:52:06.107454,-61.0
2023-12-19 11:52:06.115143,-64.0
2023-12-19 11:52:06.122832,-61.0
2023-12-19 11:52:06.130521,-59.0
2023-12-19 11:52:06.138210,-59.0
2023-12-19 11:52:06.145899,-59.0
2023-12-19 11:52:06.153587,-52.0
2023-12-19 11:52:06.161276,-47.0
2023-12-19 11:52:06.168965,-47.0
2023-12-19 11:52:06.176654,-54.0
2023-12-19 11:52:06.184343,-54.0
2023-12-19 11:52:06.192032,-40.0
2023-12-19 11:52:06.199721,-28.0
2023-12-19 11:52:06.207409,-28.0
2023-12-19 11:52:06.215098,-42.0
2023-12-19 11:52:06.222787,-59.0
2023-12-19 11:52:06.230476,-61.0
2023-12-19 11:52:06.238165,-54.0
2023-12-19 11:52:06.245854,-50.0
2023-12-19 11:52:06.253543,-40.0
2023-12-19 11:52:06.261232,-35.0
2023-12-19 11:52:06.268920,-35.0
2023-12-19 11:52:06.276609,-30.0
2023-12-19 11:52:06.284298,-23.0
2023-12-19 11:52:06.291987,-11.0
2023-12-19 11:52:06.299676,-9.0
2023-12-19 11:52:06.307365,-11.0
2023-12-19 11:52:06.315054,-9.0
2023-12-19 11:52:06.322743,-119.0
2023-12-19 11:52:06.330431,-491.0
2023-12-19 11:52:06.338120,-949.0
2023-12-19 11:52:06.345809,-972.0
2023-12-19 11:52:06.353498,-350.0
2023-12-19 11:52:06.361187,228.0
2023-12-19 11:52:06.368876,200.0
2023-12-19 11:52:06.376565,21.0
2023-12-19 11:52:06.384253,76.0
2023-12-19 11:52:06.391942,102.0
2023-12-19 11:52:06.399631,38.0
2023-12-19 11:52:06.407320,45.0
2023-12-19 11:52:06.415009,59.0
2023-12-19 11:52:06.422698,33.0
2023-12-19 11:52:06.430387,28.0
2023-12-19 11:52:06.438076,23.0
2023-12-19 11:52:06.445764,0.0
2023-12-19 11:52:06.453453,2.0
2023-12-19 11:52:06.461142,16.0
2023-12-19 11:52:06.468831,9.0
2023-12-19 11:52:06.476520,-2.0
2023-12-19 11:52:06.484209,-7.0
2023-12-19 11:52:06.491898,-16.0
2023-12-19 11:52:06.499587,-38.0
2023-12-19 11:52:06.507275,-64.0
2023-12-19 11:52:06.514964,-83.0
2023-12-19 11:52:06.522653,-97.0
2023-12-19 11:52:06.530342,-119.0
2023-12-19 11:52:06.538031,-138.0
2023-12-19 11:52:06.545720,-140.0
2023-12-19 11:52:06.553409,-133.0
2023-12-19 11:52:06.561097,-121.0
2023-12-19 11:52:06.568786,-102.0
2023-12-19 11:52:06.576475,-76.0
2023-12-19 11:52:06.584164,-52.0
2023-12-19 11:52:06.591853,-40.0
2023-12-19 11:52:06.599542,-30.0
2023-12-19 11:52:06.607231,-14.0
2023-12-19 11:52:06.614920,7.0
2023-12-19 11:52:06.622608,14.0
2023-12-19 11:52:06.630297,-7.0
2023-12-19 11:52:06.637986,-9.0
2023-12-19 11:52:06.645675,11.0
2023-12-19 11:52:06.653364,16.0
2023-12-19 11:52:06.661053,9.0
2023-12-19 11:52:06.668742,-7.0
2023-12-19 11:52:06.676431,-26.0
2023-12-19 11:52:06.684119,-16.0
2023-12-19 11:52:06.691808,-2.0
2023-12-19 11:52:06.699497,-7.0
2023-12-19 11:52:06.707186,-14.0
2023-12-19 11:52:06.714875,-23.0
2023-12-19 11:52:06.722564,-38.0
2023-12-19 11:52:06.730253,-42.0
2023-12-19 11:52:06.737941,-52.0
2023-12-19 11:52:06.745630,-71.0
2023-12-19 11:52:06.753319,-71.0
2023-12-19 11:52:06.761008,-73.0
2023-12-19 11:52:06.768697,-78.0
2023-12-19 11:52:06.776386,-64.0
2023-12-19 11:52:06.784075,-59.0
2023-12-19 11:52:06.791764,-71.0
2023-12-19 11:52:06.799452,-69.0
2023-12-19 11:52:06.807141,-59.0
2023-12-19 11:52:06.814830,-59.0
2023-12-19 11:52:06.822519,-57.0
2023-12-19 11:52:06.830208,-52.0
2023-12-19 11:52:06.837897,-47.0
2023-12-19 11:52:06.845586,-50.0
2023-12-19 11:52:06.853275,-61.0
2023-12-19 11:52:06.860963,-64.0
2023-12-19 11:52:06.868652,-50.0
2023-12-19 11:52:06.876341,-45.0
2023-12-19 11:52:06.884030,-50.0
2023-12-19 11:52:06.891719,-50.0
2023-12-19 11:52:06.899408,-47.0
2023-12-19 11:52:06.907097,-50.0
2023-12-19 11:52:06.914785,-61.0
2023-12-19 11:52:06.922474,-64.0
2023-12-19 11:52:06.930163,-42.0
2023-12-19 11:52:06.937852,-33.0
2023-12-19 11:52:06.945541,-54.0
2023-12-19 11:52:06.953230,-61.0
2023-12-19 11:52:06.960919,-42.0
2023-12-19 11:52:06.968608,-30.0
2023-12-19 11:52:06.976296,-38.0
2023-12-19 11:52:06.983985,-40.0
2023-12-19 11:52:06.991674,-26.0
2023-12-19 11:52:06.999363,-16.0
2023-12-19 11:52:07.007052,-14.0
2023-12-19 11:52:07.014741,-26.0
2023-12-19 11:52:07.022430,-45.0
2023-12-19 11:52:07.030119,-54.0
2023-12-19 11:52:07.037807,-50.0
2023-12-19 11:52:07.045496,-42.0
2023-12-19 11:52:07.053185,-33.0
2023-12-19 11:52:07.060874,-19.0
2023-12-19 11:52:07.068563,-9.0
2023-12-19 11:52:07.076252,-19.0
2023-12-19 11:52:07.083941,-23.0
2023-12-19 11:52:07.091629,-14.0
2023-12-19 11:52:07.099318,-2.0
2023-12-19 11:52:07.107007,7.0
2023-12-19 11:52:07.114696,11.0
2023-12-19 11:52:07.122385,-71.0
2023-12-19 11:52:07.130074,-386.0
2023-12-19 11:52:07.137763,-848.0
2023-12-19 11:52:07.145452,-980.0
2023-12-19 11:52:07.153140,-450.0
2023-12-19 11:52:07.160829,176.0
2023-12-19 11:52:07.168518,236.0
2023-12-19 11:52:07.176207,45.0
2023-12-19 11:52:07.183896,66.0
2023-12-19 11:52:07.191585,107.0
2023-12-19 11:52:07.199274,52.0
2023-12-19 11:52:07.206963,42.0
2023-12-19 11:52:07.214651,50.0
2023-12-19 11:52:07.222340,19.0
2023-12-19 11:52:07.230029,9.0
2023-12-19 11:52:07.237718,26.0
2023-12-19 11:52:07.245407,19.0
2023-12-19 11:52:07.253096,2.0
2023-12-19 11:52:07.260785,0.0
2023-12-19 11:52:07.268473,-2.0
2023-12-19 11:52:07.276162,-9.0
2023-12-19 11:52:07.283851,-21.0
2023-12-19 11:52:07.291540,-35.0
2023-12-19 11:52:07.299229,-45.0
2023-12-19 11:52:07.306918,-61.0
2023-12-19 11:52:07.314607,-78.0
2023-12-19 11:52:07.322296,-100.0
2023-12-19 11:52:07.329984,-121.0
2023-12-19 11:52:07.337673,-133.0
2023-12-19 11:52:07.345362,-140.0
2023-12-19 11:52:07.353051,-159.0
2023-12-19 11:52:07.360740,-162.0
2023-12-19 11:52:07.368429,-138.0
2023-12-19 11:52:07.376118,-119.0
2023-12-19 11:52:07.383807,-104.0
2023-12-19 11:52:07.391495,-76.0
2023-12-19 11:52:07.399184,-52.0
2023-12-19 11:52:07.406873,-52.0
2023-12-19 11:52:07.414562,-42.0
2023-12-19 11:52:07.422251,-16.0
2023-12-19 11:52:07.429940,-4.0
2023-12-19 11:52:07.437629,-9.0
2023-12-19 11:52:07.445317,-7.0
2023-12-19 11:52:07.453006,2.0
2023-12-19 11:52:07.460695,-2.0
2023-12-19 11:52:07.468384,-4.0
2023-12-19 11:52:07.476073,7.0
2023-12-19 11:52:07.483762,7.0
2023-12-19 11:52:07.491451,-2.0
2023-12-19 11:52:07.499140,-7.0
2023-12-19 11:52:07.506828,-9.0
2023-12-19 11:52:07.514517,-14.0
2023-12-19 11:52:07.522206,-23.0
2023-12-19 11:52:07.529895,-45.0
2023-12-19 11:52:07.537584,-57.0
2023-12-19 11:52:07.545273,-57.0
2023-12-19 11:52:07.552962,-57.0
2023-12-19 11:52:07.560651,-64.0
2023-12-19 11:52:07.568339,-76.0
2023-12-19 11:52:07.576028,-78.0
2023-12-19 11:52:07.583717,-59.0
2023-12-19 11:52:07.591406,-50.0
2023-12-19 11:52:07.599095,-64.0
2023-12-19 11:52:07.606784,-66.0
2023-12-19 11:52:07.614473,-54.0
2023-12-19 11:52:07.622161,-59.0
2023-12-19 11:52:07.629850,-57.0
2023-12-19 11:52:07.637539,-38.0
2023-12-19 11:52:07.645228,-33.0
2023-12-19 11:52:07.652917,-47.0
2023-12-19 11:52:07.660606,-69.0
2023-12-19 11:52:07.668295,-73.0
2023-12-19 11:52:07.675984,-61.0
2023-12-19 11:52:07.683672,-57.0
2023-12-19 11:52:07.691361,-57.0
2023-12-19 11:52:07.699050,-47.0
2023-12-19 11:52:07.706739,-40.0
2023-12-19 11:52:07.714428,-38.0
2023-12-19 11:52:07.722117,-35.0
2023-12-19 11:52:07.729806,-42.0
2023-12-19 11:52:07.737495,-50.0
2023-12-19 11:52:07.745183,-47.0
2023-12-19 11:52:07.752872,-59.0
2023-12-19 11:52:07.760561,-73.0
2023-12-19 11:52:07.768250,-66.0
2023-12-19 11:52:07.775939,-59.0
2023-12-19 11:52:07.783628,-61.0
2023-12-19 11:52:07.791317,-57.0
2023-12-19 11:52:07.799005,-66.0
2023-12-19 11:52:07.806694,-81.0
2023-12-19 11:52:07.814383,-83.0
2023-12-19 11:52:07.822072,-104.0
2023-12-19 11:52:07.829761,-116.0
2023-12-19 11:52:07.837450,-95.0
2023-12-19 11:52:07.845139,-85.0
2023-12-19 11:52:07.852828,-95.0
2023-12-19 11:52:07.860516,-85.0
2023-12-19 11:52:07.868205,-81.0
2023-12-19 11:52:07.875894,-92.0
2023-12-19 11:52:07.883583,-90.0
2023-12-19 11:52:07.891272,-76.0
2023-12-19 11:52:07.898961,-76.0
2023-12-19 11:52:07.906650,-66.0
2023-12-19 11:52:07.914339,-90.0
2023-12-19 11:52:07.922027,-293.0
2023-12-19 11:52:07.929716,-708.0
2023-12-19 11:52:07.937405,-1034.0
2023-12-19 11:52:07.945094,-794.0
2023-12-19 11:52:07.952783,-83.0
2023-12-19 11:52:07.960472,295.0
2023-12-19 11:52:07.968161,126.0
2023-12-19 11:52:07.975849,4.0
2023-12-19 11:52:07.983538,76.0
2023-12-19 11:52:07.991227,64.0
2023-12-19 11:52:07.998916,14.0
2023-12-19 11:52:08.006605,23.0
2023-12-19 11:52:08.014294,23.0
2023-12-19 11:52:08.021983,7.0
2023-12-19 11:52:08.029672,14.0
2023-12-19 11:52:08.037360,21.0
2023-12-19 11:52:08.045049,11.0
2023-12-19 11:52:08.052738,7.0
2023-12-19 11:52:08.060427,7.0
2023-12-19 11:52:08.068116,-2.0
2023-12-19 11:52:08.075805,-9.0
2023-12-19 11:52:08.083494,-16.0
2023-12-19 11:52:08.091183,-28.0
2023-12-19 11:52:08.098871,-45.0
2023-12-19 11:52:08.106560,-73.0
2023-12-19 11:52:08.114249,-112.0
2023-12-19 11:52:08.121938,-140.0
2023-12-19 11:52:08.129627,-145.0
2023-12-19 11:52:08.137316,-152.0
2023-12-19 11:52:08.145005,-162.0
2023-12-19 11:52:08.152693,-157.0
2023-12-19 11:52:08.160382,-143.0
2023-12-19 11:52:08.168071,-121.0
2023-12-19 11:52:08.175760,-85.0
2023-12-19 11:52:08.183449,-59.0
2023-12-19 11:52:08.191138,-52.0
2023-12-19 11:52:08.198827,-35.0
2023-12-19 11:52:08.206516,-9.0
2023-12-19 11:52:08.214204,0.0
2023-12-19 11:52:08.221893,-4.0
2023-12-19 11:52:08.229582,9.0
2023-12-19 11:52:08.237271,28.0
2023-12-19 11:52:08.244960,23.0
2023-12-19 11:52:08.252649,23.0
2023-12-19 11:52:08.260338,38.0
2023-12-19 11:52:08.268027,38.0
2023-12-19 11:52:08.275715,23.0
2023-12-19 11:52:08.283404,11.0
2023-12-19 11:52:08.291093,-7.0
2023-12-19 11:52:08.298782,-30.0
2023-12-19 11:52:08.306471,-30.0
2023-12-19 11:52:08.314160,-26.0
2023-12-19 11:52:08.321849,-38.0
2023-12-19 11:52:08.329537,-52.0
2023-12-19 11:52:08.337226,-69.0
2023-12-19 11:52:08.344915,-90.0
2023-12-19 11:52:08.352604,-100.0
2023-12-19 11:52:08.360293,-109.0
2023-12-19 11:52:08.367982,-128.0
2023-12-19 11:52:08.375671,-121.0
2023-12-19 11:52:08.383360,-107.0
2023-12-19 11:52:08.391048,-112.0
2023-12-19 11:52:08.398737,-109.0
2023-12-19 11:52:08.406426,-102.0
2023-12-19 11:52:08.414115,-104.0
2023-12-19 11:52:08.421804,-92.0
2023-12-19 11:52:08.429493,-78.0
2023-12-19 11:52:08.437182,-88.0
2023-12-19 11:52:08.444871,-92.0
2023-12-19 11:52:08.452559,-73.0
2023-12-19 11:52:08.460248,-61.0
2023-12-19 11:52:08.467937,-64.0
2023-12-19 11:52:08.475626,-69.0
2023-12-19 11:52:08.483315,-59.0
2023-12-19 11:52:08.491004,-47.0
2023-12-19 11:52:08.498693,-47.0
2023-12-19 11:52:08.506381,-50.0
2023-12-19 11:52:08.514070,-45.0
2023-12-19 11:52:08.521759,-47.0
2023-12-19 11:52:08.529448,-52.0
2023-12-19 11:52:08.537137,-38.0
2023-12-19 11:52:08.544826,-21.0
2023-12-19 11:52:08.552515,-21.0
2023-12-19 11:52:08.560204,-26.0
2023-12-19 11:52:08.567892,-21.0
2023-12-19 11:52:08.575581,-14.0
2023-12-19 11:52:08.583270,-19.0
2023-12-19 11:52:08.590959,-42.0
2023-12-19 11:52:08.598648,-54.0
2023-12-19 11:52:08.606337,-50.0
2023-12-19 11:52:08.614026,-35.0
2023-12-19 11:52:08.621715,-16.0
2023-12-19 11:52:08.629403,-9.0
2023-12-19 11:52:08.637092,-19.0
2023-12-19 11:52:08.644781,-23.0
2023-12-19 11:52:08.652470,-23.0
2023-12-19 11:52:08.660159,-26.0
2023-12-19 11:52:08.667848,-14.0
2023-12-19 11:52:08.675537,4.0
2023-12-19 11:52:08.683225,-57.0
2023-12-19 11:52:08.690914,-336.0
2023-12-19 11:52:08.698603,-796.0
2023-12-19 11:52:08.706292,-980.0
2023-12-19 11:52:08.713981,-507.0
2023-12-19 11:52:08.721670,164.0
2023-12-19 11:52:08.729359,317.0
2023-12-19 11:52:08.737048,102.0
2023-12-19 11:52:08.744736,57.0
2023-12-19 11:52:08.752425,112.0
2023-12-19 11:52:08.760114,78.0
2023-12-19 11:52:08.767803,69.0
2023-12-19 11:52:08.775492,95.0
2023-12-19 11:52:08.783181,71.0
2023-12-19 11:52:08.790870,38.0
2023-12-19 11:52:08.798559,40.0
2023-12-19 11:52:08.806247,52.0
2023-12-19 11:52:08.813936,47.0
2023-12-19 11:52:08.821625,40.0
2023-12-19 11:52:08.829314,33.0
2023-12-19 11:52:08.837003,19.0
2023-12-19 11:52:08.844692,9.0
2023-12-19 11:52:08.852381,9.0
2023-12-19 11:52:08.860069,-7.0
2023-12-19 11:52:08.867758,-42.0
2023-12-19 11:52:08.875447,-78.0
2023-12-19 11:52:08.883136,-109.0
2023-12-19 11:52:08.890825,-143.0
2023-12-19 11:52:08.898514,-150.0
2023-12-19 11:52:08.906203,-138.0
2023-12-19 11:52:08.913892,-135.0
2023-12-19 11:52:08.921580,-147.0
2023-12-19 11:52:08.929269,-159.0
2023-12-19 11:52:08.936958,-138.0
2023-12-19 11:52:08.944647,-92.0
2023-12-19 11:52:08.952336,-61.0
2023-12-19 11:52:08.960025,-42.0
2023-12-19 11:52:08.967714,-26.0
2023-12-19 11:52:08.975403,-14.0
2023-12-19 11:52:08.983091,-2.0
2023-12-19 11:52:08.990780,14.0
2023-12-19 11:52:08.998469,21.0
2023-12-19 11:52:09.006158,28.0
2023-12-19 11:52:09.013847,28.0
2023-12-19 11:52:09.021536,19.0
2023-12-19 11:52:09.029225,21.0
2023-12-19 11:52:09.036913,23.0
2023-12-19 11:52:09.044602,16.0
2023-12-19 11:52:09.052291,11.0
2023-12-19 11:52:09.059980,16.0
2023-12-19 11:52:09.067669,9.0
2023-12-19 11:52:09.075358,-2.0
2023-12-19 11:52:09.083047,-4.0
2023-12-19 11:52:09.090736,-11.0
2023-12-19 11:52:09.098424,-19.0
2023-12-19 11:52:09.106113,-28.0
2023-12-19 11:52:09.113802,-35.0
2023-12-19 11:52:09.121491,-33.0
2023-12-19 11:52:09.129180,-35.0
2023-12-19 11:52:09.136869,-50.0
2023-12-19 11:52:09.144558,-59.0
2023-12-19 11:52:09.152247,-61.0
2023-12-19 11:52:09.159935,-61.0
2023-12-19 11:52:09.167624,-61.0
2023-12-19 11:52:09.175313,-59.0
2023-12-19 11:52:09.183002,-59.0
2023-12-19 11:52:09.190691,-52.0
2023-12-19 11:52:09.198380,-47.0
2023-12-19 11:52:09.206069,-52.0
2023-12-19 11:52:09.213757,-57.0
2023-12-19 11:52:09.221446,-57.0
2023-12-19 11:52:09.229135,-52.0
2023-12-19 11:52:09.236824,-47.0
2023-12-19 11:52:09.244513,-42.0
2023-12-19 11:52:09.252202,-38.0
2023-12-19 11:52:09.259891,-33.0
2023-12-19 11:52:09.267580,-33.0
2023-12-19 11:52:09.275268,-40.0
2023-12-19 11:52:09.282957,-47.0
2023-12-19 11:52:09.290646,-42.0
2023-12-19 11:52:09.298335,-38.0
2023-12-19 11:52:09.306024,-38.0
2023-12-19 11:52:09.313713,-38.0
2023-12-19 11:52:09.321402,-26.0
2023-12-19 11:52:09.329091,-19.0
2023-12-19 11:52:09.336779,-28.0
2023-12-19 11:52:09.344468,-30.0
2023-12-19 11:52:09.352157,-21.0
2023-12-19 11:52:09.359846,-16.0
2023-12-19 11:52:09.367535,-11.0
2023-12-19 11:52:09.375224,-16.0
2023-12-19 11:52:09.382913,-30.0
2023-12-19 11:52:09.390601,-50.0
2023-12-19 11:52:09.398290,-61.0
2023-12-19 11:52:09.405979,-59.0
2023-12-19 11:52:09.413668,-61.0
2023-12-19 11:52:09.421357,-88.0
2023-12-19 11:52:09.429046,-81.0
2023-12-19 11:52:09.436735,-42.0
2023-12-19 11:52:09.444424,-45.0
2023-12-19 11:52:09.452112,-57.0
2023-12-19 11:52:09.459801,-45.0
2023-12-19 11:52:09.467490,-42.0
2023-12-19 11:52:09.475179,-40.0
2023-12-19 11:52:09.482868,-11.0
2023-12-19 11:52:09.490557,-33.0
2023-12-19 11:52:09.498246,-252.0
2023-12-19 11:52:09.505935,-679.0
2023-12-19 11:52:09.513623,-984.0
2023-12-19 11:52:09.521312,-703.0
2023-12-19 11:52:09.529001,-23.0
2023-12-19 11:52:09.536690,271.0
2023-12-19 11:52:09.544379,97.0
2023-12-19 11:52:09.552068,35.0
2023-12-19 11:52:09.559757,114.0
2023-12-19 11:52:09.567445,88.0
2023-12-19 11:52:09.575134,54.0
2023-12-19 11:52:09.582823,83.0
2023-12-19 11:52:09.590512,76.0
2023-12-19 11:52:09.598201,47.0
2023-12-19 11:52:09.605890,52.0
2023-12-19 11:52:09.613579,59.0
2023-12-19 11:52:09.621268,38.0
2023-12-19 11:52:09.628956,21.0
2023-12-19 11:52:09.636645,26.0
2023-12-19 11:52:09.644334,26.0
2023-12-19 11:52:09.652023,7.0
2023-12-19 11:52:09.659712,-4.0
2023-12-19 11:52:09.667401,-4.0
2023-12-19 11:52:09.675090,-21.0
2023-12-19 11:52:09.682779,-52.0
2023-12-19 11:52:09.690467,-73.0
2023-12-19 11:52:09.698156,-90.0
2023-12-19 11:52:09.705845,-107.0
2023-12-19 11:52:09.713534,-116.0
2023-12-19 11:52:09.721223,-114.0
2023-12-19 11:52:09.728912,-109.0
2023-12-19 11:52:09.736601,-97.0
2023-12-19 11:52:09.744289,-73.0
2023-12-19 11:52:09.751978,-50.0
2023-12-19 11:52:09.759667,-38.0
2023-12-19 11:52:09.767356,-21.0
2023-12-19 11:52:09.775045,-2.0
2023-12-19 11:52:09.782734,7.0
2023-12-19 11:52:09.790423,16.0
2023-12-19 11:52:09.798112,26.0
2023-12-19 11:52:09.805800,33.0
2023-12-19 11:52:09.813489,33.0
2023-12-19 11:52:09.821178,35.0
2023-12-19 11:52:09.828867,38.0
2023-12-19 11:52:09.836556,45.0
2023-12-19 11:52:09.844245,50.0
2023-12-19 11:52:09.851934,35.0
2023-12-19 11:52:09.859623,21.0
2023-12-19 11:52:09.867311,21.0
2023-12-19 11:52:09.875000,2.0
2023-12-19 11:52:09.882689,-19.0
2023-12-19 11:52:09.890378,-23.0
2023-12-19 11:52:09.898067,-26.0
2023-12-19 11:52:09.905756,-35.0
2023-12-19 11:52:09.913445,-50.0
2023-12-19 11:52:09.921133,-59.0
2023-12-19 11:52:09.928822,-66.0
2023-12-19 11:52:09.936511,-64.0
2023-12-19 11:52:09.944200,-64.0
2023-12-19 11:52:09.951889,-73.0
2023-12-19 11:52:09.959578,-78.0
2023-12-19 11:52:09.967267,-69.0
2023-12-19 11:52:09.974956,-57.0
2023-12-19 11:52:09.982644,-54.0
2023-12-19 11:52:09.990333,-59.0
2023-12-19 11:52:09.998022,-76.0
2023-12-19 11:52:10.005711,-95.0
2023-12-19 11:52:10.013400,-85.0
2023-12-19 11:52:10.021089,-69.0
2023-12-19 11:52:10.028778,-69.0
2023-12-19 11:52:10.036467,-69.0
2023-12-19 11:52:10.044155,-69.0
2023-12-19 11:52:10.051844,-64.0
2023-12-19 11:52:10.059533,-57.0
2023-12-19 11:52:10.067222,-59.0
2023-12-19 11:52:10.074911,-59.0
2023-12-19 11:52:10.082600,-50.0
2023-12-19 11:52:10.090289,-47.0
2023-12-19 11:52:10.097977,-54.0
2023-12-19 11:52:10.105666,-57.0
2023-12-19 11:52:10.113355,-52.0
2023-12-19 11:52:10.121044,-45.0
2023-12-19 11:52:10.128733,-45.0
2023-12-19 11:52:10.136422,-54.0
2023-12-19 11:52:10.144111,-61.0
2023-12-19 11:52:10.151800,-52.0
2023-12-19 11:52:10.159488,-38.0
2023-12-19 11:52:10.167177,-33.0
2023-12-19 11:52:10.174866,-30.0
2023-12-19 11:52:10.182555,-28.0
2023-12-19 11:52:10.190244,-38.0
2023-12-19 11:52:10.197933,-61.0
2023-12-19 11:52:10.205622,-76.0
2023-12-19 11:52:10.213311,-61.0
2023-12-19 11:52:10.220999,-42.0
2023-12-19 11:52:10.228688,-40.0
2023-12-19 11:52:10.236377,-40.0
2023-12-19 11:52:10.244066,-26.0
2023-12-19 11:52:10.251755,-7.0
2023-12-19 11:52:10.259444,-4.0
2023-12-19 11:52:10.267133,-14.0
2023-12-19 11:52:10.274821,-30.0
2023-12-19 11:52:10.282510,-16.0
2023-12-19 11:52:10.290199,14.0
2023-12-19 11:52:10.297888,-66.0
2023-12-19 11:52:10.305577,-374.0
2023-12-19 11:52:10.313266,-791.0
2023-12-19 11:52:10.320955,-908.0
2023-12-19 11:52:10.328644,-433.0
2023-12-19 11:52:10.336332,174.0
2023-12-19 11:52:10.344021,278.0
2023-12-19 11:52:10.351710,88.0
2023-12-19 11:52:10.359399,64.0
2023-12-19 11:52:10.367088,95.0
2023-12-19 11:52:10.374777,47.0
2023-12-19 11:52:10.382466,26.0
2023-12-19 11:52:10.390155,42.0
2023-12-19 11:52:10.397843,35.0
2023-12-19 11:52:10.405532,14.0
2023-12-19 11:52:10.413221,11.0
2023-12-19 11:52:10.420910,16.0
2023-12-19 11:52:10.428599,11.0
2023-12-19 11:52:10.436288,4.0
2023-12-19 11:52:10.443977,2.0
2023-12-19 11:52:10.451665,-11.0
2023-12-19 11:52:10.459354,-23.0
2023-12-19 11:52:10.467043,-33.0
2023-12-19 11:52:10.474732,-50.0
2023-12-19 11:52:10.482421,-59.0
2023-12-19 11:52:10.490110,-64.0
2023-12-19 11:52:10.497799,-95.0
2023-12-19 11:52:10.505488,-135.0
2023-12-19 11:52:10.513176,-157.0
2023-12-19 11:52:10.520865,-150.0
2023-12-19 11:52:10.528554,-140.0
2023-12-19 11:52:10.536243,-135.0
2023-12-19 11:52:10.543932,-123.0
2023-12-19 11:52:10.551621,-112.0
2023-12-19 11:52:10.559310,-95.0
2023-12-19 11:52:10.566999,-69.0
2023-12-19 11:52:10.574687,-47.0
2023-12-19 11:52:10.582376,-33.0
2023-12-19 11:52:10.590065,-38.0
2023-12-19 11:52:10.597754,-59.0
2023-12-19 11:52:10.605443,-54.0
2023-12-19 11:52:10.613132,-30.0
2023-12-19 11:52:10.620821,-23.0
2023-12-19 11:52:10.628509,-26.0
2023-12-19 11:52:10.636198,-26.0
2023-12-19 11:52:10.643887,-26.0
2023-12-19 11:52:10.651576,-14.0
2023-12-19 11:52:10.659265,-7.0
2023-12-19 11:52:10.666954,-23.0
2023-12-19 11:52:10.674643,-42.0
2023-12-19 11:52:10.682332,-47.0
2023-12-19 11:52:10.690020,-52.0
2023-12-19 11:52:10.697709,-66.0
2023-12-19 11:52:10.705398,-71.0
2023-12-19 11:52:10.713087,-66.0
2023-12-19 11:52:10.720776,-69.0
2023-12-19 11:52:10.728465,-85.0
2023-12-19 11:52:10.736154,-90.0
2023-12-19 11:52:10.743843,-83.0
2023-12-19 11:52:10.751531,-85.0
2023-12-19 11:52:10.759220,-95.0
2023-12-19 11:52:10.766909,-90.0
2023-12-19 11:52:10.774598,-83.0
2023-12-19 11:52:10.782287,-90.0
2023-12-19 11:52:10.789976,-81.0
2023-12-19 11:52:10.797665,-64.0
2023-12-19 11:52:10.805353,-59.0
2023-12-19 11:52:10.813042,-64.0
2023-12-19 11:52:10.820731,-71.0
2023-12-19 11:52:10.828420,-59.0
2023-12-19 11:52:10.836109,-47.0
2023-12-19 11:52:10.843798,-57.0
2023-12-19 11:52:10.851487,-64.0
2023-12-19 11:52:10.859176,-66.0
2023-12-19 11:52:10.866864,-71.0
2023-12-19 11:52:10.874553,-57.0
2023-12-19 11:52:10.882242,-59.0
2023-12-19 11:52:10.889931,-90.0
2023-12-19 11:52:10.897620,-90.0
2023-12-19 11:52:10.905309,-71.0
2023-12-19 11:52:10.912998,-73.0
2023-12-19 11:52:10.920687,-90.0
2023-12-19 11:52:10.928375,-81.0
2023-12-19 11:52:10.936064,-50.0
2023-12-19 11:52:10.943753,-47.0
2023-12-19 11:52:10.951442,-81.0
2023-12-19 11:52:10.959131,-102.0
2023-12-19 11:52:10.966820,-97.0
2023-12-19 11:52:10.974509,-81.0
2023-12-19 11:52:10.982197,-69.0
2023-12-19 11:52:10.989886,-69.0
2023-12-19 11:52:10.997575,-61.0
2023-12-19 11:52:11.005264,-42.0
2023-12-19 11:52:11.012953,-47.0
2023-12-19 11:52:11.020642,-50.0
2023-12-19 11:52:11.028331,-33.0
2023-12-19 11:52:11.036020,-30.0
2023-12-19 11:52:11.043708,-30.0
2023-12-19 11:52:11.051397,-38.0
2023-12-19 11:52:11.059086,-224.0
2023-12-19 11:52:11.066775,-658.0
2023-12-19 11:52:11.074464,-989.0
2023-12-19 11:52:11.082153,-729.0
2023-12-19 11:52:11.089842,-16.0
2023-12-19 11:52:11.097531,333.0
2023-12-19 11:52:11.105219,128.0
2023-12-19 11:52:11.112908,9.0
2023-12-19 11:52:11.120597,88.0
2023-12-19 11:52:11.128286,45.0
2023-12-19 11:52:11.135975,-19.0
2023-12-19 11:52:11.143664,14.0
2023-12-19 11:52:11.151353,21.0
2023-12-19 11:52:11.159041,7.0
2023-12-19 11:52:11.166730,7.0
2023-12-19 11:52:11.174419,-4.0
2023-12-19 11:52:11.182108,-9.0
2023-12-19 11:52:11.189797,-2.0
2023-12-19 11:52:11.197486,0.0
2023-12-19 11:52:11.205175,-9.0
2023-12-19 11:52:11.212864,-28.0
2023-12-19 11:52:11.220552,-38.0
2023-12-19 11:52:11.228241,-38.0
2023-12-19 11:52:11.235930,-47.0
2023-12-19 11:52:11.243619,-73.0
2023-12-19 11:52:11.251308,-97.0
2023-12-19 11:52:11.258997,-114.0
2023-12-19 11:52:11.266686,-138.0
2023-12-19 11:52:11.274375,-154.0
2023-12-19 11:52:11.282063,-145.0
2023-12-19 11:52:11.289752,-131.0
2023-12-19 11:52:11.297441,-119.0
2023-12-19 11:52:11.305130,-88.0
2023-12-19 11:52:11.312819,-59.0
2023-12-19 11:52:11.320508,-47.0
2023-12-19 11:52:11.328197,-23.0
2023-12-19 11:52:11.335885,2.0
2023-12-19 11:52:11.343574,0.0
2023-12-19 11:52:11.351263,-4.0
2023-12-19 11:52:11.358952,19.0
2023-12-19 11:52:11.366641,33.0
2023-12-19 11:52:11.374330,26.0
2023-12-19 11:52:11.382019,16.0
2023-12-19 11:52:11.389708,9.0
2023-12-19 11:52:11.397396,9.0
2023-12-19 11:52:11.405085,16.0
2023-12-19 11:52:11.412774,11.0
2023-12-19 11:52:11.420463,4.0
2023-12-19 11:52:11.428152,0.0
2023-12-19 11:52:11.435841,2.0
2023-12-19 11:52:11.443530,-2.0
2023-12-19 11:52:11.451219,-7.0
2023-12-19 11:52:11.458907,-14.0
2023-12-19 11:52:11.466596,-30.0
2023-12-19 11:52:11.474285,-45.0
2023-12-19 11:52:11.481974,-47.0
2023-12-19 11:52:11.489663,-57.0
2023-12-19 11:52:11.497352,-69.0
2023-12-19 11:52:11.505041,-66.0
2023-12-19 11:52:11.512729,-66.0
2023-12-19 11:52:11.520418,-81.0
2023-12-19 11:52:11.528107,-81.0
2023-12-19 11:52:11.535796,-61.0
2023-12-19 11:52:11.543485,-50.0
2023-12-19 11:52:11.551174,-50.0
2023-12-19 11:52:11.558863,-54.0
2023-12-19 11:52:11.566552,-47.0
2023-12-19 11:52:11.574240,-40.0
2023-12-19 11:52:11.581929,-45.0
2023-12-19 11:52:11.589618,-52.0
2023-12-19 11:52:11.597307,-45.0
2023-12-19 11:52:11.604996,-38.0
2023-12-19 11:52:11.612685,-45.0
2023-12-19 11:52:11.620374,-52.0
2023-12-19 11:52:11.628063,-40.0
2023-12-19 11:52:11.635751,-30.0
2023-12-19 11:52:11.643440,-28.0
2023-12-19 11:52:11.651129,-26.0
2023-12-19 11:52:11.658818,-28.0
2023-12-19 11:52:11.666507,-45.0
2023-12-19 11:52:11.674196,-54.0
2023-12-19 11:52:11.681885,-40.0
2023-12-19 11:52:11.689573,-33.0
2023-12-19 11:52:11.697262,-30.0
2023-12-19 11:52:11.704951,-35.0
2023-12-19 11:52:11.712640,-59.0
2023-12-19 11:52:11.720329,-71.0
2023-12-19 11:52:11.728018,-45.0
2023-12-19 11:52:11.735707,-26.0
2023-12-19 11:52:11.743396,-23.0
2023-12-19 11:52:11.751084,-16.0
2023-12-19 11:52:11.758773,-19.0
2023-12-19 11:52:11.766462,-23.0
2023-12-19 11:52:11.774151,-4.0
2023-12-19 11:52:11.781840,9.0
2023-12-19 11:52:11.789529,2.0
2023-12-19 11:52:11.797218,4.0
2023-12-19 11:52:11.804907,30.0
2023-12-19 11:52:11.812595,2.0
2023-12-19 11:52:11.820284,-231.0
2023-12-19 11:52:11.827973,-667.0
2023-12-19 11:52:11.835662,-944.0
2023-12-19 11:52:11.843351,-612.0
2023-12-19 11:52:11.851040,64.0
2023-12-19 11:52:11.858729,314.0
2023-12-19 11:52:11.866417,138.0
2023-12-19 11:52:11.874106,92.0
2023-12-19 11:52:11.881795,154.0
2023-12-19 11:52:11.889484,107.0
2023-12-19 11:52:11.897173,71.0
2023-12-19 11:52:11.904862,95.0
2023-12-19 11:52:11.912551,95.0
2023-12-19 11:52:11.920240,85.0
2023-12-19 11:52:11.927928,83.0
2023-12-19 11:52:11.935617,78.0
2023-12-19 11:52:11.943306,73.0
2023-12-19 11:52:11.950995,78.0
2023-12-19 11:52:11.958684,85.0
2023-12-19 11:52:11.966373,81.0
2023-12-19 11:52:11.974062,59.0
2023-12-19 11:52:11.981751,45.0
2023-12-19 11:52:11.989439,42.0
2023-12-19 11:52:11.997128,28.0
2023-12-19 11:52:12.004817,4.0
2023-12-19 11:52:12.012506,-4.0
2023-12-19 11:52:12.020195,-16.0
2023-12-19 11:52:12.027884,-42.0
2023-12-19 11:52:12.035573,-50.0
2023-12-19 11:52:12.043261,-47.0
2023-12-19 11:52:12.050950,-47.0
2023-12-19 11:52:12.058639,-23.0
2023-12-19 11:52:12.066328,4.0
2023-12-19 11:52:12.074017,21.0
2023-12-19 11:52:12.081706,33.0
2023-12-19 11:52:12.089395,45.0
2023-12-19 11:52:12.097084,71.0
2023-12-19 11:52:12.104772,104.0
2023-12-19 11:52:12.112461,104.0
2023-12-19 11:52:12.120150,95.0
2023-12-19 11:52:12.127839,112.0
2023-12-19 11:52:12.135528,126.0
2023-12-19 11:52:12.143217,114.0
2023-12-19 11:52:12.150906,104.0
2023-12-19 11:52:12.158595,112.0
2023-12-19 11:52:12.166283,112.0
2023-12-19 11:52:12.173972,104.0
2023-12-19 11:52:12.181661,107.0
2023-12-19 11:52:12.189350,121.0
2023-12-19 11:52:12.197039,121.0
2023-12-19 11:52:12.204728,100.0
2023-12-19 11:52:12.212417,81.0
2023-12-19 11:52:12.220105,88.0
2023-12-19 11:52:12.227794,95.0
2023-12-19 11:52:12.235483,81.0
2023-12-19 11:52:12.243172,64.0
2023-12-19 11:52:12.250861,52.0
2023-12-19 11:52:12.258550,38.0
2023-12-19 11:52:12.266239,30.0
2023-12-19 11:52:12.273928,28.0
2023-12-19 11:52:12.281616,21.0
2023-12-19 11:52:12.289305,14.0
2023-12-19 11:52:12.296994,4.0
2023-12-19 11:52:12.304683,4.0
2023-12-19 11:52:12.312372,16.0
2023-12-19 11:52:12.320061,21.0
2023-12-19 11:52:12.327750,11.0
2023-12-19 11:52:12.335439,4.0
2023-12-19 11:52:12.343127,7.0
2023-12-19 11:52:12.350816,-7.0
2023-12-19 11:52:12.358505,-7.0
2023-12-19 11:52:12.366194,21.0
2023-12-19 11:52:12.373883,33.0
2023-12-19 11:52:12.381572,16.0
2023-12-19 11:52:12.389261,4.0
2023-12-19 11:52:12.396949,2.0
2023-12-19 11:52:12.404638,0.0
2023-12-19 11:52:12.412327,-2.0
2023-12-19 11:52:12.420016,-2.0
2023-12-19 11:52:12.427705,4.0
2023-12-19 11:52:12.435394,11.0
2023-12-19 11:52:12.443083,14.0
2023-12-19 11:52:12.450772,21.0
2023-12-19 11:52:12.458460,21.0
2023-12-19 11:52:12.466149,21.0
2023-12-19 11:52:12.473838,35.0
2023-12-19 11:52:12.481527,45.0
2023-12-19 11:52:12.489216,42.0
2023-12-19 11:52:12.496905,54.0
2023-12-19 11:52:12.504594,52.0
2023-12-19 11:52:12.512283,19.0
2023-12-19 11:52:12.519971,-4.0
2023-12-19 11:52:12.527660,4.0
2023-12-19 11:52:12.535349,28.0
2023-12-19 11:52:12.543038,45.0
2023-12-19 11:52:12.550727,47.0
2023-12-19 11:52:12.558416,47.0
2023-12-19 11:52:12.566105,59.0
2023-12-19 11:52:12.573793,47.0
2023-12-19 11:52:12.581482,19.0
2023-12-19 11:52:12.589171,19.0
2023-12-19 11:52:12.596860,47.0
2023-12-19 11:52:12.604549,66.0
2023-12-19 11:52:12.612238,-16.0
2023-12-19 11:52:12.619927,-314.0
2023-12-19 11:52:12.627616,-736.0
2023-12-19 11:52:12.635304,-853.0
2023-12-19 11:52:12.642993,-383.0
2023-12-19 11:52:12.650682,183.0
2023-12-19 11:52:12.658371,247.0
2023-12-19 11:52:12.666060,83.0
2023-12-19 11:52:12.673749,109.0
2023-12-19 11:52:12.681438,150.0
2023-12-19 11:52:12.689127,102.0
2023-12-19 11:52:12.696815,104.0
2023-12-19 11:52:12.704504,119.0
2023-12-19 11:52:12.712193,92.0
2023-12-19 11:52:12.719882,83.0
2023-12-19 11:52:12.727571,95.0
2023-12-19 11:52:12.735260,88.0
2023-12-19 11:52:12.742949,69.0
2023-12-19 11:52:12.750637,59.0
2023-12-19 11:52:12.758326,54.0
2023-12-19 11:52:12.766015,50.0
2023-12-19 11:52:12.773704,45.0
2023-12-19 11:52:12.781393,30.0
2023-12-19 11:52:12.789082,4.0
2023-12-19 11:52:12.796771,-30.0
2023-12-19 11:52:12.804460,-61.0
2023-12-19 11:52:12.812148,-81.0
2023-12-19 11:52:12.819837,-100.0
2023-12-19 11:52:12.827526,-128.0
2023-12-19 11:52:12.835215,-138.0
2023-12-19 11:52:12.842904,-123.0
2023-12-19 11:52:12.850593,-121.0
2023-12-19 11:52:12.858282,-116.0
2023-12-19 11:52:12.865971,-90.0
2023-12-19 11:52:12.873659,-64.0
2023-12-19 11:52:12.881348,-50.0
2023-12-19 11:52:12.889037,-33.0
2023-12-19 11:52:12.896726,-26.0
2023-12-19 11:52:12.904415,-21.0
2023-12-19 11:52:12.912104,-16.0
2023-12-19 11:52:12.919793,-14.0
2023-12-19 11:52:12.927481,-11.0
2023-12-19 11:52:12.935170,0.0
2023-12-19 11:52:12.942859,11.0
2023-12-19 11:52:12.950548,4.0
2023-12-19 11:52:12.958237,0.0
2023-12-19 11:52:12.965926,7.0
2023-12-19 11:52:12.973615,4.0
2023-12-19 11:52:12.981304,4.0
2023-12-19 11:52:12.988992,9.0
2023-12-19 11:52:12.996681,9.0
2023-12-19 11:52:13.004370,0.0
2023-12-19 11:52:13.012059,-11.0
2023-12-19 11:52:13.019748,-11.0
2023-12-19 11:52:13.027437,-4.0
2023-12-19 11:52:13.035126,-14.0
2023-12-19 11:52:13.042815,-30.0
2023-12-19 11:52:13.050503,-35.0
2023-12-19 11:52:13.058192,-35.0
2023-12-19 11:52:13.065881,-52.0
2023-12-19 11:52:13.073570,-69.0
2023-12-19 11:52:13.081259,-66.0
2023-12-19 11:52:13.088948,-61.0
2023-12-19 11:52:13.096637,-59.0
2023-12-19 11:52:13.104325,-54.0
2023-12-19 11:52:13.112014,-54.0
2023-12-19 11:52:13.119703,-57.0
2023-12-19 11:52:13.127392,-59.0
2023-12-19 11:52:13.135081,-57.0
2023-12-19 11:52:13.142770,-50.0
2023-12-19 11:52:13.150459,-45.0
2023-12-19 11:52:13.158148,-42.0
2023-12-19 11:52:13.165836,-40.0
2023-12-19 11:52:13.173525,-42.0
2023-12-19 11:52:13.181214,-35.0
2023-12-19 11:52:13.188903,-33.0
2023-12-19 11:52:13.196592,-42.0
2023-12-19 11:52:13.204281,-40.0
2023-12-19 11:52:13.211970,-35.0
2023-12-19 11:52:13.219659,-38.0
2023-12-19 11:52:13.227347,-35.0
2023-12-19 11:52:13.235036,-21.0
2023-12-19 11:52:13.242725,-19.0
2023-12-19 11:52:13.250414,-33.0
2023-12-19 11:52:13.258103,-28.0
2023-12-19 11:52:13.265792,-19.0
2023-12-19 11:52:13.273481,-19.0
2023-12-19 11:52:13.281169,-14.0
2023-12-19 11:52:13.288858,-9.0
2023-12-19 11:52:13.296547,-21.0
2023-12-19 11:52:13.304236,-38.0
2023-12-19 11:52:13.311925,-50.0
2023-12-19 11:52:13.319614,-59.0
2023-12-19 11:52:13.327303,-50.0
2023-12-19 11:52:13.334992,-28.0
2023-12-19 11:52:13.342680,-21.0
2023-12-19 11:52:13.350369,-23.0
2023-12-19 11:52:13.358058,-21.0
2023-12-19 11:52:13.365747,-23.0
2023-12-19 11:52:13.373436,-40.0
2023-12-19 11:52:13.381125,-54.0
2023-12-19 11:52:13.388814,-38.0
2023-12-19 11:52:13.396503,-9.0
2023-12-19 11:52:13.404191,-83.0
2023-12-19 11:52:13.411880,-381.0
2023-12-19 11:52:13.419569,-815.0
2023-12-19 11:52:13.427258,-984.0
2023-12-19 11:52:13.434947,-567.0
2023-12-19 11:52:13.442636,73.0
2023-12-19 11:52:13.450325,250.0
2023-12-19 11:52:13.458013,59.0
2023-12-19 11:52:13.465702,14.0
2023-12-19 11:52:13.473391,64.0
2023-12-19 11:52:13.481080,33.0
2023-12-19 11:52:13.488769,21.0
2023-12-19 11:52:13.496458,42.0
2023-12-19 11:52:13.504147,28.0
2023-12-19 11:52:13.511836,4.0
2023-12-19 11:52:13.519524,9.0
2023-12-19 11:52:13.527213,11.0
2023-12-19 11:52:13.534902,-2.0
2023-12-19 11:52:13.542591,-2.0
2023-12-19 11:52:13.550280,2.0
2023-12-19 11:52:13.557969,-14.0
2023-12-19 11:52:13.565658,-35.0
2023-12-19 11:52:13.573347,-42.0
2023-12-19 11:52:13.581035,-50.0
2023-12-19 11:52:13.588724,-66.0
2023-12-19 11:52:13.596413,-97.0
2023-12-19 11:52:13.604102,-128.0
2023-12-19 11:52:13.611791,-140.0
2023-12-19 11:52:13.619480,-143.0
2023-12-19 11:52:13.627169,-159.0
2023-12-19 11:52:13.634857,-162.0
2023-12-19 11:52:13.642546,-145.0
2023-12-19 11:52:13.650235,-123.0
2023-12-19 11:52:13.657924,-97.0
2023-12-19 11:52:13.665613,-81.0
2023-12-19 11:52:13.673302,-64.0
2023-12-19 11:52:13.680991,-38.0
2023-12-19 11:52:13.688680,-19.0
2023-12-19 11:52:13.696368,-2.0
2023-12-19 11:52:13.704057,21.0
2023-12-19 11:52:13.711746,26.0
2023-12-19 11:52:13.719435,23.0
2023-12-19 11:52:13.727124,26.0
2023-12-19 11:52:13.734813,16.0
2023-12-19 11:52:13.742502,9.0
2023-12-19 11:52:13.750191,16.0
2023-12-19 11:52:13.757879,28.0
2023-12-19 11:52:13.765568,38.0
2023-12-19 11:52:13.773257,35.0
2023-12-19 11:52:13.780946,16.0
2023-12-19 11:52:13.788635,9.0
2023-12-19 11:52:13.796324,14.0
2023-12-19 11:52:13.804013,-7.0
2023-12-19 11:52:13.811701,-38.0
2023-12-19 11:52:13.819390,-40.0
2023-12-19 11:52:13.827079,-42.0
2023-12-19 11:52:13.834768,-54.0
2023-12-19 11:52:13.842457,-59.0
2023-12-19 11:52:13.850146,-61.0
2023-12-19 11:52:13.857835,-61.0
2023-12-19 11:52:13.865524,-69.0
2023-12-19 11:52:13.873212,-76.0
2023-12-19 11:52:13.880901,-76.0
2023-12-19 11:52:13.888590,-64.0
2023-12-19 11:52:13.896279,-61.0
2023-12-19 11:52:13.903968,-76.0
2023-12-19 11:52:13.911657,-92.0
2023-12-19 11:52:13.919346,-131.0
2023-12-19 11:52:13.927035,-143.0
2023-12-19 11:52:13.934723,-114.0
2023-12-19 11:52:13.942412,-100.0
2023-12-19 11:52:13.950101,-102.0
2023-12-19 11:52:13.957790,-97.0
2023-12-19 11:52:13.965479,-90.0
2023-12-19 11:52:13.973168,-88.0
2023-12-19 11:52:13.980857,-85.0
2023-12-19 11:52:13.988545,-78.0
2023-12-19 11:52:13.996234,-66.0
2023-12-19 11:52:14.003923,-69.0
2023-12-19 11:52:14.011612,-73.0
2023-12-19 11:52:14.019301,-59.0
2023-12-19 11:52:14.026990,-45.0
2023-12-19 11:52:14.034679,-45.0
2023-12-19 11:52:14.042368,-50.0
2023-12-19 11:52:14.050056,-69.0
2023-12-19 11:52:14.057745,-92.0
2023-12-19 11:52:14.065434,-90.0
2023-12-19 11:52:14.073123,-64.0
2023-12-19 11:52:14.080812,-45.0
2023-12-19 11:52:14.088501,-47.0
2023-12-19 11:52:14.096190,-52.0
2023-12-19 11:52:14.103879,-52.0
2023-12-19 11:52:14.111567,-40.0
2023-12-19 11:52:14.119256,-30.0
2023-12-19 11:52:14.126945,-26.0
2023-12-19 11:52:14.134634,-11.0
2023-12-19 11:52:14.142323,-7.0
2023-12-19 11:52:14.150012,-92.0
2023-12-19 11:52:14.157701,-371.0
2023-12-19 11:52:14.165389,-798.0
2023-12-19 11:52:14.173078,-963.0
2023-12-19 11:52:14.180767,-495.0
2023-12-19 11:52:14.188456,143.0
2023-12-19 11:52:14.196145,259.0
2023-12-19 11:52:14.203834,69.0
2023-12-19 11:52:14.211523,61.0
2023-12-19 11:52:14.219212,116.0
2023-12-19 11:52:14.226900,69.0
2023-12-19 11:52:14.234589,47.0
2023-12-19 11:52:14.242278,66.0
2023-12-19 11:52:14.249967,59.0
2023-12-19 11:52:14.257656,47.0
2023-12-19 11:52:14.265345,52.0
2023-12-19 11:52:14.273034,52.0
2023-12-19 11:52:14.280723,40.0
2023-12-19 11:52:14.288411,35.0
2023-12-19 11:52:14.296100,28.0
2023-12-19 11:52:14.303789,14.0
2023-12-19 11:52:14.311478,4.0
2023-12-19 11:52:14.319167,-2.0
2023-12-19 11:52:14.326856,-26.0
2023-12-19 11:52:14.334545,-47.0
2023-12-19 11:52:14.342233,-59.0
2023-12-19 11:52:14.349922,-78.0
2023-12-19 11:52:14.357611,-100.0
2023-12-19 11:52:14.365300,-112.0
2023-12-19 11:52:14.372989,-119.0
2023-12-19 11:52:14.380678,-119.0
2023-12-19 11:52:14.388367,-114.0
2023-12-19 11:52:14.396056,-97.0
2023-12-19 11:52:14.403744,-78.0
2023-12-19 11:52:14.411433,-64.0
2023-12-19 11:52:14.419122,-59.0
2023-12-19 11:52:14.426811,-40.0
2023-12-19 11:52:14.434500,-4.0
2023-12-19 11:52:14.442189,19.0
2023-12-19 11:52:14.449878,16.0
2023-12-19 11:52:14.457567,11.0
2023-12-19 11:52:14.465255,14.0
2023-12-19 11:52:14.472944,21.0
2023-12-19 11:52:14.480633,30.0
2023-12-19 11:52:14.488322,38.0
2023-12-19 11:52:14.496011,33.0
2023-12-19 11:52:14.503700,16.0
2023-12-19 11:52:14.511389,-4.0
2023-12-19 11:52:14.519077,-26.0
2023-12-19 11:52:14.526766,-26.0
2023-12-19 11:52:14.534455,-11.0
