time,ECG
2023-08-15 18:10:04.028807,-157.0
2023-08-15 18:10:04.036497,-154.0
2023-08-15 18:10:04.044186,-149.0
2023-08-15 18:10:04.051876,-145.0
2023-08-15 18:10:04.059566,-142.0
2023-08-15 18:10:04.067255,-138.0
2023-08-15 18:10:04.074945,-135.0
2023-08-15 18:10:04.082635,-135.0
2023-08-15 18:10:04.090324,-135.0
2023-08-15 18:10:04.098014,-133.0
2023-08-15 18:10:04.105703,-133.0
2023-08-15 18:10:04.113393,-130.0
2023-08-15 18:10:04.121083,-133.0
2023-08-15 18:10:04.128772,-133.0
2023-08-15 18:10:04.136462,-130.0
2023-08-15 18:10:04.144151,-128.0
2023-08-15 18:10:04.151841,-126.0
2023-08-15 18:10:04.159531,-123.0
2023-08-15 18:10:04.167220,-123.0
2023-08-15 18:10:04.174910,-123.0
2023-08-15 18:10:04.182600,-119.0
2023-08-15 18:10:04.190289,-119.0
2023-08-15 18:10:04.197979,-116.0
2023-08-15 18:10:04.205668,-111.0
2023-08-15 18:10:04.213358,-109.0
2023-08-15 18:10:04.221048,-102.0
2023-08-15 18:10:04.228737,-90.0
2023-08-15 18:10:04.236427,-83.0
2023-08-15 18:10:04.244116,-71.0
2023-08-15 18:10:04.251806,-59.0
2023-08-15 18:10:04.259496,-61.0
2023-08-15 18:10:04.267185,-76.0
2023-08-15 18:10:04.274875,-97.0
2023-08-15 18:10:04.282565,-109.0
2023-08-15 18:10:04.290254,-102.0
2023-08-15 18:10:04.297944,-99.0
2023-08-15 18:10:04.305633,-99.0
2023-08-15 18:10:04.313323,-90.0
2023-08-15 18:10:04.321013,-30.0
2023-08-15 18:10:04.328702,152.0
2023-08-15 18:10:04.336392,430.0
2023-08-15 18:10:04.344081,490.0
2023-08-15 18:10:04.351771,116.0
2023-08-15 18:10:04.359461,-416.0
2023-08-15 18:10:04.367150,-580.0
2023-08-15 18:10:04.374840,-297.0
2023-08-15 18:10:04.382530,-64.0
2023-08-15 18:10:04.390219,-90.0
2023-08-15 18:10:04.397909,-111.0
2023-08-15 18:10:04.405598,-69.0
2023-08-15 18:10:04.413288,-69.0
2023-08-15 18:10:04.420978,-80.0
2023-08-15 18:10:04.428667,-61.0
2023-08-15 18:10:04.436357,-49.0
2023-08-15 18:10:04.444046,-45.0
2023-08-15 18:10:04.451736,-30.0
2023-08-15 18:10:04.459426,-14.0
2023-08-15 18:10:04.467115,-4.0
2023-08-15 18:10:04.474805,9.0
2023-08-15 18:10:04.482495,23.0
2023-08-15 18:10:04.490184,38.0
2023-08-15 18:10:04.497874,57.0
2023-08-15 18:10:04.505563,78.0
2023-08-15 18:10:04.513253,95.0
2023-08-15 18:10:04.520943,109.0
2023-08-15 18:10:04.528632,126.0
2023-08-15 18:10:04.536322,145.0
2023-08-15 18:10:04.544011,161.0
2023-08-15 18:10:04.551701,171.0
2023-08-15 18:10:04.559391,171.0
2023-08-15 18:10:04.567080,161.0
2023-08-15 18:10:04.574770,142.0
2023-08-15 18:10:04.582460,109.0
2023-08-15 18:10:04.590149,61.0
2023-08-15 18:10:04.597839,2.0
2023-08-15 18:10:04.605528,-52.0
2023-08-15 18:10:04.613218,-97.0
2023-08-15 18:10:04.620908,-133.0
2023-08-15 18:10:04.628597,-157.0
2023-08-15 18:10:04.636287,-169.0
2023-08-15 18:10:04.643976,-176.0
2023-08-15 18:10:04.651666,-180.0
2023-08-15 18:10:04.659356,-183.0
2023-08-15 18:10:04.667045,-183.0
2023-08-15 18:10:04.674735,-178.0
2023-08-15 18:10:04.682425,-171.0
2023-08-15 18:10:04.690114,-164.0
2023-08-15 18:10:04.697804,-161.0
2023-08-15 18:10:04.705493,-157.0
2023-08-15 18:10:04.713183,-152.0
2023-08-15 18:10:04.720873,-145.0
2023-08-15 18:10:04.728562,-140.0
2023-08-15 18:10:04.736252,-135.0
2023-08-15 18:10:04.743941,-133.0
2023-08-15 18:10:04.751631,-128.0
2023-08-15 18:10:04.759321,-121.0
2023-08-15 18:10:04.767010,-116.0
2023-08-15 18:10:04.774700,-114.0
2023-08-15 18:10:04.782390,-111.0
2023-08-15 18:10:04.790079,-114.0
2023-08-15 18:10:04.797769,-116.0
2023-08-15 18:10:04.805458,-116.0
2023-08-15 18:10:04.813148,-114.0
2023-08-15 18:10:04.820838,-111.0
2023-08-15 18:10:04.828527,-111.0
2023-08-15 18:10:04.836217,-111.0
2023-08-15 18:10:04.843906,-114.0
2023-08-15 18:10:04.851596,-111.0
2023-08-15 18:10:04.859286,-107.0
2023-08-15 18:10:04.866975,-109.0
2023-08-15 18:10:04.874665,-114.0
2023-08-15 18:10:04.882355,-114.0
2023-08-15 18:10:04.890044,-111.0
2023-08-15 18:10:04.897734,-109.0
2023-08-15 18:10:04.905423,-107.0
2023-08-15 18:10:04.913113,-102.0
2023-08-15 18:10:04.920803,-99.0
2023-08-15 18:10:04.928492,-102.0
2023-08-15 18:10:04.936182,-99.0
2023-08-15 18:10:04.943871,-95.0
2023-08-15 18:10:04.951561,-90.0
2023-08-15 18:10:04.959251,-88.0
2023-08-15 18:10:04.966940,-88.0
2023-08-15 18:10:04.974630,-80.0
2023-08-15 18:10:04.982320,-61.0
2023-08-15 18:10:04.990009,-42.0
2023-08-15 18:10:04.997699,-40.0
2023-08-15 18:10:05.005388,-42.0
2023-08-15 18:10:05.013078,-38.0
2023-08-15 18:10:05.020768,-35.0
2023-08-15 18:10:05.028457,-59.0
2023-08-15 18:10:05.036147,-83.0
2023-08-15 18:10:05.043836,-85.0
2023-08-15 18:10:05.051526,-83.0
2023-08-15 18:10:05.059216,-92.0
2023-08-15 18:10:05.066905,-102.0
2023-08-15 18:10:05.074595,-90.0
2023-08-15 18:10:05.082285,-28.0
2023-08-15 18:10:05.089974,149.0
2023-08-15 18:10:05.097664,426.0
2023-08-15 18:10:05.105353,507.0
2023-08-15 18:10:05.113043,147.0
2023-08-15 18:10:05.120733,-385.0
2023-08-15 18:10:05.128422,-552.0
2023-08-15 18:10:05.136112,-278.0
2023-08-15 18:10:05.143801,-61.0
2023-08-15 18:10:05.151491,-85.0
2023-08-15 18:10:05.159181,-97.0
2023-08-15 18:10:05.166870,-59.0
2023-08-15 18:10:05.174560,-64.0
2023-08-15 18:10:05.182250,-69.0
2023-08-15 18:10:05.189939,-47.0
2023-08-15 18:10:05.197629,-40.0
2023-08-15 18:10:05.205318,-40.0
2023-08-15 18:10:05.213008,-26.0
2023-08-15 18:10:05.220698,-7.0
2023-08-15 18:10:05.228387,2.0
2023-08-15 18:10:05.236077,14.0
2023-08-15 18:10:05.243766,30.0
2023-08-15 18:10:05.251456,47.0
2023-08-15 18:10:05.259146,61.0
2023-08-15 18:10:05.266835,73.0
2023-08-15 18:10:05.274525,90.0
2023-08-15 18:10:05.282215,114.0
2023-08-15 18:10:05.289904,135.0
2023-08-15 18:10:05.297594,152.0
2023-08-15 18:10:05.305283,169.0
2023-08-15 18:10:05.312973,178.0
2023-08-15 18:10:05.320663,185.0
2023-08-15 18:10:05.328352,183.0
2023-08-15 18:10:05.336042,164.0
2023-08-15 18:10:05.343731,130.0
2023-08-15 18:10:05.351421,83.0
2023-08-15 18:10:05.359111,19.0
2023-08-15 18:10:05.366800,-42.0
2023-08-15 18:10:05.374490,-88.0
2023-08-15 18:10:05.382180,-128.0
2023-08-15 18:10:05.389869,-161.0
2023-08-15 18:10:05.397559,-178.0
2023-08-15 18:10:05.405248,-180.0
2023-08-15 18:10:05.412938,-180.0
2023-08-15 18:10:05.420628,-180.0
2023-08-15 18:10:05.428317,-180.0
2023-08-15 18:10:05.436007,-178.0
2023-08-15 18:10:05.443696,-171.0
2023-08-15 18:10:05.451386,-166.0
2023-08-15 18:10:05.459076,-159.0
2023-08-15 18:10:05.466765,-149.0
2023-08-15 18:10:05.474455,-145.0
2023-08-15 18:10:05.482145,-140.0
2023-08-15 18:10:05.489834,-130.0
2023-08-15 18:10:05.497524,-123.0
2023-08-15 18:10:05.505213,-123.0
2023-08-15 18:10:05.512903,-121.0
2023-08-15 18:10:05.520593,-116.0
2023-08-15 18:10:05.528282,-114.0
2023-08-15 18:10:05.535972,-109.0
2023-08-15 18:10:05.543661,-102.0
2023-08-15 18:10:05.551351,-102.0
2023-08-15 18:10:05.559041,-107.0
2023-08-15 18:10:05.566730,-109.0
2023-08-15 18:10:05.574420,-109.0
2023-08-15 18:10:05.582110,-104.0
2023-08-15 18:10:05.589799,-104.0
2023-08-15 18:10:05.597489,-111.0
2023-08-15 18:10:05.605178,-114.0
2023-08-15 18:10:05.612868,-107.0
2023-08-15 18:10:05.620558,-107.0
2023-08-15 18:10:05.628247,-107.0
2023-08-15 18:10:05.635937,-99.0
2023-08-15 18:10:05.643626,-104.0
2023-08-15 18:10:05.651316,-114.0
2023-08-15 18:10:05.659006,-114.0
2023-08-15 18:10:05.666695,-109.0
2023-08-15 18:10:05.674385,-107.0
2023-08-15 18:10:05.682075,-102.0
2023-08-15 18:10:05.689764,-99.0
2023-08-15 18:10:05.697454,-102.0
2023-08-15 18:10:05.705143,-95.0
2023-08-15 18:10:05.712833,-90.0
2023-08-15 18:10:05.720523,-90.0
2023-08-15 18:10:05.728212,-88.0
2023-08-15 18:10:05.735902,-83.0
2023-08-15 18:10:05.743591,-73.0
2023-08-15 18:10:05.751281,-61.0
2023-08-15 18:10:05.758971,-54.0
2023-08-15 18:10:05.766660,-42.0
2023-08-15 18:10:05.774350,-35.0
2023-08-15 18:10:05.782040,-40.0
2023-08-15 18:10:05.789729,-64.0
2023-08-15 18:10:05.797419,-92.0
2023-08-15 18:10:05.805108,-97.0
2023-08-15 18:10:05.812798,-85.0
2023-08-15 18:10:05.820488,-85.0
2023-08-15 18:10:05.828177,-85.0
2023-08-15 18:10:05.835867,-52.0
2023-08-15 18:10:05.843556,78.0
2023-08-15 18:10:05.851246,342.0
2023-08-15 18:10:05.858936,545.0
2023-08-15 18:10:05.866625,352.0
2023-08-15 18:10:05.874315,-190.0
2023-08-15 18:10:05.882005,-568.0
2023-08-15 18:10:05.889694,-452.0
2023-08-15 18:10:05.897384,-166.0
2023-08-15 18:10:05.905073,-92.0
2023-08-15 18:10:05.912763,-116.0
2023-08-15 18:10:05.920453,-83.0
2023-08-15 18:10:05.928142,-69.0
2023-08-15 18:10:05.935832,-85.0
2023-08-15 18:10:05.943521,-71.0
2023-08-15 18:10:05.951211,-47.0
2023-08-15 18:10:05.958901,-42.0
2023-08-15 18:10:05.966590,-35.0
2023-08-15 18:10:05.974280,-21.0
2023-08-15 18:10:05.981970,-11.0
2023-08-15 18:10:05.989659,0.0
2023-08-15 18:10:05.997349,19.0
2023-08-15 18:10:06.005038,35.0
2023-08-15 18:10:06.012728,52.0
2023-08-15 18:10:06.020418,69.0
2023-08-15 18:10:06.028107,88.0
2023-08-15 18:10:06.035797,114.0
2023-08-15 18:10:06.043486,135.0
2023-08-15 18:10:06.051176,154.0
2023-08-15 18:10:06.058866,176.0
2023-08-15 18:10:06.066555,195.0
2023-08-15 18:10:06.074245,202.0
2023-08-15 18:10:06.081935,199.0
2023-08-15 18:10:06.089624,183.0
2023-08-15 18:10:06.097314,154.0
2023-08-15 18:10:06.105003,109.0
2023-08-15 18:10:06.112693,52.0
2023-08-15 18:10:06.120383,-9.0
2023-08-15 18:10:06.128072,-64.0
2023-08-15 18:10:06.135762,-109.0
2023-08-15 18:10:06.143451,-140.0
2023-08-15 18:10:06.151141,-159.0
2023-08-15 18:10:06.158831,-171.0
2023-08-15 18:10:06.166520,-176.0
2023-08-15 18:10:06.174210,-176.0
2023-08-15 18:10:06.181900,-176.0
2023-08-15 18:10:06.189589,-180.0
2023-08-15 18:10:06.197279,-180.0
2023-08-15 18:10:06.204968,-169.0
2023-08-15 18:10:06.212658,-164.0
2023-08-15 18:10:06.220348,-159.0
2023-08-15 18:10:06.228037,-147.0
2023-08-15 18:10:06.235727,-142.0
2023-08-15 18:10:06.243416,-140.0
2023-08-15 18:10:06.251106,-130.0
2023-08-15 18:10:06.258796,-121.0
2023-08-15 18:10:06.266485,-116.0
2023-08-15 18:10:06.274175,-114.0
2023-08-15 18:10:06.281865,-111.0
2023-08-15 18:10:06.289554,-109.0
2023-08-15 18:10:06.297244,-104.0
2023-08-15 18:10:06.304933,-102.0
2023-08-15 18:10:06.312623,-109.0
2023-08-15 18:10:06.320313,-109.0
2023-08-15 18:10:06.328002,-104.0
2023-08-15 18:10:06.335692,-107.0
2023-08-15 18:10:06.343381,-114.0
2023-08-15 18:10:06.351071,-111.0
2023-08-15 18:10:06.358761,-107.0
2023-08-15 18:10:06.366450,-107.0
2023-08-15 18:10:06.374140,-107.0
2023-08-15 18:10:06.381830,-104.0
2023-08-15 18:10:06.389519,-107.0
2023-08-15 18:10:06.397209,-107.0
2023-08-15 18:10:06.404898,-102.0
2023-08-15 18:10:06.412588,-107.0
2023-08-15 18:10:06.420278,-109.0
2023-08-15 18:10:06.427967,-102.0
2023-08-15 18:10:06.435657,-95.0
2023-08-15 18:10:06.443346,-95.0
2023-08-15 18:10:06.451036,-97.0
2023-08-15 18:10:06.458726,-97.0
2023-08-15 18:10:06.466415,-92.0
2023-08-15 18:10:06.474105,-88.0
2023-08-15 18:10:06.481795,-85.0
2023-08-15 18:10:06.489484,-88.0
2023-08-15 18:10:06.497174,-88.0
2023-08-15 18:10:06.504863,-85.0
2023-08-15 18:10:06.512553,-78.0
2023-08-15 18:10:06.520243,-71.0
2023-08-15 18:10:06.527932,-69.0
2023-08-15 18:10:06.535622,-59.0
2023-08-15 18:10:06.543311,-47.0
2023-08-15 18:10:06.551001,-47.0
2023-08-15 18:10:06.558691,-64.0
2023-08-15 18:10:06.566380,-90.0
2023-08-15 18:10:06.574070,-102.0
2023-08-15 18:10:06.581760,-95.0
2023-08-15 18:10:06.589449,-95.0
2023-08-15 18:10:06.597139,-97.0
2023-08-15 18:10:06.604828,-78.0
2023-08-15 18:10:06.612518,11.0
2023-08-15 18:10:06.620208,247.0
2023-08-15 18:10:06.627897,518.0
2023-08-15 18:10:06.635587,471.0
2023-08-15 18:10:06.643276,-11.0
2023-08-15 18:10:06.650966,-509.0
2023-08-15 18:10:06.658656,-533.0
2023-08-15 18:10:06.666345,-223.0
2023-08-15 18:10:06.674035,-71.0
2023-08-15 18:10:06.681725,-102.0
2023-08-15 18:10:06.689414,-85.0
2023-08-15 18:10:06.697104,-52.0
2023-08-15 18:10:06.704793,-61.0
2023-08-15 18:10:06.712483,-59.0
2023-08-15 18:10:06.720173,-40.0
2023-08-15 18:10:06.727862,-42.0
2023-08-15 18:10:06.735552,-45.0
2023-08-15 18:10:06.743241,-26.0
2023-08-15 18:10:06.750931,-14.0
2023-08-15 18:10:06.758621,-4.0
2023-08-15 18:10:06.766310,9.0
2023-08-15 18:10:06.774000,28.0
2023-08-15 18:10:06.781690,42.0
2023-08-15 18:10:06.789379,64.0
2023-08-15 18:10:06.797069,85.0
2023-08-15 18:10:06.804758,109.0
2023-08-15 18:10:06.812448,133.0
2023-08-15 18:10:06.820138,154.0
2023-08-15 18:10:06.827827,176.0
2023-08-15 18:10:06.835517,188.0
2023-08-15 18:10:06.843206,197.0
2023-08-15 18:10:06.850896,202.0
2023-08-15 18:10:06.858586,195.0
2023-08-15 18:10:06.866275,171.0
2023-08-15 18:10:06.873965,130.0
2023-08-15 18:10:06.881655,78.0
2023-08-15 18:10:06.889344,14.0
2023-08-15 18:10:06.897034,-52.0
2023-08-15 18:10:06.904723,-104.0
2023-08-15 18:10:06.912413,-138.0
2023-08-15 18:10:06.920103,-164.0
2023-08-15 18:10:06.927792,-176.0
2023-08-15 18:10:06.935482,-180.0
2023-08-15 18:10:06.943171,-180.0
2023-08-15 18:10:06.950861,-180.0
2023-08-15 18:10:06.958551,-178.0
2023-08-15 18:10:06.966240,-176.0
2023-08-15 18:10:06.973930,-169.0
2023-08-15 18:10:06.981620,-161.0
2023-08-15 18:10:06.989309,-154.0
2023-08-15 18:10:06.996999,-149.0
2023-08-15 18:10:07.004688,-142.0
2023-08-15 18:10:07.012378,-138.0
2023-08-15 18:10:07.020068,-130.0
2023-08-15 18:10:07.027757,-121.0
2023-08-15 18:10:07.035447,-116.0
2023-08-15 18:10:07.043136,-116.0
2023-08-15 18:10:07.050826,-114.0
2023-08-15 18:10:07.058516,-111.0
2023-08-15 18:10:07.066205,-111.0
2023-08-15 18:10:07.073895,-111.0
2023-08-15 18:10:07.081585,-114.0
2023-08-15 18:10:07.089274,-116.0
2023-08-15 18:10:07.096964,-116.0
2023-08-15 18:10:07.104653,-114.0
2023-08-15 18:10:07.112343,-111.0
2023-08-15 18:10:07.120033,-111.0
2023-08-15 18:10:07.127722,-114.0
2023-08-15 18:10:07.135412,-114.0
2023-08-15 18:10:07.143101,-116.0
2023-08-15 18:10:07.150791,-116.0
2023-08-15 18:10:07.158481,-116.0
2023-08-15 18:10:07.166170,-116.0
2023-08-15 18:10:07.173860,-116.0
2023-08-15 18:10:07.181550,-119.0
2023-08-15 18:10:07.189239,-119.0
2023-08-15 18:10:07.196929,-114.0
2023-08-15 18:10:07.204618,-111.0
2023-08-15 18:10:07.212308,-111.0
2023-08-15 18:10:07.219998,-109.0
2023-08-15 18:10:07.227687,-109.0
2023-08-15 18:10:07.235377,-111.0
2023-08-15 18:10:07.243066,-109.0
2023-08-15 18:10:07.250756,-104.0
2023-08-15 18:10:07.258446,-102.0
2023-08-15 18:10:07.266135,-104.0
2023-08-15 18:10:07.273825,-104.0
2023-08-15 18:10:07.281515,-99.0
2023-08-15 18:10:07.289204,-97.0
2023-08-15 18:10:07.296894,-95.0
2023-08-15 18:10:07.304583,-92.0
2023-08-15 18:10:07.312273,-92.0
2023-08-15 18:10:07.319963,-92.0
2023-08-15 18:10:07.327652,-85.0
2023-08-15 18:10:07.335342,-76.0
2023-08-15 18:10:07.343031,-66.0
2023-08-15 18:10:07.350721,-61.0
2023-08-15 18:10:07.358411,-64.0
2023-08-15 18:10:07.366100,-78.0
2023-08-15 18:10:07.373790,-99.0
2023-08-15 18:10:07.381480,-107.0
2023-08-15 18:10:07.389169,-104.0
2023-08-15 18:10:07.396859,-107.0
2023-08-15 18:10:07.404548,-109.0
2023-08-15 18:10:07.412238,-95.0
2023-08-15 18:10:07.419928,0.0
2023-08-15 18:10:07.427617,247.0
2023-08-15 18:10:07.435307,504.0
2023-08-15 18:10:07.442996,433.0
2023-08-15 18:10:07.450686,-35.0
2023-08-15 18:10:07.458376,-516.0
2023-08-15 18:10:07.466065,-523.0
2023-08-15 18:10:07.473755,-166.0
2023-08-15 18:10:07.481445,-21.0
2023-08-15 18:10:07.489134,-104.0
2023-08-15 18:10:07.496824,-92.0
2023-08-15 18:10:07.504513,-47.0
2023-08-15 18:10:07.512203,-69.0
2023-08-15 18:10:07.519893,-69.0
2023-08-15 18:10:07.527582,-42.0
2023-08-15 18:10:07.535272,-38.0
2023-08-15 18:10:07.542961,-38.0
2023-08-15 18:10:07.550651,-21.0
2023-08-15 18:10:07.558341,-7.0
2023-08-15 18:10:07.566030,2.0
2023-08-15 18:10:07.573720,14.0
2023-08-15 18:10:07.581410,28.0
2023-08-15 18:10:07.589099,45.0
2023-08-15 18:10:07.596789,66.0
2023-08-15 18:10:07.604478,85.0
2023-08-15 18:10:07.612168,107.0
2023-08-15 18:10:07.619858,133.0
2023-08-15 18:10:07.627547,154.0
2023-08-15 18:10:07.635237,173.0
2023-08-15 18:10:07.642926,192.0
2023-08-15 18:10:07.650616,207.0
2023-08-15 18:10:07.658306,209.0
2023-08-15 18:10:07.665995,204.0
2023-08-15 18:10:07.673685,185.0
2023-08-15 18:10:07.681375,147.0
2023-08-15 18:10:07.689064,97.0
2023-08-15 18:10:07.696754,35.0
2023-08-15 18:10:07.704443,-26.0
2023-08-15 18:10:07.712133,-76.0
2023-08-15 18:10:07.719823,-114.0
2023-08-15 18:10:07.727512,-140.0
2023-08-15 18:10:07.735202,-154.0
2023-08-15 18:10:07.742891,-161.0
2023-08-15 18:10:07.750581,-164.0
2023-08-15 18:10:07.758271,-166.0
2023-08-15 18:10:07.765960,-166.0
2023-08-15 18:10:07.773650,-159.0
2023-08-15 18:10:07.781340,-154.0
2023-08-15 18:10:07.789029,-152.0
2023-08-15 18:10:07.796719,-147.0
2023-08-15 18:10:07.804408,-140.0
2023-08-15 18:10:07.812098,-133.0
2023-08-15 18:10:07.819788,-130.0
2023-08-15 18:10:07.827477,-128.0
2023-08-15 18:10:07.835167,-123.0
2023-08-15 18:10:07.842856,-119.0
2023-08-15 18:10:07.850546,-116.0
2023-08-15 18:10:07.858236,-116.0
2023-08-15 18:10:07.865925,-116.0
2023-08-15 18:10:07.873615,-114.0
2023-08-15 18:10:07.881305,-111.0
2023-08-15 18:10:07.888994,-111.0
2023-08-15 18:10:07.896684,-116.0
2023-08-15 18:10:07.904373,-121.0
2023-08-15 18:10:07.912063,-119.0
2023-08-15 18:10:07.919753,-116.0
2023-08-15 18:10:07.927442,-116.0
2023-08-15 18:10:07.935132,-119.0
2023-08-15 18:10:07.942821,-123.0
2023-08-15 18:10:07.950511,-130.0
2023-08-15 18:10:07.958201,-126.0
2023-08-15 18:10:07.965890,-123.0
2023-08-15 18:10:07.973580,-123.0
2023-08-15 18:10:07.981270,-121.0
2023-08-15 18:10:07.988959,-119.0
2023-08-15 18:10:07.996649,-119.0
2023-08-15 18:10:08.004338,-116.0
2023-08-15 18:10:08.012028,-111.0
2023-08-15 18:10:08.019718,-111.0
2023-08-15 18:10:08.027407,-109.0
2023-08-15 18:10:08.035097,-107.0
2023-08-15 18:10:08.042786,-104.0
2023-08-15 18:10:08.050476,-102.0
2023-08-15 18:10:08.058166,-102.0
2023-08-15 18:10:08.065855,-102.0
2023-08-15 18:10:08.073545,-97.0
2023-08-15 18:10:08.081235,-95.0
2023-08-15 18:10:08.088924,-95.0
2023-08-15 18:10:08.096614,-90.0
2023-08-15 18:10:08.104303,-80.0
2023-08-15 18:10:08.111993,-71.0
2023-08-15 18:10:08.119683,-61.0
2023-08-15 18:10:08.127372,-49.0
2023-08-15 18:10:08.135062,-42.0
2023-08-15 18:10:08.142751,-42.0
2023-08-15 18:10:08.150441,-57.0
2023-08-15 18:10:08.158131,-76.0
2023-08-15 18:10:08.165820,-90.0
2023-08-15 18:10:08.173510,-90.0
2023-08-15 18:10:08.181200,-83.0
2023-08-15 18:10:08.188889,-83.0
2023-08-15 18:10:08.196579,-80.0
2023-08-15 18:10:08.204268,-35.0
2023-08-15 18:10:08.211958,130.0
2023-08-15 18:10:08.219648,404.0
2023-08-15 18:10:08.227337,530.0
2023-08-15 18:10:08.235027,242.0
2023-08-15 18:10:08.242716,-292.0
2023-08-15 18:10:08.250406,-561.0
2023-08-15 18:10:08.258096,-340.0
2023-08-15 18:10:08.265785,-57.0
2023-08-15 18:10:08.273475,-45.0
2023-08-15 18:10:08.281165,-85.0
2023-08-15 18:10:08.288854,-49.0
2023-08-15 18:10:08.296544,-38.0
2023-08-15 18:10:08.304233,-49.0
2023-08-15 18:10:08.311923,-42.0
2023-08-15 18:10:08.319613,-33.0
2023-08-15 18:10:08.327302,-23.0
2023-08-15 18:10:08.334992,-9.0
2023-08-15 18:10:08.342681,2.0
2023-08-15 18:10:08.350371,11.0
2023-08-15 18:10:08.358061,28.0
2023-08-15 18:10:08.365750,42.0
2023-08-15 18:10:08.373440,54.0
2023-08-15 18:10:08.381130,71.0
2023-08-15 18:10:08.388819,90.0
2023-08-15 18:10:08.396509,104.0
2023-08-15 18:10:08.404198,121.0
2023-08-15 18:10:08.411888,147.0
2023-08-15 18:10:08.419578,176.0
2023-08-15 18:10:08.427267,188.0
2023-08-15 18:10:08.434957,195.0
2023-08-15 18:10:08.442646,202.0
2023-08-15 18:10:08.450336,204.0
2023-08-15 18:10:08.458026,192.0
2023-08-15 18:10:08.465715,166.0
2023-08-15 18:10:08.473405,121.0
2023-08-15 18:10:08.481095,61.0
2023-08-15 18:10:08.488784,0.0
2023-08-15 18:10:08.496474,-54.0
2023-08-15 18:10:08.504163,-104.0
2023-08-15 18:10:08.511853,-140.0
2023-08-15 18:10:08.519543,-157.0
2023-08-15 18:10:08.527232,-169.0
2023-08-15 18:10:08.534922,-178.0
2023-08-15 18:10:08.542611,-178.0
2023-08-15 18:10:08.550301,-176.0
2023-08-15 18:10:08.557991,-178.0
2023-08-15 18:10:08.565680,-180.0
2023-08-15 18:10:08.573370,-171.0
2023-08-15 18:10:08.581060,-159.0
2023-08-15 18:10:08.588749,-154.0
2023-08-15 18:10:08.596439,-149.0
2023-08-15 18:10:08.604128,-147.0
2023-08-15 18:10:08.611818,-145.0
2023-08-15 18:10:08.619508,-145.0
2023-08-15 18:10:08.627197,-138.0
2023-08-15 18:10:08.634887,-128.0
2023-08-15 18:10:08.642576,-128.0
2023-08-15 18:10:08.650266,-130.0
2023-08-15 18:10:08.657956,-123.0
2023-08-15 18:10:08.665645,-121.0
2023-08-15 18:10:08.673335,-121.0
2023-08-15 18:10:08.681025,-116.0
2023-08-15 18:10:08.688714,-116.0
2023-08-15 18:10:08.696404,-116.0
2023-08-15 18:10:08.704093,-116.0
2023-08-15 18:10:08.711783,-121.0
2023-08-15 18:10:08.719473,-121.0
2023-08-15 18:10:08.727162,-116.0
2023-08-15 18:10:08.734852,-114.0
2023-08-15 18:10:08.742541,-111.0
2023-08-15 18:10:08.750231,-109.0
2023-08-15 18:10:08.757921,-109.0
2023-08-15 18:10:08.765610,-107.0
2023-08-15 18:10:08.773300,-104.0
2023-08-15 18:10:08.780990,-107.0
2023-08-15 18:10:08.788679,-104.0
2023-08-15 18:10:08.796369,-102.0
2023-08-15 18:10:08.804058,-99.0
2023-08-15 18:10:08.811748,-97.0
2023-08-15 18:10:08.819438,-95.0
2023-08-15 18:10:08.827127,-92.0
2023-08-15 18:10:08.834817,-90.0
2023-08-15 18:10:08.842506,-83.0
2023-08-15 18:10:08.850196,-69.0
2023-08-15 18:10:08.857886,-59.0
2023-08-15 18:10:08.865575,-54.0
2023-08-15 18:10:08.873265,-45.0
2023-08-15 18:10:08.880955,-35.0
2023-08-15 18:10:08.888644,-49.0
2023-08-15 18:10:08.896334,-83.0
2023-08-15 18:10:08.904023,-102.0
2023-08-15 18:10:08.911713,-97.0
2023-08-15 18:10:08.919403,-95.0
2023-08-15 18:10:08.927092,-95.0
2023-08-15 18:10:08.934782,-78.0
2023-08-15 18:10:08.942471,0.0
2023-08-15 18:10:08.950161,209.0
2023-08-15 18:10:08.957851,492.0
2023-08-15 18:10:08.965540,514.0
2023-08-15 18:10:08.973230,76.0
2023-08-15 18:10:08.980920,-457.0
2023-08-15 18:10:08.988609,-573.0
2023-08-15 18:10:08.996299,-309.0
2023-08-15 18:10:09.003988,-107.0
2023-08-15 18:10:09.011678,-85.0
2023-08-15 18:10:09.019368,-73.0
2023-08-15 18:10:09.027057,-59.0
2023-08-15 18:10:09.034747,-69.0
2023-08-15 18:10:09.042436,-64.0
2023-08-15 18:10:09.050126,-45.0
2023-08-15 18:10:09.057816,-40.0
2023-08-15 18:10:09.065505,-38.0
2023-08-15 18:10:09.073195,-30.0
2023-08-15 18:10:09.080885,-21.0
2023-08-15 18:10:09.088574,-4.0
2023-08-15 18:10:09.096264,11.0
2023-08-15 18:10:09.103953,30.0
2023-08-15 18:10:09.111643,47.0
2023-08-15 18:10:09.119333,61.0
2023-08-15 18:10:09.127022,76.0
2023-08-15 18:10:09.134712,104.0
2023-08-15 18:10:09.142401,126.0
2023-08-15 18:10:09.150091,147.0
2023-08-15 18:10:09.157781,173.0
2023-08-15 18:10:09.165470,197.0
2023-08-15 18:10:09.173160,207.0
2023-08-15 18:10:09.180850,209.0
2023-08-15 18:10:09.188539,209.0
2023-08-15 18:10:09.196229,195.0
2023-08-15 18:10:09.203918,157.0
2023-08-15 18:10:09.211608,102.0
2023-08-15 18:10:09.219298,45.0
2023-08-15 18:10:09.226987,-16.0
2023-08-15 18:10:09.234677,-73.0
2023-08-15 18:10:09.242366,-114.0
2023-08-15 18:10:09.250056,-145.0
2023-08-15 18:10:09.257746,-166.0
2023-08-15 18:10:09.265435,-178.0
2023-08-15 18:10:09.273125,-178.0
2023-08-15 18:10:09.280815,-169.0
2023-08-15 18:10:09.288504,-173.0
2023-08-15 18:10:09.296194,-180.0
2023-08-15 18:10:09.303883,-173.0
2023-08-15 18:10:09.311573,-159.0
2023-08-15 18:10:09.319263,-152.0
2023-08-15 18:10:09.326952,-147.0
2023-08-15 18:10:09.334642,-142.0
2023-08-15 18:10:09.342331,-138.0
2023-08-15 18:10:09.350021,-133.0
2023-08-15 18:10:09.357711,-128.0
2023-08-15 18:10:09.365400,-126.0
2023-08-15 18:10:09.373090,-121.0
2023-08-15 18:10:09.380780,-123.0
2023-08-15 18:10:09.388469,-123.0
2023-08-15 18:10:09.396159,-121.0
2023-08-15 18:10:09.403848,-123.0
2023-08-15 18:10:09.411538,-128.0
2023-08-15 18:10:09.419228,-130.0
2023-08-15 18:10:09.426917,-130.0
2023-08-15 18:10:09.434607,-130.0
2023-08-15 18:10:09.442296,-135.0
2023-08-15 18:10:09.449986,-130.0
2023-08-15 18:10:09.457676,-128.0
2023-08-15 18:10:09.465365,-128.0
2023-08-15 18:10:09.473055,-128.0
2023-08-15 18:10:09.480745,-123.0
2023-08-15 18:10:09.488434,-121.0
2023-08-15 18:10:09.496124,-119.0
2023-08-15 18:10:09.503813,-116.0
2023-08-15 18:10:09.511503,-111.0
2023-08-15 18:10:09.519193,-111.0
2023-08-15 18:10:09.526882,-111.0
2023-08-15 18:10:09.534572,-109.0
2023-08-15 18:10:09.542261,-102.0
2023-08-15 18:10:09.549951,-92.0
2023-08-15 18:10:09.557641,-88.0
2023-08-15 18:10:09.565330,-85.0
2023-08-15 18:10:09.573020,-76.0
2023-08-15 18:10:09.580710,-73.0
2023-08-15 18:10:09.588399,-90.0
2023-08-15 18:10:09.596089,-119.0
2023-08-15 18:10:09.603778,-128.0
2023-08-15 18:10:09.611468,-123.0
2023-08-15 18:10:09.619158,-123.0
2023-08-15 18:10:09.626847,-119.0
2023-08-15 18:10:09.634537,-88.0
2023-08-15 18:10:09.642226,26.0
2023-08-15 18:10:09.649916,283.0
2023-08-15 18:10:09.657606,526.0
2023-08-15 18:10:09.665295,397.0
2023-08-15 18:10:09.672985,-138.0
2023-08-15 18:10:09.680675,-587.0
2023-08-15 18:10:09.688364,-533.0
2023-08-15 18:10:09.696054,-211.0
2023-08-15 18:10:09.703743,-80.0
2023-08-15 18:10:09.711433,-99.0
2023-08-15 18:10:09.719123,-71.0
2023-08-15 18:10:09.726812,-47.0
2023-08-15 18:10:09.734502,-59.0
2023-08-15 18:10:09.742191,-49.0
2023-08-15 18:10:09.749881,-33.0
2023-08-15 18:10:09.757571,-28.0
2023-08-15 18:10:09.765260,-21.0
2023-08-15 18:10:09.772950,-2.0
2023-08-15 18:10:09.780640,11.0
2023-08-15 18:10:09.788329,19.0
2023-08-15 18:10:09.796019,30.0
2023-08-15 18:10:09.803708,49.0
2023-08-15 18:10:09.811398,69.0
2023-08-15 18:10:09.819088,85.0
2023-08-15 18:10:09.826777,109.0
2023-08-15 18:10:09.834467,130.0
2023-08-15 18:10:09.842156,149.0
2023-08-15 18:10:09.849846,178.0
2023-08-15 18:10:09.857536,199.0
2023-08-15 18:10:09.865225,216.0
2023-08-15 18:10:09.872915,228.0
2023-08-15 18:10:09.880605,228.0
2023-08-15 18:10:09.888294,214.0
2023-08-15 18:10:09.895984,190.0
2023-08-15 18:10:09.903673,152.0
2023-08-15 18:10:09.911363,92.0
2023-08-15 18:10:09.919053,21.0
2023-08-15 18:10:09.926742,-42.0
2023-08-15 18:10:09.934432,-90.0
2023-08-15 18:10:09.942121,-123.0
2023-08-15 18:10:09.949811,-147.0
2023-08-15 18:10:09.957501,-161.0
2023-08-15 18:10:09.965190,-169.0
2023-08-15 18:10:09.972880,-169.0
2023-08-15 18:10:09.980570,-164.0
2023-08-15 18:10:09.988259,-161.0
2023-08-15 18:10:09.995949,-157.0
2023-08-15 18:10:10.003638,-152.0
2023-08-15 18:10:10.011328,-149.0
2023-08-15 18:10:10.019018,-142.0
2023-08-15 18:10:10.026707,-135.0
2023-08-15 18:10:10.034397,-130.0
2023-08-15 18:10:10.042086,-130.0
2023-08-15 18:10:10.049776,-126.0
2023-08-15 18:10:10.057466,-121.0
2023-08-15 18:10:10.065155,-116.0
2023-08-15 18:10:10.072845,-111.0
2023-08-15 18:10:10.080535,-107.0
2023-08-15 18:10:10.088224,-104.0
2023-08-15 18:10:10.095914,-107.0
2023-08-15 18:10:10.103603,-111.0
2023-08-15 18:10:10.111293,-116.0
2023-08-15 18:10:10.118983,-116.0
2023-08-15 18:10:10.126672,-114.0
2023-08-15 18:10:10.134362,-119.0
2023-08-15 18:10:10.142051,-119.0
2023-08-15 18:10:10.149741,-119.0
2023-08-15 18:10:10.157431,-121.0
2023-08-15 18:10:10.165120,-121.0
2023-08-15 18:10:10.172810,-121.0
2023-08-15 18:10:10.180500,-119.0
2023-08-15 18:10:10.188189,-119.0
2023-08-15 18:10:10.195879,-119.0
2023-08-15 18:10:10.203568,-116.0
2023-08-15 18:10:10.211258,-109.0
2023-08-15 18:10:10.218948,-104.0
2023-08-15 18:10:10.226637,-107.0
2023-08-15 18:10:10.234327,-107.0
2023-08-15 18:10:10.242016,-97.0
2023-08-15 18:10:10.249706,-90.0
2023-08-15 18:10:10.257396,-85.0
2023-08-15 18:10:10.265085,-71.0
2023-08-15 18:10:10.272775,-59.0
2023-08-15 18:10:10.280465,-64.0
2023-08-15 18:10:10.288154,-76.0
2023-08-15 18:10:10.295844,-95.0
2023-08-15 18:10:10.303533,-109.0
2023-08-15 18:10:10.311223,-107.0
2023-08-15 18:10:10.318913,-99.0
2023-08-15 18:10:10.326602,-102.0
2023-08-15 18:10:10.334292,-97.0
2023-08-15 18:10:10.341981,-40.0
2023-08-15 18:10:10.349671,152.0
2023-08-15 18:10:10.357361,447.0
2023-08-15 18:10:10.365050,528.0
2023-08-15 18:10:10.372740,159.0
2023-08-15 18:10:10.380430,-399.0
2023-08-15 18:10:10.388119,-606.0
2023-08-15 18:10:10.395809,-321.0
2023-08-15 18:10:10.403498,-54.0
2023-08-15 18:10:10.411188,-69.0
2023-08-15 18:10:10.418878,-95.0
2023-08-15 18:10:10.426567,-52.0
2023-08-15 18:10:10.434257,-52.0
2023-08-15 18:10:10.441946,-61.0
2023-08-15 18:10:10.449636,-40.0
2023-08-15 18:10:10.457326,-30.0
2023-08-15 18:10:10.465015,-30.0
2023-08-15 18:10:10.472705,-16.0
2023-08-15 18:10:10.480395,0.0
2023-08-15 18:10:10.488084,11.0
2023-08-15 18:10:10.495774,23.0
2023-08-15 18:10:10.503463,38.0
2023-08-15 18:10:10.511153,54.0
2023-08-15 18:10:10.518843,71.0
2023-08-15 18:10:10.526532,92.0
2023-08-15 18:10:10.534222,111.0
2023-08-15 18:10:10.541911,135.0
2023-08-15 18:10:10.549601,161.0
2023-08-15 18:10:10.557291,180.0
2023-08-15 18:10:10.564980,199.0
2023-08-15 18:10:10.572670,218.0
2023-08-15 18:10:10.580360,223.0
2023-08-15 18:10:10.588049,218.0
2023-08-15 18:10:10.595739,199.0
2023-08-15 18:10:10.603428,166.0
2023-08-15 18:10:10.611118,116.0
2023-08-15 18:10:10.618808,57.0
2023-08-15 18:10:10.626497,-7.0
2023-08-15 18:10:10.634187,-61.0
2023-08-15 18:10:10.641876,-104.0
2023-08-15 18:10:10.649566,-138.0
2023-08-15 18:10:10.657256,-152.0
2023-08-15 18:10:10.664945,-157.0
2023-08-15 18:10:10.672635,-161.0
2023-08-15 18:10:10.680325,-164.0
2023-08-15 18:10:10.688014,-169.0
2023-08-15 18:10:10.695704,-173.0
2023-08-15 18:10:10.703393,-169.0
2023-08-15 18:10:10.711083,-159.0
2023-08-15 18:10:10.718773,-152.0
2023-08-15 18:10:10.726462,-147.0
2023-08-15 18:10:10.734152,-145.0
2023-08-15 18:10:10.741841,-138.0
2023-08-15 18:10:10.749531,-126.0
2023-08-15 18:10:10.757221,-121.0
2023-08-15 18:10:10.764910,-119.0
2023-08-15 18:10:10.772600,-116.0
2023-08-15 18:10:10.780290,-119.0
2023-08-15 18:10:10.787979,-114.0
2023-08-15 18:10:10.795669,-107.0
2023-08-15 18:10:10.803358,-104.0
2023-08-15 18:10:10.811048,-102.0
2023-08-15 18:10:10.818738,-102.0
2023-08-15 18:10:10.826427,-104.0
2023-08-15 18:10:10.834117,-104.0
2023-08-15 18:10:10.841806,-99.0
2023-08-15 18:10:10.849496,-102.0
2023-08-15 18:10:10.857186,-104.0
2023-08-15 18:10:10.864875,-104.0
2023-08-15 18:10:10.872565,-107.0
2023-08-15 18:10:10.880255,-107.0
2023-08-15 18:10:10.887944,-104.0
2023-08-15 18:10:10.895634,-102.0
2023-08-15 18:10:10.903323,-99.0
2023-08-15 18:10:10.911013,-97.0
2023-08-15 18:10:10.918703,-99.0
2023-08-15 18:10:10.926392,-107.0
2023-08-15 18:10:10.934082,-109.0
2023-08-15 18:10:10.941771,-99.0
2023-08-15 18:10:10.949461,-92.0
2023-08-15 18:10:10.957151,-90.0
2023-08-15 18:10:10.964840,-83.0
2023-08-15 18:10:10.972530,-71.0
2023-08-15 18:10:10.980220,-66.0
2023-08-15 18:10:10.987909,-78.0
2023-08-15 18:10:10.995599,-97.0
2023-08-15 18:10:11.003288,-116.0
2023-08-15 18:10:11.010978,-116.0
2023-08-15 18:10:11.018668,-111.0
2023-08-15 18:10:11.026357,-114.0
2023-08-15 18:10:11.034047,-109.0
2023-08-15 18:10:11.041736,-66.0
2023-08-15 18:10:11.049426,95.0
2023-08-15 18:10:11.057116,383.0
2023-08-15 18:10:11.064805,526.0
2023-08-15 18:10:11.072495,233.0
2023-08-15 18:10:11.080185,-326.0
2023-08-15 18:10:11.087874,-614.0
2023-08-15 18:10:11.095564,-395.0
2023-08-15 18:10:11.103253,-92.0
2023-08-15 18:10:11.110943,-69.0
2023-08-15 18:10:11.118633,-109.0
2023-08-15 18:10:11.126322,-66.0
2023-08-15 18:10:11.134012,-57.0
2023-08-15 18:10:11.141701,-73.0
2023-08-15 18:10:11.149391,-59.0
2023-08-15 18:10:11.157081,-40.0
2023-08-15 18:10:11.164770,-33.0
2023-08-15 18:10:11.172460,-23.0
2023-08-15 18:10:11.180150,-11.0
2023-08-15 18:10:11.187839,0.0
2023-08-15 18:10:11.195529,11.0
2023-08-15 18:10:11.203218,26.0
2023-08-15 18:10:11.210908,42.0
2023-08-15 18:10:11.218598,64.0
2023-08-15 18:10:11.226287,80.0
2023-08-15 18:10:11.233977,99.0
2023-08-15 18:10:11.241666,128.0
2023-08-15 18:10:11.249356,154.0
2023-08-15 18:10:11.257046,173.0
2023-08-15 18:10:11.264735,188.0
2023-08-15 18:10:11.272425,190.0
2023-08-15 18:10:11.280115,190.0
2023-08-15 18:10:11.287804,192.0
2023-08-15 18:10:11.295494,180.0
2023-08-15 18:10:11.303183,149.0
2023-08-15 18:10:11.310873,107.0
2023-08-15 18:10:11.318563,49.0
2023-08-15 18:10:11.326252,-14.0
2023-08-15 18:10:11.333942,-69.0
2023-08-15 18:10:11.341631,-109.0
2023-08-15 18:10:11.349321,-142.0
2023-08-15 18:10:11.357011,-166.0
2023-08-15 18:10:11.364700,-178.0
2023-08-15 18:10:11.372390,-178.0
2023-08-15 18:10:11.380079,-176.0
2023-08-15 18:10:11.387769,-171.0
2023-08-15 18:10:11.395459,-169.0
2023-08-15 18:10:11.403148,-166.0
2023-08-15 18:10:11.410838,-164.0
2023-08-15 18:10:11.418528,-154.0
2023-08-15 18:10:11.426217,-149.0
2023-08-15 18:10:11.433907,-149.0
2023-08-15 18:10:11.441596,-149.0
2023-08-15 18:10:11.449286,-138.0
2023-08-15 18:10:11.456976,-133.0
2023-08-15 18:10:11.464665,-133.0
2023-08-15 18:10:11.472355,-126.0
2023-08-15 18:10:11.480044,-116.0
2023-08-15 18:10:11.487734,-114.0
2023-08-15 18:10:11.495424,-114.0
2023-08-15 18:10:11.503113,-116.0
2023-08-15 18:10:11.510803,-116.0
2023-08-15 18:10:11.518493,-119.0
2023-08-15 18:10:11.526182,-119.0
2023-08-15 18:10:11.533872,-114.0
2023-08-15 18:10:11.541561,-114.0
2023-08-15 18:10:11.549251,-119.0
2023-08-15 18:10:11.556941,-116.0
2023-08-15 18:10:11.564630,-114.0
2023-08-15 18:10:11.572320,-114.0
2023-08-15 18:10:11.580009,-109.0
2023-08-15 18:10:11.587699,-107.0
2023-08-15 18:10:11.595389,-107.0
2023-08-15 18:10:11.603078,-104.0
2023-08-15 18:10:11.610768,-104.0
2023-08-15 18:10:11.618458,-104.0
2023-08-15 18:10:11.626147,-104.0
2023-08-15 18:10:11.633837,-102.0
2023-08-15 18:10:11.641526,-97.0
2023-08-15 18:10:11.649216,-88.0
2023-08-15 18:10:11.656906,-80.0
2023-08-15 18:10:11.664595,-73.0
2023-08-15 18:10:11.672285,-59.0
2023-08-15 18:10:11.679974,-54.0
2023-08-15 18:10:11.687664,-73.0
2023-08-15 18:10:11.695354,-97.0
2023-08-15 18:10:11.703043,-107.0
2023-08-15 18:10:11.710733,-99.0
2023-08-15 18:10:11.718423,-97.0
2023-08-15 18:10:11.726112,-104.0
2023-08-15 18:10:11.733802,-92.0
2023-08-15 18:10:11.741491,-4.0
2023-08-15 18:10:11.749181,218.0
2023-08-15 18:10:11.756871,490.0
2023-08-15 18:10:11.764560,473.0
2023-08-15 18:10:11.772250,2.0
2023-08-15 18:10:11.779939,-514.0
2023-08-15 18:10:11.787629,-578.0
2023-08-15 18:10:11.795319,-290.0
2023-08-15 18:10:11.803008,-114.0
2023-08-15 18:10:11.810698,-121.0
2023-08-15 18:10:11.818388,-114.0
2023-08-15 18:10:11.826077,-95.0
2023-08-15 18:10:11.833767,-97.0
2023-08-15 18:10:11.841456,-88.0
2023-08-15 18:10:11.849146,-71.0
2023-08-15 18:10:11.856836,-59.0
2023-08-15 18:10:11.864525,-45.0
2023-08-15 18:10:11.872215,-35.0
2023-08-15 18:10:11.879904,-28.0
2023-08-15 18:10:11.887594,-11.0
2023-08-15 18:10:11.895284,7.0
2023-08-15 18:10:11.902973,16.0
2023-08-15 18:10:11.910663,26.0
2023-08-15 18:10:11.918353,49.0
2023-08-15 18:10:11.926042,76.0
2023-08-15 18:10:11.933732,90.0
2023-08-15 18:10:11.941421,104.0
2023-08-15 18:10:11.949111,133.0
2023-08-15 18:10:11.956801,154.0
2023-08-15 18:10:11.964490,169.0
2023-08-15 18:10:11.972180,183.0
2023-08-15 18:10:11.979869,190.0
2023-08-15 18:10:11.987559,180.0
2023-08-15 18:10:11.995249,159.0
2023-08-15 18:10:12.002938,128.0
2023-08-15 18:10:12.010628,76.0
2023-08-15 18:10:12.018318,11.0
2023-08-15 18:10:12.026007,-47.0
2023-08-15 18:10:12.033697,-99.0
2023-08-15 18:10:12.041386,-140.0
2023-08-15 18:10:12.049076,-166.0
2023-08-15 18:10:12.056766,-176.0
2023-08-15 18:10:12.064455,-183.0
2023-08-15 18:10:12.072145,-188.0
2023-08-15 18:10:12.079834,-188.0
2023-08-15 18:10:12.087524,-185.0
2023-08-15 18:10:12.095214,-176.0
2023-08-15 18:10:12.102903,-169.0
2023-08-15 18:10:12.110593,-166.0
2023-08-15 18:10:12.118283,-159.0
2023-08-15 18:10:12.125972,-154.0
2023-08-15 18:10:12.133662,-149.0
2023-08-15 18:10:12.141351,-140.0
2023-08-15 18:10:12.149041,-138.0
2023-08-15 18:10:12.156731,-135.0
2023-08-15 18:10:12.164420,-123.0
2023-08-15 18:10:12.172110,-121.0
2023-08-15 18:10:12.179799,-128.0
2023-08-15 18:10:12.187489,-121.0
2023-08-15 18:10:12.195179,-111.0
2023-08-15 18:10:12.202868,-114.0
2023-08-15 18:10:12.210558,-119.0
2023-08-15 18:10:12.218248,-116.0
2023-08-15 18:10:12.225937,-116.0
2023-08-15 18:10:12.233627,-119.0
2023-08-15 18:10:12.241316,-116.0
2023-08-15 18:10:12.249006,-119.0
2023-08-15 18:10:12.256696,-126.0
2023-08-15 18:10:12.264385,-123.0
2023-08-15 18:10:12.272075,-114.0
2023-08-15 18:10:12.279764,-111.0
2023-08-15 18:10:12.287454,-114.0
2023-08-15 18:10:12.295144,-107.0
2023-08-15 18:10:12.302833,-104.0
2023-08-15 18:10:12.310523,-107.0
2023-08-15 18:10:12.318213,-102.0
2023-08-15 18:10:12.325902,-83.0
2023-08-15 18:10:12.333592,-66.0
2023-08-15 18:10:12.341281,-66.0
2023-08-15 18:10:12.348971,-76.0
2023-08-15 18:10:12.356661,-102.0
2023-08-15 18:10:12.364350,-126.0
2023-08-15 18:10:12.372040,-126.0
2023-08-15 18:10:12.379729,-119.0
2023-08-15 18:10:12.387419,-114.0
2023-08-15 18:10:12.395109,-97.0
2023-08-15 18:10:12.402798,-30.0
2023-08-15 18:10:12.410488,166.0
2023-08-15 18:10:12.418178,461.0
2023-08-15 18:10:12.425867,537.0
2023-08-15 18:10:12.433557,135.0
2023-08-15 18:10:12.441246,-449.0
2023-08-15 18:10:12.448936,-642.0
2023-08-15 18:10:12.456626,-376.0
2023-08-15 18:10:12.464315,-145.0
2023-08-15 18:10:12.472005,-123.0
2023-08-15 18:10:12.479694,-109.0
2023-08-15 18:10:12.487384,-83.0
2023-08-15 18:10:12.495074,-92.0
2023-08-15 18:10:12.502763,-90.0
2023-08-15 18:10:12.510453,-69.0
2023-08-15 18:10:12.518143,-57.0
2023-08-15 18:10:12.525832,-52.0
2023-08-15 18:10:12.533522,-45.0
2023-08-15 18:10:12.541211,-30.0
2023-08-15 18:10:12.548901,-16.0
2023-08-15 18:10:12.556591,-4.0
2023-08-15 18:10:12.564280,11.0
2023-08-15 18:10:12.571970,28.0
2023-08-15 18:10:12.579659,47.0
2023-08-15 18:10:12.587349,69.0
2023-08-15 18:10:12.595039,90.0
2023-08-15 18:10:12.602728,114.0
2023-08-15 18:10:12.610418,138.0
2023-08-15 18:10:12.618108,161.0
2023-08-15 18:10:12.625797,178.0
2023-08-15 18:10:12.633487,185.0
2023-08-15 18:10:12.641176,190.0
2023-08-15 18:10:12.648866,185.0
2023-08-15 18:10:12.656556,169.0
2023-08-15 18:10:12.664245,133.0
2023-08-15 18:10:12.671935,80.0
2023-08-15 18:10:12.679624,16.0
2023-08-15 18:10:12.687314,-40.0
2023-08-15 18:10:12.695004,-88.0
2023-08-15 18:10:12.702693,-126.0
2023-08-15 18:10:12.710383,-157.0
2023-08-15 18:10:12.718073,-176.0
2023-08-15 18:10:12.725762,-185.0
2023-08-15 18:10:12.733452,-188.0
2023-08-15 18:10:12.741141,-185.0
2023-08-15 18:10:12.748831,-185.0
2023-08-15 18:10:12.756521,-180.0
2023-08-15 18:10:12.764210,-176.0
2023-08-15 18:10:12.771900,-169.0
2023-08-15 18:10:12.779589,-161.0
2023-08-15 18:10:12.787279,-154.0
2023-08-15 18:10:12.794969,-149.0
2023-08-15 18:10:12.802658,-142.0
2023-08-15 18:10:12.810348,-135.0
2023-08-15 18:10:12.818038,-133.0
2023-08-15 18:10:12.825727,-128.0
2023-08-15 18:10:12.833417,-123.0
2023-08-15 18:10:12.841106,-121.0
2023-08-15 18:10:12.848796,-119.0
2023-08-15 18:10:12.856486,-119.0
2023-08-15 18:10:12.864175,-116.0
2023-08-15 18:10:12.871865,-116.0
2023-08-15 18:10:12.879554,-116.0
2023-08-15 18:10:12.887244,-116.0
2023-08-15 18:10:12.894934,-114.0
2023-08-15 18:10:12.902623,-116.0
2023-08-15 18:10:12.910313,-119.0
2023-08-15 18:10:12.918003,-114.0
2023-08-15 18:10:12.925692,-107.0
2023-08-15 18:10:12.933382,-107.0
2023-08-15 18:10:12.941071,-114.0
2023-08-15 18:10:12.948761,-116.0
2023-08-15 18:10:12.956451,-107.0
2023-08-15 18:10:12.964140,-99.0
2023-08-15 18:10:12.971830,-99.0
2023-08-15 18:10:12.979519,-88.0
2023-08-15 18:10:12.987209,-71.0
2023-08-15 18:10:12.994899,-66.0
2023-08-15 18:10:13.002588,-73.0
2023-08-15 18:10:13.010278,-92.0
2023-08-15 18:10:13.017968,-116.0
2023-08-15 18:10:13.025657,-121.0
2023-08-15 18:10:13.033347,-114.0
2023-08-15 18:10:13.041036,-116.0
2023-08-15 18:10:13.048726,-114.0
2023-08-15 18:10:13.056416,-78.0
2023-08-15 18:10:13.064105,57.0
2023-08-15 18:10:13.071795,340.0
2023-08-15 18:10:13.079484,547.0
2023-08-15 18:10:13.087174,333.0
2023-08-15 18:10:13.094864,-238.0
2023-08-15 18:10:13.102553,-618.0
2023-08-15 18:10:13.110243,-478.0
2023-08-15 18:10:13.117933,-164.0
2023-08-15 18:10:13.125622,-83.0
2023-08-15 18:10:13.133312,-111.0
2023-08-15 18:10:13.141001,-78.0
2023-08-15 18:10:13.148691,-61.0
2023-08-15 18:10:13.156381,-76.0
2023-08-15 18:10:13.164070,-66.0
2023-08-15 18:10:13.171760,-52.0
2023-08-15 18:10:13.179449,-47.0
2023-08-15 18:10:13.187139,-40.0
2023-08-15 18:10:13.194829,-28.0
2023-08-15 18:10:13.202518,-21.0
2023-08-15 18:10:13.210208,-9.0
2023-08-15 18:10:13.217898,7.0
2023-08-15 18:10:13.225587,21.0
2023-08-15 18:10:13.233277,35.0
2023-08-15 18:10:13.240966,57.0
2023-08-15 18:10:13.248656,78.0
2023-08-15 18:10:13.256346,95.0
2023-08-15 18:10:13.264035,121.0
2023-08-15 18:10:13.271725,147.0
2023-08-15 18:10:13.279414,161.0
2023-08-15 18:10:13.287104,176.0
2023-08-15 18:10:13.294794,188.0
2023-08-15 18:10:13.302483,180.0
2023-08-15 18:10:13.310173,161.0
2023-08-15 18:10:13.317863,130.0
2023-08-15 18:10:13.325552,88.0
2023-08-15 18:10:13.333242,30.0
2023-08-15 18:10:13.340931,-35.0
2023-08-15 18:10:13.348621,-95.0
2023-08-15 18:10:13.356311,-135.0
2023-08-15 18:10:13.364000,-169.0
2023-08-15 18:10:13.371690,-190.0
2023-08-15 18:10:13.379379,-199.0
2023-08-15 18:10:13.387069,-204.0
2023-08-15 18:10:13.394759,-204.0
2023-08-15 18:10:13.402448,-202.0
2023-08-15 18:10:13.410138,-202.0
2023-08-15 18:10:13.417828,-192.0
2023-08-15 18:10:13.425517,-178.0
2023-08-15 18:10:13.433207,-178.0
2023-08-15 18:10:13.440896,-185.0
2023-08-15 18:10:13.448586,-178.0
2023-08-15 18:10:13.456276,-164.0
2023-08-15 18:10:13.463965,-161.0
2023-08-15 18:10:13.471655,-164.0
2023-08-15 18:10:13.479344,-152.0
2023-08-15 18:10:13.487034,-142.0
2023-08-15 18:10:13.494724,-138.0
2023-08-15 18:10:13.502413,-138.0
2023-08-15 18:10:13.510103,-142.0
2023-08-15 18:10:13.517793,-140.0
2023-08-15 18:10:13.525482,-138.0
2023-08-15 18:10:13.533172,-140.0
2023-08-15 18:10:13.540861,-138.0
2023-08-15 18:10:13.548551,-135.0
2023-08-15 18:10:13.556241,-138.0
2023-08-15 18:10:13.563930,-140.0
2023-08-15 18:10:13.571620,-135.0
2023-08-15 18:10:13.579309,-133.0
2023-08-15 18:10:13.586999,-126.0
2023-08-15 18:10:13.594689,-119.0
2023-08-15 18:10:13.602378,-128.0
2023-08-15 18:10:13.610068,-135.0
2023-08-15 18:10:13.617758,-123.0
2023-08-15 18:10:13.625447,-107.0
2023-08-15 18:10:13.633137,-104.0
2023-08-15 18:10:13.640826,-104.0
2023-08-15 18:10:13.648516,-88.0
2023-08-15 18:10:13.656206,-71.0
2023-08-15 18:10:13.663895,-78.0
2023-08-15 18:10:13.671585,-90.0
2023-08-15 18:10:13.679274,-104.0
2023-08-15 18:10:13.686964,-119.0
2023-08-15 18:10:13.694654,-116.0
2023-08-15 18:10:13.702343,-109.0
2023-08-15 18:10:13.710033,-114.0
2023-08-15 18:10:13.717723,-111.0
2023-08-15 18:10:13.725412,-64.0
2023-08-15 18:10:13.733102,97.0
2023-08-15 18:10:13.740791,395.0
2023-08-15 18:10:13.748481,542.0
2023-08-15 18:10:13.756171,228.0
2023-08-15 18:10:13.763860,-342.0
2023-08-15 18:10:13.771550,-611.0
2023-08-15 18:10:13.779239,-395.0
2023-08-15 18:10:13.786929,-121.0
2023-08-15 18:10:13.794619,-90.0
2023-08-15 18:10:13.802308,-109.0
2023-08-15 18:10:13.809998,-71.0
2023-08-15 18:10:13.817688,-61.0
2023-08-15 18:10:13.825377,-76.0
2023-08-15 18:10:13.833067,-61.0
2023-08-15 18:10:13.840756,-45.0
2023-08-15 18:10:13.848446,-38.0
2023-08-15 18:10:13.856136,-28.0
2023-08-15 18:10:13.863825,-19.0
2023-08-15 18:10:13.871515,-7.0
2023-08-15 18:10:13.879204,9.0
2023-08-15 18:10:13.886894,21.0
2023-08-15 18:10:13.894584,33.0
2023-08-15 18:10:13.902273,54.0
2023-08-15 18:10:13.909963,71.0
2023-08-15 18:10:13.917653,90.0
2023-08-15 18:10:13.925342,116.0
2023-08-15 18:10:13.933032,142.0
2023-08-15 18:10:13.940721,159.0
2023-08-15 18:10:13.948411,169.0
2023-08-15 18:10:13.956101,180.0
2023-08-15 18:10:13.963790,190.0
2023-08-15 18:10:13.971480,183.0
2023-08-15 18:10:13.979169,159.0
2023-08-15 18:10:13.986859,133.0
2023-08-15 18:10:13.994549,85.0
2023-08-15 18:10:14.002238,26.0
2023-08-15 18:10:14.009928,-33.0
2023-08-15 18:10:14.017618,-90.0
2023-08-15 18:10:14.025307,-142.0
2023-08-15 18:10:14.032997,-171.0
2023-08-15 18:10:14.040686,-180.0
2023-08-15 18:10:14.048376,-188.0
2023-08-15 18:10:14.056066,-192.0
2023-08-15 18:10:14.063755,-192.0
2023-08-15 18:10:14.071445,-188.0
2023-08-15 18:10:14.079134,-178.0
2023-08-15 18:10:14.086824,-171.0
2023-08-15 18:10:14.094514,-169.0
2023-08-15 18:10:14.102203,-164.0
2023-08-15 18:10:14.109893,-157.0
2023-08-15 18:10:14.117583,-147.0
2023-08-15 18:10:14.125272,-140.0
2023-08-15 18:10:14.132962,-130.0
2023-08-15 18:10:14.140651,-121.0
2023-08-15 18:10:14.148341,-119.0
2023-08-15 18:10:14.156031,-116.0
2023-08-15 18:10:14.163720,-109.0
2023-08-15 18:10:14.171410,-107.0
2023-08-15 18:10:14.179099,-104.0
2023-08-15 18:10:14.186789,-102.0
2023-08-15 18:10:14.194479,-97.0
2023-08-15 18:10:14.202168,-97.0
2023-08-15 18:10:14.209858,-99.0
2023-08-15 18:10:14.217548,-92.0
2023-08-15 18:10:14.225237,-95.0
2023-08-15 18:10:14.232927,-102.0
2023-08-15 18:10:14.240616,-102.0
2023-08-15 18:10:14.248306,-97.0
2023-08-15 18:10:14.255996,-99.0
2023-08-15 18:10:14.263685,-95.0
2023-08-15 18:10:14.271375,-90.0
2023-08-15 18:10:14.279064,-90.0
2023-08-15 18:10:14.286754,-90.0
2023-08-15 18:10:14.294444,-83.0
2023-08-15 18:10:14.302133,-80.0
2023-08-15 18:10:14.309823,-76.0
2023-08-15 18:10:14.317513,-59.0
2023-08-15 18:10:14.325202,-45.0
2023-08-15 18:10:14.332892,-47.0
2023-08-15 18:10:14.340581,-54.0
2023-08-15 18:10:14.348271,-71.0
2023-08-15 18:10:14.355961,-92.0
2023-08-15 18:10:14.363650,-95.0
2023-08-15 18:10:14.371340,-83.0
2023-08-15 18:10:14.379029,-85.0
2023-08-15 18:10:14.386719,-90.0
2023-08-15 18:10:14.394409,-57.0
2023-08-15 18:10:14.402098,71.0
2023-08-15 18:10:14.409788,345.0
2023-08-15 18:10:14.417478,571.0
2023-08-15 18:10:14.425167,388.0
2023-08-15 18:10:14.432857,-166.0
2023-08-15 18:10:14.440546,-559.0
2023-08-15 18:10:14.448236,-447.0
2023-08-15 18:10:14.455926,-157.0
2023-08-15 18:10:14.463615,-76.0
2023-08-15 18:10:14.471305,-102.0
2023-08-15 18:10:14.478994,-76.0
2023-08-15 18:10:14.486684,-57.0
2023-08-15 18:10:14.494374,-59.0
2023-08-15 18:10:14.502063,-49.0
2023-08-15 18:10:14.509753,-45.0
2023-08-15 18:10:14.517443,-45.0
2023-08-15 18:10:14.525132,-30.0
2023-08-15 18:10:14.532822,-11.0
2023-08-15 18:10:14.540511,-2.0
2023-08-15 18:10:14.548201,4.0
2023-08-15 18:10:14.555891,21.0
2023-08-15 18:10:14.563580,35.0
2023-08-15 18:10:14.571270,47.0
2023-08-15 18:10:14.578959,66.0
2023-08-15 18:10:14.586649,85.0
2023-08-15 18:10:14.594339,102.0
2023-08-15 18:10:14.602028,121.0
2023-08-15 18:10:14.609718,142.0
2023-08-15 18:10:14.617408,159.0
2023-08-15 18:10:14.625097,176.0
2023-08-15 18:10:14.632787,190.0
2023-08-15 18:10:14.640476,183.0
2023-08-15 18:10:14.648166,164.0
2023-08-15 18:10:14.655856,133.0
2023-08-15 18:10:14.663545,88.0
2023-08-15 18:10:14.671235,26.0
2023-08-15 18:10:14.678924,-33.0
2023-08-15 18:10:14.686614,-90.0
2023-08-15 18:10:14.694304,-135.0
2023-08-15 18:10:14.701993,-164.0
2023-08-15 18:10:14.709683,-188.0
2023-08-15 18:10:14.717373,-204.0
2023-08-15 18:10:14.725062,-204.0
2023-08-15 18:10:14.732752,-202.0
2023-08-15 18:10:14.740441,-202.0
2023-08-15 18:10:14.748131,-197.0
2023-08-15 18:10:14.755821,-190.0
2023-08-15 18:10:14.763510,-185.0
2023-08-15 18:10:14.771200,-176.0
2023-08-15 18:10:14.778889,-161.0
2023-08-15 18:10:14.786579,-161.0
2023-08-15 18:10:14.794269,-161.0
2023-08-15 18:10:14.801958,-147.0
2023-08-15 18:10:14.809648,-138.0
2023-08-15 18:10:14.817338,-135.0
2023-08-15 18:10:14.825027,-130.0
2023-08-15 18:10:14.832717,-123.0
2023-08-15 18:10:14.840406,-128.0
2023-08-15 18:10:14.848096,-128.0
2023-08-15 18:10:14.855786,-116.0
2023-08-15 18:10:14.863475,-116.0
2023-08-15 18:10:14.871165,-126.0
2023-08-15 18:10:14.878854,-119.0
2023-08-15 18:10:14.886544,-111.0
2023-08-15 18:10:14.894234,-116.0
2023-08-15 18:10:14.901923,-116.0
2023-08-15 18:10:14.909613,-114.0
2023-08-15 18:10:14.917303,-116.0
2023-08-15 18:10:14.924992,-114.0
2023-08-15 18:10:14.932682,-111.0
2023-08-15 18:10:14.940371,-107.0
2023-08-15 18:10:14.948061,-95.0
2023-08-15 18:10:14.955751,-95.0
2023-08-15 18:10:14.963440,-109.0
2023-08-15 18:10:14.971130,-97.0
2023-08-15 18:10:14.978819,-66.0
2023-08-15 18:10:14.986509,-59.0
2023-08-15 18:10:14.994199,-71.0
2023-08-15 18:10:15.001888,-90.0
2023-08-15 18:10:15.009578,-111.0
2023-08-15 18:10:15.017268,-116.0
2023-08-15 18:10:15.024957,-99.0
2023-08-15 18:10:15.032647,-90.0
2023-08-15 18:10:15.040336,-83.0
2023-08-15 18:10:15.048026,-33.0
2023-08-15 18:10:15.055716,126.0
2023-08-15 18:10:15.063405,411.0
2023-08-15 18:10:15.071095,573.0
2023-08-15 18:10:15.078784,278.0
2023-08-15 18:10:15.086474,-309.0
2023-08-15 18:10:15.094164,-614.0
2023-08-15 18:10:15.101853,-428.0
2023-08-15 18:10:15.109543,-152.0
2023-08-15 18:10:15.117233,-78.0
2023-08-15 18:10:15.124922,-78.0
2023-08-15 18:10:15.132612,-49.0
2023-08-15 18:10:15.140301,-45.0
2023-08-15 18:10:15.147991,-47.0
2023-08-15 18:10:15.155681,-28.0
2023-08-15 18:10:15.163370,-16.0
2023-08-15 18:10:15.171060,-16.0
2023-08-15 18:10:15.178749,-9.0
2023-08-15 18:10:15.186439,2.0
2023-08-15 18:10:15.194129,2.0
2023-08-15 18:10:15.201818,7.0
2023-08-15 18:10:15.209508,26.0
2023-08-15 18:10:15.217198,42.0
2023-08-15 18:10:15.224887,59.0
2023-08-15 18:10:15.232577,76.0
2023-08-15 18:10:15.240266,92.0
2023-08-15 18:10:15.247956,116.0
2023-08-15 18:10:15.255646,142.0
2023-08-15 18:10:15.263335,161.0
2023-08-15 18:10:15.271025,178.0
2023-08-15 18:10:15.278714,188.0
2023-08-15 18:10:15.286404,192.0
2023-08-15 18:10:15.294094,192.0
2023-08-15 18:10:15.301783,176.0
2023-08-15 18:10:15.309473,138.0
2023-08-15 18:10:15.317163,92.0
2023-08-15 18:10:15.324852,35.0
2023-08-15 18:10:15.332542,-28.0
2023-08-15 18:10:15.340231,-83.0
2023-08-15 18:10:15.347921,-123.0
2023-08-15 18:10:15.355611,-152.0
2023-08-15 18:10:15.363300,-166.0
2023-08-15 18:10:15.370990,-180.0
2023-08-15 18:10:15.378679,-185.0
2023-08-15 18:10:15.386369,-173.0
2023-08-15 18:10:15.394059,-169.0
2023-08-15 18:10:15.401748,-169.0
2023-08-15 18:10:15.409438,-164.0
2023-08-15 18:10:15.417128,-161.0
2023-08-15 18:10:15.424817,-157.0
2023-08-15 18:10:15.432507,-140.0
2023-08-15 18:10:15.440196,-133.0
2023-08-15 18:10:15.447886,-133.0
2023-08-15 18:10:15.455576,-128.0
2023-08-15 18:10:15.463265,-126.0
2023-08-15 18:10:15.470955,-126.0
2023-08-15 18:10:15.478644,-123.0
2023-08-15 18:10:15.486334,-114.0
2023-08-15 18:10:15.494024,-114.0
2023-08-15 18:10:15.501713,-114.0
2023-08-15 18:10:15.509403,-109.0
2023-08-15 18:10:15.517093,-109.0
2023-08-15 18:10:15.524782,-114.0
2023-08-15 18:10:15.532472,-111.0
2023-08-15 18:10:15.540161,-114.0
2023-08-15 18:10:15.547851,-114.0
2023-08-15 18:10:15.555541,-104.0
2023-08-15 18:10:15.563230,-104.0
2023-08-15 18:10:15.570920,-109.0
2023-08-15 18:10:15.578609,-104.0
2023-08-15 18:10:15.586299,-99.0
2023-08-15 18:10:15.593989,-102.0
2023-08-15 18:10:15.601678,-109.0
2023-08-15 18:10:15.609368,-92.0
2023-08-15 18:10:15.617058,-64.0
2023-08-15 18:10:15.624747,-52.0
2023-08-15 18:10:15.632437,-64.0
2023-08-15 18:10:15.640126,-80.0
2023-08-15 18:10:15.647816,-97.0
2023-08-15 18:10:15.655506,-102.0
2023-08-15 18:10:15.663195,-92.0
2023-08-15 18:10:15.670885,-92.0
2023-08-15 18:10:15.678574,-90.0
2023-08-15 18:10:15.686264,-61.0
2023-08-15 18:10:15.693954,54.0
2023-08-15 18:10:15.701643,323.0
2023-08-15 18:10:15.709333,566.0
2023-08-15 18:10:15.717023,402.0
2023-08-15 18:10:15.724712,-166.0
2023-08-15 18:10:15.732402,-609.0
2023-08-15 18:10:15.740091,-521.0
2023-08-15 18:10:15.747781,-185.0
2023-08-15 18:10:15.755471,-64.0
2023-08-15 18:10:15.763160,-88.0
2023-08-15 18:10:15.770850,-64.0
2023-08-15 18:10:15.778539,-47.0
2023-08-15 18:10:15.786229,-54.0
2023-08-15 18:10:15.793919,-40.0
2023-08-15 18:10:15.801608,-23.0
2023-08-15 18:10:15.809298,-16.0
2023-08-15 18:10:15.816988,-7.0
2023-08-15 18:10:15.824677,4.0
2023-08-15 18:10:15.832367,9.0
2023-08-15 18:10:15.840056,19.0
2023-08-15 18:10:15.847746,45.0
2023-08-15 18:10:15.855436,61.0
2023-08-15 18:10:15.863125,69.0
2023-08-15 18:10:15.870815,92.0
2023-08-15 18:10:15.878504,119.0
2023-08-15 18:10:15.886194,138.0
2023-08-15 18:10:15.893884,164.0
2023-08-15 18:10:15.901573,183.0
2023-08-15 18:10:15.909263,195.0
2023-08-15 18:10:15.916953,211.0
2023-08-15 18:10:15.924642,221.0
2023-08-15 18:10:15.932332,211.0
2023-08-15 18:10:15.940021,195.0
2023-08-15 18:10:15.947711,161.0
2023-08-15 18:10:15.955401,109.0
2023-08-15 18:10:15.963090,49.0
2023-08-15 18:10:15.970780,-19.0
2023-08-15 18:10:15.978469,-80.0
2023-08-15 18:10:15.986159,-114.0
2023-08-15 18:10:15.993849,-145.0
2023-08-15 18:10:16.001538,-180.0
2023-08-15 18:10:16.009228,-199.0
2023-08-15 18:10:16.016918,-197.0
2023-08-15 18:10:16.024607,-188.0
2023-08-15 18:10:16.032297,-180.0
2023-08-15 18:10:16.039986,-180.0
2023-08-15 18:10:16.047676,-180.0
2023-08-15 18:10:16.055366,-173.0
2023-08-15 18:10:16.063055,-166.0
2023-08-15 18:10:16.070745,-159.0
2023-08-15 18:10:16.078434,-157.0
2023-08-15 18:10:16.086124,-142.0
2023-08-15 18:10:16.093814,-123.0
2023-08-15 18:10:16.101503,-121.0
2023-08-15 18:10:16.109193,-121.0
2023-08-15 18:10:16.116883,-111.0
2023-08-15 18:10:16.124572,-102.0
2023-08-15 18:10:16.132262,-107.0
2023-08-15 18:10:16.139951,-116.0
2023-08-15 18:10:16.147641,-109.0
2023-08-15 18:10:16.155331,-97.0
2023-08-15 18:10:16.163020,-99.0
2023-08-15 18:10:16.170710,-104.0
2023-08-15 18:10:16.178399,-97.0
2023-08-15 18:10:16.186089,-99.0
2023-08-15 18:10:16.193779,-109.0
2023-08-15 18:10:16.201468,-107.0
2023-08-15 18:10:16.209158,-97.0
2023-08-15 18:10:16.216848,-102.0
2023-08-15 18:10:16.224537,-109.0
2023-08-15 18:10:16.232227,-97.0
2023-08-15 18:10:16.239916,-88.0
2023-08-15 18:10:16.247606,-92.0
2023-08-15 18:10:16.255296,-83.0
2023-08-15 18:10:16.262985,-61.0
2023-08-15 18:10:16.270675,-57.0
2023-08-15 18:10:16.278364,-71.0
2023-08-15 18:10:16.286054,-83.0
2023-08-15 18:10:16.293744,-97.0
2023-08-15 18:10:16.301433,-104.0
2023-08-15 18:10:16.309123,-99.0
2023-08-15 18:10:16.316813,-104.0
2023-08-15 18:10:16.324502,-114.0
2023-08-15 18:10:16.332192,-71.0
2023-08-15 18:10:16.339881,71.0
2023-08-15 18:10:16.347571,338.0
2023-08-15 18:10:16.355261,549.0
2023-08-15 18:10:16.362950,357.0
2023-08-15 18:10:16.370640,-199.0
2023-08-15 18:10:16.378329,-587.0
2023-08-15 18:10:16.386019,-459.0
2023-08-15 18:10:16.393709,-157.0
2023-08-15 18:10:16.401398,-73.0
2023-08-15 18:10:16.409088,-97.0
2023-08-15 18:10:16.416778,-71.0
2023-08-15 18:10:16.424467,-57.0
2023-08-15 18:10:16.432157,-66.0
2023-08-15 18:10:16.439846,-49.0
2023-08-15 18:10:16.447536,-35.0
2023-08-15 18:10:16.455226,-35.0
2023-08-15 18:10:16.462915,-23.0
2023-08-15 18:10:16.470605,-7.0
2023-08-15 18:10:16.478294,-7.0
2023-08-15 18:10:16.485984,4.0
2023-08-15 18:10:16.493674,23.0
2023-08-15 18:10:16.501363,30.0
2023-08-15 18:10:16.509053,42.0
2023-08-15 18:10:16.516743,71.0
2023-08-15 18:10:16.524432,97.0
2023-08-15 18:10:16.532122,111.0
2023-08-15 18:10:16.539811,133.0
2023-08-15 18:10:16.547501,157.0
2023-08-15 18:10:16.555191,173.0
2023-08-15 18:10:16.562880,185.0
2023-08-15 18:10:16.570570,195.0
2023-08-15 18:10:16.578259,190.0
2023-08-15 18:10:16.585949,161.0
2023-08-15 18:10:16.593639,138.0
2023-08-15 18:10:16.601328,99.0
2023-08-15 18:10:16.609018,35.0
2023-08-15 18:10:16.616708,-30.0
2023-08-15 18:10:16.624397,-80.0
2023-08-15 18:10:16.632087,-121.0
2023-08-15 18:10:16.639776,-152.0
2023-08-15 18:10:16.647466,-171.0
2023-08-15 18:10:16.655156,-180.0
2023-08-15 18:10:16.662845,-180.0
2023-08-15 18:10:16.670535,-176.0
2023-08-15 18:10:16.678224,-178.0
2023-08-15 18:10:16.685914,-178.0
2023-08-15 18:10:16.693604,-173.0
2023-08-15 18:10:16.701293,-166.0
2023-08-15 18:10:16.708983,-154.0
2023-08-15 18:10:16.716673,-147.0
2023-08-15 18:10:16.724362,-147.0
2023-08-15 18:10:16.732052,-142.0
2023-08-15 18:10:16.739741,-128.0
2023-08-15 18:10:16.747431,-121.0
2023-08-15 18:10:16.755121,-123.0
2023-08-15 18:10:16.762810,-116.0
2023-08-15 18:10:16.770500,-111.0
2023-08-15 18:10:16.778189,-111.0
2023-08-15 18:10:16.785879,-109.0
2023-08-15 18:10:16.793569,-104.0
2023-08-15 18:10:16.801258,-107.0
2023-08-15 18:10:16.808948,-109.0
2023-08-15 18:10:16.816638,-109.0
2023-08-15 18:10:16.824327,-109.0
2023-08-15 18:10:16.832017,-109.0
2023-08-15 18:10:16.839706,-104.0
2023-08-15 18:10:16.847396,-102.0
2023-08-15 18:10:16.855086,-109.0
2023-08-15 18:10:16.862775,-109.0
2023-08-15 18:10:16.870465,-107.0
2023-08-15 18:10:16.878154,-104.0
2023-08-15 18:10:16.885844,-85.0
2023-08-15 18:10:16.893534,-66.0
2023-08-15 18:10:16.901223,-69.0
2023-08-15 18:10:16.908913,-85.0
2023-08-15 18:10:16.916603,-107.0
2023-08-15 18:10:16.924292,-121.0
2023-08-15 18:10:16.931982,-111.0
2023-08-15 18:10:16.939671,-104.0
2023-08-15 18:10:16.947361,-107.0
2023-08-15 18:10:16.955051,-99.0
2023-08-15 18:10:16.962740,-30.0
2023-08-15 18:10:16.970430,185.0
2023-08-15 18:10:16.978119,485.0
2023-08-15 18:10:16.985809,516.0
2023-08-15 18:10:16.993499,88.0
2023-08-15 18:10:17.001188,-471.0
2023-08-15 18:10:17.008878,-611.0
2023-08-15 18:10:17.016568,-288.0
2023-08-15 18:10:17.024257,-59.0
2023-08-15 18:10:17.031947,-97.0
2023-08-15 18:10:17.039636,-107.0
2023-08-15 18:10:17.047326,-64.0
2023-08-15 18:10:17.055016,-71.0
2023-08-15 18:10:17.062705,-71.0
2023-08-15 18:10:17.070395,-45.0
2023-08-15 18:10:17.078084,-42.0
2023-08-15 18:10:17.085774,-45.0
2023-08-15 18:10:17.093464,-23.0
2023-08-15 18:10:17.101153,-7.0
2023-08-15 18:10:17.108843,-4.0
2023-08-15 18:10:17.116533,7.0
2023-08-15 18:10:17.124222,28.0
2023-08-15 18:10:17.131912,52.0
2023-08-15 18:10:17.139601,66.0
2023-08-15 18:10:17.147291,88.0
2023-08-15 18:10:17.154981,111.0
2023-08-15 18:10:17.162670,126.0
2023-08-15 18:10:17.170360,145.0
2023-08-15 18:10:17.178049,173.0
2023-08-15 18:10:17.185739,190.0
2023-08-15 18:10:17.193429,195.0
2023-08-15 18:10:17.201118,195.0
2023-08-15 18:10:17.208808,183.0
2023-08-15 18:10:17.216498,161.0
2023-08-15 18:10:17.224187,126.0
2023-08-15 18:10:17.231877,69.0
2023-08-15 18:10:17.239566,2.0
2023-08-15 18:10:17.247256,-57.0
2023-08-15 18:10:17.254946,-107.0
2023-08-15 18:10:17.262635,-145.0
2023-08-15 18:10:17.270325,-166.0
2023-08-15 18:10:17.278014,-176.0
2023-08-15 18:10:17.285704,-180.0
2023-08-15 18:10:17.293394,-188.0
2023-08-15 18:10:17.301083,-188.0
2023-08-15 18:10:17.308773,-183.0
2023-08-15 18:10:17.316463,-180.0
2023-08-15 18:10:17.324152,-173.0
2023-08-15 18:10:17.331842,-164.0
2023-08-15 18:10:17.339531,-159.0
2023-08-15 18:10:17.347221,-154.0
2023-08-15 18:10:17.354911,-142.0
2023-08-15 18:10:17.362600,-135.0
2023-08-15 18:10:17.370290,-135.0
2023-08-15 18:10:17.377979,-133.0
2023-08-15 18:10:17.385669,-128.0
2023-08-15 18:10:17.393359,-130.0
2023-08-15 18:10:17.401048,-135.0
2023-08-15 18:10:17.408738,-133.0
2023-08-15 18:10:17.416428,-130.0
2023-08-15 18:10:17.424117,-133.0
2023-08-15 18:10:17.431807,-130.0
2023-08-15 18:10:17.439496,-128.0
2023-08-15 18:10:17.447186,-128.0
2023-08-15 18:10:17.454876,-126.0
2023-08-15 18:10:17.462565,-128.0
2023-08-15 18:10:17.470255,-128.0
2023-08-15 18:10:17.477944,-121.0
2023-08-15 18:10:17.485634,-116.0
2023-08-15 18:10:17.493324,-121.0
2023-08-15 18:10:17.501013,-114.0
2023-08-15 18:10:17.508703,-88.0
2023-08-15 18:10:17.516393,-78.0
2023-08-15 18:10:17.524082,-95.0
2023-08-15 18:10:17.531772,-116.0
2023-08-15 18:10:17.539461,-130.0
2023-08-15 18:10:17.547151,-133.0
2023-08-15 18:10:17.554841,-123.0
2023-08-15 18:10:17.562530,-121.0
2023-08-15 18:10:17.570220,-126.0
2023-08-15 18:10:17.577909,-107.0
2023-08-15 18:10:17.585599,-14.0
2023-08-15 18:10:17.593289,223.0
2023-08-15 18:10:17.600978,490.0
2023-08-15 18:10:17.608668,433.0
2023-08-15 18:10:17.616358,-47.0
2023-08-15 18:10:17.624047,-542.0
2023-08-15 18:10:17.631737,-554.0
2023-08-15 18:10:17.639426,-209.0
2023-08-15 18:10:17.647116,-59.0
2023-08-15 18:10:17.654806,-123.0
2023-08-15 18:10:17.662495,-111.0
2023-08-15 18:10:17.670185,-73.0
2023-08-15 18:10:17.677874,-90.0
2023-08-15 18:10:17.685564,-88.0
2023-08-15 18:10:17.693254,-59.0
2023-08-15 18:10:17.700943,-52.0
2023-08-15 18:10:17.708633,-54.0
2023-08-15 18:10:17.716323,-40.0
2023-08-15 18:10:17.724012,-23.0
2023-08-15 18:10:17.731702,-14.0
2023-08-15 18:10:17.739391,0.0
2023-08-15 18:10:17.747081,21.0
2023-08-15 18:10:17.754771,33.0
2023-08-15 18:10:17.762460,52.0
2023-08-15 18:10:17.770150,78.0
2023-08-15 18:10:17.777839,97.0
2023-08-15 18:10:17.785529,114.0
2023-08-15 18:10:17.793219,138.0
2023-08-15 18:10:17.800908,157.0
2023-08-15 18:10:17.808598,164.0
2023-08-15 18:10:17.816288,171.0
2023-08-15 18:10:17.823977,176.0
2023-08-15 18:10:17.831667,164.0
2023-08-15 18:10:17.839356,133.0
2023-08-15 18:10:17.847046,92.0
2023-08-15 18:10:17.854736,42.0
2023-08-15 18:10:17.862425,-19.0
2023-08-15 18:10:17.870115,-66.0
2023-08-15 18:10:17.877804,-104.0
2023-08-15 18:10:17.885494,-142.0
2023-08-15 18:10:17.893184,-166.0
2023-08-15 18:10:17.900873,-169.0
2023-08-15 18:10:17.908563,-171.0
2023-08-15 18:10:17.916253,-183.0
2023-08-15 18:10:17.923942,-183.0
2023-08-15 18:10:17.931632,-176.0
2023-08-15 18:10:17.939321,-176.0
2023-08-15 18:10:17.947011,-176.0
2023-08-15 18:10:17.954701,-164.0
2023-08-15 18:10:17.962390,-159.0
2023-08-15 18:10:17.970080,-157.0
2023-08-15 18:10:17.977769,-149.0
2023-08-15 18:10:17.985459,-145.0
2023-08-15 18:10:17.993149,-145.0
2023-08-15 18:10:18.000838,-145.0
2023-08-15 18:10:18.008528,-147.0
2023-08-15 18:10:18.016218,-140.0
2023-08-15 18:10:18.023907,-145.0
2023-08-15 18:10:18.031597,-157.0
2023-08-15 18:10:18.039286,-157.0
2023-08-15 18:10:18.046976,-142.0
2023-08-15 18:10:18.054666,-140.0
2023-08-15 18:10:18.062355,-147.0
2023-08-15 18:10:18.070045,-142.0
2023-08-15 18:10:18.077734,-138.0
2023-08-15 18:10:18.085424,-138.0
2023-08-15 18:10:18.093114,-135.0
2023-08-15 18:10:18.100803,-133.0
2023-08-15 18:10:18.108493,-128.0
2023-08-15 18:10:18.116183,-121.0
2023-08-15 18:10:18.123872,-119.0
2023-08-15 18:10:18.131562,-111.0
2023-08-15 18:10:18.139251,-92.0
2023-08-15 18:10:18.146941,-78.0
2023-08-15 18:10:18.154631,-80.0
2023-08-15 18:10:18.162320,-99.0
2023-08-15 18:10:18.170010,-121.0
2023-08-15 18:10:18.177699,-130.0
2023-08-15 18:10:18.185389,-123.0
2023-08-15 18:10:18.193079,-116.0
2023-08-15 18:10:18.200768,-119.0
2023-08-15 18:10:18.208458,-111.0
2023-08-15 18:10:18.216148,-76.0
2023-08-15 18:10:18.223837,64.0
2023-08-15 18:10:18.231527,342.0
2023-08-15 18:10:18.239216,523.0
2023-08-15 18:10:18.246906,288.0
2023-08-15 18:10:18.254596,-261.0
2023-08-15 18:10:18.262285,-590.0
2023-08-15 18:10:18.269975,-397.0
2023-08-15 18:10:18.277664,-97.0
2023-08-15 18:10:18.285354,-76.0
2023-08-15 18:10:18.293044,-123.0
2023-08-15 18:10:18.300733,-76.0
2023-08-15 18:10:18.308423,-64.0
2023-08-15 18:10:18.316113,-85.0
2023-08-15 18:10:18.323802,-64.0
2023-08-15 18:10:18.331492,-47.0
2023-08-15 18:10:18.339181,-52.0
2023-08-15 18:10:18.346871,-40.0
2023-08-15 18:10:18.354561,-21.0
2023-08-15 18:10:18.362250,-9.0
2023-08-15 18:10:18.369940,4.0
2023-08-15 18:10:18.377629,21.0
2023-08-15 18:10:18.385319,33.0
2023-08-15 18:10:18.393009,47.0
2023-08-15 18:10:18.400698,69.0
2023-08-15 18:10:18.408388,85.0
2023-08-15 18:10:18.416078,99.0
2023-08-15 18:10:18.423767,121.0
2023-08-15 18:10:18.431457,145.0
2023-08-15 18:10:18.439146,157.0
2023-08-15 18:10:18.446836,166.0
2023-08-15 18:10:18.454526,173.0
2023-08-15 18:10:18.462215,171.0
2023-08-15 18:10:18.469905,157.0
2023-08-15 18:10:18.477594,130.0
2023-08-15 18:10:18.485284,88.0
2023-08-15 18:10:18.492974,30.0
2023-08-15 18:10:18.500663,-28.0
2023-08-15 18:10:18.508353,-78.0
2023-08-15 18:10:18.516043,-116.0
2023-08-15 18:10:18.523732,-140.0
2023-08-15 18:10:18.531422,-159.0
2023-08-15 18:10:18.539111,-169.0
2023-08-15 18:10:18.546801,-171.0
2023-08-15 18:10:18.554491,-166.0
2023-08-15 18:10:18.562180,-169.0
2023-08-15 18:10:18.569870,-176.0
2023-08-15 18:10:18.577559,-173.0
2023-08-15 18:10:18.585249,-169.0
2023-08-15 18:10:18.592939,-164.0
2023-08-15 18:10:18.600628,-154.0
2023-08-15 18:10:18.608318,-149.0
2023-08-15 18:10:18.616008,-149.0
2023-08-15 18:10:18.623697,-145.0
2023-08-15 18:10:18.631387,-142.0
2023-08-15 18:10:18.639076,-140.0
2023-08-15 18:10:18.646766,-133.0
2023-08-15 18:10:18.654456,-130.0
2023-08-15 18:10:18.662145,-128.0
2023-08-15 18:10:18.669835,-128.0
2023-08-15 18:10:18.677524,-128.0
2023-08-15 18:10:18.685214,-126.0
2023-08-15 18:10:18.692904,-126.0
2023-08-15 18:10:18.700593,-126.0
2023-08-15 18:10:18.708283,-123.0
2023-08-15 18:10:18.715973,-119.0
2023-08-15 18:10:18.723662,-121.0
2023-08-15 18:10:18.731352,-121.0
2023-08-15 18:10:18.739041,-116.0
2023-08-15 18:10:18.746731,-121.0
2023-08-15 18:10:18.754421,-121.0
2023-08-15 18:10:18.762110,-109.0
2023-08-15 18:10:18.769800,-102.0
2023-08-15 18:10:18.777489,-102.0
2023-08-15 18:10:18.785179,-90.0
2023-08-15 18:10:18.792869,-66.0
2023-08-15 18:10:18.800558,-54.0
2023-08-15 18:10:18.808248,-66.0
2023-08-15 18:10:18.815938,-90.0
2023-08-15 18:10:18.823627,-111.0
2023-08-15 18:10:18.831317,-111.0
2023-08-15 18:10:18.839006,-102.0
2023-08-15 18:10:18.846696,-99.0
2023-08-15 18:10:18.854386,-97.0
2023-08-15 18:10:18.862075,-78.0
2023-08-15 18:10:18.869765,9.0
2023-08-15 18:10:18.877454,238.0
2023-08-15 18:10:18.885144,504.0
2023-08-15 18:10:18.892834,461.0
2023-08-15 18:10:18.900523,-9.0
2023-08-15 18:10:18.908213,-497.0
2023-08-15 18:10:18.915903,-516.0
2023-08-15 18:10:18.923592,-211.0
2023-08-15 18:10:18.931282,-73.0
2023-08-15 18:10:18.938971,-107.0
2023-08-15 18:10:18.946661,-88.0
2023-08-15 18:10:18.954351,-57.0
2023-08-15 18:10:18.962040,-71.0
2023-08-15 18:10:18.969730,-71.0
2023-08-15 18:10:18.977419,-49.0
2023-08-15 18:10:18.985109,-35.0
2023-08-15 18:10:18.992799,-26.0
2023-08-15 18:10:19.000488,-19.0
2023-08-15 18:10:19.008178,-9.0
2023-08-15 18:10:19.015868,2.0
2023-08-15 18:10:19.023557,14.0
2023-08-15 18:10:19.031247,28.0
2023-08-15 18:10:19.038936,47.0
2023-08-15 18:10:19.046626,66.0
2023-08-15 18:10:19.054316,78.0
2023-08-15 18:10:19.062005,97.0
2023-08-15 18:10:19.069695,123.0
2023-08-15 18:10:19.077384,145.0
2023-08-15 18:10:19.085074,157.0
2023-08-15 18:10:19.092764,169.0
2023-08-15 18:10:19.100453,173.0
2023-08-15 18:10:19.108143,164.0
2023-08-15 18:10:19.115832,152.0
2023-08-15 18:10:19.123522,135.0
2023-08-15 18:10:19.131212,97.0
2023-08-15 18:10:19.138901,40.0
2023-08-15 18:10:19.146591,-16.0
2023-08-15 18:10:19.154281,-66.0
2023-08-15 18:10:19.161970,-109.0
2023-08-15 18:10:19.169660,-142.0
2023-08-15 18:10:19.177349,-157.0
2023-08-15 18:10:19.185039,-164.0
2023-08-15 18:10:19.192729,-178.0
2023-08-15 18:10:19.200418,-185.0
2023-08-15 18:10:19.208108,-176.0
2023-08-15 18:10:19.215797,-171.0
2023-08-15 18:10:19.223487,-171.0
2023-08-15 18:10:19.231177,-169.0
2023-08-15 18:10:19.238866,-161.0
2023-08-15 18:10:19.246556,-157.0
2023-08-15 18:10:19.254246,-149.0
2023-08-15 18:10:19.261935,-145.0
2023-08-15 18:10:19.269625,-142.0
2023-08-15 18:10:19.277314,-138.0
2023-08-15 18:10:19.285004,-133.0
2023-08-15 18:10:19.292694,-130.0
2023-08-15 18:10:19.300383,-128.0
2023-08-15 18:10:19.308073,-126.0
2023-08-15 18:10:19.315762,-123.0
2023-08-15 18:10:19.323452,-123.0
2023-08-15 18:10:19.331142,-123.0
2023-08-15 18:10:19.338831,-128.0
2023-08-15 18:10:19.346521,-128.0
2023-08-15 18:10:19.354211,-123.0
2023-08-15 18:10:19.361900,-121.0
2023-08-15 18:10:19.369590,-123.0
2023-08-15 18:10:19.377279,-121.0
2023-08-15 18:10:19.384969,-119.0
2023-08-15 18:10:19.392659,-119.0
2023-08-15 18:10:19.400348,-111.0
2023-08-15 18:10:19.408038,-111.0
2023-08-15 18:10:19.415727,-114.0
2023-08-15 18:10:19.423417,-97.0
2023-08-15 18:10:19.431107,-76.0
2023-08-15 18:10:19.438796,-73.0
2023-08-15 18:10:19.446486,-80.0
2023-08-15 18:10:19.454176,-102.0
2023-08-15 18:10:19.461865,-121.0
2023-08-15 18:10:19.469555,-116.0
2023-08-15 18:10:19.477244,-102.0
2023-08-15 18:10:19.484934,-102.0
2023-08-15 18:10:19.492624,-95.0
2023-08-15 18:10:19.500313,-35.0
2023-08-15 18:10:19.508003,154.0
2023-08-15 18:10:19.515692,442.0
2023-08-15 18:10:19.523382,533.0
2023-08-15 18:10:19.531072,176.0
2023-08-15 18:10:19.538761,-390.0
2023-08-15 18:10:19.546451,-611.0
2023-08-15 18:10:19.554141,-364.0
2023-08-15 18:10:19.561830,-123.0
2023-08-15 18:10:19.569520,-102.0
2023-08-15 18:10:19.577209,-102.0
2023-08-15 18:10:19.584899,-69.0
2023-08-15 18:10:19.592589,-73.0
2023-08-15 18:10:19.600278,-76.0
2023-08-15 18:10:19.607968,-52.0
2023-08-15 18:10:19.615657,-35.0
2023-08-15 18:10:19.623347,-38.0
2023-08-15 18:10:19.631037,-28.0
2023-08-15 18:10:19.638726,-16.0
2023-08-15 18:10:19.646416,-14.0
2023-08-15 18:10:19.654106,-9.0
2023-08-15 18:10:19.661795,9.0
2023-08-15 18:10:19.669485,28.0
2023-08-15 18:10:19.677174,47.0
2023-08-15 18:10:19.684864,61.0
2023-08-15 18:10:19.692554,83.0
2023-08-15 18:10:19.700243,109.0
2023-08-15 18:10:19.707933,126.0
2023-08-15 18:10:19.715622,142.0
2023-08-15 18:10:19.723312,161.0
2023-08-15 18:10:19.731002,169.0
2023-08-15 18:10:19.738691,161.0
2023-08-15 18:10:19.746381,152.0
2023-08-15 18:10:19.754071,135.0
2023-08-15 18:10:19.761760,97.0
2023-08-15 18:10:19.769450,49.0
2023-08-15 18:10:19.777139,0.0
2023-08-15 18:10:19.784829,-54.0
2023-08-15 18:10:19.792519,-107.0
2023-08-15 18:10:19.800208,-135.0
2023-08-15 18:10:19.807898,-152.0
2023-08-15 18:10:19.815587,-166.0
2023-08-15 18:10:19.823277,-178.0
2023-08-15 18:10:19.830967,-180.0
2023-08-15 18:10:19.838656,-176.0
2023-08-15 18:10:19.846346,-171.0
2023-08-15 18:10:19.854036,-171.0
2023-08-15 18:10:19.861725,-164.0
2023-08-15 18:10:19.869415,-154.0
2023-08-15 18:10:19.877104,-154.0
2023-08-15 18:10:19.884794,-149.0
2023-08-15 18:10:19.892484,-147.0
2023-08-15 18:10:19.900173,-149.0
2023-08-15 18:10:19.907863,-145.0
2023-08-15 18:10:19.915552,-135.0
2023-08-15 18:10:19.923242,-135.0
2023-08-15 18:10:19.930932,-135.0
2023-08-15 18:10:19.938621,-128.0
2023-08-15 18:10:19.946311,-133.0
2023-08-15 18:10:19.954001,-128.0
2023-08-15 18:10:19.961690,-126.0
2023-08-15 18:10:19.969380,-135.0
2023-08-15 18:10:19.977069,-135.0
2023-08-15 18:10:19.984759,-128.0
2023-08-15 18:10:19.992449,-126.0
2023-08-15 18:10:20.000138,-121.0
2023-08-15 18:10:20.007828,-121.0
2023-08-15 18:10:20.015517,-128.0
2023-08-15 18:10:20.023207,-126.0
2023-08-15 18:10:20.030897,-116.0
2023-08-15 18:10:20.038586,-111.0
2023-08-15 18:10:20.046276,-114.0
2023-08-15 18:10:20.053966,-114.0
2023-08-15 18:10:20.061655,-92.0
2023-08-15 18:10:20.069345,-69.0
2023-08-15 18:10:20.077034,-76.0
2023-08-15 18:10:20.084724,-90.0
2023-08-15 18:10:20.092414,-99.0
2023-08-15 18:10:20.100103,-119.0
2023-08-15 18:10:20.107793,-123.0
2023-08-15 18:10:20.115482,-109.0
2023-08-15 18:10:20.123172,-104.0
2023-08-15 18:10:20.130862,-102.0
2023-08-15 18:10:20.138551,-66.0
2023-08-15 18:10:20.146241,92.0
2023-08-15 18:10:20.153931,390.0
2023-08-15 18:10:20.161620,535.0
2023-08-15 18:10:20.169310,226.0
2023-08-15 18:10:20.176999,-338.0
2023-08-15 18:10:20.184689,-590.0
2023-08-15 18:10:20.192379,-347.0
2023-08-15 18:10:20.200068,-85.0
2023-08-15 18:10:20.207758,-88.0
2023-08-15 18:10:20.215447,-111.0
2023-08-15 18:10:20.223137,-71.0
2023-08-15 18:10:20.230827,-76.0
2023-08-15 18:10:20.238516,-92.0
2023-08-15 18:10:20.246206,-73.0
2023-08-15 18:10:20.253896,-59.0
2023-08-15 18:10:20.261585,-59.0
2023-08-15 18:10:20.269275,-42.0
2023-08-15 18:10:20.276964,-26.0
2023-08-15 18:10:20.284654,-19.0
2023-08-15 18:10:20.292344,-4.0
2023-08-15 18:10:20.300033,11.0
2023-08-15 18:10:20.307723,23.0
2023-08-15 18:10:20.315412,35.0
2023-08-15 18:10:20.323102,61.0
2023-08-15 18:10:20.330792,85.0
2023-08-15 18:10:20.338481,104.0
2023-08-15 18:10:20.346171,119.0
2023-08-15 18:10:20.353861,135.0
2023-08-15 18:10:20.361550,147.0
2023-08-15 18:10:20.369240,159.0
2023-08-15 18:10:20.376929,164.0
2023-08-15 18:10:20.384619,149.0
2023-08-15 18:10:20.392309,126.0
2023-08-15 18:10:20.399998,99.0
2023-08-15 18:10:20.407688,57.0
2023-08-15 18:10:20.415377,2.0
2023-08-15 18:10:20.423067,-47.0
2023-08-15 18:10:20.430757,-92.0
2023-08-15 18:10:20.438446,-128.0
2023-08-15 18:10:20.446136,-157.0
2023-08-15 18:10:20.453826,-173.0
2023-08-15 18:10:20.461515,-173.0
2023-08-15 18:10:20.469205,-176.0
2023-08-15 18:10:20.476894,-183.0
2023-08-15 18:10:20.484584,-171.0
2023-08-15 18:10:20.492274,-164.0
2023-08-15 18:10:20.499963,-169.0
2023-08-15 18:10:20.507653,-161.0
2023-08-15 18:10:20.515342,-152.0
2023-08-15 18:10:20.523032,-164.0
2023-08-15 18:10:20.530722,-166.0
2023-08-15 18:10:20.538411,-142.0
2023-08-15 18:10:20.546101,-135.0
2023-08-15 18:10:20.553791,-138.0
2023-08-15 18:10:20.561480,-133.0
2023-08-15 18:10:20.569170,-128.0
2023-08-15 18:10:20.576859,-128.0
2023-08-15 18:10:20.584549,-123.0
2023-08-15 18:10:20.592239,-123.0
2023-08-15 18:10:20.599928,-123.0
2023-08-15 18:10:20.607618,-119.0
2023-08-15 18:10:20.615307,-123.0
2023-08-15 18:10:20.622997,-130.0
2023-08-15 18:10:20.630687,-126.0
2023-08-15 18:10:20.638376,-123.0
2023-08-15 18:10:20.646066,-123.0
2023-08-15 18:10:20.653756,-123.0
2023-08-15 18:10:20.661445,-123.0
2023-08-15 18:10:20.669135,-121.0
2023-08-15 18:10:20.676824,-121.0
2023-08-15 18:10:20.684514,-116.0
2023-08-15 18:10:20.692204,-102.0
2023-08-15 18:10:20.699893,-99.0
2023-08-15 18:10:20.707583,-102.0
2023-08-15 18:10:20.715272,-85.0
2023-08-15 18:10:20.722962,-69.0
2023-08-15 18:10:20.730652,-76.0
2023-08-15 18:10:20.738341,-97.0
2023-08-15 18:10:20.746031,-116.0
2023-08-15 18:10:20.753721,-119.0
2023-08-15 18:10:20.761410,-116.0
2023-08-15 18:10:20.769100,-121.0
2023-08-15 18:10:20.776789,-128.0
2023-08-15 18:10:20.784479,-114.0
2023-08-15 18:10:20.792169,-47.0
2023-08-15 18:10:20.799858,142.0
2023-08-15 18:10:20.807548,418.0
2023-08-15 18:10:20.815237,473.0
2023-08-15 18:10:20.822927,90.0
2023-08-15 18:10:20.830617,-433.0
2023-08-15 18:10:20.838306,-557.0
2023-08-15 18:10:20.845996,-268.0
2023-08-15 18:10:20.853686,-76.0
2023-08-15 18:10:20.861375,-116.0
2023-08-15 18:10:20.869065,-123.0
2023-08-15 18:10:20.876754,-80.0
2023-08-15 18:10:20.884444,-83.0
2023-08-15 18:10:20.892134,-92.0
2023-08-15 18:10:20.899823,-73.0
2023-08-15 18:10:20.907513,-57.0
2023-08-15 18:10:20.915202,-54.0
2023-08-15 18:10:20.922892,-45.0
2023-08-15 18:10:20.930582,-28.0
2023-08-15 18:10:20.938271,-16.0
2023-08-15 18:10:20.945961,-7.0
2023-08-15 18:10:20.953651,9.0
2023-08-15 18:10:20.961340,21.0
2023-08-15 18:10:20.969030,35.0
2023-08-15 18:10:20.976719,59.0
2023-08-15 18:10:20.984409,78.0
2023-08-15 18:10:20.992099,88.0
2023-08-15 18:10:20.999788,104.0
2023-08-15 18:10:21.007478,130.0
2023-08-15 18:10:21.015167,140.0
2023-08-15 18:10:21.022857,130.0
2023-08-15 18:10:21.030547,126.0
2023-08-15 18:10:21.038236,121.0
2023-08-15 18:10:21.045926,107.0
2023-08-15 18:10:21.053616,73.0
2023-08-15 18:10:21.061305,23.0
2023-08-15 18:10:21.068995,-16.0
2023-08-15 18:10:21.076684,-54.0
2023-08-15 18:10:21.084374,-102.0
2023-08-15 18:10:21.092064,-140.0
2023-08-15 18:10:21.099753,-152.0
2023-08-15 18:10:21.107443,-159.0
2023-08-15 18:10:21.115132,-173.0
2023-08-15 18:10:21.122822,-183.0
2023-08-15 18:10:21.130512,-178.0
2023-08-15 18:10:21.138201,-173.0
2023-08-15 18:10:21.145891,-173.0
2023-08-15 18:10:21.153581,-166.0
2023-08-15 18:10:21.161270,-149.0
2023-08-15 18:10:21.168960,-145.0
2023-08-15 18:10:21.176649,-147.0
2023-08-15 18:10:21.184339,-142.0
2023-08-15 18:10:21.192029,-130.0
2023-08-15 18:10:21.199718,-123.0
2023-08-15 18:10:21.207408,-126.0
2023-08-15 18:10:21.215097,-123.0
2023-08-15 18:10:21.222787,-121.0
2023-08-15 18:10:21.230477,-121.0
2023-08-15 18:10:21.238166,-119.0
2023-08-15 18:10:21.245856,-109.0
2023-08-15 18:10:21.253546,-109.0
2023-08-15 18:10:21.261235,-121.0
2023-08-15 18:10:21.268925,-121.0
2023-08-15 18:10:21.276614,-111.0
2023-08-15 18:10:21.284304,-114.0
2023-08-15 18:10:21.291994,-114.0
2023-08-15 18:10:21.299683,-109.0
2023-08-15 18:10:21.307373,-114.0
2023-08-15 18:10:21.315062,-116.0
2023-08-15 18:10:21.322752,-107.0
2023-08-15 18:10:21.330442,-102.0
2023-08-15 18:10:21.338131,-104.0
2023-08-15 18:10:21.345821,-104.0
2023-08-15 18:10:21.353511,-90.0
2023-08-15 18:10:21.361200,-83.0
2023-08-15 18:10:21.368890,-85.0
2023-08-15 18:10:21.376579,-73.0
2023-08-15 18:10:21.384269,-54.0
2023-08-15 18:10:21.391959,-61.0
2023-08-15 18:10:21.399648,-92.0
2023-08-15 18:10:21.407338,-119.0
2023-08-15 18:10:21.415027,-119.0
2023-08-15 18:10:21.422717,-111.0
2023-08-15 18:10:21.430407,-111.0
2023-08-15 18:10:21.438096,-114.0
2023-08-15 18:10:21.445786,-97.0
2023-08-15 18:10:21.453476,-40.0
2023-08-15 18:10:21.461165,123.0
2023-08-15 18:10:21.468855,390.0
2023-08-15 18:10:21.476544,483.0
2023-08-15 18:10:21.484234,140.0
2023-08-15 18:10:21.491924,-392.0
2023-08-15 18:10:21.499613,-564.0
2023-08-15 18:10:21.507303,-283.0
2023-08-15 18:10:21.514992,-61.0
2023-08-15 18:10:21.522682,-92.0
2023-08-15 18:10:21.530372,-107.0
2023-08-15 18:10:21.538061,-64.0
2023-08-15 18:10:21.545751,-71.0
2023-08-15 18:10:21.553441,-78.0
2023-08-15 18:10:21.561130,-52.0
2023-08-15 18:10:21.568820,-45.0
2023-08-15 18:10:21.576509,-47.0
2023-08-15 18:10:21.584199,-28.0
2023-08-15 18:10:21.591889,-9.0
2023-08-15 18:10:21.599578,-2.0
2023-08-15 18:10:21.607268,11.0
2023-08-15 18:10:21.614957,28.0
2023-08-15 18:10:21.622647,35.0
2023-08-15 18:10:21.630337,52.0
2023-08-15 18:10:21.638026,80.0
2023-08-15 18:10:21.645716,92.0
2023-08-15 18:10:21.653406,102.0
2023-08-15 18:10:21.661095,126.0
2023-08-15 18:10:21.668785,140.0
2023-08-15 18:10:21.676474,147.0
2023-08-15 18:10:21.684164,159.0
2023-08-15 18:10:21.691854,169.0
2023-08-15 18:10:21.699543,164.0
2023-08-15 18:10:21.707233,140.0
2023-08-15 18:10:21.714922,107.0
2023-08-15 18:10:21.722612,69.0
2023-08-15 18:10:21.730302,16.0
2023-08-15 18:10:21.737991,-40.0
2023-08-15 18:10:21.745681,-83.0
2023-08-15 18:10:21.753371,-116.0
2023-08-15 18:10:21.761060,-149.0
2023-08-15 18:10:21.768750,-169.0
2023-08-15 18:10:21.776439,-166.0
2023-08-15 18:10:21.784129,-166.0
2023-08-15 18:10:21.791819,-171.0
2023-08-15 18:10:21.799508,-164.0
2023-08-15 18:10:21.807198,-161.0
2023-08-15 18:10:21.814887,-164.0
2023-08-15 18:10:21.822577,-152.0
2023-08-15 18:10:21.830267,-142.0
2023-08-15 18:10:21.837956,-140.0
2023-08-15 18:10:21.845646,-138.0
2023-08-15 18:10:21.853336,-133.0
2023-08-15 18:10:21.861025,-130.0
2023-08-15 18:10:21.868715,-128.0
2023-08-15 18:10:21.876404,-121.0
2023-08-15 18:10:21.884094,-111.0
2023-08-15 18:10:21.891784,-114.0
2023-08-15 18:10:21.899473,-128.0
2023-08-15 18:10:21.907163,-121.0
2023-08-15 18:10:21.914852,-104.0
2023-08-15 18:10:21.922542,-111.0
2023-08-15 18:10:21.930232,-121.0
2023-08-15 18:10:21.937921,-121.0
2023-08-15 18:10:21.945611,-128.0
2023-08-15 18:10:21.953301,-126.0
2023-08-15 18:10:21.960990,-114.0
2023-08-15 18:10:21.968680,-116.0
2023-08-15 18:10:21.976369,-121.0
2023-08-15 18:10:21.984059,-114.0
2023-08-15 18:10:21.991749,-109.0
2023-08-15 18:10:21.999438,-114.0
2023-08-15 18:10:22.007128,-111.0
2023-08-15 18:10:22.014817,-104.0
2023-08-15 18:10:22.022507,-99.0
2023-08-15 18:10:22.030197,-90.0
2023-08-15 18:10:22.037886,-76.0
2023-08-15 18:10:22.045576,-71.0
2023-08-15 18:10:22.053266,-71.0
2023-08-15 18:10:22.060955,-88.0
2023-08-15 18:10:22.068645,-111.0
2023-08-15 18:10:22.076334,-114.0
2023-08-15 18:10:22.084024,-104.0
2023-08-15 18:10:22.091714,-107.0
2023-08-15 18:10:22.099403,-114.0
2023-08-15 18:10:22.107093,-88.0
2023-08-15 18:10:22.114782,19.0
2023-08-15 18:10:22.122472,252.0
2023-08-15 18:10:22.130162,492.0
2023-08-15 18:10:22.137851,414.0
2023-08-15 18:10:22.145541,-80.0
2023-08-15 18:10:22.153231,-540.0
2023-08-15 18:10:22.160920,-514.0
2023-08-15 18:10:22.168610,-207.0
2023-08-15 18:10:22.176299,-88.0
2023-08-15 18:10:22.183989,-116.0
2023-08-15 18:10:22.191679,-83.0
2023-08-15 18:10:22.199368,-59.0
2023-08-15 18:10:22.207058,-73.0
2023-08-15 18:10:22.214747,-61.0
2023-08-15 18:10:22.222437,-42.0
2023-08-15 18:10:22.230127,-40.0
2023-08-15 18:10:22.237816,-30.0
2023-08-15 18:10:22.245506,-14.0
2023-08-15 18:10:22.253196,-7.0
2023-08-15 18:10:22.260885,4.0
2023-08-15 18:10:22.268575,26.0
2023-08-15 18:10:22.276264,35.0
2023-08-15 18:10:22.283954,49.0
2023-08-15 18:10:22.291644,76.0
2023-08-15 18:10:22.299333,90.0
2023-08-15 18:10:22.307023,97.0
2023-08-15 18:10:22.314712,119.0
2023-08-15 18:10:22.322402,145.0
2023-08-15 18:10:22.330092,152.0
2023-08-15 18:10:22.337781,157.0
2023-08-15 18:10:22.345471,169.0
2023-08-15 18:10:22.353161,161.0
2023-08-15 18:10:22.360850,142.0
2023-08-15 18:10:22.368540,126.0
2023-08-15 18:10:22.376229,92.0
2023-08-15 18:10:22.383919,33.0
2023-08-15 18:10:22.391609,-23.0
2023-08-15 18:10:22.399298,-69.0
2023-08-15 18:10:22.406988,-114.0
2023-08-15 18:10:22.414677,-149.0
2023-08-15 18:10:22.422367,-169.0
2023-08-15 18:10:22.430057,-180.0
2023-08-15 18:10:22.437746,-183.0
2023-08-15 18:10:22.445436,-178.0
2023-08-15 18:10:22.453126,-176.0
2023-08-15 18:10:22.460815,-173.0
2023-08-15 18:10:22.468505,-169.0
2023-08-15 18:10:22.476194,-171.0
2023-08-15 18:10:22.483884,-171.0
2023-08-15 18:10:22.491574,-159.0
2023-08-15 18:10:22.499263,-152.0
2023-08-15 18:10:22.506953,-154.0
2023-08-15 18:10:22.514642,-145.0
2023-08-15 18:10:22.522332,-138.0
2023-08-15 18:10:22.530022,-142.0
2023-08-15 18:10:22.537711,-145.0
2023-08-15 18:10:22.545401,-140.0
2023-08-15 18:10:22.553091,-135.0
2023-08-15 18:10:22.560780,-138.0
2023-08-15 18:10:22.568470,-142.0
2023-08-15 18:10:22.576159,-138.0
2023-08-15 18:10:22.583849,-130.0
2023-08-15 18:10:22.591539,-133.0
2023-08-15 18:10:22.599228,-140.0
2023-08-15 18:10:22.606918,-140.0
2023-08-15 18:10:22.614607,-133.0
2023-08-15 18:10:22.622297,-128.0
2023-08-15 18:10:22.629987,-128.0
2023-08-15 18:10:22.637676,-126.0
2023-08-15 18:10:22.645366,-123.0
2023-08-15 18:10:22.653056,-123.0
2023-08-15 18:10:22.660745,-111.0
2023-08-15 18:10:22.668435,-104.0
2023-08-15 18:10:22.676124,-99.0
2023-08-15 18:10:22.683814,-83.0
2023-08-15 18:10:22.691504,-64.0
2023-08-15 18:10:22.699193,-64.0
2023-08-15 18:10:22.706883,-88.0
2023-08-15 18:10:22.714572,-111.0
2023-08-15 18:10:22.722262,-114.0
2023-08-15 18:10:22.729952,-99.0
2023-08-15 18:10:22.737641,-102.0
2023-08-15 18:10:22.745331,-104.0
2023-08-15 18:10:22.753021,-85.0
2023-08-15 18:10:22.760710,-2.0
2023-08-15 18:10:22.768400,221.0
2023-08-15 18:10:22.776089,492.0
2023-08-15 18:10:22.783779,464.0
2023-08-15 18:10:22.791469,-4.0
2023-08-15 18:10:22.799158,-511.0
2023-08-15 18:10:22.806848,-557.0
2023-08-15 18:10:22.814537,-233.0
2023-08-15 18:10:22.822227,-59.0
2023-08-15 18:10:22.829917,-95.0
2023-08-15 18:10:22.837606,-85.0
2023-08-15 18:10:22.845296,-54.0
2023-08-15 18:10:22.852986,-66.0
2023-08-15 18:10:22.860675,-69.0
2023-08-15 18:10:22.868365,-47.0
2023-08-15 18:10:22.876054,-35.0
2023-08-15 18:10:22.883744,-28.0
2023-08-15 18:10:22.891434,-21.0
2023-08-15 18:10:22.899123,-11.0
2023-08-15 18:10:22.906813,7.0
2023-08-15 18:10:22.914502,19.0
2023-08-15 18:10:22.922192,33.0
2023-08-15 18:10:22.929882,52.0
2023-08-15 18:10:22.937571,71.0
2023-08-15 18:10:22.945261,88.0
2023-08-15 18:10:22.952951,104.0
2023-08-15 18:10:22.960640,123.0
2023-08-15 18:10:22.968330,140.0
2023-08-15 18:10:22.976019,159.0
2023-08-15 18:10:22.983709,173.0
2023-08-15 18:10:22.991399,176.0
2023-08-15 18:10:22.999088,171.0
2023-08-15 18:10:23.006778,159.0
2023-08-15 18:10:23.014467,133.0
2023-08-15 18:10:23.022157,90.0
2023-08-15 18:10:23.029847,33.0
2023-08-15 18:10:23.037536,-23.0
2023-08-15 18:10:23.045226,-76.0
2023-08-15 18:10:23.052916,-123.0
2023-08-15 18:10:23.060605,-159.0
2023-08-15 18:10:23.068295,-178.0
2023-08-15 18:10:23.075984,-190.0
2023-08-15 18:10:23.083674,-190.0
2023-08-15 18:10:23.091364,-190.0
2023-08-15 18:10:23.099053,-195.0
2023-08-15 18:10:23.106743,-190.0
2023-08-15 18:10:23.114432,-180.0
2023-08-15 18:10:23.122122,-176.0
2023-08-15 18:10:23.129812,-171.0
2023-08-15 18:10:23.137501,-157.0
2023-08-15 18:10:23.145191,-147.0
2023-08-15 18:10:23.152881,-154.0
2023-08-15 18:10:23.160570,-147.0
2023-08-15 18:10:23.168260,-133.0
2023-08-15 18:10:23.175949,-130.0
2023-08-15 18:10:23.183639,-128.0
2023-08-15 18:10:23.191329,-121.0
2023-08-15 18:10:23.199018,-119.0
2023-08-15 18:10:23.206708,-126.0
2023-08-15 18:10:23.214397,-128.0
2023-08-15 18:10:23.222087,-116.0
2023-08-15 18:10:23.229777,-111.0
2023-08-15 18:10:23.237466,-119.0
2023-08-15 18:10:23.245156,-121.0
2023-08-15 18:10:23.252846,-116.0
2023-08-15 18:10:23.260535,-114.0
2023-08-15 18:10:23.268225,-114.0
2023-08-15 18:10:23.275914,-109.0
2023-08-15 18:10:23.283604,-109.0
2023-08-15 18:10:23.291294,-109.0
2023-08-15 18:10:23.298983,-107.0
2023-08-15 18:10:23.306673,-107.0
2023-08-15 18:10:23.314362,-104.0
2023-08-15 18:10:23.322052,-97.0
2023-08-15 18:10:23.329742,-88.0
2023-08-15 18:10:23.337431,-88.0
2023-08-15 18:10:23.345121,-83.0
2023-08-15 18:10:23.352811,-59.0
2023-08-15 18:10:23.360500,-47.0
2023-08-15 18:10:23.368190,-47.0
2023-08-15 18:10:23.375879,-66.0
2023-08-15 18:10:23.383569,-97.0
2023-08-15 18:10:23.391259,-104.0
2023-08-15 18:10:23.398948,-90.0
2023-08-15 18:10:23.406638,-88.0
2023-08-15 18:10:23.414327,-90.0
2023-08-15 18:10:23.422017,-76.0
2023-08-15 18:10:23.429707,-14.0
2023-08-15 18:10:23.437396,192.0
2023-08-15 18:10:23.445086,483.0
2023-08-15 18:10:23.452776,499.0
2023-08-15 18:10:23.460465,57.0
2023-08-15 18:10:23.468155,-471.0
2023-08-15 18:10:23.475844,-557.0
2023-08-15 18:10:23.483534,-238.0
2023-08-15 18:10:23.491224,-45.0
2023-08-15 18:10:23.498913,-80.0
2023-08-15 18:10:23.506603,-76.0
2023-08-15 18:10:23.514292,-42.0
2023-08-15 18:10:23.521982,-54.0
2023-08-15 18:10:23.529672,-54.0
2023-08-15 18:10:23.537361,-35.0
2023-08-15 18:10:23.545051,-28.0
2023-08-15 18:10:23.552741,-26.0
2023-08-15 18:10:23.560430,-16.0
2023-08-15 18:10:23.568120,-9.0
2023-08-15 18:10:23.575809,0.0
2023-08-15 18:10:23.583499,14.0
2023-08-15 18:10:23.591189,33.0
2023-08-15 18:10:23.598878,45.0
2023-08-15 18:10:23.606568,47.0
2023-08-15 18:10:23.614257,59.0
2023-08-15 18:10:23.621947,83.0
2023-08-15 18:10:23.629637,107.0
2023-08-15 18:10:23.637326,123.0
2023-08-15 18:10:23.645016,138.0
2023-08-15 18:10:23.652706,149.0
2023-08-15 18:10:23.660395,157.0
2023-08-15 18:10:23.668085,154.0
2023-08-15 18:10:23.675774,138.0
2023-08-15 18:10:23.683464,119.0
2023-08-15 18:10:23.691154,90.0
2023-08-15 18:10:23.698843,40.0
2023-08-15 18:10:23.706533,-19.0
2023-08-15 18:10:23.714222,-69.0
2023-08-15 18:10:23.721912,-107.0
2023-08-15 18:10:23.729602,-140.0
2023-08-15 18:10:23.737291,-166.0
2023-08-15 18:10:23.744981,-178.0
2023-08-15 18:10:23.752671,-178.0
2023-08-15 18:10:23.760360,-176.0
2023-08-15 18:10:23.768050,-176.0
2023-08-15 18:10:23.775739,-171.0
2023-08-15 18:10:23.783429,-166.0
2023-08-15 18:10:23.791119,-161.0
2023-08-15 18:10:23.798808,-157.0
2023-08-15 18:10:23.806498,-149.0
2023-08-15 18:10:23.814187,-145.0
2023-08-15 18:10:23.821877,-140.0
2023-08-15 18:10:23.829567,-133.0
2023-08-15 18:10:23.837256,-133.0
2023-08-15 18:10:23.844946,-130.0
2023-08-15 18:10:23.852636,-121.0
2023-08-15 18:10:23.860325,-116.0
2023-08-15 18:10:23.868015,-119.0
2023-08-15 18:10:23.875704,-123.0
2023-08-15 18:10:23.883394,-121.0
2023-08-15 18:10:23.891084,-119.0
2023-08-15 18:10:23.898773,-119.0
2023-08-15 18:10:23.906463,-116.0
2023-08-15 18:10:23.914152,-114.0
2023-08-15 18:10:23.921842,-114.0
2023-08-15 18:10:23.929532,-116.0
2023-08-15 18:10:23.937221,-114.0
2023-08-15 18:10:23.944911,-111.0
2023-08-15 18:10:23.952601,-116.0
2023-08-15 18:10:23.960290,-116.0
2023-08-15 18:10:23.967980,-107.0
2023-08-15 18:10:23.975669,-107.0
2023-08-15 18:10:23.983359,-107.0
2023-08-15 18:10:23.991049,-95.0
2023-08-15 18:10:23.998738,-85.0
2023-08-15 18:10:24.006428,-85.0
2023-08-15 18:10:24.014117,-73.0
2023-08-15 18:10:24.021807,-52.0
2023-08-15 18:10:24.029497,-49.0
2023-08-15 18:10:24.037186,-64.0
2023-08-15 18:10:24.044876,-88.0
2023-08-15 18:10:24.052566,-104.0
2023-08-15 18:10:24.060255,-107.0
2023-08-15 18:10:24.067945,-102.0
2023-08-15 18:10:24.075634,-102.0
2023-08-15 18:10:24.083324,-99.0
2023-08-15 18:10:24.091014,-61.0
2023-08-15 18:10:24.098703,83.0
2023-08-15 18:10:24.106393,352.0
2023-08-15 18:10:24.114082,509.0
2023-08-15 18:10:24.121772,247.0
2023-08-15 18:10:24.129462,-295.0
2023-08-15 18:10:24.137151,-583.0
2023-08-15 18:10:24.144841,-388.0
2023-08-15 18:10:24.152531,-116.0
2023-08-15 18:10:24.160220,-85.0
2023-08-15 18:10:24.167910,-114.0
2023-08-15 18:10:24.175599,-80.0
2023-08-15 18:10:24.183289,-69.0
2023-08-15 18:10:24.190979,-73.0
2023-08-15 18:10:24.198668,-59.0
2023-08-15 18:10:24.206358,-45.0
2023-08-15 18:10:24.214047,-45.0
2023-08-15 18:10:24.221737,-35.0
2023-08-15 18:10:24.229427,-23.0
2023-08-15 18:10:24.237116,-11.0
2023-08-15 18:10:24.244806,0.0
2023-08-15 18:10:24.252496,11.0
2023-08-15 18:10:24.260185,28.0
2023-08-15 18:10:24.267875,42.0
2023-08-15 18:10:24.275564,57.0
2023-08-15 18:10:24.283254,76.0
2023-08-15 18:10:24.290944,95.0
2023-08-15 18:10:24.298633,114.0
2023-08-15 18:10:24.306323,128.0
2023-08-15 18:10:24.314012,138.0
2023-08-15 18:10:24.321702,140.0
2023-08-15 18:10:24.329392,135.0
2023-08-15 18:10:24.337081,130.0
2023-08-15 18:10:24.344771,116.0
2023-08-15 18:10:24.352461,90.0
2023-08-15 18:10:24.360150,49.0
2023-08-15 18:10:24.367840,0.0
2023-08-15 18:10:24.375529,-47.0
2023-08-15 18:10:24.383219,-88.0
2023-08-15 18:10:24.390909,-121.0
2023-08-15 18:10:24.398598,-147.0
2023-08-15 18:10:24.406288,-164.0
2023-08-15 18:10:24.413977,-171.0
2023-08-15 18:10:24.421667,-171.0
2023-08-15 18:10:24.429357,-169.0
2023-08-15 18:10:24.437046,-166.0
2023-08-15 18:10:24.444736,-164.0
2023-08-15 18:10:24.452426,-157.0
2023-08-15 18:10:24.460115,-149.0
2023-08-15 18:10:24.467805,-142.0
2023-08-15 18:10:24.475494,-135.0
2023-08-15 18:10:24.483184,-133.0
2023-08-15 18:10:24.490874,-130.0
2023-08-15 18:10:24.498563,-126.0
2023-08-15 18:10:24.506253,-121.0
2023-08-15 18:10:24.513942,-119.0
2023-08-15 18:10:24.521632,-114.0
2023-08-15 18:10:24.529322,-111.0
2023-08-15 18:10:24.537011,-114.0
2023-08-15 18:10:24.544701,-114.0
2023-08-15 18:10:24.552391,-111.0
2023-08-15 18:10:24.560080,-114.0
2023-08-15 18:10:24.567770,-116.0
2023-08-15 18:10:24.575459,-121.0
2023-08-15 18:10:24.583149,-121.0
2023-08-15 18:10:24.590839,-119.0
2023-08-15 18:10:24.598528,-119.0
2023-08-15 18:10:24.606218,-119.0
2023-08-15 18:10:24.613907,-114.0
2023-08-15 18:10:24.621597,-109.0
2023-08-15 18:10:24.629287,-107.0
2023-08-15 18:10:24.636976,-107.0
2023-08-15 18:10:24.644666,-104.0
2023-08-15 18:10:24.652356,-97.0
2023-08-15 18:10:24.660045,-85.0
2023-08-15 18:10:24.667735,-80.0
2023-08-15 18:10:24.675424,-73.0
2023-08-15 18:10:24.683114,-59.0
2023-08-15 18:10:24.690804,-49.0
2023-08-15 18:10:24.698493,-54.0
2023-08-15 18:10:24.706183,-73.0
2023-08-15 18:10:24.713872,-97.0
2023-08-15 18:10:24.721562,-104.0
2023-08-15 18:10:24.729252,-102.0
2023-08-15 18:10:24.736941,-104.0
2023-08-15 18:10:24.744631,-102.0
2023-08-15 18:10:24.752321,-83.0
2023-08-15 18:10:24.760010,-2.0
2023-08-15 18:10:24.767700,211.0
2023-08-15 18:10:24.775389,473.0
2023-08-15 18:10:24.783079,445.0
2023-08-15 18:10:24.790769,-7.0
2023-08-15 18:10:24.798458,-492.0
2023-08-15 18:10:24.806148,-526.0
2023-08-15 18:10:24.813837,-218.0
2023-08-15 18:10:24.821527,-61.0
2023-08-15 18:10:24.829217,-99.0
2023-08-15 18:10:24.836906,-90.0
2023-08-15 18:10:24.844596,-54.0
2023-08-15 18:10:24.852286,-64.0
2023-08-15 18:10:24.859975,-64.0
2023-08-15 18:10:24.867665,-49.0
2023-08-15 18:10:24.875354,-38.0
2023-08-15 18:10:24.883044,-28.0
2023-08-15 18:10:24.890734,-16.0
2023-08-15 18:10:24.898423,-7.0
2023-08-15 18:10:24.906113,2.0
2023-08-15 18:10:24.913802,14.0
2023-08-15 18:10:24.921492,30.0
2023-08-15 18:10:24.929182,47.0
2023-08-15 18:10:24.936871,64.0
2023-08-15 18:10:24.944561,83.0
2023-08-15 18:10:24.952251,102.0
2023-08-15 18:10:24.959940,126.0
2023-08-15 18:10:24.967630,145.0
2023-08-15 18:10:24.975319,159.0
2023-08-15 18:10:24.983009,169.0
2023-08-15 18:10:24.990699,171.0
2023-08-15 18:10:24.998388,166.0
2023-08-15 18:10:25.006078,161.0
2023-08-15 18:10:25.013767,145.0
2023-08-15 18:10:25.021457,109.0
2023-08-15 18:10:25.029147,59.0
2023-08-15 18:10:25.036836,7.0
2023-08-15 18:10:25.044526,-45.0
2023-08-15 18:10:25.052216,-90.0
2023-08-15 18:10:25.059905,-121.0
2023-08-15 18:10:25.067595,-145.0
2023-08-15 18:10:25.075284,-166.0
2023-08-15 18:10:25.082974,-173.0
2023-08-15 18:10:25.090664,-171.0
2023-08-15 18:10:25.098353,-169.0
2023-08-15 18:10:25.106043,-161.0
2023-08-15 18:10:25.113732,-152.0
2023-08-15 18:10:25.121422,-152.0
2023-08-15 18:10:25.129112,-147.0
2023-08-15 18:10:25.136801,-138.0
2023-08-15 18:10:25.144491,-133.0
2023-08-15 18:10:25.152181,-128.0
2023-08-15 18:10:25.159870,-121.0
2023-08-15 18:10:25.167560,-116.0
2023-08-15 18:10:25.175249,-116.0
2023-08-15 18:10:25.182939,-114.0
2023-08-15 18:10:25.190629,-109.0
2023-08-15 18:10:25.198318,-104.0
2023-08-15 18:10:25.206008,-99.0
2023-08-15 18:10:25.213697,-99.0
2023-08-15 18:10:25.221387,-102.0
2023-08-15 18:10:25.229077,-107.0
2023-08-15 18:10:25.236766,-107.0
2023-08-15 18:10:25.244456,-102.0
2023-08-15 18:10:25.252146,-102.0
2023-08-15 18:10:25.259835,-97.0
2023-08-15 18:10:25.267525,-95.0
2023-08-15 18:10:25.275214,-99.0
2023-08-15 18:10:25.282904,-102.0
2023-08-15 18:10:25.290594,-95.0
2023-08-15 18:10:25.298283,-88.0
2023-08-15 18:10:25.305973,-88.0
2023-08-15 18:10:25.313662,-92.0
2023-08-15 18:10:25.321352,-92.0
2023-08-15 18:10:25.329042,-73.0
2023-08-15 18:10:25.336731,-59.0
2023-08-15 18:10:25.344421,-69.0
2023-08-15 18:10:25.352111,-85.0
2023-08-15 18:10:25.359800,-104.0
2023-08-15 18:10:25.367490,-111.0
2023-08-15 18:10:25.375179,-102.0
2023-08-15 18:10:25.382869,-97.0
2023-08-15 18:10:25.390559,-99.0
2023-08-15 18:10:25.398248,-73.0
2023-08-15 18:10:25.405938,28.0
2023-08-15 18:10:25.413627,264.0
2023-08-15 18:10:25.421317,528.0
2023-08-15 18:10:25.429007,459.0
2023-08-15 18:10:25.436696,-47.0
2023-08-15 18:10:25.444386,-535.0
2023-08-15 18:10:25.452076,-540.0
2023-08-15 18:10:25.459765,-235.0
2023-08-15 18:10:25.467455,-85.0
2023-08-15 18:10:25.475144,-97.0
2023-08-15 18:10:25.482834,-73.0
2023-08-15 18:10:25.490524,-49.0
2023-08-15 18:10:25.498213,-59.0
2023-08-15 18:10:25.505903,-52.0
2023-08-15 18:10:25.513592,-33.0
2023-08-15 18:10:25.521282,-23.0
2023-08-15 18:10:25.528972,-11.0
2023-08-15 18:10:25.536661,2.0
2023-08-15 18:10:25.544351,9.0
2023-08-15 18:10:25.552041,11.0
2023-08-15 18:10:25.559730,26.0
2023-08-15 18:10:25.567420,40.0
2023-08-15 18:10:25.575109,52.0
2023-08-15 18:10:25.582799,61.0
2023-08-15 18:10:25.590489,80.0
2023-08-15 18:10:25.598178,102.0
2023-08-15 18:10:25.605868,121.0
2023-08-15 18:10:25.613557,142.0
2023-08-15 18:10:25.621247,161.0
2023-08-15 18:10:25.628937,169.0
2023-08-15 18:10:25.636626,173.0
2023-08-15 18:10:25.644316,171.0
2023-08-15 18:10:25.652006,154.0
2023-08-15 18:10:25.659695,126.0
2023-08-15 18:10:25.667385,88.0
2023-08-15 18:10:25.675074,35.0
2023-08-15 18:10:25.682764,-26.0
2023-08-15 18:10:25.690454,-80.0
2023-08-15 18:10:25.698143,-123.0
2023-08-15 18:10:25.705833,-152.0
2023-08-15 18:10:25.713522,-169.0
2023-08-15 18:10:25.721212,-178.0
2023-08-15 18:10:25.728902,-185.0
2023-08-15 18:10:25.736591,-185.0
2023-08-15 18:10:25.744281,-185.0
2023-08-15 18:10:25.751971,-178.0
2023-08-15 18:10:25.759660,-169.0
2023-08-15 18:10:25.767350,-164.0
2023-08-15 18:10:25.775039,-161.0
2023-08-15 18:10:25.782729,-154.0
2023-08-15 18:10:25.790419,-145.0
2023-08-15 18:10:25.798108,-140.0
2023-08-15 18:10:25.805798,-140.0
2023-08-15 18:10:25.813487,-135.0
2023-08-15 18:10:25.821177,-130.0
2023-08-15 18:10:25.828867,-126.0
2023-08-15 18:10:25.836556,-123.0
2023-08-15 18:10:25.844246,-121.0
2023-08-15 18:10:25.851936,-128.0
2023-08-15 18:10:25.859625,-135.0
2023-08-15 18:10:25.867315,-130.0
2023-08-15 18:10:25.875004,-128.0
2023-08-15 18:10:25.882694,-128.0
2023-08-15 18:10:25.890384,-126.0
2023-08-15 18:10:25.898073,-123.0
2023-08-15 18:10:25.905763,-126.0
2023-08-15 18:10:25.913452,-126.0
2023-08-15 18:10:25.921142,-119.0
2023-08-15 18:10:25.928832,-116.0
2023-08-15 18:10:25.936521,-116.0
2023-08-15 18:10:25.944211,-99.0
2023-08-15 18:10:25.951901,-78.0
2023-08-15 18:10:25.959590,-71.0
2023-08-15 18:10:25.967280,-85.0
2023-08-15 18:10:25.974969,-104.0
2023-08-15 18:10:25.982659,-119.0
2023-08-15 18:10:25.990349,-114.0
2023-08-15 18:10:25.998038,-104.0
2023-08-15 18:10:26.005728,-107.0
2023-08-15 18:10:26.013417,-99.0
2023-08-15 18:10:26.021107,-35.0
2023-08-15 18:10:26.028797,157.0
2023-08-15 18:10:26.036486,442.0
2023-08-15 18:10:26.044176,533.0
2023-08-15 18:10:26.051866,164.0
2023-08-15 18:10:26.059555,-414.0
2023-08-15 18:10:26.067245,-621.0
2023-08-15 18:10:26.074934,-352.0
2023-08-15 18:10:26.082624,-111.0
2023-08-15 18:10:26.090314,-102.0
2023-08-15 18:10:26.098003,-102.0
2023-08-15 18:10:26.105693,-66.0
2023-08-15 18:10:26.113382,-69.0
2023-08-15 18:10:26.121072,-69.0
2023-08-15 18:10:26.128762,-52.0
2023-08-15 18:10:26.136451,-42.0
2023-08-15 18:10:26.144141,-35.0
2023-08-15 18:10:26.151831,-19.0
2023-08-15 18:10:26.159520,-4.0
2023-08-15 18:10:26.167210,4.0
2023-08-15 18:10:26.174899,19.0
2023-08-15 18:10:26.182589,35.0
2023-08-15 18:10:26.190279,49.0
2023-08-15 18:10:26.197968,66.0
2023-08-15 18:10:26.205658,88.0
2023-08-15 18:10:26.213347,109.0
2023-08-15 18:10:26.221037,128.0
2023-08-15 18:10:26.228727,149.0
2023-08-15 18:10:26.236416,166.0
2023-08-15 18:10:26.244106,178.0
2023-08-15 18:10:26.251796,185.0
2023-08-15 18:10:26.259485,183.0
2023-08-15 18:10:26.267175,171.0
2023-08-15 18:10:26.274864,147.0
2023-08-15 18:10:26.282554,104.0
2023-08-15 18:10:26.290244,45.0
2023-08-15 18:10:26.297933,-16.0
2023-08-15 18:10:26.305623,-73.0
2023-08-15 18:10:26.313312,-119.0
2023-08-15 18:10:26.321002,-152.0
2023-08-15 18:10:26.328692,-173.0
2023-08-15 18:10:26.336381,-185.0
2023-08-15 18:10:26.344071,-190.0
2023-08-15 18:10:26.351761,-190.0
2023-08-15 18:10:26.359450,-190.0
2023-08-15 18:10:26.367140,-183.0
2023-08-15 18:10:26.374829,-176.0
2023-08-15 18:10:26.382519,-169.0
2023-08-15 18:10:26.390209,-169.0
2023-08-15 18:10:26.397898,-169.0
2023-08-15 18:10:26.405588,-164.0
2023-08-15 18:10:26.413277,-154.0
2023-08-15 18:10:26.420967,-147.0
2023-08-15 18:10:26.428657,-145.0
2023-08-15 18:10:26.436346,-140.0
2023-08-15 18:10:26.444036,-135.0
2023-08-15 18:10:26.451726,-130.0
2023-08-15 18:10:26.459415,-128.0
2023-08-15 18:10:26.467105,-126.0
2023-08-15 18:10:26.474794,-123.0
2023-08-15 18:10:26.482484,-123.0
2023-08-15 18:10:26.490174,-126.0
2023-08-15 18:10:26.497863,-123.0
2023-08-15 18:10:26.505553,-121.0
2023-08-15 18:10:26.513242,-119.0
2023-08-15 18:10:26.520932,-119.0
2023-08-15 18:10:26.528622,-119.0
2023-08-15 18:10:26.536311,-119.0
2023-08-15 18:10:26.544001,-116.0
2023-08-15 18:10:26.551691,-102.0
2023-08-15 18:10:26.559380,-99.0
2023-08-15 18:10:26.567070,-102.0
2023-08-15 18:10:26.574759,-83.0
2023-08-15 18:10:26.582449,-69.0
2023-08-15 18:10:26.590139,-78.0
2023-08-15 18:10:26.597828,-90.0
2023-08-15 18:10:26.605518,-104.0
2023-08-15 18:10:26.613207,-119.0
2023-08-15 18:10:26.620897,-114.0
2023-08-15 18:10:26.628587,-107.0
2023-08-15 18:10:26.636276,-104.0
2023-08-15 18:10:26.643966,-95.0
2023-08-15 18:10:26.651656,-38.0
2023-08-15 18:10:26.659345,161.0
2023-08-15 18:10:26.667035,457.0
2023-08-15 18:10:26.674724,523.0
2023-08-15 18:10:26.682414,135.0
2023-08-15 18:10:26.690104,-433.0
2023-08-15 18:10:26.697793,-609.0
2023-08-15 18:10:26.705483,-290.0
2023-08-15 18:10:26.713172,-40.0
2023-08-15 18:10:26.720862,-78.0
2023-08-15 18:10:26.728552,-97.0
2023-08-15 18:10:26.736241,-49.0
2023-08-15 18:10:26.743931,-52.0
2023-08-15 18:10:26.751621,-64.0
2023-08-15 18:10:26.759310,-45.0
2023-08-15 18:10:26.767000,-33.0
2023-08-15 18:10:26.774689,-30.0
2023-08-15 18:10:26.782379,-19.0
2023-08-15 18:10:26.790069,-7.0
2023-08-15 18:10:26.797758,0.0
2023-08-15 18:10:26.805448,14.0
2023-08-15 18:10:26.813137,33.0
2023-08-15 18:10:26.820827,52.0
2023-08-15 18:10:26.828517,71.0
2023-08-15 18:10:26.836206,90.0
2023-08-15 18:10:26.843896,109.0
2023-08-15 18:10:26.851585,130.0
2023-08-15 18:10:26.859275,149.0
2023-08-15 18:10:26.866965,169.0
2023-08-15 18:10:26.874654,183.0
2023-08-15 18:10:26.882344,190.0
2023-08-15 18:10:26.890034,185.0
2023-08-15 18:10:26.897723,176.0
2023-08-15 18:10:26.905413,157.0
2023-08-15 18:10:26.913102,119.0
2023-08-15 18:10:26.920792,64.0
2023-08-15 18:10:26.928482,0.0
2023-08-15 18:10:26.936171,-64.0
2023-08-15 18:10:26.943861,-116.0
2023-08-15 18:10:26.951550,-147.0
2023-08-15 18:10:26.959240,-166.0
2023-08-15 18:10:26.966930,-180.0
2023-08-15 18:10:26.974619,-190.0
2023-08-15 18:10:26.982309,-195.0
2023-08-15 18:10:26.989999,-192.0
2023-08-15 18:10:26.997688,-183.0
2023-08-15 18:10:27.005378,-176.0
2023-08-15 18:10:27.013067,-171.0
2023-08-15 18:10:27.020757,-164.0
2023-08-15 18:10:27.028447,-161.0
2023-08-15 18:10:27.036136,-159.0
2023-08-15 18:10:27.043826,-152.0
2023-08-15 18:10:27.051515,-145.0
2023-08-15 18:10:27.059205,-145.0
2023-08-15 18:10:27.066895,-140.0
2023-08-15 18:10:27.074584,-133.0
2023-08-15 18:10:27.082274,-130.0
2023-08-15 18:10:27.089964,-133.0
2023-08-15 18:10:27.097653,-133.0
2023-08-15 18:10:27.105343,-128.0
2023-08-15 18:10:27.113032,-130.0
2023-08-15 18:10:27.120722,-133.0
2023-08-15 18:10:27.128412,-130.0
2023-08-15 18:10:27.136101,-128.0
2023-08-15 18:10:27.143791,-128.0
2023-08-15 18:10:27.151480,-128.0
2023-08-15 18:10:27.159170,-128.0
2023-08-15 18:10:27.166860,-126.0
2023-08-15 18:10:27.174549,-121.0
2023-08-15 18:10:27.182239,-114.0
2023-08-15 18:10:27.189929,-109.0
2023-08-15 18:10:27.197618,-109.0
2023-08-15 18:10:27.205308,-109.0
2023-08-15 18:10:27.212997,-90.0
2023-08-15 18:10:27.220687,-69.0
2023-08-15 18:10:27.228377,-73.0
2023-08-15 18:10:27.236066,-92.0
2023-08-15 18:10:27.243756,-111.0
2023-08-15 18:10:27.251445,-123.0
2023-08-15 18:10:27.259135,-116.0
2023-08-15 18:10:27.266825,-111.0
2023-08-15 18:10:27.274514,-114.0
2023-08-15 18:10:27.282204,-107.0
2023-08-15 18:10:27.289894,-42.0
2023-08-15 18:10:27.297583,157.0
2023-08-15 18:10:27.305273,445.0
2023-08-15 18:10:27.312962,499.0
2023-08-15 18:10:27.320652,99.0
2023-08-15 18:10:27.328342,-459.0
2023-08-15 18:10:27.336031,-609.0
2023-08-15 18:10:27.343721,-285.0
2023-08-15 18:10:27.351410,-49.0
2023-08-15 18:10:27.359100,-92.0
2023-08-15 18:10:27.366790,-109.0
2023-08-15 18:10:27.374479,-59.0
2023-08-15 18:10:27.382169,-64.0
2023-08-15 18:10:27.389859,-76.0
2023-08-15 18:10:27.397548,-57.0
2023-08-15 18:10:27.405238,-45.0
2023-08-15 18:10:27.412927,-38.0
2023-08-15 18:10:27.420617,-26.0
2023-08-15 18:10:27.428307,-11.0
2023-08-15 18:10:27.435996,0.0
2023-08-15 18:10:27.443686,11.0
2023-08-15 18:10:27.451375,28.0
2023-08-15 18:10:27.459065,45.0
2023-08-15 18:10:27.466755,64.0
2023-08-15 18:10:27.474444,83.0
2023-08-15 18:10:27.482134,99.0
2023-08-15 18:10:27.489824,119.0
2023-08-15 18:10:27.497513,142.0
2023-08-15 18:10:27.505203,161.0
2023-08-15 18:10:27.512892,173.0
2023-08-15 18:10:27.520582,178.0
2023-08-15 18:10:27.528272,173.0
2023-08-15 18:10:27.535961,164.0
2023-08-15 18:10:27.543651,142.0
2023-08-15 18:10:27.551340,104.0
2023-08-15 18:10:27.559030,49.0
2023-08-15 18:10:27.566720,-19.0
2023-08-15 18:10:27.574409,-78.0
2023-08-15 18:10:27.582099,-119.0
2023-08-15 18:10:27.589789,-154.0
2023-08-15 18:10:27.597478,-178.0
2023-08-15 18:10:27.605168,-188.0
2023-08-15 18:10:27.612857,-192.0
2023-08-15 18:10:27.620547,-197.0
2023-08-15 18:10:27.628237,-195.0
2023-08-15 18:10:27.635926,-190.0
2023-08-15 18:10:27.643616,-185.0
2023-08-15 18:10:27.651305,-178.0
2023-08-15 18:10:27.658995,-171.0
2023-08-15 18:10:27.666685,-166.0
2023-08-15 18:10:27.674374,-161.0
2023-08-15 18:10:27.682064,-154.0
2023-08-15 18:10:27.689754,-145.0
2023-08-15 18:10:27.697443,-142.0
2023-08-15 18:10:27.705133,-140.0
2023-08-15 18:10:27.712822,-138.0
2023-08-15 18:10:27.720512,-133.0
2023-08-15 18:10:27.728202,-128.0
2023-08-15 18:10:27.735891,-123.0
2023-08-15 18:10:27.743581,-123.0
2023-08-15 18:10:27.751270,-123.0
2023-08-15 18:10:27.758960,-123.0
2023-08-15 18:10:27.766650,-126.0
2023-08-15 18:10:27.774339,-128.0
2023-08-15 18:10:27.782029,-123.0
2023-08-15 18:10:27.789719,-119.0
2023-08-15 18:10:27.797408,-119.0
2023-08-15 18:10:27.805098,-119.0
2023-08-15 18:10:27.812787,-116.0
2023-08-15 18:10:27.820477,-114.0
2023-08-15 18:10:27.828167,-111.0
2023-08-15 18:10:27.835856,-107.0
2023-08-15 18:10:27.843546,-99.0
2023-08-15 18:10:27.851235,-99.0
2023-08-15 18:10:27.858925,-95.0
2023-08-15 18:10:27.866615,-85.0
2023-08-15 18:10:27.874304,-83.0
2023-08-15 18:10:27.881994,-71.0
2023-08-15 18:10:27.889684,-54.0
2023-08-15 18:10:27.897373,-52.0
2023-08-15 18:10:27.905063,-66.0
2023-08-15 18:10:27.912752,-85.0
2023-08-15 18:10:27.920442,-97.0
2023-08-15 18:10:27.928132,-92.0
2023-08-15 18:10:27.935821,-88.0
2023-08-15 18:10:27.943511,-90.0
2023-08-15 18:10:27.951200,-83.0
2023-08-15 18:10:27.958890,-40.0
2023-08-15 18:10:27.966580,116.0
2023-08-15 18:10:27.974269,397.0
2023-08-15 18:10:27.981959,533.0
2023-08-15 18:10:27.989649,228.0
2023-08-15 18:10:27.997338,-338.0
2023-08-15 18:10:28.005028,-604.0
2023-08-15 18:10:28.012717,-357.0
2023-08-15 18:10:28.020407,-64.0
2023-08-15 18:10:28.028097,-54.0
2023-08-15 18:10:28.035786,-90.0
2023-08-15 18:10:28.043476,-47.0
2023-08-15 18:10:28.051165,-40.0
2023-08-15 18:10:28.058855,-57.0
2023-08-15 18:10:28.066545,-42.0
2023-08-15 18:10:28.074234,-23.0
2023-08-15 18:10:28.081924,-21.0
2023-08-15 18:10:28.089614,-16.0
2023-08-15 18:10:28.097303,-7.0
2023-08-15 18:10:28.104993,2.0
2023-08-15 18:10:28.112682,7.0
2023-08-15 18:10:28.120372,23.0
2023-08-15 18:10:28.128062,40.0
2023-08-15 18:10:28.135751,57.0
2023-08-15 18:10:28.143441,76.0
2023-08-15 18:10:28.151130,97.0
2023-08-15 18:10:28.158820,119.0
2023-08-15 18:10:28.166510,142.0
2023-08-15 18:10:28.174199,161.0
2023-08-15 18:10:28.181889,173.0
2023-08-15 18:10:28.189579,180.0
2023-08-15 18:10:28.197268,183.0
2023-08-15 18:10:28.204958,176.0
2023-08-15 18:10:28.212647,164.0
2023-08-15 18:10:28.220337,135.0
2023-08-15 18:10:28.228027,85.0
2023-08-15 18:10:28.235716,26.0
2023-08-15 18:10:28.243406,-30.0
2023-08-15 18:10:28.251095,-80.0
2023-08-15 18:10:28.258785,-116.0
2023-08-15 18:10:28.266475,-142.0
2023-08-15 18:10:28.274164,-161.0
2023-08-15 18:10:28.281854,-171.0
2023-08-15 18:10:28.289544,-166.0
2023-08-15 18:10:28.297233,-166.0
2023-08-15 18:10:28.304923,-171.0
2023-08-15 18:10:28.312612,-171.0
2023-08-15 18:10:28.320302,-159.0
2023-08-15 18:10:28.327992,-149.0
2023-08-15 18:10:28.335681,-147.0
2023-08-15 18:10:28.343371,-142.0
2023-08-15 18:10:28.351060,-135.0
2023-08-15 18:10:28.358750,-133.0
2023-08-15 18:10:28.366440,-130.0
2023-08-15 18:10:28.374129,-126.0
2023-08-15 18:10:28.381819,-121.0
2023-08-15 18:10:28.389509,-116.0
2023-08-15 18:10:28.397198,-107.0
2023-08-15 18:10:28.404888,-109.0
2023-08-15 18:10:28.412577,-116.0
2023-08-15 18:10:28.420267,-114.0
2023-08-15 18:10:28.427957,-107.0
2023-08-15 18:10:28.435646,-107.0
2023-08-15 18:10:28.443336,-107.0
2023-08-15 18:10:28.451025,-109.0
2023-08-15 18:10:28.458715,-111.0
2023-08-15 18:10:28.466405,-109.0
2023-08-15 18:10:28.474094,-104.0
2023-08-15 18:10:28.481784,-107.0
2023-08-15 18:10:28.489474,-102.0
2023-08-15 18:10:28.497163,-97.0
2023-08-15 18:10:28.504853,-102.0
2023-08-15 18:10:28.512542,-107.0
2023-08-15 18:10:28.520232,-102.0
2023-08-15 18:10:28.527922,-92.0
2023-08-15 18:10:28.535611,-85.0
2023-08-15 18:10:28.543301,-85.0
2023-08-15 18:10:28.550990,-80.0
2023-08-15 18:10:28.558680,-59.0
2023-08-15 18:10:28.566370,-47.0
2023-08-15 18:10:28.574059,-57.0
2023-08-15 18:10:28.581749,-69.0
2023-08-15 18:10:28.589439,-90.0
2023-08-15 18:10:28.597128,-109.0
2023-08-15 18:10:28.604818,-102.0
2023-08-15 18:10:28.612507,-90.0
2023-08-15 18:10:28.620197,-90.0
2023-08-15 18:10:28.627887,-66.0
2023-08-15 18:10:28.635576,42.0
2023-08-15 18:10:28.643266,288.0
2023-08-15 18:10:28.650955,526.0
2023-08-15 18:10:28.658645,414.0
2023-08-15 18:10:28.666335,-109.0
2023-08-15 18:10:28.674024,-566.0
2023-08-15 18:10:28.681714,-514.0
2023-08-15 18:10:28.689404,-195.0
2023-08-15 18:10:28.697093,-69.0
2023-08-15 18:10:28.704783,-95.0
2023-08-15 18:10:28.712472,-69.0
2023-08-15 18:10:28.720162,-47.0
2023-08-15 18:10:28.727852,-59.0
2023-08-15 18:10:28.735541,-52.0
2023-08-15 18:10:28.743231,-33.0
2023-08-15 18:10:28.750920,-26.0
2023-08-15 18:10:28.758610,-21.0
2023-08-15 18:10:28.766300,-9.0
2023-08-15 18:10:28.773989,7.0
2023-08-15 18:10:28.781679,16.0
2023-08-15 18:10:28.789369,30.0
2023-08-15 18:10:28.797058,47.0
2023-08-15 18:10:28.804748,66.0
2023-08-15 18:10:28.812437,83.0
2023-08-15 18:10:28.820127,107.0
2023-08-15 18:10:28.827817,121.0
2023-08-15 18:10:28.835506,133.0
2023-08-15 18:10:28.843196,149.0
2023-08-15 18:10:28.850885,169.0
2023-08-15 18:10:28.858575,180.0
2023-08-15 18:10:28.866265,183.0
2023-08-15 18:10:28.873954,180.0
2023-08-15 18:10:28.881644,169.0
2023-08-15 18:10:28.889334,145.0
2023-08-15 18:10:28.897023,107.0
2023-08-15 18:10:28.904713,49.0
2023-08-15 18:10:28.912402,-9.0
2023-08-15 18:10:28.920092,-64.0
2023-08-15 18:10:28.927782,-107.0
2023-08-15 18:10:28.935471,-135.0
2023-08-15 18:10:28.943161,-154.0
2023-08-15 18:10:28.950850,-166.0
2023-08-15 18:10:28.958540,-171.0
2023-08-15 18:10:28.966230,-173.0
2023-08-15 18:10:28.973919,-171.0
2023-08-15 18:10:28.981609,-164.0
2023-08-15 18:10:28.989299,-159.0
2023-08-15 18:10:28.996988,-154.0
2023-08-15 18:10:29.004678,-152.0
2023-08-15 18:10:29.012367,-149.0
2023-08-15 18:10:29.020057,-140.0
2023-08-15 18:10:29.027747,-133.0
2023-08-15 18:10:29.035436,-128.0
2023-08-15 18:10:29.043126,-123.0
2023-08-15 18:10:29.050815,-116.0
2023-08-15 18:10:29.058505,-116.0
2023-08-15 18:10:29.066195,-116.0
2023-08-15 18:10:29.073884,-111.0
2023-08-15 18:10:29.081574,-111.0
2023-08-15 18:10:29.089264,-111.0
2023-08-15 18:10:29.096953,-109.0
2023-08-15 18:10:29.104643,-111.0
2023-08-15 18:10:29.112332,-116.0
2023-08-15 18:10:29.120022,-111.0
2023-08-15 18:10:29.127712,-109.0
2023-08-15 18:10:29.135401,-109.0
2023-08-15 18:10:29.143091,-114.0
2023-08-15 18:10:29.150780,-111.0
2023-08-15 18:10:29.158470,-107.0
2023-08-15 18:10:29.166160,-104.0
2023-08-15 18:10:29.173849,-102.0
2023-08-15 18:10:29.181539,-97.0
2023-08-15 18:10:29.189229,-95.0
2023-08-15 18:10:29.196918,-92.0
2023-08-15 18:10:29.204608,-76.0
2023-08-15 18:10:29.212297,-57.0
2023-08-15 18:10:29.219987,-54.0
2023-08-15 18:10:29.227677,-73.0
2023-08-15 18:10:29.235366,-102.0
2023-08-15 18:10:29.243056,-121.0
2023-08-15 18:10:29.250745,-114.0
2023-08-15 18:10:29.258435,-104.0
2023-08-15 18:10:29.266125,-104.0
2023-08-15 18:10:29.273814,-99.0
2023-08-15 18:10:29.281504,-42.0
2023-08-15 18:10:29.289194,140.0
2023-08-15 18:10:29.296883,430.0
2023-08-15 18:10:29.304573,530.0
2023-08-15 18:10:29.312262,166.0
2023-08-15 18:10:29.319952,-411.0
2023-08-15 18:10:29.327642,-621.0
2023-08-15 18:10:29.335331,-354.0
2023-08-15 18:10:29.343021,-111.0
2023-08-15 18:10:29.350710,-99.0
2023-08-15 18:10:29.358400,-99.0
2023-08-15 18:10:29.366090,-66.0
2023-08-15 18:10:29.373779,-66.0
2023-08-15 18:10:29.381469,-69.0
2023-08-15 18:10:29.389159,-49.0
2023-08-15 18:10:29.396848,-38.0
2023-08-15 18:10:29.404538,-30.0
2023-08-15 18:10:29.412227,-19.0
2023-08-15 18:10:29.419917,-7.0
2023-08-15 18:10:29.427607,4.0
2023-08-15 18:10:29.435296,23.0
2023-08-15 18:10:29.442986,42.0
2023-08-15 18:10:29.450675,57.0
2023-08-15 18:10:29.458365,69.0
2023-08-15 18:10:29.466055,88.0
2023-08-15 18:10:29.473744,109.0
2023-08-15 18:10:29.481434,130.0
2023-08-15 18:10:29.489124,149.0
2023-08-15 18:10:29.496813,164.0
2023-08-15 18:10:29.504503,176.0
2023-08-15 18:10:29.512192,185.0
2023-08-15 18:10:29.519882,185.0
2023-08-15 18:10:29.527572,173.0
2023-08-15 18:10:29.535261,152.0
2023-08-15 18:10:29.542951,116.0
2023-08-15 18:10:29.550640,61.0
2023-08-15 18:10:29.558330,0.0
2023-08-15 18:10:29.566020,-57.0
2023-08-15 18:10:29.573709,-102.0
2023-08-15 18:10:29.581399,-135.0
2023-08-15 18:10:29.589089,-159.0
2023-08-15 18:10:29.596778,-171.0
2023-08-15 18:10:29.604468,-178.0
2023-08-15 18:10:29.612157,-180.0
2023-08-15 18:10:29.619847,-176.0
2023-08-15 18:10:29.627537,-171.0
2023-08-15 18:10:29.635226,-169.0
2023-08-15 18:10:29.642916,-161.0
2023-08-15 18:10:29.650605,-154.0
2023-08-15 18:10:29.658295,-145.0
2023-08-15 18:10:29.665985,-140.0
2023-08-15 18:10:29.673674,-135.0
2023-08-15 18:10:29.681364,-130.0
2023-08-15 18:10:29.689054,-123.0
2023-08-15 18:10:29.696743,-119.0
2023-08-15 18:10:29.704433,-116.0
2023-08-15 18:10:29.712122,-109.0
2023-08-15 18:10:29.719812,-104.0
2023-08-15 18:10:29.727502,-107.0
2023-08-15 18:10:29.735191,-109.0
2023-08-15 18:10:29.742881,-109.0
2023-08-15 18:10:29.750570,-111.0
2023-08-15 18:10:29.758260,-114.0
2023-08-15 18:10:29.765950,-119.0
2023-08-15 18:10:29.773639,-123.0
2023-08-15 18:10:29.781329,-123.0
2023-08-15 18:10:29.789019,-121.0
2023-08-15 18:10:29.796708,-121.0
2023-08-15 18:10:29.804398,-119.0
2023-08-15 18:10:29.812087,-114.0
2023-08-15 18:10:29.819777,-111.0
2023-08-15 18:10:29.827467,-109.0
2023-08-15 18:10:29.835156,-109.0
2023-08-15 18:10:29.842846,-109.0
2023-08-15 18:10:29.850535,-107.0
2023-08-15 18:10:29.858225,-99.0
2023-08-15 18:10:29.865915,-92.0
2023-08-15 18:10:29.873604,-78.0
2023-08-15 18:10:29.881294,-61.0
2023-08-15 18:10:29.888984,-61.0
2023-08-15 18:10:29.896673,-78.0
2023-08-15 18:10:29.904363,-99.0
2023-08-15 18:10:29.912052,-111.0
2023-08-15 18:10:29.919742,-104.0
2023-08-15 18:10:29.927432,-99.0
2023-08-15 18:10:29.935121,-99.0
2023-08-15 18:10:29.942811,-90.0
2023-08-15 18:10:29.950500,-21.0
2023-08-15 18:10:29.958190,190.0
2023-08-15 18:10:29.965880,473.0
2023-08-15 18:10:29.973569,487.0
2023-08-15 18:10:29.981259,49.0
2023-08-15 18:10:29.988949,-497.0
2023-08-15 18:10:29.996638,-597.0
2023-08-15 18:10:30.004328,-257.0
2023-08-15 18:10:30.012017,-42.0
2023-08-15 18:10:30.019707,-85.0
2023-08-15 18:10:30.027397,-95.0
2023-08-15 18:10:30.035086,-52.0
2023-08-15 18:10:30.042776,-59.0
2023-08-15 18:10:30.050465,-66.0
2023-08-15 18:10:30.058155,-45.0
2023-08-15 18:10:30.065845,-38.0
2023-08-15 18:10:30.073534,-35.0
2023-08-15 18:10:30.081224,-21.0
2023-08-15 18:10:30.088914,-11.0
2023-08-15 18:10:30.096603,-2.0
2023-08-15 18:10:30.104293,14.0
2023-08-15 18:10:30.111982,28.0
2023-08-15 18:10:30.119672,42.0
2023-08-15 18:10:30.127362,59.0
2023-08-15 18:10:30.135051,78.0
2023-08-15 18:10:30.142741,102.0
2023-08-15 18:10:30.150430,123.0
2023-08-15 18:10:30.158120,142.0
2023-08-15 18:10:30.165810,159.0
2023-08-15 18:10:30.173499,169.0
2023-08-15 18:10:30.181189,173.0
2023-08-15 18:10:30.188879,169.0
2023-08-15 18:10:30.196568,159.0
2023-08-15 18:10:30.204258,135.0
2023-08-15 18:10:30.211947,92.0
2023-08-15 18:10:30.219637,38.0
2023-08-15 18:10:30.227327,-23.0
2023-08-15 18:10:30.235016,-83.0
2023-08-15 18:10:30.242706,-128.0
2023-08-15 18:10:30.250395,-159.0
2023-08-15 18:10:30.258085,-183.0
2023-08-15 18:10:30.265775,-195.0
2023-08-15 18:10:30.273464,-195.0
2023-08-15 18:10:30.281154,-197.0
2023-08-15 18:10:30.288844,-195.0
2023-08-15 18:10:30.296533,-192.0
2023-08-15 18:10:30.304223,-192.0
2023-08-15 18:10:30.311912,-195.0
2023-08-15 18:10:30.319602,-190.0
2023-08-15 18:10:30.327292,-180.0
2023-08-15 18:10:30.334981,-173.0
2023-08-15 18:10:30.342671,-171.0
2023-08-15 18:10:30.350360,-166.0
2023-08-15 18:10:30.358050,-166.0
2023-08-15 18:10:30.365740,-164.0
2023-08-15 18:10:30.373429,-159.0
2023-08-15 18:10:30.381119,-152.0
2023-08-15 18:10:30.388809,-149.0
2023-08-15 18:10:30.396498,-147.0
2023-08-15 18:10:30.404188,-147.0
2023-08-15 18:10:30.411877,-145.0
2023-08-15 18:10:30.419567,-145.0
2023-08-15 18:10:30.427257,-145.0
2023-08-15 18:10:30.434946,-142.0
2023-08-15 18:10:30.442636,-142.0
2023-08-15 18:10:30.450325,-145.0
2023-08-15 18:10:30.458015,-142.0
2023-08-15 18:10:30.465705,-138.0
2023-08-15 18:10:30.473394,-140.0
2023-08-15 18:10:30.481084,-140.0
2023-08-15 18:10:30.488774,-142.0
2023-08-15 18:10:30.496463,-140.0
2023-08-15 18:10:30.504153,-135.0
2023-08-15 18:10:30.511842,-130.0
2023-08-15 18:10:30.519532,-128.0
2023-08-15 18:10:30.527222,-123.0
2023-08-15 18:10:30.534911,-119.0
2023-08-15 18:10:30.542601,-116.0
2023-08-15 18:10:30.550290,-107.0
2023-08-15 18:10:30.557980,-88.0
2023-08-15 18:10:30.565670,-76.0
2023-08-15 18:10:30.573359,-83.0
2023-08-15 18:10:30.581049,-104.0
2023-08-15 18:10:30.588739,-126.0
2023-08-15 18:10:30.596428,-128.0
2023-08-15 18:10:30.604118,-121.0
2023-08-15 18:10:30.611807,-119.0
2023-08-15 18:10:30.619497,-121.0
2023-08-15 18:10:30.627187,-102.0
2023-08-15 18:10:30.634876,11.0
2023-08-15 18:10:30.642566,271.0
2023-08-15 18:10:30.650255,497.0
2023-08-15 18:10:30.657945,349.0
2023-08-15 18:10:30.665635,-178.0
2023-08-15 18:10:30.673324,-611.0
2023-08-15 18:10:30.681014,-526.0
2023-08-15 18:10:30.688704,-171.0
2023-08-15 18:10:30.696393,-57.0
2023-08-15 18:10:30.704083,-116.0
2023-08-15 18:10:30.711772,-95.0
2023-08-15 18:10:30.719462,-69.0
2023-08-15 18:10:30.727152,-90.0
2023-08-15 18:10:30.734841,-83.0
2023-08-15 18:10:30.742531,-59.0
2023-08-15 18:10:30.750220,-59.0
2023-08-15 18:10:30.757910,-54.0
2023-08-15 18:10:30.765600,-38.0
2023-08-15 18:10:30.773289,-26.0
2023-08-15 18:10:30.780979,-16.0
2023-08-15 18:10:30.788669,2.0
2023-08-15 18:10:30.796358,16.0
2023-08-15 18:10:30.804048,28.0
2023-08-15 18:10:30.811737,45.0
2023-08-15 18:10:30.819427,66.0
2023-08-15 18:10:30.827117,88.0
2023-08-15 18:10:30.834806,104.0
2023-08-15 18:10:30.842496,123.0
2023-08-15 18:10:30.850185,140.0
2023-08-15 18:10:30.857875,145.0
2023-08-15 18:10:30.865565,145.0
2023-08-15 18:10:30.873254,142.0
2023-08-15 18:10:30.880944,133.0
2023-08-15 18:10:30.888634,102.0
2023-08-15 18:10:30.896323,52.0
2023-08-15 18:10:30.904013,-7.0
2023-08-15 18:10:30.911702,-64.0
2023-08-15 18:10:30.919392,-114.0
2023-08-15 18:10:30.927082,-154.0
2023-08-15 18:10:30.934771,-180.0
2023-08-15 18:10:30.942461,-197.0
2023-08-15 18:10:30.950150,-207.0
2023-08-15 18:10:30.957840,-209.0
2023-08-15 18:10:30.965530,-207.0
2023-08-15 18:10:30.973219,-209.0
2023-08-15 18:10:30.980909,-204.0
2023-08-15 18:10:30.988599,-195.0
2023-08-15 18:10:30.996288,-188.0
2023-08-15 18:10:31.003978,-180.0
2023-08-15 18:10:31.011667,-173.0
2023-08-15 18:10:31.019357,-166.0
2023-08-15 18:10:31.027047,-159.0
2023-08-15 18:10:31.034736,-154.0
2023-08-15 18:10:31.042426,-149.0
2023-08-15 18:10:31.050115,-142.0
2023-08-15 18:10:31.057805,-138.0
2023-08-15 18:10:31.065495,-135.0
2023-08-15 18:10:31.073184,-133.0
2023-08-15 18:10:31.080874,-130.0
2023-08-15 18:10:31.088564,-128.0
2023-08-15 18:10:31.096253,-128.0
2023-08-15 18:10:31.103943,-126.0
2023-08-15 18:10:31.111632,-123.0
2023-08-15 18:10:31.119322,-123.0
2023-08-15 18:10:31.127012,-123.0
2023-08-15 18:10:31.134701,-121.0
2023-08-15 18:10:31.142391,-121.0
2023-08-15 18:10:31.150080,-116.0
2023-08-15 18:10:31.157770,-111.0
2023-08-15 18:10:31.165460,-114.0
2023-08-15 18:10:31.173149,-116.0
2023-08-15 18:10:31.180839,-109.0
2023-08-15 18:10:31.188529,-104.0
2023-08-15 18:10:31.196218,-102.0
2023-08-15 18:10:31.203908,-99.0
2023-08-15 18:10:31.211597,-95.0
2023-08-15 18:10:31.219287,-90.0
2023-08-15 18:10:31.226977,-80.0
2023-08-15 18:10:31.234666,-69.0
2023-08-15 18:10:31.242356,-57.0
2023-08-15 18:10:31.250045,-47.0
2023-08-15 18:10:31.257735,-52.0
2023-08-15 18:10:31.265425,-76.0
2023-08-15 18:10:31.273114,-99.0
2023-08-15 18:10:31.280804,-104.0
2023-08-15 18:10:31.288494,-97.0
2023-08-15 18:10:31.296183,-97.0
2023-08-15 18:10:31.303873,-97.0
2023-08-15 18:10:31.311562,-83.0
2023-08-15 18:10:31.319252,-9.0
2023-08-15 18:10:31.326942,207.0
2023-08-15 18:10:31.334631,478.0
2023-08-15 18:10:31.342321,461.0
2023-08-15 18:10:31.350010,7.0
2023-08-15 18:10:31.357700,-511.0
2023-08-15 18:10:31.365390,-576.0
2023-08-15 18:10:31.373079,-238.0
2023-08-15 18:10:31.380769,-40.0
2023-08-15 18:10:31.388459,-88.0
2023-08-15 18:10:31.396148,-92.0
2023-08-15 18:10:31.403838,-52.0
2023-08-15 18:10:31.411527,-61.0
2023-08-15 18:10:31.419217,-69.0
2023-08-15 18:10:31.426907,-45.0
2023-08-15 18:10:31.434596,-33.0
2023-08-15 18:10:31.442286,-30.0
2023-08-15 18:10:31.449975,-19.0
2023-08-15 18:10:31.457665,-2.0
2023-08-15 18:10:31.465355,4.0
2023-08-15 18:10:31.473044,14.0
2023-08-15 18:10:31.480734,23.0
2023-08-15 18:10:31.488424,30.0
2023-08-15 18:10:31.496113,49.0
2023-08-15 18:10:31.503803,73.0
2023-08-15 18:10:31.511492,90.0
2023-08-15 18:10:31.519182,107.0
2023-08-15 18:10:31.526872,130.0
2023-08-15 18:10:31.534561,149.0
2023-08-15 18:10:31.542251,164.0
2023-08-15 18:10:31.549940,173.0
2023-08-15 18:10:31.557630,176.0
2023-08-15 18:10:31.565320,171.0
2023-08-15 18:10:31.573009,147.0
2023-08-15 18:10:31.580699,107.0
2023-08-15 18:10:31.588389,57.0
2023-08-15 18:10:31.596078,0.0
2023-08-15 18:10:31.603768,-59.0
2023-08-15 18:10:31.611457,-107.0
2023-08-15 18:10:31.619147,-135.0
2023-08-15 18:10:31.626837,-152.0
2023-08-15 18:10:31.634526,-161.0
2023-08-15 18:10:31.642216,-166.0
2023-08-15 18:10:31.649905,-169.0
2023-08-15 18:10:31.657595,-169.0
2023-08-15 18:10:31.665285,-166.0
2023-08-15 18:10:31.672974,-159.0
