time,ECG
2023-08-12 10:38:49.984599,-69.0
2023-08-12 10:38:49.992288,-62.0
2023-08-12 10:38:49.999978,-62.0
2023-08-12 10:38:50.007668,-60.0
2023-08-12 10:38:50.015358,-60.0
2023-08-12 10:38:50.023048,-57.0
2023-08-12 10:38:50.030737,-55.0
2023-08-12 10:38:50.038427,-55.0
2023-08-12 10:38:50.046117,-57.0
2023-08-12 10:38:50.053807,-57.0
2023-08-12 10:38:50.061497,-57.0
2023-08-12 10:38:50.069186,-53.0
2023-08-12 10:38:50.076876,-48.0
2023-08-12 10:38:50.084566,-50.0
2023-08-12 10:38:50.092256,-57.0
2023-08-12 10:38:50.099946,-65.0
2023-08-12 10:38:50.107635,-72.0
2023-08-12 10:38:50.115325,-67.0
2023-08-12 10:38:50.123015,-65.0
2023-08-12 10:38:50.130705,-65.0
2023-08-12 10:38:50.138395,-65.0
2023-08-12 10:38:50.146084,-67.0
2023-08-12 10:38:50.153774,-74.0
2023-08-12 10:38:50.161464,-77.0
2023-08-12 10:38:50.169154,-77.0
2023-08-12 10:38:50.176843,-69.0
2023-08-12 10:38:50.184533,-60.0
2023-08-12 10:38:50.192223,-36.0
2023-08-12 10:38:50.199913,-4.0
2023-08-12 10:38:50.207603,0.0
2023-08-12 10:38:50.215292,-21.0
2023-08-12 10:38:50.222982,-36.0
2023-08-12 10:38:50.230672,-50.0
2023-08-12 10:38:50.238362,-69.0
2023-08-12 10:38:50.246052,-82.0
2023-08-12 10:38:50.253741,-82.0
2023-08-12 10:38:50.261431,-82.0
2023-08-12 10:38:50.269121,-79.0
2023-08-12 10:38:50.276811,-79.0
2023-08-12 10:38:50.284501,-79.0
2023-08-12 10:38:50.292190,-77.0
2023-08-12 10:38:50.299880,-77.0
2023-08-12 10:38:50.307570,-91.0
2023-08-12 10:38:50.315260,-86.0
2023-08-12 10:38:50.322950,12.0
2023-08-12 10:38:50.330639,311.0
2023-08-12 10:38:50.338329,653.0
2023-08-12 10:38:50.346019,400.0
2023-08-12 10:38:50.353709,-289.0
2023-08-12 10:38:50.361398,-299.0
2023-08-12 10:38:50.369088,120.0
2023-08-12 10:38:50.376778,28.0
2023-08-12 10:38:50.384468,-180.0
2023-08-12 10:38:50.392158,-94.0
2023-08-12 10:38:50.399847,-55.0
2023-08-12 10:38:50.407537,-130.0
2023-08-12 10:38:50.415227,-118.0
2023-08-12 10:38:50.422917,-79.0
2023-08-12 10:38:50.430607,-94.0
2023-08-12 10:38:50.438296,-94.0
2023-08-12 10:38:50.445986,-79.0
2023-08-12 10:38:50.453676,-82.0
2023-08-12 10:38:50.461366,-82.0
2023-08-12 10:38:50.469056,-72.0
2023-08-12 10:38:50.476745,-65.0
2023-08-12 10:38:50.484435,-62.0
2023-08-12 10:38:50.492125,-57.0
2023-08-12 10:38:50.499815,-55.0
2023-08-12 10:38:50.507505,-57.0
2023-08-12 10:38:50.515194,-50.0
2023-08-12 10:38:50.522884,-43.0
2023-08-12 10:38:50.530574,-43.0
2023-08-12 10:38:50.538264,-41.0
2023-08-12 10:38:50.545953,-38.0
2023-08-12 10:38:50.553643,-43.0
2023-08-12 10:38:50.561333,-38.0
2023-08-12 10:38:50.569023,-33.0
2023-08-12 10:38:50.576713,-38.0
2023-08-12 10:38:50.584402,-48.0
2023-08-12 10:38:50.592092,-53.0
2023-08-12 10:38:50.599782,-55.0
2023-08-12 10:38:50.607472,-57.0
2023-08-12 10:38:50.615162,-62.0
2023-08-12 10:38:50.622851,-65.0
2023-08-12 10:38:50.630541,-65.0
2023-08-12 10:38:50.638231,-72.0
2023-08-12 10:38:50.645921,-84.0
2023-08-12 10:38:50.653611,-89.0
2023-08-12 10:38:50.661300,-91.0
2023-08-12 10:38:50.668990,-91.0
2023-08-12 10:38:50.676680,-94.0
2023-08-12 10:38:50.684370,-103.0
2023-08-12 10:38:50.692060,-108.0
2023-08-12 10:38:50.699749,-103.0
2023-08-12 10:38:50.707439,-101.0
2023-08-12 10:38:50.715129,-98.0
2023-08-12 10:38:50.722819,-96.0
2023-08-12 10:38:50.730508,-94.0
2023-08-12 10:38:50.738198,-94.0
2023-08-12 10:38:50.745888,-89.0
2023-08-12 10:38:50.753578,-84.0
2023-08-12 10:38:50.761268,-79.0
2023-08-12 10:38:50.768957,-77.0
2023-08-12 10:38:50.776647,-74.0
2023-08-12 10:38:50.784337,-69.0
2023-08-12 10:38:50.792027,-62.0
2023-08-12 10:38:50.799717,-60.0
2023-08-12 10:38:50.807406,-62.0
2023-08-12 10:38:50.815096,-62.0
2023-08-12 10:38:50.822786,-62.0
2023-08-12 10:38:50.830476,-57.0
2023-08-12 10:38:50.838166,-57.0
2023-08-12 10:38:50.845855,-55.0
2023-08-12 10:38:50.853545,-55.0
2023-08-12 10:38:50.861235,-55.0
2023-08-12 10:38:50.868925,-57.0
2023-08-12 10:38:50.876615,-57.0
2023-08-12 10:38:50.884304,-53.0
2023-08-12 10:38:50.891994,-53.0
2023-08-12 10:38:50.899684,-60.0
2023-08-12 10:38:50.907374,-65.0
2023-08-12 10:38:50.915063,-67.0
2023-08-12 10:38:50.922753,-69.0
2023-08-12 10:38:50.930443,-67.0
2023-08-12 10:38:50.938133,-65.0
2023-08-12 10:38:50.945823,-62.0
2023-08-12 10:38:50.953512,-65.0
2023-08-12 10:38:50.961202,-67.0
2023-08-12 10:38:50.968892,-67.0
2023-08-12 10:38:50.976582,-65.0
2023-08-12 10:38:50.984272,-60.0
2023-08-12 10:38:50.991961,-55.0
2023-08-12 10:38:50.999651,-38.0
2023-08-12 10:38:51.007341,-4.0
2023-08-12 10:38:51.015031,14.0
2023-08-12 10:38:51.022721,-4.0
2023-08-12 10:38:51.030410,-26.0
2023-08-12 10:38:51.038100,-41.0
2023-08-12 10:38:51.045790,-57.0
2023-08-12 10:38:51.053480,-67.0
2023-08-12 10:38:51.061170,-69.0
2023-08-12 10:38:51.068859,-72.0
2023-08-12 10:38:51.076549,-74.0
2023-08-12 10:38:51.084239,-77.0
2023-08-12 10:38:51.091929,-77.0
2023-08-12 10:38:51.099618,-77.0
2023-08-12 10:38:51.107308,-74.0
2023-08-12 10:38:51.114998,-82.0
2023-08-12 10:38:51.122688,-96.0
2023-08-12 10:38:51.130378,-60.0
2023-08-12 10:38:51.138067,120.0
2023-08-12 10:38:51.145757,492.0
2023-08-12 10:38:51.153447,639.0
2023-08-12 10:38:51.161137,101.0
2023-08-12 10:38:51.168827,-361.0
2023-08-12 10:38:51.176516,-79.0
2023-08-12 10:38:51.184206,123.0
2023-08-12 10:38:51.191896,-103.0
2023-08-12 10:38:51.199586,-164.0
2023-08-12 10:38:51.207276,-65.0
2023-08-12 10:38:51.214965,-94.0
2023-08-12 10:38:51.222655,-125.0
2023-08-12 10:38:51.230345,-86.0
2023-08-12 10:38:51.238035,-82.0
2023-08-12 10:38:51.245725,-94.0
2023-08-12 10:38:51.253414,-82.0
2023-08-12 10:38:51.261104,-77.0
2023-08-12 10:38:51.268794,-86.0
2023-08-12 10:38:51.276484,-86.0
2023-08-12 10:38:51.284173,-77.0
2023-08-12 10:38:51.291863,-72.0
2023-08-12 10:38:51.299553,-67.0
2023-08-12 10:38:51.307243,-60.0
2023-08-12 10:38:51.314933,-57.0
2023-08-12 10:38:51.322622,-55.0
2023-08-12 10:38:51.330312,-50.0
2023-08-12 10:38:51.338002,-48.0
2023-08-12 10:38:51.345692,-43.0
2023-08-12 10:38:51.353382,-38.0
2023-08-12 10:38:51.361071,-41.0
2023-08-12 10:38:51.368761,-38.0
2023-08-12 10:38:51.376451,-38.0
2023-08-12 10:38:51.384141,-43.0
2023-08-12 10:38:51.391831,-50.0
2023-08-12 10:38:51.399520,-53.0
2023-08-12 10:38:51.407210,-60.0
2023-08-12 10:38:51.414900,-74.0
2023-08-12 10:38:51.422590,-79.0
2023-08-12 10:38:51.430280,-82.0
2023-08-12 10:38:51.437969,-86.0
2023-08-12 10:38:51.445659,-94.0
2023-08-12 10:38:51.453349,-98.0
2023-08-12 10:38:51.461039,-103.0
2023-08-12 10:38:51.468728,-106.0
2023-08-12 10:38:51.476418,-108.0
2023-08-12 10:38:51.484108,-108.0
2023-08-12 10:38:51.491798,-106.0
2023-08-12 10:38:51.499488,-106.0
2023-08-12 10:38:51.507177,-108.0
2023-08-12 10:38:51.514867,-103.0
2023-08-12 10:38:51.522557,-101.0
2023-08-12 10:38:51.530247,-101.0
2023-08-12 10:38:51.537937,-98.0
2023-08-12 10:38:51.545626,-94.0
2023-08-12 10:38:51.553316,-91.0
2023-08-12 10:38:51.561006,-89.0
2023-08-12 10:38:51.568696,-86.0
2023-08-12 10:38:51.576386,-79.0
2023-08-12 10:38:51.584075,-74.0
2023-08-12 10:38:51.591765,-72.0
2023-08-12 10:38:51.599455,-67.0
2023-08-12 10:38:51.607145,-62.0
2023-08-12 10:38:51.614835,-62.0
2023-08-12 10:38:51.622524,-57.0
2023-08-12 10:38:51.630214,-55.0
2023-08-12 10:38:51.637904,-57.0
2023-08-12 10:38:51.645594,-60.0
2023-08-12 10:38:51.653283,-62.0
2023-08-12 10:38:51.660973,-62.0
2023-08-12 10:38:51.668663,-60.0
2023-08-12 10:38:51.676353,-60.0
2023-08-12 10:38:51.684043,-60.0
2023-08-12 10:38:51.691732,-57.0
2023-08-12 10:38:51.699422,-55.0
2023-08-12 10:38:51.707112,-53.0
2023-08-12 10:38:51.714802,-53.0
2023-08-12 10:38:51.722492,-50.0
2023-08-12 10:38:51.730181,-50.0
2023-08-12 10:38:51.737871,-50.0
2023-08-12 10:38:51.745561,-45.0
2023-08-12 10:38:51.753251,-45.0
2023-08-12 10:38:51.760941,-48.0
2023-08-12 10:38:51.768630,-50.0
2023-08-12 10:38:51.776320,-53.0
2023-08-12 10:38:51.784010,-53.0
2023-08-12 10:38:51.791700,-55.0
2023-08-12 10:38:51.799390,-55.0
2023-08-12 10:38:51.807079,-48.0
2023-08-12 10:38:51.814769,-38.0
2023-08-12 10:38:51.822459,-14.0
2023-08-12 10:38:51.830149,16.0
2023-08-12 10:38:51.837838,14.0
2023-08-12 10:38:51.845528,-14.0
2023-08-12 10:38:51.853218,-36.0
2023-08-12 10:38:51.860908,-55.0
2023-08-12 10:38:51.868598,-72.0
2023-08-12 10:38:51.876287,-84.0
2023-08-12 10:38:51.883977,-94.0
2023-08-12 10:38:51.891667,-94.0
2023-08-12 10:38:51.899357,-91.0
2023-08-12 10:38:51.907047,-96.0
2023-08-12 10:38:51.914736,-98.0
2023-08-12 10:38:51.922426,-96.0
2023-08-12 10:38:51.930116,-96.0
2023-08-12 10:38:51.937806,-106.0
2023-08-12 10:38:51.945496,-98.0
2023-08-12 10:38:51.953185,7.0
2023-08-12 10:38:51.960875,296.0
2023-08-12 10:38:51.968565,622.0
2023-08-12 10:38:51.976255,393.0
2023-08-12 10:38:51.983944,-267.0
2023-08-12 10:38:51.991634,-320.0
2023-08-12 10:38:51.999324,77.0
2023-08-12 10:38:52.007014,33.0
2023-08-12 10:38:52.014704,-164.0
2023-08-12 10:38:52.022393,-98.0
2023-08-12 10:38:52.030083,-55.0
2023-08-12 10:38:52.037773,-115.0
2023-08-12 10:38:52.045463,-103.0
2023-08-12 10:38:52.053153,-69.0
2023-08-12 10:38:52.060842,-84.0
2023-08-12 10:38:52.068532,-86.0
2023-08-12 10:38:52.076222,-72.0
2023-08-12 10:38:52.083912,-67.0
2023-08-12 10:38:52.091602,-69.0
2023-08-12 10:38:52.099291,-62.0
2023-08-12 10:38:52.106981,-57.0
2023-08-12 10:38:52.114671,-53.0
2023-08-12 10:38:52.122361,-48.0
2023-08-12 10:38:52.130051,-43.0
2023-08-12 10:38:52.137740,-41.0
2023-08-12 10:38:52.145430,-38.0
2023-08-12 10:38:52.153120,-36.0
2023-08-12 10:38:52.160810,-31.0
2023-08-12 10:38:52.168499,-26.0
2023-08-12 10:38:52.176189,-24.0
2023-08-12 10:38:52.183879,-24.0
2023-08-12 10:38:52.191569,-21.0
2023-08-12 10:38:52.199259,-24.0
2023-08-12 10:38:52.206948,-24.0
2023-08-12 10:38:52.214638,-28.0
2023-08-12 10:38:52.222328,-36.0
2023-08-12 10:38:52.230018,-43.0
2023-08-12 10:38:52.237708,-45.0
2023-08-12 10:38:52.245397,-48.0
2023-08-12 10:38:52.253087,-57.0
2023-08-12 10:38:52.260777,-67.0
2023-08-12 10:38:52.268467,-67.0
2023-08-12 10:38:52.276157,-67.0
2023-08-12 10:38:52.283846,-77.0
2023-08-12 10:38:52.291536,-86.0
2023-08-12 10:38:52.299226,-89.0
2023-08-12 10:38:52.306916,-89.0
2023-08-12 10:38:52.314606,-89.0
2023-08-12 10:38:52.322295,-86.0
2023-08-12 10:38:52.329985,-84.0
2023-08-12 10:38:52.337675,-82.0
2023-08-12 10:38:52.345365,-84.0
2023-08-12 10:38:52.353054,-82.0
2023-08-12 10:38:52.360744,-79.0
2023-08-12 10:38:52.368434,-79.0
2023-08-12 10:38:52.376124,-84.0
2023-08-12 10:38:52.383814,-82.0
2023-08-12 10:38:52.391503,-82.0
2023-08-12 10:38:52.399193,-89.0
2023-08-12 10:38:52.406883,-86.0
2023-08-12 10:38:52.414573,-74.0
2023-08-12 10:38:52.422263,-74.0
2023-08-12 10:38:52.429952,-82.0
2023-08-12 10:38:52.437642,-86.0
2023-08-12 10:38:52.445332,-84.0
2023-08-12 10:38:52.453022,-79.0
2023-08-12 10:38:52.460712,-77.0
2023-08-12 10:38:52.468401,-74.0
2023-08-12 10:38:52.476091,-74.0
2023-08-12 10:38:52.483781,-77.0
2023-08-12 10:38:52.491471,-77.0
2023-08-12 10:38:52.499161,-74.0
2023-08-12 10:38:52.506850,-67.0
2023-08-12 10:38:52.514540,-62.0
2023-08-12 10:38:52.522230,-62.0
2023-08-12 10:38:52.529920,-69.0
2023-08-12 10:38:52.537609,-69.0
2023-08-12 10:38:52.545299,-62.0
2023-08-12 10:38:52.552989,-62.0
2023-08-12 10:38:52.560679,-62.0
2023-08-12 10:38:52.568369,-67.0
2023-08-12 10:38:52.576058,-69.0
2023-08-12 10:38:52.583748,-72.0
2023-08-12 10:38:52.591438,-72.0
2023-08-12 10:38:52.599128,-67.0
2023-08-12 10:38:52.606818,-62.0
2023-08-12 10:38:52.614507,-67.0
2023-08-12 10:38:52.622197,-57.0
2023-08-12 10:38:52.629887,-21.0
2023-08-12 10:38:52.637577,7.0
2023-08-12 10:38:52.645267,2.0
2023-08-12 10:38:52.652956,-14.0
2023-08-12 10:38:52.660646,-28.0
2023-08-12 10:38:52.668336,-53.0
2023-08-12 10:38:52.676026,-69.0
2023-08-12 10:38:52.683716,-69.0
2023-08-12 10:38:52.691405,-67.0
2023-08-12 10:38:52.699095,-72.0
2023-08-12 10:38:52.706785,-74.0
2023-08-12 10:38:52.714475,-79.0
2023-08-12 10:38:52.722164,-86.0
2023-08-12 10:38:52.729854,-84.0
2023-08-12 10:38:52.737544,-82.0
2023-08-12 10:38:52.745234,-86.0
2023-08-12 10:38:52.752924,-50.0
2023-08-12 10:38:52.760613,96.0
2023-08-12 10:38:52.768303,427.0
2023-08-12 10:38:52.775993,661.0
2023-08-12 10:38:52.783683,197.0
2023-08-12 10:38:52.791373,-443.0
2023-08-12 10:38:52.799062,-241.0
2023-08-12 10:38:52.806752,161.0
2023-08-12 10:38:52.814442,-14.0
2023-08-12 10:38:52.822132,-173.0
2023-08-12 10:38:52.829822,-67.0
2023-08-12 10:38:52.837511,-67.0
2023-08-12 10:38:52.845201,-137.0
2023-08-12 10:38:52.852891,-106.0
2023-08-12 10:38:52.860581,-72.0
2023-08-12 10:38:52.868271,-91.0
2023-08-12 10:38:52.875960,-94.0
2023-08-12 10:38:52.883650,-79.0
2023-08-12 10:38:52.891340,-79.0
2023-08-12 10:38:52.899030,-77.0
2023-08-12 10:38:52.906719,-65.0
2023-08-12 10:38:52.914409,-57.0
2023-08-12 10:38:52.922099,-57.0
2023-08-12 10:38:52.929789,-60.0
2023-08-12 10:38:52.937479,-57.0
2023-08-12 10:38:52.945168,-53.0
2023-08-12 10:38:52.952858,-50.0
2023-08-12 10:38:52.960548,-41.0
2023-08-12 10:38:52.968238,-31.0
2023-08-12 10:38:52.975928,-36.0
2023-08-12 10:38:52.983617,-45.0
2023-08-12 10:38:52.991307,-38.0
2023-08-12 10:38:52.998997,-31.0
2023-08-12 10:38:53.006687,-41.0
2023-08-12 10:38:53.014377,-41.0
2023-08-12 10:38:53.022066,-38.0
2023-08-12 10:38:53.029756,-53.0
2023-08-12 10:38:53.037446,-57.0
2023-08-12 10:38:53.045136,-53.0
2023-08-12 10:38:53.052826,-62.0
2023-08-12 10:38:53.060515,-74.0
2023-08-12 10:38:53.068205,-77.0
2023-08-12 10:38:53.075895,-84.0
2023-08-12 10:38:53.083585,-101.0
2023-08-12 10:38:53.091274,-108.0
2023-08-12 10:38:53.098964,-106.0
2023-08-12 10:38:53.106654,-110.0
2023-08-12 10:38:53.114344,-120.0
2023-08-12 10:38:53.122034,-115.0
2023-08-12 10:38:53.129723,-108.0
2023-08-12 10:38:53.137413,-106.0
2023-08-12 10:38:53.145103,-103.0
2023-08-12 10:38:53.152793,-101.0
2023-08-12 10:38:53.160483,-103.0
2023-08-12 10:38:53.168172,-98.0
2023-08-12 10:38:53.175862,-89.0
2023-08-12 10:38:53.183552,-86.0
2023-08-12 10:38:53.191242,-84.0
2023-08-12 10:38:53.198932,-79.0
2023-08-12 10:38:53.206621,-74.0
2023-08-12 10:38:53.214311,-72.0
2023-08-12 10:38:53.222001,-67.0
2023-08-12 10:38:53.229691,-67.0
2023-08-12 10:38:53.237381,-67.0
2023-08-12 10:38:53.245070,-67.0
2023-08-12 10:38:53.252760,-65.0
2023-08-12 10:38:53.260450,-60.0
2023-08-12 10:38:53.268140,-57.0
2023-08-12 10:38:53.275829,-62.0
2023-08-12 10:38:53.283519,-67.0
2023-08-12 10:38:53.291209,-60.0
2023-08-12 10:38:53.298899,-55.0
2023-08-12 10:38:53.306589,-60.0
2023-08-12 10:38:53.314278,-57.0
2023-08-12 10:38:53.321968,-55.0
2023-08-12 10:38:53.329658,-60.0
2023-08-12 10:38:53.337348,-62.0
2023-08-12 10:38:53.345038,-57.0
2023-08-12 10:38:53.352727,-53.0
2023-08-12 10:38:53.360417,-57.0
2023-08-12 10:38:53.368107,-62.0
2023-08-12 10:38:53.375797,-65.0
2023-08-12 10:38:53.383487,-67.0
2023-08-12 10:38:53.391176,-65.0
2023-08-12 10:38:53.398866,-65.0
2023-08-12 10:38:53.406556,-67.0
2023-08-12 10:38:53.414246,-50.0
2023-08-12 10:38:53.421936,-21.0
2023-08-12 10:38:53.429625,-2.0
2023-08-12 10:38:53.437315,-4.0
2023-08-12 10:38:53.445005,-14.0
2023-08-12 10:38:53.452695,-28.0
2023-08-12 10:38:53.460384,-50.0
2023-08-12 10:38:53.468074,-69.0
2023-08-12 10:38:53.475764,-77.0
2023-08-12 10:38:53.483454,-84.0
2023-08-12 10:38:53.491144,-84.0
2023-08-12 10:38:53.498833,-82.0
2023-08-12 10:38:53.506523,-86.0
2023-08-12 10:38:53.514213,-89.0
2023-08-12 10:38:53.521903,-89.0
2023-08-12 10:38:53.529593,-91.0
2023-08-12 10:38:53.537282,-98.0
2023-08-12 10:38:53.544972,-69.0
2023-08-12 10:38:53.552662,82.0
2023-08-12 10:38:53.560352,446.0
2023-08-12 10:38:53.568042,699.0
2023-08-12 10:38:53.575731,224.0
2023-08-12 10:38:53.583421,-407.0
2023-08-12 10:38:53.591111,-197.0
2023-08-12 10:38:53.598801,159.0
2023-08-12 10:38:53.606491,-45.0
2023-08-12 10:38:53.614180,-190.0
2023-08-12 10:38:53.621870,-74.0
2023-08-12 10:38:53.629560,-77.0
2023-08-12 10:38:53.637250,-135.0
2023-08-12 10:38:53.644939,-101.0
2023-08-12 10:38:53.652629,-86.0
2023-08-12 10:38:53.660319,-106.0
2023-08-12 10:38:53.668009,-94.0
2023-08-12 10:38:53.675699,-77.0
2023-08-12 10:38:53.683388,-79.0
2023-08-12 10:38:53.691078,-77.0
2023-08-12 10:38:53.698768,-69.0
2023-08-12 10:38:53.706458,-67.0
2023-08-12 10:38:53.714148,-65.0
2023-08-12 10:38:53.721837,-55.0
2023-08-12 10:38:53.729527,-50.0
2023-08-12 10:38:53.737217,-48.0
2023-08-12 10:38:53.744907,-45.0
2023-08-12 10:38:53.752597,-45.0
2023-08-12 10:38:53.760286,-43.0
2023-08-12 10:38:53.767976,-33.0
2023-08-12 10:38:53.775666,-28.0
2023-08-12 10:38:53.783356,-28.0
2023-08-12 10:38:53.791046,-33.0
2023-08-12 10:38:53.798735,-33.0
2023-08-12 10:38:53.806425,-33.0
2023-08-12 10:38:53.814115,-33.0
2023-08-12 10:38:53.821805,-38.0
2023-08-12 10:38:53.829494,-45.0
2023-08-12 10:38:53.837184,-50.0
2023-08-12 10:38:53.844874,-48.0
2023-08-12 10:38:53.852564,-53.0
2023-08-12 10:38:53.860254,-62.0
2023-08-12 10:38:53.867943,-67.0
2023-08-12 10:38:53.875633,-72.0
2023-08-12 10:38:53.883323,-82.0
2023-08-12 10:38:53.891013,-86.0
2023-08-12 10:38:53.898703,-86.0
2023-08-12 10:38:53.906392,-89.0
2023-08-12 10:38:53.914082,-84.0
2023-08-12 10:38:53.921772,-84.0
2023-08-12 10:38:53.929462,-91.0
2023-08-12 10:38:53.937152,-96.0
2023-08-12 10:38:53.944841,-89.0
2023-08-12 10:38:53.952531,-84.0
2023-08-12 10:38:53.960221,-89.0
2023-08-12 10:38:53.967911,-86.0
2023-08-12 10:38:53.975601,-74.0
2023-08-12 10:38:53.983290,-69.0
2023-08-12 10:38:53.990980,-69.0
2023-08-12 10:38:53.998670,-65.0
2023-08-12 10:38:54.006360,-65.0
2023-08-12 10:38:54.014049,-69.0
2023-08-12 10:38:54.021739,-72.0
2023-08-12 10:38:54.029429,-65.0
2023-08-12 10:38:54.037119,-60.0
2023-08-12 10:38:54.044809,-60.0
2023-08-12 10:38:54.052498,-67.0
2023-08-12 10:38:54.060188,-74.0
2023-08-12 10:38:54.067878,-77.0
2023-08-12 10:38:54.075568,-74.0
2023-08-12 10:38:54.083258,-67.0
2023-08-12 10:38:54.090947,-67.0
2023-08-12 10:38:54.098637,-72.0
2023-08-12 10:38:54.106327,-74.0
2023-08-12 10:38:54.114017,-72.0
2023-08-12 10:38:54.121707,-67.0
2023-08-12 10:38:54.129396,-65.0
2023-08-12 10:38:54.137086,-62.0
2023-08-12 10:38:54.144776,-62.0
2023-08-12 10:38:54.152466,-67.0
2023-08-12 10:38:54.160156,-65.0
2023-08-12 10:38:54.167845,-62.0
2023-08-12 10:38:54.175535,-67.0
2023-08-12 10:38:54.183225,-65.0
2023-08-12 10:38:54.190915,-57.0
2023-08-12 10:38:54.198604,-50.0
2023-08-12 10:38:54.206294,-26.0
2023-08-12 10:38:54.213984,12.0
2023-08-12 10:38:54.221674,14.0
2023-08-12 10:38:54.229364,-9.0
2023-08-12 10:38:54.237053,-26.0
2023-08-12 10:38:54.244743,-41.0
2023-08-12 10:38:54.252433,-57.0
2023-08-12 10:38:54.260123,-65.0
2023-08-12 10:38:54.267813,-62.0
2023-08-12 10:38:54.275502,-62.0
2023-08-12 10:38:54.283192,-65.0
2023-08-12 10:38:54.290882,-65.0
2023-08-12 10:38:54.298572,-62.0
2023-08-12 10:38:54.306262,-65.0
2023-08-12 10:38:54.313951,-72.0
2023-08-12 10:38:54.321641,-86.0
2023-08-12 10:38:54.329331,-69.0
2023-08-12 10:38:54.337021,62.0
2023-08-12 10:38:54.344711,405.0
2023-08-12 10:38:54.352400,702.0
2023-08-12 10:38:54.360090,306.0
2023-08-12 10:38:54.367780,-357.0
2023-08-12 10:38:54.375470,-226.0
2023-08-12 10:38:54.383159,156.0
2023-08-12 10:38:54.390849,-9.0
2023-08-12 10:38:54.398539,-185.0
2023-08-12 10:38:54.406229,-77.0
2023-08-12 10:38:54.413919,-65.0
2023-08-12 10:38:54.421608,-127.0
2023-08-12 10:38:54.429298,-106.0
2023-08-12 10:38:54.436988,-86.0
2023-08-12 10:38:54.444678,-106.0
2023-08-12 10:38:54.452368,-98.0
2023-08-12 10:38:54.460057,-84.0
2023-08-12 10:38:54.467747,-86.0
2023-08-12 10:38:54.475437,-84.0
2023-08-12 10:38:54.483127,-77.0
2023-08-12 10:38:54.490817,-72.0
2023-08-12 10:38:54.498506,-65.0
2023-08-12 10:38:54.506196,-57.0
2023-08-12 10:38:54.513886,-55.0
2023-08-12 10:38:54.521576,-53.0
2023-08-12 10:38:54.529265,-45.0
2023-08-12 10:38:54.536955,-43.0
2023-08-12 10:38:54.544645,-43.0
2023-08-12 10:38:54.552335,-38.0
2023-08-12 10:38:54.560025,-31.0
2023-08-12 10:38:54.567714,-31.0
2023-08-12 10:38:54.575404,-31.0
2023-08-12 10:38:54.583094,-31.0
2023-08-12 10:38:54.590784,-38.0
2023-08-12 10:38:54.598474,-45.0
2023-08-12 10:38:54.606163,-48.0
2023-08-12 10:38:54.613853,-53.0
2023-08-12 10:38:54.621543,-57.0
2023-08-12 10:38:54.629233,-57.0
2023-08-12 10:38:54.636923,-62.0
2023-08-12 10:38:54.644612,-77.0
2023-08-12 10:38:54.652302,-91.0
2023-08-12 10:38:54.659992,-96.0
2023-08-12 10:38:54.667682,-96.0
2023-08-12 10:38:54.675372,-98.0
2023-08-12 10:38:54.683061,-101.0
2023-08-12 10:38:54.690751,-103.0
2023-08-12 10:38:54.698441,-101.0
2023-08-12 10:38:54.706131,-98.0
2023-08-12 10:38:54.713820,-94.0
2023-08-12 10:38:54.721510,-91.0
2023-08-12 10:38:54.729200,-91.0
2023-08-12 10:38:54.736890,-94.0
2023-08-12 10:38:54.744580,-89.0
2023-08-12 10:38:54.752269,-84.0
2023-08-12 10:38:54.759959,-82.0
2023-08-12 10:38:54.767649,-77.0
2023-08-12 10:38:54.775339,-74.0
2023-08-12 10:38:54.783029,-72.0
2023-08-12 10:38:54.790718,-67.0
2023-08-12 10:38:54.798408,-62.0
2023-08-12 10:38:54.806098,-62.0
2023-08-12 10:38:54.813788,-57.0
2023-08-12 10:38:54.821478,-55.0
2023-08-12 10:38:54.829167,-57.0
2023-08-12 10:38:54.836857,-62.0
2023-08-12 10:38:54.844547,-60.0
2023-08-12 10:38:54.852237,-57.0
2023-08-12 10:38:54.859927,-55.0
2023-08-12 10:38:54.867616,-55.0
2023-08-12 10:38:54.875306,-57.0
2023-08-12 10:38:54.882996,-55.0
2023-08-12 10:38:54.890686,-53.0
2023-08-12 10:38:54.898375,-53.0
2023-08-12 10:38:54.906065,-53.0
2023-08-12 10:38:54.913755,-50.0
2023-08-12 10:38:54.921445,-48.0
2023-08-12 10:38:54.929135,-48.0
2023-08-12 10:38:54.936824,-55.0
2023-08-12 10:38:54.944514,-60.0
2023-08-12 10:38:54.952204,-60.0
2023-08-12 10:38:54.959894,-55.0
2023-08-12 10:38:54.967584,-53.0
2023-08-12 10:38:54.975273,-57.0
2023-08-12 10:38:54.982963,-60.0
2023-08-12 10:38:54.990653,-62.0
2023-08-12 10:38:54.998343,-60.0
2023-08-12 10:38:55.006033,-55.0
2023-08-12 10:38:55.013722,-48.0
2023-08-12 10:38:55.021412,-21.0
2023-08-12 10:38:55.029102,12.0
2023-08-12 10:38:55.036792,14.0
2023-08-12 10:38:55.044482,-9.0
2023-08-12 10:38:55.052171,-24.0
2023-08-12 10:38:55.059861,-36.0
2023-08-12 10:38:55.067551,-53.0
2023-08-12 10:38:55.075241,-65.0
2023-08-12 10:38:55.082930,-69.0
2023-08-12 10:38:55.090620,-74.0
2023-08-12 10:38:55.098310,-77.0
2023-08-12 10:38:55.106000,-74.0
2023-08-12 10:38:55.113690,-74.0
2023-08-12 10:38:55.121379,-77.0
2023-08-12 10:38:55.129069,-79.0
2023-08-12 10:38:55.136759,-91.0
2023-08-12 10:38:55.144449,-94.0
2023-08-12 10:38:55.152139,-9.0
2023-08-12 10:38:55.159828,272.0
2023-08-12 10:38:55.167518,646.0
2023-08-12 10:38:55.175208,494.0
2023-08-12 10:38:55.182898,-195.0
2023-08-12 10:38:55.190588,-335.0
2023-08-12 10:38:55.198277,62.0
2023-08-12 10:38:55.205967,41.0
2023-08-12 10:38:55.213657,-188.0
2023-08-12 10:38:55.221347,-130.0
2023-08-12 10:38:55.229037,-79.0
2023-08-12 10:38:55.236726,-147.0
2023-08-12 10:38:55.244416,-139.0
2023-08-12 10:38:55.252106,-101.0
2023-08-12 10:38:55.259796,-115.0
2023-08-12 10:38:55.267485,-120.0
2023-08-12 10:38:55.275175,-108.0
2023-08-12 10:38:55.282865,-110.0
2023-08-12 10:38:55.290555,-108.0
2023-08-12 10:38:55.298245,-98.0
2023-08-12 10:38:55.305934,-94.0
2023-08-12 10:38:55.313624,-91.0
2023-08-12 10:38:55.321314,-86.0
2023-08-12 10:38:55.329004,-84.0
2023-08-12 10:38:55.336694,-82.0
2023-08-12 10:38:55.344383,-74.0
2023-08-12 10:38:55.352073,-69.0
2023-08-12 10:38:55.359763,-69.0
2023-08-12 10:38:55.367453,-67.0
2023-08-12 10:38:55.375143,-65.0
2023-08-12 10:38:55.382832,-60.0
2023-08-12 10:38:55.390522,-60.0
2023-08-12 10:38:55.398212,-57.0
2023-08-12 10:38:55.405902,-60.0
2023-08-12 10:38:55.413592,-65.0
2023-08-12 10:38:55.421281,-69.0
2023-08-12 10:38:55.428971,-72.0
2023-08-12 10:38:55.436661,-74.0
2023-08-12 10:38:55.444351,-82.0
2023-08-12 10:38:55.452040,-89.0
2023-08-12 10:38:55.459730,-91.0
2023-08-12 10:38:55.467420,-94.0
2023-08-12 10:38:55.475110,-96.0
2023-08-12 10:38:55.482800,-98.0
2023-08-12 10:38:55.490489,-101.0
2023-08-12 10:38:55.498179,-106.0
2023-08-12 10:38:55.505869,-103.0
2023-08-12 10:38:55.513559,-101.0
2023-08-12 10:38:55.521249,-98.0
2023-08-12 10:38:55.528938,-96.0
2023-08-12 10:38:55.536628,-94.0
2023-08-12 10:38:55.544318,-94.0
2023-08-12 10:38:55.552008,-94.0
2023-08-12 10:38:55.559698,-91.0
2023-08-12 10:38:55.567387,-89.0
2023-08-12 10:38:55.575077,-89.0
2023-08-12 10:38:55.582767,-89.0
2023-08-12 10:38:55.590457,-86.0
2023-08-12 10:38:55.598147,-82.0
2023-08-12 10:38:55.605836,-77.0
2023-08-12 10:38:55.613526,-72.0
2023-08-12 10:38:55.621216,-72.0
2023-08-12 10:38:55.628906,-72.0
2023-08-12 10:38:55.636595,-67.0
2023-08-12 10:38:55.644285,-62.0
2023-08-12 10:38:55.651975,-60.0
2023-08-12 10:38:55.659665,-60.0
2023-08-12 10:38:55.667355,-60.0
2023-08-12 10:38:55.675044,-60.0
2023-08-12 10:38:55.682734,-60.0
2023-08-12 10:38:55.690424,-57.0
2023-08-12 10:38:55.698114,-55.0
2023-08-12 10:38:55.705804,-53.0
2023-08-12 10:38:55.713493,-55.0
2023-08-12 10:38:55.721183,-62.0
2023-08-12 10:38:55.728873,-69.0
2023-08-12 10:38:55.736563,-67.0
2023-08-12 10:38:55.744253,-65.0
2023-08-12 10:38:55.751942,-62.0
2023-08-12 10:38:55.759632,-62.0
2023-08-12 10:38:55.767322,-69.0
2023-08-12 10:38:55.775012,-79.0
2023-08-12 10:38:55.782702,-74.0
2023-08-12 10:38:55.790391,-67.0
2023-08-12 10:38:55.798081,-69.0
2023-08-12 10:38:55.805771,-69.0
2023-08-12 10:38:55.813461,-69.0
2023-08-12 10:38:55.821150,-72.0
2023-08-12 10:38:55.828840,-79.0
2023-08-12 10:38:55.836530,-74.0
2023-08-12 10:38:55.844220,-65.0
2023-08-12 10:38:55.851910,-55.0
2023-08-12 10:38:55.859599,-31.0
2023-08-12 10:38:55.867289,-4.0
2023-08-12 10:38:55.874979,-7.0
2023-08-12 10:38:55.882669,-26.0
2023-08-12 10:38:55.890359,-36.0
2023-08-12 10:38:55.898048,-50.0
2023-08-12 10:38:55.905738,-67.0
2023-08-12 10:38:55.913428,-79.0
2023-08-12 10:38:55.921118,-82.0
2023-08-12 10:38:55.928808,-79.0
2023-08-12 10:38:55.936497,-79.0
2023-08-12 10:38:55.944187,-86.0
2023-08-12 10:38:55.951877,-89.0
2023-08-12 10:38:55.959567,-89.0
2023-08-12 10:38:55.967257,-91.0
2023-08-12 10:38:55.974946,-103.0
2023-08-12 10:38:55.982636,-103.0
2023-08-12 10:38:55.990326,-14.0
2023-08-12 10:38:55.998016,265.0
2023-08-12 10:38:56.005705,639.0
2023-08-12 10:38:56.013395,499.0
2023-08-12 10:38:56.021085,-159.0
2023-08-12 10:38:56.028775,-296.0
2023-08-12 10:38:56.036465,60.0
2023-08-12 10:38:56.044154,24.0
2023-08-12 10:38:56.051844,-185.0
2023-08-12 10:38:56.059534,-125.0
2023-08-12 10:38:56.067224,-72.0
2023-08-12 10:38:56.074914,-135.0
2023-08-12 10:38:56.082603,-127.0
2023-08-12 10:38:56.090293,-91.0
2023-08-12 10:38:56.097983,-101.0
2023-08-12 10:38:56.105673,-103.0
2023-08-12 10:38:56.113363,-89.0
2023-08-12 10:38:56.121052,-86.0
2023-08-12 10:38:56.128742,-89.0
2023-08-12 10:38:56.136432,-79.0
2023-08-12 10:38:56.144122,-72.0
2023-08-12 10:38:56.151812,-69.0
2023-08-12 10:38:56.159501,-65.0
2023-08-12 10:38:56.167191,-60.0
2023-08-12 10:38:56.174881,-60.0
2023-08-12 10:38:56.182571,-55.0
2023-08-12 10:38:56.190260,-50.0
2023-08-12 10:38:56.197950,-45.0
2023-08-12 10:38:56.205640,-43.0
2023-08-12 10:38:56.213330,-41.0
2023-08-12 10:38:56.221020,-43.0
2023-08-12 10:38:56.228709,-43.0
2023-08-12 10:38:56.236399,-41.0
2023-08-12 10:38:56.244089,-41.0
2023-08-12 10:38:56.251779,-48.0
2023-08-12 10:38:56.259469,-53.0
2023-08-12 10:38:56.267158,-55.0
2023-08-12 10:38:56.274848,-62.0
2023-08-12 10:38:56.282538,-62.0
2023-08-12 10:38:56.290228,-60.0
2023-08-12 10:38:56.297918,-65.0
2023-08-12 10:38:56.305607,-69.0
2023-08-12 10:38:56.313297,-74.0
2023-08-12 10:38:56.320987,-84.0
2023-08-12 10:38:56.328677,-86.0
2023-08-12 10:38:56.336367,-84.0
2023-08-12 10:38:56.344056,-86.0
2023-08-12 10:38:56.351746,-94.0
2023-08-12 10:38:56.359436,-98.0
2023-08-12 10:38:56.367126,-96.0
2023-08-12 10:38:56.374815,-89.0
2023-08-12 10:38:56.382505,-91.0
2023-08-12 10:38:56.390195,-91.0
2023-08-12 10:38:56.397885,-89.0
2023-08-12 10:38:56.405575,-86.0
2023-08-12 10:38:56.413264,-86.0
2023-08-12 10:38:56.420954,-79.0
2023-08-12 10:38:56.428644,-77.0
2023-08-12 10:38:56.436334,-74.0
2023-08-12 10:38:56.444024,-72.0
2023-08-12 10:38:56.451713,-72.0
2023-08-12 10:38:56.459403,-74.0
2023-08-12 10:38:56.467093,-72.0
2023-08-12 10:38:56.474783,-67.0
2023-08-12 10:38:56.482473,-67.0
2023-08-12 10:38:56.490162,-67.0
2023-08-12 10:38:56.497852,-65.0
2023-08-12 10:38:56.505542,-62.0
2023-08-12 10:38:56.513232,-62.0
2023-08-12 10:38:56.520922,-60.0
2023-08-12 10:38:56.528611,-60.0
2023-08-12 10:38:56.536301,-60.0
2023-08-12 10:38:56.543991,-60.0
2023-08-12 10:38:56.551681,-60.0
2023-08-12 10:38:56.559370,-60.0
2023-08-12 10:38:56.567060,-60.0
2023-08-12 10:38:56.574750,-60.0
2023-08-12 10:38:56.582440,-60.0
2023-08-12 10:38:56.590130,-60.0
2023-08-12 10:38:56.597819,-55.0
2023-08-12 10:38:56.605509,-53.0
2023-08-12 10:38:56.613199,-55.0
2023-08-12 10:38:56.620889,-53.0
2023-08-12 10:38:56.628579,-55.0
2023-08-12 10:38:56.636268,-57.0
2023-08-12 10:38:56.643958,-60.0
2023-08-12 10:38:56.651648,-57.0
2023-08-12 10:38:56.659338,-57.0
2023-08-12 10:38:56.667028,-62.0
2023-08-12 10:38:56.674717,-60.0
2023-08-12 10:38:56.682407,-53.0
2023-08-12 10:38:56.690097,-60.0
2023-08-12 10:38:56.697787,-57.0
2023-08-12 10:38:56.705477,-38.0
2023-08-12 10:38:56.713166,-16.0
2023-08-12 10:38:56.720856,4.0
2023-08-12 10:38:56.728546,4.0
2023-08-12 10:38:56.736236,-19.0
2023-08-12 10:38:56.743925,-36.0
2023-08-12 10:38:56.751615,-43.0
2023-08-12 10:38:56.759305,-55.0
2023-08-12 10:38:56.766995,-69.0
2023-08-12 10:38:56.774685,-82.0
2023-08-12 10:38:56.782374,-82.0
2023-08-12 10:38:56.790064,-74.0
2023-08-12 10:38:56.797754,-72.0
2023-08-12 10:38:56.805444,-72.0
2023-08-12 10:38:56.813134,-72.0
2023-08-12 10:38:56.820823,-74.0
2023-08-12 10:38:56.828513,-89.0
2023-08-12 10:38:56.836203,-91.0
2023-08-12 10:38:56.843893,-21.0
2023-08-12 10:38:56.851583,212.0
2023-08-12 10:38:56.859272,591.0
2023-08-12 10:38:56.866962,581.0
2023-08-12 10:38:56.874652,-74.0
2023-08-12 10:38:56.882342,-376.0
2023-08-12 10:38:56.890032,4.0
2023-08-12 10:38:56.897721,86.0
2023-08-12 10:38:56.905411,-164.0
2023-08-12 10:38:56.913101,-149.0
2023-08-12 10:38:56.920791,-57.0
2023-08-12 10:38:56.928480,-115.0
2023-08-12 10:38:56.936170,-132.0
2023-08-12 10:38:56.943860,-91.0
2023-08-12 10:38:56.951550,-94.0
2023-08-12 10:38:56.959240,-106.0
2023-08-12 10:38:56.966929,-94.0
2023-08-12 10:38:56.974619,-89.0
2023-08-12 10:38:56.982309,-89.0
2023-08-12 10:38:56.989999,-84.0
2023-08-12 10:38:56.997689,-77.0
2023-08-12 10:38:57.005378,-74.0
2023-08-12 10:38:57.013068,-74.0
2023-08-12 10:38:57.020758,-74.0
2023-08-12 10:38:57.028448,-65.0
2023-08-12 10:38:57.036138,-57.0
2023-08-12 10:38:57.043827,-55.0
2023-08-12 10:38:57.051517,-55.0
2023-08-12 10:38:57.059207,-53.0
2023-08-12 10:38:57.066897,-48.0
2023-08-12 10:38:57.074586,-41.0
2023-08-12 10:38:57.082276,-41.0
2023-08-12 10:38:57.089966,-45.0
2023-08-12 10:38:57.097656,-43.0
2023-08-12 10:38:57.105346,-43.0
2023-08-12 10:38:57.113035,-53.0
2023-08-12 10:38:57.120725,-62.0
2023-08-12 10:38:57.128415,-60.0
2023-08-12 10:38:57.136105,-60.0
2023-08-12 10:38:57.143795,-67.0
2023-08-12 10:38:57.151484,-69.0
2023-08-12 10:38:57.159174,-77.0
2023-08-12 10:38:57.166864,-82.0
2023-08-12 10:38:57.174554,-86.0
2023-08-12 10:38:57.182244,-91.0
2023-08-12 10:38:57.189933,-91.0
2023-08-12 10:38:57.197623,-94.0
2023-08-12 10:38:57.205313,-94.0
2023-08-12 10:38:57.213003,-91.0
2023-08-12 10:38:57.220693,-91.0
2023-08-12 10:38:57.228382,-94.0
2023-08-12 10:38:57.236072,-89.0
2023-08-12 10:38:57.243762,-84.0
2023-08-12 10:38:57.251452,-84.0
2023-08-12 10:38:57.259141,-86.0
2023-08-12 10:38:57.266831,-84.0
2023-08-12 10:38:57.274521,-77.0
2023-08-12 10:38:57.282211,-72.0
2023-08-12 10:38:57.289901,-72.0
2023-08-12 10:38:57.297590,-77.0
2023-08-12 10:38:57.305280,-72.0
2023-08-12 10:38:57.312970,-62.0
2023-08-12 10:38:57.320660,-62.0
2023-08-12 10:38:57.328350,-62.0
2023-08-12 10:38:57.336039,-57.0
2023-08-12 10:38:57.343729,-60.0
2023-08-12 10:38:57.351419,-65.0
2023-08-12 10:38:57.359109,-57.0
2023-08-12 10:38:57.366799,-53.0
2023-08-12 10:38:57.374488,-57.0
2023-08-12 10:38:57.382178,-67.0
2023-08-12 10:38:57.389868,-67.0
2023-08-12 10:38:57.397558,-62.0
2023-08-12 10:38:57.405248,-62.0
2023-08-12 10:38:57.412937,-67.0
2023-08-12 10:38:57.420627,-65.0
2023-08-12 10:38:57.428317,-65.0
2023-08-12 10:38:57.436007,-69.0
2023-08-12 10:38:57.443696,-65.0
2023-08-12 10:38:57.451386,-62.0
2023-08-12 10:38:57.459076,-65.0
2023-08-12 10:38:57.466766,-74.0
2023-08-12 10:38:57.474456,-77.0
2023-08-12 10:38:57.482145,-69.0
2023-08-12 10:38:57.489835,-62.0
2023-08-12 10:38:57.497525,-67.0
2023-08-12 10:38:57.505215,-72.0
2023-08-12 10:38:57.512905,-74.0
2023-08-12 10:38:57.520594,-77.0
2023-08-12 10:38:57.528284,-79.0
2023-08-12 10:38:57.535974,-67.0
2023-08-12 10:38:57.543664,-38.0
2023-08-12 10:38:57.551354,-12.0
2023-08-12 10:38:57.559043,-4.0
2023-08-12 10:38:57.566733,-21.0
2023-08-12 10:38:57.574423,-43.0
2023-08-12 10:38:57.582113,-60.0
2023-08-12 10:38:57.589803,-69.0
2023-08-12 10:38:57.597492,-74.0
2023-08-12 10:38:57.605182,-79.0
2023-08-12 10:38:57.612872,-77.0
2023-08-12 10:38:57.620562,-72.0
2023-08-12 10:38:57.628251,-79.0
2023-08-12 10:38:57.635941,-79.0
2023-08-12 10:38:57.643631,-67.0
2023-08-12 10:38:57.651321,-69.0
2023-08-12 10:38:57.659011,-84.0
2023-08-12 10:38:57.666700,-84.0
2023-08-12 10:38:57.674390,0.0
2023-08-12 10:38:57.682080,267.0
2023-08-12 10:38:57.689770,651.0
2023-08-12 10:38:57.697460,521.0
2023-08-12 10:38:57.705149,-224.0
2023-08-12 10:38:57.712839,-407.0
2023-08-12 10:38:57.720529,74.0
2023-08-12 10:38:57.728219,115.0
2023-08-12 10:38:57.735909,-156.0
2023-08-12 10:38:57.743598,-123.0
2023-08-12 10:38:57.751288,-48.0
2023-08-12 10:38:57.758978,-113.0
2023-08-12 10:38:57.766668,-110.0
2023-08-12 10:38:57.774358,-65.0
2023-08-12 10:38:57.782047,-74.0
2023-08-12 10:38:57.789737,-86.0
2023-08-12 10:38:57.797427,-77.0
2023-08-12 10:38:57.805117,-74.0
2023-08-12 10:38:57.812806,-72.0
2023-08-12 10:38:57.820496,-62.0
2023-08-12 10:38:57.828186,-53.0
2023-08-12 10:38:57.835876,-53.0
2023-08-12 10:38:57.843566,-53.0
2023-08-12 10:38:57.851255,-50.0
2023-08-12 10:38:57.858945,-43.0
2023-08-12 10:38:57.866635,-36.0
2023-08-12 10:38:57.874325,-33.0
2023-08-12 10:38:57.882015,-31.0
2023-08-12 10:38:57.889704,-31.0
2023-08-12 10:38:57.897394,-28.0
2023-08-12 10:38:57.905084,-26.0
2023-08-12 10:38:57.912774,-21.0
2023-08-12 10:38:57.920464,-24.0
2023-08-12 10:38:57.928153,-28.0
2023-08-12 10:38:57.935843,-33.0
2023-08-12 10:38:57.943533,-33.0
2023-08-12 10:38:57.951223,-38.0
2023-08-12 10:38:57.958913,-43.0
2023-08-12 10:38:57.966602,-45.0
2023-08-12 10:38:57.974292,-55.0
2023-08-12 10:38:57.981982,-65.0
2023-08-12 10:38:57.989672,-72.0
2023-08-12 10:38:57.997361,-74.0
2023-08-12 10:38:58.005051,-77.0
2023-08-12 10:38:58.012741,-86.0
2023-08-12 10:38:58.020431,-101.0
2023-08-12 10:38:58.028121,-106.0
2023-08-12 10:38:58.035810,-103.0
2023-08-12 10:38:58.043500,-106.0
2023-08-12 10:38:58.051190,-108.0
2023-08-12 10:38:58.058880,-106.0
2023-08-12 10:38:58.066570,-113.0
2023-08-12 10:38:58.074259,-115.0
2023-08-12 10:38:58.081949,-108.0
2023-08-12 10:38:58.089639,-103.0
2023-08-12 10:38:58.097329,-98.0
2023-08-12 10:38:58.105019,-94.0
2023-08-12 10:38:58.112708,-94.0
2023-08-12 10:38:58.120398,-89.0
2023-08-12 10:38:58.128088,-84.0
2023-08-12 10:38:58.135778,-79.0
2023-08-12 10:38:58.143468,-77.0
2023-08-12 10:38:58.151157,-77.0
2023-08-12 10:38:58.158847,-79.0
2023-08-12 10:38:58.166537,-82.0
2023-08-12 10:38:58.174227,-79.0
2023-08-12 10:38:58.181916,-72.0
2023-08-12 10:38:58.189606,-69.0
2023-08-12 10:38:58.197296,-74.0
2023-08-12 10:38:58.204986,-84.0
2023-08-12 10:38:58.212676,-84.0
2023-08-12 10:38:58.220365,-82.0
2023-08-12 10:38:58.228055,-77.0
2023-08-12 10:38:58.235745,-79.0
2023-08-12 10:38:58.243435,-86.0
2023-08-12 10:38:58.251125,-94.0
2023-08-12 10:38:58.258814,-86.0
2023-08-12 10:38:58.266504,-79.0
2023-08-12 10:38:58.274194,-79.0
2023-08-12 10:38:58.281884,-84.0
2023-08-12 10:38:58.289574,-84.0
2023-08-12 10:38:58.297263,-89.0
2023-08-12 10:38:58.304953,-94.0
2023-08-12 10:38:58.312643,-89.0
2023-08-12 10:38:58.320333,-89.0
2023-08-12 10:38:58.328023,-89.0
2023-08-12 10:38:58.335712,-84.0
2023-08-12 10:38:58.343402,-72.0
2023-08-12 10:38:58.351092,-45.0
2023-08-12 10:38:58.358782,-9.0
2023-08-12 10:38:58.366471,-4.0
2023-08-12 10:38:58.374161,-24.0
2023-08-12 10:38:58.381851,-36.0
2023-08-12 10:38:58.389541,-53.0
2023-08-12 10:38:58.397231,-74.0
2023-08-12 10:38:58.404920,-77.0
2023-08-12 10:38:58.412610,-77.0
2023-08-12 10:38:58.420300,-77.0
2023-08-12 10:38:58.427990,-74.0
2023-08-12 10:38:58.435680,-72.0
2023-08-12 10:38:58.443369,-74.0
2023-08-12 10:38:58.451059,-74.0
2023-08-12 10:38:58.458749,-69.0
2023-08-12 10:38:58.466439,-82.0
2023-08-12 10:38:58.474129,-69.0
2023-08-12 10:38:58.481818,45.0
2023-08-12 10:38:58.489508,369.0
2023-08-12 10:38:58.497198,685.0
2023-08-12 10:38:58.504888,340.0
2023-08-12 10:38:58.512578,-357.0
2023-08-12 10:38:58.520267,-284.0
2023-08-12 10:38:58.527957,149.0
2023-08-12 10:38:58.535647,26.0
2023-08-12 10:38:58.543337,-178.0
2023-08-12 10:38:58.551026,-86.0
2023-08-12 10:38:58.558716,-65.0
2023-08-12 10:38:58.566406,-135.0
2023-08-12 10:38:58.574096,-110.0
2023-08-12 10:38:58.581786,-82.0
2023-08-12 10:38:58.589475,-96.0
2023-08-12 10:38:58.597165,-89.0
2023-08-12 10:38:58.604855,-82.0
2023-08-12 10:38:58.612545,-91.0
2023-08-12 10:38:58.620235,-84.0
2023-08-12 10:38:58.627924,-69.0
2023-08-12 10:38:58.635614,-69.0
2023-08-12 10:38:58.643304,-69.0
2023-08-12 10:38:58.650994,-60.0
2023-08-12 10:38:58.658684,-53.0
2023-08-12 10:38:58.666373,-50.0
2023-08-12 10:38:58.674063,-45.0
2023-08-12 10:38:58.681753,-38.0
2023-08-12 10:38:58.689443,-36.0
2023-08-12 10:38:58.697133,-31.0
2023-08-12 10:38:58.704822,-26.0
2023-08-12 10:38:58.712512,-26.0
2023-08-12 10:38:58.720202,-26.0
2023-08-12 10:38:58.727892,-24.0
2023-08-12 10:38:58.735581,-26.0
2023-08-12 10:38:58.743271,-31.0
2023-08-12 10:38:58.750961,-31.0
2023-08-12 10:38:58.758651,-33.0
2023-08-12 10:38:58.766341,-43.0
2023-08-12 10:38:58.774030,-50.0
2023-08-12 10:38:58.781720,-60.0
2023-08-12 10:38:58.789410,-67.0
2023-08-12 10:38:58.797100,-69.0
2023-08-12 10:38:58.804790,-74.0
2023-08-12 10:38:58.812479,-84.0
2023-08-12 10:38:58.820169,-89.0
2023-08-12 10:38:58.827859,-91.0
2023-08-12 10:38:58.835549,-94.0
2023-08-12 10:38:58.843239,-91.0
2023-08-12 10:38:58.850928,-86.0
2023-08-12 10:38:58.858618,-89.0
2023-08-12 10:38:58.866308,-91.0
2023-08-12 10:38:58.873998,-86.0
2023-08-12 10:38:58.881688,-84.0
2023-08-12 10:38:58.889377,-79.0
2023-08-12 10:38:58.897067,-79.0
2023-08-12 10:38:58.904757,-77.0
2023-08-12 10:38:58.912447,-69.0
2023-08-12 10:38:58.920136,-65.0
2023-08-12 10:38:58.927826,-67.0
2023-08-12 10:38:58.935516,-65.0
2023-08-12 10:38:58.943206,-57.0
2023-08-12 10:38:58.950896,-55.0
2023-08-12 10:38:58.958585,-55.0
2023-08-12 10:38:58.966275,-53.0
2023-08-12 10:38:58.973965,-53.0
2023-08-12 10:38:58.981655,-57.0
2023-08-12 10:38:58.989345,-62.0
2023-08-12 10:38:58.997034,-60.0
2023-08-12 10:38:59.004724,-57.0
2023-08-12 10:38:59.012414,-57.0
2023-08-12 10:38:59.020104,-60.0
2023-08-12 10:38:59.027794,-60.0
2023-08-12 10:38:59.035483,-60.0
2023-08-12 10:38:59.043173,-60.0
2023-08-12 10:38:59.050863,-62.0
2023-08-12 10:38:59.058553,-60.0
2023-08-12 10:38:59.066243,-60.0
2023-08-12 10:38:59.073932,-60.0
2023-08-12 10:38:59.081622,-60.0
2023-08-12 10:38:59.089312,-60.0
2023-08-12 10:38:59.097002,-62.0
2023-08-12 10:38:59.104691,-67.0
2023-08-12 10:38:59.112381,-69.0
2023-08-12 10:38:59.120071,-69.0
2023-08-12 10:38:59.127761,-72.0
2023-08-12 10:38:59.135451,-77.0
2023-08-12 10:38:59.143140,-82.0
2023-08-12 10:38:59.150830,-77.0
2023-08-12 10:38:59.158520,-69.0
2023-08-12 10:38:59.166210,-57.0
2023-08-12 10:38:59.173900,-24.0
2023-08-12 10:38:59.181589,2.0
2023-08-12 10:38:59.189279,-12.0
2023-08-12 10:38:59.196969,-33.0
2023-08-12 10:38:59.204659,-41.0
2023-08-12 10:38:59.212349,-50.0
2023-08-12 10:38:59.220038,-65.0
2023-08-12 10:38:59.227728,-72.0
2023-08-12 10:38:59.235418,-74.0
2023-08-12 10:38:59.243108,-74.0
2023-08-12 10:38:59.250798,-72.0
2023-08-12 10:38:59.258487,-69.0
2023-08-12 10:38:59.266177,-69.0
2023-08-12 10:38:59.273867,-72.0
2023-08-12 10:38:59.281557,-77.0
2023-08-12 10:38:59.289246,-89.0
2023-08-12 10:38:59.296936,-69.0
2023-08-12 10:38:59.304626,62.0
2023-08-12 10:38:59.312316,393.0
2023-08-12 10:38:59.320006,673.0
2023-08-12 10:38:59.327695,289.0
2023-08-12 10:38:59.335385,-349.0
2023-08-12 10:38:59.343075,-229.0
2023-08-12 10:38:59.350765,144.0
2023-08-12 10:38:59.358455,-4.0
2023-08-12 10:38:59.366144,-173.0
2023-08-12 10:38:59.373834,-74.0
2023-08-12 10:38:59.381524,-60.0
2023-08-12 10:38:59.389214,-118.0
2023-08-12 10:38:59.396904,-91.0
2023-08-12 10:38:59.404593,-67.0
2023-08-12 10:38:59.412283,-84.0
2023-08-12 10:38:59.419973,-82.0
2023-08-12 10:38:59.427663,-67.0
2023-08-12 10:38:59.435353,-67.0
2023-08-12 10:38:59.443042,-62.0
2023-08-12 10:38:59.450732,-57.0
2023-08-12 10:38:59.458422,-55.0
2023-08-12 10:38:59.466112,-50.0
2023-08-12 10:38:59.473801,-45.0
2023-08-12 10:38:59.481491,-45.0
2023-08-12 10:38:59.489181,-45.0
2023-08-12 10:38:59.496871,-45.0
2023-08-12 10:38:59.504561,-45.0
2023-08-12 10:38:59.512250,-41.0
2023-08-12 10:38:59.519940,-38.0
2023-08-12 10:38:59.527630,-38.0
2023-08-12 10:38:59.535320,-33.0
2023-08-12 10:38:59.543010,-31.0
2023-08-12 10:38:59.550699,-33.0
2023-08-12 10:38:59.558389,-36.0
2023-08-12 10:38:59.566079,-38.0
2023-08-12 10:38:59.573769,-43.0
2023-08-12 10:38:59.581459,-48.0
2023-08-12 10:38:59.589148,-53.0
2023-08-12 10:38:59.596838,-57.0
2023-08-12 10:38:59.604528,-60.0
2023-08-12 10:38:59.612218,-65.0
2023-08-12 10:38:59.619907,-69.0
2023-08-12 10:38:59.627597,-74.0
2023-08-12 10:38:59.635287,-79.0
2023-08-12 10:38:59.642977,-89.0
2023-08-12 10:38:59.650667,-89.0
2023-08-12 10:38:59.658356,-86.0
2023-08-12 10:38:59.666046,-84.0
2023-08-12 10:38:59.673736,-84.0
2023-08-12 10:38:59.681426,-89.0
2023-08-12 10:38:59.689116,-96.0
2023-08-12 10:38:59.696805,-94.0
2023-08-12 10:38:59.704495,-91.0
2023-08-12 10:38:59.712185,-91.0
2023-08-12 10:38:59.719875,-84.0
2023-08-12 10:38:59.727565,-82.0
2023-08-12 10:38:59.735254,-84.0
2023-08-12 10:38:59.742944,-79.0
2023-08-12 10:38:59.750634,-72.0
2023-08-12 10:38:59.758324,-72.0
2023-08-12 10:38:59.766014,-77.0
2023-08-12 10:38:59.773703,-74.0
2023-08-12 10:38:59.781393,-69.0
2023-08-12 10:38:59.789083,-67.0
2023-08-12 10:38:59.796773,-65.0
2023-08-12 10:38:59.804462,-65.0
2023-08-12 10:38:59.812152,-65.0
2023-08-12 10:38:59.819842,-62.0
2023-08-12 10:38:59.827532,-62.0
2023-08-12 10:38:59.835222,-62.0
2023-08-12 10:38:59.842911,-60.0
2023-08-12 10:38:59.850601,-57.0
2023-08-12 10:38:59.858291,-57.0
2023-08-12 10:38:59.865981,-60.0
2023-08-12 10:38:59.873671,-62.0
2023-08-12 10:38:59.881360,-57.0
2023-08-12 10:38:59.889050,-57.0
2023-08-12 10:38:59.896740,-60.0
2023-08-12 10:38:59.904430,-60.0
2023-08-12 10:38:59.912120,-57.0
2023-08-12 10:38:59.919809,-57.0
2023-08-12 10:38:59.927499,-57.0
2023-08-12 10:38:59.935189,-57.0
2023-08-12 10:38:59.942879,-55.0
2023-08-12 10:38:59.950569,-57.0
2023-08-12 10:38:59.958258,-60.0
2023-08-12 10:38:59.965948,-62.0
2023-08-12 10:38:59.973638,-62.0
2023-08-12 10:38:59.981328,-67.0
2023-08-12 10:38:59.989017,-72.0
2023-08-12 10:38:59.996707,-77.0
2023-08-12 10:39:00.004397,-74.0
2023-08-12 10:39:00.012087,-74.0
2023-08-12 10:39:00.019777,-67.0
2023-08-12 10:39:00.027466,-33.0
2023-08-12 10:39:00.035156,-7.0
2023-08-12 10:39:00.042846,-16.0
2023-08-12 10:39:00.050536,-41.0
2023-08-12 10:39:00.058226,-48.0
2023-08-12 10:39:00.065915,-57.0
2023-08-12 10:39:00.073605,-72.0
2023-08-12 10:39:00.081295,-82.0
2023-08-12 10:39:00.088985,-86.0
2023-08-12 10:39:00.096675,-84.0
2023-08-12 10:39:00.104364,-79.0
2023-08-12 10:39:00.112054,-77.0
2023-08-12 10:39:00.119744,-79.0
2023-08-12 10:39:00.127434,-77.0
2023-08-12 10:39:00.135124,-74.0
2023-08-12 10:39:00.142813,-84.0
2023-08-12 10:39:00.150503,-91.0
2023-08-12 10:39:00.158193,-14.0
2023-08-12 10:39:00.165883,243.0
2023-08-12 10:39:00.173572,627.0
2023-08-12 10:39:00.181262,554.0
2023-08-12 10:39:00.188952,-110.0
2023-08-12 10:39:00.196642,-337.0
2023-08-12 10:39:00.204332,43.0
2023-08-12 10:39:00.212021,77.0
2023-08-12 10:39:00.219711,-159.0
2023-08-12 10:39:00.227401,-137.0
2023-08-12 10:39:00.235091,-65.0
2023-08-12 10:39:00.242781,-118.0
2023-08-12 10:39:00.250470,-127.0
2023-08-12 10:39:00.258160,-94.0
2023-08-12 10:39:00.265850,-101.0
2023-08-12 10:39:00.273540,-103.0
2023-08-12 10:39:00.281230,-86.0
2023-08-12 10:39:00.288919,-84.0
2023-08-12 10:39:00.296609,-84.0
2023-08-12 10:39:00.304299,-77.0
2023-08-12 10:39:00.311989,-77.0
2023-08-12 10:39:00.319679,-82.0
2023-08-12 10:39:00.327368,-72.0
2023-08-12 10:39:00.335058,-65.0
2023-08-12 10:39:00.342748,-67.0
2023-08-12 10:39:00.350438,-62.0
2023-08-12 10:39:00.358127,-57.0
2023-08-12 10:39:00.365817,-55.0
2023-08-12 10:39:00.373507,-50.0
2023-08-12 10:39:00.381197,-45.0
2023-08-12 10:39:00.388887,-48.0
2023-08-12 10:39:00.396576,-43.0
2023-08-12 10:39:00.404266,-43.0
2023-08-12 10:39:00.411956,-48.0
2023-08-12 10:39:00.419646,-53.0
2023-08-12 10:39:00.427336,-53.0
2023-08-12 10:39:00.435025,-57.0
2023-08-12 10:39:00.442715,-62.0
2023-08-12 10:39:00.450405,-65.0
2023-08-12 10:39:00.458095,-67.0
2023-08-12 10:39:00.465785,-72.0
2023-08-12 10:39:00.473474,-77.0
2023-08-12 10:39:00.481164,-82.0
2023-08-12 10:39:00.488854,-86.0
2023-08-12 10:39:00.496544,-94.0
2023-08-12 10:39:00.504234,-101.0
2023-08-12 10:39:00.511923,-101.0
2023-08-12 10:39:00.519613,-98.0
2023-08-12 10:39:00.527303,-98.0
2023-08-12 10:39:00.534993,-96.0
2023-08-12 10:39:00.542682,-94.0
2023-08-12 10:39:00.550372,-91.0
2023-08-12 10:39:00.558062,-89.0
2023-08-12 10:39:00.565752,-89.0
2023-08-12 10:39:00.573442,-86.0
2023-08-12 10:39:00.581131,-84.0
2023-08-12 10:39:00.588821,-79.0
2023-08-12 10:39:00.596511,-77.0
2023-08-12 10:39:00.604201,-77.0
2023-08-12 10:39:00.611891,-74.0
2023-08-12 10:39:00.619580,-69.0
2023-08-12 10:39:00.627270,-65.0
2023-08-12 10:39:00.634960,-65.0
2023-08-12 10:39:00.642650,-60.0
2023-08-12 10:39:00.650340,-60.0
2023-08-12 10:39:00.658029,-60.0
2023-08-12 10:39:00.665719,-57.0
2023-08-12 10:39:00.673409,-55.0
2023-08-12 10:39:00.681099,-55.0
2023-08-12 10:39:00.688789,-57.0
2023-08-12 10:39:00.696478,-65.0
2023-08-12 10:39:00.704168,-67.0
2023-08-12 10:39:00.711858,-62.0
2023-08-12 10:39:00.719548,-67.0
2023-08-12 10:39:00.727237,-69.0
2023-08-12 10:39:00.734927,-67.0
2023-08-12 10:39:00.742617,-65.0
2023-08-12 10:39:00.750307,-69.0
2023-08-12 10:39:00.757997,-74.0
2023-08-12 10:39:00.765686,-79.0
2023-08-12 10:39:00.773376,-84.0
2023-08-12 10:39:00.781066,-77.0
2023-08-12 10:39:00.788756,-77.0
2023-08-12 10:39:00.796446,-79.0
2023-08-12 10:39:00.804135,-82.0
2023-08-12 10:39:00.811825,-89.0
2023-08-12 10:39:00.819515,-91.0
2023-08-12 10:39:00.827205,-89.0
2023-08-12 10:39:00.834895,-89.0
2023-08-12 10:39:00.842584,-89.0
2023-08-12 10:39:00.850274,-89.0
2023-08-12 10:39:00.857964,-89.0
2023-08-12 10:39:00.865654,-91.0
2023-08-12 10:39:00.873344,-84.0
2023-08-12 10:39:00.881033,-77.0
2023-08-12 10:39:00.888723,-67.0
2023-08-12 10:39:00.896413,-43.0
2023-08-12 10:39:00.904103,-14.0
2023-08-12 10:39:00.911792,-16.0
2023-08-12 10:39:00.919482,-38.0
2023-08-12 10:39:00.927172,-48.0
2023-08-12 10:39:00.934862,-55.0
2023-08-12 10:39:00.942552,-69.0
2023-08-12 10:39:00.950241,-84.0
2023-08-12 10:39:00.957931,-86.0
2023-08-12 10:39:00.965621,-84.0
2023-08-12 10:39:00.973311,-82.0
2023-08-12 10:39:00.981001,-82.0
2023-08-12 10:39:00.988690,-82.0
2023-08-12 10:39:00.996380,-79.0
2023-08-12 10:39:01.004070,-77.0
2023-08-12 10:39:01.011760,-84.0
2023-08-12 10:39:01.019450,-96.0
2023-08-12 10:39:01.027139,-41.0
2023-08-12 10:39:01.034829,195.0
2023-08-12 10:39:01.042519,581.0
2023-08-12 10:39:01.050209,598.0
2023-08-12 10:39:01.057899,-26.0
2023-08-12 10:39:01.065588,-340.0
2023-08-12 10:39:01.073278,2.0
2023-08-12 10:39:01.080968,86.0
2023-08-12 10:39:01.088658,-144.0
2023-08-12 10:39:01.096347,-130.0
2023-08-12 10:39:01.104037,-45.0
2023-08-12 10:39:01.111727,-101.0
2023-08-12 10:39:01.119417,-118.0
2023-08-12 10:39:01.127107,-79.0
2023-08-12 10:39:01.134796,-82.0
2023-08-12 10:39:01.142486,-89.0
2023-08-12 10:39:01.150176,-69.0
2023-08-12 10:39:01.157866,-62.0
2023-08-12 10:39:01.165556,-67.0
2023-08-12 10:39:01.173245,-62.0
2023-08-12 10:39:01.180935,-57.0
2023-08-12 10:39:01.188625,-55.0
2023-08-12 10:39:01.196315,-57.0
2023-08-12 10:39:01.204005,-57.0
2023-08-12 10:39:01.211694,-55.0
2023-08-12 10:39:01.219384,-45.0
2023-08-12 10:39:01.227074,-41.0
2023-08-12 10:39:01.234764,-41.0
2023-08-12 10:39:01.242454,-38.0
2023-08-12 10:39:01.250143,-36.0
2023-08-12 10:39:01.257833,-41.0
2023-08-12 10:39:01.265523,-38.0
2023-08-12 10:39:01.273213,-33.0
2023-08-12 10:39:01.280902,-38.0
2023-08-12 10:39:01.288592,-45.0
2023-08-12 10:39:01.296282,-48.0
2023-08-12 10:39:01.303972,-53.0
2023-08-12 10:39:01.311662,-62.0
2023-08-12 10:39:01.319351,-65.0
2023-08-12 10:39:01.327041,-60.0
2023-08-12 10:39:01.334731,-65.0
2023-08-12 10:39:01.342421,-74.0
2023-08-12 10:39:01.350111,-89.0
2023-08-12 10:39:01.357800,-98.0
2023-08-12 10:39:01.365490,-98.0
2023-08-12 10:39:01.373180,-98.0
2023-08-12 10:39:01.380870,-103.0
2023-08-12 10:39:01.388560,-103.0
2023-08-12 10:39:01.396249,-98.0
2023-08-12 10:39:01.403939,-98.0
2023-08-12 10:39:01.411629,-98.0
2023-08-12 10:39:01.419319,-98.0
2023-08-12 10:39:01.427009,-98.0
2023-08-12 10:39:01.434698,-91.0
2023-08-12 10:39:01.442388,-91.0
2023-08-12 10:39:01.450078,-91.0
2023-08-12 10:39:01.457768,-89.0
2023-08-12 10:39:01.465457,-77.0
2023-08-12 10:39:01.473147,-77.0
2023-08-12 10:39:01.480837,-82.0
2023-08-12 10:39:01.488527,-77.0
2023-08-12 10:39:01.496217,-69.0
2023-08-12 10:39:01.503906,-74.0
2023-08-12 10:39:01.511596,-74.0
2023-08-12 10:39:01.519286,-69.0
2023-08-12 10:39:01.526976,-69.0
2023-08-12 10:39:01.534666,-69.0
2023-08-12 10:39:01.542355,-65.0
2023-08-12 10:39:01.550045,-65.0
2023-08-12 10:39:01.557735,-67.0
2023-08-12 10:39:01.565425,-62.0
2023-08-12 10:39:01.573115,-62.0
2023-08-12 10:39:01.580804,-69.0
2023-08-12 10:39:01.588494,-72.0
2023-08-12 10:39:01.596184,-67.0
2023-08-12 10:39:01.603874,-57.0
2023-08-12 10:39:01.611564,-53.0
2023-08-12 10:39:01.619253,-65.0
2023-08-12 10:39:01.626943,-72.0
2023-08-12 10:39:01.634633,-65.0
2023-08-12 10:39:01.642323,-62.0
2023-08-12 10:39:01.650012,-65.0
2023-08-12 10:39:01.657702,-67.0
2023-08-12 10:39:01.665392,-72.0
2023-08-12 10:39:01.673082,-74.0
2023-08-12 10:39:01.680772,-67.0
2023-08-12 10:39:01.688461,-62.0
2023-08-12 10:39:01.696151,-67.0
2023-08-12 10:39:01.703841,-77.0
2023-08-12 10:39:01.711531,-86.0
2023-08-12 10:39:01.719221,-86.0
2023-08-12 10:39:01.726910,-82.0
2023-08-12 10:39:01.734600,-82.0
2023-08-12 10:39:01.742290,-84.0
2023-08-12 10:39:01.749980,-72.0
2023-08-12 10:39:01.757670,-65.0
2023-08-12 10:39:01.765359,-43.0
2023-08-12 10:39:01.773049,-7.0
2023-08-12 10:39:01.780739,-4.0
2023-08-12 10:39:01.788429,-31.0
2023-08-12 10:39:01.796119,-48.0
2023-08-12 10:39:01.803808,-53.0
2023-08-12 10:39:01.811498,-65.0
2023-08-12 10:39:01.819188,-77.0
2023-08-12 10:39:01.826878,-74.0
2023-08-12 10:39:01.834567,-74.0
2023-08-12 10:39:01.842257,-74.0
2023-08-12 10:39:01.849947,-72.0
2023-08-12 10:39:01.857637,-69.0
2023-08-12 10:39:01.865327,-67.0
2023-08-12 10:39:01.873016,-72.0
2023-08-12 10:39:01.880706,-79.0
2023-08-12 10:39:01.888396,-77.0
2023-08-12 10:39:01.896086,0.0
2023-08-12 10:39:01.903776,253.0
2023-08-12 10:39:01.911465,620.0
2023-08-12 10:39:01.919155,550.0
2023-08-12 10:39:01.926845,-152.0
2023-08-12 10:39:01.934535,-436.0
2023-08-12 10:39:01.942225,2.0
2023-08-12 10:39:01.949914,120.0
2023-08-12 10:39:01.957604,-137.0
2023-08-12 10:39:01.965294,-135.0
2023-08-12 10:39:01.972984,-48.0
2023-08-12 10:39:01.980674,-108.0
2023-08-12 10:39:01.988363,-130.0
2023-08-12 10:39:01.996053,-86.0
2023-08-12 10:39:02.003743,-86.0
2023-08-12 10:39:02.011433,-91.0
2023-08-12 10:39:02.019122,-79.0
2023-08-12 10:39:02.026812,-79.0
2023-08-12 10:39:02.034502,-74.0
2023-08-12 10:39:02.042192,-60.0
2023-08-12 10:39:02.049882,-57.0
2023-08-12 10:39:02.057571,-57.0
2023-08-12 10:39:02.065261,-50.0
2023-08-12 10:39:02.072951,-48.0
2023-08-12 10:39:02.080641,-50.0
2023-08-12 10:39:02.088331,-41.0
2023-08-12 10:39:02.096020,-38.0
2023-08-12 10:39:02.103710,-36.0
2023-08-12 10:39:02.111400,-26.0
2023-08-12 10:39:02.119090,-24.0
2023-08-12 10:39:02.126780,-28.0
2023-08-12 10:39:02.134469,-24.0
2023-08-12 10:39:02.142159,-16.0
2023-08-12 10:39:02.149849,-24.0
2023-08-12 10:39:02.157539,-28.0
2023-08-12 10:39:02.165228,-28.0
2023-08-12 10:39:02.172918,-36.0
2023-08-12 10:39:02.180608,-50.0
2023-08-12 10:39:02.188298,-57.0
2023-08-12 10:39:02.195988,-55.0
2023-08-12 10:39:02.203677,-62.0
2023-08-12 10:39:02.211367,-79.0
2023-08-12 10:39:02.219057,-89.0
2023-08-12 10:39:02.226747,-96.0
2023-08-12 10:39:02.234437,-103.0
2023-08-12 10:39:02.242126,-103.0
2023-08-12 10:39:02.249816,-108.0
2023-08-12 10:39:02.257506,-110.0
2023-08-12 10:39:02.265196,-103.0
2023-08-12 10:39:02.272886,-101.0
2023-08-12 10:39:02.280575,-101.0
2023-08-12 10:39:02.288265,-103.0
2023-08-12 10:39:02.295955,-101.0
2023-08-12 10:39:02.303645,-98.0
2023-08-12 10:39:02.311335,-91.0
2023-08-12 10:39:02.319024,-84.0
2023-08-12 10:39:02.326714,-82.0
2023-08-12 10:39:02.334404,-84.0
2023-08-12 10:39:02.342094,-77.0
2023-08-12 10:39:02.349783,-74.0
2023-08-12 10:39:02.357473,-77.0
2023-08-12 10:39:02.365163,-77.0
2023-08-12 10:39:02.372853,-69.0
2023-08-12 10:39:02.380543,-69.0
2023-08-12 10:39:02.388232,-77.0
2023-08-12 10:39:02.395922,-74.0
2023-08-12 10:39:02.403612,-67.0
2023-08-12 10:39:02.411302,-67.0
2023-08-12 10:39:02.418992,-65.0
2023-08-12 10:39:02.426681,-67.0
2023-08-12 10:39:02.434371,-77.0
2023-08-12 10:39:02.442061,-79.0
2023-08-12 10:39:02.449751,-77.0
2023-08-12 10:39:02.457441,-77.0
2023-08-12 10:39:02.465130,-79.0
2023-08-12 10:39:02.472820,-82.0
2023-08-12 10:39:02.480510,-84.0
2023-08-12 10:39:02.488200,-82.0
2023-08-12 10:39:02.495890,-79.0
2023-08-12 10:39:02.503579,-82.0
2023-08-12 10:39:02.511269,-79.0
2023-08-12 10:39:02.518959,-82.0
2023-08-12 10:39:02.526649,-91.0
2023-08-12 10:39:02.534338,-91.0
2023-08-12 10:39:02.542028,-86.0
2023-08-12 10:39:02.549718,-84.0
2023-08-12 10:39:02.557408,-86.0
2023-08-12 10:39:02.565098,-94.0
2023-08-12 10:39:02.572787,-101.0
2023-08-12 10:39:02.580477,-96.0
2023-08-12 10:39:02.588167,-98.0
2023-08-12 10:39:02.595857,-96.0
2023-08-12 10:39:02.603547,-84.0
2023-08-12 10:39:02.611236,-67.0
2023-08-12 10:39:02.618926,-31.0
2023-08-12 10:39:02.626616,-7.0
2023-08-12 10:39:02.634306,-24.0
2023-08-12 10:39:02.641996,-43.0
2023-08-12 10:39:02.649685,-48.0
2023-08-12 10:39:02.657375,-65.0
2023-08-12 10:39:02.665065,-79.0
2023-08-12 10:39:02.672755,-77.0
2023-08-12 10:39:02.680445,-79.0
2023-08-12 10:39:02.688134,-82.0
2023-08-12 10:39:02.695824,-77.0
2023-08-12 10:39:02.703514,-79.0
2023-08-12 10:39:02.711204,-84.0
2023-08-12 10:39:02.718893,-77.0
2023-08-12 10:39:02.726583,-82.0
2023-08-12 10:39:02.734273,-101.0
2023-08-12 10:39:02.741963,-72.0
2023-08-12 10:39:02.749653,94.0
2023-08-12 10:39:02.757342,463.0
2023-08-12 10:39:02.765032,704.0
2023-08-12 10:39:02.772722,217.0
2023-08-12 10:39:02.780412,-407.0
2023-08-12 10:39:02.788102,-188.0
2023-08-12 10:39:02.795791,164.0
2023-08-12 10:39:02.803481,-41.0
2023-08-12 10:39:02.811171,-183.0
2023-08-12 10:39:02.818861,-67.0
2023-08-12 10:39:02.826551,-72.0
2023-08-12 10:39:02.834240,-127.0
2023-08-12 10:39:02.841930,-91.0
2023-08-12 10:39:02.849620,-77.0
2023-08-12 10:39:02.857310,-94.0
2023-08-12 10:39:02.865000,-82.0
2023-08-12 10:39:02.872689,-72.0
2023-08-12 10:39:02.880379,-74.0
2023-08-12 10:39:02.888069,-69.0
2023-08-12 10:39:02.895759,-57.0
2023-08-12 10:39:02.903448,-57.0
2023-08-12 10:39:02.911138,-57.0
2023-08-12 10:39:02.918828,-50.0
2023-08-12 10:39:02.926518,-43.0
2023-08-12 10:39:02.934208,-41.0
2023-08-12 10:39:02.941897,-36.0
2023-08-12 10:39:02.949587,-31.0
2023-08-12 10:39:02.957277,-31.0
2023-08-12 10:39:02.964967,-36.0
2023-08-12 10:39:02.972657,-38.0
2023-08-12 10:39:02.980346,-31.0
2023-08-12 10:39:02.988036,-26.0
2023-08-12 10:39:02.995726,-31.0
2023-08-12 10:39:03.003416,-36.0
2023-08-12 10:39:03.011106,-45.0
2023-08-12 10:39:03.018795,-62.0
2023-08-12 10:39:03.026485,-65.0
2023-08-12 10:39:03.034175,-60.0
2023-08-12 10:39:03.041865,-62.0
2023-08-12 10:39:03.049555,-67.0
2023-08-12 10:39:03.057244,-72.0
2023-08-12 10:39:03.064934,-77.0
2023-08-12 10:39:03.072624,-82.0
2023-08-12 10:39:03.080314,-82.0
2023-08-12 10:39:03.088003,-84.0
2023-08-12 10:39:03.095693,-86.0
2023-08-12 10:39:03.103383,-91.0
2023-08-12 10:39:03.111073,-94.0
2023-08-12 10:39:03.118763,-91.0
2023-08-12 10:39:03.126452,-89.0
2023-08-12 10:39:03.134142,-89.0
2023-08-12 10:39:03.141832,-91.0
2023-08-12 10:39:03.149522,-89.0
2023-08-12 10:39:03.157212,-84.0
2023-08-12 10:39:03.164901,-79.0
2023-08-12 10:39:03.172591,-77.0
2023-08-12 10:39:03.180281,-74.0
2023-08-12 10:39:03.187971,-72.0
2023-08-12 10:39:03.195661,-74.0
2023-08-12 10:39:03.203350,-74.0
2023-08-12 10:39:03.211040,-72.0
2023-08-12 10:39:03.218730,-74.0
2023-08-12 10:39:03.226420,-74.0
2023-08-12 10:39:03.234110,-72.0
2023-08-12 10:39:03.241799,-72.0
2023-08-12 10:39:03.249489,-69.0
2023-08-12 10:39:03.257179,-65.0
2023-08-12 10:39:03.264869,-69.0
2023-08-12 10:39:03.272558,-74.0
2023-08-12 10:39:03.280248,-72.0
2023-08-12 10:39:03.287938,-72.0
2023-08-12 10:39:03.295628,-77.0
2023-08-12 10:39:03.303318,-77.0
2023-08-12 10:39:03.311007,-74.0
2023-08-12 10:39:03.318697,-74.0
2023-08-12 10:39:03.326387,-77.0
2023-08-12 10:39:03.334077,-77.0
2023-08-12 10:39:03.341767,-72.0
2023-08-12 10:39:03.349456,-69.0
2023-08-12 10:39:03.357146,-69.0
2023-08-12 10:39:03.364836,-67.0
2023-08-12 10:39:03.372526,-65.0
2023-08-12 10:39:03.380216,-69.0
2023-08-12 10:39:03.387905,-72.0
2023-08-12 10:39:03.395595,-69.0
2023-08-12 10:39:03.403285,-65.0
2023-08-12 10:39:03.410975,-65.0
2023-08-12 10:39:03.418665,-69.0
2023-08-12 10:39:03.426354,-74.0
2023-08-12 10:39:03.434044,-69.0
2023-08-12 10:39:03.441734,-60.0
2023-08-12 10:39:03.449424,-43.0
2023-08-12 10:39:03.457113,-9.0
2023-08-12 10:39:03.464803,7.0
2023-08-12 10:39:03.472493,-12.0
2023-08-12 10:39:03.480183,-26.0
2023-08-12 10:39:03.487873,-33.0
2023-08-12 10:39:03.495562,-45.0
2023-08-12 10:39:03.503252,-60.0
2023-08-12 10:39:03.510942,-69.0
2023-08-12 10:39:03.518632,-72.0
2023-08-12 10:39:03.526322,-67.0
2023-08-12 10:39:03.534011,-62.0
2023-08-12 10:39:03.541701,-67.0
2023-08-12 10:39:03.549391,-67.0
2023-08-12 10:39:03.557081,-62.0
2023-08-12 10:39:03.564771,-65.0
2023-08-12 10:39:03.572460,-77.0
2023-08-12 10:39:03.580150,-50.0
2023-08-12 10:39:03.587840,103.0
2023-08-12 10:39:03.595530,456.0
2023-08-12 10:39:03.603220,687.0
2023-08-12 10:39:03.610909,219.0
2023-08-12 10:39:03.618599,-390.0
2023-08-12 10:39:03.626289,-190.0
2023-08-12 10:39:03.633979,156.0
2023-08-12 10:39:03.641668,-36.0
2023-08-12 10:39:03.649358,-178.0
2023-08-12 10:39:03.657048,-67.0
2023-08-12 10:39:03.664738,-69.0
2023-08-12 10:39:03.672428,-123.0
2023-08-12 10:39:03.680117,-86.0
2023-08-12 10:39:03.687807,-67.0
2023-08-12 10:39:03.695497,-86.0
2023-08-12 10:39:03.703187,-82.0
2023-08-12 10:39:03.710877,-72.0
2023-08-12 10:39:03.718566,-74.0
2023-08-12 10:39:03.726256,-77.0
2023-08-12 10:39:03.733946,-77.0
2023-08-12 10:39:03.741636,-69.0
2023-08-12 10:39:03.749326,-65.0
2023-08-12 10:39:03.757015,-60.0
2023-08-12 10:39:03.764705,-55.0
2023-08-12 10:39:03.772395,-48.0
2023-08-12 10:39:03.780085,-48.0
2023-08-12 10:39:03.787775,-48.0
2023-08-12 10:39:03.795464,-41.0
2023-08-12 10:39:03.803154,-33.0
2023-08-12 10:39:03.810844,-31.0
2023-08-12 10:39:03.818534,-33.0
2023-08-12 10:39:03.826223,-36.0
2023-08-12 10:39:03.833913,-33.0
2023-08-12 10:39:03.841603,-31.0
2023-08-12 10:39:03.849293,-36.0
2023-08-12 10:39:03.856983,-43.0
2023-08-12 10:39:03.864672,-48.0
2023-08-12 10:39:03.872362,-53.0
2023-08-12 10:39:03.880052,-57.0
2023-08-12 10:39:03.887742,-62.0
2023-08-12 10:39:03.895432,-67.0
2023-08-12 10:39:03.903121,-69.0
2023-08-12 10:39:03.910811,-72.0
2023-08-12 10:39:03.918501,-82.0
2023-08-12 10:39:03.926191,-84.0
2023-08-12 10:39:03.933881,-86.0
2023-08-12 10:39:03.941570,-89.0
2023-08-12 10:39:03.949260,-91.0
2023-08-12 10:39:03.956950,-91.0
2023-08-12 10:39:03.964640,-94.0
2023-08-12 10:39:03.972330,-94.0
2023-08-12 10:39:03.980019,-91.0
2023-08-12 10:39:03.987709,-89.0
2023-08-12 10:39:03.995399,-86.0
2023-08-12 10:39:04.003089,-82.0
2023-08-12 10:39:04.010778,-79.0
2023-08-12 10:39:04.018468,-77.0
2023-08-12 10:39:04.026158,-77.0
2023-08-12 10:39:04.033848,-74.0
2023-08-12 10:39:04.041538,-74.0
2023-08-12 10:39:04.049227,-69.0
2023-08-12 10:39:04.056917,-67.0
2023-08-12 10:39:04.064607,-69.0
2023-08-12 10:39:04.072297,-67.0
2023-08-12 10:39:04.079987,-62.0
2023-08-12 10:39:04.087676,-60.0
2023-08-12 10:39:04.095366,-62.0
2023-08-12 10:39:04.103056,-62.0
2023-08-12 10:39:04.110746,-60.0
2023-08-12 10:39:04.118436,-62.0
2023-08-12 10:39:04.126125,-67.0
2023-08-12 10:39:04.133815,-69.0
2023-08-12 10:39:04.141505,-77.0
2023-08-12 10:39:04.149195,-79.0
2023-08-12 10:39:04.156885,-77.0
2023-08-12 10:39:04.164574,-77.0
2023-08-12 10:39:04.172264,-77.0
2023-08-12 10:39:04.179954,-74.0
2023-08-12 10:39:04.187644,-77.0
2023-08-12 10:39:04.195333,-79.0
2023-08-12 10:39:04.203023,-79.0
2023-08-12 10:39:04.210713,-77.0
2023-08-12 10:39:04.218403,-77.0
2023-08-12 10:39:04.226093,-77.0
2023-08-12 10:39:04.233782,-82.0
2023-08-12 10:39:04.241472,-84.0
2023-08-12 10:39:04.249162,-79.0
2023-08-12 10:39:04.256852,-77.0
2023-08-12 10:39:04.264542,-77.0
2023-08-12 10:39:04.272231,-79.0
2023-08-12 10:39:04.279921,-77.0
2023-08-12 10:39:04.287611,-72.0
2023-08-12 10:39:04.295301,-69.0
2023-08-12 10:39:04.302991,-57.0
2023-08-12 10:39:04.310680,-31.0
2023-08-12 10:39:04.318370,0.0
2023-08-12 10:39:04.326060,-2.0
2023-08-12 10:39:04.333750,-24.0
2023-08-12 10:39:04.341440,-33.0
2023-08-12 10:39:04.349129,-43.0
2023-08-12 10:39:04.356819,-57.0
2023-08-12 10:39:04.364509,-69.0
2023-08-12 10:39:04.372199,-72.0
2023-08-12 10:39:04.379888,-67.0
2023-08-12 10:39:04.387578,-65.0
2023-08-12 10:39:04.395268,-67.0
2023-08-12 10:39:04.402958,-67.0
2023-08-12 10:39:04.410648,-62.0
2023-08-12 10:39:04.418337,-62.0
2023-08-12 10:39:04.426027,-72.0
2023-08-12 10:39:04.433717,-77.0
2023-08-12 10:39:04.441407,-9.0
2023-08-12 10:39:04.449097,231.0
2023-08-12 10:39:04.456786,612.0
2023-08-12 10:39:04.464476,576.0
2023-08-12 10:39:04.472166,-94.0
2023-08-12 10:39:04.479856,-369.0
2023-08-12 10:39:04.487546,28.0
2023-08-12 10:39:04.495235,103.0
2023-08-12 10:39:04.502925,-142.0
2023-08-12 10:39:04.510615,-125.0
2023-08-12 10:39:04.518305,-41.0
2023-08-12 10:39:04.525995,-98.0
2023-08-12 10:39:04.533684,-110.0
2023-08-12 10:39:04.541374,-69.0
2023-08-12 10:39:04.549064,-77.0
2023-08-12 10:39:04.556754,-84.0
2023-08-12 10:39:04.564443,-65.0
2023-08-12 10:39:04.572133,-62.0
2023-08-12 10:39:04.579823,-67.0
2023-08-12 10:39:04.587513,-60.0
2023-08-12 10:39:04.595203,-53.0
2023-08-12 10:39:04.602892,-53.0
2023-08-12 10:39:04.610582,-48.0
2023-08-12 10:39:04.618272,-43.0
2023-08-12 10:39:04.625962,-41.0
2023-08-12 10:39:04.633652,-36.0
2023-08-12 10:39:04.641341,-36.0
2023-08-12 10:39:04.649031,-33.0
2023-08-12 10:39:04.656721,-26.0
2023-08-12 10:39:04.664411,-21.0
2023-08-12 10:39:04.672101,-21.0
2023-08-12 10:39:04.679790,-21.0
2023-08-12 10:39:04.687480,-24.0
2023-08-12 10:39:04.695170,-28.0
2023-08-12 10:39:04.702860,-28.0
2023-08-12 10:39:04.710549,-33.0
2023-08-12 10:39:04.718239,-45.0
2023-08-12 10:39:04.725929,-60.0
2023-08-12 10:39:04.733619,-74.0
2023-08-12 10:39:04.741309,-79.0
2023-08-12 10:39:04.748998,-79.0
2023-08-12 10:39:04.756688,-84.0
2023-08-12 10:39:04.764378,-91.0
2023-08-12 10:39:04.772068,-94.0
2023-08-12 10:39:04.779758,-96.0
2023-08-12 10:39:04.787447,-98.0
2023-08-12 10:39:04.795137,-98.0
2023-08-12 10:39:04.802827,-96.0
2023-08-12 10:39:04.810517,-98.0
2023-08-12 10:39:04.818207,-96.0
2023-08-12 10:39:04.825896,-91.0
2023-08-12 10:39:04.833586,-91.0
2023-08-12 10:39:04.841276,-91.0
2023-08-12 10:39:04.848966,-89.0
2023-08-12 10:39:04.856656,-86.0
2023-08-12 10:39:04.864345,-86.0
2023-08-12 10:39:04.872035,-82.0
2023-08-12 10:39:04.879725,-79.0
2023-08-12 10:39:04.887415,-77.0
2023-08-12 10:39:04.895104,-74.0
2023-08-12 10:39:04.902794,-72.0
2023-08-12 10:39:04.910484,-69.0
2023-08-12 10:39:04.918174,-67.0
2023-08-12 10:39:04.925864,-67.0
2023-08-12 10:39:04.933553,-67.0
2023-08-12 10:39:04.941243,-67.0
2023-08-12 10:39:04.948933,-69.0
2023-08-12 10:39:04.956623,-69.0
2023-08-12 10:39:04.964313,-65.0
2023-08-12 10:39:04.972002,-62.0
2023-08-12 10:39:04.979692,-62.0
2023-08-12 10:39:04.987382,-65.0
2023-08-12 10:39:04.995072,-67.0
2023-08-12 10:39:05.002762,-67.0
2023-08-12 10:39:05.010451,-69.0
2023-08-12 10:39:05.018141,-72.0
2023-08-12 10:39:05.025831,-69.0
2023-08-12 10:39:05.033521,-67.0
2023-08-12 10:39:05.041211,-72.0
2023-08-12 10:39:05.048900,-72.0
2023-08-12 10:39:05.056590,-69.0
2023-08-12 10:39:05.064280,-67.0
2023-08-12 10:39:05.071970,-67.0
2023-08-12 10:39:05.079659,-67.0
2023-08-12 10:39:05.087349,-69.0
2023-08-12 10:39:05.095039,-69.0
2023-08-12 10:39:05.102729,-67.0
2023-08-12 10:39:05.110419,-67.0
2023-08-12 10:39:05.118108,-67.0
2023-08-12 10:39:05.125798,-67.0
2023-08-12 10:39:05.133488,-69.0
2023-08-12 10:39:05.141178,-67.0
2023-08-12 10:39:05.148868,-62.0
2023-08-12 10:39:05.156557,-60.0
2023-08-12 10:39:05.164247,-57.0
2023-08-12 10:39:05.171937,-41.0
2023-08-12 10:39:05.179627,-12.0
2023-08-12 10:39:05.187317,4.0
2023-08-12 10:39:05.195006,-7.0
2023-08-12 10:39:05.202696,-26.0
2023-08-12 10:39:05.210386,-36.0
2023-08-12 10:39:05.218076,-50.0
2023-08-12 10:39:05.225766,-65.0
2023-08-12 10:39:05.233455,-72.0
2023-08-12 10:39:05.241145,-77.0
2023-08-12 10:39:05.248835,-77.0
2023-08-12 10:39:05.256525,-77.0
2023-08-12 10:39:05.264214,-77.0
2023-08-12 10:39:05.271904,-74.0
2023-08-12 10:39:05.279594,-69.0
2023-08-12 10:39:05.287284,-69.0
2023-08-12 10:39:05.294974,-86.0
2023-08-12 10:39:05.302663,-74.0
2023-08-12 10:39:05.310353,45.0
2023-08-12 10:39:05.318043,371.0
2023-08-12 10:39:05.325733,678.0
2023-08-12 10:39:05.333423,347.0
2023-08-12 10:39:05.341112,-291.0
2023-08-12 10:39:05.348802,-234.0
2023-08-12 10:39:05.356492,106.0
2023-08-12 10:39:05.364182,-26.0
2023-08-12 10:39:05.371872,-185.0
2023-08-12 10:39:05.379561,-94.0
2023-08-12 10:39:05.387251,-74.0
2023-08-12 10:39:05.394941,-127.0
2023-08-12 10:39:05.402631,-106.0
2023-08-12 10:39:05.410321,-84.0
2023-08-12 10:39:05.418010,-96.0
2023-08-12 10:39:05.425700,-94.0
2023-08-12 10:39:05.433390,-84.0
2023-08-12 10:39:05.441080,-84.0
2023-08-12 10:39:05.448769,-82.0
2023-08-12 10:39:05.456459,-74.0
2023-08-12 10:39:05.464149,-69.0
2023-08-12 10:39:05.471839,-62.0
2023-08-12 10:39:05.479529,-60.0
2023-08-12 10:39:05.487218,-57.0
2023-08-12 10:39:05.494908,-53.0
2023-08-12 10:39:05.502598,-45.0
2023-08-12 10:39:05.510288,-43.0
2023-08-12 10:39:05.517978,-41.0
2023-08-12 10:39:05.525667,-36.0
2023-08-12 10:39:05.533357,-36.0
2023-08-12 10:39:05.541047,-36.0
2023-08-12 10:39:05.548737,-36.0
2023-08-12 10:39:05.556427,-33.0
2023-08-12 10:39:05.564116,-33.0
2023-08-12 10:39:05.571806,-41.0
2023-08-12 10:39:05.579496,-48.0
2023-08-12 10:39:05.587186,-53.0
2023-08-12 10:39:05.594876,-57.0
2023-08-12 10:39:05.602565,-62.0
2023-08-12 10:39:05.610255,-62.0
2023-08-12 10:39:05.617945,-69.0
2023-08-12 10:39:05.625635,-74.0
2023-08-12 10:39:05.633324,-79.0
2023-08-12 10:39:05.641014,-84.0
2023-08-12 10:39:05.648704,-86.0
2023-08-12 10:39:05.656394,-89.0
2023-08-12 10:39:05.664084,-89.0
2023-08-12 10:39:05.671773,-89.0
2023-08-12 10:39:05.679463,-91.0
2023-08-12 10:39:05.687153,-89.0
2023-08-12 10:39:05.694843,-86.0
2023-08-12 10:39:05.702533,-84.0
2023-08-12 10:39:05.710222,-86.0
2023-08-12 10:39:05.717912,-84.0
2023-08-12 10:39:05.725602,-82.0
2023-08-12 10:39:05.733292,-79.0
2023-08-12 10:39:05.740982,-79.0
2023-08-12 10:39:05.748671,-82.0
2023-08-12 10:39:05.756361,-84.0
2023-08-12 10:39:05.764051,-82.0
2023-08-12 10:39:05.771741,-79.0
2023-08-12 10:39:05.779431,-79.0
2023-08-12 10:39:05.787120,-77.0
2023-08-12 10:39:05.794810,-74.0
2023-08-12 10:39:05.802500,-74.0
2023-08-12 10:39:05.810190,-72.0
2023-08-12 10:39:05.817879,-69.0
2023-08-12 10:39:05.825569,-72.0
2023-08-12 10:39:05.833259,-69.0
2023-08-12 10:39:05.840949,-69.0
2023-08-12 10:39:05.848639,-79.0
2023-08-12 10:39:05.856328,-86.0
2023-08-12 10:39:05.864018,-86.0
2023-08-12 10:39:05.871708,-82.0
2023-08-12 10:39:05.879398,-86.0
2023-08-12 10:39:05.887088,-89.0
2023-08-12 10:39:05.894777,-86.0
2023-08-12 10:39:05.902467,-84.0
2023-08-12 10:39:05.910157,-84.0
2023-08-12 10:39:05.917847,-89.0
2023-08-12 10:39:05.925537,-89.0
2023-08-12 10:39:05.933226,-84.0
2023-08-12 10:39:05.940916,-84.0
2023-08-12 10:39:05.948606,-84.0
2023-08-12 10:39:05.956296,-82.0
2023-08-12 10:39:05.963986,-82.0
2023-08-12 10:39:05.971675,-82.0
2023-08-12 10:39:05.979365,-79.0
2023-08-12 10:39:05.987055,-79.0
2023-08-12 10:39:05.994745,-77.0
2023-08-12 10:39:06.002434,-77.0
2023-08-12 10:39:06.010124,-77.0
2023-08-12 10:39:06.017814,-72.0
2023-08-12 10:39:06.025504,-72.0
2023-08-12 10:39:06.033194,-69.0
2023-08-12 10:39:06.040883,-62.0
2023-08-12 10:39:06.048573,-48.0
2023-08-12 10:39:06.056263,-16.0
2023-08-12 10:39:06.063953,2.0
2023-08-12 10:39:06.071643,-14.0
2023-08-12 10:39:06.079332,-36.0
2023-08-12 10:39:06.087022,-36.0
2023-08-12 10:39:06.094712,-45.0
2023-08-12 10:39:06.102402,-67.0
2023-08-12 10:39:06.110092,-77.0
2023-08-12 10:39:06.117781,-79.0
2023-08-12 10:39:06.125471,-77.0
2023-08-12 10:39:06.133161,-69.0
2023-08-12 10:39:06.140851,-69.0
2023-08-12 10:39:06.148541,-72.0
2023-08-12 10:39:06.156230,-69.0
2023-08-12 10:39:06.163920,-67.0
2023-08-12 10:39:06.171610,-82.0
2023-08-12 10:39:06.179300,-72.0
2023-08-12 10:39:06.186989,45.0
2023-08-12 10:39:06.194679,366.0
2023-08-12 10:39:06.202369,685.0
2023-08-12 10:39:06.210059,381.0
2023-08-12 10:39:06.217749,-270.0
2023-08-12 10:39:06.225438,-241.0
2023-08-12 10:39:06.233128,115.0
2023-08-12 10:39:06.240818,-2.0
2023-08-12 10:39:06.248508,-176.0
2023-08-12 10:39:06.256198,-91.0
2023-08-12 10:39:06.263887,-69.0
2023-08-12 10:39:06.271577,-123.0
2023-08-12 10:39:06.279267,-98.0
2023-08-12 10:39:06.286957,-77.0
2023-08-12 10:39:06.294647,-91.0
2023-08-12 10:39:06.302336,-86.0
2023-08-12 10:39:06.310026,-74.0
2023-08-12 10:39:06.317716,-77.0
2023-08-12 10:39:06.325406,-77.0
2023-08-12 10:39:06.333096,-72.0
2023-08-12 10:39:06.340785,-65.0
2023-08-12 10:39:06.348475,-57.0
2023-08-12 10:39:06.356165,-53.0
2023-08-12 10:39:06.363855,-53.0
2023-08-12 10:39:06.371544,-48.0
2023-08-12 10:39:06.379234,-43.0
2023-08-12 10:39:06.386924,-45.0
2023-08-12 10:39:06.394614,-55.0
2023-08-12 10:39:06.402304,-53.0
2023-08-12 10:39:06.409993,-45.0
2023-08-12 10:39:06.417683,-53.0
2023-08-12 10:39:06.425373,-53.0
2023-08-12 10:39:06.433063,-45.0
2023-08-12 10:39:06.440753,-48.0
2023-08-12 10:39:06.448442,-55.0
2023-08-12 10:39:06.456132,-55.0
2023-08-12 10:39:06.463822,-57.0
2023-08-12 10:39:06.471512,-67.0
2023-08-12 10:39:06.479202,-72.0
2023-08-12 10:39:06.486891,-74.0
2023-08-12 10:39:06.494581,-79.0
2023-08-12 10:39:06.502271,-86.0
2023-08-12 10:39:06.509961,-89.0
2023-08-12 10:39:06.517651,-94.0
2023-08-12 10:39:06.525340,-106.0
2023-08-12 10:39:06.533030,-110.0
2023-08-12 10:39:06.540720,-101.0
2023-08-12 10:39:06.548410,-91.0
2023-08-12 10:39:06.556099,-98.0
2023-08-12 10:39:06.563789,-106.0
2023-08-12 10:39:06.571479,-96.0
2023-08-12 10:39:06.579169,-96.0
2023-08-12 10:39:06.586859,-106.0
2023-08-12 10:39:06.594548,-96.0
2023-08-12 10:39:06.602238,-86.0
2023-08-12 10:39:06.609928,-86.0
2023-08-12 10:39:06.617618,-86.0
2023-08-12 10:39:06.625308,-89.0
2023-08-12 10:39:06.632997,-86.0
2023-08-12 10:39:06.640687,-82.0
2023-08-12 10:39:06.648377,-79.0
2023-08-12 10:39:06.656067,-79.0
2023-08-12 10:39:06.663757,-77.0
2023-08-12 10:39:06.671446,-77.0
2023-08-12 10:39:06.679136,-77.0
2023-08-12 10:39:06.686826,-74.0
2023-08-12 10:39:06.694516,-74.0
2023-08-12 10:39:06.702206,-77.0
2023-08-12 10:39:06.709895,-82.0
2023-08-12 10:39:06.717585,-77.0
2023-08-12 10:39:06.725275,-69.0
2023-08-12 10:39:06.732965,-74.0
2023-08-12 10:39:06.740654,-84.0
2023-08-12 10:39:06.748344,-89.0
2023-08-12 10:39:06.756034,-79.0
2023-08-12 10:39:06.763724,-79.0
2023-08-12 10:39:06.771414,-89.0
2023-08-12 10:39:06.779103,-89.0
2023-08-12 10:39:06.786793,-79.0
2023-08-12 10:39:06.794483,-84.0
2023-08-12 10:39:06.802173,-84.0
2023-08-12 10:39:06.809863,-82.0
2023-08-12 10:39:06.817552,-84.0
2023-08-12 10:39:06.825242,-84.0
2023-08-12 10:39:06.832932,-74.0
2023-08-12 10:39:06.840622,-74.0
2023-08-12 10:39:06.848312,-79.0
2023-08-12 10:39:06.856001,-79.0
2023-08-12 10:39:06.863691,-79.0
2023-08-12 10:39:06.871381,-74.0
2023-08-12 10:39:06.879071,-69.0
2023-08-12 10:39:06.886761,-67.0
2023-08-12 10:39:06.894450,-60.0
2023-08-12 10:39:06.902140,-31.0
2023-08-12 10:39:06.909830,-4.0
2023-08-12 10:39:06.917520,-12.0
2023-08-12 10:39:06.925209,-33.0
2023-08-12 10:39:06.932899,-41.0
2023-08-12 10:39:06.940589,-55.0
2023-08-12 10:39:06.948279,-69.0
2023-08-12 10:39:06.955969,-69.0
2023-08-12 10:39:06.963658,-77.0
2023-08-12 10:39:06.971348,-84.0
2023-08-12 10:39:06.979038,-82.0
2023-08-12 10:39:06.986728,-86.0
2023-08-12 10:39:06.994418,-86.0
2023-08-12 10:39:07.002107,-72.0
2023-08-12 10:39:07.009797,-74.0
2023-08-12 10:39:07.017487,-98.0
2023-08-12 10:39:07.025177,-79.0
2023-08-12 10:39:07.032867,62.0
2023-08-12 10:39:07.040556,395.0
2023-08-12 10:39:07.048246,668.0
2023-08-12 10:39:07.055936,253.0
2023-08-12 10:39:07.063626,-429.0
2023-08-12 10:39:07.071316,-291.0
2023-08-12 10:39:07.079005,139.0
2023-08-12 10:39:07.086695,4.0
2023-08-12 10:39:07.094385,-180.0
2023-08-12 10:39:07.102075,-82.0
2023-08-12 10:39:07.109764,-69.0
2023-08-12 10:39:07.117454,-139.0
2023-08-12 10:39:07.125144,-108.0
2023-08-12 10:39:07.132834,-77.0
2023-08-12 10:39:07.140524,-94.0
2023-08-12 10:39:07.148213,-89.0
2023-08-12 10:39:07.155903,-77.0
2023-08-12 10:39:07.163593,-79.0
2023-08-12 10:39:07.171283,-72.0
2023-08-12 10:39:07.178973,-65.0
2023-08-12 10:39:07.186662,-65.0
2023-08-12 10:39:07.194352,-57.0
2023-08-12 10:39:07.202042,-48.0
2023-08-12 10:39:07.209732,-48.0
2023-08-12 10:39:07.217422,-48.0
2023-08-12 10:39:07.225111,-36.0
2023-08-12 10:39:07.232801,-28.0
2023-08-12 10:39:07.240491,-28.0
2023-08-12 10:39:07.248181,-24.0
2023-08-12 10:39:07.255870,-19.0
2023-08-12 10:39:07.263560,-19.0
2023-08-12 10:39:07.271250,-24.0
2023-08-12 10:39:07.278940,-21.0
2023-08-12 10:39:07.286630,-21.0
2023-08-12 10:39:07.294319,-31.0
2023-08-12 10:39:07.302009,-41.0
2023-08-12 10:39:07.309699,-43.0
2023-08-12 10:39:07.317389,-43.0
2023-08-12 10:39:07.325079,-50.0
2023-08-12 10:39:07.332768,-60.0
2023-08-12 10:39:07.340458,-67.0
2023-08-12 10:39:07.348148,-74.0
2023-08-12 10:39:07.355838,-82.0
2023-08-12 10:39:07.363528,-89.0
2023-08-12 10:39:07.371217,-98.0
2023-08-12 10:39:07.378907,-98.0
2023-08-12 10:39:07.386597,-96.0
2023-08-12 10:39:07.394287,-101.0
2023-08-12 10:39:07.401977,-108.0
2023-08-12 10:39:07.409666,-103.0
2023-08-12 10:39:07.417356,-98.0
2023-08-12 10:39:07.425046,-96.0
2023-08-12 10:39:07.432736,-98.0
2023-08-12 10:39:07.440425,-94.0
2023-08-12 10:39:07.448115,-86.0
2023-08-12 10:39:07.455805,-82.0
2023-08-12 10:39:07.463495,-84.0
2023-08-12 10:39:07.471185,-89.0
2023-08-12 10:39:07.478874,-84.0
2023-08-12 10:39:07.486564,-77.0
2023-08-12 10:39:07.494254,-69.0
2023-08-12 10:39:07.501944,-67.0
2023-08-12 10:39:07.509634,-74.0
2023-08-12 10:39:07.517323,-84.0
2023-08-12 10:39:07.525013,-84.0
2023-08-12 10:39:07.532703,-79.0
2023-08-12 10:39:07.540393,-74.0
2023-08-12 10:39:07.548083,-79.0
2023-08-12 10:39:07.555772,-89.0
2023-08-12 10:39:07.563462,-94.0
2023-08-12 10:39:07.571152,-94.0
2023-08-12 10:39:07.578842,-94.0
2023-08-12 10:39:07.586532,-96.0
2023-08-12 10:39:07.594221,-96.0
2023-08-12 10:39:07.601911,-96.0
2023-08-12 10:39:07.609601,-101.0
2023-08-12 10:39:07.617291,-101.0
2023-08-12 10:39:07.624980,-96.0
2023-08-12 10:39:07.632670,-94.0
2023-08-12 10:39:07.640360,-94.0
2023-08-12 10:39:07.648050,-98.0
2023-08-12 10:39:07.655740,-101.0
2023-08-12 10:39:07.663429,-96.0
2023-08-12 10:39:07.671119,-96.0
2023-08-12 10:39:07.678809,-96.0
2023-08-12 10:39:07.686499,-89.0
2023-08-12 10:39:07.694189,-77.0
2023-08-12 10:39:07.701878,-48.0
2023-08-12 10:39:07.709568,-9.0
2023-08-12 10:39:07.717258,-7.0
2023-08-12 10:39:07.724948,-28.0
2023-08-12 10:39:07.732638,-43.0
2023-08-12 10:39:07.740327,-62.0
2023-08-12 10:39:07.748017,-84.0
2023-08-12 10:39:07.755707,-86.0
2023-08-12 10:39:07.763397,-84.0
2023-08-12 10:39:07.771087,-89.0
2023-08-12 10:39:07.778776,-91.0
2023-08-12 10:39:07.786466,-98.0
2023-08-12 10:39:07.794156,-103.0
2023-08-12 10:39:07.801846,-96.0
2023-08-12 10:39:07.809535,-94.0
2023-08-12 10:39:07.817225,-101.0
2023-08-12 10:39:07.824915,-79.0
2023-08-12 10:39:07.832605,53.0
2023-08-12 10:39:07.840295,386.0
2023-08-12 10:39:07.847984,690.0
2023-08-12 10:39:07.855674,323.0
2023-08-12 10:39:07.863364,-383.0
2023-08-12 10:39:07.871054,-301.0
2023-08-12 10:39:07.878744,139.0
2023-08-12 10:39:07.886433,24.0
2023-08-12 10:39:07.894123,-185.0
2023-08-12 10:39:07.901813,-96.0
2023-08-12 10:39:07.909503,-65.0
2023-08-12 10:39:07.917193,-127.0
2023-08-12 10:39:07.924882,-103.0
2023-08-12 10:39:07.932572,-72.0
2023-08-12 10:39:07.940262,-89.0
2023-08-12 10:39:07.947952,-89.0
2023-08-12 10:39:07.955642,-74.0
2023-08-12 10:39:07.963331,-72.0
2023-08-12 10:39:07.971021,-67.0
2023-08-12 10:39:07.978711,-57.0
2023-08-12 10:39:07.986401,-53.0
2023-08-12 10:39:07.994090,-50.0
2023-08-12 10:39:08.001780,-43.0
2023-08-12 10:39:08.009470,-38.0
2023-08-12 10:39:08.017160,-36.0
2023-08-12 10:39:08.024850,-31.0
2023-08-12 10:39:08.032539,-28.0
2023-08-12 10:39:08.040229,-26.0
2023-08-12 10:39:08.047919,-19.0
2023-08-12 10:39:08.055609,-14.0
2023-08-12 10:39:08.063299,-12.0
2023-08-12 10:39:08.070988,-7.0
2023-08-12 10:39:08.078678,-4.0
2023-08-12 10:39:08.086368,-9.0
2023-08-12 10:39:08.094058,-16.0
2023-08-12 10:39:08.101748,-26.0
2023-08-12 10:39:08.109437,-33.0
2023-08-12 10:39:08.117127,-38.0
2023-08-12 10:39:08.124817,-43.0
2023-08-12 10:39:08.132507,-53.0
2023-08-12 10:39:08.140197,-69.0
2023-08-12 10:39:08.147886,-79.0
2023-08-12 10:39:08.155576,-82.0
2023-08-12 10:39:08.163266,-84.0
2023-08-12 10:39:08.170956,-89.0
2023-08-12 10:39:08.178645,-91.0
2023-08-12 10:39:08.186335,-101.0
2023-08-12 10:39:08.194025,-108.0
2023-08-12 10:39:08.201715,-103.0
2023-08-12 10:39:08.209405,-98.0
2023-08-12 10:39:08.217094,-98.0
2023-08-12 10:39:08.224784,-98.0
2023-08-12 10:39:08.232474,-101.0
2023-08-12 10:39:08.240164,-103.0
2023-08-12 10:39:08.247854,-103.0
2023-08-12 10:39:08.255543,-94.0
2023-08-12 10:39:08.263233,-89.0
2023-08-12 10:39:08.270923,-86.0
2023-08-12 10:39:08.278613,-84.0
2023-08-12 10:39:08.286303,-84.0
2023-08-12 10:39:08.293992,-79.0
2023-08-12 10:39:08.301682,-74.0
2023-08-12 10:39:08.309372,-72.0
2023-08-12 10:39:08.317062,-74.0
2023-08-12 10:39:08.324752,-74.0
2023-08-12 10:39:08.332441,-72.0
2023-08-12 10:39:08.340131,-69.0
2023-08-12 10:39:08.347821,-69.0
2023-08-12 10:39:08.355511,-65.0
2023-08-12 10:39:08.363200,-67.0
2023-08-12 10:39:08.370890,-69.0
2023-08-12 10:39:08.378580,-69.0
2023-08-12 10:39:08.386270,-69.0
2023-08-12 10:39:08.393960,-72.0
2023-08-12 10:39:08.401649,-69.0
2023-08-12 10:39:08.409339,-72.0
2023-08-12 10:39:08.417029,-77.0
2023-08-12 10:39:08.424719,-72.0
2023-08-12 10:39:08.432409,-72.0
2023-08-12 10:39:08.440098,-72.0
2023-08-12 10:39:08.447788,-72.0
2023-08-12 10:39:08.455478,-74.0
2023-08-12 10:39:08.463168,-77.0
2023-08-12 10:39:08.470858,-77.0
2023-08-12 10:39:08.478547,-77.0
2023-08-12 10:39:08.486237,-72.0
2023-08-12 10:39:08.493927,-62.0
2023-08-12 10:39:08.501617,-43.0
2023-08-12 10:39:08.509307,-12.0
2023-08-12 10:39:08.516996,2.0
2023-08-12 10:39:08.524686,-12.0
2023-08-12 10:39:08.532376,-28.0
2023-08-12 10:39:08.540066,-38.0
2023-08-12 10:39:08.547755,-57.0
2023-08-12 10:39:08.555445,-67.0
2023-08-12 10:39:08.563135,-69.0
2023-08-12 10:39:08.570825,-69.0
2023-08-12 10:39:08.578515,-67.0
2023-08-12 10:39:08.586204,-60.0
2023-08-12 10:39:08.593894,-62.0
2023-08-12 10:39:08.601584,-67.0
2023-08-12 10:39:08.609274,-67.0
2023-08-12 10:39:08.616964,-72.0
2023-08-12 10:39:08.624653,-84.0
2023-08-12 10:39:08.632343,-33.0
2023-08-12 10:39:08.640033,180.0
2023-08-12 10:39:08.647723,567.0
2023-08-12 10:39:08.655413,617.0
2023-08-12 10:39:08.663102,-28.0
2023-08-12 10:39:08.670792,-415.0
2023-08-12 10:39:08.678482,-31.0
2023-08-12 10:39:08.686172,123.0
2023-08-12 10:39:08.693862,-137.0
2023-08-12 10:39:08.701551,-159.0
2023-08-12 10:39:08.709241,-55.0
2023-08-12 10:39:08.716931,-103.0
2023-08-12 10:39:08.724621,-137.0
2023-08-12 10:39:08.732310,-103.0
2023-08-12 10:39:08.740000,-103.0
2023-08-12 10:39:08.747690,-110.0
2023-08-12 10:39:08.755380,-96.0
2023-08-12 10:39:08.763070,-86.0
2023-08-12 10:39:08.770759,-89.0
2023-08-12 10:39:08.778449,-86.0
2023-08-12 10:39:08.786139,-82.0
2023-08-12 10:39:08.793829,-82.0
2023-08-12 10:39:08.801519,-74.0
2023-08-12 10:39:08.809208,-67.0
2023-08-12 10:39:08.816898,-62.0
2023-08-12 10:39:08.824588,-57.0
2023-08-12 10:39:08.832278,-55.0
2023-08-12 10:39:08.839968,-50.0
2023-08-12 10:39:08.847657,-43.0
2023-08-12 10:39:08.855347,-41.0
2023-08-12 10:39:08.863037,-38.0
2023-08-12 10:39:08.870727,-38.0
2023-08-12 10:39:08.878417,-38.0
2023-08-12 10:39:08.886106,-38.0
2023-08-12 10:39:08.893796,-36.0
2023-08-12 10:39:08.901486,-41.0
2023-08-12 10:39:08.909176,-50.0
2023-08-12 10:39:08.916865,-57.0
2023-08-12 10:39:08.924555,-57.0
2023-08-12 10:39:08.932245,-60.0
2023-08-12 10:39:08.939935,-67.0
2023-08-12 10:39:08.947625,-72.0
2023-08-12 10:39:08.955314,-82.0
2023-08-12 10:39:08.963004,-89.0
2023-08-12 10:39:08.970694,-86.0
2023-08-12 10:39:08.978384,-86.0
2023-08-12 10:39:08.986074,-91.0
2023-08-12 10:39:08.993763,-89.0
2023-08-12 10:39:09.001453,-89.0
2023-08-12 10:39:09.009143,-91.0
2023-08-12 10:39:09.016833,-89.0
2023-08-12 10:39:09.024523,-84.0
2023-08-12 10:39:09.032212,-82.0
2023-08-12 10:39:09.039902,-79.0
2023-08-12 10:39:09.047592,-79.0
2023-08-12 10:39:09.055282,-77.0
2023-08-12 10:39:09.062972,-74.0
2023-08-12 10:39:09.070661,-72.0
2023-08-12 10:39:09.078351,-65.0
2023-08-12 10:39:09.086041,-62.0
2023-08-12 10:39:09.093731,-62.0
2023-08-12 10:39:09.101420,-62.0
2023-08-12 10:39:09.109110,-55.0
2023-08-12 10:39:09.116800,-53.0
2023-08-12 10:39:09.124490,-57.0
2023-08-12 10:39:09.132180,-57.0
2023-08-12 10:39:09.139869,-53.0
2023-08-12 10:39:09.147559,-55.0
2023-08-12 10:39:09.155249,-53.0
2023-08-12 10:39:09.162939,-50.0
2023-08-12 10:39:09.170629,-50.0
2023-08-12 10:39:09.178318,-50.0
2023-08-12 10:39:09.186008,-53.0
2023-08-12 10:39:09.193698,-57.0
2023-08-12 10:39:09.201388,-53.0
2023-08-12 10:39:09.209078,-53.0
2023-08-12 10:39:09.216767,-57.0
2023-08-12 10:39:09.224457,-62.0
2023-08-12 10:39:09.232147,-67.0
2023-08-12 10:39:09.239837,-67.0
2023-08-12 10:39:09.247527,-62.0
2023-08-12 10:39:09.255216,-62.0
2023-08-12 10:39:09.262906,-62.0
2023-08-12 10:39:09.270596,-67.0
2023-08-12 10:39:09.278286,-72.0
2023-08-12 10:39:09.285975,-74.0
2023-08-12 10:39:09.293665,-74.0
2023-08-12 10:39:09.301355,-77.0
2023-08-12 10:39:09.309045,-72.0
2023-08-12 10:39:09.316735,-53.0
2023-08-12 10:39:09.324424,-24.0
2023-08-12 10:39:09.332114,-9.0
2023-08-12 10:39:09.339804,-26.0
2023-08-12 10:39:09.347494,-41.0
2023-08-12 10:39:09.355184,-48.0
2023-08-12 10:39:09.362873,-67.0
2023-08-12 10:39:09.370563,-82.0
2023-08-12 10:39:09.378253,-89.0
2023-08-12 10:39:09.385943,-86.0
2023-08-12 10:39:09.393633,-84.0
2023-08-12 10:39:09.401322,-82.0
2023-08-12 10:39:09.409012,-82.0
2023-08-12 10:39:09.416702,-79.0
2023-08-12 10:39:09.424392,-77.0
2023-08-12 10:39:09.432082,-86.0
2023-08-12 10:39:09.439771,-101.0
2023-08-12 10:39:09.447461,-62.0
2023-08-12 10:39:09.455151,123.0
2023-08-12 10:39:09.462841,509.0
2023-08-12 10:39:09.470530,682.0
2023-08-12 10:39:09.478220,149.0
2023-08-12 10:39:09.485910,-349.0
2023-08-12 10:39:09.493600,-94.0
2023-08-12 10:39:09.501290,125.0
2023-08-12 10:39:09.508979,-96.0
2023-08-12 10:39:09.516669,-166.0
2023-08-12 10:39:09.524359,-65.0
2023-08-12 10:39:09.532049,-91.0
2023-08-12 10:39:09.539739,-130.0
2023-08-12 10:39:09.547428,-94.0
2023-08-12 10:39:09.555118,-84.0
2023-08-12 10:39:09.562808,-98.0
2023-08-12 10:39:09.570498,-86.0
2023-08-12 10:39:09.578188,-74.0
2023-08-12 10:39:09.585877,-77.0
2023-08-12 10:39:09.593567,-74.0
2023-08-12 10:39:09.601257,-67.0
2023-08-12 10:39:09.608947,-65.0
2023-08-12 10:39:09.616637,-65.0
2023-08-12 10:39:09.624326,-57.0
2023-08-12 10:39:09.632016,-53.0
2023-08-12 10:39:09.639706,-53.0
2023-08-12 10:39:09.647396,-48.0
2023-08-12 10:39:09.655085,-43.0
2023-08-12 10:39:09.662775,-41.0
2023-08-12 10:39:09.670465,-38.0
2023-08-12 10:39:09.678155,-36.0
2023-08-12 10:39:09.685845,-33.0
2023-08-12 10:39:09.693534,-31.0
2023-08-12 10:39:09.701224,-33.0
2023-08-12 10:39:09.708914,-33.0
2023-08-12 10:39:09.716604,-36.0
2023-08-12 10:39:09.724294,-41.0
2023-08-12 10:39:09.731983,-48.0
2023-08-12 10:39:09.739673,-53.0
2023-08-12 10:39:09.747363,-57.0
2023-08-12 10:39:09.755053,-67.0
2023-08-12 10:39:09.762743,-79.0
2023-08-12 10:39:09.770432,-89.0
2023-08-12 10:39:09.778122,-91.0
2023-08-12 10:39:09.785812,-91.0
2023-08-12 10:39:09.793502,-101.0
2023-08-12 10:39:09.801191,-108.0
2023-08-12 10:39:09.808881,-106.0
2023-08-12 10:39:09.816571,-103.0
2023-08-12 10:39:09.824261,-101.0
2023-08-12 10:39:09.831951,-101.0
2023-08-12 10:39:09.839640,-98.0
2023-08-12 10:39:09.847330,-96.0
2023-08-12 10:39:09.855020,-94.0
2023-08-12 10:39:09.862710,-94.0
2023-08-12 10:39:09.870400,-91.0
2023-08-12 10:39:09.878089,-89.0
2023-08-12 10:39:09.885779,-84.0
2023-08-12 10:39:09.893469,-82.0
2023-08-12 10:39:09.901159,-82.0
2023-08-12 10:39:09.908849,-79.0
2023-08-12 10:39:09.916538,-74.0
2023-08-12 10:39:09.924228,-72.0
2023-08-12 10:39:09.931918,-69.0
2023-08-12 10:39:09.939608,-62.0
2023-08-12 10:39:09.947298,-57.0
2023-08-12 10:39:09.954987,-57.0
2023-08-12 10:39:09.962677,-55.0
2023-08-12 10:39:09.970367,-57.0
2023-08-12 10:39:09.978057,-60.0
2023-08-12 10:39:09.985746,-60.0
2023-08-12 10:39:09.993436,-57.0
2023-08-12 10:39:10.001126,-57.0
2023-08-12 10:39:10.008816,-55.0
2023-08-12 10:39:10.016506,-55.0
2023-08-12 10:39:10.024195,-53.0
2023-08-12 10:39:10.031885,-55.0
2023-08-12 10:39:10.039575,-55.0
2023-08-12 10:39:10.047265,-53.0
2023-08-12 10:39:10.054955,-53.0
2023-08-12 10:39:10.062644,-55.0
2023-08-12 10:39:10.070334,-55.0
2023-08-12 10:39:10.078024,-57.0
2023-08-12 10:39:10.085714,-57.0
2023-08-12 10:39:10.093404,-55.0
2023-08-12 10:39:10.101093,-55.0
2023-08-12 10:39:10.108783,-57.0
2023-08-12 10:39:10.116473,-60.0
2023-08-12 10:39:10.124163,-60.0
2023-08-12 10:39:10.131853,-62.0
2023-08-12 10:39:10.139542,-65.0
2023-08-12 10:39:10.147232,-62.0
2023-08-12 10:39:10.154922,-62.0
2023-08-12 10:39:10.162612,-62.0
2023-08-12 10:39:10.170301,-55.0
2023-08-12 10:39:10.177991,-31.0
2023-08-12 10:39:10.185681,-2.0
2023-08-12 10:39:10.193371,-12.0
2023-08-12 10:39:10.201061,-31.0
2023-08-12 10:39:10.208750,-38.0
2023-08-12 10:39:10.216440,-50.0
2023-08-12 10:39:10.224130,-67.0
2023-08-12 10:39:10.231820,-72.0
2023-08-12 10:39:10.239510,-77.0
2023-08-12 10:39:10.247199,-79.0
2023-08-12 10:39:10.254889,-74.0
2023-08-12 10:39:10.262579,-74.0
2023-08-12 10:39:10.270269,-74.0
2023-08-12 10:39:10.277959,-74.0
2023-08-12 10:39:10.285648,-74.0
2023-08-12 10:39:10.293338,-91.0
2023-08-12 10:39:10.301028,-101.0
2023-08-12 10:39:10.308718,-21.0
2023-08-12 10:39:10.316408,246.0
2023-08-12 10:39:10.324097,629.0
2023-08-12 10:39:10.331787,562.0
2023-08-12 10:39:10.339477,-94.0
2023-08-12 10:39:10.347167,-325.0
2023-08-12 10:39:10.354856,26.0
2023-08-12 10:39:10.362546,50.0
2023-08-12 10:39:10.370236,-173.0
2023-08-12 10:39:10.377926,-137.0
2023-08-12 10:39:10.385616,-72.0
2023-08-12 10:39:10.393305,-137.0
2023-08-12 10:39:10.400995,-144.0
2023-08-12 10:39:10.408685,-101.0
2023-08-12 10:39:10.416375,-103.0
2023-08-12 10:39:10.424065,-108.0
2023-08-12 10:39:10.431754,-94.0
2023-08-12 10:39:10.439444,-96.0
2023-08-12 10:39:10.447134,-103.0
2023-08-12 10:39:10.454824,-89.0
2023-08-12 10:39:10.462514,-82.0
2023-08-12 10:39:10.470203,-79.0
2023-08-12 10:39:10.477893,-77.0
2023-08-12 10:39:10.485583,-84.0
2023-08-12 10:39:10.493273,-89.0
2023-08-12 10:39:10.500963,-82.0
2023-08-12 10:39:10.508652,-72.0
2023-08-12 10:39:10.516342,-69.0
2023-08-12 10:39:10.524032,-65.0
2023-08-12 10:39:10.531722,-62.0
2023-08-12 10:39:10.539411,-55.0
2023-08-12 10:39:10.547101,-48.0
2023-08-12 10:39:10.554791,-50.0
2023-08-12 10:39:10.562481,-53.0
2023-08-12 10:39:10.570171,-53.0
2023-08-12 10:39:10.577860,-60.0
2023-08-12 10:39:10.585550,-67.0
2023-08-12 10:39:10.593240,-67.0
2023-08-12 10:39:10.600930,-74.0
2023-08-12 10:39:10.608620,-82.0
2023-08-12 10:39:10.616309,-86.0
2023-08-12 10:39:10.623999,-91.0
2023-08-12 10:39:10.631689,-94.0
2023-08-12 10:39:10.639379,-94.0
2023-08-12 10:39:10.647069,-91.0
2023-08-12 10:39:10.654758,-91.0
2023-08-12 10:39:10.662448,-91.0
2023-08-12 10:39:10.670138,-94.0
2023-08-12 10:39:10.677828,-89.0
2023-08-12 10:39:10.685518,-84.0
2023-08-12 10:39:10.693207,-84.0
2023-08-12 10:39:10.700897,-84.0
2023-08-12 10:39:10.708587,-82.0
2023-08-12 10:39:10.716277,-82.0
2023-08-12 10:39:10.723966,-79.0
2023-08-12 10:39:10.731656,-77.0
2023-08-12 10:39:10.739346,-74.0
2023-08-12 10:39:10.747036,-74.0
2023-08-12 10:39:10.754726,-74.0
2023-08-12 10:39:10.762415,-74.0
2023-08-12 10:39:10.770105,-72.0
2023-08-12 10:39:10.777795,-67.0
2023-08-12 10:39:10.785485,-65.0
2023-08-12 10:39:10.793175,-62.0
2023-08-12 10:39:10.800864,-65.0
2023-08-12 10:39:10.808554,-67.0
2023-08-12 10:39:10.816244,-62.0
2023-08-12 10:39:10.823934,-57.0
2023-08-12 10:39:10.831624,-57.0
2023-08-12 10:39:10.839313,-57.0
2023-08-12 10:39:10.847003,-60.0
2023-08-12 10:39:10.854693,-65.0
2023-08-12 10:39:10.862383,-62.0
2023-08-12 10:39:10.870073,-60.0
2023-08-12 10:39:10.877762,-55.0
2023-08-12 10:39:10.885452,-57.0
2023-08-12 10:39:10.893142,-65.0
2023-08-12 10:39:10.900832,-67.0
2023-08-12 10:39:10.908521,-65.0
2023-08-12 10:39:10.916211,-65.0
2023-08-12 10:39:10.923901,-62.0
2023-08-12 10:39:10.931591,-65.0
2023-08-12 10:39:10.939281,-65.0
2023-08-12 10:39:10.946970,-62.0
2023-08-12 10:39:10.954660,-62.0
2023-08-12 10:39:10.962350,-62.0
2023-08-12 10:39:10.970040,-62.0
2023-08-12 10:39:10.977730,-60.0
2023-08-12 10:39:10.985419,-62.0
2023-08-12 10:39:10.993109,-62.0
2023-08-12 10:39:11.000799,-62.0
2023-08-12 10:39:11.008489,-62.0
2023-08-12 10:39:11.016179,-60.0
2023-08-12 10:39:11.023868,-57.0
2023-08-12 10:39:11.031558,-50.0
2023-08-12 10:39:11.039248,-26.0
2023-08-12 10:39:11.046938,0.0
2023-08-12 10:39:11.054628,-4.0
2023-08-12 10:39:11.062317,-31.0
2023-08-12 10:39:11.070007,-43.0
2023-08-12 10:39:11.077697,-50.0
2023-08-12 10:39:11.085387,-67.0
2023-08-12 10:39:11.093076,-82.0
2023-08-12 10:39:11.100766,-84.0
2023-08-12 10:39:11.108456,-82.0
2023-08-12 10:39:11.116146,-82.0
2023-08-12 10:39:11.123836,-79.0
2023-08-12 10:39:11.131525,-79.0
2023-08-12 10:39:11.139215,-77.0
2023-08-12 10:39:11.146905,-74.0
2023-08-12 10:39:11.154595,-84.0
2023-08-12 10:39:11.162285,-94.0
2023-08-12 10:39:11.169974,-26.0
2023-08-12 10:39:11.177664,217.0
2023-08-12 10:39:11.185354,605.0
2023-08-12 10:39:11.193044,605.0
2023-08-12 10:39:11.200734,-19.0
2023-08-12 10:39:11.208423,-325.0
2023-08-12 10:39:11.216113,7.0
2023-08-12 10:39:11.223803,82.0
2023-08-12 10:39:11.231493,-142.0
2023-08-12 10:39:11.239183,-127.0
2023-08-12 10:39:11.246872,-50.0
2023-08-12 10:39:11.254562,-101.0
2023-08-12 10:39:11.262252,-110.0
2023-08-12 10:39:11.269942,-72.0
2023-08-12 10:39:11.277631,-77.0
2023-08-12 10:39:11.285321,-82.0
2023-08-12 10:39:11.293011,-67.0
2023-08-12 10:39:11.300701,-69.0
2023-08-12 10:39:11.308391,-77.0
2023-08-12 10:39:11.316080,-67.0
2023-08-12 10:39:11.323770,-57.0
2023-08-12 10:39:11.331460,-60.0
2023-08-12 10:39:11.339150,-60.0
2023-08-12 10:39:11.346840,-55.0
2023-08-12 10:39:11.354529,-50.0
2023-08-12 10:39:11.362219,-43.0
2023-08-12 10:39:11.369909,-33.0
2023-08-12 10:39:11.377599,-33.0
2023-08-12 10:39:11.385289,-31.0
2023-08-12 10:39:11.392978,-28.0
2023-08-12 10:39:11.400668,-26.0
2023-08-12 10:39:11.408358,-24.0
2023-08-12 10:39:11.416048,-21.0
2023-08-12 10:39:11.423738,-26.0
2023-08-12 10:39:11.431427,-28.0
2023-08-12 10:39:11.439117,-31.0
2023-08-12 10:39:11.446807,-33.0
2023-08-12 10:39:11.454497,-38.0
2023-08-12 10:39:11.462186,-48.0
2023-08-12 10:39:11.469876,-53.0
2023-08-12 10:39:11.477566,-57.0
2023-08-12 10:39:11.485256,-62.0
2023-08-12 10:39:11.492946,-67.0
2023-08-12 10:39:11.500635,-74.0
2023-08-12 10:39:11.508325,-79.0
2023-08-12 10:39:11.516015,-84.0
2023-08-12 10:39:11.523705,-94.0
2023-08-12 10:39:11.531395,-98.0
2023-08-12 10:39:11.539084,-94.0
2023-08-12 10:39:11.546774,-89.0
2023-08-12 10:39:11.554464,-89.0
2023-08-12 10:39:11.562154,-94.0
2023-08-12 10:39:11.569844,-96.0
2023-08-12 10:39:11.577533,-94.0
2023-08-12 10:39:11.585223,-96.0
2023-08-12 10:39:11.592913,-96.0
2023-08-12 10:39:11.600603,-89.0
2023-08-12 10:39:11.608293,-86.0
2023-08-12 10:39:11.615982,-84.0
2023-08-12 10:39:11.623672,-79.0
2023-08-12 10:39:11.631362,-77.0
2023-08-12 10:39:11.639052,-77.0
2023-08-12 10:39:11.646741,-74.0
2023-08-12 10:39:11.654431,-77.0
2023-08-12 10:39:11.662121,-77.0
2023-08-12 10:39:11.669811,-72.0
2023-08-12 10:39:11.677501,-72.0
2023-08-12 10:39:11.685190,-69.0
2023-08-12 10:39:11.692880,-67.0
2023-08-12 10:39:11.700570,-79.0
2023-08-12 10:39:11.708260,-94.0
2023-08-12 10:39:11.715950,-86.0
2023-08-12 10:39:11.723639,-79.0
2023-08-12 10:39:11.731329,-82.0
2023-08-12 10:39:11.739019,-79.0
2023-08-12 10:39:11.746709,-72.0
2023-08-12 10:39:11.754399,-72.0
2023-08-12 10:39:11.762088,-74.0
2023-08-12 10:39:11.769778,-69.0
2023-08-12 10:39:11.777468,-67.0
2023-08-12 10:39:11.785158,-72.0
2023-08-12 10:39:11.792848,-72.0
2023-08-12 10:39:11.800537,-72.0
2023-08-12 10:39:11.808227,-74.0
2023-08-12 10:39:11.815917,-79.0
2023-08-12 10:39:11.823607,-82.0
2023-08-12 10:39:11.831296,-82.0
2023-08-12 10:39:11.838986,-84.0
2023-08-12 10:39:11.846676,-84.0
2023-08-12 10:39:11.854366,-82.0
2023-08-12 10:39:11.862056,-82.0
2023-08-12 10:39:11.869745,-84.0
2023-08-12 10:39:11.877435,-74.0
2023-08-12 10:39:11.885125,-67.0
2023-08-12 10:39:11.892815,-62.0
2023-08-12 10:39:11.900505,-33.0
2023-08-12 10:39:11.908194,0.0
2023-08-12 10:39:11.915884,-7.0
2023-08-12 10:39:11.923574,-33.0
2023-08-12 10:39:11.931264,-43.0
2023-08-12 10:39:11.938954,-50.0
2023-08-12 10:39:11.946643,-65.0
2023-08-12 10:39:11.954333,-74.0
2023-08-12 10:39:11.962023,-69.0
2023-08-12 10:39:11.969713,-69.0
2023-08-12 10:39:11.977403,-74.0
2023-08-12 10:39:11.985092,-74.0
2023-08-12 10:39:11.992782,-67.0
2023-08-12 10:39:12.000472,-65.0
2023-08-12 10:39:12.008162,-69.0
2023-08-12 10:39:12.015851,-84.0
2023-08-12 10:39:12.023541,-77.0
2023-08-12 10:39:12.031231,28.0
2023-08-12 10:39:12.038921,335.0
2023-08-12 10:39:12.046611,685.0
2023-08-12 10:39:12.054300,436.0
2023-08-12 10:39:12.061990,-287.0
2023-08-12 10:39:12.069680,-342.0
2023-08-12 10:39:12.077370,106.0
2023-08-12 10:39:12.085060,57.0
2023-08-12 10:39:12.092749,-176.0
2023-08-12 10:39:12.100439,-106.0
2023-08-12 10:39:12.108129,-50.0
2023-08-12 10:39:12.115819,-118.0
2023-08-12 10:39:12.123509,-113.0
2023-08-12 10:39:12.131198,-77.0
2023-08-12 10:39:12.138888,-82.0
2023-08-12 10:39:12.146578,-84.0
2023-08-12 10:39:12.154268,-69.0
2023-08-12 10:39:12.161958,-62.0
2023-08-12 10:39:12.169647,-65.0
2023-08-12 10:39:12.177337,-62.0
2023-08-12 10:39:12.185027,-55.0
2023-08-12 10:39:12.192717,-53.0
2023-08-12 10:39:12.200406,-45.0
2023-08-12 10:39:12.208096,-36.0
2023-08-12 10:39:12.215786,-33.0
2023-08-12 10:39:12.223476,-31.0
2023-08-12 10:39:12.231166,-24.0
2023-08-12 10:39:12.238855,-19.0
2023-08-12 10:39:12.246545,-21.0
2023-08-12 10:39:12.254235,-19.0
2023-08-12 10:39:12.261925,-12.0
2023-08-12 10:39:12.269615,-7.0
2023-08-12 10:39:12.277304,-7.0
2023-08-12 10:39:12.284994,-12.0
2023-08-12 10:39:12.292684,-19.0
2023-08-12 10:39:12.300374,-24.0
2023-08-12 10:39:12.308064,-26.0
2023-08-12 10:39:12.315753,-38.0
2023-08-12 10:39:12.323443,-55.0
2023-08-12 10:39:12.331133,-60.0
2023-08-12 10:39:12.338823,-62.0
2023-08-12 10:39:12.346512,-69.0
2023-08-12 10:39:12.354202,-79.0
2023-08-12 10:39:12.361892,-86.0
2023-08-12 10:39:12.369582,-94.0
2023-08-12 10:39:12.377272,-101.0
2023-08-12 10:39:12.384961,-103.0
2023-08-12 10:39:12.392651,-103.0
2023-08-12 10:39:12.400341,-101.0
2023-08-12 10:39:12.408031,-98.0
2023-08-12 10:39:12.415721,-98.0
2023-08-12 10:39:12.423410,-91.0
2023-08-12 10:39:12.431100,-84.0
2023-08-12 10:39:12.438790,-84.0
2023-08-12 10:39:12.446480,-84.0
2023-08-12 10:39:12.454170,-79.0
2023-08-12 10:39:12.461859,-72.0
2023-08-12 10:39:12.469549,-74.0
2023-08-12 10:39:12.477239,-72.0
2023-08-12 10:39:12.484929,-62.0
2023-08-12 10:39:12.492619,-60.0
2023-08-12 10:39:12.500308,-60.0
2023-08-12 10:39:12.507998,-60.0
2023-08-12 10:39:12.515688,-65.0
2023-08-12 10:39:12.523378,-60.0
2023-08-12 10:39:12.531067,-57.0
2023-08-12 10:39:12.538757,-60.0
2023-08-12 10:39:12.546447,-60.0
2023-08-12 10:39:12.554137,-62.0
2023-08-12 10:39:12.561827,-67.0
2023-08-12 10:39:12.569516,-67.0
2023-08-12 10:39:12.577206,-65.0
2023-08-12 10:39:12.584896,-65.0
2023-08-12 10:39:12.592586,-65.0
2023-08-12 10:39:12.600276,-72.0
2023-08-12 10:39:12.607965,-82.0
2023-08-12 10:39:12.615655,-79.0
2023-08-12 10:39:12.623345,-77.0
2023-08-12 10:39:12.631035,-77.0
2023-08-12 10:39:12.638725,-84.0
2023-08-12 10:39:12.646414,-89.0
2023-08-12 10:39:12.654104,-89.0
2023-08-12 10:39:12.661794,-89.0
2023-08-12 10:39:12.669484,-86.0
2023-08-12 10:39:12.677174,-84.0
2023-08-12 10:39:12.684863,-86.0
2023-08-12 10:39:12.692553,-89.0
2023-08-12 10:39:12.700243,-89.0
2023-08-12 10:39:12.707933,-89.0
2023-08-12 10:39:12.715622,-86.0
2023-08-12 10:39:12.723312,-62.0
2023-08-12 10:39:12.731002,-26.0
2023-08-12 10:39:12.738692,-4.0
2023-08-12 10:39:12.746382,-12.0
2023-08-12 10:39:12.754071,-28.0
2023-08-12 10:39:12.761761,-41.0
2023-08-12 10:39:12.769451,-60.0
2023-08-12 10:39:12.777141,-72.0
2023-08-12 10:39:12.784831,-74.0
2023-08-12 10:39:12.792520,-77.0
2023-08-12 10:39:12.800210,-79.0
2023-08-12 10:39:12.807900,-79.0
2023-08-12 10:39:12.815590,-79.0
2023-08-12 10:39:12.823280,-84.0
2023-08-12 10:39:12.830969,-89.0
2023-08-12 10:39:12.838659,-89.0
2023-08-12 10:39:12.846349,-96.0
2023-08-12 10:39:12.854039,-65.0
2023-08-12 10:39:12.861729,98.0
2023-08-12 10:39:12.869418,470.0
2023-08-12 10:39:12.877108,714.0
2023-08-12 10:39:12.884798,221.0
2023-08-12 10:39:12.892488,-407.0
2023-08-12 10:39:12.900177,-185.0
2023-08-12 10:39:12.907867,166.0
2023-08-12 10:39:12.915557,-41.0
2023-08-12 10:39:12.923247,-188.0
2023-08-12 10:39:12.930937,-72.0
2023-08-12 10:39:12.938626,-72.0
2023-08-12 10:39:12.946316,-127.0
2023-08-12 10:39:12.954006,-96.0
2023-08-12 10:39:12.961696,-82.0
2023-08-12 10:39:12.969386,-103.0
2023-08-12 10:39:12.977075,-94.0
2023-08-12 10:39:12.984765,-74.0
2023-08-12 10:39:12.992455,-74.0
2023-08-12 10:39:13.000145,-74.0
2023-08-12 10:39:13.007835,-67.0
2023-08-12 10:39:13.015524,-62.0
2023-08-12 10:39:13.023214,-60.0
2023-08-12 10:39:13.030904,-53.0
2023-08-12 10:39:13.038594,-45.0
2023-08-12 10:39:13.046284,-43.0
2023-08-12 10:39:13.053973,-43.0
2023-08-12 10:39:13.061663,-45.0
2023-08-12 10:39:13.069353,-43.0
2023-08-12 10:39:13.077043,-36.0
2023-08-12 10:39:13.084732,-33.0
2023-08-12 10:39:13.092422,-33.0
2023-08-12 10:39:13.100112,-31.0
2023-08-12 10:39:13.107802,-31.0
2023-08-12 10:39:13.115492,-33.0
2023-08-12 10:39:13.123181,-41.0
2023-08-12 10:39:13.130871,-45.0
2023-08-12 10:39:13.138561,-55.0
2023-08-12 10:39:13.146251,-62.0
2023-08-12 10:39:13.153941,-60.0
2023-08-12 10:39:13.161630,-62.0
2023-08-12 10:39:13.169320,-72.0
2023-08-12 10:39:13.177010,-79.0
2023-08-12 10:39:13.184700,-96.0
2023-08-12 10:39:13.192390,-106.0
2023-08-12 10:39:13.200079,-101.0
2023-08-12 10:39:13.207769,-98.0
2023-08-12 10:39:13.215459,-98.0
2023-08-12 10:39:13.223149,-98.0
2023-08-12 10:39:13.230839,-101.0
2023-08-12 10:39:13.238528,-103.0
2023-08-12 10:39:13.246218,-101.0
2023-08-12 10:39:13.253908,-91.0
2023-08-12 10:39:13.261598,-89.0
2023-08-12 10:39:13.269287,-89.0
2023-08-12 10:39:13.276977,-86.0
2023-08-12 10:39:13.284667,-82.0
2023-08-12 10:39:13.292357,-79.0
2023-08-12 10:39:13.300047,-77.0
2023-08-12 10:39:13.307736,-72.0
2023-08-12 10:39:13.315426,-72.0
2023-08-12 10:39:13.323116,-74.0
2023-08-12 10:39:13.330806,-77.0
2023-08-12 10:39:13.338496,-77.0
2023-08-12 10:39:13.346185,-74.0
2023-08-12 10:39:13.353875,-72.0
2023-08-12 10:39:13.361565,-69.0
2023-08-12 10:39:13.369255,-72.0
2023-08-12 10:39:13.376945,-72.0
2023-08-12 10:39:13.384634,-69.0
2023-08-12 10:39:13.392324,-72.0
2023-08-12 10:39:13.400014,-72.0
2023-08-12 10:39:13.407704,-72.0
2023-08-12 10:39:13.415394,-74.0
2023-08-12 10:39:13.423083,-74.0
2023-08-12 10:39:13.430773,-69.0
2023-08-12 10:39:13.438463,-69.0
2023-08-12 10:39:13.446153,-72.0
2023-08-12 10:39:13.453842,-74.0
2023-08-12 10:39:13.461532,-74.0
2023-08-12 10:39:13.469222,-72.0
2023-08-12 10:39:13.476912,-72.0
2023-08-12 10:39:13.484602,-72.0
2023-08-12 10:39:13.492291,-69.0
2023-08-12 10:39:13.499981,-69.0
2023-08-12 10:39:13.507671,-72.0
2023-08-12 10:39:13.515361,-74.0
2023-08-12 10:39:13.523051,-77.0
2023-08-12 10:39:13.530740,-74.0
2023-08-12 10:39:13.538430,-60.0
2023-08-12 10:39:13.546120,-36.0
2023-08-12 10:39:13.553810,-4.0
2023-08-12 10:39:13.561500,4.0
2023-08-12 10:39:13.569189,-12.0
2023-08-12 10:39:13.576879,-24.0
2023-08-12 10:39:13.584569,-36.0
2023-08-12 10:39:13.592259,-53.0
2023-08-12 10:39:13.599949,-65.0
2023-08-12 10:39:13.607638,-65.0
2023-08-12 10:39:13.615328,-62.0
2023-08-12 10:39:13.623018,-62.0
2023-08-12 10:39:13.630708,-65.0
2023-08-12 10:39:13.638397,-67.0
2023-08-12 10:39:13.646087,-65.0
2023-08-12 10:39:13.653777,-62.0
2023-08-12 10:39:13.661467,-77.0
2023-08-12 10:39:13.669157,-82.0
2023-08-12 10:39:13.676846,-2.0
2023-08-12 10:39:13.684536,275.0
2023-08-12 10:39:13.692226,663.0
2023-08-12 10:39:13.699916,526.0
2023-08-12 10:39:13.707606,-188.0
2023-08-12 10:39:13.715295,-337.0
2023-08-12 10:39:13.722985,94.0
2023-08-12 10:39:13.730675,79.0
2023-08-12 10:39:13.738365,-173.0
2023-08-12 10:39:13.746055,-118.0
2023-08-12 10:39:13.753744,-50.0
2023-08-12 10:39:13.761434,-115.0
2023-08-12 10:39:13.769124,-110.0
2023-08-12 10:39:13.776814,-72.0
2023-08-12 10:39:13.784504,-86.0
2023-08-12 10:39:13.792193,-91.0
2023-08-12 10:39:13.799883,-77.0
2023-08-12 10:39:13.807573,-77.0
2023-08-12 10:39:13.815263,-77.0
2023-08-12 10:39:13.822952,-74.0
2023-08-12 10:39:13.830642,-77.0
2023-08-12 10:39:13.838332,-74.0
2023-08-12 10:39:13.846022,-65.0
2023-08-12 10:39:13.853712,-62.0
2023-08-12 10:39:13.861401,-62.0
2023-08-12 10:39:13.869091,-53.0
2023-08-12 10:39:13.876781,-45.0
2023-08-12 10:39:13.884471,-43.0
2023-08-12 10:39:13.892161,-43.0
2023-08-12 10:39:13.899850,-43.0
2023-08-12 10:39:13.907540,-41.0
2023-08-12 10:39:13.915230,-38.0
2023-08-12 10:39:13.922920,-36.0
2023-08-12 10:39:13.930610,-36.0
2023-08-12 10:39:13.938299,-43.0
2023-08-12 10:39:13.945989,-50.0
2023-08-12 10:39:13.953679,-55.0
2023-08-12 10:39:13.961369,-55.0
2023-08-12 10:39:13.969059,-55.0
2023-08-12 10:39:13.976748,-57.0
2023-08-12 10:39:13.984438,-62.0
2023-08-12 10:39:13.992128,-67.0
2023-08-12 10:39:13.999818,-77.0
2023-08-12 10:39:14.007507,-82.0
2023-08-12 10:39:14.015197,-82.0
2023-08-12 10:39:14.022887,-82.0
2023-08-12 10:39:14.030577,-82.0
2023-08-12 10:39:14.038267,-86.0
2023-08-12 10:39:14.045956,-86.0
2023-08-12 10:39:14.053646,-89.0
2023-08-12 10:39:14.061336,-84.0
2023-08-12 10:39:14.069026,-82.0
2023-08-12 10:39:14.076716,-79.0
2023-08-12 10:39:14.084405,-82.0
2023-08-12 10:39:14.092095,-82.0
2023-08-12 10:39:14.099785,-74.0
2023-08-12 10:39:14.107475,-74.0
2023-08-12 10:39:14.115165,-72.0
2023-08-12 10:39:14.122854,-69.0
2023-08-12 10:39:14.130544,-67.0
2023-08-12 10:39:14.138234,-65.0
2023-08-12 10:39:14.145924,-65.0
2023-08-12 10:39:14.153614,-62.0
2023-08-12 10:39:14.161303,-57.0
2023-08-12 10:39:14.168993,-55.0
2023-08-12 10:39:14.176683,-55.0
2023-08-12 10:39:14.184373,-60.0
2023-08-12 10:39:14.192062,-60.0
2023-08-12 10:39:14.199752,-55.0
2023-08-12 10:39:14.207442,-55.0
2023-08-12 10:39:14.215132,-62.0
2023-08-12 10:39:14.222822,-74.0
2023-08-12 10:39:14.230511,-74.0
2023-08-12 10:39:14.238201,-69.0
2023-08-12 10:39:14.245891,-69.0
2023-08-12 10:39:14.253581,-67.0
2023-08-12 10:39:14.261271,-67.0
2023-08-12 10:39:14.268960,-72.0
2023-08-12 10:39:14.276650,-74.0
2023-08-12 10:39:14.284340,-67.0
2023-08-12 10:39:14.292030,-72.0
2023-08-12 10:39:14.299720,-79.0
2023-08-12 10:39:14.307409,-77.0
2023-08-12 10:39:14.315099,-77.0
2023-08-12 10:39:14.322789,-82.0
2023-08-12 10:39:14.330479,-86.0
2023-08-12 10:39:14.338169,-89.0
2023-08-12 10:39:14.345858,-89.0
2023-08-12 10:39:14.353548,-82.0
2023-08-12 10:39:14.361238,-77.0
2023-08-12 10:39:14.368928,-57.0
2023-08-12 10:39:14.376617,-19.0
2023-08-12 10:39:14.384307,-7.0
2023-08-12 10:39:14.391997,-26.0
2023-08-12 10:39:14.399687,-45.0
2023-08-12 10:39:14.407377,-55.0
2023-08-12 10:39:14.415066,-69.0
2023-08-12 10:39:14.422756,-82.0
2023-08-12 10:39:14.430446,-84.0
2023-08-12 10:39:14.438136,-84.0
2023-08-12 10:39:14.445826,-84.0
2023-08-12 10:39:14.453515,-84.0
2023-08-12 10:39:14.461205,-79.0
2023-08-12 10:39:14.468895,-77.0
2023-08-12 10:39:14.476585,-77.0
2023-08-12 10:39:14.484275,-84.0
2023-08-12 10:39:14.491964,-98.0
2023-08-12 10:39:14.499654,-48.0
2023-08-12 10:39:14.507344,171.0
2023-08-12 10:39:14.515034,559.0
2023-08-12 10:39:14.522724,624.0
2023-08-12 10:39:14.530413,19.0
2023-08-12 10:39:14.538103,-352.0
2023-08-12 10:39:14.545793,-19.0
2023-08-12 10:39:14.553483,110.0
2023-08-12 10:39:14.561172,-130.0
2023-08-12 10:39:14.568862,-147.0
2023-08-12 10:39:14.576552,-55.0
2023-08-12 10:39:14.584242,-101.0
2023-08-12 10:39:14.591932,-123.0
2023-08-12 10:39:14.599621,-84.0
2023-08-12 10:39:14.607311,-82.0
2023-08-12 10:39:14.615001,-91.0
2023-08-12 10:39:14.622691,-82.0
2023-08-12 10:39:14.630381,-79.0
2023-08-12 10:39:14.638070,-79.0
2023-08-12 10:39:14.645760,-69.0
2023-08-12 10:39:14.653450,-62.0
2023-08-12 10:39:14.661140,-60.0
2023-08-12 10:39:14.668830,-57.0
2023-08-12 10:39:14.676519,-55.0
2023-08-12 10:39:14.684209,-55.0
2023-08-12 10:39:14.691899,-48.0
2023-08-12 10:39:14.699589,-41.0
2023-08-12 10:39:14.707279,-38.0
2023-08-12 10:39:14.714968,-38.0
2023-08-12 10:39:14.722658,-36.0
2023-08-12 10:39:14.730348,-33.0
2023-08-12 10:39:14.738038,-33.0
2023-08-12 10:39:14.745727,-33.0
2023-08-12 10:39:14.753417,-33.0
2023-08-12 10:39:14.761107,-41.0
2023-08-12 10:39:14.768797,-45.0
2023-08-12 10:39:14.776487,-53.0
2023-08-12 10:39:14.784176,-60.0
2023-08-12 10:39:14.791866,-65.0
2023-08-12 10:39:14.799556,-67.0
2023-08-12 10:39:14.807246,-67.0
2023-08-12 10:39:14.814936,-72.0
2023-08-12 10:39:14.822625,-77.0
2023-08-12 10:39:14.830315,-84.0
2023-08-12 10:39:14.838005,-89.0
2023-08-12 10:39:14.845695,-101.0
2023-08-12 10:39:14.853385,-110.0
2023-08-12 10:39:14.861074,-110.0
2023-08-12 10:39:14.868764,-106.0
2023-08-12 10:39:14.876454,-106.0
2023-08-12 10:39:14.884144,-103.0
2023-08-12 10:39:14.891833,-103.0
2023-08-12 10:39:14.899523,-103.0
2023-08-12 10:39:14.907213,-98.0
2023-08-12 10:39:14.914903,-96.0
2023-08-12 10:39:14.922593,-91.0
2023-08-12 10:39:14.930282,-89.0
2023-08-12 10:39:14.937972,-86.0
2023-08-12 10:39:14.945662,-86.0
2023-08-12 10:39:14.953352,-84.0
2023-08-12 10:39:14.961042,-82.0
2023-08-12 10:39:14.968731,-77.0
2023-08-12 10:39:14.976421,-74.0
2023-08-12 10:39:14.984111,-74.0
2023-08-12 10:39:14.991801,-72.0
2023-08-12 10:39:14.999491,-67.0
2023-08-12 10:39:15.007180,-65.0
2023-08-12 10:39:15.014870,-65.0
2023-08-12 10:39:15.022560,-62.0
2023-08-12 10:39:15.030250,-65.0
2023-08-12 10:39:15.037940,-65.0
2023-08-12 10:39:15.045629,-65.0
2023-08-12 10:39:15.053319,-65.0
2023-08-12 10:39:15.061009,-65.0
2023-08-12 10:39:15.068699,-65.0
2023-08-12 10:39:15.076388,-62.0
2023-08-12 10:39:15.084078,-60.0
2023-08-12 10:39:15.091768,-60.0
2023-08-12 10:39:15.099458,-60.0
2023-08-12 10:39:15.107148,-57.0
2023-08-12 10:39:15.114837,-57.0
2023-08-12 10:39:15.122527,-60.0
2023-08-12 10:39:15.130217,-62.0
2023-08-12 10:39:15.137907,-67.0
2023-08-12 10:39:15.145597,-69.0
2023-08-12 10:39:15.153286,-72.0
2023-08-12 10:39:15.160976,-69.0
2023-08-12 10:39:15.168666,-65.0
2023-08-12 10:39:15.176356,-60.0
2023-08-12 10:39:15.184046,-43.0
2023-08-12 10:39:15.191735,-7.0
2023-08-12 10:39:15.199425,7.0
2023-08-12 10:39:15.207115,-14.0
2023-08-12 10:39:15.214805,-33.0
2023-08-12 10:39:15.222495,-41.0
2023-08-12 10:39:15.230184,-57.0
2023-08-12 10:39:15.237874,-74.0
2023-08-12 10:39:15.245564,-79.0
2023-08-12 10:39:15.253254,-79.0
2023-08-12 10:39:15.260943,-79.0
2023-08-12 10:39:15.268633,-77.0
2023-08-12 10:39:15.276323,-79.0
2023-08-12 10:39:15.284013,-79.0
2023-08-12 10:39:15.291703,-77.0
2023-08-12 10:39:15.299392,-82.0
2023-08-12 10:39:15.307082,-96.0
2023-08-12 10:39:15.314772,-62.0
2023-08-12 10:39:15.322462,108.0
2023-08-12 10:39:15.330152,472.0
2023-08-12 10:39:15.337841,658.0
2023-08-12 10:39:15.345531,161.0
2023-08-12 10:39:15.353221,-345.0
2023-08-12 10:39:15.360911,-118.0
2023-08-12 10:39:15.368601,108.0
2023-08-12 10:39:15.376290,-101.0
2023-08-12 10:39:15.383980,-183.0
2023-08-12 10:39:15.391670,-94.0
2023-08-12 10:39:15.399360,-118.0
2023-08-12 10:39:15.407050,-152.0
2023-08-12 10:39:15.414739,-115.0
2023-08-12 10:39:15.422429,-108.0
2023-08-12 10:39:15.430119,-120.0
2023-08-12 10:39:15.437809,-106.0
2023-08-12 10:39:15.445498,-94.0
2023-08-12 10:39:15.453188,-94.0
2023-08-12 10:39:15.460878,-89.0
2023-08-12 10:39:15.468568,-82.0
2023-08-12 10:39:15.476258,-77.0
2023-08-12 10:39:15.483947,-74.0
2023-08-12 10:39:15.491637,-69.0
2023-08-12 10:39:15.499327,-60.0
2023-08-12 10:39:15.507017,-53.0
2023-08-12 10:39:15.514707,-48.0
2023-08-12 10:39:15.522396,-45.0
2023-08-12 10:39:15.530086,-45.0
2023-08-12 10:39:15.537776,-41.0
2023-08-12 10:39:15.545466,-36.0
2023-08-12 10:39:15.553156,-36.0
2023-08-12 10:39:15.560845,-38.0
2023-08-12 10:39:15.568535,-38.0
2023-08-12 10:39:15.576225,-41.0
2023-08-12 10:39:15.583915,-45.0
2023-08-12 10:39:15.591605,-53.0
2023-08-12 10:39:15.599294,-55.0
2023-08-12 10:39:15.606984,-60.0
2023-08-12 10:39:15.614674,-67.0
2023-08-12 10:39:15.622364,-69.0
2023-08-12 10:39:15.630053,-72.0
2023-08-12 10:39:15.637743,-77.0
2023-08-12 10:39:15.645433,-79.0
2023-08-12 10:39:15.653123,-86.0
2023-08-12 10:39:15.660813,-94.0
2023-08-12 10:39:15.668502,-91.0
2023-08-12 10:39:15.676192,-89.0
2023-08-12 10:39:15.683882,-86.0
2023-08-12 10:39:15.691572,-86.0
2023-08-12 10:39:15.699262,-89.0
2023-08-12 10:39:15.706951,-89.0
2023-08-12 10:39:15.714641,-84.0
2023-08-12 10:39:15.722331,-79.0
2023-08-12 10:39:15.730021,-79.0
2023-08-12 10:39:15.737711,-74.0
2023-08-12 10:39:15.745400,-74.0
2023-08-12 10:39:15.753090,-77.0
2023-08-12 10:39:15.760780,-72.0
2023-08-12 10:39:15.768470,-69.0
2023-08-12 10:39:15.776160,-69.0
2023-08-12 10:39:15.783849,-69.0
2023-08-12 10:39:15.791539,-67.0
2023-08-12 10:39:15.799229,-67.0
2023-08-12 10:39:15.806919,-65.0
2023-08-12 10:39:15.814608,-60.0
2023-08-12 10:39:15.822298,-57.0
2023-08-12 10:39:15.829988,-57.0
2023-08-12 10:39:15.837678,-62.0
2023-08-12 10:39:15.845368,-67.0
2023-08-12 10:39:15.853057,-69.0
2023-08-12 10:39:15.860747,-69.0
2023-08-12 10:39:15.868437,-67.0
2023-08-12 10:39:15.876127,-65.0
2023-08-12 10:39:15.883817,-65.0
2023-08-12 10:39:15.891506,-62.0
2023-08-12 10:39:15.899196,-62.0
2023-08-12 10:39:15.906886,-62.0
2023-08-12 10:39:15.914576,-65.0
2023-08-12 10:39:15.922266,-69.0
2023-08-12 10:39:15.929955,-82.0
2023-08-12 10:39:15.937645,-84.0
2023-08-12 10:39:15.945335,-79.0
2023-08-12 10:39:15.953025,-77.0
2023-08-12 10:39:15.960715,-77.0
2023-08-12 10:39:15.968404,-79.0
2023-08-12 10:39:15.976094,-79.0
2023-08-12 10:39:15.983784,-72.0
2023-08-12 10:39:15.991474,-67.0
2023-08-12 10:39:15.999163,-57.0
2023-08-12 10:39:16.006853,-26.0
2023-08-12 10:39:16.014543,-2.0
2023-08-12 10:39:16.022233,-24.0
2023-08-12 10:39:16.029923,-45.0
2023-08-12 10:39:16.037612,-50.0
2023-08-12 10:39:16.045302,-65.0
2023-08-12 10:39:16.052992,-84.0
2023-08-12 10:39:16.060682,-89.0
2023-08-12 10:39:16.068372,-91.0
2023-08-12 10:39:16.076061,-89.0
2023-08-12 10:39:16.083751,-86.0
2023-08-12 10:39:16.091441,-86.0
2023-08-12 10:39:16.099131,-86.0
2023-08-12 10:39:16.106821,-86.0
2023-08-12 10:39:16.114510,-89.0
2023-08-12 10:39:16.122200,-101.0
2023-08-12 10:39:16.129890,-84.0
2023-08-12 10:39:16.137580,38.0
2023-08-12 10:39:16.145270,357.0
2023-08-12 10:39:16.152959,651.0
2023-08-12 10:39:16.160649,337.0
2023-08-12 10:39:16.168339,-279.0
2023-08-12 10:39:16.176029,-231.0
2023-08-12 10:39:16.183718,101.0
2023-08-12 10:39:16.191408,-21.0
2023-08-12 10:39:16.199098,-183.0
2023-08-12 10:39:16.206788,-96.0
2023-08-12 10:39:16.214478,-74.0
2023-08-12 10:39:16.222167,-127.0
2023-08-12 10:39:16.229857,-103.0
2023-08-12 10:39:16.237547,-79.0
2023-08-12 10:39:16.245237,-94.0
2023-08-12 10:39:16.252927,-89.0
2023-08-12 10:39:16.260616,-77.0
2023-08-12 10:39:16.268306,-82.0
2023-08-12 10:39:16.275996,-77.0
2023-08-12 10:39:16.283686,-65.0
2023-08-12 10:39:16.291376,-60.0
2023-08-12 10:39:16.299065,-60.0
2023-08-12 10:39:16.306755,-55.0
2023-08-12 10:39:16.314445,-50.0
2023-08-12 10:39:16.322135,-45.0
2023-08-12 10:39:16.329825,-41.0
2023-08-12 10:39:16.337514,-43.0
2023-08-12 10:39:16.345204,-38.0
2023-08-12 10:39:16.352894,-33.0
2023-08-12 10:39:16.360584,-36.0
2023-08-12 10:39:16.368273,-36.0
2023-08-12 10:39:16.375963,-36.0
2023-08-12 10:39:16.383653,-41.0
2023-08-12 10:39:16.391343,-43.0
2023-08-12 10:39:16.399033,-43.0
2023-08-12 10:39:16.406722,-53.0
2023-08-12 10:39:16.414412,-57.0
2023-08-12 10:39:16.422102,-60.0
2023-08-12 10:39:16.429792,-72.0
2023-08-12 10:39:16.437482,-77.0
2023-08-12 10:39:16.445171,-77.0
2023-08-12 10:39:16.452861,-84.0
2023-08-12 10:39:16.460551,-94.0
2023-08-12 10:39:16.468241,-96.0
2023-08-12 10:39:16.475931,-98.0
2023-08-12 10:39:16.483620,-98.0
2023-08-12 10:39:16.491310,-101.0
2023-08-12 10:39:16.499000,-101.0
2023-08-12 10:39:16.506690,-108.0
2023-08-12 10:39:16.514380,-120.0
2023-08-12 10:39:16.522069,-120.0
2023-08-12 10:39:16.529759,-110.0
2023-08-12 10:39:16.537449,-103.0
2023-08-12 10:39:16.545139,-106.0
2023-08-12 10:39:16.552828,-103.0
2023-08-12 10:39:16.560518,-96.0
2023-08-12 10:39:16.568208,-91.0
2023-08-12 10:39:16.575898,-91.0
2023-08-12 10:39:16.583588,-91.0
2023-08-12 10:39:16.591277,-89.0
2023-08-12 10:39:16.598967,-86.0
2023-08-12 10:39:16.606657,-79.0
2023-08-12 10:39:16.614347,-77.0
2023-08-12 10:39:16.622037,-69.0
2023-08-12 10:39:16.629726,-69.0
2023-08-12 10:39:16.637416,-74.0
2023-08-12 10:39:16.645106,-69.0
2023-08-12 10:39:16.652796,-60.0
2023-08-12 10:39:16.660486,-62.0
2023-08-12 10:39:16.668175,-62.0
2023-08-12 10:39:16.675865,-65.0
2023-08-12 10:39:16.683555,-65.0
2023-08-12 10:39:16.691245,-60.0
2023-08-12 10:39:16.698935,-55.0
2023-08-12 10:39:16.706624,-57.0
2023-08-12 10:39:16.714314,-62.0
2023-08-12 10:39:16.722004,-53.0
2023-08-12 10:39:16.729694,-55.0
2023-08-12 10:39:16.737383,-67.0
2023-08-12 10:39:16.745073,-67.0
2023-08-12 10:39:16.752763,-60.0
2023-08-12 10:39:16.760453,-62.0
2023-08-12 10:39:16.768143,-72.0
2023-08-12 10:39:16.775832,-72.0
2023-08-12 10:39:16.783522,-67.0
2023-08-12 10:39:16.791212,-60.0
2023-08-12 10:39:16.798902,-45.0
2023-08-12 10:39:16.806592,-14.0
2023-08-12 10:39:16.814281,9.0
2023-08-12 10:39:16.821971,-2.0
2023-08-12 10:39:16.829661,-26.0
2023-08-12 10:39:16.837351,-33.0
2023-08-12 10:39:16.845041,-53.0
2023-08-12 10:39:16.852730,-77.0
2023-08-12 10:39:16.860420,-84.0
2023-08-12 10:39:16.868110,-82.0
2023-08-12 10:39:16.875800,-84.0
2023-08-12 10:39:16.883490,-89.0
2023-08-12 10:39:16.891179,-89.0
2023-08-12 10:39:16.898869,-84.0
2023-08-12 10:39:16.906559,-82.0
2023-08-12 10:39:16.914249,-86.0
2023-08-12 10:39:16.921938,-94.0
2023-08-12 10:39:16.929628,-67.0
2023-08-12 10:39:16.937318,72.0
2023-08-12 10:39:16.945008,402.0
2023-08-12 10:39:16.952698,656.0
2023-08-12 10:39:16.960387,226.0
2023-08-12 10:39:16.968077,-446.0
2023-08-12 10:39:16.975767,-301.0
2023-08-12 10:39:16.983457,139.0
2023-08-12 10:39:16.991147,9.0
2023-08-12 10:39:16.998836,-178.0
2023-08-12 10:39:17.006526,-86.0
2023-08-12 10:39:17.014216,-67.0
2023-08-12 10:39:17.021906,-123.0
2023-08-12 10:39:17.029596,-94.0
2023-08-12 10:39:17.037285,-74.0
2023-08-12 10:39:17.044975,-94.0
2023-08-12 10:39:17.052665,-91.0
2023-08-12 10:39:17.060355,-74.0
2023-08-12 10:39:17.068045,-72.0
2023-08-12 10:39:17.075734,-72.0
2023-08-12 10:39:17.083424,-67.0
2023-08-12 10:39:17.091114,-65.0
2023-08-12 10:39:17.098804,-65.0
2023-08-12 10:39:17.106493,-62.0
2023-08-12 10:39:17.114183,-55.0
2023-08-12 10:39:17.121873,-50.0
2023-08-12 10:39:17.129563,-50.0
2023-08-12 10:39:17.137253,-43.0
2023-08-12 10:39:17.144942,-36.0
2023-08-12 10:39:17.152632,-26.0
2023-08-12 10:39:17.160322,-14.0
2023-08-12 10:39:17.168012,-16.0
2023-08-12 10:39:17.175702,-19.0
2023-08-12 10:39:17.183391,-9.0
2023-08-12 10:39:17.191081,-4.0
2023-08-12 10:39:17.198771,-12.0
2023-08-12 10:39:17.206461,-19.0
2023-08-12 10:39:17.214151,-24.0
2023-08-12 10:39:17.221840,-31.0
2023-08-12 10:39:17.229530,-45.0
2023-08-12 10:39:17.237220,-60.0
2023-08-12 10:39:17.244910,-77.0
2023-08-12 10:39:17.252600,-89.0
2023-08-12 10:39:17.260289,-98.0
2023-08-12 10:39:17.267979,-106.0
2023-08-12 10:39:17.275669,-110.0
2023-08-12 10:39:17.283359,-113.0
2023-08-12 10:39:17.291048,-110.0
2023-08-12 10:39:17.298738,-108.0
2023-08-12 10:39:17.306428,-110.0
2023-08-12 10:39:17.314118,-110.0
2023-08-12 10:39:17.321808,-108.0
2023-08-12 10:39:17.329497,-106.0
2023-08-12 10:39:17.337187,-98.0
2023-08-12 10:39:17.344877,-91.0
2023-08-12 10:39:17.352567,-91.0
2023-08-12 10:39:17.360257,-89.0
2023-08-12 10:39:17.367946,-89.0
2023-08-12 10:39:17.375636,-94.0
2023-08-12 10:39:17.383326,-96.0
2023-08-12 10:39:17.391016,-86.0
2023-08-12 10:39:17.398706,-79.0
2023-08-12 10:39:17.406395,-79.0
2023-08-12 10:39:17.414085,-74.0
2023-08-12 10:39:17.421775,-79.0
2023-08-12 10:39:17.429465,-84.0
2023-08-12 10:39:17.437154,-72.0
2023-08-12 10:39:17.444844,-65.0
2023-08-12 10:39:17.452534,-74.0
2023-08-12 10:39:17.460224,-79.0
2023-08-12 10:39:17.467914,-69.0
2023-08-12 10:39:17.475603,-67.0
2023-08-12 10:39:17.483293,-77.0
2023-08-12 10:39:17.490983,-77.0
2023-08-12 10:39:17.498673,-69.0
2023-08-12 10:39:17.506363,-74.0
2023-08-12 10:39:17.514052,-82.0
2023-08-12 10:39:17.521742,-79.0
2023-08-12 10:39:17.529432,-74.0
2023-08-12 10:39:17.537122,-79.0
2023-08-12 10:39:17.544812,-77.0
2023-08-12 10:39:17.552501,-53.0
2023-08-12 10:39:17.560191,-14.0
2023-08-12 10:39:17.567881,7.0
2023-08-12 10:39:17.575571,-7.0
2023-08-12 10:39:17.583261,-33.0
2023-08-12 10:39:17.590950,-48.0
2023-08-12 10:39:17.598640,-69.0
2023-08-12 10:39:17.606330,-86.0
2023-08-12 10:39:17.614020,-86.0
2023-08-12 10:39:17.621709,-84.0
2023-08-12 10:39:17.629399,-89.0
2023-08-12 10:39:17.637089,-91.0
2023-08-12 10:39:17.644779,-89.0
2023-08-12 10:39:17.652469,-84.0
2023-08-12 10:39:17.660158,-86.0
2023-08-12 10:39:17.667848,-96.0
2023-08-12 10:39:17.675538,-101.0
2023-08-12 10:39:17.683228,-53.0
2023-08-12 10:39:17.690918,142.0
2023-08-12 10:39:17.698607,526.0
2023-08-12 10:39:17.706297,634.0
2023-08-12 10:39:17.713987,-4.0
2023-08-12 10:39:17.721677,-499.0
2023-08-12 10:39:17.729367,-118.0
2023-08-12 10:39:17.737056,156.0
2023-08-12 10:39:17.744746,-96.0
2023-08-12 10:39:17.752436,-176.0
2023-08-12 10:39:17.760126,-60.0
2023-08-12 10:39:17.767816,-94.0
2023-08-12 10:39:17.775505,-139.0
2023-08-12 10:39:17.783195,-98.0
2023-08-12 10:39:17.790885,-89.0
2023-08-12 10:39:17.798575,-103.0
2023-08-12 10:39:17.806264,-94.0
2023-08-12 10:39:17.813954,-84.0
2023-08-12 10:39:17.821644,-82.0
2023-08-12 10:39:17.829334,-74.0
2023-08-12 10:39:17.837024,-74.0
2023-08-12 10:39:17.844713,-69.0
2023-08-12 10:39:17.852403,-60.0
2023-08-12 10:39:17.860093,-55.0
2023-08-12 10:39:17.867783,-50.0
2023-08-12 10:39:17.875473,-48.0
2023-08-12 10:39:17.883162,-45.0
2023-08-12 10:39:17.890852,-43.0
