time,ECG
2023-07-31 14:08:33.582586,-81.0
2023-07-31 14:08:33.590275,-119.0
2023-07-31 14:08:33.597964,-112.0
2023-07-31 14:08:33.605654,-83.0
2023-07-31 14:08:33.613343,-86.0
2023-07-31 14:08:33.621032,-86.0
2023-07-31 14:08:33.628722,-74.0
2023-07-31 14:08:33.636411,-64.0
2023-07-31 14:08:33.644100,-57.0
2023-07-31 14:08:33.651790,-47.0
2023-07-31 14:08:33.659479,-47.0
2023-07-31 14:08:33.667168,-43.0
2023-07-31 14:08:33.674858,-33.0
2023-07-31 14:08:33.682547,-28.0
2023-07-31 14:08:33.690236,-26.0
2023-07-31 14:08:33.697926,-21.0
2023-07-31 14:08:33.705615,-9.0
2023-07-31 14:08:33.713304,4.0
2023-07-31 14:08:33.720994,21.0
2023-07-31 14:08:33.728683,35.0
2023-07-31 14:08:33.736372,47.0
2023-07-31 14:08:33.744062,64.0
2023-07-31 14:08:33.751751,78.0
2023-07-31 14:08:33.759440,81.0
2023-07-31 14:08:33.767130,93.0
2023-07-31 14:08:33.774819,102.0
2023-07-31 14:08:33.782508,105.0
2023-07-31 14:08:33.790198,107.0
2023-07-31 14:08:33.797887,100.0
2023-07-31 14:08:33.805576,81.0
2023-07-31 14:08:33.813266,52.0
2023-07-31 14:08:33.820955,9.0
2023-07-31 14:08:33.828644,-40.0
2023-07-31 14:08:33.836334,-83.0
2023-07-31 14:08:33.844023,-122.0
2023-07-31 14:08:33.851712,-145.0
2023-07-31 14:08:33.859402,-157.0
2023-07-31 14:08:33.867091,-167.0
2023-07-31 14:08:33.874780,-169.0
2023-07-31 14:08:33.882470,-162.0
2023-07-31 14:08:33.890159,-157.0
2023-07-31 14:08:33.897848,-165.0
2023-07-31 14:08:33.905538,-157.0
2023-07-31 14:08:33.913227,-145.0
2023-07-31 14:08:33.920916,-143.0
2023-07-31 14:08:33.928606,-141.0
2023-07-31 14:08:33.936295,-138.0
2023-07-31 14:08:33.943985,-133.0
2023-07-31 14:08:33.951674,-122.0
2023-07-31 14:08:33.959363,-117.0
2023-07-31 14:08:33.967053,-122.0
2023-07-31 14:08:33.974742,-117.0
2023-07-31 14:08:33.982431,-107.0
2023-07-31 14:08:33.990121,-110.0
2023-07-31 14:08:33.997810,-114.0
2023-07-31 14:08:34.005499,-110.0
2023-07-31 14:08:34.013189,-105.0
2023-07-31 14:08:34.020878,-107.0
2023-07-31 14:08:34.028567,-112.0
2023-07-31 14:08:34.036257,-107.0
2023-07-31 14:08:34.043946,-102.0
2023-07-31 14:08:34.051635,-102.0
2023-07-31 14:08:34.059325,-105.0
2023-07-31 14:08:34.067014,-105.0
2023-07-31 14:08:34.074703,-95.0
2023-07-31 14:08:34.082393,-88.0
2023-07-31 14:08:34.090082,-95.0
2023-07-31 14:08:34.097771,-98.0
2023-07-31 14:08:34.105461,-100.0
2023-07-31 14:08:34.113150,-102.0
2023-07-31 14:08:34.120839,-95.0
2023-07-31 14:08:34.128529,-83.0
2023-07-31 14:08:34.136218,-71.0
2023-07-31 14:08:34.143907,-55.0
2023-07-31 14:08:34.151597,-43.0
2023-07-31 14:08:34.159286,-45.0
2023-07-31 14:08:34.166975,-55.0
2023-07-31 14:08:34.174665,-64.0
2023-07-31 14:08:34.182354,-76.0
2023-07-31 14:08:34.190043,-86.0
2023-07-31 14:08:34.197733,-90.0
2023-07-31 14:08:34.205422,-93.0
2023-07-31 14:08:34.213111,-90.0
2023-07-31 14:08:34.220801,-88.0
2023-07-31 14:08:34.228490,-88.0
2023-07-31 14:08:34.236179,-86.0
2023-07-31 14:08:34.243869,-83.0
2023-07-31 14:08:34.251558,-81.0
2023-07-31 14:08:34.259247,-78.0
2023-07-31 14:08:34.266937,-81.0
2023-07-31 14:08:34.274626,-88.0
2023-07-31 14:08:34.282315,47.0
2023-07-31 14:08:34.290005,509.0
2023-07-31 14:08:34.297694,1026.0
2023-07-31 14:08:34.305383,866.0
2023-07-31 14:08:34.313073,-47.0
2023-07-31 14:08:34.320762,-531.0
2023-07-31 14:08:34.328451,-184.0
2023-07-31 14:08:34.336141,-35.0
2023-07-31 14:08:34.343830,-200.0
2023-07-31 14:08:34.351519,-145.0
2023-07-31 14:08:34.359209,-69.0
2023-07-31 14:08:34.366898,-114.0
2023-07-31 14:08:34.374587,-107.0
2023-07-31 14:08:34.382277,-76.0
2023-07-31 14:08:34.389966,-90.0
2023-07-31 14:08:34.397655,-90.0
2023-07-31 14:08:34.405345,-69.0
2023-07-31 14:08:34.413034,-64.0
2023-07-31 14:08:34.420723,-59.0
2023-07-31 14:08:34.428413,-52.0
2023-07-31 14:08:34.436102,-47.0
2023-07-31 14:08:34.443791,-43.0
2023-07-31 14:08:34.451481,-31.0
2023-07-31 14:08:34.459170,-19.0
2023-07-31 14:08:34.466859,-16.0
2023-07-31 14:08:34.474549,-11.0
2023-07-31 14:08:34.482238,2.0
2023-07-31 14:08:34.489927,19.0
2023-07-31 14:08:34.497617,28.0
2023-07-31 14:08:34.505306,40.0
2023-07-31 14:08:34.512995,55.0
2023-07-31 14:08:34.520685,59.0
2023-07-31 14:08:34.528374,66.0
2023-07-31 14:08:34.536063,81.0
2023-07-31 14:08:34.543753,90.0
2023-07-31 14:08:34.551442,93.0
2023-07-31 14:08:34.559131,95.0
2023-07-31 14:08:34.566821,93.0
2023-07-31 14:08:34.574510,81.0
2023-07-31 14:08:34.582199,69.0
2023-07-31 14:08:34.589889,43.0
2023-07-31 14:08:34.597578,-4.0
2023-07-31 14:08:34.605267,-57.0
2023-07-31 14:08:34.612957,-102.0
2023-07-31 14:08:34.620646,-136.0
2023-07-31 14:08:34.628335,-153.0
2023-07-31 14:08:34.636025,-167.0
2023-07-31 14:08:34.643714,-174.0
2023-07-31 14:08:34.651403,-174.0
2023-07-31 14:08:34.659093,-174.0
2023-07-31 14:08:34.666782,-169.0
2023-07-31 14:08:34.674471,-160.0
2023-07-31 14:08:34.682161,-155.0
2023-07-31 14:08:34.689850,-150.0
2023-07-31 14:08:34.697540,-148.0
2023-07-31 14:08:34.705229,-148.0
2023-07-31 14:08:34.712918,-141.0
2023-07-31 14:08:34.720608,-133.0
2023-07-31 14:08:34.728297,-129.0
2023-07-31 14:08:34.735986,-122.0
2023-07-31 14:08:34.743676,-119.0
2023-07-31 14:08:34.751365,-119.0
2023-07-31 14:08:34.759054,-117.0
2023-07-31 14:08:34.766744,-114.0
2023-07-31 14:08:34.774433,-117.0
2023-07-31 14:08:34.782122,-117.0
2023-07-31 14:08:34.789812,-117.0
2023-07-31 14:08:34.797501,-119.0
2023-07-31 14:08:34.805190,-119.0
2023-07-31 14:08:34.812880,-114.0
2023-07-31 14:08:34.820569,-114.0
2023-07-31 14:08:34.828258,-114.0
2023-07-31 14:08:34.835948,-114.0
2023-07-31 14:08:34.843637,-114.0
2023-07-31 14:08:34.851326,-114.0
2023-07-31 14:08:34.859016,-112.0
2023-07-31 14:08:34.866705,-107.0
2023-07-31 14:08:34.874394,-105.0
2023-07-31 14:08:34.882084,-105.0
2023-07-31 14:08:34.889773,-102.0
2023-07-31 14:08:34.897462,-100.0
2023-07-31 14:08:34.905152,-100.0
2023-07-31 14:08:34.912841,-110.0
2023-07-31 14:08:34.920530,-119.0
2023-07-31 14:08:34.928220,-122.0
2023-07-31 14:08:34.935909,-110.0
2023-07-31 14:08:34.943598,-88.0
2023-07-31 14:08:34.951288,-69.0
2023-07-31 14:08:34.958977,-57.0
2023-07-31 14:08:34.966666,-50.0
2023-07-31 14:08:34.974356,-62.0
2023-07-31 14:08:34.982045,-81.0
2023-07-31 14:08:34.989734,-88.0
2023-07-31 14:08:34.997424,-86.0
2023-07-31 14:08:35.005113,-86.0
2023-07-31 14:08:35.012802,-90.0
2023-07-31 14:08:35.020492,-93.0
2023-07-31 14:08:35.028181,-90.0
2023-07-31 14:08:35.035870,-86.0
2023-07-31 14:08:35.043560,-83.0
2023-07-31 14:08:35.051249,-83.0
2023-07-31 14:08:35.058938,-86.0
2023-07-31 14:08:35.066628,-88.0
2023-07-31 14:08:35.074317,-93.0
2023-07-31 14:08:35.082006,-76.0
2023-07-31 14:08:35.089696,126.0
2023-07-31 14:08:35.097385,593.0
2023-07-31 14:08:35.105074,980.0
2023-07-31 14:08:35.112764,684.0
2023-07-31 14:08:35.120453,-181.0
2023-07-31 14:08:35.128142,-502.0
2023-07-31 14:08:35.135832,-148.0
2023-07-31 14:08:35.143521,-59.0
2023-07-31 14:08:35.151210,-198.0
2023-07-31 14:08:35.158900,-143.0
2023-07-31 14:08:35.166589,-93.0
2023-07-31 14:08:35.174278,-136.0
2023-07-31 14:08:35.181968,-126.0
2023-07-31 14:08:35.189657,-95.0
2023-07-31 14:08:35.197346,-105.0
2023-07-31 14:08:35.205036,-107.0
2023-07-31 14:08:35.212725,-93.0
2023-07-31 14:08:35.220414,-90.0
2023-07-31 14:08:35.228104,-88.0
2023-07-31 14:08:35.235793,-78.0
2023-07-31 14:08:35.243482,-69.0
2023-07-31 14:08:35.251172,-66.0
2023-07-31 14:08:35.258861,-59.0
2023-07-31 14:08:35.266550,-47.0
2023-07-31 14:08:35.274240,-38.0
2023-07-31 14:08:35.281929,-31.0
2023-07-31 14:08:35.289618,-19.0
2023-07-31 14:08:35.297308,-7.0
2023-07-31 14:08:35.304997,4.0
2023-07-31 14:08:35.312686,19.0
2023-07-31 14:08:35.320376,35.0
2023-07-31 14:08:35.328065,52.0
2023-07-31 14:08:35.335754,69.0
2023-07-31 14:08:35.343444,81.0
2023-07-31 14:08:35.351133,88.0
2023-07-31 14:08:35.358822,93.0
2023-07-31 14:08:35.366512,100.0
2023-07-31 14:08:35.374201,98.0
2023-07-31 14:08:35.381890,93.0
2023-07-31 14:08:35.389580,76.0
2023-07-31 14:08:35.397269,43.0
2023-07-31 14:08:35.404958,-7.0
2023-07-31 14:08:35.412648,-59.0
2023-07-31 14:08:35.420337,-102.0
2023-07-31 14:08:35.428026,-133.0
2023-07-31 14:08:35.435716,-155.0
2023-07-31 14:08:35.443405,-165.0
2023-07-31 14:08:35.451095,-172.0
2023-07-31 14:08:35.458784,-172.0
2023-07-31 14:08:35.466473,-172.0
2023-07-31 14:08:35.474163,-167.0
2023-07-31 14:08:35.481852,-160.0
2023-07-31 14:08:35.489541,-153.0
2023-07-31 14:08:35.497231,-148.0
2023-07-31 14:08:35.504920,-145.0
2023-07-31 14:08:35.512609,-145.0
2023-07-31 14:08:35.520299,-143.0
2023-07-31 14:08:35.527988,-136.0
2023-07-31 14:08:35.535677,-131.0
2023-07-31 14:08:35.543367,-126.0
2023-07-31 14:08:35.551056,-124.0
2023-07-31 14:08:35.558745,-124.0
2023-07-31 14:08:35.566435,-119.0
2023-07-31 14:08:35.574124,-112.0
2023-07-31 14:08:35.581813,-114.0
2023-07-31 14:08:35.589503,-114.0
2023-07-31 14:08:35.597192,-114.0
2023-07-31 14:08:35.604881,-119.0
2023-07-31 14:08:35.612571,-122.0
2023-07-31 14:08:35.620260,-119.0
2023-07-31 14:08:35.627949,-114.0
2023-07-31 14:08:35.635639,-114.0
2023-07-31 14:08:35.643328,-114.0
2023-07-31 14:08:35.651017,-117.0
2023-07-31 14:08:35.658707,-117.0
2023-07-31 14:08:35.666396,-114.0
2023-07-31 14:08:35.674085,-110.0
2023-07-31 14:08:35.681775,-107.0
2023-07-31 14:08:35.689464,-107.0
2023-07-31 14:08:35.697153,-105.0
2023-07-31 14:08:35.704843,-110.0
2023-07-31 14:08:35.712532,-119.0
2023-07-31 14:08:35.720221,-119.0
2023-07-31 14:08:35.727911,-112.0
2023-07-31 14:08:35.735600,-105.0
2023-07-31 14:08:35.743289,-86.0
2023-07-31 14:08:35.750979,-64.0
2023-07-31 14:08:35.758668,-52.0
2023-07-31 14:08:35.766357,-50.0
2023-07-31 14:08:35.774047,-62.0
2023-07-31 14:08:35.781736,-81.0
2023-07-31 14:08:35.789425,-86.0
2023-07-31 14:08:35.797115,-86.0
2023-07-31 14:08:35.804804,-86.0
2023-07-31 14:08:35.812493,-86.0
2023-07-31 14:08:35.820183,-83.0
2023-07-31 14:08:35.827872,-81.0
2023-07-31 14:08:35.835561,-81.0
2023-07-31 14:08:35.843251,-81.0
2023-07-31 14:08:35.850940,-81.0
2023-07-31 14:08:35.858629,-76.0
2023-07-31 14:08:35.866319,-71.0
2023-07-31 14:08:35.874008,-81.0
2023-07-31 14:08:35.881697,-62.0
2023-07-31 14:08:35.889387,162.0
2023-07-31 14:08:35.897076,638.0
2023-07-31 14:08:35.904765,976.0
2023-07-31 14:08:35.912455,598.0
2023-07-31 14:08:35.920144,-258.0
2023-07-31 14:08:35.927833,-480.0
2023-07-31 14:08:35.935523,-114.0
2023-07-31 14:08:35.943212,-64.0
2023-07-31 14:08:35.950901,-181.0
2023-07-31 14:08:35.958591,-112.0
2023-07-31 14:08:35.966280,-81.0
2023-07-31 14:08:35.973969,-122.0
2023-07-31 14:08:35.981659,-102.0
2023-07-31 14:08:35.989348,-76.0
2023-07-31 14:08:35.997037,-83.0
2023-07-31 14:08:36.004727,-78.0
2023-07-31 14:08:36.012416,-64.0
2023-07-31 14:08:36.020105,-64.0
2023-07-31 14:08:36.027795,-57.0
2023-07-31 14:08:36.035484,-45.0
2023-07-31 14:08:36.043173,-43.0
2023-07-31 14:08:36.050863,-35.0
2023-07-31 14:08:36.058552,-28.0
2023-07-31 14:08:36.066241,-26.0
2023-07-31 14:08:36.073931,-16.0
2023-07-31 14:08:36.081620,-4.0
2023-07-31 14:08:36.089309,4.0
2023-07-31 14:08:36.096999,16.0
2023-07-31 14:08:36.104688,31.0
2023-07-31 14:08:36.112377,45.0
2023-07-31 14:08:36.120067,59.0
2023-07-31 14:08:36.127756,76.0
2023-07-31 14:08:36.135445,90.0
2023-07-31 14:08:36.143135,98.0
2023-07-31 14:08:36.150824,100.0
2023-07-31 14:08:36.158513,102.0
2023-07-31 14:08:36.166203,105.0
2023-07-31 14:08:36.173892,102.0
2023-07-31 14:08:36.181581,98.0
2023-07-31 14:08:36.189271,69.0
2023-07-31 14:08:36.196960,26.0
2023-07-31 14:08:36.204649,-26.0
2023-07-31 14:08:36.212339,-76.0
2023-07-31 14:08:36.220028,-119.0
2023-07-31 14:08:36.227718,-150.0
2023-07-31 14:08:36.235407,-172.0
2023-07-31 14:08:36.243096,-181.0
2023-07-31 14:08:36.250786,-181.0
2023-07-31 14:08:36.258475,-181.0
2023-07-31 14:08:36.266164,-179.0
2023-07-31 14:08:36.273854,-179.0
2023-07-31 14:08:36.281543,-174.0
2023-07-31 14:08:36.289232,-165.0
2023-07-31 14:08:36.296922,-157.0
2023-07-31 14:08:36.304611,-150.0
2023-07-31 14:08:36.312300,-145.0
2023-07-31 14:08:36.319990,-145.0
2023-07-31 14:08:36.327679,-141.0
2023-07-31 14:08:36.335368,-131.0
2023-07-31 14:08:36.343058,-124.0
2023-07-31 14:08:36.350747,-119.0
2023-07-31 14:08:36.358436,-114.0
2023-07-31 14:08:36.366126,-112.0
2023-07-31 14:08:36.373815,-110.0
2023-07-31 14:08:36.381504,-107.0
2023-07-31 14:08:36.389194,-107.0
2023-07-31 14:08:36.396883,-107.0
2023-07-31 14:08:36.404572,-107.0
2023-07-31 14:08:36.412262,-114.0
2023-07-31 14:08:36.419951,-117.0
2023-07-31 14:08:36.427640,-112.0
2023-07-31 14:08:36.435330,-110.0
2023-07-31 14:08:36.443019,-107.0
2023-07-31 14:08:36.450708,-102.0
2023-07-31 14:08:36.458398,-102.0
2023-07-31 14:08:36.466087,-102.0
2023-07-31 14:08:36.473776,-100.0
2023-07-31 14:08:36.481466,-98.0
2023-07-31 14:08:36.489155,-98.0
2023-07-31 14:08:36.496844,-100.0
2023-07-31 14:08:36.504534,-107.0
2023-07-31 14:08:36.512223,-107.0
2023-07-31 14:08:36.519912,-100.0
2023-07-31 14:08:36.527602,-90.0
2023-07-31 14:08:36.535291,-71.0
2023-07-31 14:08:36.542980,-55.0
2023-07-31 14:08:36.550670,-43.0
2023-07-31 14:08:36.558359,-38.0
2023-07-31 14:08:36.566048,-47.0
2023-07-31 14:08:36.573738,-64.0
2023-07-31 14:08:36.581427,-74.0
2023-07-31 14:08:36.589116,-76.0
2023-07-31 14:08:36.596806,-78.0
2023-07-31 14:08:36.604495,-78.0
2023-07-31 14:08:36.612184,-74.0
2023-07-31 14:08:36.619874,-76.0
2023-07-31 14:08:36.627563,-74.0
2023-07-31 14:08:36.635252,-69.0
2023-07-31 14:08:36.642942,-69.0
2023-07-31 14:08:36.650631,-69.0
2023-07-31 14:08:36.658320,-64.0
2023-07-31 14:08:36.666010,-69.0
2023-07-31 14:08:36.673699,-62.0
2023-07-31 14:08:36.681388,131.0
2023-07-31 14:08:36.689078,581.0
2023-07-31 14:08:36.696767,961.0
2023-07-31 14:08:36.704456,679.0
2023-07-31 14:08:36.712146,-162.0
2023-07-31 14:08:36.719835,-488.0
2023-07-31 14:08:36.727524,-153.0
2023-07-31 14:08:36.735214,-57.0
2023-07-31 14:08:36.742903,-177.0
2023-07-31 14:08:36.750592,-122.0
2023-07-31 14:08:36.758282,-78.0
2023-07-31 14:08:36.765971,-119.0
2023-07-31 14:08:36.773660,-105.0
2023-07-31 14:08:36.781350,-71.0
2023-07-31 14:08:36.789039,-76.0
2023-07-31 14:08:36.796728,-74.0
2023-07-31 14:08:36.804418,-62.0
2023-07-31 14:08:36.812107,-57.0
2023-07-31 14:08:36.819796,-55.0
2023-07-31 14:08:36.827486,-45.0
2023-07-31 14:08:36.835175,-35.0
2023-07-31 14:08:36.842864,-33.0
2023-07-31 14:08:36.850554,-26.0
2023-07-31 14:08:36.858243,-14.0
2023-07-31 14:08:36.865932,-4.0
2023-07-31 14:08:36.873622,4.0
2023-07-31 14:08:36.881311,11.0
2023-07-31 14:08:36.889000,21.0
2023-07-31 14:08:36.896690,33.0
2023-07-31 14:08:36.904379,47.0
2023-07-31 14:08:36.912068,69.0
2023-07-31 14:08:36.919758,90.0
2023-07-31 14:08:36.927447,102.0
2023-07-31 14:08:36.935136,110.0
2023-07-31 14:08:36.942826,122.0
2023-07-31 14:08:36.950515,129.0
2023-07-31 14:08:36.958204,129.0
2023-07-31 14:08:36.965894,131.0
2023-07-31 14:08:36.973583,126.0
2023-07-31 14:08:36.981273,107.0
2023-07-31 14:08:36.988962,69.0
2023-07-31 14:08:36.996651,19.0
2023-07-31 14:08:37.004341,-31.0
2023-07-31 14:08:37.012030,-74.0
2023-07-31 14:08:37.019719,-102.0
2023-07-31 14:08:37.027409,-124.0
2023-07-31 14:08:37.035098,-136.0
2023-07-31 14:08:37.042787,-143.0
2023-07-31 14:08:37.050477,-145.0
2023-07-31 14:08:37.058166,-141.0
2023-07-31 14:08:37.065855,-136.0
2023-07-31 14:08:37.073545,-133.0
2023-07-31 14:08:37.081234,-136.0
2023-07-31 14:08:37.088923,-133.0
2023-07-31 14:08:37.096613,-126.0
2023-07-31 14:08:37.104302,-114.0
2023-07-31 14:08:37.111991,-112.0
2023-07-31 14:08:37.119681,-107.0
2023-07-31 14:08:37.127370,-95.0
2023-07-31 14:08:37.135059,-93.0
2023-07-31 14:08:37.142749,-95.0
2023-07-31 14:08:37.150438,-93.0
2023-07-31 14:08:37.158127,-93.0
2023-07-31 14:08:37.165817,-93.0
2023-07-31 14:08:37.173506,-90.0
2023-07-31 14:08:37.181195,-90.0
2023-07-31 14:08:37.188885,-90.0
2023-07-31 14:08:37.196574,-86.0
2023-07-31 14:08:37.204263,-83.0
2023-07-31 14:08:37.211953,-81.0
2023-07-31 14:08:37.219642,-86.0
2023-07-31 14:08:37.227331,-93.0
2023-07-31 14:08:37.235021,-93.0
2023-07-31 14:08:37.242710,-86.0
2023-07-31 14:08:37.250399,-83.0
2023-07-31 14:08:37.258089,-86.0
2023-07-31 14:08:37.265778,-90.0
2023-07-31 14:08:37.273467,-100.0
2023-07-31 14:08:37.281157,-110.0
2023-07-31 14:08:37.288846,-110.0
2023-07-31 14:08:37.296535,-95.0
2023-07-31 14:08:37.304225,-71.0
2023-07-31 14:08:37.311914,-57.0
2023-07-31 14:08:37.319603,-43.0
2023-07-31 14:08:37.327293,-33.0
2023-07-31 14:08:37.334982,-47.0
2023-07-31 14:08:37.342671,-71.0
2023-07-31 14:08:37.350361,-81.0
2023-07-31 14:08:37.358050,-83.0
2023-07-31 14:08:37.365739,-78.0
2023-07-31 14:08:37.373429,-74.0
2023-07-31 14:08:37.381118,-83.0
2023-07-31 14:08:37.388807,-98.0
2023-07-31 14:08:37.396497,-90.0
2023-07-31 14:08:37.404186,-78.0
2023-07-31 14:08:37.411875,-86.0
2023-07-31 14:08:37.419565,-86.0
2023-07-31 14:08:37.427254,-74.0
2023-07-31 14:08:37.434943,-76.0
2023-07-31 14:08:37.442633,-90.0
2023-07-31 14:08:37.450322,47.0
2023-07-31 14:08:37.458011,514.0
2023-07-31 14:08:37.465701,1024.0
2023-07-31 14:08:37.473390,851.0
2023-07-31 14:08:37.481079,-59.0
2023-07-31 14:08:37.488769,-545.0
2023-07-31 14:08:37.496458,-200.0
2023-07-31 14:08:37.504147,-45.0
2023-07-31 14:08:37.511837,-205.0
2023-07-31 14:08:37.519526,-148.0
2023-07-31 14:08:37.527215,-69.0
2023-07-31 14:08:37.534905,-119.0
2023-07-31 14:08:37.542594,-119.0
2023-07-31 14:08:37.550283,-78.0
2023-07-31 14:08:37.557973,-86.0
2023-07-31 14:08:37.565662,-93.0
2023-07-31 14:08:37.573351,-74.0
2023-07-31 14:08:37.581041,-62.0
2023-07-31 14:08:37.588730,-59.0
2023-07-31 14:08:37.596419,-55.0
2023-07-31 14:08:37.604109,-47.0
2023-07-31 14:08:37.611798,-40.0
2023-07-31 14:08:37.619487,-35.0
2023-07-31 14:08:37.627177,-26.0
2023-07-31 14:08:37.634866,-16.0
2023-07-31 14:08:37.642555,-9.0
2023-07-31 14:08:37.650245,-2.0
2023-07-31 14:08:37.657934,11.0
2023-07-31 14:08:37.665623,28.0
2023-07-31 14:08:37.673313,43.0
2023-07-31 14:08:37.681002,55.0
2023-07-31 14:08:37.688691,71.0
2023-07-31 14:08:37.696381,88.0
2023-07-31 14:08:37.704070,100.0
2023-07-31 14:08:37.711759,110.0
2023-07-31 14:08:37.719449,112.0
2023-07-31 14:08:37.727138,112.0
2023-07-31 14:08:37.734828,110.0
2023-07-31 14:08:37.742517,102.0
2023-07-31 14:08:37.750206,83.0
2023-07-31 14:08:37.757896,43.0
2023-07-31 14:08:37.765585,-14.0
2023-07-31 14:08:37.773274,-69.0
2023-07-31 14:08:37.780964,-110.0
2023-07-31 14:08:37.788653,-141.0
2023-07-31 14:08:37.796342,-169.0
2023-07-31 14:08:37.804032,-191.0
2023-07-31 14:08:37.811721,-200.0
2023-07-31 14:08:37.819410,-203.0
2023-07-31 14:08:37.827100,-198.0
2023-07-31 14:08:37.834789,-189.0
2023-07-31 14:08:37.842478,-184.0
2023-07-31 14:08:37.850168,-184.0
2023-07-31 14:08:37.857857,-179.0
2023-07-31 14:08:37.865546,-172.0
2023-07-31 14:08:37.873236,-162.0
2023-07-31 14:08:37.880925,-160.0
2023-07-31 14:08:37.888614,-157.0
2023-07-31 14:08:37.896304,-150.0
2023-07-31 14:08:37.903993,-143.0
2023-07-31 14:08:37.911682,-138.0
2023-07-31 14:08:37.919372,-133.0
2023-07-31 14:08:37.927061,-131.0
2023-07-31 14:08:37.934750,-129.0
2023-07-31 14:08:37.942440,-131.0
2023-07-31 14:08:37.950129,-131.0
2023-07-31 14:08:37.957818,-126.0
2023-07-31 14:08:37.965508,-124.0
2023-07-31 14:08:37.973197,-124.0
2023-07-31 14:08:37.980886,-126.0
2023-07-31 14:08:37.988576,-131.0
2023-07-31 14:08:37.996265,-129.0
2023-07-31 14:08:38.003954,-122.0
2023-07-31 14:08:38.011644,-119.0
2023-07-31 14:08:38.019333,-122.0
2023-07-31 14:08:38.027022,-126.0
2023-07-31 14:08:38.034712,-124.0
2023-07-31 14:08:38.042401,-117.0
2023-07-31 14:08:38.050090,-98.0
2023-07-31 14:08:38.057780,-78.0
2023-07-31 14:08:38.065469,-71.0
2023-07-31 14:08:38.073158,-71.0
2023-07-31 14:08:38.080848,-69.0
2023-07-31 14:08:38.088537,-81.0
2023-07-31 14:08:38.096226,-100.0
2023-07-31 14:08:38.103916,-107.0
2023-07-31 14:08:38.111605,-107.0
2023-07-31 14:08:38.119294,-112.0
2023-07-31 14:08:38.126984,-112.0
2023-07-31 14:08:38.134673,-112.0
2023-07-31 14:08:38.142362,-107.0
2023-07-31 14:08:38.150052,-102.0
2023-07-31 14:08:38.157741,-102.0
2023-07-31 14:08:38.165430,-107.0
2023-07-31 14:08:38.173120,-105.0
2023-07-31 14:08:38.180809,-95.0
2023-07-31 14:08:38.188498,-98.0
2023-07-31 14:08:38.196188,-112.0
2023-07-31 14:08:38.203877,31.0
2023-07-31 14:08:38.211566,492.0
2023-07-31 14:08:38.219256,1000.0
2023-07-31 14:08:38.226945,861.0
2023-07-31 14:08:38.234634,-35.0
2023-07-31 14:08:38.242324,-557.0
2023-07-31 14:08:38.250013,-236.0
2023-07-31 14:08:38.257702,-62.0
2023-07-31 14:08:38.265392,-217.0
2023-07-31 14:08:38.273081,-181.0
2023-07-31 14:08:38.280770,-102.0
2023-07-31 14:08:38.288460,-145.0
2023-07-31 14:08:38.296149,-148.0
2023-07-31 14:08:38.303838,-114.0
2023-07-31 14:08:38.311528,-119.0
2023-07-31 14:08:38.319217,-117.0
2023-07-31 14:08:38.326906,-98.0
2023-07-31 14:08:38.334596,-90.0
2023-07-31 14:08:38.342285,-88.0
2023-07-31 14:08:38.349974,-78.0
2023-07-31 14:08:38.357664,-69.0
2023-07-31 14:08:38.365353,-64.0
2023-07-31 14:08:38.373042,-55.0
2023-07-31 14:08:38.380732,-45.0
2023-07-31 14:08:38.388421,-40.0
2023-07-31 14:08:38.396110,-35.0
2023-07-31 14:08:38.403800,-26.0
2023-07-31 14:08:38.411489,-9.0
2023-07-31 14:08:38.419178,4.0
2023-07-31 14:08:38.426868,23.0
2023-07-31 14:08:38.434557,38.0
2023-07-31 14:08:38.442246,45.0
2023-07-31 14:08:38.449936,59.0
2023-07-31 14:08:38.457625,74.0
2023-07-31 14:08:38.465314,81.0
2023-07-31 14:08:38.473004,86.0
2023-07-31 14:08:38.480693,88.0
2023-07-31 14:08:38.488383,86.0
2023-07-31 14:08:38.496072,78.0
2023-07-31 14:08:38.503761,62.0
2023-07-31 14:08:38.511451,21.0
2023-07-31 14:08:38.519140,-31.0
2023-07-31 14:08:38.526829,-86.0
2023-07-31 14:08:38.534519,-124.0
2023-07-31 14:08:38.542208,-150.0
2023-07-31 14:08:38.549897,-172.0
2023-07-31 14:08:38.557587,-184.0
2023-07-31 14:08:38.565276,-186.0
2023-07-31 14:08:38.572965,-186.0
2023-07-31 14:08:38.580655,-184.0
2023-07-31 14:08:38.588344,-179.0
2023-07-31 14:08:38.596033,-174.0
2023-07-31 14:08:38.603723,-169.0
2023-07-31 14:08:38.611412,-165.0
2023-07-31 14:08:38.619101,-160.0
2023-07-31 14:08:38.626791,-153.0
2023-07-31 14:08:38.634480,-148.0
2023-07-31 14:08:38.642169,-143.0
2023-07-31 14:08:38.649859,-141.0
2023-07-31 14:08:38.657548,-133.0
2023-07-31 14:08:38.665237,-131.0
2023-07-31 14:08:38.672927,-129.0
2023-07-31 14:08:38.680616,-124.0
2023-07-31 14:08:38.688305,-119.0
2023-07-31 14:08:38.695995,-119.0
2023-07-31 14:08:38.703684,-119.0
2023-07-31 14:08:38.711373,-119.0
2023-07-31 14:08:38.719063,-117.0
2023-07-31 14:08:38.726752,-114.0
2023-07-31 14:08:38.734441,-117.0
2023-07-31 14:08:38.742131,-122.0
2023-07-31 14:08:38.749820,-124.0
2023-07-31 14:08:38.757509,-122.0
2023-07-31 14:08:38.765199,-119.0
2023-07-31 14:08:38.772888,-114.0
2023-07-31 14:08:38.780577,-110.0
2023-07-31 14:08:38.788267,-107.0
2023-07-31 14:08:38.795956,-105.0
2023-07-31 14:08:38.803645,-112.0
2023-07-31 14:08:38.811335,-119.0
2023-07-31 14:08:38.819024,-117.0
2023-07-31 14:08:38.826713,-112.0
2023-07-31 14:08:38.834403,-107.0
2023-07-31 14:08:38.842092,-90.0
2023-07-31 14:08:38.849781,-74.0
2023-07-31 14:08:38.857471,-62.0
2023-07-31 14:08:38.865160,-55.0
2023-07-31 14:08:38.872849,-57.0
2023-07-31 14:08:38.880539,-71.0
2023-07-31 14:08:38.888228,-86.0
2023-07-31 14:08:38.895917,-93.0
2023-07-31 14:08:38.903607,-90.0
2023-07-31 14:08:38.911296,-90.0
2023-07-31 14:08:38.918985,-88.0
2023-07-31 14:08:38.926675,-88.0
2023-07-31 14:08:38.934364,-90.0
2023-07-31 14:08:38.942053,-88.0
2023-07-31 14:08:38.949743,-83.0
2023-07-31 14:08:38.957432,-83.0
2023-07-31 14:08:38.965121,-76.0
2023-07-31 14:08:38.972811,-76.0
2023-07-31 14:08:38.980500,-86.0
2023-07-31 14:08:38.988189,19.0
2023-07-31 14:08:38.995879,397.0
2023-07-31 14:08:39.003568,885.0
2023-07-31 14:08:39.011257,913.0
2023-07-31 14:08:39.018947,157.0
2023-07-31 14:08:39.026636,-512.0
2023-07-31 14:08:39.034325,-318.0
2023-07-31 14:08:39.042015,-43.0
2023-07-31 14:08:39.049704,-162.0
2023-07-31 14:08:39.057393,-184.0
2023-07-31 14:08:39.065083,-98.0
2023-07-31 14:08:39.072772,-119.0
2023-07-31 14:08:39.080461,-141.0
2023-07-31 14:08:39.088151,-107.0
2023-07-31 14:08:39.095840,-98.0
2023-07-31 14:08:39.103529,-105.0
2023-07-31 14:08:39.111219,-98.0
2023-07-31 14:08:39.118908,-88.0
2023-07-31 14:08:39.126597,-81.0
2023-07-31 14:08:39.134287,-76.0
2023-07-31 14:08:39.141976,-69.0
2023-07-31 14:08:39.149665,-59.0
2023-07-31 14:08:39.157355,-50.0
2023-07-31 14:08:39.165044,-43.0
2023-07-31 14:08:39.172733,-35.0
2023-07-31 14:08:39.180423,-21.0
2023-07-31 14:08:39.188112,-7.0
2023-07-31 14:08:39.195801,4.0
2023-07-31 14:08:39.203491,19.0
2023-07-31 14:08:39.211180,35.0
2023-07-31 14:08:39.218869,52.0
2023-07-31 14:08:39.226559,66.0
2023-07-31 14:08:39.234248,88.0
2023-07-31 14:08:39.241938,102.0
2023-07-31 14:08:39.249627,110.0
2023-07-31 14:08:39.257316,112.0
2023-07-31 14:08:39.265006,119.0
2023-07-31 14:08:39.272695,119.0
2023-07-31 14:08:39.280384,110.0
2023-07-31 14:08:39.288074,95.0
2023-07-31 14:08:39.295763,64.0
2023-07-31 14:08:39.303452,9.0
2023-07-31 14:08:39.311142,-47.0
2023-07-31 14:08:39.318831,-93.0
2023-07-31 14:08:39.326520,-126.0
2023-07-31 14:08:39.334210,-150.0
2023-07-31 14:08:39.341899,-167.0
2023-07-31 14:08:39.349588,-177.0
2023-07-31 14:08:39.357278,-181.0
2023-07-31 14:08:39.364967,-184.0
2023-07-31 14:08:39.372656,-179.0
2023-07-31 14:08:39.380346,-172.0
2023-07-31 14:08:39.388035,-167.0
2023-07-31 14:08:39.395724,-165.0
2023-07-31 14:08:39.403414,-162.0
2023-07-31 14:08:39.411103,-157.0
2023-07-31 14:08:39.418792,-150.0
2023-07-31 14:08:39.426482,-148.0
2023-07-31 14:08:39.434171,-145.0
2023-07-31 14:08:39.441860,-141.0
2023-07-31 14:08:39.449550,-133.0
2023-07-31 14:08:39.457239,-129.0
2023-07-31 14:08:39.464928,-129.0
2023-07-31 14:08:39.472618,-124.0
2023-07-31 14:08:39.480307,-119.0
2023-07-31 14:08:39.487996,-122.0
2023-07-31 14:08:39.495686,-122.0
2023-07-31 14:08:39.503375,-122.0
2023-07-31 14:08:39.511064,-124.0
2023-07-31 14:08:39.518754,-131.0
2023-07-31 14:08:39.526443,-133.0
2023-07-31 14:08:39.534132,-129.0
2023-07-31 14:08:39.541822,-129.0
2023-07-31 14:08:39.549511,-129.0
2023-07-31 14:08:39.557200,-122.0
2023-07-31 14:08:39.564890,-122.0
2023-07-31 14:08:39.572579,-124.0
2023-07-31 14:08:39.580268,-122.0
2023-07-31 14:08:39.587958,-114.0
2023-07-31 14:08:39.595647,-119.0
2023-07-31 14:08:39.603336,-126.0
2023-07-31 14:08:39.611026,-126.0
2023-07-31 14:08:39.618715,-124.0
2023-07-31 14:08:39.626404,-114.0
2023-07-31 14:08:39.634094,-95.0
2023-07-31 14:08:39.641783,-78.0
2023-07-31 14:08:39.649472,-66.0
2023-07-31 14:08:39.657162,-55.0
2023-07-31 14:08:39.664851,-62.0
2023-07-31 14:08:39.672540,-81.0
2023-07-31 14:08:39.680230,-90.0
2023-07-31 14:08:39.687919,-88.0
2023-07-31 14:08:39.695608,-88.0
2023-07-31 14:08:39.703298,-90.0
2023-07-31 14:08:39.710987,-86.0
2023-07-31 14:08:39.718676,-86.0
2023-07-31 14:08:39.726366,-88.0
2023-07-31 14:08:39.734055,-81.0
2023-07-31 14:08:39.741744,-74.0
2023-07-31 14:08:39.749434,-74.0
2023-07-31 14:08:39.757123,-74.0
2023-07-31 14:08:39.764812,-78.0
2023-07-31 14:08:39.772502,-71.0
2023-07-31 14:08:39.780191,100.0
2023-07-31 14:08:39.787880,535.0
2023-07-31 14:08:39.795570,947.0
2023-07-31 14:08:39.803259,744.0
2023-07-31 14:08:39.810948,-81.0
2023-07-31 14:08:39.818638,-485.0
2023-07-31 14:08:39.826327,-165.0
2023-07-31 14:08:39.834016,-21.0
2023-07-31 14:08:39.841706,-155.0
2023-07-31 14:08:39.849395,-122.0
2023-07-31 14:08:39.857084,-64.0
2023-07-31 14:08:39.864774,-98.0
2023-07-31 14:08:39.872463,-100.0
2023-07-31 14:08:39.880152,-71.0
2023-07-31 14:08:39.887842,-69.0
2023-07-31 14:08:39.895531,-66.0
2023-07-31 14:08:39.903220,-57.0
2023-07-31 14:08:39.910910,-52.0
2023-07-31 14:08:39.918599,-52.0
2023-07-31 14:08:39.926288,-43.0
2023-07-31 14:08:39.933978,-31.0
2023-07-31 14:08:39.941667,-26.0
2023-07-31 14:08:39.949356,-19.0
2023-07-31 14:08:39.957046,-11.0
2023-07-31 14:08:39.964735,-4.0
2023-07-31 14:08:39.972424,9.0
2023-07-31 14:08:39.980114,26.0
2023-07-31 14:08:39.987803,38.0
2023-07-31 14:08:39.995493,52.0
2023-07-31 14:08:40.003182,69.0
2023-07-31 14:08:40.010871,78.0
2023-07-31 14:08:40.018561,88.0
2023-07-31 14:08:40.026250,105.0
2023-07-31 14:08:40.033939,117.0
2023-07-31 14:08:40.041629,124.0
2023-07-31 14:08:40.049318,126.0
2023-07-31 14:08:40.057007,119.0
2023-07-31 14:08:40.064697,110.0
2023-07-31 14:08:40.072386,102.0
2023-07-31 14:08:40.080075,81.0
2023-07-31 14:08:40.087765,35.0
2023-07-31 14:08:40.095454,-16.0
2023-07-31 14:08:40.103143,-69.0
2023-07-31 14:08:40.110833,-119.0
2023-07-31 14:08:40.118522,-153.0
2023-07-31 14:08:40.126211,-167.0
2023-07-31 14:08:40.133901,-179.0
2023-07-31 14:08:40.141590,-186.0
2023-07-31 14:08:40.149279,-186.0
2023-07-31 14:08:40.156969,-181.0
2023-07-31 14:08:40.164658,-181.0
2023-07-31 14:08:40.172347,-181.0
2023-07-31 14:08:40.180037,-177.0
2023-07-31 14:08:40.187726,-165.0
2023-07-31 14:08:40.195415,-162.0
2023-07-31 14:08:40.203105,-160.0
2023-07-31 14:08:40.210794,-153.0
2023-07-31 14:08:40.218483,-150.0
2023-07-31 14:08:40.226173,-148.0
2023-07-31 14:08:40.233862,-145.0
2023-07-31 14:08:40.241551,-138.0
2023-07-31 14:08:40.249241,-131.0
2023-07-31 14:08:40.256930,-133.0
2023-07-31 14:08:40.264619,-138.0
2023-07-31 14:08:40.272309,-133.0
2023-07-31 14:08:40.279998,-126.0
2023-07-31 14:08:40.287687,-129.0
2023-07-31 14:08:40.295377,-133.0
2023-07-31 14:08:40.303066,-131.0
2023-07-31 14:08:40.310755,-126.0
2023-07-31 14:08:40.318445,-124.0
2023-07-31 14:08:40.326134,-119.0
2023-07-31 14:08:40.333823,-122.0
2023-07-31 14:08:40.341513,-131.0
2023-07-31 14:08:40.349202,-131.0
2023-07-31 14:08:40.356891,-119.0
2023-07-31 14:08:40.364581,-114.0
2023-07-31 14:08:40.372270,-122.0
2023-07-31 14:08:40.379959,-122.0
2023-07-31 14:08:40.387649,-117.0
2023-07-31 14:08:40.395338,-117.0
2023-07-31 14:08:40.403027,-122.0
2023-07-31 14:08:40.410717,-117.0
2023-07-31 14:08:40.418406,-105.0
2023-07-31 14:08:40.426095,-90.0
2023-07-31 14:08:40.433785,-71.0
2023-07-31 14:08:40.441474,-57.0
2023-07-31 14:08:40.449163,-62.0
2023-07-31 14:08:40.456853,-76.0
2023-07-31 14:08:40.464542,-83.0
2023-07-31 14:08:40.472231,-90.0
2023-07-31 14:08:40.479921,-100.0
2023-07-31 14:08:40.487610,-100.0
2023-07-31 14:08:40.495299,-95.0
2023-07-31 14:08:40.502989,-98.0
2023-07-31 14:08:40.510678,-102.0
2023-07-31 14:08:40.518367,-100.0
2023-07-31 14:08:40.526057,-93.0
2023-07-31 14:08:40.533746,-86.0
2023-07-31 14:08:40.541435,-88.0
2023-07-31 14:08:40.549125,-90.0
2023-07-31 14:08:40.556814,-90.0
2023-07-31 14:08:40.564503,-69.0
2023-07-31 14:08:40.572193,162.0
2023-07-31 14:08:40.579882,667.0
2023-07-31 14:08:40.587571,1026.0
2023-07-31 14:08:40.595261,598.0
2023-07-31 14:08:40.602950,-306.0
2023-07-31 14:08:40.610639,-495.0
2023-07-31 14:08:40.618329,-105.0
2023-07-31 14:08:40.626018,-90.0
2023-07-31 14:08:40.633707,-217.0
2023-07-31 14:08:40.641397,-129.0
2023-07-31 14:08:40.649086,-100.0
2023-07-31 14:08:40.656775,-148.0
2023-07-31 14:08:40.664465,-124.0
2023-07-31 14:08:40.672154,-95.0
2023-07-31 14:08:40.679843,-102.0
2023-07-31 14:08:40.687533,-100.0
2023-07-31 14:08:40.695222,-86.0
2023-07-31 14:08:40.702911,-83.0
2023-07-31 14:08:40.710601,-88.0
2023-07-31 14:08:40.718290,-76.0
2023-07-31 14:08:40.725979,-62.0
2023-07-31 14:08:40.733669,-57.0
2023-07-31 14:08:40.741358,-55.0
2023-07-31 14:08:40.749047,-45.0
2023-07-31 14:08:40.756737,-38.0
2023-07-31 14:08:40.764426,-26.0
2023-07-31 14:08:40.772116,-11.0
2023-07-31 14:08:40.779805,-2.0
2023-07-31 14:08:40.787494,14.0
2023-07-31 14:08:40.795184,35.0
2023-07-31 14:08:40.802873,43.0
2023-07-31 14:08:40.810562,52.0
2023-07-31 14:08:40.818252,76.0
2023-07-31 14:08:40.825941,95.0
2023-07-31 14:08:40.833630,90.0
2023-07-31 14:08:40.841320,86.0
2023-07-31 14:08:40.849009,95.0
2023-07-31 14:08:40.856698,105.0
2023-07-31 14:08:40.864388,95.0
2023-07-31 14:08:40.872077,64.0
2023-07-31 14:08:40.879766,26.0
2023-07-31 14:08:40.887456,-23.0
2023-07-31 14:08:40.895145,-76.0
2023-07-31 14:08:40.902834,-117.0
2023-07-31 14:08:40.910524,-155.0
2023-07-31 14:08:40.918213,-179.0
2023-07-31 14:08:40.925902,-186.0
2023-07-31 14:08:40.933592,-191.0
2023-07-31 14:08:40.941281,-196.0
2023-07-31 14:08:40.948970,-191.0
2023-07-31 14:08:40.956660,-184.0
2023-07-31 14:08:40.964349,-186.0
2023-07-31 14:08:40.972038,-177.0
2023-07-31 14:08:40.979728,-165.0
2023-07-31 14:08:40.987417,-167.0
2023-07-31 14:08:40.995106,-157.0
2023-07-31 14:08:41.002796,-141.0
2023-07-31 14:08:41.010485,-141.0
2023-07-31 14:08:41.018174,-143.0
2023-07-31 14:08:41.025864,-133.0
2023-07-31 14:08:41.033553,-126.0
2023-07-31 14:08:41.041242,-124.0
2023-07-31 14:08:41.048932,-119.0
2023-07-31 14:08:41.056621,-119.0
2023-07-31 14:08:41.064310,-124.0
2023-07-31 14:08:41.072000,-122.0
2023-07-31 14:08:41.079689,-117.0
2023-07-31 14:08:41.087378,-119.0
2023-07-31 14:08:41.095068,-124.0
2023-07-31 14:08:41.102757,-126.0
2023-07-31 14:08:41.110446,-124.0
2023-07-31 14:08:41.118136,-122.0
2023-07-31 14:08:41.125825,-117.0
2023-07-31 14:08:41.133514,-114.0
2023-07-31 14:08:41.141204,-119.0
2023-07-31 14:08:41.148893,-119.0
2023-07-31 14:08:41.156582,-114.0
2023-07-31 14:08:41.164272,-110.0
2023-07-31 14:08:41.171961,-105.0
2023-07-31 14:08:41.179650,-95.0
2023-07-31 14:08:41.187340,-83.0
2023-07-31 14:08:41.195029,-69.0
2023-07-31 14:08:41.202718,-62.0
2023-07-31 14:08:41.210408,-74.0
2023-07-31 14:08:41.218097,-93.0
2023-07-31 14:08:41.225786,-102.0
2023-07-31 14:08:41.233476,-107.0
2023-07-31 14:08:41.241165,-102.0
2023-07-31 14:08:41.248854,-102.0
2023-07-31 14:08:41.256544,-107.0
2023-07-31 14:08:41.264233,-114.0
2023-07-31 14:08:41.271922,-110.0
2023-07-31 14:08:41.279612,-102.0
2023-07-31 14:08:41.287301,-102.0
2023-07-31 14:08:41.294990,-102.0
2023-07-31 14:08:41.302680,-98.0
2023-07-31 14:08:41.310369,-93.0
2023-07-31 14:08:41.318058,-107.0
2023-07-31 14:08:41.325748,-35.0
2023-07-31 14:08:41.333437,346.0
2023-07-31 14:08:41.341126,911.0
2023-07-31 14:08:41.348816,978.0
2023-07-31 14:08:41.356505,177.0
2023-07-31 14:08:41.364194,-531.0
2023-07-31 14:08:41.371884,-315.0
2023-07-31 14:08:41.379573,-43.0
2023-07-31 14:08:41.387262,-186.0
2023-07-31 14:08:41.394952,-191.0
2023-07-31 14:08:41.402641,-88.0
2023-07-31 14:08:41.410330,-119.0
2023-07-31 14:08:41.418020,-138.0
2023-07-31 14:08:41.425709,-98.0
2023-07-31 14:08:41.433398,-93.0
2023-07-31 14:08:41.441088,-100.0
2023-07-31 14:08:41.448777,-88.0
2023-07-31 14:08:41.456466,-81.0
2023-07-31 14:08:41.464156,-81.0
2023-07-31 14:08:41.471845,-66.0
2023-07-31 14:08:41.479534,-55.0
2023-07-31 14:08:41.487224,-50.0
2023-07-31 14:08:41.494913,-45.0
2023-07-31 14:08:41.502602,-35.0
2023-07-31 14:08:41.510292,-26.0
2023-07-31 14:08:41.517981,-14.0
2023-07-31 14:08:41.525671,-2.0
2023-07-31 14:08:41.533360,9.0
2023-07-31 14:08:41.541049,21.0
2023-07-31 14:08:41.548739,33.0
2023-07-31 14:08:41.556428,50.0
2023-07-31 14:08:41.564117,66.0
2023-07-31 14:08:41.571807,76.0
2023-07-31 14:08:41.579496,86.0
2023-07-31 14:08:41.587185,95.0
2023-07-31 14:08:41.594875,100.0
2023-07-31 14:08:41.602564,98.0
2023-07-31 14:08:41.610253,98.0
2023-07-31 14:08:41.617943,95.0
2023-07-31 14:08:41.625632,78.0
2023-07-31 14:08:41.633321,47.0
2023-07-31 14:08:41.641011,0.0
2023-07-31 14:08:41.648700,-50.0
2023-07-31 14:08:41.656389,-95.0
2023-07-31 14:08:41.664079,-131.0
2023-07-31 14:08:41.671768,-157.0
2023-07-31 14:08:41.679457,-169.0
2023-07-31 14:08:41.687147,-174.0
2023-07-31 14:08:41.694836,-174.0
2023-07-31 14:08:41.702525,-172.0
2023-07-31 14:08:41.710215,-169.0
2023-07-31 14:08:41.717904,-169.0
2023-07-31 14:08:41.725593,-165.0
2023-07-31 14:08:41.733283,-155.0
2023-07-31 14:08:41.740972,-148.0
2023-07-31 14:08:41.748661,-138.0
2023-07-31 14:08:41.756351,-136.0
2023-07-31 14:08:41.764040,-138.0
2023-07-31 14:08:41.771729,-138.0
2023-07-31 14:08:41.779419,-133.0
2023-07-31 14:08:41.787108,-124.0
2023-07-31 14:08:41.794797,-122.0
2023-07-31 14:08:41.802487,-122.0
2023-07-31 14:08:41.810176,-119.0
2023-07-31 14:08:41.817865,-119.0
2023-07-31 14:08:41.825555,-119.0
2023-07-31 14:08:41.833244,-117.0
2023-07-31 14:08:41.840933,-117.0
2023-07-31 14:08:41.848623,-119.0
2023-07-31 14:08:41.856312,-126.0
2023-07-31 14:08:41.864001,-129.0
2023-07-31 14:08:41.871691,-124.0
2023-07-31 14:08:41.879380,-119.0
2023-07-31 14:08:41.887069,-122.0
2023-07-31 14:08:41.894759,-122.0
2023-07-31 14:08:41.902448,-119.0
2023-07-31 14:08:41.910137,-117.0
2023-07-31 14:08:41.917827,-114.0
2023-07-31 14:08:41.925516,-107.0
2023-07-31 14:08:41.933205,-107.0
2023-07-31 14:08:41.940895,-117.0
2023-07-31 14:08:41.948584,-122.0
2023-07-31 14:08:41.956273,-114.0
2023-07-31 14:08:41.963963,-110.0
2023-07-31 14:08:41.971652,-100.0
2023-07-31 14:08:41.979341,-78.0
2023-07-31 14:08:41.987031,-59.0
2023-07-31 14:08:41.994720,-55.0
2023-07-31 14:08:42.002409,-55.0
2023-07-31 14:08:42.010099,-66.0
2023-07-31 14:08:42.017788,-81.0
2023-07-31 14:08:42.025477,-86.0
2023-07-31 14:08:42.033167,-86.0
2023-07-31 14:08:42.040856,-88.0
2023-07-31 14:08:42.048545,-86.0
2023-07-31 14:08:42.056235,-86.0
2023-07-31 14:08:42.063924,-90.0
2023-07-31 14:08:42.071613,-90.0
2023-07-31 14:08:42.079303,-88.0
2023-07-31 14:08:42.086992,-83.0
2023-07-31 14:08:42.094681,-81.0
2023-07-31 14:08:42.102371,-78.0
2023-07-31 14:08:42.110060,-83.0
2023-07-31 14:08:42.117749,-9.0
2023-07-31 14:08:42.125439,318.0
2023-07-31 14:08:42.133128,811.0
2023-07-31 14:08:42.140817,959.0
2023-07-31 14:08:42.148507,318.0
2023-07-31 14:08:42.156196,-440.0
2023-07-31 14:08:42.163885,-363.0
2023-07-31 14:08:42.171575,-40.0
2023-07-31 14:08:42.179264,-124.0
2023-07-31 14:08:42.186953,-186.0
2023-07-31 14:08:42.194643,-95.0
2023-07-31 14:08:42.202332,-98.0
2023-07-31 14:08:42.210021,-131.0
2023-07-31 14:08:42.217711,-102.0
2023-07-31 14:08:42.225400,-86.0
2023-07-31 14:08:42.233089,-90.0
2023-07-31 14:08:42.240779,-81.0
2023-07-31 14:08:42.248468,-71.0
2023-07-31 14:08:42.256157,-69.0
2023-07-31 14:08:42.263847,-62.0
2023-07-31 14:08:42.271536,-55.0
2023-07-31 14:08:42.279226,-55.0
2023-07-31 14:08:42.286915,-50.0
2023-07-31 14:08:42.294604,-40.0
2023-07-31 14:08:42.302294,-28.0
2023-07-31 14:08:42.309983,-21.0
2023-07-31 14:08:42.317672,-16.0
2023-07-31 14:08:42.325362,-2.0
2023-07-31 14:08:42.333051,16.0
2023-07-31 14:08:42.340740,28.0
2023-07-31 14:08:42.348430,38.0
2023-07-31 14:08:42.356119,52.0
2023-07-31 14:08:42.363808,66.0
2023-07-31 14:08:42.371498,78.0
2023-07-31 14:08:42.379187,86.0
2023-07-31 14:08:42.386876,95.0
2023-07-31 14:08:42.394566,102.0
2023-07-31 14:08:42.402255,105.0
2023-07-31 14:08:42.409944,100.0
2023-07-31 14:08:42.417634,83.0
2023-07-31 14:08:42.425323,57.0
2023-07-31 14:08:42.433012,19.0
2023-07-31 14:08:42.440702,-31.0
2023-07-31 14:08:42.448391,-81.0
2023-07-31 14:08:42.456080,-122.0
2023-07-31 14:08:42.463770,-153.0
2023-07-31 14:08:42.471459,-169.0
2023-07-31 14:08:42.479148,-174.0
2023-07-31 14:08:42.486838,-174.0
2023-07-31 14:08:42.494527,-174.0
2023-07-31 14:08:42.502216,-172.0
2023-07-31 14:08:42.509906,-169.0
2023-07-31 14:08:42.517595,-162.0
2023-07-31 14:08:42.525284,-157.0
2023-07-31 14:08:42.532974,-155.0
2023-07-31 14:08:42.540663,-155.0
2023-07-31 14:08:42.548352,-150.0
2023-07-31 14:08:42.556042,-143.0
2023-07-31 14:08:42.563731,-141.0
2023-07-31 14:08:42.571420,-138.0
2023-07-31 14:08:42.579110,-136.0
2023-07-31 14:08:42.586799,-133.0
2023-07-31 14:08:42.594488,-129.0
2023-07-31 14:08:42.602178,-122.0
2023-07-31 14:08:42.609867,-119.0
2023-07-31 14:08:42.617556,-119.0
2023-07-31 14:08:42.625246,-122.0
2023-07-31 14:08:42.632935,-124.0
2023-07-31 14:08:42.640624,-124.0
2023-07-31 14:08:42.648314,-122.0
2023-07-31 14:08:42.656003,-117.0
2023-07-31 14:08:42.663692,-112.0
2023-07-31 14:08:42.671382,-114.0
2023-07-31 14:08:42.679071,-117.0
2023-07-31 14:08:42.686760,-114.0
2023-07-31 14:08:42.694450,-110.0
2023-07-31 14:08:42.702139,-110.0
2023-07-31 14:08:42.709828,-107.0
2023-07-31 14:08:42.717518,-105.0
2023-07-31 14:08:42.725207,-107.0
2023-07-31 14:08:42.732896,-112.0
2023-07-31 14:08:42.740586,-112.0
2023-07-31 14:08:42.748275,-112.0
2023-07-31 14:08:42.755964,-110.0
2023-07-31 14:08:42.763654,-93.0
2023-07-31 14:08:42.771343,-74.0
2023-07-31 14:08:42.779032,-62.0
2023-07-31 14:08:42.786722,-55.0
2023-07-31 14:08:42.794411,-55.0
2023-07-31 14:08:42.802100,-76.0
2023-07-31 14:08:42.809790,-95.0
2023-07-31 14:08:42.817479,-95.0
2023-07-31 14:08:42.825168,-93.0
2023-07-31 14:08:42.832858,-95.0
2023-07-31 14:08:42.840547,-93.0
2023-07-31 14:08:42.848236,-95.0
2023-07-31 14:08:42.855926,-98.0
2023-07-31 14:08:42.863615,-90.0
2023-07-31 14:08:42.871304,-88.0
2023-07-31 14:08:42.878994,-88.0
2023-07-31 14:08:42.886683,-86.0
2023-07-31 14:08:42.894372,-90.0
2023-07-31 14:08:42.902062,-102.0
2023-07-31 14:08:42.909751,-43.0
2023-07-31 14:08:42.917440,258.0
2023-07-31 14:08:42.925130,736.0
2023-07-31 14:08:42.932819,930.0
2023-07-31 14:08:42.940508,363.0
2023-07-31 14:08:42.948198,-413.0
2023-07-31 14:08:42.955887,-401.0
2023-07-31 14:08:42.963576,-59.0
2023-07-31 14:08:42.971266,-117.0
2023-07-31 14:08:42.978955,-196.0
2023-07-31 14:08:42.986644,-105.0
2023-07-31 14:08:42.994334,-98.0
2023-07-31 14:08:43.002023,-131.0
2023-07-31 14:08:43.009712,-105.0
2023-07-31 14:08:43.017402,-86.0
2023-07-31 14:08:43.025091,-90.0
2023-07-31 14:08:43.032781,-86.0
2023-07-31 14:08:43.040470,-76.0
2023-07-31 14:08:43.048159,-74.0
2023-07-31 14:08:43.055849,-71.0
2023-07-31 14:08:43.063538,-64.0
2023-07-31 14:08:43.071227,-57.0
2023-07-31 14:08:43.078917,-52.0
2023-07-31 14:08:43.086606,-43.0
2023-07-31 14:08:43.094295,-28.0
2023-07-31 14:08:43.101985,-21.0
2023-07-31 14:08:43.109674,-14.0
2023-07-31 14:08:43.117363,0.0
2023-07-31 14:08:43.125053,11.0
2023-07-31 14:08:43.132742,26.0
2023-07-31 14:08:43.140431,40.0
2023-07-31 14:08:43.148121,50.0
2023-07-31 14:08:43.155810,62.0
2023-07-31 14:08:43.163499,81.0
2023-07-31 14:08:43.171189,90.0
2023-07-31 14:08:43.178878,95.0
2023-07-31 14:08:43.186567,95.0
2023-07-31 14:08:43.194257,100.0
2023-07-31 14:08:43.201946,102.0
2023-07-31 14:08:43.209635,93.0
2023-07-31 14:08:43.217325,62.0
2023-07-31 14:08:43.225014,19.0
2023-07-31 14:08:43.232703,-26.0
2023-07-31 14:08:43.240393,-76.0
2023-07-31 14:08:43.248082,-117.0
2023-07-31 14:08:43.255771,-143.0
2023-07-31 14:08:43.263461,-162.0
2023-07-31 14:08:43.271150,-172.0
2023-07-31 14:08:43.278839,-174.0
2023-07-31 14:08:43.286529,-177.0
2023-07-31 14:08:43.294218,-179.0
2023-07-31 14:08:43.301907,-174.0
2023-07-31 14:08:43.309597,-169.0
2023-07-31 14:08:43.317286,-167.0
2023-07-31 14:08:43.324975,-162.0
2023-07-31 14:08:43.332665,-157.0
2023-07-31 14:08:43.340354,-153.0
2023-07-31 14:08:43.348043,-148.0
2023-07-31 14:08:43.355733,-141.0
2023-07-31 14:08:43.363422,-138.0
2023-07-31 14:08:43.371111,-136.0
2023-07-31 14:08:43.378801,-133.0
2023-07-31 14:08:43.386490,-129.0
2023-07-31 14:08:43.394179,-129.0
2023-07-31 14:08:43.401869,-122.0
2023-07-31 14:08:43.409558,-114.0
2023-07-31 14:08:43.417247,-114.0
2023-07-31 14:08:43.424937,-122.0
2023-07-31 14:08:43.432626,-124.0
2023-07-31 14:08:43.440315,-124.0
2023-07-31 14:08:43.448005,-119.0
2023-07-31 14:08:43.455694,-117.0
2023-07-31 14:08:43.463383,-117.0
2023-07-31 14:08:43.471073,-114.0
2023-07-31 14:08:43.478762,-114.0
2023-07-31 14:08:43.486451,-110.0
2023-07-31 14:08:43.494141,-107.0
2023-07-31 14:08:43.501830,-102.0
2023-07-31 14:08:43.509519,-95.0
2023-07-31 14:08:43.517209,-95.0
2023-07-31 14:08:43.524898,-100.0
2023-07-31 14:08:43.532587,-107.0
2023-07-31 14:08:43.540277,-110.0
2023-07-31 14:08:43.547966,-100.0
2023-07-31 14:08:43.555655,-86.0
2023-07-31 14:08:43.563345,-76.0
2023-07-31 14:08:43.571034,-62.0
2023-07-31 14:08:43.578723,-43.0
2023-07-31 14:08:43.586413,-40.0
2023-07-31 14:08:43.594102,-59.0
2023-07-31 14:08:43.601791,-78.0
2023-07-31 14:08:43.609481,-83.0
2023-07-31 14:08:43.617170,-76.0
2023-07-31 14:08:43.624859,-78.0
2023-07-31 14:08:43.632549,-81.0
2023-07-31 14:08:43.640238,-76.0
2023-07-31 14:08:43.647927,-74.0
2023-07-31 14:08:43.655617,-81.0
2023-07-31 14:08:43.663306,-83.0
2023-07-31 14:08:43.670995,-66.0
2023-07-31 14:08:43.678685,-62.0
2023-07-31 14:08:43.686374,-69.0
2023-07-31 14:08:43.694063,-81.0
2023-07-31 14:08:43.701753,-26.0
2023-07-31 14:08:43.709442,282.0
2023-07-31 14:08:43.717131,794.0
2023-07-31 14:08:43.724821,988.0
2023-07-31 14:08:43.732510,382.0
2023-07-31 14:08:43.740199,-406.0
2023-07-31 14:08:43.747889,-378.0
2023-07-31 14:08:43.755578,-43.0
2023-07-31 14:08:43.763267,-110.0
2023-07-31 14:08:43.770957,-179.0
2023-07-31 14:08:43.778646,-88.0
2023-07-31 14:08:43.786336,-86.0
2023-07-31 14:08:43.794025,-119.0
2023-07-31 14:08:43.801714,-93.0
2023-07-31 14:08:43.809404,-81.0
2023-07-31 14:08:43.817093,-83.0
2023-07-31 14:08:43.824782,-71.0
2023-07-31 14:08:43.832472,-66.0
2023-07-31 14:08:43.840161,-69.0
2023-07-31 14:08:43.847850,-52.0
2023-07-31 14:08:43.855540,-45.0
2023-07-31 14:08:43.863229,-45.0
2023-07-31 14:08:43.870918,-35.0
2023-07-31 14:08:43.878608,-23.0
2023-07-31 14:08:43.886297,-14.0
2023-07-31 14:08:43.893986,-4.0
2023-07-31 14:08:43.901676,4.0
2023-07-31 14:08:43.909365,16.0
2023-07-31 14:08:43.917054,31.0
2023-07-31 14:08:43.924744,43.0
2023-07-31 14:08:43.932433,50.0
2023-07-31 14:08:43.940122,64.0
2023-07-31 14:08:43.947812,83.0
2023-07-31 14:08:43.955501,95.0
2023-07-31 14:08:43.963190,102.0
2023-07-31 14:08:43.970880,117.0
2023-07-31 14:08:43.978569,114.0
2023-07-31 14:08:43.986258,105.0
2023-07-31 14:08:43.993948,110.0
2023-07-31 14:08:44.001637,107.0
2023-07-31 14:08:44.009326,81.0
2023-07-31 14:08:44.017016,38.0
2023-07-31 14:08:44.024705,-14.0
2023-07-31 14:08:44.032394,-64.0
2023-07-31 14:08:44.040084,-107.0
2023-07-31 14:08:44.047773,-143.0
2023-07-31 14:08:44.055462,-169.0
2023-07-31 14:08:44.063152,-181.0
2023-07-31 14:08:44.070841,-186.0
2023-07-31 14:08:44.078530,-193.0
2023-07-31 14:08:44.086220,-189.0
2023-07-31 14:08:44.093909,-172.0
2023-07-31 14:08:44.101598,-162.0
2023-07-31 14:08:44.109288,-165.0
2023-07-31 14:08:44.116977,-167.0
2023-07-31 14:08:44.124666,-162.0
2023-07-31 14:08:44.132356,-148.0
2023-07-31 14:08:44.140045,-141.0
2023-07-31 14:08:44.147734,-143.0
2023-07-31 14:08:44.155424,-138.0
2023-07-31 14:08:44.163113,-124.0
2023-07-31 14:08:44.170802,-119.0
2023-07-31 14:08:44.178492,-119.0
2023-07-31 14:08:44.186181,-117.0
2023-07-31 14:08:44.193870,-124.0
2023-07-31 14:08:44.201560,-129.0
2023-07-31 14:08:44.209249,-119.0
2023-07-31 14:08:44.216938,-110.0
2023-07-31 14:08:44.224628,-117.0
2023-07-31 14:08:44.232317,-119.0
2023-07-31 14:08:44.240006,-110.0
2023-07-31 14:08:44.247696,-110.0
2023-07-31 14:08:44.255385,-117.0
2023-07-31 14:08:44.263074,-114.0
2023-07-31 14:08:44.270764,-110.0
2023-07-31 14:08:44.278453,-117.0
2023-07-31 14:08:44.286142,-117.0
2023-07-31 14:08:44.293832,-112.0
2023-07-31 14:08:44.301521,-114.0
2023-07-31 14:08:44.309210,-100.0
2023-07-31 14:08:44.316900,-76.0
2023-07-31 14:08:44.324589,-69.0
2023-07-31 14:08:44.332278,-69.0
2023-07-31 14:08:44.339968,-69.0
2023-07-31 14:08:44.347657,-81.0
2023-07-31 14:08:44.355346,-98.0
2023-07-31 14:08:44.363036,-105.0
2023-07-31 14:08:44.370725,-107.0
2023-07-31 14:08:44.378414,-110.0
2023-07-31 14:08:44.386104,-110.0
2023-07-31 14:08:44.393793,-110.0
2023-07-31 14:08:44.401482,-105.0
2023-07-31 14:08:44.409172,-98.0
2023-07-31 14:08:44.416861,-93.0
2023-07-31 14:08:44.424550,-95.0
2023-07-31 14:08:44.432240,-90.0
2023-07-31 14:08:44.439929,-81.0
2023-07-31 14:08:44.447618,-93.0
2023-07-31 14:08:44.455308,-90.0
2023-07-31 14:08:44.462997,143.0
2023-07-31 14:08:44.470686,691.0
2023-07-31 14:08:44.478376,1086.0
2023-07-31 14:08:44.486065,631.0
2023-07-31 14:08:44.493754,-313.0
2023-07-31 14:08:44.501444,-490.0
2023-07-31 14:08:44.509133,-90.0
2023-07-31 14:08:44.516822,-95.0
2023-07-31 14:08:44.524512,-220.0
2023-07-31 14:08:44.532201,-112.0
2023-07-31 14:08:44.539891,-86.0
2023-07-31 14:08:44.547580,-141.0
2023-07-31 14:08:44.555269,-117.0
2023-07-31 14:08:44.562959,-88.0
2023-07-31 14:08:44.570648,-102.0
2023-07-31 14:08:44.578337,-100.0
2023-07-31 14:08:44.586027,-81.0
2023-07-31 14:08:44.593716,-78.0
2023-07-31 14:08:44.601405,-74.0
2023-07-31 14:08:44.609095,-59.0
2023-07-31 14:08:44.616784,-52.0
2023-07-31 14:08:44.624473,-50.0
2023-07-31 14:08:44.632163,-35.0
2023-07-31 14:08:44.639852,-23.0
2023-07-31 14:08:44.647541,-19.0
2023-07-31 14:08:44.655231,-7.0
2023-07-31 14:08:44.662920,4.0
2023-07-31 14:08:44.670609,16.0
2023-07-31 14:08:44.678299,28.0
2023-07-31 14:08:44.685988,43.0
2023-07-31 14:08:44.693677,55.0
2023-07-31 14:08:44.701367,66.0
2023-07-31 14:08:44.709056,78.0
2023-07-31 14:08:44.716745,90.0
2023-07-31 14:08:44.724435,95.0
2023-07-31 14:08:44.732124,95.0
2023-07-31 14:08:44.739813,95.0
2023-07-31 14:08:44.747503,95.0
2023-07-31 14:08:44.755192,86.0
2023-07-31 14:08:44.762881,55.0
2023-07-31 14:08:44.770571,11.0
2023-07-31 14:08:44.778260,-38.0
2023-07-31 14:08:44.785949,-83.0
2023-07-31 14:08:44.793639,-122.0
2023-07-31 14:08:44.801328,-155.0
2023-07-31 14:08:44.809017,-174.0
2023-07-31 14:08:44.816707,-181.0
2023-07-31 14:08:44.824396,-191.0
2023-07-31 14:08:44.832085,-193.0
2023-07-31 14:08:44.839775,-181.0
2023-07-31 14:08:44.847464,-174.0
2023-07-31 14:08:44.855153,-172.0
2023-07-31 14:08:44.862843,-167.0
2023-07-31 14:08:44.870532,-165.0
2023-07-31 14:08:44.878221,-157.0
2023-07-31 14:08:44.885911,-145.0
2023-07-31 14:08:44.893600,-141.0
2023-07-31 14:08:44.901289,-136.0
2023-07-31 14:08:44.908979,-133.0
2023-07-31 14:08:44.916668,-131.0
2023-07-31 14:08:44.924357,-126.0
2023-07-31 14:08:44.932047,-122.0
2023-07-31 14:08:44.939736,-122.0
2023-07-31 14:08:44.947425,-122.0
2023-07-31 14:08:44.955115,-119.0
2023-07-31 14:08:44.962804,-122.0
2023-07-31 14:08:44.970493,-122.0
2023-07-31 14:08:44.978183,-122.0
2023-07-31 14:08:44.985872,-122.0
2023-07-31 14:08:44.993561,-117.0
2023-07-31 14:08:45.001251,-114.0
2023-07-31 14:08:45.008940,-117.0
2023-07-31 14:08:45.016629,-119.0
2023-07-31 14:08:45.024319,-119.0
2023-07-31 14:08:45.032008,-117.0
2023-07-31 14:08:45.039697,-112.0
2023-07-31 14:08:45.047387,-112.0
2023-07-31 14:08:45.055076,-110.0
2023-07-31 14:08:45.062765,-107.0
2023-07-31 14:08:45.070455,-112.0
2023-07-31 14:08:45.078144,-117.0
2023-07-31 14:08:45.085833,-117.0
2023-07-31 14:08:45.093523,-107.0
2023-07-31 14:08:45.101212,-93.0
2023-07-31 14:08:45.108901,-71.0
2023-07-31 14:08:45.116591,-55.0
2023-07-31 14:08:45.124280,-47.0
2023-07-31 14:08:45.131969,-50.0
2023-07-31 14:08:45.139659,-69.0
2023-07-31 14:08:45.147348,-95.0
2023-07-31 14:08:45.155037,-100.0
2023-07-31 14:08:45.162727,-93.0
2023-07-31 14:08:45.170416,-100.0
2023-07-31 14:08:45.178105,-102.0
2023-07-31 14:08:45.185795,-98.0
2023-07-31 14:08:45.193484,-98.0
2023-07-31 14:08:45.201173,-95.0
2023-07-31 14:08:45.208863,-88.0
2023-07-31 14:08:45.216552,-83.0
2023-07-31 14:08:45.224241,-83.0
2023-07-31 14:08:45.231931,-83.0
2023-07-31 14:08:45.239620,-88.0
2023-07-31 14:08:45.247309,-11.0
2023-07-31 14:08:45.254999,318.0
2023-07-31 14:08:45.262688,811.0
2023-07-31 14:08:45.270377,957.0
2023-07-31 14:08:45.278067,313.0
2023-07-31 14:08:45.285756,-442.0
2023-07-31 14:08:45.293445,-366.0
2023-07-31 14:08:45.301135,-47.0
2023-07-31 14:08:45.308824,-141.0
2023-07-31 14:08:45.316514,-205.0
2023-07-31 14:08:45.324203,-112.0
2023-07-31 14:08:45.331892,-114.0
2023-07-31 14:08:45.339582,-143.0
2023-07-31 14:08:45.347271,-112.0
2023-07-31 14:08:45.354960,-105.0
2023-07-31 14:08:45.362650,-114.0
2023-07-31 14:08:45.370339,-95.0
2023-07-31 14:08:45.378028,-78.0
2023-07-31 14:08:45.385718,-83.0
2023-07-31 14:08:45.393407,-78.0
2023-07-31 14:08:45.401096,-66.0
2023-07-31 14:08:45.408786,-62.0
2023-07-31 14:08:45.416475,-52.0
2023-07-31 14:08:45.424164,-38.0
2023-07-31 14:08:45.431854,-28.0
2023-07-31 14:08:45.439543,-23.0
2023-07-31 14:08:45.447232,-16.0
2023-07-31 14:08:45.454922,-4.0
2023-07-31 14:08:45.462611,11.0
2023-07-31 14:08:45.470300,28.0
2023-07-31 14:08:45.477990,45.0
2023-07-31 14:08:45.485679,57.0
2023-07-31 14:08:45.493368,71.0
2023-07-31 14:08:45.501058,83.0
2023-07-31 14:08:45.508747,90.0
2023-07-31 14:08:45.516436,95.0
2023-07-31 14:08:45.524126,100.0
2023-07-31 14:08:45.531815,98.0
2023-07-31 14:08:45.539504,95.0
2023-07-31 14:08:45.547194,86.0
2023-07-31 14:08:45.554883,55.0
2023-07-31 14:08:45.562572,14.0
2023-07-31 14:08:45.570262,-31.0
2023-07-31 14:08:45.577951,-78.0
2023-07-31 14:08:45.585640,-119.0
2023-07-31 14:08:45.593330,-145.0
2023-07-31 14:08:45.601019,-157.0
2023-07-31 14:08:45.608708,-162.0
2023-07-31 14:08:45.616398,-167.0
2023-07-31 14:08:45.624087,-169.0
2023-07-31 14:08:45.631776,-165.0
2023-07-31 14:08:45.639466,-162.0
2023-07-31 14:08:45.647155,-157.0
2023-07-31 14:08:45.654844,-153.0
2023-07-31 14:08:45.662534,-145.0
2023-07-31 14:08:45.670223,-141.0
2023-07-31 14:08:45.677912,-143.0
2023-07-31 14:08:45.685602,-145.0
2023-07-31 14:08:45.693291,-143.0
2023-07-31 14:08:45.700980,-138.0
2023-07-31 14:08:45.708670,-138.0
2023-07-31 14:08:45.716359,-133.0
2023-07-31 14:08:45.724048,-129.0
2023-07-31 14:08:45.731738,-126.0
2023-07-31 14:08:45.739427,-124.0
2023-07-31 14:08:45.747116,-117.0
2023-07-31 14:08:45.754806,-114.0
2023-07-31 14:08:45.762495,-114.0
2023-07-31 14:08:45.770184,-117.0
2023-07-31 14:08:45.777874,-126.0
2023-07-31 14:08:45.785563,-129.0
2023-07-31 14:08:45.793252,-122.0
2023-07-31 14:08:45.800942,-114.0
2023-07-31 14:08:45.808631,-117.0
2023-07-31 14:08:45.816320,-122.0
2023-07-31 14:08:45.824010,-126.0
2023-07-31 14:08:45.831699,-119.0
2023-07-31 14:08:45.839388,-112.0
2023-07-31 14:08:45.847078,-117.0
2023-07-31 14:08:45.854767,-129.0
2023-07-31 14:08:45.862456,-124.0
2023-07-31 14:08:45.870146,-117.0
2023-07-31 14:08:45.877835,-114.0
2023-07-31 14:08:45.885524,-100.0
2023-07-31 14:08:45.893214,-71.0
2023-07-31 14:08:45.900903,-55.0
2023-07-31 14:08:45.908592,-59.0
2023-07-31 14:08:45.916282,-74.0
2023-07-31 14:08:45.923971,-88.0
2023-07-31 14:08:45.931660,-90.0
2023-07-31 14:08:45.939350,-90.0
2023-07-31 14:08:45.947039,-95.0
2023-07-31 14:08:45.954728,-100.0
2023-07-31 14:08:45.962418,-95.0
2023-07-31 14:08:45.970107,-93.0
2023-07-31 14:08:45.977796,-88.0
2023-07-31 14:08:45.985486,-86.0
2023-07-31 14:08:45.993175,-86.0
2023-07-31 14:08:46.000864,-83.0
2023-07-31 14:08:46.008554,-86.0
2023-07-31 14:08:46.016243,-98.0
2023-07-31 14:08:46.023932,-66.0
2023-07-31 14:08:46.031622,186.0
2023-07-31 14:08:46.039311,674.0
2023-07-31 14:08:46.047000,983.0
2023-07-31 14:08:46.054690,543.0
2023-07-31 14:08:46.062379,-308.0
2023-07-31 14:08:46.070069,-456.0
2023-07-31 14:08:46.077758,-90.0
2023-07-31 14:08:46.085447,-83.0
2023-07-31 14:08:46.093137,-198.0
2023-07-31 14:08:46.100826,-117.0
2023-07-31 14:08:46.108515,-86.0
2023-07-31 14:08:46.116205,-124.0
2023-07-31 14:08:46.123894,-102.0
2023-07-31 14:08:46.131583,-81.0
2023-07-31 14:08:46.139273,-90.0
2023-07-31 14:08:46.146962,-88.0
2023-07-31 14:08:46.154651,-71.0
2023-07-31 14:08:46.162341,-64.0
2023-07-31 14:08:46.170030,-62.0
2023-07-31 14:08:46.177719,-57.0
2023-07-31 14:08:46.185409,-50.0
2023-07-31 14:08:46.193098,-43.0
2023-07-31 14:08:46.200787,-31.0
2023-07-31 14:08:46.208477,-21.0
2023-07-31 14:08:46.216166,-16.0
2023-07-31 14:08:46.223855,-7.0
2023-07-31 14:08:46.231545,4.0
2023-07-31 14:08:46.239234,16.0
2023-07-31 14:08:46.246923,28.0
2023-07-31 14:08:46.254613,43.0
2023-07-31 14:08:46.262302,57.0
2023-07-31 14:08:46.269991,64.0
2023-07-31 14:08:46.277681,71.0
2023-07-31 14:08:46.285370,83.0
2023-07-31 14:08:46.293059,90.0
2023-07-31 14:08:46.300749,95.0
2023-07-31 14:08:46.308438,98.0
2023-07-31 14:08:46.316127,98.0
2023-07-31 14:08:46.323817,81.0
2023-07-31 14:08:46.331506,52.0
2023-07-31 14:08:46.339195,16.0
2023-07-31 14:08:46.346885,-28.0
2023-07-31 14:08:46.354574,-81.0
2023-07-31 14:08:46.362263,-122.0
2023-07-31 14:08:46.369953,-150.0
2023-07-31 14:08:46.377642,-167.0
2023-07-31 14:08:46.385331,-174.0
2023-07-31 14:08:46.393021,-179.0
2023-07-31 14:08:46.400710,-181.0
2023-07-31 14:08:46.408399,-181.0
2023-07-31 14:08:46.416089,-172.0
2023-07-31 14:08:46.423778,-167.0
2023-07-31 14:08:46.431467,-165.0
2023-07-31 14:08:46.439157,-160.0
2023-07-31 14:08:46.446846,-153.0
2023-07-31 14:08:46.454535,-145.0
2023-07-31 14:08:46.462225,-141.0
2023-07-31 14:08:46.469914,-138.0
2023-07-31 14:08:46.477603,-133.0
2023-07-31 14:08:46.485293,-124.0
2023-07-31 14:08:46.492982,-122.0
2023-07-31 14:08:46.500671,-124.0
2023-07-31 14:08:46.508361,-119.0
2023-07-31 14:08:46.516050,-114.0
2023-07-31 14:08:46.523739,-114.0
2023-07-31 14:08:46.531429,-112.0
2023-07-31 14:08:46.539118,-112.0
2023-07-31 14:08:46.546807,-114.0
2023-07-31 14:08:46.554497,-114.0
2023-07-31 14:08:46.562186,-112.0
2023-07-31 14:08:46.569875,-112.0
2023-07-31 14:08:46.577565,-107.0
2023-07-31 14:08:46.585254,-105.0
2023-07-31 14:08:46.592943,-105.0
2023-07-31 14:08:46.600633,-102.0
2023-07-31 14:08:46.608322,-98.0
2023-07-31 14:08:46.616011,-95.0
2023-07-31 14:08:46.623701,-98.0
2023-07-31 14:08:46.631390,-102.0
2023-07-31 14:08:46.639079,-102.0
2023-07-31 14:08:46.646769,-102.0
2023-07-31 14:08:46.654458,-93.0
2023-07-31 14:08:46.662147,-69.0
2023-07-31 14:08:46.669837,-47.0
2023-07-31 14:08:46.677526,-40.0
2023-07-31 14:08:46.685215,-47.0
2023-07-31 14:08:46.692905,-57.0
2023-07-31 14:08:46.700594,-69.0
2023-07-31 14:08:46.708283,-74.0
2023-07-31 14:08:46.715973,-78.0
2023-07-31 14:08:46.723662,-81.0
2023-07-31 14:08:46.731351,-78.0
2023-07-31 14:08:46.739041,-76.0
2023-07-31 14:08:46.746730,-78.0
2023-07-31 14:08:46.754419,-76.0
2023-07-31 14:08:46.762109,-74.0
2023-07-31 14:08:46.769798,-76.0
2023-07-31 14:08:46.777487,-74.0
2023-07-31 14:08:46.785177,-64.0
2023-07-31 14:08:46.792866,-74.0
2023-07-31 14:08:46.800555,-57.0
2023-07-31 14:08:46.808245,193.0
2023-07-31 14:08:46.815934,698.0
2023-07-31 14:08:46.823624,1002.0
2023-07-31 14:08:46.831313,516.0
2023-07-31 14:08:46.839002,-342.0
2023-07-31 14:08:46.846692,-454.0
2023-07-31 14:08:46.854381,-86.0
2023-07-31 14:08:46.862070,-98.0
2023-07-31 14:08:46.869760,-196.0
2023-07-31 14:08:46.877449,-107.0
2023-07-31 14:08:46.885138,-86.0
2023-07-31 14:08:46.892828,-126.0
2023-07-31 14:08:46.900517,-102.0
2023-07-31 14:08:46.908206,-81.0
2023-07-31 14:08:46.915896,-88.0
2023-07-31 14:08:46.923585,-81.0
2023-07-31 14:08:46.931274,-66.0
2023-07-31 14:08:46.938964,-66.0
2023-07-31 14:08:46.946653,-64.0
2023-07-31 14:08:46.954342,-50.0
2023-07-31 14:08:46.962032,-35.0
2023-07-31 14:08:46.969721,-35.0
2023-07-31 14:08:46.977410,-31.0
2023-07-31 14:08:46.985100,-16.0
2023-07-31 14:08:46.992789,-7.0
2023-07-31 14:08:47.000478,-4.0
2023-07-31 14:08:47.008168,7.0
2023-07-31 14:08:47.015857,28.0
2023-07-31 14:08:47.023546,43.0
2023-07-31 14:08:47.031236,55.0
2023-07-31 14:08:47.038925,71.0
2023-07-31 14:08:47.046614,83.0
2023-07-31 14:08:47.054304,95.0
2023-07-31 14:08:47.061993,112.0
2023-07-31 14:08:47.069682,117.0
2023-07-31 14:08:47.077372,112.0
2023-07-31 14:08:47.085061,107.0
2023-07-31 14:08:47.092750,110.0
2023-07-31 14:08:47.100440,105.0
2023-07-31 14:08:47.108129,78.0
2023-07-31 14:08:47.115818,33.0
2023-07-31 14:08:47.123508,-14.0
2023-07-31 14:08:47.131197,-59.0
2023-07-31 14:08:47.138886,-100.0
2023-07-31 14:08:47.146576,-131.0
2023-07-31 14:08:47.154265,-153.0
2023-07-31 14:08:47.161954,-167.0
2023-07-31 14:08:47.169644,-172.0
2023-07-31 14:08:47.177333,-169.0
2023-07-31 14:08:47.185022,-162.0
2023-07-31 14:08:47.192712,-157.0
2023-07-31 14:08:47.200401,-160.0
2023-07-31 14:08:47.208090,-157.0
2023-07-31 14:08:47.215780,-145.0
2023-07-31 14:08:47.223469,-136.0
2023-07-31 14:08:47.231158,-141.0
2023-07-31 14:08:47.238848,-141.0
2023-07-31 14:08:47.246537,-133.0
2023-07-31 14:08:47.254226,-124.0
2023-07-31 14:08:47.261916,-119.0
2023-07-31 14:08:47.269605,-122.0
2023-07-31 14:08:47.277294,-119.0
2023-07-31 14:08:47.284984,-110.0
2023-07-31 14:08:47.292673,-102.0
2023-07-31 14:08:47.300362,-105.0
2023-07-31 14:08:47.308052,-110.0
2023-07-31 14:08:47.315741,-112.0
2023-07-31 14:08:47.323430,-112.0
2023-07-31 14:08:47.331120,-119.0
2023-07-31 14:08:47.338809,-122.0
2023-07-31 14:08:47.346498,-119.0
2023-07-31 14:08:47.354188,-122.0
2023-07-31 14:08:47.361877,-114.0
2023-07-31 14:08:47.369566,-107.0
2023-07-31 14:08:47.377256,-114.0
2023-07-31 14:08:47.384945,-124.0
2023-07-31 14:08:47.392634,-110.0
2023-07-31 14:08:47.400324,-86.0
2023-07-31 14:08:47.408013,-76.0
2023-07-31 14:08:47.415702,-76.0
2023-07-31 14:08:47.423392,-64.0
2023-07-31 14:08:47.431081,-69.0
2023-07-31 14:08:47.438770,-102.0
2023-07-31 14:08:47.446460,-124.0
2023-07-31 14:08:47.454149,-112.0
2023-07-31 14:08:47.461838,-107.0
2023-07-31 14:08:47.469528,-114.0
2023-07-31 14:08:47.477217,-117.0
2023-07-31 14:08:47.484906,-117.0
2023-07-31 14:08:47.492596,-114.0
2023-07-31 14:08:47.500285,-105.0
2023-07-31 14:08:47.507974,-105.0
2023-07-31 14:08:47.515664,-105.0
2023-07-31 14:08:47.523353,-100.0
2023-07-31 14:08:47.531042,-93.0
2023-07-31 14:08:47.538732,-110.0
2023-07-31 14:08:47.546421,-45.0
2023-07-31 14:08:47.554110,337.0
2023-07-31 14:08:47.561800,935.0
2023-07-31 14:08:47.569489,1045.0
2023-07-31 14:08:47.577179,236.0
2023-07-31 14:08:47.584868,-528.0
2023-07-31 14:08:47.592557,-327.0
2023-07-31 14:08:47.600247,-26.0
2023-07-31 14:08:47.607936,-177.0
2023-07-31 14:08:47.615625,-196.0
2023-07-31 14:08:47.623315,-83.0
2023-07-31 14:08:47.631004,-112.0
2023-07-31 14:08:47.638693,-136.0
2023-07-31 14:08:47.646383,-93.0
2023-07-31 14:08:47.654072,-86.0
2023-07-31 14:08:47.661761,-100.0
2023-07-31 14:08:47.669451,-83.0
2023-07-31 14:08:47.677140,-66.0
2023-07-31 14:08:47.684829,-64.0
2023-07-31 14:08:47.692519,-55.0
2023-07-31 14:08:47.700208,-43.0
2023-07-31 14:08:47.707897,-38.0
2023-07-31 14:08:47.715587,-28.0
2023-07-31 14:08:47.723276,-16.0
2023-07-31 14:08:47.730965,-11.0
2023-07-31 14:08:47.738655,-4.0
2023-07-31 14:08:47.746344,11.0
2023-07-31 14:08:47.754033,26.0
2023-07-31 14:08:47.761723,35.0
2023-07-31 14:08:47.769412,52.0
2023-07-31 14:08:47.777101,69.0
2023-07-31 14:08:47.784791,86.0
2023-07-31 14:08:47.792480,100.0
2023-07-31 14:08:47.800169,107.0
2023-07-31 14:08:47.807859,112.0
2023-07-31 14:08:47.815548,119.0
2023-07-31 14:08:47.823237,119.0
2023-07-31 14:08:47.830927,112.0
2023-07-31 14:08:47.838616,105.0
2023-07-31 14:08:47.846305,88.0
2023-07-31 14:08:47.853995,50.0
2023-07-31 14:08:47.861684,-2.0
2023-07-31 14:08:47.869373,-55.0
2023-07-31 14:08:47.877063,-100.0
2023-07-31 14:08:47.884752,-138.0
2023-07-31 14:08:47.892441,-162.0
2023-07-31 14:08:47.900131,-174.0
2023-07-31 14:08:47.907820,-179.0
2023-07-31 14:08:47.915509,-179.0
2023-07-31 14:08:47.923199,-174.0
2023-07-31 14:08:47.930888,-174.0
2023-07-31 14:08:47.938577,-181.0
2023-07-31 14:08:47.946267,-177.0
2023-07-31 14:08:47.953956,-165.0
2023-07-31 14:08:47.961645,-155.0
2023-07-31 14:08:47.969335,-153.0
2023-07-31 14:08:47.977024,-148.0
2023-07-31 14:08:47.984713,-148.0
2023-07-31 14:08:47.992403,-143.0
2023-07-31 14:08:48.000092,-136.0
2023-07-31 14:08:48.007781,-129.0
2023-07-31 14:08:48.015471,-124.0
2023-07-31 14:08:48.023160,-124.0
2023-07-31 14:08:48.030849,-129.0
2023-07-31 14:08:48.038539,-126.0
2023-07-31 14:08:48.046228,-124.0
2023-07-31 14:08:48.053917,-126.0
2023-07-31 14:08:48.061607,-126.0
2023-07-31 14:08:48.069296,-124.0
2023-07-31 14:08:48.076985,-126.0
2023-07-31 14:08:48.084675,-126.0
2023-07-31 14:08:48.092364,-124.0
2023-07-31 14:08:48.100053,-124.0
2023-07-31 14:08:48.107743,-119.0
2023-07-31 14:08:48.115432,-117.0
2023-07-31 14:08:48.123121,-124.0
2023-07-31 14:08:48.130811,-131.0
2023-07-31 14:08:48.138500,-129.0
2023-07-31 14:08:48.146189,-122.0
2023-07-31 14:08:48.153879,-110.0
2023-07-31 14:08:48.161568,-90.0
2023-07-31 14:08:48.169257,-74.0
2023-07-31 14:08:48.176947,-62.0
2023-07-31 14:08:48.184636,-62.0
2023-07-31 14:08:48.192325,-76.0
2023-07-31 14:08:48.200015,-93.0
2023-07-31 14:08:48.207704,-100.0
2023-07-31 14:08:48.215393,-98.0
2023-07-31 14:08:48.223083,-100.0
2023-07-31 14:08:48.230772,-105.0
2023-07-31 14:08:48.238461,-100.0
2023-07-31 14:08:48.246151,-100.0
2023-07-31 14:08:48.253840,-102.0
2023-07-31 14:08:48.261529,-100.0
2023-07-31 14:08:48.269219,-95.0
2023-07-31 14:08:48.276908,-90.0
2023-07-31 14:08:48.284597,-88.0
2023-07-31 14:08:48.292287,-100.0
2023-07-31 14:08:48.299976,-35.0
2023-07-31 14:08:48.307665,299.0
2023-07-31 14:08:48.315355,830.0
2023-07-31 14:08:48.323044,1016.0
2023-07-31 14:08:48.330734,366.0
2023-07-31 14:08:48.338423,-449.0
2023-07-31 14:08:48.346112,-401.0
2023-07-31 14:08:48.353802,-52.0
2023-07-31 14:08:48.361491,-129.0
2023-07-31 14:08:48.369180,-200.0
2023-07-31 14:08:48.376870,-107.0
2023-07-31 14:08:48.384559,-105.0
2023-07-31 14:08:48.392248,-138.0
2023-07-31 14:08:48.399938,-107.0
2023-07-31 14:08:48.407627,-90.0
2023-07-31 14:08:48.415316,-100.0
2023-07-31 14:08:48.423006,-86.0
2023-07-31 14:08:48.430695,-71.0
2023-07-31 14:08:48.438384,-66.0
2023-07-31 14:08:48.446074,-62.0
2023-07-31 14:08:48.453763,-57.0
2023-07-31 14:08:48.461452,-52.0
2023-07-31 14:08:48.469142,-50.0
2023-07-31 14:08:48.476831,-40.0
2023-07-31 14:08:48.484520,-26.0
2023-07-31 14:08:48.492210,-14.0
2023-07-31 14:08:48.499899,0.0
2023-07-31 14:08:48.507588,11.0
2023-07-31 14:08:48.515278,19.0
2023-07-31 14:08:48.522967,28.0
2023-07-31 14:08:48.530656,52.0
2023-07-31 14:08:48.538346,69.0
2023-07-31 14:08:48.546035,78.0
2023-07-31 14:08:48.553724,100.0
2023-07-31 14:08:48.561414,119.0
2023-07-31 14:08:48.569103,119.0
2023-07-31 14:08:48.576792,114.0
2023-07-31 14:08:48.584482,117.0
2023-07-31 14:08:48.592171,117.0
2023-07-31 14:08:48.599860,102.0
2023-07-31 14:08:48.607550,66.0
2023-07-31 14:08:48.615239,16.0
2023-07-31 14:08:48.622928,-38.0
2023-07-31 14:08:48.630618,-88.0
2023-07-31 14:08:48.638307,-124.0
2023-07-31 14:08:48.645996,-150.0
2023-07-31 14:08:48.653686,-167.0
2023-07-31 14:08:48.661375,-174.0
2023-07-31 14:08:48.669064,-174.0
2023-07-31 14:08:48.676754,-172.0
2023-07-31 14:08:48.684443,-167.0
2023-07-31 14:08:48.692132,-167.0
2023-07-31 14:08:48.699822,-167.0
2023-07-31 14:08:48.707511,-165.0
2023-07-31 14:08:48.715200,-160.0
2023-07-31 14:08:48.722890,-155.0
2023-07-31 14:08:48.730579,-150.0
2023-07-31 14:08:48.738268,-148.0
2023-07-31 14:08:48.745958,-143.0
2023-07-31 14:08:48.753647,-138.0
2023-07-31 14:08:48.761336,-133.0
2023-07-31 14:08:48.769026,-126.0
2023-07-31 14:08:48.776715,-124.0
2023-07-31 14:08:48.784404,-126.0
2023-07-31 14:08:48.792094,-126.0
2023-07-31 14:08:48.799783,-119.0
2023-07-31 14:08:48.807472,-117.0
2023-07-31 14:08:48.815162,-122.0
2023-07-31 14:08:48.822851,-117.0
2023-07-31 14:08:48.830540,-117.0
2023-07-31 14:08:48.838230,-126.0
2023-07-31 14:08:48.845919,-129.0
2023-07-31 14:08:48.853608,-126.0
2023-07-31 14:08:48.861298,-124.0
2023-07-31 14:08:48.868987,-119.0
2023-07-31 14:08:48.876676,-122.0
2023-07-31 14:08:48.884366,-129.0
2023-07-31 14:08:48.892055,-131.0
2023-07-31 14:08:48.899744,-124.0
2023-07-31 14:08:48.907434,-110.0
2023-07-31 14:08:48.915123,-100.0
2023-07-31 14:08:48.922812,-90.0
2023-07-31 14:08:48.930502,-71.0
2023-07-31 14:08:48.938191,-62.0
2023-07-31 14:08:48.945880,-76.0
2023-07-31 14:08:48.953570,-90.0
2023-07-31 14:08:48.961259,-98.0
2023-07-31 14:08:48.968948,-105.0
2023-07-31 14:08:48.976638,-107.0
2023-07-31 14:08:48.984327,-100.0
2023-07-31 14:08:48.992016,-100.0
2023-07-31 14:08:48.999706,-102.0
2023-07-31 14:08:49.007395,-102.0
2023-07-31 14:08:49.015084,-98.0
2023-07-31 14:08:49.022774,-93.0
2023-07-31 14:08:49.030463,-95.0
2023-07-31 14:08:49.038152,-90.0
2023-07-31 14:08:49.045842,-93.0
2023-07-31 14:08:49.053531,-102.0
2023-07-31 14:08:49.061220,43.0
2023-07-31 14:08:49.068910,485.0
2023-07-31 14:08:49.076599,942.0
2023-07-31 14:08:49.084289,784.0
2023-07-31 14:08:49.091978,-57.0
2023-07-31 14:08:49.099667,-533.0
2023-07-31 14:08:49.107357,-227.0
2023-07-31 14:08:49.115046,-55.0
2023-07-31 14:08:49.122735,-186.0
2023-07-31 14:08:49.130425,-160.0
2023-07-31 14:08:49.138114,-90.0
2023-07-31 14:08:49.145803,-129.0
2023-07-31 14:08:49.153493,-133.0
2023-07-31 14:08:49.161182,-98.0
2023-07-31 14:08:49.168871,-95.0
2023-07-31 14:08:49.176561,-98.0
2023-07-31 14:08:49.184250,-81.0
2023-07-31 14:08:49.191939,-76.0
2023-07-31 14:08:49.199629,-78.0
2023-07-31 14:08:49.207318,-69.0
2023-07-31 14:08:49.215007,-59.0
2023-07-31 14:08:49.222697,-55.0
2023-07-31 14:08:49.230386,-45.0
2023-07-31 14:08:49.238075,-33.0
2023-07-31 14:08:49.245765,-26.0
2023-07-31 14:08:49.253454,-16.0
2023-07-31 14:08:49.261143,-2.0
2023-07-31 14:08:49.268833,11.0
2023-07-31 14:08:49.276522,31.0
2023-07-31 14:08:49.284211,45.0
2023-07-31 14:08:49.291901,57.0
2023-07-31 14:08:49.299590,78.0
2023-07-31 14:08:49.307279,100.0
2023-07-31 14:08:49.314969,110.0
2023-07-31 14:08:49.322658,114.0
2023-07-31 14:08:49.330347,119.0
2023-07-31 14:08:49.338037,126.0
2023-07-31 14:08:49.345726,124.0
2023-07-31 14:08:49.353415,112.0
2023-07-31 14:08:49.361105,88.0
2023-07-31 14:08:49.368794,45.0
2023-07-31 14:08:49.376483,-9.0
2023-07-31 14:08:49.384173,-59.0
2023-07-31 14:08:49.391862,-100.0
2023-07-31 14:08:49.399551,-133.0
2023-07-31 14:08:49.407241,-153.0
2023-07-31 14:08:49.414930,-167.0
2023-07-31 14:08:49.422619,-177.0
2023-07-31 14:08:49.430309,-177.0
2023-07-31 14:08:49.437998,-177.0
2023-07-31 14:08:49.445687,-172.0
2023-07-31 14:08:49.453377,-169.0
2023-07-31 14:08:49.461066,-172.0
2023-07-31 14:08:49.468755,-169.0
2023-07-31 14:08:49.476445,-157.0
2023-07-31 14:08:49.484134,-153.0
2023-07-31 14:08:49.491823,-153.0
2023-07-31 14:08:49.499513,-148.0
2023-07-31 14:08:49.507202,-138.0
2023-07-31 14:08:49.514891,-131.0
2023-07-31 14:08:49.522581,-131.0
2023-07-31 14:08:49.530270,-129.0
2023-07-31 14:08:49.537959,-124.0
2023-07-31 14:08:49.545649,-122.0
2023-07-31 14:08:49.553338,-122.0
2023-07-31 14:08:49.561027,-122.0
2023-07-31 14:08:49.568717,-119.0
2023-07-31 14:08:49.576406,-114.0
2023-07-31 14:08:49.584095,-114.0
2023-07-31 14:08:49.591785,-117.0
2023-07-31 14:08:49.599474,-117.0
2023-07-31 14:08:49.607163,-117.0
2023-07-31 14:08:49.614853,-114.0
2023-07-31 14:08:49.622542,-110.0
2023-07-31 14:08:49.630231,-102.0
2023-07-31 14:08:49.637921,-114.0
2023-07-31 14:08:49.645610,-129.0
2023-07-31 14:08:49.653299,-133.0
2023-07-31 14:08:49.660989,-126.0
2023-07-31 14:08:49.668678,-114.0
2023-07-31 14:08:49.676367,-100.0
2023-07-31 14:08:49.684057,-86.0
2023-07-31 14:08:49.691746,-76.0
2023-07-31 14:08:49.699435,-76.0
2023-07-31 14:08:49.707125,-88.0
2023-07-31 14:08:49.714814,-102.0
2023-07-31 14:08:49.722503,-110.0
2023-07-31 14:08:49.730193,-110.0
2023-07-31 14:08:49.737882,-110.0
2023-07-31 14:08:49.745571,-110.0
2023-07-31 14:08:49.753261,-110.0
2023-07-31 14:08:49.760950,-107.0
2023-07-31 14:08:49.768639,-105.0
2023-07-31 14:08:49.776329,-102.0
2023-07-31 14:08:49.784018,-98.0
2023-07-31 14:08:49.791707,-95.0
2023-07-31 14:08:49.799397,-90.0
2023-07-31 14:08:49.807086,-100.0
2023-07-31 14:08:49.814775,-95.0
2023-07-31 14:08:49.822465,74.0
2023-07-31 14:08:49.830154,521.0
2023-07-31 14:08:49.837843,954.0
2023-07-31 14:08:49.845533,739.0
2023-07-31 14:08:49.853222,-119.0
2023-07-31 14:08:49.860912,-528.0
2023-07-31 14:08:49.868601,-196.0
2023-07-31 14:08:49.876290,-59.0
2023-07-31 14:08:49.883980,-193.0
2023-07-31 14:08:49.891669,-145.0
2023-07-31 14:08:49.899358,-86.0
2023-07-31 14:08:49.907048,-129.0
2023-07-31 14:08:49.914737,-126.0
2023-07-31 14:08:49.922426,-90.0
2023-07-31 14:08:49.930116,-93.0
2023-07-31 14:08:49.937805,-95.0
2023-07-31 14:08:49.945494,-83.0
2023-07-31 14:08:49.953184,-78.0
2023-07-31 14:08:49.960873,-71.0
2023-07-31 14:08:49.968562,-59.0
2023-07-31 14:08:49.976252,-55.0
2023-07-31 14:08:49.983941,-52.0
2023-07-31 14:08:49.991630,-40.0
2023-07-31 14:08:49.999320,-28.0
2023-07-31 14:08:50.007009,-16.0
2023-07-31 14:08:50.014698,-2.0
2023-07-31 14:08:50.022388,7.0
2023-07-31 14:08:50.030077,19.0
2023-07-31 14:08:50.037766,38.0
2023-07-31 14:08:50.045456,59.0
2023-07-31 14:08:50.053145,74.0
2023-07-31 14:08:50.060834,88.0
2023-07-31 14:08:50.068524,107.0
2023-07-31 14:08:50.076213,122.0
2023-07-31 14:08:50.083902,131.0
2023-07-31 14:08:50.091592,138.0
2023-07-31 14:08:50.099281,143.0
2023-07-31 14:08:50.106970,143.0
2023-07-31 14:08:50.114660,133.0
2023-07-31 14:08:50.122349,110.0
2023-07-31 14:08:50.130038,64.0
2023-07-31 14:08:50.137728,9.0
2023-07-31 14:08:50.145417,-40.0
2023-07-31 14:08:50.153106,-81.0
2023-07-31 14:08:50.160796,-112.0
2023-07-31 14:08:50.168485,-138.0
2023-07-31 14:08:50.176174,-153.0
2023-07-31 14:08:50.183864,-162.0
2023-07-31 14:08:50.191553,-174.0
2023-07-31 14:08:50.199242,-174.0
2023-07-31 14:08:50.206932,-167.0
2023-07-31 14:08:50.214621,-167.0
2023-07-31 14:08:50.222310,-169.0
2023-07-31 14:08:50.230000,-160.0
2023-07-31 14:08:50.237689,-150.0
2023-07-31 14:08:50.245378,-148.0
2023-07-31 14:08:50.253068,-143.0
2023-07-31 14:08:50.260757,-138.0
2023-07-31 14:08:50.268446,-138.0
2023-07-31 14:08:50.276136,-131.0
2023-07-31 14:08:50.283825,-122.0
2023-07-31 14:08:50.291514,-117.0
2023-07-31 14:08:50.299204,-122.0
2023-07-31 14:08:50.306893,-122.0
2023-07-31 14:08:50.314582,-117.0
2023-07-31 14:08:50.322272,-117.0
2023-07-31 14:08:50.329961,-119.0
2023-07-31 14:08:50.337650,-117.0
2023-07-31 14:08:50.345340,-114.0
2023-07-31 14:08:50.353029,-124.0
2023-07-31 14:08:50.360718,-129.0
2023-07-31 14:08:50.368408,-117.0
2023-07-31 14:08:50.376097,-110.0
2023-07-31 14:08:50.383786,-112.0
2023-07-31 14:08:50.391476,-117.0
2023-07-31 14:08:50.399165,-117.0
2023-07-31 14:08:50.406854,-119.0
2023-07-31 14:08:50.414544,-124.0
2023-07-31 14:08:50.422233,-114.0
2023-07-31 14:08:50.429922,-90.0
2023-07-31 14:08:50.437612,-78.0
2023-07-31 14:08:50.445301,-74.0
2023-07-31 14:08:50.452990,-66.0
2023-07-31 14:08:50.460680,-76.0
2023-07-31 14:08:50.468369,-93.0
2023-07-31 14:08:50.476058,-93.0
2023-07-31 14:08:50.483748,-98.0
2023-07-31 14:08:50.491437,-107.0
2023-07-31 14:08:50.499126,-100.0
2023-07-31 14:08:50.506816,-90.0
2023-07-31 14:08:50.514505,-93.0
2023-07-31 14:08:50.522194,-100.0
2023-07-31 14:08:50.529884,-98.0
2023-07-31 14:08:50.537573,-93.0
2023-07-31 14:08:50.545262,-88.0
2023-07-31 14:08:50.552952,-86.0
2023-07-31 14:08:50.560641,-83.0
2023-07-31 14:08:50.568330,-86.0
2023-07-31 14:08:50.576020,62.0
2023-07-31 14:08:50.583709,533.0
2023-07-31 14:08:50.591398,1021.0
2023-07-31 14:08:50.599088,825.0
2023-07-31 14:08:50.606777,-78.0
2023-07-31 14:08:50.614467,-528.0
2023-07-31 14:08:50.622156,-186.0
2023-07-31 14:08:50.629845,-52.0
2023-07-31 14:08:50.637535,-205.0
2023-07-31 14:08:50.645224,-141.0
2023-07-31 14:08:50.652913,-64.0
2023-07-31 14:08:50.660603,-124.0
2023-07-31 14:08:50.668292,-131.0
2023-07-31 14:08:50.675981,-86.0
2023-07-31 14:08:50.683671,-88.0
2023-07-31 14:08:50.691360,-95.0
2023-07-31 14:08:50.699049,-74.0
2023-07-31 14:08:50.706739,-64.0
2023-07-31 14:08:50.714428,-69.0
2023-07-31 14:08:50.722117,-64.0
2023-07-31 14:08:50.729807,-59.0
2023-07-31 14:08:50.737496,-52.0
2023-07-31 14:08:50.745185,-47.0
2023-07-31 14:08:50.752875,-40.0
2023-07-31 14:08:50.760564,-23.0
2023-07-31 14:08:50.768253,-2.0
2023-07-31 14:08:50.775943,7.0
2023-07-31 14:08:50.783632,16.0
2023-07-31 14:08:50.791321,40.0
2023-07-31 14:08:50.799011,62.0
2023-07-31 14:08:50.806700,69.0
2023-07-31 14:08:50.814389,71.0
2023-07-31 14:08:50.822079,98.0
2023-07-31 14:08:50.829768,124.0
2023-07-31 14:08:50.837457,126.0
2023-07-31 14:08:50.845147,124.0
2023-07-31 14:08:50.852836,131.0
2023-07-31 14:08:50.860525,138.0
2023-07-31 14:08:50.868215,124.0
2023-07-31 14:08:50.875904,86.0
2023-07-31 14:08:50.883593,35.0
2023-07-31 14:08:50.891283,-16.0
2023-07-31 14:08:50.898972,-78.0
2023-07-31 14:08:50.906661,-124.0
2023-07-31 14:08:50.914351,-153.0
2023-07-31 14:08:50.922040,-177.0
2023-07-31 14:08:50.929729,-196.0
2023-07-31 14:08:50.937419,-200.0
2023-07-31 14:08:50.945108,-203.0
2023-07-31 14:08:50.952797,-203.0
2023-07-31 14:08:50.960487,-196.0
2023-07-31 14:08:50.968176,-184.0
2023-07-31 14:08:50.975865,-181.0
2023-07-31 14:08:50.983555,-177.0
2023-07-31 14:08:50.991244,-169.0
2023-07-31 14:08:50.998933,-162.0
2023-07-31 14:08:51.006623,-153.0
2023-07-31 14:08:51.014312,-143.0
2023-07-31 14:08:51.022001,-141.0
2023-07-31 14:08:51.029691,-136.0
2023-07-31 14:08:51.037380,-126.0
2023-07-31 14:08:51.045069,-126.0
2023-07-31 14:08:51.052759,-126.0
2023-07-31 14:08:51.060448,-124.0
2023-07-31 14:08:51.068137,-124.0
2023-07-31 14:08:51.075827,-126.0
2023-07-31 14:08:51.083516,-124.0
2023-07-31 14:08:51.091205,-122.0
2023-07-31 14:08:51.098895,-122.0
2023-07-31 14:08:51.106584,-119.0
2023-07-31 14:08:51.114273,-117.0
2023-07-31 14:08:51.121963,-119.0
2023-07-31 14:08:51.129652,-119.0
2023-07-31 14:08:51.137341,-117.0
2023-07-31 14:08:51.145031,-107.0
2023-07-31 14:08:51.152720,-95.0
2023-07-31 14:08:51.160409,-81.0
2023-07-31 14:08:51.168099,-74.0
2023-07-31 14:08:51.175788,-66.0
2023-07-31 14:08:51.183477,-62.0
2023-07-31 14:08:51.191167,-66.0
2023-07-31 14:08:51.198856,-81.0
2023-07-31 14:08:51.206545,-95.0
2023-07-31 14:08:51.214235,-100.0
2023-07-31 14:08:51.221924,-102.0
2023-07-31 14:08:51.229613,-102.0
2023-07-31 14:08:51.237303,-100.0
2023-07-31 14:08:51.244992,-98.0
2023-07-31 14:08:51.252681,-100.0
2023-07-31 14:08:51.260371,-98.0
2023-07-31 14:08:51.268060,-93.0
2023-07-31 14:08:51.275749,-93.0
2023-07-31 14:08:51.283439,-88.0
2023-07-31 14:08:51.291128,-83.0
2023-07-31 14:08:51.298817,-102.0
2023-07-31 14:08:51.306507,-93.0
2023-07-31 14:08:51.314196,172.0
2023-07-31 14:08:51.321885,741.0
2023-07-31 14:08:51.329575,1091.0
2023-07-31 14:08:51.337264,555.0
2023-07-31 14:08:51.344953,-368.0
2023-07-31 14:08:51.352643,-461.0
2023-07-31 14:08:51.360332,-78.0
2023-07-31 14:08:51.368022,-124.0
2023-07-31 14:08:51.375711,-224.0
2023-07-31 14:08:51.383400,-112.0
2023-07-31 14:08:51.391090,-98.0
2023-07-31 14:08:51.398779,-145.0
2023-07-31 14:08:51.406468,-114.0
2023-07-31 14:08:51.414158,-90.0
2023-07-31 14:08:51.421847,-105.0
2023-07-31 14:08:51.429536,-95.0
2023-07-31 14:08:51.437226,-78.0
2023-07-31 14:08:51.444915,-81.0
2023-07-31 14:08:51.452604,-76.0
2023-07-31 14:08:51.460294,-62.0
2023-07-31 14:08:51.467983,-52.0
2023-07-31 14:08:51.475672,-45.0
2023-07-31 14:08:51.483362,-31.0
2023-07-31 14:08:51.491051,-19.0
2023-07-31 14:08:51.498740,-11.0
2023-07-31 14:08:51.506430,0.0
2023-07-31 14:08:51.514119,16.0
2023-07-31 14:08:51.521808,28.0
2023-07-31 14:08:51.529498,45.0
2023-07-31 14:08:51.537187,62.0
2023-07-31 14:08:51.544876,78.0
2023-07-31 14:08:51.552566,93.0
2023-07-31 14:08:51.560255,110.0
2023-07-31 14:08:51.567944,124.0
2023-07-31 14:08:51.575634,129.0
2023-07-31 14:08:51.583323,133.0
2023-07-31 14:08:51.591012,138.0
2023-07-31 14:08:51.598702,133.0
2023-07-31 14:08:51.606391,119.0
2023-07-31 14:08:51.614080,83.0
2023-07-31 14:08:51.621770,33.0
2023-07-31 14:08:51.629459,-23.0
2023-07-31 14:08:51.637148,-76.0
2023-07-31 14:08:51.644838,-112.0
2023-07-31 14:08:51.652527,-131.0
2023-07-31 14:08:51.660216,-150.0
2023-07-31 14:08:51.667906,-162.0
2023-07-31 14:08:51.675595,-167.0
2023-07-31 14:08:51.683284,-167.0
2023-07-31 14:08:51.690974,-165.0
2023-07-31 14:08:51.698663,-165.0
2023-07-31 14:08:51.706352,-157.0
2023-07-31 14:08:51.714042,-153.0
2023-07-31 14:08:51.721731,-148.0
2023-07-31 14:08:51.729420,-143.0
2023-07-31 14:08:51.737110,-138.0
2023-07-31 14:08:51.744799,-136.0
2023-07-31 14:08:51.752488,-129.0
2023-07-31 14:08:51.760178,-124.0
2023-07-31 14:08:51.767867,-124.0
2023-07-31 14:08:51.775556,-124.0
2023-07-31 14:08:51.783246,-119.0
2023-07-31 14:08:51.790935,-114.0
2023-07-31 14:08:51.798624,-112.0
2023-07-31 14:08:51.806314,-112.0
2023-07-31 14:08:51.814003,-114.0
2023-07-31 14:08:51.821692,-114.0
2023-07-31 14:08:51.829382,-110.0
2023-07-31 14:08:51.837071,-110.0
2023-07-31 14:08:51.844760,-112.0
2023-07-31 14:08:51.852450,-110.0
2023-07-31 14:08:51.860139,-110.0
2023-07-31 14:08:51.867828,-114.0
2023-07-31 14:08:51.875518,-114.0
2023-07-31 14:08:51.883207,-110.0
2023-07-31 14:08:51.890896,-112.0
2023-07-31 14:08:51.898586,-124.0
2023-07-31 14:08:51.906275,-131.0
2023-07-31 14:08:51.913964,-131.0
2023-07-31 14:08:51.921654,-131.0
2023-07-31 14:08:51.929343,-122.0
2023-07-31 14:08:51.937032,-100.0
2023-07-31 14:08:51.944722,-81.0
2023-07-31 14:08:51.952411,-71.0
2023-07-31 14:08:51.960100,-66.0
2023-07-31 14:08:51.967790,-74.0
2023-07-31 14:08:51.975479,-86.0
2023-07-31 14:08:51.983168,-95.0
2023-07-31 14:08:51.990858,-98.0
2023-07-31 14:08:51.998547,-95.0
2023-07-31 14:08:52.006236,-95.0
2023-07-31 14:08:52.013926,-95.0
2023-07-31 14:08:52.021615,-95.0
2023-07-31 14:08:52.029304,-90.0
2023-07-31 14:08:52.036994,-90.0
2023-07-31 14:08:52.044683,-86.0
2023-07-31 14:08:52.052372,-81.0
2023-07-31 14:08:52.060062,-81.0
2023-07-31 14:08:52.067751,-90.0
2023-07-31 14:08:52.075440,-78.0
2023-07-31 14:08:52.083130,119.0
2023-07-31 14:08:52.090819,581.0
2023-07-31 14:08:52.098508,980.0
2023-07-31 14:08:52.106198,715.0
2023-07-31 14:08:52.113887,-150.0
2023-07-31 14:08:52.121577,-509.0
2023-07-31 14:08:52.129266,-160.0
2023-07-31 14:08:52.136955,-47.0
2023-07-31 14:08:52.144645,-191.0
2023-07-31 14:08:52.152334,-141.0
2023-07-31 14:08:52.160023,-86.0
2023-07-31 14:08:52.167713,-133.0
2023-07-31 14:08:52.175402,-126.0
2023-07-31 14:08:52.183091,-93.0
2023-07-31 14:08:52.190781,-95.0
2023-07-31 14:08:52.198470,-93.0
2023-07-31 14:08:52.206159,-78.0
2023-07-31 14:08:52.213849,-76.0
2023-07-31 14:08:52.221538,-74.0
2023-07-31 14:08:52.229227,-64.0
2023-07-31 14:08:52.236917,-57.0
2023-07-31 14:08:52.244606,-52.0
2023-07-31 14:08:52.252295,-40.0
2023-07-31 14:08:52.259985,-31.0
2023-07-31 14:08:52.267674,-23.0
2023-07-31 14:08:52.275363,-11.0
2023-07-31 14:08:52.283053,0.0
2023-07-31 14:08:52.290742,16.0
2023-07-31 14:08:52.298431,31.0
2023-07-31 14:08:52.306121,45.0
2023-07-31 14:08:52.313810,66.0
2023-07-31 14:08:52.321499,86.0
2023-07-31 14:08:52.329189,102.0
2023-07-31 14:08:52.336878,114.0
2023-07-31 14:08:52.344567,124.0
2023-07-31 14:08:52.352257,131.0
2023-07-31 14:08:52.359946,136.0
2023-07-31 14:08:52.367635,133.0
2023-07-31 14:08:52.375325,122.0
2023-07-31 14:08:52.383014,93.0
2023-07-31 14:08:52.390703,47.0
2023-07-31 14:08:52.398393,-7.0
2023-07-31 14:08:52.406082,-57.0
2023-07-31 14:08:52.413771,-100.0
2023-07-31 14:08:52.421461,-136.0
2023-07-31 14:08:52.429150,-160.0
2023-07-31 14:08:52.436839,-172.0
2023-07-31 14:08:52.444529,-172.0
2023-07-31 14:08:52.452218,-172.0
2023-07-31 14:08:52.459907,-172.0
2023-07-31 14:08:52.467597,-174.0
2023-07-31 14:08:52.475286,-177.0
2023-07-31 14:08:52.482975,-177.0
2023-07-31 14:08:52.490665,-169.0
2023-07-31 14:08:52.498354,-165.0
2023-07-31 14:08:52.506043,-160.0
2023-07-31 14:08:52.513733,-157.0
2023-07-31 14:08:52.521422,-157.0
2023-07-31 14:08:52.529111,-160.0
2023-07-31 14:08:52.536801,-153.0
2023-07-31 14:08:52.544490,-145.0
2023-07-31 14:08:52.552179,-143.0
2023-07-31 14:08:52.559869,-143.0
2023-07-31 14:08:52.567558,-141.0
2023-07-31 14:08:52.575247,-131.0
2023-07-31 14:08:52.582937,-124.0
2023-07-31 14:08:52.590626,-124.0
2023-07-31 14:08:52.598315,-126.0
2023-07-31 14:08:52.606005,-124.0
2023-07-31 14:08:52.613694,-122.0
2023-07-31 14:08:52.621383,-126.0
2023-07-31 14:08:52.629073,-126.0
2023-07-31 14:08:52.636762,-117.0
2023-07-31 14:08:52.644451,-114.0
2023-07-31 14:08:52.652141,-122.0
2023-07-31 14:08:52.659830,-119.0
2023-07-31 14:08:52.667519,-112.0
2023-07-31 14:08:52.675209,-114.0
2023-07-31 14:08:52.682898,-117.0
2023-07-31 14:08:52.690587,-114.0
2023-07-31 14:08:52.698277,-110.0
2023-07-31 14:08:52.705966,-98.0
2023-07-31 14:08:52.713655,-83.0
2023-07-31 14:08:52.721345,-66.0
2023-07-31 14:08:52.729034,-52.0
2023-07-31 14:08:52.736723,-55.0
2023-07-31 14:08:52.744413,-71.0
2023-07-31 14:08:52.752102,-88.0
2023-07-31 14:08:52.759791,-90.0
2023-07-31 14:08:52.767481,-88.0
2023-07-31 14:08:52.775170,-86.0
2023-07-31 14:08:52.782859,-86.0
2023-07-31 14:08:52.790549,-88.0
2023-07-31 14:08:52.798238,-88.0
2023-07-31 14:08:52.805927,-83.0
2023-07-31 14:08:52.813617,-83.0
2023-07-31 14:08:52.821306,-86.0
2023-07-31 14:08:52.828995,-81.0
2023-07-31 14:08:52.836685,-76.0
2023-07-31 14:08:52.844374,-90.0
2023-07-31 14:08:52.852063,-19.0
2023-07-31 14:08:52.859753,315.0
2023-07-31 14:08:52.867442,811.0
2023-07-31 14:08:52.875132,940.0
2023-07-31 14:08:52.882821,289.0
2023-07-31 14:08:52.890510,-447.0
2023-07-31 14:08:52.898200,-358.0
2023-07-31 14:08:52.905889,-52.0
2023-07-31 14:08:52.913578,-141.0
2023-07-31 14:08:52.921268,-191.0
2023-07-31 14:08:52.928957,-98.0
2023-07-31 14:08:52.936646,-105.0
2023-07-31 14:08:52.944336,-131.0
2023-07-31 14:08:52.952025,-102.0
2023-07-31 14:08:52.959714,-90.0
2023-07-31 14:08:52.967404,-100.0
2023-07-31 14:08:52.975093,-95.0
2023-07-31 14:08:52.982782,-88.0
2023-07-31 14:08:52.990472,-81.0
2023-07-31 14:08:52.998161,-76.0
2023-07-31 14:08:53.005850,-66.0
2023-07-31 14:08:53.013540,-59.0
2023-07-31 14:08:53.021229,-50.0
2023-07-31 14:08:53.028918,-43.0
2023-07-31 14:08:53.036608,-35.0
2023-07-31 14:08:53.044297,-21.0
2023-07-31 14:08:53.051986,-7.0
2023-07-31 14:08:53.059676,4.0
2023-07-31 14:08:53.067365,19.0
2023-07-31 14:08:53.075054,35.0
2023-07-31 14:08:53.082744,50.0
2023-07-31 14:08:53.090433,69.0
2023-07-31 14:08:53.098122,90.0
2023-07-31 14:08:53.105812,110.0
2023-07-31 14:08:53.113501,117.0
2023-07-31 14:08:53.121190,124.0
2023-07-31 14:08:53.128880,129.0
2023-07-31 14:08:53.136569,136.0
2023-07-31 14:08:53.144258,133.0
2023-07-31 14:08:53.151948,110.0
2023-07-31 14:08:53.159637,71.0
2023-07-31 14:08:53.167326,26.0
2023-07-31 14:08:53.175016,-26.0
2023-07-31 14:08:53.182705,-74.0
2023-07-31 14:08:53.190394,-107.0
2023-07-31 14:08:53.198084,-136.0
2023-07-31 14:08:53.205773,-160.0
2023-07-31 14:08:53.213462,-172.0
2023-07-31 14:08:53.221152,-167.0
2023-07-31 14:08:53.228841,-162.0
2023-07-31 14:08:53.236530,-165.0
2023-07-31 14:08:53.244220,-167.0
2023-07-31 14:08:53.251909,-162.0
2023-07-31 14:08:53.259598,-155.0
2023-07-31 14:08:53.267288,-145.0
2023-07-31 14:08:53.274977,-141.0
2023-07-31 14:08:53.282666,-141.0
2023-07-31 14:08:53.290356,-136.0
2023-07-31 14:08:53.298045,-136.0
2023-07-31 14:08:53.305734,-136.0
2023-07-31 14:08:53.313424,-131.0
2023-07-31 14:08:53.321113,-124.0
2023-07-31 14:08:53.328802,-122.0
2023-07-31 14:08:53.336492,-114.0
2023-07-31 14:08:53.344181,-114.0
2023-07-31 14:08:53.351870,-117.0
2023-07-31 14:08:53.359560,-114.0
2023-07-31 14:08:53.367249,-112.0
2023-07-31 14:08:53.374938,-110.0
2023-07-31 14:08:53.382628,-110.0
2023-07-31 14:08:53.390317,-117.0
2023-07-31 14:08:53.398006,-124.0
2023-07-31 14:08:53.405696,-122.0
2023-07-31 14:08:53.413385,-112.0
2023-07-31 14:08:53.421074,-107.0
2023-07-31 14:08:53.428764,-112.0
2023-07-31 14:08:53.436453,-112.0
2023-07-31 14:08:53.444142,-110.0
2023-07-31 14:08:53.451832,-110.0
2023-07-31 14:08:53.459521,-112.0
2023-07-31 14:08:53.467210,-114.0
2023-07-31 14:08:53.474900,-110.0
2023-07-31 14:08:53.482589,-88.0
2023-07-31 14:08:53.490278,-71.0
2023-07-31 14:08:53.497968,-62.0
2023-07-31 14:08:53.505657,-52.0
2023-07-31 14:08:53.513346,-55.0
2023-07-31 14:08:53.521036,-74.0
2023-07-31 14:08:53.528725,-90.0
2023-07-31 14:08:53.536414,-90.0
2023-07-31 14:08:53.544104,-86.0
2023-07-31 14:08:53.551793,-90.0
2023-07-31 14:08:53.559482,-100.0
2023-07-31 14:08:53.567172,-98.0
2023-07-31 14:08:53.574861,-88.0
2023-07-31 14:08:53.582550,-90.0
2023-07-31 14:08:53.590240,-93.0
2023-07-31 14:08:53.597929,-90.0
2023-07-31 14:08:53.605618,-88.0
2023-07-31 14:08:53.613308,-88.0
2023-07-31 14:08:53.620997,-98.0
2023-07-31 14:08:53.628686,-11.0
2023-07-31 14:08:53.636376,366.0
2023-07-31 14:08:53.644065,897.0
2023-07-31 14:08:53.651755,954.0
2023-07-31 14:08:53.659444,181.0
2023-07-31 14:08:53.667133,-514.0
2023-07-31 14:08:53.674823,-313.0
2023-07-31 14:08:53.682512,-31.0
2023-07-31 14:08:53.690201,-167.0
2023-07-31 14:08:53.697891,-189.0
2023-07-31 14:08:53.705580,-86.0
2023-07-31 14:08:53.713269,-110.0
2023-07-31 14:08:53.720959,-133.0
2023-07-31 14:08:53.728648,-102.0
2023-07-31 14:08:53.736337,-95.0
2023-07-31 14:08:53.744027,-93.0
2023-07-31 14:08:53.751716,-76.0
2023-07-31 14:08:53.759405,-66.0
2023-07-31 14:08:53.767095,-66.0
2023-07-31 14:08:53.774784,-64.0
2023-07-31 14:08:53.782473,-55.0
2023-07-31 14:08:53.790163,-40.0
2023-07-31 14:08:53.797852,-35.0
2023-07-31 14:08:53.805541,-31.0
2023-07-31 14:08:53.813231,-14.0
2023-07-31 14:08:53.820920,4.0
2023-07-31 14:08:53.828609,14.0
2023-07-31 14:08:53.836299,19.0
2023-07-31 14:08:53.843988,33.0
2023-07-31 14:08:53.851677,57.0
2023-07-31 14:08:53.859367,74.0
2023-07-31 14:08:53.867056,83.0
2023-07-31 14:08:53.874745,95.0
2023-07-31 14:08:53.882435,102.0
2023-07-31 14:08:53.890124,110.0
2023-07-31 14:08:53.897813,124.0
2023-07-31 14:08:53.905503,131.0
2023-07-31 14:08:53.913192,131.0
2023-07-31 14:08:53.920881,129.0
2023-07-31 14:08:53.928571,112.0
2023-07-31 14:08:53.936260,76.0
2023-07-31 14:08:53.943949,23.0
2023-07-31 14:08:53.951639,-33.0
2023-07-31 14:08:53.959328,-88.0
2023-07-31 14:08:53.967017,-129.0
2023-07-31 14:08:53.974707,-153.0
2023-07-31 14:08:53.982396,-172.0
2023-07-31 14:08:53.990085,-181.0
2023-07-31 14:08:53.997775,-181.0
2023-07-31 14:08:54.005464,-181.0
2023-07-31 14:08:54.013153,-181.0
2023-07-31 14:08:54.020843,-177.0
2023-07-31 14:08:54.028532,-172.0
2023-07-31 14:08:54.036221,-169.0
2023-07-31 14:08:54.043911,-160.0
2023-07-31 14:08:54.051600,-148.0
2023-07-31 14:08:54.059289,-148.0
2023-07-31 14:08:54.066979,-143.0
2023-07-31 14:08:54.074668,-138.0
2023-07-31 14:08:54.082357,-131.0
2023-07-31 14:08:54.090047,-122.0
2023-07-31 14:08:54.097736,-124.0
2023-07-31 14:08:54.105425,-136.0
2023-07-31 14:08:54.113115,-133.0
2023-07-31 14:08:54.120804,-122.0
2023-07-31 14:08:54.128493,-122.0
2023-07-31 14:08:54.136183,-126.0
2023-07-31 14:08:54.143872,-129.0
2023-07-31 14:08:54.151561,-126.0
2023-07-31 14:08:54.159251,-122.0
2023-07-31 14:08:54.166940,-119.0
2023-07-31 14:08:54.174629,-122.0
2023-07-31 14:08:54.182319,-117.0
2023-07-31 14:08:54.190008,-110.0
2023-07-31 14:08:54.197697,-107.0
2023-07-31 14:08:54.205387,-100.0
2023-07-31 14:08:54.213076,-86.0
2023-07-31 14:08:54.220765,-74.0
2023-07-31 14:08:54.228455,-69.0
2023-07-31 14:08:54.236144,-64.0
2023-07-31 14:08:54.243833,-62.0
2023-07-31 14:08:54.251523,-69.0
2023-07-31 14:08:54.259212,-88.0
2023-07-31 14:08:54.266901,-100.0
2023-07-31 14:08:54.274591,-100.0
2023-07-31 14:08:54.282280,-100.0
2023-07-31 14:08:54.289969,-102.0
2023-07-31 14:08:54.297659,-102.0
2023-07-31 14:08:54.305348,-100.0
2023-07-31 14:08:54.313037,-95.0
2023-07-31 14:08:54.320727,-93.0
2023-07-31 14:08:54.328416,-93.0
2023-07-31 14:08:54.336105,-88.0
2023-07-31 14:08:54.343795,-86.0
2023-07-31 14:08:54.351484,-102.0
2023-07-31 14:08:54.359173,-93.0
2023-07-31 14:08:54.366863,160.0
2023-07-31 14:08:54.374552,710.0
2023-07-31 14:08:54.382241,1079.0
2023-07-31 14:08:54.389931,590.0
2023-07-31 14:08:54.397620,-346.0
2023-07-31 14:08:54.405310,-495.0
2023-07-31 14:08:54.412999,-100.0
2023-07-31 14:08:54.420688,-119.0
2023-07-31 14:08:54.428378,-232.0
2023-07-31 14:08:54.436067,-126.0
2023-07-31 14:08:54.443756,-105.0
2023-07-31 14:08:54.451446,-157.0
2023-07-31 14:08:54.459135,-129.0
2023-07-31 14:08:54.466824,-102.0
2023-07-31 14:08:54.474514,-114.0
2023-07-31 14:08:54.482203,-105.0
2023-07-31 14:08:54.489892,-83.0
2023-07-31 14:08:54.497582,-83.0
2023-07-31 14:08:54.505271,-83.0
2023-07-31 14:08:54.512960,-74.0
2023-07-31 14:08:54.520650,-62.0
2023-07-31 14:08:54.528339,-52.0
2023-07-31 14:08:54.536028,-47.0
2023-07-31 14:08:54.543718,-38.0
2023-07-31 14:08:54.551407,-26.0
2023-07-31 14:08:54.559096,-11.0
2023-07-31 14:08:54.566786,2.0
2023-07-31 14:08:54.574475,14.0
2023-07-31 14:08:54.582164,26.0
2023-07-31 14:08:54.589854,45.0
2023-07-31 14:08:54.597543,64.0
2023-07-31 14:08:54.605232,81.0
2023-07-31 14:08:54.612922,93.0
2023-07-31 14:08:54.620611,100.0
2023-07-31 14:08:54.628300,105.0
2023-07-31 14:08:54.635990,100.0
2023-07-31 14:08:54.643679,95.0
2023-07-31 14:08:54.651368,93.0
2023-07-31 14:08:54.659058,83.0
2023-07-31 14:08:54.666747,55.0
2023-07-31 14:08:54.674436,4.0
2023-07-31 14:08:54.682126,-50.0
2023-07-31 14:08:54.689815,-100.0
2023-07-31 14:08:54.697504,-136.0
2023-07-31 14:08:54.705194,-162.0
2023-07-31 14:08:54.712883,-181.0
2023-07-31 14:08:54.720572,-191.0
2023-07-31 14:08:54.728262,-193.0
2023-07-31 14:08:54.735951,-189.0
2023-07-31 14:08:54.743640,-184.0
2023-07-31 14:08:54.751330,-181.0
2023-07-31 14:08:54.759019,-174.0
2023-07-31 14:08:54.766708,-167.0
2023-07-31 14:08:54.774398,-162.0
2023-07-31 14:08:54.782087,-155.0
2023-07-31 14:08:54.789776,-148.0
2023-07-31 14:08:54.797466,-145.0
2023-07-31 14:08:54.805155,-145.0
2023-07-31 14:08:54.812844,-141.0
2023-07-31 14:08:54.820534,-133.0
2023-07-31 14:08:54.828223,-126.0
2023-07-31 14:08:54.835912,-124.0
2023-07-31 14:08:54.843602,-126.0
2023-07-31 14:08:54.851291,-124.0
2023-07-31 14:08:54.858980,-122.0
2023-07-31 14:08:54.866670,-122.0
2023-07-31 14:08:54.874359,-126.0
2023-07-31 14:08:54.882048,-129.0
2023-07-31 14:08:54.889738,-129.0
2023-07-31 14:08:54.897427,-131.0
2023-07-31 14:08:54.905116,-129.0
2023-07-31 14:08:54.912806,-124.0
2023-07-31 14:08:54.920495,-124.0
2023-07-31 14:08:54.928184,-124.0
2023-07-31 14:08:54.935874,-119.0
2023-07-31 14:08:54.943563,-112.0
2023-07-31 14:08:54.951252,-117.0
2023-07-31 14:08:54.958942,-122.0
2023-07-31 14:08:54.966631,-124.0
2023-07-31 14:08:54.974320,-124.0
2023-07-31 14:08:54.982010,-119.0
2023-07-31 14:08:54.989699,-105.0
2023-07-31 14:08:54.997388,-86.0
2023-07-31 14:08:55.005078,-71.0
2023-07-31 14:08:55.012767,-59.0
2023-07-31 14:08:55.020456,-57.0
2023-07-31 14:08:55.028146,-66.0
2023-07-31 14:08:55.035835,-83.0
2023-07-31 14:08:55.043524,-90.0
2023-07-31 14:08:55.051214,-90.0
2023-07-31 14:08:55.058903,-90.0
2023-07-31 14:08:55.066592,-93.0
2023-07-31 14:08:55.074282,-93.0
2023-07-31 14:08:55.081971,-90.0
2023-07-31 14:08:55.089660,-88.0
2023-07-31 14:08:55.097350,-88.0
2023-07-31 14:08:55.105039,-86.0
2023-07-31 14:08:55.112728,-81.0
2023-07-31 14:08:55.120418,-78.0
2023-07-31 14:08:55.128107,-90.0
2023-07-31 14:08:55.135796,-47.0
2023-07-31 14:08:55.143486,229.0
2023-07-31 14:08:55.151175,722.0
2023-07-31 14:08:55.158865,988.0
2023-07-31 14:08:55.166554,488.0
2023-07-31 14:08:55.174243,-346.0
2023-07-31 14:08:55.181933,-433.0
2023-07-31 14:08:55.189622,-76.0
2023-07-31 14:08:55.197311,-95.0
2023-07-31 14:08:55.205001,-196.0
2023-07-31 14:08:55.212690,-112.0
2023-07-31 14:08:55.220379,-90.0
2023-07-31 14:08:55.228069,-131.0
2023-07-31 14:08:55.235758,-112.0
2023-07-31 14:08:55.243447,-86.0
2023-07-31 14:08:55.251137,-88.0
2023-07-31 14:08:55.258826,-83.0
2023-07-31 14:08:55.266515,-76.0
2023-07-31 14:08:55.274205,-74.0
2023-07-31 14:08:55.281894,-66.0
2023-07-31 14:08:55.289583,-57.0
2023-07-31 14:08:55.297273,-50.0
2023-07-31 14:08:55.304962,-43.0
2023-07-31 14:08:55.312651,-38.0
2023-07-31 14:08:55.320341,-38.0
2023-07-31 14:08:55.328030,-28.0
2023-07-31 14:08:55.335719,-14.0
2023-07-31 14:08:55.343409,-2.0
2023-07-31 14:08:55.351098,9.0
2023-07-31 14:08:55.358787,28.0
2023-07-31 14:08:55.366477,47.0
2023-07-31 14:08:55.374166,64.0
2023-07-31 14:08:55.381855,78.0
2023-07-31 14:08:55.389545,98.0
2023-07-31 14:08:55.397234,110.0
2023-07-31 14:08:55.404923,110.0
2023-07-31 14:08:55.412613,114.0
2023-07-31 14:08:55.420302,117.0
2023-07-31 14:08:55.427991,117.0
2023-07-31 14:08:55.435681,107.0
2023-07-31 14:08:55.443370,78.0
2023-07-31 14:08:55.451059,28.0
2023-07-31 14:08:55.458749,-28.0
2023-07-31 14:08:55.466438,-78.0
2023-07-31 14:08:55.474127,-119.0
2023-07-31 14:08:55.481817,-145.0
2023-07-31 14:08:55.489506,-165.0
2023-07-31 14:08:55.497195,-174.0
2023-07-31 14:08:55.504885,-177.0
2023-07-31 14:08:55.512574,-177.0
2023-07-31 14:08:55.520263,-174.0
2023-07-31 14:08:55.527953,-169.0
2023-07-31 14:08:55.535642,-165.0
2023-07-31 14:08:55.543331,-160.0
2023-07-31 14:08:55.551021,-155.0
2023-07-31 14:08:55.558710,-150.0
2023-07-31 14:08:55.566399,-148.0
2023-07-31 14:08:55.574089,-143.0
2023-07-31 14:08:55.581778,-143.0
2023-07-31 14:08:55.589467,-136.0
2023-07-31 14:08:55.597157,-131.0
2023-07-31 14:08:55.604846,-136.0
2023-07-31 14:08:55.612535,-138.0
2023-07-31 14:08:55.620225,-129.0
2023-07-31 14:08:55.627914,-122.0
2023-07-31 14:08:55.635603,-122.0
2023-07-31 14:08:55.643293,-126.0
2023-07-31 14:08:55.650982,-124.0
2023-07-31 14:08:55.658671,-119.0
2023-07-31 14:08:55.666361,-117.0
2023-07-31 14:08:55.674050,-117.0
2023-07-31 14:08:55.681739,-119.0
2023-07-31 14:08:55.689429,-114.0
2023-07-31 14:08:55.697118,-107.0
2023-07-31 14:08:55.704807,-105.0
2023-07-31 14:08:55.712497,-107.0
2023-07-31 14:08:55.720186,-112.0
2023-07-31 14:08:55.727875,-119.0
2023-07-31 14:08:55.735565,-119.0
2023-07-31 14:08:55.743254,-112.0
2023-07-31 14:08:55.750943,-107.0
2023-07-31 14:08:55.758633,-95.0
2023-07-31 14:08:55.766322,-78.0
2023-07-31 14:08:55.774011,-62.0
2023-07-31 14:08:55.781701,-52.0
2023-07-31 14:08:55.789390,-57.0
2023-07-31 14:08:55.797079,-74.0
2023-07-31 14:08:55.804769,-95.0
2023-07-31 14:08:55.812458,-105.0
2023-07-31 14:08:55.820147,-100.0
2023-07-31 14:08:55.827837,-98.0
2023-07-31 14:08:55.835526,-102.0
2023-07-31 14:08:55.843215,-102.0
2023-07-31 14:08:55.850905,-100.0
2023-07-31 14:08:55.858594,-100.0
2023-07-31 14:08:55.866283,-98.0
2023-07-31 14:08:55.873973,-95.0
2023-07-31 14:08:55.881662,-93.0
2023-07-31 14:08:55.889351,-93.0
2023-07-31 14:08:55.897041,-98.0
2023-07-31 14:08:55.904730,0.0
2023-07-31 14:08:55.912420,375.0
2023-07-31 14:08:55.920109,863.0
2023-07-31 14:08:55.927798,875.0
2023-07-31 14:08:55.935488,124.0
2023-07-31 14:08:55.943177,-507.0
2023-07-31 14:08:55.950866,-301.0
2023-07-31 14:08:55.958556,-43.0
2023-07-31 14:08:55.966245,-160.0
2023-07-31 14:08:55.973934,-179.0
2023-07-31 14:08:55.981624,-100.0
2023-07-31 14:08:55.989313,-119.0
2023-07-31 14:08:55.997002,-131.0
2023-07-31 14:08:56.004692,-98.0
2023-07-31 14:08:56.012381,-93.0
2023-07-31 14:08:56.020070,-98.0
2023-07-31 14:08:56.027760,-86.0
2023-07-31 14:08:56.035449,-78.0
2023-07-31 14:08:56.043138,-76.0
2023-07-31 14:08:56.050828,-66.0
2023-07-31 14:08:56.058517,-57.0
2023-07-31 14:08:56.066206,-50.0
2023-07-31 14:08:56.073896,-43.0
2023-07-31 14:08:56.081585,-35.0
2023-07-31 14:08:56.089274,-26.0
2023-07-31 14:08:56.096964,-14.0
2023-07-31 14:08:56.104653,-2.0
2023-07-31 14:08:56.112342,7.0
2023-07-31 14:08:56.120032,19.0
2023-07-31 14:08:56.127721,38.0
2023-07-31 14:08:56.135410,57.0
2023-07-31 14:08:56.143100,74.0
2023-07-31 14:08:56.150789,90.0
2023-07-31 14:08:56.158478,102.0
2023-07-31 14:08:56.166168,114.0
2023-07-31 14:08:56.173857,124.0
2023-07-31 14:08:56.181546,126.0
2023-07-31 14:08:56.189236,129.0
2023-07-31 14:08:56.196925,122.0
2023-07-31 14:08:56.204614,105.0
2023-07-31 14:08:56.212304,66.0
2023-07-31 14:08:56.219993,11.0
2023-07-31 14:08:56.227682,-38.0
2023-07-31 14:08:56.235372,-81.0
2023-07-31 14:08:56.243061,-124.0
2023-07-31 14:08:56.250750,-153.0
2023-07-31 14:08:56.258440,-165.0
2023-07-31 14:08:56.266129,-172.0
2023-07-31 14:08:56.273818,-172.0
2023-07-31 14:08:56.281508,-167.0
2023-07-31 14:08:56.289197,-167.0
2023-07-31 14:08:56.296886,-167.0
2023-07-31 14:08:56.304576,-162.0
2023-07-31 14:08:56.312265,-157.0
2023-07-31 14:08:56.319954,-150.0
2023-07-31 14:08:56.327644,-145.0
2023-07-31 14:08:56.335333,-148.0
2023-07-31 14:08:56.343022,-143.0
2023-07-31 14:08:56.350712,-141.0
2023-07-31 14:08:56.358401,-136.0
2023-07-31 14:08:56.366090,-129.0
2023-07-31 14:08:56.373780,-124.0
2023-07-31 14:08:56.381469,-126.0
2023-07-31 14:08:56.389158,-131.0
2023-07-31 14:08:56.396848,-129.0
2023-07-31 14:08:56.404537,-126.0
2023-07-31 14:08:56.412226,-129.0
2023-07-31 14:08:56.419916,-133.0
2023-07-31 14:08:56.427605,-131.0
2023-07-31 14:08:56.435294,-133.0
2023-07-31 14:08:56.442984,-138.0
2023-07-31 14:08:56.450673,-131.0
2023-07-31 14:08:56.458362,-126.0
2023-07-31 14:08:56.466052,-126.0
2023-07-31 14:08:56.473741,-122.0
2023-07-31 14:08:56.481430,-122.0
2023-07-31 14:08:56.489120,-129.0
2023-07-31 14:08:56.496809,-126.0
2023-07-31 14:08:56.504498,-124.0
2023-07-31 14:08:56.512188,-119.0
2023-07-31 14:08:56.519877,-102.0
2023-07-31 14:08:56.527566,-86.0
2023-07-31 14:08:56.535256,-66.0
2023-07-31 14:08:56.542945,-59.0
2023-07-31 14:08:56.550634,-74.0
2023-07-31 14:08:56.558324,-88.0
2023-07-31 14:08:56.566013,-90.0
2023-07-31 14:08:56.573702,-95.0
2023-07-31 14:08:56.581392,-100.0
2023-07-31 14:08:56.589081,-93.0
2023-07-31 14:08:56.596770,-88.0
2023-07-31 14:08:56.604460,-95.0
2023-07-31 14:08:56.612149,-102.0
2023-07-31 14:08:56.619838,-95.0
2023-07-31 14:08:56.627528,-88.0
2023-07-31 14:08:56.635217,-88.0
2023-07-31 14:08:56.642906,-78.0
2023-07-31 14:08:56.650596,-78.0
2023-07-31 14:08:56.658285,-86.0
2023-07-31 14:08:56.665975,76.0
2023-07-31 14:08:56.673664,557.0
2023-07-31 14:08:56.681353,1031.0
2023-07-31 14:08:56.689043,796.0
2023-07-31 14:08:56.696732,-117.0
2023-07-31 14:08:56.704421,-521.0
2023-07-31 14:08:56.712111,-165.0
2023-07-31 14:08:56.719800,-52.0
2023-07-31 14:08:56.727489,-200.0
2023-07-31 14:08:56.735179,-136.0
2023-07-31 14:08:56.742868,-71.0
2023-07-31 14:08:56.750557,-126.0
2023-07-31 14:08:56.758247,-122.0
2023-07-31 14:08:56.765936,-81.0
2023-07-31 14:08:56.773625,-88.0
2023-07-31 14:08:56.781315,-88.0
2023-07-31 14:08:56.789004,-64.0
2023-07-31 14:08:56.796693,-64.0
2023-07-31 14:08:56.804383,-66.0
2023-07-31 14:08:56.812072,-57.0
2023-07-31 14:08:56.819761,-50.0
2023-07-31 14:08:56.827451,-40.0
2023-07-31 14:08:56.835140,-28.0
2023-07-31 14:08:56.842829,-26.0
2023-07-31 14:08:56.850519,-19.0
2023-07-31 14:08:56.858208,2.0
2023-07-31 14:08:56.865897,16.0
2023-07-31 14:08:56.873587,21.0
2023-07-31 14:08:56.881276,38.0
2023-07-31 14:08:56.888965,62.0
2023-07-31 14:08:56.896655,71.0
2023-07-31 14:08:56.904344,83.0
2023-07-31 14:08:56.912033,107.0
2023-07-31 14:08:56.919723,124.0
2023-07-31 14:08:56.927412,122.0
2023-07-31 14:08:56.935101,114.0
2023-07-31 14:08:56.942791,117.0
2023-07-31 14:08:56.950480,124.0
2023-07-31 14:08:56.958169,114.0
2023-07-31 14:08:56.965859,90.0
2023-07-31 14:08:56.973548,52.0
2023-07-31 14:08:56.981237,-4.0
2023-07-31 14:08:56.988927,-69.0
2023-07-31 14:08:56.996616,-119.0
2023-07-31 14:08:57.004305,-150.0
2023-07-31 14:08:57.011995,-172.0
2023-07-31 14:08:57.019684,-186.0
2023-07-31 14:08:57.027373,-189.0
2023-07-31 14:08:57.035063,-191.0
2023-07-31 14:08:57.042752,-193.0
2023-07-31 14:08:57.050441,-186.0
2023-07-31 14:08:57.058131,-181.0
2023-07-31 14:08:57.065820,-184.0
2023-07-31 14:08:57.073509,-177.0
2023-07-31 14:08:57.081199,-160.0
2023-07-31 14:08:57.088888,-157.0
2023-07-31 14:08:57.096577,-165.0
2023-07-31 14:08:57.104267,-157.0
2023-07-31 14:08:57.111956,-143.0
2023-07-31 14:08:57.119645,-141.0
2023-07-31 14:08:57.127335,-141.0
2023-07-31 14:08:57.135024,-133.0
2023-07-31 14:08:57.142713,-131.0
2023-07-31 14:08:57.150403,-133.0
2023-07-31 14:08:57.158092,-129.0
2023-07-31 14:08:57.165781,-126.0
2023-07-31 14:08:57.173471,-131.0
2023-07-31 14:08:57.181160,-129.0
2023-07-31 14:08:57.188849,-129.0
2023-07-31 14:08:57.196539,-124.0
2023-07-31 14:08:57.204228,-117.0
2023-07-31 14:08:57.211917,-114.0
2023-07-31 14:08:57.219607,-117.0
2023-07-31 14:08:57.227296,-112.0
2023-07-31 14:08:57.234985,-93.0
2023-07-31 14:08:57.242675,-78.0
2023-07-31 14:08:57.250364,-81.0
2023-07-31 14:08:57.258053,-81.0
2023-07-31 14:08:57.265743,-66.0
2023-07-31 14:08:57.273432,-66.0
2023-07-31 14:08:57.281121,-83.0
2023-07-31 14:08:57.288811,-102.0
2023-07-31 14:08:57.296500,-107.0
2023-07-31 14:08:57.304189,-105.0
2023-07-31 14:08:57.311879,-102.0
2023-07-31 14:08:57.319568,-105.0
2023-07-31 14:08:57.327257,-102.0
2023-07-31 14:08:57.334947,-102.0
2023-07-31 14:08:57.342636,-105.0
2023-07-31 14:08:57.350325,-100.0
2023-07-31 14:08:57.358015,-93.0
2023-07-31 14:08:57.365704,-90.0
2023-07-31 14:08:57.373393,-100.0
2023-07-31 14:08:57.381083,-112.0
2023-07-31 14:08:57.388772,47.0
2023-07-31 14:08:57.396461,545.0
2023-07-31 14:08:57.404151,1064.0
2023-07-31 14:08:57.411840,849.0
2023-07-31 14:08:57.419530,-100.0
2023-07-31 14:08:57.427219,-543.0
2023-07-31 14:08:57.434908,-181.0
2023-07-31 14:08:57.442598,-62.0
2023-07-31 14:08:57.450287,-224.0
2023-07-31 14:08:57.457976,-157.0
2023-07-31 14:08:57.465666,-88.0
2023-07-31 14:08:57.473355,-148.0
2023-07-31 14:08:57.481044,-148.0
2023-07-31 14:08:57.488734,-107.0
2023-07-31 14:08:57.496423,-114.0
2023-07-31 14:08:57.504112,-112.0
2023-07-31 14:08:57.511802,-93.0
2023-07-31 14:08:57.519491,-90.0
2023-07-31 14:08:57.527180,-86.0
2023-07-31 14:08:57.534870,-69.0
2023-07-31 14:08:57.542559,-64.0
2023-07-31 14:08:57.550248,-59.0
2023-07-31 14:08:57.557938,-47.0
2023-07-31 14:08:57.565627,-38.0
2023-07-31 14:08:57.573316,-31.0
2023-07-31 14:08:57.581006,-19.0
2023-07-31 14:08:57.588695,-4.0
2023-07-31 14:08:57.596384,7.0
2023-07-31 14:08:57.604074,23.0
2023-07-31 14:08:57.611763,43.0
2023-07-31 14:08:57.619452,57.0
2023-07-31 14:08:57.627142,71.0
2023-07-31 14:08:57.634831,90.0
2023-07-31 14:08:57.642520,105.0
2023-07-31 14:08:57.650210,110.0
2023-07-31 14:08:57.657899,112.0
2023-07-31 14:08:57.665588,117.0
2023-07-31 14:08:57.673278,119.0
2023-07-31 14:08:57.680967,107.0
2023-07-31 14:08:57.688656,74.0
2023-07-31 14:08:57.696346,23.0
2023-07-31 14:08:57.704035,-23.0
2023-07-31 14:08:57.711724,-71.0
2023-07-31 14:08:57.719414,-117.0
2023-07-31 14:08:57.727103,-145.0
2023-07-31 14:08:57.734792,-165.0
2023-07-31 14:08:57.742482,-177.0
2023-07-31 14:08:57.750171,-184.0
2023-07-31 14:08:57.757860,-181.0
2023-07-31 14:08:57.765550,-177.0
2023-07-31 14:08:57.773239,-177.0
2023-07-31 14:08:57.780928,-174.0
2023-07-31 14:08:57.788618,-167.0
2023-07-31 14:08:57.796307,-155.0
2023-07-31 14:08:57.803996,-150.0
2023-07-31 14:08:57.811686,-148.0
2023-07-31 14:08:57.819375,-143.0
2023-07-31 14:08:57.827064,-141.0
2023-07-31 14:08:57.834754,-138.0
2023-07-31 14:08:57.842443,-133.0
2023-07-31 14:08:57.850132,-129.0
2023-07-31 14:08:57.857822,-131.0
2023-07-31 14:08:57.865511,-129.0
2023-07-31 14:08:57.873200,-126.0
2023-07-31 14:08:57.880890,-126.0
2023-07-31 14:08:57.888579,-126.0
2023-07-31 14:08:57.896268,-126.0
2023-07-31 14:08:57.903958,-124.0
2023-07-31 14:08:57.911647,-122.0
2023-07-31 14:08:57.919336,-119.0
2023-07-31 14:08:57.927026,-124.0
2023-07-31 14:08:57.934715,-126.0
2023-07-31 14:08:57.942404,-124.0
2023-07-31 14:08:57.950094,-122.0
2023-07-31 14:08:57.957783,-114.0
2023-07-31 14:08:57.965472,-114.0
2023-07-31 14:08:57.973162,-124.0
2023-07-31 14:08:57.980851,-131.0
2023-07-31 14:08:57.988540,-129.0
2023-07-31 14:08:57.996230,-122.0
2023-07-31 14:08:58.003919,-107.0
2023-07-31 14:08:58.011608,-95.0
2023-07-31 14:08:58.019298,-86.0
2023-07-31 14:08:58.026987,-69.0
2023-07-31 14:08:58.034676,-66.0
2023-07-31 14:08:58.042366,-81.0
2023-07-31 14:08:58.050055,-98.0
2023-07-31 14:08:58.057744,-105.0
2023-07-31 14:08:58.065434,-102.0
2023-07-31 14:08:58.073123,-105.0
2023-07-31 14:08:58.080812,-107.0
2023-07-31 14:08:58.088502,-107.0
2023-07-31 14:08:58.096191,-105.0
2023-07-31 14:08:58.103880,-100.0
2023-07-31 14:08:58.111570,-98.0
2023-07-31 14:08:58.119259,-98.0
2023-07-31 14:08:58.126948,-90.0
2023-07-31 14:08:58.134638,-88.0
2023-07-31 14:08:58.142327,-98.0
2023-07-31 14:08:58.150016,-4.0
2023-07-31 14:08:58.157706,366.0
2023-07-31 14:08:58.165395,873.0
2023-07-31 14:08:58.173084,957.0
2023-07-31 14:08:58.180774,236.0
2023-07-31 14:08:58.188463,-483.0
2023-07-31 14:08:58.196153,-332.0
2023-07-31 14:08:58.203842,-35.0
2023-07-31 14:08:58.211531,-148.0
2023-07-31 14:08:58.219221,-189.0
2023-07-31 14:08:58.226910,-100.0
2023-07-31 14:08:58.234599,-114.0
2023-07-31 14:08:58.242289,-138.0
2023-07-31 14:08:58.249978,-102.0
2023-07-31 14:08:58.257667,-93.0
2023-07-31 14:08:58.265357,-98.0
2023-07-31 14:08:58.273046,-83.0
2023-07-31 14:08:58.280735,-76.0
2023-07-31 14:08:58.288425,-78.0
2023-07-31 14:08:58.296114,-66.0
2023-07-31 14:08:58.303803,-55.0
2023-07-31 14:08:58.311493,-50.0
2023-07-31 14:08:58.319182,-45.0
2023-07-31 14:08:58.326871,-38.0
2023-07-31 14:08:58.334561,-31.0
2023-07-31 14:08:58.342250,-21.0
2023-07-31 14:08:58.349939,-7.0
2023-07-31 14:08:58.357629,9.0
2023-07-31 14:08:58.365318,23.0
2023-07-31 14:08:58.373007,38.0
2023-07-31 14:08:58.380697,57.0
2023-07-31 14:08:58.388386,78.0
2023-07-31 14:08:58.396075,93.0
2023-07-31 14:08:58.403765,107.0
2023-07-31 14:08:58.411454,122.0
2023-07-31 14:08:58.419143,126.0
2023-07-31 14:08:58.426833,129.0
2023-07-31 14:08:58.434522,129.0
2023-07-31 14:08:58.442211,126.0
2023-07-31 14:08:58.449901,110.0
2023-07-31 14:08:58.457590,69.0
2023-07-31 14:08:58.465279,11.0
2023-07-31 14:08:58.472969,-40.0
2023-07-31 14:08:58.480658,-83.0
2023-07-31 14:08:58.488347,-119.0
2023-07-31 14:08:58.496037,-143.0
2023-07-31 14:08:58.503726,-160.0
2023-07-31 14:08:58.511415,-169.0
2023-07-31 14:08:58.519105,-174.0
2023-07-31 14:08:58.526794,-169.0
2023-07-31 14:08:58.534483,-162.0
2023-07-31 14:08:58.542173,-162.0
2023-07-31 14:08:58.549862,-162.0
2023-07-31 14:08:58.557551,-162.0
2023-07-31 14:08:58.565241,-160.0
2023-07-31 14:08:58.572930,-157.0
2023-07-31 14:08:58.580619,-153.0
2023-07-31 14:08:58.588309,-145.0
2023-07-31 14:08:58.595998,-143.0
2023-07-31 14:08:58.603687,-143.0
2023-07-31 14:08:58.611377,-138.0
2023-07-31 14:08:58.619066,-133.0
2023-07-31 14:08:58.626755,-131.0
2023-07-31 14:08:58.634445,-129.0
2023-07-31 14:08:58.642134,-129.0
2023-07-31 14:08:58.649823,-136.0
2023-07-31 14:08:58.657513,-133.0
2023-07-31 14:08:58.665202,-126.0
2023-07-31 14:08:58.672891,-129.0
2023-07-31 14:08:58.680581,-129.0
2023-07-31 14:08:58.688270,-129.0
2023-07-31 14:08:58.695959,-124.0
2023-07-31 14:08:58.703649,-124.0
2023-07-31 14:08:58.711338,-122.0
2023-07-31 14:08:58.719027,-117.0
2023-07-31 14:08:58.726717,-117.0
2023-07-31 14:08:58.734406,-124.0
2023-07-31 14:08:58.742095,-129.0
2023-07-31 14:08:58.749785,-126.0
2023-07-31 14:08:58.757474,-117.0
2023-07-31 14:08:58.765163,-102.0
2023-07-31 14:08:58.772853,-83.0
2023-07-31 14:08:58.780542,-66.0
2023-07-31 14:08:58.788231,-62.0
2023-07-31 14:08:58.795921,-69.0
2023-07-31 14:08:58.803610,-83.0
2023-07-31 14:08:58.811299,-95.0
2023-07-31 14:08:58.818989,-102.0
2023-07-31 14:08:58.826678,-102.0
2023-07-31 14:08:58.834367,-102.0
2023-07-31 14:08:58.842057,-100.0
2023-07-31 14:08:58.849746,-100.0
2023-07-31 14:08:58.857435,-95.0
2023-07-31 14:08:58.865125,-95.0
2023-07-31 14:08:58.872814,-95.0
2023-07-31 14:08:58.880503,-93.0
2023-07-31 14:08:58.888193,-88.0
2023-07-31 14:08:58.895882,-95.0
2023-07-31 14:08:58.903571,-102.0
2023-07-31 14:08:58.911261,28.0
2023-07-31 14:08:58.918950,442.0
2023-07-31 14:08:58.926639,925.0
2023-07-31 14:08:58.934329,863.0
2023-07-31 14:08:58.942018,50.0
2023-07-31 14:08:58.949708,-523.0
2023-07-31 14:08:58.957397,-263.0
2023-07-31 14:08:58.965086,-43.0
2023-07-31 14:08:58.972776,-179.0
2023-07-31 14:08:58.980465,-174.0
2023-07-31 14:08:58.988154,-90.0
2023-07-31 14:08:58.995844,-119.0
2023-07-31 14:08:59.003533,-133.0
2023-07-31 14:08:59.011222,-98.0
2023-07-31 14:08:59.018912,-93.0
2023-07-31 14:08:59.026601,-98.0
2023-07-31 14:08:59.034290,-83.0
2023-07-31 14:08:59.041980,-74.0
2023-07-31 14:08:59.049669,-71.0
2023-07-31 14:08:59.057358,-66.0
2023-07-31 14:08:59.065048,-62.0
2023-07-31 14:08:59.072737,-55.0
2023-07-31 14:08:59.080426,-43.0
2023-07-31 14:08:59.088116,-33.0
2023-07-31 14:08:59.095805,-21.0
2023-07-31 14:08:59.103494,-9.0
2023-07-31 14:08:59.111184,2.0
2023-07-31 14:08:59.118873,19.0
2023-07-31 14:08:59.126562,35.0
2023-07-31 14:08:59.134252,47.0
2023-07-31 14:08:59.141941,62.0
2023-07-31 14:08:59.149630,83.0
2023-07-31 14:08:59.157320,100.0
2023-07-31 14:08:59.165009,112.0
2023-07-31 14:08:59.172698,122.0
2023-07-31 14:08:59.180388,126.0
2023-07-31 14:08:59.188077,126.0
2023-07-31 14:08:59.195766,129.0
2023-07-31 14:08:59.203456,126.0
2023-07-31 14:08:59.211145,105.0
2023-07-31 14:08:59.218834,66.0
2023-07-31 14:08:59.226524,11.0
2023-07-31 14:08:59.234213,-45.0
2023-07-31 14:08:59.241902,-86.0
2023-07-31 14:08:59.249592,-114.0
2023-07-31 14:08:59.257281,-143.0
2023-07-31 14:08:59.264970,-155.0
2023-07-31 14:08:59.272660,-153.0
2023-07-31 14:08:59.280349,-157.0
2023-07-31 14:08:59.288038,-165.0
2023-07-31 14:08:59.295728,-169.0
2023-07-31 14:08:59.303417,-162.0
2023-07-31 14:08:59.311106,-155.0
2023-07-31 14:08:59.318796,-157.0
2023-07-31 14:08:59.326485,-155.0
2023-07-31 14:08:59.334174,-145.0
2023-07-31 14:08:59.341864,-143.0
2023-07-31 14:08:59.349553,-143.0
2023-07-31 14:08:59.357242,-136.0
2023-07-31 14:08:59.364932,-129.0
2023-07-31 14:08:59.372621,-129.0
2023-07-31 14:08:59.380310,-126.0
2023-07-31 14:08:59.388000,-117.0
2023-07-31 14:08:59.395689,-112.0
2023-07-31 14:08:59.403378,-117.0
2023-07-31 14:08:59.411068,-119.0
2023-07-31 14:08:59.418757,-117.0
2023-07-31 14:08:59.426446,-117.0
2023-07-31 14:08:59.434136,-117.0
2023-07-31 14:08:59.441825,-117.0
2023-07-31 14:08:59.449514,-117.0
2023-07-31 14:08:59.457204,-112.0
2023-07-31 14:08:59.464893,-112.0
2023-07-31 14:08:59.472582,-114.0
2023-07-31 14:08:59.480272,-117.0
2023-07-31 14:08:59.487961,-117.0
2023-07-31 14:08:59.495650,-117.0
2023-07-31 14:08:59.503340,-122.0
2023-07-31 14:08:59.511029,-122.0
2023-07-31 14:08:59.518718,-105.0
2023-07-31 14:08:59.526408,-81.0
2023-07-31 14:08:59.534097,-66.0
2023-07-31 14:08:59.541786,-55.0
2023-07-31 14:08:59.549476,-55.0
2023-07-31 14:08:59.557165,-76.0
2023-07-31 14:08:59.564854,-93.0
2023-07-31 14:08:59.572544,-88.0
2023-07-31 14:08:59.580233,-88.0
2023-07-31 14:08:59.587922,-93.0
2023-07-31 14:08:59.595612,-93.0
2023-07-31 14:08:59.603301,-93.0
2023-07-31 14:08:59.610990,-90.0
2023-07-31 14:08:59.618680,-88.0
2023-07-31 14:08:59.626369,-86.0
2023-07-31 14:08:59.634058,-81.0
2023-07-31 14:08:59.641748,-74.0
2023-07-31 14:08:59.649437,-74.0
2023-07-31 14:08:59.657126,-93.0
2023-07-31 14:08:59.664816,-28.0
2023-07-31 14:08:59.672505,344.0
2023-07-31 14:08:59.680194,906.0
2023-07-31 14:08:59.687884,1028.0
2023-07-31 14:08:59.695573,282.0
2023-07-31 14:08:59.703263,-478.0
2023-07-31 14:08:59.710952,-327.0
2023-07-31 14:08:59.718641,-31.0
2023-07-31 14:08:59.726331,-169.0
2023-07-31 14:08:59.734020,-200.0
2023-07-31 14:08:59.741709,-90.0
2023-07-31 14:08:59.749399,-110.0
2023-07-31 14:08:59.757088,-138.0
2023-07-31 14:08:59.764777,-102.0
2023-07-31 14:08:59.772467,-98.0
2023-07-31 14:08:59.780156,-102.0
2023-07-31 14:08:59.787845,-78.0
2023-07-31 14:08:59.795535,-71.0
2023-07-31 14:08:59.803224,-83.0
2023-07-31 14:08:59.810913,-71.0
2023-07-31 14:08:59.818603,-59.0
2023-07-31 14:08:59.826292,-62.0
2023-07-31 14:08:59.833981,-57.0
2023-07-31 14:08:59.841671,-35.0
2023-07-31 14:08:59.849360,-23.0
2023-07-31 14:08:59.857049,-19.0
2023-07-31 14:08:59.864739,0.0
2023-07-31 14:08:59.872428,14.0
2023-07-31 14:08:59.880117,21.0
2023-07-31 14:08:59.887807,40.0
2023-07-31 14:08:59.895496,66.0
2023-07-31 14:08:59.903185,86.0
2023-07-31 14:08:59.910875,105.0
2023-07-31 14:08:59.918564,119.0
2023-07-31 14:08:59.926253,119.0
2023-07-31 14:08:59.933943,133.0
2023-07-31 14:08:59.941632,155.0
2023-07-31 14:08:59.949321,148.0
2023-07-31 14:08:59.957011,126.0
2023-07-31 14:08:59.964700,112.0
2023-07-31 14:08:59.972389,83.0
2023-07-31 14:08:59.980079,23.0
2023-07-31 14:08:59.987768,-43.0
2023-07-31 14:08:59.995457,-93.0
2023-07-31 14:09:00.003147,-119.0
2023-07-31 14:09:00.010836,-143.0
2023-07-31 14:09:00.018525,-167.0
2023-07-31 14:09:00.026215,-174.0
2023-07-31 14:09:00.033904,-177.0
2023-07-31 14:09:00.041593,-181.0
2023-07-31 14:09:00.049283,-177.0
2023-07-31 14:09:00.056972,-172.0
2023-07-31 14:09:00.064661,-172.0
2023-07-31 14:09:00.072351,-165.0
2023-07-31 14:09:00.080040,-155.0
2023-07-31 14:09:00.087729,-157.0
2023-07-31 14:09:00.095419,-157.0
2023-07-31 14:09:00.103108,-145.0
2023-07-31 14:09:00.110797,-138.0
2023-07-31 14:09:00.118487,-133.0
2023-07-31 14:09:00.126176,-126.0
2023-07-31 14:09:00.133865,-124.0
2023-07-31 14:09:00.141555,-122.0
2023-07-31 14:09:00.149244,-117.0
2023-07-31 14:09:00.156933,-119.0
2023-07-31 14:09:00.164623,-122.0
2023-07-31 14:09:00.172312,-117.0
2023-07-31 14:09:00.180001,-117.0
2023-07-31 14:09:00.187691,-114.0
2023-07-31 14:09:00.195380,-112.0
2023-07-31 14:09:00.203069,-112.0
2023-07-31 14:09:00.210759,-110.0
2023-07-31 14:09:00.218448,-105.0
2023-07-31 14:09:00.226137,-95.0
2023-07-31 14:09:00.233827,-78.0
2023-07-31 14:09:00.241516,-71.0
2023-07-31 14:09:00.249205,-64.0
2023-07-31 14:09:00.256895,-59.0
2023-07-31 14:09:00.264584,-74.0
2023-07-31 14:09:00.272273,-95.0
2023-07-31 14:09:00.279963,-110.0
2023-07-31 14:09:00.287652,-114.0
2023-07-31 14:09:00.295341,-117.0
2023-07-31 14:09:00.303031,-122.0
2023-07-31 14:09:00.310720,-126.0
2023-07-31 14:09:00.318409,-126.0
2023-07-31 14:09:00.326099,-122.0
2023-07-31 14:09:00.333788,-119.0
2023-07-31 14:09:00.341477,-110.0
2023-07-31 14:09:00.349167,-107.0
2023-07-31 14:09:00.356856,-110.0
2023-07-31 14:09:00.364545,-122.0
2023-07-31 14:09:00.372235,-126.0
2023-07-31 14:09:00.379924,71.0
2023-07-31 14:09:00.387613,619.0
2023-07-31 14:09:00.395303,1095.0
2023-07-31 14:09:00.402992,732.0
2023-07-31 14:09:00.410681,-248.0
2023-07-31 14:09:00.418371,-540.0
2023-07-31 14:09:00.426060,-133.0
2023-07-31 14:09:00.433749,-93.0
2023-07-31 14:09:00.441439,-241.0
2023-07-31 14:09:00.449128,-148.0
2023-07-31 14:09:00.456818,-107.0
2023-07-31 14:09:00.464507,-162.0
2023-07-31 14:09:00.472196,-141.0
2023-07-31 14:09:00.479886,-107.0
2023-07-31 14:09:00.487575,-119.0
2023-07-31 14:09:00.495264,-114.0
2023-07-31 14:09:00.502954,-95.0
2023-07-31 14:09:00.510643,-90.0
2023-07-31 14:09:00.518332,-83.0
2023-07-31 14:09:00.526022,-71.0
2023-07-31 14:09:00.533711,-66.0
2023-07-31 14:09:00.541400,-62.0
2023-07-31 14:09:00.549090,-47.0
2023-07-31 14:09:00.556779,-35.0
2023-07-31 14:09:00.564468,-26.0
2023-07-31 14:09:00.572158,-14.0
2023-07-31 14:09:00.579847,0.0
2023-07-31 14:09:00.587536,14.0
2023-07-31 14:09:00.595226,35.0
2023-07-31 14:09:00.602915,55.0
2023-07-31 14:09:00.610604,66.0
2023-07-31 14:09:00.618294,86.0
2023-07-31 14:09:00.625983,102.0
2023-07-31 14:09:00.633672,110.0
2023-07-31 14:09:00.641362,117.0
2023-07-31 14:09:00.649051,124.0
2023-07-31 14:09:00.656740,129.0
2023-07-31 14:09:00.664430,124.0
2023-07-31 14:09:00.672119,105.0
2023-07-31 14:09:00.679808,71.0
2023-07-31 14:09:00.687498,21.0
2023-07-31 14:09:00.695187,-35.0
2023-07-31 14:09:00.702876,-83.0
2023-07-31 14:09:00.710566,-119.0
2023-07-31 14:09:00.718255,-145.0
2023-07-31 14:09:00.725944,-162.0
2023-07-31 14:09:00.733634,-167.0
2023-07-31 14:09:00.741323,-169.0
2023-07-31 14:09:00.749012,-172.0
2023-07-31 14:09:00.756702,-172.0
2023-07-31 14:09:00.764391,-167.0
2023-07-31 14:09:00.772080,-162.0
2023-07-31 14:09:00.779770,-160.0
2023-07-31 14:09:00.787459,-162.0
2023-07-31 14:09:00.795148,-153.0
2023-07-31 14:09:00.802838,-145.0
2023-07-31 14:09:00.810527,-143.0
2023-07-31 14:09:00.818216,-138.0
2023-07-31 14:09:00.825906,-131.0
2023-07-31 14:09:00.833595,-129.0
2023-07-31 14:09:00.841284,-129.0
2023-07-31 14:09:00.848974,-129.0
2023-07-31 14:09:00.856663,-129.0
2023-07-31 14:09:00.864352,-129.0
2023-07-31 14:09:00.872042,-131.0
2023-07-31 14:09:00.879731,-131.0
2023-07-31 14:09:00.887420,-131.0
2023-07-31 14:09:00.895110,-136.0
2023-07-31 14:09:00.902799,-138.0
2023-07-31 14:09:00.910488,-136.0
2023-07-31 14:09:00.918178,-131.0
2023-07-31 14:09:00.925867,-129.0
2023-07-31 14:09:00.933556,-129.0
2023-07-31 14:09:00.941246,-126.0
2023-07-31 14:09:00.948935,-124.0
2023-07-31 14:09:00.956624,-129.0
2023-07-31 14:09:00.964314,-136.0
2023-07-31 14:09:00.972003,-141.0
2023-07-31 14:09:00.979692,-141.0
2023-07-31 14:09:00.987382,-131.0
2023-07-31 14:09:00.995071,-112.0
2023-07-31 14:09:01.002760,-90.0
2023-07-31 14:09:01.010450,-78.0
2023-07-31 14:09:01.018139,-78.0
2023-07-31 14:09:01.025828,-90.0
2023-07-31 14:09:01.033518,-107.0
2023-07-31 14:09:01.041207,-112.0
2023-07-31 14:09:01.048896,-107.0
2023-07-31 14:09:01.056586,-105.0
2023-07-31 14:09:01.064275,-112.0
2023-07-31 14:09:01.071964,-110.0
2023-07-31 14:09:01.079654,-105.0
2023-07-31 14:09:01.087343,-102.0
2023-07-31 14:09:01.095032,-102.0
2023-07-31 14:09:01.102722,-98.0
2023-07-31 14:09:01.110411,-90.0
2023-07-31 14:09:01.118100,-93.0
2023-07-31 14:09:01.125790,-102.0
2023-07-31 14:09:01.133479,4.0
2023-07-31 14:09:01.141168,392.0
2023-07-31 14:09:01.148858,902.0
2023-07-31 14:09:01.156547,952.0
2023-07-31 14:09:01.164236,191.0
2023-07-31 14:09:01.171926,-502.0
2023-07-31 14:09:01.179615,-311.0
2023-07-31 14:09:01.187304,-28.0
2023-07-31 14:09:01.194994,-157.0
2023-07-31 14:09:01.202683,-191.0
2023-07-31 14:09:01.210373,-98.0
2023-07-31 14:09:01.218062,-117.0
2023-07-31 14:09:01.225751,-133.0
