time,ECG
2023-08-15 12:23:20.486601,2.0
2023-08-15 12:23:20.494290,9.0
2023-08-15 12:23:20.501980,0.0
2023-08-15 12:23:20.509669,2.0
2023-08-15 12:23:20.517358,7.0
2023-08-15 12:23:20.525048,-12.0
2023-08-15 12:23:20.532737,-31.0
2023-08-15 12:23:20.540426,-16.0
2023-08-15 12:23:20.548116,0.0
2023-08-15 12:23:20.555805,-4.0
2023-08-15 12:23:20.563494,-12.0
2023-08-15 12:23:20.571184,-16.0
2023-08-15 12:23:20.578873,-31.0
2023-08-15 12:23:20.586562,-33.0
2023-08-15 12:23:20.594252,-24.0
2023-08-15 12:23:20.601941,-24.0
2023-08-15 12:23:20.609631,-33.0
2023-08-15 12:23:20.617320,-28.0
2023-08-15 12:23:20.625009,-14.0
2023-08-15 12:23:20.632699,-12.0
2023-08-15 12:23:20.640388,-14.0
2023-08-15 12:23:20.648077,-16.0
2023-08-15 12:23:20.655767,-26.0
2023-08-15 12:23:20.663456,-26.0
2023-08-15 12:23:20.671145,-9.0
2023-08-15 12:23:20.678835,-7.0
2023-08-15 12:23:20.686524,-24.0
2023-08-15 12:23:20.694214,-26.0
2023-08-15 12:23:20.701903,-28.0
2023-08-15 12:23:20.709592,-43.0
2023-08-15 12:23:20.717282,-43.0
2023-08-15 12:23:20.724971,-33.0
2023-08-15 12:23:20.732660,-36.0
2023-08-15 12:23:20.740350,-38.0
2023-08-15 12:23:20.748039,-41.0
2023-08-15 12:23:20.755728,-55.0
2023-08-15 12:23:20.763418,-62.0
2023-08-15 12:23:20.771107,-62.0
2023-08-15 12:23:20.778796,-86.0
2023-08-15 12:23:20.786486,-125.0
2023-08-15 12:23:20.794175,-137.0
2023-08-15 12:23:20.801865,-137.0
2023-08-15 12:23:20.809554,-113.0
2023-08-15 12:23:20.817243,-77.0
2023-08-15 12:23:20.824933,-57.0
2023-08-15 12:23:20.832622,-43.0
2023-08-15 12:23:20.840311,-14.0
2023-08-15 12:23:20.848001,-2.0
2023-08-15 12:23:20.855690,-9.0
2023-08-15 12:23:20.863379,-12.0
2023-08-15 12:23:20.871069,-14.0
2023-08-15 12:23:20.878758,-16.0
2023-08-15 12:23:20.886447,-7.0
2023-08-15 12:23:20.894137,-16.0
2023-08-15 12:23:20.901826,-36.0
2023-08-15 12:23:20.909516,-53.0
2023-08-15 12:23:20.917205,-180.0
2023-08-15 12:23:20.924894,-528.0
2023-08-15 12:23:20.932584,-933.0
2023-08-15 12:23:20.940273,-994.0
2023-08-15 12:23:20.947962,-472.0
2023-08-15 12:23:20.955652,207.0
2023-08-15 12:23:20.963341,332.0
2023-08-15 12:23:20.971030,26.0
2023-08-15 12:23:20.978720,-16.0
2023-08-15 12:23:20.986409,115.0
2023-08-15 12:23:20.994098,53.0
2023-08-15 12:23:21.001788,-9.0
2023-08-15 12:23:21.009477,38.0
2023-08-15 12:23:21.017167,38.0
2023-08-15 12:23:21.024856,0.0
2023-08-15 12:23:21.032545,-7.0
2023-08-15 12:23:21.040235,-9.0
2023-08-15 12:23:21.047924,-26.0
2023-08-15 12:23:21.055613,-36.0
2023-08-15 12:23:21.063303,-41.0
2023-08-15 12:23:21.070992,-62.0
2023-08-15 12:23:21.078681,-72.0
2023-08-15 12:23:21.086371,-62.0
2023-08-15 12:23:21.094060,-69.0
2023-08-15 12:23:21.101750,-91.0
2023-08-15 12:23:21.109439,-103.0
2023-08-15 12:23:21.117128,-113.0
2023-08-15 12:23:21.124818,-132.0
2023-08-15 12:23:21.132507,-139.0
2023-08-15 12:23:21.140196,-147.0
2023-08-15 12:23:21.147886,-159.0
2023-08-15 12:23:21.155575,-156.0
2023-08-15 12:23:21.163264,-149.0
2023-08-15 12:23:21.170954,-147.0
2023-08-15 12:23:21.178643,-123.0
2023-08-15 12:23:21.186332,-96.0
2023-08-15 12:23:21.194022,-91.0
2023-08-15 12:23:21.201711,-77.0
2023-08-15 12:23:21.209401,-55.0
2023-08-15 12:23:21.217090,-41.0
2023-08-15 12:23:21.224779,-24.0
2023-08-15 12:23:21.232469,-4.0
2023-08-15 12:23:21.240158,0.0
2023-08-15 12:23:21.247847,-4.0
2023-08-15 12:23:21.255537,-14.0
2023-08-15 12:23:21.263226,-14.0
2023-08-15 12:23:21.270915,-9.0
2023-08-15 12:23:21.278605,-12.0
2023-08-15 12:23:21.286294,-16.0
2023-08-15 12:23:21.293983,-7.0
2023-08-15 12:23:21.301673,0.0
2023-08-15 12:23:21.309362,-16.0
2023-08-15 12:23:21.317052,-33.0
2023-08-15 12:23:21.324741,-16.0
2023-08-15 12:23:21.332430,-4.0
2023-08-15 12:23:21.340120,-21.0
2023-08-15 12:23:21.347809,-28.0
2023-08-15 12:23:21.355498,-12.0
2023-08-15 12:23:21.363188,0.0
2023-08-15 12:23:21.370877,2.0
2023-08-15 12:23:21.378566,-7.0
2023-08-15 12:23:21.386256,-16.0
2023-08-15 12:23:21.393945,-9.0
2023-08-15 12:23:21.401635,7.0
2023-08-15 12:23:21.409324,7.0
2023-08-15 12:23:21.417013,-4.0
2023-08-15 12:23:21.424703,-12.0
2023-08-15 12:23:21.432392,-16.0
2023-08-15 12:23:21.440081,-16.0
2023-08-15 12:23:21.447771,-9.0
2023-08-15 12:23:21.455460,-9.0
2023-08-15 12:23:21.463149,-24.0
2023-08-15 12:23:21.470839,-28.0
2023-08-15 12:23:21.478528,-26.0
2023-08-15 12:23:21.486217,-21.0
2023-08-15 12:23:21.493907,-14.0
2023-08-15 12:23:21.501596,-24.0
2023-08-15 12:23:21.509286,-36.0
2023-08-15 12:23:21.516975,-48.0
2023-08-15 12:23:21.524664,-74.0
2023-08-15 12:23:21.532354,-91.0
2023-08-15 12:23:21.540043,-103.0
2023-08-15 12:23:21.547732,-125.0
2023-08-15 12:23:21.555422,-144.0
2023-08-15 12:23:21.563111,-123.0
2023-08-15 12:23:21.570800,-77.0
2023-08-15 12:23:21.578490,-60.0
2023-08-15 12:23:21.586179,-43.0
2023-08-15 12:23:21.593868,-4.0
2023-08-15 12:23:21.601558,-9.0
2023-08-15 12:23:21.609247,-45.0
2023-08-15 12:23:21.616937,-38.0
2023-08-15 12:23:21.624626,-12.0
2023-08-15 12:23:21.632315,-12.0
2023-08-15 12:23:21.640005,-24.0
2023-08-15 12:23:21.647694,-31.0
2023-08-15 12:23:21.655383,-31.0
2023-08-15 12:23:21.663073,-38.0
2023-08-15 12:23:21.670762,-137.0
2023-08-15 12:23:21.678451,-446.0
2023-08-15 12:23:21.686141,-885.0
2023-08-15 12:23:21.693830,-1044.0
2023-08-15 12:23:21.701519,-574.0
2023-08-15 12:23:21.709209,154.0
2023-08-15 12:23:21.716898,340.0
2023-08-15 12:23:21.724588,26.0
2023-08-15 12:23:21.732277,-53.0
2023-08-15 12:23:21.739966,84.0
2023-08-15 12:23:21.747656,55.0
2023-08-15 12:23:21.755345,0.0
2023-08-15 12:23:21.763034,38.0
2023-08-15 12:23:21.770724,45.0
2023-08-15 12:23:21.778413,2.0
2023-08-15 12:23:21.786102,-14.0
2023-08-15 12:23:21.793792,-16.0
2023-08-15 12:23:21.801481,-28.0
2023-08-15 12:23:21.809171,-31.0
2023-08-15 12:23:21.816860,-33.0
2023-08-15 12:23:21.824549,-45.0
2023-08-15 12:23:21.832239,-57.0
2023-08-15 12:23:21.839928,-67.0
2023-08-15 12:23:21.847617,-69.0
2023-08-15 12:23:21.855307,-60.0
2023-08-15 12:23:21.862996,-65.0
2023-08-15 12:23:21.870685,-103.0
2023-08-15 12:23:21.878375,-135.0
2023-08-15 12:23:21.886064,-139.0
2023-08-15 12:23:21.893753,-144.0
2023-08-15 12:23:21.901443,-149.0
2023-08-15 12:23:21.909132,-147.0
2023-08-15 12:23:21.916822,-147.0
2023-08-15 12:23:21.924511,-142.0
2023-08-15 12:23:21.932200,-123.0
2023-08-15 12:23:21.939890,-96.0
2023-08-15 12:23:21.947579,-82.0
2023-08-15 12:23:21.955268,-57.0
2023-08-15 12:23:21.962958,-33.0
2023-08-15 12:23:21.970647,-33.0
2023-08-15 12:23:21.978336,-31.0
2023-08-15 12:23:21.986026,-9.0
2023-08-15 12:23:21.993715,2.0
2023-08-15 12:23:22.001404,0.0
2023-08-15 12:23:22.009094,4.0
2023-08-15 12:23:22.016783,4.0
2023-08-15 12:23:22.024473,-4.0
2023-08-15 12:23:22.032162,-7.0
2023-08-15 12:23:22.039851,-4.0
2023-08-15 12:23:22.047541,-2.0
2023-08-15 12:23:22.055230,-7.0
2023-08-15 12:23:22.062919,-12.0
2023-08-15 12:23:22.070609,-19.0
2023-08-15 12:23:22.078298,-26.0
2023-08-15 12:23:22.085987,-26.0
2023-08-15 12:23:22.093677,-21.0
2023-08-15 12:23:22.101366,-16.0
2023-08-15 12:23:22.109055,-19.0
2023-08-15 12:23:22.116745,-16.0
2023-08-15 12:23:22.124434,-14.0
2023-08-15 12:23:22.132124,-19.0
2023-08-15 12:23:22.139813,-12.0
2023-08-15 12:23:22.147502,-14.0
2023-08-15 12:23:22.155192,-28.0
2023-08-15 12:23:22.162881,-19.0
2023-08-15 12:23:22.170570,-7.0
2023-08-15 12:23:22.178260,-12.0
2023-08-15 12:23:22.185949,-24.0
2023-08-15 12:23:22.193638,-31.0
2023-08-15 12:23:22.201328,-26.0
2023-08-15 12:23:22.209017,-19.0
2023-08-15 12:23:22.216707,-24.0
2023-08-15 12:23:22.224396,-36.0
2023-08-15 12:23:22.232085,-38.0
2023-08-15 12:23:22.239775,-28.0
2023-08-15 12:23:22.247464,-33.0
2023-08-15 12:23:22.255153,-45.0
2023-08-15 12:23:22.262843,-38.0
2023-08-15 12:23:22.270532,-38.0
2023-08-15 12:23:22.278221,-53.0
2023-08-15 12:23:22.285911,-74.0
2023-08-15 12:23:22.293600,-98.0
2023-08-15 12:23:22.301289,-110.0
2023-08-15 12:23:22.308979,-118.0
2023-08-15 12:23:22.316668,-115.0
2023-08-15 12:23:22.324358,-98.0
2023-08-15 12:23:22.332047,-79.0
2023-08-15 12:23:22.339736,-65.0
2023-08-15 12:23:22.347426,-41.0
2023-08-15 12:23:22.355115,-16.0
2023-08-15 12:23:22.362804,-9.0
2023-08-15 12:23:22.370494,-14.0
2023-08-15 12:23:22.378183,-19.0
2023-08-15 12:23:22.385872,-14.0
2023-08-15 12:23:22.393562,-9.0
2023-08-15 12:23:22.401251,-14.0
2023-08-15 12:23:22.408940,-21.0
2023-08-15 12:23:22.416630,-24.0
2023-08-15 12:23:22.424319,-55.0
2023-08-15 12:23:22.432009,-234.0
2023-08-15 12:23:22.439698,-600.0
2023-08-15 12:23:22.447387,-965.0
2023-08-15 12:23:22.455077,-926.0
2023-08-15 12:23:22.462766,-328.0
2023-08-15 12:23:22.470455,277.0
2023-08-15 12:23:22.478145,263.0
2023-08-15 12:23:22.485834,-31.0
2023-08-15 12:23:22.493523,-4.0
2023-08-15 12:23:22.501213,103.0
2023-08-15 12:23:22.508902,38.0
2023-08-15 12:23:22.516591,16.0
2023-08-15 12:23:22.524281,48.0
2023-08-15 12:23:22.531970,21.0
2023-08-15 12:23:22.539660,-4.0
2023-08-15 12:23:22.547349,-2.0
2023-08-15 12:23:22.555038,-9.0
2023-08-15 12:23:22.562728,-19.0
2023-08-15 12:23:22.570417,-28.0
2023-08-15 12:23:22.578106,-36.0
2023-08-15 12:23:22.585796,-36.0
2023-08-15 12:23:22.593485,-45.0
2023-08-15 12:23:22.601174,-62.0
2023-08-15 12:23:22.608864,-62.0
2023-08-15 12:23:22.616553,-65.0
2023-08-15 12:23:22.624243,-94.0
2023-08-15 12:23:22.631932,-120.0
2023-08-15 12:23:22.639621,-127.0
2023-08-15 12:23:22.647311,-144.0
2023-08-15 12:23:22.655000,-161.0
2023-08-15 12:23:22.662689,-161.0
2023-08-15 12:23:22.670379,-156.0
2023-08-15 12:23:22.678068,-152.0
2023-08-15 12:23:22.685757,-139.0
2023-08-15 12:23:22.693447,-135.0
2023-08-15 12:23:22.701136,-130.0
2023-08-15 12:23:22.708825,-110.0
2023-08-15 12:23:22.716515,-86.0
2023-08-15 12:23:22.724204,-72.0
2023-08-15 12:23:22.731894,-65.0
2023-08-15 12:23:22.739583,-53.0
2023-08-15 12:23:22.747272,-43.0
2023-08-15 12:23:22.754962,-36.0
2023-08-15 12:23:22.762651,-26.0
2023-08-15 12:23:22.770340,-19.0
2023-08-15 12:23:22.778030,-16.0
2023-08-15 12:23:22.785719,-24.0
2023-08-15 12:23:22.793408,-38.0
2023-08-15 12:23:22.801098,-38.0
2023-08-15 12:23:22.808787,-31.0
2023-08-15 12:23:22.816476,-31.0
2023-08-15 12:23:22.824166,-31.0
2023-08-15 12:23:22.831855,-28.0
2023-08-15 12:23:22.839545,-24.0
2023-08-15 12:23:22.847234,-21.0
2023-08-15 12:23:22.854923,-31.0
2023-08-15 12:23:22.862613,-33.0
2023-08-15 12:23:22.870302,-21.0
2023-08-15 12:23:22.877991,-21.0
2023-08-15 12:23:22.885681,-26.0
2023-08-15 12:23:22.893370,-16.0
2023-08-15 12:23:22.901059,-9.0
2023-08-15 12:23:22.908749,-21.0
2023-08-15 12:23:22.916438,-26.0
2023-08-15 12:23:22.924127,-21.0
2023-08-15 12:23:22.931817,-7.0
2023-08-15 12:23:22.939506,-7.0
2023-08-15 12:23:22.947196,-28.0
2023-08-15 12:23:22.954885,-31.0
2023-08-15 12:23:22.962574,-12.0
2023-08-15 12:23:22.970264,-14.0
2023-08-15 12:23:22.977953,-26.0
2023-08-15 12:23:22.985642,-26.0
2023-08-15 12:23:22.993332,-26.0
2023-08-15 12:23:23.001021,-31.0
2023-08-15 12:23:23.008710,-21.0
2023-08-15 12:23:23.016400,-24.0
2023-08-15 12:23:23.024089,-41.0
2023-08-15 12:23:23.031779,-48.0
2023-08-15 12:23:23.039468,-43.0
2023-08-15 12:23:23.047157,-62.0
2023-08-15 12:23:23.054847,-94.0
2023-08-15 12:23:23.062536,-118.0
2023-08-15 12:23:23.070225,-130.0
2023-08-15 12:23:23.077915,-118.0
2023-08-15 12:23:23.085604,-77.0
2023-08-15 12:23:23.093293,-45.0
2023-08-15 12:23:23.100983,-38.0
2023-08-15 12:23:23.108672,-28.0
2023-08-15 12:23:23.116361,-9.0
2023-08-15 12:23:23.124051,2.0
2023-08-15 12:23:23.131740,2.0
2023-08-15 12:23:23.139430,-4.0
2023-08-15 12:23:23.147119,-19.0
2023-08-15 12:23:23.154808,-21.0
2023-08-15 12:23:23.162498,-9.0
2023-08-15 12:23:23.170187,-9.0
2023-08-15 12:23:23.177876,-19.0
2023-08-15 12:23:23.185566,-89.0
2023-08-15 12:23:23.193255,-342.0
2023-08-15 12:23:23.200944,-757.0
2023-08-15 12:23:23.208634,-1032.0
2023-08-15 12:23:23.216323,-772.0
2023-08-15 12:23:23.224012,-48.0
2023-08-15 12:23:23.231702,371.0
2023-08-15 12:23:23.239391,132.0
2023-08-15 12:23:23.247081,-91.0
2023-08-15 12:23:23.254770,26.0
2023-08-15 12:23:23.262459,67.0
2023-08-15 12:23:23.270149,-7.0
2023-08-15 12:23:23.277838,7.0
2023-08-15 12:23:23.285527,21.0
2023-08-15 12:23:23.293217,-9.0
2023-08-15 12:23:23.300906,-16.0
2023-08-15 12:23:23.308595,-21.0
2023-08-15 12:23:23.316285,-21.0
2023-08-15 12:23:23.323974,-31.0
2023-08-15 12:23:23.331664,-57.0
2023-08-15 12:23:23.339353,-50.0
2023-08-15 12:23:23.347042,-36.0
2023-08-15 12:23:23.354732,-53.0
2023-08-15 12:23:23.362421,-67.0
2023-08-15 12:23:23.370110,-74.0
2023-08-15 12:23:23.377800,-101.0
2023-08-15 12:23:23.385489,-120.0
2023-08-15 12:23:23.393178,-103.0
2023-08-15 12:23:23.400868,-113.0
2023-08-15 12:23:23.408557,-149.0
2023-08-15 12:23:23.416246,-176.0
2023-08-15 12:23:23.423936,-188.0
2023-08-15 12:23:23.431625,-173.0
2023-08-15 12:23:23.439315,-161.0
2023-08-15 12:23:23.447004,-152.0
2023-08-15 12:23:23.454693,-113.0
2023-08-15 12:23:23.462383,-69.0
2023-08-15 12:23:23.470072,-60.0
2023-08-15 12:23:23.477761,-50.0
2023-08-15 12:23:23.485451,-36.0
2023-08-15 12:23:23.493140,-41.0
2023-08-15 12:23:23.500829,-26.0
2023-08-15 12:23:23.508519,12.0
2023-08-15 12:23:23.516208,19.0
2023-08-15 12:23:23.523897,9.0
2023-08-15 12:23:23.531587,4.0
2023-08-15 12:23:23.539276,-7.0
2023-08-15 12:23:23.546966,-7.0
2023-08-15 12:23:23.554655,2.0
2023-08-15 12:23:23.562344,0.0
2023-08-15 12:23:23.570034,-14.0
2023-08-15 12:23:23.577723,-24.0
2023-08-15 12:23:23.585412,-14.0
2023-08-15 12:23:23.593102,-12.0
2023-08-15 12:23:23.600791,-31.0
2023-08-15 12:23:23.608480,-28.0
2023-08-15 12:23:23.616170,4.0
2023-08-15 12:23:23.623859,16.0
2023-08-15 12:23:23.631548,-14.0
2023-08-15 12:23:23.639238,-33.0
2023-08-15 12:23:23.646927,-12.0
2023-08-15 12:23:23.654617,2.0
2023-08-15 12:23:23.662306,0.0
2023-08-15 12:23:23.669995,-4.0
2023-08-15 12:23:23.677685,-9.0
2023-08-15 12:23:23.685374,-7.0
2023-08-15 12:23:23.693063,0.0
2023-08-15 12:23:23.700753,-4.0
2023-08-15 12:23:23.708442,-16.0
2023-08-15 12:23:23.716131,-19.0
2023-08-15 12:23:23.723821,-28.0
2023-08-15 12:23:23.731510,-31.0
2023-08-15 12:23:23.739200,-14.0
2023-08-15 12:23:23.746889,-9.0
2023-08-15 12:23:23.754578,-16.0
2023-08-15 12:23:23.762268,-21.0
2023-08-15 12:23:23.769957,-21.0
2023-08-15 12:23:23.777646,-26.0
2023-08-15 12:23:23.785336,-43.0
2023-08-15 12:23:23.793025,-57.0
2023-08-15 12:23:23.800714,-55.0
2023-08-15 12:23:23.808404,-65.0
2023-08-15 12:23:23.816093,-82.0
2023-08-15 12:23:23.823782,-91.0
2023-08-15 12:23:23.831472,-113.0
2023-08-15 12:23:23.839161,-147.0
2023-08-15 12:23:23.846851,-132.0
2023-08-15 12:23:23.854540,-74.0
2023-08-15 12:23:23.862229,-57.0
2023-08-15 12:23:23.869919,-57.0
2023-08-15 12:23:23.877608,-21.0
2023-08-15 12:23:23.885297,-12.0
2023-08-15 12:23:23.892987,-21.0
2023-08-15 12:23:23.900676,0.0
2023-08-15 12:23:23.908365,0.0
2023-08-15 12:23:23.916055,-21.0
2023-08-15 12:23:23.923744,-21.0
2023-08-15 12:23:23.931433,-16.0
2023-08-15 12:23:23.939123,-19.0
2023-08-15 12:23:23.946812,-41.0
2023-08-15 12:23:23.954502,-139.0
2023-08-15 12:23:23.962191,-407.0
2023-08-15 12:23:23.969880,-832.0
2023-08-15 12:23:23.977570,-1080.0
2023-08-15 12:23:23.985259,-706.0
2023-08-15 12:23:23.992948,74.0
2023-08-15 12:23:24.000638,415.0
2023-08-15 12:23:24.008327,142.0
2023-08-15 12:23:24.016016,-41.0
2023-08-15 12:23:24.023706,65.0
2023-08-15 12:23:24.031395,86.0
2023-08-15 12:23:24.039084,16.0
2023-08-15 12:23:24.046774,19.0
2023-08-15 12:23:24.054463,38.0
2023-08-15 12:23:24.062153,24.0
2023-08-15 12:23:24.069842,12.0
2023-08-15 12:23:24.077531,4.0
2023-08-15 12:23:24.085221,0.0
2023-08-15 12:23:24.092910,-14.0
2023-08-15 12:23:24.100599,-36.0
2023-08-15 12:23:24.108289,-36.0
2023-08-15 12:23:24.115978,-31.0
2023-08-15 12:23:24.123667,-48.0
2023-08-15 12:23:24.131357,-67.0
2023-08-15 12:23:24.139046,-72.0
2023-08-15 12:23:24.146736,-79.0
2023-08-15 12:23:24.154425,-89.0
2023-08-15 12:23:24.162114,-101.0
2023-08-15 12:23:24.169804,-127.0
2023-08-15 12:23:24.177493,-135.0
2023-08-15 12:23:24.185182,-127.0
2023-08-15 12:23:24.192872,-144.0
2023-08-15 12:23:24.200561,-161.0
2023-08-15 12:23:24.208250,-154.0
2023-08-15 12:23:24.215940,-130.0
2023-08-15 12:23:24.223629,-115.0
2023-08-15 12:23:24.231318,-108.0
2023-08-15 12:23:24.239008,-74.0
2023-08-15 12:23:24.246697,-36.0
2023-08-15 12:23:24.254387,-26.0
2023-08-15 12:23:24.262076,-28.0
2023-08-15 12:23:24.269765,-33.0
2023-08-15 12:23:24.277455,-21.0
2023-08-15 12:23:24.285144,12.0
2023-08-15 12:23:24.292833,38.0
2023-08-15 12:23:24.300523,24.0
2023-08-15 12:23:24.308212,-14.0
2023-08-15 12:23:24.315901,-19.0
2023-08-15 12:23:24.323591,-4.0
2023-08-15 12:23:24.331280,-2.0
2023-08-15 12:23:24.338969,2.0
2023-08-15 12:23:24.346659,7.0
2023-08-15 12:23:24.354348,-12.0
2023-08-15 12:23:24.362038,-31.0
2023-08-15 12:23:24.369727,-24.0
2023-08-15 12:23:24.377416,-12.0
2023-08-15 12:23:24.385106,-14.0
2023-08-15 12:23:24.392795,-21.0
2023-08-15 12:23:24.400484,-36.0
2023-08-15 12:23:24.408174,-50.0
2023-08-15 12:23:24.415863,-28.0
2023-08-15 12:23:24.423552,-12.0
2023-08-15 12:23:24.431242,-31.0
2023-08-15 12:23:24.438931,-41.0
2023-08-15 12:23:24.446620,-33.0
2023-08-15 12:23:24.454310,-43.0
2023-08-15 12:23:24.461999,-55.0
2023-08-15 12:23:24.469689,-50.0
2023-08-15 12:23:24.477378,-38.0
2023-08-15 12:23:24.485067,-33.0
2023-08-15 12:23:24.492757,-38.0
2023-08-15 12:23:24.500446,-38.0
2023-08-15 12:23:24.508135,-31.0
2023-08-15 12:23:24.515825,-38.0
2023-08-15 12:23:24.523514,-43.0
2023-08-15 12:23:24.531203,-38.0
2023-08-15 12:23:24.538893,-36.0
2023-08-15 12:23:24.546582,-43.0
2023-08-15 12:23:24.554272,-65.0
2023-08-15 12:23:24.561961,-86.0
2023-08-15 12:23:24.569650,-106.0
2023-08-15 12:23:24.577340,-137.0
2023-08-15 12:23:24.585029,-152.0
2023-08-15 12:23:24.592718,-123.0
2023-08-15 12:23:24.600408,-89.0
2023-08-15 12:23:24.608097,-65.0
2023-08-15 12:23:24.615786,-41.0
2023-08-15 12:23:24.623476,-24.0
2023-08-15 12:23:24.631165,-16.0
2023-08-15 12:23:24.638854,-7.0
2023-08-15 12:23:24.646544,-7.0
2023-08-15 12:23:24.654233,-24.0
2023-08-15 12:23:24.661923,-24.0
2023-08-15 12:23:24.669612,-9.0
2023-08-15 12:23:24.677301,-19.0
2023-08-15 12:23:24.684991,-31.0
2023-08-15 12:23:24.692680,-33.0
2023-08-15 12:23:24.700369,-123.0
2023-08-15 12:23:24.708059,-417.0
2023-08-15 12:23:24.715748,-851.0
2023-08-15 12:23:24.723437,-1068.0
2023-08-15 12:23:24.731127,-685.0
2023-08-15 12:23:24.738816,74.0
2023-08-15 12:23:24.746505,419.0
2023-08-15 12:23:24.754195,159.0
2023-08-15 12:23:24.761884,-36.0
2023-08-15 12:23:24.769574,77.0
2023-08-15 12:23:24.777263,103.0
2023-08-15 12:23:24.784952,9.0
2023-08-15 12:23:24.792642,2.0
2023-08-15 12:23:24.800331,24.0
2023-08-15 12:23:24.808020,12.0
2023-08-15 12:23:24.815710,9.0
2023-08-15 12:23:24.823399,16.0
2023-08-15 12:23:24.831088,-4.0
2023-08-15 12:23:24.838778,-33.0
2023-08-15 12:23:24.846467,-26.0
2023-08-15 12:23:24.854156,-31.0
2023-08-15 12:23:24.861846,-53.0
2023-08-15 12:23:24.869535,-53.0
2023-08-15 12:23:24.877225,-57.0
2023-08-15 12:23:24.884914,-86.0
2023-08-15 12:23:24.892603,-103.0
2023-08-15 12:23:24.900293,-113.0
2023-08-15 12:23:24.907982,-132.0
2023-08-15 12:23:24.915671,-144.0
2023-08-15 12:23:24.923361,-161.0
2023-08-15 12:23:24.931050,-176.0
2023-08-15 12:23:24.938739,-166.0
2023-08-15 12:23:24.946429,-164.0
2023-08-15 12:23:24.954118,-168.0
2023-08-15 12:23:24.961808,-152.0
2023-08-15 12:23:24.969497,-130.0
2023-08-15 12:23:24.977186,-113.0
2023-08-15 12:23:24.984876,-101.0
2023-08-15 12:23:24.992565,-65.0
2023-08-15 12:23:25.000254,-21.0
2023-08-15 12:23:25.007944,-26.0
2023-08-15 12:23:25.015633,-36.0
2023-08-15 12:23:25.023322,4.0
2023-08-15 12:23:25.031012,14.0
2023-08-15 12:23:25.038701,-7.0
2023-08-15 12:23:25.046390,7.0
2023-08-15 12:23:25.054080,21.0
2023-08-15 12:23:25.061769,0.0
2023-08-15 12:23:25.069459,-12.0
2023-08-15 12:23:25.077148,0.0
2023-08-15 12:23:25.084837,0.0
2023-08-15 12:23:25.092527,-14.0
2023-08-15 12:23:25.100216,-12.0
2023-08-15 12:23:25.107905,0.0
2023-08-15 12:23:25.115595,2.0
2023-08-15 12:23:25.123284,4.0
2023-08-15 12:23:25.130973,-2.0
2023-08-15 12:23:25.138663,-36.0
2023-08-15 12:23:25.146352,-26.0
2023-08-15 12:23:25.154041,4.0
2023-08-15 12:23:25.161731,-9.0
2023-08-15 12:23:25.169420,-24.0
2023-08-15 12:23:25.177110,7.0
2023-08-15 12:23:25.184799,24.0
2023-08-15 12:23:25.192488,-21.0
2023-08-15 12:23:25.200178,-43.0
2023-08-15 12:23:25.207867,-9.0
2023-08-15 12:23:25.215556,0.0
2023-08-15 12:23:25.223246,-14.0
2023-08-15 12:23:25.230935,-21.0
2023-08-15 12:23:25.238624,-26.0
2023-08-15 12:23:25.246314,-28.0
2023-08-15 12:23:25.254003,-19.0
2023-08-15 12:23:25.261692,-14.0
2023-08-15 12:23:25.269382,-19.0
2023-08-15 12:23:25.277071,-31.0
2023-08-15 12:23:25.284761,-53.0
2023-08-15 12:23:25.292450,-65.0
2023-08-15 12:23:25.300139,-57.0
2023-08-15 12:23:25.307829,-60.0
2023-08-15 12:23:25.315518,-82.0
2023-08-15 12:23:25.323207,-110.0
2023-08-15 12:23:25.330897,-123.0
2023-08-15 12:23:25.338586,-103.0
2023-08-15 12:23:25.346275,-72.0
2023-08-15 12:23:25.353965,-67.0
2023-08-15 12:23:25.361654,-60.0
2023-08-15 12:23:25.369344,-24.0
2023-08-15 12:23:25.377033,-7.0
2023-08-15 12:23:25.384722,-14.0
2023-08-15 12:23:25.392412,-9.0
2023-08-15 12:23:25.400101,-9.0
2023-08-15 12:23:25.407790,-21.0
2023-08-15 12:23:25.415480,-28.0
2023-08-15 12:23:25.423169,-33.0
2023-08-15 12:23:25.430858,-45.0
2023-08-15 12:23:25.438548,-48.0
2023-08-15 12:23:25.446237,-108.0
2023-08-15 12:23:25.453926,-332.0
2023-08-15 12:23:25.461616,-745.0
2023-08-15 12:23:25.469305,-1095.0
2023-08-15 12:23:25.476995,-919.0
2023-08-15 12:23:25.484684,-185.0
2023-08-15 12:23:25.492373,359.0
2023-08-15 12:23:25.500063,241.0
2023-08-15 12:23:25.507752,-24.0
2023-08-15 12:23:25.515441,7.0
2023-08-15 12:23:25.523131,62.0
2023-08-15 12:23:25.530820,9.0
2023-08-15 12:23:25.538509,2.0
2023-08-15 12:23:25.546199,26.0
2023-08-15 12:23:25.553888,2.0
2023-08-15 12:23:25.561577,-24.0
2023-08-15 12:23:25.569267,-21.0
2023-08-15 12:23:25.576956,-24.0
2023-08-15 12:23:25.584646,-24.0
2023-08-15 12:23:25.592335,-16.0
2023-08-15 12:23:25.600024,-19.0
2023-08-15 12:23:25.607714,-45.0
2023-08-15 12:23:25.615403,-77.0
2023-08-15 12:23:25.623092,-74.0
2023-08-15 12:23:25.630782,-60.0
2023-08-15 12:23:25.638471,-77.0
2023-08-15 12:23:25.646160,-96.0
2023-08-15 12:23:25.653850,-113.0
2023-08-15 12:23:25.661539,-137.0
2023-08-15 12:23:25.669229,-164.0
2023-08-15 12:23:25.676918,-178.0
2023-08-15 12:23:25.684607,-180.0
2023-08-15 12:23:25.692297,-173.0
2023-08-15 12:23:25.699986,-166.0
2023-08-15 12:23:25.707675,-156.0
2023-08-15 12:23:25.715365,-142.0
2023-08-15 12:23:25.723054,-123.0
2023-08-15 12:23:25.730743,-94.0
2023-08-15 12:23:25.738433,-65.0
2023-08-15 12:23:25.746122,-55.0
2023-08-15 12:23:25.753811,-53.0
2023-08-15 12:23:25.761501,-31.0
2023-08-15 12:23:25.769190,-14.0
2023-08-15 12:23:25.776880,-14.0
2023-08-15 12:23:25.784569,0.0
2023-08-15 12:23:25.792258,7.0
2023-08-15 12:23:25.799948,-4.0
2023-08-15 12:23:25.807637,-2.0
2023-08-15 12:23:25.815326,12.0
2023-08-15 12:23:25.823016,9.0
2023-08-15 12:23:25.830705,-9.0
2023-08-15 12:23:25.838394,-21.0
2023-08-15 12:23:25.846084,-24.0
2023-08-15 12:23:25.853773,-16.0
2023-08-15 12:23:25.861462,-9.0
2023-08-15 12:23:25.869152,-7.0
2023-08-15 12:23:25.876841,-7.0
2023-08-15 12:23:25.884531,-7.0
2023-08-15 12:23:25.892220,-7.0
2023-08-15 12:23:25.899909,-4.0
2023-08-15 12:23:25.907599,-2.0
2023-08-15 12:23:25.915288,-4.0
2023-08-15 12:23:25.922977,-21.0
2023-08-15 12:23:25.930667,-50.0
2023-08-15 12:23:25.938356,-45.0
2023-08-15 12:23:25.946045,-24.0
2023-08-15 12:23:25.953735,-24.0
2023-08-15 12:23:25.961424,-26.0
2023-08-15 12:23:25.969113,-16.0
2023-08-15 12:23:25.976803,-14.0
2023-08-15 12:23:25.984492,-19.0
2023-08-15 12:23:25.992182,-14.0
2023-08-15 12:23:25.999871,0.0
2023-08-15 12:23:26.007560,-7.0
2023-08-15 12:23:26.015250,-28.0
2023-08-15 12:23:26.022939,-38.0
2023-08-15 12:23:26.030628,-45.0
2023-08-15 12:23:26.038318,-65.0
2023-08-15 12:23:26.046007,-77.0
2023-08-15 12:23:26.053696,-89.0
2023-08-15 12:23:26.061386,-118.0
2023-08-15 12:23:26.069075,-142.0
2023-08-15 12:23:26.076765,-127.0
2023-08-15 12:23:26.084454,-86.0
2023-08-15 12:23:26.092143,-82.0
2023-08-15 12:23:26.099833,-84.0
2023-08-15 12:23:26.107522,-43.0
2023-08-15 12:23:26.115211,-21.0
2023-08-15 12:23:26.122901,-48.0
2023-08-15 12:23:26.130590,-43.0
2023-08-15 12:23:26.138279,-24.0
2023-08-15 12:23:26.145969,-41.0
2023-08-15 12:23:26.153658,-45.0
2023-08-15 12:23:26.161347,-24.0
2023-08-15 12:23:26.169037,-24.0
2023-08-15 12:23:26.176726,-36.0
2023-08-15 12:23:26.184416,-55.0
2023-08-15 12:23:26.192105,-166.0
2023-08-15 12:23:26.199794,-480.0
2023-08-15 12:23:26.207484,-933.0
2023-08-15 12:23:26.215173,-1107.0
2023-08-15 12:23:26.222862,-632.0
2023-08-15 12:23:26.230552,123.0
2023-08-15 12:23:26.238241,354.0
2023-08-15 12:23:26.245930,72.0
2023-08-15 12:23:26.253620,-41.0
2023-08-15 12:23:26.261309,77.0
2023-08-15 12:23:26.268998,65.0
2023-08-15 12:23:26.276688,0.0
2023-08-15 12:23:26.284377,16.0
2023-08-15 12:23:26.292067,26.0
2023-08-15 12:23:26.299756,0.0
2023-08-15 12:23:26.307445,0.0
2023-08-15 12:23:26.315135,19.0
2023-08-15 12:23:26.322824,7.0
2023-08-15 12:23:26.330513,-26.0
2023-08-15 12:23:26.338203,-48.0
2023-08-15 12:23:26.345892,-65.0
2023-08-15 12:23:26.353581,-69.0
2023-08-15 12:23:26.361271,-65.0
2023-08-15 12:23:26.368960,-79.0
2023-08-15 12:23:26.376649,-98.0
2023-08-15 12:23:26.384339,-101.0
2023-08-15 12:23:26.392028,-110.0
2023-08-15 12:23:26.399718,-137.0
2023-08-15 12:23:26.407407,-144.0
2023-08-15 12:23:26.415096,-147.0
2023-08-15 12:23:26.422786,-171.0
2023-08-15 12:23:26.430475,-183.0
2023-08-15 12:23:26.438164,-176.0
2023-08-15 12:23:26.445854,-183.0
2023-08-15 12:23:26.453543,-173.0
2023-08-15 12:23:26.461232,-137.0
2023-08-15 12:23:26.468922,-108.0
2023-08-15 12:23:26.476611,-91.0
2023-08-15 12:23:26.484301,-72.0
2023-08-15 12:23:26.491990,-48.0
2023-08-15 12:23:26.499679,-19.0
2023-08-15 12:23:26.507369,-2.0
2023-08-15 12:23:26.515058,-2.0
2023-08-15 12:23:26.522747,4.0
2023-08-15 12:23:26.530437,14.0
2023-08-15 12:23:26.538126,19.0
2023-08-15 12:23:26.545815,16.0
2023-08-15 12:23:26.553505,-2.0
2023-08-15 12:23:26.561194,-12.0
2023-08-15 12:23:26.568883,-7.0
2023-08-15 12:23:26.576573,-4.0
2023-08-15 12:23:26.584262,-4.0
2023-08-15 12:23:26.591952,-7.0
2023-08-15 12:23:26.599641,-21.0
2023-08-15 12:23:26.607330,-31.0
2023-08-15 12:23:26.615020,-28.0
2023-08-15 12:23:26.622709,-26.0
2023-08-15 12:23:26.630398,-24.0
2023-08-15 12:23:26.638088,-19.0
2023-08-15 12:23:26.645777,-9.0
2023-08-15 12:23:26.653466,-7.0
2023-08-15 12:23:26.661156,-26.0
2023-08-15 12:23:26.668845,-38.0
2023-08-15 12:23:26.676534,-26.0
2023-08-15 12:23:26.684224,-19.0
2023-08-15 12:23:26.691913,-26.0
2023-08-15 12:23:26.699603,-28.0
2023-08-15 12:23:26.707292,-24.0
2023-08-15 12:23:26.714981,-16.0
2023-08-15 12:23:26.722671,-16.0
2023-08-15 12:23:26.730360,-19.0
2023-08-15 12:23:26.738049,-9.0
2023-08-15 12:23:26.745739,-9.0
2023-08-15 12:23:26.753428,-33.0
2023-08-15 12:23:26.761117,-48.0
2023-08-15 12:23:26.768807,-38.0
2023-08-15 12:23:26.776496,-31.0
2023-08-15 12:23:26.784185,-38.0
2023-08-15 12:23:26.791875,-48.0
2023-08-15 12:23:26.799564,-55.0
2023-08-15 12:23:26.807254,-74.0
2023-08-15 12:23:26.814943,-96.0
2023-08-15 12:23:26.822632,-110.0
2023-08-15 12:23:26.830322,-127.0
2023-08-15 12:23:26.838011,-127.0
2023-08-15 12:23:26.845700,-84.0
2023-08-15 12:23:26.853390,-43.0
2023-08-15 12:23:26.861079,-50.0
2023-08-15 12:23:26.868768,-43.0
2023-08-15 12:23:26.876458,-7.0
2023-08-15 12:23:26.884147,2.0
2023-08-15 12:23:26.891837,-12.0
2023-08-15 12:23:26.899526,-19.0
2023-08-15 12:23:26.907215,-26.0
2023-08-15 12:23:26.914905,-38.0
2023-08-15 12:23:26.922594,-33.0
2023-08-15 12:23:26.930283,-28.0
2023-08-15 12:23:26.937973,-38.0
2023-08-15 12:23:26.945662,-74.0
2023-08-15 12:23:26.953351,-253.0
2023-08-15 12:23:26.961041,-661.0
2023-08-15 12:23:26.968730,-1064.0
2023-08-15 12:23:26.976419,-991.0
2023-08-15 12:23:26.984109,-325.0
2023-08-15 12:23:26.991798,304.0
2023-08-15 12:23:26.999488,279.0
2023-08-15 12:23:27.007177,-19.0
2023-08-15 12:23:27.014866,-9.0
2023-08-15 12:23:27.022556,94.0
2023-08-15 12:23:27.030245,53.0
2023-08-15 12:23:27.037934,28.0
2023-08-15 12:23:27.045624,43.0
2023-08-15 12:23:27.053313,24.0
2023-08-15 12:23:27.061002,16.0
2023-08-15 12:23:27.068692,21.0
2023-08-15 12:23:27.076381,-4.0
2023-08-15 12:23:27.084070,-24.0
2023-08-15 12:23:27.091760,-24.0
2023-08-15 12:23:27.099449,-31.0
2023-08-15 12:23:27.107139,-43.0
2023-08-15 12:23:27.114828,-50.0
2023-08-15 12:23:27.122517,-45.0
2023-08-15 12:23:27.130207,-60.0
2023-08-15 12:23:27.137896,-103.0
2023-08-15 12:23:27.145585,-125.0
2023-08-15 12:23:27.153275,-118.0
2023-08-15 12:23:27.160964,-137.0
2023-08-15 12:23:27.168653,-180.0
2023-08-15 12:23:27.176343,-207.0
2023-08-15 12:23:27.184032,-197.0
2023-08-15 12:23:27.191721,-176.0
2023-08-15 12:23:27.199411,-164.0
2023-08-15 12:23:27.207100,-173.0
2023-08-15 12:23:27.214790,-178.0
2023-08-15 12:23:27.222479,-149.0
2023-08-15 12:23:27.230168,-98.0
2023-08-15 12:23:27.237858,-62.0
2023-08-15 12:23:27.245547,-48.0
2023-08-15 12:23:27.253236,-41.0
2023-08-15 12:23:27.260926,-14.0
2023-08-15 12:23:27.268615,14.0
2023-08-15 12:23:27.276304,2.0
2023-08-15 12:23:27.283994,-14.0
2023-08-15 12:23:27.291683,4.0
2023-08-15 12:23:27.299373,12.0
2023-08-15 12:23:27.307062,-4.0
2023-08-15 12:23:27.314751,-9.0
2023-08-15 12:23:27.322441,4.0
2023-08-15 12:23:27.330130,14.0
2023-08-15 12:23:27.337819,9.0
2023-08-15 12:23:27.345509,2.0
2023-08-15 12:23:27.353198,2.0
2023-08-15 12:23:27.360887,14.0
2023-08-15 12:23:27.368577,19.0
2023-08-15 12:23:27.376266,-2.0
2023-08-15 12:23:27.383955,-21.0
2023-08-15 12:23:27.391645,-19.0
2023-08-15 12:23:27.399334,-12.0
2023-08-15 12:23:27.407024,-9.0
2023-08-15 12:23:27.414713,-4.0
2023-08-15 12:23:27.422402,-9.0
2023-08-15 12:23:27.430092,-7.0
2023-08-15 12:23:27.437781,-2.0
2023-08-15 12:23:27.445470,-4.0
2023-08-15 12:23:27.453160,-9.0
2023-08-15 12:23:27.460849,-9.0
2023-08-15 12:23:27.468538,-12.0
2023-08-15 12:23:27.476228,-24.0
2023-08-15 12:23:27.483917,-21.0
2023-08-15 12:23:27.491606,-4.0
2023-08-15 12:23:27.499296,-2.0
2023-08-15 12:23:27.506985,-9.0
2023-08-15 12:23:27.514675,-21.0
2023-08-15 12:23:27.522364,-24.0
2023-08-15 12:23:27.530053,-4.0
2023-08-15 12:23:27.537743,-4.0
2023-08-15 12:23:27.545432,-19.0
2023-08-15 12:23:27.553121,-21.0
2023-08-15 12:23:27.560811,-28.0
2023-08-15 12:23:27.568500,-53.0
2023-08-15 12:23:27.576189,-67.0
2023-08-15 12:23:27.583879,-74.0
2023-08-15 12:23:27.591568,-106.0
2023-08-15 12:23:27.599257,-130.0
2023-08-15 12:23:27.606947,-118.0
2023-08-15 12:23:27.614636,-84.0
2023-08-15 12:23:27.622326,-50.0
2023-08-15 12:23:27.630015,-26.0
2023-08-15 12:23:27.637704,-26.0
2023-08-15 12:23:27.645394,-19.0
2023-08-15 12:23:27.653083,-7.0
2023-08-15 12:23:27.660772,-19.0
2023-08-15 12:23:27.668462,-21.0
2023-08-15 12:23:27.676151,0.0
2023-08-15 12:23:27.683840,-19.0
2023-08-15 12:23:27.691530,-45.0
2023-08-15 12:23:27.699219,-24.0
2023-08-15 12:23:27.706909,2.0
2023-08-15 12:23:27.714598,-31.0
2023-08-15 12:23:27.722287,-212.0
2023-08-15 12:23:27.729977,-588.0
2023-08-15 12:23:27.737666,-984.0
2023-08-15 12:23:27.745355,-989.0
2023-08-15 12:23:27.753045,-405.0
2023-08-15 12:23:27.760734,258.0
2023-08-15 12:23:27.768423,316.0
2023-08-15 12:23:27.776113,-4.0
2023-08-15 12:23:27.783802,-60.0
2023-08-15 12:23:27.791491,45.0
2023-08-15 12:23:27.799181,16.0
2023-08-15 12:23:27.806870,-9.0
2023-08-15 12:23:27.814560,19.0
2023-08-15 12:23:27.822249,7.0
2023-08-15 12:23:27.829938,-26.0
2023-08-15 12:23:27.837628,-38.0
2023-08-15 12:23:27.845317,-38.0
2023-08-15 12:23:27.853006,-45.0
2023-08-15 12:23:27.860696,-48.0
2023-08-15 12:23:27.868385,-65.0
2023-08-15 12:23:27.876074,-86.0
2023-08-15 12:23:27.883764,-91.0
2023-08-15 12:23:27.891453,-94.0
2023-08-15 12:23:27.899142,-94.0
2023-08-15 12:23:27.906832,-96.0
2023-08-15 12:23:27.914521,-118.0
2023-08-15 12:23:27.922211,-139.0
2023-08-15 12:23:27.929900,-142.0
2023-08-15 12:23:27.937589,-149.0
2023-08-15 12:23:27.945279,-173.0
2023-08-15 12:23:27.952968,-200.0
2023-08-15 12:23:27.960657,-205.0
2023-08-15 12:23:27.968347,-193.0
2023-08-15 12:23:27.976036,-183.0
2023-08-15 12:23:27.983725,-176.0
2023-08-15 12:23:27.991415,-152.0
2023-08-15 12:23:27.999104,-115.0
2023-08-15 12:23:28.006794,-86.0
2023-08-15 12:23:28.014483,-62.0
2023-08-15 12:23:28.022172,-36.0
2023-08-15 12:23:28.029862,-9.0
2023-08-15 12:23:28.037551,4.0
2023-08-15 12:23:28.045240,16.0
2023-08-15 12:23:28.052930,36.0
2023-08-15 12:23:28.060619,36.0
2023-08-15 12:23:28.068308,9.0
2023-08-15 12:23:28.075998,-4.0
2023-08-15 12:23:28.083687,7.0
2023-08-15 12:23:28.091376,9.0
2023-08-15 12:23:28.099066,-2.0
2023-08-15 12:23:28.106755,-4.0
2023-08-15 12:23:28.114445,0.0
2023-08-15 12:23:28.122134,2.0
2023-08-15 12:23:28.129823,2.0
2023-08-15 12:23:28.137513,2.0
2023-08-15 12:23:28.145202,0.0
2023-08-15 12:23:28.152891,-4.0
2023-08-15 12:23:28.160581,-4.0
2023-08-15 12:23:28.168270,0.0
2023-08-15 12:23:28.175959,-2.0
2023-08-15 12:23:28.183649,-16.0
2023-08-15 12:23:28.191338,-19.0
2023-08-15 12:23:28.199027,4.0
2023-08-15 12:23:28.206717,12.0
2023-08-15 12:23:28.214406,-4.0
2023-08-15 12:23:28.222096,-12.0
2023-08-15 12:23:28.229785,-14.0
2023-08-15 12:23:28.237474,-19.0
2023-08-15 12:23:28.245164,-9.0
2023-08-15 12:23:28.252853,-4.0
2023-08-15 12:23:28.260542,-9.0
2023-08-15 12:23:28.268232,-9.0
2023-08-15 12:23:28.275921,-9.0
2023-08-15 12:23:28.283610,-12.0
2023-08-15 12:23:28.291300,-2.0
2023-08-15 12:23:28.298989,0.0
2023-08-15 12:23:28.306678,-16.0
2023-08-15 12:23:28.314368,-33.0
2023-08-15 12:23:28.322057,-28.0
2023-08-15 12:23:28.329747,-21.0
2023-08-15 12:23:28.337436,-38.0
2023-08-15 12:23:28.345125,-48.0
2023-08-15 12:23:28.352815,-38.0
2023-08-15 12:23:28.360504,-33.0
2023-08-15 12:23:28.368193,-65.0
2023-08-15 12:23:28.375883,-110.0
2023-08-15 12:23:28.383572,-125.0
2023-08-15 12:23:28.391261,-115.0
2023-08-15 12:23:28.398951,-101.0
2023-08-15 12:23:28.406640,-89.0
2023-08-15 12:23:28.414330,-72.0
2023-08-15 12:23:28.422019,-43.0
2023-08-15 12:23:28.429708,-19.0
2023-08-15 12:23:28.437398,-12.0
2023-08-15 12:23:28.445087,-19.0
2023-08-15 12:23:28.452776,-21.0
2023-08-15 12:23:28.460466,-4.0
2023-08-15 12:23:28.468155,2.0
2023-08-15 12:23:28.475844,-16.0
2023-08-15 12:23:28.483534,-26.0
2023-08-15 12:23:28.491223,-21.0
2023-08-15 12:23:28.498912,-28.0
2023-08-15 12:23:28.506602,-94.0
2023-08-15 12:23:28.514291,-325.0
2023-08-15 12:23:28.521981,-757.0
2023-08-15 12:23:28.529670,-1093.0
2023-08-15 12:23:28.537359,-861.0
2023-08-15 12:23:28.545049,-110.0
2023-08-15 12:23:28.552738,378.0
2023-08-15 12:23:28.560427,195.0
2023-08-15 12:23:28.568117,-45.0
2023-08-15 12:23:28.575806,41.0
2023-08-15 12:23:28.583495,103.0
2023-08-15 12:23:28.591185,45.0
2023-08-15 12:23:28.598874,43.0
2023-08-15 12:23:28.606563,45.0
2023-08-15 12:23:28.614253,19.0
2023-08-15 12:23:28.621942,9.0
2023-08-15 12:23:28.629632,12.0
2023-08-15 12:23:28.637321,0.0
2023-08-15 12:23:28.645010,-14.0
2023-08-15 12:23:28.652700,-16.0
2023-08-15 12:23:28.660389,-21.0
2023-08-15 12:23:28.668078,-38.0
2023-08-15 12:23:28.675768,-50.0
2023-08-15 12:23:28.683457,-60.0
2023-08-15 12:23:28.691146,-82.0
2023-08-15 12:23:28.698836,-101.0
2023-08-15 12:23:28.706525,-108.0
2023-08-15 12:23:28.714214,-123.0
2023-08-15 12:23:28.721904,-137.0
2023-08-15 12:23:28.729593,-147.0
2023-08-15 12:23:28.737283,-144.0
2023-08-15 12:23:28.744972,-149.0
2023-08-15 12:23:28.752661,-164.0
2023-08-15 12:23:28.760351,-166.0
2023-08-15 12:23:28.768040,-164.0
2023-08-15 12:23:28.775729,-159.0
2023-08-15 12:23:28.783419,-135.0
2023-08-15 12:23:28.791108,-94.0
2023-08-15 12:23:28.798797,-69.0
2023-08-15 12:23:28.806487,-67.0
2023-08-15 12:23:28.814176,-50.0
2023-08-15 12:23:28.821866,-7.0
2023-08-15 12:23:28.829555,12.0
2023-08-15 12:23:28.837244,-4.0
2023-08-15 12:23:28.844934,12.0
2023-08-15 12:23:28.852623,28.0
2023-08-15 12:23:28.860312,-16.0
2023-08-15 12:23:28.868002,-38.0
2023-08-15 12:23:28.875691,7.0
2023-08-15 12:23:28.883380,14.0
2023-08-15 12:23:28.891070,-33.0
2023-08-15 12:23:28.898759,-41.0
2023-08-15 12:23:28.906448,-12.0
2023-08-15 12:23:28.914138,0.0
2023-08-15 12:23:28.921827,-2.0
2023-08-15 12:23:28.929517,-14.0
2023-08-15 12:23:28.937206,-26.0
2023-08-15 12:23:28.944895,-26.0
2023-08-15 12:23:28.952585,-26.0
2023-08-15 12:23:28.960274,-38.0
2023-08-15 12:23:28.967963,-48.0
2023-08-15 12:23:28.975653,-26.0
2023-08-15 12:23:28.983342,-12.0
2023-08-15 12:23:28.991031,-28.0
2023-08-15 12:23:28.998721,-28.0
2023-08-15 12:23:29.006410,-24.0
2023-08-15 12:23:29.014099,-24.0
2023-08-15 12:23:29.021789,-12.0
2023-08-15 12:23:29.029478,-2.0
2023-08-15 12:23:29.037168,-19.0
2023-08-15 12:23:29.044857,-24.0
2023-08-15 12:23:29.052546,-9.0
2023-08-15 12:23:29.060236,-21.0
2023-08-15 12:23:29.067925,-38.0
2023-08-15 12:23:29.075614,-21.0
2023-08-15 12:23:29.083304,-9.0
2023-08-15 12:23:29.090993,-24.0
2023-08-15 12:23:29.098682,-38.0
2023-08-15 12:23:29.106372,-45.0
2023-08-15 12:23:29.114061,-45.0
2023-08-15 12:23:29.121750,-55.0
2023-08-15 12:23:29.129440,-82.0
2023-08-15 12:23:29.137129,-89.0
2023-08-15 12:23:29.144819,-91.0
2023-08-15 12:23:29.152508,-125.0
2023-08-15 12:23:29.160197,-137.0
2023-08-15 12:23:29.167887,-91.0
2023-08-15 12:23:29.175576,-55.0
2023-08-15 12:23:29.183265,-38.0
2023-08-15 12:23:29.190955,-16.0
2023-08-15 12:23:29.198644,-9.0
2023-08-15 12:23:29.206333,-26.0
2023-08-15 12:23:29.214023,-36.0
2023-08-15 12:23:29.221712,-9.0
2023-08-15 12:23:29.229402,7.0
2023-08-15 12:23:29.237091,-9.0
2023-08-15 12:23:29.244780,-7.0
2023-08-15 12:23:29.252470,-12.0
2023-08-15 12:23:29.260159,-36.0
2023-08-15 12:23:29.267848,-48.0
2023-08-15 12:23:29.275538,-193.0
2023-08-15 12:23:29.283227,-593.0
2023-08-15 12:23:29.290916,-1080.0
2023-08-15 12:23:29.298606,-1170.0
2023-08-15 12:23:29.306295,-547.0
2023-08-15 12:23:29.313984,265.0
2023-08-15 12:23:29.321674,410.0
2023-08-15 12:23:29.329363,45.0
2023-08-15 12:23:29.337053,-31.0
2023-08-15 12:23:29.344742,110.0
2023-08-15 12:23:29.352431,77.0
2023-08-15 12:23:29.360121,26.0
2023-08-15 12:23:29.367810,67.0
2023-08-15 12:23:29.375499,50.0
2023-08-15 12:23:29.383189,-2.0
2023-08-15 12:23:29.390878,-2.0
2023-08-15 12:23:29.398567,7.0
2023-08-15 12:23:29.406257,-7.0
2023-08-15 12:23:29.413946,-12.0
2023-08-15 12:23:29.421635,-16.0
2023-08-15 12:23:29.429325,-38.0
2023-08-15 12:23:29.437014,-53.0
2023-08-15 12:23:29.444704,-69.0
2023-08-15 12:23:29.452393,-84.0
2023-08-15 12:23:29.460082,-89.0
2023-08-15 12:23:29.467772,-103.0
2023-08-15 12:23:29.475461,-115.0
2023-08-15 12:23:29.483150,-118.0
2023-08-15 12:23:29.490840,-149.0
2023-08-15 12:23:29.498529,-183.0
2023-08-15 12:23:29.506218,-185.0
2023-08-15 12:23:29.513908,-168.0
2023-08-15 12:23:29.521597,-161.0
2023-08-15 12:23:29.529286,-183.0
2023-08-15 12:23:29.536976,-180.0
2023-08-15 12:23:29.544665,-137.0
2023-08-15 12:23:29.552355,-106.0
2023-08-15 12:23:29.560044,-94.0
2023-08-15 12:23:29.567733,-77.0
2023-08-15 12:23:29.575423,-50.0
2023-08-15 12:23:29.583112,-33.0
2023-08-15 12:23:29.590801,-31.0
2023-08-15 12:23:29.598491,-31.0
2023-08-15 12:23:29.606180,-24.0
2023-08-15 12:23:29.613869,-12.0
2023-08-15 12:23:29.621559,-2.0
2023-08-15 12:23:29.629248,-12.0
2023-08-15 12:23:29.636938,-31.0
2023-08-15 12:23:29.644627,-28.0
2023-08-15 12:23:29.652316,-12.0
2023-08-15 12:23:29.660006,-16.0
2023-08-15 12:23:29.667695,-36.0
2023-08-15 12:23:29.675384,-38.0
2023-08-15 12:23:29.683074,-31.0
2023-08-15 12:23:29.690763,-24.0
2023-08-15 12:23:29.698452,-24.0
2023-08-15 12:23:29.706142,-28.0
2023-08-15 12:23:29.713831,-31.0
2023-08-15 12:23:29.721520,-31.0
2023-08-15 12:23:29.729210,-28.0
2023-08-15 12:23:29.736899,-14.0
2023-08-15 12:23:29.744589,-9.0
2023-08-15 12:23:29.752278,-19.0
2023-08-15 12:23:29.759967,-24.0
2023-08-15 12:23:29.767657,-16.0
2023-08-15 12:23:29.775346,-9.0
2023-08-15 12:23:29.783035,-19.0
2023-08-15 12:23:29.790725,-31.0
2023-08-15 12:23:29.798414,-24.0
2023-08-15 12:23:29.806103,-14.0
2023-08-15 12:23:29.813793,-26.0
2023-08-15 12:23:29.821482,-31.0
2023-08-15 12:23:29.829171,-21.0
2023-08-15 12:23:29.836861,-31.0
2023-08-15 12:23:29.844550,-43.0
2023-08-15 12:23:29.852240,-41.0
2023-08-15 12:23:29.859929,-41.0
2023-08-15 12:23:29.867618,-38.0
2023-08-15 12:23:29.875308,-33.0
2023-08-15 12:23:29.882997,-28.0
2023-08-15 12:23:29.890686,-28.0
2023-08-15 12:23:29.898376,-55.0
2023-08-15 12:23:29.906065,-74.0
2023-08-15 12:23:29.913754,-72.0
2023-08-15 12:23:29.921444,-89.0
2023-08-15 12:23:29.929133,-120.0
2023-08-15 12:23:29.936823,-137.0
2023-08-15 12:23:29.944512,-125.0
2023-08-15 12:23:29.952201,-91.0
2023-08-15 12:23:29.959891,-72.0
2023-08-15 12:23:29.967580,-55.0
2023-08-15 12:23:29.975269,-28.0
2023-08-15 12:23:29.982959,-19.0
2023-08-15 12:23:29.990648,-19.0
2023-08-15 12:23:29.998337,-28.0
2023-08-15 12:23:30.006027,-28.0
2023-08-15 12:23:30.013716,-9.0
2023-08-15 12:23:30.021405,-7.0
2023-08-15 12:23:30.029095,-21.0
2023-08-15 12:23:30.036784,-19.0
2023-08-15 12:23:30.044474,4.0
2023-08-15 12:23:30.052163,-36.0
2023-08-15 12:23:30.059852,-265.0
2023-08-15 12:23:30.067542,-692.0
2023-08-15 12:23:30.075231,-1107.0
2023-08-15 12:23:30.082920,-1061.0
2023-08-15 12:23:30.090610,-366.0
2023-08-15 12:23:30.098299,325.0
2023-08-15 12:23:30.105988,294.0
2023-08-15 12:23:30.113678,-26.0
2023-08-15 12:23:30.121367,21.0
2023-08-15 12:23:30.129056,142.0
2023-08-15 12:23:30.136746,62.0
2023-08-15 12:23:30.144435,33.0
2023-08-15 12:23:30.152125,77.0
2023-08-15 12:23:30.159814,53.0
2023-08-15 12:23:30.167503,16.0
2023-08-15 12:23:30.175193,28.0
2023-08-15 12:23:30.182882,28.0
2023-08-15 12:23:30.190571,14.0
2023-08-15 12:23:30.198261,0.0
2023-08-15 12:23:30.205950,-24.0
2023-08-15 12:23:30.213639,-43.0
2023-08-15 12:23:30.221329,-48.0
2023-08-15 12:23:30.229018,-53.0
2023-08-15 12:23:30.236707,-55.0
2023-08-15 12:23:30.244397,-57.0
2023-08-15 12:23:30.252086,-79.0
2023-08-15 12:23:30.259776,-103.0
2023-08-15 12:23:30.267465,-115.0
2023-08-15 12:23:30.275154,-132.0
2023-08-15 12:23:30.282844,-147.0
2023-08-15 12:23:30.290533,-149.0
2023-08-15 12:23:30.298222,-154.0
2023-08-15 12:23:30.305912,-166.0
2023-08-15 12:23:30.313601,-161.0
2023-08-15 12:23:30.321290,-144.0
2023-08-15 12:23:30.328980,-118.0
2023-08-15 12:23:30.336669,-79.0
2023-08-15 12:23:30.344359,-60.0
2023-08-15 12:23:30.352048,-55.0
2023-08-15 12:23:30.359737,-26.0
2023-08-15 12:23:30.367427,0.0
2023-08-15 12:23:30.375116,2.0
2023-08-15 12:23:30.382805,9.0
2023-08-15 12:23:30.390495,26.0
2023-08-15 12:23:30.398184,24.0
2023-08-15 12:23:30.405873,12.0
2023-08-15 12:23:30.413563,16.0
2023-08-15 12:23:30.421252,28.0
2023-08-15 12:23:30.428941,26.0
2023-08-15 12:23:30.436631,24.0
2023-08-15 12:23:30.444320,31.0
2023-08-15 12:23:30.452010,26.0
2023-08-15 12:23:30.459699,4.0
2023-08-15 12:23:30.467388,-12.0
2023-08-15 12:23:30.475078,-14.0
2023-08-15 12:23:30.482767,-9.0
2023-08-15 12:23:30.490456,-4.0
2023-08-15 12:23:30.498146,2.0
2023-08-15 12:23:30.505835,14.0
2023-08-15 12:23:30.513524,12.0
2023-08-15 12:23:30.521214,-16.0
2023-08-15 12:23:30.528903,-36.0
2023-08-15 12:23:30.536592,-24.0
2023-08-15 12:23:30.544282,-14.0
2023-08-15 12:23:30.551971,-4.0
2023-08-15 12:23:30.559661,0.0
2023-08-15 12:23:30.567350,-19.0
2023-08-15 12:23:30.575039,-36.0
2023-08-15 12:23:30.582729,-24.0
2023-08-15 12:23:30.590418,-19.0
2023-08-15 12:23:30.598107,-36.0
2023-08-15 12:23:30.605797,-43.0
2023-08-15 12:23:30.613486,-41.0
2023-08-15 12:23:30.621175,-36.0
2023-08-15 12:23:30.628865,-14.0
2023-08-15 12:23:30.636554,-2.0
2023-08-15 12:23:30.644243,-28.0
2023-08-15 12:23:30.651933,-53.0
2023-08-15 12:23:30.659622,-60.0
2023-08-15 12:23:30.667312,-55.0
2023-08-15 12:23:30.675001,-57.0
2023-08-15 12:23:30.682690,-84.0
2023-08-15 12:23:30.690380,-91.0
2023-08-15 12:23:30.698069,-82.0
2023-08-15 12:23:30.705758,-98.0
2023-08-15 12:23:30.713448,-123.0
2023-08-15 12:23:30.721137,-118.0
2023-08-15 12:23:30.728826,-86.0
2023-08-15 12:23:30.736516,-57.0
2023-08-15 12:23:30.744205,-43.0
2023-08-15 12:23:30.751895,-28.0
2023-08-15 12:23:30.759584,-12.0
2023-08-15 12:23:30.767273,-7.0
2023-08-15 12:23:30.774963,-14.0
2023-08-15 12:23:30.782652,-9.0
2023-08-15 12:23:30.790341,4.0
2023-08-15 12:23:30.798031,-2.0
2023-08-15 12:23:30.805720,-31.0
2023-08-15 12:23:30.813409,-36.0
2023-08-15 12:23:30.821099,-19.0
2023-08-15 12:23:30.828788,-84.0
2023-08-15 12:23:30.836477,-337.0
2023-08-15 12:23:30.844167,-760.0
2023-08-15 12:23:30.851856,-1093.0
2023-08-15 12:23:30.859546,-916.0
2023-08-15 12:23:30.867235,-202.0
2023-08-15 12:23:30.874924,330.0
2023-08-15 12:23:30.882614,197.0
2023-08-15 12:23:30.890303,-50.0
2023-08-15 12:23:30.897992,43.0
2023-08-15 12:23:30.905682,127.0
2023-08-15 12:23:30.913371,48.0
2023-08-15 12:23:30.921060,19.0
2023-08-15 12:23:30.928750,45.0
2023-08-15 12:23:30.936439,24.0
2023-08-15 12:23:30.944128,2.0
2023-08-15 12:23:30.951818,14.0
2023-08-15 12:23:30.959507,12.0
2023-08-15 12:23:30.967197,-2.0
2023-08-15 12:23:30.974886,0.0
2023-08-15 12:23:30.982575,-12.0
2023-08-15 12:23:30.990265,-36.0
2023-08-15 12:23:30.997954,-45.0
2023-08-15 12:23:31.005643,-50.0
2023-08-15 12:23:31.013333,-60.0
2023-08-15 12:23:31.021022,-82.0
2023-08-15 12:23:31.028711,-103.0
2023-08-15 12:23:31.036401,-106.0
2023-08-15 12:23:31.044090,-110.0
2023-08-15 12:23:31.051779,-142.0
2023-08-15 12:23:31.059469,-166.0
2023-08-15 12:23:31.067158,-171.0
2023-08-15 12:23:31.074848,-166.0
2023-08-15 12:23:31.082537,-152.0
2023-08-15 12:23:31.090226,-139.0
2023-08-15 12:23:31.097916,-132.0
2023-08-15 12:23:31.105605,-120.0
2023-08-15 12:23:31.113294,-108.0
2023-08-15 12:23:31.120984,-84.0
2023-08-15 12:23:31.128673,-38.0
2023-08-15 12:23:31.136362,-21.0
2023-08-15 12:23:31.144052,-33.0
2023-08-15 12:23:31.151741,-7.0
2023-08-15 12:23:31.159431,24.0
2023-08-15 12:23:31.167120,7.0
2023-08-15 12:23:31.174809,2.0
2023-08-15 12:23:31.182499,31.0
2023-08-15 12:23:31.190188,36.0
2023-08-15 12:23:31.197877,14.0
2023-08-15 12:23:31.205567,2.0
2023-08-15 12:23:31.213256,0.0
2023-08-15 12:23:31.220945,2.0
2023-08-15 12:23:31.228635,9.0
2023-08-15 12:23:31.236324,9.0
2023-08-15 12:23:31.244013,-2.0
2023-08-15 12:23:31.251703,-7.0
2023-08-15 12:23:31.259392,2.0
2023-08-15 12:23:31.267082,0.0
2023-08-15 12:23:31.274771,-2.0
2023-08-15 12:23:31.282460,-2.0
2023-08-15 12:23:31.290150,-12.0
2023-08-15 12:23:31.297839,-14.0
2023-08-15 12:23:31.305528,-2.0
2023-08-15 12:23:31.313218,-4.0
2023-08-15 12:23:31.320907,-12.0
2023-08-15 12:23:31.328596,-9.0
2023-08-15 12:23:31.336286,-9.0
2023-08-15 12:23:31.343975,-19.0
2023-08-15 12:23:31.351664,-24.0
2023-08-15 12:23:31.359354,-14.0
2023-08-15 12:23:31.367043,-16.0
2023-08-15 12:23:31.374733,-36.0
2023-08-15 12:23:31.382422,-38.0
2023-08-15 12:23:31.390111,-28.0
2023-08-15 12:23:31.397801,-36.0
2023-08-15 12:23:31.405490,-43.0
2023-08-15 12:23:31.413179,-21.0
2023-08-15 12:23:31.420869,-16.0
2023-08-15 12:23:31.428558,-38.0
2023-08-15 12:23:31.436247,-36.0
2023-08-15 12:23:31.443937,-36.0
2023-08-15 12:23:31.451626,-60.0
2023-08-15 12:23:31.459315,-65.0
2023-08-15 12:23:31.467005,-67.0
2023-08-15 12:23:31.474694,-82.0
2023-08-15 12:23:31.482384,-84.0
2023-08-15 12:23:31.490073,-106.0
2023-08-15 12:23:31.497762,-123.0
2023-08-15 12:23:31.505452,-82.0
2023-08-15 12:23:31.513141,-36.0
2023-08-15 12:23:31.520830,-33.0
2023-08-15 12:23:31.528520,-31.0
2023-08-15 12:23:31.536209,-4.0
2023-08-15 12:23:31.543898,4.0
2023-08-15 12:23:31.551588,0.0
2023-08-15 12:23:31.559277,-2.0
2023-08-15 12:23:31.566967,-12.0
2023-08-15 12:23:31.574656,-14.0
2023-08-15 12:23:31.582345,-12.0
2023-08-15 12:23:31.590035,-9.0
2023-08-15 12:23:31.597724,7.0
2023-08-15 12:23:31.605413,-9.0
2023-08-15 12:23:31.613103,-156.0
2023-08-15 12:23:31.620792,-494.0
2023-08-15 12:23:31.628481,-921.0
2023-08-15 12:23:31.636171,-1049.0
2023-08-15 12:23:31.643860,-569.0
2023-08-15 12:23:31.651549,142.0
2023-08-15 12:23:31.659239,342.0
2023-08-15 12:23:31.666928,60.0
2023-08-15 12:23:31.674618,-31.0
2023-08-15 12:23:31.682307,94.0
2023-08-15 12:23:31.689996,84.0
2023-08-15 12:23:31.697686,24.0
2023-08-15 12:23:31.705375,33.0
2023-08-15 12:23:31.713064,31.0
2023-08-15 12:23:31.720754,16.0
2023-08-15 12:23:31.728443,26.0
2023-08-15 12:23:31.736132,28.0
2023-08-15 12:23:31.743822,0.0
2023-08-15 12:23:31.751511,-24.0
2023-08-15 12:23:31.759200,-28.0
2023-08-15 12:23:31.766890,-31.0
2023-08-15 12:23:31.774579,-36.0
2023-08-15 12:23:31.782269,-48.0
2023-08-15 12:23:31.789958,-62.0
2023-08-15 12:23:31.797647,-74.0
2023-08-15 12:23:31.805337,-86.0
2023-08-15 12:23:31.813026,-101.0
2023-08-15 12:23:31.820715,-120.0
2023-08-15 12:23:31.828405,-132.0
2023-08-15 12:23:31.836094,-139.0
2023-08-15 12:23:31.843783,-154.0
2023-08-15 12:23:31.851473,-168.0
2023-08-15 12:23:31.859162,-173.0
2023-08-15 12:23:31.866851,-164.0
2023-08-15 12:23:31.874541,-159.0
2023-08-15 12:23:31.882230,-144.0
2023-08-15 12:23:31.889920,-96.0
2023-08-15 12:23:31.897609,-72.0
2023-08-15 12:23:31.905298,-74.0
2023-08-15 12:23:31.912988,-53.0
2023-08-15 12:23:31.920677,-26.0
2023-08-15 12:23:31.928366,-4.0
2023-08-15 12:23:31.936056,12.0
2023-08-15 12:23:31.943745,14.0
2023-08-15 12:23:31.951434,16.0
2023-08-15 12:23:31.959124,36.0
2023-08-15 12:23:31.966813,36.0
2023-08-15 12:23:31.974503,4.0
2023-08-15 12:23:31.982192,-9.0
2023-08-15 12:23:31.989881,2.0
2023-08-15 12:23:31.997571,0.0
2023-08-15 12:23:32.005260,-14.0
2023-08-15 12:23:32.012949,-2.0
2023-08-15 12:23:32.020639,16.0
2023-08-15 12:23:32.028328,7.0
2023-08-15 12:23:32.036017,-4.0
2023-08-15 12:23:32.043707,-7.0
2023-08-15 12:23:32.051396,-12.0
2023-08-15 12:23:32.059085,-9.0
2023-08-15 12:23:32.066775,-9.0
2023-08-15 12:23:32.074464,-26.0
2023-08-15 12:23:32.082154,-19.0
2023-08-15 12:23:32.089843,12.0
2023-08-15 12:23:32.097532,0.0
2023-08-15 12:23:32.105222,-38.0
2023-08-15 12:23:32.112911,-28.0
2023-08-15 12:23:32.120600,-2.0
2023-08-15 12:23:32.128290,-7.0
2023-08-15 12:23:32.135979,-19.0
2023-08-15 12:23:32.143668,-28.0
2023-08-15 12:23:32.151358,-28.0
2023-08-15 12:23:32.159047,-19.0
2023-08-15 12:23:32.166736,-24.0
2023-08-15 12:23:32.174426,-28.0
2023-08-15 12:23:32.182115,-31.0
2023-08-15 12:23:32.189805,-45.0
2023-08-15 12:23:32.197494,-50.0
2023-08-15 12:23:32.205183,-38.0
2023-08-15 12:23:32.212873,-41.0
2023-08-15 12:23:32.220562,-48.0
2023-08-15 12:23:32.228251,-43.0
2023-08-15 12:23:32.235941,-43.0
2023-08-15 12:23:32.243630,-65.0
2023-08-15 12:23:32.251319,-86.0
2023-08-15 12:23:32.259009,-98.0
2023-08-15 12:23:32.266698,-120.0
2023-08-15 12:23:32.274388,-139.0
2023-08-15 12:23:32.282077,-113.0
2023-08-15 12:23:32.289766,-60.0
2023-08-15 12:23:32.297456,-45.0
2023-08-15 12:23:32.305145,-50.0
2023-08-15 12:23:32.312834,-24.0
2023-08-15 12:23:32.320524,-4.0
2023-08-15 12:23:32.328213,-16.0
2023-08-15 12:23:32.335902,-12.0
2023-08-15 12:23:32.343592,0.0
2023-08-15 12:23:32.351281,-31.0
2023-08-15 12:23:32.358970,-50.0
2023-08-15 12:23:32.366660,-31.0
2023-08-15 12:23:32.374349,-16.0
2023-08-15 12:23:32.382039,-19.0
2023-08-15 12:23:32.389728,-50.0
2023-08-15 12:23:32.397417,-241.0
2023-08-15 12:23:32.405107,-656.0
2023-08-15 12:23:32.412796,-1080.0
2023-08-15 12:23:32.420485,-1037.0
2023-08-15 12:23:32.428175,-354.0
2023-08-15 12:23:32.435864,337.0
2023-08-15 12:23:32.443553,332.0
2023-08-15 12:23:32.451243,0.0
2023-08-15 12:23:32.458932,4.0
2023-08-15 12:23:32.466621,127.0
2023-08-15 12:23:32.474311,69.0
2023-08-15 12:23:32.482000,31.0
2023-08-15 12:23:32.489690,57.0
2023-08-15 12:23:32.497379,45.0
2023-08-15 12:23:32.505068,26.0
2023-08-15 12:23:32.512758,24.0
2023-08-15 12:23:32.520447,7.0
2023-08-15 12:23:32.528136,-7.0
2023-08-15 12:23:32.535826,-12.0
2023-08-15 12:23:32.543515,-26.0
2023-08-15 12:23:32.551204,-28.0
2023-08-15 12:23:32.558894,-21.0
2023-08-15 12:23:32.566583,-43.0
2023-08-15 12:23:32.574272,-77.0
2023-08-15 12:23:32.581962,-72.0
2023-08-15 12:23:32.589651,-67.0
2023-08-15 12:23:32.597341,-110.0
2023-08-15 12:23:32.605030,-135.0
2023-08-15 12:23:32.612719,-123.0
2023-08-15 12:23:32.620409,-130.0
2023-08-15 12:23:32.628098,-154.0
2023-08-15 12:23:32.635787,-161.0
2023-08-15 12:23:32.643477,-147.0
2023-08-15 12:23:32.651166,-147.0
2023-08-15 12:23:32.658855,-144.0
2023-08-15 12:23:32.666545,-113.0
2023-08-15 12:23:32.674234,-79.0
2023-08-15 12:23:32.681924,-65.0
2023-08-15 12:23:32.689613,-45.0
2023-08-15 12:23:32.697302,-19.0
2023-08-15 12:23:32.704992,7.0
2023-08-15 12:23:32.712681,14.0
2023-08-15 12:23:32.720370,4.0
2023-08-15 12:23:32.728060,9.0
2023-08-15 12:23:32.735749,12.0
2023-08-15 12:23:32.743438,16.0
2023-08-15 12:23:32.751128,24.0
2023-08-15 12:23:32.758817,19.0
2023-08-15 12:23:32.766506,16.0
2023-08-15 12:23:32.774196,19.0
2023-08-15 12:23:32.781885,2.0
2023-08-15 12:23:32.789575,-14.0
2023-08-15 12:23:32.797264,-14.0
2023-08-15 12:23:32.804953,-14.0
2023-08-15 12:23:32.812643,-21.0
2023-08-15 12:23:32.820332,-16.0
2023-08-15 12:23:32.828021,-16.0
2023-08-15 12:23:32.835711,-33.0
2023-08-15 12:23:32.843400,-36.0
2023-08-15 12:23:32.851089,-9.0
2023-08-15 12:23:32.858779,9.0
2023-08-15 12:23:32.866468,-9.0
2023-08-15 12:23:32.874157,-28.0
2023-08-15 12:23:32.881847,-21.0
2023-08-15 12:23:32.889536,-19.0
2023-08-15 12:23:32.897226,-16.0
2023-08-15 12:23:32.904915,-16.0
2023-08-15 12:23:32.912604,-33.0
2023-08-15 12:23:32.920294,-31.0
2023-08-15 12:23:32.927983,-16.0
2023-08-15 12:23:32.935672,-28.0
2023-08-15 12:23:32.943362,-31.0
2023-08-15 12:23:32.951051,-16.0
2023-08-15 12:23:32.958740,-16.0
2023-08-15 12:23:32.966430,-21.0
2023-08-15 12:23:32.974119,-24.0
2023-08-15 12:23:32.981808,-48.0
2023-08-15 12:23:32.989498,-72.0
2023-08-15 12:23:32.997187,-74.0
2023-08-15 12:23:33.004877,-69.0
2023-08-15 12:23:33.012566,-86.0
2023-08-15 12:23:33.020255,-113.0
2023-08-15 12:23:33.027945,-91.0
2023-08-15 12:23:33.035634,-53.0
2023-08-15 12:23:33.043323,-48.0
2023-08-15 12:23:33.051013,-48.0
2023-08-15 12:23:33.058702,-16.0
2023-08-15 12:23:33.066391,7.0
2023-08-15 12:23:33.074081,0.0
2023-08-15 12:23:33.081770,-12.0
2023-08-15 12:23:33.089460,-4.0
2023-08-15 12:23:33.097149,0.0
2023-08-15 12:23:33.104838,-2.0
2023-08-15 12:23:33.112528,0.0
2023-08-15 12:23:33.120217,-7.0
2023-08-15 12:23:33.127906,-19.0
2023-08-15 12:23:33.135596,-82.0
2023-08-15 12:23:33.143285,-352.0
2023-08-15 12:23:33.150974,-873.0
2023-08-15 12:23:33.158664,-1269.0
2023-08-15 12:23:33.166353,-994.0
2023-08-15 12:23:33.174042,-130.0
2023-08-15 12:23:33.181732,451.0
2023-08-15 12:23:33.189421,294.0
2023-08-15 12:23:33.197111,9.0
2023-08-15 12:23:33.204800,67.0
2023-08-15 12:23:33.212489,130.0
2023-08-15 12:23:33.220179,57.0
2023-08-15 12:23:33.227868,53.0
2023-08-15 12:23:33.235557,77.0
2023-08-15 12:23:33.243247,36.0
2023-08-15 12:23:33.250936,12.0
2023-08-15 12:23:33.258625,33.0
2023-08-15 12:23:33.266315,36.0
2023-08-15 12:23:33.274004,12.0
2023-08-15 12:23:33.281693,-9.0
2023-08-15 12:23:33.289383,-21.0
2023-08-15 12:23:33.297072,-33.0
2023-08-15 12:23:33.304762,-45.0
2023-08-15 12:23:33.312451,-65.0
2023-08-15 12:23:33.320140,-86.0
2023-08-15 12:23:33.327830,-89.0
2023-08-15 12:23:33.335519,-101.0
2023-08-15 12:23:33.343208,-132.0
2023-08-15 12:23:33.350898,-152.0
2023-08-15 12:23:33.358587,-159.0
2023-08-15 12:23:33.366276,-168.0
2023-08-15 12:23:33.373966,-168.0
2023-08-15 12:23:33.381655,-164.0
2023-08-15 12:23:33.389344,-168.0
2023-08-15 12:23:33.397034,-171.0
2023-08-15 12:23:33.404723,-156.0
2023-08-15 12:23:33.412413,-130.0
2023-08-15 12:23:33.420102,-98.0
2023-08-15 12:23:33.427791,-74.0
2023-08-15 12:23:33.435481,-57.0
2023-08-15 12:23:33.443170,-31.0
2023-08-15 12:23:33.450859,2.0
2023-08-15 12:23:33.458549,19.0
2023-08-15 12:23:33.466238,14.0
2023-08-15 12:23:33.473927,9.0
2023-08-15 12:23:33.481617,19.0
2023-08-15 12:23:33.489306,24.0
2023-08-15 12:23:33.496996,12.0
2023-08-15 12:23:33.504685,0.0
2023-08-15 12:23:33.512374,9.0
2023-08-15 12:23:33.520064,14.0
2023-08-15 12:23:33.527753,-2.0
2023-08-15 12:23:33.535442,-12.0
2023-08-15 12:23:33.543132,-9.0
2023-08-15 12:23:33.550821,-12.0
2023-08-15 12:23:33.558510,-4.0
2023-08-15 12:23:33.566200,-7.0
2023-08-15 12:23:33.573889,-16.0
2023-08-15 12:23:33.581578,-9.0
2023-08-15 12:23:33.589268,-19.0
2023-08-15 12:23:33.596957,-41.0
2023-08-15 12:23:33.604647,-26.0
2023-08-15 12:23:33.612336,-9.0
2023-08-15 12:23:33.620025,-7.0
2023-08-15 12:23:33.627715,4.0
2023-08-15 12:23:33.635404,-2.0
2023-08-15 12:23:33.643093,-14.0
2023-08-15 12:23:33.650783,-4.0
2023-08-15 12:23:33.658472,-7.0
2023-08-15 12:23:33.666161,-19.0
2023-08-15 12:23:33.673851,-21.0
2023-08-15 12:23:33.681540,-36.0
2023-08-15 12:23:33.689229,-38.0
2023-08-15 12:23:33.696919,-19.0
2023-08-15 12:23:33.704608,-14.0
2023-08-15 12:23:33.712298,-21.0
2023-08-15 12:23:33.719987,-26.0
2023-08-15 12:23:33.727676,-50.0
2023-08-15 12:23:33.735366,-89.0
2023-08-15 12:23:33.743055,-96.0
2023-08-15 12:23:33.750744,-94.0
2023-08-15 12:23:33.758434,-108.0
2023-08-15 12:23:33.766123,-106.0
2023-08-15 12:23:33.773812,-84.0
2023-08-15 12:23:33.781502,-74.0
2023-08-15 12:23:33.789191,-57.0
2023-08-15 12:23:33.796880,-19.0
2023-08-15 12:23:33.804570,0.0
2023-08-15 12:23:33.812259,-4.0
2023-08-15 12:23:33.819949,-9.0
2023-08-15 12:23:33.827638,-4.0
2023-08-15 12:23:33.835327,-9.0
2023-08-15 12:23:33.843017,-21.0
2023-08-15 12:23:33.850706,-21.0
2023-08-15 12:23:33.858395,-14.0
2023-08-15 12:23:33.866085,-9.0
2023-08-15 12:23:33.873774,-43.0
2023-08-15 12:23:33.881463,-219.0
2023-08-15 12:23:33.889153,-641.0
2023-08-15 12:23:33.896842,-1122.0
2023-08-15 12:23:33.904532,-1150.0
2023-08-15 12:23:33.912221,-484.0
2023-08-15 12:23:33.919910,267.0
2023-08-15 12:23:33.927600,316.0
2023-08-15 12:23:33.935289,-9.0
2023-08-15 12:23:33.942978,-7.0
2023-08-15 12:23:33.950668,110.0
2023-08-15 12:23:33.958357,48.0
2023-08-15 12:23:33.966046,24.0
2023-08-15 12:23:33.973736,65.0
2023-08-15 12:23:33.981425,36.0
2023-08-15 12:23:33.989114,2.0
2023-08-15 12:23:33.996804,19.0
2023-08-15 12:23:34.004493,9.0
2023-08-15 12:23:34.012183,-19.0
2023-08-15 12:23:34.019872,-21.0
2023-08-15 12:23:34.027561,-31.0
2023-08-15 12:23:34.035251,-41.0
2023-08-15 12:23:34.042940,-36.0
2023-08-15 12:23:34.050629,-60.0
2023-08-15 12:23:34.058319,-86.0
2023-08-15 12:23:34.066008,-91.0
2023-08-15 12:23:34.073697,-103.0
2023-08-15 12:23:34.081387,-113.0
2023-08-15 12:23:34.089076,-118.0
2023-08-15 12:23:34.096765,-147.0
2023-08-15 12:23:34.104455,-173.0
2023-08-15 12:23:34.112144,-180.0
2023-08-15 12:23:34.119834,-178.0
2023-08-15 12:23:34.127523,-176.0
2023-08-15 12:23:34.135212,-173.0
2023-08-15 12:23:34.142902,-156.0
2023-08-15 12:23:34.150591,-127.0
2023-08-15 12:23:34.158280,-98.0
2023-08-15 12:23:34.165970,-77.0
2023-08-15 12:23:34.173659,-53.0
2023-08-15 12:23:34.181348,-28.0
2023-08-15 12:23:34.189038,-4.0
2023-08-15 12:23:34.196727,2.0
2023-08-15 12:23:34.204417,4.0
2023-08-15 12:23:34.212106,21.0
2023-08-15 12:23:34.219795,41.0
2023-08-15 12:23:34.227485,43.0
2023-08-15 12:23:34.235174,33.0
2023-08-15 12:23:34.242863,16.0
2023-08-15 12:23:34.250553,4.0
2023-08-15 12:23:34.258242,14.0
2023-08-15 12:23:34.265931,26.0
2023-08-15 12:23:34.273621,19.0
2023-08-15 12:23:34.281310,2.0
2023-08-15 12:23:34.288999,-2.0
2023-08-15 12:23:34.296689,4.0
2023-08-15 12:23:34.304378,9.0
2023-08-15 12:23:34.312068,2.0
2023-08-15 12:23:34.319757,-19.0
2023-08-15 12:23:34.327446,-21.0
2023-08-15 12:23:34.335136,-9.0
2023-08-15 12:23:34.342825,-14.0
2023-08-15 12:23:34.350514,-16.0
2023-08-15 12:23:34.358204,-16.0
2023-08-15 12:23:34.365893,-28.0
2023-08-15 12:23:34.373582,-33.0
2023-08-15 12:23:34.381272,-19.0
2023-08-15 12:23:34.388961,-14.0
2023-08-15 12:23:34.396650,-16.0
2023-08-15 12:23:34.404340,-12.0
2023-08-15 12:23:34.412029,-16.0
2023-08-15 12:23:34.419719,-26.0
2023-08-15 12:23:34.427408,-31.0
2023-08-15 12:23:34.435097,-36.0
2023-08-15 12:23:34.442787,-33.0
2023-08-15 12:23:34.450476,-26.0
2023-08-15 12:23:34.458165,-38.0
2023-08-15 12:23:34.465855,-55.0
2023-08-15 12:23:34.473544,-74.0
2023-08-15 12:23:34.481233,-94.0
2023-08-15 12:23:34.488923,-101.0
2023-08-15 12:23:34.496612,-106.0
2023-08-15 12:23:34.504301,-137.0
2023-08-15 12:23:34.511991,-171.0
2023-08-15 12:23:34.519680,-142.0
2023-08-15 12:23:34.527370,-79.0
2023-08-15 12:23:34.535059,-62.0
2023-08-15 12:23:34.542748,-72.0
2023-08-15 12:23:34.550438,-48.0
2023-08-15 12:23:34.558127,-16.0
2023-08-15 12:23:34.565816,-14.0
2023-08-15 12:23:34.573506,-21.0
2023-08-15 12:23:34.581195,-21.0
2023-08-15 12:23:34.588884,-21.0
2023-08-15 12:23:34.596574,-33.0
2023-08-15 12:23:34.604263,-45.0
2023-08-15 12:23:34.611953,-26.0
2023-08-15 12:23:34.619642,-7.0
2023-08-15 12:23:34.627331,-69.0
2023-08-15 12:23:34.635021,-313.0
2023-08-15 12:23:34.642710,-755.0
2023-08-15 12:23:34.650399,-1095.0
2023-08-15 12:23:34.658089,-878.0
2023-08-15 12:23:34.665778,-154.0
2023-08-15 12:23:34.673467,335.0
2023-08-15 12:23:34.681157,176.0
2023-08-15 12:23:34.688846,-53.0
2023-08-15 12:23:34.696535,38.0
2023-08-15 12:23:34.704225,101.0
2023-08-15 12:23:34.711914,36.0
2023-08-15 12:23:34.719604,36.0
2023-08-15 12:23:34.727293,55.0
2023-08-15 12:23:34.734982,28.0
2023-08-15 12:23:34.742672,12.0
2023-08-15 12:23:34.750361,9.0
2023-08-15 12:23:34.758050,-4.0
2023-08-15 12:23:34.765740,-14.0
2023-08-15 12:23:34.773429,-26.0
2023-08-15 12:23:34.781118,-24.0
2023-08-15 12:23:34.788808,-19.0
2023-08-15 12:23:34.796497,-50.0
2023-08-15 12:23:34.804186,-74.0
2023-08-15 12:23:34.811876,-86.0
2023-08-15 12:23:34.819565,-106.0
2023-08-15 12:23:34.827255,-108.0
2023-08-15 12:23:34.834944,-103.0
2023-08-15 12:23:34.842633,-130.0
2023-08-15 12:23:34.850323,-168.0
2023-08-15 12:23:34.858012,-168.0
2023-08-15 12:23:34.865701,-159.0
2023-08-15 12:23:34.873391,-173.0
2023-08-15 12:23:34.881080,-183.0
2023-08-15 12:23:34.888769,-176.0
2023-08-15 12:23:34.896459,-166.0
2023-08-15 12:23:34.904148,-144.0
2023-08-15 12:23:34.911837,-96.0
2023-08-15 12:23:34.919527,-50.0
2023-08-15 12:23:34.927216,-45.0
2023-08-15 12:23:34.934906,-38.0
2023-08-15 12:23:34.942595,-4.0
2023-08-15 12:23:34.950284,9.0
2023-08-15 12:23:34.957974,14.0
2023-08-15 12:23:34.965663,28.0
2023-08-15 12:23:34.973352,14.0
2023-08-15 12:23:34.981042,-7.0
2023-08-15 12:23:34.988731,4.0
2023-08-15 12:23:34.996420,7.0
2023-08-15 12:23:35.004110,-4.0
2023-08-15 12:23:35.011799,0.0
2023-08-15 12:23:35.019489,-7.0
2023-08-15 12:23:35.027178,-24.0
2023-08-15 12:23:35.034867,-21.0
2023-08-15 12:23:35.042557,-19.0
2023-08-15 12:23:35.050246,-16.0
2023-08-15 12:23:35.057935,-7.0
2023-08-15 12:23:35.065625,-16.0
2023-08-15 12:23:35.073314,-33.0
2023-08-15 12:23:35.081003,-26.0
2023-08-15 12:23:35.088693,-19.0
2023-08-15 12:23:35.096382,-26.0
2023-08-15 12:23:35.104071,-21.0
2023-08-15 12:23:35.111761,-21.0
2023-08-15 12:23:35.119450,-31.0
2023-08-15 12:23:35.127140,-24.0
2023-08-15 12:23:35.134829,-19.0
2023-08-15 12:23:35.142518,-14.0
2023-08-15 12:23:35.150208,-2.0
2023-08-15 12:23:35.157897,-14.0
2023-08-15 12:23:35.165586,-24.0
2023-08-15 12:23:35.173276,-14.0
2023-08-15 12:23:35.180965,-28.0
2023-08-15 12:23:35.188654,-28.0
2023-08-15 12:23:35.196344,-9.0
2023-08-15 12:23:35.204033,-16.0
2023-08-15 12:23:35.211722,-33.0
2023-08-15 12:23:35.219412,-45.0
2023-08-15 12:23:35.227101,-60.0
2023-08-15 12:23:35.234791,-82.0
2023-08-15 12:23:35.242480,-115.0
2023-08-15 12:23:35.250169,-137.0
2023-08-15 12:23:35.257859,-106.0
2023-08-15 12:23:35.265548,-65.0
2023-08-15 12:23:35.273237,-50.0
2023-08-15 12:23:35.280927,-43.0
2023-08-15 12:23:35.288616,-36.0
2023-08-15 12:23:35.296305,-36.0
2023-08-15 12:23:35.303995,-16.0
2023-08-15 12:23:35.311684,-2.0
2023-08-15 12:23:35.319373,-7.0
2023-08-15 12:23:35.327063,-7.0
2023-08-15 12:23:35.334752,-2.0
2023-08-15 12:23:35.342442,-2.0
2023-08-15 12:23:35.350131,-14.0
2023-08-15 12:23:35.357820,-21.0
2023-08-15 12:23:35.365510,-38.0
2023-08-15 12:23:35.373199,-164.0
2023-08-15 12:23:35.380888,-484.0
2023-08-15 12:23:35.388578,-897.0
2023-08-15 12:23:35.396267,-1018.0
2023-08-15 12:23:35.403956,-545.0
2023-08-15 12:23:35.411646,152.0
2023-08-15 12:23:35.419335,337.0
2023-08-15 12:23:35.427025,50.0
2023-08-15 12:23:35.434714,-36.0
2023-08-15 12:23:35.442403,89.0
2023-08-15 12:23:35.450093,65.0
2023-08-15 12:23:35.457782,12.0
2023-08-15 12:23:35.465471,48.0
2023-08-15 12:23:35.473161,48.0
2023-08-15 12:23:35.480850,4.0
2023-08-15 12:23:35.488539,0.0
2023-08-15 12:23:35.496229,0.0
2023-08-15 12:23:35.503918,-16.0
2023-08-15 12:23:35.511607,-21.0
2023-08-15 12:23:35.519297,-28.0
2023-08-15 12:23:35.526986,-50.0
2023-08-15 12:23:35.534676,-60.0
2023-08-15 12:23:35.542365,-55.0
2023-08-15 12:23:35.550054,-60.0
2023-08-15 12:23:35.557744,-82.0
2023-08-15 12:23:35.565433,-103.0
2023-08-15 12:23:35.573122,-120.0
2023-08-15 12:23:35.580812,-144.0
2023-08-15 12:23:35.588501,-154.0
2023-08-15 12:23:35.596190,-159.0
2023-08-15 12:23:35.603880,-176.0
2023-08-15 12:23:35.611569,-190.0
2023-08-15 12:23:35.619258,-188.0
2023-08-15 12:23:35.626948,-173.0
2023-08-15 12:23:35.634637,-154.0
2023-08-15 12:23:35.642327,-127.0
2023-08-15 12:23:35.650016,-110.0
2023-08-15 12:23:35.657705,-96.0
2023-08-15 12:23:35.665395,-57.0
2023-08-15 12:23:35.673084,-24.0
2023-08-15 12:23:35.680773,-19.0
2023-08-15 12:23:35.688463,-12.0
2023-08-15 12:23:35.696152,12.0
2023-08-15 12:23:35.703841,33.0
2023-08-15 12:23:35.711531,31.0
2023-08-15 12:23:35.719220,24.0
2023-08-15 12:23:35.726909,24.0
2023-08-15 12:23:35.734599,24.0
2023-08-15 12:23:35.742288,19.0
2023-08-15 12:23:35.749978,0.0
2023-08-15 12:23:35.757667,-14.0
2023-08-15 12:23:35.765356,-9.0
2023-08-15 12:23:35.773046,2.0
2023-08-15 12:23:35.780735,4.0
2023-08-15 12:23:35.788424,0.0
2023-08-15 12:23:35.796114,-7.0
2023-08-15 12:23:35.803803,-12.0
2023-08-15 12:23:35.811492,-7.0
2023-08-15 12:23:35.819182,2.0
2023-08-15 12:23:35.826871,0.0
2023-08-15 12:23:35.834561,-2.0
2023-08-15 12:23:35.842250,14.0
2023-08-15 12:23:35.849939,21.0
2023-08-15 12:23:35.857629,-7.0
2023-08-15 12:23:35.865318,-31.0
2023-08-15 12:23:35.873007,-21.0
2023-08-15 12:23:35.880697,-7.0
2023-08-15 12:23:35.888386,-7.0
2023-08-15 12:23:35.896075,-19.0
2023-08-15 12:23:35.903765,-26.0
2023-08-15 12:23:35.911454,-24.0
2023-08-15 12:23:35.919143,-19.0
2023-08-15 12:23:35.926833,-14.0
2023-08-15 12:23:35.934522,-19.0
2023-08-15 12:23:35.942212,-28.0
2023-08-15 12:23:35.949901,-31.0
2023-08-15 12:23:35.957590,-33.0
2023-08-15 12:23:35.965280,-55.0
2023-08-15 12:23:35.972969,-69.0
2023-08-15 12:23:35.980658,-91.0
2023-08-15 12:23:35.988348,-135.0
2023-08-15 12:23:35.996037,-123.0
2023-08-15 12:23:36.003726,-57.0
2023-08-15 12:23:36.011416,-36.0
2023-08-15 12:23:36.019105,-45.0
2023-08-15 12:23:36.026794,-26.0
2023-08-15 12:23:36.034484,-2.0
2023-08-15 12:23:36.042173,-4.0
2023-08-15 12:23:36.049863,-12.0
2023-08-15 12:23:36.057552,-16.0
2023-08-15 12:23:36.065241,-16.0
2023-08-15 12:23:36.072931,-7.0
2023-08-15 12:23:36.080620,-2.0
2023-08-15 12:23:36.088309,4.0
2023-08-15 12:23:36.095999,-7.0
2023-08-15 12:23:36.103688,-79.0
2023-08-15 12:23:36.111377,-253.0
2023-08-15 12:23:36.119067,-605.0
2023-08-15 12:23:36.126756,-1015.0
2023-08-15 12:23:36.134445,-1003.0
2023-08-15 12:23:36.142135,-359.0
2023-08-15 12:23:36.149824,304.0
2023-08-15 12:23:36.157514,308.0
2023-08-15 12:23:36.165203,-7.0
2023-08-15 12:23:36.172892,-16.0
2023-08-15 12:23:36.180582,94.0
2023-08-15 12:23:36.188271,43.0
2023-08-15 12:23:36.195960,0.0
2023-08-15 12:23:36.203650,31.0
2023-08-15 12:23:36.211339,33.0
2023-08-15 12:23:36.219028,2.0
2023-08-15 12:23:36.226718,-12.0
2023-08-15 12:23:36.234407,-4.0
2023-08-15 12:23:36.242097,-7.0
2023-08-15 12:23:36.249786,-16.0
2023-08-15 12:23:36.257475,-24.0
2023-08-15 12:23:36.265165,-43.0
2023-08-15 12:23:36.272854,-65.0
2023-08-15 12:23:36.280543,-72.0
2023-08-15 12:23:36.288233,-77.0
2023-08-15 12:23:36.295922,-72.0
2023-08-15 12:23:36.303611,-77.0
2023-08-15 12:23:36.311301,-115.0
2023-08-15 12:23:36.318990,-142.0
2023-08-15 12:23:36.326679,-130.0
2023-08-15 12:23:36.334369,-123.0
2023-08-15 12:23:36.342058,-154.0
2023-08-15 12:23:36.349748,-178.0
2023-08-15 12:23:36.357437,-171.0
2023-08-15 12:23:36.365126,-154.0
2023-08-15 12:23:36.372816,-149.0
2023-08-15 12:23:36.380505,-144.0
2023-08-15 12:23:36.388194,-106.0
2023-08-15 12:23:36.395884,-57.0
2023-08-15 12:23:36.403573,-45.0
2023-08-15 12:23:36.411262,-36.0
2023-08-15 12:23:36.418952,-14.0
2023-08-15 12:23:36.426641,-7.0
2023-08-15 12:23:36.434330,-2.0
2023-08-15 12:23:36.442020,19.0
2023-08-15 12:23:36.449709,38.0
2023-08-15 12:23:36.457399,50.0
2023-08-15 12:23:36.465088,43.0
2023-08-15 12:23:36.472777,2.0
2023-08-15 12:23:36.480467,0.0
2023-08-15 12:23:36.488156,26.0
2023-08-15 12:23:36.495845,7.0
2023-08-15 12:23:36.503535,-14.0
2023-08-15 12:23:36.511224,14.0
2023-08-15 12:23:36.518913,26.0
2023-08-15 12:23:36.526603,-14.0
2023-08-15 12:23:36.534292,-33.0
2023-08-15 12:23:36.541982,-9.0
2023-08-15 12:23:36.549671,4.0
2023-08-15 12:23:36.557360,4.0
2023-08-15 12:23:36.565050,12.0
2023-08-15 12:23:36.572739,19.0
2023-08-15 12:23:36.580428,7.0
2023-08-15 12:23:36.588118,-7.0
2023-08-15 12:23:36.595807,4.0
2023-08-15 12:23:36.603496,21.0
2023-08-15 12:23:36.611186,2.0
2023-08-15 12:23:36.618875,-4.0
2023-08-15 12:23:36.626564,9.0
2023-08-15 12:23:36.634254,2.0
2023-08-15 12:23:36.641943,-12.0
2023-08-15 12:23:36.649633,-12.0
2023-08-15 12:23:36.657322,-12.0
2023-08-15 12:23:36.665011,-14.0
2023-08-15 12:23:36.672701,-14.0
2023-08-15 12:23:36.680390,-24.0
2023-08-15 12:23:36.688079,-50.0
2023-08-15 12:23:36.695769,-77.0
2023-08-15 12:23:36.703458,-84.0
2023-08-15 12:23:36.711147,-96.0
2023-08-15 12:23:36.718837,-120.0
2023-08-15 12:23:36.726526,-108.0
2023-08-15 12:23:36.734215,-60.0
2023-08-15 12:23:36.741905,-45.0
2023-08-15 12:23:36.749594,-53.0
2023-08-15 12:23:36.757284,-9.0
2023-08-15 12:23:36.764973,16.0
2023-08-15 12:23:36.772662,-19.0
2023-08-15 12:23:36.780352,-21.0
2023-08-15 12:23:36.788041,9.0
2023-08-15 12:23:36.795730,-2.0
2023-08-15 12:23:36.803420,-26.0
2023-08-15 12:23:36.811109,-16.0
2023-08-15 12:23:36.818798,-9.0
2023-08-15 12:23:36.826488,-14.0
2023-08-15 12:23:36.834177,-31.0
2023-08-15 12:23:36.841866,-171.0
2023-08-15 12:23:36.849556,-554.0
2023-08-15 12:23:36.857245,-1052.0
2023-08-15 12:23:36.864935,-1204.0
2023-08-15 12:23:36.872624,-658.0
2023-08-15 12:23:36.880313,173.0
2023-08-15 12:23:36.888003,424.0
2023-08-15 12:23:36.895692,96.0
2023-08-15 12:23:36.903381,-24.0
2023-08-15 12:23:36.911071,106.0
2023-08-15 12:23:36.918760,77.0
2023-08-15 12:23:36.926449,12.0
2023-08-15 12:23:36.934139,53.0
2023-08-15 12:23:36.941828,62.0
2023-08-15 12:23:36.949518,21.0
2023-08-15 12:23:36.957207,7.0
2023-08-15 12:23:36.964896,7.0
2023-08-15 12:23:36.972586,4.0
2023-08-15 12:23:36.980275,0.0
2023-08-15 12:23:36.987964,-28.0
2023-08-15 12:23:36.995654,-53.0
2023-08-15 12:23:37.003343,-45.0
2023-08-15 12:23:37.011032,-45.0
2023-08-15 12:23:37.018722,-67.0
2023-08-15 12:23:37.026411,-67.0
2023-08-15 12:23:37.034100,-69.0
2023-08-15 12:23:37.041790,-98.0
2023-08-15 12:23:37.049479,-115.0
2023-08-15 12:23:37.057169,-125.0
2023-08-15 12:23:37.064858,-137.0
2023-08-15 12:23:37.072547,-147.0
2023-08-15 12:23:37.080237,-152.0
2023-08-15 12:23:37.087926,-154.0
2023-08-15 12:23:37.095615,-144.0
2023-08-15 12:23:37.103305,-120.0
2023-08-15 12:23:37.110994,-94.0
2023-08-15 12:23:37.118683,-79.0
2023-08-15 12:23:37.126373,-74.0
2023-08-15 12:23:37.134062,-50.0
2023-08-15 12:23:37.141751,-24.0
2023-08-15 12:23:37.149441,-4.0
2023-08-15 12:23:37.157130,12.0
2023-08-15 12:23:37.164820,28.0
2023-08-15 12:23:37.172509,41.0
2023-08-15 12:23:37.180198,36.0
2023-08-15 12:23:37.187888,12.0
2023-08-15 12:23:37.195577,7.0
2023-08-15 12:23:37.203266,19.0
2023-08-15 12:23:37.210956,28.0
2023-08-15 12:23:37.218645,26.0
2023-08-15 12:23:37.226334,12.0
2023-08-15 12:23:37.234024,2.0
2023-08-15 12:23:37.241713,2.0
2023-08-15 12:23:37.249402,14.0
2023-08-15 12:23:37.257092,19.0
2023-08-15 12:23:37.264781,4.0
2023-08-15 12:23:37.272471,-12.0
2023-08-15 12:23:37.280160,-19.0
2023-08-15 12:23:37.287849,-9.0
2023-08-15 12:23:37.295539,-2.0
2023-08-15 12:23:37.303228,-7.0
2023-08-15 12:23:37.310917,-7.0
2023-08-15 12:23:37.318607,-9.0
2023-08-15 12:23:37.326296,-21.0
2023-08-15 12:23:37.333985,-12.0
2023-08-15 12:23:37.341675,7.0
2023-08-15 12:23:37.349364,0.0
2023-08-15 12:23:37.357054,-9.0
2023-08-15 12:23:37.364743,-2.0
2023-08-15 12:23:37.372432,-9.0
2023-08-15 12:23:37.380122,-26.0
2023-08-15 12:23:37.387811,-24.0
2023-08-15 12:23:37.395500,-24.0
2023-08-15 12:23:37.403190,-36.0
2023-08-15 12:23:37.410879,-31.0
2023-08-15 12:23:37.418568,-31.0
2023-08-15 12:23:37.426258,-60.0
2023-08-15 12:23:37.433947,-84.0
2023-08-15 12:23:37.441636,-106.0
2023-08-15 12:23:37.449326,-120.0
2023-08-15 12:23:37.457015,-98.0
2023-08-15 12:23:37.464705,-55.0
2023-08-15 12:23:37.472394,-31.0
2023-08-15 12:23:37.480083,-33.0
2023-08-15 12:23:37.487773,-31.0
2023-08-15 12:23:37.495462,-9.0
2023-08-15 12:23:37.503151,4.0
2023-08-15 12:23:37.510841,-2.0
2023-08-15 12:23:37.518530,-14.0
2023-08-15 12:23:37.526219,-14.0
2023-08-15 12:23:37.533909,-4.0
2023-08-15 12:23:37.541598,2.0
2023-08-15 12:23:37.549287,-4.0
2023-08-15 12:23:37.556977,-9.0
2023-08-15 12:23:37.564666,-41.0
2023-08-15 12:23:37.572356,-205.0
2023-08-15 12:23:37.580045,-593.0
2023-08-15 12:23:37.587734,-1073.0
2023-08-15 12:23:37.595424,-1148.0
2023-08-15 12:23:37.603113,-530.0
2023-08-15 12:23:37.610802,236.0
2023-08-15 12:23:37.618492,349.0
2023-08-15 12:23:37.626181,19.0
2023-08-15 12:23:37.633870,-14.0
2023-08-15 12:23:37.641560,125.0
2023-08-15 12:23:37.649249,72.0
2023-08-15 12:23:37.656938,19.0
2023-08-15 12:23:37.664628,62.0
2023-08-15 12:23:37.672317,53.0
2023-08-15 12:23:37.680007,14.0
2023-08-15 12:23:37.687696,12.0
2023-08-15 12:23:37.695385,14.0
2023-08-15 12:23:37.703075,-9.0
2023-08-15 12:23:37.710764,-24.0
2023-08-15 12:23:37.718453,-21.0
2023-08-15 12:23:37.726143,-28.0
2023-08-15 12:23:37.733832,-45.0
2023-08-15 12:23:37.741521,-55.0
2023-08-15 12:23:37.749211,-65.0
2023-08-15 12:23:37.756900,-84.0
2023-08-15 12:23:37.764590,-101.0
2023-08-15 12:23:37.772279,-115.0
2023-08-15 12:23:37.779968,-132.0
2023-08-15 12:23:37.787658,-139.0
2023-08-15 12:23:37.795347,-147.0
2023-08-15 12:23:37.803036,-164.0
2023-08-15 12:23:37.810726,-176.0
2023-08-15 12:23:37.818415,-171.0
2023-08-15 12:23:37.826104,-164.0
2023-08-15 12:23:37.833794,-154.0
2023-08-15 12:23:37.841483,-125.0
2023-08-15 12:23:37.849172,-96.0
2023-08-15 12:23:37.856862,-72.0
2023-08-15 12:23:37.864551,-45.0
2023-08-15 12:23:37.872241,-21.0
2023-08-15 12:23:37.879930,-16.0
2023-08-15 12:23:37.887619,-14.0
2023-08-15 12:23:37.895309,7.0
2023-08-15 12:23:37.902998,19.0
2023-08-15 12:23:37.910687,9.0
2023-08-15 12:23:37.918377,2.0
2023-08-15 12:23:37.926066,7.0
2023-08-15 12:23:37.933755,9.0
2023-08-15 12:23:37.941445,0.0
2023-08-15 12:23:37.949134,-4.0
2023-08-15 12:23:37.956823,-2.0
2023-08-15 12:23:37.964513,2.0
2023-08-15 12:23:37.972202,-2.0
2023-08-15 12:23:37.979892,-14.0
2023-08-15 12:23:37.987581,-26.0
2023-08-15 12:23:37.995270,-19.0
2023-08-15 12:23:38.002960,-14.0
2023-08-15 12:23:38.010649,-14.0
2023-08-15 12:23:38.018338,-12.0
2023-08-15 12:23:38.026028,-16.0
2023-08-15 12:23:38.033717,-16.0
2023-08-15 12:23:38.041406,-16.0
2023-08-15 12:23:38.049096,-19.0
2023-08-15 12:23:38.056785,-12.0
2023-08-15 12:23:38.064474,-4.0
2023-08-15 12:23:38.072164,-12.0
2023-08-15 12:23:38.079853,-14.0
2023-08-15 12:23:38.087543,-12.0
2023-08-15 12:23:38.095232,-19.0
2023-08-15 12:23:38.102921,-16.0
2023-08-15 12:23:38.110611,0.0
2023-08-15 12:23:38.118300,0.0
2023-08-15 12:23:38.125989,-19.0
2023-08-15 12:23:38.133679,-19.0
2023-08-15 12:23:38.141368,-4.0
2023-08-15 12:23:38.149057,2.0
2023-08-15 12:23:38.156747,-19.0
2023-08-15 12:23:38.164436,-41.0
2023-08-15 12:23:38.172126,-36.0
2023-08-15 12:23:38.179815,-33.0
2023-08-15 12:23:38.187504,-50.0
2023-08-15 12:23:38.195194,-74.0
2023-08-15 12:23:38.202883,-98.0
2023-08-15 12:23:38.210572,-120.0
2023-08-15 12:23:38.218262,-120.0
2023-08-15 12:23:38.225951,-72.0
2023-08-15 12:23:38.233640,-28.0
2023-08-15 12:23:38.241330,-33.0
2023-08-15 12:23:38.249019,-33.0
2023-08-15 12:23:38.256708,-9.0
2023-08-15 12:23:38.264398,4.0
2023-08-15 12:23:38.272087,0.0
2023-08-15 12:23:38.279777,0.0
2023-08-15 12:23:38.287466,-2.0
2023-08-15 12:23:38.295155,-9.0
2023-08-15 12:23:38.302845,-16.0
2023-08-15 12:23:38.310534,-14.0
2023-08-15 12:23:38.318223,-7.0
2023-08-15 12:23:38.325913,-4.0
2023-08-15 12:23:38.333602,-69.0
2023-08-15 12:23:38.341291,-323.0
2023-08-15 12:23:38.348981,-769.0
2023-08-15 12:23:38.356670,-1097.0
2023-08-15 12:23:38.364359,-885.0
2023-08-15 12:23:38.372049,-164.0
2023-08-15 12:23:38.379738,332.0
2023-08-15 12:23:38.387428,161.0
2023-08-15 12:23:38.395117,-79.0
2023-08-15 12:23:38.402806,21.0
2023-08-15 12:23:38.410496,89.0
2023-08-15 12:23:38.418185,14.0
2023-08-15 12:23:38.425874,16.0
2023-08-15 12:23:38.433564,43.0
2023-08-15 12:23:38.441253,-9.0
2023-08-15 12:23:38.448942,-36.0
2023-08-15 12:23:38.456632,0.0
2023-08-15 12:23:38.464321,-7.0
2023-08-15 12:23:38.472010,-50.0
2023-08-15 12:23:38.479700,-60.0
2023-08-15 12:23:38.487389,-48.0
2023-08-15 12:23:38.495079,-55.0
2023-08-15 12:23:38.502768,-72.0
2023-08-15 12:23:38.510457,-79.0
2023-08-15 12:23:38.518147,-82.0
2023-08-15 12:23:38.525836,-98.0
2023-08-15 12:23:38.533525,-118.0
2023-08-15 12:23:38.541215,-132.0
2023-08-15 12:23:38.548904,-149.0
2023-08-15 12:23:38.556593,-168.0
2023-08-15 12:23:38.564283,-178.0
2023-08-15 12:23:38.571972,-180.0
2023-08-15 12:23:38.579662,-193.0
2023-08-15 12:23:38.587351,-197.0
2023-08-15 12:23:38.595040,-178.0
2023-08-15 12:23:38.602730,-159.0
2023-08-15 12:23:38.610419,-132.0
2023-08-15 12:23:38.618108,-96.0
2023-08-15 12:23:38.625798,-67.0
2023-08-15 12:23:38.633487,-43.0
2023-08-15 12:23:38.641176,-21.0
2023-08-15 12:23:38.648866,-9.0
2023-08-15 12:23:38.656555,2.0
2023-08-15 12:23:38.664244,14.0
2023-08-15 12:23:38.671934,12.0
2023-08-15 12:23:38.679623,12.0
2023-08-15 12:23:38.687313,24.0
2023-08-15 12:23:38.695002,26.0
2023-08-15 12:23:38.702691,21.0
2023-08-15 12:23:38.710381,19.0
2023-08-15 12:23:38.718070,19.0
2023-08-15 12:23:38.725759,19.0
2023-08-15 12:23:38.733449,7.0
2023-08-15 12:23:38.741138,-9.0
2023-08-15 12:23:38.748827,-7.0
2023-08-15 12:23:38.756517,2.0
2023-08-15 12:23:38.764206,-2.0
2023-08-15 12:23:38.771895,-2.0
2023-08-15 12:23:38.779585,0.0
2023-08-15 12:23:38.787274,-4.0
2023-08-15 12:23:38.794964,-4.0
2023-08-15 12:23:38.802653,-4.0
2023-08-15 12:23:38.810342,-7.0
2023-08-15 12:23:38.818032,-4.0
2023-08-15 12:23:38.825721,2.0
2023-08-15 12:23:38.833410,4.0
2023-08-15 12:23:38.841100,0.0
2023-08-15 12:23:38.848789,-4.0
2023-08-15 12:23:38.856478,0.0
2023-08-15 12:23:38.864168,7.0
2023-08-15 12:23:38.871857,-2.0
2023-08-15 12:23:38.879547,-19.0
2023-08-15 12:23:38.887236,-19.0
2023-08-15 12:23:38.894925,-16.0
2023-08-15 12:23:38.902615,-24.0
2023-08-15 12:23:38.910304,-24.0
2023-08-15 12:23:38.917993,-16.0
2023-08-15 12:23:38.925683,-24.0
2023-08-15 12:23:38.933372,-28.0
2023-08-15 12:23:38.941061,-19.0
2023-08-15 12:23:38.948751,-19.0
2023-08-15 12:23:38.956440,-36.0
2023-08-15 12:23:38.964129,-48.0
2023-08-15 12:23:38.971819,-57.0
2023-08-15 12:23:38.979508,-77.0
2023-08-15 12:23:38.987198,-101.0
2023-08-15 12:23:38.994887,-120.0
2023-08-15 12:23:39.002576,-127.0
2023-08-15 12:23:39.010266,-125.0
2023-08-15 12:23:39.017955,-98.0
2023-08-15 12:23:39.025644,-67.0
2023-08-15 12:23:39.033334,-69.0
2023-08-15 12:23:39.041023,-77.0
2023-08-15 12:23:39.048712,-41.0
2023-08-15 12:23:39.056402,-9.0
2023-08-15 12:23:39.064091,-19.0
2023-08-15 12:23:39.071780,-33.0
2023-08-15 12:23:39.079470,-31.0
2023-08-15 12:23:39.087159,-33.0
2023-08-15 12:23:39.094849,-43.0
2023-08-15 12:23:39.102538,-38.0
2023-08-15 12:23:39.110227,-50.0
2023-08-15 12:23:39.117917,-55.0
2023-08-15 12:23:39.125606,-67.0
2023-08-15 12:23:39.133295,-229.0
2023-08-15 12:23:39.140985,-605.0
2023-08-15 12:23:39.148674,-1006.0
2023-08-15 12:23:39.156363,-1020.0
2023-08-15 12:23:39.164053,-441.0
2023-08-15 12:23:39.171742,197.0
2023-08-15 12:23:39.179431,229.0
2023-08-15 12:23:39.187121,-53.0
2023-08-15 12:23:39.194810,-36.0
2023-08-15 12:23:39.202500,74.0
2023-08-15 12:23:39.210189,4.0
2023-08-15 12:23:39.217878,-26.0
2023-08-15 12:23:39.225568,16.0
2023-08-15 12:23:39.233257,-7.0
2023-08-15 12:23:39.240946,-33.0
2023-08-15 12:23:39.248636,-9.0
2023-08-15 12:23:39.256325,-16.0
2023-08-15 12:23:39.264014,-53.0
2023-08-15 12:23:39.271704,-41.0
2023-08-15 12:23:39.279393,-21.0
2023-08-15 12:23:39.287083,-41.0
2023-08-15 12:23:39.294772,-74.0
2023-08-15 12:23:39.302461,-91.0
2023-08-15 12:23:39.310151,-91.0
2023-08-15 12:23:39.317840,-96.0
2023-08-15 12:23:39.325529,-108.0
2023-08-15 12:23:39.333219,-127.0
2023-08-15 12:23:39.340908,-132.0
2023-08-15 12:23:39.348597,-144.0
2023-08-15 12:23:39.356287,-178.0
2023-08-15 12:23:39.363976,-193.0
2023-08-15 12:23:39.371665,-185.0
2023-08-15 12:23:39.379355,-176.0
2023-08-15 12:23:39.387044,-161.0
2023-08-15 12:23:39.394734,-161.0
2023-08-15 12:23:39.402423,-147.0
2023-08-15 12:23:39.410112,-96.0
2023-08-15 12:23:39.417802,-69.0
2023-08-15 12:23:39.425491,-69.0
2023-08-15 12:23:39.433180,-43.0
2023-08-15 12:23:39.440870,-12.0
2023-08-15 12:23:39.448559,-7.0
2023-08-15 12:23:39.456248,-7.0
2023-08-15 12:23:39.463938,9.0
2023-08-15 12:23:39.471627,9.0
2023-08-15 12:23:39.479316,-14.0
2023-08-15 12:23:39.487006,-14.0
2023-08-15 12:23:39.494695,4.0
2023-08-15 12:23:39.502385,2.0
2023-08-15 12:23:39.510074,-9.0
2023-08-15 12:23:39.517763,-7.0
2023-08-15 12:23:39.525453,-12.0
2023-08-15 12:23:39.533142,-21.0
2023-08-15 12:23:39.540831,-12.0
2023-08-15 12:23:39.548521,-4.0
2023-08-15 12:23:39.556210,-9.0
2023-08-15 12:23:39.563899,-12.0
2023-08-15 12:23:39.571589,-12.0
2023-08-15 12:23:39.579278,-9.0
2023-08-15 12:23:39.586967,-12.0
2023-08-15 12:23:39.594657,-19.0
2023-08-15 12:23:39.602346,-12.0
2023-08-15 12:23:39.610036,-2.0
2023-08-15 12:23:39.617725,-7.0
2023-08-15 12:23:39.625414,-16.0
2023-08-15 12:23:39.633104,-31.0
2023-08-15 12:23:39.640793,-33.0
2023-08-15 12:23:39.648482,-12.0
2023-08-15 12:23:39.656172,-4.0
2023-08-15 12:23:39.663861,-16.0
2023-08-15 12:23:39.671550,-14.0
2023-08-15 12:23:39.679240,-9.0
2023-08-15 12:23:39.686929,-14.0
2023-08-15 12:23:39.694619,-9.0
2023-08-15 12:23:39.702308,-19.0
2023-08-15 12:23:39.709997,-33.0
2023-08-15 12:23:39.717687,-33.0
2023-08-15 12:23:39.725376,-31.0
2023-08-15 12:23:39.733065,-26.0
2023-08-15 12:23:39.740755,-21.0
2023-08-15 12:23:39.748444,-24.0
2023-08-15 12:23:39.756133,-26.0
2023-08-15 12:23:39.763823,-28.0
2023-08-15 12:23:39.771512,-43.0
2023-08-15 12:23:39.779201,-72.0
2023-08-15 12:23:39.786891,-89.0
2023-08-15 12:23:39.794580,-91.0
2023-08-15 12:23:39.802270,-101.0
2023-08-15 12:23:39.809959,-120.0
2023-08-15 12:23:39.817648,-130.0
2023-08-15 12:23:39.825338,-103.0
2023-08-15 12:23:39.833027,-60.0
2023-08-15 12:23:39.840716,-33.0
2023-08-15 12:23:39.848406,-26.0
2023-08-15 12:23:39.856095,-12.0
2023-08-15 12:23:39.863784,-12.0
2023-08-15 12:23:39.871474,-26.0
2023-08-15 12:23:39.879163,-21.0
2023-08-15 12:23:39.886852,2.0
2023-08-15 12:23:39.894542,-2.0
2023-08-15 12:23:39.902231,-31.0
2023-08-15 12:23:39.909921,-24.0
2023-08-15 12:23:39.917610,0.0
2023-08-15 12:23:39.925299,-26.0
2023-08-15 12:23:39.932989,-135.0
2023-08-15 12:23:39.940678,-419.0
2023-08-15 12:23:39.948367,-859.0
2023-08-15 12:23:39.956057,-1100.0
2023-08-15 12:23:39.963746,-745.0
2023-08-15 12:23:39.971435,12.0
2023-08-15 12:23:39.979125,369.0
2023-08-15 12:23:39.986814,101.0
2023-08-15 12:23:39.994503,-65.0
2023-08-15 12:23:40.002193,65.0
2023-08-15 12:23:40.009882,86.0
2023-08-15 12:23:40.017572,26.0
2023-08-15 12:23:40.025261,41.0
2023-08-15 12:23:40.032950,43.0
2023-08-15 12:23:40.040640,12.0
2023-08-15 12:23:40.048329,0.0
2023-08-15 12:23:40.056018,-2.0
2023-08-15 12:23:40.063708,-19.0
2023-08-15 12:23:40.071397,-41.0
2023-08-15 12:23:40.079086,-33.0
2023-08-15 12:23:40.086776,-26.0
2023-08-15 12:23:40.094465,-55.0
2023-08-15 12:23:40.102155,-77.0
2023-08-15 12:23:40.109844,-86.0
2023-08-15 12:23:40.117533,-103.0
2023-08-15 12:23:40.125223,-103.0
2023-08-15 12:23:40.132912,-115.0
2023-08-15 12:23:40.140601,-147.0
2023-08-15 12:23:40.148291,-156.0
2023-08-15 12:23:40.155980,-152.0
2023-08-15 12:23:40.163669,-166.0
2023-08-15 12:23:40.171359,-200.0
2023-08-15 12:23:40.179048,-205.0
2023-08-15 12:23:40.186737,-171.0
2023-08-15 12:23:40.194427,-159.0
2023-08-15 12:23:40.202116,-171.0
2023-08-15 12:23:40.209806,-152.0
2023-08-15 12:23:40.217495,-108.0
2023-08-15 12:23:40.225184,-69.0
2023-08-15 12:23:40.232874,-43.0
2023-08-15 12:23:40.240563,-53.0
2023-08-15 12:23:40.248252,-67.0
2023-08-15 12:23:40.255942,-31.0
2023-08-15 12:23:40.263631,-7.0
2023-08-15 12:23:40.271320,-21.0
2023-08-15 12:23:40.279010,-16.0
2023-08-15 12:23:40.286699,-4.0
2023-08-15 12:23:40.294388,-7.0
2023-08-15 12:23:40.302078,-4.0
2023-08-15 12:23:40.309767,-9.0
2023-08-15 12:23:40.317457,-28.0
2023-08-15 12:23:40.325146,-36.0
2023-08-15 12:23:40.332835,-26.0
2023-08-15 12:23:40.340525,-16.0
2023-08-15 12:23:40.348214,-12.0
2023-08-15 12:23:40.355903,-9.0
2023-08-15 12:23:40.363593,-14.0
2023-08-15 12:23:40.371282,-19.0
2023-08-15 12:23:40.378971,-16.0
2023-08-15 12:23:40.386661,-12.0
2023-08-15 12:23:40.394350,-16.0
2023-08-15 12:23:40.402039,-28.0
2023-08-15 12:23:40.409729,-36.0
2023-08-15 12:23:40.417418,-28.0
2023-08-15 12:23:40.425108,-19.0
2023-08-15 12:23:40.432797,-24.0
2023-08-15 12:23:40.440486,-31.0
2023-08-15 12:23:40.448176,-28.0
2023-08-15 12:23:40.455865,-24.0
2023-08-15 12:23:40.463554,-24.0
2023-08-15 12:23:40.471244,-26.0
2023-08-15 12:23:40.478933,-24.0
2023-08-15 12:23:40.486622,-21.0
2023-08-15 12:23:40.494312,-31.0
2023-08-15 12:23:40.502001,-36.0
2023-08-15 12:23:40.509691,-28.0
2023-08-15 12:23:40.517380,-21.0
2023-08-15 12:23:40.525069,-36.0
2023-08-15 12:23:40.532759,-48.0
2023-08-15 12:23:40.540448,-41.0
2023-08-15 12:23:40.548137,-36.0
2023-08-15 12:23:40.555827,-48.0
2023-08-15 12:23:40.563516,-57.0
2023-08-15 12:23:40.571205,-57.0
2023-08-15 12:23:40.578895,-72.0
2023-08-15 12:23:40.586584,-108.0
2023-08-15 12:23:40.594273,-142.0
2023-08-15 12:23:40.601963,-139.0
2023-08-15 12:23:40.609652,-86.0
2023-08-15 12:23:40.617342,-45.0
2023-08-15 12:23:40.625031,-50.0
2023-08-15 12:23:40.632720,-43.0
2023-08-15 12:23:40.640410,-9.0
2023-08-15 12:23:40.648099,-14.0
2023-08-15 12:23:40.655788,-41.0
2023-08-15 12:23:40.663478,-24.0
2023-08-15 12:23:40.671167,-2.0
2023-08-15 12:23:40.678856,-36.0
2023-08-15 12:23:40.686546,-60.0
2023-08-15 12:23:40.694235,-43.0
2023-08-15 12:23:40.701924,-41.0
2023-08-15 12:23:40.709614,-62.0
2023-08-15 12:23:40.717303,-195.0
2023-08-15 12:23:40.724993,-579.0
2023-08-15 12:23:40.732682,-1068.0
2023-08-15 12:23:40.740371,-1134.0
2023-08-15 12:23:40.748061,-504.0
2023-08-15 12:23:40.755750,231.0
2023-08-15 12:23:40.763439,323.0
2023-08-15 12:23:40.771129,12.0
2023-08-15 12:23:40.778818,-19.0
2023-08-15 12:23:40.786507,101.0
2023-08-15 12:23:40.794197,65.0
2023-08-15 12:23:40.801886,36.0
2023-08-15 12:23:40.809576,69.0
2023-08-15 12:23:40.817265,43.0
2023-08-15 12:23:40.824954,4.0
2023-08-15 12:23:40.832644,16.0
2023-08-15 12:23:40.840333,14.0
2023-08-15 12:23:40.848022,2.0
2023-08-15 12:23:40.855712,4.0
2023-08-15 12:23:40.863401,-14.0
2023-08-15 12:23:40.871090,-41.0
2023-08-15 12:23:40.878780,-45.0
2023-08-15 12:23:40.886469,-48.0
2023-08-15 12:23:40.894158,-53.0
2023-08-15 12:23:40.901848,-53.0
2023-08-15 12:23:40.909537,-69.0
2023-08-15 12:23:40.917227,-98.0
2023-08-15 12:23:40.924916,-120.0
2023-08-15 12:23:40.932605,-132.0
2023-08-15 12:23:40.940295,-142.0
2023-08-15 12:23:40.947984,-152.0
2023-08-15 12:23:40.955673,-161.0
2023-08-15 12:23:40.963363,-159.0
2023-08-15 12:23:40.971052,-139.0
2023-08-15 12:23:40.978741,-110.0
2023-08-15 12:23:40.986431,-89.0
2023-08-15 12:23:40.994120,-77.0
2023-08-15 12:23:41.001809,-57.0
2023-08-15 12:23:41.009499,-38.0
2023-08-15 12:23:41.017188,-21.0
2023-08-15 12:23:41.024878,0.0
2023-08-15 12:23:41.032567,16.0
2023-08-15 12:23:41.040256,21.0
2023-08-15 12:23:41.047946,28.0
2023-08-15 12:23:41.055635,28.0
2023-08-15 12:23:41.063324,16.0
2023-08-15 12:23:41.071014,16.0
2023-08-15 12:23:41.078703,24.0
2023-08-15 12:23:41.086392,24.0
2023-08-15 12:23:41.094082,4.0
2023-08-15 12:23:41.101771,-12.0
2023-08-15 12:23:41.109460,-4.0
2023-08-15 12:23:41.117150,-2.0
2023-08-15 12:23:41.124839,-7.0
2023-08-15 12:23:41.132529,2.0
2023-08-15 12:23:41.140218,4.0
2023-08-15 12:23:41.147907,-12.0
2023-08-15 12:23:41.155597,-19.0
2023-08-15 12:23:41.163286,-9.0
2023-08-15 12:23:41.170975,-4.0
2023-08-15 12:23:41.178665,-2.0
2023-08-15 12:23:41.186354,-4.0
2023-08-15 12:23:41.194043,-24.0
2023-08-15 12:23:41.201733,-38.0
2023-08-15 12:23:41.209422,-21.0
2023-08-15 12:23:41.217112,-7.0
2023-08-15 12:23:41.224801,-21.0
2023-08-15 12:23:41.232490,-31.0
2023-08-15 12:23:41.240180,-16.0
2023-08-15 12:23:41.247869,-12.0
2023-08-15 12:23:41.255558,-31.0
2023-08-15 12:23:41.263248,-45.0
2023-08-15 12:23:41.270937,-43.0
2023-08-15 12:23:41.278626,-31.0
2023-08-15 12:23:41.286316,-24.0
2023-08-15 12:23:41.294005,-24.0
2023-08-15 12:23:41.301694,-36.0
2023-08-15 12:23:41.309384,-41.0
2023-08-15 12:23:41.317073,-26.0
2023-08-15 12:23:41.324763,-14.0
2023-08-15 12:23:41.332452,-28.0
2023-08-15 12:23:41.340141,-48.0
2023-08-15 12:23:41.347831,-53.0
2023-08-15 12:23:41.355520,-45.0
2023-08-15 12:23:41.363209,-48.0
2023-08-15 12:23:41.370899,-82.0
2023-08-15 12:23:41.378588,-123.0
2023-08-15 12:23:41.386277,-130.0
2023-08-15 12:23:41.393967,-110.0
2023-08-15 12:23:41.401656,-72.0
2023-08-15 12:23:41.409345,-38.0
2023-08-15 12:23:41.417035,-31.0
2023-08-15 12:23:41.424724,-19.0
2023-08-15 12:23:41.432414,9.0
2023-08-15 12:23:41.440103,7.0
2023-08-15 12:23:41.447792,-12.0
2023-08-15 12:23:41.455482,-7.0
2023-08-15 12:23:41.463171,-2.0
2023-08-15 12:23:41.470860,0.0
2023-08-15 12:23:41.478550,2.0
2023-08-15 12:23:41.486239,4.0
2023-08-15 12:23:41.493928,9.0
2023-08-15 12:23:41.501618,-26.0
2023-08-15 12:23:41.509307,-205.0
2023-08-15 12:23:41.516996,-586.0
2023-08-15 12:23:41.524686,-1008.0
2023-08-15 12:23:41.532375,-1018.0
2023-08-15 12:23:41.540065,-398.0
2023-08-15 12:23:41.547754,289.0
2023-08-15 12:23:41.555443,335.0
2023-08-15 12:23:41.563133,16.0
2023-08-15 12:23:41.570822,-4.0
2023-08-15 12:23:41.578511,123.0
2023-08-15 12:23:41.586201,82.0
2023-08-15 12:23:41.593890,33.0
2023-08-15 12:23:41.601579,48.0
2023-08-15 12:23:41.609269,38.0
2023-08-15 12:23:41.616958,26.0
2023-08-15 12:23:41.624648,21.0
2023-08-15 12:23:41.632337,-2.0
2023-08-15 12:23:41.640026,-16.0
2023-08-15 12:23:41.647716,-16.0
2023-08-15 12:23:41.655405,-21.0
2023-08-15 12:23:41.663094,-26.0
2023-08-15 12:23:41.670784,-33.0
2023-08-15 12:23:41.678473,-55.0
2023-08-15 12:23:41.686162,-74.0
2023-08-15 12:23:41.693852,-79.0
2023-08-15 12:23:41.701541,-89.0
2023-08-15 12:23:41.709230,-106.0
2023-08-15 12:23:41.716920,-123.0
2023-08-15 12:23:41.724609,-142.0
2023-08-15 12:23:41.732299,-166.0
2023-08-15 12:23:41.739988,-166.0
2023-08-15 12:23:41.747677,-152.0
2023-08-15 12:23:41.755367,-159.0
2023-08-15 12:23:41.763056,-164.0
2023-08-15 12:23:41.770745,-147.0
2023-08-15 12:23:41.778435,-130.0
2023-08-15 12:23:41.786124,-98.0
2023-08-15 12:23:41.793813,-50.0
2023-08-15 12:23:41.801503,-38.0
2023-08-15 12:23:41.809192,-41.0
2023-08-15 12:23:41.816881,-12.0
2023-08-15 12:23:41.824571,9.0
2023-08-15 12:23:41.832260,2.0
2023-08-15 12:23:41.839950,4.0
2023-08-15 12:23:41.847639,12.0
2023-08-15 12:23:41.855328,4.0
2023-08-15 12:23:41.863018,2.0
2023-08-15 12:23:41.870707,0.0
2023-08-15 12:23:41.878396,-9.0
2023-08-15 12:23:41.886086,-19.0
2023-08-15 12:23:41.893775,-9.0
2023-08-15 12:23:41.901464,2.0
2023-08-15 12:23:41.909154,2.0
2023-08-15 12:23:41.916843,-7.0
2023-08-15 12:23:41.924532,-19.0
2023-08-15 12:23:41.932222,-19.0
2023-08-15 12:23:41.939911,-7.0
2023-08-15 12:23:41.947601,-9.0
2023-08-15 12:23:41.955290,-21.0
2023-08-15 12:23:41.962979,-19.0
2023-08-15 12:23:41.970669,-12.0
2023-08-15 12:23:41.978358,-14.0
2023-08-15 12:23:41.986047,-16.0
2023-08-15 12:23:41.993737,-21.0
2023-08-15 12:23:42.001426,-21.0
2023-08-15 12:23:42.009115,-12.0
2023-08-15 12:23:42.016805,-4.0
2023-08-15 12:23:42.024494,-14.0
2023-08-15 12:23:42.032184,-28.0
2023-08-15 12:23:42.039873,-28.0
2023-08-15 12:23:42.047562,-24.0
2023-08-15 12:23:42.055252,-14.0
2023-08-15 12:23:42.062941,-14.0
2023-08-15 12:23:42.070630,-26.0
2023-08-15 12:23:42.078320,-28.0
2023-08-15 12:23:42.086009,-21.0
2023-08-15 12:23:42.093698,-24.0
2023-08-15 12:23:42.101388,-24.0
2023-08-15 12:23:42.109077,-31.0
2023-08-15 12:23:42.116766,-43.0
2023-08-15 12:23:42.124456,-57.0
2023-08-15 12:23:42.132145,-69.0
2023-08-15 12:23:42.139835,-79.0
2023-08-15 12:23:42.147524,-89.0
2023-08-15 12:23:42.155213,-103.0
2023-08-15 12:23:42.162903,-120.0
2023-08-15 12:23:42.170592,-115.0
2023-08-15 12:23:42.178281,-79.0
2023-08-15 12:23:42.185971,-48.0
2023-08-15 12:23:42.193660,-28.0
2023-08-15 12:23:42.201349,-9.0
2023-08-15 12:23:42.209039,-2.0
2023-08-15 12:23:42.216728,-12.0
2023-08-15 12:23:42.224417,-12.0
2023-08-15 12:23:42.232107,0.0
2023-08-15 12:23:42.239796,4.0
2023-08-15 12:23:42.247486,4.0
2023-08-15 12:23:42.255175,-9.0
2023-08-15 12:23:42.262864,-24.0
2023-08-15 12:23:42.270554,-26.0
2023-08-15 12:23:42.278243,-106.0
2023-08-15 12:23:42.285932,-374.0
2023-08-15 12:23:42.293622,-808.0
2023-08-15 12:23:42.301311,-1078.0
2023-08-15 12:23:42.309000,-767.0
2023-08-15 12:23:42.316690,-19.0
2023-08-15 12:23:42.324379,361.0
2023-08-15 12:23:42.332068,120.0
2023-08-15 12:23:42.339758,-60.0
2023-08-15 12:23:42.347447,65.0
2023-08-15 12:23:42.355137,94.0
2023-08-15 12:23:42.362826,16.0
2023-08-15 12:23:42.370515,28.0
2023-08-15 12:23:42.378205,43.0
2023-08-15 12:23:42.385894,12.0
2023-08-15 12:23:42.393583,0.0
2023-08-15 12:23:42.401273,-7.0
2023-08-15 12:23:42.408962,-24.0
2023-08-15 12:23:42.416651,-19.0
2023-08-15 12:23:42.424341,-14.0
2023-08-15 12:23:42.432030,-41.0
2023-08-15 12:23:42.439720,-50.0
2023-08-15 12:23:42.447409,-48.0
2023-08-15 12:23:42.455098,-60.0
2023-08-15 12:23:42.462788,-67.0
2023-08-15 12:23:42.470477,-82.0
2023-08-15 12:23:42.478166,-123.0
2023-08-15 12:23:42.485856,-135.0
2023-08-15 12:23:42.493545,-118.0
2023-08-15 12:23:42.501234,-135.0
2023-08-15 12:23:42.508924,-166.0
2023-08-15 12:23:42.516613,-166.0
2023-08-15 12:23:42.524302,-147.0
2023-08-15 12:23:42.531992,-147.0
2023-08-15 12:23:42.539681,-147.0
2023-08-15 12:23:42.547371,-113.0
2023-08-15 12:23:42.555060,-89.0
2023-08-15 12:23:42.562749,-84.0
2023-08-15 12:23:42.570439,-57.0
2023-08-15 12:23:42.578128,-16.0
2023-08-15 12:23:42.585817,7.0
2023-08-15 12:23:42.593507,14.0
2023-08-15 12:23:42.601196,-7.0
2023-08-15 12:23:42.608885,-24.0
2023-08-15 12:23:42.616575,-2.0
2023-08-15 12:23:42.624264,12.0
2023-08-15 12:23:42.631953,4.0
2023-08-15 12:23:42.639643,7.0
2023-08-15 12:23:42.647332,-4.0
2023-08-15 12:23:42.655022,-31.0
2023-08-15 12:23:42.662711,-21.0
2023-08-15 12:23:42.670400,-4.0
2023-08-15 12:23:42.678090,-16.0
2023-08-15 12:23:42.685779,-21.0
2023-08-15 12:23:42.693468,-7.0
2023-08-15 12:23:42.701158,-2.0
2023-08-15 12:23:42.708847,-14.0
2023-08-15 12:23:42.716536,-21.0
2023-08-15 12:23:42.724226,-12.0
2023-08-15 12:23:42.731915,-2.0
2023-08-15 12:23:42.739604,-12.0
2023-08-15 12:23:42.747294,-26.0
2023-08-15 12:23:42.754983,-28.0
2023-08-15 12:23:42.762673,-24.0
2023-08-15 12:23:42.770362,-21.0
2023-08-15 12:23:42.778051,-21.0
2023-08-15 12:23:42.785741,-19.0
2023-08-15 12:23:42.793430,-16.0
2023-08-15 12:23:42.801119,-24.0
2023-08-15 12:23:42.808809,-21.0
2023-08-15 12:23:42.816498,-16.0
2023-08-15 12:23:42.824187,-28.0
2023-08-15 12:23:42.831877,-33.0
2023-08-15 12:23:42.839566,-26.0
2023-08-15 12:23:42.847256,-28.0
2023-08-15 12:23:42.854945,-38.0
2023-08-15 12:23:42.862634,-43.0
2023-08-15 12:23:42.870324,-53.0
2023-08-15 12:23:42.878013,-62.0
2023-08-15 12:23:42.885702,-60.0
2023-08-15 12:23:42.893392,-65.0
2023-08-15 12:23:42.901081,-101.0
2023-08-15 12:23:42.908770,-135.0
2023-08-15 12:23:42.916460,-135.0
2023-08-15 12:23:42.924149,-103.0
2023-08-15 12:23:42.931838,-55.0
2023-08-15 12:23:42.939528,-31.0
2023-08-15 12:23:42.947217,-33.0
2023-08-15 12:23:42.954907,-24.0
2023-08-15 12:23:42.962596,-9.0
2023-08-15 12:23:42.970285,-7.0
2023-08-15 12:23:42.977975,-4.0
2023-08-15 12:23:42.985664,-14.0
2023-08-15 12:23:42.993353,-24.0
2023-08-15 12:23:43.001043,-16.0
2023-08-15 12:23:43.008732,-16.0
2023-08-15 12:23:43.016421,-28.0
2023-08-15 12:23:43.024111,-60.0
2023-08-15 12:23:43.031800,-200.0
2023-08-15 12:23:43.039489,-542.0
2023-08-15 12:23:43.047179,-948.0
2023-08-15 12:23:43.054868,-977.0
2023-08-15 12:23:43.062558,-402.0
2023-08-15 12:23:43.070247,265.0
2023-08-15 12:23:43.077936,323.0
2023-08-15 12:23:43.085626,0.0
2023-08-15 12:23:43.093315,-21.0
2023-08-15 12:23:43.101004,106.0
2023-08-15 12:23:43.108694,57.0
2023-08-15 12:23:43.116383,16.0
2023-08-15 12:23:43.124072,50.0
2023-08-15 12:23:43.131762,31.0
2023-08-15 12:23:43.139451,-2.0
2023-08-15 12:23:43.147141,-2.0
2023-08-15 12:23:43.154830,-4.0
2023-08-15 12:23:43.162519,-14.0
2023-08-15 12:23:43.170209,-31.0
2023-08-15 12:23:43.177898,-50.0
2023-08-15 12:23:43.185587,-45.0
2023-08-15 12:23:43.193277,-36.0
2023-08-15 12:23:43.200966,-48.0
2023-08-15 12:23:43.208655,-57.0
2023-08-15 12:23:43.216345,-77.0
2023-08-15 12:23:43.224034,-113.0
2023-08-15 12:23:43.231723,-123.0
2023-08-15 12:23:43.239413,-113.0
2023-08-15 12:23:43.247102,-132.0
2023-08-15 12:23:43.254792,-164.0
2023-08-15 12:23:43.262481,-161.0
2023-08-15 12:23:43.270170,-144.0
2023-08-15 12:23:43.277860,-152.0
2023-08-15 12:23:43.285549,-166.0
2023-08-15 12:23:43.293238,-142.0
2023-08-15 12:23:43.300928,-106.0
2023-08-15 12:23:43.308617,-86.0
2023-08-15 12:23:43.316306,-69.0
2023-08-15 12:23:43.323996,-41.0
2023-08-15 12:23:43.331685,-12.0
2023-08-15 12:23:43.339374,0.0
2023-08-15 12:23:43.347064,-7.0
2023-08-15 12:23:43.354753,4.0
2023-08-15 12:23:43.362443,31.0
2023-08-15 12:23:43.370132,31.0
2023-08-15 12:23:43.377821,21.0
2023-08-15 12:23:43.385511,24.0
2023-08-15 12:23:43.393200,0.0
2023-08-15 12:23:43.400889,-16.0
2023-08-15 12:23:43.408579,9.0
2023-08-15 12:23:43.416268,16.0
2023-08-15 12:23:43.423957,-14.0
2023-08-15 12:23:43.431647,-31.0
2023-08-15 12:23:43.439336,-21.0
2023-08-15 12:23:43.447025,-19.0
2023-08-15 12:23:43.454715,-16.0
2023-08-15 12:23:43.462404,-9.0
2023-08-15 12:23:43.470094,-9.0
2023-08-15 12:23:43.477783,-12.0
2023-08-15 12:23:43.485472,-14.0
2023-08-15 12:23:43.493162,-19.0
2023-08-15 12:23:43.500851,-24.0
2023-08-15 12:23:43.508540,-21.0
2023-08-15 12:23:43.516230,-19.0
2023-08-15 12:23:43.523919,-14.0
2023-08-15 12:23:43.531608,-14.0
2023-08-15 12:23:43.539298,-21.0
2023-08-15 12:23:43.546987,-19.0
2023-08-15 12:23:43.554677,-9.0
2023-08-15 12:23:43.562366,-12.0
2023-08-15 12:23:43.570055,-45.0
2023-08-15 12:23:43.577745,-60.0
2023-08-15 12:23:43.585434,-33.0
2023-08-15 12:23:43.593123,-21.0
2023-08-15 12:23:43.600813,-41.0
2023-08-15 12:23:43.608502,-72.0
2023-08-15 12:23:43.616191,-96.0
2023-08-15 12:23:43.623881,-103.0
2023-08-15 12:23:43.631570,-115.0
2023-08-15 12:23:43.639259,-125.0
2023-08-15 12:23:43.646949,-86.0
2023-08-15 12:23:43.654638,-48.0
2023-08-15 12:23:43.662328,-57.0
2023-08-15 12:23:43.670017,-53.0
2023-08-15 12:23:43.677706,-9.0
2023-08-15 12:23:43.685396,7.0
2023-08-15 12:23:43.693085,-14.0
2023-08-15 12:23:43.700774,-24.0
2023-08-15 12:23:43.708464,-12.0
2023-08-15 12:23:43.716153,-9.0
2023-08-15 12:23:43.723842,-12.0
2023-08-15 12:23:43.731532,-2.0
2023-08-15 12:23:43.739221,-4.0
2023-08-15 12:23:43.746910,-53.0
2023-08-15 12:23:43.754600,-224.0
2023-08-15 12:23:43.762289,-605.0
2023-08-15 12:23:43.769979,-1025.0
2023-08-15 12:23:43.777668,-1015.0
2023-08-15 12:23:43.785357,-376.0
2023-08-15 12:23:43.793047,299.0
2023-08-15 12:23:43.800736,320.0
2023-08-15 12:23:43.808425,14.0
2023-08-15 12:23:43.816115,2.0
2023-08-15 12:23:43.823804,106.0
2023-08-15 12:23:43.831493,67.0
2023-08-15 12:23:43.839183,38.0
2023-08-15 12:23:43.846872,53.0
2023-08-15 12:23:43.854561,41.0
2023-08-15 12:23:43.862251,16.0
2023-08-15 12:23:43.869940,9.0
2023-08-15 12:23:43.877630,12.0
2023-08-15 12:23:43.885319,0.0
2023-08-15 12:23:43.893008,-24.0
2023-08-15 12:23:43.900698,-33.0
2023-08-15 12:23:43.908387,-24.0
2023-08-15 12:23:43.916076,-36.0
2023-08-15 12:23:43.923766,-72.0
2023-08-15 12:23:43.931455,-84.0
2023-08-15 12:23:43.939144,-65.0
2023-08-15 12:23:43.946834,-72.0
2023-08-15 12:23:43.954523,-106.0
2023-08-15 12:23:43.962213,-130.0
2023-08-15 12:23:43.969902,-130.0
2023-08-15 12:23:43.977591,-144.0
2023-08-15 12:23:43.985281,-171.0
2023-08-15 12:23:43.992970,-176.0
2023-08-15 12:23:44.000659,-161.0
2023-08-15 12:23:44.008349,-139.0
2023-08-15 12:23:44.016038,-125.0
2023-08-15 12:23:44.023727,-130.0
2023-08-15 12:23:44.031417,-108.0
2023-08-15 12:23:44.039106,-65.0
2023-08-15 12:23:44.046795,-43.0
2023-08-15 12:23:44.054485,-38.0
2023-08-15 12:23:44.062174,-33.0
2023-08-15 12:23:44.069864,-9.0
2023-08-15 12:23:44.077553,14.0
2023-08-15 12:23:44.085242,4.0
2023-08-15 12:23:44.092932,-12.0
2023-08-15 12:23:44.100621,-7.0
2023-08-15 12:23:44.108310,-2.0
2023-08-15 12:23:44.116000,-7.0
2023-08-15 12:23:44.123689,-12.0
2023-08-15 12:23:44.131378,-16.0
2023-08-15 12:23:44.139068,-14.0
2023-08-15 12:23:44.146757,-19.0
2023-08-15 12:23:44.154446,-33.0
2023-08-15 12:23:44.162136,-33.0
2023-08-15 12:23:44.169825,-26.0
2023-08-15 12:23:44.177515,-26.0
2023-08-15 12:23:44.185204,-19.0
2023-08-15 12:23:44.192893,-19.0
2023-08-15 12:23:44.200583,-26.0
2023-08-15 12:23:44.208272,-31.0
2023-08-15 12:23:44.215961,-21.0
2023-08-15 12:23:44.223651,-7.0
2023-08-15 12:23:44.231340,-14.0
2023-08-15 12:23:44.239029,-19.0
2023-08-15 12:23:44.246719,-12.0
2023-08-15 12:23:44.254408,-19.0
2023-08-15 12:23:44.262097,-31.0
2023-08-15 12:23:44.269787,-28.0
2023-08-15 12:23:44.277476,-16.0
2023-08-15 12:23:44.285166,-14.0
2023-08-15 12:23:44.292855,-16.0
2023-08-15 12:23:44.300544,-19.0
2023-08-15 12:23:44.308234,-28.0
2023-08-15 12:23:44.315923,-33.0
2023-08-15 12:23:44.323612,-41.0
2023-08-15 12:23:44.331302,-55.0
2023-08-15 12:23:44.338991,-79.0
2023-08-15 12:23:44.346680,-108.0
2023-08-15 12:23:44.354370,-130.0
2023-08-15 12:23:44.362059,-120.0
2023-08-15 12:23:44.369749,-89.0
2023-08-15 12:23:44.377438,-67.0
2023-08-15 12:23:44.385127,-60.0
2023-08-15 12:23:44.392817,-38.0
2023-08-15 12:23:44.400506,-9.0
2023-08-15 12:23:44.408195,2.0
2023-08-15 12:23:44.415885,0.0
2023-08-15 12:23:44.423574,-12.0
2023-08-15 12:23:44.431263,-26.0
2023-08-15 12:23:44.438953,-24.0
2023-08-15 12:23:44.446642,-19.0
2023-08-15 12:23:44.454331,-21.0
2023-08-15 12:23:44.462021,-14.0
2023-08-15 12:23:44.469710,-55.0
2023-08-15 12:23:44.477400,-272.0
2023-08-15 12:23:44.485089,-678.0
2023-08-15 12:23:44.492778,-1042.0
2023-08-15 12:23:44.500468,-938.0
2023-08-15 12:23:44.508157,-265.0
2023-08-15 12:23:44.515846,325.0
2023-08-15 12:23:44.523536,250.0
2023-08-15 12:23:44.531225,-36.0
2023-08-15 12:23:44.538914,19.0
2023-08-15 12:23:44.546604,113.0
2023-08-15 12:23:44.554293,33.0
2023-08-15 12:23:44.561982,7.0
2023-08-15 12:23:44.569672,31.0
2023-08-15 12:23:44.577361,9.0
2023-08-15 12:23:44.585051,-9.0
2023-08-15 12:23:44.592740,7.0
2023-08-15 12:23:44.600429,14.0
2023-08-15 12:23:44.608119,-19.0
2023-08-15 12:23:44.615808,-53.0
2023-08-15 12:23:44.623497,-57.0
2023-08-15 12:23:44.631187,-62.0
2023-08-15 12:23:44.638876,-84.0
2023-08-15 12:23:44.646565,-91.0
2023-08-15 12:23:44.654255,-91.0
2023-08-15 12:23:44.661944,-108.0
2023-08-15 12:23:44.669633,-123.0
2023-08-15 12:23:44.677323,-132.0
2023-08-15 12:23:44.685012,-147.0
2023-08-15 12:23:44.692702,-156.0
2023-08-15 12:23:44.700391,-166.0
2023-08-15 12:23:44.708080,-178.0
2023-08-15 12:23:44.715770,-173.0
2023-08-15 12:23:44.723459,-166.0
2023-08-15 12:23:44.731148,-164.0
2023-08-15 12:23:44.738838,-147.0
2023-08-15 12:23:44.746527,-113.0
2023-08-15 12:23:44.754216,-86.0
2023-08-15 12:23:44.761906,-62.0
2023-08-15 12:23:44.769595,-31.0
2023-08-15 12:23:44.777285,-12.0
2023-08-15 12:23:44.784974,-4.0
2023-08-15 12:23:44.792663,2.0
2023-08-15 12:23:44.800353,7.0
2023-08-15 12:23:44.808042,7.0
2023-08-15 12:23:44.815731,9.0
2023-08-15 12:23:44.823421,12.0
2023-08-15 12:23:44.831110,7.0
2023-08-15 12:23:44.838799,7.0
2023-08-15 12:23:44.846489,12.0
2023-08-15 12:23:44.854178,0.0
2023-08-15 12:23:44.861867,-7.0
2023-08-15 12:23:44.869557,-4.0
2023-08-15 12:23:44.877246,-7.0
2023-08-15 12:23:44.884936,-12.0
2023-08-15 12:23:44.892625,-12.0
2023-08-15 12:23:44.900314,-19.0
2023-08-15 12:23:44.908004,-19.0
2023-08-15 12:23:44.915693,-7.0
2023-08-15 12:23:44.923382,2.0
2023-08-15 12:23:44.931072,2.0
2023-08-15 12:23:44.938761,0.0
2023-08-15 12:23:44.946450,0.0
2023-08-15 12:23:44.954140,-9.0
2023-08-15 12:23:44.961829,-14.0
2023-08-15 12:23:44.969518,-14.0
2023-08-15 12:23:44.977208,-16.0
2023-08-15 12:23:44.984897,-14.0
2023-08-15 12:23:44.992587,-9.0
2023-08-15 12:23:45.000276,-9.0
2023-08-15 12:23:45.007965,-9.0
2023-08-15 12:23:45.015655,-19.0
2023-08-15 12:23:45.023344,-31.0
2023-08-15 12:23:45.031033,-31.0
2023-08-15 12:23:45.038723,-31.0
2023-08-15 12:23:45.046412,-45.0
2023-08-15 12:23:45.054101,-62.0
2023-08-15 12:23:45.061791,-72.0
2023-08-15 12:23:45.069480,-91.0
2023-08-15 12:23:45.077169,-110.0
2023-08-15 12:23:45.084859,-86.0
2023-08-15 12:23:45.092548,-36.0
2023-08-15 12:23:45.100238,-28.0
2023-08-15 12:23:45.107927,-45.0
2023-08-15 12:23:45.115616,-26.0
2023-08-15 12:23:45.123306,-7.0
2023-08-15 12:23:45.130995,-28.0
2023-08-15 12:23:45.138684,-48.0
2023-08-15 12:23:45.146374,-43.0
2023-08-15 12:23:45.154063,-36.0
2023-08-15 12:23:45.161752,-33.0
2023-08-15 12:23:45.169442,-28.0
2023-08-15 12:23:45.177131,-26.0
2023-08-15 12:23:45.184821,-55.0
2023-08-15 12:23:45.192510,-209.0
2023-08-15 12:23:45.200199,-540.0
2023-08-15 12:23:45.207889,-926.0
2023-08-15 12:23:45.215578,-989.0
2023-08-15 12:23:45.223267,-456.0
2023-08-15 12:23:45.230957,226.0
2023-08-15 12:23:45.238646,325.0
2023-08-15 12:23:45.246335,-4.0
2023-08-15 12:23:45.254025,-55.0
2023-08-15 12:23:45.261714,86.0
2023-08-15 12:23:45.269403,53.0
2023-08-15 12:23:45.277093,-14.0
2023-08-15 12:23:45.284782,14.0
2023-08-15 12:23:45.292472,21.0
2023-08-15 12:23:45.300161,-2.0
2023-08-15 12:23:45.307850,7.0
2023-08-15 12:23:45.315540,14.0
2023-08-15 12:23:45.323229,-12.0
2023-08-15 12:23:45.330918,-38.0
2023-08-15 12:23:45.338608,-53.0
2023-08-15 12:23:45.346297,-60.0
2023-08-15 12:23:45.353986,-62.0
2023-08-15 12:23:45.361676,-67.0
2023-08-15 12:23:45.369365,-79.0
2023-08-15 12:23:45.377054,-98.0
2023-08-15 12:23:45.384744,-115.0
2023-08-15 12:23:45.392433,-113.0
2023-08-15 12:23:45.400123,-115.0
2023-08-15 12:23:45.407812,-147.0
2023-08-15 12:23:45.415501,-168.0
2023-08-15 12:23:45.423191,-168.0
2023-08-15 12:23:45.430880,-168.0
2023-08-15 12:23:45.438569,-173.0
2023-08-15 12:23:45.446259,-164.0
2023-08-15 12:23:45.453948,-135.0
2023-08-15 12:23:45.461637,-106.0
2023-08-15 12:23:45.469327,-86.0
2023-08-15 12:23:45.477016,-67.0
2023-08-15 12:23:45.484706,-48.0
2023-08-15 12:23:45.492395,-26.0
2023-08-15 12:23:45.500084,0.0
2023-08-15 12:23:45.507774,24.0
2023-08-15 12:23:45.515463,12.0
2023-08-15 12:23:45.523152,-2.0
2023-08-15 12:23:45.530842,16.0
2023-08-15 12:23:45.538531,26.0
2023-08-15 12:23:45.546220,7.0
2023-08-15 12:23:45.553910,-4.0
2023-08-15 12:23:45.561599,0.0
2023-08-15 12:23:45.569288,2.0
2023-08-15 12:23:45.576978,0.0
2023-08-15 12:23:45.584667,-2.0
2023-08-15 12:23:45.592357,-12.0
2023-08-15 12:23:45.600046,-21.0
2023-08-15 12:23:45.607735,-26.0
2023-08-15 12:23:45.615425,-21.0
2023-08-15 12:23:45.623114,2.0
2023-08-15 12:23:45.630803,2.0
2023-08-15 12:23:45.638493,-33.0
2023-08-15 12:23:45.646182,-43.0
2023-08-15 12:23:45.653871,-24.0
2023-08-15 12:23:45.661561,-24.0
2023-08-15 12:23:45.669250,-31.0
2023-08-15 12:23:45.676939,-28.0
2023-08-15 12:23:45.684629,-33.0
2023-08-15 12:23:45.692318,-24.0
2023-08-15 12:23:45.700008,-12.0
2023-08-15 12:23:45.707697,-33.0
2023-08-15 12:23:45.715386,-43.0
2023-08-15 12:23:45.723076,-21.0
2023-08-15 12:23:45.730765,-9.0
2023-08-15 12:23:45.738454,-21.0
2023-08-15 12:23:45.746144,-24.0
2023-08-15 12:23:45.753833,-26.0
2023-08-15 12:23:45.761522,-50.0
2023-08-15 12:23:45.769212,-72.0
2023-08-15 12:23:45.776901,-67.0
2023-08-15 12:23:45.784590,-65.0
2023-08-15 12:23:45.792280,-98.0
2023-08-15 12:23:45.799969,-132.0
2023-08-15 12:23:45.807659,-120.0
2023-08-15 12:23:45.815348,-69.0
2023-08-15 12:23:45.823037,-43.0
2023-08-15 12:23:45.830727,-41.0
2023-08-15 12:23:45.838416,-12.0
2023-08-15 12:23:45.846105,7.0
2023-08-15 12:23:45.853795,-4.0
2023-08-15 12:23:45.861484,-14.0
2023-08-15 12:23:45.869173,-9.0
2023-08-15 12:23:45.876863,-2.0
2023-08-15 12:23:45.884552,-4.0
2023-08-15 12:23:45.892242,-16.0
2023-08-15 12:23:45.899931,-24.0
2023-08-15 12:23:45.907620,-19.0
2023-08-15 12:23:45.915310,-69.0
2023-08-15 12:23:45.922999,-272.0
2023-08-15 12:23:45.930688,-639.0
2023-08-15 12:23:45.938378,-969.0
2023-08-15 12:23:45.946067,-856.0
2023-08-15 12:23:45.953756,-202.0
2023-08-15 12:23:45.961446,342.0
2023-08-15 12:23:45.969135,236.0
2023-08-15 12:23:45.976824,-53.0
2023-08-15 12:23:45.984514,-2.0
2023-08-15 12:23:45.992203,89.0
2023-08-15 12:23:45.999893,19.0
2023-08-15 12:23:46.007582,-4.0
2023-08-15 12:23:46.015271,21.0
2023-08-15 12:23:46.022961,12.0
2023-08-15 12:23:46.030650,2.0
2023-08-15 12:23:46.038339,-4.0
2023-08-15 12:23:46.046029,-26.0
2023-08-15 12:23:46.053718,-43.0
2023-08-15 12:23:46.061407,-50.0
2023-08-15 12:23:46.069097,-53.0
2023-08-15 12:23:46.076786,-50.0
2023-08-15 12:23:46.084475,-57.0
2023-08-15 12:23:46.092165,-69.0
2023-08-15 12:23:46.099854,-77.0
2023-08-15 12:23:46.107544,-82.0
2023-08-15 12:23:46.115233,-101.0
2023-08-15 12:23:46.122922,-142.0
2023-08-15 12:23:46.130612,-164.0
2023-08-15 12:23:46.138301,-159.0
2023-08-15 12:23:46.145990,-166.0
2023-08-15 12:23:46.153680,-185.0
2023-08-15 12:23:46.161369,-188.0
2023-08-15 12:23:46.169058,-164.0
2023-08-15 12:23:46.176748,-130.0
2023-08-15 12:23:46.184437,-123.0
2023-08-15 12:23:46.192126,-125.0
2023-08-15 12:23:46.199816,-110.0
2023-08-15 12:23:46.207505,-82.0
2023-08-15 12:23:46.215195,-55.0
2023-08-15 12:23:46.222884,-43.0
2023-08-15 12:23:46.230573,-21.0
2023-08-15 12:23:46.238263,7.0
2023-08-15 12:23:46.245952,21.0
2023-08-15 12:23:46.253641,16.0
2023-08-15 12:23:46.261331,14.0
2023-08-15 12:23:46.269020,-2.0
2023-08-15 12:23:46.276709,-24.0
2023-08-15 12:23:46.284399,-14.0
2023-08-15 12:23:46.292088,12.0
2023-08-15 12:23:46.299778,7.0
2023-08-15 12:23:46.307467,-16.0
2023-08-15 12:23:46.315156,-14.0
2023-08-15 12:23:46.322846,-14.0
2023-08-15 12:23:46.330535,-33.0
2023-08-15 12:23:46.338224,-36.0
2023-08-15 12:23:46.345914,-21.0
2023-08-15 12:23:46.353603,-28.0
2023-08-15 12:23:46.361292,-41.0
2023-08-15 12:23:46.368982,-28.0
2023-08-15 12:23:46.376671,-14.0
2023-08-15 12:23:46.384360,-12.0
2023-08-15 12:23:46.392050,-16.0
2023-08-15 12:23:46.399739,-21.0
2023-08-15 12:23:46.407429,-21.0
2023-08-15 12:23:46.415118,-19.0
2023-08-15 12:23:46.422807,-16.0
2023-08-15 12:23:46.430497,-4.0
2023-08-15 12:23:46.438186,-7.0
2023-08-15 12:23:46.445875,-16.0
2023-08-15 12:23:46.453565,-19.0
2023-08-15 12:23:46.461254,-14.0
2023-08-15 12:23:46.468943,-12.0
2023-08-15 12:23:46.476633,-7.0
2023-08-15 12:23:46.484322,-12.0
2023-08-15 12:23:46.492011,-33.0
2023-08-15 12:23:46.499701,-53.0
2023-08-15 12:23:46.507390,-55.0
2023-08-15 12:23:46.515080,-62.0
2023-08-15 12:23:46.522769,-84.0
2023-08-15 12:23:46.530458,-103.0
2023-08-15 12:23:46.538148,-101.0
2023-08-15 12:23:46.545837,-60.0
2023-08-15 12:23:46.553526,-16.0
2023-08-15 12:23:46.561216,-19.0
2023-08-15 12:23:46.568905,-28.0
2023-08-15 12:23:46.576594,-2.0
2023-08-15 12:23:46.584284,19.0
2023-08-15 12:23:46.591973,7.0
2023-08-15 12:23:46.599662,-4.0
2023-08-15 12:23:46.607352,-12.0
2023-08-15 12:23:46.615041,-16.0
2023-08-15 12:23:46.622731,-14.0
2023-08-15 12:23:46.630420,-9.0
2023-08-15 12:23:46.638109,-12.0
2023-08-15 12:23:46.645799,-62.0
2023-08-15 12:23:46.653488,-246.0
2023-08-15 12:23:46.661177,-624.0
2023-08-15 12:23:46.668867,-1018.0
2023-08-15 12:23:46.676556,-972.0
2023-08-15 12:23:46.684245,-311.0
2023-08-15 12:23:46.691935,323.0
2023-08-15 12:23:46.699624,279.0
2023-08-15 12:23:46.707314,-26.0
2023-08-15 12:23:46.715003,-2.0
2023-08-15 12:23:46.722692,98.0
2023-08-15 12:23:46.730382,36.0
2023-08-15 12:23:46.738071,9.0
2023-08-15 12:23:46.745760,26.0
2023-08-15 12:23:46.753450,-2.0
2023-08-15 12:23:46.761139,-16.0
2023-08-15 12:23:46.768828,-12.0
2023-08-15 12:23:46.776518,-31.0
2023-08-15 12:23:46.784207,-43.0
2023-08-15 12:23:46.791896,-45.0
2023-08-15 12:23:46.799586,-57.0
2023-08-15 12:23:46.807275,-67.0
2023-08-15 12:23:46.814965,-67.0
2023-08-15 12:23:46.822654,-77.0
2023-08-15 12:23:46.830343,-94.0
2023-08-15 12:23:46.838033,-94.0
2023-08-15 12:23:46.845722,-98.0
2023-08-15 12:23:46.853411,-149.0
2023-08-15 12:23:46.861101,-176.0
2023-08-15 12:23:46.868790,-156.0
2023-08-15 12:23:46.876479,-161.0
2023-08-15 12:23:46.884169,-185.0
2023-08-15 12:23:46.891858,-190.0
2023-08-15 12:23:46.899547,-176.0
2023-08-15 12:23:46.907237,-159.0
2023-08-15 12:23:46.914926,-139.0
2023-08-15 12:23:46.922616,-118.0
2023-08-15 12:23:46.930305,-98.0
2023-08-15 12:23:46.937994,-77.0
2023-08-15 12:23:46.945684,-50.0
2023-08-15 12:23:46.953373,-28.0
2023-08-15 12:23:46.961062,-14.0
2023-08-15 12:23:46.968752,2.0
2023-08-15 12:23:46.976441,14.0
2023-08-15 12:23:46.984130,9.0
2023-08-15 12:23:46.991820,-9.0
2023-08-15 12:23:46.999509,-12.0
2023-08-15 12:23:47.007198,0.0
2023-08-15 12:23:47.014888,-12.0
2023-08-15 12:23:47.022577,-16.0
2023-08-15 12:23:47.030267,-2.0
2023-08-15 12:23:47.037956,-9.0
2023-08-15 12:23:47.045645,-21.0
2023-08-15 12:23:47.053335,-19.0
2023-08-15 12:23:47.061024,-21.0
2023-08-15 12:23:47.068713,-24.0
2023-08-15 12:23:47.076403,-16.0
2023-08-15 12:23:47.084092,-16.0
2023-08-15 12:23:47.091781,-14.0
2023-08-15 12:23:47.099471,-4.0
2023-08-15 12:23:47.107160,-7.0
2023-08-15 12:23:47.114850,-14.0
2023-08-15 12:23:47.122539,-12.0
2023-08-15 12:23:47.130228,-14.0
2023-08-15 12:23:47.137918,-16.0
2023-08-15 12:23:47.145607,-14.0
2023-08-15 12:23:47.153296,-24.0
2023-08-15 12:23:47.160986,-38.0
2023-08-15 12:23:47.168675,-38.0
2023-08-15 12:23:47.176364,-36.0
2023-08-15 12:23:47.184054,-33.0
2023-08-15 12:23:47.191743,-26.0
2023-08-15 12:23:47.199432,-26.0
2023-08-15 12:23:47.207122,-28.0
2023-08-15 12:23:47.214811,-28.0
2023-08-15 12:23:47.222501,-41.0
2023-08-15 12:23:47.230190,-57.0
2023-08-15 12:23:47.237879,-79.0
2023-08-15 12:23:47.245569,-98.0
2023-08-15 12:23:47.253258,-94.0
2023-08-15 12:23:47.260947,-82.0
2023-08-15 12:23:47.268637,-82.0
2023-08-15 12:23:47.276326,-62.0
2023-08-15 12:23:47.284015,-21.0
2023-08-15 12:23:47.291705,12.0
2023-08-15 12:23:47.299394,14.0
2023-08-15 12:23:47.307083,-12.0
2023-08-15 12:23:47.314773,-28.0
2023-08-15 12:23:47.322462,-21.0
2023-08-15 12:23:47.330152,-9.0
2023-08-15 12:23:47.337841,2.0
2023-08-15 12:23:47.345530,-14.0
2023-08-15 12:23:47.353220,-45.0
2023-08-15 12:23:47.360909,-65.0
2023-08-15 12:23:47.368598,-171.0
2023-08-15 12:23:47.376288,-521.0
2023-08-15 12:23:47.383977,-1013.0
2023-08-15 12:23:47.391666,-1196.0
2023-08-15 12:23:47.399356,-706.0
2023-08-15 12:23:47.407045,113.0
2023-08-15 12:23:47.414735,412.0
2023-08-15 12:23:47.422424,101.0
2023-08-15 12:23:47.430113,-60.0
2023-08-15 12:23:47.437803,53.0
2023-08-15 12:23:47.445492,55.0
2023-08-15 12:23:47.453181,9.0
2023-08-15 12:23:47.460871,33.0
2023-08-15 12:23:47.468560,33.0
2023-08-15 12:23:47.476249,12.0
2023-08-15 12:23:47.483939,-14.0
2023-08-15 12:23:47.491628,-38.0
2023-08-15 12:23:47.499317,-31.0
2023-08-15 12:23:47.507007,-19.0
2023-08-15 12:23:47.514696,-41.0
2023-08-15 12:23:47.522386,-67.0
2023-08-15 12:23:47.530075,-62.0
2023-08-15 12:23:47.537764,-53.0
2023-08-15 12:23:47.545454,-77.0
2023-08-15 12:23:47.553143,-113.0
2023-08-15 12:23:47.560832,-120.0
2023-08-15 12:23:47.568522,-113.0
2023-08-15 12:23:47.576211,-139.0
2023-08-15 12:23:47.583900,-164.0
2023-08-15 12:23:47.591590,-156.0
2023-08-15 12:23:47.599279,-164.0
2023-08-15 12:23:47.606968,-193.0
2023-08-15 12:23:47.614658,-176.0
2023-08-15 12:23:47.622347,-139.0
2023-08-15 12:23:47.630037,-142.0
2023-08-15 12:23:47.637726,-123.0
2023-08-15 12:23:47.645415,-72.0
2023-08-15 12:23:47.653105,-62.0
2023-08-15 12:23:47.660794,-62.0
2023-08-15 12:23:47.668483,-50.0
2023-08-15 12:23:47.676173,-33.0
2023-08-15 12:23:47.683862,2.0
2023-08-15 12:23:47.691551,4.0
2023-08-15 12:23:47.699241,-9.0
2023-08-15 12:23:47.706930,9.0
2023-08-15 12:23:47.714619,14.0
2023-08-15 12:23:47.722309,-12.0
2023-08-15 12:23:47.729998,-19.0
2023-08-15 12:23:47.737688,0.0
2023-08-15 12:23:47.745377,2.0
2023-08-15 12:23:47.753066,-38.0
2023-08-15 12:23:47.760756,-43.0
2023-08-15 12:23:47.768445,0.0
2023-08-15 12:23:47.776134,0.0
2023-08-15 12:23:47.783824,-26.0
2023-08-15 12:23:47.791513,2.0
2023-08-15 12:23:47.799202,9.0
2023-08-15 12:23:47.806892,-31.0
2023-08-15 12:23:47.814581,-33.0
2023-08-15 12:23:47.822271,-19.0
2023-08-15 12:23:47.829960,-31.0
2023-08-15 12:23:47.837649,-9.0
2023-08-15 12:23:47.845339,7.0
2023-08-15 12:23:47.853028,-31.0
2023-08-15 12:23:47.860717,-41.0
2023-08-15 12:23:47.868407,-7.0
2023-08-15 12:23:47.876096,-9.0
2023-08-15 12:23:47.883785,-31.0
2023-08-15 12:23:47.891475,-24.0
2023-08-15 12:23:47.899164,-9.0
2023-08-15 12:23:47.906853,-9.0
2023-08-15 12:23:47.914543,-2.0
2023-08-15 12:23:47.922232,12.0
2023-08-15 12:23:47.929922,7.0
2023-08-15 12:23:47.937611,-31.0
2023-08-15 12:23:47.945300,-72.0
2023-08-15 12:23:47.952990,-84.0
2023-08-15 12:23:47.960679,-82.0
2023-08-15 12:23:47.968368,-103.0
2023-08-15 12:23:47.976058,-115.0
2023-08-15 12:23:47.983747,-94.0
2023-08-15 12:23:47.991436,-67.0
2023-08-15 12:23:47.999126,-48.0
2023-08-15 12:23:48.006815,-24.0
2023-08-15 12:23:48.014504,-4.0
2023-08-15 12:23:48.022194,2.0
2023-08-15 12:23:48.029883,-4.0
2023-08-15 12:23:48.037573,-14.0
2023-08-15 12:23:48.045262,0.0
2023-08-15 12:23:48.052951,0.0
2023-08-15 12:23:48.060641,-24.0
2023-08-15 12:23:48.068330,-19.0
2023-08-15 12:23:48.076019,-4.0
2023-08-15 12:23:48.083709,-9.0
2023-08-15 12:23:48.091398,-101.0
2023-08-15 12:23:48.099087,-390.0
2023-08-15 12:23:48.106777,-851.0
2023-08-15 12:23:48.114466,-1146.0
2023-08-15 12:23:48.122155,-837.0
2023-08-15 12:23:48.129845,-19.0
2023-08-15 12:23:48.137534,448.0
2023-08-15 12:23:48.145224,197.0
2023-08-15 12:23:48.152913,-48.0
2023-08-15 12:23:48.160602,50.0
2023-08-15 12:23:48.168292,77.0
2023-08-15 12:23:48.175981,0.0
2023-08-15 12:23:48.183670,21.0
2023-08-15 12:23:48.191360,53.0
2023-08-15 12:23:48.199049,19.0
2023-08-15 12:23:48.206738,-7.0
2023-08-15 12:23:48.214428,-12.0
2023-08-15 12:23:48.222117,-16.0
2023-08-15 12:23:48.229807,-33.0
2023-08-15 12:23:48.237496,-57.0
2023-08-15 12:23:48.245185,-57.0
2023-08-15 12:23:48.252875,-45.0
2023-08-15 12:23:48.260564,-60.0
2023-08-15 12:23:48.268253,-77.0
2023-08-15 12:23:48.275943,-62.0
2023-08-15 12:23:48.283632,-57.0
2023-08-15 12:23:48.291321,-84.0
2023-08-15 12:23:48.299011,-130.0
2023-08-15 12:23:48.306700,-156.0
2023-08-15 12:23:48.314389,-164.0
2023-08-15 12:23:48.322079,-197.0
2023-08-15 12:23:48.329768,-224.0
2023-08-15 12:23:48.337458,-200.0
2023-08-15 12:23:48.345147,-183.0
2023-08-15 12:23:48.352836,-190.0
2023-08-15 12:23:48.360526,-164.0
2023-08-15 12:23:48.368215,-110.0
2023-08-15 12:23:48.375904,-79.0
2023-08-15 12:23:48.383594,-65.0
2023-08-15 12:23:48.391283,-38.0
2023-08-15 12:23:48.398972,-16.0
2023-08-15 12:23:48.406662,-9.0
2023-08-15 12:23:48.414351,-2.0
2023-08-15 12:23:48.422040,12.0
2023-08-15 12:23:48.429730,16.0
2023-08-15 12:23:48.437419,16.0
2023-08-15 12:23:48.445109,28.0
2023-08-15 12:23:48.452798,41.0
2023-08-15 12:23:48.460487,31.0
2023-08-15 12:23:48.468177,0.0
2023-08-15 12:23:48.475866,-12.0
2023-08-15 12:23:48.483555,-9.0
2023-08-15 12:23:48.491245,-24.0
2023-08-15 12:23:48.498934,-24.0
2023-08-15 12:23:48.506623,-14.0
2023-08-15 12:23:48.514313,-31.0
2023-08-15 12:23:48.522002,-48.0
2023-08-15 12:23:48.529691,-43.0
2023-08-15 12:23:48.537381,-33.0
2023-08-15 12:23:48.545070,-31.0
2023-08-15 12:23:48.552760,-36.0
2023-08-15 12:23:48.560449,-28.0
2023-08-15 12:23:48.568138,-28.0
2023-08-15 12:23:48.575828,-38.0
2023-08-15 12:23:48.583517,-31.0
