time,ECG
2023-08-10 18:33:29.674056,-52.0
2023-08-10 18:33:29.681747,-52.0
2023-08-10 18:33:29.689438,-47.0
2023-08-10 18:33:29.697129,-28.0
2023-08-10 18:33:29.704820,-9.0
2023-08-10 18:33:29.712511,-16.0
2023-08-10 18:33:29.720202,-21.0
2023-08-10 18:33:29.727893,-23.0
2023-08-10 18:33:29.735584,-45.0
2023-08-10 18:33:29.743275,-64.0
2023-08-10 18:33:29.750966,-64.0
2023-08-10 18:33:29.758657,-61.0
2023-08-10 18:33:29.766348,-64.0
2023-08-10 18:33:29.774039,-61.0
2023-08-10 18:33:29.781730,-57.0
2023-08-10 18:33:29.789421,-59.0
2023-08-10 18:33:29.797112,-76.0
2023-08-10 18:33:29.804803,-49.0
2023-08-10 18:33:29.812494,169.0
2023-08-10 18:33:29.820185,637.0
2023-08-10 18:33:29.827876,1080.0
2023-08-10 18:33:29.835567,968.0
2023-08-10 18:33:29.843258,54.0
2023-08-10 18:33:29.850949,-778.0
2023-08-10 18:33:29.858640,-566.0
2023-08-10 18:33:29.866331,-69.0
2023-08-10 18:33:29.874022,-119.0
2023-08-10 18:33:29.881713,-211.0
2023-08-10 18:33:29.889404,-97.0
2023-08-10 18:33:29.897095,-90.0
2023-08-10 18:33:29.904786,-138.0
2023-08-10 18:33:29.912477,-109.0
2023-08-10 18:33:29.920168,-85.0
2023-08-10 18:33:29.927859,-97.0
2023-08-10 18:33:29.935550,-92.0
2023-08-10 18:33:29.943241,-76.0
2023-08-10 18:33:29.950932,-80.0
2023-08-10 18:33:29.958623,-78.0
2023-08-10 18:33:29.966314,-61.0
2023-08-10 18:33:29.974005,-54.0
2023-08-10 18:33:29.981696,-52.0
2023-08-10 18:33:29.989388,-38.0
2023-08-10 18:33:29.997079,-28.0
2023-08-10 18:33:30.004770,-21.0
2023-08-10 18:33:30.012461,-7.0
2023-08-10 18:33:30.020152,7.0
2023-08-10 18:33:30.027843,21.0
2023-08-10 18:33:30.035534,33.0
2023-08-10 18:33:30.043225,45.0
2023-08-10 18:33:30.050916,57.0
2023-08-10 18:33:30.058607,69.0
2023-08-10 18:33:30.066298,80.0
2023-08-10 18:33:30.073989,97.0
2023-08-10 18:33:30.081680,109.0
2023-08-10 18:33:30.089371,111.0
2023-08-10 18:33:30.097062,111.0
2023-08-10 18:33:30.104753,104.0
2023-08-10 18:33:30.112444,92.0
2023-08-10 18:33:30.120135,76.0
2023-08-10 18:33:30.127826,49.0
2023-08-10 18:33:30.135517,7.0
2023-08-10 18:33:30.143208,-30.0
2023-08-10 18:33:30.150899,-66.0
2023-08-10 18:33:30.158590,-102.0
2023-08-10 18:33:30.166281,-133.0
2023-08-10 18:33:30.173972,-154.0
2023-08-10 18:33:30.181663,-164.0
2023-08-10 18:33:30.189354,-169.0
2023-08-10 18:33:30.197045,-176.0
2023-08-10 18:33:30.204736,-176.0
2023-08-10 18:33:30.212427,-166.0
2023-08-10 18:33:30.220118,-161.0
2023-08-10 18:33:30.227809,-157.0
2023-08-10 18:33:30.235500,-154.0
2023-08-10 18:33:30.243191,-152.0
2023-08-10 18:33:30.250882,-145.0
2023-08-10 18:33:30.258573,-135.0
2023-08-10 18:33:30.266264,-130.0
2023-08-10 18:33:30.273955,-128.0
2023-08-10 18:33:30.281646,-116.0
2023-08-10 18:33:30.289337,-109.0
2023-08-10 18:33:30.297028,-107.0
2023-08-10 18:33:30.304719,-102.0
2023-08-10 18:33:30.312410,-97.0
2023-08-10 18:33:30.320101,-95.0
2023-08-10 18:33:30.327792,-90.0
2023-08-10 18:33:30.335484,-90.0
2023-08-10 18:33:30.343175,-95.0
2023-08-10 18:33:30.350866,-95.0
2023-08-10 18:33:30.358557,-90.0
2023-08-10 18:33:30.366248,-88.0
2023-08-10 18:33:30.373939,-92.0
2023-08-10 18:33:30.381630,-97.0
2023-08-10 18:33:30.389321,-95.0
2023-08-10 18:33:30.397012,-83.0
2023-08-10 18:33:30.404703,-83.0
2023-08-10 18:33:30.412394,-92.0
2023-08-10 18:33:30.420085,-92.0
2023-08-10 18:33:30.427776,-88.0
2023-08-10 18:33:30.435467,-90.0
2023-08-10 18:33:30.443158,-92.0
2023-08-10 18:33:30.450849,-99.0
2023-08-10 18:33:30.458540,-97.0
2023-08-10 18:33:30.466231,-92.0
2023-08-10 18:33:30.473922,-92.0
2023-08-10 18:33:30.481613,-90.0
2023-08-10 18:33:30.489304,-85.0
2023-08-10 18:33:30.496995,-88.0
2023-08-10 18:33:30.504686,-88.0
2023-08-10 18:33:30.512377,-76.0
2023-08-10 18:33:30.520068,-76.0
2023-08-10 18:33:30.527759,-80.0
2023-08-10 18:33:30.535450,-78.0
2023-08-10 18:33:30.543141,-76.0
2023-08-10 18:33:30.550832,-76.0
2023-08-10 18:33:30.558523,-80.0
2023-08-10 18:33:30.566214,-83.0
2023-08-10 18:33:30.573905,-80.0
2023-08-10 18:33:30.581596,-76.0
2023-08-10 18:33:30.589287,-78.0
2023-08-10 18:33:30.596978,-78.0
2023-08-10 18:33:30.604669,-76.0
2023-08-10 18:33:30.612360,-73.0
2023-08-10 18:33:30.620051,-71.0
2023-08-10 18:33:30.627742,-69.0
2023-08-10 18:33:30.635433,-69.0
2023-08-10 18:33:30.643124,-66.0
2023-08-10 18:33:30.650815,-64.0
2023-08-10 18:33:30.658506,-64.0
2023-08-10 18:33:30.666197,-66.0
2023-08-10 18:33:30.673889,-61.0
2023-08-10 18:33:30.681580,-59.0
2023-08-10 18:33:30.689271,-61.0
2023-08-10 18:33:30.696962,-59.0
2023-08-10 18:33:30.704653,-59.0
2023-08-10 18:33:30.712344,-61.0
2023-08-10 18:33:30.720035,-57.0
2023-08-10 18:33:30.727726,-52.0
2023-08-10 18:33:30.735417,-52.0
2023-08-10 18:33:30.743108,-52.0
2023-08-10 18:33:30.750799,-52.0
2023-08-10 18:33:30.758490,-54.0
2023-08-10 18:33:30.766181,-52.0
2023-08-10 18:33:30.773872,-45.0
2023-08-10 18:33:30.781563,-40.0
2023-08-10 18:33:30.789254,-28.0
2023-08-10 18:33:30.796945,-9.0
2023-08-10 18:33:30.804636,-7.0
2023-08-10 18:33:30.812327,-16.0
2023-08-10 18:33:30.820018,-26.0
2023-08-10 18:33:30.827709,-40.0
2023-08-10 18:33:30.835400,-57.0
2023-08-10 18:33:30.843091,-61.0
2023-08-10 18:33:30.850782,-64.0
2023-08-10 18:33:30.858473,-64.0
2023-08-10 18:33:30.866164,-57.0
2023-08-10 18:33:30.873855,-45.0
2023-08-10 18:33:30.881546,-47.0
2023-08-10 18:33:30.889237,-64.0
2023-08-10 18:33:30.896928,-69.0
2023-08-10 18:33:30.904619,66.0
2023-08-10 18:33:30.912310,480.0
2023-08-10 18:33:30.920001,987.0
2023-08-10 18:33:30.927692,1078.0
2023-08-10 18:33:30.935383,345.0
2023-08-10 18:33:30.943074,-640.0
2023-08-10 18:33:30.950765,-702.0
2023-08-10 18:33:30.958456,-145.0
2023-08-10 18:33:30.966147,-57.0
2023-08-10 18:33:30.973838,-199.0
2023-08-10 18:33:30.981529,-119.0
2023-08-10 18:33:30.989220,-76.0
2023-08-10 18:33:30.996911,-121.0
2023-08-10 18:33:31.004602,-97.0
2023-08-10 18:33:31.012293,-69.0
2023-08-10 18:33:31.019985,-76.0
2023-08-10 18:33:31.027676,-76.0
2023-08-10 18:33:31.035367,-64.0
2023-08-10 18:33:31.043058,-59.0
2023-08-10 18:33:31.050749,-57.0
2023-08-10 18:33:31.058440,-49.0
2023-08-10 18:33:31.066131,-47.0
2023-08-10 18:33:31.073822,-42.0
2023-08-10 18:33:31.081513,-38.0
2023-08-10 18:33:31.089204,-26.0
2023-08-10 18:33:31.096895,-11.0
2023-08-10 18:33:31.104586,2.0
2023-08-10 18:33:31.112277,9.0
2023-08-10 18:33:31.119968,21.0
2023-08-10 18:33:31.127659,33.0
2023-08-10 18:33:31.135350,47.0
2023-08-10 18:33:31.143041,64.0
2023-08-10 18:33:31.150732,80.0
2023-08-10 18:33:31.158423,95.0
2023-08-10 18:33:31.166114,107.0
2023-08-10 18:33:31.173805,116.0
2023-08-10 18:33:31.181496,123.0
2023-08-10 18:33:31.189187,126.0
2023-08-10 18:33:31.196878,123.0
2023-08-10 18:33:31.204569,116.0
2023-08-10 18:33:31.212260,95.0
2023-08-10 18:33:31.219951,66.0
2023-08-10 18:33:31.227642,33.0
2023-08-10 18:33:31.235333,-7.0
2023-08-10 18:33:31.243024,-52.0
2023-08-10 18:33:31.250715,-90.0
2023-08-10 18:33:31.258406,-123.0
2023-08-10 18:33:31.266097,-149.0
2023-08-10 18:33:31.273788,-161.0
2023-08-10 18:33:31.281479,-164.0
2023-08-10 18:33:31.289170,-166.0
2023-08-10 18:33:31.296861,-169.0
2023-08-10 18:33:31.304552,-164.0
2023-08-10 18:33:31.312243,-159.0
2023-08-10 18:33:31.319934,-157.0
2023-08-10 18:33:31.327625,-154.0
2023-08-10 18:33:31.335316,-145.0
2023-08-10 18:33:31.343007,-138.0
2023-08-10 18:33:31.350698,-135.0
2023-08-10 18:33:31.358389,-133.0
2023-08-10 18:33:31.366081,-128.0
2023-08-10 18:33:31.373772,-111.0
2023-08-10 18:33:31.381463,-102.0
2023-08-10 18:33:31.389154,-107.0
2023-08-10 18:33:31.396845,-104.0
2023-08-10 18:33:31.404536,-97.0
2023-08-10 18:33:31.412227,-97.0
2023-08-10 18:33:31.419918,-99.0
2023-08-10 18:33:31.427609,-90.0
2023-08-10 18:33:31.435300,-88.0
2023-08-10 18:33:31.442991,-90.0
2023-08-10 18:33:31.450682,-92.0
2023-08-10 18:33:31.458373,-92.0
2023-08-10 18:33:31.466064,-92.0
2023-08-10 18:33:31.473755,-90.0
2023-08-10 18:33:31.481446,-90.0
2023-08-10 18:33:31.489137,-92.0
2023-08-10 18:33:31.496828,-95.0
2023-08-10 18:33:31.504519,-92.0
2023-08-10 18:33:31.512210,-90.0
2023-08-10 18:33:31.519901,-88.0
2023-08-10 18:33:31.527592,-85.0
2023-08-10 18:33:31.535283,-85.0
2023-08-10 18:33:31.542974,-85.0
2023-08-10 18:33:31.550665,-88.0
2023-08-10 18:33:31.558356,-85.0
2023-08-10 18:33:31.566047,-83.0
2023-08-10 18:33:31.573738,-88.0
2023-08-10 18:33:31.581429,-88.0
2023-08-10 18:33:31.589120,-83.0
2023-08-10 18:33:31.596811,-80.0
2023-08-10 18:33:31.604502,-85.0
2023-08-10 18:33:31.612193,-90.0
2023-08-10 18:33:31.619884,-90.0
2023-08-10 18:33:31.627575,-90.0
2023-08-10 18:33:31.635266,-88.0
2023-08-10 18:33:31.642957,-85.0
2023-08-10 18:33:31.650648,-80.0
2023-08-10 18:33:31.658339,-80.0
2023-08-10 18:33:31.666030,-78.0
2023-08-10 18:33:31.673721,-76.0
2023-08-10 18:33:31.681412,-78.0
2023-08-10 18:33:31.689103,-78.0
2023-08-10 18:33:31.696794,-71.0
2023-08-10 18:33:31.704486,-71.0
2023-08-10 18:33:31.712177,-76.0
2023-08-10 18:33:31.719868,-73.0
2023-08-10 18:33:31.727559,-71.0
2023-08-10 18:33:31.735250,-69.0
2023-08-10 18:33:31.742941,-69.0
2023-08-10 18:33:31.750632,-69.0
2023-08-10 18:33:31.758323,-66.0
2023-08-10 18:33:31.766014,-66.0
2023-08-10 18:33:31.773705,-66.0
2023-08-10 18:33:31.781396,-59.0
2023-08-10 18:33:31.789087,-52.0
2023-08-10 18:33:31.796778,-52.0
2023-08-10 18:33:31.804469,-47.0
2023-08-10 18:33:31.812160,-28.0
2023-08-10 18:33:31.819851,-23.0
2023-08-10 18:33:31.827542,-38.0
2023-08-10 18:33:31.835233,-45.0
2023-08-10 18:33:31.842924,-49.0
2023-08-10 18:33:31.850615,-61.0
2023-08-10 18:33:31.858306,-73.0
2023-08-10 18:33:31.865997,-71.0
2023-08-10 18:33:31.873688,-66.0
2023-08-10 18:33:31.881379,-66.0
2023-08-10 18:33:31.889070,-64.0
2023-08-10 18:33:31.896761,-57.0
2023-08-10 18:33:31.904452,-69.0
2023-08-10 18:33:31.912143,-78.0
2023-08-10 18:33:31.919834,54.0
2023-08-10 18:33:31.927525,461.0
2023-08-10 18:33:31.935216,964.0
2023-08-10 18:33:31.942907,1078.0
2023-08-10 18:33:31.950598,380.0
2023-08-10 18:33:31.958289,-626.0
2023-08-10 18:33:31.965980,-749.0
2023-08-10 18:33:31.973671,-183.0
2023-08-10 18:33:31.981362,-54.0
2023-08-10 18:33:31.989053,-204.0
2023-08-10 18:33:31.996744,-123.0
2023-08-10 18:33:32.004435,-61.0
2023-08-10 18:33:32.012126,-111.0
2023-08-10 18:33:32.019817,-99.0
2023-08-10 18:33:32.027508,-69.0
2023-08-10 18:33:32.035199,-80.0
2023-08-10 18:33:32.042890,-78.0
2023-08-10 18:33:32.050582,-61.0
2023-08-10 18:33:32.058273,-61.0
2023-08-10 18:33:32.065964,-66.0
2023-08-10 18:33:32.073655,-59.0
2023-08-10 18:33:32.081346,-49.0
2023-08-10 18:33:32.089037,-47.0
2023-08-10 18:33:32.096728,-40.0
2023-08-10 18:33:32.104419,-23.0
2023-08-10 18:33:32.112110,-14.0
2023-08-10 18:33:32.119801,-9.0
2023-08-10 18:33:32.127492,7.0
2023-08-10 18:33:32.135183,23.0
2023-08-10 18:33:32.142874,35.0
2023-08-10 18:33:32.150565,49.0
2023-08-10 18:33:32.158256,59.0
2023-08-10 18:33:32.165947,73.0
2023-08-10 18:33:32.173638,95.0
2023-08-10 18:33:32.181329,116.0
2023-08-10 18:33:32.189020,123.0
2023-08-10 18:33:32.196711,123.0
2023-08-10 18:33:32.204402,119.0
2023-08-10 18:33:32.212093,111.0
2023-08-10 18:33:32.219784,99.0
2023-08-10 18:33:32.227475,83.0
2023-08-10 18:33:32.235166,54.0
2023-08-10 18:33:32.242857,11.0
2023-08-10 18:33:32.250548,-38.0
2023-08-10 18:33:32.258239,-80.0
2023-08-10 18:33:32.265930,-116.0
2023-08-10 18:33:32.273621,-149.0
2023-08-10 18:33:32.281312,-173.0
2023-08-10 18:33:32.289003,-180.0
2023-08-10 18:33:32.296694,-190.0
2023-08-10 18:33:32.304385,-197.0
2023-08-10 18:33:32.312076,-199.0
2023-08-10 18:33:32.319767,-197.0
2023-08-10 18:33:32.327458,-195.0
2023-08-10 18:33:32.335149,-185.0
2023-08-10 18:33:32.342840,-178.0
2023-08-10 18:33:32.350531,-173.0
2023-08-10 18:33:32.358222,-161.0
2023-08-10 18:33:32.365913,-154.0
2023-08-10 18:33:32.373604,-152.0
2023-08-10 18:33:32.381295,-145.0
2023-08-10 18:33:32.388986,-138.0
2023-08-10 18:33:32.396678,-130.0
2023-08-10 18:33:32.404369,-121.0
2023-08-10 18:33:32.412060,-119.0
2023-08-10 18:33:32.419751,-114.0
2023-08-10 18:33:32.427442,-111.0
2023-08-10 18:33:32.435133,-107.0
2023-08-10 18:33:32.442824,-104.0
2023-08-10 18:33:32.450515,-102.0
2023-08-10 18:33:32.458206,-102.0
2023-08-10 18:33:32.465897,-104.0
2023-08-10 18:33:32.473588,-107.0
2023-08-10 18:33:32.481279,-104.0
2023-08-10 18:33:32.488970,-104.0
2023-08-10 18:33:32.496661,-104.0
2023-08-10 18:33:32.504352,-102.0
2023-08-10 18:33:32.512043,-102.0
2023-08-10 18:33:32.519734,-104.0
2023-08-10 18:33:32.527425,-99.0
2023-08-10 18:33:32.535116,-99.0
2023-08-10 18:33:32.542807,-99.0
2023-08-10 18:33:32.550498,-102.0
2023-08-10 18:33:32.558189,-102.0
2023-08-10 18:33:32.565880,-99.0
2023-08-10 18:33:32.573571,-102.0
2023-08-10 18:33:32.581262,-107.0
2023-08-10 18:33:32.588953,-104.0
2023-08-10 18:33:32.596644,-102.0
2023-08-10 18:33:32.604335,-99.0
2023-08-10 18:33:32.612026,-97.0
2023-08-10 18:33:32.619717,-95.0
2023-08-10 18:33:32.627408,-92.0
2023-08-10 18:33:32.635099,-90.0
2023-08-10 18:33:32.642790,-92.0
2023-08-10 18:33:32.650481,-92.0
2023-08-10 18:33:32.658172,-90.0
2023-08-10 18:33:32.665863,-85.0
2023-08-10 18:33:32.673554,-83.0
2023-08-10 18:33:32.681245,-83.0
2023-08-10 18:33:32.688936,-83.0
2023-08-10 18:33:32.696627,-90.0
2023-08-10 18:33:32.704318,-95.0
2023-08-10 18:33:32.712009,-88.0
2023-08-10 18:33:32.719700,-83.0
2023-08-10 18:33:32.727391,-83.0
2023-08-10 18:33:32.735083,-83.0
2023-08-10 18:33:32.742774,-85.0
2023-08-10 18:33:32.750465,-85.0
2023-08-10 18:33:32.758156,-80.0
2023-08-10 18:33:32.765847,-73.0
2023-08-10 18:33:32.773538,-71.0
2023-08-10 18:33:32.781229,-71.0
2023-08-10 18:33:32.788920,-73.0
2023-08-10 18:33:32.796611,-73.0
2023-08-10 18:33:32.804302,-73.0
2023-08-10 18:33:32.811993,-69.0
2023-08-10 18:33:32.819684,-66.0
2023-08-10 18:33:32.827375,-69.0
2023-08-10 18:33:32.835066,-71.0
2023-08-10 18:33:32.842757,-66.0
2023-08-10 18:33:32.850448,-54.0
2023-08-10 18:33:32.858139,-49.0
2023-08-10 18:33:32.865830,-49.0
2023-08-10 18:33:32.873521,-30.0
2023-08-10 18:33:32.881212,-16.0
2023-08-10 18:33:32.888903,-26.0
2023-08-10 18:33:32.896594,-35.0
2023-08-10 18:33:32.904285,-35.0
2023-08-10 18:33:32.911976,-54.0
2023-08-10 18:33:32.919667,-76.0
2023-08-10 18:33:32.927358,-73.0
2023-08-10 18:33:32.935049,-69.0
2023-08-10 18:33:32.942740,-71.0
2023-08-10 18:33:32.950431,-66.0
2023-08-10 18:33:32.958122,-59.0
2023-08-10 18:33:32.965813,-66.0
2023-08-10 18:33:32.973504,-85.0
2023-08-10 18:33:32.981195,-40.0
2023-08-10 18:33:32.988886,247.0
2023-08-10 18:33:32.996577,773.0
2023-08-10 18:33:33.004268,1156.0
2023-08-10 18:33:33.011959,852.0
2023-08-10 18:33:33.019650,-183.0
2023-08-10 18:33:33.027341,-823.0
2023-08-10 18:33:33.035032,-426.0
2023-08-10 18:33:33.042723,-40.0
2023-08-10 18:33:33.050414,-169.0
2023-08-10 18:33:33.058105,-195.0
2023-08-10 18:33:33.065796,-85.0
2023-08-10 18:33:33.073487,-111.0
2023-08-10 18:33:33.081179,-133.0
2023-08-10 18:33:33.088870,-90.0
2023-08-10 18:33:33.096561,-85.0
2023-08-10 18:33:33.104252,-97.0
2023-08-10 18:33:33.111943,-80.0
2023-08-10 18:33:33.119634,-71.0
2023-08-10 18:33:33.127325,-71.0
2023-08-10 18:33:33.135016,-59.0
2023-08-10 18:33:33.142707,-49.0
2023-08-10 18:33:33.150398,-47.0
2023-08-10 18:33:33.158089,-42.0
2023-08-10 18:33:33.165780,-30.0
2023-08-10 18:33:33.173471,-19.0
2023-08-10 18:33:33.181162,-9.0
2023-08-10 18:33:33.188853,0.0
2023-08-10 18:33:33.196544,11.0
2023-08-10 18:33:33.204235,28.0
2023-08-10 18:33:33.211926,42.0
2023-08-10 18:33:33.219617,59.0
2023-08-10 18:33:33.227308,78.0
2023-08-10 18:33:33.234999,97.0
2023-08-10 18:33:33.242690,111.0
2023-08-10 18:33:33.250381,126.0
2023-08-10 18:33:33.258072,138.0
2023-08-10 18:33:33.265763,142.0
2023-08-10 18:33:33.273454,142.0
2023-08-10 18:33:33.281145,135.0
2023-08-10 18:33:33.288836,119.0
2023-08-10 18:33:33.296527,90.0
2023-08-10 18:33:33.304218,54.0
2023-08-10 18:33:33.311909,11.0
2023-08-10 18:33:33.319600,-38.0
2023-08-10 18:33:33.327291,-92.0
2023-08-10 18:33:33.334982,-130.0
2023-08-10 18:33:33.342673,-152.0
2023-08-10 18:33:33.350364,-166.0
2023-08-10 18:33:33.358055,-178.0
2023-08-10 18:33:33.365746,-183.0
2023-08-10 18:33:33.373437,-185.0
2023-08-10 18:33:33.381128,-185.0
2023-08-10 18:33:33.388819,-180.0
2023-08-10 18:33:33.396510,-176.0
2023-08-10 18:33:33.404201,-169.0
2023-08-10 18:33:33.411892,-164.0
2023-08-10 18:33:33.419583,-159.0
2023-08-10 18:33:33.427275,-154.0
2023-08-10 18:33:33.434966,-145.0
2023-08-10 18:33:33.442657,-135.0
2023-08-10 18:33:33.450348,-130.0
2023-08-10 18:33:33.458039,-128.0
2023-08-10 18:33:33.465730,-121.0
2023-08-10 18:33:33.473421,-114.0
2023-08-10 18:33:33.481112,-109.0
2023-08-10 18:33:33.488803,-104.0
2023-08-10 18:33:33.496494,-95.0
2023-08-10 18:33:33.504185,-90.0
2023-08-10 18:33:33.511876,-92.0
2023-08-10 18:33:33.519567,-92.0
2023-08-10 18:33:33.527258,-92.0
2023-08-10 18:33:33.534949,-95.0
2023-08-10 18:33:33.542640,-97.0
2023-08-10 18:33:33.550331,-99.0
2023-08-10 18:33:33.558022,-99.0
2023-08-10 18:33:33.565713,-102.0
2023-08-10 18:33:33.573404,-102.0
2023-08-10 18:33:33.581095,-99.0
2023-08-10 18:33:33.588786,-107.0
2023-08-10 18:33:33.596477,-109.0
2023-08-10 18:33:33.604168,-104.0
2023-08-10 18:33:33.611859,-99.0
2023-08-10 18:33:33.619550,-104.0
2023-08-10 18:33:33.627241,-104.0
2023-08-10 18:33:33.634932,-97.0
2023-08-10 18:33:33.642623,-99.0
2023-08-10 18:33:33.650314,-99.0
2023-08-10 18:33:33.658005,-92.0
2023-08-10 18:33:33.665696,-90.0
2023-08-10 18:33:33.673387,-90.0
2023-08-10 18:33:33.681078,-90.0
2023-08-10 18:33:33.688769,-88.0
2023-08-10 18:33:33.696460,-90.0
2023-08-10 18:33:33.704151,-90.0
2023-08-10 18:33:33.711842,-85.0
2023-08-10 18:33:33.719533,-83.0
2023-08-10 18:33:33.727224,-85.0
2023-08-10 18:33:33.734915,-83.0
2023-08-10 18:33:33.742606,-78.0
2023-08-10 18:33:33.750297,-76.0
2023-08-10 18:33:33.757988,-78.0
2023-08-10 18:33:33.765680,-76.0
2023-08-10 18:33:33.773371,-76.0
2023-08-10 18:33:33.781062,-76.0
2023-08-10 18:33:33.788753,-73.0
2023-08-10 18:33:33.796444,-73.0
2023-08-10 18:33:33.804135,-73.0
2023-08-10 18:33:33.811826,-73.0
2023-08-10 18:33:33.819517,-76.0
2023-08-10 18:33:33.827208,-78.0
2023-08-10 18:33:33.834899,-73.0
2023-08-10 18:33:33.842590,-71.0
2023-08-10 18:33:33.850281,-76.0
2023-08-10 18:33:33.857972,-76.0
2023-08-10 18:33:33.865663,-73.0
2023-08-10 18:33:33.873354,-76.0
2023-08-10 18:33:33.881045,-71.0
2023-08-10 18:33:33.888736,-69.0
2023-08-10 18:33:33.896427,-69.0
2023-08-10 18:33:33.904118,-69.0
2023-08-10 18:33:33.911809,-64.0
2023-08-10 18:33:33.919500,-61.0
2023-08-10 18:33:33.927191,-59.0
2023-08-10 18:33:33.934882,-57.0
2023-08-10 18:33:33.942573,-57.0
2023-08-10 18:33:33.950264,-54.0
2023-08-10 18:33:33.957955,-54.0
2023-08-10 18:33:33.965646,-52.0
2023-08-10 18:33:33.973337,-30.0
2023-08-10 18:33:33.981028,-11.0
2023-08-10 18:33:33.988719,-14.0
2023-08-10 18:33:33.996410,-26.0
2023-08-10 18:33:34.004101,-33.0
2023-08-10 18:33:34.011792,-47.0
2023-08-10 18:33:34.019483,-61.0
2023-08-10 18:33:34.027174,-71.0
2023-08-10 18:33:34.034865,-76.0
2023-08-10 18:33:34.042556,-76.0
2023-08-10 18:33:34.050247,-71.0
2023-08-10 18:33:34.057938,-69.0
2023-08-10 18:33:34.065629,-71.0
2023-08-10 18:33:34.073320,-90.0
2023-08-10 18:33:34.081011,-90.0
2023-08-10 18:33:34.088702,73.0
2023-08-10 18:33:34.096393,518.0
2023-08-10 18:33:34.104084,1028.0
2023-08-10 18:33:34.111776,1073.0
2023-08-10 18:33:34.119467,271.0
2023-08-10 18:33:34.127158,-695.0
2023-08-10 18:33:34.134849,-680.0
2023-08-10 18:33:34.142540,-140.0
2023-08-10 18:33:34.150231,-99.0
2023-08-10 18:33:34.157922,-223.0
2023-08-10 18:33:34.165613,-126.0
2023-08-10 18:33:34.173304,-95.0
2023-08-10 18:33:34.180995,-145.0
2023-08-10 18:33:34.188686,-114.0
2023-08-10 18:33:34.196377,-83.0
2023-08-10 18:33:34.204068,-95.0
2023-08-10 18:33:34.211759,-92.0
2023-08-10 18:33:34.219450,-76.0
2023-08-10 18:33:34.227141,-73.0
2023-08-10 18:33:34.234832,-73.0
2023-08-10 18:33:34.242523,-61.0
2023-08-10 18:33:34.250214,-52.0
2023-08-10 18:33:34.257905,-49.0
2023-08-10 18:33:34.265596,-42.0
2023-08-10 18:33:34.273287,-30.0
2023-08-10 18:33:34.280978,-23.0
2023-08-10 18:33:34.288669,-14.0
2023-08-10 18:33:34.296360,4.0
2023-08-10 18:33:34.304051,14.0
2023-08-10 18:33:34.311742,19.0
2023-08-10 18:33:34.319433,40.0
2023-08-10 18:33:34.327124,64.0
2023-08-10 18:33:34.334815,78.0
2023-08-10 18:33:34.342506,92.0
2023-08-10 18:33:34.350197,109.0
2023-08-10 18:33:34.357888,119.0
2023-08-10 18:33:34.365579,119.0
2023-08-10 18:33:34.373270,121.0
2023-08-10 18:33:34.380961,119.0
2023-08-10 18:33:34.388652,107.0
2023-08-10 18:33:34.396343,90.0
2023-08-10 18:33:34.404034,59.0
2023-08-10 18:33:34.411725,19.0
2023-08-10 18:33:34.419416,-23.0
2023-08-10 18:33:34.427107,-69.0
2023-08-10 18:33:34.434798,-111.0
2023-08-10 18:33:34.442489,-142.0
2023-08-10 18:33:34.450180,-166.0
2023-08-10 18:33:34.457872,-178.0
2023-08-10 18:33:34.465563,-180.0
2023-08-10 18:33:34.473254,-185.0
2023-08-10 18:33:34.480945,-185.0
2023-08-10 18:33:34.488636,-180.0
2023-08-10 18:33:34.496327,-176.0
2023-08-10 18:33:34.504018,-169.0
2023-08-10 18:33:34.511709,-161.0
2023-08-10 18:33:34.519400,-157.0
2023-08-10 18:33:34.527091,-159.0
2023-08-10 18:33:34.534782,-157.0
2023-08-10 18:33:34.542473,-145.0
2023-08-10 18:33:34.550164,-138.0
2023-08-10 18:33:34.557855,-130.0
2023-08-10 18:33:34.565546,-123.0
2023-08-10 18:33:34.573237,-119.0
2023-08-10 18:33:34.580928,-114.0
2023-08-10 18:33:34.588619,-114.0
2023-08-10 18:33:34.596310,-116.0
2023-08-10 18:33:34.604001,-107.0
2023-08-10 18:33:34.611692,-99.0
2023-08-10 18:33:34.619383,-97.0
2023-08-10 18:33:34.627074,-102.0
2023-08-10 18:33:34.634765,-104.0
2023-08-10 18:33:34.642456,-99.0
2023-08-10 18:33:34.650147,-97.0
2023-08-10 18:33:34.657838,-102.0
2023-08-10 18:33:34.665529,-102.0
2023-08-10 18:33:34.673220,-99.0
2023-08-10 18:33:34.680911,-97.0
2023-08-10 18:33:34.688602,-97.0
2023-08-10 18:33:34.696293,-99.0
2023-08-10 18:33:34.703984,-97.0
2023-08-10 18:33:34.711675,-92.0
2023-08-10 18:33:34.719366,-95.0
2023-08-10 18:33:34.727057,-92.0
2023-08-10 18:33:34.734748,-88.0
2023-08-10 18:33:34.742439,-88.0
2023-08-10 18:33:34.750130,-85.0
2023-08-10 18:33:34.757821,-83.0
2023-08-10 18:33:34.765512,-85.0
2023-08-10 18:33:34.773203,-90.0
2023-08-10 18:33:34.780894,-85.0
2023-08-10 18:33:34.788585,-78.0
2023-08-10 18:33:34.796277,-78.0
2023-08-10 18:33:34.803968,-78.0
2023-08-10 18:33:34.811659,-76.0
2023-08-10 18:33:34.819350,-80.0
2023-08-10 18:33:34.827041,-78.0
2023-08-10 18:33:34.834732,-69.0
2023-08-10 18:33:34.842423,-66.0
2023-08-10 18:33:34.850114,-71.0
2023-08-10 18:33:34.857805,-73.0
2023-08-10 18:33:34.865496,-73.0
2023-08-10 18:33:34.873187,-71.0
2023-08-10 18:33:34.880878,-66.0
2023-08-10 18:33:34.888569,-66.0
2023-08-10 18:33:34.896260,-69.0
2023-08-10 18:33:34.903951,-69.0
2023-08-10 18:33:34.911642,-64.0
2023-08-10 18:33:34.919333,-64.0
2023-08-10 18:33:34.927024,-64.0
2023-08-10 18:33:34.934715,-61.0
2023-08-10 18:33:34.942406,-61.0
2023-08-10 18:33:34.950097,-61.0
2023-08-10 18:33:34.957788,-59.0
2023-08-10 18:33:34.965479,-57.0
2023-08-10 18:33:34.973170,-57.0
2023-08-10 18:33:34.980861,-59.0
2023-08-10 18:33:34.988552,-64.0
2023-08-10 18:33:34.996243,-69.0
2023-08-10 18:33:35.003934,-69.0
2023-08-10 18:33:35.011625,-66.0
2023-08-10 18:33:35.019316,-73.0
2023-08-10 18:33:35.027007,-71.0
2023-08-10 18:33:35.034698,-59.0
2023-08-10 18:33:35.042389,-59.0
2023-08-10 18:33:35.050080,-64.0
2023-08-10 18:33:35.057771,-54.0
2023-08-10 18:33:35.065462,-28.0
2023-08-10 18:33:35.073153,-21.0
2023-08-10 18:33:35.080844,-33.0
2023-08-10 18:33:35.088535,-47.0
2023-08-10 18:33:35.096226,-57.0
2023-08-10 18:33:35.103917,-71.0
2023-08-10 18:33:35.111608,-80.0
2023-08-10 18:33:35.119299,-78.0
2023-08-10 18:33:35.126990,-78.0
2023-08-10 18:33:35.134681,-78.0
2023-08-10 18:33:35.142373,-73.0
2023-08-10 18:33:35.150064,-66.0
2023-08-10 18:33:35.157755,-76.0
2023-08-10 18:33:35.165446,-97.0
2023-08-10 18:33:35.173137,0.0
2023-08-10 18:33:35.180828,361.0
2023-08-10 18:33:35.188519,866.0
2023-08-10 18:33:35.196210,1106.0
2023-08-10 18:33:35.203901,590.0
2023-08-10 18:33:35.211592,-457.0
2023-08-10 18:33:35.219283,-804.0
2023-08-10 18:33:35.226974,-271.0
2023-08-10 18:33:35.234665,-42.0
2023-08-10 18:33:35.242356,-207.0
2023-08-10 18:33:35.250047,-157.0
2023-08-10 18:33:35.257738,-76.0
2023-08-10 18:33:35.265429,-130.0
2023-08-10 18:33:35.273120,-128.0
2023-08-10 18:33:35.280811,-80.0
2023-08-10 18:33:35.288502,-90.0
2023-08-10 18:33:35.296193,-97.0
2023-08-10 18:33:35.303884,-76.0
2023-08-10 18:33:35.311575,-73.0
2023-08-10 18:33:35.319266,-76.0
2023-08-10 18:33:35.326957,-64.0
2023-08-10 18:33:35.334648,-52.0
2023-08-10 18:33:35.342339,-45.0
2023-08-10 18:33:35.350030,-40.0
2023-08-10 18:33:35.357721,-33.0
2023-08-10 18:33:35.365412,-23.0
2023-08-10 18:33:35.373103,-11.0
2023-08-10 18:33:35.380794,0.0
2023-08-10 18:33:35.388485,11.0
2023-08-10 18:33:35.396176,26.0
2023-08-10 18:33:35.403867,38.0
2023-08-10 18:33:35.411558,54.0
2023-08-10 18:33:35.419249,69.0
2023-08-10 18:33:35.426940,85.0
2023-08-10 18:33:35.434631,99.0
2023-08-10 18:33:35.442322,109.0
2023-08-10 18:33:35.450013,116.0
2023-08-10 18:33:35.457704,121.0
2023-08-10 18:33:35.465395,119.0
2023-08-10 18:33:35.473086,109.0
2023-08-10 18:33:35.480777,90.0
2023-08-10 18:33:35.488469,61.0
2023-08-10 18:33:35.496160,30.0
2023-08-10 18:33:35.503851,-11.0
2023-08-10 18:33:35.511542,-59.0
2023-08-10 18:33:35.519233,-97.0
2023-08-10 18:33:35.526924,-133.0
2023-08-10 18:33:35.534615,-171.0
2023-08-10 18:33:35.542306,-185.0
2023-08-10 18:33:35.549997,-185.0
2023-08-10 18:33:35.557688,-192.0
2023-08-10 18:33:35.565379,-197.0
2023-08-10 18:33:35.573070,-188.0
2023-08-10 18:33:35.580761,-183.0
2023-08-10 18:33:35.588452,-183.0
2023-08-10 18:33:35.596143,-180.0
2023-08-10 18:33:35.603834,-178.0
2023-08-10 18:33:35.611525,-169.0
2023-08-10 18:33:35.619216,-159.0
2023-08-10 18:33:35.626907,-157.0
2023-08-10 18:33:35.634598,-147.0
2023-08-10 18:33:35.642289,-140.0
2023-08-10 18:33:35.649980,-135.0
2023-08-10 18:33:35.657671,-130.0
2023-08-10 18:33:35.665362,-126.0
2023-08-10 18:33:35.673053,-126.0
2023-08-10 18:33:35.680744,-119.0
2023-08-10 18:33:35.688435,-114.0
2023-08-10 18:33:35.696126,-114.0
2023-08-10 18:33:35.703817,-111.0
2023-08-10 18:33:35.711508,-107.0
2023-08-10 18:33:35.719199,-107.0
2023-08-10 18:33:35.726890,-107.0
2023-08-10 18:33:35.734581,-107.0
2023-08-10 18:33:35.742272,-104.0
2023-08-10 18:33:35.749963,-109.0
2023-08-10 18:33:35.757654,-111.0
2023-08-10 18:33:35.765345,-109.0
2023-08-10 18:33:35.773036,-104.0
2023-08-10 18:33:35.780727,-102.0
2023-08-10 18:33:35.788418,-102.0
2023-08-10 18:33:35.796109,-102.0
2023-08-10 18:33:35.803800,-102.0
2023-08-10 18:33:35.811491,-102.0
2023-08-10 18:33:35.819182,-95.0
2023-08-10 18:33:35.826874,-90.0
2023-08-10 18:33:35.834565,-92.0
2023-08-10 18:33:35.842256,-92.0
2023-08-10 18:33:35.849947,-90.0
2023-08-10 18:33:35.857638,-90.0
2023-08-10 18:33:35.865329,-83.0
2023-08-10 18:33:35.873020,-80.0
2023-08-10 18:33:35.880711,-85.0
2023-08-10 18:33:35.888402,-85.0
2023-08-10 18:33:35.896093,-83.0
2023-08-10 18:33:35.903784,-83.0
2023-08-10 18:33:35.911475,-78.0
2023-08-10 18:33:35.919166,-73.0
2023-08-10 18:33:35.926857,-73.0
2023-08-10 18:33:35.934548,-73.0
2023-08-10 18:33:35.942239,-76.0
2023-08-10 18:33:35.949930,-78.0
2023-08-10 18:33:35.957621,-76.0
2023-08-10 18:33:35.965312,-71.0
2023-08-10 18:33:35.973003,-71.0
2023-08-10 18:33:35.980694,-73.0
2023-08-10 18:33:35.988385,-69.0
2023-08-10 18:33:35.996076,-66.0
2023-08-10 18:33:36.003767,-71.0
2023-08-10 18:33:36.011458,-71.0
2023-08-10 18:33:36.019149,-66.0
2023-08-10 18:33:36.026840,-66.0
2023-08-10 18:33:36.034531,-64.0
2023-08-10 18:33:36.042222,-57.0
2023-08-10 18:33:36.049913,-59.0
2023-08-10 18:33:36.057604,-59.0
2023-08-10 18:33:36.065295,-61.0
2023-08-10 18:33:36.072986,-71.0
2023-08-10 18:33:36.080677,-71.0
2023-08-10 18:33:36.088368,-64.0
2023-08-10 18:33:36.096059,-69.0
2023-08-10 18:33:36.103750,-73.0
2023-08-10 18:33:36.111441,-66.0
2023-08-10 18:33:36.119132,-59.0
2023-08-10 18:33:36.126823,-49.0
2023-08-10 18:33:36.134514,-30.0
2023-08-10 18:33:36.142205,-19.0
2023-08-10 18:33:36.149896,-28.0
2023-08-10 18:33:36.157587,-38.0
2023-08-10 18:33:36.165278,-49.0
2023-08-10 18:33:36.172970,-64.0
2023-08-10 18:33:36.180661,-73.0
2023-08-10 18:33:36.188352,-69.0
2023-08-10 18:33:36.196043,-64.0
2023-08-10 18:33:36.203734,-69.0
2023-08-10 18:33:36.211425,-66.0
2023-08-10 18:33:36.219116,-57.0
2023-08-10 18:33:36.226807,-66.0
2023-08-10 18:33:36.234498,-90.0
2023-08-10 18:33:36.242189,-4.0
2023-08-10 18:33:36.249880,354.0
2023-08-10 18:33:36.257571,890.0
2023-08-10 18:33:36.265262,1154.0
2023-08-10 18:33:36.272953,633.0
2023-08-10 18:33:36.280644,-426.0
2023-08-10 18:33:36.288335,-795.0
2023-08-10 18:33:36.296026,-278.0
2023-08-10 18:33:36.303717,-42.0
2023-08-10 18:33:36.311408,-204.0
2023-08-10 18:33:36.319099,-166.0
2023-08-10 18:33:36.326790,-78.0
2023-08-10 18:33:36.334481,-119.0
2023-08-10 18:33:36.342172,-123.0
2023-08-10 18:33:36.349863,-83.0
2023-08-10 18:33:36.357554,-85.0
2023-08-10 18:33:36.365245,-90.0
2023-08-10 18:33:36.372936,-73.0
2023-08-10 18:33:36.380627,-69.0
2023-08-10 18:33:36.388318,-64.0
2023-08-10 18:33:36.396009,-52.0
2023-08-10 18:33:36.403700,-45.0
2023-08-10 18:33:36.411391,-38.0
2023-08-10 18:33:36.419082,-28.0
2023-08-10 18:33:36.426773,-21.0
2023-08-10 18:33:36.434464,-14.0
2023-08-10 18:33:36.442155,0.0
2023-08-10 18:33:36.449846,11.0
2023-08-10 18:33:36.457537,19.0
2023-08-10 18:33:36.465228,33.0
2023-08-10 18:33:36.472919,54.0
2023-08-10 18:33:36.480610,69.0
2023-08-10 18:33:36.488301,78.0
2023-08-10 18:33:36.495992,90.0
2023-08-10 18:33:36.503683,107.0
2023-08-10 18:33:36.511374,121.0
2023-08-10 18:33:36.519066,128.0
2023-08-10 18:33:36.526757,128.0
2023-08-10 18:33:36.534448,126.0
2023-08-10 18:33:36.542139,119.0
2023-08-10 18:33:36.549830,102.0
2023-08-10 18:33:36.557521,76.0
2023-08-10 18:33:36.565212,45.0
2023-08-10 18:33:36.572903,0.0
2023-08-10 18:33:36.580594,-45.0
2023-08-10 18:33:36.588285,-83.0
2023-08-10 18:33:36.595976,-116.0
2023-08-10 18:33:36.603667,-147.0
2023-08-10 18:33:36.611358,-166.0
2023-08-10 18:33:36.619049,-171.0
2023-08-10 18:33:36.626740,-176.0
2023-08-10 18:33:36.634431,-176.0
2023-08-10 18:33:36.642122,-173.0
2023-08-10 18:33:36.649813,-176.0
2023-08-10 18:33:36.657504,-178.0
2023-08-10 18:33:36.665195,-173.0
2023-08-10 18:33:36.672886,-164.0
2023-08-10 18:33:36.680577,-157.0
2023-08-10 18:33:36.688268,-152.0
2023-08-10 18:33:36.695959,-147.0
2023-08-10 18:33:36.703650,-142.0
2023-08-10 18:33:36.711341,-133.0
2023-08-10 18:33:36.719032,-126.0
2023-08-10 18:33:36.726723,-121.0
2023-08-10 18:33:36.734414,-116.0
2023-08-10 18:33:36.742105,-111.0
2023-08-10 18:33:36.749796,-111.0
2023-08-10 18:33:36.757487,-109.0
2023-08-10 18:33:36.765178,-99.0
2023-08-10 18:33:36.772869,-92.0
2023-08-10 18:33:36.780560,-97.0
2023-08-10 18:33:36.788251,-99.0
2023-08-10 18:33:36.795942,-99.0
2023-08-10 18:33:36.803633,-102.0
2023-08-10 18:33:36.811324,-102.0
2023-08-10 18:33:36.819015,-102.0
2023-08-10 18:33:36.826706,-102.0
2023-08-10 18:33:36.834397,-97.0
2023-08-10 18:33:36.842088,-92.0
2023-08-10 18:33:36.849779,-97.0
2023-08-10 18:33:36.857471,-95.0
2023-08-10 18:33:36.865162,-92.0
2023-08-10 18:33:36.872853,-92.0
2023-08-10 18:33:36.880544,-92.0
2023-08-10 18:33:36.888235,-90.0
2023-08-10 18:33:36.895926,-90.0
2023-08-10 18:33:36.903617,-90.0
2023-08-10 18:33:36.911308,-88.0
2023-08-10 18:33:36.918999,-78.0
2023-08-10 18:33:36.926690,-76.0
2023-08-10 18:33:36.934381,-80.0
2023-08-10 18:33:36.942072,-80.0
2023-08-10 18:33:36.949763,-73.0
2023-08-10 18:33:36.957454,-73.0
2023-08-10 18:33:36.965145,-73.0
2023-08-10 18:33:36.972836,-71.0
2023-08-10 18:33:36.980527,-71.0
2023-08-10 18:33:36.988218,-73.0
2023-08-10 18:33:36.995909,-76.0
2023-08-10 18:33:37.003600,-73.0
2023-08-10 18:33:37.011291,-66.0
2023-08-10 18:33:37.018982,-64.0
2023-08-10 18:33:37.026673,-66.0
2023-08-10 18:33:37.034364,-64.0
2023-08-10 18:33:37.042055,-61.0
2023-08-10 18:33:37.049746,-59.0
2023-08-10 18:33:37.057437,-59.0
2023-08-10 18:33:37.065128,-59.0
2023-08-10 18:33:37.072819,-57.0
2023-08-10 18:33:37.080510,-54.0
2023-08-10 18:33:37.088201,-57.0
2023-08-10 18:33:37.095892,-59.0
2023-08-10 18:33:37.103583,-61.0
2023-08-10 18:33:37.111274,-57.0
2023-08-10 18:33:37.118965,-52.0
2023-08-10 18:33:37.126656,-54.0
2023-08-10 18:33:37.134347,-54.0
2023-08-10 18:33:37.142038,-49.0
2023-08-10 18:33:37.149729,-54.0
2023-08-10 18:33:37.157420,-52.0
2023-08-10 18:33:37.165111,-49.0
2023-08-10 18:33:37.172802,-52.0
2023-08-10 18:33:37.180493,-49.0
2023-08-10 18:33:37.188184,-49.0
2023-08-10 18:33:37.195875,-57.0
2023-08-10 18:33:37.203567,-61.0
2023-08-10 18:33:37.211258,-47.0
2023-08-10 18:33:37.218949,-28.0
2023-08-10 18:33:37.226640,-19.0
2023-08-10 18:33:37.234331,-23.0
2023-08-10 18:33:37.242022,-33.0
2023-08-10 18:33:37.249713,-40.0
2023-08-10 18:33:37.257404,-57.0
2023-08-10 18:33:37.265095,-69.0
2023-08-10 18:33:37.272786,-71.0
2023-08-10 18:33:37.280477,-69.0
2023-08-10 18:33:37.288168,-71.0
2023-08-10 18:33:37.295859,-69.0
2023-08-10 18:33:37.303550,-64.0
2023-08-10 18:33:37.311241,-66.0
2023-08-10 18:33:37.318932,-83.0
2023-08-10 18:33:37.326623,-71.0
2023-08-10 18:33:37.334314,140.0
2023-08-10 18:33:37.342005,626.0
2023-08-10 18:33:37.349696,1094.0
2023-08-10 18:33:37.357387,1004.0
2023-08-10 18:33:37.365078,99.0
2023-08-10 18:33:37.372769,-752.0
2023-08-10 18:33:37.380460,-568.0
2023-08-10 18:33:37.388151,-71.0
2023-08-10 18:33:37.395842,-109.0
2023-08-10 18:33:37.403533,-209.0
2023-08-10 18:33:37.411224,-95.0
2023-08-10 18:33:37.418915,-76.0
2023-08-10 18:33:37.426606,-121.0
2023-08-10 18:33:37.434297,-90.0
2023-08-10 18:33:37.441988,-69.0
2023-08-10 18:33:37.449679,-83.0
2023-08-10 18:33:37.457370,-78.0
2023-08-10 18:33:37.465061,-64.0
2023-08-10 18:33:37.472752,-61.0
2023-08-10 18:33:37.480443,-57.0
2023-08-10 18:33:37.488134,-42.0
2023-08-10 18:33:37.495825,-30.0
2023-08-10 18:33:37.503516,-26.0
2023-08-10 18:33:37.511207,-19.0
2023-08-10 18:33:37.518898,-9.0
2023-08-10 18:33:37.526589,-2.0
2023-08-10 18:33:37.534280,11.0
2023-08-10 18:33:37.541971,28.0
2023-08-10 18:33:37.549663,42.0
2023-08-10 18:33:37.557354,52.0
2023-08-10 18:33:37.565045,69.0
2023-08-10 18:33:37.572736,88.0
2023-08-10 18:33:37.580427,99.0
2023-08-10 18:33:37.588118,109.0
2023-08-10 18:33:37.595809,123.0
2023-08-10 18:33:37.603500,126.0
2023-08-10 18:33:37.611191,121.0
2023-08-10 18:33:37.618882,121.0
2023-08-10 18:33:37.626573,119.0
2023-08-10 18:33:37.634264,104.0
2023-08-10 18:33:37.641955,85.0
2023-08-10 18:33:37.649646,57.0
2023-08-10 18:33:37.657337,16.0
2023-08-10 18:33:37.665028,-28.0
2023-08-10 18:33:37.672719,-66.0
2023-08-10 18:33:37.680410,-102.0
2023-08-10 18:33:37.688101,-130.0
2023-08-10 18:33:37.695792,-147.0
2023-08-10 18:33:37.703483,-161.0
2023-08-10 18:33:37.711174,-171.0
2023-08-10 18:33:37.718865,-171.0
2023-08-10 18:33:37.726556,-173.0
2023-08-10 18:33:37.734247,-180.0
2023-08-10 18:33:37.741938,-180.0
2023-08-10 18:33:37.749629,-169.0
2023-08-10 18:33:37.757320,-159.0
2023-08-10 18:33:37.765011,-157.0
2023-08-10 18:33:37.772702,-152.0
2023-08-10 18:33:37.780393,-142.0
2023-08-10 18:33:37.788084,-133.0
2023-08-10 18:33:37.795775,-126.0
2023-08-10 18:33:37.803466,-119.0
2023-08-10 18:33:37.811157,-114.0
2023-08-10 18:33:37.818848,-109.0
2023-08-10 18:33:37.826539,-104.0
2023-08-10 18:33:37.834230,-102.0
2023-08-10 18:33:37.841921,-99.0
2023-08-10 18:33:37.849612,-92.0
2023-08-10 18:33:37.857303,-88.0
2023-08-10 18:33:37.864994,-83.0
2023-08-10 18:33:37.872685,-85.0
2023-08-10 18:33:37.880376,-88.0
2023-08-10 18:33:37.888067,-90.0
2023-08-10 18:33:37.895759,-90.0
2023-08-10 18:33:37.903450,-90.0
2023-08-10 18:33:37.911141,-90.0
2023-08-10 18:33:37.918832,-88.0
2023-08-10 18:33:37.926523,-85.0
2023-08-10 18:33:37.934214,-83.0
2023-08-10 18:33:37.941905,-85.0
2023-08-10 18:33:37.949596,-88.0
2023-08-10 18:33:37.957287,-85.0
2023-08-10 18:33:37.964978,-80.0
2023-08-10 18:33:37.972669,-80.0
2023-08-10 18:33:37.980360,-83.0
2023-08-10 18:33:37.988051,-78.0
2023-08-10 18:33:37.995742,-76.0
2023-08-10 18:33:38.003433,-78.0
2023-08-10 18:33:38.011124,-78.0
2023-08-10 18:33:38.018815,-78.0
2023-08-10 18:33:38.026506,-76.0
2023-08-10 18:33:38.034197,-76.0
2023-08-10 18:33:38.041888,-76.0
2023-08-10 18:33:38.049579,-73.0
2023-08-10 18:33:38.057270,-76.0
2023-08-10 18:33:38.064961,-71.0
2023-08-10 18:33:38.072652,-64.0
2023-08-10 18:33:38.080343,-61.0
2023-08-10 18:33:38.088034,-64.0
2023-08-10 18:33:38.095725,-66.0
2023-08-10 18:33:38.103416,-69.0
2023-08-10 18:33:38.111107,-69.0
2023-08-10 18:33:38.118798,-71.0
2023-08-10 18:33:38.126489,-66.0
2023-08-10 18:33:38.134180,-66.0
2023-08-10 18:33:38.141871,-69.0
2023-08-10 18:33:38.149562,-66.0
2023-08-10 18:33:38.157253,-64.0
2023-08-10 18:33:38.164944,-64.0
2023-08-10 18:33:38.172635,-64.0
2023-08-10 18:33:38.180326,-64.0
2023-08-10 18:33:38.188017,-64.0
2023-08-10 18:33:38.195708,-64.0
2023-08-10 18:33:38.203399,-61.0
2023-08-10 18:33:38.211090,-61.0
2023-08-10 18:33:38.218781,-64.0
2023-08-10 18:33:38.226472,-61.0
2023-08-10 18:33:38.234164,-61.0
2023-08-10 18:33:38.241855,-59.0
2023-08-10 18:33:38.249546,-59.0
2023-08-10 18:33:38.257237,-57.0
2023-08-10 18:33:38.264928,-54.0
2023-08-10 18:33:38.272619,-57.0
2023-08-10 18:33:38.280310,-57.0
2023-08-10 18:33:38.288001,-49.0
2023-08-10 18:33:38.295692,-40.0
2023-08-10 18:33:38.303383,-23.0
2023-08-10 18:33:38.311074,-9.0
2023-08-10 18:33:38.318765,-14.0
2023-08-10 18:33:38.326456,-23.0
2023-08-10 18:33:38.334147,-23.0
2023-08-10 18:33:38.341838,-35.0
2023-08-10 18:33:38.349529,-57.0
2023-08-10 18:33:38.357220,-59.0
2023-08-10 18:33:38.364911,-61.0
2023-08-10 18:33:38.372602,-69.0
2023-08-10 18:33:38.380293,-66.0
2023-08-10 18:33:38.387984,-57.0
2023-08-10 18:33:38.395675,-57.0
2023-08-10 18:33:38.403366,-73.0
2023-08-10 18:33:38.411057,-69.0
2023-08-10 18:33:38.418748,135.0
2023-08-10 18:33:38.426439,611.0
2023-08-10 18:33:38.434130,1052.0
2023-08-10 18:33:38.441821,947.0
2023-08-10 18:33:38.449512,57.0
2023-08-10 18:33:38.457203,-771.0
2023-08-10 18:33:38.464894,-573.0
2023-08-10 18:33:38.472585,-76.0
2023-08-10 18:33:38.480276,-114.0
2023-08-10 18:33:38.487967,-204.0
2023-08-10 18:33:38.495658,-97.0
2023-08-10 18:33:38.503349,-90.0
2023-08-10 18:33:38.511040,-130.0
2023-08-10 18:33:38.518731,-97.0
2023-08-10 18:33:38.526422,-71.0
2023-08-10 18:33:38.534113,-83.0
2023-08-10 18:33:38.541804,-80.0
2023-08-10 18:33:38.549495,-76.0
2023-08-10 18:33:38.557186,-76.0
2023-08-10 18:33:38.564877,-69.0
2023-08-10 18:33:38.572568,-57.0
2023-08-10 18:33:38.580260,-54.0
2023-08-10 18:33:38.587951,-49.0
2023-08-10 18:33:38.595642,-30.0
2023-08-10 18:33:38.603333,-14.0
2023-08-10 18:33:38.611024,-11.0
2023-08-10 18:33:38.618715,-7.0
2023-08-10 18:33:38.626406,4.0
2023-08-10 18:33:38.634097,16.0
2023-08-10 18:33:38.641788,33.0
2023-08-10 18:33:38.649479,47.0
2023-08-10 18:33:38.657170,61.0
2023-08-10 18:33:38.664861,73.0
2023-08-10 18:33:38.672552,92.0
2023-08-10 18:33:38.680243,104.0
2023-08-10 18:33:38.687934,104.0
2023-08-10 18:33:38.695625,104.0
2023-08-10 18:33:38.703316,107.0
2023-08-10 18:33:38.711007,99.0
2023-08-10 18:33:38.718698,83.0
2023-08-10 18:33:38.726389,66.0
2023-08-10 18:33:38.734080,40.0
2023-08-10 18:33:38.741771,4.0
2023-08-10 18:33:38.749462,-35.0
2023-08-10 18:33:38.757153,-71.0
2023-08-10 18:33:38.764844,-99.0
2023-08-10 18:33:38.772535,-128.0
2023-08-10 18:33:38.780226,-154.0
2023-08-10 18:33:38.787917,-169.0
2023-08-10 18:33:38.795608,-169.0
2023-08-10 18:33:38.803299,-166.0
2023-08-10 18:33:38.810990,-169.0
2023-08-10 18:33:38.818681,-161.0
2023-08-10 18:33:38.826372,-152.0
2023-08-10 18:33:38.834063,-149.0
2023-08-10 18:33:38.841754,-147.0
2023-08-10 18:33:38.849445,-138.0
2023-08-10 18:33:38.857136,-126.0
2023-08-10 18:33:38.864827,-123.0
2023-08-10 18:33:38.872518,-123.0
2023-08-10 18:33:38.880209,-114.0
2023-08-10 18:33:38.887900,-109.0
2023-08-10 18:33:38.895591,-107.0
2023-08-10 18:33:38.903282,-111.0
2023-08-10 18:33:38.910973,-109.0
2023-08-10 18:33:38.918664,-102.0
2023-08-10 18:33:38.926356,-102.0
2023-08-10 18:33:38.934047,-102.0
2023-08-10 18:33:38.941738,-95.0
2023-08-10 18:33:38.949429,-95.0
2023-08-10 18:33:38.957120,-97.0
2023-08-10 18:33:38.964811,-97.0
2023-08-10 18:33:38.972502,-95.0
2023-08-10 18:33:38.980193,-97.0
2023-08-10 18:33:38.987884,-97.0
2023-08-10 18:33:38.995575,-90.0
2023-08-10 18:33:39.003266,-90.0
2023-08-10 18:33:39.010957,-92.0
2023-08-10 18:33:39.018648,-90.0
2023-08-10 18:33:39.026339,-85.0
2023-08-10 18:33:39.034030,-88.0
2023-08-10 18:33:39.041721,-97.0
2023-08-10 18:33:39.049412,-99.0
2023-08-10 18:33:39.057103,-92.0
2023-08-10 18:33:39.064794,-92.0
2023-08-10 18:33:39.072485,-95.0
2023-08-10 18:33:39.080176,-90.0
2023-08-10 18:33:39.087867,-85.0
2023-08-10 18:33:39.095558,-88.0
2023-08-10 18:33:39.103249,-88.0
2023-08-10 18:33:39.110940,-83.0
2023-08-10 18:33:39.118631,-78.0
2023-08-10 18:33:39.126322,-80.0
2023-08-10 18:33:39.134013,-85.0
2023-08-10 18:33:39.141704,-85.0
2023-08-10 18:33:39.149395,-83.0
2023-08-10 18:33:39.157086,-83.0
2023-08-10 18:33:39.164777,-80.0
2023-08-10 18:33:39.172468,-73.0
2023-08-10 18:33:39.180159,-73.0
2023-08-10 18:33:39.187850,-76.0
2023-08-10 18:33:39.195541,-76.0
2023-08-10 18:33:39.203232,-76.0
2023-08-10 18:33:39.210923,-73.0
2023-08-10 18:33:39.218614,-73.0
2023-08-10 18:33:39.226305,-71.0
2023-08-10 18:33:39.233996,-66.0
2023-08-10 18:33:39.241687,-66.0
2023-08-10 18:33:39.249378,-69.0
2023-08-10 18:33:39.257069,-64.0
2023-08-10 18:33:39.264761,-59.0
2023-08-10 18:33:39.272452,-64.0
2023-08-10 18:33:39.280143,-66.0
2023-08-10 18:33:39.287834,-59.0
2023-08-10 18:33:39.295525,-54.0
2023-08-10 18:33:39.303216,-54.0
2023-08-10 18:33:39.310907,-57.0
2023-08-10 18:33:39.318598,-54.0
2023-08-10 18:33:39.326289,-49.0
2023-08-10 18:33:39.333980,-52.0
2023-08-10 18:33:39.341671,-52.0
2023-08-10 18:33:39.349362,-47.0
2023-08-10 18:33:39.357053,-45.0
2023-08-10 18:33:39.364744,-33.0
2023-08-10 18:33:39.372435,-14.0
2023-08-10 18:33:39.380126,-2.0
2023-08-10 18:33:39.387817,-9.0
2023-08-10 18:33:39.395508,-14.0
2023-08-10 18:33:39.403199,-19.0
2023-08-10 18:33:39.410890,-35.0
2023-08-10 18:33:39.418581,-52.0
2023-08-10 18:33:39.426272,-52.0
2023-08-10 18:33:39.433963,-45.0
2023-08-10 18:33:39.441654,-49.0
2023-08-10 18:33:39.449345,-54.0
2023-08-10 18:33:39.457036,-49.0
2023-08-10 18:33:39.464727,-47.0
2023-08-10 18:33:39.472418,-66.0
2023-08-10 18:33:39.480109,-19.0
2023-08-10 18:33:39.487800,276.0
2023-08-10 18:33:39.495491,785.0
2023-08-10 18:33:39.503182,1135.0
2023-08-10 18:33:39.510873,804.0
2023-08-10 18:33:39.518564,-226.0
2023-08-10 18:33:39.526255,-809.0
2023-08-10 18:33:39.533946,-378.0
2023-08-10 18:33:39.541637,-23.0
2023-08-10 18:33:39.549328,-164.0
2023-08-10 18:33:39.557019,-171.0
2023-08-10 18:33:39.564710,-59.0
2023-08-10 18:33:39.572401,-95.0
2023-08-10 18:33:39.580092,-119.0
2023-08-10 18:33:39.587783,-71.0
2023-08-10 18:33:39.595474,-64.0
2023-08-10 18:33:39.603165,-78.0
2023-08-10 18:33:39.610857,-64.0
2023-08-10 18:33:39.618548,-52.0
2023-08-10 18:33:39.626239,-52.0
2023-08-10 18:33:39.633930,-49.0
2023-08-10 18:33:39.641621,-45.0
2023-08-10 18:33:39.649312,-40.0
2023-08-10 18:33:39.657003,-28.0
2023-08-10 18:33:39.664694,-19.0
2023-08-10 18:33:39.672385,-9.0
2023-08-10 18:33:39.680076,0.0
2023-08-10 18:33:39.687767,9.0
2023-08-10 18:33:39.695458,19.0
2023-08-10 18:33:39.703149,30.0
2023-08-10 18:33:39.710840,45.0
2023-08-10 18:33:39.718531,59.0
2023-08-10 18:33:39.726222,73.0
2023-08-10 18:33:39.733913,88.0
2023-08-10 18:33:39.741604,107.0
2023-08-10 18:33:39.749295,119.0
2023-08-10 18:33:39.756986,119.0
2023-08-10 18:33:39.764677,116.0
2023-08-10 18:33:39.772368,114.0
2023-08-10 18:33:39.780059,107.0
2023-08-10 18:33:39.787750,92.0
2023-08-10 18:33:39.795441,73.0
2023-08-10 18:33:39.803132,42.0
2023-08-10 18:33:39.810823,4.0
2023-08-10 18:33:39.818514,-38.0
2023-08-10 18:33:39.826205,-71.0
2023-08-10 18:33:39.833896,-92.0
2023-08-10 18:33:39.841587,-119.0
2023-08-10 18:33:39.849278,-142.0
2023-08-10 18:33:39.856969,-152.0
2023-08-10 18:33:39.864660,-154.0
2023-08-10 18:33:39.872351,-154.0
2023-08-10 18:33:39.880042,-154.0
2023-08-10 18:33:39.887733,-152.0
2023-08-10 18:33:39.895424,-152.0
2023-08-10 18:33:39.903115,-147.0
2023-08-10 18:33:39.910806,-138.0
2023-08-10 18:33:39.918497,-130.0
2023-08-10 18:33:39.926188,-121.0
2023-08-10 18:33:39.933879,-116.0
2023-08-10 18:33:39.941570,-116.0
2023-08-10 18:33:39.949261,-111.0
2023-08-10 18:33:39.956953,-102.0
2023-08-10 18:33:39.964644,-95.0
2023-08-10 18:33:39.972335,-90.0
2023-08-10 18:33:39.980026,-92.0
2023-08-10 18:33:39.987717,-102.0
2023-08-10 18:33:39.995408,-102.0
2023-08-10 18:33:40.003099,-85.0
2023-08-10 18:33:40.010790,-83.0
2023-08-10 18:33:40.018481,-90.0
2023-08-10 18:33:40.026172,-90.0
2023-08-10 18:33:40.033863,-92.0
2023-08-10 18:33:40.041554,-90.0
2023-08-10 18:33:40.049245,-90.0
2023-08-10 18:33:40.056936,-95.0
2023-08-10 18:33:40.064627,-97.0
2023-08-10 18:33:40.072318,-90.0
2023-08-10 18:33:40.080009,-85.0
2023-08-10 18:33:40.087700,-90.0
2023-08-10 18:33:40.095391,-88.0
2023-08-10 18:33:40.103082,-85.0
2023-08-10 18:33:40.110773,-88.0
2023-08-10 18:33:40.118464,-90.0
2023-08-10 18:33:40.126155,-90.0
2023-08-10 18:33:40.133846,-88.0
2023-08-10 18:33:40.141537,-88.0
2023-08-10 18:33:40.149228,-88.0
2023-08-10 18:33:40.156919,-88.0
2023-08-10 18:33:40.164610,-85.0
2023-08-10 18:33:40.172301,-88.0
2023-08-10 18:33:40.179992,-90.0
2023-08-10 18:33:40.187683,-88.0
2023-08-10 18:33:40.195374,-88.0
2023-08-10 18:33:40.203065,-80.0
2023-08-10 18:33:40.210756,-76.0
2023-08-10 18:33:40.218447,-80.0
2023-08-10 18:33:40.226138,-80.0
2023-08-10 18:33:40.233829,-76.0
2023-08-10 18:33:40.241520,-73.0
2023-08-10 18:33:40.249211,-76.0
2023-08-10 18:33:40.256902,-80.0
2023-08-10 18:33:40.264593,-73.0
2023-08-10 18:33:40.272284,-66.0
2023-08-10 18:33:40.279975,-69.0
2023-08-10 18:33:40.287666,-71.0
2023-08-10 18:33:40.295358,-66.0
2023-08-10 18:33:40.303049,-69.0
2023-08-10 18:33:40.310740,-71.0
2023-08-10 18:33:40.318431,-66.0
2023-08-10 18:33:40.326122,-64.0
2023-08-10 18:33:40.333813,-66.0
2023-08-10 18:33:40.341504,-61.0
2023-08-10 18:33:40.349195,-59.0
2023-08-10 18:33:40.356886,-61.0
2023-08-10 18:33:40.364577,-61.0
2023-08-10 18:33:40.372268,-57.0
2023-08-10 18:33:40.379959,-59.0
2023-08-10 18:33:40.387650,-59.0
2023-08-10 18:33:40.395341,-59.0
2023-08-10 18:33:40.403032,-59.0
2023-08-10 18:33:40.410723,-54.0
2023-08-10 18:33:40.418414,-49.0
2023-08-10 18:33:40.426105,-52.0
2023-08-10 18:33:40.433796,-57.0
2023-08-10 18:33:40.441487,-59.0
2023-08-10 18:33:40.449178,-57.0
2023-08-10 18:33:40.456869,-49.0
2023-08-10 18:33:40.464560,-35.0
2023-08-10 18:33:40.472251,-23.0
2023-08-10 18:33:40.479942,-14.0
2023-08-10 18:33:40.487633,-14.0
2023-08-10 18:33:40.495324,-21.0
2023-08-10 18:33:40.503015,-35.0
2023-08-10 18:33:40.510706,-54.0
2023-08-10 18:33:40.518397,-66.0
2023-08-10 18:33:40.526088,-61.0
2023-08-10 18:33:40.533779,-61.0
2023-08-10 18:33:40.541470,-64.0
2023-08-10 18:33:40.549161,-61.0
2023-08-10 18:33:40.556852,-54.0
2023-08-10 18:33:40.564543,-69.0
2023-08-10 18:33:40.572234,-92.0
2023-08-10 18:33:40.579925,14.0
2023-08-10 18:33:40.587616,409.0
2023-08-10 18:33:40.595307,925.0
2023-08-10 18:33:40.602998,1111.0
2023-08-10 18:33:40.610689,499.0
2023-08-10 18:33:40.618380,-537.0
2023-08-10 18:33:40.626071,-771.0
2023-08-10 18:33:40.633762,-221.0
2023-08-10 18:33:40.641454,-61.0
2023-08-10 18:33:40.649145,-235.0
2023-08-10 18:33:40.656836,-166.0
2023-08-10 18:33:40.664527,-88.0
2023-08-10 18:33:40.672218,-142.0
2023-08-10 18:33:40.679909,-145.0
2023-08-10 18:33:40.687600,-107.0
2023-08-10 18:33:40.695291,-109.0
2023-08-10 18:33:40.702982,-107.0
2023-08-10 18:33:40.710673,-88.0
2023-08-10 18:33:40.718364,-83.0
2023-08-10 18:33:40.726055,-80.0
2023-08-10 18:33:40.733746,-71.0
2023-08-10 18:33:40.741437,-61.0
2023-08-10 18:33:40.749128,-54.0
2023-08-10 18:33:40.756819,-42.0
2023-08-10 18:33:40.764510,-30.0
2023-08-10 18:33:40.772201,-23.0
2023-08-10 18:33:40.779892,-14.0
2023-08-10 18:33:40.787583,0.0
2023-08-10 18:33:40.795274,9.0
2023-08-10 18:33:40.802965,23.0
2023-08-10 18:33:40.810656,40.0
2023-08-10 18:33:40.818347,52.0
2023-08-10 18:33:40.826038,69.0
2023-08-10 18:33:40.833729,85.0
2023-08-10 18:33:40.841420,95.0
2023-08-10 18:33:40.849111,102.0
2023-08-10 18:33:40.856802,107.0
2023-08-10 18:33:40.864493,107.0
2023-08-10 18:33:40.872184,104.0
2023-08-10 18:33:40.879875,90.0
2023-08-10 18:33:40.887566,69.0
2023-08-10 18:33:40.895257,54.0
2023-08-10 18:33:40.902948,26.0
2023-08-10 18:33:40.910639,-16.0
2023-08-10 18:33:40.918330,-57.0
2023-08-10 18:33:40.926021,-90.0
2023-08-10 18:33:40.933712,-119.0
2023-08-10 18:33:40.941403,-142.0
2023-08-10 18:33:40.949094,-154.0
2023-08-10 18:33:40.956785,-157.0
2023-08-10 18:33:40.964476,-159.0
2023-08-10 18:33:40.972167,-166.0
2023-08-10 18:33:40.979858,-166.0
2023-08-10 18:33:40.987550,-161.0
2023-08-10 18:33:40.995241,-152.0
2023-08-10 18:33:41.002932,-142.0
2023-08-10 18:33:41.010623,-140.0
2023-08-10 18:33:41.018314,-135.0
2023-08-10 18:33:41.026005,-126.0
2023-08-10 18:33:41.033696,-121.0
2023-08-10 18:33:41.041387,-121.0
2023-08-10 18:33:41.049078,-119.0
2023-08-10 18:33:41.056769,-109.0
2023-08-10 18:33:41.064460,-97.0
2023-08-10 18:33:41.072151,-95.0
2023-08-10 18:33:41.079842,-95.0
2023-08-10 18:33:41.087533,-92.0
2023-08-10 18:33:41.095224,-92.0
2023-08-10 18:33:41.102915,-90.0
2023-08-10 18:33:41.110606,-90.0
2023-08-10 18:33:41.118297,-97.0
2023-08-10 18:33:41.125988,-97.0
2023-08-10 18:33:41.133679,-92.0
2023-08-10 18:33:41.141370,-95.0
2023-08-10 18:33:41.149061,-99.0
2023-08-10 18:33:41.156752,-107.0
2023-08-10 18:33:41.164443,-109.0
2023-08-10 18:33:41.172134,-104.0
2023-08-10 18:33:41.179825,-102.0
2023-08-10 18:33:41.187516,-107.0
2023-08-10 18:33:41.195207,-109.0
2023-08-10 18:33:41.202898,-102.0
2023-08-10 18:33:41.210589,-99.0
2023-08-10 18:33:41.218280,-99.0
2023-08-10 18:33:41.225971,-99.0
2023-08-10 18:33:41.233662,-97.0
2023-08-10 18:33:41.241353,-95.0
2023-08-10 18:33:41.249044,-92.0
2023-08-10 18:33:41.256735,-90.0
2023-08-10 18:33:41.264426,-88.0
2023-08-10 18:33:41.272117,-90.0
2023-08-10 18:33:41.279808,-92.0
2023-08-10 18:33:41.287499,-90.0
2023-08-10 18:33:41.295190,-88.0
2023-08-10 18:33:41.302881,-83.0
2023-08-10 18:33:41.310572,-76.0
2023-08-10 18:33:41.318263,-78.0
2023-08-10 18:33:41.325955,-83.0
2023-08-10 18:33:41.333646,-80.0
2023-08-10 18:33:41.341337,-76.0
2023-08-10 18:33:41.349028,-78.0
2023-08-10 18:33:41.356719,-80.0
2023-08-10 18:33:41.364410,-73.0
2023-08-10 18:33:41.372101,-69.0
2023-08-10 18:33:41.379792,-71.0
2023-08-10 18:33:41.387483,-71.0
2023-08-10 18:33:41.395174,-66.0
2023-08-10 18:33:41.402865,-66.0
2023-08-10 18:33:41.410556,-69.0
2023-08-10 18:33:41.418247,-73.0
2023-08-10 18:33:41.425938,-73.0
2023-08-10 18:33:41.433629,-73.0
2023-08-10 18:33:41.441320,-69.0
2023-08-10 18:33:41.449011,-64.0
2023-08-10 18:33:41.456702,-66.0
2023-08-10 18:33:41.464393,-69.0
2023-08-10 18:33:41.472084,-64.0
2023-08-10 18:33:41.479775,-61.0
2023-08-10 18:33:41.487466,-61.0
2023-08-10 18:33:41.495157,-61.0
2023-08-10 18:33:41.502848,-59.0
2023-08-10 18:33:41.510539,-64.0
2023-08-10 18:33:41.518230,-61.0
2023-08-10 18:33:41.525921,-57.0
2023-08-10 18:33:41.533612,-57.0
2023-08-10 18:33:41.541303,-49.0
2023-08-10 18:33:41.548994,-35.0
2023-08-10 18:33:41.556685,-21.0
2023-08-10 18:33:41.564376,-19.0
2023-08-10 18:33:41.572067,-23.0
2023-08-10 18:33:41.579758,-28.0
2023-08-10 18:33:41.587449,-38.0
2023-08-10 18:33:41.595140,-57.0
2023-08-10 18:33:41.602831,-69.0
2023-08-10 18:33:41.610522,-64.0
2023-08-10 18:33:41.618213,-59.0
2023-08-10 18:33:41.625904,-61.0
2023-08-10 18:33:41.633595,-59.0
2023-08-10 18:33:41.641286,-59.0
2023-08-10 18:33:41.648977,-71.0
2023-08-10 18:33:41.656668,-61.0
2023-08-10 18:33:41.664359,133.0
2023-08-10 18:33:41.672051,583.0
2023-08-10 18:33:41.679742,1033.0
2023-08-10 18:33:41.687433,959.0
2023-08-10 18:33:41.695124,80.0
2023-08-10 18:33:41.702815,-771.0
2023-08-10 18:33:41.710506,-595.0
2023-08-10 18:33:41.718197,-88.0
2023-08-10 18:33:41.725888,-116.0
2023-08-10 18:33:41.733579,-218.0
2023-08-10 18:33:41.741270,-116.0
2023-08-10 18:33:41.748961,-95.0
2023-08-10 18:33:41.756652,-126.0
2023-08-10 18:33:41.764343,-99.0
2023-08-10 18:33:41.772034,-85.0
2023-08-10 18:33:41.779725,-97.0
2023-08-10 18:33:41.787416,-88.0
2023-08-10 18:33:41.795107,-71.0
2023-08-10 18:33:41.802798,-71.0
2023-08-10 18:33:41.810489,-71.0
2023-08-10 18:33:41.818180,-54.0
2023-08-10 18:33:41.825871,-45.0
2023-08-10 18:33:41.833562,-47.0
2023-08-10 18:33:41.841253,-38.0
2023-08-10 18:33:41.848944,-23.0
2023-08-10 18:33:41.856635,-14.0
2023-08-10 18:33:41.864326,-4.0
2023-08-10 18:33:41.872017,9.0
2023-08-10 18:33:41.879708,21.0
2023-08-10 18:33:41.887399,30.0
2023-08-10 18:33:41.895090,47.0
2023-08-10 18:33:41.902781,69.0
2023-08-10 18:33:41.910472,73.0
2023-08-10 18:33:41.918163,76.0
2023-08-10 18:33:41.925854,88.0
2023-08-10 18:33:41.933545,97.0
2023-08-10 18:33:41.941236,97.0
2023-08-10 18:33:41.948927,99.0
2023-08-10 18:33:41.956618,99.0
2023-08-10 18:33:41.964309,78.0
2023-08-10 18:33:41.972000,54.0
2023-08-10 18:33:41.979691,35.0
2023-08-10 18:33:41.987382,7.0
2023-08-10 18:33:41.995073,-33.0
2023-08-10 18:33:42.002764,-71.0
2023-08-10 18:33:42.010455,-107.0
2023-08-10 18:33:42.018147,-138.0
2023-08-10 18:33:42.025838,-152.0
2023-08-10 18:33:42.033529,-161.0
2023-08-10 18:33:42.041220,-169.0
2023-08-10 18:33:42.048911,-171.0
2023-08-10 18:33:42.056602,-169.0
2023-08-10 18:33:42.064293,-164.0
2023-08-10 18:33:42.071984,-157.0
2023-08-10 18:33:42.079675,-152.0
2023-08-10 18:33:42.087366,-149.0
2023-08-10 18:33:42.095057,-142.0
2023-08-10 18:33:42.102748,-135.0
2023-08-10 18:33:42.110439,-128.0
2023-08-10 18:33:42.118130,-123.0
2023-08-10 18:33:42.125821,-119.0
2023-08-10 18:33:42.133512,-116.0
2023-08-10 18:33:42.141203,-111.0
2023-08-10 18:33:42.148894,-109.0
2023-08-10 18:33:42.156585,-111.0
2023-08-10 18:33:42.164276,-119.0
2023-08-10 18:33:42.171967,-116.0
2023-08-10 18:33:42.179658,-107.0
2023-08-10 18:33:42.187349,-104.0
2023-08-10 18:33:42.195040,-109.0
2023-08-10 18:33:42.202731,-111.0
2023-08-10 18:33:42.210422,-109.0
2023-08-10 18:33:42.218113,-107.0
2023-08-10 18:33:42.225804,-107.0
2023-08-10 18:33:42.233495,-107.0
2023-08-10 18:33:42.241186,-104.0
2023-08-10 18:33:42.248877,-102.0
2023-08-10 18:33:42.256568,-104.0
2023-08-10 18:33:42.264259,-102.0
2023-08-10 18:33:42.271950,-99.0
2023-08-10 18:33:42.279641,-102.0
2023-08-10 18:33:42.287332,-111.0
2023-08-10 18:33:42.295023,-111.0
2023-08-10 18:33:42.302714,-104.0
2023-08-10 18:33:42.310405,-99.0
2023-08-10 18:33:42.318096,-102.0
2023-08-10 18:33:42.325787,-99.0
2023-08-10 18:33:42.333478,-97.0
2023-08-10 18:33:42.341169,-97.0
2023-08-10 18:33:42.348860,-92.0
2023-08-10 18:33:42.356552,-90.0
2023-08-10 18:33:42.364243,-92.0
2023-08-10 18:33:42.371934,-90.0
2023-08-10 18:33:42.379625,-88.0
2023-08-10 18:33:42.387316,-88.0
2023-08-10 18:33:42.395007,-85.0
2023-08-10 18:33:42.402698,-85.0
2023-08-10 18:33:42.410389,-85.0
2023-08-10 18:33:42.418080,-88.0
2023-08-10 18:33:42.425771,-85.0
2023-08-10 18:33:42.433462,-80.0
2023-08-10 18:33:42.441153,-80.0
2023-08-10 18:33:42.448844,-83.0
2023-08-10 18:33:42.456535,-78.0
2023-08-10 18:33:42.464226,-78.0
2023-08-10 18:33:42.471917,-76.0
2023-08-10 18:33:42.479608,-71.0
2023-08-10 18:33:42.487299,-69.0
2023-08-10 18:33:42.494990,-71.0
2023-08-10 18:33:42.502681,-71.0
2023-08-10 18:33:42.510372,-73.0
2023-08-10 18:33:42.518063,-71.0
2023-08-10 18:33:42.525754,-64.0
2023-08-10 18:33:42.533445,-64.0
2023-08-10 18:33:42.541136,-64.0
2023-08-10 18:33:42.548827,-66.0
2023-08-10 18:33:42.556518,-64.0
2023-08-10 18:33:42.564209,-57.0
2023-08-10 18:33:42.571900,-54.0
2023-08-10 18:33:42.579591,-54.0
2023-08-10 18:33:42.587282,-40.0
2023-08-10 18:33:42.594973,-21.0
2023-08-10 18:33:42.602664,-14.0
2023-08-10 18:33:42.610355,-30.0
2023-08-10 18:33:42.618046,-40.0
2023-08-10 18:33:42.625737,-45.0
2023-08-10 18:33:42.633428,-59.0
2023-08-10 18:33:42.641119,-69.0
2023-08-10 18:33:42.648810,-69.0
2023-08-10 18:33:42.656501,-69.0
2023-08-10 18:33:42.664192,-66.0
2023-08-10 18:33:42.671883,-71.0
2023-08-10 18:33:42.679574,-76.0
2023-08-10 18:33:42.687265,-83.0
2023-08-10 18:33:42.694956,-61.0
2023-08-10 18:33:42.702648,142.0
2023-08-10 18:33:42.710339,597.0
2023-08-10 18:33:42.718030,1040.0
2023-08-10 18:33:42.725721,954.0
2023-08-10 18:33:42.733412,61.0
2023-08-10 18:33:42.741103,-787.0
2023-08-10 18:33:42.748794,-597.0
2023-08-10 18:33:42.756485,-78.0
2023-08-10 18:33:42.764176,-109.0
2023-08-10 18:33:42.771867,-204.0
2023-08-10 18:33:42.779558,-92.0
2023-08-10 18:33:42.787249,-78.0
2023-08-10 18:33:42.794940,-121.0
2023-08-10 18:33:42.802631,-92.0
2023-08-10 18:33:42.810322,-76.0
2023-08-10 18:33:42.818013,-90.0
2023-08-10 18:33:42.825704,-88.0
2023-08-10 18:33:42.833395,-76.0
2023-08-10 18:33:42.841086,-73.0
2023-08-10 18:33:42.848777,-69.0
2023-08-10 18:33:42.856468,-59.0
2023-08-10 18:33:42.864159,-47.0
2023-08-10 18:33:42.871850,-40.0
2023-08-10 18:33:42.879541,-35.0
2023-08-10 18:33:42.887232,-26.0
2023-08-10 18:33:42.894923,-16.0
2023-08-10 18:33:42.902614,-4.0
2023-08-10 18:33:42.910305,4.0
2023-08-10 18:33:42.917996,16.0
2023-08-10 18:33:42.925687,33.0
2023-08-10 18:33:42.933378,47.0
2023-08-10 18:33:42.941069,61.0
2023-08-10 18:33:42.948760,78.0
2023-08-10 18:33:42.956451,95.0
2023-08-10 18:33:42.964142,104.0
2023-08-10 18:33:42.971833,111.0
2023-08-10 18:33:42.979524,116.0
2023-08-10 18:33:42.987215,116.0
2023-08-10 18:33:42.994906,102.0
2023-08-10 18:33:43.002597,85.0
2023-08-10 18:33:43.010288,71.0
2023-08-10 18:33:43.017979,45.0
2023-08-10 18:33:43.025670,4.0
2023-08-10 18:33:43.033361,-35.0
2023-08-10 18:33:43.041052,-69.0
2023-08-10 18:33:43.048744,-104.0
2023-08-10 18:33:43.056435,-133.0
2023-08-10 18:33:43.064126,-149.0
2023-08-10 18:33:43.071817,-159.0
2023-08-10 18:33:43.079508,-166.0
2023-08-10 18:33:43.087199,-171.0
2023-08-10 18:33:43.094890,-173.0
2023-08-10 18:33:43.102581,-171.0
2023-08-10 18:33:43.110272,-161.0
2023-08-10 18:33:43.117963,-159.0
2023-08-10 18:33:43.125654,-157.0
2023-08-10 18:33:43.133345,-152.0
2023-08-10 18:33:43.141036,-142.0
2023-08-10 18:33:43.148727,-138.0
2023-08-10 18:33:43.156418,-130.0
2023-08-10 18:33:43.164109,-123.0
2023-08-10 18:33:43.171800,-119.0
2023-08-10 18:33:43.179491,-123.0
2023-08-10 18:33:43.187182,-119.0
2023-08-10 18:33:43.194873,-107.0
2023-08-10 18:33:43.202564,-102.0
2023-08-10 18:33:43.210255,-97.0
2023-08-10 18:33:43.217946,-95.0
2023-08-10 18:33:43.225637,-99.0
2023-08-10 18:33:43.233328,-102.0
2023-08-10 18:33:43.241019,-97.0
2023-08-10 18:33:43.248710,-95.0
2023-08-10 18:33:43.256401,-102.0
2023-08-10 18:33:43.264092,-104.0
2023-08-10 18:33:43.271783,-99.0
2023-08-10 18:33:43.279474,-102.0
2023-08-10 18:33:43.287165,-102.0
2023-08-10 18:33:43.294856,-99.0
2023-08-10 18:33:43.302547,-97.0
2023-08-10 18:33:43.310238,-99.0
2023-08-10 18:33:43.317929,-102.0
2023-08-10 18:33:43.325620,-97.0
2023-08-10 18:33:43.333311,-92.0
2023-08-10 18:33:43.341002,-92.0
2023-08-10 18:33:43.348693,-97.0
2023-08-10 18:33:43.356384,-97.0
2023-08-10 18:33:43.364075,-102.0
2023-08-10 18:33:43.371766,-104.0
2023-08-10 18:33:43.379457,-99.0
2023-08-10 18:33:43.387149,-102.0
2023-08-10 18:33:43.394840,-102.0
2023-08-10 18:33:43.402531,-102.0
2023-08-10 18:33:43.410222,-102.0
2023-08-10 18:33:43.417913,-95.0
2023-08-10 18:33:43.425604,-92.0
2023-08-10 18:33:43.433295,-92.0
2023-08-10 18:33:43.440986,-88.0
2023-08-10 18:33:43.448677,-88.0
2023-08-10 18:33:43.456368,-90.0
2023-08-10 18:33:43.464059,-90.0
2023-08-10 18:33:43.471750,-88.0
2023-08-10 18:33:43.479441,-83.0
2023-08-10 18:33:43.487132,-83.0
2023-08-10 18:33:43.494823,-85.0
2023-08-10 18:33:43.502514,-80.0
2023-08-10 18:33:43.510205,-76.0
2023-08-10 18:33:43.517896,-73.0
2023-08-10 18:33:43.525587,-73.0
2023-08-10 18:33:43.533278,-73.0
2023-08-10 18:33:43.540969,-76.0
2023-08-10 18:33:43.548660,-76.0
2023-08-10 18:33:43.556351,-73.0
2023-08-10 18:33:43.564042,-69.0
2023-08-10 18:33:43.571733,-66.0
2023-08-10 18:33:43.579424,-66.0
2023-08-10 18:33:43.587115,-71.0
2023-08-10 18:33:43.594806,-69.0
2023-08-10 18:33:43.602497,-61.0
2023-08-10 18:33:43.610188,-61.0
2023-08-10 18:33:43.617879,-64.0
2023-08-10 18:33:43.625570,-64.0
2023-08-10 18:33:43.633261,-66.0
2023-08-10 18:33:43.640952,-66.0
2023-08-10 18:33:43.648643,-64.0
2023-08-10 18:33:43.656334,-59.0
2023-08-10 18:33:43.664025,-59.0
2023-08-10 18:33:43.671716,-57.0
2023-08-10 18:33:43.679407,-52.0
2023-08-10 18:33:43.687098,-42.0
2023-08-10 18:33:43.694789,-30.0
2023-08-10 18:33:43.702480,-28.0
2023-08-10 18:33:43.710171,-30.0
2023-08-10 18:33:43.717862,-35.0
2023-08-10 18:33:43.725553,-59.0
2023-08-10 18:33:43.733245,-78.0
2023-08-10 18:33:43.740936,-73.0
2023-08-10 18:33:43.748627,-69.0
2023-08-10 18:33:43.756318,-73.0
2023-08-10 18:33:43.764009,-73.0
2023-08-10 18:33:43.771700,-66.0
2023-08-10 18:33:43.779391,-71.0
2023-08-10 18:33:43.787082,-88.0
2023-08-10 18:33:43.794773,-45.0
2023-08-10 18:33:43.802464,218.0
2023-08-10 18:33:43.810155,709.0
2023-08-10 18:33:43.817846,1102.0
2023-08-10 18:33:43.825537,864.0
2023-08-10 18:33:43.833228,-128.0
2023-08-10 18:33:43.840919,-818.0
2023-08-10 18:33:43.848610,-457.0
2023-08-10 18:33:43.856301,-33.0
2023-08-10 18:33:43.863992,-154.0
2023-08-10 18:33:43.871683,-202.0
2023-08-10 18:33:43.879374,-88.0
2023-08-10 18:33:43.887065,-102.0
2023-08-10 18:33:43.894756,-130.0
2023-08-10 18:33:43.902447,-92.0
2023-08-10 18:33:43.910138,-88.0
2023-08-10 18:33:43.917829,-97.0
2023-08-10 18:33:43.925520,-80.0
2023-08-10 18:33:43.933211,-69.0
2023-08-10 18:33:43.940902,-73.0
2023-08-10 18:33:43.948593,-71.0
2023-08-10 18:33:43.956284,-64.0
2023-08-10 18:33:43.963975,-57.0
2023-08-10 18:33:43.971666,-49.0
2023-08-10 18:33:43.979357,-40.0
2023-08-10 18:33:43.987048,-30.0
2023-08-10 18:33:43.994739,-19.0
2023-08-10 18:33:44.002430,-7.0
2023-08-10 18:33:44.010121,2.0
2023-08-10 18:33:44.017812,19.0
2023-08-10 18:33:44.025503,38.0
2023-08-10 18:33:44.033194,47.0
2023-08-10 18:33:44.040885,59.0
2023-08-10 18:33:44.048576,78.0
2023-08-10 18:33:44.056267,92.0
2023-08-10 18:33:44.063958,104.0
2023-08-10 18:33:44.071649,111.0
2023-08-10 18:33:44.079341,114.0
2023-08-10 18:33:44.087032,111.0
2023-08-10 18:33:44.094723,97.0
2023-08-10 18:33:44.102414,80.0
2023-08-10 18:33:44.110105,64.0
2023-08-10 18:33:44.117796,35.0
2023-08-10 18:33:44.125487,0.0
2023-08-10 18:33:44.133178,-40.0
2023-08-10 18:33:44.140869,-80.0
2023-08-10 18:33:44.148560,-111.0
2023-08-10 18:33:44.156251,-130.0
2023-08-10 18:33:44.163942,-147.0
2023-08-10 18:33:44.171633,-164.0
2023-08-10 18:33:44.179324,-173.0
2023-08-10 18:33:44.187015,-176.0
2023-08-10 18:33:44.194706,-180.0
2023-08-10 18:33:44.202397,-173.0
2023-08-10 18:33:44.210088,-169.0
2023-08-10 18:33:44.217779,-169.0
2023-08-10 18:33:44.225470,-161.0
2023-08-10 18:33:44.233161,-149.0
2023-08-10 18:33:44.240852,-147.0
2023-08-10 18:33:44.248543,-145.0
2023-08-10 18:33:44.256234,-135.0
2023-08-10 18:33:44.263925,-128.0
2023-08-10 18:33:44.271616,-123.0
2023-08-10 18:33:44.279307,-121.0
2023-08-10 18:33:44.286998,-114.0
2023-08-10 18:33:44.294689,-104.0
2023-08-10 18:33:44.302380,-104.0
2023-08-10 18:33:44.310071,-104.0
2023-08-10 18:33:44.317762,-99.0
2023-08-10 18:33:44.325453,-97.0
2023-08-10 18:33:44.333144,-95.0
2023-08-10 18:33:44.340835,-90.0
2023-08-10 18:33:44.348526,-95.0
2023-08-10 18:33:44.356217,-99.0
2023-08-10 18:33:44.363908,-97.0
2023-08-10 18:33:44.371599,-97.0
2023-08-10 18:33:44.379290,-102.0
2023-08-10 18:33:44.386981,-104.0
2023-08-10 18:33:44.394672,-104.0
2023-08-10 18:33:44.402363,-104.0
2023-08-10 18:33:44.410054,-99.0
2023-08-10 18:33:44.417746,-97.0
2023-08-10 18:33:44.425437,-102.0
2023-08-10 18:33:44.433128,-99.0
2023-08-10 18:33:44.440819,-92.0
2023-08-10 18:33:44.448510,-92.0
2023-08-10 18:33:44.456201,-95.0
2023-08-10 18:33:44.463892,-92.0
2023-08-10 18:33:44.471583,-95.0
2023-08-10 18:33:44.479274,-97.0
2023-08-10 18:33:44.486965,-95.0
2023-08-10 18:33:44.494656,-97.0
2023-08-10 18:33:44.502347,-97.0
2023-08-10 18:33:44.510038,-92.0
2023-08-10 18:33:44.517729,-92.0
2023-08-10 18:33:44.525420,-90.0
2023-08-10 18:33:44.533111,-90.0
2023-08-10 18:33:44.540802,-90.0
2023-08-10 18:33:44.548493,-85.0
2023-08-10 18:33:44.556184,-80.0
2023-08-10 18:33:44.563875,-88.0
2023-08-10 18:33:44.571566,-85.0
2023-08-10 18:33:44.579257,-78.0
2023-08-10 18:33:44.586948,-76.0
2023-08-10 18:33:44.594639,-80.0
2023-08-10 18:33:44.602330,-80.0
2023-08-10 18:33:44.610021,-83.0
2023-08-10 18:33:44.617712,-80.0
2023-08-10 18:33:44.625403,-73.0
2023-08-10 18:33:44.633094,-71.0
2023-08-10 18:33:44.640785,-73.0
2023-08-10 18:33:44.648476,-73.0
2023-08-10 18:33:44.656167,-71.0
2023-08-10 18:33:44.663858,-69.0
2023-08-10 18:33:44.671549,-73.0
2023-08-10 18:33:44.679240,-78.0
2023-08-10 18:33:44.686931,-73.0
2023-08-10 18:33:44.694622,-69.0
2023-08-10 18:33:44.702313,-76.0
2023-08-10 18:33:44.710004,-80.0
2023-08-10 18:33:44.717695,-71.0
2023-08-10 18:33:44.725386,-66.0
2023-08-10 18:33:44.733077,-69.0
2023-08-10 18:33:44.740768,-69.0
2023-08-10 18:33:44.748459,-71.0
2023-08-10 18:33:44.756150,-73.0
2023-08-10 18:33:44.763842,-64.0
2023-08-10 18:33:44.771533,-59.0
2023-08-10 18:33:44.779224,-59.0
2023-08-10 18:33:44.786915,-57.0
2023-08-10 18:33:44.794606,-42.0
2023-08-10 18:33:44.802297,-26.0
2023-08-10 18:33:44.809988,-19.0
2023-08-10 18:33:44.817679,-23.0
2023-08-10 18:33:44.825370,-26.0
2023-08-10 18:33:44.833061,-42.0
2023-08-10 18:33:44.840752,-66.0
2023-08-10 18:33:44.848443,-76.0
2023-08-10 18:33:44.856134,-69.0
2023-08-10 18:33:44.863825,-66.0
2023-08-10 18:33:44.871516,-69.0
2023-08-10 18:33:44.879207,-69.0
2023-08-10 18:33:44.886898,-69.0
2023-08-10 18:33:44.894589,-80.0
2023-08-10 18:33:44.902280,-83.0
2023-08-10 18:33:44.909971,61.0
2023-08-10 18:33:44.917662,485.0
2023-08-10 18:33:44.925353,992.0
2023-08-10 18:33:44.933044,1071.0
2023-08-10 18:33:44.940735,318.0
2023-08-10 18:33:44.948426,-654.0
2023-08-10 18:33:44.956117,-676.0
2023-08-10 18:33:44.963808,-126.0
2023-08-10 18:33:44.971499,-76.0
2023-08-10 18:33:44.979190,-218.0
2023-08-10 18:33:44.986881,-123.0
2023-08-10 18:33:44.994572,-80.0
2023-08-10 18:33:45.002263,-128.0
2023-08-10 18:33:45.009954,-104.0
2023-08-10 18:33:45.017645,-76.0
2023-08-10 18:33:45.025336,-92.0
2023-08-10 18:33:45.033027,-88.0
2023-08-10 18:33:45.040718,-69.0
2023-08-10 18:33:45.048409,-71.0
2023-08-10 18:33:45.056100,-66.0
2023-08-10 18:33:45.063791,-54.0
2023-08-10 18:33:45.071482,-59.0
2023-08-10 18:33:45.079173,-59.0
2023-08-10 18:33:45.086864,-40.0
2023-08-10 18:33:45.094555,-26.0
2023-08-10 18:33:45.102246,-26.0
2023-08-10 18:33:45.109938,-21.0
2023-08-10 18:33:45.117629,-9.0
2023-08-10 18:33:45.125320,2.0
2023-08-10 18:33:45.133011,19.0
2023-08-10 18:33:45.140702,30.0
2023-08-10 18:33:45.148393,45.0
2023-08-10 18:33:45.156084,64.0
2023-08-10 18:33:45.163775,76.0
2023-08-10 18:33:45.171466,85.0
2023-08-10 18:33:45.179157,97.0
2023-08-10 18:33:45.186848,97.0
2023-08-10 18:33:45.194539,90.0
2023-08-10 18:33:45.202230,83.0
2023-08-10 18:33:45.209921,73.0
2023-08-10 18:33:45.217612,52.0
2023-08-10 18:33:45.225303,30.0
2023-08-10 18:33:45.232994,7.0
2023-08-10 18:33:45.240685,-30.0
2023-08-10 18:33:45.248376,-73.0
2023-08-10 18:33:45.256067,-109.0
2023-08-10 18:33:45.263758,-135.0
2023-08-10 18:33:45.271449,-152.0
2023-08-10 18:33:45.279140,-159.0
2023-08-10 18:33:45.286831,-171.0
2023-08-10 18:33:45.294522,-180.0
2023-08-10 18:33:45.302213,-173.0
2023-08-10 18:33:45.309904,-164.0
2023-08-10 18:33:45.317595,-159.0
2023-08-10 18:33:45.325286,-159.0
2023-08-10 18:33:45.332977,-154.0
2023-08-10 18:33:45.340668,-147.0
2023-08-10 18:33:45.348359,-140.0
2023-08-10 18:33:45.356050,-135.0
2023-08-10 18:33:45.363741,-135.0
2023-08-10 18:33:45.371432,-128.0
2023-08-10 18:33:45.379123,-119.0
2023-08-10 18:33:45.386814,-116.0
2023-08-10 18:33:45.394505,-116.0
2023-08-10 18:33:45.402196,-111.0
2023-08-10 18:33:45.409887,-102.0
2023-08-10 18:33:45.417578,-97.0
2023-08-10 18:33:45.425269,-99.0
2023-08-10 18:33:45.432960,-102.0
2023-08-10 18:33:45.440651,-95.0
2023-08-10 18:33:45.448343,-92.0
2023-08-10 18:33:45.456034,-97.0
2023-08-10 18:33:45.463725,-97.0
2023-08-10 18:33:45.471416,-95.0
2023-08-10 18:33:45.479107,-99.0
2023-08-10 18:33:45.486798,-99.0
2023-08-10 18:33:45.494489,-97.0
2023-08-10 18:33:45.502180,-99.0
2023-08-10 18:33:45.509871,-97.0
2023-08-10 18:33:45.517562,-92.0
2023-08-10 18:33:45.525253,-97.0
2023-08-10 18:33:45.532944,-97.0
2023-08-10 18:33:45.540635,-95.0
2023-08-10 18:33:45.548326,-95.0
2023-08-10 18:33:45.556017,-85.0
2023-08-10 18:33:45.563708,-85.0
2023-08-10 18:33:45.571399,-92.0
2023-08-10 18:33:45.579090,-92.0
2023-08-10 18:33:45.586781,-85.0
2023-08-10 18:33:45.594472,-85.0
2023-08-10 18:33:45.602163,-88.0
2023-08-10 18:33:45.609854,-90.0
2023-08-10 18:33:45.617545,-90.0
2023-08-10 18:33:45.625236,-88.0
2023-08-10 18:33:45.632927,-85.0
2023-08-10 18:33:45.640618,-78.0
2023-08-10 18:33:45.648309,-80.0
2023-08-10 18:33:45.656000,-88.0
2023-08-10 18:33:45.663691,-92.0
2023-08-10 18:33:45.671382,-90.0
2023-08-10 18:33:45.679073,-85.0
2023-08-10 18:33:45.686764,-83.0
2023-08-10 18:33:45.694455,-83.0
2023-08-10 18:33:45.702146,-85.0
2023-08-10 18:33:45.709837,-88.0
2023-08-10 18:33:45.717528,-85.0
2023-08-10 18:33:45.725219,-83.0
2023-08-10 18:33:45.732910,-83.0
2023-08-10 18:33:45.740601,-83.0
2023-08-10 18:33:45.748292,-80.0
2023-08-10 18:33:45.755983,-76.0
2023-08-10 18:33:45.763674,-76.0
2023-08-10 18:33:45.771365,-76.0
2023-08-10 18:33:45.779056,-73.0
2023-08-10 18:33:45.786747,-71.0
2023-08-10 18:33:45.794439,-71.0
2023-08-10 18:33:45.802130,-69.0
2023-08-10 18:33:45.809821,-66.0
2023-08-10 18:33:45.817512,-66.0
2023-08-10 18:33:45.825203,-66.0
2023-08-10 18:33:45.832894,-66.0
2023-08-10 18:33:45.840585,-66.0
2023-08-10 18:33:45.848276,-66.0
2023-08-10 18:33:45.855967,-66.0
2023-08-10 18:33:45.863658,-64.0
2023-08-10 18:33:45.871349,-57.0
2023-08-10 18:33:45.879040,-38.0
2023-08-10 18:33:45.886731,-23.0
2023-08-10 18:33:45.894422,-33.0
2023-08-10 18:33:45.902113,-45.0
2023-08-10 18:33:45.909804,-47.0
2023-08-10 18:33:45.917495,-57.0
2023-08-10 18:33:45.925186,-69.0
2023-08-10 18:33:45.932877,-69.0
2023-08-10 18:33:45.940568,-71.0
2023-08-10 18:33:45.948259,-71.0
2023-08-10 18:33:45.955950,-61.0
2023-08-10 18:33:45.963641,-57.0
2023-08-10 18:33:45.971332,-71.0
2023-08-10 18:33:45.979023,-73.0
2023-08-10 18:33:45.986714,66.0
2023-08-10 18:33:45.994405,473.0
2023-08-10 18:33:46.002096,961.0
2023-08-10 18:33:46.009787,1028.0
2023-08-10 18:33:46.017478,276.0
2023-08-10 18:33:46.025169,-676.0
2023-08-10 18:33:46.032860,-685.0
2023-08-10 18:33:46.040551,-130.0
2023-08-10 18:33:46.048242,-69.0
2023-08-10 18:33:46.055933,-209.0
2023-08-10 18:33:46.063624,-111.0
2023-08-10 18:33:46.071315,-64.0
2023-08-10 18:33:46.079006,-119.0
2023-08-10 18:33:46.086697,-99.0
2023-08-10 18:33:46.094388,-66.0
2023-08-10 18:33:46.102079,-85.0
2023-08-10 18:33:46.109770,-88.0
2023-08-10 18:33:46.117461,-64.0
2023-08-10 18:33:46.125152,-59.0
2023-08-10 18:33:46.132843,-57.0
2023-08-10 18:33:46.140535,-47.0
2023-08-10 18:33:46.148226,-42.0
2023-08-10 18:33:46.155917,-40.0
2023-08-10 18:33:46.163608,-30.0
2023-08-10 18:33:46.171299,-19.0
2023-08-10 18:33:46.178990,-9.0
2023-08-10 18:33:46.186681,-2.0
2023-08-10 18:33:46.194372,-7.0
2023-08-10 18:33:46.202063,-7.0
2023-08-10 18:33:46.209754,11.0
2023-08-10 18:33:46.217445,28.0
2023-08-10 18:33:46.225136,40.0
2023-08-10 18:33:46.232827,57.0
2023-08-10 18:33:46.240518,73.0
2023-08-10 18:33:46.248209,83.0
2023-08-10 18:33:46.255900,95.0
2023-08-10 18:33:46.263591,99.0
2023-08-10 18:33:46.271282,97.0
2023-08-10 18:33:46.278973,97.0
2023-08-10 18:33:46.286664,95.0
2023-08-10 18:33:46.294355,76.0
2023-08-10 18:33:46.302046,45.0
2023-08-10 18:33:46.309737,9.0
2023-08-10 18:33:46.317428,-28.0
2023-08-10 18:33:46.325119,-69.0
2023-08-10 18:33:46.332810,-107.0
2023-08-10 18:33:46.340501,-138.0
2023-08-10 18:33:46.348192,-164.0
2023-08-10 18:33:46.355883,-176.0
2023-08-10 18:33:46.363574,-171.0
2023-08-10 18:33:46.371265,-173.0
2023-08-10 18:33:46.378956,-178.0
2023-08-10 18:33:46.386647,-173.0
2023-08-10 18:33:46.394338,-166.0
2023-08-10 18:33:46.402029,-164.0
2023-08-10 18:33:46.409720,-157.0
2023-08-10 18:33:46.417411,-149.0
2023-08-10 18:33:46.425102,-142.0
2023-08-10 18:33:46.432793,-135.0
2023-08-10 18:33:46.440484,-128.0
2023-08-10 18:33:46.448175,-123.0
2023-08-10 18:33:46.455866,-119.0
2023-08-10 18:33:46.463557,-114.0
2023-08-10 18:33:46.471248,-111.0
2023-08-10 18:33:46.478940,-104.0
2023-08-10 18:33:46.486631,-99.0
2023-08-10 18:33:46.494322,-99.0
2023-08-10 18:33:46.502013,-97.0
2023-08-10 18:33:46.509704,-95.0
2023-08-10 18:33:46.517395,-95.0
2023-08-10 18:33:46.525086,-95.0
2023-08-10 18:33:46.532777,-92.0
2023-08-10 18:33:46.540468,-92.0
2023-08-10 18:33:46.548159,-92.0
2023-08-10 18:33:46.555850,-95.0
2023-08-10 18:33:46.563541,-95.0
2023-08-10 18:33:46.571232,-95.0
2023-08-10 18:33:46.578923,-97.0
2023-08-10 18:33:46.586614,-99.0
2023-08-10 18:33:46.594305,-104.0
2023-08-10 18:33:46.601996,-97.0
2023-08-10 18:33:46.609687,-92.0
2023-08-10 18:33:46.617378,-92.0
2023-08-10 18:33:46.625069,-95.0
2023-08-10 18:33:46.632760,-92.0
2023-08-10 18:33:46.640451,-92.0
2023-08-10 18:33:46.648142,-90.0
2023-08-10 18:33:46.655833,-88.0
2023-08-10 18:33:46.663524,-85.0
2023-08-10 18:33:46.671215,-88.0
2023-08-10 18:33:46.678906,-85.0
2023-08-10 18:33:46.686597,-80.0
2023-08-10 18:33:46.694288,-80.0
2023-08-10 18:33:46.701979,-83.0
2023-08-10 18:33:46.709670,-85.0
2023-08-10 18:33:46.717361,-88.0
2023-08-10 18:33:46.725052,-88.0
2023-08-10 18:33:46.732743,-83.0
2023-08-10 18:33:46.740434,-83.0
2023-08-10 18:33:46.748125,-83.0
2023-08-10 18:33:46.755816,-78.0
2023-08-10 18:33:46.763507,-73.0
2023-08-10 18:33:46.771198,-73.0
2023-08-10 18:33:46.778889,-80.0
2023-08-10 18:33:46.786580,-85.0
2023-08-10 18:33:46.794271,-80.0
2023-08-10 18:33:46.801962,-78.0
2023-08-10 18:33:46.809653,-78.0
2023-08-10 18:33:46.817344,-78.0
2023-08-10 18:33:46.825036,-76.0
2023-08-10 18:33:46.832727,-76.0
2023-08-10 18:33:46.840418,-76.0
2023-08-10 18:33:46.848109,-71.0
2023-08-10 18:33:46.855800,-71.0
2023-08-10 18:33:46.863491,-73.0
2023-08-10 18:33:46.871182,-69.0
2023-08-10 18:33:46.878873,-64.0
2023-08-10 18:33:46.886564,-66.0
2023-08-10 18:33:46.894255,-69.0
2023-08-10 18:33:46.901946,-66.0
2023-08-10 18:33:46.909637,-61.0
2023-08-10 18:33:46.917328,-66.0
2023-08-10 18:33:46.925019,-61.0
2023-08-10 18:33:46.932710,-54.0
2023-08-10 18:33:46.940401,-52.0
2023-08-10 18:33:46.948092,-57.0
2023-08-10 18:33:46.955783,-47.0
2023-08-10 18:33:46.963474,-19.0
2023-08-10 18:33:46.971165,-9.0
2023-08-10 18:33:46.978856,-23.0
2023-08-10 18:33:46.986547,-33.0
2023-08-10 18:33:46.994238,-42.0
2023-08-10 18:33:47.001929,-59.0
2023-08-10 18:33:47.009620,-69.0
2023-08-10 18:33:47.017311,-61.0
2023-08-10 18:33:47.025002,-61.0
2023-08-10 18:33:47.032693,-66.0
2023-08-10 18:33:47.040384,-59.0
2023-08-10 18:33:47.048075,-54.0
2023-08-10 18:33:47.055766,-69.0
2023-08-10 18:33:47.063457,-61.0
2023-08-10 18:33:47.071148,116.0
2023-08-10 18:33:47.078839,561.0
2023-08-10 18:33:47.086530,1042.0
2023-08-10 18:33:47.094221,1033.0
2023-08-10 18:33:47.101912,197.0
2023-08-10 18:33:47.109603,-726.0
2023-08-10 18:33:47.117294,-633.0
2023-08-10 18:33:47.124985,-90.0
2023-08-10 18:33:47.132676,-92.0
2023-08-10 18:33:47.140367,-226.0
2023-08-10 18:33:47.148058,-111.0
2023-08-10 18:33:47.155749,-80.0
2023-08-10 18:33:47.163440,-130.0
2023-08-10 18:33:47.171132,-104.0
2023-08-10 18:33:47.178823,-76.0
2023-08-10 18:33:47.186514,-90.0
2023-08-10 18:33:47.194205,-83.0
2023-08-10 18:33:47.201896,-66.0
2023-08-10 18:33:47.209587,-69.0
2023-08-10 18:33:47.217278,-71.0
2023-08-10 18:33:47.224969,-61.0
2023-08-10 18:33:47.232660,-52.0
2023-08-10 18:33:47.240351,-45.0
2023-08-10 18:33:47.248042,-38.0
2023-08-10 18:33:47.255733,-28.0
2023-08-10 18:33:47.263424,-19.0
2023-08-10 18:33:47.271115,-9.0
2023-08-10 18:33:47.278806,-2.0
2023-08-10 18:33:47.286497,4.0
2023-08-10 18:33:47.294188,21.0
2023-08-10 18:33:47.301879,38.0
2023-08-10 18:33:47.309570,49.0
2023-08-10 18:33:47.317261,66.0
2023-08-10 18:33:47.324952,80.0
2023-08-10 18:33:47.332643,90.0
2023-08-10 18:33:47.340334,107.0
2023-08-10 18:33:47.348025,119.0
2023-08-10 18:33:47.355716,111.0
2023-08-10 18:33:47.363407,114.0
2023-08-10 18:33:47.371098,109.0
2023-08-10 18:33:47.378789,66.0
2023-08-10 18:33:47.386480,26.0
2023-08-10 18:33:47.394171,7.0
2023-08-10 18:33:47.401862,-26.0
2023-08-10 18:33:47.409553,-73.0
2023-08-10 18:33:47.417244,-104.0
2023-08-10 18:33:47.424935,-126.0
2023-08-10 18:33:47.432626,-149.0
2023-08-10 18:33:47.440317,-164.0
2023-08-10 18:33:47.448008,-169.0
2023-08-10 18:33:47.455699,-171.0
2023-08-10 18:33:47.463390,-180.0
2023-08-10 18:33:47.471081,-180.0
2023-08-10 18:33:47.478772,-159.0
2023-08-10 18:33:47.486463,-147.0
2023-08-10 18:33:47.494154,-154.0
2023-08-10 18:33:47.501845,-154.0
2023-08-10 18:33:47.509537,-140.0
2023-08-10 18:33:47.517228,-133.0
2023-08-10 18:33:47.524919,-126.0
2023-08-10 18:33:47.532610,-116.0
2023-08-10 18:33:47.540301,-107.0
2023-08-10 18:33:47.547992,-109.0
2023-08-10 18:33:47.555683,-107.0
2023-08-10 18:33:47.563374,-95.0
2023-08-10 18:33:47.571065,-90.0
2023-08-10 18:33:47.578756,-90.0
2023-08-10 18:33:47.586447,-83.0
2023-08-10 18:33:47.594138,-80.0
2023-08-10 18:33:47.601829,-80.0
2023-08-10 18:33:47.609520,-76.0
2023-08-10 18:33:47.617211,-76.0
2023-08-10 18:33:47.624902,-76.0
2023-08-10 18:33:47.632593,-76.0
2023-08-10 18:33:47.640284,-78.0
2023-08-10 18:33:47.647975,-80.0
2023-08-10 18:33:47.655666,-78.0
2023-08-10 18:33:47.663357,-76.0
2023-08-10 18:33:47.671048,-69.0
2023-08-10 18:33:47.678739,-71.0
2023-08-10 18:33:47.686430,-80.0
2023-08-10 18:33:47.694121,-78.0
2023-08-10 18:33:47.701812,-73.0
2023-08-10 18:33:47.709503,-73.0
2023-08-10 18:33:47.717194,-73.0
2023-08-10 18:33:47.724885,-78.0
2023-08-10 18:33:47.732576,-80.0
2023-08-10 18:33:47.740267,-71.0
2023-08-10 18:33:47.747958,-69.0
2023-08-10 18:33:47.755649,-71.0
2023-08-10 18:33:47.763340,-69.0
2023-08-10 18:33:47.771031,-66.0
2023-08-10 18:33:47.778722,-66.0
2023-08-10 18:33:47.786413,-66.0
2023-08-10 18:33:47.794104,-66.0
2023-08-10 18:33:47.801795,-61.0
2023-08-10 18:33:47.809486,-59.0
2023-08-10 18:33:47.817177,-59.0
2023-08-10 18:33:47.824868,-61.0
2023-08-10 18:33:47.832559,-61.0
2023-08-10 18:33:47.840250,-57.0
2023-08-10 18:33:47.847941,-59.0
2023-08-10 18:33:47.855633,-66.0
2023-08-10 18:33:47.863324,-69.0
2023-08-10 18:33:47.871015,-69.0
2023-08-10 18:33:47.878706,-64.0
2023-08-10 18:33:47.886397,-61.0
2023-08-10 18:33:47.894088,-61.0
2023-08-10 18:33:47.901779,-64.0
2023-08-10 18:33:47.909470,-71.0
2023-08-10 18:33:47.917161,-76.0
2023-08-10 18:33:47.924852,-69.0
2023-08-10 18:33:47.932543,-69.0
2023-08-10 18:33:47.940234,-76.0
2023-08-10 18:33:47.947925,-71.0
2023-08-10 18:33:47.955616,-61.0
2023-08-10 18:33:47.963307,-64.0
2023-08-10 18:33:47.970998,-64.0
2023-08-10 18:33:47.978689,-61.0
2023-08-10 18:33:47.986380,-66.0
2023-08-10 18:33:47.994071,-61.0
2023-08-10 18:33:48.001762,-49.0
2023-08-10 18:33:48.009453,-52.0
2023-08-10 18:33:48.017144,-59.0
2023-08-10 18:33:48.024835,-54.0
2023-08-10 18:33:48.032526,-49.0
2023-08-10 18:33:48.040217,-54.0
2023-08-10 18:33:48.047908,-54.0
2023-08-10 18:33:48.055599,-45.0
2023-08-10 18:33:48.063290,-47.0
2023-08-10 18:33:48.070981,-49.0
2023-08-10 18:33:48.078672,-28.0
2023-08-10 18:33:48.086363,-4.0
2023-08-10 18:33:48.094054,-9.0
2023-08-10 18:33:48.101745,-19.0
2023-08-10 18:33:48.109436,-21.0
2023-08-10 18:33:48.117127,-33.0
2023-08-10 18:33:48.124818,-52.0
2023-08-10 18:33:48.132509,-54.0
2023-08-10 18:33:48.140200,-35.0
2023-08-10 18:33:48.147891,-38.0
2023-08-10 18:33:48.155582,-69.0
2023-08-10 18:33:48.163273,-71.0
2023-08-10 18:33:48.170964,-49.0
2023-08-10 18:33:48.178655,-71.0
2023-08-10 18:33:48.186346,-57.0
2023-08-10 18:33:48.194037,214.0
2023-08-10 18:33:48.201729,730.0
2023-08-10 18:33:48.209420,1144.0
2023-08-10 18:33:48.217111,947.0
2023-08-10 18:33:48.224802,-33.0
2023-08-10 18:33:48.232493,-804.0
2023-08-10 18:33:48.240184,-511.0
2023-08-10 18:33:48.247875,-76.0
2023-08-10 18:33:48.255566,-178.0
2023-08-10 18:33:48.263257,-238.0
2023-08-10 18:33:48.270948,-107.0
2023-08-10 18:33:48.278639,-73.0
2023-08-10 18:33:48.286330,-102.0
2023-08-10 18:33:48.294021,-116.0
2023-08-10 18:33:48.301712,-133.0
2023-08-10 18:33:48.309403,-119.0
2023-08-10 18:33:48.317094,-76.0
2023-08-10 18:33:48.324785,-42.0
2023-08-10 18:33:48.332476,-47.0
2023-08-10 18:33:48.340167,-49.0
2023-08-10 18:33:48.347858,-23.0
2023-08-10 18:33:48.355549,-9.0
2023-08-10 18:33:48.363240,-19.0
2023-08-10 18:33:48.370931,-19.0
2023-08-10 18:33:48.378622,-9.0
2023-08-10 18:33:48.386313,4.0
2023-08-10 18:33:48.394004,0.0
2023-08-10 18:33:48.401695,-2.0
2023-08-10 18:33:48.409386,40.0
2023-08-10 18:33:48.417077,69.0
2023-08-10 18:33:48.424768,73.0
2023-08-10 18:33:48.432459,102.0
2023-08-10 18:33:48.440150,109.0
2023-08-10 18:33:48.447841,90.0
2023-08-10 18:33:48.455532,104.0
2023-08-10 18:33:48.463223,133.0
2023-08-10 18:33:48.470914,142.0
2023-08-10 18:33:48.478605,133.0
2023-08-10 18:33:48.486296,111.0
2023-08-10 18:33:48.493987,107.0
2023-08-10 18:33:48.501678,114.0
2023-08-10 18:33:48.509369,71.0
2023-08-10 18:33:48.517060,7.0
2023-08-10 18:33:48.524751,-28.0
2023-08-10 18:33:48.532442,-57.0
2023-08-10 18:33:48.540133,-97.0
2023-08-10 18:33:48.547825,-126.0
2023-08-10 18:33:48.555516,-145.0
2023-08-10 18:33:48.563207,-164.0
2023-08-10 18:33:48.570898,-173.0
2023-08-10 18:33:48.578589,-169.0
2023-08-10 18:33:48.586280,-154.0
2023-08-10 18:33:48.593971,-147.0
2023-08-10 18:33:48.601662,-152.0
2023-08-10 18:33:48.609353,-152.0
2023-08-10 18:33:48.617044,-142.0
2023-08-10 18:33:48.624735,-140.0
2023-08-10 18:33:48.632426,-140.0
2023-08-10 18:33:48.640117,-130.0
2023-08-10 18:33:48.647808,-123.0
2023-08-10 18:33:48.655499,-116.0
2023-08-10 18:33:48.663190,-109.0
2023-08-10 18:33:48.670881,-107.0
2023-08-10 18:33:48.678572,-102.0
2023-08-10 18:33:48.686263,-90.0
2023-08-10 18:33:48.693954,-85.0
2023-08-10 18:33:48.701645,-90.0
2023-08-10 18:33:48.709336,-88.0
2023-08-10 18:33:48.717027,-83.0
2023-08-10 18:33:48.724718,-85.0
2023-08-10 18:33:48.732409,-83.0
2023-08-10 18:33:48.740100,-76.0
2023-08-10 18:33:48.747791,-78.0
2023-08-10 18:33:48.755482,-85.0
2023-08-10 18:33:48.763173,-85.0
2023-08-10 18:33:48.770864,-83.0
2023-08-10 18:33:48.778555,-85.0
2023-08-10 18:33:48.786246,-83.0
2023-08-10 18:33:48.793937,-78.0
2023-08-10 18:33:48.801628,-80.0
2023-08-10 18:33:48.809319,-90.0
2023-08-10 18:33:48.817010,-85.0
2023-08-10 18:33:48.824701,-78.0
2023-08-10 18:33:48.832392,-80.0
2023-08-10 18:33:48.840083,-85.0
2023-08-10 18:33:48.847774,-80.0
2023-08-10 18:33:48.855465,-78.0
2023-08-10 18:33:48.863156,-80.0
2023-08-10 18:33:48.870847,-78.0
2023-08-10 18:33:48.878538,-71.0
2023-08-10 18:33:48.886230,-73.0
2023-08-10 18:33:48.893921,-80.0
2023-08-10 18:33:48.901612,-76.0
2023-08-10 18:33:48.909303,-69.0
2023-08-10 18:33:48.916994,-73.0
2023-08-10 18:33:48.924685,-73.0
2023-08-10 18:33:48.932376,-71.0
2023-08-10 18:33:48.940067,-76.0
2023-08-10 18:33:48.947758,-80.0
2023-08-10 18:33:48.955449,-76.0
2023-08-10 18:33:48.963140,-71.0
2023-08-10 18:33:48.970831,-73.0
2023-08-10 18:33:48.978522,-78.0
2023-08-10 18:33:48.986213,-83.0
2023-08-10 18:33:48.993904,-83.0
2023-08-10 18:33:49.001595,-80.0
2023-08-10 18:33:49.009286,-78.0
2023-08-10 18:33:49.016977,-73.0
2023-08-10 18:33:49.024668,-73.0
2023-08-10 18:33:49.032359,-78.0
2023-08-10 18:33:49.040050,-78.0
2023-08-10 18:33:49.047741,-73.0
2023-08-10 18:33:49.055432,-73.0
2023-08-10 18:33:49.063123,-73.0
2023-08-10 18:33:49.070814,-69.0
2023-08-10 18:33:49.078505,-66.0
2023-08-10 18:33:49.086196,-61.0
2023-08-10 18:33:49.093887,-59.0
2023-08-10 18:33:49.101578,-54.0
2023-08-10 18:33:49.109269,-33.0
2023-08-10 18:33:49.116960,-19.0
2023-08-10 18:33:49.124651,-28.0
2023-08-10 18:33:49.132342,-42.0
2023-08-10 18:33:49.140033,-42.0
2023-08-10 18:33:49.147724,-52.0
2023-08-10 18:33:49.155415,-66.0
2023-08-10 18:33:49.163106,-71.0
2023-08-10 18:33:49.170797,-66.0
2023-08-10 18:33:49.178488,-66.0
2023-08-10 18:33:49.186179,-61.0
2023-08-10 18:33:49.193870,-57.0
2023-08-10 18:33:49.201561,-64.0
2023-08-10 18:33:49.209252,-71.0
2023-08-10 18:33:49.216943,35.0
2023-08-10 18:33:49.224634,407.0
2023-08-10 18:33:49.232326,904.0
2023-08-10 18:33:49.240017,1075.0
2023-08-10 18:33:49.247708,466.0
2023-08-10 18:33:49.255399,-547.0
2023-08-10 18:33:49.263090,-778.0
2023-08-10 18:33:49.270781,-226.0
2023-08-10 18:33:49.278472,-38.0
2023-08-10 18:33:49.286163,-188.0
2023-08-10 18:33:49.293854,-128.0
2023-08-10 18:33:49.301545,-61.0
2023-08-10 18:33:49.309236,-111.0
2023-08-10 18:33:49.316927,-107.0
2023-08-10 18:33:49.324618,-66.0
2023-08-10 18:33:49.332309,-76.0
2023-08-10 18:33:49.340000,-80.0
2023-08-10 18:33:49.347691,-69.0
2023-08-10 18:33:49.355382,-66.0
2023-08-10 18:33:49.363073,-59.0
2023-08-10 18:33:49.370764,-45.0
2023-08-10 18:33:49.378455,-35.0
2023-08-10 18:33:49.386146,-38.0
2023-08-10 18:33:49.393837,-33.0
2023-08-10 18:33:49.401528,-16.0
2023-08-10 18:33:49.409219,-4.0
2023-08-10 18:33:49.416910,0.0
2023-08-10 18:33:49.424601,11.0
2023-08-10 18:33:49.432292,26.0
2023-08-10 18:33:49.439983,30.0
2023-08-10 18:33:49.447674,38.0
2023-08-10 18:33:49.455365,54.0
2023-08-10 18:33:49.463056,76.0
2023-08-10 18:33:49.470747,90.0
2023-08-10 18:33:49.478438,97.0
2023-08-10 18:33:49.486129,107.0
2023-08-10 18:33:49.493820,114.0
2023-08-10 18:33:49.501511,114.0
2023-08-10 18:33:49.509202,114.0
2023-08-10 18:33:49.516893,104.0
2023-08-10 18:33:49.524584,88.0
2023-08-10 18:33:49.532275,64.0
2023-08-10 18:33:49.539966,23.0
2023-08-10 18:33:49.547657,-26.0
2023-08-10 18:33:49.555348,-71.0
2023-08-10 18:33:49.563039,-107.0
2023-08-10 18:33:49.570730,-145.0
2023-08-10 18:33:49.578422,-176.0
2023-08-10 18:33:49.586113,-183.0
2023-08-10 18:33:49.593804,-185.0
2023-08-10 18:33:49.601495,-195.0
2023-08-10 18:33:49.609186,-197.0
2023-08-10 18:33:49.616877,-199.0
2023-08-10 18:33:49.624568,-202.0
2023-08-10 18:33:49.632259,-195.0
2023-08-10 18:33:49.639950,-188.0
2023-08-10 18:33:49.647641,-180.0
2023-08-10 18:33:49.655332,-166.0
2023-08-10 18:33:49.663023,-157.0
2023-08-10 18:33:49.670714,-154.0
2023-08-10 18:33:49.678405,-152.0
2023-08-10 18:33:49.686096,-138.0
2023-08-10 18:33:49.693787,-128.0
2023-08-10 18:33:49.701478,-126.0
2023-08-10 18:33:49.709169,-126.0
2023-08-10 18:33:49.716860,-116.0
2023-08-10 18:33:49.724551,-107.0
2023-08-10 18:33:49.732242,-104.0
2023-08-10 18:33:49.739933,-102.0
2023-08-10 18:33:49.747624,-102.0
2023-08-10 18:33:49.755315,-104.0
2023-08-10 18:33:49.763006,-104.0
2023-08-10 18:33:49.770697,-107.0
2023-08-10 18:33:49.778388,-109.0
2023-08-10 18:33:49.786079,-107.0
2023-08-10 18:33:49.793770,-104.0
2023-08-10 18:33:49.801461,-109.0
2023-08-10 18:33:49.809152,-109.0
2023-08-10 18:33:49.816843,-104.0
2023-08-10 18:33:49.824534,-107.0
2023-08-10 18:33:49.832225,-104.0
2023-08-10 18:33:49.839916,-102.0
2023-08-10 18:33:49.847607,-104.0
2023-08-10 18:33:49.855298,-102.0
2023-08-10 18:33:49.862989,-97.0
2023-08-10 18:33:49.870680,-99.0
2023-08-10 18:33:49.878371,-99.0
2023-08-10 18:33:49.886062,-95.0
2023-08-10 18:33:49.893753,-88.0
2023-08-10 18:33:49.901444,-90.0
2023-08-10 18:33:49.909135,-90.0
2023-08-10 18:33:49.916827,-88.0
2023-08-10 18:33:49.924518,-85.0
2023-08-10 18:33:49.932209,-88.0
2023-08-10 18:33:49.939900,-85.0
2023-08-10 18:33:49.947591,-88.0
2023-08-10 18:33:49.955282,-95.0
2023-08-10 18:33:49.962973,-92.0
2023-08-10 18:33:49.970664,-85.0
2023-08-10 18:33:49.978355,-85.0
2023-08-10 18:33:49.986046,-83.0
2023-08-10 18:33:49.993737,-78.0
2023-08-10 18:33:50.001428,-76.0
2023-08-10 18:33:50.009119,-73.0
2023-08-10 18:33:50.016810,-76.0
2023-08-10 18:33:50.024501,-78.0
2023-08-10 18:33:50.032192,-76.0
2023-08-10 18:33:50.039883,-78.0
2023-08-10 18:33:50.047574,-80.0
2023-08-10 18:33:50.055265,-73.0
2023-08-10 18:33:50.062956,-69.0
2023-08-10 18:33:50.070647,-73.0
2023-08-10 18:33:50.078338,-78.0
2023-08-10 18:33:50.086029,-71.0
2023-08-10 18:33:50.093720,-64.0
2023-08-10 18:33:50.101411,-64.0
2023-08-10 18:33:50.109102,-71.0
2023-08-10 18:33:50.116793,-73.0
2023-08-10 18:33:50.124484,-69.0
2023-08-10 18:33:50.132175,-61.0
2023-08-10 18:33:50.139866,-40.0
2023-08-10 18:33:50.147557,-23.0
2023-08-10 18:33:50.155248,-33.0
2023-08-10 18:33:50.162939,-42.0
2023-08-10 18:33:50.170630,-47.0
2023-08-10 18:33:50.178321,-61.0
2023-08-10 18:33:50.186012,-76.0
2023-08-10 18:33:50.193703,-76.0
2023-08-10 18:33:50.201394,-71.0
2023-08-10 18:33:50.209085,-73.0
2023-08-10 18:33:50.216776,-69.0
2023-08-10 18:33:50.224467,-61.0
2023-08-10 18:33:50.232158,-69.0
2023-08-10 18:33:50.239849,-83.0
2023-08-10 18:33:50.247540,28.0
2023-08-10 18:33:50.255231,418.0
2023-08-10 18:33:50.262923,933.0
2023-08-10 18:33:50.270614,1104.0
2023-08-10 18:33:50.278305,483.0
2023-08-10 18:33:50.285996,-557.0
2023-08-10 18:33:50.293687,-780.0
2023-08-10 18:33:50.301378,-211.0
2023-08-10 18:33:50.309069,-38.0
2023-08-10 18:33:50.316760,-204.0
2023-08-10 18:33:50.324451,-138.0
2023-08-10 18:33:50.332142,-66.0
2023-08-10 18:33:50.339833,-116.0
2023-08-10 18:33:50.347524,-104.0
2023-08-10 18:33:50.355215,-66.0
2023-08-10 18:33:50.362906,-76.0
2023-08-10 18:33:50.370597,-76.0
2023-08-10 18:33:50.378288,-59.0
2023-08-10 18:33:50.385979,-57.0
2023-08-10 18:33:50.393670,-57.0
2023-08-10 18:33:50.401361,-52.0
2023-08-10 18:33:50.409052,-42.0
2023-08-10 18:33:50.416743,-33.0
2023-08-10 18:33:50.424434,-23.0
2023-08-10 18:33:50.432125,-16.0
2023-08-10 18:33:50.439816,-9.0
2023-08-10 18:33:50.447507,-2.0
2023-08-10 18:33:50.455198,2.0
2023-08-10 18:33:50.462889,14.0
2023-08-10 18:33:50.470580,30.0
2023-08-10 18:33:50.478271,45.0
2023-08-10 18:33:50.485962,59.0
2023-08-10 18:33:50.493653,76.0
2023-08-10 18:33:50.501344,92.0
2023-08-10 18:33:50.509035,107.0
2023-08-10 18:33:50.516726,119.0
2023-08-10 18:33:50.524417,126.0
2023-08-10 18:33:50.532108,126.0
2023-08-10 18:33:50.539799,119.0
2023-08-10 18:33:50.547490,109.0
2023-08-10 18:33:50.555181,92.0
2023-08-10 18:33:50.562872,61.0
2023-08-10 18:33:50.570563,23.0
2023-08-10 18:33:50.578254,-14.0
2023-08-10 18:33:50.585945,-54.0
2023-08-10 18:33:50.593636,-92.0
2023-08-10 18:33:50.601327,-126.0
2023-08-10 18:33:50.609019,-149.0
2023-08-10 18:33:50.616710,-164.0
2023-08-10 18:33:50.624401,-169.0
2023-08-10 18:33:50.632092,-173.0
2023-08-10 18:33:50.639783,-178.0
2023-08-10 18:33:50.647474,-178.0
2023-08-10 18:33:50.655165,-176.0
2023-08-10 18:33:50.662856,-176.0
2023-08-10 18:33:50.670547,-171.0
2023-08-10 18:33:50.678238,-161.0
2023-08-10 18:33:50.685929,-149.0
2023-08-10 18:33:50.693620,-147.0
2023-08-10 18:33:50.701311,-145.0
2023-08-10 18:33:50.709002,-133.0
2023-08-10 18:33:50.716693,-126.0
2023-08-10 18:33:50.724384,-121.0
2023-08-10 18:33:50.732075,-114.0
2023-08-10 18:33:50.739766,-111.0
2023-08-10 18:33:50.747457,-107.0
2023-08-10 18:33:50.755148,-99.0
2023-08-10 18:33:50.762839,-92.0
2023-08-10 18:33:50.770530,-95.0
2023-08-10 18:33:50.778221,-102.0
2023-08-10 18:33:50.785912,-102.0
2023-08-10 18:33:50.793603,-97.0
2023-08-10 18:33:50.801294,-95.0
2023-08-10 18:33:50.808985,-97.0
2023-08-10 18:33:50.816676,-97.0
2023-08-10 18:33:50.824367,-97.0
2023-08-10 18:33:50.832058,-99.0
2023-08-10 18:33:50.839749,-99.0
2023-08-10 18:33:50.847440,-97.0
2023-08-10 18:33:50.855131,-95.0
2023-08-10 18:33:50.862822,-97.0
2023-08-10 18:33:50.870513,-102.0
2023-08-10 18:33:50.878204,-95.0
2023-08-10 18:33:50.885895,-88.0
2023-08-10 18:33:50.893586,-90.0
2023-08-10 18:33:50.901277,-90.0
2023-08-10 18:33:50.908968,-85.0
2023-08-10 18:33:50.916659,-83.0
2023-08-10 18:33:50.924350,-88.0
2023-08-10 18:33:50.932041,-90.0
2023-08-10 18:33:50.939732,-88.0
2023-08-10 18:33:50.947424,-80.0
2023-08-10 18:33:50.955115,-80.0
2023-08-10 18:33:50.962806,-90.0
2023-08-10 18:33:50.970497,-90.0
2023-08-10 18:33:50.978188,-83.0
2023-08-10 18:33:50.985879,-83.0
2023-08-10 18:33:50.993570,-85.0
2023-08-10 18:33:51.001261,-80.0
2023-08-10 18:33:51.008952,-78.0
2023-08-10 18:33:51.016643,-83.0
2023-08-10 18:33:51.024334,-85.0
2023-08-10 18:33:51.032025,-83.0
2023-08-10 18:33:51.039716,-76.0
2023-08-10 18:33:51.047407,-73.0
2023-08-10 18:33:51.055098,-73.0
2023-08-10 18:33:51.062789,-76.0
2023-08-10 18:33:51.070480,-73.0
2023-08-10 18:33:51.078171,-71.0
2023-08-10 18:33:51.085862,-71.0
2023-08-10 18:33:51.093553,-66.0
2023-08-10 18:33:51.101244,-66.0
2023-08-10 18:33:51.108935,-71.0
2023-08-10 18:33:51.116626,-71.0
2023-08-10 18:33:51.124317,-61.0
2023-08-10 18:33:51.132008,-57.0
2023-08-10 18:33:51.139699,-61.0
2023-08-10 18:33:51.147390,-64.0
2023-08-10 18:33:51.155081,-64.0
2023-08-10 18:33:51.162772,-59.0
2023-08-10 18:33:51.170463,-57.0
2023-08-10 18:33:51.178154,-59.0
2023-08-10 18:33:51.185845,-61.0
2023-08-10 18:33:51.193536,-57.0
2023-08-10 18:33:51.201227,-49.0
2023-08-10 18:33:51.208918,-49.0
2023-08-10 18:33:51.216609,-47.0
2023-08-10 18:33:51.224300,-33.0
2023-08-10 18:33:51.231991,-14.0
2023-08-10 18:33:51.239682,-19.0
2023-08-10 18:33:51.247373,-30.0
2023-08-10 18:33:51.255064,-40.0
2023-08-10 18:33:51.262755,-59.0
2023-08-10 18:33:51.270446,-76.0
2023-08-10 18:33:51.278137,-76.0
2023-08-10 18:33:51.285828,-73.0
2023-08-10 18:33:51.293520,-78.0
2023-08-10 18:33:51.301211,-76.0
2023-08-10 18:33:51.308902,-69.0
2023-08-10 18:33:51.316593,-71.0
2023-08-10 18:33:51.324284,-85.0
2023-08-10 18:33:51.331975,-57.0
2023-08-10 18:33:51.339666,183.0
2023-08-10 18:33:51.347357,673.0
2023-08-10 18:33:51.355048,1090.0
2023-08-10 18:33:51.362739,897.0
2023-08-10 18:33:51.370430,-71.0
2023-08-10 18:33:51.378121,-821.0
2023-08-10 18:33:51.385812,-511.0
2023-08-10 18:33:51.393503,-47.0
2023-08-10 18:33:51.401194,-138.0
2023-08-10 18:33:51.408885,-204.0
2023-08-10 18:33:51.416576,-88.0
2023-08-10 18:33:51.424267,-95.0
2023-08-10 18:33:51.431958,-133.0
2023-08-10 18:33:51.439649,-88.0
2023-08-10 18:33:51.447340,-66.0
2023-08-10 18:33:51.455031,-85.0
2023-08-10 18:33:51.462722,-83.0
2023-08-10 18:33:51.470413,-73.0
2023-08-10 18:33:51.478104,-71.0
2023-08-10 18:33:51.485795,-64.0
2023-08-10 18:33:51.493486,-54.0
2023-08-10 18:33:51.501177,-45.0
2023-08-10 18:33:51.508868,-38.0
2023-08-10 18:33:51.516559,-38.0
2023-08-10 18:33:51.524250,-28.0
2023-08-10 18:33:51.531941,-11.0
2023-08-10 18:33:51.539632,-2.0
2023-08-10 18:33:51.547323,2.0
2023-08-10 18:33:51.555014,19.0
2023-08-10 18:33:51.562705,30.0
2023-08-10 18:33:51.570396,42.0
2023-08-10 18:33:51.578087,61.0
2023-08-10 18:33:51.585778,78.0
2023-08-10 18:33:51.593469,92.0
2023-08-10 18:33:51.601160,107.0
2023-08-10 18:33:51.608851,114.0
2023-08-10 18:33:51.616542,116.0
2023-08-10 18:33:51.624233,119.0
2023-08-10 18:33:51.631924,111.0
2023-08-10 18:33:51.639616,95.0
2023-08-10 18:33:51.647307,73.0
2023-08-10 18:33:51.654998,45.0
2023-08-10 18:33:51.662689,14.0
2023-08-10 18:33:51.670380,-21.0
2023-08-10 18:33:51.678071,-61.0
2023-08-10 18:33:51.685762,-99.0
2023-08-10 18:33:51.693453,-128.0
2023-08-10 18:33:51.701144,-149.0
2023-08-10 18:33:51.708835,-164.0
2023-08-10 18:33:51.716526,-166.0
2023-08-10 18:33:51.724217,-169.0
2023-08-10 18:33:51.731908,-171.0
2023-08-10 18:33:51.739599,-169.0
2023-08-10 18:33:51.747290,-159.0
2023-08-10 18:33:51.754981,-154.0
2023-08-10 18:33:51.762672,-154.0
2023-08-10 18:33:51.770363,-152.0
2023-08-10 18:33:51.778054,-145.0
2023-08-10 18:33:51.785745,-138.0
2023-08-10 18:33:51.793436,-133.0
2023-08-10 18:33:51.801127,-126.0
2023-08-10 18:33:51.808818,-116.0
2023-08-10 18:33:51.816509,-116.0
2023-08-10 18:33:51.824200,-121.0
2023-08-10 18:33:51.831891,-114.0
2023-08-10 18:33:51.839582,-109.0
2023-08-10 18:33:51.847273,-109.0
2023-08-10 18:33:51.854964,-109.0
2023-08-10 18:33:51.862655,-107.0
2023-08-10 18:33:51.870346,-107.0
2023-08-10 18:33:51.878037,-97.0
2023-08-10 18:33:51.885728,-99.0
2023-08-10 18:33:51.893419,-104.0
2023-08-10 18:33:51.901110,-99.0
2023-08-10 18:33:51.908801,-102.0
2023-08-10 18:33:51.916492,-109.0
2023-08-10 18:33:51.924183,-99.0
2023-08-10 18:33:51.931874,-90.0
2023-08-10 18:33:51.939565,-95.0
2023-08-10 18:33:51.947256,-99.0
2023-08-10 18:33:51.954947,-95.0
2023-08-10 18:33:51.962638,-97.0
2023-08-10 18:33:51.970329,-104.0
2023-08-10 18:33:51.978021,-104.0
2023-08-10 18:33:51.985712,-102.0
2023-08-10 18:33:51.993403,-102.0
2023-08-10 18:33:52.001094,-99.0
2023-08-10 18:33:52.008785,-95.0
2023-08-10 18:33:52.016476,-95.0
2023-08-10 18:33:52.024167,-95.0
2023-08-10 18:33:52.031858,-95.0
2023-08-10 18:33:52.039549,-90.0
2023-08-10 18:33:52.047240,-85.0
2023-08-10 18:33:52.054931,-88.0
2023-08-10 18:33:52.062622,-88.0
2023-08-10 18:33:52.070313,-90.0
2023-08-10 18:33:52.078004,-83.0
2023-08-10 18:33:52.085695,-73.0
2023-08-10 18:33:52.093386,-80.0
2023-08-10 18:33:52.101077,-80.0
2023-08-10 18:33:52.108768,-73.0
2023-08-10 18:33:52.116459,-73.0
2023-08-10 18:33:52.124150,-78.0
2023-08-10 18:33:52.131841,-78.0
2023-08-10 18:33:52.139532,-76.0
2023-08-10 18:33:52.147223,-64.0
2023-08-10 18:33:52.154914,-59.0
2023-08-10 18:33:52.162605,-66.0
2023-08-10 18:33:52.170296,-66.0
2023-08-10 18:33:52.177987,-64.0
2023-08-10 18:33:52.185678,-66.0
2023-08-10 18:33:52.193369,-69.0
2023-08-10 18:33:52.201060,-69.0
2023-08-10 18:33:52.208751,-61.0
2023-08-10 18:33:52.216442,-54.0
2023-08-10 18:33:52.224133,-57.0
2023-08-10 18:33:52.231824,-61.0
2023-08-10 18:33:52.239515,-57.0
2023-08-10 18:33:52.247206,-57.0
2023-08-10 18:33:52.254897,-61.0
2023-08-10 18:33:52.262588,-64.0
2023-08-10 18:33:52.270279,-54.0
2023-08-10 18:33:52.277970,-40.0
2023-08-10 18:33:52.285661,-26.0
2023-08-10 18:33:52.293352,-16.0
2023-08-10 18:33:52.301043,-21.0
2023-08-10 18:33:52.308734,-30.0
2023-08-10 18:33:52.316425,-40.0
2023-08-10 18:33:52.324117,-54.0
2023-08-10 18:33:52.331808,-69.0
2023-08-10 18:33:52.339499,-66.0
2023-08-10 18:33:52.347190,-57.0
2023-08-10 18:33:52.354881,-61.0
2023-08-10 18:33:52.362572,-71.0
2023-08-10 18:33:52.370263,-69.0
2023-08-10 18:33:52.377954,-71.0
2023-08-10 18:33:52.385645,-85.0
2023-08-10 18:33:52.393336,-2.0
2023-08-10 18:33:52.401027,333.0
2023-08-10 18:33:52.408718,837.0
2023-08-10 18:33:52.416409,1090.0
2023-08-10 18:33:52.424100,583.0
2023-08-10 18:33:52.431791,-452.0
2023-08-10 18:33:52.439482,-795.0
2023-08-10 18:33:52.447173,-273.0
2023-08-10 18:33:52.454864,-40.0
2023-08-10 18:33:52.462555,-197.0
2023-08-10 18:33:52.470246,-152.0
2023-08-10 18:33:52.477937,-69.0
2023-08-10 18:33:52.485628,-114.0
2023-08-10 18:33:52.493319,-116.0
2023-08-10 18:33:52.501010,-80.0
2023-08-10 18:33:52.508701,-83.0
2023-08-10 18:33:52.516392,-88.0
2023-08-10 18:33:52.524083,-73.0
2023-08-10 18:33:52.531774,-69.0
2023-08-10 18:33:52.539465,-69.0
2023-08-10 18:33:52.547156,-52.0
2023-08-10 18:33:52.554847,-42.0
2023-08-10 18:33:52.562538,-47.0
2023-08-10 18:33:52.570229,-40.0
2023-08-10 18:33:52.577920,-23.0
2023-08-10 18:33:52.585611,-21.0
2023-08-10 18:33:52.593302,-16.0
2023-08-10 18:33:52.600993,-2.0
2023-08-10 18:33:52.608684,16.0
2023-08-10 18:33:52.616375,33.0
2023-08-10 18:33:52.624066,42.0
2023-08-10 18:33:52.631757,52.0
2023-08-10 18:33:52.639448,69.0
2023-08-10 18:33:52.647139,88.0
2023-08-10 18:33:52.654830,102.0
2023-08-10 18:33:52.662521,109.0
2023-08-10 18:33:52.670213,119.0
2023-08-10 18:33:52.677904,116.0
2023-08-10 18:33:52.685595,109.0
2023-08-10 18:33:52.693286,104.0
2023-08-10 18:33:52.700977,92.0
2023-08-10 18:33:52.708668,66.0
2023-08-10 18:33:52.716359,30.0
2023-08-10 18:33:52.724050,-14.0
2023-08-10 18:33:52.731741,-64.0
2023-08-10 18:33:52.739432,-95.0
2023-08-10 18:33:52.747123,-116.0
2023-08-10 18:33:52.754814,-145.0
2023-08-10 18:33:52.762505,-169.0
2023-08-10 18:33:52.770196,-176.0
2023-08-10 18:33:52.777887,-176.0
2023-08-10 18:33:52.785578,-173.0
2023-08-10 18:33:52.793269,-169.0
2023-08-10 18:33:52.800960,-169.0
2023-08-10 18:33:52.808651,-166.0
2023-08-10 18:33:52.816342,-152.0
2023-08-10 18:33:52.824033,-140.0
2023-08-10 18:33:52.831724,-142.0
2023-08-10 18:33:52.839415,-140.0
2023-08-10 18:33:52.847106,-130.0
2023-08-10 18:33:52.854797,-123.0
2023-08-10 18:33:52.862488,-121.0
2023-08-10 18:33:52.870179,-116.0
2023-08-10 18:33:52.877870,-111.0
2023-08-10 18:33:52.885561,-109.0
2023-08-10 18:33:52.893252,-102.0
2023-08-10 18:33:52.900943,-97.0
2023-08-10 18:33:52.908634,-99.0
2023-08-10 18:33:52.916325,-97.0
2023-08-10 18:33:52.924016,-92.0
2023-08-10 18:33:52.931707,-97.0
2023-08-10 18:33:52.939398,-99.0
2023-08-10 18:33:52.947089,-104.0
2023-08-10 18:33:52.954780,-107.0
2023-08-10 18:33:52.962471,-107.0
2023-08-10 18:33:52.970162,-104.0
2023-08-10 18:33:52.977853,-102.0
2023-08-10 18:33:52.985544,-107.0
2023-08-10 18:33:52.993235,-114.0
2023-08-10 18:33:53.000926,-114.0
2023-08-10 18:33:53.008618,-109.0
2023-08-10 18:33:53.016309,-104.0
2023-08-10 18:33:53.024000,-102.0
2023-08-10 18:33:53.031691,-99.0
2023-08-10 18:33:53.039382,-102.0
2023-08-10 18:33:53.047073,-104.0
2023-08-10 18:33:53.054764,-99.0
2023-08-10 18:33:53.062455,-90.0
2023-08-10 18:33:53.070146,-88.0
2023-08-10 18:33:53.077837,-90.0
2023-08-10 18:33:53.085528,-92.0
2023-08-10 18:33:53.093219,-90.0
2023-08-10 18:33:53.100910,-90.0
2023-08-10 18:33:53.108601,-85.0
2023-08-10 18:33:53.116292,-78.0
2023-08-10 18:33:53.123983,-78.0
2023-08-10 18:33:53.131674,-83.0
2023-08-10 18:33:53.139365,-80.0
2023-08-10 18:33:53.147056,-76.0
2023-08-10 18:33:53.154747,-73.0
2023-08-10 18:33:53.162438,-76.0
2023-08-10 18:33:53.170129,-76.0
2023-08-10 18:33:53.177820,-73.0
2023-08-10 18:33:53.185511,-69.0
2023-08-10 18:33:53.193202,-66.0
2023-08-10 18:33:53.200893,-66.0
2023-08-10 18:33:53.208584,-66.0
2023-08-10 18:33:53.216275,-69.0
2023-08-10 18:33:53.223966,-66.0
2023-08-10 18:33:53.231657,-61.0
2023-08-10 18:33:53.239348,-66.0
2023-08-10 18:33:53.247039,-73.0
2023-08-10 18:33:53.254730,-69.0
2023-08-10 18:33:53.262421,-61.0
2023-08-10 18:33:53.270112,-59.0
2023-08-10 18:33:53.277803,-59.0
2023-08-10 18:33:53.285494,-57.0
2023-08-10 18:33:53.293185,-49.0
2023-08-10 18:33:53.300876,-28.0
2023-08-10 18:33:53.308567,-14.0
2023-08-10 18:33:53.316258,-23.0
2023-08-10 18:33:53.323949,-38.0
2023-08-10 18:33:53.331640,-47.0
2023-08-10 18:33:53.339331,-57.0
2023-08-10 18:33:53.347022,-64.0
2023-08-10 18:33:53.354714,-66.0
2023-08-10 18:33:53.362405,-69.0
2023-08-10 18:33:53.370096,-69.0
2023-08-10 18:33:53.377787,-64.0
2023-08-10 18:33:53.385478,-57.0
2023-08-10 18:33:53.393169,-61.0
2023-08-10 18:33:53.400860,-73.0
2023-08-10 18:33:53.408551,35.0
2023-08-10 18:33:53.416242,418.0
2023-08-10 18:33:53.423933,921.0
2023-08-10 18:33:53.431624,1092.0
2023-08-10 18:33:53.439315,468.0
2023-08-10 18:33:53.447006,-568.0
2023-08-10 18:33:53.454697,-787.0
2023-08-10 18:33:53.462388,-209.0
2023-08-10 18:33:53.470079,-33.0
2023-08-10 18:33:53.477770,-202.0
2023-08-10 18:33:53.485461,-133.0
2023-08-10 18:33:53.493152,-69.0
2023-08-10 18:33:53.500843,-126.0
2023-08-10 18:33:53.508534,-111.0
2023-08-10 18:33:53.516225,-73.0
2023-08-10 18:33:53.523916,-88.0
2023-08-10 18:33:53.531607,-92.0
2023-08-10 18:33:53.539298,-76.0
2023-08-10 18:33:53.546989,-71.0
2023-08-10 18:33:53.554680,-71.0
2023-08-10 18:33:53.562371,-59.0
2023-08-10 18:33:53.570062,-52.0
2023-08-10 18:33:53.577753,-49.0
2023-08-10 18:33:53.585444,-40.0
2023-08-10 18:33:53.593135,-28.0
2023-08-10 18:33:53.600826,-19.0
2023-08-10 18:33:53.608517,-11.0
2023-08-10 18:33:53.616208,0.0
2023-08-10 18:33:53.623899,11.0
2023-08-10 18:33:53.631590,23.0
2023-08-10 18:33:53.639281,40.0
2023-08-10 18:33:53.646972,59.0
2023-08-10 18:33:53.654663,76.0
2023-08-10 18:33:53.662354,88.0
2023-08-10 18:33:53.670045,102.0
2023-08-10 18:33:53.677736,114.0
2023-08-10 18:33:53.685427,116.0
2023-08-10 18:33:53.693118,116.0
2023-08-10 18:33:53.700810,114.0
2023-08-10 18:33:53.708501,102.0
2023-08-10 18:33:53.716192,85.0
2023-08-10 18:33:53.723883,61.0
2023-08-10 18:33:53.731574,21.0
2023-08-10 18:33:53.739265,-26.0
2023-08-10 18:33:53.746956,-61.0
2023-08-10 18:33:53.754647,-95.0
2023-08-10 18:33:53.762338,-133.0
2023-08-10 18:33:53.770029,-154.0
2023-08-10 18:33:53.777720,-169.0
2023-08-10 18:33:53.785411,-178.0
2023-08-10 18:33:53.793102,-180.0
2023-08-10 18:33:53.800793,-176.0
2023-08-10 18:33:53.808484,-176.0
2023-08-10 18:33:53.816175,-176.0
2023-08-10 18:33:53.823866,-169.0
2023-08-10 18:33:53.831557,-161.0
2023-08-10 18:33:53.839248,-157.0
2023-08-10 18:33:53.846939,-152.0
2023-08-10 18:33:53.854630,-145.0
2023-08-10 18:33:53.862321,-138.0
2023-08-10 18:33:53.870012,-128.0
2023-08-10 18:33:53.877703,-121.0
2023-08-10 18:33:53.885394,-119.0
2023-08-10 18:33:53.893085,-111.0
2023-08-10 18:33:53.900776,-102.0
2023-08-10 18:33:53.908467,-99.0
2023-08-10 18:33:53.916158,-99.0
2023-08-10 18:33:53.923849,-95.0
2023-08-10 18:33:53.931540,-95.0
2023-08-10 18:33:53.939231,-99.0
2023-08-10 18:33:53.946922,-95.0
2023-08-10 18:33:53.954613,-92.0
2023-08-10 18:33:53.962304,-97.0
2023-08-10 18:33:53.969995,-97.0
2023-08-10 18:33:53.977686,-97.0
2023-08-10 18:33:53.985377,-107.0
2023-08-10 18:33:53.993068,-111.0
2023-08-10 18:33:54.000759,-114.0
2023-08-10 18:33:54.008450,-114.0
2023-08-10 18:33:54.016141,-114.0
2023-08-10 18:33:54.023832,-114.0
2023-08-10 18:33:54.031523,-121.0
2023-08-10 18:33:54.039215,-121.0
2023-08-10 18:33:54.046906,-114.0
2023-08-10 18:33:54.054597,-109.0
2023-08-10 18:33:54.062288,-109.0
2023-08-10 18:33:54.069979,-107.0
2023-08-10 18:33:54.077670,-107.0
2023-08-10 18:33:54.085361,-104.0
2023-08-10 18:33:54.093052,-102.0
2023-08-10 18:33:54.100743,-104.0
2023-08-10 18:33:54.108434,-102.0
2023-08-10 18:33:54.116125,-92.0
2023-08-10 18:33:54.123816,-92.0
2023-08-10 18:33:54.131507,-95.0
2023-08-10 18:33:54.139198,-92.0
2023-08-10 18:33:54.146889,-90.0
2023-08-10 18:33:54.154580,-90.0
2023-08-10 18:33:54.162271,-85.0
2023-08-10 18:33:54.169962,-88.0
2023-08-10 18:33:54.177653,-90.0
2023-08-10 18:33:54.185344,-78.0
2023-08-10 18:33:54.193035,-73.0
2023-08-10 18:33:54.200726,-83.0
2023-08-10 18:33:54.208417,-83.0
2023-08-10 18:33:54.216108,-78.0
2023-08-10 18:33:54.223799,-80.0
2023-08-10 18:33:54.231490,-83.0
2023-08-10 18:33:54.239181,-80.0
2023-08-10 18:33:54.246872,-80.0
2023-08-10 18:33:54.254563,-76.0
2023-08-10 18:33:54.262254,-73.0
2023-08-10 18:33:54.269945,-73.0
2023-08-10 18:33:54.277636,-71.0
2023-08-10 18:33:54.285327,-69.0
2023-08-10 18:33:54.293018,-73.0
2023-08-10 18:33:54.300709,-73.0
2023-08-10 18:33:54.308400,-69.0
2023-08-10 18:33:54.316091,-64.0
2023-08-10 18:33:54.323782,-64.0
2023-08-10 18:33:54.331473,-66.0
2023-08-10 18:33:54.339164,-66.0
2023-08-10 18:33:54.346855,-64.0
2023-08-10 18:33:54.354546,-61.0
2023-08-10 18:33:54.362237,-57.0
2023-08-10 18:33:54.369928,-47.0
2023-08-10 18:33:54.377619,-28.0
2023-08-10 18:33:54.385311,-14.0
2023-08-10 18:33:54.393002,-16.0
2023-08-10 18:33:54.400693,-26.0
2023-08-10 18:33:54.408384,-38.0
2023-08-10 18:33:54.416075,-54.0
2023-08-10 18:33:54.423766,-66.0
2023-08-10 18:33:54.431457,-69.0
2023-08-10 18:33:54.439148,-71.0
2023-08-10 18:33:54.446839,-69.0
2023-08-10 18:33:54.454530,-61.0
2023-08-10 18:33:54.462221,-59.0
2023-08-10 18:33:54.469912,-71.0
2023-08-10 18:33:54.477603,-88.0
2023-08-10 18:33:54.485294,-2.0
2023-08-10 18:33:54.492985,328.0
2023-08-10 18:33:54.500676,828.0
2023-08-10 18:33:54.508367,1094.0
2023-08-10 18:33:54.516058,630.0
2023-08-10 18:33:54.523749,-409.0
2023-08-10 18:33:54.531440,-825.0
2023-08-10 18:33:54.539131,-309.0
2023-08-10 18:33:54.546822,-30.0
2023-08-10 18:33:54.554513,-199.0
2023-08-10 18:33:54.562204,-178.0
2023-08-10 18:33:54.569895,-88.0
2023-08-10 18:33:54.577586,-133.0
2023-08-10 18:33:54.585277,-135.0
2023-08-10 18:33:54.592968,-85.0
2023-08-10 18:33:54.600659,-85.0
2023-08-10 18:33:54.608350,-99.0
2023-08-10 18:33:54.616041,-85.0
2023-08-10 18:33:54.623732,-71.0
2023-08-10 18:33:54.631423,-69.0
2023-08-10 18:33:54.639114,-61.0
2023-08-10 18:33:54.646805,-54.0
2023-08-10 18:33:54.654496,-52.0
2023-08-10 18:33:54.662187,-45.0
2023-08-10 18:33:54.669878,-26.0
2023-08-10 18:33:54.677569,-19.0
2023-08-10 18:33:54.685260,-14.0
2023-08-10 18:33:54.692951,-4.0
2023-08-10 18:33:54.700642,9.0
2023-08-10 18:33:54.708333,19.0
2023-08-10 18:33:54.716024,30.0
2023-08-10 18:33:54.723715,42.0
2023-08-10 18:33:54.731407,59.0
2023-08-10 18:33:54.739098,76.0
2023-08-10 18:33:54.746789,90.0
2023-08-10 18:33:54.754480,97.0
2023-08-10 18:33:54.762171,102.0
2023-08-10 18:33:54.769862,107.0
2023-08-10 18:33:54.777553,104.0
2023-08-10 18:33:54.785244,95.0
2023-08-10 18:33:54.792935,76.0
2023-08-10 18:33:54.800626,57.0
2023-08-10 18:33:54.808317,30.0
2023-08-10 18:33:54.816008,-2.0
2023-08-10 18:33:54.823699,-42.0
2023-08-10 18:33:54.831390,-80.0
2023-08-10 18:33:54.839081,-111.0
2023-08-10 18:33:54.846772,-135.0
2023-08-10 18:33:54.854463,-154.0
2023-08-10 18:33:54.862154,-161.0
2023-08-10 18:33:54.869845,-161.0
2023-08-10 18:33:54.877536,-161.0
2023-08-10 18:33:54.885227,-164.0
2023-08-10 18:33:54.892918,-164.0
2023-08-10 18:33:54.900609,-157.0
2023-08-10 18:33:54.908300,-149.0
2023-08-10 18:33:54.915991,-147.0
2023-08-10 18:33:54.923682,-145.0
2023-08-10 18:33:54.931373,-138.0
2023-08-10 18:33:54.939064,-128.0
2023-08-10 18:33:54.946755,-121.0
2023-08-10 18:33:54.954446,-116.0
2023-08-10 18:33:54.962137,-116.0
2023-08-10 18:33:54.969828,-111.0
2023-08-10 18:33:54.977519,-109.0
2023-08-10 18:33:54.985210,-107.0
2023-08-10 18:33:54.992901,-102.0
2023-08-10 18:33:55.000592,-97.0
2023-08-10 18:33:55.008283,-97.0
2023-08-10 18:33:55.015974,-102.0
2023-08-10 18:33:55.023665,-104.0
2023-08-10 18:33:55.031356,-104.0
2023-08-10 18:33:55.039047,-104.0
2023-08-10 18:33:55.046738,-104.0
2023-08-10 18:33:55.054429,-99.0
2023-08-10 18:33:55.062120,-95.0
2023-08-10 18:33:55.069812,-102.0
2023-08-10 18:33:55.077503,-104.0
2023-08-10 18:33:55.085194,-99.0
2023-08-10 18:33:55.092885,-99.0
2023-08-10 18:33:55.100576,-104.0
2023-08-10 18:33:55.108267,-102.0
2023-08-10 18:33:55.115958,-95.0
2023-08-10 18:33:55.123649,-92.0
2023-08-10 18:33:55.131340,-92.0
2023-08-10 18:33:55.139031,-92.0
2023-08-10 18:33:55.146722,-92.0
2023-08-10 18:33:55.154413,-90.0
2023-08-10 18:33:55.162104,-88.0
2023-08-10 18:33:55.169795,-90.0
2023-08-10 18:33:55.177486,-90.0
2023-08-10 18:33:55.185177,-83.0
2023-08-10 18:33:55.192868,-80.0
2023-08-10 18:33:55.200559,-92.0
2023-08-10 18:33:55.208250,-99.0
2023-08-10 18:33:55.215941,-95.0
2023-08-10 18:33:55.223632,-92.0
2023-08-10 18:33:55.231323,-95.0
2023-08-10 18:33:55.239014,-90.0
2023-08-10 18:33:55.246705,-80.0
2023-08-10 18:33:55.254396,-80.0
2023-08-10 18:33:55.262087,-85.0
2023-08-10 18:33:55.269778,-80.0
2023-08-10 18:33:55.277469,-78.0
2023-08-10 18:33:55.285160,-80.0
2023-08-10 18:33:55.292851,-80.0
2023-08-10 18:33:55.300542,-71.0
2023-08-10 18:33:55.308233,-71.0
2023-08-10 18:33:55.315924,-76.0
2023-08-10 18:33:55.323615,-73.0
2023-08-10 18:33:55.331306,-66.0
2023-08-10 18:33:55.338997,-71.0
2023-08-10 18:33:55.346688,-73.0
2023-08-10 18:33:55.354379,-71.0
2023-08-10 18:33:55.362070,-66.0
2023-08-10 18:33:55.369761,-59.0
2023-08-10 18:33:55.377452,-61.0
2023-08-10 18:33:55.385143,-66.0
2023-08-10 18:33:55.392834,-64.0
2023-08-10 18:33:55.400525,-59.0
2023-08-10 18:33:55.408216,-61.0
2023-08-10 18:33:55.415908,-66.0
2023-08-10 18:33:55.423599,-61.0
2023-08-10 18:33:55.431290,-52.0
2023-08-10 18:33:55.438981,-57.0
2023-08-10 18:33:55.446672,-61.0
2023-08-10 18:33:55.454363,-61.0
2023-08-10 18:33:55.462054,-61.0
2023-08-10 18:33:55.469745,-49.0
2023-08-10 18:33:55.477436,-30.0
2023-08-10 18:33:55.485127,-19.0
2023-08-10 18:33:55.492818,-16.0
2023-08-10 18:33:55.500509,-16.0
2023-08-10 18:33:55.508200,-30.0
2023-08-10 18:33:55.515891,-59.0
2023-08-10 18:33:55.523582,-73.0
2023-08-10 18:33:55.531273,-71.0
2023-08-10 18:33:55.538964,-73.0
2023-08-10 18:33:55.546655,-76.0
2023-08-10 18:33:55.554346,-73.0
2023-08-10 18:33:55.562037,-61.0
2023-08-10 18:33:55.569728,-61.0
2023-08-10 18:33:55.577419,-78.0
2023-08-10 18:33:55.585110,-26.0
2023-08-10 18:33:55.592801,252.0
2023-08-10 18:33:55.600492,728.0
2023-08-10 18:33:55.608183,1061.0
2023-08-10 18:33:55.615874,749.0
2023-08-10 18:33:55.623565,-252.0
2023-08-10 18:33:55.631256,-835.0
2023-08-10 18:33:55.638947,-395.0
2023-08-10 18:33:55.646638,-19.0
2023-08-10 18:33:55.654329,-166.0
2023-08-10 18:33:55.662020,-185.0
2023-08-10 18:33:55.669711,-76.0
2023-08-10 18:33:55.677402,-102.0
2023-08-10 18:33:55.685093,-119.0
2023-08-10 18:33:55.692784,-71.0
2023-08-10 18:33:55.700475,-73.0
2023-08-10 18:33:55.708166,-88.0
2023-08-10 18:33:55.715857,-73.0
2023-08-10 18:33:55.723548,-69.0
2023-08-10 18:33:55.731239,-73.0
2023-08-10 18:33:55.738930,-71.0
2023-08-10 18:33:55.746621,-64.0
2023-08-10 18:33:55.754312,-54.0
2023-08-10 18:33:55.762004,-45.0
2023-08-10 18:33:55.769695,-40.0
2023-08-10 18:33:55.777386,-28.0
2023-08-10 18:33:55.785077,-16.0
2023-08-10 18:33:55.792768,-9.0
2023-08-10 18:33:55.800459,2.0
2023-08-10 18:33:55.808150,16.0
2023-08-10 18:33:55.815841,30.0
2023-08-10 18:33:55.823532,45.0
2023-08-10 18:33:55.831223,54.0
2023-08-10 18:33:55.838914,71.0
2023-08-10 18:33:55.846605,85.0
2023-08-10 18:33:55.854296,92.0
2023-08-10 18:33:55.861987,102.0
2023-08-10 18:33:55.869678,104.0
2023-08-10 18:33:55.877369,92.0
2023-08-10 18:33:55.885060,85.0
2023-08-10 18:33:55.892751,76.0
2023-08-10 18:33:55.900442,49.0
2023-08-10 18:33:55.908133,21.0
2023-08-10 18:33:55.915824,-9.0
2023-08-10 18:33:55.923515,-47.0
2023-08-10 18:33:55.931206,-83.0
2023-08-10 18:33:55.938897,-114.0
2023-08-10 18:33:55.946588,-135.0
2023-08-10 18:33:55.954279,-154.0
2023-08-10 18:33:55.961970,-166.0
2023-08-10 18:33:55.969661,-171.0
2023-08-10 18:33:55.977352,-169.0
2023-08-10 18:33:55.985043,-171.0
2023-08-10 18:33:55.992734,-169.0
2023-08-10 18:33:56.000425,-157.0
2023-08-10 18:33:56.008116,-154.0
2023-08-10 18:33:56.015807,-161.0
2023-08-10 18:33:56.023498,-152.0
2023-08-10 18:33:56.031189,-135.0
2023-08-10 18:33:56.038880,-133.0
2023-08-10 18:33:56.046571,-133.0
2023-08-10 18:33:56.054262,-123.0
2023-08-10 18:33:56.061953,-114.0
2023-08-10 18:33:56.069644,-114.0
2023-08-10 18:33:56.077335,-111.0
2023-08-10 18:33:56.085026,-102.0
2023-08-10 18:33:56.092717,-99.0
2023-08-10 18:33:56.100409,-104.0
2023-08-10 18:33:56.108100,-104.0
2023-08-10 18:33:56.115791,-99.0
2023-08-10 18:33:56.123482,-92.0
2023-08-10 18:33:56.131173,-92.0
2023-08-10 18:33:56.138864,-97.0
2023-08-10 18:33:56.146555,-104.0
2023-08-10 18:33:56.154246,-99.0
2023-08-10 18:33:56.161937,-95.0
2023-08-10 18:33:56.169628,-95.0
2023-08-10 18:33:56.177319,-97.0
2023-08-10 18:33:56.185010,-97.0
2023-08-10 18:33:56.192701,-99.0
2023-08-10 18:33:56.200392,-99.0
2023-08-10 18:33:56.208083,-95.0
2023-08-10 18:33:56.215774,-90.0
2023-08-10 18:33:56.223465,-95.0
2023-08-10 18:33:56.231156,-102.0
2023-08-10 18:33:56.238847,-99.0
2023-08-10 18:33:56.246538,-92.0
2023-08-10 18:33:56.254229,-85.0
2023-08-10 18:33:56.261920,-83.0
2023-08-10 18:33:56.269611,-90.0
2023-08-10 18:33:56.277302,-102.0
2023-08-10 18:33:56.284993,-102.0
2023-08-10 18:33:56.292684,-92.0
2023-08-10 18:33:56.300375,-90.0
2023-08-10 18:33:56.308066,-88.0
2023-08-10 18:33:56.315757,-85.0
2023-08-10 18:33:56.323448,-90.0
2023-08-10 18:33:56.331139,-88.0
2023-08-10 18:33:56.338830,-83.0
2023-08-10 18:33:56.346521,-78.0
2023-08-10 18:33:56.354212,-78.0
2023-08-10 18:33:56.361903,-80.0
2023-08-10 18:33:56.369594,-83.0
2023-08-10 18:33:56.377285,-80.0
2023-08-10 18:33:56.384976,-73.0
2023-08-10 18:33:56.392667,-73.0
2023-08-10 18:33:56.400358,-73.0
2023-08-10 18:33:56.408049,-71.0
2023-08-10 18:33:56.415740,-73.0
2023-08-10 18:33:56.423431,-69.0
2023-08-10 18:33:56.431122,-66.0
2023-08-10 18:33:56.438813,-76.0
2023-08-10 18:33:56.446505,-78.0
2023-08-10 18:33:56.454196,-69.0
2023-08-10 18:33:56.461887,-69.0
2023-08-10 18:33:56.469578,-71.0
2023-08-10 18:33:56.477269,-69.0
2023-08-10 18:33:56.484960,-64.0
2023-08-10 18:33:56.492651,-59.0
2023-08-10 18:33:56.500342,-59.0
2023-08-10 18:33:56.508033,-66.0
2023-08-10 18:33:56.515724,-71.0
2023-08-10 18:33:56.523415,-73.0
2023-08-10 18:33:56.531106,-71.0
2023-08-10 18:33:56.538797,-61.0
2023-08-10 18:33:56.546488,-54.0
2023-08-10 18:33:56.554179,-42.0
2023-08-10 18:33:56.561870,-33.0
2023-08-10 18:33:56.569561,-30.0
2023-08-10 18:33:56.577252,-26.0
2023-08-10 18:33:56.584943,-30.0
2023-08-10 18:33:56.592634,-52.0
2023-08-10 18:33:56.600325,-69.0
2023-08-10 18:33:56.608016,-71.0
2023-08-10 18:33:56.615707,-69.0
2023-08-10 18:33:56.623398,-66.0
2023-08-10 18:33:56.631089,-64.0
2023-08-10 18:33:56.638780,-64.0
2023-08-10 18:33:56.646471,-64.0
2023-08-10 18:33:56.654162,-73.0
2023-08-10 18:33:56.661853,-26.0
2023-08-10 18:33:56.669544,242.0
2023-08-10 18:33:56.677235,714.0
2023-08-10 18:33:56.684926,1044.0
2023-08-10 18:33:56.692617,716.0
2023-08-10 18:33:56.700308,-273.0
2023-08-10 18:33:56.707999,-823.0
2023-08-10 18:33:56.715690,-395.0
2023-08-10 18:33:56.723381,-33.0
2023-08-10 18:33:56.731072,-159.0
2023-08-10 18:33:56.738763,-173.0
2023-08-10 18:33:56.746454,-71.0
2023-08-10 18:33:56.754145,-95.0
2023-08-10 18:33:56.761836,-114.0
2023-08-10 18:33:56.769527,-78.0
2023-08-10 18:33:56.777218,-76.0
2023-08-10 18:33:56.784909,-83.0
2023-08-10 18:33:56.792601,-66.0
2023-08-10 18:33:56.800292,-57.0
2023-08-10 18:33:56.807983,-54.0
2023-08-10 18:33:56.815674,-49.0
2023-08-10 18:33:56.823365,-47.0
2023-08-10 18:33:56.831056,-38.0
2023-08-10 18:33:56.838747,-28.0
2023-08-10 18:33:56.846438,-23.0
2023-08-10 18:33:56.854129,-19.0
2023-08-10 18:33:56.861820,-11.0
2023-08-10 18:33:56.869511,-9.0
2023-08-10 18:33:56.877202,0.0
2023-08-10 18:33:56.884893,19.0
2023-08-10 18:33:56.892584,33.0
2023-08-10 18:33:56.900275,42.0
2023-08-10 18:33:56.907966,54.0
2023-08-10 18:33:56.915657,69.0
2023-08-10 18:33:56.923348,73.0
2023-08-10 18:33:56.931039,76.0
2023-08-10 18:33:56.938730,85.0
2023-08-10 18:33:56.946421,85.0
2023-08-10 18:33:56.954112,83.0
2023-08-10 18:33:56.961803,76.0
2023-08-10 18:33:56.969494,54.0
2023-08-10 18:33:56.977185,33.0
2023-08-10 18:33:56.984876,19.0
2023-08-10 18:33:56.992567,-14.0
2023-08-10 18:33:57.000258,-59.0
2023-08-10 18:33:57.007949,-90.0
2023-08-10 18:33:57.015640,-119.0
2023-08-10 18:33:57.023331,-154.0
2023-08-10 18:33:57.031022,-169.0
2023-08-10 18:33:57.038713,-169.0
2023-08-10 18:33:57.046404,-178.0
2023-08-10 18:33:57.054095,-180.0
2023-08-10 18:33:57.061786,-171.0
2023-08-10 18:33:57.069477,-164.0
2023-08-10 18:33:57.077168,-164.0
2023-08-10 18:33:57.084859,-161.0
2023-08-10 18:33:57.092550,-152.0
2023-08-10 18:33:57.100241,-142.0
2023-08-10 18:33:57.107932,-138.0
2023-08-10 18:33:57.115623,-128.0
2023-08-10 18:33:57.123314,-121.0
2023-08-10 18:33:57.131006,-116.0
2023-08-10 18:33:57.138697,-114.0
2023-08-10 18:33:57.146388,-109.0
2023-08-10 18:33:57.154079,-107.0
2023-08-10 18:33:57.161770,-104.0
2023-08-10 18:33:57.169461,-97.0
2023-08-10 18:33:57.177152,-92.0
2023-08-10 18:33:57.184843,-97.0
2023-08-10 18:33:57.192534,-99.0
2023-08-10 18:33:57.200225,-97.0
2023-08-10 18:33:57.207916,-97.0
2023-08-10 18:33:57.215607,-99.0
2023-08-10 18:33:57.223298,-97.0
2023-08-10 18:33:57.230989,-97.0
2023-08-10 18:33:57.238680,-99.0
2023-08-10 18:33:57.246371,-102.0
2023-08-10 18:33:57.254062,-99.0
2023-08-10 18:33:57.261753,-95.0
2023-08-10 18:33:57.269444,-92.0
2023-08-10 18:33:57.277135,-92.0
2023-08-10 18:33:57.284826,-92.0
2023-08-10 18:33:57.292517,-92.0
2023-08-10 18:33:57.300208,-90.0
2023-08-10 18:33:57.307899,-88.0
2023-08-10 18:33:57.315590,-90.0
2023-08-10 18:33:57.323281,-90.0
2023-08-10 18:33:57.330972,-85.0
2023-08-10 18:33:57.338663,-83.0
2023-08-10 18:33:57.346354,-80.0
2023-08-10 18:33:57.354045,-80.0
2023-08-10 18:33:57.361736,-83.0
2023-08-10 18:33:57.369427,-80.0
2023-08-10 18:33:57.377118,-80.0
2023-08-10 18:33:57.384809,-78.0
2023-08-10 18:33:57.392500,-73.0
2023-08-10 18:33:57.400191,-80.0
2023-08-10 18:33:57.407882,-90.0
2023-08-10 18:33:57.415573,-85.0
2023-08-10 18:33:57.423264,-83.0
2023-08-10 18:33:57.430955,-88.0
2023-08-10 18:33:57.438646,-85.0
2023-08-10 18:33:57.446337,-80.0
2023-08-10 18:33:57.454028,-83.0
2023-08-10 18:33:57.461719,-80.0
2023-08-10 18:33:57.469410,-76.0
2023-08-10 18:33:57.477102,-73.0
2023-08-10 18:33:57.484793,-76.0
2023-08-10 18:33:57.492484,-80.0
2023-08-10 18:33:57.500175,-76.0
2023-08-10 18:33:57.507866,-66.0
