time,ECG
2023-08-11 18:25:13.507624,-119.0
2023-08-11 18:25:13.515313,-112.0
2023-08-11 18:25:13.523003,-115.0
2023-08-11 18:25:13.530693,-115.0
2023-08-11 18:25:13.538382,-112.0
2023-08-11 18:25:13.546072,-117.0
2023-08-11 18:25:13.553762,-115.0
2023-08-11 18:25:13.561452,-107.0
2023-08-11 18:25:13.569141,-110.0
2023-08-11 18:25:13.576831,-107.0
2023-08-11 18:25:13.584521,-107.0
2023-08-11 18:25:13.592211,-115.0
2023-08-11 18:25:13.599900,-117.0
2023-08-11 18:25:13.607590,-98.0
2023-08-11 18:25:13.615280,-57.0
2023-08-11 18:25:13.622970,-31.0
2023-08-11 18:25:13.630659,-38.0
2023-08-11 18:25:13.638349,-43.0
2023-08-11 18:25:13.646039,-47.0
2023-08-11 18:25:13.653729,-79.0
2023-08-11 18:25:13.661418,-110.0
2023-08-11 18:25:13.669108,-110.0
2023-08-11 18:25:13.676798,-105.0
2023-08-11 18:25:13.684488,-107.0
2023-08-11 18:25:13.692177,-110.0
2023-08-11 18:25:13.699867,-103.0
2023-08-11 18:25:13.707557,-100.0
2023-08-11 18:25:13.715246,-100.0
2023-08-11 18:25:13.722936,-112.0
2023-08-11 18:25:13.730626,-134.0
2023-08-11 18:25:13.738316,-7.0
2023-08-11 18:25:13.746005,508.0
2023-08-11 18:25:13.753695,1200.0
2023-08-11 18:25:13.761385,1380.0
2023-08-11 18:25:13.769075,603.0
2023-08-11 18:25:13.776764,-520.0
2023-08-11 18:25:13.784454,-805.0
2023-08-11 18:25:13.792144,-340.0
2023-08-11 18:25:13.799834,-127.0
2023-08-11 18:25:13.807523,-232.0
2023-08-11 18:25:13.815213,-218.0
2023-08-11 18:25:13.822903,-150.0
2023-08-11 18:25:13.830593,-162.0
2023-08-11 18:25:13.838282,-158.0
2023-08-11 18:25:13.845972,-122.0
2023-08-11 18:25:13.853662,-117.0
2023-08-11 18:25:13.861352,-115.0
2023-08-11 18:25:13.869041,-98.0
2023-08-11 18:25:13.876731,-83.0
2023-08-11 18:25:13.884421,-74.0
2023-08-11 18:25:13.892111,-64.0
2023-08-11 18:25:13.899800,-57.0
2023-08-11 18:25:13.907490,-55.0
2023-08-11 18:25:13.915180,-43.0
2023-08-11 18:25:13.922869,-23.0
2023-08-11 18:25:13.930559,-11.0
2023-08-11 18:25:13.938249,0.0
2023-08-11 18:25:13.945939,14.0
2023-08-11 18:25:13.953628,26.0
2023-08-11 18:25:13.961318,40.0
2023-08-11 18:25:13.969008,57.0
2023-08-11 18:25:13.976698,79.0
2023-08-11 18:25:13.984387,95.0
2023-08-11 18:25:13.992077,112.0
2023-08-11 18:25:13.999767,129.0
2023-08-11 18:25:14.007457,146.0
2023-08-11 18:25:14.015146,165.0
2023-08-11 18:25:14.022836,179.0
2023-08-11 18:25:14.030526,179.0
2023-08-11 18:25:14.038216,177.0
2023-08-11 18:25:14.045905,172.0
2023-08-11 18:25:14.053595,153.0
2023-08-11 18:25:14.061285,115.0
2023-08-11 18:25:14.068975,64.0
2023-08-11 18:25:14.076664,-2.0
2023-08-11 18:25:14.084354,-69.0
2023-08-11 18:25:14.092044,-122.0
2023-08-11 18:25:14.099733,-162.0
2023-08-11 18:25:14.107423,-191.0
2023-08-11 18:25:14.115113,-206.0
2023-08-11 18:25:14.122803,-213.0
2023-08-11 18:25:14.130492,-215.0
2023-08-11 18:25:14.138182,-213.0
2023-08-11 18:25:14.145872,-203.0
2023-08-11 18:25:14.153562,-194.0
2023-08-11 18:25:14.161251,-184.0
2023-08-11 18:25:14.168941,-174.0
2023-08-11 18:25:14.176631,-170.0
2023-08-11 18:25:14.184321,-165.0
2023-08-11 18:25:14.192010,-158.0
2023-08-11 18:25:14.199700,-150.0
2023-08-11 18:25:14.207390,-143.0
2023-08-11 18:25:14.215080,-141.0
2023-08-11 18:25:14.222769,-139.0
2023-08-11 18:25:14.230459,-141.0
2023-08-11 18:25:14.238149,-139.0
2023-08-11 18:25:14.245839,-136.0
2023-08-11 18:25:14.253528,-134.0
2023-08-11 18:25:14.261218,-136.0
2023-08-11 18:25:14.268908,-139.0
2023-08-11 18:25:14.276597,-139.0
2023-08-11 18:25:14.284287,-141.0
2023-08-11 18:25:14.291977,-139.0
2023-08-11 18:25:14.299667,-134.0
2023-08-11 18:25:14.307356,-134.0
2023-08-11 18:25:14.315046,-134.0
2023-08-11 18:25:14.322736,-129.0
2023-08-11 18:25:14.330426,-129.0
2023-08-11 18:25:14.338115,-129.0
2023-08-11 18:25:14.345805,-122.0
2023-08-11 18:25:14.353495,-119.0
2023-08-11 18:25:14.361185,-122.0
2023-08-11 18:25:14.368874,-122.0
2023-08-11 18:25:14.376564,-119.0
2023-08-11 18:25:14.384254,-117.0
2023-08-11 18:25:14.391944,-115.0
2023-08-11 18:25:14.399633,-115.0
2023-08-11 18:25:14.407323,-127.0
2023-08-11 18:25:14.415013,-129.0
2023-08-11 18:25:14.422703,-122.0
2023-08-11 18:25:14.430392,-119.0
2023-08-11 18:25:14.438082,-117.0
2023-08-11 18:25:14.445772,-117.0
2023-08-11 18:25:14.453461,-115.0
2023-08-11 18:25:14.461151,-115.0
2023-08-11 18:25:14.468841,-119.0
2023-08-11 18:25:14.476531,-117.0
2023-08-11 18:25:14.484220,-117.0
2023-08-11 18:25:14.491910,-119.0
2023-08-11 18:25:14.499600,-117.0
2023-08-11 18:25:14.507290,-124.0
2023-08-11 18:25:14.514979,-124.0
2023-08-11 18:25:14.522669,-119.0
2023-08-11 18:25:14.530359,-122.0
2023-08-11 18:25:14.538049,-122.0
2023-08-11 18:25:14.545738,-117.0
2023-08-11 18:25:14.553428,-117.0
2023-08-11 18:25:14.561118,-112.0
2023-08-11 18:25:14.568808,-105.0
2023-08-11 18:25:14.576497,-103.0
2023-08-11 18:25:14.584187,-112.0
2023-08-11 18:25:14.591877,-112.0
2023-08-11 18:25:14.599567,-105.0
2023-08-11 18:25:14.607256,-103.0
2023-08-11 18:25:14.614946,-103.0
2023-08-11 18:25:14.622636,-103.0
2023-08-11 18:25:14.630325,-110.0
2023-08-11 18:25:14.638015,-107.0
2023-08-11 18:25:14.645705,-83.0
2023-08-11 18:25:14.653395,-45.0
2023-08-11 18:25:14.661084,-23.0
2023-08-11 18:25:14.668774,-33.0
2023-08-11 18:25:14.676464,-35.0
2023-08-11 18:25:14.684154,-40.0
2023-08-11 18:25:14.691843,-74.0
2023-08-11 18:25:14.699533,-103.0
2023-08-11 18:25:14.707223,-103.0
2023-08-11 18:25:14.714913,-95.0
2023-08-11 18:25:14.722602,-100.0
2023-08-11 18:25:14.730292,-100.0
2023-08-11 18:25:14.737982,-93.0
2023-08-11 18:25:14.745672,-95.0
2023-08-11 18:25:14.753361,-100.0
2023-08-11 18:25:14.761051,-112.0
2023-08-11 18:25:14.768741,-122.0
2023-08-11 18:25:14.776431,74.0
2023-08-11 18:25:14.784120,680.0
2023-08-11 18:25:14.791810,1344.0
2023-08-11 18:25:14.799500,1322.0
2023-08-11 18:25:14.807189,357.0
2023-08-11 18:25:14.814879,-680.0
2023-08-11 18:25:14.822569,-738.0
2023-08-11 18:25:14.830259,-258.0
2023-08-11 18:25:14.837948,-136.0
2023-08-11 18:25:14.845638,-225.0
2023-08-11 18:25:14.853328,-182.0
2023-08-11 18:25:14.861018,-139.0
2023-08-11 18:25:14.868707,-153.0
2023-08-11 18:25:14.876397,-134.0
2023-08-11 18:25:14.884087,-105.0
2023-08-11 18:25:14.891777,-105.0
2023-08-11 18:25:14.899466,-98.0
2023-08-11 18:25:14.907156,-79.0
2023-08-11 18:25:14.914846,-64.0
2023-08-11 18:25:14.922536,-55.0
2023-08-11 18:25:14.930225,-47.0
2023-08-11 18:25:14.937915,-40.0
2023-08-11 18:25:14.945605,-40.0
2023-08-11 18:25:14.953295,-28.0
2023-08-11 18:25:14.960984,-2.0
2023-08-11 18:25:14.968674,9.0
2023-08-11 18:25:14.976364,19.0
2023-08-11 18:25:14.984053,33.0
2023-08-11 18:25:14.991743,47.0
2023-08-11 18:25:14.999433,64.0
2023-08-11 18:25:15.007123,79.0
2023-08-11 18:25:15.014812,88.0
2023-08-11 18:25:15.022502,105.0
2023-08-11 18:25:15.030192,129.0
2023-08-11 18:25:15.037882,153.0
2023-08-11 18:25:15.045571,174.0
2023-08-11 18:25:15.053261,191.0
2023-08-11 18:25:15.060951,203.0
2023-08-11 18:25:15.068641,206.0
2023-08-11 18:25:15.076330,206.0
2023-08-11 18:25:15.084020,201.0
2023-08-11 18:25:15.091710,174.0
2023-08-11 18:25:15.099400,129.0
2023-08-11 18:25:15.107089,67.0
2023-08-11 18:25:15.114779,-2.0
2023-08-11 18:25:15.122469,-62.0
2023-08-11 18:25:15.130159,-107.0
2023-08-11 18:25:15.137848,-146.0
2023-08-11 18:25:15.145538,-177.0
2023-08-11 18:25:15.153228,-194.0
2023-08-11 18:25:15.160917,-198.0
2023-08-11 18:25:15.168607,-196.0
2023-08-11 18:25:15.176297,-186.0
2023-08-11 18:25:15.183987,-177.0
2023-08-11 18:25:15.191676,-172.0
2023-08-11 18:25:15.199366,-165.0
2023-08-11 18:25:15.207056,-158.0
2023-08-11 18:25:15.214746,-150.0
2023-08-11 18:25:15.222435,-141.0
2023-08-11 18:25:15.230125,-134.0
2023-08-11 18:25:15.237815,-129.0
2023-08-11 18:25:15.245505,-127.0
2023-08-11 18:25:15.253194,-124.0
2023-08-11 18:25:15.260884,-124.0
2023-08-11 18:25:15.268574,-124.0
2023-08-11 18:25:15.276264,-122.0
2023-08-11 18:25:15.283953,-117.0
2023-08-11 18:25:15.291643,-119.0
2023-08-11 18:25:15.299333,-119.0
2023-08-11 18:25:15.307023,-119.0
2023-08-11 18:25:15.314712,-119.0
2023-08-11 18:25:15.322402,-115.0
2023-08-11 18:25:15.330092,-112.0
2023-08-11 18:25:15.337781,-110.0
2023-08-11 18:25:15.345471,-112.0
2023-08-11 18:25:15.353161,-112.0
2023-08-11 18:25:15.360851,-110.0
2023-08-11 18:25:15.368540,-105.0
2023-08-11 18:25:15.376230,-103.0
2023-08-11 18:25:15.383920,-100.0
2023-08-11 18:25:15.391610,-105.0
2023-08-11 18:25:15.399299,-103.0
2023-08-11 18:25:15.406989,-95.0
2023-08-11 18:25:15.414679,-93.0
2023-08-11 18:25:15.422369,-95.0
2023-08-11 18:25:15.430058,-95.0
2023-08-11 18:25:15.437748,-98.0
2023-08-11 18:25:15.445438,-95.0
2023-08-11 18:25:15.453128,-91.0
2023-08-11 18:25:15.460817,-88.0
2023-08-11 18:25:15.468507,-91.0
2023-08-11 18:25:15.476197,-95.0
2023-08-11 18:25:15.483887,-107.0
2023-08-11 18:25:15.491576,-110.0
2023-08-11 18:25:15.499266,-98.0
2023-08-11 18:25:15.506956,-103.0
2023-08-11 18:25:15.514646,-117.0
2023-08-11 18:25:15.522335,-115.0
2023-08-11 18:25:15.530025,-110.0
2023-08-11 18:25:15.537715,-110.0
2023-08-11 18:25:15.545404,-112.0
2023-08-11 18:25:15.553094,-115.0
2023-08-11 18:25:15.560784,-112.0
2023-08-11 18:25:15.568474,-107.0
2023-08-11 18:25:15.576163,-105.0
2023-08-11 18:25:15.583853,-105.0
2023-08-11 18:25:15.591543,-105.0
2023-08-11 18:25:15.599233,-100.0
2023-08-11 18:25:15.606922,-98.0
2023-08-11 18:25:15.614612,-100.0
2023-08-11 18:25:15.622302,-105.0
2023-08-11 18:25:15.629992,-110.0
2023-08-11 18:25:15.637681,-100.0
2023-08-11 18:25:15.645371,-64.0
2023-08-11 18:25:15.653061,-31.0
2023-08-11 18:25:15.660751,-35.0
2023-08-11 18:25:15.668440,-43.0
2023-08-11 18:25:15.676130,-35.0
2023-08-11 18:25:15.683820,-59.0
2023-08-11 18:25:15.691510,-100.0
2023-08-11 18:25:15.699199,-105.0
2023-08-11 18:25:15.706889,-100.0
2023-08-11 18:25:15.714579,-105.0
2023-08-11 18:25:15.722268,-105.0
2023-08-11 18:25:15.729958,-100.0
2023-08-11 18:25:15.737648,-95.0
2023-08-11 18:25:15.745338,-95.0
2023-08-11 18:25:15.753027,-107.0
2023-08-11 18:25:15.760717,-134.0
2023-08-11 18:25:15.768407,-64.0
2023-08-11 18:25:15.776097,349.0
2023-08-11 18:25:15.783786,1052.0
2023-08-11 18:25:15.791476,1406.0
2023-08-11 18:25:15.799166,822.0
2023-08-11 18:25:15.806856,-325.0
2023-08-11 18:25:15.814545,-846.0
2023-08-11 18:25:15.822235,-474.0
2023-08-11 18:25:15.829925,-148.0
2023-08-11 18:25:15.837615,-194.0
2023-08-11 18:25:15.845304,-218.0
2023-08-11 18:25:15.852994,-158.0
2023-08-11 18:25:15.860684,-150.0
2023-08-11 18:25:15.868374,-155.0
2023-08-11 18:25:15.876063,-129.0
2023-08-11 18:25:15.883753,-115.0
2023-08-11 18:25:15.891443,-115.0
2023-08-11 18:25:15.899132,-100.0
2023-08-11 18:25:15.906822,-86.0
2023-08-11 18:25:15.914512,-79.0
2023-08-11 18:25:15.922202,-69.0
2023-08-11 18:25:15.929891,-55.0
2023-08-11 18:25:15.937581,-43.0
2023-08-11 18:25:15.945271,-33.0
2023-08-11 18:25:15.952961,-19.0
2023-08-11 18:25:15.960650,-2.0
2023-08-11 18:25:15.968340,7.0
2023-08-11 18:25:15.976030,16.0
2023-08-11 18:25:15.983720,31.0
2023-08-11 18:25:15.991409,47.0
2023-08-11 18:25:15.999099,62.0
2023-08-11 18:25:16.006789,79.0
2023-08-11 18:25:16.014479,98.0
2023-08-11 18:25:16.022168,112.0
2023-08-11 18:25:16.029858,131.0
2023-08-11 18:25:16.037548,155.0
2023-08-11 18:25:16.045238,172.0
2023-08-11 18:25:16.052927,184.0
2023-08-11 18:25:16.060617,194.0
2023-08-11 18:25:16.068307,189.0
2023-08-11 18:25:16.075996,174.0
2023-08-11 18:25:16.083686,155.0
2023-08-11 18:25:16.091376,124.0
2023-08-11 18:25:16.099066,69.0
2023-08-11 18:25:16.106755,-2.0
2023-08-11 18:25:16.114445,-76.0
2023-08-11 18:25:16.122135,-129.0
2023-08-11 18:25:16.129825,-165.0
2023-08-11 18:25:16.137514,-191.0
2023-08-11 18:25:16.145204,-206.0
2023-08-11 18:25:16.152894,-213.0
2023-08-11 18:25:16.160584,-213.0
2023-08-11 18:25:16.168273,-210.0
2023-08-11 18:25:16.175963,-206.0
2023-08-11 18:25:16.183653,-194.0
2023-08-11 18:25:16.191343,-184.0
2023-08-11 18:25:16.199032,-177.0
2023-08-11 18:25:16.206722,-170.0
2023-08-11 18:25:16.214412,-162.0
2023-08-11 18:25:16.222102,-153.0
2023-08-11 18:25:16.229791,-148.0
2023-08-11 18:25:16.237481,-143.0
2023-08-11 18:25:16.245171,-136.0
2023-08-11 18:25:16.252860,-129.0
2023-08-11 18:25:16.260550,-131.0
2023-08-11 18:25:16.268240,-139.0
2023-08-11 18:25:16.275930,-136.0
2023-08-11 18:25:16.283619,-131.0
2023-08-11 18:25:16.291309,-131.0
2023-08-11 18:25:16.298999,-134.0
2023-08-11 18:25:16.306689,-134.0
2023-08-11 18:25:16.314378,-131.0
2023-08-11 18:25:16.322068,-127.0
2023-08-11 18:25:16.329758,-129.0
2023-08-11 18:25:16.337448,-131.0
2023-08-11 18:25:16.345137,-129.0
2023-08-11 18:25:16.352827,-119.0
2023-08-11 18:25:16.360517,-117.0
2023-08-11 18:25:16.368207,-119.0
2023-08-11 18:25:16.375896,-117.0
2023-08-11 18:25:16.383586,-117.0
2023-08-11 18:25:16.391276,-115.0
2023-08-11 18:25:16.398966,-107.0
2023-08-11 18:25:16.406655,-107.0
2023-08-11 18:25:16.414345,-107.0
2023-08-11 18:25:16.422035,-105.0
2023-08-11 18:25:16.429724,-107.0
2023-08-11 18:25:16.437414,-105.0
2023-08-11 18:25:16.445104,-103.0
2023-08-11 18:25:16.452794,-105.0
2023-08-11 18:25:16.460483,-105.0
2023-08-11 18:25:16.468173,-103.0
2023-08-11 18:25:16.475863,-100.0
2023-08-11 18:25:16.483553,-103.0
2023-08-11 18:25:16.491242,-107.0
2023-08-11 18:25:16.498932,-110.0
2023-08-11 18:25:16.506622,-107.0
2023-08-11 18:25:16.514312,-103.0
2023-08-11 18:25:16.522001,-110.0
2023-08-11 18:25:16.529691,-112.0
2023-08-11 18:25:16.537381,-107.0
2023-08-11 18:25:16.545071,-110.0
2023-08-11 18:25:16.552760,-110.0
2023-08-11 18:25:16.560450,-110.0
2023-08-11 18:25:16.568140,-112.0
2023-08-11 18:25:16.575830,-105.0
2023-08-11 18:25:16.583519,-103.0
2023-08-11 18:25:16.591209,-107.0
2023-08-11 18:25:16.598899,-103.0
2023-08-11 18:25:16.606588,-100.0
2023-08-11 18:25:16.614278,-103.0
2023-08-11 18:25:16.621968,-100.0
2023-08-11 18:25:16.629658,-98.0
2023-08-11 18:25:16.637347,-95.0
2023-08-11 18:25:16.645037,-98.0
2023-08-11 18:25:16.652727,-105.0
2023-08-11 18:25:16.660417,-110.0
2023-08-11 18:25:16.668106,-105.0
2023-08-11 18:25:16.675796,-83.0
2023-08-11 18:25:16.683486,-47.0
2023-08-11 18:25:16.691176,-28.0
2023-08-11 18:25:16.698865,-38.0
2023-08-11 18:25:16.706555,-33.0
2023-08-11 18:25:16.714245,-38.0
2023-08-11 18:25:16.721935,-79.0
2023-08-11 18:25:16.729624,-107.0
2023-08-11 18:25:16.737314,-103.0
2023-08-11 18:25:16.745004,-100.0
2023-08-11 18:25:16.752694,-103.0
2023-08-11 18:25:16.760383,-100.0
2023-08-11 18:25:16.768073,-98.0
2023-08-11 18:25:16.775763,-100.0
2023-08-11 18:25:16.783452,-98.0
2023-08-11 18:25:16.791142,-112.0
2023-08-11 18:25:16.798832,-122.0
2023-08-11 18:25:16.806522,69.0
2023-08-11 18:25:16.814211,666.0
2023-08-11 18:25:16.821901,1330.0
2023-08-11 18:25:16.829591,1332.0
2023-08-11 18:25:16.837281,383.0
2023-08-11 18:25:16.844970,-671.0
2023-08-11 18:25:16.852660,-745.0
2023-08-11 18:25:16.860350,-251.0
2023-08-11 18:25:16.868040,-134.0
2023-08-11 18:25:16.875729,-234.0
2023-08-11 18:25:16.883419,-191.0
2023-08-11 18:25:16.891109,-139.0
2023-08-11 18:25:16.898799,-155.0
2023-08-11 18:25:16.906488,-141.0
2023-08-11 18:25:16.914178,-112.0
2023-08-11 18:25:16.921868,-107.0
2023-08-11 18:25:16.929558,-100.0
2023-08-11 18:25:16.937247,-83.0
2023-08-11 18:25:16.944937,-71.0
2023-08-11 18:25:16.952627,-64.0
2023-08-11 18:25:16.960316,-52.0
2023-08-11 18:25:16.968006,-40.0
2023-08-11 18:25:16.975696,-31.0
2023-08-11 18:25:16.983386,-19.0
2023-08-11 18:25:16.991075,-9.0
2023-08-11 18:25:16.998765,4.0
2023-08-11 18:25:17.006455,19.0
2023-08-11 18:25:17.014145,31.0
2023-08-11 18:25:17.021834,43.0
2023-08-11 18:25:17.029524,52.0
2023-08-11 18:25:17.037214,71.0
2023-08-11 18:25:17.044904,93.0
2023-08-11 18:25:17.052593,107.0
2023-08-11 18:25:17.060283,129.0
2023-08-11 18:25:17.067973,153.0
2023-08-11 18:25:17.075663,172.0
2023-08-11 18:25:17.083352,189.0
2023-08-11 18:25:17.091042,198.0
2023-08-11 18:25:17.098732,203.0
2023-08-11 18:25:17.106422,201.0
2023-08-11 18:25:17.114111,194.0
2023-08-11 18:25:17.121801,170.0
2023-08-11 18:25:17.129491,119.0
2023-08-11 18:25:17.137181,57.0
2023-08-11 18:25:17.144870,-11.0
2023-08-11 18:25:17.152560,-76.0
2023-08-11 18:25:17.160250,-124.0
2023-08-11 18:25:17.167939,-162.0
2023-08-11 18:25:17.175629,-189.0
2023-08-11 18:25:17.183319,-203.0
2023-08-11 18:25:17.191009,-220.0
2023-08-11 18:25:17.198698,-222.0
2023-08-11 18:25:17.206388,-210.0
2023-08-11 18:25:17.214078,-201.0
2023-08-11 18:25:17.221768,-198.0
2023-08-11 18:25:17.229457,-191.0
2023-08-11 18:25:17.237147,-184.0
2023-08-11 18:25:17.244837,-172.0
2023-08-11 18:25:17.252527,-160.0
2023-08-11 18:25:17.260216,-153.0
2023-08-11 18:25:17.267906,-150.0
2023-08-11 18:25:17.275596,-143.0
2023-08-11 18:25:17.283286,-139.0
2023-08-11 18:25:17.290975,-136.0
2023-08-11 18:25:17.298665,-134.0
2023-08-11 18:25:17.306355,-131.0
2023-08-11 18:25:17.314045,-127.0
2023-08-11 18:25:17.321734,-129.0
2023-08-11 18:25:17.329424,-136.0
2023-08-11 18:25:17.337114,-131.0
2023-08-11 18:25:17.344803,-124.0
2023-08-11 18:25:17.352493,-129.0
2023-08-11 18:25:17.360183,-127.0
2023-08-11 18:25:17.367873,-122.0
2023-08-11 18:25:17.375562,-124.0
2023-08-11 18:25:17.383252,-122.0
2023-08-11 18:25:17.390942,-115.0
2023-08-11 18:25:17.398632,-110.0
2023-08-11 18:25:17.406321,-115.0
2023-08-11 18:25:17.414011,-115.0
2023-08-11 18:25:17.421701,-107.0
2023-08-11 18:25:17.429391,-105.0
2023-08-11 18:25:17.437080,-105.0
2023-08-11 18:25:17.444770,-105.0
2023-08-11 18:25:17.452460,-103.0
2023-08-11 18:25:17.460150,-100.0
2023-08-11 18:25:17.467839,-103.0
2023-08-11 18:25:17.475529,-103.0
2023-08-11 18:25:17.483219,-103.0
2023-08-11 18:25:17.490909,-100.0
2023-08-11 18:25:17.498598,-98.0
2023-08-11 18:25:17.506288,-105.0
2023-08-11 18:25:17.513978,-103.0
2023-08-11 18:25:17.521667,-91.0
2023-08-11 18:25:17.529357,-98.0
2023-08-11 18:25:17.537047,-110.0
2023-08-11 18:25:17.544737,-105.0
2023-08-11 18:25:17.552426,-103.0
2023-08-11 18:25:17.560116,-107.0
2023-08-11 18:25:17.567806,-105.0
2023-08-11 18:25:17.575496,-103.0
2023-08-11 18:25:17.583185,-103.0
2023-08-11 18:25:17.590875,-98.0
2023-08-11 18:25:17.598565,-98.0
2023-08-11 18:25:17.606255,-100.0
2023-08-11 18:25:17.613944,-95.0
2023-08-11 18:25:17.621634,-91.0
2023-08-11 18:25:17.629324,-91.0
2023-08-11 18:25:17.637014,-91.0
2023-08-11 18:25:17.644703,-91.0
2023-08-11 18:25:17.652393,-91.0
2023-08-11 18:25:17.660083,-86.0
2023-08-11 18:25:17.667773,-86.0
2023-08-11 18:25:17.675462,-88.0
2023-08-11 18:25:17.683152,-88.0
2023-08-11 18:25:17.690842,-86.0
2023-08-11 18:25:17.698531,-79.0
2023-08-11 18:25:17.706221,-81.0
2023-08-11 18:25:17.713911,-86.0
2023-08-11 18:25:17.721601,-93.0
2023-08-11 18:25:17.729290,-91.0
2023-08-11 18:25:17.736980,-59.0
2023-08-11 18:25:17.744670,-21.0
2023-08-11 18:25:17.752360,-19.0
2023-08-11 18:25:17.760049,-23.0
2023-08-11 18:25:17.767739,-21.0
2023-08-11 18:25:17.775429,-52.0
2023-08-11 18:25:17.783119,-95.0
2023-08-11 18:25:17.790808,-105.0
2023-08-11 18:25:17.798498,-91.0
2023-08-11 18:25:17.806188,-91.0
2023-08-11 18:25:17.813878,-95.0
2023-08-11 18:25:17.821567,-93.0
2023-08-11 18:25:17.829257,-91.0
2023-08-11 18:25:17.836947,-91.0
2023-08-11 18:25:17.844637,-95.0
2023-08-11 18:25:17.852326,-119.0
2023-08-11 18:25:17.860016,-55.0
2023-08-11 18:25:17.867706,361.0
2023-08-11 18:25:17.875395,1073.0
2023-08-11 18:25:17.883085,1421.0
2023-08-11 18:25:17.890775,824.0
2023-08-11 18:25:17.898465,-313.0
2023-08-11 18:25:17.906154,-824.0
2023-08-11 18:25:17.913844,-464.0
2023-08-11 18:25:17.921534,-143.0
2023-08-11 18:25:17.929224,-186.0
2023-08-11 18:25:17.936913,-208.0
2023-08-11 18:25:17.944603,-146.0
2023-08-11 18:25:17.952293,-136.0
2023-08-11 18:25:17.959983,-141.0
2023-08-11 18:25:17.967672,-119.0
2023-08-11 18:25:17.975362,-107.0
2023-08-11 18:25:17.983052,-98.0
2023-08-11 18:25:17.990742,-83.0
2023-08-11 18:25:17.998431,-74.0
2023-08-11 18:25:18.006121,-69.0
2023-08-11 18:25:18.013811,-57.0
2023-08-11 18:25:18.021501,-45.0
2023-08-11 18:25:18.029190,-40.0
2023-08-11 18:25:18.036880,-33.0
2023-08-11 18:25:18.044570,-19.0
2023-08-11 18:25:18.052259,-7.0
2023-08-11 18:25:18.059949,2.0
2023-08-11 18:25:18.067639,14.0
2023-08-11 18:25:18.075329,33.0
2023-08-11 18:25:18.083018,50.0
2023-08-11 18:25:18.090708,59.0
2023-08-11 18:25:18.098398,79.0
2023-08-11 18:25:18.106088,103.0
2023-08-11 18:25:18.113777,119.0
2023-08-11 18:25:18.121467,136.0
2023-08-11 18:25:18.129157,155.0
2023-08-11 18:25:18.136847,174.0
2023-08-11 18:25:18.144536,186.0
2023-08-11 18:25:18.152226,194.0
2023-08-11 18:25:18.159916,196.0
2023-08-11 18:25:18.167606,191.0
2023-08-11 18:25:18.175295,174.0
2023-08-11 18:25:18.182985,139.0
2023-08-11 18:25:18.190675,83.0
2023-08-11 18:25:18.198365,21.0
2023-08-11 18:25:18.206054,-40.0
2023-08-11 18:25:18.213744,-98.0
2023-08-11 18:25:18.221434,-143.0
2023-08-11 18:25:18.229123,-177.0
2023-08-11 18:25:18.236813,-191.0
2023-08-11 18:25:18.244503,-198.0
2023-08-11 18:25:18.252193,-203.0
2023-08-11 18:25:18.259882,-198.0
2023-08-11 18:25:18.267572,-191.0
2023-08-11 18:25:18.275262,-184.0
2023-08-11 18:25:18.282952,-177.0
2023-08-11 18:25:18.290641,-167.0
2023-08-11 18:25:18.298331,-160.0
2023-08-11 18:25:18.306021,-153.0
2023-08-11 18:25:18.313711,-153.0
2023-08-11 18:25:18.321400,-153.0
2023-08-11 18:25:18.329090,-143.0
2023-08-11 18:25:18.336780,-134.0
2023-08-11 18:25:18.344470,-136.0
2023-08-11 18:25:18.352159,-139.0
2023-08-11 18:25:18.359849,-134.0
2023-08-11 18:25:18.367539,-131.0
2023-08-11 18:25:18.375229,-129.0
2023-08-11 18:25:18.382918,-134.0
2023-08-11 18:25:18.390608,-134.0
2023-08-11 18:25:18.398298,-129.0
2023-08-11 18:25:18.405987,-129.0
2023-08-11 18:25:18.413677,-129.0
2023-08-11 18:25:18.421367,-127.0
2023-08-11 18:25:18.429057,-124.0
2023-08-11 18:25:18.436746,-122.0
2023-08-11 18:25:18.444436,-119.0
2023-08-11 18:25:18.452126,-119.0
2023-08-11 18:25:18.459816,-122.0
2023-08-11 18:25:18.467505,-119.0
2023-08-11 18:25:18.475195,-117.0
2023-08-11 18:25:18.482885,-115.0
2023-08-11 18:25:18.490575,-112.0
2023-08-11 18:25:18.498264,-110.0
2023-08-11 18:25:18.505954,-110.0
2023-08-11 18:25:18.513644,-112.0
2023-08-11 18:25:18.521334,-110.0
2023-08-11 18:25:18.529023,-107.0
2023-08-11 18:25:18.536713,-112.0
2023-08-11 18:25:18.544403,-122.0
2023-08-11 18:25:18.552093,-119.0
2023-08-11 18:25:18.559782,-110.0
2023-08-11 18:25:18.567472,-110.0
2023-08-11 18:25:18.575162,-115.0
2023-08-11 18:25:18.582851,-112.0
2023-08-11 18:25:18.590541,-117.0
2023-08-11 18:25:18.598231,-115.0
2023-08-11 18:25:18.605921,-110.0
2023-08-11 18:25:18.613610,-115.0
2023-08-11 18:25:18.621300,-117.0
2023-08-11 18:25:18.628990,-112.0
2023-08-11 18:25:18.636680,-112.0
2023-08-11 18:25:18.644369,-115.0
2023-08-11 18:25:18.652059,-112.0
2023-08-11 18:25:18.659749,-105.0
2023-08-11 18:25:18.667439,-105.0
2023-08-11 18:25:18.675128,-105.0
2023-08-11 18:25:18.682818,-105.0
2023-08-11 18:25:18.690508,-107.0
2023-08-11 18:25:18.698198,-105.0
2023-08-11 18:25:18.705887,-103.0
2023-08-11 18:25:18.713577,-107.0
2023-08-11 18:25:18.721267,-110.0
2023-08-11 18:25:18.728957,-112.0
2023-08-11 18:25:18.736646,-100.0
2023-08-11 18:25:18.744336,-64.0
2023-08-11 18:25:18.752026,-35.0
2023-08-11 18:25:18.759716,-38.0
2023-08-11 18:25:18.767405,-40.0
2023-08-11 18:25:18.775095,-45.0
2023-08-11 18:25:18.782785,-76.0
2023-08-11 18:25:18.790474,-107.0
2023-08-11 18:25:18.798164,-110.0
2023-08-11 18:25:18.805854,-107.0
2023-08-11 18:25:18.813544,-110.0
2023-08-11 18:25:18.821233,-107.0
2023-08-11 18:25:18.828923,-105.0
2023-08-11 18:25:18.836613,-105.0
2023-08-11 18:25:18.844303,-105.0
2023-08-11 18:25:18.851992,-122.0
2023-08-11 18:25:18.859682,-150.0
2023-08-11 18:25:18.867372,-19.0
2023-08-11 18:25:18.875062,512.0
2023-08-11 18:25:18.882751,1195.0
2023-08-11 18:25:18.890441,1334.0
2023-08-11 18:25:18.898131,534.0
2023-08-11 18:25:18.905821,-553.0
2023-08-11 18:25:18.913510,-790.0
2023-08-11 18:25:18.921200,-325.0
2023-08-11 18:25:18.928890,-136.0
2023-08-11 18:25:18.936580,-237.0
2023-08-11 18:25:18.944269,-218.0
2023-08-11 18:25:18.951959,-158.0
2023-08-11 18:25:18.959649,-170.0
2023-08-11 18:25:18.967338,-162.0
2023-08-11 18:25:18.975028,-129.0
2023-08-11 18:25:18.982718,-122.0
2023-08-11 18:25:18.990408,-122.0
2023-08-11 18:25:18.998097,-105.0
2023-08-11 18:25:19.005787,-93.0
2023-08-11 18:25:19.013477,-83.0
2023-08-11 18:25:19.021167,-69.0
2023-08-11 18:25:19.028856,-59.0
2023-08-11 18:25:19.036546,-52.0
2023-08-11 18:25:19.044236,-45.0
2023-08-11 18:25:19.051926,-33.0
2023-08-11 18:25:19.059615,-19.0
2023-08-11 18:25:19.067305,-7.0
2023-08-11 18:25:19.074995,4.0
2023-08-11 18:25:19.082685,21.0
2023-08-11 18:25:19.090374,38.0
2023-08-11 18:25:19.098064,55.0
2023-08-11 18:25:19.105754,74.0
2023-08-11 18:25:19.113444,93.0
2023-08-11 18:25:19.121133,112.0
2023-08-11 18:25:19.128823,129.0
2023-08-11 18:25:19.136513,153.0
2023-08-11 18:25:19.144202,172.0
2023-08-11 18:25:19.151892,182.0
2023-08-11 18:25:19.159582,189.0
2023-08-11 18:25:19.167272,186.0
2023-08-11 18:25:19.174961,172.0
2023-08-11 18:25:19.182651,148.0
2023-08-11 18:25:19.190341,105.0
2023-08-11 18:25:19.198031,43.0
2023-08-11 18:25:19.205720,-31.0
2023-08-11 18:25:19.213410,-93.0
2023-08-11 18:25:19.221100,-141.0
2023-08-11 18:25:19.228790,-179.0
2023-08-11 18:25:19.236479,-203.0
2023-08-11 18:25:19.244169,-215.0
2023-08-11 18:25:19.251859,-220.0
2023-08-11 18:25:19.259549,-222.0
2023-08-11 18:25:19.267238,-220.0
2023-08-11 18:25:19.274928,-203.0
2023-08-11 18:25:19.282618,-196.0
2023-08-11 18:25:19.290308,-191.0
2023-08-11 18:25:19.297997,-179.0
2023-08-11 18:25:19.305687,-170.0
2023-08-11 18:25:19.313377,-165.0
2023-08-11 18:25:19.321066,-155.0
2023-08-11 18:25:19.328756,-148.0
2023-08-11 18:25:19.336446,-143.0
2023-08-11 18:25:19.344136,-139.0
2023-08-11 18:25:19.351825,-136.0
2023-08-11 18:25:19.359515,-136.0
2023-08-11 18:25:19.367205,-134.0
2023-08-11 18:25:19.374895,-134.0
2023-08-11 18:25:19.382584,-134.0
2023-08-11 18:25:19.390274,-134.0
2023-08-11 18:25:19.397964,-139.0
2023-08-11 18:25:19.405654,-139.0
2023-08-11 18:25:19.413343,-136.0
2023-08-11 18:25:19.421033,-134.0
2023-08-11 18:25:19.428723,-134.0
2023-08-11 18:25:19.436413,-131.0
2023-08-11 18:25:19.444102,-131.0
2023-08-11 18:25:19.451792,-134.0
2023-08-11 18:25:19.459482,-129.0
2023-08-11 18:25:19.467172,-127.0
2023-08-11 18:25:19.474861,-127.0
2023-08-11 18:25:19.482551,-129.0
2023-08-11 18:25:19.490241,-136.0
2023-08-11 18:25:19.497930,-136.0
2023-08-11 18:25:19.505620,-129.0
2023-08-11 18:25:19.513310,-127.0
2023-08-11 18:25:19.521000,-127.0
2023-08-11 18:25:19.528689,-136.0
2023-08-11 18:25:19.536379,-143.0
2023-08-11 18:25:19.544069,-141.0
2023-08-11 18:25:19.551759,-139.0
2023-08-11 18:25:19.559448,-141.0
2023-08-11 18:25:19.567138,-136.0
2023-08-11 18:25:19.574828,-136.0
2023-08-11 18:25:19.582518,-153.0
2023-08-11 18:25:19.590207,-153.0
2023-08-11 18:25:19.597897,-141.0
2023-08-11 18:25:19.605587,-143.0
2023-08-11 18:25:19.613277,-146.0
2023-08-11 18:25:19.620966,-136.0
2023-08-11 18:25:19.628656,-131.0
2023-08-11 18:25:19.636346,-136.0
2023-08-11 18:25:19.644036,-131.0
2023-08-11 18:25:19.651725,-127.0
2023-08-11 18:25:19.659415,-127.0
2023-08-11 18:25:19.667105,-136.0
2023-08-11 18:25:19.674794,-141.0
2023-08-11 18:25:19.682484,-131.0
2023-08-11 18:25:19.690174,-127.0
2023-08-11 18:25:19.697864,-129.0
2023-08-11 18:25:19.705553,-129.0
2023-08-11 18:25:19.713243,-127.0
2023-08-11 18:25:19.720933,-124.0
2023-08-11 18:25:19.728623,-122.0
2023-08-11 18:25:19.736312,-117.0
2023-08-11 18:25:19.744002,-117.0
2023-08-11 18:25:19.751692,-115.0
2023-08-11 18:25:19.759382,-115.0
2023-08-11 18:25:19.767071,-115.0
2023-08-11 18:25:19.774761,-112.0
2023-08-11 18:25:19.782451,-110.0
2023-08-11 18:25:19.790141,-112.0
2023-08-11 18:25:19.797830,-115.0
2023-08-11 18:25:19.805520,-115.0
2023-08-11 18:25:19.813210,-93.0
2023-08-11 18:25:19.820900,-47.0
2023-08-11 18:25:19.828589,-33.0
2023-08-11 18:25:19.836279,-43.0
2023-08-11 18:25:19.843969,-38.0
2023-08-11 18:25:19.851658,-50.0
2023-08-11 18:25:19.859348,-93.0
2023-08-11 18:25:19.867038,-115.0
2023-08-11 18:25:19.874728,-107.0
2023-08-11 18:25:19.882417,-105.0
2023-08-11 18:25:19.890107,-110.0
2023-08-11 18:25:19.897797,-107.0
2023-08-11 18:25:19.905487,-105.0
2023-08-11 18:25:19.913176,-105.0
2023-08-11 18:25:19.920866,-103.0
2023-08-11 18:25:19.928556,-117.0
2023-08-11 18:25:19.936246,-131.0
2023-08-11 18:25:19.943935,71.0
2023-08-11 18:25:19.951625,685.0
2023-08-11 18:25:19.959315,1342.0
2023-08-11 18:25:19.967005,1303.0
2023-08-11 18:25:19.974694,325.0
2023-08-11 18:25:19.982384,-695.0
2023-08-11 18:25:19.990074,-711.0
2023-08-11 18:25:19.997764,-225.0
2023-08-11 18:25:20.005453,-148.0
2023-08-11 18:25:20.013143,-258.0
2023-08-11 18:25:20.020833,-201.0
2023-08-11 18:25:20.028522,-162.0
2023-08-11 18:25:20.036212,-189.0
2023-08-11 18:25:20.043902,-162.0
2023-08-11 18:25:20.051592,-129.0
2023-08-11 18:25:20.059281,-136.0
2023-08-11 18:25:20.066971,-134.0
2023-08-11 18:25:20.074661,-112.0
2023-08-11 18:25:20.082351,-95.0
2023-08-11 18:25:20.090040,-88.0
2023-08-11 18:25:20.097730,-76.0
2023-08-11 18:25:20.105420,-64.0
2023-08-11 18:25:20.113110,-52.0
2023-08-11 18:25:20.120799,-40.0
2023-08-11 18:25:20.128489,-28.0
2023-08-11 18:25:20.136179,-11.0
2023-08-11 18:25:20.143869,2.0
2023-08-11 18:25:20.151558,14.0
2023-08-11 18:25:20.159248,33.0
2023-08-11 18:25:20.166938,50.0
2023-08-11 18:25:20.174628,67.0
2023-08-11 18:25:20.182317,83.0
2023-08-11 18:25:20.190007,98.0
2023-08-11 18:25:20.197697,119.0
2023-08-11 18:25:20.205386,143.0
2023-08-11 18:25:20.213076,165.0
2023-08-11 18:25:20.220766,184.0
2023-08-11 18:25:20.228456,194.0
2023-08-11 18:25:20.236145,196.0
2023-08-11 18:25:20.243835,196.0
2023-08-11 18:25:20.251525,186.0
2023-08-11 18:25:20.259215,158.0
2023-08-11 18:25:20.266904,115.0
2023-08-11 18:25:20.274594,52.0
2023-08-11 18:25:20.282284,-16.0
2023-08-11 18:25:20.289974,-81.0
2023-08-11 18:25:20.297663,-134.0
2023-08-11 18:25:20.305353,-174.0
2023-08-11 18:25:20.313043,-198.0
2023-08-11 18:25:20.320733,-210.0
2023-08-11 18:25:20.328422,-218.0
2023-08-11 18:25:20.336112,-218.0
2023-08-11 18:25:20.343802,-210.0
2023-08-11 18:25:20.351492,-206.0
2023-08-11 18:25:20.359181,-194.0
2023-08-11 18:25:20.366871,-184.0
2023-08-11 18:25:20.374561,-179.0
2023-08-11 18:25:20.382251,-172.0
2023-08-11 18:25:20.389940,-162.0
2023-08-11 18:25:20.397630,-153.0
2023-08-11 18:25:20.405320,-150.0
2023-08-11 18:25:20.413009,-146.0
2023-08-11 18:25:20.420699,-136.0
2023-08-11 18:25:20.428389,-131.0
2023-08-11 18:25:20.436079,-134.0
2023-08-11 18:25:20.443768,-134.0
2023-08-11 18:25:20.451458,-129.0
2023-08-11 18:25:20.459148,-129.0
2023-08-11 18:25:20.466838,-131.0
2023-08-11 18:25:20.474527,-131.0
2023-08-11 18:25:20.482217,-127.0
2023-08-11 18:25:20.489907,-129.0
2023-08-11 18:25:20.497597,-129.0
2023-08-11 18:25:20.505286,-127.0
2023-08-11 18:25:20.512976,-124.0
2023-08-11 18:25:20.520666,-122.0
2023-08-11 18:25:20.528356,-124.0
2023-08-11 18:25:20.536045,-119.0
2023-08-11 18:25:20.543735,-112.0
2023-08-11 18:25:20.551425,-112.0
2023-08-11 18:25:20.559115,-112.0
2023-08-11 18:25:20.566804,-115.0
2023-08-11 18:25:20.574494,-127.0
2023-08-11 18:25:20.582184,-124.0
2023-08-11 18:25:20.589873,-115.0
2023-08-11 18:25:20.597563,-115.0
2023-08-11 18:25:20.605253,-119.0
2023-08-11 18:25:20.612943,-124.0
2023-08-11 18:25:20.620632,-129.0
2023-08-11 18:25:20.628322,-124.0
2023-08-11 18:25:20.636012,-119.0
2023-08-11 18:25:20.643702,-122.0
2023-08-11 18:25:20.651391,-129.0
2023-08-11 18:25:20.659081,-127.0
2023-08-11 18:25:20.666771,-124.0
2023-08-11 18:25:20.674461,-122.0
2023-08-11 18:25:20.682150,-124.0
2023-08-11 18:25:20.689840,-122.0
2023-08-11 18:25:20.697530,-117.0
2023-08-11 18:25:20.705220,-117.0
2023-08-11 18:25:20.712909,-115.0
2023-08-11 18:25:20.720599,-110.0
2023-08-11 18:25:20.728289,-107.0
2023-08-11 18:25:20.735979,-110.0
2023-08-11 18:25:20.743668,-105.0
2023-08-11 18:25:20.751358,-105.0
2023-08-11 18:25:20.759048,-103.0
2023-08-11 18:25:20.766737,-95.0
2023-08-11 18:25:20.774427,-95.0
2023-08-11 18:25:20.782117,-98.0
2023-08-11 18:25:20.789807,-98.0
2023-08-11 18:25:20.797496,-93.0
2023-08-11 18:25:20.805186,-88.0
2023-08-11 18:25:20.812876,-88.0
2023-08-11 18:25:20.820566,-86.0
2023-08-11 18:25:20.828255,-86.0
2023-08-11 18:25:20.835945,-88.0
2023-08-11 18:25:20.843635,-83.0
2023-08-11 18:25:20.851325,-81.0
2023-08-11 18:25:20.859014,-79.0
2023-08-11 18:25:20.866704,-79.0
2023-08-11 18:25:20.874394,-86.0
2023-08-11 18:25:20.882084,-93.0
2023-08-11 18:25:20.889773,-86.0
2023-08-11 18:25:20.897463,-52.0
2023-08-11 18:25:20.905153,-14.0
2023-08-11 18:25:20.912843,-9.0
2023-08-11 18:25:20.920532,-19.0
2023-08-11 18:25:20.928222,-16.0
2023-08-11 18:25:20.935912,-31.0
2023-08-11 18:25:20.943601,-69.0
2023-08-11 18:25:20.951291,-91.0
2023-08-11 18:25:20.958981,-86.0
2023-08-11 18:25:20.966671,-81.0
2023-08-11 18:25:20.974360,-81.0
2023-08-11 18:25:20.982050,-79.0
2023-08-11 18:25:20.989740,-76.0
2023-08-11 18:25:20.997430,-76.0
2023-08-11 18:25:21.005119,-81.0
2023-08-11 18:25:21.012809,-105.0
2023-08-11 18:25:21.020499,-71.0
2023-08-11 18:25:21.028189,268.0
2023-08-11 18:25:21.035878,963.0
2023-08-11 18:25:21.043568,1440.0
2023-08-11 18:25:21.051258,1028.0
2023-08-11 18:25:21.058948,-98.0
2023-08-11 18:25:21.066637,-805.0
2023-08-11 18:25:21.074327,-558.0
2023-08-11 18:25:21.082017,-167.0
2023-08-11 18:25:21.089707,-160.0
2023-08-11 18:25:21.097396,-201.0
2023-08-11 18:25:21.105086,-150.0
2023-08-11 18:25:21.112776,-134.0
2023-08-11 18:25:21.120465,-131.0
2023-08-11 18:25:21.128155,-107.0
2023-08-11 18:25:21.135845,-95.0
2023-08-11 18:25:21.143535,-91.0
2023-08-11 18:25:21.151224,-83.0
2023-08-11 18:25:21.158914,-79.0
2023-08-11 18:25:21.166604,-69.0
2023-08-11 18:25:21.174294,-59.0
2023-08-11 18:25:21.181983,-50.0
2023-08-11 18:25:21.189673,-33.0
2023-08-11 18:25:21.197363,-21.0
2023-08-11 18:25:21.205053,-14.0
2023-08-11 18:25:21.212742,0.0
2023-08-11 18:25:21.220432,14.0
2023-08-11 18:25:21.228122,26.0
2023-08-11 18:25:21.235812,40.0
2023-08-11 18:25:21.243501,55.0
2023-08-11 18:25:21.251191,69.0
2023-08-11 18:25:21.258881,91.0
2023-08-11 18:25:21.266571,112.0
2023-08-11 18:25:21.274260,129.0
2023-08-11 18:25:21.281950,150.0
2023-08-11 18:25:21.289640,170.0
2023-08-11 18:25:21.297329,186.0
2023-08-11 18:25:21.305019,203.0
2023-08-11 18:25:21.312709,215.0
2023-08-11 18:25:21.320399,220.0
2023-08-11 18:25:21.328088,215.0
2023-08-11 18:25:21.335778,194.0
2023-08-11 18:25:21.343468,160.0
2023-08-11 18:25:21.351158,112.0
2023-08-11 18:25:21.358847,47.0
2023-08-11 18:25:21.366537,-19.0
2023-08-11 18:25:21.374227,-79.0
2023-08-11 18:25:21.381917,-127.0
2023-08-11 18:25:21.389606,-165.0
2023-08-11 18:25:21.397296,-184.0
2023-08-11 18:25:21.404986,-191.0
2023-08-11 18:25:21.412676,-194.0
2023-08-11 18:25:21.420365,-194.0
2023-08-11 18:25:21.428055,-189.0
2023-08-11 18:25:21.435745,-182.0
2023-08-11 18:25:21.443435,-174.0
2023-08-11 18:25:21.451124,-162.0
2023-08-11 18:25:21.458814,-150.0
2023-08-11 18:25:21.466504,-146.0
2023-08-11 18:25:21.474193,-143.0
2023-08-11 18:25:21.481883,-134.0
2023-08-11 18:25:21.489573,-124.0
2023-08-11 18:25:21.497263,-122.0
2023-08-11 18:25:21.504952,-119.0
2023-08-11 18:25:21.512642,-117.0
2023-08-11 18:25:21.520332,-117.0
2023-08-11 18:25:21.528022,-117.0
2023-08-11 18:25:21.535711,-117.0
2023-08-11 18:25:21.543401,-117.0
2023-08-11 18:25:21.551091,-119.0
2023-08-11 18:25:21.558781,-119.0
2023-08-11 18:25:21.566470,-119.0
2023-08-11 18:25:21.574160,-124.0
2023-08-11 18:25:21.581850,-127.0
2023-08-11 18:25:21.589540,-122.0
2023-08-11 18:25:21.597229,-119.0
2023-08-11 18:25:21.604919,-119.0
2023-08-11 18:25:21.612609,-122.0
2023-08-11 18:25:21.620299,-119.0
2023-08-11 18:25:21.627988,-119.0
2023-08-11 18:25:21.635678,-119.0
2023-08-11 18:25:21.643368,-112.0
2023-08-11 18:25:21.651057,-112.0
2023-08-11 18:25:21.658747,-117.0
2023-08-11 18:25:21.666437,-119.0
2023-08-11 18:25:21.674127,-119.0
2023-08-11 18:25:21.681816,-119.0
2023-08-11 18:25:21.689506,-127.0
2023-08-11 18:25:21.697196,-136.0
2023-08-11 18:25:21.704886,-134.0
2023-08-11 18:25:21.712575,-124.0
2023-08-11 18:25:21.720265,-122.0
2023-08-11 18:25:21.727955,-122.0
2023-08-11 18:25:21.735645,-129.0
2023-08-11 18:25:21.743334,-131.0
2023-08-11 18:25:21.751024,-127.0
2023-08-11 18:25:21.758714,-122.0
2023-08-11 18:25:21.766404,-124.0
2023-08-11 18:25:21.774093,-122.0
2023-08-11 18:25:21.781783,-115.0
2023-08-11 18:25:21.789473,-112.0
2023-08-11 18:25:21.797163,-115.0
2023-08-11 18:25:21.804852,-115.0
2023-08-11 18:25:21.812542,-110.0
2023-08-11 18:25:21.820232,-105.0
2023-08-11 18:25:21.827921,-105.0
2023-08-11 18:25:21.835611,-105.0
2023-08-11 18:25:21.843301,-105.0
2023-08-11 18:25:21.850991,-105.0
2023-08-11 18:25:21.858680,-100.0
2023-08-11 18:25:21.866370,-95.0
2023-08-11 18:25:21.874060,-98.0
2023-08-11 18:25:21.881750,-98.0
2023-08-11 18:25:21.889439,-103.0
2023-08-11 18:25:21.897129,-103.0
2023-08-11 18:25:21.904819,-86.0
2023-08-11 18:25:21.912509,-52.0
2023-08-11 18:25:21.920198,-28.0
2023-08-11 18:25:21.927888,-31.0
2023-08-11 18:25:21.935578,-33.0
2023-08-11 18:25:21.943268,-40.0
2023-08-11 18:25:21.950957,-71.0
2023-08-11 18:25:21.958647,-100.0
2023-08-11 18:25:21.966337,-100.0
2023-08-11 18:25:21.974027,-98.0
2023-08-11 18:25:21.981716,-100.0
2023-08-11 18:25:21.989406,-98.0
2023-08-11 18:25:21.997096,-95.0
2023-08-11 18:25:22.004786,-93.0
2023-08-11 18:25:22.012475,-95.0
2023-08-11 18:25:22.020165,-105.0
2023-08-11 18:25:22.027855,-122.0
2023-08-11 18:25:22.035544,19.0
2023-08-11 18:25:22.043234,560.0
2023-08-11 18:25:22.050924,1241.0
2023-08-11 18:25:22.058614,1351.0
2023-08-11 18:25:22.066303,517.0
2023-08-11 18:25:22.073993,-575.0
2023-08-11 18:25:22.081683,-790.0
2023-08-11 18:25:22.089373,-321.0
2023-08-11 18:25:22.097062,-134.0
2023-08-11 18:25:22.104752,-230.0
2023-08-11 18:25:22.112442,-203.0
2023-08-11 18:25:22.120132,-143.0
2023-08-11 18:25:22.127821,-155.0
2023-08-11 18:25:22.135511,-148.0
2023-08-11 18:25:22.143201,-119.0
2023-08-11 18:25:22.150891,-117.0
2023-08-11 18:25:22.158580,-112.0
2023-08-11 18:25:22.166270,-95.0
2023-08-11 18:25:22.173960,-86.0
2023-08-11 18:25:22.181650,-76.0
2023-08-11 18:25:22.189339,-64.0
2023-08-11 18:25:22.197029,-52.0
2023-08-11 18:25:22.204719,-38.0
2023-08-11 18:25:22.212408,-26.0
2023-08-11 18:25:22.220098,-19.0
2023-08-11 18:25:22.227788,-9.0
2023-08-11 18:25:22.235478,-4.0
2023-08-11 18:25:22.243167,7.0
2023-08-11 18:25:22.250857,23.0
2023-08-11 18:25:22.258547,38.0
2023-08-11 18:25:22.266237,55.0
2023-08-11 18:25:22.273926,74.0
2023-08-11 18:25:22.281616,95.0
2023-08-11 18:25:22.289306,119.0
2023-08-11 18:25:22.296996,141.0
2023-08-11 18:25:22.304685,160.0
2023-08-11 18:25:22.312375,174.0
2023-08-11 18:25:22.320065,186.0
2023-08-11 18:25:22.327755,189.0
2023-08-11 18:25:22.335444,186.0
2023-08-11 18:25:22.343134,174.0
2023-08-11 18:25:22.350824,148.0
2023-08-11 18:25:22.358514,100.0
2023-08-11 18:25:22.366203,35.0
2023-08-11 18:25:22.373893,-33.0
2023-08-11 18:25:22.381583,-91.0
2023-08-11 18:25:22.389272,-141.0
2023-08-11 18:25:22.396962,-182.0
2023-08-11 18:25:22.404652,-208.0
2023-08-11 18:25:22.412342,-218.0
2023-08-11 18:25:22.420031,-218.0
2023-08-11 18:25:22.427721,-215.0
2023-08-11 18:25:22.435411,-210.0
2023-08-11 18:25:22.443101,-201.0
2023-08-11 18:25:22.450790,-189.0
2023-08-11 18:25:22.458480,-179.0
2023-08-11 18:25:22.466170,-165.0
2023-08-11 18:25:22.473860,-150.0
2023-08-11 18:25:22.481549,-143.0
2023-08-11 18:25:22.489239,-141.0
2023-08-11 18:25:22.496929,-134.0
2023-08-11 18:25:22.504619,-131.0
2023-08-11 18:25:22.512308,-129.0
2023-08-11 18:25:22.519998,-117.0
2023-08-11 18:25:22.527688,-117.0
2023-08-11 18:25:22.535378,-119.0
2023-08-11 18:25:22.543067,-115.0
2023-08-11 18:25:22.550757,-112.0
2023-08-11 18:25:22.558447,-119.0
2023-08-11 18:25:22.566136,-119.0
2023-08-11 18:25:22.573826,-117.0
2023-08-11 18:25:22.581516,-122.0
2023-08-11 18:25:22.589206,-127.0
2023-08-11 18:25:22.596895,-119.0
2023-08-11 18:25:22.604585,-112.0
2023-08-11 18:25:22.612275,-117.0
2023-08-11 18:25:22.619965,-117.0
2023-08-11 18:25:22.627654,-117.0
2023-08-11 18:25:22.635344,-127.0
2023-08-11 18:25:22.643034,-129.0
2023-08-11 18:25:22.650724,-119.0
2023-08-11 18:25:22.658413,-117.0
2023-08-11 18:25:22.666103,-117.0
2023-08-11 18:25:22.673793,-112.0
2023-08-11 18:25:22.681483,-112.0
2023-08-11 18:25:22.689172,-115.0
2023-08-11 18:25:22.696862,-110.0
2023-08-11 18:25:22.704552,-110.0
2023-08-11 18:25:22.712242,-107.0
2023-08-11 18:25:22.719931,-105.0
2023-08-11 18:25:22.727621,-103.0
2023-08-11 18:25:22.735311,-107.0
2023-08-11 18:25:22.743000,-107.0
2023-08-11 18:25:22.750690,-103.0
2023-08-11 18:25:22.758380,-100.0
2023-08-11 18:25:22.766070,-107.0
2023-08-11 18:25:22.773759,-117.0
2023-08-11 18:25:22.781449,-107.0
2023-08-11 18:25:22.789139,-100.0
2023-08-11 18:25:22.796829,-105.0
2023-08-11 18:25:22.804518,-103.0
2023-08-11 18:25:22.812208,-98.0
2023-08-11 18:25:22.819898,-103.0
2023-08-11 18:25:22.827588,-103.0
2023-08-11 18:25:22.835277,-103.0
2023-08-11 18:25:22.842967,-100.0
2023-08-11 18:25:22.850657,-100.0
2023-08-11 18:25:22.858347,-103.0
2023-08-11 18:25:22.866036,-107.0
2023-08-11 18:25:22.873726,-105.0
2023-08-11 18:25:22.881416,-100.0
2023-08-11 18:25:22.889106,-103.0
2023-08-11 18:25:22.896795,-103.0
2023-08-11 18:25:22.904485,-100.0
2023-08-11 18:25:22.912175,-98.0
2023-08-11 18:25:22.919864,-98.0
2023-08-11 18:25:22.927554,-95.0
2023-08-11 18:25:22.935244,-93.0
2023-08-11 18:25:22.942934,-91.0
2023-08-11 18:25:22.950623,-93.0
2023-08-11 18:25:22.958313,-98.0
2023-08-11 18:25:22.966003,-95.0
2023-08-11 18:25:22.973693,-71.0
2023-08-11 18:25:22.981382,-31.0
2023-08-11 18:25:22.989072,-16.0
2023-08-11 18:25:22.996762,-31.0
2023-08-11 18:25:23.004452,-31.0
2023-08-11 18:25:23.012141,-35.0
2023-08-11 18:25:23.019831,-74.0
2023-08-11 18:25:23.027521,-98.0
2023-08-11 18:25:23.035211,-88.0
2023-08-11 18:25:23.042900,-88.0
2023-08-11 18:25:23.050590,-98.0
2023-08-11 18:25:23.058280,-93.0
2023-08-11 18:25:23.065970,-88.0
2023-08-11 18:25:23.073659,-91.0
2023-08-11 18:25:23.081349,-98.0
2023-08-11 18:25:23.089039,-119.0
2023-08-11 18:25:23.096728,-124.0
2023-08-11 18:25:23.104418,100.0
2023-08-11 18:25:23.112108,726.0
2023-08-11 18:25:23.119798,1363.0
2023-08-11 18:25:23.127487,1267.0
2023-08-11 18:25:23.135177,258.0
2023-08-11 18:25:23.142867,-718.0
2023-08-11 18:25:23.150557,-709.0
2023-08-11 18:25:23.158246,-246.0
2023-08-11 18:25:23.165936,-158.0
2023-08-11 18:25:23.173626,-239.0
2023-08-11 18:25:23.181316,-191.0
2023-08-11 18:25:23.189005,-150.0
2023-08-11 18:25:23.196695,-165.0
2023-08-11 18:25:23.204385,-143.0
2023-08-11 18:25:23.212075,-117.0
2023-08-11 18:25:23.219764,-115.0
2023-08-11 18:25:23.227454,-105.0
2023-08-11 18:25:23.235144,-91.0
2023-08-11 18:25:23.242834,-81.0
2023-08-11 18:25:23.250523,-69.0
2023-08-11 18:25:23.258213,-55.0
2023-08-11 18:25:23.265903,-47.0
2023-08-11 18:25:23.273592,-43.0
2023-08-11 18:25:23.281282,-28.0
2023-08-11 18:25:23.288972,-9.0
2023-08-11 18:25:23.296662,2.0
2023-08-11 18:25:23.304351,14.0
2023-08-11 18:25:23.312041,26.0
2023-08-11 18:25:23.319731,40.0
2023-08-11 18:25:23.327421,57.0
2023-08-11 18:25:23.335110,76.0
2023-08-11 18:25:23.342800,98.0
2023-08-11 18:25:23.350490,115.0
2023-08-11 18:25:23.358180,134.0
2023-08-11 18:25:23.365869,158.0
2023-08-11 18:25:23.373559,177.0
2023-08-11 18:25:23.381249,191.0
2023-08-11 18:25:23.388939,203.0
2023-08-11 18:25:23.396628,203.0
2023-08-11 18:25:23.404318,198.0
2023-08-11 18:25:23.412008,182.0
2023-08-11 18:25:23.419698,155.0
2023-08-11 18:25:23.427387,112.0
2023-08-11 18:25:23.435077,50.0
2023-08-11 18:25:23.442767,-23.0
2023-08-11 18:25:23.450456,-83.0
2023-08-11 18:25:23.458146,-131.0
2023-08-11 18:25:23.465836,-170.0
2023-08-11 18:25:23.473526,-196.0
2023-08-11 18:25:23.481215,-206.0
2023-08-11 18:25:23.488905,-213.0
2023-08-11 18:25:23.496595,-215.0
2023-08-11 18:25:23.504285,-208.0
2023-08-11 18:25:23.511974,-196.0
2023-08-11 18:25:23.519664,-184.0
2023-08-11 18:25:23.527354,-179.0
2023-08-11 18:25:23.535044,-174.0
2023-08-11 18:25:23.542733,-160.0
2023-08-11 18:25:23.550423,-148.0
2023-08-11 18:25:23.558113,-143.0
2023-08-11 18:25:23.565803,-139.0
2023-08-11 18:25:23.573492,-136.0
2023-08-11 18:25:23.581182,-131.0
2023-08-11 18:25:23.588872,-129.0
2023-08-11 18:25:23.596562,-129.0
2023-08-11 18:25:23.604251,-127.0
2023-08-11 18:25:23.611941,-124.0
2023-08-11 18:25:23.619631,-124.0
2023-08-11 18:25:23.627321,-124.0
2023-08-11 18:25:23.635010,-127.0
2023-08-11 18:25:23.642700,-129.0
2023-08-11 18:25:23.650390,-127.0
2023-08-11 18:25:23.658079,-119.0
2023-08-11 18:25:23.665769,-119.0
2023-08-11 18:25:23.673459,-124.0
2023-08-11 18:25:23.681149,-119.0
2023-08-11 18:25:23.688838,-115.0
2023-08-11 18:25:23.696528,-115.0
2023-08-11 18:25:23.704218,-115.0
2023-08-11 18:25:23.711908,-119.0
2023-08-11 18:25:23.719597,-117.0
2023-08-11 18:25:23.727287,-110.0
2023-08-11 18:25:23.734977,-107.0
2023-08-11 18:25:23.742667,-112.0
2023-08-11 18:25:23.750356,-107.0
2023-08-11 18:25:23.758046,-110.0
2023-08-11 18:25:23.765736,-112.0
2023-08-11 18:25:23.773426,-112.0
2023-08-11 18:25:23.781115,-112.0
2023-08-11 18:25:23.788805,-115.0
2023-08-11 18:25:23.796495,-112.0
2023-08-11 18:25:23.804185,-110.0
2023-08-11 18:25:23.811874,-105.0
2023-08-11 18:25:23.819564,-100.0
2023-08-11 18:25:23.827254,-100.0
2023-08-11 18:25:23.834943,-105.0
2023-08-11 18:25:23.842633,-103.0
2023-08-11 18:25:23.850323,-100.0
2023-08-11 18:25:23.858013,-98.0
2023-08-11 18:25:23.865702,-95.0
2023-08-11 18:25:23.873392,-98.0
2023-08-11 18:25:23.881082,-100.0
2023-08-11 18:25:23.888772,-100.0
2023-08-11 18:25:23.896461,-98.0
2023-08-11 18:25:23.904151,-93.0
2023-08-11 18:25:23.911841,-93.0
2023-08-11 18:25:23.919531,-93.0
2023-08-11 18:25:23.927220,-88.0
2023-08-11 18:25:23.934910,-91.0
2023-08-11 18:25:23.942600,-100.0
2023-08-11 18:25:23.950290,-103.0
2023-08-11 18:25:23.957979,-95.0
2023-08-11 18:25:23.965669,-93.0
2023-08-11 18:25:23.973359,-95.0
2023-08-11 18:25:23.981049,-98.0
2023-08-11 18:25:23.988738,-112.0
2023-08-11 18:25:23.996428,-117.0
2023-08-11 18:25:24.004118,-95.0
2023-08-11 18:25:24.011807,-59.0
2023-08-11 18:25:24.019497,-33.0
2023-08-11 18:25:24.027187,-33.0
2023-08-11 18:25:24.034877,-35.0
2023-08-11 18:25:24.042566,-35.0
2023-08-11 18:25:24.050256,-64.0
2023-08-11 18:25:24.057946,-100.0
2023-08-11 18:25:24.065636,-105.0
2023-08-11 18:25:24.073325,-100.0
2023-08-11 18:25:24.081015,-103.0
2023-08-11 18:25:24.088705,-107.0
2023-08-11 18:25:24.096395,-105.0
2023-08-11 18:25:24.104084,-100.0
2023-08-11 18:25:24.111774,-100.0
2023-08-11 18:25:24.119464,-110.0
2023-08-11 18:25:24.127154,-136.0
2023-08-11 18:25:24.134843,-52.0
2023-08-11 18:25:24.142533,409.0
2023-08-11 18:25:24.150223,1114.0
2023-08-11 18:25:24.157913,1366.0
2023-08-11 18:25:24.165602,680.0
2023-08-11 18:25:24.173292,-424.0
2023-08-11 18:25:24.180982,-805.0
2023-08-11 18:25:24.188671,-407.0
2023-08-11 18:25:24.196361,-146.0
2023-08-11 18:25:24.204051,-206.0
2023-08-11 18:25:24.211741,-208.0
2023-08-11 18:25:24.219430,-150.0
2023-08-11 18:25:24.227120,-148.0
2023-08-11 18:25:24.234810,-148.0
2023-08-11 18:25:24.242500,-122.0
2023-08-11 18:25:24.250189,-112.0
2023-08-11 18:25:24.257879,-107.0
2023-08-11 18:25:24.265569,-91.0
2023-08-11 18:25:24.273259,-79.0
2023-08-11 18:25:24.280948,-71.0
2023-08-11 18:25:24.288638,-62.0
2023-08-11 18:25:24.296328,-52.0
2023-08-11 18:25:24.304018,-45.0
2023-08-11 18:25:24.311707,-33.0
2023-08-11 18:25:24.319397,-16.0
2023-08-11 18:25:24.327087,0.0
2023-08-11 18:25:24.334777,7.0
2023-08-11 18:25:24.342466,19.0
2023-08-11 18:25:24.350156,33.0
2023-08-11 18:25:24.357846,45.0
2023-08-11 18:25:24.365535,64.0
2023-08-11 18:25:24.373225,81.0
2023-08-11 18:25:24.380915,98.0
2023-08-11 18:25:24.388605,119.0
2023-08-11 18:25:24.396294,141.0
2023-08-11 18:25:24.403984,162.0
2023-08-11 18:25:24.411674,179.0
2023-08-11 18:25:24.419364,194.0
2023-08-11 18:25:24.427053,201.0
2023-08-11 18:25:24.434743,196.0
2023-08-11 18:25:24.442433,186.0
2023-08-11 18:25:24.450123,167.0
2023-08-11 18:25:24.457812,127.0
2023-08-11 18:25:24.465502,64.0
2023-08-11 18:25:24.473192,-4.0
2023-08-11 18:25:24.480882,-79.0
2023-08-11 18:25:24.488571,-139.0
2023-08-11 18:25:24.496261,-170.0
2023-08-11 18:25:24.503951,-191.0
2023-08-11 18:25:24.511641,-213.0
2023-08-11 18:25:24.519330,-225.0
2023-08-11 18:25:24.527020,-232.0
2023-08-11 18:25:24.534710,-230.0
2023-08-11 18:25:24.542399,-215.0
2023-08-11 18:25:24.550089,-203.0
2023-08-11 18:25:24.557779,-196.0
2023-08-11 18:25:24.565469,-186.0
2023-08-11 18:25:24.573158,-177.0
2023-08-11 18:25:24.580848,-170.0
2023-08-11 18:25:24.588538,-165.0
2023-08-11 18:25:24.596228,-162.0
2023-08-11 18:25:24.603917,-155.0
2023-08-11 18:25:24.611607,-148.0
2023-08-11 18:25:24.619297,-148.0
2023-08-11 18:25:24.626987,-148.0
2023-08-11 18:25:24.634676,-146.0
2023-08-11 18:25:24.642366,-141.0
2023-08-11 18:25:24.650056,-141.0
2023-08-11 18:25:24.657746,-141.0
2023-08-11 18:25:24.665435,-143.0
2023-08-11 18:25:24.673125,-143.0
2023-08-11 18:25:24.680815,-139.0
2023-08-11 18:25:24.688505,-139.0
2023-08-11 18:25:24.696194,-136.0
2023-08-11 18:25:24.703884,-134.0
2023-08-11 18:25:24.711574,-134.0
2023-08-11 18:25:24.719263,-131.0
2023-08-11 18:25:24.726953,-127.0
2023-08-11 18:25:24.734643,-124.0
2023-08-11 18:25:24.742333,-122.0
2023-08-11 18:25:24.750022,-124.0
2023-08-11 18:25:24.757712,-124.0
2023-08-11 18:25:24.765402,-119.0
2023-08-11 18:25:24.773092,-117.0
2023-08-11 18:25:24.780781,-119.0
2023-08-11 18:25:24.788471,-122.0
2023-08-11 18:25:24.796161,-127.0
2023-08-11 18:25:24.803851,-122.0
2023-08-11 18:25:24.811540,-117.0
2023-08-11 18:25:24.819230,-115.0
2023-08-11 18:25:24.826920,-112.0
2023-08-11 18:25:24.834610,-112.0
2023-08-11 18:25:24.842299,-119.0
2023-08-11 18:25:24.849989,-122.0
2023-08-11 18:25:24.857679,-119.0
2023-08-11 18:25:24.865369,-124.0
2023-08-11 18:25:24.873058,-124.0
2023-08-11 18:25:24.880748,-117.0
2023-08-11 18:25:24.888438,-117.0
2023-08-11 18:25:24.896127,-117.0
2023-08-11 18:25:24.903817,-115.0
2023-08-11 18:25:24.911507,-115.0
2023-08-11 18:25:24.919197,-112.0
2023-08-11 18:25:24.926886,-110.0
2023-08-11 18:25:24.934576,-112.0
2023-08-11 18:25:24.942266,-110.0
2023-08-11 18:25:24.949956,-107.0
2023-08-11 18:25:24.957645,-107.0
2023-08-11 18:25:24.965335,-107.0
2023-08-11 18:25:24.973025,-103.0
2023-08-11 18:25:24.980715,-103.0
2023-08-11 18:25:24.988404,-105.0
2023-08-11 18:25:24.996094,-103.0
2023-08-11 18:25:25.003784,-103.0
2023-08-11 18:25:25.011474,-103.0
2023-08-11 18:25:25.019163,-100.0
2023-08-11 18:25:25.026853,-100.0
2023-08-11 18:25:25.034543,-103.0
2023-08-11 18:25:25.042233,-105.0
2023-08-11 18:25:25.049922,-105.0
2023-08-11 18:25:25.057612,-98.0
2023-08-11 18:25:25.065302,-71.0
2023-08-11 18:25:25.072991,-43.0
2023-08-11 18:25:25.080681,-40.0
2023-08-11 18:25:25.088371,-50.0
2023-08-11 18:25:25.096061,-55.0
2023-08-11 18:25:25.103750,-76.0
2023-08-11 18:25:25.111440,-112.0
2023-08-11 18:25:25.119130,-127.0
2023-08-11 18:25:25.126820,-119.0
2023-08-11 18:25:25.134509,-117.0
2023-08-11 18:25:25.142199,-119.0
2023-08-11 18:25:25.149889,-115.0
2023-08-11 18:25:25.157579,-115.0
2023-08-11 18:25:25.165268,-115.0
2023-08-11 18:25:25.172958,-115.0
2023-08-11 18:25:25.180648,-141.0
2023-08-11 18:25:25.188338,-98.0
2023-08-11 18:25:25.196027,270.0
2023-08-11 18:25:25.203717,958.0
2023-08-11 18:25:25.211407,1399.0
2023-08-11 18:25:25.219097,968.0
2023-08-11 18:25:25.226786,-155.0
2023-08-11 18:25:25.234476,-814.0
2023-08-11 18:25:25.242166,-508.0
2023-08-11 18:25:25.249855,-143.0
2023-08-11 18:25:25.257545,-206.0
2023-08-11 18:25:25.265235,-251.0
2023-08-11 18:25:25.272925,-167.0
2023-08-11 18:25:25.280614,-158.0
2023-08-11 18:25:25.288304,-172.0
2023-08-11 18:25:25.295994,-141.0
2023-08-11 18:25:25.303684,-122.0
2023-08-11 18:25:25.311373,-124.0
2023-08-11 18:25:25.319063,-107.0
2023-08-11 18:25:25.326753,-93.0
2023-08-11 18:25:25.334443,-86.0
2023-08-11 18:25:25.342132,-76.0
2023-08-11 18:25:25.349822,-64.0
2023-08-11 18:25:25.357512,-55.0
2023-08-11 18:25:25.365202,-45.0
2023-08-11 18:25:25.372891,-33.0
2023-08-11 18:25:25.380581,-19.0
2023-08-11 18:25:25.388271,-9.0
2023-08-11 18:25:25.395961,4.0
2023-08-11 18:25:25.403650,21.0
2023-08-11 18:25:25.411340,38.0
2023-08-11 18:25:25.419030,52.0
2023-08-11 18:25:25.426720,69.0
2023-08-11 18:25:25.434409,93.0
2023-08-11 18:25:25.442099,117.0
2023-08-11 18:25:25.449789,134.0
2023-08-11 18:25:25.457478,155.0
2023-08-11 18:25:25.465168,179.0
2023-08-11 18:25:25.472858,194.0
2023-08-11 18:25:25.480548,201.0
2023-08-11 18:25:25.488237,203.0
2023-08-11 18:25:25.495927,196.0
2023-08-11 18:25:25.503617,182.0
2023-08-11 18:25:25.511307,148.0
2023-08-11 18:25:25.518996,93.0
2023-08-11 18:25:25.526686,26.0
2023-08-11 18:25:25.534376,-43.0
2023-08-11 18:25:25.542066,-103.0
2023-08-11 18:25:25.549755,-148.0
2023-08-11 18:25:25.557445,-184.0
2023-08-11 18:25:25.565135,-208.0
2023-08-11 18:25:25.572825,-218.0
2023-08-11 18:25:25.580514,-218.0
2023-08-11 18:25:25.588204,-218.0
2023-08-11 18:25:25.595894,-215.0
2023-08-11 18:25:25.603584,-213.0
2023-08-11 18:25:25.611273,-203.0
2023-08-11 18:25:25.618963,-189.0
2023-08-11 18:25:25.626653,-182.0
2023-08-11 18:25:25.634342,-172.0
2023-08-11 18:25:25.642032,-165.0
2023-08-11 18:25:25.649722,-167.0
2023-08-11 18:25:25.657412,-165.0
2023-08-11 18:25:25.665101,-153.0
2023-08-11 18:25:25.672791,-148.0
2023-08-11 18:25:25.680481,-148.0
2023-08-11 18:25:25.688171,-141.0
2023-08-11 18:25:25.695860,-139.0
2023-08-11 18:25:25.703550,-141.0
2023-08-11 18:25:25.711240,-139.0
2023-08-11 18:25:25.718930,-136.0
2023-08-11 18:25:25.726619,-139.0
2023-08-11 18:25:25.734309,-139.0
2023-08-11 18:25:25.741999,-136.0
2023-08-11 18:25:25.749689,-134.0
2023-08-11 18:25:25.757378,-134.0
2023-08-11 18:25:25.765068,-129.0
2023-08-11 18:25:25.772758,-129.0
2023-08-11 18:25:25.780448,-127.0
2023-08-11 18:25:25.788137,-124.0
2023-08-11 18:25:25.795827,-127.0
2023-08-11 18:25:25.803517,-127.0
2023-08-11 18:25:25.811206,-124.0
2023-08-11 18:25:25.818896,-119.0
2023-08-11 18:25:25.826586,-122.0
2023-08-11 18:25:25.834276,-119.0
2023-08-11 18:25:25.841965,-115.0
2023-08-11 18:25:25.849655,-119.0
2023-08-11 18:25:25.857345,-124.0
2023-08-11 18:25:25.865035,-124.0
2023-08-11 18:25:25.872724,-124.0
2023-08-11 18:25:25.880414,-124.0
2023-08-11 18:25:25.888104,-119.0
2023-08-11 18:25:25.895794,-115.0
2023-08-11 18:25:25.903483,-115.0
2023-08-11 18:25:25.911173,-115.0
2023-08-11 18:25:25.918863,-115.0
2023-08-11 18:25:25.926553,-115.0
2023-08-11 18:25:25.934242,-112.0
2023-08-11 18:25:25.941932,-107.0
2023-08-11 18:25:25.949622,-107.0
2023-08-11 18:25:25.957312,-107.0
2023-08-11 18:25:25.965001,-107.0
2023-08-11 18:25:25.972691,-107.0
2023-08-11 18:25:25.980381,-100.0
2023-08-11 18:25:25.988070,-98.0
2023-08-11 18:25:25.995760,-98.0
2023-08-11 18:25:26.003450,-100.0
2023-08-11 18:25:26.011140,-100.0
2023-08-11 18:25:26.018829,-95.0
2023-08-11 18:25:26.026519,-93.0
2023-08-11 18:25:26.034209,-93.0
2023-08-11 18:25:26.041899,-95.0
2023-08-11 18:25:26.049588,-95.0
2023-08-11 18:25:26.057278,-91.0
2023-08-11 18:25:26.064968,-91.0
2023-08-11 18:25:26.072658,-88.0
2023-08-11 18:25:26.080347,-86.0
2023-08-11 18:25:26.088037,-88.0
2023-08-11 18:25:26.095727,-93.0
2023-08-11 18:25:26.103417,-93.0
2023-08-11 18:25:26.111106,-91.0
2023-08-11 18:25:26.118796,-86.0
2023-08-11 18:25:26.126486,-91.0
2023-08-11 18:25:26.134176,-98.0
2023-08-11 18:25:26.141865,-95.0
2023-08-11 18:25:26.149555,-71.0
2023-08-11 18:25:26.157245,-35.0
2023-08-11 18:25:26.164934,-21.0
2023-08-11 18:25:26.172624,-31.0
2023-08-11 18:25:26.180314,-33.0
2023-08-11 18:25:26.188004,-59.0
2023-08-11 18:25:26.195693,-95.0
2023-08-11 18:25:26.203383,-103.0
2023-08-11 18:25:26.211073,-95.0
2023-08-11 18:25:26.218763,-95.0
2023-08-11 18:25:26.226452,-98.0
2023-08-11 18:25:26.234142,-93.0
2023-08-11 18:25:26.241832,-93.0
2023-08-11 18:25:26.249522,-93.0
2023-08-11 18:25:26.257211,-95.0
2023-08-11 18:25:26.264901,-119.0
2023-08-11 18:25:26.272591,-83.0
2023-08-11 18:25:26.280281,268.0
2023-08-11 18:25:26.287970,968.0
2023-08-11 18:25:26.295660,1457.0
2023-08-11 18:25:26.303350,1064.0
2023-08-11 18:25:26.311040,-81.0
2023-08-11 18:25:26.318729,-817.0
2023-08-11 18:25:26.326419,-548.0
2023-08-11 18:25:26.334109,-143.0
2023-08-11 18:25:26.341798,-177.0
2023-08-11 18:25:26.349488,-239.0
2023-08-11 18:25:26.357178,-160.0
2023-08-11 18:25:26.364868,-146.0
2023-08-11 18:25:26.372557,-165.0
2023-08-11 18:25:26.380247,-131.0
2023-08-11 18:25:26.387937,-103.0
2023-08-11 18:25:26.395627,-100.0
2023-08-11 18:25:26.403316,-88.0
2023-08-11 18:25:26.411006,-79.0
2023-08-11 18:25:26.418696,-71.0
2023-08-11 18:25:26.426386,-59.0
2023-08-11 18:25:26.434075,-43.0
2023-08-11 18:25:26.441765,-31.0
2023-08-11 18:25:26.449455,-21.0
2023-08-11 18:25:26.457145,-11.0
2023-08-11 18:25:26.464834,0.0
2023-08-11 18:25:26.472524,11.0
2023-08-11 18:25:26.480214,26.0
2023-08-11 18:25:26.487904,40.0
2023-08-11 18:25:26.495593,59.0
2023-08-11 18:25:26.503283,74.0
2023-08-11 18:25:26.510973,88.0
2023-08-11 18:25:26.518662,110.0
2023-08-11 18:25:26.526352,131.0
2023-08-11 18:25:26.534042,150.0
2023-08-11 18:25:26.541732,174.0
2023-08-11 18:25:26.549421,191.0
2023-08-11 18:25:26.557111,208.0
2023-08-11 18:25:26.564801,222.0
2023-08-11 18:25:26.572491,225.0
2023-08-11 18:25:26.580180,215.0
2023-08-11 18:25:26.587870,203.0
2023-08-11 18:25:26.595560,172.0
2023-08-11 18:25:26.603250,115.0
2023-08-11 18:25:26.610939,45.0
2023-08-11 18:25:26.618629,-21.0
2023-08-11 18:25:26.626319,-81.0
2023-08-11 18:25:26.634009,-131.0
2023-08-11 18:25:26.641698,-170.0
2023-08-11 18:25:26.649388,-194.0
2023-08-11 18:25:26.657078,-206.0
2023-08-11 18:25:26.664768,-206.0
2023-08-11 18:25:26.672457,-203.0
2023-08-11 18:25:26.680147,-198.0
2023-08-11 18:25:26.687837,-196.0
2023-08-11 18:25:26.695526,-186.0
2023-08-11 18:25:26.703216,-172.0
2023-08-11 18:25:26.710906,-162.0
2023-08-11 18:25:26.718596,-155.0
2023-08-11 18:25:26.726285,-148.0
2023-08-11 18:25:26.733975,-148.0
2023-08-11 18:25:26.741665,-143.0
2023-08-11 18:25:26.749355,-136.0
2023-08-11 18:25:26.757044,-129.0
2023-08-11 18:25:26.764734,-129.0
2023-08-11 18:25:26.772424,-129.0
2023-08-11 18:25:26.780114,-136.0
2023-08-11 18:25:26.787803,-136.0
2023-08-11 18:25:26.795493,-129.0
2023-08-11 18:25:26.803183,-129.0
2023-08-11 18:25:26.810873,-131.0
2023-08-11 18:25:26.818562,-129.0
2023-08-11 18:25:26.826252,-129.0
2023-08-11 18:25:26.833942,-129.0
2023-08-11 18:25:26.841632,-127.0
2023-08-11 18:25:26.849321,-122.0
2023-08-11 18:25:26.857011,-122.0
2023-08-11 18:25:26.864701,-124.0
2023-08-11 18:25:26.872390,-124.0
2023-08-11 18:25:26.880080,-117.0
2023-08-11 18:25:26.887770,-115.0
2023-08-11 18:25:26.895460,-112.0
2023-08-11 18:25:26.903149,-110.0
2023-08-11 18:25:26.910839,-110.0
2023-08-11 18:25:26.918529,-112.0
2023-08-11 18:25:26.926219,-115.0
2023-08-11 18:25:26.933908,-115.0
2023-08-11 18:25:26.941598,-117.0
2023-08-11 18:25:26.949288,-117.0
2023-08-11 18:25:26.956978,-110.0
2023-08-11 18:25:26.964667,-107.0
2023-08-11 18:25:26.972357,-110.0
2023-08-11 18:25:26.980047,-105.0
2023-08-11 18:25:26.987737,-100.0
2023-08-11 18:25:26.995426,-100.0
2023-08-11 18:25:27.003116,-100.0
2023-08-11 18:25:27.010806,-100.0
2023-08-11 18:25:27.018496,-98.0
2023-08-11 18:25:27.026185,-98.0
2023-08-11 18:25:27.033875,-93.0
2023-08-11 18:25:27.041565,-91.0
2023-08-11 18:25:27.049255,-91.0
2023-08-11 18:25:27.056944,-91.0
2023-08-11 18:25:27.064634,-91.0
2023-08-11 18:25:27.072324,-88.0
2023-08-11 18:25:27.080013,-88.0
2023-08-11 18:25:27.087703,-91.0
2023-08-11 18:25:27.095393,-93.0
2023-08-11 18:25:27.103083,-91.0
2023-08-11 18:25:27.110772,-88.0
2023-08-11 18:25:27.118462,-91.0
2023-08-11 18:25:27.126152,-93.0
2023-08-11 18:25:27.133842,-93.0
2023-08-11 18:25:27.141531,-93.0
2023-08-11 18:25:27.149221,-93.0
2023-08-11 18:25:27.156911,-91.0
2023-08-11 18:25:27.164601,-88.0
2023-08-11 18:25:27.172290,-62.0
2023-08-11 18:25:27.179980,-23.0
2023-08-11 18:25:27.187670,-16.0
2023-08-11 18:25:27.195360,-23.0
2023-08-11 18:25:27.203049,-23.0
2023-08-11 18:25:27.210739,-45.0
2023-08-11 18:25:27.218429,-79.0
2023-08-11 18:25:27.226119,-91.0
2023-08-11 18:25:27.233808,-88.0
2023-08-11 18:25:27.241498,-88.0
2023-08-11 18:25:27.249188,-88.0
2023-08-11 18:25:27.256877,-83.0
2023-08-11 18:25:27.264567,-83.0
2023-08-11 18:25:27.272257,-86.0
2023-08-11 18:25:27.279947,-93.0
2023-08-11 18:25:27.287636,-119.0
2023-08-11 18:25:27.295326,-38.0
2023-08-11 18:25:27.303016,405.0
2023-08-11 18:25:27.310706,1104.0
2023-08-11 18:25:27.318395,1385.0
2023-08-11 18:25:27.326085,726.0
2023-08-11 18:25:27.333775,-385.0
2023-08-11 18:25:27.341465,-819.0
2023-08-11 18:25:27.349154,-443.0
2023-08-11 18:25:27.356844,-155.0
2023-08-11 18:25:27.364534,-203.0
2023-08-11 18:25:27.372224,-213.0
2023-08-11 18:25:27.379913,-153.0
2023-08-11 18:25:27.387603,-153.0
2023-08-11 18:25:27.395293,-153.0
2023-08-11 18:25:27.402983,-122.0
2023-08-11 18:25:27.410672,-112.0
2023-08-11 18:25:27.418362,-107.0
2023-08-11 18:25:27.426052,-93.0
2023-08-11 18:25:27.433741,-81.0
2023-08-11 18:25:27.441431,-71.0
2023-08-11 18:25:27.449121,-62.0
2023-08-11 18:25:27.456811,-50.0
2023-08-11 18:25:27.464500,-40.0
2023-08-11 18:25:27.472190,-31.0
2023-08-11 18:25:27.479880,-14.0
2023-08-11 18:25:27.487570,-2.0
2023-08-11 18:25:27.495259,7.0
2023-08-11 18:25:27.502949,19.0
2023-08-11 18:25:27.510639,33.0
2023-08-11 18:25:27.518329,47.0
2023-08-11 18:25:27.526018,64.0
2023-08-11 18:25:27.533708,83.0
2023-08-11 18:25:27.541398,98.0
2023-08-11 18:25:27.549088,117.0
2023-08-11 18:25:27.556777,139.0
2023-08-11 18:25:27.564467,158.0
2023-08-11 18:25:27.572157,172.0
2023-08-11 18:25:27.579847,182.0
2023-08-11 18:25:27.587536,189.0
2023-08-11 18:25:27.595226,194.0
2023-08-11 18:25:27.602916,184.0
2023-08-11 18:25:27.610605,165.0
2023-08-11 18:25:27.618295,129.0
2023-08-11 18:25:27.625985,69.0
2023-08-11 18:25:27.633675,2.0
2023-08-11 18:25:27.641364,-55.0
2023-08-11 18:25:27.649054,-107.0
2023-08-11 18:25:27.656744,-153.0
2023-08-11 18:25:27.664434,-182.0
2023-08-11 18:25:27.672123,-196.0
2023-08-11 18:25:27.679813,-203.0
2023-08-11 18:25:27.687503,-206.0
2023-08-11 18:25:27.695193,-201.0
2023-08-11 18:25:27.702882,-194.0
2023-08-11 18:25:27.710572,-184.0
2023-08-11 18:25:27.718262,-179.0
2023-08-11 18:25:27.725952,-172.0
2023-08-11 18:25:27.733641,-160.0
2023-08-11 18:25:27.741331,-153.0
2023-08-11 18:25:27.749021,-148.0
2023-08-11 18:25:27.756711,-141.0
2023-08-11 18:25:27.764400,-141.0
2023-08-11 18:25:27.772090,-136.0
2023-08-11 18:25:27.779780,-129.0
2023-08-11 18:25:27.787469,-127.0
2023-08-11 18:25:27.795159,-131.0
2023-08-11 18:25:27.802849,-131.0
2023-08-11 18:25:27.810539,-129.0
2023-08-11 18:25:27.818228,-129.0
2023-08-11 18:25:27.825918,-134.0
2023-08-11 18:25:27.833608,-131.0
2023-08-11 18:25:27.841298,-127.0
2023-08-11 18:25:27.848987,-131.0
2023-08-11 18:25:27.856677,-139.0
2023-08-11 18:25:27.864367,-139.0
2023-08-11 18:25:27.872057,-131.0
2023-08-11 18:25:27.879746,-124.0
2023-08-11 18:25:27.887436,-124.0
2023-08-11 18:25:27.895126,-127.0
2023-08-11 18:25:27.902816,-129.0
2023-08-11 18:25:27.910505,-127.0
2023-08-11 18:25:27.918195,-119.0
2023-08-11 18:25:27.925885,-117.0
2023-08-11 18:25:27.933575,-115.0
2023-08-11 18:25:27.941264,-112.0
2023-08-11 18:25:27.948954,-117.0
2023-08-11 18:25:27.956644,-122.0
2023-08-11 18:25:27.964333,-119.0
2023-08-11 18:25:27.972023,-117.0
2023-08-11 18:25:27.979713,-119.0
2023-08-11 18:25:27.987403,-119.0
2023-08-11 18:25:27.995092,-115.0
2023-08-11 18:25:28.002782,-112.0
2023-08-11 18:25:28.010472,-110.0
2023-08-11 18:25:28.018162,-107.0
2023-08-11 18:25:28.025851,-112.0
2023-08-11 18:25:28.033541,-112.0
2023-08-11 18:25:28.041231,-105.0
2023-08-11 18:25:28.048921,-105.0
2023-08-11 18:25:28.056610,-105.0
2023-08-11 18:25:28.064300,-107.0
2023-08-11 18:25:28.071990,-110.0
2023-08-11 18:25:28.079680,-110.0
2023-08-11 18:25:28.087369,-105.0
2023-08-11 18:25:28.095059,-103.0
2023-08-11 18:25:28.102749,-103.0
2023-08-11 18:25:28.110439,-98.0
2023-08-11 18:25:28.118128,-95.0
2023-08-11 18:25:28.125818,-103.0
2023-08-11 18:25:28.133508,-105.0
2023-08-11 18:25:28.141197,-100.0
2023-08-11 18:25:28.148887,-98.0
2023-08-11 18:25:28.156577,-98.0
2023-08-11 18:25:28.164267,-95.0
2023-08-11 18:25:28.171956,-98.0
2023-08-11 18:25:28.179646,-105.0
2023-08-11 18:25:28.187336,-103.0
2023-08-11 18:25:28.195026,-74.0
2023-08-11 18:25:28.202715,-28.0
2023-08-11 18:25:28.210405,-21.0
2023-08-11 18:25:28.218095,-35.0
2023-08-11 18:25:28.225785,-33.0
2023-08-11 18:25:28.233474,-43.0
2023-08-11 18:25:28.241164,-81.0
2023-08-11 18:25:28.248854,-103.0
2023-08-11 18:25:28.256544,-98.0
2023-08-11 18:25:28.264233,-95.0
2023-08-11 18:25:28.271923,-98.0
2023-08-11 18:25:28.279613,-93.0
2023-08-11 18:25:28.287303,-91.0
2023-08-11 18:25:28.294992,-91.0
2023-08-11 18:25:28.302682,-95.0
2023-08-11 18:25:28.310372,-122.0
2023-08-11 18:25:28.318061,-100.0
2023-08-11 18:25:28.325751,203.0
2023-08-11 18:25:28.333441,865.0
2023-08-11 18:25:28.341131,1394.0
2023-08-11 18:25:28.348820,1109.0
2023-08-11 18:25:28.356510,21.0
2023-08-11 18:25:28.364200,-783.0
2023-08-11 18:25:28.371890,-582.0
2023-08-11 18:25:28.379579,-155.0
2023-08-11 18:25:28.387269,-165.0
2023-08-11 18:25:28.394959,-239.0
2023-08-11 18:25:28.402649,-167.0
2023-08-11 18:25:28.410338,-143.0
2023-08-11 18:25:28.418028,-158.0
2023-08-11 18:25:28.425718,-129.0
2023-08-11 18:25:28.433408,-107.0
2023-08-11 18:25:28.441097,-117.0
2023-08-11 18:25:28.448787,-110.0
2023-08-11 18:25:28.456477,-88.0
2023-08-11 18:25:28.464167,-79.0
2023-08-11 18:25:28.471856,-69.0
2023-08-11 18:25:28.479546,-55.0
2023-08-11 18:25:28.487236,-45.0
2023-08-11 18:25:28.494925,-33.0
2023-08-11 18:25:28.502615,-21.0
2023-08-11 18:25:28.510305,-9.0
2023-08-11 18:25:28.517995,7.0
2023-08-11 18:25:28.525684,19.0
2023-08-11 18:25:28.533374,31.0
2023-08-11 18:25:28.541064,45.0
2023-08-11 18:25:28.548754,62.0
2023-08-11 18:25:28.556443,76.0
2023-08-11 18:25:28.564133,93.0
2023-08-11 18:25:28.571823,115.0
2023-08-11 18:25:28.579513,134.0
2023-08-11 18:25:28.587202,150.0
2023-08-11 18:25:28.594892,172.0
2023-08-11 18:25:28.602582,191.0
2023-08-11 18:25:28.610272,198.0
2023-08-11 18:25:28.617961,201.0
2023-08-11 18:25:28.625651,194.0
2023-08-11 18:25:28.633341,174.0
2023-08-11 18:25:28.641031,146.0
2023-08-11 18:25:28.648720,103.0
2023-08-11 18:25:28.656410,38.0
2023-08-11 18:25:28.664100,-33.0
2023-08-11 18:25:28.671790,-91.0
2023-08-11 18:25:28.679479,-136.0
2023-08-11 18:25:28.687169,-170.0
2023-08-11 18:25:28.694859,-189.0
2023-08-11 18:25:28.702548,-201.0
2023-08-11 18:25:28.710238,-206.0
2023-08-11 18:25:28.717928,-203.0
2023-08-11 18:25:28.725618,-198.0
2023-08-11 18:25:28.733307,-189.0
2023-08-11 18:25:28.740997,-182.0
2023-08-11 18:25:28.748687,-174.0
2023-08-11 18:25:28.756377,-167.0
2023-08-11 18:25:28.764066,-160.0
2023-08-11 18:25:28.771756,-150.0
2023-08-11 18:25:28.779446,-143.0
2023-08-11 18:25:28.787136,-141.0
2023-08-11 18:25:28.794825,-134.0
2023-08-11 18:25:28.802515,-129.0
2023-08-11 18:25:28.810205,-131.0
2023-08-11 18:25:28.817895,-134.0
2023-08-11 18:25:28.825584,-127.0
2023-08-11 18:25:28.833274,-122.0
2023-08-11 18:25:28.840964,-124.0
2023-08-11 18:25:28.848654,-127.0
2023-08-11 18:25:28.856343,-124.0
2023-08-11 18:25:28.864033,-127.0
2023-08-11 18:25:28.871723,-122.0
2023-08-11 18:25:28.879412,-119.0
2023-08-11 18:25:28.887102,-124.0
2023-08-11 18:25:28.894792,-122.0
2023-08-11 18:25:28.902482,-117.0
2023-08-11 18:25:28.910171,-115.0
2023-08-11 18:25:28.917861,-112.0
2023-08-11 18:25:28.925551,-112.0
2023-08-11 18:25:28.933241,-110.0
2023-08-11 18:25:28.940930,-107.0
2023-08-11 18:25:28.948620,-107.0
2023-08-11 18:25:28.956310,-110.0
2023-08-11 18:25:28.964000,-112.0
2023-08-11 18:25:28.971689,-107.0
2023-08-11 18:25:28.979379,-110.0
2023-08-11 18:25:28.987069,-119.0
2023-08-11 18:25:28.994759,-115.0
2023-08-11 18:25:29.002448,-110.0
2023-08-11 18:25:29.010138,-115.0
2023-08-11 18:25:29.017828,-112.0
2023-08-11 18:25:29.025518,-112.0
2023-08-11 18:25:29.033207,-119.0
2023-08-11 18:25:29.040897,-115.0
2023-08-11 18:25:29.048587,-112.0
2023-08-11 18:25:29.056276,-115.0
2023-08-11 18:25:29.063966,-112.0
2023-08-11 18:25:29.071656,-110.0
2023-08-11 18:25:29.079346,-110.0
2023-08-11 18:25:29.087035,-110.0
2023-08-11 18:25:29.094725,-105.0
2023-08-11 18:25:29.102415,-100.0
2023-08-11 18:25:29.110105,-100.0
2023-08-11 18:25:29.117794,-100.0
2023-08-11 18:25:29.125484,-95.0
2023-08-11 18:25:29.133174,-98.0
2023-08-11 18:25:29.140864,-105.0
2023-08-11 18:25:29.148553,-103.0
2023-08-11 18:25:29.156243,-98.0
2023-08-11 18:25:29.163933,-98.0
2023-08-11 18:25:29.171623,-98.0
2023-08-11 18:25:29.179312,-93.0
2023-08-11 18:25:29.187002,-93.0
2023-08-11 18:25:29.194692,-91.0
2023-08-11 18:25:29.202382,-88.0
2023-08-11 18:25:29.210071,-91.0
2023-08-11 18:25:29.217761,-86.0
2023-08-11 18:25:29.225451,-86.0
2023-08-11 18:25:29.233140,-88.0
2023-08-11 18:25:29.240830,-86.0
2023-08-11 18:25:29.248520,-88.0
2023-08-11 18:25:29.256210,-93.0
2023-08-11 18:25:29.263899,-76.0
2023-08-11 18:25:29.271589,-35.0
2023-08-11 18:25:29.279279,-9.0
2023-08-11 18:25:29.286969,-16.0
2023-08-11 18:25:29.294658,-21.0
2023-08-11 18:25:29.302348,-28.0
2023-08-11 18:25:29.310038,-64.0
2023-08-11 18:25:29.317728,-91.0
2023-08-11 18:25:29.325417,-91.0
2023-08-11 18:25:29.333107,-86.0
2023-08-11 18:25:29.340797,-91.0
2023-08-11 18:25:29.348487,-91.0
2023-08-11 18:25:29.356176,-88.0
2023-08-11 18:25:29.363866,-86.0
2023-08-11 18:25:29.371556,-83.0
2023-08-11 18:25:29.379246,-93.0
2023-08-11 18:25:29.386935,-122.0
2023-08-11 18:25:29.394625,0.0
2023-08-11 18:25:29.402315,512.0
2023-08-11 18:25:29.410004,1215.0
2023-08-11 18:25:29.417694,1423.0
2023-08-11 18:25:29.425384,666.0
2023-08-11 18:25:29.433074,-474.0
2023-08-11 18:25:29.440763,-790.0
2023-08-11 18:25:29.448453,-325.0
2023-08-11 18:25:29.456143,-105.0
2023-08-11 18:25:29.463833,-220.0
2023-08-11 18:25:29.471522,-206.0
2023-08-11 18:25:29.479212,-131.0
2023-08-11 18:25:29.486902,-146.0
2023-08-11 18:25:29.494592,-146.0
2023-08-11 18:25:29.502281,-110.0
2023-08-11 18:25:29.509971,-103.0
2023-08-11 18:25:29.517661,-103.0
2023-08-11 18:25:29.525351,-93.0
2023-08-11 18:25:29.533040,-81.0
2023-08-11 18:25:29.540730,-69.0
2023-08-11 18:25:29.548420,-62.0
2023-08-11 18:25:29.556110,-52.0
2023-08-11 18:25:29.563799,-38.0
2023-08-11 18:25:29.571489,-23.0
2023-08-11 18:25:29.579179,-11.0
2023-08-11 18:25:29.586868,0.0
2023-08-11 18:25:29.594558,11.0
2023-08-11 18:25:29.602248,26.0
2023-08-11 18:25:29.609938,43.0
2023-08-11 18:25:29.617627,57.0
2023-08-11 18:25:29.625317,71.0
2023-08-11 18:25:29.633007,93.0
2023-08-11 18:25:29.640697,112.0
2023-08-11 18:25:29.648386,119.0
2023-08-11 18:25:29.656076,141.0
2023-08-11 18:25:29.663766,167.0
2023-08-11 18:25:29.671456,186.0
2023-08-11 18:25:29.679145,201.0
2023-08-11 18:25:29.686835,206.0
2023-08-11 18:25:29.694525,203.0
2023-08-11 18:25:29.702215,201.0
2023-08-11 18:25:29.709904,184.0
2023-08-11 18:25:29.717594,148.0
2023-08-11 18:25:29.725284,93.0
2023-08-11 18:25:29.732974,26.0
2023-08-11 18:25:29.740663,-38.0
2023-08-11 18:25:29.748353,-95.0
2023-08-11 18:25:29.756043,-136.0
2023-08-11 18:25:29.763732,-162.0
2023-08-11 18:25:29.771422,-177.0
2023-08-11 18:25:29.779112,-186.0
2023-08-11 18:25:29.786802,-191.0
2023-08-11 18:25:29.794491,-189.0
2023-08-11 18:25:29.802181,-184.0
2023-08-11 18:25:29.809871,-177.0
2023-08-11 18:25:29.817561,-167.0
2023-08-11 18:25:29.825250,-158.0
2023-08-11 18:25:29.832940,-153.0
2023-08-11 18:25:29.840630,-146.0
2023-08-11 18:25:29.848320,-136.0
2023-08-11 18:25:29.856009,-129.0
2023-08-11 18:25:29.863699,-124.0
2023-08-11 18:25:29.871389,-122.0
2023-08-11 18:25:29.879079,-122.0
2023-08-11 18:25:29.886768,-122.0
2023-08-11 18:25:29.894458,-115.0
2023-08-11 18:25:29.902148,-112.0
2023-08-11 18:25:29.909838,-115.0
2023-08-11 18:25:29.917527,-117.0
2023-08-11 18:25:29.925217,-117.0
2023-08-11 18:25:29.932907,-115.0
2023-08-11 18:25:29.940596,-112.0
2023-08-11 18:25:29.948286,-110.0
2023-08-11 18:25:29.955976,-112.0
2023-08-11 18:25:29.963666,-110.0
2023-08-11 18:25:29.971355,-110.0
2023-08-11 18:25:29.979045,-110.0
2023-08-11 18:25:29.986735,-107.0
2023-08-11 18:25:29.994425,-103.0
2023-08-11 18:25:30.002114,-100.0
2023-08-11 18:25:30.009804,-103.0
2023-08-11 18:25:30.017494,-100.0
2023-08-11 18:25:30.025184,-98.0
2023-08-11 18:25:30.032873,-98.0
2023-08-11 18:25:30.040563,-103.0
2023-08-11 18:25:30.048253,-105.0
2023-08-11 18:25:30.055943,-105.0
2023-08-11 18:25:30.063632,-103.0
2023-08-11 18:25:30.071322,-100.0
2023-08-11 18:25:30.079012,-98.0
2023-08-11 18:25:30.086702,-100.0
2023-08-11 18:25:30.094391,-100.0
2023-08-11 18:25:30.102081,-105.0
2023-08-11 18:25:30.109771,-117.0
2023-08-11 18:25:30.117460,-117.0
2023-08-11 18:25:30.125150,-105.0
2023-08-11 18:25:30.132840,-103.0
2023-08-11 18:25:30.140530,-107.0
2023-08-11 18:25:30.148219,-110.0
2023-08-11 18:25:30.155909,-110.0
2023-08-11 18:25:30.163599,-107.0
2023-08-11 18:25:30.171289,-103.0
2023-08-11 18:25:30.178978,-100.0
2023-08-11 18:25:30.186668,-98.0
2023-08-11 18:25:30.194358,-100.0
2023-08-11 18:25:30.202048,-103.0
2023-08-11 18:25:30.209737,-98.0
2023-08-11 18:25:30.217427,-91.0
2023-08-11 18:25:30.225117,-91.0
2023-08-11 18:25:30.232807,-91.0
2023-08-11 18:25:30.240496,-91.0
2023-08-11 18:25:30.248186,-91.0
2023-08-11 18:25:30.255876,-86.0
2023-08-11 18:25:30.263566,-81.0
2023-08-11 18:25:30.271255,-83.0
2023-08-11 18:25:30.278945,-88.0
2023-08-11 18:25:30.286635,-88.0
2023-08-11 18:25:30.294325,-86.0
2023-08-11 18:25:30.302014,-81.0
2023-08-11 18:25:30.309704,-86.0
2023-08-11 18:25:30.317394,-88.0
2023-08-11 18:25:30.325083,-81.0
2023-08-11 18:25:30.332773,-52.0
2023-08-11 18:25:30.340463,-19.0
2023-08-11 18:25:30.348153,-11.0
2023-08-11 18:25:30.355842,-14.0
2023-08-11 18:25:30.363532,-14.0
2023-08-11 18:25:30.371222,-43.0
2023-08-11 18:25:30.378912,-83.0
2023-08-11 18:25:30.386601,-91.0
2023-08-11 18:25:30.394291,-79.0
2023-08-11 18:25:30.401981,-81.0
2023-08-11 18:25:30.409671,-83.0
2023-08-11 18:25:30.417360,-76.0
2023-08-11 18:25:30.425050,-79.0
2023-08-11 18:25:30.432740,-81.0
2023-08-11 18:25:30.440430,-83.0
2023-08-11 18:25:30.448119,-107.0
2023-08-11 18:25:30.455809,-52.0
2023-08-11 18:25:30.463499,359.0
2023-08-11 18:25:30.471189,1078.0
2023-08-11 18:25:30.478878,1452.0
2023-08-11 18:25:30.486568,879.0
2023-08-11 18:25:30.494258,-266.0
2023-08-11 18:25:30.501947,-798.0
2023-08-11 18:25:30.509637,-443.0
2023-08-11 18:25:30.517327,-129.0
2023-08-11 18:25:30.525017,-186.0
2023-08-11 18:25:30.532706,-206.0
2023-08-11 18:25:30.540396,-141.0
2023-08-11 18:25:30.548086,-139.0
2023-08-11 18:25:30.555776,-141.0
2023-08-11 18:25:30.563465,-112.0
2023-08-11 18:25:30.571155,-100.0
2023-08-11 18:25:30.578845,-98.0
2023-08-11 18:25:30.586535,-81.0
2023-08-11 18:25:30.594224,-67.0
2023-08-11 18:25:30.601914,-62.0
2023-08-11 18:25:30.609604,-55.0
2023-08-11 18:25:30.617294,-40.0
2023-08-11 18:25:30.624983,-28.0
2023-08-11 18:25:30.632673,-19.0
2023-08-11 18:25:30.640363,-7.0
2023-08-11 18:25:30.648053,0.0
2023-08-11 18:25:30.655742,7.0
2023-08-11 18:25:30.663432,16.0
2023-08-11 18:25:30.671122,35.0
2023-08-11 18:25:30.678811,52.0
2023-08-11 18:25:30.686501,62.0
2023-08-11 18:25:30.694191,71.0
2023-08-11 18:25:30.701881,93.0
2023-08-11 18:25:30.709570,115.0
2023-08-11 18:25:30.717260,131.0
2023-08-11 18:25:30.724950,153.0
2023-08-11 18:25:30.732640,172.0
2023-08-11 18:25:30.740329,182.0
2023-08-11 18:25:30.748019,191.0
2023-08-11 18:25:30.755709,196.0
2023-08-11 18:25:30.763399,191.0
2023-08-11 18:25:30.771088,170.0
2023-08-11 18:25:30.778778,139.0
2023-08-11 18:25:30.786468,88.0
2023-08-11 18:25:30.794158,26.0
2023-08-11 18:25:30.801847,-38.0
2023-08-11 18:25:30.809537,-93.0
2023-08-11 18:25:30.817227,-139.0
2023-08-11 18:25:30.824917,-167.0
2023-08-11 18:25:30.832606,-184.0
2023-08-11 18:25:30.840296,-194.0
2023-08-11 18:25:30.847986,-198.0
2023-08-11 18:25:30.855675,-191.0
2023-08-11 18:25:30.863365,-184.0
2023-08-11 18:25:30.871055,-182.0
2023-08-11 18:25:30.878745,-172.0
2023-08-11 18:25:30.886434,-162.0
2023-08-11 18:25:30.894124,-155.0
2023-08-11 18:25:30.901814,-148.0
2023-08-11 18:25:30.909504,-141.0
2023-08-11 18:25:30.917193,-139.0
2023-08-11 18:25:30.924883,-131.0
2023-08-11 18:25:30.932573,-127.0
2023-08-11 18:25:30.940263,-124.0
2023-08-11 18:25:30.947952,-119.0
2023-08-11 18:25:30.955642,-117.0
2023-08-11 18:25:30.963332,-122.0
2023-08-11 18:25:30.971022,-122.0
2023-08-11 18:25:30.978711,-117.0
2023-08-11 18:25:30.986401,-122.0
2023-08-11 18:25:30.994091,-122.0
2023-08-11 18:25:31.001781,-117.0
2023-08-11 18:25:31.009470,-117.0
2023-08-11 18:25:31.017160,-119.0
2023-08-11 18:25:31.024850,-122.0
2023-08-11 18:25:31.032539,-124.0
2023-08-11 18:25:31.040229,-117.0
2023-08-11 18:25:31.047919,-112.0
2023-08-11 18:25:31.055609,-117.0
2023-08-11 18:25:31.063298,-119.0
2023-08-11 18:25:31.070988,-117.0
2023-08-11 18:25:31.078678,-112.0
2023-08-11 18:25:31.086368,-112.0
2023-08-11 18:25:31.094057,-112.0
2023-08-11 18:25:31.101747,-110.0
2023-08-11 18:25:31.109437,-107.0
2023-08-11 18:25:31.117127,-115.0
2023-08-11 18:25:31.124816,-115.0
2023-08-11 18:25:31.132506,-112.0
2023-08-11 18:25:31.140196,-115.0
2023-08-11 18:25:31.147886,-117.0
2023-08-11 18:25:31.155575,-119.0
2023-08-11 18:25:31.163265,-117.0
2023-08-11 18:25:31.170955,-115.0
2023-08-11 18:25:31.178645,-112.0
2023-08-11 18:25:31.186334,-112.0
2023-08-11 18:25:31.194024,-110.0
2023-08-11 18:25:31.201714,-107.0
2023-08-11 18:25:31.209403,-107.0
2023-08-11 18:25:31.217093,-105.0
2023-08-11 18:25:31.224783,-105.0
2023-08-11 18:25:31.232473,-117.0
2023-08-11 18:25:31.240162,-119.0
2023-08-11 18:25:31.247852,-105.0
2023-08-11 18:25:31.255542,-103.0
2023-08-11 18:25:31.263232,-107.0
2023-08-11 18:25:31.270921,-107.0
2023-08-11 18:25:31.278611,-105.0
2023-08-11 18:25:31.286301,-105.0
2023-08-11 18:25:31.293991,-100.0
2023-08-11 18:25:31.301680,-98.0
2023-08-11 18:25:31.309370,-100.0
2023-08-11 18:25:31.317060,-98.0
2023-08-11 18:25:31.324750,-93.0
2023-08-11 18:25:31.332439,-93.0
2023-08-11 18:25:31.340129,-98.0
2023-08-11 18:25:31.347819,-105.0
2023-08-11 18:25:31.355509,-105.0
2023-08-11 18:25:31.363198,-76.0
2023-08-11 18:25:31.370888,-31.0
2023-08-11 18:25:31.378578,-16.0
2023-08-11 18:25:31.386267,-31.0
2023-08-11 18:25:31.393957,-31.0
2023-08-11 18:25:31.401647,-45.0
2023-08-11 18:25:31.409337,-86.0
2023-08-11 18:25:31.417026,-103.0
2023-08-11 18:25:31.424716,-95.0
2023-08-11 18:25:31.432406,-95.0
2023-08-11 18:25:31.440096,-98.0
2023-08-11 18:25:31.447785,-98.0
2023-08-11 18:25:31.455475,-95.0
2023-08-11 18:25:31.463165,-95.0
2023-08-11 18:25:31.470855,-98.0
2023-08-11 18:25:31.478544,-119.0
2023-08-11 18:25:31.486234,-98.0
2023-08-11 18:25:31.493924,220.0
2023-08-11 18:25:31.501614,896.0
2023-08-11 18:25:31.509303,1402.0
2023-08-11 18:25:31.516993,1064.0
2023-08-11 18:25:31.524683,-35.0
2023-08-11 18:25:31.532373,-795.0
2023-08-11 18:25:31.540062,-563.0
2023-08-11 18:25:31.547752,-155.0
2023-08-11 18:25:31.555442,-179.0
2023-08-11 18:25:31.563131,-239.0
2023-08-11 18:25:31.570821,-165.0
2023-08-11 18:25:31.578511,-148.0
2023-08-11 18:25:31.586201,-167.0
2023-08-11 18:25:31.593890,-136.0
2023-08-11 18:25:31.601580,-112.0
2023-08-11 18:25:31.609270,-112.0
2023-08-11 18:25:31.616960,-98.0
2023-08-11 18:25:31.624649,-81.0
2023-08-11 18:25:31.632339,-79.0
2023-08-11 18:25:31.640029,-71.0
2023-08-11 18:25:31.647719,-59.0
2023-08-11 18:25:31.655408,-50.0
2023-08-11 18:25:31.663098,-43.0
2023-08-11 18:25:31.670788,-31.0
2023-08-11 18:25:31.678478,-16.0
2023-08-11 18:25:31.686167,-7.0
2023-08-11 18:25:31.693857,7.0
2023-08-11 18:25:31.701547,21.0
2023-08-11 18:25:31.709237,35.0
2023-08-11 18:25:31.716926,52.0
2023-08-11 18:25:31.724616,69.0
2023-08-11 18:25:31.732306,88.0
2023-08-11 18:25:31.739995,110.0
2023-08-11 18:25:31.747685,129.0
2023-08-11 18:25:31.755375,153.0
2023-08-11 18:25:31.763065,167.0
2023-08-11 18:25:31.770754,170.0
2023-08-11 18:25:31.778444,174.0
2023-08-11 18:25:31.786134,182.0
2023-08-11 18:25:31.793824,179.0
2023-08-11 18:25:31.801513,165.0
2023-08-11 18:25:31.809203,134.0
2023-08-11 18:25:31.816893,86.0
2023-08-11 18:25:31.824583,23.0
2023-08-11 18:25:31.832272,-38.0
2023-08-11 18:25:31.839962,-95.0
2023-08-11 18:25:31.847652,-143.0
2023-08-11 18:25:31.855342,-177.0
2023-08-11 18:25:31.863031,-201.0
2023-08-11 18:25:31.870721,-213.0
2023-08-11 18:25:31.878411,-210.0
2023-08-11 18:25:31.886101,-206.0
2023-08-11 18:25:31.893790,-201.0
2023-08-11 18:25:31.901480,-196.0
2023-08-11 18:25:31.909170,-189.0
2023-08-11 18:25:31.916860,-177.0
2023-08-11 18:25:31.924549,-167.0
2023-08-11 18:25:31.932239,-160.0
2023-08-11 18:25:31.939929,-148.0
2023-08-11 18:25:31.947618,-146.0
2023-08-11 18:25:31.955308,-143.0
2023-08-11 18:25:31.962998,-136.0
2023-08-11 18:25:31.970688,-129.0
2023-08-11 18:25:31.978377,-129.0
2023-08-11 18:25:31.986067,-127.0
2023-08-11 18:25:31.993757,-127.0
2023-08-11 18:25:32.001447,-131.0
2023-08-11 18:25:32.009136,-131.0
2023-08-11 18:25:32.016826,-129.0
2023-08-11 18:25:32.024516,-127.0
2023-08-11 18:25:32.032206,-129.0
2023-08-11 18:25:32.039895,-131.0
2023-08-11 18:25:32.047585,-131.0
2023-08-11 18:25:32.055275,-124.0
2023-08-11 18:25:32.062965,-122.0
2023-08-11 18:25:32.070654,-119.0
2023-08-11 18:25:32.078344,-119.0
2023-08-11 18:25:32.086034,-122.0
2023-08-11 18:25:32.093724,-124.0
2023-08-11 18:25:32.101413,-117.0
2023-08-11 18:25:32.109103,-115.0
2023-08-11 18:25:32.116793,-115.0
2023-08-11 18:25:32.124482,-115.0
2023-08-11 18:25:32.132172,-115.0
2023-08-11 18:25:32.139862,-119.0
2023-08-11 18:25:32.147552,-117.0
2023-08-11 18:25:32.155241,-117.0
2023-08-11 18:25:32.162931,-127.0
2023-08-11 18:25:32.170621,-129.0
2023-08-11 18:25:32.178311,-124.0
2023-08-11 18:25:32.186000,-122.0
2023-08-11 18:25:32.193690,-122.0
2023-08-11 18:25:32.201380,-117.0
2023-08-11 18:25:32.209070,-112.0
2023-08-11 18:25:32.216759,-112.0
2023-08-11 18:25:32.224449,-112.0
2023-08-11 18:25:32.232139,-112.0
2023-08-11 18:25:32.239829,-107.0
2023-08-11 18:25:32.247518,-107.0
2023-08-11 18:25:32.255208,-107.0
2023-08-11 18:25:32.262898,-110.0
2023-08-11 18:25:32.270588,-107.0
2023-08-11 18:25:32.278277,-103.0
2023-08-11 18:25:32.285967,-100.0
2023-08-11 18:25:32.293657,-98.0
2023-08-11 18:25:32.301346,-98.0
2023-08-11 18:25:32.309036,-98.0
2023-08-11 18:25:32.316726,-98.0
2023-08-11 18:25:32.324416,-98.0
2023-08-11 18:25:32.332105,-93.0
2023-08-11 18:25:32.339795,-93.0
2023-08-11 18:25:32.347485,-91.0
2023-08-11 18:25:32.355175,-95.0
2023-08-11 18:25:32.362864,-103.0
2023-08-11 18:25:32.370554,-98.0
2023-08-11 18:25:32.378244,-91.0
2023-08-11 18:25:32.385934,-91.0
2023-08-11 18:25:32.393623,-91.0
2023-08-11 18:25:32.401313,-91.0
2023-08-11 18:25:32.409003,-91.0
2023-08-11 18:25:32.416693,-91.0
2023-08-11 18:25:32.424382,-95.0
2023-08-11 18:25:32.432072,-93.0
2023-08-11 18:25:32.439762,-64.0
2023-08-11 18:25:32.447452,-23.0
2023-08-11 18:25:32.455141,-14.0
2023-08-11 18:25:32.462831,-23.0
2023-08-11 18:25:32.470521,-19.0
2023-08-11 18:25:32.478210,-33.0
2023-08-11 18:25:32.485900,-76.0
2023-08-11 18:25:32.493590,-95.0
2023-08-11 18:25:32.501280,-93.0
2023-08-11 18:25:32.508969,-95.0
2023-08-11 18:25:32.516659,-95.0
2023-08-11 18:25:32.524349,-88.0
2023-08-11 18:25:32.532039,-91.0
2023-08-11 18:25:32.539728,-91.0
2023-08-11 18:25:32.547418,-93.0
2023-08-11 18:25:32.555108,-115.0
2023-08-11 18:25:32.562798,-107.0
2023-08-11 18:25:32.570487,165.0
2023-08-11 18:25:32.578177,819.0
2023-08-11 18:25:32.585867,1409.0
2023-08-11 18:25:32.593557,1212.0
2023-08-11 18:25:32.601246,148.0
2023-08-11 18:25:32.608936,-750.0
2023-08-11 18:25:32.616626,-608.0
2023-08-11 18:25:32.624316,-155.0
2023-08-11 18:25:32.632005,-155.0
2023-08-11 18:25:32.639695,-244.0
2023-08-11 18:25:32.647385,-167.0
2023-08-11 18:25:32.655074,-136.0
2023-08-11 18:25:32.662764,-158.0
2023-08-11 18:25:32.670454,-136.0
2023-08-11 18:25:32.678144,-115.0
2023-08-11 18:25:32.685833,-115.0
2023-08-11 18:25:32.693523,-100.0
2023-08-11 18:25:32.701213,-83.0
2023-08-11 18:25:32.708903,-76.0
2023-08-11 18:25:32.716592,-67.0
2023-08-11 18:25:32.724282,-55.0
2023-08-11 18:25:32.731972,-43.0
2023-08-11 18:25:32.739662,-33.0
2023-08-11 18:25:32.747351,-23.0
2023-08-11 18:25:32.755041,-14.0
2023-08-11 18:25:32.762731,2.0
2023-08-11 18:25:32.770421,14.0
2023-08-11 18:25:32.778110,26.0
2023-08-11 18:25:32.785800,40.0
2023-08-11 18:25:32.793490,59.0
2023-08-11 18:25:32.801180,76.0
2023-08-11 18:25:32.808869,93.0
2023-08-11 18:25:32.816559,112.0
2023-08-11 18:25:32.824249,134.0
2023-08-11 18:25:32.831938,155.0
2023-08-11 18:25:32.839628,174.0
2023-08-11 18:25:32.847318,189.0
2023-08-11 18:25:32.855008,201.0
2023-08-11 18:25:32.862697,206.0
2023-08-11 18:25:32.870387,206.0
2023-08-11 18:25:32.878077,194.0
2023-08-11 18:25:32.885767,170.0
2023-08-11 18:25:32.893456,122.0
2023-08-11 18:25:32.901146,55.0
2023-08-11 18:25:32.908836,-9.0
2023-08-11 18:25:32.916526,-67.0
2023-08-11 18:25:32.924215,-124.0
2023-08-11 18:25:32.931905,-160.0
2023-08-11 18:25:32.939595,-182.0
2023-08-11 18:25:32.947285,-201.0
2023-08-11 18:25:32.954974,-206.0
2023-08-11 18:25:32.962664,-203.0
2023-08-11 18:25:32.970354,-198.0
2023-08-11 18:25:32.978044,-189.0
2023-08-11 18:25:32.985733,-182.0
2023-08-11 18:25:32.993423,-177.0
2023-08-11 18:25:33.001113,-172.0
2023-08-11 18:25:33.008802,-162.0
2023-08-11 18:25:33.016492,-155.0
2023-08-11 18:25:33.024182,-146.0
2023-08-11 18:25:33.031872,-141.0
2023-08-11 18:25:33.039561,-139.0
2023-08-11 18:25:33.047251,-134.0
2023-08-11 18:25:33.054941,-129.0
2023-08-11 18:25:33.062631,-129.0
2023-08-11 18:25:33.070320,-129.0
2023-08-11 18:25:33.078010,-127.0
2023-08-11 18:25:33.085700,-124.0
2023-08-11 18:25:33.093390,-124.0
2023-08-11 18:25:33.101079,-127.0
2023-08-11 18:25:33.108769,-127.0
2023-08-11 18:25:33.116459,-124.0
2023-08-11 18:25:33.124149,-124.0
2023-08-11 18:25:33.131838,-124.0
2023-08-11 18:25:33.139528,-117.0
2023-08-11 18:25:33.147218,-117.0
2023-08-11 18:25:33.154908,-119.0
2023-08-11 18:25:33.162597,-122.0
2023-08-11 18:25:33.170287,-124.0
2023-08-11 18:25:33.177977,-127.0
2023-08-11 18:25:33.185666,-122.0
2023-08-11 18:25:33.193356,-117.0
2023-08-11 18:25:33.201046,-115.0
2023-08-11 18:25:33.208736,-119.0
2023-08-11 18:25:33.216425,-122.0
2023-08-11 18:25:33.224115,-119.0
2023-08-11 18:25:33.231805,-122.0
2023-08-11 18:25:33.239495,-124.0
2023-08-11 18:25:33.247184,-122.0
2023-08-11 18:25:33.254874,-115.0
2023-08-11 18:25:33.262564,-115.0
2023-08-11 18:25:33.270254,-115.0
2023-08-11 18:25:33.277943,-107.0
2023-08-11 18:25:33.285633,-103.0
2023-08-11 18:25:33.293323,-107.0
2023-08-11 18:25:33.301013,-107.0
2023-08-11 18:25:33.308702,-105.0
2023-08-11 18:25:33.316392,-100.0
2023-08-11 18:25:33.324082,-100.0
2023-08-11 18:25:33.331772,-98.0
2023-08-11 18:25:33.339461,-95.0
2023-08-11 18:25:33.347151,-95.0
2023-08-11 18:25:33.354841,-93.0
2023-08-11 18:25:33.362530,-93.0
2023-08-11 18:25:33.370220,-93.0
2023-08-11 18:25:33.377910,-91.0
2023-08-11 18:25:33.385600,-91.0
2023-08-11 18:25:33.393289,-93.0
2023-08-11 18:25:33.400979,-93.0
2023-08-11 18:25:33.408669,-91.0
2023-08-11 18:25:33.416359,-86.0
2023-08-11 18:25:33.424048,-83.0
2023-08-11 18:25:33.431738,-86.0
2023-08-11 18:25:33.439428,-86.0
2023-08-11 18:25:33.447118,-81.0
2023-08-11 18:25:33.454807,-79.0
2023-08-11 18:25:33.462497,-76.0
2023-08-11 18:25:33.470187,-74.0
2023-08-11 18:25:33.477877,-76.0
2023-08-11 18:25:33.485566,-79.0
2023-08-11 18:25:33.493256,-76.0
2023-08-11 18:25:33.500946,-76.0
2023-08-11 18:25:33.508636,-81.0
2023-08-11 18:25:33.516325,-83.0
2023-08-11 18:25:33.524015,-64.0
2023-08-11 18:25:33.531705,-21.0
2023-08-11 18:25:33.539395,0.0
2023-08-11 18:25:33.547084,-9.0
2023-08-11 18:25:33.554774,-9.0
2023-08-11 18:25:33.562464,-23.0
2023-08-11 18:25:33.570153,-71.0
2023-08-11 18:25:33.577843,-100.0
2023-08-11 18:25:33.585533,-88.0
2023-08-11 18:25:33.593223,-83.0
2023-08-11 18:25:33.600912,-88.0
2023-08-11 18:25:33.608602,-88.0
2023-08-11 18:25:33.616292,-93.0
2023-08-11 18:25:33.623982,-98.0
2023-08-11 18:25:33.631671,-93.0
2023-08-11 18:25:33.639361,-112.0
2023-08-11 18:25:33.647051,-103.0
2023-08-11 18:25:33.654741,184.0
2023-08-11 18:25:33.662430,872.0
2023-08-11 18:25:33.670120,1449.0
2023-08-11 18:25:33.677810,1171.0
2023-08-11 18:25:33.685500,50.0
2023-08-11 18:25:33.693189,-800.0
2023-08-11 18:25:33.700879,-630.0
2023-08-11 18:25:33.708569,-194.0
2023-08-11 18:25:33.716259,-170.0
2023-08-11 18:25:33.723948,-234.0
2023-08-11 18:25:33.731638,-174.0
2023-08-11 18:25:33.739328,-148.0
2023-08-11 18:25:33.747017,-162.0
2023-08-11 18:25:33.754707,-136.0
2023-08-11 18:25:33.762397,-112.0
2023-08-11 18:25:33.770087,-112.0
2023-08-11 18:25:33.777776,-100.0
2023-08-11 18:25:33.785466,-83.0
2023-08-11 18:25:33.793156,-74.0
2023-08-11 18:25:33.800846,-64.0
2023-08-11 18:25:33.808535,-55.0
2023-08-11 18:25:33.816225,-40.0
2023-08-11 18:25:33.823915,-31.0
2023-08-11 18:25:33.831605,-19.0
2023-08-11 18:25:33.839294,-7.0
2023-08-11 18:25:33.846984,2.0
2023-08-11 18:25:33.854674,16.0
2023-08-11 18:25:33.862364,28.0
2023-08-11 18:25:33.870053,43.0
2023-08-11 18:25:33.877743,64.0
2023-08-11 18:25:33.885433,81.0
2023-08-11 18:25:33.893123,93.0
2023-08-11 18:25:33.900812,112.0
2023-08-11 18:25:33.908502,134.0
2023-08-11 18:25:33.916192,158.0
2023-08-11 18:25:33.923881,174.0
2023-08-11 18:25:33.931571,189.0
2023-08-11 18:25:33.939261,196.0
2023-08-11 18:25:33.946951,201.0
2023-08-11 18:25:33.954640,201.0
2023-08-11 18:25:33.962330,191.0
2023-08-11 18:25:33.970020,167.0
2023-08-11 18:25:33.977710,122.0
2023-08-11 18:25:33.985399,62.0
2023-08-11 18:25:33.993089,0.0
2023-08-11 18:25:34.000779,-62.0
2023-08-11 18:25:34.008469,-115.0
2023-08-11 18:25:34.016158,-153.0
2023-08-11 18:25:34.023848,-179.0
2023-08-11 18:25:34.031538,-191.0
2023-08-11 18:25:34.039228,-194.0
2023-08-11 18:25:34.046917,-191.0
2023-08-11 18:25:34.054607,-186.0
2023-08-11 18:25:34.062297,-182.0
2023-08-11 18:25:34.069987,-184.0
2023-08-11 18:25:34.077676,-179.0
2023-08-11 18:25:34.085366,-162.0
2023-08-11 18:25:34.093056,-150.0
2023-08-11 18:25:34.100745,-146.0
2023-08-11 18:25:34.108435,-141.0
2023-08-11 18:25:34.116125,-136.0
2023-08-11 18:25:34.123815,-131.0
2023-08-11 18:25:34.131504,-127.0
2023-08-11 18:25:34.139194,-122.0
2023-08-11 18:25:34.146884,-119.0
2023-08-11 18:25:34.154574,-119.0
2023-08-11 18:25:34.162263,-122.0
2023-08-11 18:25:34.169953,-119.0
2023-08-11 18:25:34.177643,-122.0
2023-08-11 18:25:34.185333,-129.0
2023-08-11 18:25:34.193022,-129.0
2023-08-11 18:25:34.200712,-127.0
2023-08-11 18:25:34.208402,-124.0
2023-08-11 18:25:34.216092,-122.0
2023-08-11 18:25:34.223781,-127.0
2023-08-11 18:25:34.231471,-129.0
2023-08-11 18:25:34.239161,-122.0
2023-08-11 18:25:34.246851,-119.0
2023-08-11 18:25:34.254540,-122.0
2023-08-11 18:25:34.262230,-117.0
2023-08-11 18:25:34.269920,-115.0
2023-08-11 18:25:34.277609,-117.0
2023-08-11 18:25:34.285299,-119.0
2023-08-11 18:25:34.292989,-119.0
2023-08-11 18:25:34.300679,-122.0
2023-08-11 18:25:34.308368,-119.0
2023-08-11 18:25:34.316058,-115.0
2023-08-11 18:25:34.323748,-112.0
2023-08-11 18:25:34.331438,-112.0
2023-08-11 18:25:34.339127,-110.0
2023-08-11 18:25:34.346817,-110.0
2023-08-11 18:25:34.354507,-107.0
2023-08-11 18:25:34.362197,-107.0
2023-08-11 18:25:34.369886,-105.0
2023-08-11 18:25:34.377576,-105.0
2023-08-11 18:25:34.385266,-103.0
2023-08-11 18:25:34.392956,-103.0
2023-08-11 18:25:34.400645,-103.0
2023-08-11 18:25:34.408335,-103.0
2023-08-11 18:25:34.416025,-98.0
2023-08-11 18:25:34.423715,-95.0
2023-08-11 18:25:34.431404,-95.0
2023-08-11 18:25:34.439094,-95.0
2023-08-11 18:25:34.446784,-98.0
2023-08-11 18:25:34.454473,-93.0
2023-08-11 18:25:34.462163,-91.0
2023-08-11 18:25:34.469853,-93.0
2023-08-11 18:25:34.477543,-95.0
2023-08-11 18:25:34.485232,-93.0
2023-08-11 18:25:34.492922,-93.0
2023-08-11 18:25:34.500612,-91.0
2023-08-11 18:25:34.508302,-88.0
2023-08-11 18:25:34.515991,-91.0
2023-08-11 18:25:34.523681,-98.0
2023-08-11 18:25:34.531371,-98.0
2023-08-11 18:25:34.539061,-79.0
2023-08-11 18:25:34.546750,-38.0
2023-08-11 18:25:34.554440,-14.0
2023-08-11 18:25:34.562130,-26.0
2023-08-11 18:25:34.569820,-28.0
2023-08-11 18:25:34.577509,-33.0
2023-08-11 18:25:34.585199,-74.0
2023-08-11 18:25:34.592889,-100.0
2023-08-11 18:25:34.600579,-100.0
2023-08-11 18:25:34.608268,-105.0
2023-08-11 18:25:34.615958,-112.0
2023-08-11 18:25:34.623648,-103.0
2023-08-11 18:25:34.631337,-98.0
2023-08-11 18:25:34.639027,-98.0
2023-08-11 18:25:34.646717,-98.0
2023-08-11 18:25:34.654407,-119.0
2023-08-11 18:25:34.662096,-115.0
2023-08-11 18:25:34.669786,131.0
2023-08-11 18:25:34.677476,764.0
2023-08-11 18:25:34.685166,1349.0
2023-08-11 18:25:34.692855,1167.0
2023-08-11 18:25:34.700545,139.0
2023-08-11 18:25:34.708235,-752.0
2023-08-11 18:25:34.715925,-668.0
2023-08-11 18:25:34.723614,-220.0
2023-08-11 18:25:34.731304,-162.0
2023-08-11 18:25:34.738994,-237.0
2023-08-11 18:25:34.746684,-184.0
2023-08-11 18:25:34.754373,-148.0
2023-08-11 18:25:34.762063,-162.0
2023-08-11 18:25:34.769753,-143.0
2023-08-11 18:25:34.777443,-115.0
2023-08-11 18:25:34.785132,-112.0
2023-08-11 18:25:34.792822,-107.0
2023-08-11 18:25:34.800512,-91.0
2023-08-11 18:25:34.808201,-81.0
2023-08-11 18:25:34.815891,-71.0
2023-08-11 18:25:34.823581,-62.0
2023-08-11 18:25:34.831271,-52.0
2023-08-11 18:25:34.838960,-38.0
2023-08-11 18:25:34.846650,-23.0
2023-08-11 18:25:34.854340,-14.0
2023-08-11 18:25:34.862030,-2.0
2023-08-11 18:25:34.869719,9.0
2023-08-11 18:25:34.877409,21.0
2023-08-11 18:25:34.885099,35.0
2023-08-11 18:25:34.892789,55.0
2023-08-11 18:25:34.900478,71.0
2023-08-11 18:25:34.908168,86.0
2023-08-11 18:25:34.915858,107.0
2023-08-11 18:25:34.923548,124.0
2023-08-11 18:25:34.931237,143.0
2023-08-11 18:25:34.938927,162.0
2023-08-11 18:25:34.946617,174.0
2023-08-11 18:25:34.954307,186.0
2023-08-11 18:25:34.961996,191.0
2023-08-11 18:25:34.969686,186.0
2023-08-11 18:25:34.977376,170.0
2023-08-11 18:25:34.985065,146.0
2023-08-11 18:25:34.992755,98.0
2023-08-11 18:25:35.000445,35.0
2023-08-11 18:25:35.008135,-28.0
2023-08-11 18:25:35.015824,-88.0
2023-08-11 18:25:35.023514,-134.0
2023-08-11 18:25:35.031204,-167.0
2023-08-11 18:25:35.038894,-194.0
2023-08-11 18:25:35.046583,-208.0
2023-08-11 18:25:35.054273,-210.0
2023-08-11 18:25:35.061963,-206.0
2023-08-11 18:25:35.069653,-201.0
2023-08-11 18:25:35.077342,-194.0
2023-08-11 18:25:35.085032,-186.0
2023-08-11 18:25:35.092722,-174.0
2023-08-11 18:25:35.100412,-167.0
2023-08-11 18:25:35.108101,-160.0
2023-08-11 18:25:35.115791,-150.0
2023-08-11 18:25:35.123481,-141.0
2023-08-11 18:25:35.131171,-139.0
2023-08-11 18:25:35.138860,-134.0
2023-08-11 18:25:35.146550,-139.0
2023-08-11 18:25:35.154240,-143.0
2023-08-11 18:25:35.161930,-134.0
2023-08-11 18:25:35.169619,-129.0
2023-08-11 18:25:35.177309,-131.0
2023-08-11 18:25:35.184999,-134.0
2023-08-11 18:25:35.192688,-131.0
2023-08-11 18:25:35.200378,-131.0
2023-08-11 18:25:35.208068,-129.0
2023-08-11 18:25:35.215758,-129.0
2023-08-11 18:25:35.223447,-131.0
2023-08-11 18:25:35.231137,-131.0
2023-08-11 18:25:35.238827,-127.0
2023-08-11 18:25:35.246517,-124.0
2023-08-11 18:25:35.254206,-124.0
2023-08-11 18:25:35.261896,-127.0
2023-08-11 18:25:35.269586,-124.0
2023-08-11 18:25:35.277276,-122.0
2023-08-11 18:25:35.284965,-122.0
2023-08-11 18:25:35.292655,-117.0
2023-08-11 18:25:35.300345,-117.0
2023-08-11 18:25:35.308035,-122.0
2023-08-11 18:25:35.315724,-122.0
2023-08-11 18:25:35.323414,-122.0
2023-08-11 18:25:35.331104,-124.0
2023-08-11 18:25:35.338794,-119.0
2023-08-11 18:25:35.346483,-112.0
2023-08-11 18:25:35.354173,-112.0
2023-08-11 18:25:35.361863,-115.0
2023-08-11 18:25:35.369552,-115.0
2023-08-11 18:25:35.377242,-112.0
2023-08-11 18:25:35.384932,-110.0
2023-08-11 18:25:35.392622,-107.0
2023-08-11 18:25:35.400311,-107.0
2023-08-11 18:25:35.408001,-105.0
2023-08-11 18:25:35.415691,-105.0
2023-08-11 18:25:35.423381,-110.0
2023-08-11 18:25:35.431070,-112.0
2023-08-11 18:25:35.438760,-107.0
2023-08-11 18:25:35.446450,-103.0
2023-08-11 18:25:35.454140,-107.0
2023-08-11 18:25:35.461829,-112.0
2023-08-11 18:25:35.469519,-107.0
2023-08-11 18:25:35.477209,-100.0
2023-08-11 18:25:35.484899,-103.0
2023-08-11 18:25:35.492588,-103.0
2023-08-11 18:25:35.500278,-100.0
2023-08-11 18:25:35.507968,-100.0
2023-08-11 18:25:35.515658,-100.0
2023-08-11 18:25:35.523347,-95.0
2023-08-11 18:25:35.531037,-93.0
2023-08-11 18:25:35.538727,-93.0
2023-08-11 18:25:35.546416,-93.0
2023-08-11 18:25:35.554106,-95.0
2023-08-11 18:25:35.561796,-93.0
2023-08-11 18:25:35.569486,-91.0
2023-08-11 18:25:35.577175,-88.0
2023-08-11 18:25:35.584865,-93.0
2023-08-11 18:25:35.592555,-98.0
2023-08-11 18:25:35.600245,-79.0
2023-08-11 18:25:35.607934,-33.0
2023-08-11 18:25:35.615624,-9.0
2023-08-11 18:25:35.623314,-21.0
2023-08-11 18:25:35.631004,-23.0
2023-08-11 18:25:35.638693,-33.0
2023-08-11 18:25:35.646383,-71.0
2023-08-11 18:25:35.654073,-98.0
2023-08-11 18:25:35.661763,-93.0
2023-08-11 18:25:35.669452,-88.0
2023-08-11 18:25:35.677142,-93.0
2023-08-11 18:25:35.684832,-95.0
2023-08-11 18:25:35.692522,-95.0
2023-08-11 18:25:35.700211,-95.0
2023-08-11 18:25:35.707901,-98.0
2023-08-11 18:25:35.715591,-112.0
2023-08-11 18:25:35.723280,-122.0
2023-08-11 18:25:35.730970,79.0
2023-08-11 18:25:35.738660,685.0
2023-08-11 18:25:35.746350,1337.0
2023-08-11 18:25:35.754039,1298.0
2023-08-11 18:25:35.761729,325.0
2023-08-11 18:25:35.769419,-687.0
2023-08-11 18:25:35.777109,-711.0
2023-08-11 18:25:35.784798,-232.0
2023-08-11 18:25:35.792488,-146.0
2023-08-11 18:25:35.800178,-246.0
2023-08-11 18:25:35.807868,-194.0
2023-08-11 18:25:35.815557,-146.0
2023-08-11 18:25:35.823247,-170.0
2023-08-11 18:25:35.830937,-148.0
2023-08-11 18:25:35.838627,-117.0
2023-08-11 18:25:35.846316,-117.0
2023-08-11 18:25:35.854006,-110.0
2023-08-11 18:25:35.861696,-91.0
2023-08-11 18:25:35.869386,-83.0
2023-08-11 18:25:35.877075,-76.0
2023-08-11 18:25:35.884765,-62.0
2023-08-11 18:25:35.892455,-47.0
2023-08-11 18:25:35.900144,-35.0
2023-08-11 18:25:35.907834,-23.0
2023-08-11 18:25:35.915524,-16.0
2023-08-11 18:25:35.923214,-11.0
2023-08-11 18:25:35.930903,0.0
2023-08-11 18:25:35.938593,16.0
2023-08-11 18:25:35.946283,28.0
2023-08-11 18:25:35.953973,38.0
2023-08-11 18:25:35.961662,55.0
2023-08-11 18:25:35.969352,74.0
2023-08-11 18:25:35.977042,95.0
2023-08-11 18:25:35.984732,117.0
2023-08-11 18:25:35.992421,139.0
2023-08-11 18:25:36.000111,158.0
2023-08-11 18:25:36.007801,172.0
2023-08-11 18:25:36.015491,186.0
2023-08-11 18:25:36.023180,191.0
2023-08-11 18:25:36.030870,191.0
2023-08-11 18:25:36.038560,184.0
2023-08-11 18:25:36.046250,162.0
2023-08-11 18:25:36.053939,122.0
2023-08-11 18:25:36.061629,64.0
2023-08-11 18:25:36.069319,0.0
2023-08-11 18:25:36.077008,-59.0
2023-08-11 18:25:36.084698,-115.0
2023-08-11 18:25:36.092388,-155.0
2023-08-11 18:25:36.100078,-182.0
2023-08-11 18:25:36.107767,-194.0
2023-08-11 18:25:36.115457,-198.0
2023-08-11 18:25:36.123147,-198.0
2023-08-11 18:25:36.130837,-196.0
2023-08-11 18:25:36.138526,-191.0
2023-08-11 18:25:36.146216,-184.0
2023-08-11 18:25:36.153906,-174.0
2023-08-11 18:25:36.161596,-165.0
2023-08-11 18:25:36.169285,-160.0
2023-08-11 18:25:36.176975,-153.0
2023-08-11 18:25:36.184665,-148.0
2023-08-11 18:25:36.192355,-146.0
2023-08-11 18:25:36.200044,-143.0
2023-08-11 18:25:36.207734,-136.0
2023-08-11 18:25:36.215424,-131.0
2023-08-11 18:25:36.223114,-131.0
2023-08-11 18:25:36.230803,-129.0
2023-08-11 18:25:36.238493,-129.0
2023-08-11 18:25:36.246183,-129.0
2023-08-11 18:25:36.253872,-127.0
2023-08-11 18:25:36.261562,-127.0
2023-08-11 18:25:36.269252,-136.0
2023-08-11 18:25:36.276942,-141.0
2023-08-11 18:25:36.284631,-136.0
2023-08-11 18:25:36.292321,-131.0
2023-08-11 18:25:36.300011,-129.0
2023-08-11 18:25:36.307701,-127.0
2023-08-11 18:25:36.315390,-127.0
2023-08-11 18:25:36.323080,-127.0
2023-08-11 18:25:36.330770,-127.0
2023-08-11 18:25:36.338460,-129.0
2023-08-11 18:25:36.346149,-124.0
2023-08-11 18:25:36.353839,-115.0
2023-08-11 18:25:36.361529,-117.0
2023-08-11 18:25:36.369219,-117.0
2023-08-11 18:25:36.376908,-115.0
2023-08-11 18:25:36.384598,-119.0
2023-08-11 18:25:36.392288,-119.0
2023-08-11 18:25:36.399978,-117.0
2023-08-11 18:25:36.407667,-122.0
2023-08-11 18:25:36.415357,-117.0
2023-08-11 18:25:36.423047,-115.0
2023-08-11 18:25:36.430736,-119.0
2023-08-11 18:25:36.438426,-127.0
2023-08-11 18:25:36.446116,-124.0
2023-08-11 18:25:36.453806,-119.0
2023-08-11 18:25:36.461495,-119.0
2023-08-11 18:25:36.469185,-119.0
2023-08-11 18:25:36.476875,-115.0
2023-08-11 18:25:36.484565,-110.0
2023-08-11 18:25:36.492254,-110.0
2023-08-11 18:25:36.499944,-110.0
2023-08-11 18:25:36.507634,-107.0
2023-08-11 18:25:36.515324,-107.0
2023-08-11 18:25:36.523013,-107.0
2023-08-11 18:25:36.530703,-103.0
2023-08-11 18:25:36.538393,-98.0
2023-08-11 18:25:36.546083,-100.0
2023-08-11 18:25:36.553772,-100.0
2023-08-11 18:25:36.561462,-100.0
2023-08-11 18:25:36.569152,-100.0
2023-08-11 18:25:36.576842,-98.0
2023-08-11 18:25:36.584531,-93.0
2023-08-11 18:25:36.592221,-93.0
2023-08-11 18:25:36.599911,-93.0
2023-08-11 18:25:36.607600,-91.0
2023-08-11 18:25:36.615290,-91.0
2023-08-11 18:25:36.622980,-91.0
2023-08-11 18:25:36.630670,-88.0
2023-08-11 18:25:36.638359,-86.0
2023-08-11 18:25:36.646049,-83.0
2023-08-11 18:25:36.653739,-83.0
2023-08-11 18:25:36.661429,-83.0
2023-08-11 18:25:36.669118,-81.0
2023-08-11 18:25:36.676808,-83.0
2023-08-11 18:25:36.684498,-91.0
2023-08-11 18:25:36.692188,-95.0
2023-08-11 18:25:36.699877,-91.0
2023-08-11 18:25:36.707567,-64.0
2023-08-11 18:25:36.715257,-21.0
2023-08-11 18:25:36.722947,-7.0
2023-08-11 18:25:36.730636,-19.0
2023-08-11 18:25:36.738326,-19.0
2023-08-11 18:25:36.746016,-31.0
2023-08-11 18:25:36.753706,-74.0
2023-08-11 18:25:36.761395,-93.0
2023-08-11 18:25:36.769085,-88.0
2023-08-11 18:25:36.776775,-86.0
2023-08-11 18:25:36.784465,-88.0
2023-08-11 18:25:36.792154,-81.0
2023-08-11 18:25:36.799844,-81.0
2023-08-11 18:25:36.807534,-83.0
2023-08-11 18:25:36.815223,-86.0
2023-08-11 18:25:36.822913,-107.0
2023-08-11 18:25:36.830603,-103.0
2023-08-11 18:25:36.838293,172.0
2023-08-11 18:25:36.845982,853.0
2023-08-11 18:25:36.853672,1457.0
2023-08-11 18:25:36.861362,1236.0
2023-08-11 18:25:36.869052,129.0
2023-08-11 18:25:36.876741,-776.0
2023-08-11 18:25:36.884431,-632.0
2023-08-11 18:25:36.892121,-172.0
2023-08-11 18:25:36.899811,-158.0
2023-08-11 18:25:36.907500,-244.0
2023-08-11 18:25:36.915190,-170.0
2023-08-11 18:25:36.922880,-141.0
2023-08-11 18:25:36.930570,-162.0
2023-08-11 18:25:36.938259,-143.0
2023-08-11 18:25:36.945949,-122.0
2023-08-11 18:25:36.953639,-117.0
2023-08-11 18:25:36.961329,-105.0
2023-08-11 18:25:36.969018,-88.0
2023-08-11 18:25:36.976708,-79.0
2023-08-11 18:25:36.984398,-69.0
2023-08-11 18:25:36.992087,-55.0
2023-08-11 18:25:36.999777,-47.0
2023-08-11 18:25:37.007467,-35.0
2023-08-11 18:25:37.015157,-19.0
2023-08-11 18:25:37.022846,-7.0
2023-08-11 18:25:37.030536,2.0
2023-08-11 18:25:37.038226,14.0
2023-08-11 18:25:37.045916,31.0
2023-08-11 18:25:37.053605,45.0
2023-08-11 18:25:37.061295,59.0
2023-08-11 18:25:37.068985,79.0
2023-08-11 18:25:37.076675,93.0
2023-08-11 18:25:37.084364,110.0
2023-08-11 18:25:37.092054,131.0
2023-08-11 18:25:37.099744,150.0
2023-08-11 18:25:37.107434,172.0
2023-08-11 18:25:37.115123,191.0
2023-08-11 18:25:37.122813,198.0
2023-08-11 18:25:37.130503,201.0
2023-08-11 18:25:37.138193,206.0
2023-08-11 18:25:37.145882,196.0
2023-08-11 18:25:37.153572,174.0
2023-08-11 18:25:37.161262,134.0
2023-08-11 18:25:37.168951,74.0
2023-08-11 18:25:37.176641,2.0
2023-08-11 18:25:37.184331,-59.0
2023-08-11 18:25:37.192021,-107.0
2023-08-11 18:25:37.199710,-146.0
2023-08-11 18:25:37.207400,-174.0
2023-08-11 18:25:37.215090,-189.0
2023-08-11 18:25:37.222780,-196.0
2023-08-11 18:25:37.230469,-196.0
2023-08-11 18:25:37.238159,-189.0
2023-08-11 18:25:37.245849,-179.0
2023-08-11 18:25:37.253539,-174.0
2023-08-11 18:25:37.261228,-170.0
2023-08-11 18:25:37.268918,-160.0
2023-08-11 18:25:37.276608,-148.0
2023-08-11 18:25:37.284298,-141.0
2023-08-11 18:25:37.291987,-139.0
2023-08-11 18:25:37.299677,-134.0
2023-08-11 18:25:37.307367,-131.0
2023-08-11 18:25:37.315057,-127.0
2023-08-11 18:25:37.322746,-124.0
2023-08-11 18:25:37.330436,-117.0
2023-08-11 18:25:37.338126,-115.0
2023-08-11 18:25:37.345815,-119.0
2023-08-11 18:25:37.353505,-122.0
2023-08-11 18:25:37.361195,-117.0
2023-08-11 18:25:37.368885,-110.0
2023-08-11 18:25:37.376574,-112.0
2023-08-11 18:25:37.384264,-117.0
2023-08-11 18:25:37.391954,-119.0
2023-08-11 18:25:37.399644,-127.0
2023-08-11 18:25:37.407333,-124.0
2023-08-11 18:25:37.415023,-119.0
2023-08-11 18:25:37.422713,-127.0
2023-08-11 18:25:37.430403,-124.0
2023-08-11 18:25:37.438092,-117.0
2023-08-11 18:25:37.445782,-119.0
2023-08-11 18:25:37.453472,-124.0
2023-08-11 18:25:37.461162,-122.0
2023-08-11 18:25:37.468851,-124.0
2023-08-11 18:25:37.476541,-124.0
2023-08-11 18:25:37.484231,-122.0
2023-08-11 18:25:37.491921,-124.0
2023-08-11 18:25:37.499610,-122.0
2023-08-11 18:25:37.507300,-115.0
2023-08-11 18:25:37.514990,-110.0
2023-08-11 18:25:37.522679,-110.0
2023-08-11 18:25:37.530369,-110.0
2023-08-11 18:25:37.538059,-107.0
2023-08-11 18:25:37.545749,-105.0
2023-08-11 18:25:37.553438,-103.0
2023-08-11 18:25:37.561128,-103.0
2023-08-11 18:25:37.568818,-100.0
2023-08-11 18:25:37.576508,-98.0
2023-08-11 18:25:37.584197,-100.0
2023-08-11 18:25:37.591887,-98.0
2023-08-11 18:25:37.599577,-93.0
2023-08-11 18:25:37.607267,-95.0
2023-08-11 18:25:37.614956,-95.0
2023-08-11 18:25:37.622646,-93.0
2023-08-11 18:25:37.630336,-91.0
2023-08-11 18:25:37.638026,-88.0
2023-08-11 18:25:37.645715,-88.0
2023-08-11 18:25:37.653405,-88.0
2023-08-11 18:25:37.661095,-83.0
2023-08-11 18:25:37.668785,-83.0
2023-08-11 18:25:37.676474,-88.0
2023-08-11 18:25:37.684164,-83.0
2023-08-11 18:25:37.691854,-81.0
2023-08-11 18:25:37.699543,-81.0
2023-08-11 18:25:37.707233,-81.0
2023-08-11 18:25:37.714923,-81.0
2023-08-11 18:25:37.722613,-83.0
2023-08-11 18:25:37.730302,-81.0
2023-08-11 18:25:37.737992,-76.0
2023-08-11 18:25:37.745682,-74.0
2023-08-11 18:25:37.753372,-76.0
2023-08-11 18:25:37.761061,-81.0
2023-08-11 18:25:37.768751,-86.0
2023-08-11 18:25:37.776441,-83.0
2023-08-11 18:25:37.784131,-57.0
2023-08-11 18:25:37.791820,-19.0
2023-08-11 18:25:37.799510,-4.0
2023-08-11 18:25:37.807200,-14.0
2023-08-11 18:25:37.814890,-11.0
2023-08-11 18:25:37.822579,-28.0
2023-08-11 18:25:37.830269,-69.0
2023-08-11 18:25:37.837959,-86.0
2023-08-11 18:25:37.845649,-74.0
2023-08-11 18:25:37.853338,-74.0
2023-08-11 18:25:37.861028,-83.0
2023-08-11 18:25:37.868718,-81.0
2023-08-11 18:25:37.876407,-76.0
2023-08-11 18:25:37.884097,-74.0
2023-08-11 18:25:37.891787,-79.0
2023-08-11 18:25:37.899477,-105.0
2023-08-11 18:25:37.907166,-83.0
2023-08-11 18:25:37.914856,244.0
2023-08-11 18:25:37.922546,934.0
2023-08-11 18:25:37.930236,1440.0
2023-08-11 18:25:37.937925,1066.0
2023-08-11 18:25:37.945615,-62.0
2023-08-11 18:25:37.953305,-802.0
2023-08-11 18:25:37.960995,-553.0
2023-08-11 18:25:37.968684,-150.0
2023-08-11 18:25:37.976374,-174.0
2023-08-11 18:25:37.984064,-239.0
2023-08-11 18:25:37.991754,-172.0
2023-08-11 18:25:37.999443,-148.0
2023-08-11 18:25:38.007133,-160.0
2023-08-11 18:25:38.014823,-134.0
2023-08-11 18:25:38.022513,-110.0
2023-08-11 18:25:38.030202,-110.0
2023-08-11 18:25:38.037892,-98.0
2023-08-11 18:25:38.045582,-83.0
2023-08-11 18:25:38.053271,-74.0
2023-08-11 18:25:38.060961,-62.0
2023-08-11 18:25:38.068651,-50.0
2023-08-11 18:25:38.076341,-45.0
2023-08-11 18:25:38.084030,-43.0
2023-08-11 18:25:38.091720,-35.0
2023-08-11 18:25:38.099410,-26.0
2023-08-11 18:25:38.107100,-19.0
2023-08-11 18:25:38.114789,-9.0
2023-08-11 18:25:38.122479,7.0
2023-08-11 18:25:38.130169,26.0
2023-08-11 18:25:38.137859,40.0
2023-08-11 18:25:38.145548,57.0
2023-08-11 18:25:38.153238,76.0
2023-08-11 18:25:38.160928,93.0
2023-08-11 18:25:38.168618,110.0
2023-08-11 18:25:38.176307,131.0
2023-08-11 18:25:38.183997,155.0
2023-08-11 18:25:38.191687,170.0
2023-08-11 18:25:38.199377,177.0
2023-08-11 18:25:38.207066,182.0
2023-08-11 18:25:38.214756,179.0
2023-08-11 18:25:38.222446,167.0
2023-08-11 18:25:38.230135,141.0
2023-08-11 18:25:38.237825,103.0
2023-08-11 18:25:38.245515,43.0
2023-08-11 18:25:38.253205,-23.0
2023-08-11 18:25:38.260894,-81.0
2023-08-11 18:25:38.268584,-124.0
2023-08-11 18:25:38.276274,-165.0
2023-08-11 18:25:38.283964,-189.0
2023-08-11 18:25:38.291653,-196.0
2023-08-11 18:25:38.299343,-203.0
2023-08-11 18:25:38.307033,-201.0
2023-08-11 18:25:38.314723,-191.0
2023-08-11 18:25:38.322412,-186.0
2023-08-11 18:25:38.330102,-177.0
2023-08-11 18:25:38.337792,-167.0
2023-08-11 18:25:38.345482,-162.0
2023-08-11 18:25:38.353171,-153.0
2023-08-11 18:25:38.360861,-143.0
2023-08-11 18:25:38.368551,-139.0
2023-08-11 18:25:38.376241,-134.0
2023-08-11 18:25:38.383930,-131.0
2023-08-11 18:25:38.391620,-127.0
2023-08-11 18:25:38.399310,-122.0
2023-08-11 18:25:38.407000,-124.0
2023-08-11 18:25:38.414689,-129.0
2023-08-11 18:25:38.422379,-129.0
2023-08-11 18:25:38.430069,-129.0
2023-08-11 18:25:38.437758,-134.0
2023-08-11 18:25:38.445448,-131.0
2023-08-11 18:25:38.453138,-131.0
2023-08-11 18:25:38.460828,-139.0
2023-08-11 18:25:38.468517,-136.0
2023-08-11 18:25:38.476207,-131.0
2023-08-11 18:25:38.483897,-134.0
2023-08-11 18:25:38.491587,-134.0
2023-08-11 18:25:38.499276,-131.0
2023-08-11 18:25:38.506966,-134.0
2023-08-11 18:25:38.514656,-136.0
2023-08-11 18:25:38.522346,-139.0
2023-08-11 18:25:38.530035,-139.0
2023-08-11 18:25:38.537725,-129.0
2023-08-11 18:25:38.545415,-127.0
2023-08-11 18:25:38.553105,-127.0
2023-08-11 18:25:38.560794,-127.0
2023-08-11 18:25:38.568484,-122.0
2023-08-11 18:25:38.576174,-119.0
2023-08-11 18:25:38.583864,-119.0
2023-08-11 18:25:38.591553,-117.0
2023-08-11 18:25:38.599243,-117.0
2023-08-11 18:25:38.606933,-115.0
2023-08-11 18:25:38.614622,-112.0
2023-08-11 18:25:38.622312,-110.0
2023-08-11 18:25:38.630002,-105.0
2023-08-11 18:25:38.637692,-105.0
2023-08-11 18:25:38.645381,-107.0
2023-08-11 18:25:38.653071,-105.0
2023-08-11 18:25:38.660761,-105.0
2023-08-11 18:25:38.668451,-103.0
2023-08-11 18:25:38.676140,-103.0
2023-08-11 18:25:38.683830,-103.0
2023-08-11 18:25:38.691520,-100.0
2023-08-11 18:25:38.699210,-98.0
2023-08-11 18:25:38.706899,-98.0
2023-08-11 18:25:38.714589,-93.0
2023-08-11 18:25:38.722279,-91.0
2023-08-11 18:25:38.729969,-93.0
2023-08-11 18:25:38.737658,-91.0
2023-08-11 18:25:38.745348,-91.0
2023-08-11 18:25:38.753038,-88.0
2023-08-11 18:25:38.760728,-86.0
2023-08-11 18:25:38.768417,-86.0
2023-08-11 18:25:38.776107,-86.0
2023-08-11 18:25:38.783797,-83.0
2023-08-11 18:25:38.791486,-83.0
2023-08-11 18:25:38.799176,-86.0
2023-08-11 18:25:38.806866,-83.0
2023-08-11 18:25:38.814556,-79.0
2023-08-11 18:25:38.822245,-79.0
2023-08-11 18:25:38.829935,-81.0
2023-08-11 18:25:38.837625,-86.0
2023-08-11 18:25:38.845315,-91.0
2023-08-11 18:25:38.853004,-79.0
2023-08-11 18:25:38.860694,-40.0
2023-08-11 18:25:38.868384,-7.0
2023-08-11 18:25:38.876074,-11.0
2023-08-11 18:25:38.883763,-19.0
2023-08-11 18:25:38.891453,-19.0
2023-08-11 18:25:38.899143,-52.0
2023-08-11 18:25:38.906833,-88.0
2023-08-11 18:25:38.914522,-91.0
2023-08-11 18:25:38.922212,-86.0
2023-08-11 18:25:38.929902,-91.0
2023-08-11 18:25:38.937592,-88.0
2023-08-11 18:25:38.945281,-86.0
2023-08-11 18:25:38.952971,-88.0
2023-08-11 18:25:38.960661,-93.0
2023-08-11 18:25:38.968350,-110.0
2023-08-11 18:25:38.976040,-134.0
2023-08-11 18:25:38.983730,-31.0
2023-08-11 18:25:38.991420,452.0
2023-08-11 18:25:38.999109,1164.0
2023-08-11 18:25:39.006799,1435.0
2023-08-11 18:25:39.014489,738.0
2023-08-11 18:25:39.022179,-419.0
2023-08-11 18:25:39.029868,-805.0
2023-08-11 18:25:39.037558,-354.0
2023-08-11 18:25:39.045248,-110.0
2023-08-11 18:25:39.052938,-225.0
2023-08-11 18:25:39.060627,-227.0
2023-08-11 18:25:39.068317,-158.0
2023-08-11 18:25:39.076007,-165.0
2023-08-11 18:25:39.083697,-160.0
2023-08-11 18:25:39.091386,-127.0
2023-08-11 18:25:39.099076,-115.0
2023-08-11 18:25:39.106766,-115.0
2023-08-11 18:25:39.114456,-98.0
2023-08-11 18:25:39.122145,-81.0
2023-08-11 18:25:39.129835,-74.0
2023-08-11 18:25:39.137525,-64.0
2023-08-11 18:25:39.145214,-52.0
2023-08-11 18:25:39.152904,-45.0
2023-08-11 18:25:39.160594,-35.0
2023-08-11 18:25:39.168284,-19.0
2023-08-11 18:25:39.175973,-4.0
2023-08-11 18:25:39.183663,7.0
2023-08-11 18:25:39.191353,16.0
2023-08-11 18:25:39.199043,31.0
2023-08-11 18:25:39.206732,45.0
2023-08-11 18:25:39.214422,62.0
2023-08-11 18:25:39.222112,81.0
2023-08-11 18:25:39.229802,103.0
2023-08-11 18:25:39.237491,119.0
2023-08-11 18:25:39.245181,136.0
2023-08-11 18:25:39.252871,158.0
2023-08-11 18:25:39.260561,177.0
2023-08-11 18:25:39.268250,191.0
2023-08-11 18:25:39.275940,201.0
2023-08-11 18:25:39.283630,198.0
2023-08-11 18:25:39.291320,191.0
2023-08-11 18:25:39.299009,177.0
2023-08-11 18:25:39.306699,146.0
2023-08-11 18:25:39.314389,93.0
2023-08-11 18:25:39.322078,26.0
2023-08-11 18:25:39.329768,-38.0
2023-08-11 18:25:39.337458,-95.0
2023-08-11 18:25:39.345148,-141.0
2023-08-11 18:25:39.352837,-172.0
2023-08-11 18:25:39.360527,-191.0
2023-08-11 18:25:39.368217,-198.0
2023-08-11 18:25:39.375907,-201.0
2023-08-11 18:25:39.383596,-201.0
2023-08-11 18:25:39.391286,-194.0
2023-08-11 18:25:39.398976,-186.0
2023-08-11 18:25:39.406666,-182.0
2023-08-11 18:25:39.414355,-170.0
2023-08-11 18:25:39.422045,-162.0
2023-08-11 18:25:39.429735,-158.0
2023-08-11 18:25:39.437425,-148.0
2023-08-11 18:25:39.445114,-141.0
2023-08-11 18:25:39.452804,-136.0
2023-08-11 18:25:39.460494,-131.0
2023-08-11 18:25:39.468184,-134.0
2023-08-11 18:25:39.475873,-139.0
2023-08-11 18:25:39.483563,-134.0
2023-08-11 18:25:39.491253,-129.0
2023-08-11 18:25:39.498942,-134.0
2023-08-11 18:25:39.506632,-134.0
2023-08-11 18:25:39.514322,-131.0
2023-08-11 18:25:39.522012,-134.0
2023-08-11 18:25:39.529701,-131.0
2023-08-11 18:25:39.537391,-127.0
2023-08-11 18:25:39.545081,-134.0
2023-08-11 18:25:39.552771,-136.0
2023-08-11 18:25:39.560460,-136.0
2023-08-11 18:25:39.568150,-136.0
2023-08-11 18:25:39.575840,-136.0
2023-08-11 18:25:39.583530,-129.0
2023-08-11 18:25:39.591219,-124.0
2023-08-11 18:25:39.598909,-127.0
2023-08-11 18:25:39.606599,-129.0
2023-08-11 18:25:39.614289,-124.0
2023-08-11 18:25:39.621978,-119.0
2023-08-11 18:25:39.629668,-117.0
2023-08-11 18:25:39.637358,-119.0
2023-08-11 18:25:39.645048,-129.0
2023-08-11 18:25:39.652737,-134.0
2023-08-11 18:25:39.660427,-127.0
2023-08-11 18:25:39.668117,-119.0
2023-08-11 18:25:39.675806,-119.0
2023-08-11 18:25:39.683496,-119.0
2023-08-11 18:25:39.691186,-115.0
2023-08-11 18:25:39.698876,-117.0
2023-08-11 18:25:39.706565,-115.0
2023-08-11 18:25:39.714255,-107.0
2023-08-11 18:25:39.721945,-107.0
2023-08-11 18:25:39.729635,-107.0
2023-08-11 18:25:39.737324,-105.0
2023-08-11 18:25:39.745014,-105.0
2023-08-11 18:25:39.752704,-107.0
2023-08-11 18:25:39.760394,-100.0
2023-08-11 18:25:39.768083,-95.0
2023-08-11 18:25:39.775773,-98.0
2023-08-11 18:25:39.783463,-100.0
2023-08-11 18:25:39.791153,-100.0
2023-08-11 18:25:39.798842,-95.0
2023-08-11 18:25:39.806532,-93.0
2023-08-11 18:25:39.814222,-91.0
2023-08-11 18:25:39.821912,-91.0
2023-08-11 18:25:39.829601,-91.0
2023-08-11 18:25:39.837291,-91.0
2023-08-11 18:25:39.844981,-91.0
2023-08-11 18:25:39.852670,-88.0
2023-08-11 18:25:39.860360,-86.0
2023-08-11 18:25:39.868050,-88.0
2023-08-11 18:25:39.875740,-86.0
2023-08-11 18:25:39.883429,-86.0
2023-08-11 18:25:39.891119,-91.0
2023-08-11 18:25:39.898809,-93.0
2023-08-11 18:25:39.906499,-88.0
2023-08-11 18:25:39.914188,-86.0
2023-08-11 18:25:39.921878,-88.0
2023-08-11 18:25:39.929568,-86.0
2023-08-11 18:25:39.937258,-86.0
2023-08-11 18:25:39.944947,-91.0
2023-08-11 18:25:39.952637,-86.0
2023-08-11 18:25:39.960327,-55.0
2023-08-11 18:25:39.968017,-21.0
2023-08-11 18:25:39.975706,-21.0
2023-08-11 18:25:39.983396,-31.0
2023-08-11 18:25:39.991086,-26.0
2023-08-11 18:25:39.998776,-52.0
2023-08-11 18:25:40.006465,-91.0
2023-08-11 18:25:40.014155,-98.0
2023-08-11 18:25:40.021845,-91.0
2023-08-11 18:25:40.029534,-98.0
2023-08-11 18:25:40.037224,-95.0
2023-08-11 18:25:40.044914,-88.0
2023-08-11 18:25:40.052604,-88.0
2023-08-11 18:25:40.060293,-91.0
2023-08-11 18:25:40.067983,-93.0
2023-08-11 18:25:40.075673,-124.0
2023-08-11 18:25:40.083363,-81.0
2023-08-11 18:25:40.091052,311.0
2023-08-11 18:25:40.098742,1042.0
2023-08-11 18:25:40.106432,1505.0
2023-08-11 18:25:40.114122,1018.0
2023-08-11 18:25:40.121811,-177.0
2023-08-11 18:25:40.129501,-836.0
2023-08-11 18:25:40.137191,-488.0
2023-08-11 18:25:40.144881,-124.0
2023-08-11 18:25:40.152570,-201.0
2023-08-11 18:25:40.160260,-242.0
2023-08-11 18:25:40.167950,-160.0
2023-08-11 18:25:40.175640,-155.0
2023-08-11 18:25:40.183329,-165.0
2023-08-11 18:25:40.191019,-129.0
2023-08-11 18:25:40.198709,-115.0
2023-08-11 18:25:40.206399,-115.0
2023-08-11 18:25:40.214088,-98.0
2023-08-11 18:25:40.221778,-81.0
2023-08-11 18:25:40.229468,-79.0
2023-08-11 18:25:40.237157,-76.0
2023-08-11 18:25:40.244847,-59.0
2023-08-11 18:25:40.252537,-45.0
2023-08-11 18:25:40.260227,-38.0
2023-08-11 18:25:40.267916,-23.0
2023-08-11 18:25:40.275606,-7.0
2023-08-11 18:25:40.283296,2.0
2023-08-11 18:25:40.290986,16.0
2023-08-11 18:25:40.298675,28.0
2023-08-11 18:25:40.306365,40.0
2023-08-11 18:25:40.314055,59.0
2023-08-11 18:25:40.321745,79.0
2023-08-11 18:25:40.329434,98.0
2023-08-11 18:25:40.337124,117.0
2023-08-11 18:25:40.344814,139.0
2023-08-11 18:25:40.352504,160.0
2023-08-11 18:25:40.360193,179.0
2023-08-11 18:25:40.367883,194.0
2023-08-11 18:25:40.375573,201.0
2023-08-11 18:25:40.383263,201.0
2023-08-11 18:25:40.390952,198.0
2023-08-11 18:25:40.398642,186.0
2023-08-11 18:25:40.406332,158.0
2023-08-11 18:25:40.414021,107.0
2023-08-11 18:25:40.421711,45.0
2023-08-11 18:25:40.429401,-21.0
2023-08-11 18:25:40.437091,-81.0
2023-08-11 18:25:40.444780,-131.0
2023-08-11 18:25:40.452470,-167.0
2023-08-11 18:25:40.460160,-189.0
2023-08-11 18:25:40.467850,-201.0
2023-08-11 18:25:40.475539,-208.0
2023-08-11 18:25:40.483229,-213.0
2023-08-11 18:25:40.490919,-206.0
2023-08-11 18:25:40.498609,-196.0
2023-08-11 18:25:40.506298,-186.0
2023-08-11 18:25:40.513988,-177.0
2023-08-11 18:25:40.521678,-170.0
2023-08-11 18:25:40.529368,-160.0
2023-08-11 18:25:40.537057,-153.0
2023-08-11 18:25:40.544747,-150.0
2023-08-11 18:25:40.552437,-146.0
2023-08-11 18:25:40.560127,-136.0
2023-08-11 18:25:40.567816,-129.0
2023-08-11 18:25:40.575506,-129.0
2023-08-11 18:25:40.583196,-131.0
2023-08-11 18:25:40.590885,-131.0
2023-08-11 18:25:40.598575,-131.0
2023-08-11 18:25:40.606265,-129.0
2023-08-11 18:25:40.613955,-127.0
2023-08-11 18:25:40.621644,-127.0
2023-08-11 18:25:40.629334,-134.0
2023-08-11 18:25:40.637024,-134.0
2023-08-11 18:25:40.644714,-131.0
2023-08-11 18:25:40.652403,-134.0
2023-08-11 18:25:40.660093,-134.0
2023-08-11 18:25:40.667783,-131.0
2023-08-11 18:25:40.675473,-134.0
2023-08-11 18:25:40.683162,-131.0
2023-08-11 18:25:40.690852,-124.0
2023-08-11 18:25:40.698542,-122.0
2023-08-11 18:25:40.706232,-122.0
2023-08-11 18:25:40.713921,-117.0
2023-08-11 18:25:40.721611,-119.0
2023-08-11 18:25:40.729301,-122.0
2023-08-11 18:25:40.736991,-115.0
2023-08-11 18:25:40.744680,-107.0
2023-08-11 18:25:40.752370,-110.0
2023-08-11 18:25:40.760060,-112.0
2023-08-11 18:25:40.767749,-117.0
2023-08-11 18:25:40.775439,-124.0
2023-08-11 18:25:40.783129,-124.0
2023-08-11 18:25:40.790819,-110.0
2023-08-11 18:25:40.798508,-107.0
2023-08-11 18:25:40.806198,-112.0
2023-08-11 18:25:40.813888,-112.0
2023-08-11 18:25:40.821578,-107.0
2023-08-11 18:25:40.829267,-105.0
2023-08-11 18:25:40.836957,-100.0
2023-08-11 18:25:40.844647,-100.0
2023-08-11 18:25:40.852337,-103.0
2023-08-11 18:25:40.860026,-100.0
2023-08-11 18:25:40.867716,-95.0
2023-08-11 18:25:40.875406,-98.0
2023-08-11 18:25:40.883096,-103.0
2023-08-11 18:25:40.890785,-95.0
2023-08-11 18:25:40.898475,-93.0
2023-08-11 18:25:40.906165,-93.0
2023-08-11 18:25:40.913855,-93.0
2023-08-11 18:25:40.921544,-91.0
2023-08-11 18:25:40.929234,-88.0
2023-08-11 18:25:40.936924,-86.0
2023-08-11 18:25:40.944613,-88.0
2023-08-11 18:25:40.952303,-88.0
2023-08-11 18:25:40.959993,-86.0
2023-08-11 18:25:40.967683,-83.0
2023-08-11 18:25:40.975372,-86.0
2023-08-11 18:25:40.983062,-93.0
2023-08-11 18:25:40.990752,-93.0
2023-08-11 18:25:40.998442,-91.0
2023-08-11 18:25:41.006131,-95.0
2023-08-11 18:25:41.013821,-95.0
2023-08-11 18:25:41.021511,-81.0
2023-08-11 18:25:41.029201,-40.0
2023-08-11 18:25:41.036890,-14.0
2023-08-11 18:25:41.044580,-23.0
