time,ECG
2023-08-21 17:18:05.207654,-67.0
2023-08-21 17:18:05.215342,-60.0
2023-08-21 17:18:05.223031,-55.0
2023-08-21 17:18:05.230719,-43.0
2023-08-21 17:18:05.238407,64.0
2023-08-21 17:18:05.246096,410.0
2023-08-21 17:18:05.253784,830.0
2023-08-21 17:18:05.261472,825.0
2023-08-21 17:18:05.269161,259.0
2023-08-21 17:18:05.276849,-285.0
2023-08-21 17:18:05.284537,-283.0
2023-08-21 17:18:05.292225,-93.0
2023-08-21 17:18:05.299914,-132.0
2023-08-21 17:18:05.307602,-184.0
2023-08-21 17:18:05.315290,-136.0
2023-08-21 17:18:05.322979,-127.0
2023-08-21 17:18:05.330667,-144.0
2023-08-21 17:18:05.338355,-127.0
2023-08-21 17:18:05.346044,-120.0
2023-08-21 17:18:05.353732,-132.0
2023-08-21 17:18:05.361420,-120.0
2023-08-21 17:18:05.369109,-105.0
2023-08-21 17:18:05.376797,-100.0
2023-08-21 17:18:05.384485,-98.0
2023-08-21 17:18:05.392174,-96.0
2023-08-21 17:18:05.399862,-91.0
2023-08-21 17:18:05.407550,-81.0
2023-08-21 17:18:05.415239,-76.0
2023-08-21 17:18:05.422927,-72.0
2023-08-21 17:18:05.430615,-64.0
2023-08-21 17:18:05.438304,-62.0
2023-08-21 17:18:05.445992,-60.0
2023-08-21 17:18:05.453680,-50.0
2023-08-21 17:18:05.461369,-40.0
2023-08-21 17:18:05.469057,-31.0
2023-08-21 17:18:05.476745,-24.0
2023-08-21 17:18:05.484434,-14.0
2023-08-21 17:18:05.492122,0.0
2023-08-21 17:18:05.499810,16.0
2023-08-21 17:18:05.507499,33.0
2023-08-21 17:18:05.515187,48.0
2023-08-21 17:18:05.522875,64.0
2023-08-21 17:18:05.530564,81.0
2023-08-21 17:18:05.538252,98.0
2023-08-21 17:18:05.545940,112.0
2023-08-21 17:18:05.553628,129.0
2023-08-21 17:18:05.561317,134.0
2023-08-21 17:18:05.569005,115.0
2023-08-21 17:18:05.576693,84.0
2023-08-21 17:18:05.584382,50.0
2023-08-21 17:18:05.592070,12.0
2023-08-21 17:18:05.599758,-28.0
2023-08-21 17:18:05.607447,-67.0
2023-08-21 17:18:05.615135,-98.0
2023-08-21 17:18:05.622823,-124.0
2023-08-21 17:18:05.630512,-136.0
2023-08-21 17:18:05.638200,-141.0
2023-08-21 17:18:05.645888,-141.0
2023-08-21 17:18:05.653577,-141.0
2023-08-21 17:18:05.661265,-139.0
2023-08-21 17:18:05.668953,-136.0
2023-08-21 17:18:05.676642,-134.0
2023-08-21 17:18:05.684330,-129.0
2023-08-21 17:18:05.692018,-120.0
2023-08-21 17:18:05.699707,-115.0
2023-08-21 17:18:05.707395,-112.0
2023-08-21 17:18:05.715083,-105.0
2023-08-21 17:18:05.722772,-105.0
2023-08-21 17:18:05.730460,-105.0
2023-08-21 17:18:05.738148,-98.0
2023-08-21 17:18:05.745837,-93.0
2023-08-21 17:18:05.753525,-93.0
2023-08-21 17:18:05.761213,-98.0
2023-08-21 17:18:05.768902,-105.0
2023-08-21 17:18:05.776590,-103.0
2023-08-21 17:18:05.784278,-96.0
2023-08-21 17:18:05.791967,-93.0
2023-08-21 17:18:05.799655,-98.0
2023-08-21 17:18:05.807343,-98.0
2023-08-21 17:18:05.815031,-98.0
2023-08-21 17:18:05.822720,-93.0
2023-08-21 17:18:05.830408,-88.0
2023-08-21 17:18:05.838096,-91.0
2023-08-21 17:18:05.845785,-96.0
2023-08-21 17:18:05.853473,-96.0
2023-08-21 17:18:05.861161,-88.0
2023-08-21 17:18:05.868850,-84.0
2023-08-21 17:18:05.876538,-86.0
2023-08-21 17:18:05.884226,-88.0
2023-08-21 17:18:05.891915,-86.0
2023-08-21 17:18:05.899603,-81.0
2023-08-21 17:18:05.907291,-81.0
2023-08-21 17:18:05.914980,-81.0
2023-08-21 17:18:05.922668,-84.0
2023-08-21 17:18:05.930356,-81.0
2023-08-21 17:18:05.938045,-74.0
2023-08-21 17:18:05.945733,-67.0
2023-08-21 17:18:05.953421,-72.0
2023-08-21 17:18:05.961110,-72.0
2023-08-21 17:18:05.968798,-69.0
2023-08-21 17:18:05.976486,-72.0
2023-08-21 17:18:05.984175,-69.0
2023-08-21 17:18:05.991863,-62.0
2023-08-21 17:18:05.999551,-64.0
2023-08-21 17:18:06.007240,-64.0
2023-08-21 17:18:06.014928,-62.0
2023-08-21 17:18:06.022616,-62.0
2023-08-21 17:18:06.030305,-64.0
2023-08-21 17:18:06.037993,-62.0
2023-08-21 17:18:06.045681,-55.0
2023-08-21 17:18:06.053370,-52.0
2023-08-21 17:18:06.061058,-55.0
2023-08-21 17:18:06.068746,-55.0
2023-08-21 17:18:06.076434,-52.0
2023-08-21 17:18:06.084123,-55.0
2023-08-21 17:18:06.091811,-52.0
2023-08-21 17:18:06.099499,-52.0
2023-08-21 17:18:06.107188,-60.0
2023-08-21 17:18:06.114876,-67.0
2023-08-21 17:18:06.122564,-67.0
2023-08-21 17:18:06.130253,-64.0
2023-08-21 17:18:06.137941,-69.0
2023-08-21 17:18:06.145629,-64.0
2023-08-21 17:18:06.153318,-60.0
2023-08-21 17:18:06.161006,-64.0
2023-08-21 17:18:06.168694,-69.0
2023-08-21 17:18:06.176383,-64.0
2023-08-21 17:18:06.184071,-62.0
2023-08-21 17:18:06.191759,-60.0
2023-08-21 17:18:06.199448,-55.0
2023-08-21 17:18:06.207136,-43.0
2023-08-21 17:18:06.214824,-16.0
2023-08-21 17:18:06.222513,-2.0
2023-08-21 17:18:06.230201,-16.0
2023-08-21 17:18:06.237889,-36.0
2023-08-21 17:18:06.245578,-43.0
2023-08-21 17:18:06.253266,-62.0
2023-08-21 17:18:06.260954,-84.0
2023-08-21 17:18:06.268643,-88.0
2023-08-21 17:18:06.276331,-84.0
2023-08-21 17:18:06.284019,-86.0
2023-08-21 17:18:06.291708,-86.0
2023-08-21 17:18:06.299396,-81.0
2023-08-21 17:18:06.307084,-79.0
2023-08-21 17:18:06.314773,-64.0
2023-08-21 17:18:06.322461,74.0
2023-08-21 17:18:06.330149,453.0
2023-08-21 17:18:06.337837,840.0
2023-08-21 17:18:06.345526,756.0
2023-08-21 17:18:06.353214,158.0
2023-08-21 17:18:06.360902,-319.0
2023-08-21 17:18:06.368591,-254.0
2023-08-21 17:18:06.376279,-86.0
2023-08-21 17:18:06.383967,-151.0
2023-08-21 17:18:06.391656,-187.0
2023-08-21 17:18:06.399344,-134.0
2023-08-21 17:18:06.407032,-134.0
2023-08-21 17:18:06.414721,-148.0
2023-08-21 17:18:06.422409,-127.0
2023-08-21 17:18:06.430097,-115.0
2023-08-21 17:18:06.437786,-115.0
2023-08-21 17:18:06.445474,-103.0
2023-08-21 17:18:06.453162,-93.0
2023-08-21 17:18:06.460851,-93.0
2023-08-21 17:18:06.468539,-86.0
2023-08-21 17:18:06.476227,-81.0
2023-08-21 17:18:06.483916,-76.0
2023-08-21 17:18:06.491604,-64.0
2023-08-21 17:18:06.499292,-60.0
2023-08-21 17:18:06.506981,-62.0
2023-08-21 17:18:06.514669,-57.0
2023-08-21 17:18:06.522357,-48.0
2023-08-21 17:18:06.530046,-40.0
2023-08-21 17:18:06.537734,-31.0
2023-08-21 17:18:06.545422,-24.0
2023-08-21 17:18:06.553111,-19.0
2023-08-21 17:18:06.560799,-12.0
2023-08-21 17:18:06.568487,-2.0
2023-08-21 17:18:06.576176,12.0
2023-08-21 17:18:06.583864,31.0
2023-08-21 17:18:06.591552,45.0
2023-08-21 17:18:06.599240,57.0
2023-08-21 17:18:06.606929,72.0
2023-08-21 17:18:06.614617,88.0
2023-08-21 17:18:06.622305,100.0
2023-08-21 17:18:06.629994,110.0
2023-08-21 17:18:06.637682,122.0
2023-08-21 17:18:06.645370,122.0
2023-08-21 17:18:06.653059,112.0
2023-08-21 17:18:06.660747,96.0
2023-08-21 17:18:06.668435,64.0
2023-08-21 17:18:06.676124,21.0
2023-08-21 17:18:06.683812,-19.0
2023-08-21 17:18:06.691500,-55.0
2023-08-21 17:18:06.699189,-86.0
2023-08-21 17:18:06.706877,-105.0
2023-08-21 17:18:06.714565,-117.0
2023-08-21 17:18:06.722254,-122.0
2023-08-21 17:18:06.729942,-122.0
2023-08-21 17:18:06.737630,-122.0
2023-08-21 17:18:06.745319,-122.0
2023-08-21 17:18:06.753007,-120.0
2023-08-21 17:18:06.760695,-115.0
2023-08-21 17:18:06.768384,-112.0
2023-08-21 17:18:06.776072,-112.0
2023-08-21 17:18:06.783760,-112.0
2023-08-21 17:18:06.791449,-110.0
2023-08-21 17:18:06.799137,-103.0
2023-08-21 17:18:06.806825,-98.0
2023-08-21 17:18:06.814514,-96.0
2023-08-21 17:18:06.822202,-91.0
2023-08-21 17:18:06.829890,-88.0
2023-08-21 17:18:06.837579,-86.0
2023-08-21 17:18:06.845267,-84.0
2023-08-21 17:18:06.852955,-84.0
2023-08-21 17:18:06.860643,-84.0
2023-08-21 17:18:06.868332,-86.0
2023-08-21 17:18:06.876020,-88.0
2023-08-21 17:18:06.883708,-88.0
2023-08-21 17:18:06.891397,-86.0
2023-08-21 17:18:06.899085,-86.0
2023-08-21 17:18:06.906773,-84.0
2023-08-21 17:18:06.914462,-84.0
2023-08-21 17:18:06.922150,-86.0
2023-08-21 17:18:06.929838,-86.0
2023-08-21 17:18:06.937527,-84.0
2023-08-21 17:18:06.945215,-81.0
2023-08-21 17:18:06.952903,-79.0
2023-08-21 17:18:06.960592,-81.0
2023-08-21 17:18:06.968280,-84.0
2023-08-21 17:18:06.975968,-81.0
2023-08-21 17:18:06.983657,-76.0
2023-08-21 17:18:06.991345,-74.0
2023-08-21 17:18:06.999033,-72.0
2023-08-21 17:18:07.006722,-69.0
2023-08-21 17:18:07.014410,-72.0
2023-08-21 17:18:07.022098,-72.0
2023-08-21 17:18:07.029787,-69.0
2023-08-21 17:18:07.037475,-64.0
2023-08-21 17:18:07.045163,-62.0
2023-08-21 17:18:07.052852,-64.0
2023-08-21 17:18:07.060540,-67.0
2023-08-21 17:18:07.068228,-64.0
2023-08-21 17:18:07.075917,-60.0
2023-08-21 17:18:07.083605,-62.0
2023-08-21 17:18:07.091293,-64.0
2023-08-21 17:18:07.098982,-64.0
2023-08-21 17:18:07.106670,-67.0
2023-08-21 17:18:07.114358,-69.0
2023-08-21 17:18:07.122046,-69.0
2023-08-21 17:18:07.129735,-69.0
2023-08-21 17:18:07.137423,-67.0
2023-08-21 17:18:07.145111,-67.0
2023-08-21 17:18:07.152800,-64.0
2023-08-21 17:18:07.160488,-64.0
2023-08-21 17:18:07.168176,-60.0
2023-08-21 17:18:07.175865,-62.0
2023-08-21 17:18:07.183553,-67.0
2023-08-21 17:18:07.191241,-69.0
2023-08-21 17:18:07.198930,-72.0
2023-08-21 17:18:07.206618,-74.0
2023-08-21 17:18:07.214306,-74.0
2023-08-21 17:18:07.221995,-69.0
2023-08-21 17:18:07.229683,-74.0
2023-08-21 17:18:07.237371,-88.0
2023-08-21 17:18:07.245060,-86.0
2023-08-21 17:18:07.252748,-76.0
2023-08-21 17:18:07.260436,-76.0
2023-08-21 17:18:07.268125,-72.0
2023-08-21 17:18:07.275813,-60.0
2023-08-21 17:18:07.283501,-45.0
2023-08-21 17:18:07.291190,-28.0
2023-08-21 17:18:07.298878,-36.0
2023-08-21 17:18:07.306566,-52.0
2023-08-21 17:18:07.314255,-60.0
2023-08-21 17:18:07.321943,-76.0
2023-08-21 17:18:07.329631,-96.0
2023-08-21 17:18:07.337320,-93.0
2023-08-21 17:18:07.345008,-86.0
2023-08-21 17:18:07.352696,-84.0
2023-08-21 17:18:07.360385,-84.0
2023-08-21 17:18:07.368073,-81.0
2023-08-21 17:18:07.375761,-84.0
2023-08-21 17:18:07.383449,-67.0
2023-08-21 17:18:07.391138,69.0
2023-08-21 17:18:07.398826,436.0
2023-08-21 17:18:07.406514,809.0
2023-08-21 17:18:07.414203,720.0
2023-08-21 17:18:07.421891,146.0
2023-08-21 17:18:07.429579,-302.0
2023-08-21 17:18:07.437268,-242.0
2023-08-21 17:18:07.444956,-86.0
2023-08-21 17:18:07.452644,-146.0
2023-08-21 17:18:07.460333,-184.0
2023-08-21 17:18:07.468021,-132.0
2023-08-21 17:18:07.475709,-127.0
2023-08-21 17:18:07.483398,-141.0
2023-08-21 17:18:07.491086,-117.0
2023-08-21 17:18:07.498774,-108.0
2023-08-21 17:18:07.506463,-117.0
2023-08-21 17:18:07.514151,-110.0
2023-08-21 17:18:07.521839,-96.0
2023-08-21 17:18:07.529528,-93.0
2023-08-21 17:18:07.537216,-91.0
2023-08-21 17:18:07.544904,-81.0
2023-08-21 17:18:07.552593,-76.0
2023-08-21 17:18:07.560281,-72.0
2023-08-21 17:18:07.567969,-64.0
2023-08-21 17:18:07.575658,-60.0
2023-08-21 17:18:07.583346,-55.0
2023-08-21 17:18:07.591034,-48.0
2023-08-21 17:18:07.598723,-43.0
2023-08-21 17:18:07.606411,-40.0
2023-08-21 17:18:07.614099,-36.0
2023-08-21 17:18:07.621788,-26.0
2023-08-21 17:18:07.629476,-16.0
2023-08-21 17:18:07.637164,-12.0
2023-08-21 17:18:07.644852,-4.0
2023-08-21 17:18:07.652541,12.0
2023-08-21 17:18:07.660229,28.0
2023-08-21 17:18:07.667917,43.0
2023-08-21 17:18:07.675606,62.0
2023-08-21 17:18:07.683294,76.0
2023-08-21 17:18:07.690982,86.0
2023-08-21 17:18:07.698671,103.0
2023-08-21 17:18:07.706359,120.0
2023-08-21 17:18:07.714047,127.0
2023-08-21 17:18:07.721736,124.0
2023-08-21 17:18:07.729424,105.0
2023-08-21 17:18:07.737112,69.0
2023-08-21 17:18:07.744801,26.0
2023-08-21 17:18:07.752489,-9.0
2023-08-21 17:18:07.760177,-48.0
2023-08-21 17:18:07.767866,-86.0
2023-08-21 17:18:07.775554,-112.0
2023-08-21 17:18:07.783242,-129.0
2023-08-21 17:18:07.790931,-146.0
2023-08-21 17:18:07.798619,-148.0
2023-08-21 17:18:07.806307,-141.0
2023-08-21 17:18:07.813996,-146.0
2023-08-21 17:18:07.821684,-156.0
2023-08-21 17:18:07.829372,-146.0
2023-08-21 17:18:07.837061,-134.0
2023-08-21 17:18:07.844749,-134.0
2023-08-21 17:18:07.852437,-136.0
2023-08-21 17:18:07.860126,-132.0
2023-08-21 17:18:07.867814,-127.0
2023-08-21 17:18:07.875502,-122.0
2023-08-21 17:18:07.883191,-115.0
2023-08-21 17:18:07.890879,-110.0
2023-08-21 17:18:07.898567,-110.0
2023-08-21 17:18:07.906255,-110.0
2023-08-21 17:18:07.913944,-110.0
2023-08-21 17:18:07.921632,-105.0
2023-08-21 17:18:07.929320,-98.0
2023-08-21 17:18:07.937009,-100.0
2023-08-21 17:18:07.944697,-103.0
2023-08-21 17:18:07.952385,-103.0
2023-08-21 17:18:07.960074,-105.0
2023-08-21 17:18:07.967762,-105.0
2023-08-21 17:18:07.975450,-103.0
2023-08-21 17:18:07.983139,-103.0
2023-08-21 17:18:07.990827,-100.0
2023-08-21 17:18:07.998515,-103.0
2023-08-21 17:18:08.006204,-100.0
2023-08-21 17:18:08.013892,-96.0
2023-08-21 17:18:08.021580,-98.0
2023-08-21 17:18:08.029269,-103.0
2023-08-21 17:18:08.036957,-103.0
2023-08-21 17:18:08.044645,-96.0
2023-08-21 17:18:08.052334,-91.0
2023-08-21 17:18:08.060022,-91.0
2023-08-21 17:18:08.067710,-91.0
2023-08-21 17:18:08.075399,-88.0
2023-08-21 17:18:08.083087,-88.0
2023-08-21 17:18:08.090775,-93.0
2023-08-21 17:18:08.098464,-98.0
2023-08-21 17:18:08.106152,-93.0
2023-08-21 17:18:08.113840,-93.0
2023-08-21 17:18:08.121529,-98.0
2023-08-21 17:18:08.129217,-93.0
2023-08-21 17:18:08.136905,-91.0
2023-08-21 17:18:08.144594,-91.0
2023-08-21 17:18:08.152282,-84.0
2023-08-21 17:18:08.159970,-81.0
2023-08-21 17:18:08.167658,-88.0
2023-08-21 17:18:08.175347,-91.0
2023-08-21 17:18:08.183035,-88.0
2023-08-21 17:18:08.190723,-88.0
2023-08-21 17:18:08.198412,-86.0
2023-08-21 17:18:08.206100,-86.0
2023-08-21 17:18:08.213788,-88.0
2023-08-21 17:18:08.221477,-91.0
2023-08-21 17:18:08.229165,-86.0
2023-08-21 17:18:08.236853,-86.0
2023-08-21 17:18:08.244542,-88.0
2023-08-21 17:18:08.252230,-86.0
2023-08-21 17:18:08.259918,-81.0
2023-08-21 17:18:08.267607,-81.0
2023-08-21 17:18:08.275295,-86.0
2023-08-21 17:18:08.282983,-91.0
2023-08-21 17:18:08.290672,-96.0
2023-08-21 17:18:08.298360,-93.0
2023-08-21 17:18:08.306048,-81.0
2023-08-21 17:18:08.313737,-69.0
2023-08-21 17:18:08.321425,-55.0
2023-08-21 17:18:08.329113,-33.0
2023-08-21 17:18:08.336802,-31.0
2023-08-21 17:18:08.344490,-48.0
2023-08-21 17:18:08.352178,-72.0
2023-08-21 17:18:08.359867,-103.0
2023-08-21 17:18:08.367555,-124.0
2023-08-21 17:18:08.375243,-112.0
2023-08-21 17:18:08.382932,-100.0
2023-08-21 17:18:08.390620,-105.0
2023-08-21 17:18:08.398308,-100.0
2023-08-21 17:18:08.405997,-93.0
2023-08-21 17:18:08.413685,-91.0
2023-08-21 17:18:08.421373,-74.0
2023-08-21 17:18:08.429061,48.0
2023-08-21 17:18:08.436750,400.0
2023-08-21 17:18:08.444438,789.0
2023-08-21 17:18:08.452126,691.0
2023-08-21 17:18:08.459815,81.0
2023-08-21 17:18:08.467503,-340.0
2023-08-21 17:18:08.475191,-242.0
2023-08-21 17:18:08.482880,-98.0
2023-08-21 17:18:08.490568,-153.0
2023-08-21 17:18:08.498256,-177.0
2023-08-21 17:18:08.505945,-136.0
2023-08-21 17:18:08.513633,-134.0
2023-08-21 17:18:08.521321,-136.0
2023-08-21 17:18:08.529010,-120.0
2023-08-21 17:18:08.536698,-117.0
2023-08-21 17:18:08.544386,-117.0
2023-08-21 17:18:08.552075,-105.0
2023-08-21 17:18:08.559763,-98.0
2023-08-21 17:18:08.567451,-98.0
2023-08-21 17:18:08.575140,-86.0
2023-08-21 17:18:08.582828,-79.0
2023-08-21 17:18:08.590516,-81.0
2023-08-21 17:18:08.598205,-81.0
2023-08-21 17:18:08.605893,-72.0
2023-08-21 17:18:08.613581,-62.0
2023-08-21 17:18:08.621270,-55.0
2023-08-21 17:18:08.628958,-55.0
2023-08-21 17:18:08.636646,-52.0
2023-08-21 17:18:08.644335,-40.0
2023-08-21 17:18:08.652023,-31.0
2023-08-21 17:18:08.659711,-26.0
2023-08-21 17:18:08.667400,-19.0
2023-08-21 17:18:08.675088,-9.0
2023-08-21 17:18:08.682776,4.0
2023-08-21 17:18:08.690464,19.0
2023-08-21 17:18:08.698153,33.0
2023-08-21 17:18:08.705841,45.0
2023-08-21 17:18:08.713529,60.0
2023-08-21 17:18:08.721218,74.0
2023-08-21 17:18:08.728906,86.0
2023-08-21 17:18:08.736594,100.0
2023-08-21 17:18:08.744283,115.0
2023-08-21 17:18:08.751971,120.0
2023-08-21 17:18:08.759659,115.0
2023-08-21 17:18:08.767348,96.0
2023-08-21 17:18:08.775036,64.0
2023-08-21 17:18:08.782724,21.0
2023-08-21 17:18:08.790413,-24.0
2023-08-21 17:18:08.798101,-60.0
2023-08-21 17:18:08.805789,-88.0
2023-08-21 17:18:08.813478,-110.0
2023-08-21 17:18:08.821166,-127.0
2023-08-21 17:18:08.828854,-132.0
2023-08-21 17:18:08.836543,-136.0
2023-08-21 17:18:08.844231,-141.0
2023-08-21 17:18:08.851919,-139.0
2023-08-21 17:18:08.859608,-134.0
2023-08-21 17:18:08.867296,-124.0
2023-08-21 17:18:08.874984,-117.0
2023-08-21 17:18:08.882673,-112.0
2023-08-21 17:18:08.890361,-112.0
2023-08-21 17:18:08.898049,-108.0
2023-08-21 17:18:08.905738,-98.0
2023-08-21 17:18:08.913426,-96.0
2023-08-21 17:18:08.921114,-93.0
2023-08-21 17:18:08.928802,-86.0
2023-08-21 17:18:08.936491,-86.0
2023-08-21 17:18:08.944179,-98.0
2023-08-21 17:18:08.951867,-103.0
2023-08-21 17:18:08.959556,-100.0
2023-08-21 17:18:08.967244,-100.0
2023-08-21 17:18:08.974932,-100.0
2023-08-21 17:18:08.982621,-100.0
2023-08-21 17:18:08.990309,-103.0
2023-08-21 17:18:08.997997,-103.0
2023-08-21 17:18:09.005686,-98.0
2023-08-21 17:18:09.013374,-100.0
2023-08-21 17:18:09.021062,-98.0
2023-08-21 17:18:09.028751,-93.0
2023-08-21 17:18:09.036439,-93.0
2023-08-21 17:18:09.044127,-96.0
2023-08-21 17:18:09.051816,-93.0
2023-08-21 17:18:09.059504,-91.0
2023-08-21 17:18:09.067192,-93.0
2023-08-21 17:18:09.074881,-91.0
2023-08-21 17:18:09.082569,-88.0
2023-08-21 17:18:09.090257,-96.0
2023-08-21 17:18:09.097946,-93.0
2023-08-21 17:18:09.105634,-84.0
2023-08-21 17:18:09.113322,-81.0
2023-08-21 17:18:09.121011,-84.0
2023-08-21 17:18:09.128699,-84.0
2023-08-21 17:18:09.136387,-81.0
2023-08-21 17:18:09.144076,-79.0
2023-08-21 17:18:09.151764,-76.0
2023-08-21 17:18:09.159452,-76.0
2023-08-21 17:18:09.167141,-76.0
2023-08-21 17:18:09.174829,-79.0
2023-08-21 17:18:09.182517,-81.0
2023-08-21 17:18:09.190205,-81.0
2023-08-21 17:18:09.197894,-81.0
2023-08-21 17:18:09.205582,-74.0
2023-08-21 17:18:09.213270,-72.0
2023-08-21 17:18:09.220959,-74.0
2023-08-21 17:18:09.228647,-74.0
2023-08-21 17:18:09.236335,-72.0
2023-08-21 17:18:09.244024,-69.0
2023-08-21 17:18:09.251712,-69.0
2023-08-21 17:18:09.259400,-72.0
2023-08-21 17:18:09.267089,-76.0
2023-08-21 17:18:09.274777,-79.0
2023-08-21 17:18:09.282465,-81.0
2023-08-21 17:18:09.290154,-81.0
2023-08-21 17:18:09.297842,-84.0
2023-08-21 17:18:09.305530,-86.0
2023-08-21 17:18:09.313219,-86.0
2023-08-21 17:18:09.320907,-84.0
2023-08-21 17:18:09.328595,-84.0
2023-08-21 17:18:09.336284,-88.0
2023-08-21 17:18:09.343972,-88.0
2023-08-21 17:18:09.351660,-81.0
2023-08-21 17:18:09.359349,-72.0
2023-08-21 17:18:09.367037,-57.0
2023-08-21 17:18:09.374725,-36.0
2023-08-21 17:18:09.382414,-24.0
2023-08-21 17:18:09.390102,-36.0
2023-08-21 17:18:09.397790,-52.0
2023-08-21 17:18:09.405479,-62.0
2023-08-21 17:18:09.413167,-79.0
2023-08-21 17:18:09.420855,-96.0
2023-08-21 17:18:09.428544,-88.0
2023-08-21 17:18:09.436232,-79.0
2023-08-21 17:18:09.443920,-84.0
2023-08-21 17:18:09.451608,-84.0
2023-08-21 17:18:09.459297,-76.0
2023-08-21 17:18:09.466985,-72.0
2023-08-21 17:18:09.474673,-43.0
2023-08-21 17:18:09.482362,141.0
2023-08-21 17:18:09.490050,547.0
2023-08-21 17:18:09.497738,835.0
2023-08-21 17:18:09.505427,573.0
2023-08-21 17:18:09.513115,-40.0
2023-08-21 17:18:09.520803,-343.0
2023-08-21 17:18:09.528492,-199.0
2023-08-21 17:18:09.536180,-112.0
2023-08-21 17:18:09.543868,-187.0
2023-08-21 17:18:09.551557,-182.0
2023-08-21 17:18:09.559245,-139.0
2023-08-21 17:18:09.566933,-148.0
2023-08-21 17:18:09.574622,-153.0
2023-08-21 17:18:09.582310,-134.0
2023-08-21 17:18:09.589998,-127.0
2023-08-21 17:18:09.597687,-124.0
2023-08-21 17:18:09.605375,-115.0
2023-08-21 17:18:09.613063,-108.0
2023-08-21 17:18:09.620752,-117.0
2023-08-21 17:18:09.628440,-115.0
2023-08-21 17:18:09.636128,-100.0
2023-08-21 17:18:09.643817,-93.0
2023-08-21 17:18:09.651505,-93.0
2023-08-21 17:18:09.659193,-84.0
2023-08-21 17:18:09.666882,-76.0
2023-08-21 17:18:09.674570,-72.0
2023-08-21 17:18:09.682258,-67.0
2023-08-21 17:18:09.689947,-62.0
2023-08-21 17:18:09.697635,-52.0
2023-08-21 17:18:09.705323,-43.0
2023-08-21 17:18:09.713011,-36.0
2023-08-21 17:18:09.720700,-24.0
2023-08-21 17:18:09.728388,-12.0
2023-08-21 17:18:09.736076,-4.0
2023-08-21 17:18:09.743765,9.0
2023-08-21 17:18:09.751453,28.0
2023-08-21 17:18:09.759141,45.0
2023-08-21 17:18:09.766830,57.0
2023-08-21 17:18:09.774518,74.0
2023-08-21 17:18:09.782206,86.0
2023-08-21 17:18:09.789895,96.0
2023-08-21 17:18:09.797583,103.0
2023-08-21 17:18:09.805271,108.0
2023-08-21 17:18:09.812960,100.0
2023-08-21 17:18:09.820648,76.0
2023-08-21 17:18:09.828336,40.0
2023-08-21 17:18:09.836025,4.0
2023-08-21 17:18:09.843713,-33.0
2023-08-21 17:18:09.851401,-69.0
2023-08-21 17:18:09.859090,-96.0
2023-08-21 17:18:09.866778,-115.0
2023-08-21 17:18:09.874466,-127.0
2023-08-21 17:18:09.882155,-132.0
2023-08-21 17:18:09.889843,-132.0
2023-08-21 17:18:09.897531,-132.0
2023-08-21 17:18:09.905220,-127.0
2023-08-21 17:18:09.912908,-124.0
2023-08-21 17:18:09.920596,-120.0
2023-08-21 17:18:09.928285,-117.0
2023-08-21 17:18:09.935973,-117.0
2023-08-21 17:18:09.943661,-110.0
2023-08-21 17:18:09.951350,-103.0
2023-08-21 17:18:09.959038,-98.0
2023-08-21 17:18:09.966726,-96.0
2023-08-21 17:18:09.974414,-91.0
2023-08-21 17:18:09.982103,-88.0
2023-08-21 17:18:09.989791,-86.0
2023-08-21 17:18:09.997479,-88.0
2023-08-21 17:18:10.005168,-86.0
2023-08-21 17:18:10.012856,-84.0
2023-08-21 17:18:10.020544,-88.0
2023-08-21 17:18:10.028233,-100.0
2023-08-21 17:18:10.035921,-100.0
2023-08-21 17:18:10.043609,-96.0
2023-08-21 17:18:10.051298,-100.0
2023-08-21 17:18:10.058986,-103.0
2023-08-21 17:18:10.066674,-98.0
2023-08-21 17:18:10.074363,-98.0
2023-08-21 17:18:10.082051,-98.0
2023-08-21 17:18:10.089739,-96.0
2023-08-21 17:18:10.097428,-93.0
2023-08-21 17:18:10.105116,-93.0
2023-08-21 17:18:10.112804,-103.0
2023-08-21 17:18:10.120493,-110.0
2023-08-21 17:18:10.128181,-103.0
2023-08-21 17:18:10.135869,-96.0
2023-08-21 17:18:10.143558,-96.0
2023-08-21 17:18:10.151246,-100.0
2023-08-21 17:18:10.158934,-105.0
2023-08-21 17:18:10.166623,-108.0
2023-08-21 17:18:10.174311,-98.0
2023-08-21 17:18:10.181999,-91.0
2023-08-21 17:18:10.189688,-91.0
2023-08-21 17:18:10.197376,-98.0
2023-08-21 17:18:10.205064,-98.0
2023-08-21 17:18:10.212753,-93.0
2023-08-21 17:18:10.220441,-86.0
2023-08-21 17:18:10.228129,-86.0
2023-08-21 17:18:10.235817,-86.0
2023-08-21 17:18:10.243506,-84.0
2023-08-21 17:18:10.251194,-88.0
2023-08-21 17:18:10.258882,-86.0
2023-08-21 17:18:10.266571,-76.0
2023-08-21 17:18:10.274259,-79.0
2023-08-21 17:18:10.281947,-88.0
2023-08-21 17:18:10.289636,-88.0
2023-08-21 17:18:10.297324,-86.0
2023-08-21 17:18:10.305012,-93.0
2023-08-21 17:18:10.312701,-91.0
2023-08-21 17:18:10.320389,-81.0
2023-08-21 17:18:10.328077,-79.0
2023-08-21 17:18:10.335766,-84.0
2023-08-21 17:18:10.343454,-86.0
2023-08-21 17:18:10.351142,-84.0
2023-08-21 17:18:10.358831,-86.0
2023-08-21 17:18:10.366519,-93.0
2023-08-21 17:18:10.374207,-91.0
2023-08-21 17:18:10.381896,-79.0
2023-08-21 17:18:10.389584,-76.0
2023-08-21 17:18:10.397272,-84.0
2023-08-21 17:18:10.404961,-86.0
2023-08-21 17:18:10.412649,-79.0
2023-08-21 17:18:10.420337,-72.0
2023-08-21 17:18:10.428026,-72.0
2023-08-21 17:18:10.435714,-55.0
2023-08-21 17:18:10.443402,-19.0
2023-08-21 17:18:10.451091,-19.0
2023-08-21 17:18:10.458779,-48.0
2023-08-21 17:18:10.466467,-57.0
2023-08-21 17:18:10.474156,-64.0
2023-08-21 17:18:10.481844,-88.0
2023-08-21 17:18:10.489532,-96.0
2023-08-21 17:18:10.497220,-86.0
2023-08-21 17:18:10.504909,-84.0
2023-08-21 17:18:10.512597,-84.0
2023-08-21 17:18:10.520285,-81.0
2023-08-21 17:18:10.527974,-74.0
2023-08-21 17:18:10.535662,-62.0
2023-08-21 17:18:10.543350,-2.0
2023-08-21 17:18:10.551039,247.0
2023-08-21 17:18:10.558727,669.0
2023-08-21 17:18:10.566415,809.0
2023-08-21 17:18:10.574104,362.0
2023-08-21 17:18:10.581792,-213.0
2023-08-21 17:18:10.589480,-312.0
2023-08-21 17:18:10.597169,-124.0
2023-08-21 17:18:10.604857,-108.0
2023-08-21 17:18:10.612545,-175.0
2023-08-21 17:18:10.620234,-151.0
2023-08-21 17:18:10.627922,-129.0
2023-08-21 17:18:10.635610,-144.0
2023-08-21 17:18:10.643299,-132.0
2023-08-21 17:18:10.650987,-117.0
2023-08-21 17:18:10.658675,-122.0
2023-08-21 17:18:10.666364,-115.0
2023-08-21 17:18:10.674052,-96.0
2023-08-21 17:18:10.681740,-91.0
2023-08-21 17:18:10.689429,-93.0
2023-08-21 17:18:10.697117,-86.0
2023-08-21 17:18:10.704805,-79.0
2023-08-21 17:18:10.712494,-74.0
2023-08-21 17:18:10.720182,-74.0
2023-08-21 17:18:10.727870,-74.0
2023-08-21 17:18:10.735559,-64.0
2023-08-21 17:18:10.743247,-52.0
2023-08-21 17:18:10.750935,-48.0
2023-08-21 17:18:10.758623,-45.0
2023-08-21 17:18:10.766312,-36.0
2023-08-21 17:18:10.774000,-24.0
2023-08-21 17:18:10.781688,-16.0
2023-08-21 17:18:10.789377,-16.0
2023-08-21 17:18:10.797065,-9.0
2023-08-21 17:18:10.804753,-4.0
2023-08-21 17:18:10.812442,4.0
2023-08-21 17:18:10.820130,28.0
2023-08-21 17:18:10.827818,55.0
2023-08-21 17:18:10.835507,62.0
2023-08-21 17:18:10.843195,64.0
2023-08-21 17:18:10.850883,79.0
2023-08-21 17:18:10.858572,93.0
2023-08-21 17:18:10.866260,110.0
2023-08-21 17:18:10.873948,115.0
2023-08-21 17:18:10.881637,96.0
2023-08-21 17:18:10.889325,64.0
2023-08-21 17:18:10.897013,33.0
2023-08-21 17:18:10.904702,-4.0
2023-08-21 17:18:10.912390,-48.0
2023-08-21 17:18:10.920078,-81.0
2023-08-21 17:18:10.927767,-98.0
2023-08-21 17:18:10.935455,-120.0
2023-08-21 17:18:10.943143,-134.0
2023-08-21 17:18:10.950832,-139.0
2023-08-21 17:18:10.958520,-139.0
2023-08-21 17:18:10.966208,-144.0
2023-08-21 17:18:10.973897,-139.0
2023-08-21 17:18:10.981585,-127.0
2023-08-21 17:18:10.989273,-120.0
2023-08-21 17:18:10.996962,-117.0
2023-08-21 17:18:11.004650,-112.0
2023-08-21 17:18:11.012338,-110.0
2023-08-21 17:18:11.020026,-110.0
2023-08-21 17:18:11.027715,-103.0
2023-08-21 17:18:11.035403,-93.0
2023-08-21 17:18:11.043091,-93.0
2023-08-21 17:18:11.050780,-96.0
2023-08-21 17:18:11.058468,-98.0
2023-08-21 17:18:11.066156,-96.0
2023-08-21 17:18:11.073845,-91.0
2023-08-21 17:18:11.081533,-91.0
2023-08-21 17:18:11.089221,-93.0
2023-08-21 17:18:11.096910,-88.0
2023-08-21 17:18:11.104598,-88.0
2023-08-21 17:18:11.112286,-98.0
2023-08-21 17:18:11.119975,-98.0
2023-08-21 17:18:11.127663,-88.0
2023-08-21 17:18:11.135351,-88.0
2023-08-21 17:18:11.143040,-100.0
2023-08-21 17:18:11.150728,-108.0
2023-08-21 17:18:11.158416,-108.0
2023-08-21 17:18:11.166105,-105.0
2023-08-21 17:18:11.173793,-103.0
2023-08-21 17:18:11.181481,-100.0
2023-08-21 17:18:11.189170,-100.0
2023-08-21 17:18:11.196858,-100.0
2023-08-21 17:18:11.204546,-98.0
2023-08-21 17:18:11.212235,-98.0
2023-08-21 17:18:11.219923,-98.0
2023-08-21 17:18:11.227611,-93.0
2023-08-21 17:18:11.235300,-88.0
2023-08-21 17:18:11.242988,-91.0
2023-08-21 17:18:11.250676,-91.0
2023-08-21 17:18:11.258365,-88.0
2023-08-21 17:18:11.266053,-84.0
2023-08-21 17:18:11.273741,-81.0
2023-08-21 17:18:11.281429,-86.0
2023-08-21 17:18:11.289118,-86.0
2023-08-21 17:18:11.296806,-81.0
2023-08-21 17:18:11.304494,-84.0
2023-08-21 17:18:11.312183,-93.0
2023-08-21 17:18:11.319871,-96.0
2023-08-21 17:18:11.327559,-88.0
2023-08-21 17:18:11.335248,-88.0
2023-08-21 17:18:11.342936,-88.0
2023-08-21 17:18:11.350624,-86.0
2023-08-21 17:18:11.358313,-88.0
2023-08-21 17:18:11.366001,-86.0
2023-08-21 17:18:11.373689,-81.0
2023-08-21 17:18:11.381378,-81.0
2023-08-21 17:18:11.389066,-81.0
2023-08-21 17:18:11.396754,-81.0
2023-08-21 17:18:11.404443,-84.0
2023-08-21 17:18:11.412131,-84.0
2023-08-21 17:18:11.419819,-81.0
2023-08-21 17:18:11.427508,-76.0
2023-08-21 17:18:11.435196,-79.0
2023-08-21 17:18:11.442884,-84.0
2023-08-21 17:18:11.450573,-74.0
2023-08-21 17:18:11.458261,-57.0
2023-08-21 17:18:11.465949,-43.0
2023-08-21 17:18:11.473638,-31.0
2023-08-21 17:18:11.481326,-36.0
2023-08-21 17:18:11.489014,-48.0
2023-08-21 17:18:11.496703,-62.0
2023-08-21 17:18:11.504391,-84.0
2023-08-21 17:18:11.512079,-96.0
2023-08-21 17:18:11.519768,-88.0
2023-08-21 17:18:11.527456,-86.0
2023-08-21 17:18:11.535144,-88.0
2023-08-21 17:18:11.542832,-84.0
2023-08-21 17:18:11.550521,-84.0
2023-08-21 17:18:11.558209,-84.0
2023-08-21 17:18:11.565897,-55.0
2023-08-21 17:18:11.573586,110.0
2023-08-21 17:18:11.581274,508.0
2023-08-21 17:18:11.588962,835.0
2023-08-21 17:18:11.596651,616.0
2023-08-21 17:18:11.604339,-9.0
2023-08-21 17:18:11.612027,-348.0
2023-08-21 17:18:11.619716,-204.0
2023-08-21 17:18:11.627404,-88.0
2023-08-21 17:18:11.635092,-158.0
2023-08-21 17:18:11.642781,-165.0
2023-08-21 17:18:11.650469,-124.0
2023-08-21 17:18:11.658157,-129.0
2023-08-21 17:18:11.665846,-134.0
2023-08-21 17:18:11.673534,-117.0
2023-08-21 17:18:11.681222,-110.0
2023-08-21 17:18:11.688911,-110.0
2023-08-21 17:18:11.696599,-103.0
2023-08-21 17:18:11.704287,-96.0
2023-08-21 17:18:11.711976,-91.0
2023-08-21 17:18:11.719664,-86.0
2023-08-21 17:18:11.727352,-79.0
2023-08-21 17:18:11.735041,-74.0
2023-08-21 17:18:11.742729,-67.0
2023-08-21 17:18:11.750417,-62.0
2023-08-21 17:18:11.758106,-60.0
2023-08-21 17:18:11.765794,-52.0
2023-08-21 17:18:11.773482,-48.0
2023-08-21 17:18:11.781171,-52.0
2023-08-21 17:18:11.788859,-55.0
2023-08-21 17:18:11.796547,-45.0
2023-08-21 17:18:11.804235,-38.0
2023-08-21 17:18:11.811924,-38.0
2023-08-21 17:18:11.819612,-26.0
2023-08-21 17:18:11.827300,-9.0
2023-08-21 17:18:11.834989,4.0
2023-08-21 17:18:11.842677,16.0
2023-08-21 17:18:11.850365,33.0
2023-08-21 17:18:11.858054,48.0
2023-08-21 17:18:11.865742,64.0
2023-08-21 17:18:11.873430,76.0
2023-08-21 17:18:11.881119,86.0
2023-08-21 17:18:11.888807,98.0
2023-08-21 17:18:11.896495,105.0
2023-08-21 17:18:11.904184,103.0
2023-08-21 17:18:11.911872,81.0
2023-08-21 17:18:11.919560,45.0
2023-08-21 17:18:11.927249,7.0
2023-08-21 17:18:11.934937,-31.0
2023-08-21 17:18:11.942625,-64.0
2023-08-21 17:18:11.950314,-93.0
2023-08-21 17:18:11.958002,-115.0
2023-08-21 17:18:11.965690,-129.0
2023-08-21 17:18:11.973379,-129.0
2023-08-21 17:18:11.981067,-122.0
2023-08-21 17:18:11.988755,-124.0
2023-08-21 17:18:11.996444,-127.0
2023-08-21 17:18:12.004132,-124.0
2023-08-21 17:18:12.011820,-120.0
2023-08-21 17:18:12.019509,-115.0
2023-08-21 17:18:12.027197,-110.0
2023-08-21 17:18:12.034885,-110.0
2023-08-21 17:18:12.042574,-105.0
2023-08-21 17:18:12.050262,-100.0
2023-08-21 17:18:12.057950,-96.0
2023-08-21 17:18:12.065638,-93.0
2023-08-21 17:18:12.073327,-88.0
2023-08-21 17:18:12.081015,-86.0
2023-08-21 17:18:12.088703,-86.0
2023-08-21 17:18:12.096392,-88.0
2023-08-21 17:18:12.104080,-86.0
2023-08-21 17:18:12.111768,-84.0
2023-08-21 17:18:12.119457,-86.0
2023-08-21 17:18:12.127145,-91.0
2023-08-21 17:18:12.134833,-91.0
2023-08-21 17:18:12.142522,-86.0
2023-08-21 17:18:12.150210,-88.0
2023-08-21 17:18:12.157898,-91.0
2023-08-21 17:18:12.165587,-91.0
2023-08-21 17:18:12.173275,-88.0
2023-08-21 17:18:12.180963,-91.0
2023-08-21 17:18:12.188652,-91.0
2023-08-21 17:18:12.196340,-86.0
2023-08-21 17:18:12.204028,-81.0
2023-08-21 17:18:12.211717,-81.0
2023-08-21 17:18:12.219405,-81.0
2023-08-21 17:18:12.227093,-81.0
2023-08-21 17:18:12.234782,-79.0
2023-08-21 17:18:12.242470,-76.0
2023-08-21 17:18:12.250158,-79.0
2023-08-21 17:18:12.257847,-79.0
2023-08-21 17:18:12.265535,-74.0
2023-08-21 17:18:12.273223,-81.0
2023-08-21 17:18:12.280912,-91.0
2023-08-21 17:18:12.288600,-91.0
2023-08-21 17:18:12.296288,-88.0
2023-08-21 17:18:12.303977,-86.0
2023-08-21 17:18:12.311665,-93.0
2023-08-21 17:18:12.319353,-98.0
2023-08-21 17:18:12.327041,-91.0
2023-08-21 17:18:12.334730,-86.0
2023-08-21 17:18:12.342418,-88.0
2023-08-21 17:18:12.350106,-86.0
2023-08-21 17:18:12.357795,-86.0
2023-08-21 17:18:12.365483,-88.0
2023-08-21 17:18:12.373171,-86.0
2023-08-21 17:18:12.380860,-84.0
2023-08-21 17:18:12.388548,-81.0
2023-08-21 17:18:12.396236,-81.0
2023-08-21 17:18:12.403925,-76.0
2023-08-21 17:18:12.411613,-74.0
2023-08-21 17:18:12.419301,-74.0
2023-08-21 17:18:12.426990,-74.0
2023-08-21 17:18:12.434678,-74.0
2023-08-21 17:18:12.442366,-74.0
2023-08-21 17:18:12.450055,-74.0
2023-08-21 17:18:12.457743,-76.0
2023-08-21 17:18:12.465431,-81.0
2023-08-21 17:18:12.473120,-79.0
2023-08-21 17:18:12.480808,-74.0
2023-08-21 17:18:12.488496,-74.0
2023-08-21 17:18:12.496185,-81.0
2023-08-21 17:18:12.503873,-81.0
2023-08-21 17:18:12.511561,-76.0
2023-08-21 17:18:12.519250,-74.0
2023-08-21 17:18:12.526938,-74.0
2023-08-21 17:18:12.534626,-74.0
2023-08-21 17:18:12.542315,-67.0
2023-08-21 17:18:12.550003,-50.0
2023-08-21 17:18:12.557691,-26.0
2023-08-21 17:18:12.565380,-16.0
2023-08-21 17:18:12.573068,-38.0
2023-08-21 17:18:12.580756,-52.0
2023-08-21 17:18:12.588444,-57.0
2023-08-21 17:18:12.596133,-79.0
2023-08-21 17:18:12.603821,-88.0
2023-08-21 17:18:12.611509,-76.0
2023-08-21 17:18:12.619198,-72.0
2023-08-21 17:18:12.626886,-76.0
2023-08-21 17:18:12.634574,-74.0
2023-08-21 17:18:12.642263,-69.0
2023-08-21 17:18:12.649951,-69.0
2023-08-21 17:18:12.657639,-31.0
2023-08-21 17:18:12.665328,175.0
2023-08-21 17:18:12.673016,580.0
2023-08-21 17:18:12.680704,821.0
2023-08-21 17:18:12.688393,511.0
2023-08-21 17:18:12.696081,-81.0
2023-08-21 17:18:12.703769,-316.0
2023-08-21 17:18:12.711458,-151.0
2023-08-21 17:18:12.719146,-81.0
2023-08-21 17:18:12.726834,-158.0
2023-08-21 17:18:12.734523,-156.0
2023-08-21 17:18:12.742211,-117.0
2023-08-21 17:18:12.749899,-127.0
2023-08-21 17:18:12.757588,-124.0
2023-08-21 17:18:12.765276,-108.0
2023-08-21 17:18:12.772964,-105.0
2023-08-21 17:18:12.780653,-108.0
2023-08-21 17:18:12.788341,-100.0
2023-08-21 17:18:12.796029,-91.0
2023-08-21 17:18:12.803718,-88.0
2023-08-21 17:18:12.811406,-91.0
2023-08-21 17:18:12.819094,-88.0
2023-08-21 17:18:12.826783,-81.0
2023-08-21 17:18:12.834471,-74.0
2023-08-21 17:18:12.842159,-72.0
2023-08-21 17:18:12.849847,-64.0
2023-08-21 17:18:12.857536,-57.0
2023-08-21 17:18:12.865224,-55.0
2023-08-21 17:18:12.872912,-50.0
2023-08-21 17:18:12.880601,-40.0
2023-08-21 17:18:12.888289,-31.0
2023-08-21 17:18:12.895977,-26.0
2023-08-21 17:18:12.903666,-26.0
2023-08-21 17:18:12.911354,-26.0
2023-08-21 17:18:12.919042,-14.0
2023-08-21 17:18:12.926731,4.0
2023-08-21 17:18:12.934419,14.0
2023-08-21 17:18:12.942107,24.0
2023-08-21 17:18:12.949796,36.0
2023-08-21 17:18:12.957484,45.0
2023-08-21 17:18:12.965172,60.0
2023-08-21 17:18:12.972861,72.0
2023-08-21 17:18:12.980549,81.0
2023-08-21 17:18:12.988237,91.0
2023-08-21 17:18:12.995926,91.0
2023-08-21 17:18:13.003614,69.0
2023-08-21 17:18:13.011302,40.0
2023-08-21 17:18:13.018991,4.0
2023-08-21 17:18:13.026679,-33.0
2023-08-21 17:18:13.034367,-67.0
2023-08-21 17:18:13.042056,-93.0
2023-08-21 17:18:13.049744,-112.0
2023-08-21 17:18:13.057432,-127.0
2023-08-21 17:18:13.065121,-129.0
2023-08-21 17:18:13.072809,-129.0
2023-08-21 17:18:13.080497,-127.0
2023-08-21 17:18:13.088186,-127.0
2023-08-21 17:18:13.095874,-122.0
2023-08-21 17:18:13.103562,-115.0
2023-08-21 17:18:13.111250,-110.0
2023-08-21 17:18:13.118939,-110.0
2023-08-21 17:18:13.126627,-103.0
2023-08-21 17:18:13.134315,-93.0
2023-08-21 17:18:13.142004,-91.0
2023-08-21 17:18:13.149692,-91.0
2023-08-21 17:18:13.157380,-86.0
2023-08-21 17:18:13.165069,-79.0
2023-08-21 17:18:13.172757,-81.0
2023-08-21 17:18:13.180445,-81.0
2023-08-21 17:18:13.188134,-81.0
2023-08-21 17:18:13.195822,-81.0
2023-08-21 17:18:13.203510,-79.0
2023-08-21 17:18:13.211199,-81.0
2023-08-21 17:18:13.218887,-86.0
2023-08-21 17:18:13.226575,-86.0
2023-08-21 17:18:13.234264,-86.0
2023-08-21 17:18:13.241952,-86.0
2023-08-21 17:18:13.249640,-84.0
2023-08-21 17:18:13.257329,-81.0
2023-08-21 17:18:13.265017,-86.0
2023-08-21 17:18:13.272705,-88.0
2023-08-21 17:18:13.280394,-88.0
2023-08-21 17:18:13.288082,-86.0
2023-08-21 17:18:13.295770,-84.0
2023-08-21 17:18:13.303459,-81.0
2023-08-21 17:18:13.311147,-81.0
2023-08-21 17:18:13.318835,-86.0
2023-08-21 17:18:13.326524,-88.0
2023-08-21 17:18:13.334212,-86.0
2023-08-21 17:18:13.341900,-86.0
2023-08-21 17:18:13.349589,-88.0
2023-08-21 17:18:13.357277,-86.0
2023-08-21 17:18:13.364965,-79.0
2023-08-21 17:18:13.372653,-76.0
2023-08-21 17:18:13.380342,-79.0
2023-08-21 17:18:13.388030,-81.0
2023-08-21 17:18:13.395718,-84.0
2023-08-21 17:18:13.403407,-91.0
2023-08-21 17:18:13.411095,-93.0
2023-08-21 17:18:13.418783,-93.0
2023-08-21 17:18:13.426472,-91.0
2023-08-21 17:18:13.434160,-84.0
2023-08-21 17:18:13.441848,-81.0
2023-08-21 17:18:13.449537,-88.0
2023-08-21 17:18:13.457225,-91.0
2023-08-21 17:18:13.464913,-81.0
2023-08-21 17:18:13.472602,-81.0
2023-08-21 17:18:13.480290,-88.0
2023-08-21 17:18:13.487978,-81.0
2023-08-21 17:18:13.495667,-76.0
2023-08-21 17:18:13.503355,-81.0
2023-08-21 17:18:13.511043,-84.0
2023-08-21 17:18:13.518732,-88.0
2023-08-21 17:18:13.526420,-96.0
2023-08-21 17:18:13.534108,-96.0
2023-08-21 17:18:13.541797,-91.0
2023-08-21 17:18:13.549485,-88.0
2023-08-21 17:18:13.557173,-86.0
2023-08-21 17:18:13.564862,-86.0
2023-08-21 17:18:13.572550,-84.0
2023-08-21 17:18:13.580238,-84.0
2023-08-21 17:18:13.587927,-86.0
2023-08-21 17:18:13.595615,-86.0
2023-08-21 17:18:13.603303,-79.0
2023-08-21 17:18:13.610991,-79.0
2023-08-21 17:18:13.618680,-86.0
2023-08-21 17:18:13.626368,-81.0
2023-08-21 17:18:13.634056,-79.0
2023-08-21 17:18:13.641745,-79.0
2023-08-21 17:18:13.649433,-76.0
2023-08-21 17:18:13.657121,-74.0
2023-08-21 17:18:13.664810,-69.0
2023-08-21 17:18:13.672498,-48.0
2023-08-21 17:18:13.680186,-24.0
2023-08-21 17:18:13.687875,-24.0
2023-08-21 17:18:13.695563,-43.0
2023-08-21 17:18:13.703251,-55.0
2023-08-21 17:18:13.710940,-64.0
2023-08-21 17:18:13.718628,-79.0
2023-08-21 17:18:13.726316,-86.0
2023-08-21 17:18:13.734005,-84.0
2023-08-21 17:18:13.741693,-84.0
2023-08-21 17:18:13.749381,-84.0
2023-08-21 17:18:13.757070,-76.0
2023-08-21 17:18:13.764758,-79.0
2023-08-21 17:18:13.772446,-76.0
2023-08-21 17:18:13.780135,-31.0
2023-08-21 17:18:13.787823,187.0
2023-08-21 17:18:13.795511,602.0
2023-08-21 17:18:13.803200,813.0
2023-08-21 17:18:13.810888,451.0
2023-08-21 17:18:13.818576,-148.0
2023-08-21 17:18:13.826265,-336.0
2023-08-21 17:18:13.833953,-163.0
2023-08-21 17:18:13.841641,-115.0
2023-08-21 17:18:13.849330,-180.0
2023-08-21 17:18:13.857018,-165.0
2023-08-21 17:18:13.864706,-134.0
2023-08-21 17:18:13.872394,-139.0
2023-08-21 17:18:13.880083,-134.0
2023-08-21 17:18:13.887771,-127.0
2023-08-21 17:18:13.895459,-124.0
2023-08-21 17:18:13.903148,-115.0
2023-08-21 17:18:13.910836,-108.0
2023-08-21 17:18:13.918524,-103.0
2023-08-21 17:18:13.926213,-93.0
2023-08-21 17:18:13.933901,-96.0
2023-08-21 17:18:13.941589,-100.0
2023-08-21 17:18:13.949278,-96.0
2023-08-21 17:18:13.956966,-88.0
2023-08-21 17:18:13.964654,-86.0
2023-08-21 17:18:13.972343,-81.0
2023-08-21 17:18:13.980031,-74.0
2023-08-21 17:18:13.987719,-67.0
2023-08-21 17:18:13.995408,-60.0
2023-08-21 17:18:14.003096,-50.0
2023-08-21 17:18:14.010784,-43.0
2023-08-21 17:18:14.018473,-38.0
2023-08-21 17:18:14.026161,-36.0
2023-08-21 17:18:14.033849,-28.0
2023-08-21 17:18:14.041538,-7.0
2023-08-21 17:18:14.049226,9.0
2023-08-21 17:18:14.056914,19.0
2023-08-21 17:18:14.064603,28.0
2023-08-21 17:18:14.072291,43.0
2023-08-21 17:18:14.079979,64.0
2023-08-21 17:18:14.087668,81.0
2023-08-21 17:18:14.095356,86.0
2023-08-21 17:18:14.103044,93.0
2023-08-21 17:18:14.110733,103.0
2023-08-21 17:18:14.118421,98.0
2023-08-21 17:18:14.126109,76.0
2023-08-21 17:18:14.133797,48.0
2023-08-21 17:18:14.141486,16.0
2023-08-21 17:18:14.149174,-21.0
2023-08-21 17:18:14.156862,-60.0
2023-08-21 17:18:14.164551,-96.0
2023-08-21 17:18:14.172239,-115.0
2023-08-21 17:18:14.179927,-122.0
2023-08-21 17:18:14.187616,-129.0
2023-08-21 17:18:14.195304,-134.0
2023-08-21 17:18:14.202992,-134.0
2023-08-21 17:18:14.210681,-127.0
2023-08-21 17:18:14.218369,-122.0
2023-08-21 17:18:14.226057,-122.0
2023-08-21 17:18:14.233746,-120.0
2023-08-21 17:18:14.241434,-110.0
2023-08-21 17:18:14.249122,-105.0
2023-08-21 17:18:14.256811,-108.0
2023-08-21 17:18:14.264499,-105.0
2023-08-21 17:18:14.272187,-98.0
2023-08-21 17:18:14.279876,-91.0
2023-08-21 17:18:14.287564,-91.0
2023-08-21 17:18:14.295252,-96.0
2023-08-21 17:18:14.302941,-91.0
2023-08-21 17:18:14.310629,-81.0
2023-08-21 17:18:14.318317,-91.0
2023-08-21 17:18:14.326006,-103.0
2023-08-21 17:18:14.333694,-103.0
2023-08-21 17:18:14.341382,-103.0
2023-08-21 17:18:14.349071,-108.0
2023-08-21 17:18:14.356759,-105.0
2023-08-21 17:18:14.364447,-103.0
2023-08-21 17:18:14.372136,-105.0
2023-08-21 17:18:14.379824,-103.0
2023-08-21 17:18:14.387512,-98.0
2023-08-21 17:18:14.395200,-103.0
2023-08-21 17:18:14.402889,-103.0
2023-08-21 17:18:14.410577,-96.0
2023-08-21 17:18:14.418265,-91.0
2023-08-21 17:18:14.425954,-93.0
2023-08-21 17:18:14.433642,-96.0
2023-08-21 17:18:14.441330,-91.0
2023-08-21 17:18:14.449019,-88.0
2023-08-21 17:18:14.456707,-91.0
2023-08-21 17:18:14.464395,-91.0
2023-08-21 17:18:14.472084,-88.0
2023-08-21 17:18:14.479772,-93.0
2023-08-21 17:18:14.487460,-93.0
2023-08-21 17:18:14.495149,-86.0
2023-08-21 17:18:14.502837,-84.0
2023-08-21 17:18:14.510525,-93.0
2023-08-21 17:18:14.518214,-103.0
2023-08-21 17:18:14.525902,-103.0
2023-08-21 17:18:14.533590,-93.0
2023-08-21 17:18:14.541279,-93.0
2023-08-21 17:18:14.548967,-98.0
2023-08-21 17:18:14.556655,-98.0
2023-08-21 17:18:14.564344,-93.0
2023-08-21 17:18:14.572032,-96.0
2023-08-21 17:18:14.579720,-98.0
2023-08-21 17:18:14.587409,-96.0
2023-08-21 17:18:14.595097,-96.0
2023-08-21 17:18:14.602785,-96.0
2023-08-21 17:18:14.610474,-91.0
2023-08-21 17:18:14.618162,-91.0
2023-08-21 17:18:14.625850,-96.0
2023-08-21 17:18:14.633539,-93.0
2023-08-21 17:18:14.641227,-86.0
2023-08-21 17:18:14.648915,-84.0
2023-08-21 17:18:14.656603,-86.0
2023-08-21 17:18:14.664292,-84.0
2023-08-21 17:18:14.671980,-84.0
2023-08-21 17:18:14.679668,-81.0
2023-08-21 17:18:14.687357,-76.0
2023-08-21 17:18:14.695045,-67.0
2023-08-21 17:18:14.702733,-48.0
2023-08-21 17:18:14.710422,-28.0
2023-08-21 17:18:14.718110,-28.0
2023-08-21 17:18:14.725798,-45.0
2023-08-21 17:18:14.733487,-57.0
2023-08-21 17:18:14.741175,-72.0
2023-08-21 17:18:14.748863,-93.0
2023-08-21 17:18:14.756552,-96.0
2023-08-21 17:18:14.764240,-84.0
2023-08-21 17:18:14.771928,-88.0
2023-08-21 17:18:14.779617,-88.0
2023-08-21 17:18:14.787305,-79.0
2023-08-21 17:18:14.794993,-74.0
2023-08-21 17:18:14.802682,-67.0
2023-08-21 17:18:14.810370,33.0
2023-08-21 17:18:14.818058,360.0
2023-08-21 17:18:14.825747,768.0
2023-08-21 17:18:14.833435,761.0
2023-08-21 17:18:14.841123,204.0
2023-08-21 17:18:14.848812,-304.0
2023-08-21 17:18:14.856500,-285.0
2023-08-21 17:18:14.864188,-100.0
2023-08-21 17:18:14.871877,-129.0
2023-08-21 17:18:14.879565,-177.0
2023-08-21 17:18:14.887253,-134.0
2023-08-21 17:18:14.894942,-124.0
2023-08-21 17:18:14.902630,-139.0
2023-08-21 17:18:14.910318,-122.0
2023-08-21 17:18:14.918006,-112.0
2023-08-21 17:18:14.925695,-112.0
2023-08-21 17:18:14.933383,-105.0
2023-08-21 17:18:14.941071,-96.0
2023-08-21 17:18:14.948760,-91.0
2023-08-21 17:18:14.956448,-86.0
2023-08-21 17:18:14.964136,-81.0
2023-08-21 17:18:14.971825,-76.0
2023-08-21 17:18:14.979513,-74.0
2023-08-21 17:18:14.987201,-64.0
2023-08-21 17:18:14.994890,-60.0
2023-08-21 17:18:15.002578,-57.0
2023-08-21 17:18:15.010266,-55.0
2023-08-21 17:18:15.017955,-50.0
2023-08-21 17:18:15.025643,-45.0
2023-08-21 17:18:15.033331,-38.0
2023-08-21 17:18:15.041020,-28.0
2023-08-21 17:18:15.048708,-19.0
2023-08-21 17:18:15.056396,-9.0
2023-08-21 17:18:15.064085,2.0
2023-08-21 17:18:15.071773,16.0
2023-08-21 17:18:15.079461,28.0
2023-08-21 17:18:15.087150,40.0
2023-08-21 17:18:15.094838,57.0
2023-08-21 17:18:15.102526,72.0
2023-08-21 17:18:15.110215,76.0
2023-08-21 17:18:15.117903,84.0
2023-08-21 17:18:15.125591,96.0
2023-08-21 17:18:15.133280,103.0
2023-08-21 17:18:15.140968,103.0
2023-08-21 17:18:15.148656,91.0
2023-08-21 17:18:15.156345,60.0
2023-08-21 17:18:15.164033,24.0
2023-08-21 17:18:15.171721,-12.0
2023-08-21 17:18:15.179409,-50.0
2023-08-21 17:18:15.187098,-81.0
2023-08-21 17:18:15.194786,-103.0
2023-08-21 17:18:15.202474,-117.0
2023-08-21 17:18:15.210163,-129.0
2023-08-21 17:18:15.217851,-134.0
2023-08-21 17:18:15.225539,-132.0
2023-08-21 17:18:15.233228,-132.0
2023-08-21 17:18:15.240916,-129.0
2023-08-21 17:18:15.248604,-124.0
2023-08-21 17:18:15.256293,-115.0
2023-08-21 17:18:15.263981,-115.0
2023-08-21 17:18:15.271669,-112.0
2023-08-21 17:18:15.279358,-108.0
2023-08-21 17:18:15.287046,-103.0
2023-08-21 17:18:15.294734,-100.0
2023-08-21 17:18:15.302423,-91.0
2023-08-21 17:18:15.310111,-86.0
2023-08-21 17:18:15.317799,-88.0
2023-08-21 17:18:15.325488,-86.0
2023-08-21 17:18:15.333176,-86.0
2023-08-21 17:18:15.340864,-96.0
2023-08-21 17:18:15.348553,-103.0
2023-08-21 17:18:15.356241,-96.0
2023-08-21 17:18:15.363929,-93.0
2023-08-21 17:18:15.371618,-100.0
2023-08-21 17:18:15.379306,-105.0
2023-08-21 17:18:15.386994,-100.0
2023-08-21 17:18:15.394683,-98.0
2023-08-21 17:18:15.402371,-100.0
2023-08-21 17:18:15.410059,-103.0
2023-08-21 17:18:15.417748,-100.0
2023-08-21 17:18:15.425436,-93.0
2023-08-21 17:18:15.433124,-93.0
2023-08-21 17:18:15.440812,-96.0
2023-08-21 17:18:15.448501,-93.0
2023-08-21 17:18:15.456189,-88.0
2023-08-21 17:18:15.463877,-88.0
2023-08-21 17:18:15.471566,-88.0
2023-08-21 17:18:15.479254,-86.0
2023-08-21 17:18:15.486942,-91.0
2023-08-21 17:18:15.494631,-96.0
2023-08-21 17:18:15.502319,-91.0
2023-08-21 17:18:15.510007,-93.0
2023-08-21 17:18:15.517696,-96.0
2023-08-21 17:18:15.525384,-88.0
2023-08-21 17:18:15.533072,-84.0
2023-08-21 17:18:15.540761,-88.0
2023-08-21 17:18:15.548449,-86.0
2023-08-21 17:18:15.556137,-79.0
2023-08-21 17:18:15.563826,-81.0
2023-08-21 17:18:15.571514,-81.0
2023-08-21 17:18:15.579202,-81.0
2023-08-21 17:18:15.586891,-84.0
2023-08-21 17:18:15.594579,-81.0
2023-08-21 17:18:15.602267,-84.0
2023-08-21 17:18:15.609956,-88.0
2023-08-21 17:18:15.617644,-91.0
2023-08-21 17:18:15.625332,-88.0
2023-08-21 17:18:15.633021,-86.0
2023-08-21 17:18:15.640709,-88.0
2023-08-21 17:18:15.648397,-93.0
2023-08-21 17:18:15.656086,-103.0
2023-08-21 17:18:15.663774,-100.0
2023-08-21 17:18:15.671462,-93.0
2023-08-21 17:18:15.679151,-86.0
2023-08-21 17:18:15.686839,-91.0
2023-08-21 17:18:15.694527,-103.0
2023-08-21 17:18:15.702215,-103.0
2023-08-21 17:18:15.709904,-93.0
2023-08-21 17:18:15.717592,-96.0
2023-08-21 17:18:15.725280,-98.0
2023-08-21 17:18:15.732969,-96.0
2023-08-21 17:18:15.740657,-100.0
2023-08-21 17:18:15.748345,-98.0
2023-08-21 17:18:15.756034,-91.0
2023-08-21 17:18:15.763722,-84.0
2023-08-21 17:18:15.771410,-72.0
2023-08-21 17:18:15.779099,-50.0
2023-08-21 17:18:15.786787,-36.0
2023-08-21 17:18:15.794475,-40.0
2023-08-21 17:18:15.802164,-52.0
2023-08-21 17:18:15.809852,-60.0
2023-08-21 17:18:15.817540,-76.0
2023-08-21 17:18:15.825229,-100.0
2023-08-21 17:18:15.832917,-103.0
2023-08-21 17:18:15.840605,-93.0
2023-08-21 17:18:15.848294,-91.0
2023-08-21 17:18:15.855982,-98.0
2023-08-21 17:18:15.863670,-93.0
2023-08-21 17:18:15.871359,-88.0
2023-08-21 17:18:15.879047,-79.0
2023-08-21 17:18:15.886735,21.0
2023-08-21 17:18:15.894424,355.0
2023-08-21 17:18:15.902112,758.0
2023-08-21 17:18:15.909800,751.0
2023-08-21 17:18:15.917489,220.0
2023-08-21 17:18:15.925177,-276.0
2023-08-21 17:18:15.932865,-276.0
2023-08-21 17:18:15.940554,-100.0
2023-08-21 17:18:15.948242,-129.0
2023-08-21 17:18:15.955930,-187.0
2023-08-21 17:18:15.963618,-146.0
2023-08-21 17:18:15.971307,-134.0
2023-08-21 17:18:15.978995,-151.0
2023-08-21 17:18:15.986683,-139.0
2023-08-21 17:18:15.994372,-124.0
2023-08-21 17:18:16.002060,-122.0
2023-08-21 17:18:16.009748,-117.0
2023-08-21 17:18:16.017437,-110.0
2023-08-21 17:18:16.025125,-103.0
2023-08-21 17:18:16.032813,-96.0
2023-08-21 17:18:16.040502,-88.0
2023-08-21 17:18:16.048190,-84.0
2023-08-21 17:18:16.055878,-81.0
2023-08-21 17:18:16.063567,-74.0
2023-08-21 17:18:16.071255,-67.0
2023-08-21 17:18:16.078943,-62.0
2023-08-21 17:18:16.086632,-55.0
2023-08-21 17:18:16.094320,-48.0
2023-08-21 17:18:16.102008,-48.0
2023-08-21 17:18:16.109697,-40.0
2023-08-21 17:18:16.117385,-28.0
2023-08-21 17:18:16.125073,-19.0
2023-08-21 17:18:16.132762,-14.0
2023-08-21 17:18:16.140450,-4.0
2023-08-21 17:18:16.148138,7.0
2023-08-21 17:18:16.155827,24.0
2023-08-21 17:18:16.163515,40.0
2023-08-21 17:18:16.171203,52.0
2023-08-21 17:18:16.178892,64.0
2023-08-21 17:18:16.186580,79.0
2023-08-21 17:18:16.194268,88.0
2023-08-21 17:18:16.201957,100.0
2023-08-21 17:18:16.209645,110.0
2023-08-21 17:18:16.217333,112.0
2023-08-21 17:18:16.225021,96.0
2023-08-21 17:18:16.232710,60.0
2023-08-21 17:18:16.240398,14.0
2023-08-21 17:18:16.248086,-24.0
2023-08-21 17:18:16.255775,-62.0
2023-08-21 17:18:16.263463,-88.0
2023-08-21 17:18:16.271151,-105.0
2023-08-21 17:18:16.278840,-120.0
2023-08-21 17:18:16.286528,-132.0
2023-08-21 17:18:16.294216,-136.0
2023-08-21 17:18:16.301905,-134.0
2023-08-21 17:18:16.309593,-132.0
2023-08-21 17:18:16.317281,-129.0
2023-08-21 17:18:16.324970,-127.0
2023-08-21 17:18:16.332658,-122.0
2023-08-21 17:18:16.340346,-117.0
2023-08-21 17:18:16.348035,-120.0
2023-08-21 17:18:16.355723,-120.0
2023-08-21 17:18:16.363411,-112.0
2023-08-21 17:18:16.371100,-108.0
2023-08-21 17:18:16.378788,-110.0
2023-08-21 17:18:16.386476,-103.0
2023-08-21 17:18:16.394165,-98.0
2023-08-21 17:18:16.401853,-98.0
2023-08-21 17:18:16.409541,-96.0
2023-08-21 17:18:16.417230,-96.0
2023-08-21 17:18:16.424918,-96.0
2023-08-21 17:18:16.432606,-93.0
2023-08-21 17:18:16.440295,-93.0
2023-08-21 17:18:16.447983,-96.0
2023-08-21 17:18:16.455671,-98.0
2023-08-21 17:18:16.463360,-96.0
2023-08-21 17:18:16.471048,-100.0
2023-08-21 17:18:16.478736,-103.0
2023-08-21 17:18:16.486424,-103.0
2023-08-21 17:18:16.494113,-96.0
2023-08-21 17:18:16.501801,-96.0
2023-08-21 17:18:16.509489,-100.0
2023-08-21 17:18:16.517178,-98.0
2023-08-21 17:18:16.524866,-91.0
2023-08-21 17:18:16.532554,-91.0
2023-08-21 17:18:16.540243,-93.0
2023-08-21 17:18:16.547931,-93.0
2023-08-21 17:18:16.555619,-88.0
2023-08-21 17:18:16.563308,-86.0
2023-08-21 17:18:16.570996,-84.0
2023-08-21 17:18:16.578684,-84.0
2023-08-21 17:18:16.586373,-86.0
2023-08-21 17:18:16.594061,-86.0
2023-08-21 17:18:16.601749,-86.0
2023-08-21 17:18:16.609438,-86.0
2023-08-21 17:18:16.617126,-86.0
2023-08-21 17:18:16.624814,-88.0
2023-08-21 17:18:16.632503,-88.0
2023-08-21 17:18:16.640191,-84.0
2023-08-21 17:18:16.647879,-79.0
2023-08-21 17:18:16.655568,-79.0
2023-08-21 17:18:16.663256,-79.0
2023-08-21 17:18:16.670944,-79.0
2023-08-21 17:18:16.678633,-84.0
2023-08-21 17:18:16.686321,-86.0
2023-08-21 17:18:16.694009,-86.0
2023-08-21 17:18:16.701698,-84.0
2023-08-21 17:18:16.709386,-81.0
2023-08-21 17:18:16.717074,-86.0
2023-08-21 17:18:16.724763,-96.0
2023-08-21 17:18:16.732451,-93.0
2023-08-21 17:18:16.740139,-84.0
2023-08-21 17:18:16.747827,-86.0
2023-08-21 17:18:16.755516,-88.0
2023-08-21 17:18:16.763204,-86.0
2023-08-21 17:18:16.770892,-88.0
2023-08-21 17:18:16.778581,-100.0
2023-08-21 17:18:16.786269,-100.0
2023-08-21 17:18:16.793957,-93.0
2023-08-21 17:18:16.801646,-93.0
2023-08-21 17:18:16.809334,-96.0
2023-08-21 17:18:16.817022,-91.0
2023-08-21 17:18:16.824711,-84.0
2023-08-21 17:18:16.832399,-84.0
2023-08-21 17:18:16.840087,-86.0
2023-08-21 17:18:16.847776,-91.0
2023-08-21 17:18:16.855464,-98.0
2023-08-21 17:18:16.863152,-100.0
2023-08-21 17:18:16.870841,-86.0
2023-08-21 17:18:16.878529,-69.0
2023-08-21 17:18:16.886217,-62.0
2023-08-21 17:18:16.893906,-45.0
2023-08-21 17:18:16.901594,-31.0
2023-08-21 17:18:16.909282,-43.0
2023-08-21 17:18:16.916971,-60.0
2023-08-21 17:18:16.924659,-69.0
2023-08-21 17:18:16.932347,-88.0
2023-08-21 17:18:16.940036,-98.0
2023-08-21 17:18:16.947724,-91.0
2023-08-21 17:18:16.955412,-86.0
2023-08-21 17:18:16.963101,-88.0
2023-08-21 17:18:16.970789,-88.0
2023-08-21 17:18:16.978477,-88.0
2023-08-21 17:18:16.986166,-88.0
2023-08-21 17:18:16.993854,-62.0
2023-08-21 17:18:17.001542,110.0
2023-08-21 17:18:17.009230,501.0
2023-08-21 17:18:17.016919,813.0
2023-08-21 17:18:17.024607,607.0
2023-08-21 17:18:17.032295,7.0
2023-08-21 17:18:17.039984,-331.0
2023-08-21 17:18:17.047672,-208.0
2023-08-21 17:18:17.055360,-96.0
2023-08-21 17:18:17.063049,-163.0
2023-08-21 17:18:17.070737,-177.0
2023-08-21 17:18:17.078425,-134.0
2023-08-21 17:18:17.086114,-134.0
2023-08-21 17:18:17.093802,-141.0
2023-08-21 17:18:17.101490,-122.0
2023-08-21 17:18:17.109179,-115.0
2023-08-21 17:18:17.116867,-115.0
2023-08-21 17:18:17.124555,-105.0
2023-08-21 17:18:17.132244,-100.0
2023-08-21 17:18:17.139932,-100.0
2023-08-21 17:18:17.147620,-91.0
2023-08-21 17:18:17.155309,-79.0
2023-08-21 17:18:17.162997,-76.0
2023-08-21 17:18:17.170685,-74.0
2023-08-21 17:18:17.178374,-69.0
2023-08-21 17:18:17.186062,-62.0
2023-08-21 17:18:17.193750,-57.0
2023-08-21 17:18:17.201439,-55.0
2023-08-21 17:18:17.209127,-45.0
2023-08-21 17:18:17.216815,-40.0
2023-08-21 17:18:17.224504,-40.0
2023-08-21 17:18:17.232192,-36.0
2023-08-21 17:18:17.239880,-21.0
2023-08-21 17:18:17.247569,-9.0
2023-08-21 17:18:17.255257,-4.0
2023-08-21 17:18:17.262945,7.0
2023-08-21 17:18:17.270633,24.0
2023-08-21 17:18:17.278322,38.0
2023-08-21 17:18:17.286010,57.0
2023-08-21 17:18:17.293698,76.0
2023-08-21 17:18:17.301387,86.0
2023-08-21 17:18:17.309075,91.0
2023-08-21 17:18:17.316763,96.0
2023-08-21 17:18:17.324452,105.0
2023-08-21 17:18:17.332140,103.0
2023-08-21 17:18:17.339828,79.0
2023-08-21 17:18:17.347517,45.0
2023-08-21 17:18:17.355205,0.0
2023-08-21 17:18:17.362893,-40.0
2023-08-21 17:18:17.370582,-72.0
2023-08-21 17:18:17.378270,-103.0
2023-08-21 17:18:17.385958,-129.0
2023-08-21 17:18:17.393647,-141.0
2023-08-21 17:18:17.401335,-148.0
2023-08-21 17:18:17.409023,-151.0
2023-08-21 17:18:17.416712,-146.0
2023-08-21 17:18:17.424400,-139.0
2023-08-21 17:18:17.432088,-134.0
2023-08-21 17:18:17.439777,-134.0
2023-08-21 17:18:17.447465,-134.0
2023-08-21 17:18:17.455153,-132.0
2023-08-21 17:18:17.462842,-129.0
2023-08-21 17:18:17.470530,-124.0
2023-08-21 17:18:17.478218,-122.0
2023-08-21 17:18:17.485907,-115.0
2023-08-21 17:18:17.493595,-110.0
2023-08-21 17:18:17.501283,-110.0
2023-08-21 17:18:17.508972,-105.0
2023-08-21 17:18:17.516660,-103.0
2023-08-21 17:18:17.524348,-105.0
2023-08-21 17:18:17.532036,-105.0
2023-08-21 17:18:17.539725,-105.0
2023-08-21 17:18:17.547413,-103.0
2023-08-21 17:18:17.555101,-100.0
2023-08-21 17:18:17.562790,-100.0
2023-08-21 17:18:17.570478,-105.0
2023-08-21 17:18:17.578166,-108.0
2023-08-21 17:18:17.585855,-103.0
2023-08-21 17:18:17.593543,-103.0
2023-08-21 17:18:17.601231,-100.0
2023-08-21 17:18:17.608920,-100.0
2023-08-21 17:18:17.616608,-103.0
2023-08-21 17:18:17.624296,-105.0
2023-08-21 17:18:17.631985,-103.0
2023-08-21 17:18:17.639673,-98.0
2023-08-21 17:18:17.647361,-93.0
2023-08-21 17:18:17.655050,-88.0
2023-08-21 17:18:17.662738,-93.0
2023-08-21 17:18:17.670426,-93.0
2023-08-21 17:18:17.678115,-86.0
2023-08-21 17:18:17.685803,-86.0
2023-08-21 17:18:17.693491,-91.0
2023-08-21 17:18:17.701180,-88.0
2023-08-21 17:18:17.708868,-91.0
2023-08-21 17:18:17.716556,-96.0
2023-08-21 17:18:17.724245,-96.0
2023-08-21 17:18:17.731933,-93.0
2023-08-21 17:18:17.739621,-93.0
2023-08-21 17:18:17.747310,-93.0
2023-08-21 17:18:17.754998,-84.0
2023-08-21 17:18:17.762686,-81.0
2023-08-21 17:18:17.770375,-86.0
2023-08-21 17:18:17.778063,-88.0
2023-08-21 17:18:17.785751,-86.0
2023-08-21 17:18:17.793439,-84.0
2023-08-21 17:18:17.801128,-81.0
2023-08-21 17:18:17.808816,-79.0
2023-08-21 17:18:17.816504,-84.0
2023-08-21 17:18:17.824193,-91.0
2023-08-21 17:18:17.831881,-91.0
2023-08-21 17:18:17.839569,-86.0
2023-08-21 17:18:17.847258,-86.0
2023-08-21 17:18:17.854946,-91.0
2023-08-21 17:18:17.862634,-93.0
2023-08-21 17:18:17.870323,-91.0
2023-08-21 17:18:17.878011,-86.0
2023-08-21 17:18:17.885699,-84.0
2023-08-21 17:18:17.893388,-86.0
2023-08-21 17:18:17.901076,-98.0
2023-08-21 17:18:17.908764,-103.0
2023-08-21 17:18:17.916453,-93.0
2023-08-21 17:18:17.924141,-88.0
2023-08-21 17:18:17.931829,-88.0
2023-08-21 17:18:17.939518,-88.0
2023-08-21 17:18:17.947206,-86.0
2023-08-21 17:18:17.954894,-86.0
2023-08-21 17:18:17.962583,-76.0
2023-08-21 17:18:17.970271,-48.0
2023-08-21 17:18:17.977959,-24.0
2023-08-21 17:18:17.985648,-31.0
2023-08-21 17:18:17.993336,-55.0
2023-08-21 17:18:18.001024,-64.0
2023-08-21 17:18:18.008713,-76.0
2023-08-21 17:18:18.016401,-93.0
2023-08-21 17:18:18.024089,-91.0
2023-08-21 17:18:18.031778,-86.0
2023-08-21 17:18:18.039466,-88.0
2023-08-21 17:18:18.047154,-81.0
2023-08-21 17:18:18.054842,-76.0
2023-08-21 17:18:18.062531,-76.0
2023-08-21 17:18:18.070219,-55.0
2023-08-21 17:18:18.077907,60.0
2023-08-21 17:18:18.085596,396.0
2023-08-21 17:18:18.093284,789.0
2023-08-21 17:18:18.100972,732.0
2023-08-21 17:18:18.108661,153.0
2023-08-21 17:18:18.116349,-302.0
2023-08-21 17:18:18.124037,-247.0
2023-08-21 17:18:18.131726,-88.0
2023-08-21 17:18:18.139414,-134.0
2023-08-21 17:18:18.147102,-165.0
2023-08-21 17:18:18.154791,-120.0
2023-08-21 17:18:18.162479,-120.0
2023-08-21 17:18:18.170167,-134.0
2023-08-21 17:18:18.177856,-115.0
2023-08-21 17:18:18.185544,-103.0
2023-08-21 17:18:18.193232,-105.0
2023-08-21 17:18:18.200921,-100.0
2023-08-21 17:18:18.208609,-93.0
2023-08-21 17:18:18.216297,-86.0
2023-08-21 17:18:18.223986,-81.0
2023-08-21 17:18:18.231674,-79.0
2023-08-21 17:18:18.239362,-69.0
2023-08-21 17:18:18.247051,-62.0
2023-08-21 17:18:18.254739,-62.0
2023-08-21 17:18:18.262427,-57.0
2023-08-21 17:18:18.270116,-50.0
2023-08-21 17:18:18.277804,-45.0
2023-08-21 17:18:18.285492,-40.0
2023-08-21 17:18:18.293180,-33.0
2023-08-21 17:18:18.300869,-24.0
2023-08-21 17:18:18.308557,-19.0
2023-08-21 17:18:18.316245,-12.0
2023-08-21 17:18:18.323934,0.0
2023-08-21 17:18:18.331622,12.0
2023-08-21 17:18:18.339310,26.0
2023-08-21 17:18:18.346999,38.0
2023-08-21 17:18:18.354687,50.0
2023-08-21 17:18:18.362375,62.0
2023-08-21 17:18:18.370064,74.0
2023-08-21 17:18:18.377752,86.0
2023-08-21 17:18:18.385440,98.0
2023-08-21 17:18:18.393129,110.0
2023-08-21 17:18:18.400817,117.0
2023-08-21 17:18:18.408505,112.0
2023-08-21 17:18:18.416194,96.0
2023-08-21 17:18:18.423882,69.0
2023-08-21 17:18:18.431570,33.0
2023-08-21 17:18:18.439259,-9.0
2023-08-21 17:18:18.446947,-52.0
2023-08-21 17:18:18.454635,-86.0
2023-08-21 17:18:18.462324,-100.0
2023-08-21 17:18:18.470012,-112.0
2023-08-21 17:18:18.477700,-129.0
2023-08-21 17:18:18.485389,-139.0
2023-08-21 17:18:18.493077,-139.0
2023-08-21 17:18:18.500765,-139.0
2023-08-21 17:18:18.508454,-134.0
2023-08-21 17:18:18.516142,-124.0
2023-08-21 17:18:18.523830,-117.0
2023-08-21 17:18:18.531519,-117.0
2023-08-21 17:18:18.539207,-115.0
2023-08-21 17:18:18.546895,-108.0
2023-08-21 17:18:18.554583,-98.0
2023-08-21 17:18:18.562272,-93.0
2023-08-21 17:18:18.569960,-91.0
2023-08-21 17:18:18.577648,-91.0
2023-08-21 17:18:18.585337,-91.0
2023-08-21 17:18:18.593025,-88.0
2023-08-21 17:18:18.600713,-81.0
2023-08-21 17:18:18.608402,-76.0
2023-08-21 17:18:18.616090,-79.0
2023-08-21 17:18:18.623778,-86.0
2023-08-21 17:18:18.631467,-86.0
2023-08-21 17:18:18.639155,-86.0
2023-08-21 17:18:18.646843,-84.0
2023-08-21 17:18:18.654532,-81.0
2023-08-21 17:18:18.662220,-81.0
2023-08-21 17:18:18.669908,-84.0
2023-08-21 17:18:18.677597,-84.0
2023-08-21 17:18:18.685285,-86.0
2023-08-21 17:18:18.692973,-91.0
2023-08-21 17:18:18.700662,-91.0
2023-08-21 17:18:18.708350,-88.0
2023-08-21 17:18:18.716038,-84.0
2023-08-21 17:18:18.723727,-81.0
2023-08-21 17:18:18.731415,-84.0
2023-08-21 17:18:18.739103,-88.0
2023-08-21 17:18:18.746792,-86.0
2023-08-21 17:18:18.754480,-84.0
2023-08-21 17:18:18.762168,-84.0
2023-08-21 17:18:18.769857,-84.0
2023-08-21 17:18:18.777545,-81.0
2023-08-21 17:18:18.785233,-79.0
2023-08-21 17:18:18.792922,-76.0
2023-08-21 17:18:18.800610,-76.0
2023-08-21 17:18:18.808298,-79.0
2023-08-21 17:18:18.815986,-76.0
2023-08-21 17:18:18.823675,-74.0
2023-08-21 17:18:18.831363,-76.0
2023-08-21 17:18:18.839051,-76.0
2023-08-21 17:18:18.846740,-79.0
2023-08-21 17:18:18.854428,-79.0
2023-08-21 17:18:18.862116,-81.0
2023-08-21 17:18:18.869805,-84.0
2023-08-21 17:18:18.877493,-86.0
2023-08-21 17:18:18.885181,-84.0
2023-08-21 17:18:18.892870,-86.0
2023-08-21 17:18:18.900558,-86.0
2023-08-21 17:18:18.908246,-84.0
2023-08-21 17:18:18.915935,-84.0
2023-08-21 17:18:18.923623,-79.0
2023-08-21 17:18:18.931311,-76.0
2023-08-21 17:18:18.939000,-79.0
2023-08-21 17:18:18.946688,-79.0
2023-08-21 17:18:18.954376,-76.0
2023-08-21 17:18:18.962065,-74.0
2023-08-21 17:18:18.969753,-72.0
2023-08-21 17:18:18.977441,-72.0
2023-08-21 17:18:18.985130,-72.0
2023-08-21 17:18:18.992818,-69.0
2023-08-21 17:18:19.000506,-67.0
2023-08-21 17:18:19.008195,-67.0
2023-08-21 17:18:19.015883,-69.0
2023-08-21 17:18:19.023571,-74.0
2023-08-21 17:18:19.031260,-81.0
2023-08-21 17:18:19.038948,-76.0
2023-08-21 17:18:19.046636,-72.0
2023-08-21 17:18:19.054325,-67.0
2023-08-21 17:18:19.062013,-60.0
2023-08-21 17:18:19.069701,-48.0
2023-08-21 17:18:19.077389,-24.0
2023-08-21 17:18:19.085078,-7.0
2023-08-21 17:18:19.092766,-16.0
2023-08-21 17:18:19.100454,-36.0
2023-08-21 17:18:19.108143,-45.0
2023-08-21 17:18:19.115831,-64.0
2023-08-21 17:18:19.123519,-79.0
2023-08-21 17:18:19.131208,-69.0
2023-08-21 17:18:19.138896,-64.0
2023-08-21 17:18:19.146584,-69.0
2023-08-21 17:18:19.154273,-62.0
2023-08-21 17:18:19.161961,-55.0
2023-08-21 17:18:19.169649,-57.0
2023-08-21 17:18:19.177338,-36.0
2023-08-21 17:18:19.185026,124.0
2023-08-21 17:18:19.192714,501.0
2023-08-21 17:18:19.200403,823.0
2023-08-21 17:18:19.208091,650.0
2023-08-21 17:18:19.215779,67.0
2023-08-21 17:18:19.223468,-295.0
2023-08-21 17:18:19.231156,-192.0
2023-08-21 17:18:19.238844,-74.0
2023-08-21 17:18:19.246533,-141.0
2023-08-21 17:18:19.254221,-158.0
2023-08-21 17:18:19.261909,-110.0
2023-08-21 17:18:19.269598,-108.0
2023-08-21 17:18:19.277286,-120.0
2023-08-21 17:18:19.284974,-103.0
2023-08-21 17:18:19.292663,-93.0
2023-08-21 17:18:19.300351,-96.0
2023-08-21 17:18:19.308039,-86.0
2023-08-21 17:18:19.315728,-74.0
2023-08-21 17:18:19.323416,-72.0
2023-08-21 17:18:19.331104,-72.0
2023-08-21 17:18:19.338792,-69.0
2023-08-21 17:18:19.346481,-60.0
2023-08-21 17:18:19.354169,-48.0
2023-08-21 17:18:19.361857,-43.0
2023-08-21 17:18:19.369546,-43.0
2023-08-21 17:18:19.377234,-43.0
2023-08-21 17:18:19.384922,-45.0
2023-08-21 17:18:19.392611,-38.0
2023-08-21 17:18:19.400299,-26.0
2023-08-21 17:18:19.407987,-19.0
2023-08-21 17:18:19.415676,-14.0
2023-08-21 17:18:19.423364,-9.0
2023-08-21 17:18:19.431052,0.0
2023-08-21 17:18:19.438741,12.0
2023-08-21 17:18:19.446429,24.0
2023-08-21 17:18:19.454117,43.0
2023-08-21 17:18:19.461806,57.0
2023-08-21 17:18:19.469494,69.0
2023-08-21 17:18:19.477182,86.0
2023-08-21 17:18:19.484871,100.0
2023-08-21 17:18:19.492559,112.0
2023-08-21 17:18:19.500247,124.0
2023-08-21 17:18:19.507936,132.0
2023-08-21 17:18:19.515624,127.0
2023-08-21 17:18:19.523312,105.0
2023-08-21 17:18:19.531001,76.0
2023-08-21 17:18:19.538689,43.0
2023-08-21 17:18:19.546377,4.0
2023-08-21 17:18:19.554066,-36.0
2023-08-21 17:18:19.561754,-74.0
2023-08-21 17:18:19.569442,-100.0
2023-08-21 17:18:19.577131,-108.0
2023-08-21 17:18:19.584819,-112.0
2023-08-21 17:18:19.592507,-112.0
2023-08-21 17:18:19.600195,-110.0
2023-08-21 17:18:19.607884,-115.0
2023-08-21 17:18:19.615572,-117.0
2023-08-21 17:18:19.623260,-105.0
2023-08-21 17:18:19.630949,-100.0
2023-08-21 17:18:19.638637,-100.0
2023-08-21 17:18:19.646325,-91.0
2023-08-21 17:18:19.654014,-88.0
2023-08-21 17:18:19.661702,-88.0
2023-08-21 17:18:19.669390,-81.0
2023-08-21 17:18:19.677079,-79.0
2023-08-21 17:18:19.684767,-76.0
2023-08-21 17:18:19.692455,-76.0
2023-08-21 17:18:19.700144,-79.0
2023-08-21 17:18:19.707832,-76.0
2023-08-21 17:18:19.715520,-69.0
2023-08-21 17:18:19.723209,-69.0
2023-08-21 17:18:19.730897,-69.0
2023-08-21 17:18:19.738585,-72.0
2023-08-21 17:18:19.746274,-81.0
2023-08-21 17:18:19.753962,-81.0
2023-08-21 17:18:19.761650,-76.0
2023-08-21 17:18:19.769339,-76.0
2023-08-21 17:18:19.777027,-76.0
2023-08-21 17:18:19.784715,-76.0
2023-08-21 17:18:19.792404,-76.0
2023-08-21 17:18:19.800092,-79.0
2023-08-21 17:18:19.807780,-76.0
2023-08-21 17:18:19.815469,-74.0
2023-08-21 17:18:19.823157,-79.0
2023-08-21 17:18:19.830845,-81.0
2023-08-21 17:18:19.838534,-79.0
2023-08-21 17:18:19.846222,-79.0
2023-08-21 17:18:19.853910,-79.0
2023-08-21 17:18:19.861598,-76.0
2023-08-21 17:18:19.869287,-74.0
2023-08-21 17:18:19.876975,-81.0
2023-08-21 17:18:19.884663,-86.0
2023-08-21 17:18:19.892352,-81.0
2023-08-21 17:18:19.900040,-84.0
2023-08-21 17:18:19.907728,-86.0
2023-08-21 17:18:19.915417,-79.0
2023-08-21 17:18:19.923105,-81.0
2023-08-21 17:18:19.930793,-93.0
2023-08-21 17:18:19.938482,-91.0
2023-08-21 17:18:19.946170,-84.0
2023-08-21 17:18:19.953858,-86.0
2023-08-21 17:18:19.961547,-88.0
2023-08-21 17:18:19.969235,-84.0
2023-08-21 17:18:19.976923,-84.0
2023-08-21 17:18:19.984612,-86.0
2023-08-21 17:18:19.992300,-84.0
2023-08-21 17:18:19.999988,-76.0
2023-08-21 17:18:20.007677,-76.0
2023-08-21 17:18:20.015365,-81.0
2023-08-21 17:18:20.023053,-84.0
2023-08-21 17:18:20.030742,-79.0
2023-08-21 17:18:20.038430,-74.0
2023-08-21 17:18:20.046118,-72.0
2023-08-21 17:18:20.053807,-76.0
2023-08-21 17:18:20.061495,-81.0
2023-08-21 17:18:20.069183,-76.0
2023-08-21 17:18:20.076872,-69.0
2023-08-21 17:18:20.084560,-69.0
2023-08-21 17:18:20.092248,-72.0
2023-08-21 17:18:20.099937,-72.0
2023-08-21 17:18:20.107625,-72.0
2023-08-21 17:18:20.115313,-72.0
2023-08-21 17:18:20.123001,-67.0
2023-08-21 17:18:20.130690,-62.0
2023-08-21 17:18:20.138378,-67.0
2023-08-21 17:18:20.146066,-76.0
2023-08-21 17:18:20.153755,-81.0
2023-08-21 17:18:20.161443,-84.0
2023-08-21 17:18:20.169131,-84.0
2023-08-21 17:18:20.176820,-79.0
2023-08-21 17:18:20.184508,-74.0
2023-08-21 17:18:20.192196,-79.0
2023-08-21 17:18:20.199885,-81.0
2023-08-21 17:18:20.207573,-67.0
2023-08-21 17:18:20.215261,-40.0
2023-08-21 17:18:20.222950,-28.0
2023-08-21 17:18:20.230638,-45.0
2023-08-21 17:18:20.238326,-74.0
2023-08-21 17:18:20.246015,-88.0
2023-08-21 17:18:20.253703,-100.0
2023-08-21 17:18:20.261391,-105.0
2023-08-21 17:18:20.269080,-96.0
2023-08-21 17:18:20.276768,-91.0
2023-08-21 17:18:20.284456,-96.0
2023-08-21 17:18:20.292145,-93.0
2023-08-21 17:18:20.299833,-88.0
2023-08-21 17:18:20.307521,-81.0
2023-08-21 17:18:20.315210,-33.0
2023-08-21 17:18:20.322898,187.0
2023-08-21 17:18:20.330586,604.0
2023-08-21 17:18:20.338275,818.0
2023-08-21 17:18:20.345963,444.0
2023-08-21 17:18:20.353651,-163.0
2023-08-21 17:18:20.361340,-333.0
2023-08-21 17:18:20.369028,-146.0
2023-08-21 17:18:20.376716,-105.0
2023-08-21 17:18:20.384404,-187.0
2023-08-21 17:18:20.392093,-163.0
2023-08-21 17:18:20.399781,-122.0
2023-08-21 17:18:20.407469,-141.0
2023-08-21 17:18:20.415158,-144.0
2023-08-21 17:18:20.422846,-127.0
2023-08-21 17:18:20.430534,-124.0
2023-08-21 17:18:20.438223,-120.0
2023-08-21 17:18:20.445911,-105.0
2023-08-21 17:18:20.453599,-98.0
2023-08-21 17:18:20.461288,-96.0
2023-08-21 17:18:20.468976,-96.0
2023-08-21 17:18:20.476664,-91.0
2023-08-21 17:18:20.484353,-81.0
2023-08-21 17:18:20.492041,-74.0
2023-08-21 17:18:20.499729,-69.0
2023-08-21 17:18:20.507418,-64.0
2023-08-21 17:18:20.515106,-55.0
2023-08-21 17:18:20.522794,-50.0
2023-08-21 17:18:20.530483,-45.0
2023-08-21 17:18:20.538171,-43.0
2023-08-21 17:18:20.545859,-33.0
2023-08-21 17:18:20.553548,-24.0
2023-08-21 17:18:20.561236,-14.0
2023-08-21 17:18:20.568924,-4.0
2023-08-21 17:18:20.576613,7.0
2023-08-21 17:18:20.584301,21.0
2023-08-21 17:18:20.591989,33.0
2023-08-21 17:18:20.599678,50.0
2023-08-21 17:18:20.607366,67.0
2023-08-21 17:18:20.615054,79.0
2023-08-21 17:18:20.622743,86.0
2023-08-21 17:18:20.630431,98.0
2023-08-21 17:18:20.638119,110.0
2023-08-21 17:18:20.645807,115.0
2023-08-21 17:18:20.653496,112.0
2023-08-21 17:18:20.661184,88.0
2023-08-21 17:18:20.668872,48.0
2023-08-21 17:18:20.676561,12.0
2023-08-21 17:18:20.684249,-26.0
2023-08-21 17:18:20.691937,-72.0
2023-08-21 17:18:20.699626,-108.0
2023-08-21 17:18:20.707314,-124.0
2023-08-21 17:18:20.715002,-136.0
2023-08-21 17:18:20.722691,-141.0
2023-08-21 17:18:20.730379,-139.0
2023-08-21 17:18:20.738067,-141.0
2023-08-21 17:18:20.745756,-139.0
2023-08-21 17:18:20.753444,-129.0
2023-08-21 17:18:20.761132,-124.0
2023-08-21 17:18:20.768821,-122.0
2023-08-21 17:18:20.776509,-117.0
2023-08-21 17:18:20.784197,-110.0
2023-08-21 17:18:20.791886,-105.0
2023-08-21 17:18:20.799574,-100.0
2023-08-21 17:18:20.807262,-98.0
2023-08-21 17:18:20.814951,-93.0
2023-08-21 17:18:20.822639,-93.0
2023-08-21 17:18:20.830327,-93.0
2023-08-21 17:18:20.838016,-86.0
2023-08-21 17:18:20.845704,-81.0
2023-08-21 17:18:20.853392,-81.0
2023-08-21 17:18:20.861081,-88.0
2023-08-21 17:18:20.868769,-88.0
2023-08-21 17:18:20.876457,-88.0
2023-08-21 17:18:20.884146,-93.0
2023-08-21 17:18:20.891834,-100.0
2023-08-21 17:18:20.899522,-100.0
2023-08-21 17:18:20.907210,-98.0
2023-08-21 17:18:20.914899,-103.0
2023-08-21 17:18:20.922587,-108.0
2023-08-21 17:18:20.930275,-105.0
2023-08-21 17:18:20.937964,-105.0
2023-08-21 17:18:20.945652,-103.0
2023-08-21 17:18:20.953340,-103.0
2023-08-21 17:18:20.961029,-103.0
2023-08-21 17:18:20.968717,-100.0
2023-08-21 17:18:20.976405,-96.0
2023-08-21 17:18:20.984094,-93.0
2023-08-21 17:18:20.991782,-93.0
2023-08-21 17:18:20.999470,-91.0
2023-08-21 17:18:21.007159,-91.0
2023-08-21 17:18:21.014847,-96.0
2023-08-21 17:18:21.022535,-93.0
2023-08-21 17:18:21.030224,-91.0
2023-08-21 17:18:21.037912,-93.0
2023-08-21 17:18:21.045600,-96.0
2023-08-21 17:18:21.053289,-96.0
2023-08-21 17:18:21.060977,-96.0
2023-08-21 17:18:21.068665,-96.0
2023-08-21 17:18:21.076354,-91.0
2023-08-21 17:18:21.084042,-88.0
2023-08-21 17:18:21.091730,-91.0
2023-08-21 17:18:21.099419,-88.0
2023-08-21 17:18:21.107107,-86.0
2023-08-21 17:18:21.114795,-84.0
2023-08-21 17:18:21.122484,-81.0
2023-08-21 17:18:21.130172,-79.0
2023-08-21 17:18:21.137860,-76.0
2023-08-21 17:18:21.145549,-79.0
2023-08-21 17:18:21.153237,-86.0
2023-08-21 17:18:21.160925,-84.0
2023-08-21 17:18:21.168613,-76.0
2023-08-21 17:18:21.176302,-76.0
2023-08-21 17:18:21.183990,-79.0
2023-08-21 17:18:21.191678,-76.0
2023-08-21 17:18:21.199367,-72.0
2023-08-21 17:18:21.207055,-69.0
2023-08-21 17:18:21.214743,-72.0
2023-08-21 17:18:21.222432,-74.0
2023-08-21 17:18:21.230120,-79.0
2023-08-21 17:18:21.237808,-76.0
2023-08-21 17:18:21.245497,-76.0
2023-08-21 17:18:21.253185,-76.0
2023-08-21 17:18:21.260873,-74.0
2023-08-21 17:18:21.268562,-72.0
2023-08-21 17:18:21.276250,-69.0
2023-08-21 17:18:21.283938,-67.0
2023-08-21 17:18:21.291627,-69.0
2023-08-21 17:18:21.299315,-69.0
2023-08-21 17:18:21.307003,-64.0
2023-08-21 17:18:21.314692,-60.0
2023-08-21 17:18:21.322380,-43.0
2023-08-21 17:18:21.330068,-19.0
2023-08-21 17:18:21.337757,-7.0
2023-08-21 17:18:21.345445,-19.0
2023-08-21 17:18:21.353133,-36.0
2023-08-21 17:18:21.360822,-43.0
2023-08-21 17:18:21.368510,-57.0
2023-08-21 17:18:21.376198,-74.0
2023-08-21 17:18:21.383887,-72.0
2023-08-21 17:18:21.391575,-67.0
2023-08-21 17:18:21.399263,-79.0
2023-08-21 17:18:21.406952,-84.0
2023-08-21 17:18:21.414640,-74.0
2023-08-21 17:18:21.422328,-64.0
2023-08-21 17:18:21.430016,-40.0
2023-08-21 17:18:21.437705,117.0
2023-08-21 17:18:21.445393,496.0
2023-08-21 17:18:21.453081,823.0
2023-08-21 17:18:21.460770,655.0
2023-08-21 17:18:21.468458,60.0
2023-08-21 17:18:21.476146,-314.0
2023-08-21 17:18:21.483835,-206.0
2023-08-21 17:18:21.491523,-79.0
2023-08-21 17:18:21.499211,-146.0
2023-08-21 17:18:21.506900,-163.0
2023-08-21 17:18:21.514588,-117.0
2023-08-21 17:18:21.522276,-120.0
2023-08-21 17:18:21.529965,-124.0
2023-08-21 17:18:21.537653,-105.0
2023-08-21 17:18:21.545341,-103.0
2023-08-21 17:18:21.553030,-105.0
2023-08-21 17:18:21.560718,-93.0
2023-08-21 17:18:21.568406,-86.0
2023-08-21 17:18:21.576095,-81.0
2023-08-21 17:18:21.583783,-74.0
2023-08-21 17:18:21.591471,-72.0
2023-08-21 17:18:21.599160,-67.0
2023-08-21 17:18:21.606848,-62.0
2023-08-21 17:18:21.614536,-57.0
2023-08-21 17:18:21.622225,-50.0
2023-08-21 17:18:21.629913,-43.0
2023-08-21 17:18:21.637601,-45.0
2023-08-21 17:18:21.645290,-43.0
2023-08-21 17:18:21.652978,-33.0
2023-08-21 17:18:21.660666,-28.0
2023-08-21 17:18:21.668355,-19.0
2023-08-21 17:18:21.676043,-9.0
2023-08-21 17:18:21.683731,-4.0
2023-08-21 17:18:21.691419,4.0
2023-08-21 17:18:21.699108,21.0
2023-08-21 17:18:21.706796,38.0
2023-08-21 17:18:21.714484,50.0
2023-08-21 17:18:21.722173,62.0
2023-08-21 17:18:21.729861,79.0
2023-08-21 17:18:21.737549,96.0
2023-08-21 17:18:21.745238,108.0
2023-08-21 17:18:21.752926,117.0
2023-08-21 17:18:21.760614,124.0
2023-08-21 17:18:21.768303,120.0
2023-08-21 17:18:21.775991,100.0
2023-08-21 17:18:21.783679,72.0
2023-08-21 17:18:21.791368,33.0
2023-08-21 17:18:21.799056,-4.0
2023-08-21 17:18:21.806744,-38.0
2023-08-21 17:18:21.814433,-69.0
2023-08-21 17:18:21.822121,-96.0
2023-08-21 17:18:21.829809,-110.0
2023-08-21 17:18:21.837498,-117.0
2023-08-21 17:18:21.845186,-122.0
2023-08-21 17:18:21.852874,-122.0
2023-08-21 17:18:21.860563,-129.0
2023-08-21 17:18:21.868251,-134.0
2023-08-21 17:18:21.875939,-122.0
2023-08-21 17:18:21.883628,-115.0
2023-08-21 17:18:21.891316,-117.0
2023-08-21 17:18:21.899004,-120.0
2023-08-21 17:18:21.906693,-117.0
2023-08-21 17:18:21.914381,-112.0
2023-08-21 17:18:21.922069,-105.0
2023-08-21 17:18:21.929758,-103.0
2023-08-21 17:18:21.937446,-96.0
2023-08-21 17:18:21.945134,-91.0
2023-08-21 17:18:21.952822,-96.0
2023-08-21 17:18:21.960511,-96.0
2023-08-21 17:18:21.968199,-86.0
2023-08-21 17:18:21.975887,-84.0
2023-08-21 17:18:21.983576,-88.0
2023-08-21 17:18:21.991264,-91.0
2023-08-21 17:18:21.998952,-93.0
2023-08-21 17:18:22.006641,-100.0
2023-08-21 17:18:22.014329,-100.0
2023-08-21 17:18:22.022017,-96.0
2023-08-21 17:18:22.029706,-96.0
2023-08-21 17:18:22.037394,-96.0
2023-08-21 17:18:22.045082,-96.0
2023-08-21 17:18:22.052771,-98.0
2023-08-21 17:18:22.060459,-98.0
2023-08-21 17:18:22.068147,-91.0
2023-08-21 17:18:22.075836,-86.0
2023-08-21 17:18:22.083524,-91.0
2023-08-21 17:18:22.091212,-96.0
2023-08-21 17:18:22.098901,-96.0
2023-08-21 17:18:22.106589,-93.0
2023-08-21 17:18:22.114277,-96.0
2023-08-21 17:18:22.121966,-98.0
2023-08-21 17:18:22.129654,-93.0
2023-08-21 17:18:22.137342,-98.0
2023-08-21 17:18:22.145031,-103.0
2023-08-21 17:18:22.152719,-100.0
2023-08-21 17:18:22.160407,-93.0
2023-08-21 17:18:22.168096,-93.0
2023-08-21 17:18:22.175784,-96.0
2023-08-21 17:18:22.183472,-96.0
2023-08-21 17:18:22.191161,-91.0
2023-08-21 17:18:22.198849,-86.0
2023-08-21 17:18:22.206537,-84.0
2023-08-21 17:18:22.214225,-88.0
2023-08-21 17:18:22.221914,-84.0
2023-08-21 17:18:22.229602,-81.0
2023-08-21 17:18:22.237290,-81.0
2023-08-21 17:18:22.244979,-79.0
2023-08-21 17:18:22.252667,-76.0
2023-08-21 17:18:22.260355,-79.0
2023-08-21 17:18:22.268044,-79.0
2023-08-21 17:18:22.275732,-76.0
2023-08-21 17:18:22.283420,-74.0
2023-08-21 17:18:22.291109,-69.0
2023-08-21 17:18:22.298797,-69.0
2023-08-21 17:18:22.306485,-69.0
2023-08-21 17:18:22.314174,-67.0
2023-08-21 17:18:22.321862,-67.0
2023-08-21 17:18:22.329550,-67.0
2023-08-21 17:18:22.337239,-62.0
2023-08-21 17:18:22.344927,-62.0
2023-08-21 17:18:22.352615,-64.0
2023-08-21 17:18:22.360304,-60.0
2023-08-21 17:18:22.367992,-60.0
2023-08-21 17:18:22.375680,-67.0
2023-08-21 17:18:22.383369,-64.0
2023-08-21 17:18:22.391057,-64.0
2023-08-21 17:18:22.398745,-72.0
2023-08-21 17:18:22.406434,-84.0
2023-08-21 17:18:22.414122,-91.0
2023-08-21 17:18:22.421810,-86.0
2023-08-21 17:18:22.429499,-76.0
2023-08-21 17:18:22.437187,-72.0
2023-08-21 17:18:22.444875,-64.0
2023-08-21 17:18:22.452564,-40.0
2023-08-21 17:18:22.460252,-19.0
2023-08-21 17:18:22.467940,-24.0
2023-08-21 17:18:22.475628,-45.0
2023-08-21 17:18:22.483317,-55.0
2023-08-21 17:18:22.491005,-62.0
2023-08-21 17:18:22.498693,-81.0
2023-08-21 17:18:22.506382,-88.0
2023-08-21 17:18:22.514070,-79.0
2023-08-21 17:18:22.521758,-74.0
2023-08-21 17:18:22.529447,-76.0
2023-08-21 17:18:22.537135,-79.0
2023-08-21 17:18:22.544823,-76.0
2023-08-21 17:18:22.552512,-62.0
2023-08-21 17:18:22.560200,19.0
2023-08-21 17:18:22.567888,309.0
2023-08-21 17:18:22.575577,715.0
2023-08-21 17:18:22.583265,785.0
2023-08-21 17:18:22.590953,321.0
2023-08-21 17:18:22.598642,-208.0
2023-08-21 17:18:22.606330,-283.0
2023-08-21 17:18:22.614018,-108.0
2023-08-21 17:18:22.621707,-110.0
2023-08-21 17:18:22.629395,-175.0
2023-08-21 17:18:22.637083,-144.0
2023-08-21 17:18:22.644772,-124.0
2023-08-21 17:18:22.652460,-141.0
2023-08-21 17:18:22.660148,-129.0
2023-08-21 17:18:22.667837,-110.0
2023-08-21 17:18:22.675525,-110.0
2023-08-21 17:18:22.683213,-105.0
2023-08-21 17:18:22.690902,-93.0
2023-08-21 17:18:22.698590,-91.0
2023-08-21 17:18:22.706278,-91.0
2023-08-21 17:18:22.713967,-86.0
2023-08-21 17:18:22.721655,-79.0
2023-08-21 17:18:22.729343,-76.0
2023-08-21 17:18:22.737031,-69.0
2023-08-21 17:18:22.744720,-60.0
2023-08-21 17:18:22.752408,-55.0
2023-08-21 17:18:22.760096,-52.0
2023-08-21 17:18:22.767785,-50.0
2023-08-21 17:18:22.775473,-40.0
2023-08-21 17:18:22.783161,-31.0
2023-08-21 17:18:22.790850,-26.0
2023-08-21 17:18:22.798538,-16.0
2023-08-21 17:18:22.806226,-9.0
2023-08-21 17:18:22.813915,-2.0
2023-08-21 17:18:22.821603,12.0
2023-08-21 17:18:22.829291,26.0
2023-08-21 17:18:22.836980,38.0
2023-08-21 17:18:22.844668,52.0
2023-08-21 17:18:22.852356,74.0
2023-08-21 17:18:22.860045,93.0
2023-08-21 17:18:22.867733,103.0
2023-08-21 17:18:22.875421,105.0
2023-08-21 17:18:22.883110,110.0
2023-08-21 17:18:22.890798,115.0
2023-08-21 17:18:22.898486,105.0
2023-08-21 17:18:22.906175,79.0
2023-08-21 17:18:22.913863,38.0
2023-08-21 17:18:22.921551,-2.0
2023-08-21 17:18:22.929240,-48.0
2023-08-21 17:18:22.936928,-91.0
2023-08-21 17:18:22.944616,-127.0
2023-08-21 17:18:22.952305,-144.0
2023-08-21 17:18:22.959993,-144.0
2023-08-21 17:18:22.967681,-144.0
2023-08-21 17:18:22.975369,-148.0
2023-08-21 17:18:22.983058,-148.0
2023-08-21 17:18:22.990746,-144.0
2023-08-21 17:18:22.998434,-139.0
2023-08-21 17:18:23.006123,-134.0
2023-08-21 17:18:23.013811,-132.0
2023-08-21 17:18:23.021499,-127.0
2023-08-21 17:18:23.029188,-122.0
2023-08-21 17:18:23.036876,-120.0
2023-08-21 17:18:23.044564,-112.0
2023-08-21 17:18:23.052253,-100.0
2023-08-21 17:18:23.059941,-103.0
2023-08-21 17:18:23.067629,-103.0
2023-08-21 17:18:23.075318,-98.0
2023-08-21 17:18:23.083006,-93.0
2023-08-21 17:18:23.090694,-98.0
2023-08-21 17:18:23.098383,-100.0
2023-08-21 17:18:23.106071,-96.0
2023-08-21 17:18:23.113759,-98.0
2023-08-21 17:18:23.121448,-103.0
2023-08-21 17:18:23.129136,-105.0
2023-08-21 17:18:23.136824,-108.0
2023-08-21 17:18:23.144513,-105.0
2023-08-21 17:18:23.152201,-105.0
2023-08-21 17:18:23.159889,-105.0
2023-08-21 17:18:23.167578,-105.0
2023-08-21 17:18:23.175266,-100.0
2023-08-21 17:18:23.182954,-100.0
2023-08-21 17:18:23.190643,-103.0
2023-08-21 17:18:23.198331,-108.0
2023-08-21 17:18:23.206019,-108.0
2023-08-21 17:18:23.213708,-103.0
2023-08-21 17:18:23.221396,-105.0
2023-08-21 17:18:23.229084,-110.0
2023-08-21 17:18:23.236772,-103.0
2023-08-21 17:18:23.244461,-103.0
2023-08-21 17:18:23.252149,-108.0
2023-08-21 17:18:23.259837,-103.0
2023-08-21 17:18:23.267526,-100.0
2023-08-21 17:18:23.275214,-100.0
2023-08-21 17:18:23.282902,-100.0
2023-08-21 17:18:23.290591,-96.0
2023-08-21 17:18:23.298279,-96.0
2023-08-21 17:18:23.305967,-96.0
2023-08-21 17:18:23.313656,-93.0
2023-08-21 17:18:23.321344,-91.0
2023-08-21 17:18:23.329032,-88.0
2023-08-21 17:18:23.336721,-91.0
2023-08-21 17:18:23.344409,-88.0
2023-08-21 17:18:23.352097,-86.0
2023-08-21 17:18:23.359786,-84.0
2023-08-21 17:18:23.367474,-84.0
2023-08-21 17:18:23.375162,-84.0
2023-08-21 17:18:23.382851,-84.0
2023-08-21 17:18:23.390539,-86.0
2023-08-21 17:18:23.398227,-84.0
2023-08-21 17:18:23.405916,-81.0
2023-08-21 17:18:23.413604,-86.0
2023-08-21 17:18:23.421292,-86.0
2023-08-21 17:18:23.428981,-84.0
2023-08-21 17:18:23.436669,-84.0
2023-08-21 17:18:23.444357,-81.0
2023-08-21 17:18:23.452046,-76.0
2023-08-21 17:18:23.459734,-74.0
2023-08-21 17:18:23.467422,-74.0
2023-08-21 17:18:23.475111,-79.0
2023-08-21 17:18:23.482799,-88.0
2023-08-21 17:18:23.490487,-86.0
2023-08-21 17:18:23.498175,-81.0
2023-08-21 17:18:23.505864,-76.0
2023-08-21 17:18:23.513552,-74.0
2023-08-21 17:18:23.521240,-84.0
2023-08-21 17:18:23.528929,-86.0
2023-08-21 17:18:23.536617,-67.0
2023-08-21 17:18:23.544305,-40.0
2023-08-21 17:18:23.551994,-26.0
2023-08-21 17:18:23.559682,-26.0
2023-08-21 17:18:23.567370,-40.0
2023-08-21 17:18:23.575059,-55.0
2023-08-21 17:18:23.582747,-69.0
2023-08-21 17:18:23.590435,-84.0
2023-08-21 17:18:23.598124,-86.0
2023-08-21 17:18:23.605812,-76.0
2023-08-21 17:18:23.613500,-76.0
2023-08-21 17:18:23.621189,-86.0
2023-08-21 17:18:23.628877,-79.0
2023-08-21 17:18:23.636565,-67.0
2023-08-21 17:18:23.644254,-60.0
2023-08-21 17:18:23.651942,24.0
2023-08-21 17:18:23.659630,321.0
2023-08-21 17:18:23.667319,732.0
2023-08-21 17:18:23.675007,782.0
2023-08-21 17:18:23.682695,273.0
2023-08-21 17:18:23.690384,-252.0
2023-08-21 17:18:23.698072,-280.0
2023-08-21 17:18:23.705760,-100.0
2023-08-21 17:18:23.713449,-105.0
2023-08-21 17:18:23.721137,-158.0
2023-08-21 17:18:23.728825,-124.0
2023-08-21 17:18:23.736514,-112.0
2023-08-21 17:18:23.744202,-127.0
2023-08-21 17:18:23.751890,-112.0
2023-08-21 17:18:23.759578,-96.0
2023-08-21 17:18:23.767267,-100.0
2023-08-21 17:18:23.774955,-96.0
2023-08-21 17:18:23.782643,-81.0
2023-08-21 17:18:23.790332,-76.0
2023-08-21 17:18:23.798020,-76.0
2023-08-21 17:18:23.805708,-69.0
2023-08-21 17:18:23.813397,-64.0
2023-08-21 17:18:23.821085,-60.0
2023-08-21 17:18:23.828773,-52.0
2023-08-21 17:18:23.836462,-50.0
2023-08-21 17:18:23.844150,-48.0
2023-08-21 17:18:23.851838,-38.0
2023-08-21 17:18:23.859527,-36.0
2023-08-21 17:18:23.867215,-31.0
2023-08-21 17:18:23.874903,-21.0
2023-08-21 17:18:23.882592,-16.0
2023-08-21 17:18:23.890280,-14.0
2023-08-21 17:18:23.897968,-2.0
2023-08-21 17:18:23.905657,12.0
2023-08-21 17:18:23.913345,24.0
2023-08-21 17:18:23.921033,28.0
2023-08-21 17:18:23.928722,40.0
2023-08-21 17:18:23.936410,57.0
2023-08-21 17:18:23.944098,74.0
2023-08-21 17:18:23.951787,86.0
2023-08-21 17:18:23.959475,98.0
2023-08-21 17:18:23.967163,112.0
2023-08-21 17:18:23.974852,127.0
2023-08-21 17:18:23.982540,122.0
2023-08-21 17:18:23.990228,108.0
2023-08-21 17:18:23.997917,84.0
2023-08-21 17:18:24.005605,45.0
2023-08-21 17:18:24.013293,2.0
2023-08-21 17:18:24.020981,-36.0
2023-08-21 17:18:24.028670,-64.0
2023-08-21 17:18:24.036358,-91.0
2023-08-21 17:18:24.044046,-108.0
2023-08-21 17:18:24.051735,-117.0
2023-08-21 17:18:24.059423,-129.0
2023-08-21 17:18:24.067111,-139.0
2023-08-21 17:18:24.074800,-136.0
2023-08-21 17:18:24.082488,-127.0
2023-08-21 17:18:24.090176,-122.0
2023-08-21 17:18:24.097865,-120.0
2023-08-21 17:18:24.105553,-117.0
2023-08-21 17:18:24.113241,-115.0
2023-08-21 17:18:24.120930,-108.0
2023-08-21 17:18:24.128618,-98.0
2023-08-21 17:18:24.136306,-96.0
2023-08-21 17:18:24.143995,-96.0
2023-08-21 17:18:24.151683,-98.0
2023-08-21 17:18:24.159371,-98.0
2023-08-21 17:18:24.167060,-96.0
2023-08-21 17:18:24.174748,-91.0
2023-08-21 17:18:24.182436,-93.0
2023-08-21 17:18:24.190125,-91.0
2023-08-21 17:18:24.197813,-88.0
2023-08-21 17:18:24.205501,-88.0
2023-08-21 17:18:24.213190,-88.0
2023-08-21 17:18:24.220878,-88.0
2023-08-21 17:18:24.228566,-91.0
2023-08-21 17:18:24.236255,-91.0
2023-08-21 17:18:24.243943,-91.0
2023-08-21 17:18:24.251631,-93.0
2023-08-21 17:18:24.259320,-93.0
2023-08-21 17:18:24.267008,-93.0
2023-08-21 17:18:24.274696,-91.0
2023-08-21 17:18:24.282384,-91.0
2023-08-21 17:18:24.290073,-88.0
2023-08-21 17:18:24.297761,-86.0
2023-08-21 17:18:24.305449,-88.0
2023-08-21 17:18:24.313138,-88.0
2023-08-21 17:18:24.320826,-84.0
2023-08-21 17:18:24.328514,-79.0
2023-08-21 17:18:24.336203,-84.0
2023-08-21 17:18:24.343891,-88.0
2023-08-21 17:18:24.351579,-86.0
2023-08-21 17:18:24.359268,-88.0
2023-08-21 17:18:24.366956,-91.0
2023-08-21 17:18:24.374644,-91.0
2023-08-21 17:18:24.382333,-88.0
2023-08-21 17:18:24.390021,-86.0
2023-08-21 17:18:24.397709,-88.0
2023-08-21 17:18:24.405398,-86.0
2023-08-21 17:18:24.413086,-84.0
2023-08-21 17:18:24.420774,-86.0
2023-08-21 17:18:24.428463,-86.0
2023-08-21 17:18:24.436151,-88.0
2023-08-21 17:18:24.443839,-88.0
2023-08-21 17:18:24.451528,-86.0
2023-08-21 17:18:24.459216,-84.0
2023-08-21 17:18:24.466904,-86.0
2023-08-21 17:18:24.474593,-86.0
2023-08-21 17:18:24.482281,-76.0
2023-08-21 17:18:24.489969,-74.0
2023-08-21 17:18:24.497658,-79.0
2023-08-21 17:18:24.505346,-74.0
2023-08-21 17:18:24.513034,-72.0
2023-08-21 17:18:24.520723,-72.0
2023-08-21 17:18:24.528411,-72.0
2023-08-21 17:18:24.536099,-72.0
2023-08-21 17:18:24.543787,-67.0
2023-08-21 17:18:24.551476,-57.0
2023-08-21 17:18:24.559164,-62.0
2023-08-21 17:18:24.566852,-72.0
2023-08-21 17:18:24.574541,-64.0
2023-08-21 17:18:24.582229,-57.0
2023-08-21 17:18:24.589917,-62.0
2023-08-21 17:18:24.597606,-62.0
2023-08-21 17:18:24.605294,-64.0
2023-08-21 17:18:24.612982,-60.0
2023-08-21 17:18:24.620671,-57.0
2023-08-21 17:18:24.628359,-60.0
2023-08-21 17:18:24.636047,-62.0
2023-08-21 17:18:24.643736,-62.0
2023-08-21 17:18:24.651424,-67.0
2023-08-21 17:18:24.659112,-72.0
2023-08-21 17:18:24.666801,-69.0
2023-08-21 17:18:24.674489,-64.0
2023-08-21 17:18:24.682177,-55.0
2023-08-21 17:18:24.689866,-40.0
2023-08-21 17:18:24.697554,-26.0
2023-08-21 17:18:24.705242,-4.0
2023-08-21 17:18:24.712931,-9.0
2023-08-21 17:18:24.720619,-36.0
2023-08-21 17:18:24.728307,-48.0
2023-08-21 17:18:24.735996,-62.0
2023-08-21 17:18:24.743684,-79.0
2023-08-21 17:18:24.751372,-76.0
2023-08-21 17:18:24.759061,-69.0
2023-08-21 17:18:24.766749,-67.0
2023-08-21 17:18:24.774437,-67.0
2023-08-21 17:18:24.782126,-62.0
2023-08-21 17:18:24.789814,-60.0
2023-08-21 17:18:24.797502,-43.0
2023-08-21 17:18:24.805190,91.0
2023-08-21 17:18:24.812879,458.0
2023-08-21 17:18:24.820567,818.0
2023-08-21 17:18:24.828255,715.0
2023-08-21 17:18:24.835944,144.0
2023-08-21 17:18:24.843632,-292.0
2023-08-21 17:18:24.851320,-232.0
2023-08-21 17:18:24.859009,-79.0
2023-08-21 17:18:24.866697,-136.0
2023-08-21 17:18:24.874385,-175.0
2023-08-21 17:18:24.882074,-127.0
2023-08-21 17:18:24.889762,-117.0
2023-08-21 17:18:24.897450,-129.0
2023-08-21 17:18:24.905139,-112.0
2023-08-21 17:18:24.912827,-100.0
2023-08-21 17:18:24.920515,-105.0
2023-08-21 17:18:24.928204,-108.0
2023-08-21 17:18:24.935892,-98.0
2023-08-21 17:18:24.943580,-91.0
2023-08-21 17:18:24.951269,-86.0
2023-08-21 17:18:24.958957,-84.0
2023-08-21 17:18:24.966645,-79.0
2023-08-21 17:18:24.974334,-74.0
2023-08-21 17:18:24.982022,-67.0
2023-08-21 17:18:24.989710,-55.0
2023-08-21 17:18:24.997399,-50.0
2023-08-21 17:18:25.005087,-52.0
2023-08-21 17:18:25.012775,-45.0
2023-08-21 17:18:25.020464,-36.0
2023-08-21 17:18:25.028152,-28.0
2023-08-21 17:18:25.035840,-21.0
2023-08-21 17:18:25.043529,-14.0
2023-08-21 17:18:25.051217,-7.0
2023-08-21 17:18:25.058905,4.0
2023-08-21 17:18:25.066593,16.0
2023-08-21 17:18:25.074282,31.0
2023-08-21 17:18:25.081970,48.0
2023-08-21 17:18:25.089658,64.0
2023-08-21 17:18:25.097347,74.0
2023-08-21 17:18:25.105035,81.0
2023-08-21 17:18:25.112723,96.0
2023-08-21 17:18:25.120412,112.0
2023-08-21 17:18:25.128100,120.0
2023-08-21 17:18:25.135788,120.0
2023-08-21 17:18:25.143477,105.0
2023-08-21 17:18:25.151165,76.0
2023-08-21 17:18:25.158853,38.0
2023-08-21 17:18:25.166542,-2.0
2023-08-21 17:18:25.174230,-38.0
2023-08-21 17:18:25.181918,-74.0
2023-08-21 17:18:25.189607,-108.0
2023-08-21 17:18:25.197295,-127.0
2023-08-21 17:18:25.204983,-129.0
2023-08-21 17:18:25.212672,-132.0
2023-08-21 17:18:25.220360,-132.0
2023-08-21 17:18:25.228048,-129.0
2023-08-21 17:18:25.235737,-129.0
2023-08-21 17:18:25.243425,-127.0
2023-08-21 17:18:25.251113,-120.0
2023-08-21 17:18:25.258802,-115.0
2023-08-21 17:18:25.266490,-110.0
2023-08-21 17:18:25.274178,-108.0
2023-08-21 17:18:25.281867,-108.0
2023-08-21 17:18:25.289555,-100.0
2023-08-21 17:18:25.297243,-93.0
2023-08-21 17:18:25.304932,-93.0
2023-08-21 17:18:25.312620,-91.0
2023-08-21 17:18:25.320308,-88.0
2023-08-21 17:18:25.327996,-88.0
2023-08-21 17:18:25.335685,-86.0
2023-08-21 17:18:25.343373,-88.0
2023-08-21 17:18:25.351061,-88.0
2023-08-21 17:18:25.358750,-91.0
2023-08-21 17:18:25.366438,-96.0
2023-08-21 17:18:25.374126,-98.0
2023-08-21 17:18:25.381815,-98.0
2023-08-21 17:18:25.389503,-98.0
2023-08-21 17:18:25.397191,-98.0
2023-08-21 17:18:25.404880,-96.0
2023-08-21 17:18:25.412568,-96.0
2023-08-21 17:18:25.420256,-98.0
2023-08-21 17:18:25.427945,-105.0
2023-08-21 17:18:25.435633,-110.0
2023-08-21 17:18:25.443321,-105.0
2023-08-21 17:18:25.451010,-103.0
2023-08-21 17:18:25.458698,-108.0
2023-08-21 17:18:25.466386,-112.0
2023-08-21 17:18:25.474075,-110.0
2023-08-21 17:18:25.481763,-108.0
2023-08-21 17:18:25.489451,-110.0
2023-08-21 17:18:25.497140,-105.0
2023-08-21 17:18:25.504828,-103.0
2023-08-21 17:18:25.512516,-108.0
2023-08-21 17:18:25.520205,-105.0
2023-08-21 17:18:25.527893,-98.0
2023-08-21 17:18:25.535581,-98.0
2023-08-21 17:18:25.543270,-100.0
2023-08-21 17:18:25.550958,-98.0
2023-08-21 17:18:25.558646,-96.0
2023-08-21 17:18:25.566335,-96.0
2023-08-21 17:18:25.574023,-93.0
2023-08-21 17:18:25.581711,-91.0
2023-08-21 17:18:25.589399,-96.0
2023-08-21 17:18:25.597088,-100.0
2023-08-21 17:18:25.604776,-93.0
2023-08-21 17:18:25.612464,-88.0
2023-08-21 17:18:25.620153,-88.0
2023-08-21 17:18:25.627841,-86.0
2023-08-21 17:18:25.635529,-84.0
2023-08-21 17:18:25.643218,-84.0
2023-08-21 17:18:25.650906,-84.0
2023-08-21 17:18:25.658594,-81.0
2023-08-21 17:18:25.666283,-79.0
2023-08-21 17:18:25.673971,-76.0
2023-08-21 17:18:25.681659,-76.0
2023-08-21 17:18:25.689348,-79.0
2023-08-21 17:18:25.697036,-79.0
2023-08-21 17:18:25.704724,-74.0
2023-08-21 17:18:25.712413,-69.0
2023-08-21 17:18:25.720101,-72.0
2023-08-21 17:18:25.727789,-74.0
2023-08-21 17:18:25.735478,-72.0
2023-08-21 17:18:25.743166,-67.0
2023-08-21 17:18:25.750854,-69.0
2023-08-21 17:18:25.758543,-67.0
2023-08-21 17:18:25.766231,-69.0
2023-08-21 17:18:25.773919,-79.0
2023-08-21 17:18:25.781608,-84.0
2023-08-21 17:18:25.789296,-76.0
2023-08-21 17:18:25.796984,-72.0
2023-08-21 17:18:25.804673,-76.0
2023-08-21 17:18:25.812361,-79.0
2023-08-21 17:18:25.820049,-84.0
2023-08-21 17:18:25.827738,-84.0
2023-08-21 17:18:25.835426,-84.0
2023-08-21 17:18:25.843114,-88.0
2023-08-21 17:18:25.850802,-81.0
2023-08-21 17:18:25.858491,-74.0
2023-08-21 17:18:25.866179,-81.0
2023-08-21 17:18:25.873867,-72.0
2023-08-21 17:18:25.881556,-43.0
2023-08-21 17:18:25.889244,-31.0
2023-08-21 17:18:25.896932,-48.0
2023-08-21 17:18:25.904621,-64.0
2023-08-21 17:18:25.912309,-76.0
2023-08-21 17:18:25.919997,-93.0
2023-08-21 17:18:25.927686,-100.0
2023-08-21 17:18:25.935374,-100.0
2023-08-21 17:18:25.943062,-103.0
2023-08-21 17:18:25.950751,-103.0
2023-08-21 17:18:25.958439,-93.0
2023-08-21 17:18:25.966127,-86.0
2023-08-21 17:18:25.973816,-88.0
2023-08-21 17:18:25.981504,-52.0
2023-08-21 17:18:25.989192,156.0
2023-08-21 17:18:25.996881,566.0
2023-08-21 17:18:26.004569,811.0
2023-08-21 17:18:26.012257,518.0
2023-08-21 17:18:26.019946,-76.0
2023-08-21 17:18:26.027634,-331.0
2023-08-21 17:18:26.035322,-172.0
2023-08-21 17:18:26.043011,-98.0
2023-08-21 17:18:26.050699,-175.0
2023-08-21 17:18:26.058387,-170.0
2023-08-21 17:18:26.066076,-134.0
2023-08-21 17:18:26.073764,-146.0
2023-08-21 17:18:26.081452,-151.0
2023-08-21 17:18:26.089141,-134.0
2023-08-21 17:18:26.096829,-124.0
2023-08-21 17:18:26.104517,-117.0
2023-08-21 17:18:26.112205,-112.0
2023-08-21 17:18:26.119894,-105.0
2023-08-21 17:18:26.127582,-100.0
2023-08-21 17:18:26.135270,-96.0
2023-08-21 17:18:26.142959,-93.0
2023-08-21 17:18:26.150647,-84.0
2023-08-21 17:18:26.158335,-76.0
2023-08-21 17:18:26.166024,-72.0
2023-08-21 17:18:26.173712,-67.0
2023-08-21 17:18:26.181400,-64.0
2023-08-21 17:18:26.189089,-57.0
2023-08-21 17:18:26.196777,-55.0
2023-08-21 17:18:26.204465,-50.0
2023-08-21 17:18:26.212154,-38.0
2023-08-21 17:18:26.219842,-26.0
2023-08-21 17:18:26.227530,-21.0
2023-08-21 17:18:26.235219,-12.0
2023-08-21 17:18:26.242907,2.0
2023-08-21 17:18:26.250595,12.0
2023-08-21 17:18:26.258284,24.0
2023-08-21 17:18:26.265972,40.0
2023-08-21 17:18:26.273660,62.0
2023-08-21 17:18:26.281349,81.0
2023-08-21 17:18:26.289037,91.0
2023-08-21 17:18:26.296725,98.0
2023-08-21 17:18:26.304414,110.0
2023-08-21 17:18:26.312102,120.0
2023-08-21 17:18:26.319790,115.0
2023-08-21 17:18:26.327479,91.0
2023-08-21 17:18:26.335167,60.0
2023-08-21 17:18:26.342855,21.0
2023-08-21 17:18:26.350544,-24.0
2023-08-21 17:18:26.358232,-72.0
2023-08-21 17:18:26.365920,-105.0
2023-08-21 17:18:26.373608,-120.0
2023-08-21 17:18:26.381297,-129.0
2023-08-21 17:18:26.388985,-146.0
2023-08-21 17:18:26.396673,-156.0
2023-08-21 17:18:26.404362,-148.0
2023-08-21 17:18:26.412050,-141.0
2023-08-21 17:18:26.419738,-136.0
2023-08-21 17:18:26.427427,-132.0
2023-08-21 17:18:26.435115,-134.0
2023-08-21 17:18:26.442803,-139.0
2023-08-21 17:18:26.450492,-132.0
2023-08-21 17:18:26.458180,-122.0
2023-08-21 17:18:26.465868,-122.0
2023-08-21 17:18:26.473557,-122.0
2023-08-21 17:18:26.481245,-117.0
2023-08-21 17:18:26.488933,-117.0
2023-08-21 17:18:26.496622,-112.0
2023-08-21 17:18:26.504310,-105.0
2023-08-21 17:18:26.511998,-100.0
2023-08-21 17:18:26.519687,-105.0
2023-08-21 17:18:26.527375,-110.0
2023-08-21 17:18:26.535063,-110.0
2023-08-21 17:18:26.542752,-108.0
2023-08-21 17:18:26.550440,-105.0
2023-08-21 17:18:26.558128,-108.0
2023-08-21 17:18:26.565817,-112.0
2023-08-21 17:18:26.573505,-117.0
2023-08-21 17:18:26.581193,-122.0
2023-08-21 17:18:26.588882,-122.0
2023-08-21 17:18:26.596570,-120.0
2023-08-21 17:18:26.604258,-117.0
2023-08-21 17:18:26.611947,-117.0
2023-08-21 17:18:26.619635,-122.0
2023-08-21 17:18:26.627323,-122.0
2023-08-21 17:18:26.635011,-115.0
2023-08-21 17:18:26.642700,-110.0
2023-08-21 17:18:26.650388,-110.0
2023-08-21 17:18:26.658076,-110.0
2023-08-21 17:18:26.665765,-112.0
2023-08-21 17:18:26.673453,-115.0
2023-08-21 17:18:26.681141,-112.0
2023-08-21 17:18:26.688830,-105.0
2023-08-21 17:18:26.696518,-103.0
2023-08-21 17:18:26.704206,-100.0
2023-08-21 17:18:26.711895,-98.0
2023-08-21 17:18:26.719583,-100.0
2023-08-21 17:18:26.727271,-103.0
2023-08-21 17:18:26.734960,-96.0
2023-08-21 17:18:26.742648,-93.0
2023-08-21 17:18:26.750336,-98.0
2023-08-21 17:18:26.758025,-91.0
2023-08-21 17:18:26.765713,-84.0
2023-08-21 17:18:26.773401,-86.0
2023-08-21 17:18:26.781090,-88.0
2023-08-21 17:18:26.788778,-84.0
2023-08-21 17:18:26.796466,-79.0
2023-08-21 17:18:26.804155,-79.0
2023-08-21 17:18:26.811843,-79.0
2023-08-21 17:18:26.819531,-81.0
2023-08-21 17:18:26.827220,-81.0
2023-08-21 17:18:26.834908,-74.0
2023-08-21 17:18:26.842596,-74.0
2023-08-21 17:18:26.850285,-86.0
2023-08-21 17:18:26.857973,-93.0
2023-08-21 17:18:26.865661,-86.0
2023-08-21 17:18:26.873350,-79.0
2023-08-21 17:18:26.881038,-81.0
2023-08-21 17:18:26.888726,-79.0
2023-08-21 17:18:26.896414,-76.0
2023-08-21 17:18:26.904103,-81.0
2023-08-21 17:18:26.911791,-79.0
2023-08-21 17:18:26.919479,-72.0
2023-08-21 17:18:26.927168,-69.0
2023-08-21 17:18:26.934856,-69.0
2023-08-21 17:18:26.942544,-74.0
2023-08-21 17:18:26.950233,-79.0
2023-08-21 17:18:26.957921,-79.0
2023-08-21 17:18:26.965609,-74.0
2023-08-21 17:18:26.973298,-60.0
2023-08-21 17:18:26.980986,-43.0
2023-08-21 17:18:26.988674,-21.0
2023-08-21 17:18:26.996363,-16.0
2023-08-21 17:18:27.004051,-33.0
2023-08-21 17:18:27.011739,-50.0
2023-08-21 17:18:27.019428,-60.0
2023-08-21 17:18:27.027116,-76.0
2023-08-21 17:18:27.034804,-86.0
2023-08-21 17:18:27.042493,-76.0
2023-08-21 17:18:27.050181,-72.0
2023-08-21 17:18:27.057869,-74.0
2023-08-21 17:18:27.065558,-76.0
2023-08-21 17:18:27.073246,-74.0
2023-08-21 17:18:27.080934,-69.0
2023-08-21 17:18:27.088623,-12.0
2023-08-21 17:18:27.096311,228.0
2023-08-21 17:18:27.103999,648.0
2023-08-21 17:18:27.111688,830.0
2023-08-21 17:18:27.119376,427.0
2023-08-21 17:18:27.127064,-172.0
2023-08-21 17:18:27.134753,-324.0
2023-08-21 17:18:27.142441,-132.0
2023-08-21 17:18:27.150129,-93.0
2023-08-21 17:18:27.157817,-163.0
2023-08-21 17:18:27.165506,-141.0
2023-08-21 17:18:27.173194,-112.0
2023-08-21 17:18:27.180882,-129.0
2023-08-21 17:18:27.188571,-122.0
2023-08-21 17:18:27.196259,-103.0
2023-08-21 17:18:27.203947,-100.0
2023-08-21 17:18:27.211636,-100.0
2023-08-21 17:18:27.219324,-91.0
2023-08-21 17:18:27.227012,-86.0
2023-08-21 17:18:27.234701,-79.0
2023-08-21 17:18:27.242389,-74.0
2023-08-21 17:18:27.250077,-72.0
2023-08-21 17:18:27.257766,-67.0
2023-08-21 17:18:27.265454,-64.0
2023-08-21 17:18:27.273142,-60.0
2023-08-21 17:18:27.280831,-50.0
2023-08-21 17:18:27.288519,-38.0
2023-08-21 17:18:27.296207,-33.0
2023-08-21 17:18:27.303896,-33.0
2023-08-21 17:18:27.311584,-31.0
2023-08-21 17:18:27.319272,-26.0
2023-08-21 17:18:27.326961,-19.0
2023-08-21 17:18:27.334649,-7.0
2023-08-21 17:18:27.342337,2.0
2023-08-21 17:18:27.350026,12.0
2023-08-21 17:18:27.357714,26.0
2023-08-21 17:18:27.365402,40.0
2023-08-21 17:18:27.373091,52.0
2023-08-21 17:18:27.380779,72.0
2023-08-21 17:18:27.388467,86.0
2023-08-21 17:18:27.396156,91.0
2023-08-21 17:18:27.403844,103.0
2023-08-21 17:18:27.411532,120.0
2023-08-21 17:18:27.419220,124.0
2023-08-21 17:18:27.426909,120.0
2023-08-21 17:18:27.434597,100.0
2023-08-21 17:18:27.442285,55.0
2023-08-21 17:18:27.449974,7.0
2023-08-21 17:18:27.457662,-28.0
2023-08-21 17:18:27.465350,-62.0
2023-08-21 17:18:27.473039,-91.0
2023-08-21 17:18:27.480727,-115.0
2023-08-21 17:18:27.488415,-144.0
2023-08-21 17:18:27.496104,-151.0
2023-08-21 17:18:27.503792,-144.0
2023-08-21 17:18:27.511480,-144.0
2023-08-21 17:18:27.519169,-144.0
2023-08-21 17:18:27.526857,-134.0
2023-08-21 17:18:27.534545,-127.0
2023-08-21 17:18:27.542234,-127.0
2023-08-21 17:18:27.549922,-120.0
2023-08-21 17:18:27.557610,-115.0
2023-08-21 17:18:27.565299,-115.0
2023-08-21 17:18:27.572987,-115.0
2023-08-21 17:18:27.580675,-112.0
2023-08-21 17:18:27.588364,-112.0
2023-08-21 17:18:27.596052,-108.0
2023-08-21 17:18:27.603740,-98.0
2023-08-21 17:18:27.611429,-98.0
2023-08-21 17:18:27.619117,-103.0
2023-08-21 17:18:27.626805,-105.0
2023-08-21 17:18:27.634494,-103.0
2023-08-21 17:18:27.642182,-98.0
2023-08-21 17:18:27.649870,-98.0
2023-08-21 17:18:27.657558,-100.0
2023-08-21 17:18:27.665247,-103.0
2023-08-21 17:18:27.672935,-108.0
2023-08-21 17:18:27.680623,-108.0
2023-08-21 17:18:27.688312,-108.0
2023-08-21 17:18:27.696000,-108.0
2023-08-21 17:18:27.703688,-108.0
2023-08-21 17:18:27.711377,-110.0
2023-08-21 17:18:27.719065,-112.0
2023-08-21 17:18:27.726753,-112.0
2023-08-21 17:18:27.734442,-110.0
2023-08-21 17:18:27.742130,-103.0
2023-08-21 17:18:27.749818,-103.0
2023-08-21 17:18:27.757507,-103.0
2023-08-21 17:18:27.765195,-100.0
2023-08-21 17:18:27.772883,-100.0
2023-08-21 17:18:27.780572,-103.0
2023-08-21 17:18:27.788260,-100.0
2023-08-21 17:18:27.795948,-96.0
2023-08-21 17:18:27.803637,-93.0
2023-08-21 17:18:27.811325,-93.0
2023-08-21 17:18:27.819013,-100.0
2023-08-21 17:18:27.826702,-98.0
2023-08-21 17:18:27.834390,-91.0
2023-08-21 17:18:27.842078,-88.0
2023-08-21 17:18:27.849767,-88.0
2023-08-21 17:18:27.857455,-88.0
2023-08-21 17:18:27.865143,-86.0
2023-08-21 17:18:27.872832,-84.0
2023-08-21 17:18:27.880520,-81.0
2023-08-21 17:18:27.888208,-81.0
2023-08-21 17:18:27.895897,-81.0
2023-08-21 17:18:27.903585,-81.0
2023-08-21 17:18:27.911273,-76.0
2023-08-21 17:18:27.918961,-72.0
2023-08-21 17:18:27.926650,-72.0
2023-08-21 17:18:27.934338,-74.0
2023-08-21 17:18:27.942026,-72.0
2023-08-21 17:18:27.949715,-74.0
2023-08-21 17:18:27.957403,-84.0
2023-08-21 17:18:27.965091,-81.0
2023-08-21 17:18:27.972780,-76.0
2023-08-21 17:18:27.980468,-79.0
2023-08-21 17:18:27.988156,-76.0
2023-08-21 17:18:27.995845,-72.0
2023-08-21 17:18:28.003533,-69.0
2023-08-21 17:18:28.011221,-69.0
2023-08-21 17:18:28.018910,-74.0
2023-08-21 17:18:28.026598,-81.0
2023-08-21 17:18:28.034286,-81.0
2023-08-21 17:18:28.041975,-79.0
2023-08-21 17:18:28.049663,-84.0
2023-08-21 17:18:28.057351,-81.0
2023-08-21 17:18:28.065040,-76.0
2023-08-21 17:18:28.072728,-76.0
2023-08-21 17:18:28.080416,-79.0
2023-08-21 17:18:28.088105,-72.0
2023-08-21 17:18:28.095793,-69.0
2023-08-21 17:18:28.103481,-72.0
2023-08-21 17:18:28.111170,-69.0
2023-08-21 17:18:28.118858,-64.0
2023-08-21 17:18:28.126546,-55.0
2023-08-21 17:18:28.134235,-43.0
2023-08-21 17:18:28.141923,-24.0
2023-08-21 17:18:28.149611,-12.0
2023-08-21 17:18:28.157300,-26.0
2023-08-21 17:18:28.164988,-40.0
2023-08-21 17:18:28.172676,-48.0
2023-08-21 17:18:28.180364,-67.0
2023-08-21 17:18:28.188053,-81.0
2023-08-21 17:18:28.195741,-72.0
2023-08-21 17:18:28.203429,-69.0
2023-08-21 17:18:28.211118,-72.0
2023-08-21 17:18:28.218806,-69.0
2023-08-21 17:18:28.226494,-67.0
2023-08-21 17:18:28.234183,-64.0
2023-08-21 17:18:28.241871,-28.0
2023-08-21 17:18:28.249559,151.0
2023-08-21 17:18:28.257248,542.0
2023-08-21 17:18:28.264936,837.0
2023-08-21 17:18:28.272624,609.0
2023-08-21 17:18:28.280313,4.0
2023-08-21 17:18:28.288001,-316.0
2023-08-21 17:18:28.295689,-177.0
2023-08-21 17:18:28.303378,-76.0
2023-08-21 17:18:28.311066,-153.0
2023-08-21 17:18:28.318754,-160.0
2023-08-21 17:18:28.326443,-117.0
2023-08-21 17:18:28.334131,-124.0
2023-08-21 17:18:28.341819,-132.0
2023-08-21 17:18:28.349508,-112.0
2023-08-21 17:18:28.357196,-105.0
2023-08-21 17:18:28.364884,-103.0
2023-08-21 17:18:28.372573,-96.0
2023-08-21 17:18:28.380261,-88.0
2023-08-21 17:18:28.387949,-86.0
2023-08-21 17:18:28.395638,-81.0
2023-08-21 17:18:28.403326,-72.0
2023-08-21 17:18:28.411014,-67.0
2023-08-21 17:18:28.418703,-67.0
2023-08-21 17:18:28.426391,-60.0
2023-08-21 17:18:28.434079,-52.0
2023-08-21 17:18:28.441767,-48.0
2023-08-21 17:18:28.449456,-48.0
2023-08-21 17:18:28.457144,-50.0
2023-08-21 17:18:28.464832,-45.0
2023-08-21 17:18:28.472521,-38.0
2023-08-21 17:18:28.480209,-31.0
2023-08-21 17:18:28.487897,-21.0
2023-08-21 17:18:28.495586,-9.0
2023-08-21 17:18:28.503274,0.0
2023-08-21 17:18:28.510962,12.0
2023-08-21 17:18:28.518651,26.0
2023-08-21 17:18:28.526339,40.0
2023-08-21 17:18:28.534027,57.0
2023-08-21 17:18:28.541716,74.0
2023-08-21 17:18:28.549404,84.0
2023-08-21 17:18:28.557092,91.0
2023-08-21 17:18:28.564781,91.0
2023-08-21 17:18:28.572469,93.0
2023-08-21 17:18:28.580157,98.0
2023-08-21 17:18:28.587846,91.0
2023-08-21 17:18:28.595534,62.0
2023-08-21 17:18:28.603222,16.0
2023-08-21 17:18:28.610911,-26.0
2023-08-21 17:18:28.618599,-55.0
2023-08-21 17:18:28.626287,-81.0
2023-08-21 17:18:28.633976,-105.0
2023-08-21 17:18:28.641664,-117.0
2023-08-21 17:18:28.649352,-129.0
2023-08-21 17:18:28.657041,-136.0
2023-08-21 17:18:28.664729,-129.0
2023-08-21 17:18:28.672417,-124.0
2023-08-21 17:18:28.680106,-124.0
2023-08-21 17:18:28.687794,-124.0
2023-08-21 17:18:28.695482,-120.0
2023-08-21 17:18:28.703170,-115.0
2023-08-21 17:18:28.710859,-108.0
2023-08-21 17:18:28.718547,-98.0
2023-08-21 17:18:28.726235,-100.0
2023-08-21 17:18:28.733924,-103.0
2023-08-21 17:18:28.741612,-100.0
2023-08-21 17:18:28.749300,-93.0
2023-08-21 17:18:28.756989,-88.0
2023-08-21 17:18:28.764677,-86.0
2023-08-21 17:18:28.772365,-86.0
2023-08-21 17:18:28.780054,-88.0
2023-08-21 17:18:28.787742,-91.0
2023-08-21 17:18:28.795430,-88.0
2023-08-21 17:18:28.803119,-88.0
2023-08-21 17:18:28.810807,-93.0
2023-08-21 17:18:28.818495,-96.0
2023-08-21 17:18:28.826184,-96.0
2023-08-21 17:18:28.833872,-103.0
2023-08-21 17:18:28.841560,-108.0
2023-08-21 17:18:28.849249,-103.0
2023-08-21 17:18:28.856937,-103.0
2023-08-21 17:18:28.864625,-105.0
2023-08-21 17:18:28.872314,-103.0
2023-08-21 17:18:28.880002,-103.0
2023-08-21 17:18:28.887690,-103.0
2023-08-21 17:18:28.895379,-103.0
2023-08-21 17:18:28.903067,-98.0
2023-08-21 17:18:28.910755,-98.0
2023-08-21 17:18:28.918444,-98.0
2023-08-21 17:18:28.926132,-100.0
2023-08-21 17:18:28.933820,-100.0
2023-08-21 17:18:28.941509,-88.0
2023-08-21 17:18:28.949197,-88.0
2023-08-21 17:18:28.956885,-98.0
2023-08-21 17:18:28.964573,-100.0
2023-08-21 17:18:28.972262,-98.0
2023-08-21 17:18:28.979950,-100.0
2023-08-21 17:18:28.987638,-100.0
2023-08-21 17:18:28.995327,-96.0
2023-08-21 17:18:29.003015,-93.0
2023-08-21 17:18:29.010703,-91.0
2023-08-21 17:18:29.018392,-88.0
2023-08-21 17:18:29.026080,-86.0
2023-08-21 17:18:29.033768,-86.0
2023-08-21 17:18:29.041457,-86.0
2023-08-21 17:18:29.049145,-86.0
2023-08-21 17:18:29.056833,-86.0
2023-08-21 17:18:29.064522,-84.0
2023-08-21 17:18:29.072210,-81.0
2023-08-21 17:18:29.079898,-79.0
2023-08-21 17:18:29.087587,-76.0
2023-08-21 17:18:29.095275,-72.0
2023-08-21 17:18:29.102963,-72.0
2023-08-21 17:18:29.110652,-74.0
2023-08-21 17:18:29.118340,-72.0
2023-08-21 17:18:29.126028,-69.0
2023-08-21 17:18:29.133717,-69.0
2023-08-21 17:18:29.141405,-69.0
2023-08-21 17:18:29.149093,-76.0
2023-08-21 17:18:29.156782,-81.0
2023-08-21 17:18:29.164470,-79.0
2023-08-21 17:18:29.172158,-72.0
2023-08-21 17:18:29.179847,-69.0
2023-08-21 17:18:29.187535,-76.0
2023-08-21 17:18:29.195223,-86.0
2023-08-21 17:18:29.202912,-86.0
2023-08-21 17:18:29.210600,-81.0
2023-08-21 17:18:29.218288,-79.0
2023-08-21 17:18:29.225976,-76.0
2023-08-21 17:18:29.233665,-74.0
2023-08-21 17:18:29.241353,-74.0
2023-08-21 17:18:29.249041,-74.0
2023-08-21 17:18:29.256730,-72.0
2023-08-21 17:18:29.264418,-60.0
2023-08-21 17:18:29.272106,-43.0
2023-08-21 17:18:29.279795,-24.0
2023-08-21 17:18:29.287483,-21.0
2023-08-21 17:18:29.295171,-36.0
2023-08-21 17:18:29.302860,-48.0
2023-08-21 17:18:29.310548,-57.0
2023-08-21 17:18:29.318236,-79.0
2023-08-21 17:18:29.325925,-88.0
2023-08-21 17:18:29.333613,-79.0
2023-08-21 17:18:29.341301,-76.0
2023-08-21 17:18:29.348990,-81.0
2023-08-21 17:18:29.356678,-76.0
2023-08-21 17:18:29.364366,-67.0
2023-08-21 17:18:29.372055,-64.0
2023-08-21 17:18:29.379743,-19.0
2023-08-21 17:18:29.387431,218.0
2023-08-21 17:18:29.395120,640.0
2023-08-21 17:18:29.402808,828.0
2023-08-21 17:18:29.410496,448.0
2023-08-21 17:18:29.418185,-139.0
2023-08-21 17:18:29.425873,-314.0
2023-08-21 17:18:29.433561,-144.0
2023-08-21 17:18:29.441250,-96.0
2023-08-21 17:18:29.448938,-163.0
2023-08-21 17:18:29.456626,-146.0
2023-08-21 17:18:29.464315,-112.0
2023-08-21 17:18:29.472003,-124.0
2023-08-21 17:18:29.479691,-127.0
2023-08-21 17:18:29.487379,-108.0
2023-08-21 17:18:29.495068,-105.0
2023-08-21 17:18:29.502756,-103.0
2023-08-21 17:18:29.510444,-93.0
2023-08-21 17:18:29.518133,-91.0
2023-08-21 17:18:29.525821,-93.0
2023-08-21 17:18:29.533509,-88.0
2023-08-21 17:18:29.541198,-79.0
2023-08-21 17:18:29.548886,-72.0
2023-08-21 17:18:29.556574,-69.0
2023-08-21 17:18:29.564263,-60.0
2023-08-21 17:18:29.571951,-52.0
2023-08-21 17:18:29.579639,-52.0
2023-08-21 17:18:29.587328,-48.0
2023-08-21 17:18:29.595016,-43.0
2023-08-21 17:18:29.602704,-40.0
2023-08-21 17:18:29.610393,-33.0
2023-08-21 17:18:29.618081,-21.0
2023-08-21 17:18:29.625769,-9.0
2023-08-21 17:18:29.633458,0.0
2023-08-21 17:18:29.641146,9.0
2023-08-21 17:18:29.648834,24.0
2023-08-21 17:18:29.656523,48.0
2023-08-21 17:18:29.664211,62.0
2023-08-21 17:18:29.671899,69.0
2023-08-21 17:18:29.679588,86.0
2023-08-21 17:18:29.687276,103.0
2023-08-21 17:18:29.694964,108.0
2023-08-21 17:18:29.702653,112.0
2023-08-21 17:18:29.710341,120.0
2023-08-21 17:18:29.718029,122.0
2023-08-21 17:18:29.725718,100.0
2023-08-21 17:18:29.733406,52.0
2023-08-21 17:18:29.741094,-2.0
2023-08-21 17:18:29.748782,-40.0
2023-08-21 17:18:29.756471,-69.0
2023-08-21 17:18:29.764159,-98.0
2023-08-21 17:18:29.771847,-124.0
2023-08-21 17:18:29.779536,-153.0
2023-08-21 17:18:29.787224,-163.0
2023-08-21 17:18:29.794912,-158.0
2023-08-21 17:18:29.802601,-153.0
2023-08-21 17:18:29.810289,-148.0
2023-08-21 17:18:29.817977,-151.0
2023-08-21 17:18:29.825666,-160.0
2023-08-21 17:18:29.833354,-156.0
2023-08-21 17:18:29.841042,-139.0
2023-08-21 17:18:29.848731,-136.0
2023-08-21 17:18:29.856419,-136.0
2023-08-21 17:18:29.864107,-127.0
2023-08-21 17:18:29.871796,-124.0
2023-08-21 17:18:29.879484,-122.0
2023-08-21 17:18:29.887172,-110.0
2023-08-21 17:18:29.894861,-103.0
2023-08-21 17:18:29.902549,-110.0
2023-08-21 17:18:29.910237,-112.0
2023-08-21 17:18:29.917926,-108.0
2023-08-21 17:18:29.925614,-105.0
2023-08-21 17:18:29.933302,-105.0
2023-08-21 17:18:29.940991,-110.0
2023-08-21 17:18:29.948679,-112.0
2023-08-21 17:18:29.956367,-112.0
2023-08-21 17:18:29.964056,-112.0
2023-08-21 17:18:29.971744,-112.0
2023-08-21 17:18:29.979432,-112.0
2023-08-21 17:18:29.987121,-110.0
2023-08-21 17:18:29.994809,-105.0
2023-08-21 17:18:30.002497,-108.0
2023-08-21 17:18:30.010185,-112.0
2023-08-21 17:18:30.017874,-112.0
2023-08-21 17:18:30.025562,-115.0
2023-08-21 17:18:30.033250,-120.0
2023-08-21 17:18:30.040939,-115.0
2023-08-21 17:18:30.048627,-112.0
2023-08-21 17:18:30.056315,-112.0
2023-08-21 17:18:30.064004,-110.0
2023-08-21 17:18:30.071692,-108.0
2023-08-21 17:18:30.079380,-112.0
2023-08-21 17:18:30.087069,-112.0
2023-08-21 17:18:30.094757,-100.0
2023-08-21 17:18:30.102445,-98.0
2023-08-21 17:18:30.110134,-100.0
2023-08-21 17:18:30.117822,-100.0
2023-08-21 17:18:30.125510,-100.0
2023-08-21 17:18:30.133199,-96.0
2023-08-21 17:18:30.140887,-93.0
2023-08-21 17:18:30.148575,-91.0
2023-08-21 17:18:30.156264,-88.0
2023-08-21 17:18:30.163952,-86.0
2023-08-21 17:18:30.171640,-86.0
2023-08-21 17:18:30.179329,-84.0
2023-08-21 17:18:30.187017,-81.0
2023-08-21 17:18:30.194705,-86.0
2023-08-21 17:18:30.202394,-88.0
2023-08-21 17:18:30.210082,-88.0
2023-08-21 17:18:30.217770,-88.0
2023-08-21 17:18:30.225459,-91.0
2023-08-21 17:18:30.233147,-96.0
2023-08-21 17:18:30.240835,-98.0
2023-08-21 17:18:30.248524,-93.0
2023-08-21 17:18:30.256212,-91.0
2023-08-21 17:18:30.263900,-91.0
2023-08-21 17:18:30.271588,-93.0
2023-08-21 17:18:30.279277,-91.0
2023-08-21 17:18:30.286965,-86.0
2023-08-21 17:18:30.294653,-84.0
2023-08-21 17:18:30.302342,-81.0
2023-08-21 17:18:30.310030,-81.0
2023-08-21 17:18:30.317718,-76.0
2023-08-21 17:18:30.325407,-64.0
2023-08-21 17:18:30.333095,-45.0
2023-08-21 17:18:30.340783,-21.0
2023-08-21 17:18:30.348472,-21.0
2023-08-21 17:18:30.356160,-43.0
2023-08-21 17:18:30.363848,-52.0
2023-08-21 17:18:30.371537,-64.0
2023-08-21 17:18:30.379225,-84.0
2023-08-21 17:18:30.386913,-88.0
2023-08-21 17:18:30.394602,-79.0
2023-08-21 17:18:30.402290,-76.0
2023-08-21 17:18:30.409978,-79.0
2023-08-21 17:18:30.417667,-72.0
2023-08-21 17:18:30.425355,-69.0
2023-08-21 17:18:30.433043,-62.0
2023-08-21 17:18:30.440732,19.0
2023-08-21 17:18:30.448420,319.0
2023-08-21 17:18:30.456108,739.0
2023-08-21 17:18:30.463797,787.0
2023-08-21 17:18:30.471485,271.0
2023-08-21 17:18:30.479173,-256.0
2023-08-21 17:18:30.486862,-280.0
2023-08-21 17:18:30.494550,-98.0
2023-08-21 17:18:30.502238,-112.0
2023-08-21 17:18:30.509927,-168.0
2023-08-21 17:18:30.517615,-132.0
2023-08-21 17:18:30.525303,-115.0
2023-08-21 17:18:30.532991,-132.0
2023-08-21 17:18:30.540680,-122.0
2023-08-21 17:18:30.548368,-108.0
2023-08-21 17:18:30.556056,-103.0
2023-08-21 17:18:30.563745,-96.0
2023-08-21 17:18:30.571433,-86.0
2023-08-21 17:18:30.579121,-86.0
2023-08-21 17:18:30.586810,-81.0
2023-08-21 17:18:30.594498,-74.0
2023-08-21 17:18:30.602186,-69.0
2023-08-21 17:18:30.609875,-62.0
2023-08-21 17:18:30.617563,-52.0
2023-08-21 17:18:30.625251,-50.0
2023-08-21 17:18:30.632940,-50.0
2023-08-21 17:18:30.640628,-45.0
2023-08-21 17:18:30.648316,-36.0
2023-08-21 17:18:30.656005,-31.0
2023-08-21 17:18:30.663693,-24.0
2023-08-21 17:18:30.671381,-14.0
2023-08-21 17:18:30.679070,-7.0
2023-08-21 17:18:30.686758,-4.0
2023-08-21 17:18:30.694446,2.0
2023-08-21 17:18:30.702135,14.0
2023-08-21 17:18:30.709823,28.0
2023-08-21 17:18:30.717511,45.0
2023-08-21 17:18:30.725200,57.0
2023-08-21 17:18:30.732888,72.0
2023-08-21 17:18:30.740576,88.0
2023-08-21 17:18:30.748265,105.0
2023-08-21 17:18:30.755953,117.0
2023-08-21 17:18:30.763641,117.0
2023-08-21 17:18:30.771330,108.0
2023-08-21 17:18:30.779018,91.0
2023-08-21 17:18:30.786706,67.0
2023-08-21 17:18:30.794394,28.0
2023-08-21 17:18:30.802083,-16.0
2023-08-21 17:18:30.809771,-55.0
2023-08-21 17:18:30.817459,-84.0
2023-08-21 17:18:30.825148,-110.0
2023-08-21 17:18:30.832836,-124.0
2023-08-21 17:18:30.840524,-132.0
2023-08-21 17:18:30.848213,-136.0
2023-08-21 17:18:30.855901,-136.0
2023-08-21 17:18:30.863589,-136.0
2023-08-21 17:18:30.871278,-134.0
2023-08-21 17:18:30.878966,-129.0
2023-08-21 17:18:30.886654,-124.0
2023-08-21 17:18:30.894343,-117.0
2023-08-21 17:18:30.902031,-112.0
2023-08-21 17:18:30.909719,-110.0
2023-08-21 17:18:30.917408,-110.0
2023-08-21 17:18:30.925096,-100.0
2023-08-21 17:18:30.932784,-93.0
2023-08-21 17:18:30.940473,-91.0
2023-08-21 17:18:30.948161,-91.0
2023-08-21 17:18:30.955849,-91.0
2023-08-21 17:18:30.963538,-86.0
2023-08-21 17:18:30.971226,-79.0
2023-08-21 17:18:30.978914,-79.0
2023-08-21 17:18:30.986603,-88.0
2023-08-21 17:18:30.994291,-96.0
2023-08-21 17:18:31.001979,-96.0
2023-08-21 17:18:31.009668,-98.0
2023-08-21 17:18:31.017356,-100.0
2023-08-21 17:18:31.025044,-98.0
2023-08-21 17:18:31.032733,-100.0
2023-08-21 17:18:31.040421,-103.0
2023-08-21 17:18:31.048109,-98.0
2023-08-21 17:18:31.055797,-93.0
2023-08-21 17:18:31.063486,-100.0
2023-08-21 17:18:31.071174,-105.0
2023-08-21 17:18:31.078862,-103.0
2023-08-21 17:18:31.086551,-98.0
2023-08-21 17:18:31.094239,-100.0
2023-08-21 17:18:31.101927,-100.0
2023-08-21 17:18:31.109616,-103.0
2023-08-21 17:18:31.117304,-108.0
2023-08-21 17:18:31.124992,-100.0
2023-08-21 17:18:31.132681,-96.0
2023-08-21 17:18:31.140369,-100.0
2023-08-21 17:18:31.148057,-103.0
2023-08-21 17:18:31.155746,-98.0
2023-08-21 17:18:31.163434,-96.0
2023-08-21 17:18:31.171122,-96.0
2023-08-21 17:18:31.178811,-100.0
2023-08-21 17:18:31.186499,-98.0
2023-08-21 17:18:31.194187,-96.0
2023-08-21 17:18:31.201876,-103.0
2023-08-21 17:18:31.209564,-108.0
2023-08-21 17:18:31.217252,-108.0
2023-08-21 17:18:31.224941,-105.0
2023-08-21 17:18:31.232629,-100.0
2023-08-21 17:18:31.240317,-100.0
2023-08-21 17:18:31.248006,-98.0
2023-08-21 17:18:31.255694,-93.0
2023-08-21 17:18:31.263382,-96.0
2023-08-21 17:18:31.271071,-100.0
2023-08-21 17:18:31.278759,-91.0
2023-08-21 17:18:31.286447,-86.0
2023-08-21 17:18:31.294136,-96.0
2023-08-21 17:18:31.301824,-98.0
2023-08-21 17:18:31.309512,-84.0
2023-08-21 17:18:31.317200,-76.0
2023-08-21 17:18:31.324889,-81.0
2023-08-21 17:18:31.332577,-79.0
2023-08-21 17:18:31.340265,-76.0
2023-08-21 17:18:31.347954,-81.0
2023-08-21 17:18:31.355642,-88.0
2023-08-21 17:18:31.363330,-91.0
2023-08-21 17:18:31.371019,-84.0
2023-08-21 17:18:31.378707,-81.0
2023-08-21 17:18:31.386395,-86.0
2023-08-21 17:18:31.394084,-86.0
2023-08-21 17:18:31.401772,-81.0
2023-08-21 17:18:31.409460,-79.0
2023-08-21 17:18:31.417149,-72.0
2023-08-21 17:18:31.424837,-62.0
2023-08-21 17:18:31.432525,-48.0
2023-08-21 17:18:31.440214,-24.0
2023-08-21 17:18:31.447902,-12.0
2023-08-21 17:18:31.455590,-24.0
2023-08-21 17:18:31.463279,-48.0
2023-08-21 17:18:31.470967,-62.0
2023-08-21 17:18:31.478655,-76.0
2023-08-21 17:18:31.486344,-81.0
2023-08-21 17:18:31.494032,-79.0
2023-08-21 17:18:31.501720,-81.0
2023-08-21 17:18:31.509409,-84.0
2023-08-21 17:18:31.517097,-81.0
2023-08-21 17:18:31.524785,-79.0
2023-08-21 17:18:31.532474,-72.0
2023-08-21 17:18:31.540162,-31.0
2023-08-21 17:18:31.547850,156.0
2023-08-21 17:18:31.555539,542.0
2023-08-21 17:18:31.563227,775.0
2023-08-21 17:18:31.570915,472.0
2023-08-21 17:18:31.578603,-93.0
2023-08-21 17:18:31.586292,-302.0
2023-08-21 17:18:31.593980,-151.0
2023-08-21 17:18:31.601668,-88.0
2023-08-21 17:18:31.609357,-151.0
2023-08-21 17:18:31.617045,-146.0
2023-08-21 17:18:31.624733,-115.0
2023-08-21 17:18:31.632422,-117.0
2023-08-21 17:18:31.640110,-115.0
2023-08-21 17:18:31.647798,-110.0
2023-08-21 17:18:31.655487,-108.0
2023-08-21 17:18:31.663175,-96.0
2023-08-21 17:18:31.670863,-84.0
2023-08-21 17:18:31.678552,-81.0
2023-08-21 17:18:31.686240,-84.0
2023-08-21 17:18:31.693928,-76.0
2023-08-21 17:18:31.701617,-69.0
2023-08-21 17:18:31.709305,-69.0
2023-08-21 17:18:31.716993,-67.0
2023-08-21 17:18:31.724682,-57.0
2023-08-21 17:18:31.732370,-52.0
2023-08-21 17:18:31.740058,-57.0
2023-08-21 17:18:31.747747,-55.0
2023-08-21 17:18:31.755435,-48.0
2023-08-21 17:18:31.763123,-40.0
2023-08-21 17:18:31.770812,-28.0
2023-08-21 17:18:31.778500,-21.0
2023-08-21 17:18:31.786188,-19.0
2023-08-21 17:18:31.793877,-9.0
2023-08-21 17:18:31.801565,4.0
2023-08-21 17:18:31.809253,16.0
2023-08-21 17:18:31.816942,26.0
2023-08-21 17:18:31.824630,40.0
2023-08-21 17:18:31.832318,60.0
2023-08-21 17:18:31.840006,79.0
2023-08-21 17:18:31.847695,84.0
2023-08-21 17:18:31.855383,88.0
2023-08-21 17:18:31.863071,100.0
2023-08-21 17:18:31.870760,105.0
2023-08-21 17:18:31.878448,100.0
2023-08-21 17:18:31.886136,88.0
2023-08-21 17:18:31.893825,57.0
2023-08-21 17:18:31.901513,12.0
2023-08-21 17:18:31.909201,-26.0
2023-08-21 17:18:31.916890,-52.0
2023-08-21 17:18:31.924578,-81.0
2023-08-21 17:18:31.932266,-108.0
2023-08-21 17:18:31.939955,-124.0
2023-08-21 17:18:31.947643,-124.0
2023-08-21 17:18:31.955331,-124.0
2023-08-21 17:18:31.963020,-124.0
2023-08-21 17:18:31.970708,-122.0
2023-08-21 17:18:31.978396,-120.0
2023-08-21 17:18:31.986085,-120.0
2023-08-21 17:18:31.993773,-112.0
2023-08-21 17:18:32.001461,-103.0
2023-08-21 17:18:32.009150,-103.0
2023-08-21 17:18:32.016838,-108.0
2023-08-21 17:18:32.024526,-100.0
2023-08-21 17:18:32.032215,-86.0
2023-08-21 17:18:32.039903,-86.0
2023-08-21 17:18:32.047591,-88.0
2023-08-21 17:18:32.055280,-84.0
2023-08-21 17:18:32.062968,-81.0
2023-08-21 17:18:32.070656,-91.0
2023-08-21 17:18:32.078345,-105.0
2023-08-21 17:18:32.086033,-108.0
2023-08-21 17:18:32.093721,-93.0
2023-08-21 17:18:32.101409,-91.0
2023-08-21 17:18:32.109098,-103.0
2023-08-21 17:18:32.116786,-108.0
2023-08-21 17:18:32.124474,-105.0
2023-08-21 17:18:32.132163,-100.0
2023-08-21 17:18:32.139851,-98.0
2023-08-21 17:18:32.147539,-100.0
2023-08-21 17:18:32.155228,-103.0
2023-08-21 17:18:32.162916,-100.0
2023-08-21 17:18:32.170604,-100.0
2023-08-21 17:18:32.178293,-103.0
2023-08-21 17:18:32.185981,-100.0
2023-08-21 17:18:32.193669,-100.0
2023-08-21 17:18:32.201358,-105.0
2023-08-21 17:18:32.209046,-105.0
2023-08-21 17:18:32.216734,-108.0
2023-08-21 17:18:32.224423,-108.0
2023-08-21 17:18:32.232111,-103.0
2023-08-21 17:18:32.239799,-108.0
2023-08-21 17:18:32.247488,-110.0
2023-08-21 17:18:32.255176,-103.0
2023-08-21 17:18:32.262864,-103.0
2023-08-21 17:18:32.270553,-108.0
2023-08-21 17:18:32.278241,-108.0
2023-08-21 17:18:32.285929,-105.0
2023-08-21 17:18:32.293618,-112.0
2023-08-21 17:18:32.301306,-117.0
2023-08-21 17:18:32.308994,-108.0
2023-08-21 17:18:32.316683,-100.0
2023-08-21 17:18:32.324371,-108.0
2023-08-21 17:18:32.332059,-105.0
2023-08-21 17:18:32.339748,-98.0
2023-08-21 17:18:32.347436,-105.0
2023-08-21 17:18:32.355124,-110.0
2023-08-21 17:18:32.362812,-98.0
2023-08-21 17:18:32.370501,-93.0
2023-08-21 17:18:32.378189,-98.0
2023-08-21 17:18:32.385877,-100.0
2023-08-21 17:18:32.393566,-98.0
2023-08-21 17:18:32.401254,-96.0
2023-08-21 17:18:32.408942,-93.0
2023-08-21 17:18:32.416631,-91.0
2023-08-21 17:18:32.424319,-91.0
2023-08-21 17:18:32.432007,-91.0
2023-08-21 17:18:32.439696,-91.0
2023-08-21 17:18:32.447384,-86.0
2023-08-21 17:18:32.455072,-81.0
2023-08-21 17:18:32.462761,-81.0
2023-08-21 17:18:32.470449,-81.0
2023-08-21 17:18:32.478137,-81.0
2023-08-21 17:18:32.485826,-79.0
2023-08-21 17:18:32.493514,-64.0
2023-08-21 17:18:32.501202,-38.0
2023-08-21 17:18:32.508891,-26.0
2023-08-21 17:18:32.516579,-43.0
2023-08-21 17:18:32.524267,-67.0
2023-08-21 17:18:32.531956,-86.0
2023-08-21 17:18:32.539644,-98.0
2023-08-21 17:18:32.547332,-103.0
2023-08-21 17:18:32.555021,-96.0
2023-08-21 17:18:32.562709,-100.0
2023-08-21 17:18:32.570397,-117.0
2023-08-21 17:18:32.578086,-112.0
2023-08-21 17:18:32.585774,-100.0
2023-08-21 17:18:32.593462,-98.0
2023-08-21 17:18:32.601150,-67.0
2023-08-21 17:18:32.608839,100.0
2023-08-21 17:18:32.616527,487.0
2023-08-21 17:18:32.624215,806.0
2023-08-21 17:18:32.631904,578.0
2023-08-21 17:18:32.639592,-50.0
2023-08-21 17:18:32.647280,-369.0
2023-08-21 17:18:32.654969,-218.0
2023-08-21 17:18:32.662657,-110.0
2023-08-21 17:18:32.670345,-172.0
2023-08-21 17:18:32.678034,-170.0
2023-08-21 17:18:32.685722,-132.0
2023-08-21 17:18:32.693410,-144.0
2023-08-21 17:18:32.701099,-144.0
2023-08-21 17:18:32.708787,-129.0
2023-08-21 17:18:32.716475,-134.0
2023-08-21 17:18:32.724164,-136.0
2023-08-21 17:18:32.731852,-124.0
2023-08-21 17:18:32.739540,-117.0
2023-08-21 17:18:32.747229,-115.0
2023-08-21 17:18:32.754917,-105.0
2023-08-21 17:18:32.762605,-98.0
2023-08-21 17:18:32.770294,-93.0
2023-08-21 17:18:32.777982,-84.0
2023-08-21 17:18:32.785670,-79.0
2023-08-21 17:18:32.793359,-81.0
2023-08-21 17:18:32.801047,-79.0
2023-08-21 17:18:32.808735,-67.0
2023-08-21 17:18:32.816424,-55.0
2023-08-21 17:18:32.824112,-45.0
2023-08-21 17:18:32.831800,-38.0
2023-08-21 17:18:32.839489,-33.0
2023-08-21 17:18:32.847177,-26.0
2023-08-21 17:18:32.854865,-14.0
2023-08-21 17:18:32.862553,2.0
2023-08-21 17:18:32.870242,14.0
2023-08-21 17:18:32.877930,31.0
2023-08-21 17:18:32.885618,50.0
2023-08-21 17:18:32.893307,67.0
2023-08-21 17:18:32.900995,81.0
2023-08-21 17:18:32.908683,93.0
2023-08-21 17:18:32.916372,110.0
2023-08-21 17:18:32.924060,122.0
2023-08-21 17:18:32.931748,124.0
2023-08-21 17:18:32.939437,120.0
2023-08-21 17:18:32.947125,96.0
2023-08-21 17:18:32.954813,52.0
2023-08-21 17:18:32.962502,14.0
2023-08-21 17:18:32.970190,-26.0
2023-08-21 17:18:32.977878,-72.0
2023-08-21 17:18:32.985567,-100.0
2023-08-21 17:18:32.993255,-115.0
2023-08-21 17:18:33.000943,-132.0
2023-08-21 17:18:33.008632,-144.0
