time,ECG
2023-08-15 12:54:13.152962,-50.0
2023-08-15 12:54:13.160652,-43.0
2023-08-15 12:54:13.168341,-43.0
2023-08-15 12:54:13.176030,-50.0
2023-08-15 12:54:13.183720,-38.0
2023-08-15 12:54:13.191409,-26.0
2023-08-15 12:54:13.199098,-43.0
2023-08-15 12:54:13.206788,-45.0
2023-08-15 12:54:13.214477,-24.0
2023-08-15 12:54:13.222166,-26.0
2023-08-15 12:54:13.229856,-45.0
2023-08-15 12:54:13.237545,-41.0
2023-08-15 12:54:13.245235,-33.0
2023-08-15 12:54:13.252924,-28.0
2023-08-15 12:54:13.260613,-14.0
2023-08-15 12:54:13.268303,-14.0
2023-08-15 12:54:13.275992,-26.0
2023-08-15 12:54:13.283681,-28.0
2023-08-15 12:54:13.291371,-28.0
2023-08-15 12:54:13.299060,-24.0
2023-08-15 12:54:13.306749,-21.0
2023-08-15 12:54:13.314439,-21.0
2023-08-15 12:54:13.322128,-21.0
2023-08-15 12:54:13.329817,-31.0
2023-08-15 12:54:13.337507,-50.0
2023-08-15 12:54:13.345196,-57.0
2023-08-15 12:54:13.352886,-57.0
2023-08-15 12:54:13.360575,-86.0
2023-08-15 12:54:13.368264,-110.0
2023-08-15 12:54:13.375954,-89.0
2023-08-15 12:54:13.383643,-57.0
2023-08-15 12:54:13.391332,-62.0
2023-08-15 12:54:13.399022,-60.0
2023-08-15 12:54:13.406711,-12.0
2023-08-15 12:54:13.414400,21.0
2023-08-15 12:54:13.422090,4.0
2023-08-15 12:54:13.429779,0.0
2023-08-15 12:54:13.437469,9.0
2023-08-15 12:54:13.445158,-9.0
2023-08-15 12:54:13.452847,-31.0
2023-08-15 12:54:13.460537,-16.0
2023-08-15 12:54:13.468226,9.0
2023-08-15 12:54:13.475915,-2.0
2023-08-15 12:54:13.483605,-125.0
2023-08-15 12:54:13.491294,-407.0
2023-08-15 12:54:13.498983,-798.0
2023-08-15 12:54:13.506673,-986.0
2023-08-15 12:54:13.514362,-586.0
2023-08-15 12:54:13.522051,132.0
2023-08-15 12:54:13.529741,388.0
2023-08-15 12:54:13.537430,108.0
2023-08-15 12:54:13.545120,-41.0
2023-08-15 12:54:13.552809,77.0
2023-08-15 12:54:13.560498,94.0
2023-08-15 12:54:13.568188,33.0
2023-08-15 12:54:13.575877,38.0
2023-08-15 12:54:13.583566,38.0
2023-08-15 12:54:13.591256,9.0
2023-08-15 12:54:13.598945,2.0
2023-08-15 12:54:13.606634,2.0
2023-08-15 12:54:13.614324,-12.0
2023-08-15 12:54:13.622013,-19.0
2023-08-15 12:54:13.629702,-16.0
2023-08-15 12:54:13.637392,-21.0
2023-08-15 12:54:13.645081,-38.0
2023-08-15 12:54:13.652771,-62.0
2023-08-15 12:54:13.660460,-72.0
2023-08-15 12:54:13.668149,-77.0
2023-08-15 12:54:13.675839,-79.0
2023-08-15 12:54:13.683528,-91.0
2023-08-15 12:54:13.691217,-118.0
2023-08-15 12:54:13.698907,-118.0
2023-08-15 12:54:13.706596,-106.0
2023-08-15 12:54:13.714285,-115.0
2023-08-15 12:54:13.721975,-120.0
2023-08-15 12:54:13.729664,-106.0
2023-08-15 12:54:13.737353,-101.0
2023-08-15 12:54:13.745043,-103.0
2023-08-15 12:54:13.752732,-86.0
2023-08-15 12:54:13.760422,-65.0
2023-08-15 12:54:13.768111,-57.0
2023-08-15 12:54:13.775800,-53.0
2023-08-15 12:54:13.783490,-55.0
2023-08-15 12:54:13.791179,-60.0
2023-08-15 12:54:13.798868,-36.0
2023-08-15 12:54:13.806558,-19.0
2023-08-15 12:54:13.814247,-38.0
2023-08-15 12:54:13.821936,-50.0
2023-08-15 12:54:13.829626,-36.0
2023-08-15 12:54:13.837315,-45.0
2023-08-15 12:54:13.845005,-55.0
2023-08-15 12:54:13.852694,-36.0
2023-08-15 12:54:13.860383,-26.0
2023-08-15 12:54:13.868073,-36.0
2023-08-15 12:54:13.875762,-43.0
2023-08-15 12:54:13.883451,-53.0
2023-08-15 12:54:13.891141,-53.0
2023-08-15 12:54:13.898830,-50.0
2023-08-15 12:54:13.906519,-38.0
2023-08-15 12:54:13.914209,-28.0
2023-08-15 12:54:13.921898,-36.0
2023-08-15 12:54:13.929587,-41.0
2023-08-15 12:54:13.937277,-33.0
2023-08-15 12:54:13.944966,-28.0
2023-08-15 12:54:13.952656,-24.0
2023-08-15 12:54:13.960345,-21.0
2023-08-15 12:54:13.968034,-28.0
2023-08-15 12:54:13.975724,-28.0
2023-08-15 12:54:13.983413,-26.0
2023-08-15 12:54:13.991102,-33.0
2023-08-15 12:54:13.998792,-43.0
2023-08-15 12:54:14.006481,-50.0
2023-08-15 12:54:14.014170,-62.0
2023-08-15 12:54:14.021860,-89.0
2023-08-15 12:54:14.029549,-118.0
2023-08-15 12:54:14.037238,-118.0
2023-08-15 12:54:14.044928,-91.0
2023-08-15 12:54:14.052617,-53.0
2023-08-15 12:54:14.060307,-26.0
2023-08-15 12:54:14.067996,-14.0
2023-08-15 12:54:14.075685,-16.0
2023-08-15 12:54:14.083375,-12.0
2023-08-15 12:54:14.091064,7.0
2023-08-15 12:54:14.098753,4.0
2023-08-15 12:54:14.106443,-2.0
2023-08-15 12:54:14.114132,4.0
2023-08-15 12:54:14.121821,7.0
2023-08-15 12:54:14.129511,2.0
2023-08-15 12:54:14.137200,9.0
2023-08-15 12:54:14.144889,0.0
2023-08-15 12:54:14.152579,-118.0
2023-08-15 12:54:14.160268,-434.0
2023-08-15 12:54:14.167958,-880.0
2023-08-15 12:54:14.175647,-1093.0
2023-08-15 12:54:14.183336,-699.0
2023-08-15 12:54:14.191026,60.0
2023-08-15 12:54:14.198715,412.0
2023-08-15 12:54:14.206404,166.0
2023-08-15 12:54:14.214094,-12.0
2023-08-15 12:54:14.221783,89.0
2023-08-15 12:54:14.229472,101.0
2023-08-15 12:54:14.237162,33.0
2023-08-15 12:54:14.244851,41.0
2023-08-15 12:54:14.252541,45.0
2023-08-15 12:54:14.260230,24.0
2023-08-15 12:54:14.267919,26.0
2023-08-15 12:54:14.275609,19.0
2023-08-15 12:54:14.283298,-12.0
2023-08-15 12:54:14.290987,-21.0
2023-08-15 12:54:14.298677,-16.0
2023-08-15 12:54:14.306366,-26.0
2023-08-15 12:54:14.314055,-36.0
2023-08-15 12:54:14.321745,-31.0
2023-08-15 12:54:14.329434,-45.0
2023-08-15 12:54:14.337123,-77.0
2023-08-15 12:54:14.344813,-94.0
2023-08-15 12:54:14.352502,-91.0
2023-08-15 12:54:14.360192,-96.0
2023-08-15 12:54:14.367881,-108.0
2023-08-15 12:54:14.375570,-103.0
2023-08-15 12:54:14.383260,-86.0
2023-08-15 12:54:14.390949,-77.0
2023-08-15 12:54:14.398638,-72.0
2023-08-15 12:54:14.406328,-62.0
2023-08-15 12:54:14.414017,-77.0
2023-08-15 12:54:14.421706,-89.0
2023-08-15 12:54:14.429396,-60.0
2023-08-15 12:54:14.437085,-36.0
2023-08-15 12:54:14.444774,-41.0
2023-08-15 12:54:14.452464,-41.0
2023-08-15 12:54:14.460153,-36.0
2023-08-15 12:54:14.467843,-28.0
2023-08-15 12:54:14.475532,-19.0
2023-08-15 12:54:14.483221,-33.0
2023-08-15 12:54:14.490911,-57.0
2023-08-15 12:54:14.498600,-67.0
2023-08-15 12:54:14.506289,-65.0
2023-08-15 12:54:14.513979,-55.0
2023-08-15 12:54:14.521668,-48.0
2023-08-15 12:54:14.529357,-50.0
2023-08-15 12:54:14.537047,-65.0
2023-08-15 12:54:14.544736,-48.0
2023-08-15 12:54:14.552426,-33.0
2023-08-15 12:54:14.560115,-69.0
2023-08-15 12:54:14.567804,-79.0
2023-08-15 12:54:14.575494,-36.0
2023-08-15 12:54:14.583183,-31.0
2023-08-15 12:54:14.590872,-50.0
2023-08-15 12:54:14.598562,-33.0
2023-08-15 12:54:14.606251,-28.0
2023-08-15 12:54:14.613940,-41.0
2023-08-15 12:54:14.621630,-33.0
2023-08-15 12:54:14.629319,-24.0
2023-08-15 12:54:14.637008,-31.0
2023-08-15 12:54:14.644698,-28.0
2023-08-15 12:54:14.652387,-26.0
2023-08-15 12:54:14.660077,-36.0
2023-08-15 12:54:14.667766,-36.0
2023-08-15 12:54:14.675455,-31.0
2023-08-15 12:54:14.683145,-43.0
2023-08-15 12:54:14.690834,-57.0
2023-08-15 12:54:14.698523,-60.0
2023-08-15 12:54:14.706213,-69.0
2023-08-15 12:54:14.713902,-106.0
2023-08-15 12:54:14.721591,-144.0
2023-08-15 12:54:14.729281,-139.0
2023-08-15 12:54:14.736970,-103.0
2023-08-15 12:54:14.744659,-65.0
2023-08-15 12:54:14.752349,-45.0
2023-08-15 12:54:14.760038,-24.0
2023-08-15 12:54:14.767728,4.0
2023-08-15 12:54:14.775417,12.0
2023-08-15 12:54:14.783106,4.0
2023-08-15 12:54:14.790796,2.0
2023-08-15 12:54:14.798485,-7.0
2023-08-15 12:54:14.806174,-16.0
2023-08-15 12:54:14.813864,-14.0
2023-08-15 12:54:14.821553,-14.0
2023-08-15 12:54:14.829242,0.0
2023-08-15 12:54:14.836932,-7.0
2023-08-15 12:54:14.844621,-164.0
2023-08-15 12:54:14.852310,-528.0
2023-08-15 12:54:14.860000,-938.0
2023-08-15 12:54:14.867689,-972.0
2023-08-15 12:54:14.875379,-422.0
2023-08-15 12:54:14.883068,241.0
2023-08-15 12:54:14.890757,330.0
2023-08-15 12:54:14.898447,31.0
2023-08-15 12:54:14.906136,9.0
2023-08-15 12:54:14.913825,137.0
2023-08-15 12:54:14.921515,89.0
2023-08-15 12:54:14.929204,38.0
2023-08-15 12:54:14.936893,60.0
2023-08-15 12:54:14.944583,45.0
2023-08-15 12:54:14.952272,24.0
2023-08-15 12:54:14.959962,24.0
2023-08-15 12:54:14.967651,9.0
2023-08-15 12:54:14.975340,-9.0
2023-08-15 12:54:14.983030,-14.0
2023-08-15 12:54:14.990719,-16.0
2023-08-15 12:54:14.998408,-33.0
2023-08-15 12:54:15.006098,-43.0
2023-08-15 12:54:15.013787,-50.0
2023-08-15 12:54:15.021476,-77.0
2023-08-15 12:54:15.029166,-96.0
2023-08-15 12:54:15.036855,-84.0
2023-08-15 12:54:15.044544,-96.0
2023-08-15 12:54:15.052234,-127.0
2023-08-15 12:54:15.059923,-137.0
2023-08-15 12:54:15.067613,-123.0
2023-08-15 12:54:15.075302,-118.0
2023-08-15 12:54:15.082991,-137.0
2023-08-15 12:54:15.090681,-144.0
2023-08-15 12:54:15.098370,-115.0
2023-08-15 12:54:15.106059,-89.0
2023-08-15 12:54:15.113749,-82.0
2023-08-15 12:54:15.121438,-69.0
2023-08-15 12:54:15.129127,-65.0
2023-08-15 12:54:15.136817,-60.0
2023-08-15 12:54:15.144506,-48.0
2023-08-15 12:54:15.152195,-41.0
2023-08-15 12:54:15.159885,-38.0
2023-08-15 12:54:15.167574,-43.0
2023-08-15 12:54:15.175264,-33.0
2023-08-15 12:54:15.182953,-26.0
2023-08-15 12:54:15.190642,-43.0
2023-08-15 12:54:15.198332,-53.0
2023-08-15 12:54:15.206021,-41.0
2023-08-15 12:54:15.213710,-41.0
2023-08-15 12:54:15.221400,-48.0
2023-08-15 12:54:15.229089,-50.0
2023-08-15 12:54:15.236778,-57.0
2023-08-15 12:54:15.244468,-55.0
2023-08-15 12:54:15.252157,-31.0
2023-08-15 12:54:15.259846,-24.0
2023-08-15 12:54:15.267536,-41.0
2023-08-15 12:54:15.275225,-48.0
2023-08-15 12:54:15.282915,-45.0
2023-08-15 12:54:15.290604,-43.0
2023-08-15 12:54:15.298293,-33.0
2023-08-15 12:54:15.305983,-26.0
2023-08-15 12:54:15.313672,-21.0
2023-08-15 12:54:15.321361,-19.0
2023-08-15 12:54:15.329051,-16.0
2023-08-15 12:54:15.336740,-9.0
2023-08-15 12:54:15.344429,-12.0
2023-08-15 12:54:15.352119,-24.0
2023-08-15 12:54:15.359808,-24.0
2023-08-15 12:54:15.367498,-9.0
2023-08-15 12:54:15.375187,-19.0
2023-08-15 12:54:15.382876,-36.0
2023-08-15 12:54:15.390566,-19.0
2023-08-15 12:54:15.398255,-4.0
2023-08-15 12:54:15.405944,-21.0
2023-08-15 12:54:15.413634,-41.0
2023-08-15 12:54:15.421323,-50.0
2023-08-15 12:54:15.429012,-57.0
2023-08-15 12:54:15.436702,-72.0
2023-08-15 12:54:15.444391,-106.0
2023-08-15 12:54:15.452080,-125.0
2023-08-15 12:54:15.459770,-94.0
2023-08-15 12:54:15.467459,-53.0
2023-08-15 12:54:15.475149,-31.0
2023-08-15 12:54:15.482838,-21.0
2023-08-15 12:54:15.490527,0.0
2023-08-15 12:54:15.498217,21.0
2023-08-15 12:54:15.505906,16.0
2023-08-15 12:54:15.513595,7.0
2023-08-15 12:54:15.521285,12.0
2023-08-15 12:54:15.528974,9.0
2023-08-15 12:54:15.536663,-9.0
2023-08-15 12:54:15.544353,-16.0
2023-08-15 12:54:15.552042,-9.0
2023-08-15 12:54:15.559731,-26.0
2023-08-15 12:54:15.567421,-139.0
2023-08-15 12:54:15.575110,-427.0
2023-08-15 12:54:15.582800,-825.0
2023-08-15 12:54:15.590489,-960.0
2023-08-15 12:54:15.598178,-526.0
2023-08-15 12:54:15.605868,154.0
2023-08-15 12:54:15.613557,361.0
2023-08-15 12:54:15.621246,79.0
2023-08-15 12:54:15.628936,-21.0
2023-08-15 12:54:15.636625,101.0
2023-08-15 12:54:15.644314,89.0
2023-08-15 12:54:15.652004,33.0
2023-08-15 12:54:15.659693,55.0
2023-08-15 12:54:15.667382,55.0
2023-08-15 12:54:15.675072,24.0
2023-08-15 12:54:15.682761,9.0
2023-08-15 12:54:15.690451,2.0
2023-08-15 12:54:15.698140,-9.0
2023-08-15 12:54:15.705829,-16.0
2023-08-15 12:54:15.713519,-21.0
2023-08-15 12:54:15.721208,-19.0
2023-08-15 12:54:15.728897,-24.0
2023-08-15 12:54:15.736587,-60.0
2023-08-15 12:54:15.744276,-89.0
2023-08-15 12:54:15.751965,-67.0
2023-08-15 12:54:15.759655,-62.0
2023-08-15 12:54:15.767344,-101.0
2023-08-15 12:54:15.775034,-115.0
2023-08-15 12:54:15.782723,-106.0
2023-08-15 12:54:15.790412,-118.0
2023-08-15 12:54:15.798102,-139.0
2023-08-15 12:54:15.805791,-127.0
2023-08-15 12:54:15.813480,-106.0
2023-08-15 12:54:15.821170,-98.0
2023-08-15 12:54:15.828859,-79.0
2023-08-15 12:54:15.836548,-57.0
2023-08-15 12:54:15.844238,-50.0
2023-08-15 12:54:15.851927,-38.0
2023-08-15 12:54:15.859616,-28.0
2023-08-15 12:54:15.867306,-38.0
2023-08-15 12:54:15.874995,-31.0
2023-08-15 12:54:15.882685,-16.0
2023-08-15 12:54:15.890374,-21.0
2023-08-15 12:54:15.898063,-26.0
2023-08-15 12:54:15.905753,-19.0
2023-08-15 12:54:15.913442,-28.0
2023-08-15 12:54:15.921131,-36.0
2023-08-15 12:54:15.928821,-16.0
2023-08-15 12:54:15.936510,-7.0
2023-08-15 12:54:15.944199,-19.0
2023-08-15 12:54:15.951889,-31.0
2023-08-15 12:54:15.959578,-38.0
2023-08-15 12:54:15.967267,-38.0
2023-08-15 12:54:15.974957,-33.0
2023-08-15 12:54:15.982646,-21.0
2023-08-15 12:54:15.990336,-19.0
2023-08-15 12:54:15.998025,-31.0
2023-08-15 12:54:16.005714,-28.0
2023-08-15 12:54:16.013404,-16.0
2023-08-15 12:54:16.021093,-16.0
2023-08-15 12:54:16.028782,-16.0
2023-08-15 12:54:16.036472,-7.0
2023-08-15 12:54:16.044161,-2.0
2023-08-15 12:54:16.051850,-14.0
2023-08-15 12:54:16.059540,-14.0
2023-08-15 12:54:16.067229,-9.0
2023-08-15 12:54:16.074918,-16.0
2023-08-15 12:54:16.082608,-21.0
2023-08-15 12:54:16.090297,-21.0
2023-08-15 12:54:16.097987,-16.0
2023-08-15 12:54:16.105676,-12.0
2023-08-15 12:54:16.113365,-14.0
2023-08-15 12:54:16.121055,-16.0
2023-08-15 12:54:16.128744,-9.0
2023-08-15 12:54:16.136433,-4.0
2023-08-15 12:54:16.144123,-12.0
2023-08-15 12:54:16.151812,-7.0
2023-08-15 12:54:16.159501,0.0
2023-08-15 12:54:16.167191,-26.0
2023-08-15 12:54:16.174880,-67.0
2023-08-15 12:54:16.182570,-77.0
2023-08-15 12:54:16.190259,-79.0
2023-08-15 12:54:16.197948,-108.0
2023-08-15 12:54:16.205638,-139.0
2023-08-15 12:54:16.213327,-127.0
2023-08-15 12:54:16.221016,-74.0
2023-08-15 12:54:16.228706,-38.0
2023-08-15 12:54:16.236395,-41.0
2023-08-15 12:54:16.244084,-33.0
2023-08-15 12:54:16.251774,-16.0
2023-08-15 12:54:16.259463,-16.0
2023-08-15 12:54:16.267152,-16.0
2023-08-15 12:54:16.274842,-12.0
2023-08-15 12:54:16.282531,-24.0
2023-08-15 12:54:16.290221,-33.0
2023-08-15 12:54:16.297910,-21.0
2023-08-15 12:54:16.305599,-4.0
2023-08-15 12:54:16.313289,-19.0
2023-08-15 12:54:16.320978,-135.0
2023-08-15 12:54:16.328667,-398.0
2023-08-15 12:54:16.336357,-764.0
2023-08-15 12:54:16.344046,-957.0
2023-08-15 12:54:16.351735,-610.0
2023-08-15 12:54:16.359425,77.0
2023-08-15 12:54:16.367114,349.0
2023-08-15 12:54:16.374803,96.0
2023-08-15 12:54:16.382493,-36.0
2023-08-15 12:54:16.390182,84.0
2023-08-15 12:54:16.397872,77.0
2023-08-15 12:54:16.405561,-9.0
2023-08-15 12:54:16.413250,14.0
2023-08-15 12:54:16.420940,38.0
2023-08-15 12:54:16.428629,12.0
2023-08-15 12:54:16.436318,0.0
2023-08-15 12:54:16.444008,2.0
2023-08-15 12:54:16.451697,7.0
2023-08-15 12:54:16.459386,-7.0
2023-08-15 12:54:16.467076,-33.0
2023-08-15 12:54:16.474765,-43.0
2023-08-15 12:54:16.482454,-50.0
2023-08-15 12:54:16.490144,-77.0
2023-08-15 12:54:16.497833,-86.0
2023-08-15 12:54:16.505523,-74.0
2023-08-15 12:54:16.513212,-79.0
2023-08-15 12:54:16.520901,-101.0
2023-08-15 12:54:16.528591,-110.0
2023-08-15 12:54:16.536280,-118.0
2023-08-15 12:54:16.543969,-123.0
2023-08-15 12:54:16.551659,-118.0
2023-08-15 12:54:16.559348,-108.0
2023-08-15 12:54:16.567037,-108.0
2023-08-15 12:54:16.574727,-110.0
2023-08-15 12:54:16.582416,-91.0
2023-08-15 12:54:16.590106,-65.0
2023-08-15 12:54:16.597795,-62.0
2023-08-15 12:54:16.605484,-55.0
2023-08-15 12:54:16.613174,-36.0
2023-08-15 12:54:16.620863,-36.0
2023-08-15 12:54:16.628552,-43.0
2023-08-15 12:54:16.636242,-33.0
2023-08-15 12:54:16.643931,-24.0
2023-08-15 12:54:16.651620,-21.0
2023-08-15 12:54:16.659310,-12.0
2023-08-15 12:54:16.666999,-9.0
2023-08-15 12:54:16.674688,-19.0
2023-08-15 12:54:16.682378,-26.0
2023-08-15 12:54:16.690067,-45.0
2023-08-15 12:54:16.697757,-53.0
2023-08-15 12:54:16.705446,-43.0
2023-08-15 12:54:16.713135,-50.0
2023-08-15 12:54:16.720825,-48.0
2023-08-15 12:54:16.728514,-36.0
2023-08-15 12:54:16.736203,-50.0
2023-08-15 12:54:16.743893,-57.0
2023-08-15 12:54:16.751582,-33.0
2023-08-15 12:54:16.759271,-14.0
2023-08-15 12:54:16.766961,-24.0
2023-08-15 12:54:16.774650,-28.0
2023-08-15 12:54:16.782339,-21.0
2023-08-15 12:54:16.790029,-21.0
2023-08-15 12:54:16.797718,-28.0
2023-08-15 12:54:16.805408,-31.0
2023-08-15 12:54:16.813097,-16.0
2023-08-15 12:54:16.820786,-16.0
2023-08-15 12:54:16.828476,-28.0
2023-08-15 12:54:16.836165,-26.0
2023-08-15 12:54:16.843854,-14.0
2023-08-15 12:54:16.851544,-7.0
2023-08-15 12:54:16.859233,-12.0
2023-08-15 12:54:16.866922,-26.0
2023-08-15 12:54:16.874612,-24.0
2023-08-15 12:54:16.882301,-7.0
2023-08-15 12:54:16.889991,-7.0
2023-08-15 12:54:16.897680,-9.0
2023-08-15 12:54:16.905369,-14.0
2023-08-15 12:54:16.913059,-38.0
2023-08-15 12:54:16.920748,-41.0
2023-08-15 12:54:16.928437,-21.0
2023-08-15 12:54:16.936127,-31.0
2023-08-15 12:54:16.943816,-50.0
2023-08-15 12:54:16.951505,-60.0
2023-08-15 12:54:16.959195,-82.0
2023-08-15 12:54:16.966884,-103.0
2023-08-15 12:54:16.974573,-108.0
2023-08-15 12:54:16.982263,-98.0
2023-08-15 12:54:16.989952,-69.0
2023-08-15 12:54:16.997642,-43.0
2023-08-15 12:54:17.005331,-36.0
2023-08-15 12:54:17.013020,-26.0
2023-08-15 12:54:17.020710,2.0
2023-08-15 12:54:17.028399,12.0
2023-08-15 12:54:17.036088,-2.0
2023-08-15 12:54:17.043778,-4.0
2023-08-15 12:54:17.051467,-4.0
2023-08-15 12:54:17.059156,-4.0
2023-08-15 12:54:17.066846,2.0
2023-08-15 12:54:17.074535,2.0
2023-08-15 12:54:17.082224,-12.0
2023-08-15 12:54:17.089914,-96.0
2023-08-15 12:54:17.097603,-349.0
2023-08-15 12:54:17.105293,-740.0
2023-08-15 12:54:17.112982,-979.0
2023-08-15 12:54:17.120671,-690.0
2023-08-15 12:54:17.128361,4.0
2023-08-15 12:54:17.136050,386.0
2023-08-15 12:54:17.143739,166.0
2023-08-15 12:54:17.151429,-45.0
2023-08-15 12:54:17.159118,57.0
2023-08-15 12:54:17.166807,98.0
2023-08-15 12:54:17.174497,12.0
2023-08-15 12:54:17.182186,16.0
2023-08-15 12:54:17.189875,50.0
2023-08-15 12:54:17.197565,14.0
2023-08-15 12:54:17.205254,-24.0
2023-08-15 12:54:17.212944,-16.0
2023-08-15 12:54:17.220633,-9.0
2023-08-15 12:54:17.228322,-31.0
2023-08-15 12:54:17.236012,-45.0
2023-08-15 12:54:17.243701,-50.0
2023-08-15 12:54:17.251390,-62.0
2023-08-15 12:54:17.259080,-72.0
2023-08-15 12:54:17.266769,-74.0
2023-08-15 12:54:17.274458,-89.0
2023-08-15 12:54:17.282148,-96.0
2023-08-15 12:54:17.289837,-103.0
2023-08-15 12:54:17.297527,-123.0
2023-08-15 12:54:17.305216,-130.0
2023-08-15 12:54:17.312905,-120.0
2023-08-15 12:54:17.320595,-125.0
2023-08-15 12:54:17.328284,-137.0
2023-08-15 12:54:17.335973,-120.0
2023-08-15 12:54:17.343663,-91.0
2023-08-15 12:54:17.351352,-77.0
2023-08-15 12:54:17.359041,-67.0
2023-08-15 12:54:17.366731,-50.0
2023-08-15 12:54:17.374420,-43.0
2023-08-15 12:54:17.382109,-57.0
2023-08-15 12:54:17.389799,-67.0
2023-08-15 12:54:17.397488,-57.0
2023-08-15 12:54:17.405178,-45.0
2023-08-15 12:54:17.412867,-36.0
2023-08-15 12:54:17.420556,-28.0
2023-08-15 12:54:17.428246,-36.0
2023-08-15 12:54:17.435935,-38.0
2023-08-15 12:54:17.443624,-16.0
2023-08-15 12:54:17.451314,-16.0
2023-08-15 12:54:17.459003,-41.0
2023-08-15 12:54:17.466692,-38.0
2023-08-15 12:54:17.474382,-31.0
2023-08-15 12:54:17.482071,-33.0
2023-08-15 12:54:17.489760,-33.0
2023-08-15 12:54:17.497450,-28.0
2023-08-15 12:54:17.505139,-19.0
2023-08-15 12:54:17.512829,-14.0
2023-08-15 12:54:17.520518,-28.0
2023-08-15 12:54:17.528207,-38.0
2023-08-15 12:54:17.535897,-24.0
2023-08-15 12:54:17.543586,-7.0
2023-08-15 12:54:17.551275,-2.0
2023-08-15 12:54:17.558965,-16.0
2023-08-15 12:54:17.566654,-28.0
2023-08-15 12:54:17.574343,-12.0
2023-08-15 12:54:17.582033,4.0
2023-08-15 12:54:17.589722,2.0
2023-08-15 12:54:17.597411,2.0
2023-08-15 12:54:17.605101,9.0
2023-08-15 12:54:17.612790,-9.0
2023-08-15 12:54:17.620480,-24.0
2023-08-15 12:54:17.628169,-4.0
2023-08-15 12:54:17.635858,4.0
2023-08-15 12:54:17.643548,-7.0
2023-08-15 12:54:17.651237,-9.0
2023-08-15 12:54:17.658926,-9.0
2023-08-15 12:54:17.666616,-16.0
2023-08-15 12:54:17.674305,-12.0
2023-08-15 12:54:17.681994,-14.0
2023-08-15 12:54:17.689684,-55.0
2023-08-15 12:54:17.697373,-79.0
2023-08-15 12:54:17.705063,-77.0
2023-08-15 12:54:17.712752,-89.0
2023-08-15 12:54:17.720441,-120.0
2023-08-15 12:54:17.728131,-127.0
2023-08-15 12:54:17.735820,-84.0
2023-08-15 12:54:17.743509,-41.0
2023-08-15 12:54:17.751199,-31.0
2023-08-15 12:54:17.758888,-26.0
2023-08-15 12:54:17.766577,-9.0
2023-08-15 12:54:17.774267,2.0
2023-08-15 12:54:17.781956,-4.0
2023-08-15 12:54:17.789645,-9.0
2023-08-15 12:54:17.797335,4.0
2023-08-15 12:54:17.805024,4.0
2023-08-15 12:54:17.812714,-9.0
2023-08-15 12:54:17.820403,-4.0
2023-08-15 12:54:17.828092,0.0
2023-08-15 12:54:17.835782,-69.0
2023-08-15 12:54:17.843471,-308.0
2023-08-15 12:54:17.851160,-733.0
2023-08-15 12:54:17.858850,-1085.0
2023-08-15 12:54:17.866539,-912.0
2023-08-15 12:54:17.874228,-212.0
2023-08-15 12:54:17.881918,332.0
2023-08-15 12:54:17.889607,238.0
2023-08-15 12:54:17.897296,-24.0
2023-08-15 12:54:17.904986,24.0
2023-08-15 12:54:17.912675,101.0
2023-08-15 12:54:17.920365,38.0
2023-08-15 12:54:17.928054,33.0
2023-08-15 12:54:17.935743,60.0
2023-08-15 12:54:17.943433,24.0
2023-08-15 12:54:17.951122,-12.0
2023-08-15 12:54:17.958811,-14.0
2023-08-15 12:54:17.966501,-9.0
2023-08-15 12:54:17.974190,-9.0
2023-08-15 12:54:17.981879,-14.0
2023-08-15 12:54:17.989569,-14.0
2023-08-15 12:54:17.997258,-26.0
2023-08-15 12:54:18.004947,-55.0
2023-08-15 12:54:18.012637,-60.0
2023-08-15 12:54:18.020326,-67.0
2023-08-15 12:54:18.028016,-86.0
2023-08-15 12:54:18.035705,-79.0
2023-08-15 12:54:18.043394,-86.0
2023-08-15 12:54:18.051084,-108.0
2023-08-15 12:54:18.058773,-103.0
2023-08-15 12:54:18.066462,-106.0
2023-08-15 12:54:18.074152,-120.0
2023-08-15 12:54:18.081841,-103.0
2023-08-15 12:54:18.089530,-79.0
2023-08-15 12:54:18.097220,-67.0
2023-08-15 12:54:18.104909,-45.0
2023-08-15 12:54:18.112599,-26.0
2023-08-15 12:54:18.120288,-19.0
2023-08-15 12:54:18.127977,-19.0
2023-08-15 12:54:18.135667,-26.0
2023-08-15 12:54:18.143356,-24.0
2023-08-15 12:54:18.151045,-19.0
2023-08-15 12:54:18.158735,-19.0
2023-08-15 12:54:18.166424,-14.0
2023-08-15 12:54:18.174113,-4.0
2023-08-15 12:54:18.181803,-2.0
2023-08-15 12:54:18.189492,-19.0
2023-08-15 12:54:18.197181,-31.0
2023-08-15 12:54:18.204871,-31.0
2023-08-15 12:54:18.212560,-38.0
2023-08-15 12:54:18.220250,-43.0
2023-08-15 12:54:18.227939,-28.0
2023-08-15 12:54:18.235628,-21.0
2023-08-15 12:54:18.243318,-19.0
2023-08-15 12:54:18.251007,-12.0
2023-08-15 12:54:18.258696,-12.0
2023-08-15 12:54:18.266386,-33.0
2023-08-15 12:54:18.274075,-45.0
2023-08-15 12:54:18.281764,-26.0
2023-08-15 12:54:18.289454,-14.0
2023-08-15 12:54:18.297143,-14.0
2023-08-15 12:54:18.304832,-2.0
2023-08-15 12:54:18.312522,0.0
2023-08-15 12:54:18.320211,-14.0
2023-08-15 12:54:18.327901,-19.0
2023-08-15 12:54:18.335590,-14.0
2023-08-15 12:54:18.343279,-7.0
2023-08-15 12:54:18.350969,-4.0
2023-08-15 12:54:18.358658,-14.0
2023-08-15 12:54:18.366347,-24.0
2023-08-15 12:54:18.374037,-21.0
2023-08-15 12:54:18.381726,-24.0
2023-08-15 12:54:18.389415,-28.0
2023-08-15 12:54:18.397105,-28.0
2023-08-15 12:54:18.404794,-38.0
2023-08-15 12:54:18.412483,-48.0
2023-08-15 12:54:18.420173,-43.0
2023-08-15 12:54:18.427862,-48.0
2023-08-15 12:54:18.435552,-69.0
2023-08-15 12:54:18.443241,-91.0
2023-08-15 12:54:18.450930,-101.0
2023-08-15 12:54:18.458620,-110.0
2023-08-15 12:54:18.466309,-123.0
2023-08-15 12:54:18.473998,-106.0
2023-08-15 12:54:18.481688,-60.0
2023-08-15 12:54:18.489377,-24.0
2023-08-15 12:54:18.497066,-19.0
2023-08-15 12:54:18.504756,-26.0
2023-08-15 12:54:18.512445,-26.0
2023-08-15 12:54:18.520135,-16.0
2023-08-15 12:54:18.527824,-7.0
2023-08-15 12:54:18.535513,-14.0
2023-08-15 12:54:18.543203,-24.0
2023-08-15 12:54:18.550892,-9.0
2023-08-15 12:54:18.558581,-2.0
2023-08-15 12:54:18.566271,-14.0
2023-08-15 12:54:18.573960,-89.0
2023-08-15 12:54:18.581649,-354.0
2023-08-15 12:54:18.589339,-789.0
2023-08-15 12:54:18.597028,-1039.0
2023-08-15 12:54:18.604717,-745.0
2023-08-15 12:54:18.612407,-43.0
2023-08-15 12:54:18.620096,359.0
2023-08-15 12:54:18.627786,164.0
2023-08-15 12:54:18.635475,-31.0
2023-08-15 12:54:18.643164,74.0
2023-08-15 12:54:18.650854,115.0
2023-08-15 12:54:18.658543,36.0
2023-08-15 12:54:18.666232,31.0
2023-08-15 12:54:18.673922,48.0
2023-08-15 12:54:18.681611,14.0
2023-08-15 12:54:18.689300,4.0
2023-08-15 12:54:18.696990,16.0
2023-08-15 12:54:18.704679,0.0
2023-08-15 12:54:18.712368,-26.0
2023-08-15 12:54:18.720058,-28.0
2023-08-15 12:54:18.727747,-16.0
2023-08-15 12:54:18.735437,-28.0
2023-08-15 12:54:18.743126,-55.0
2023-08-15 12:54:18.750815,-65.0
2023-08-15 12:54:18.758505,-72.0
2023-08-15 12:54:18.766194,-84.0
2023-08-15 12:54:18.773883,-94.0
2023-08-15 12:54:18.781573,-103.0
2023-08-15 12:54:18.789262,-113.0
2023-08-15 12:54:18.796951,-115.0
2023-08-15 12:54:18.804641,-123.0
2023-08-15 12:54:18.812330,-123.0
2023-08-15 12:54:18.820019,-103.0
2023-08-15 12:54:18.827709,-86.0
2023-08-15 12:54:18.835398,-79.0
2023-08-15 12:54:18.843088,-67.0
2023-08-15 12:54:18.850777,-53.0
2023-08-15 12:54:18.858466,-41.0
2023-08-15 12:54:18.866156,-28.0
2023-08-15 12:54:18.873845,-16.0
2023-08-15 12:54:18.881534,-14.0
2023-08-15 12:54:18.889224,-12.0
2023-08-15 12:54:18.896913,7.0
2023-08-15 12:54:18.904602,12.0
2023-08-15 12:54:18.912292,-7.0
2023-08-15 12:54:18.919981,-19.0
2023-08-15 12:54:18.927671,-24.0
2023-08-15 12:54:18.935360,-24.0
2023-08-15 12:54:18.943049,-16.0
2023-08-15 12:54:18.950739,-16.0
2023-08-15 12:54:18.958428,-21.0
2023-08-15 12:54:18.966117,-26.0
2023-08-15 12:54:18.973807,-28.0
2023-08-15 12:54:18.981496,-21.0
2023-08-15 12:54:18.989185,-21.0
2023-08-15 12:54:18.996875,-38.0
2023-08-15 12:54:19.004564,-41.0
2023-08-15 12:54:19.012253,-21.0
2023-08-15 12:54:19.019943,-12.0
2023-08-15 12:54:19.027632,-12.0
2023-08-15 12:54:19.035322,2.0
2023-08-15 12:54:19.043011,4.0
2023-08-15 12:54:19.050700,-26.0
2023-08-15 12:54:19.058390,-45.0
2023-08-15 12:54:19.066079,-21.0
2023-08-15 12:54:19.073768,0.0
2023-08-15 12:54:19.081458,-7.0
2023-08-15 12:54:19.089147,-19.0
2023-08-15 12:54:19.096836,-21.0
2023-08-15 12:54:19.104526,-24.0
2023-08-15 12:54:19.112215,-16.0
2023-08-15 12:54:19.119904,-2.0
2023-08-15 12:54:19.127594,-2.0
2023-08-15 12:54:19.135283,-26.0
2023-08-15 12:54:19.142973,-41.0
2023-08-15 12:54:19.150662,-45.0
2023-08-15 12:54:19.158351,-65.0
2023-08-15 12:54:19.166041,-72.0
2023-08-15 12:54:19.173730,-82.0
2023-08-15 12:54:19.181419,-113.0
2023-08-15 12:54:19.189109,-125.0
2023-08-15 12:54:19.196798,-98.0
2023-08-15 12:54:19.204487,-69.0
2023-08-15 12:54:19.212177,-57.0
2023-08-15 12:54:19.219866,-55.0
2023-08-15 12:54:19.227556,-38.0
2023-08-15 12:54:19.235245,-19.0
2023-08-15 12:54:19.242934,-16.0
2023-08-15 12:54:19.250624,-19.0
2023-08-15 12:54:19.258313,-19.0
2023-08-15 12:54:19.266002,-16.0
2023-08-15 12:54:19.273692,-9.0
2023-08-15 12:54:19.281381,-19.0
2023-08-15 12:54:19.289070,-24.0
2023-08-15 12:54:19.296760,-28.0
2023-08-15 12:54:19.304449,-156.0
2023-08-15 12:54:19.312138,-468.0
2023-08-15 12:54:19.319828,-832.0
2023-08-15 12:54:19.327517,-933.0
2023-08-15 12:54:19.335207,-501.0
2023-08-15 12:54:19.342896,154.0
2023-08-15 12:54:19.350585,349.0
2023-08-15 12:54:19.358275,77.0
2023-08-15 12:54:19.365964,-33.0
2023-08-15 12:54:19.373653,79.0
2023-08-15 12:54:19.381343,84.0
2023-08-15 12:54:19.389032,28.0
2023-08-15 12:54:19.396721,33.0
2023-08-15 12:54:19.404411,28.0
2023-08-15 12:54:19.412100,4.0
2023-08-15 12:54:19.419789,7.0
2023-08-15 12:54:19.427479,4.0
2023-08-15 12:54:19.435168,-12.0
2023-08-15 12:54:19.442858,0.0
2023-08-15 12:54:19.450547,14.0
2023-08-15 12:54:19.458236,-21.0
2023-08-15 12:54:19.465926,-72.0
2023-08-15 12:54:19.473615,-74.0
2023-08-15 12:54:19.481304,-55.0
2023-08-15 12:54:19.488994,-53.0
2023-08-15 12:54:19.496683,-67.0
2023-08-15 12:54:19.504372,-94.0
2023-08-15 12:54:19.512062,-108.0
2023-08-15 12:54:19.519751,-106.0
2023-08-15 12:54:19.527440,-101.0
2023-08-15 12:54:19.535130,-98.0
2023-08-15 12:54:19.542819,-103.0
2023-08-15 12:54:19.550509,-106.0
2023-08-15 12:54:19.558198,-86.0
2023-08-15 12:54:19.565887,-72.0
2023-08-15 12:54:19.573577,-72.0
2023-08-15 12:54:19.581266,-50.0
2023-08-15 12:54:19.588955,-33.0
2023-08-15 12:54:19.596645,-43.0
2023-08-15 12:54:19.604334,-43.0
2023-08-15 12:54:19.612023,-19.0
2023-08-15 12:54:19.619713,-9.0
2023-08-15 12:54:19.627402,-2.0
2023-08-15 12:54:19.635092,0.0
2023-08-15 12:54:19.642781,-26.0
2023-08-15 12:54:19.650470,-41.0
2023-08-15 12:54:19.658160,-12.0
2023-08-15 12:54:19.665849,0.0
2023-08-15 12:54:19.673538,-24.0
2023-08-15 12:54:19.681228,-38.0
2023-08-15 12:54:19.688917,-21.0
2023-08-15 12:54:19.696606,-9.0
2023-08-15 12:54:19.704296,-21.0
2023-08-15 12:54:19.711985,-33.0
2023-08-15 12:54:19.719674,-24.0
2023-08-15 12:54:19.727364,-21.0
2023-08-15 12:54:19.735053,-24.0
2023-08-15 12:54:19.742743,-9.0
2023-08-15 12:54:19.750432,-7.0
2023-08-15 12:54:19.758121,-16.0
2023-08-15 12:54:19.765811,-26.0
2023-08-15 12:54:19.773500,-28.0
2023-08-15 12:54:19.781189,-24.0
2023-08-15 12:54:19.788879,-21.0
2023-08-15 12:54:19.796568,-16.0
2023-08-15 12:54:19.804257,-14.0
2023-08-15 12:54:19.811947,-19.0
2023-08-15 12:54:19.819636,-24.0
2023-08-15 12:54:19.827325,-24.0
2023-08-15 12:54:19.835015,-12.0
2023-08-15 12:54:19.842704,-7.0
2023-08-15 12:54:19.850394,-21.0
2023-08-15 12:54:19.858083,-33.0
2023-08-15 12:54:19.865772,-21.0
2023-08-15 12:54:19.873462,-16.0
2023-08-15 12:54:19.881151,-36.0
2023-08-15 12:54:19.888840,-60.0
2023-08-15 12:54:19.896530,-79.0
2023-08-15 12:54:19.904219,-103.0
2023-08-15 12:54:19.911908,-123.0
2023-08-15 12:54:19.919598,-123.0
2023-08-15 12:54:19.927287,-96.0
2023-08-15 12:54:19.934976,-72.0
2023-08-15 12:54:19.942666,-67.0
2023-08-15 12:54:19.950355,-50.0
2023-08-15 12:54:19.958045,-28.0
2023-08-15 12:54:19.965734,-9.0
2023-08-15 12:54:19.973423,4.0
2023-08-15 12:54:19.981113,-2.0
2023-08-15 12:54:19.988802,-24.0
2023-08-15 12:54:19.996491,-21.0
2023-08-15 12:54:20.004181,-12.0
2023-08-15 12:54:20.011870,-12.0
2023-08-15 12:54:20.019559,-9.0
2023-08-15 12:54:20.027249,-36.0
2023-08-15 12:54:20.034938,-176.0
2023-08-15 12:54:20.042628,-487.0
2023-08-15 12:54:20.050317,-868.0
2023-08-15 12:54:20.058006,-960.0
2023-08-15 12:54:20.065696,-484.0
2023-08-15 12:54:20.073385,190.0
2023-08-15 12:54:20.081074,352.0
2023-08-15 12:54:20.088764,53.0
2023-08-15 12:54:20.096453,-38.0
2023-08-15 12:54:20.104142,77.0
2023-08-15 12:54:20.111832,57.0
2023-08-15 12:54:20.119521,7.0
2023-08-15 12:54:20.127210,31.0
2023-08-15 12:54:20.134900,19.0
2023-08-15 12:54:20.142589,-14.0
2023-08-15 12:54:20.150279,-12.0
2023-08-15 12:54:20.157968,-2.0
2023-08-15 12:54:20.165657,-21.0
2023-08-15 12:54:20.173347,-43.0
2023-08-15 12:54:20.181036,-53.0
2023-08-15 12:54:20.188725,-53.0
2023-08-15 12:54:20.196415,-53.0
2023-08-15 12:54:20.204104,-62.0
2023-08-15 12:54:20.211793,-69.0
2023-08-15 12:54:20.219483,-69.0
2023-08-15 12:54:20.227172,-89.0
2023-08-15 12:54:20.234861,-106.0
2023-08-15 12:54:20.242551,-108.0
2023-08-15 12:54:20.250240,-118.0
2023-08-15 12:54:20.257930,-123.0
2023-08-15 12:54:20.265619,-103.0
2023-08-15 12:54:20.273308,-103.0
2023-08-15 12:54:20.280998,-120.0
2023-08-15 12:54:20.288687,-101.0
2023-08-15 12:54:20.296376,-72.0
2023-08-15 12:54:20.304066,-65.0
2023-08-15 12:54:20.311755,-60.0
2023-08-15 12:54:20.319444,-45.0
2023-08-15 12:54:20.327134,-36.0
2023-08-15 12:54:20.334823,-41.0
2023-08-15 12:54:20.342512,-41.0
2023-08-15 12:54:20.350202,-28.0
2023-08-15 12:54:20.357891,-16.0
2023-08-15 12:54:20.365581,-21.0
2023-08-15 12:54:20.373270,-28.0
2023-08-15 12:54:20.380959,-28.0
2023-08-15 12:54:20.388649,-26.0
2023-08-15 12:54:20.396338,-28.0
2023-08-15 12:54:20.404027,-28.0
2023-08-15 12:54:20.411717,-21.0
2023-08-15 12:54:20.419406,-21.0
2023-08-15 12:54:20.427095,-33.0
2023-08-15 12:54:20.434785,-33.0
2023-08-15 12:54:20.442474,-16.0
2023-08-15 12:54:20.450164,-9.0
2023-08-15 12:54:20.457853,-21.0
2023-08-15 12:54:20.465542,-26.0
2023-08-15 12:54:20.473232,-12.0
2023-08-15 12:54:20.480921,2.0
2023-08-15 12:54:20.488610,-7.0
2023-08-15 12:54:20.496300,-28.0
2023-08-15 12:54:20.503989,-26.0
2023-08-15 12:54:20.511678,-7.0
2023-08-15 12:54:20.519368,-4.0
2023-08-15 12:54:20.527057,-9.0
2023-08-15 12:54:20.534746,-12.0
2023-08-15 12:54:20.542436,-12.0
2023-08-15 12:54:20.550125,-7.0
2023-08-15 12:54:20.557815,-12.0
2023-08-15 12:54:20.565504,-24.0
2023-08-15 12:54:20.573193,-26.0
2023-08-15 12:54:20.580883,-24.0
2023-08-15 12:54:20.588572,-41.0
2023-08-15 12:54:20.596261,-50.0
2023-08-15 12:54:20.603951,-45.0
2023-08-15 12:54:20.611640,-67.0
2023-08-15 12:54:20.619329,-106.0
2023-08-15 12:54:20.627019,-120.0
2023-08-15 12:54:20.634708,-106.0
2023-08-15 12:54:20.642397,-77.0
2023-08-15 12:54:20.650087,-45.0
2023-08-15 12:54:20.657776,-43.0
2023-08-15 12:54:20.665466,-41.0
2023-08-15 12:54:20.673155,-9.0
2023-08-15 12:54:20.680844,7.0
2023-08-15 12:54:20.688534,-19.0
2023-08-15 12:54:20.696223,-38.0
2023-08-15 12:54:20.703912,-28.0
2023-08-15 12:54:20.711602,-28.0
2023-08-15 12:54:20.719291,-45.0
2023-08-15 12:54:20.726980,-36.0
2023-08-15 12:54:20.734670,-41.0
2023-08-15 12:54:20.742359,-176.0
2023-08-15 12:54:20.750048,-506.0
2023-08-15 12:54:20.757738,-943.0
2023-08-15 12:54:20.765427,-1100.0
2023-08-15 12:54:20.773117,-617.0
2023-08-15 12:54:20.780806,152.0
2023-08-15 12:54:20.788495,381.0
2023-08-15 12:54:20.796185,60.0
2023-08-15 12:54:20.803874,-48.0
2023-08-15 12:54:20.811563,103.0
2023-08-15 12:54:20.819253,96.0
2023-08-15 12:54:20.826942,19.0
2023-08-15 12:54:20.834631,36.0
2023-08-15 12:54:20.842321,41.0
2023-08-15 12:54:20.850010,21.0
2023-08-15 12:54:20.857700,21.0
2023-08-15 12:54:20.865389,0.0
2023-08-15 12:54:20.873078,-19.0
2023-08-15 12:54:20.880768,-12.0
2023-08-15 12:54:20.888457,-26.0
2023-08-15 12:54:20.896146,-45.0
2023-08-15 12:54:20.903836,-41.0
2023-08-15 12:54:20.911525,-43.0
2023-08-15 12:54:20.919214,-65.0
2023-08-15 12:54:20.926904,-67.0
2023-08-15 12:54:20.934593,-55.0
2023-08-15 12:54:20.942282,-79.0
2023-08-15 12:54:20.949972,-108.0
2023-08-15 12:54:20.957661,-113.0
2023-08-15 12:54:20.965351,-101.0
2023-08-15 12:54:20.973040,-94.0
2023-08-15 12:54:20.980729,-101.0
2023-08-15 12:54:20.988419,-89.0
2023-08-15 12:54:20.996108,-67.0
2023-08-15 12:54:21.003797,-53.0
2023-08-15 12:54:21.011487,-33.0
2023-08-15 12:54:21.019176,-36.0
2023-08-15 12:54:21.026865,-48.0
2023-08-15 12:54:21.034555,-26.0
2023-08-15 12:54:21.042244,-9.0
2023-08-15 12:54:21.049933,-7.0
2023-08-15 12:54:21.057623,-4.0
2023-08-15 12:54:21.065312,-12.0
2023-08-15 12:54:21.073002,-24.0
2023-08-15 12:54:21.080691,-24.0
2023-08-15 12:54:21.088380,-12.0
2023-08-15 12:54:21.096070,-14.0
2023-08-15 12:54:21.103759,-16.0
2023-08-15 12:54:21.111448,-7.0
2023-08-15 12:54:21.119138,2.0
2023-08-15 12:54:21.126827,-12.0
2023-08-15 12:54:21.134516,-24.0
2023-08-15 12:54:21.142206,-16.0
2023-08-15 12:54:21.149895,-21.0
2023-08-15 12:54:21.157585,-33.0
2023-08-15 12:54:21.165274,-16.0
2023-08-15 12:54:21.172963,12.0
2023-08-15 12:54:21.180653,4.0
2023-08-15 12:54:21.188342,-16.0
2023-08-15 12:54:21.196031,-9.0
2023-08-15 12:54:21.203721,-7.0
2023-08-15 12:54:21.211410,-31.0
2023-08-15 12:54:21.219099,-31.0
2023-08-15 12:54:21.226789,-12.0
2023-08-15 12:54:21.234478,-21.0
2023-08-15 12:54:21.242167,-26.0
2023-08-15 12:54:21.249857,-19.0
2023-08-15 12:54:21.257546,-26.0
2023-08-15 12:54:21.265236,-38.0
2023-08-15 12:54:21.272925,-43.0
2023-08-15 12:54:21.280614,-38.0
2023-08-15 12:54:21.288304,-28.0
2023-08-15 12:54:21.295993,-38.0
2023-08-15 12:54:21.303682,-57.0
2023-08-15 12:54:21.311372,-65.0
2023-08-15 12:54:21.319061,-69.0
2023-08-15 12:54:21.326750,-79.0
2023-08-15 12:54:21.334440,-89.0
2023-08-15 12:54:21.342129,-123.0
2023-08-15 12:54:21.349818,-142.0
2023-08-15 12:54:21.357508,-101.0
2023-08-15 12:54:21.365197,-48.0
2023-08-15 12:54:21.372887,-43.0
2023-08-15 12:54:21.380576,-45.0
2023-08-15 12:54:21.388265,-16.0
2023-08-15 12:54:21.395955,14.0
2023-08-15 12:54:21.403644,7.0
2023-08-15 12:54:21.411333,-19.0
2023-08-15 12:54:21.419023,-24.0
2023-08-15 12:54:21.426712,-12.0
2023-08-15 12:54:21.434401,-9.0
2023-08-15 12:54:21.442091,-19.0
2023-08-15 12:54:21.449780,-21.0
2023-08-15 12:54:21.457469,-91.0
2023-08-15 12:54:21.465159,-330.0
2023-08-15 12:54:21.472848,-731.0
2023-08-15 12:54:21.480538,-1030.0
2023-08-15 12:54:21.488227,-796.0
2023-08-15 12:54:21.495916,-84.0
2023-08-15 12:54:21.503606,364.0
2023-08-15 12:54:21.511295,183.0
2023-08-15 12:54:21.518984,-41.0
2023-08-15 12:54:21.526674,48.0
2023-08-15 12:54:21.534363,101.0
2023-08-15 12:54:21.542052,24.0
2023-08-15 12:54:21.549742,26.0
2023-08-15 12:54:21.557431,57.0
2023-08-15 12:54:21.565121,24.0
2023-08-15 12:54:21.572810,-7.0
2023-08-15 12:54:21.580499,-7.0
2023-08-15 12:54:21.588189,0.0
2023-08-15 12:54:21.595878,0.0
2023-08-15 12:54:21.603567,-4.0
2023-08-15 12:54:21.611257,-24.0
2023-08-15 12:54:21.618946,-45.0
2023-08-15 12:54:21.626635,-55.0
2023-08-15 12:54:21.634325,-57.0
2023-08-15 12:54:21.642014,-65.0
2023-08-15 12:54:21.649703,-79.0
2023-08-15 12:54:21.657393,-91.0
2023-08-15 12:54:21.665082,-98.0
2023-08-15 12:54:21.672772,-106.0
2023-08-15 12:54:21.680461,-108.0
2023-08-15 12:54:21.688150,-115.0
2023-08-15 12:54:21.695840,-113.0
2023-08-15 12:54:21.703529,-96.0
2023-08-15 12:54:21.711218,-86.0
2023-08-15 12:54:21.718908,-84.0
2023-08-15 12:54:21.726597,-67.0
2023-08-15 12:54:21.734286,-43.0
2023-08-15 12:54:21.741976,-28.0
2023-08-15 12:54:21.749665,-36.0
2023-08-15 12:54:21.757354,-43.0
2023-08-15 12:54:21.765044,-28.0
2023-08-15 12:54:21.772733,-7.0
2023-08-15 12:54:21.780423,0.0
2023-08-15 12:54:21.788112,-4.0
2023-08-15 12:54:21.795801,-14.0
2023-08-15 12:54:21.803491,-26.0
2023-08-15 12:54:21.811180,-33.0
2023-08-15 12:54:21.818869,-21.0
2023-08-15 12:54:21.826559,-19.0
2023-08-15 12:54:21.834248,-26.0
2023-08-15 12:54:21.841937,-24.0
2023-08-15 12:54:21.849627,-21.0
2023-08-15 12:54:21.857316,-26.0
2023-08-15 12:54:21.865005,-28.0
2023-08-15 12:54:21.872695,-24.0
2023-08-15 12:54:21.880384,-26.0
2023-08-15 12:54:21.888074,-28.0
2023-08-15 12:54:21.895763,-24.0
2023-08-15 12:54:21.903452,-21.0
2023-08-15 12:54:21.911142,-19.0
2023-08-15 12:54:21.918831,-14.0
2023-08-15 12:54:21.926520,-9.0
2023-08-15 12:54:21.934210,-7.0
2023-08-15 12:54:21.941899,-12.0
2023-08-15 12:54:21.949588,-19.0
2023-08-15 12:54:21.957278,-19.0
2023-08-15 12:54:21.964967,-12.0
2023-08-15 12:54:21.972657,-2.0
2023-08-15 12:54:21.980346,-4.0
2023-08-15 12:54:21.988035,-14.0
2023-08-15 12:54:21.995725,-16.0
2023-08-15 12:54:22.003414,-19.0
2023-08-15 12:54:22.011103,-21.0
2023-08-15 12:54:22.018793,-31.0
2023-08-15 12:54:22.026482,-41.0
2023-08-15 12:54:22.034171,-53.0
2023-08-15 12:54:22.041861,-65.0
2023-08-15 12:54:22.049550,-79.0
2023-08-15 12:54:22.057239,-108.0
2023-08-15 12:54:22.064929,-118.0
2023-08-15 12:54:22.072618,-72.0
2023-08-15 12:54:22.080308,-28.0
2023-08-15 12:54:22.087997,-24.0
2023-08-15 12:54:22.095686,-19.0
2023-08-15 12:54:22.103376,9.0
2023-08-15 12:54:22.111065,26.0
2023-08-15 12:54:22.118754,14.0
2023-08-15 12:54:22.126444,4.0
2023-08-15 12:54:22.134133,2.0
2023-08-15 12:54:22.141822,-12.0
2023-08-15 12:54:22.149512,-12.0
2023-08-15 12:54:22.157201,4.0
2023-08-15 12:54:22.164890,2.0
2023-08-15 12:54:22.172580,-55.0
2023-08-15 12:54:22.180269,-253.0
2023-08-15 12:54:22.187959,-629.0
2023-08-15 12:54:22.195648,-943.0
2023-08-15 12:54:22.203337,-789.0
2023-08-15 12:54:22.211027,-149.0
2023-08-15 12:54:22.218716,335.0
2023-08-15 12:54:22.226405,231.0
2023-08-15 12:54:22.234095,-12.0
2023-08-15 12:54:22.241784,21.0
2023-08-15 12:54:22.249473,77.0
2023-08-15 12:54:22.257163,21.0
2023-08-15 12:54:22.264852,16.0
2023-08-15 12:54:22.272541,26.0
2023-08-15 12:54:22.280231,-9.0
2023-08-15 12:54:22.287920,-12.0
2023-08-15 12:54:22.295610,-2.0
2023-08-15 12:54:22.303299,-26.0
2023-08-15 12:54:22.310988,-45.0
2023-08-15 12:54:22.318678,-38.0
2023-08-15 12:54:22.326367,-45.0
2023-08-15 12:54:22.334056,-60.0
2023-08-15 12:54:22.341746,-62.0
2023-08-15 12:54:22.349435,-72.0
2023-08-15 12:54:22.357124,-94.0
2023-08-15 12:54:22.364814,-118.0
2023-08-15 12:54:22.372503,-127.0
2023-08-15 12:54:22.380193,-127.0
2023-08-15 12:54:22.387882,-130.0
2023-08-15 12:54:22.395571,-137.0
2023-08-15 12:54:22.403261,-139.0
2023-08-15 12:54:22.410950,-132.0
2023-08-15 12:54:22.418639,-125.0
2023-08-15 12:54:22.426329,-125.0
2023-08-15 12:54:22.434018,-113.0
2023-08-15 12:54:22.441707,-84.0
2023-08-15 12:54:22.449397,-69.0
2023-08-15 12:54:22.457086,-69.0
2023-08-15 12:54:22.464775,-53.0
2023-08-15 12:54:22.472465,-41.0
2023-08-15 12:54:22.480154,-33.0
2023-08-15 12:54:22.487844,-16.0
2023-08-15 12:54:22.495533,-16.0
2023-08-15 12:54:22.503222,-21.0
2023-08-15 12:54:22.510912,-7.0
2023-08-15 12:54:22.518601,7.0
2023-08-15 12:54:22.526290,-2.0
2023-08-15 12:54:22.533980,-12.0
2023-08-15 12:54:22.541669,-16.0
2023-08-15 12:54:22.549358,-31.0
2023-08-15 12:54:22.557048,-36.0
2023-08-15 12:54:22.564737,-24.0
2023-08-15 12:54:22.572426,-21.0
2023-08-15 12:54:22.580116,-19.0
2023-08-15 12:54:22.587805,-9.0
2023-08-15 12:54:22.595495,-12.0
2023-08-15 12:54:22.603184,-21.0
2023-08-15 12:54:22.610873,-9.0
2023-08-15 12:54:22.618563,2.0
2023-08-15 12:54:22.626252,-9.0
2023-08-15 12:54:22.633941,-31.0
2023-08-15 12:54:22.641631,-31.0
2023-08-15 12:54:22.649320,-14.0
2023-08-15 12:54:22.657009,-4.0
2023-08-15 12:54:22.664699,-7.0
2023-08-15 12:54:22.672388,-7.0
2023-08-15 12:54:22.680077,-7.0
2023-08-15 12:54:22.687767,-4.0
2023-08-15 12:54:22.695456,0.0
2023-08-15 12:54:22.703146,-2.0
2023-08-15 12:54:22.710835,-2.0
2023-08-15 12:54:22.718524,-9.0
2023-08-15 12:54:22.726214,-21.0
2023-08-15 12:54:22.733903,-21.0
2023-08-15 12:54:22.741592,-26.0
2023-08-15 12:54:22.749282,-36.0
2023-08-15 12:54:22.756971,-45.0
2023-08-15 12:54:22.764660,-77.0
2023-08-15 12:54:22.772350,-106.0
2023-08-15 12:54:22.780039,-113.0
2023-08-15 12:54:22.787729,-98.0
2023-08-15 12:54:22.795418,-65.0
2023-08-15 12:54:22.803107,-41.0
2023-08-15 12:54:22.810797,-45.0
2023-08-15 12:54:22.818486,-33.0
2023-08-15 12:54:22.826175,4.0
2023-08-15 12:54:22.833865,21.0
2023-08-15 12:54:22.841554,7.0
2023-08-15 12:54:22.849243,-14.0
2023-08-15 12:54:22.856933,-14.0
2023-08-15 12:54:22.864622,-4.0
2023-08-15 12:54:22.872311,-16.0
2023-08-15 12:54:22.880001,-28.0
2023-08-15 12:54:22.887690,-24.0
2023-08-15 12:54:22.895380,-60.0
2023-08-15 12:54:22.903069,-253.0
2023-08-15 12:54:22.910758,-620.0
2023-08-15 12:54:22.918448,-924.0
2023-08-15 12:54:22.926137,-791.0
2023-08-15 12:54:22.933826,-188.0
2023-08-15 12:54:22.941516,306.0
2023-08-15 12:54:22.949205,219.0
2023-08-15 12:54:22.956894,-43.0
2023-08-15 12:54:22.964584,0.0
2023-08-15 12:54:22.972273,89.0
2023-08-15 12:54:22.979962,19.0
2023-08-15 12:54:22.987652,0.0
2023-08-15 12:54:22.995341,33.0
2023-08-15 12:54:23.003031,14.0
2023-08-15 12:54:23.010720,-4.0
2023-08-15 12:54:23.018409,-2.0
2023-08-15 12:54:23.026099,-14.0
2023-08-15 12:54:23.033788,-28.0
2023-08-15 12:54:23.041477,-36.0
2023-08-15 12:54:23.049167,-41.0
2023-08-15 12:54:23.056856,-38.0
2023-08-15 12:54:23.064545,-43.0
2023-08-15 12:54:23.072235,-65.0
2023-08-15 12:54:23.079924,-84.0
2023-08-15 12:54:23.087613,-89.0
2023-08-15 12:54:23.095303,-89.0
2023-08-15 12:54:23.102992,-94.0
2023-08-15 12:54:23.110682,-103.0
2023-08-15 12:54:23.118371,-120.0
2023-08-15 12:54:23.126060,-127.0
2023-08-15 12:54:23.133750,-115.0
2023-08-15 12:54:23.141439,-98.0
2023-08-15 12:54:23.149128,-101.0
2023-08-15 12:54:23.156818,-94.0
2023-08-15 12:54:23.164507,-69.0
2023-08-15 12:54:23.172196,-53.0
2023-08-15 12:54:23.179886,-53.0
2023-08-15 12:54:23.187575,-53.0
2023-08-15 12:54:23.195265,-36.0
2023-08-15 12:54:23.202954,-24.0
2023-08-15 12:54:23.210643,-14.0
2023-08-15 12:54:23.218333,-2.0
2023-08-15 12:54:23.226022,-26.0
2023-08-15 12:54:23.233711,-45.0
2023-08-15 12:54:23.241401,-24.0
2023-08-15 12:54:23.249090,-9.0
2023-08-15 12:54:23.256779,-21.0
2023-08-15 12:54:23.264469,-24.0
2023-08-15 12:54:23.272158,-24.0
2023-08-15 12:54:23.279847,-33.0
2023-08-15 12:54:23.287537,-31.0
2023-08-15 12:54:23.295226,-24.0
2023-08-15 12:54:23.302916,-28.0
2023-08-15 12:54:23.310605,-26.0
2023-08-15 12:54:23.318294,-19.0
2023-08-15 12:54:23.325984,-19.0
2023-08-15 12:54:23.333673,-33.0
2023-08-15 12:54:23.341362,-31.0
2023-08-15 12:54:23.349052,-14.0
2023-08-15 12:54:23.356741,-14.0
2023-08-15 12:54:23.364430,-21.0
2023-08-15 12:54:23.372120,-16.0
2023-08-15 12:54:23.379809,-7.0
2023-08-15 12:54:23.387498,-12.0
2023-08-15 12:54:23.395188,-24.0
2023-08-15 12:54:23.402877,-26.0
2023-08-15 12:54:23.410567,-12.0
2023-08-15 12:54:23.418256,-4.0
2023-08-15 12:54:23.425945,-7.0
2023-08-15 12:54:23.433635,-12.0
2023-08-15 12:54:23.441324,-21.0
2023-08-15 12:54:23.449013,-26.0
2023-08-15 12:54:23.456703,-36.0
2023-08-15 12:54:23.464392,-45.0
2023-08-15 12:54:23.472081,-43.0
2023-08-15 12:54:23.479771,-57.0
2023-08-15 12:54:23.487460,-106.0
2023-08-15 12:54:23.495150,-132.0
2023-08-15 12:54:23.502839,-125.0
2023-08-15 12:54:23.510528,-101.0
2023-08-15 12:54:23.518218,-65.0
2023-08-15 12:54:23.525907,-48.0
2023-08-15 12:54:23.533596,-38.0
2023-08-15 12:54:23.541286,-2.0
2023-08-15 12:54:23.548975,2.0
2023-08-15 12:54:23.556664,-26.0
2023-08-15 12:54:23.564354,-16.0
2023-08-15 12:54:23.572043,7.0
2023-08-15 12:54:23.579732,2.0
2023-08-15 12:54:23.587422,-16.0
2023-08-15 12:54:23.595111,-26.0
2023-08-15 12:54:23.602801,-9.0
2023-08-15 12:54:23.610490,-7.0
2023-08-15 12:54:23.618179,-110.0
2023-08-15 12:54:23.625869,-405.0
2023-08-15 12:54:23.633558,-832.0
2023-08-15 12:54:23.641247,-1032.0
2023-08-15 12:54:23.648937,-646.0
2023-08-15 12:54:23.656626,74.0
2023-08-15 12:54:23.664315,381.0
2023-08-15 12:54:23.672005,132.0
2023-08-15 12:54:23.679694,-43.0
2023-08-15 12:54:23.687383,43.0
2023-08-15 12:54:23.695073,72.0
2023-08-15 12:54:23.702762,31.0
2023-08-15 12:54:23.710452,28.0
2023-08-15 12:54:23.718141,26.0
2023-08-15 12:54:23.725830,12.0
2023-08-15 12:54:23.733520,16.0
2023-08-15 12:54:23.741209,-4.0
2023-08-15 12:54:23.748898,-43.0
2023-08-15 12:54:23.756588,-33.0
2023-08-15 12:54:23.764277,-16.0
2023-08-15 12:54:23.771966,-33.0
2023-08-15 12:54:23.779656,-53.0
2023-08-15 12:54:23.787345,-60.0
2023-08-15 12:54:23.795034,-69.0
2023-08-15 12:54:23.802724,-77.0
2023-08-15 12:54:23.810413,-74.0
2023-08-15 12:54:23.818103,-86.0
2023-08-15 12:54:23.825792,-120.0
2023-08-15 12:54:23.833481,-130.0
2023-08-15 12:54:23.841171,-113.0
2023-08-15 12:54:23.848860,-110.0
2023-08-15 12:54:23.856549,-106.0
2023-08-15 12:54:23.864239,-91.0
2023-08-15 12:54:23.871928,-84.0
2023-08-15 12:54:23.879617,-69.0
2023-08-15 12:54:23.887307,-55.0
2023-08-15 12:54:23.894996,-60.0
2023-08-15 12:54:23.902686,-55.0
2023-08-15 12:54:23.910375,-38.0
2023-08-15 12:54:23.918064,-36.0
2023-08-15 12:54:23.925754,-28.0
2023-08-15 12:54:23.933443,-16.0
2023-08-15 12:54:23.941132,-26.0
2023-08-15 12:54:23.948822,-41.0
2023-08-15 12:54:23.956511,-43.0
2023-08-15 12:54:23.964200,-24.0
2023-08-15 12:54:23.971890,-12.0
2023-08-15 12:54:23.979579,-31.0
2023-08-15 12:54:23.987268,-33.0
2023-08-15 12:54:23.994958,-16.0
2023-08-15 12:54:24.002647,-24.0
2023-08-15 12:54:24.010337,-43.0
2023-08-15 12:54:24.018026,-53.0
2023-08-15 12:54:24.025715,-45.0
2023-08-15 12:54:24.033405,-24.0
2023-08-15 12:54:24.041094,-14.0
2023-08-15 12:54:24.048783,-21.0
2023-08-15 12:54:24.056473,-31.0
2023-08-15 12:54:24.064162,-33.0
2023-08-15 12:54:24.071851,-24.0
2023-08-15 12:54:24.079541,-16.0
2023-08-15 12:54:24.087230,-24.0
2023-08-15 12:54:24.094919,-36.0
2023-08-15 12:54:24.102609,-33.0
2023-08-15 12:54:24.110298,-21.0
2023-08-15 12:54:24.117988,-12.0
2023-08-15 12:54:24.125677,-7.0
2023-08-15 12:54:24.133366,-14.0
2023-08-15 12:54:24.141056,-19.0
2023-08-15 12:54:24.148745,-19.0
2023-08-15 12:54:24.156434,-21.0
2023-08-15 12:54:24.164124,-16.0
2023-08-15 12:54:24.171813,-26.0
2023-08-15 12:54:24.179502,-43.0
2023-08-15 12:54:24.187192,-55.0
2023-08-15 12:54:24.194881,-69.0
2023-08-15 12:54:24.202570,-84.0
2023-08-15 12:54:24.210260,-106.0
2023-08-15 12:54:24.217949,-120.0
2023-08-15 12:54:24.225639,-91.0
2023-08-15 12:54:24.233328,-48.0
2023-08-15 12:54:24.241017,-26.0
2023-08-15 12:54:24.248707,-16.0
2023-08-15 12:54:24.256396,-12.0
2023-08-15 12:54:24.264085,-4.0
2023-08-15 12:54:24.271775,0.0
2023-08-15 12:54:24.279464,-4.0
2023-08-15 12:54:24.287153,-9.0
2023-08-15 12:54:24.294843,-9.0
2023-08-15 12:54:24.302532,-21.0
2023-08-15 12:54:24.310222,-21.0
2023-08-15 12:54:24.317911,-7.0
2023-08-15 12:54:24.325600,-28.0
2023-08-15 12:54:24.333290,-178.0
2023-08-15 12:54:24.340979,-518.0
2023-08-15 12:54:24.348668,-921.0
2023-08-15 12:54:24.356358,-982.0
2023-08-15 12:54:24.364047,-456.0
2023-08-15 12:54:24.371736,212.0
2023-08-15 12:54:24.379426,325.0
2023-08-15 12:54:24.387115,21.0
2023-08-15 12:54:24.394804,-33.0
2023-08-15 12:54:24.402494,84.0
2023-08-15 12:54:24.410183,48.0
2023-08-15 12:54:24.417873,16.0
2023-08-15 12:54:24.425562,53.0
2023-08-15 12:54:24.433251,24.0
2023-08-15 12:54:24.440941,-12.0
2023-08-15 12:54:24.448630,-2.0
2023-08-15 12:54:24.456319,-9.0
2023-08-15 12:54:24.464009,-31.0
2023-08-15 12:54:24.471698,-31.0
2023-08-15 12:54:24.479387,-26.0
2023-08-15 12:54:24.487077,-36.0
2023-08-15 12:54:24.494766,-38.0
2023-08-15 12:54:24.502455,-57.0
2023-08-15 12:54:24.510145,-96.0
2023-08-15 12:54:24.517834,-103.0
2023-08-15 12:54:24.525524,-96.0
2023-08-15 12:54:24.533213,-106.0
2023-08-15 12:54:24.540902,-115.0
2023-08-15 12:54:24.548592,-125.0
2023-08-15 12:54:24.556281,-137.0
2023-08-15 12:54:24.563970,-127.0
2023-08-15 12:54:24.571660,-113.0
2023-08-15 12:54:24.579349,-118.0
2023-08-15 12:54:24.587038,-108.0
2023-08-15 12:54:24.594728,-74.0
2023-08-15 12:54:24.602417,-62.0
2023-08-15 12:54:24.610106,-62.0
2023-08-15 12:54:24.617796,-41.0
2023-08-15 12:54:24.625485,-24.0
2023-08-15 12:54:24.633175,-45.0
2023-08-15 12:54:24.640864,-53.0
2023-08-15 12:54:24.648553,-14.0
2023-08-15 12:54:24.656243,-9.0
2023-08-15 12:54:24.663932,-45.0
2023-08-15 12:54:24.671621,-41.0
2023-08-15 12:54:24.679311,-19.0
2023-08-15 12:54:24.687000,-26.0
2023-08-15 12:54:24.694689,-31.0
2023-08-15 12:54:24.702379,-21.0
2023-08-15 12:54:24.710068,-16.0
2023-08-15 12:54:24.717758,-26.0
2023-08-15 12:54:24.725447,-38.0
2023-08-15 12:54:24.733136,-41.0
2023-08-15 12:54:24.740826,-24.0
2023-08-15 12:54:24.748515,-12.0
2023-08-15 12:54:24.756204,-19.0
2023-08-15 12:54:24.763894,-26.0
2023-08-15 12:54:24.771583,-12.0
2023-08-15 12:54:24.779272,-12.0
2023-08-15 12:54:24.786962,-31.0
2023-08-15 12:54:24.794651,-26.0
2023-08-15 12:54:24.802340,-14.0
2023-08-15 12:54:24.810030,-24.0
2023-08-15 12:54:24.817719,-36.0
2023-08-15 12:54:24.825409,-31.0
2023-08-15 12:54:24.833098,-14.0
2023-08-15 12:54:24.840787,-12.0
2023-08-15 12:54:24.848477,-26.0
2023-08-15 12:54:24.856166,-31.0
2023-08-15 12:54:24.863855,-26.0
2023-08-15 12:54:24.871545,-21.0
2023-08-15 12:54:24.879234,-19.0
2023-08-15 12:54:24.886923,-21.0
2023-08-15 12:54:24.894613,-28.0
2023-08-15 12:54:24.902302,-43.0
2023-08-15 12:54:24.909991,-55.0
2023-08-15 12:54:24.917681,-65.0
2023-08-15 12:54:24.925370,-74.0
2023-08-15 12:54:24.933060,-89.0
2023-08-15 12:54:24.940749,-103.0
2023-08-15 12:54:24.948438,-94.0
2023-08-15 12:54:24.956128,-57.0
2023-08-15 12:54:24.963817,-21.0
2023-08-15 12:54:24.971506,-7.0
2023-08-15 12:54:24.979196,2.0
2023-08-15 12:54:24.986885,16.0
2023-08-15 12:54:24.994574,16.0
2023-08-15 12:54:25.002264,-2.0
2023-08-15 12:54:25.009953,-14.0
2023-08-15 12:54:25.017642,-2.0
2023-08-15 12:54:25.025332,16.0
2023-08-15 12:54:25.033021,24.0
2023-08-15 12:54:25.040711,7.0
2023-08-15 12:54:25.048400,-55.0
2023-08-15 12:54:25.056089,-248.0
2023-08-15 12:54:25.063779,-615.0
2023-08-15 12:54:25.071468,-938.0
2023-08-15 12:54:25.079157,-801.0
2023-08-15 12:54:25.086847,-166.0
2023-08-15 12:54:25.094536,330.0
2023-08-15 12:54:25.102225,236.0
2023-08-15 12:54:25.109915,-16.0
2023-08-15 12:54:25.117604,19.0
2023-08-15 12:54:25.125294,82.0
2023-08-15 12:54:25.132983,16.0
2023-08-15 12:54:25.140672,4.0
2023-08-15 12:54:25.148362,28.0
2023-08-15 12:54:25.156051,14.0
2023-08-15 12:54:25.163740,4.0
2023-08-15 12:54:25.171430,0.0
2023-08-15 12:54:25.179119,-21.0
2023-08-15 12:54:25.186808,-31.0
2023-08-15 12:54:25.194498,-24.0
2023-08-15 12:54:25.202187,-31.0
2023-08-15 12:54:25.209876,-50.0
2023-08-15 12:54:25.217566,-60.0
2023-08-15 12:54:25.225255,-57.0
2023-08-15 12:54:25.232945,-62.0
2023-08-15 12:54:25.240634,-79.0
2023-08-15 12:54:25.248323,-96.0
2023-08-15 12:54:25.256013,-120.0
2023-08-15 12:54:25.263702,-118.0
2023-08-15 12:54:25.271391,-103.0
2023-08-15 12:54:25.279081,-101.0
2023-08-15 12:54:25.286770,-110.0
2023-08-15 12:54:25.294459,-113.0
2023-08-15 12:54:25.302149,-94.0
2023-08-15 12:54:25.309838,-72.0
2023-08-15 12:54:25.317527,-67.0
2023-08-15 12:54:25.325217,-62.0
2023-08-15 12:54:25.332906,-48.0
2023-08-15 12:54:25.340596,-43.0
2023-08-15 12:54:25.348285,-41.0
2023-08-15 12:54:25.355974,-26.0
2023-08-15 12:54:25.363664,-21.0
2023-08-15 12:54:25.371353,-24.0
2023-08-15 12:54:25.379042,-19.0
2023-08-15 12:54:25.386732,-21.0
2023-08-15 12:54:25.394421,-26.0
2023-08-15 12:54:25.402110,-14.0
2023-08-15 12:54:25.409800,-19.0
2023-08-15 12:54:25.417489,-31.0
2023-08-15 12:54:25.425179,-24.0
2023-08-15 12:54:25.432868,-19.0
2023-08-15 12:54:25.440557,-26.0
2023-08-15 12:54:25.448247,-24.0
2023-08-15 12:54:25.455936,-21.0
2023-08-15 12:54:25.463625,-21.0
2023-08-15 12:54:25.471315,-19.0
2023-08-15 12:54:25.479004,-16.0
2023-08-15 12:54:25.486693,-12.0
2023-08-15 12:54:25.494383,-12.0
2023-08-15 12:54:25.502072,-12.0
2023-08-15 12:54:25.509761,-2.0
2023-08-15 12:54:25.517451,-2.0
2023-08-15 12:54:25.525140,-14.0
2023-08-15 12:54:25.532830,-19.0
2023-08-15 12:54:25.540519,-14.0
2023-08-15 12:54:25.548208,-9.0
2023-08-15 12:54:25.555898,-9.0
2023-08-15 12:54:25.563587,-7.0
2023-08-15 12:54:25.571276,-4.0
2023-08-15 12:54:25.578966,-7.0
2023-08-15 12:54:25.586655,-19.0
2023-08-15 12:54:25.594344,-31.0
2023-08-15 12:54:25.602034,-28.0
2023-08-15 12:54:25.609723,-26.0
2023-08-15 12:54:25.617412,-43.0
2023-08-15 12:54:25.625102,-55.0
2023-08-15 12:54:25.632791,-62.0
2023-08-15 12:54:25.640481,-86.0
2023-08-15 12:54:25.648170,-108.0
2023-08-15 12:54:25.655859,-96.0
2023-08-15 12:54:25.663549,-62.0
2023-08-15 12:54:25.671238,-36.0
2023-08-15 12:54:25.678927,-26.0
2023-08-15 12:54:25.686617,-24.0
2023-08-15 12:54:25.694306,-14.0
2023-08-15 12:54:25.701995,-9.0
2023-08-15 12:54:25.709685,-12.0
2023-08-15 12:54:25.717374,-7.0
2023-08-15 12:54:25.725063,-2.0
2023-08-15 12:54:25.732753,0.0
2023-08-15 12:54:25.740442,2.0
2023-08-15 12:54:25.748132,14.0
2023-08-15 12:54:25.755821,0.0
2023-08-15 12:54:25.763510,-94.0
2023-08-15 12:54:25.771200,-308.0
2023-08-15 12:54:25.778889,-670.0
2023-08-15 12:54:25.786578,-969.0
2023-08-15 12:54:25.794268,-757.0
2023-08-15 12:54:25.801957,-62.0
2023-08-15 12:54:25.809646,371.0
2023-08-15 12:54:25.817336,185.0
2023-08-15 12:54:25.825025,-41.0
2023-08-15 12:54:25.832715,36.0
2023-08-15 12:54:25.840404,82.0
2023-08-15 12:54:25.848093,16.0
2023-08-15 12:54:25.855783,19.0
2023-08-15 12:54:25.863472,24.0
2023-08-15 12:54:25.871161,0.0
2023-08-15 12:54:25.878851,12.0
2023-08-15 12:54:25.886540,19.0
2023-08-15 12:54:25.894229,-7.0
2023-08-15 12:54:25.901919,-26.0
2023-08-15 12:54:25.909608,-31.0
2023-08-15 12:54:25.917297,-43.0
2023-08-15 12:54:25.924987,-55.0
2023-08-15 12:54:25.932676,-65.0
2023-08-15 12:54:25.940366,-69.0
2023-08-15 12:54:25.948055,-72.0
2023-08-15 12:54:25.955744,-77.0
2023-08-15 12:54:25.963434,-84.0
2023-08-15 12:54:25.971123,-94.0
2023-08-15 12:54:25.978812,-103.0
2023-08-15 12:54:25.986502,-103.0
2023-08-15 12:54:25.994191,-106.0
2023-08-15 12:54:26.001880,-108.0
2023-08-15 12:54:26.009570,-91.0
2023-08-15 12:54:26.017259,-77.0
2023-08-15 12:54:26.024948,-74.0
2023-08-15 12:54:26.032638,-57.0
2023-08-15 12:54:26.040327,-33.0
2023-08-15 12:54:26.048017,-38.0
2023-08-15 12:54:26.055706,-55.0
2023-08-15 12:54:26.063395,-41.0
2023-08-15 12:54:26.071085,-16.0
2023-08-15 12:54:26.078774,-16.0
2023-08-15 12:54:26.086463,-19.0
2023-08-15 12:54:26.094153,-19.0
2023-08-15 12:54:26.101842,-16.0
2023-08-15 12:54:26.109531,-19.0
2023-08-15 12:54:26.117221,-31.0
2023-08-15 12:54:26.124910,-26.0
2023-08-15 12:54:26.132599,-14.0
2023-08-15 12:54:26.140289,-24.0
2023-08-15 12:54:26.147978,-26.0
2023-08-15 12:54:26.155668,-21.0
2023-08-15 12:54:26.163357,-24.0
2023-08-15 12:54:26.171046,-16.0
2023-08-15 12:54:26.178736,-7.0
2023-08-15 12:54:26.186425,-7.0
2023-08-15 12:54:26.194114,-19.0
2023-08-15 12:54:26.201804,-21.0
2023-08-15 12:54:26.209493,-14.0
2023-08-15 12:54:26.217182,-12.0
2023-08-15 12:54:26.224872,-14.0
2023-08-15 12:54:26.232561,-12.0
2023-08-15 12:54:26.240251,-2.0
2023-08-15 12:54:26.247940,-4.0
2023-08-15 12:54:26.255629,-21.0
2023-08-15 12:54:26.263319,-19.0
2023-08-15 12:54:26.271008,0.0
2023-08-15 12:54:26.278697,-4.0
2023-08-15 12:54:26.286387,-26.0
2023-08-15 12:54:26.294076,-33.0
2023-08-15 12:54:26.301765,-36.0
2023-08-15 12:54:26.309455,-48.0
2023-08-15 12:54:26.317144,-57.0
2023-08-15 12:54:26.324833,-62.0
2023-08-15 12:54:26.332523,-72.0
2023-08-15 12:54:26.340212,-91.0
2023-08-15 12:54:26.347902,-113.0
2023-08-15 12:54:26.355591,-103.0
2023-08-15 12:54:26.363280,-65.0
2023-08-15 12:54:26.370970,-41.0
2023-08-15 12:54:26.378659,-31.0
2023-08-15 12:54:26.386348,-14.0
2023-08-15 12:54:26.394038,-7.0
2023-08-15 12:54:26.401727,0.0
2023-08-15 12:54:26.409416,12.0
2023-08-15 12:54:26.417106,2.0
2023-08-15 12:54:26.424795,-14.0
2023-08-15 12:54:26.432484,-14.0
2023-08-15 12:54:26.440174,-7.0
2023-08-15 12:54:26.447863,4.0
2023-08-15 12:54:26.455553,0.0
2023-08-15 12:54:26.463242,-79.0
2023-08-15 12:54:26.470931,-308.0
2023-08-15 12:54:26.478621,-694.0
2023-08-15 12:54:26.486310,-989.0
2023-08-15 12:54:26.493999,-764.0
2023-08-15 12:54:26.501689,-69.0
2023-08-15 12:54:26.509378,378.0
2023-08-15 12:54:26.517067,221.0
2023-08-15 12:54:26.524757,-9.0
2023-08-15 12:54:26.532446,41.0
2023-08-15 12:54:26.540135,91.0
2023-08-15 12:54:26.547825,36.0
2023-08-15 12:54:26.555514,19.0
2023-08-15 12:54:26.563204,16.0
2023-08-15 12:54:26.570893,2.0
2023-08-15 12:54:26.578582,4.0
2023-08-15 12:54:26.586272,2.0
2023-08-15 12:54:26.593961,-9.0
2023-08-15 12:54:26.601650,-16.0
2023-08-15 12:54:26.609340,-28.0
2023-08-15 12:54:26.617029,-43.0
2023-08-15 12:54:26.624718,-53.0
2023-08-15 12:54:26.632408,-53.0
2023-08-15 12:54:26.640097,-62.0
2023-08-15 12:54:26.647787,-74.0
2023-08-15 12:54:26.655476,-82.0
2023-08-15 12:54:26.663165,-84.0
2023-08-15 12:54:26.670855,-94.0
2023-08-15 12:54:26.678544,-98.0
2023-08-15 12:54:26.686233,-108.0
2023-08-15 12:54:26.693923,-113.0
2023-08-15 12:54:26.701612,-96.0
2023-08-15 12:54:26.709301,-82.0
2023-08-15 12:54:26.716991,-89.0
2023-08-15 12:54:26.724680,-74.0
2023-08-15 12:54:26.732369,-53.0
2023-08-15 12:54:26.740059,-45.0
2023-08-15 12:54:26.747748,-36.0
2023-08-15 12:54:26.755438,-31.0
2023-08-15 12:54:26.763127,-41.0
2023-08-15 12:54:26.770816,-38.0
2023-08-15 12:54:26.778506,-12.0
2023-08-15 12:54:26.786195,-9.0
2023-08-15 12:54:26.793884,-36.0
2023-08-15 12:54:26.801574,-50.0
2023-08-15 12:54:26.809263,-50.0
2023-08-15 12:54:26.816952,-50.0
2023-08-15 12:54:26.824642,-45.0
2023-08-15 12:54:26.832331,-38.0
2023-08-15 12:54:26.840020,-38.0
2023-08-15 12:54:26.847710,-36.0
2023-08-15 12:54:26.855399,-36.0
2023-08-15 12:54:26.863089,-45.0
2023-08-15 12:54:26.870778,-43.0
2023-08-15 12:54:26.878467,-41.0
2023-08-15 12:54:26.886157,-48.0
2023-08-15 12:54:26.893846,-36.0
2023-08-15 12:54:26.901535,-21.0
2023-08-15 12:54:26.909225,-21.0
2023-08-15 12:54:26.916914,-19.0
2023-08-15 12:54:26.924603,-21.0
2023-08-15 12:54:26.932293,-36.0
2023-08-15 12:54:26.939982,-36.0
2023-08-15 12:54:26.947671,-19.0
2023-08-15 12:54:26.955361,-2.0
2023-08-15 12:54:26.963050,-7.0
2023-08-15 12:54:26.970740,-24.0
2023-08-15 12:54:26.978429,-24.0
2023-08-15 12:54:26.986118,-12.0
2023-08-15 12:54:26.993808,-7.0
2023-08-15 12:54:27.001497,-19.0
2023-08-15 12:54:27.009186,-28.0
2023-08-15 12:54:27.016876,-28.0
2023-08-15 12:54:27.024565,-41.0
2023-08-15 12:54:27.032254,-55.0
2023-08-15 12:54:27.039944,-72.0
2023-08-15 12:54:27.047633,-106.0
2023-08-15 12:54:27.055323,-118.0
2023-08-15 12:54:27.063012,-89.0
2023-08-15 12:54:27.070701,-55.0
2023-08-15 12:54:27.078391,-43.0
2023-08-15 12:54:27.086080,-36.0
2023-08-15 12:54:27.093769,-9.0
2023-08-15 12:54:27.101459,4.0
2023-08-15 12:54:27.109148,0.0
2023-08-15 12:54:27.116837,7.0
2023-08-15 12:54:27.124527,9.0
2023-08-15 12:54:27.132216,2.0
2023-08-15 12:54:27.139905,-7.0
2023-08-15 12:54:27.147595,-16.0
2023-08-15 12:54:27.155284,-16.0
2023-08-15 12:54:27.162974,-12.0
2023-08-15 12:54:27.170663,-103.0
2023-08-15 12:54:27.178352,-412.0
2023-08-15 12:54:27.186042,-873.0
2023-08-15 12:54:27.193731,-1085.0
2023-08-15 12:54:27.201420,-658.0
2023-08-15 12:54:27.209110,106.0
2023-08-15 12:54:27.216799,407.0
2023-08-15 12:54:27.224488,135.0
2023-08-15 12:54:27.232178,-19.0
2023-08-15 12:54:27.239867,101.0
2023-08-15 12:54:27.247556,91.0
2023-08-15 12:54:27.255246,14.0
2023-08-15 12:54:27.262935,45.0
2023-08-15 12:54:27.270625,62.0
2023-08-15 12:54:27.278314,12.0
2023-08-15 12:54:27.286003,-12.0
2023-08-15 12:54:27.293693,2.0
2023-08-15 12:54:27.301382,2.0
2023-08-15 12:54:27.309071,-26.0
2023-08-15 12:54:27.316761,-38.0
2023-08-15 12:54:27.324450,-33.0
2023-08-15 12:54:27.332139,-57.0
2023-08-15 12:54:27.339829,-77.0
2023-08-15 12:54:27.347518,-69.0
2023-08-15 12:54:27.355207,-86.0
2023-08-15 12:54:27.362897,-106.0
2023-08-15 12:54:27.370586,-103.0
2023-08-15 12:54:27.378276,-110.0
2023-08-15 12:54:27.385965,-130.0
2023-08-15 12:54:27.393654,-127.0
2023-08-15 12:54:27.401344,-118.0
2023-08-15 12:54:27.409033,-123.0
2023-08-15 12:54:27.416722,-118.0
2023-08-15 12:54:27.424412,-103.0
2023-08-15 12:54:27.432101,-94.0
2023-08-15 12:54:27.439790,-72.0
2023-08-15 12:54:27.447480,-48.0
2023-08-15 12:54:27.455169,-48.0
2023-08-15 12:54:27.462859,-50.0
2023-08-15 12:54:27.470548,-36.0
2023-08-15 12:54:27.478237,-24.0
2023-08-15 12:54:27.485927,-26.0
2023-08-15 12:54:27.493616,-41.0
2023-08-15 12:54:27.501305,-43.0
2023-08-15 12:54:27.508995,-28.0
2023-08-15 12:54:27.516684,-24.0
2023-08-15 12:54:27.524373,-38.0
2023-08-15 12:54:27.532063,-41.0
2023-08-15 12:54:27.539752,-26.0
2023-08-15 12:54:27.547441,-14.0
2023-08-15 12:54:27.555131,-19.0
2023-08-15 12:54:27.562820,-26.0
2023-08-15 12:54:27.570510,-33.0
2023-08-15 12:54:27.578199,-43.0
2023-08-15 12:54:27.585888,-43.0
2023-08-15 12:54:27.593578,-28.0
2023-08-15 12:54:27.601267,-19.0
2023-08-15 12:54:27.608956,-26.0
2023-08-15 12:54:27.616646,-31.0
2023-08-15 12:54:27.624335,-14.0
2023-08-15 12:54:27.632024,-4.0
2023-08-15 12:54:27.639714,-16.0
2023-08-15 12:54:27.647403,-24.0
2023-08-15 12:54:27.655092,-14.0
2023-08-15 12:54:27.662782,-14.0
2023-08-15 12:54:27.670471,-21.0
2023-08-15 12:54:27.678161,-16.0
2023-08-15 12:54:27.685850,-12.0
2023-08-15 12:54:27.693539,-12.0
2023-08-15 12:54:27.701229,-4.0
2023-08-15 12:54:27.708918,-9.0
2023-08-15 12:54:27.716607,-16.0
2023-08-15 12:54:27.724297,-7.0
2023-08-15 12:54:27.731986,-9.0
2023-08-15 12:54:27.739675,-31.0
2023-08-15 12:54:27.747365,-33.0
2023-08-15 12:54:27.755054,-38.0
2023-08-15 12:54:27.762744,-57.0
2023-08-15 12:54:27.770433,-65.0
2023-08-15 12:54:27.778122,-86.0
2023-08-15 12:54:27.785812,-115.0
2023-08-15 12:54:27.793501,-106.0
2023-08-15 12:54:27.801190,-69.0
2023-08-15 12:54:27.808880,-45.0
2023-08-15 12:54:27.816569,-31.0
2023-08-15 12:54:27.824258,-16.0
2023-08-15 12:54:27.831948,2.0
2023-08-15 12:54:27.839637,4.0
2023-08-15 12:54:27.847326,-19.0
2023-08-15 12:54:27.855016,-21.0
2023-08-15 12:54:27.862705,2.0
2023-08-15 12:54:27.870395,-4.0
2023-08-15 12:54:27.878084,-16.0
2023-08-15 12:54:27.885773,-2.0
2023-08-15 12:54:27.893463,-7.0
2023-08-15 12:54:27.901152,-113.0
2023-08-15 12:54:27.908841,-395.0
2023-08-15 12:54:27.916531,-801.0
2023-08-15 12:54:27.924220,-1015.0
2023-08-15 12:54:27.931909,-682.0
2023-08-15 12:54:27.939599,16.0
2023-08-15 12:54:27.947288,361.0
2023-08-15 12:54:27.954977,123.0
2023-08-15 12:54:27.962667,-43.0
2023-08-15 12:54:27.970356,84.0
2023-08-15 12:54:27.978046,82.0
2023-08-15 12:54:27.985735,-16.0
2023-08-15 12:54:27.993424,12.0
2023-08-15 12:54:28.001114,45.0
2023-08-15 12:54:28.008803,21.0
2023-08-15 12:54:28.016492,4.0
2023-08-15 12:54:28.024182,-12.0
2023-08-15 12:54:28.031871,-26.0
2023-08-15 12:54:28.039560,-26.0
2023-08-15 12:54:28.047250,-33.0
2023-08-15 12:54:28.054939,-50.0
2023-08-15 12:54:28.062628,-62.0
2023-08-15 12:54:28.070318,-60.0
2023-08-15 12:54:28.078007,-65.0
2023-08-15 12:54:28.085697,-82.0
2023-08-15 12:54:28.093386,-89.0
2023-08-15 12:54:28.101075,-94.0
2023-08-15 12:54:28.108765,-110.0
2023-08-15 12:54:28.116454,-130.0
2023-08-15 12:54:28.124143,-135.0
2023-08-15 12:54:28.131833,-123.0
2023-08-15 12:54:28.139522,-101.0
2023-08-15 12:54:28.147211,-96.0
2023-08-15 12:54:28.154901,-113.0
2023-08-15 12:54:28.162590,-106.0
2023-08-15 12:54:28.170280,-67.0
2023-08-15 12:54:28.177969,-48.0
2023-08-15 12:54:28.185658,-45.0
2023-08-15 12:54:28.193348,-33.0
2023-08-15 12:54:28.201037,-16.0
2023-08-15 12:54:28.208726,-19.0
2023-08-15 12:54:28.216416,-26.0
2023-08-15 12:54:28.224105,-14.0
2023-08-15 12:54:28.231794,-4.0
2023-08-15 12:54:28.239484,-12.0
2023-08-15 12:54:28.247173,-24.0
2023-08-15 12:54:28.254862,-24.0
2023-08-15 12:54:28.262552,-9.0
2023-08-15 12:54:28.270241,-4.0
2023-08-15 12:54:28.277931,-19.0
2023-08-15 12:54:28.285620,-31.0
2023-08-15 12:54:28.293309,-26.0
2023-08-15 12:54:28.300999,-28.0
2023-08-15 12:54:28.308688,-24.0
2023-08-15 12:54:28.316377,-24.0
2023-08-15 12:54:28.324067,-36.0
2023-08-15 12:54:28.331756,-31.0
2023-08-15 12:54:28.339445,-14.0
2023-08-15 12:54:28.347135,-14.0
2023-08-15 12:54:28.354824,-28.0
2023-08-15 12:54:28.362513,-41.0
2023-08-15 12:54:28.370203,-24.0
2023-08-15 12:54:28.377892,4.0
2023-08-15 12:54:28.385582,4.0
2023-08-15 12:54:28.393271,-21.0
2023-08-15 12:54:28.400960,-26.0
2023-08-15 12:54:28.408650,-12.0
2023-08-15 12:54:28.416339,-12.0
2023-08-15 12:54:28.424028,-21.0
2023-08-15 12:54:28.431718,-14.0
2023-08-15 12:54:28.439407,-7.0
2023-08-15 12:54:28.447096,-9.0
2023-08-15 12:54:28.454786,-12.0
2023-08-15 12:54:28.462475,-16.0
2023-08-15 12:54:28.470164,-26.0
2023-08-15 12:54:28.477854,-16.0
2023-08-15 12:54:28.485543,-12.0
2023-08-15 12:54:28.493233,-28.0
2023-08-15 12:54:28.500922,-50.0
2023-08-15 12:54:28.508611,-69.0
2023-08-15 12:54:28.516301,-79.0
2023-08-15 12:54:28.523990,-82.0
2023-08-15 12:54:28.531679,-96.0
2023-08-15 12:54:28.539369,-135.0
2023-08-15 12:54:28.547058,-149.0
2023-08-15 12:54:28.554747,-103.0
2023-08-15 12:54:28.562437,-55.0
2023-08-15 12:54:28.570126,-43.0
2023-08-15 12:54:28.577816,-36.0
2023-08-15 12:54:28.585505,-19.0
2023-08-15 12:54:28.593194,-7.0
2023-08-15 12:54:28.600884,-9.0
2023-08-15 12:54:28.608573,-14.0
2023-08-15 12:54:28.616262,-19.0
2023-08-15 12:54:28.623952,-21.0
2023-08-15 12:54:28.631641,-16.0
2023-08-15 12:54:28.639330,-9.0
2023-08-15 12:54:28.647020,-4.0
2023-08-15 12:54:28.654709,-43.0
2023-08-15 12:54:28.662398,-229.0
2023-08-15 12:54:28.670088,-588.0
2023-08-15 12:54:28.677777,-926.0
2023-08-15 12:54:28.685467,-839.0
2023-08-15 12:54:28.693156,-236.0
2023-08-15 12:54:28.700845,301.0
2023-08-15 12:54:28.708535,258.0
2023-08-15 12:54:28.716224,2.0
2023-08-15 12:54:28.723913,7.0
2023-08-15 12:54:28.731603,69.0
2023-08-15 12:54:28.739292,26.0
2023-08-15 12:54:28.746981,16.0
2023-08-15 12:54:28.754671,31.0
2023-08-15 12:54:28.762360,7.0
2023-08-15 12:54:28.770049,-4.0
2023-08-15 12:54:28.777739,-9.0
2023-08-15 12:54:28.785428,-19.0
2023-08-15 12:54:28.793118,-12.0
2023-08-15 12:54:28.800807,-19.0
2023-08-15 12:54:28.808496,-43.0
2023-08-15 12:54:28.816186,-50.0
2023-08-15 12:54:28.823875,-60.0
2023-08-15 12:54:28.831564,-84.0
2023-08-15 12:54:28.839254,-86.0
2023-08-15 12:54:28.846943,-79.0
2023-08-15 12:54:28.854632,-89.0
2023-08-15 12:54:28.862322,-113.0
2023-08-15 12:54:28.870011,-125.0
2023-08-15 12:54:28.877700,-118.0
2023-08-15 12:54:28.885390,-110.0
2023-08-15 12:54:28.893079,-123.0
2023-08-15 12:54:28.900769,-123.0
2023-08-15 12:54:28.908458,-103.0
2023-08-15 12:54:28.916147,-79.0
2023-08-15 12:54:28.923837,-69.0
2023-08-15 12:54:28.931526,-69.0
2023-08-15 12:54:28.939215,-65.0
2023-08-15 12:54:28.946905,-38.0
2023-08-15 12:54:28.954594,-19.0
2023-08-15 12:54:28.962283,-28.0
2023-08-15 12:54:28.969973,-33.0
2023-08-15 12:54:28.977662,-19.0
2023-08-15 12:54:28.985352,-12.0
2023-08-15 12:54:28.993041,-21.0
2023-08-15 12:54:29.000730,-19.0
2023-08-15 12:54:29.008420,-16.0
2023-08-15 12:54:29.016109,-28.0
2023-08-15 12:54:29.023798,-26.0
2023-08-15 12:54:29.031488,-28.0
2023-08-15 12:54:29.039177,-43.0
2023-08-15 12:54:29.046866,-38.0
2023-08-15 12:54:29.054556,-24.0
2023-08-15 12:54:29.062245,-26.0
2023-08-15 12:54:29.069934,-26.0
2023-08-15 12:54:29.077624,-26.0
2023-08-15 12:54:29.085313,-36.0
2023-08-15 12:54:29.093003,-43.0
2023-08-15 12:54:29.100692,-48.0
2023-08-15 12:54:29.108381,-41.0
2023-08-15 12:54:29.116071,-26.0
2023-08-15 12:54:29.123760,-19.0
2023-08-15 12:54:29.131449,-28.0
2023-08-15 12:54:29.139139,-41.0
2023-08-15 12:54:29.146828,-28.0
2023-08-15 12:54:29.154517,-9.0
2023-08-15 12:54:29.162207,-2.0
2023-08-15 12:54:29.169896,-7.0
2023-08-15 12:54:29.177585,-19.0
2023-08-15 12:54:29.185275,-28.0
2023-08-15 12:54:29.192964,-31.0
2023-08-15 12:54:29.200654,-24.0
2023-08-15 12:54:29.208343,-14.0
2023-08-15 12:54:29.216032,-16.0
2023-08-15 12:54:29.223722,-28.0
2023-08-15 12:54:29.231411,-26.0
2023-08-15 12:54:29.239100,-21.0
2023-08-15 12:54:29.246790,-31.0
2023-08-15 12:54:29.254479,-33.0
2023-08-15 12:54:29.262168,-33.0
2023-08-15 12:54:29.269858,-43.0
2023-08-15 12:54:29.277547,-65.0
2023-08-15 12:54:29.285236,-82.0
2023-08-15 12:54:29.292926,-84.0
2023-08-15 12:54:29.300615,-96.0
2023-08-15 12:54:29.308305,-118.0
2023-08-15 12:54:29.315994,-120.0
2023-08-15 12:54:29.323683,-86.0
2023-08-15 12:54:29.331373,-57.0
2023-08-15 12:54:29.339062,-48.0
2023-08-15 12:54:29.346751,-36.0
2023-08-15 12:54:29.354441,-19.0
2023-08-15 12:54:29.362130,2.0
2023-08-15 12:54:29.369819,7.0
2023-08-15 12:54:29.377509,-16.0
2023-08-15 12:54:29.385198,-33.0
2023-08-15 12:54:29.392888,-31.0
2023-08-15 12:54:29.400577,-28.0
2023-08-15 12:54:29.408266,-14.0
2023-08-15 12:54:29.415956,-2.0
2023-08-15 12:54:29.423645,-55.0
2023-08-15 12:54:29.431334,-214.0
2023-08-15 12:54:29.439024,-523.0
2023-08-15 12:54:29.446713,-895.0
2023-08-15 12:54:29.454402,-926.0
2023-08-15 12:54:29.462092,-369.0
2023-08-15 12:54:29.469781,250.0
2023-08-15 12:54:29.477470,289.0
2023-08-15 12:54:29.485160,7.0
2023-08-15 12:54:29.492849,-19.0
2023-08-15 12:54:29.500539,86.0
2023-08-15 12:54:29.508228,48.0
2023-08-15 12:54:29.515917,0.0
2023-08-15 12:54:29.523607,19.0
2023-08-15 12:54:29.531296,21.0
2023-08-15 12:54:29.538985,4.0
2023-08-15 12:54:29.546675,4.0
2023-08-15 12:54:29.554364,0.0
2023-08-15 12:54:29.562053,-16.0
2023-08-15 12:54:29.569743,-28.0
2023-08-15 12:54:29.577432,-31.0
2023-08-15 12:54:29.585121,-33.0
2023-08-15 12:54:29.592811,-36.0
2023-08-15 12:54:29.600500,-53.0
2023-08-15 12:54:29.608190,-77.0
2023-08-15 12:54:29.615879,-86.0
2023-08-15 12:54:29.623568,-96.0
2023-08-15 12:54:29.631258,-106.0
2023-08-15 12:54:29.638947,-108.0
2023-08-15 12:54:29.646636,-120.0
2023-08-15 12:54:29.654326,-127.0
2023-08-15 12:54:29.662015,-118.0
2023-08-15 12:54:29.669704,-113.0
2023-08-15 12:54:29.677394,-96.0
2023-08-15 12:54:29.685083,-84.0
2023-08-15 12:54:29.692772,-82.0
2023-08-15 12:54:29.700462,-69.0
2023-08-15 12:54:29.708151,-60.0
2023-08-15 12:54:29.715841,-48.0
2023-08-15 12:54:29.723530,-33.0
2023-08-15 12:54:29.731219,-31.0
2023-08-15 12:54:29.738909,-28.0
2023-08-15 12:54:29.746598,-21.0
2023-08-15 12:54:29.754287,-28.0
2023-08-15 12:54:29.761977,-28.0
2023-08-15 12:54:29.769666,-19.0
2023-08-15 12:54:29.777355,-19.0
2023-08-15 12:54:29.785045,-19.0
2023-08-15 12:54:29.792734,-19.0
2023-08-15 12:54:29.800424,-36.0
2023-08-15 12:54:29.808113,-41.0
2023-08-15 12:54:29.815802,-28.0
2023-08-15 12:54:29.823492,-21.0
2023-08-15 12:54:29.831181,-21.0
2023-08-15 12:54:29.838870,-31.0
2023-08-15 12:54:29.846560,-38.0
2023-08-15 12:54:29.854249,-36.0
2023-08-15 12:54:29.861938,-26.0
2023-08-15 12:54:29.869628,-16.0
2023-08-15 12:54:29.877317,-16.0
2023-08-15 12:54:29.885006,-26.0
2023-08-15 12:54:29.892696,-28.0
2023-08-15 12:54:29.900385,-21.0
2023-08-15 12:54:29.908075,-12.0
2023-08-15 12:54:29.915764,-4.0
2023-08-15 12:54:29.923453,-19.0
2023-08-15 12:54:29.931143,-33.0
2023-08-15 12:54:29.938832,-28.0
2023-08-15 12:54:29.946521,-14.0
2023-08-15 12:54:29.954211,-7.0
2023-08-15 12:54:29.961900,-7.0
2023-08-15 12:54:29.969589,-16.0
2023-08-15 12:54:29.977279,-31.0
2023-08-15 12:54:29.984968,-26.0
2023-08-15 12:54:29.992657,-19.0
2023-08-15 12:54:30.000347,-41.0
2023-08-15 12:54:30.008036,-55.0
2023-08-15 12:54:30.015726,-48.0
2023-08-15 12:54:30.023415,-48.0
2023-08-15 12:54:30.031104,-69.0
2023-08-15 12:54:30.038794,-82.0
2023-08-15 12:54:30.046483,-94.0
2023-08-15 12:54:30.054172,-110.0
2023-08-15 12:54:30.061862,-106.0
2023-08-15 12:54:30.069551,-79.0
2023-08-15 12:54:30.077240,-62.0
2023-08-15 12:54:30.084930,-48.0
2023-08-15 12:54:30.092619,-26.0
2023-08-15 12:54:30.100309,-14.0
2023-08-15 12:54:30.107998,-16.0
2023-08-15 12:54:30.115687,-12.0
2023-08-15 12:54:30.123377,-2.0
2023-08-15 12:54:30.131066,-4.0
2023-08-15 12:54:30.138755,-24.0
2023-08-15 12:54:30.146445,-33.0
2023-08-15 12:54:30.154134,-24.0
2023-08-15 12:54:30.161823,-12.0
2023-08-15 12:54:30.169513,-77.0
2023-08-15 12:54:30.177202,-340.0
2023-08-15 12:54:30.184891,-774.0
2023-08-15 12:54:30.192581,-1068.0
2023-08-15 12:54:30.200270,-817.0
2023-08-15 12:54:30.207960,-110.0
2023-08-15 12:54:30.215649,347.0
2023-08-15 12:54:30.223338,188.0
2023-08-15 12:54:30.231028,-41.0
2023-08-15 12:54:30.238717,31.0
2023-08-15 12:54:30.246406,86.0
2023-08-15 12:54:30.254096,21.0
2023-08-15 12:54:30.261785,24.0
2023-08-15 12:54:30.269474,31.0
2023-08-15 12:54:30.277164,-9.0
2023-08-15 12:54:30.284853,-12.0
2023-08-15 12:54:30.292542,4.0
2023-08-15 12:54:30.300232,-2.0
2023-08-15 12:54:30.307921,-9.0
2023-08-15 12:54:30.315611,-24.0
2023-08-15 12:54:30.323300,-43.0
2023-08-15 12:54:30.330989,-41.0
2023-08-15 12:54:30.338679,-43.0
2023-08-15 12:54:30.346368,-67.0
2023-08-15 12:54:30.354057,-79.0
2023-08-15 12:54:30.361747,-86.0
2023-08-15 12:54:30.369436,-96.0
2023-08-15 12:54:30.377125,-103.0
2023-08-15 12:54:30.384815,-110.0
2023-08-15 12:54:30.392504,-118.0
2023-08-15 12:54:30.400193,-110.0
2023-08-15 12:54:30.407883,-96.0
2023-08-15 12:54:30.415572,-96.0
2023-08-15 12:54:30.423262,-96.0
2023-08-15 12:54:30.430951,-72.0
2023-08-15 12:54:30.438640,-48.0
2023-08-15 12:54:30.446330,-41.0
2023-08-15 12:54:30.454019,-33.0
2023-08-15 12:54:30.461708,-16.0
2023-08-15 12:54:30.469398,-7.0
2023-08-15 12:54:30.477087,-16.0
2023-08-15 12:54:30.484776,-31.0
2023-08-15 12:54:30.492466,-21.0
2023-08-15 12:54:30.500155,-7.0
2023-08-15 12:54:30.507845,-14.0
2023-08-15 12:54:30.515534,-28.0
2023-08-15 12:54:30.523223,-24.0
2023-08-15 12:54:30.530913,-19.0
2023-08-15 12:54:30.538602,-16.0
2023-08-15 12:54:30.546291,-14.0
2023-08-15 12:54:30.553981,-24.0
2023-08-15 12:54:30.561670,-19.0
2023-08-15 12:54:30.569359,-12.0
2023-08-15 12:54:30.577049,-24.0
2023-08-15 12:54:30.584738,-26.0
2023-08-15 12:54:30.592427,-21.0
2023-08-15 12:54:30.600117,-19.0
2023-08-15 12:54:30.607806,-14.0
2023-08-15 12:54:30.615496,0.0
2023-08-15 12:54:30.623185,4.0
2023-08-15 12:54:30.630874,-12.0
2023-08-15 12:54:30.638564,-21.0
2023-08-15 12:54:30.646253,-7.0
2023-08-15 12:54:30.653942,0.0
2023-08-15 12:54:30.661632,-14.0
2023-08-15 12:54:30.669321,-19.0
2023-08-15 12:54:30.677010,0.0
2023-08-15 12:54:30.684700,-2.0
2023-08-15 12:54:30.692389,-24.0
2023-08-15 12:54:30.700078,-28.0
2023-08-15 12:54:30.707768,-21.0
2023-08-15 12:54:30.715457,-21.0
2023-08-15 12:54:30.723147,-16.0
2023-08-15 12:54:30.730836,-12.0
2023-08-15 12:54:30.738525,-21.0
2023-08-15 12:54:30.746215,-43.0
2023-08-15 12:54:30.753904,-55.0
2023-08-15 12:54:30.761593,-57.0
2023-08-15 12:54:30.769283,-69.0
2023-08-15 12:54:30.776972,-89.0
2023-08-15 12:54:30.784661,-94.0
2023-08-15 12:54:30.792351,-108.0
2023-08-15 12:54:30.800040,-137.0
2023-08-15 12:54:30.807729,-123.0
2023-08-15 12:54:30.815419,-77.0
2023-08-15 12:54:30.823108,-55.0
2023-08-15 12:54:30.830798,-55.0
2023-08-15 12:54:30.838487,-28.0
2023-08-15 12:54:30.846176,-4.0
2023-08-15 12:54:30.853866,-19.0
2023-08-15 12:54:30.861555,-28.0
2023-08-15 12:54:30.869244,-21.0
2023-08-15 12:54:30.876934,-19.0
2023-08-15 12:54:30.884623,-24.0
2023-08-15 12:54:30.892312,-36.0
2023-08-15 12:54:30.900002,-41.0
2023-08-15 12:54:30.907691,-48.0
2023-08-15 12:54:30.915381,-173.0
2023-08-15 12:54:30.923070,-506.0
2023-08-15 12:54:30.930759,-909.0
2023-08-15 12:54:30.938449,-984.0
2023-08-15 12:54:30.946138,-487.0
2023-08-15 12:54:30.953827,185.0
2023-08-15 12:54:30.961517,337.0
2023-08-15 12:54:30.969206,53.0
2023-08-15 12:54:30.976895,-16.0
2023-08-15 12:54:30.984585,89.0
2023-08-15 12:54:30.992274,53.0
2023-08-15 12:54:30.999963,12.0
2023-08-15 12:54:31.007653,45.0
2023-08-15 12:54:31.015342,33.0
2023-08-15 12:54:31.023032,0.0
2023-08-15 12:54:31.030721,2.0
2023-08-15 12:54:31.038410,4.0
2023-08-15 12:54:31.046100,-9.0
2023-08-15 12:54:31.053789,-16.0
2023-08-15 12:54:31.061478,-26.0
2023-08-15 12:54:31.069168,-36.0
2023-08-15 12:54:31.076857,-33.0
2023-08-15 12:54:31.084546,-33.0
2023-08-15 12:54:31.092236,-57.0
2023-08-15 12:54:31.099925,-84.0
2023-08-15 12:54:31.107614,-94.0
2023-08-15 12:54:31.115304,-84.0
2023-08-15 12:54:31.122993,-89.0
2023-08-15 12:54:31.130683,-115.0
2023-08-15 12:54:31.138372,-123.0
2023-08-15 12:54:31.146061,-108.0
2023-08-15 12:54:31.153751,-101.0
2023-08-15 12:54:31.161440,-91.0
2023-08-15 12:54:31.169129,-74.0
2023-08-15 12:54:31.176819,-65.0
2023-08-15 12:54:31.184508,-55.0
2023-08-15 12:54:31.192197,-43.0
2023-08-15 12:54:31.199887,-28.0
2023-08-15 12:54:31.207576,-16.0
2023-08-15 12:54:31.215265,-19.0
2023-08-15 12:54:31.222955,-21.0
2023-08-15 12:54:31.230644,-4.0
2023-08-15 12:54:31.238334,0.0
2023-08-15 12:54:31.246023,-7.0
2023-08-15 12:54:31.253712,-12.0
2023-08-15 12:54:31.261402,-19.0
2023-08-15 12:54:31.269091,-26.0
2023-08-15 12:54:31.276780,-16.0
2023-08-15 12:54:31.284470,-7.0
2023-08-15 12:54:31.292159,-12.0
2023-08-15 12:54:31.299848,-14.0
2023-08-15 12:54:31.307538,-12.0
2023-08-15 12:54:31.315227,-9.0
2023-08-15 12:54:31.322917,-12.0
2023-08-15 12:54:31.330606,-28.0
2023-08-15 12:54:31.338295,-41.0
2023-08-15 12:54:31.345985,-36.0
2023-08-15 12:54:31.353674,-33.0
2023-08-15 12:54:31.361363,-31.0
2023-08-15 12:54:31.369053,-28.0
2023-08-15 12:54:31.376742,-36.0
2023-08-15 12:54:31.384431,-36.0
2023-08-15 12:54:31.392121,-26.0
2023-08-15 12:54:31.399810,-28.0
2023-08-15 12:54:31.407499,-36.0
2023-08-15 12:54:31.415189,-33.0
2023-08-15 12:54:31.422878,-36.0
2023-08-15 12:54:31.430568,-33.0
2023-08-15 12:54:31.438257,-12.0
2023-08-15 12:54:31.445946,-7.0
2023-08-15 12:54:31.453636,-31.0
2023-08-15 12:54:31.461325,-33.0
2023-08-15 12:54:31.469014,-19.0
2023-08-15 12:54:31.476704,-24.0
2023-08-15 12:54:31.484393,-36.0
2023-08-15 12:54:31.492082,-41.0
2023-08-15 12:54:31.499772,-43.0
2023-08-15 12:54:31.507461,-48.0
2023-08-15 12:54:31.515150,-60.0
2023-08-15 12:54:31.522840,-77.0
2023-08-15 12:54:31.530529,-86.0
2023-08-15 12:54:31.538219,-115.0
2023-08-15 12:54:31.545908,-142.0
2023-08-15 12:54:31.553597,-118.0
2023-08-15 12:54:31.561287,-86.0
2023-08-15 12:54:31.568976,-82.0
2023-08-15 12:54:31.576665,-57.0
2023-08-15 12:54:31.584355,-14.0
2023-08-15 12:54:31.592044,2.0
2023-08-15 12:54:31.599733,-14.0
2023-08-15 12:54:31.607423,-24.0
2023-08-15 12:54:31.615112,-9.0
2023-08-15 12:54:31.622801,-14.0
2023-08-15 12:54:31.630491,-28.0
2023-08-15 12:54:31.638180,-24.0
2023-08-15 12:54:31.645870,-14.0
2023-08-15 12:54:31.653559,-16.0
2023-08-15 12:54:31.661248,-74.0
2023-08-15 12:54:31.668938,-289.0
2023-08-15 12:54:31.676627,-668.0
2023-08-15 12:54:31.684316,-960.0
2023-08-15 12:54:31.692006,-772.0
2023-08-15 12:54:31.699695,-110.0
2023-08-15 12:54:31.707384,361.0
2023-08-15 12:54:31.715074,234.0
2023-08-15 12:54:31.722763,-16.0
2023-08-15 12:54:31.730453,31.0
2023-08-15 12:54:31.738142,101.0
2023-08-15 12:54:31.745831,31.0
2023-08-15 12:54:31.753521,12.0
2023-08-15 12:54:31.761210,48.0
2023-08-15 12:54:31.768899,36.0
2023-08-15 12:54:31.776589,0.0
2023-08-15 12:54:31.784278,-4.0
2023-08-15 12:54:31.791967,0.0
2023-08-15 12:54:31.799657,-24.0
2023-08-15 12:54:31.807346,-33.0
2023-08-15 12:54:31.815035,-9.0
2023-08-15 12:54:31.822725,-16.0
2023-08-15 12:54:31.830414,-57.0
2023-08-15 12:54:31.838104,-77.0
2023-08-15 12:54:31.845793,-82.0
2023-08-15 12:54:31.853482,-98.0
2023-08-15 12:54:31.861172,-101.0
2023-08-15 12:54:31.868861,-110.0
2023-08-15 12:54:31.876550,-144.0
2023-08-15 12:54:31.884240,-147.0
2023-08-15 12:54:31.891929,-120.0
2023-08-15 12:54:31.899618,-137.0
2023-08-15 12:54:31.907308,-152.0
2023-08-15 12:54:31.914997,-123.0
2023-08-15 12:54:31.922686,-108.0
2023-08-15 12:54:31.930376,-108.0
2023-08-15 12:54:31.938065,-84.0
2023-08-15 12:54:31.945755,-53.0
2023-08-15 12:54:31.953444,-48.0
2023-08-15 12:54:31.961133,-65.0
2023-08-15 12:54:31.968823,-60.0
2023-08-15 12:54:31.976512,-50.0
2023-08-15 12:54:31.984201,-43.0
2023-08-15 12:54:31.991891,-28.0
2023-08-15 12:54:31.999580,-24.0
2023-08-15 12:54:32.007269,-28.0
2023-08-15 12:54:32.014959,-28.0
2023-08-15 12:54:32.022648,-21.0
2023-08-15 12:54:32.030338,-19.0
2023-08-15 12:54:32.038027,-28.0
2023-08-15 12:54:32.045716,-38.0
2023-08-15 12:54:32.053406,-36.0
2023-08-15 12:54:32.061095,-33.0
2023-08-15 12:54:32.068784,-26.0
2023-08-15 12:54:32.076474,-19.0
2023-08-15 12:54:32.084163,-16.0
2023-08-15 12:54:32.091852,-12.0
2023-08-15 12:54:32.099542,-12.0
2023-08-15 12:54:32.107231,-9.0
2023-08-15 12:54:32.114920,2.0
2023-08-15 12:54:32.122610,-7.0
2023-08-15 12:54:32.130299,-21.0
2023-08-15 12:54:32.137989,-19.0
2023-08-15 12:54:32.145678,-12.0
2023-08-15 12:54:32.153367,-9.0
2023-08-15 12:54:32.161057,-12.0
2023-08-15 12:54:32.168746,-9.0
2023-08-15 12:54:32.176435,2.0
2023-08-15 12:54:32.184125,7.0
2023-08-15 12:54:32.191814,-4.0
2023-08-15 12:54:32.199503,-14.0
2023-08-15 12:54:32.207193,-9.0
2023-08-15 12:54:32.214882,-16.0
2023-08-15 12:54:32.222571,-19.0
2023-08-15 12:54:32.230261,-16.0
2023-08-15 12:54:32.237950,-28.0
2023-08-15 12:54:32.245640,-43.0
2023-08-15 12:54:32.253329,-55.0
2023-08-15 12:54:32.261018,-67.0
2023-08-15 12:54:32.268708,-74.0
2023-08-15 12:54:32.276397,-86.0
2023-08-15 12:54:32.284086,-103.0
2023-08-15 12:54:32.291776,-89.0
2023-08-15 12:54:32.299465,-45.0
2023-08-15 12:54:32.307154,-31.0
2023-08-15 12:54:32.314844,-43.0
2023-08-15 12:54:32.322533,-24.0
2023-08-15 12:54:32.330222,4.0
2023-08-15 12:54:32.337912,4.0
2023-08-15 12:54:32.345601,4.0
2023-08-15 12:54:32.353291,0.0
2023-08-15 12:54:32.360980,-12.0
2023-08-15 12:54:32.368669,-9.0
2023-08-15 12:54:32.376359,0.0
2023-08-15 12:54:32.384048,-9.0
2023-08-15 12:54:32.391737,-36.0
2023-08-15 12:54:32.399427,-127.0
2023-08-15 12:54:32.407116,-395.0
2023-08-15 12:54:32.414805,-808.0
2023-08-15 12:54:32.422495,-1025.0
2023-08-15 12:54:32.430184,-653.0
2023-08-15 12:54:32.437874,82.0
2023-08-15 12:54:32.445563,417.0
2023-08-15 12:54:32.453252,173.0
2023-08-15 12:54:32.460942,-21.0
2023-08-15 12:54:32.468631,62.0
2023-08-15 12:54:32.476320,84.0
2023-08-15 12:54:32.484010,21.0
2023-08-15 12:54:32.491699,26.0
2023-08-15 12:54:32.499388,26.0
2023-08-15 12:54:32.507078,2.0
2023-08-15 12:54:32.514767,9.0
2023-08-15 12:54:32.522456,16.0
2023-08-15 12:54:32.530146,9.0
2023-08-15 12:54:32.537835,-2.0
2023-08-15 12:54:32.545525,-24.0
2023-08-15 12:54:32.553214,-45.0
2023-08-15 12:54:32.560903,-50.0
2023-08-15 12:54:32.568593,-55.0
2023-08-15 12:54:32.576282,-65.0
2023-08-15 12:54:32.583971,-62.0
2023-08-15 12:54:32.591661,-65.0
2023-08-15 12:54:32.599350,-79.0
2023-08-15 12:54:32.607039,-89.0
2023-08-15 12:54:32.614729,-98.0
2023-08-15 12:54:32.622418,-108.0
2023-08-15 12:54:32.630107,-115.0
2023-08-15 12:54:32.637797,-103.0
2023-08-15 12:54:32.645486,-84.0
2023-08-15 12:54:32.653176,-86.0
2023-08-15 12:54:32.660865,-82.0
2023-08-15 12:54:32.668554,-50.0
2023-08-15 12:54:32.676244,-41.0
2023-08-15 12:54:32.683933,-43.0
2023-08-15 12:54:32.691622,-28.0
2023-08-15 12:54:32.699312,-33.0
2023-08-15 12:54:32.707001,-38.0
2023-08-15 12:54:32.714690,-9.0
2023-08-15 12:54:32.722380,-2.0
2023-08-15 12:54:32.730069,-21.0
2023-08-15 12:54:32.737758,-14.0
2023-08-15 12:54:32.745448,-4.0
2023-08-15 12:54:32.753137,-16.0
2023-08-15 12:54:32.760827,-12.0
2023-08-15 12:54:32.768516,-9.0
2023-08-15 12:54:32.776205,-28.0
2023-08-15 12:54:32.783895,-26.0
2023-08-15 12:54:32.791584,2.0
2023-08-15 12:54:32.799273,-2.0
2023-08-15 12:54:32.806963,-36.0
2023-08-15 12:54:32.814652,-36.0
2023-08-15 12:54:32.822341,-9.0
2023-08-15 12:54:32.830031,-7.0
2023-08-15 12:54:32.837720,-19.0
2023-08-15 12:54:32.845410,-16.0
2023-08-15 12:54:32.853099,-19.0
2023-08-15 12:54:32.860788,-24.0
2023-08-15 12:54:32.868478,-19.0
2023-08-15 12:54:32.876167,-21.0
2023-08-15 12:54:32.883856,-28.0
2023-08-15 12:54:32.891546,-16.0
2023-08-15 12:54:32.899235,-2.0
2023-08-15 12:54:32.906924,-7.0
2023-08-15 12:54:32.914614,-16.0
2023-08-15 12:54:32.922303,-14.0
2023-08-15 12:54:32.929992,-16.0
2023-08-15 12:54:32.937682,-28.0
2023-08-15 12:54:32.945371,-36.0
2023-08-15 12:54:32.953061,-38.0
2023-08-15 12:54:32.960750,-57.0
2023-08-15 12:54:32.968439,-77.0
2023-08-15 12:54:32.976129,-72.0
2023-08-15 12:54:32.983818,-82.0
2023-08-15 12:54:32.991507,-115.0
2023-08-15 12:54:32.999197,-123.0
2023-08-15 12:54:33.006886,-103.0
2023-08-15 12:54:33.014575,-79.0
2023-08-15 12:54:33.022265,-50.0
2023-08-15 12:54:33.029954,-19.0
2023-08-15 12:54:33.037643,-9.0
2023-08-15 12:54:33.045333,-12.0
2023-08-15 12:54:33.053022,-9.0
2023-08-15 12:54:33.060712,-21.0
2023-08-15 12:54:33.068401,-45.0
2023-08-15 12:54:33.076090,-36.0
2023-08-15 12:54:33.083780,-14.0
2023-08-15 12:54:33.091469,-31.0
2023-08-15 12:54:33.099158,-55.0
2023-08-15 12:54:33.106848,-120.0
2023-08-15 12:54:33.114537,-357.0
2023-08-15 12:54:33.122226,-776.0
2023-08-15 12:54:33.129916,-1097.0
2023-08-15 12:54:33.137605,-871.0
2023-08-15 12:54:33.145294,-127.0
2023-08-15 12:54:33.152984,393.0
2023-08-15 12:54:33.160673,255.0
2023-08-15 12:54:33.168363,-7.0
2023-08-15 12:54:33.176052,33.0
2023-08-15 12:54:33.183741,91.0
2023-08-15 12:54:33.191431,16.0
2023-08-15 12:54:33.199120,0.0
2023-08-15 12:54:33.206809,41.0
2023-08-15 12:54:33.214499,33.0
2023-08-15 12:54:33.222188,9.0
2023-08-15 12:54:33.229877,7.0
2023-08-15 12:54:33.237567,-2.0
2023-08-15 12:54:33.245256,-24.0
2023-08-15 12:54:33.252946,-31.0
2023-08-15 12:54:33.260635,-28.0
2023-08-15 12:54:33.268324,-38.0
2023-08-15 12:54:33.276014,-48.0
2023-08-15 12:54:33.283703,-53.0
2023-08-15 12:54:33.291392,-60.0
2023-08-15 12:54:33.299082,-60.0
2023-08-15 12:54:33.306771,-77.0
2023-08-15 12:54:33.314460,-108.0
2023-08-15 12:54:33.322150,-110.0
2023-08-15 12:54:33.329839,-101.0
2023-08-15 12:54:33.337528,-108.0
2023-08-15 12:54:33.345218,-101.0
2023-08-15 12:54:33.352907,-94.0
2023-08-15 12:54:33.360597,-91.0
2023-08-15 12:54:33.368286,-77.0
2023-08-15 12:54:33.375975,-60.0
2023-08-15 12:54:33.383665,-62.0
2023-08-15 12:54:33.391354,-67.0
2023-08-15 12:54:33.399043,-55.0
2023-08-15 12:54:33.406733,-31.0
2023-08-15 12:54:33.414422,-19.0
2023-08-15 12:54:33.422111,-19.0
2023-08-15 12:54:33.429801,-12.0
2023-08-15 12:54:33.437490,-4.0
2023-08-15 12:54:33.445179,-16.0
2023-08-15 12:54:33.452869,-38.0
2023-08-15 12:54:33.460558,-33.0
2023-08-15 12:54:33.468248,-14.0
2023-08-15 12:54:33.475937,-7.0
2023-08-15 12:54:33.483626,-9.0
2023-08-15 12:54:33.491316,-21.0
2023-08-15 12:54:33.499005,-33.0
2023-08-15 12:54:33.506694,-26.0
2023-08-15 12:54:33.514384,-14.0
2023-08-15 12:54:33.522073,-28.0
2023-08-15 12:54:33.529762,-28.0
2023-08-15 12:54:33.537452,-9.0
2023-08-15 12:54:33.545141,-19.0
2023-08-15 12:54:33.552830,-36.0
2023-08-15 12:54:33.560520,-19.0
2023-08-15 12:54:33.568209,-9.0
2023-08-15 12:54:33.575899,-31.0
2023-08-15 12:54:33.583588,-33.0
2023-08-15 12:54:33.591277,-14.0
2023-08-15 12:54:33.598967,2.0
2023-08-15 12:54:33.606656,-4.0
2023-08-15 12:54:33.614345,-24.0
2023-08-15 12:54:33.622035,-31.0
2023-08-15 12:54:33.629724,-21.0
2023-08-15 12:54:33.637413,-21.0
2023-08-15 12:54:33.645103,-33.0
2023-08-15 12:54:33.652792,-26.0
2023-08-15 12:54:33.660482,-19.0
2023-08-15 12:54:33.668171,-33.0
2023-08-15 12:54:33.675860,-43.0
2023-08-15 12:54:33.683550,-69.0
2023-08-15 12:54:33.691239,-106.0
2023-08-15 12:54:33.698928,-127.0
2023-08-15 12:54:33.706618,-115.0
2023-08-15 12:54:33.714307,-77.0
2023-08-15 12:54:33.721996,-41.0
2023-08-15 12:54:33.729686,-24.0
2023-08-15 12:54:33.737375,-9.0
2023-08-15 12:54:33.745064,2.0
2023-08-15 12:54:33.752754,12.0
2023-08-15 12:54:33.760443,12.0
2023-08-15 12:54:33.768133,-9.0
2023-08-15 12:54:33.775822,-28.0
2023-08-15 12:54:33.783511,-16.0
2023-08-15 12:54:33.791201,-12.0
2023-08-15 12:54:33.798890,-19.0
2023-08-15 12:54:33.806579,-26.0
2023-08-15 12:54:33.814269,-86.0
2023-08-15 12:54:33.821958,-316.0
2023-08-15 12:54:33.829647,-738.0
2023-08-15 12:54:33.837337,-1093.0
2023-08-15 12:54:33.845026,-904.0
2023-08-15 12:54:33.852715,-149.0
2023-08-15 12:54:33.860405,400.0
2023-08-15 12:54:33.868094,238.0
2023-08-15 12:54:33.875784,-28.0
2023-08-15 12:54:33.883473,48.0
2023-08-15 12:54:33.891162,103.0
2023-08-15 12:54:33.898852,19.0
2023-08-15 12:54:33.906541,26.0
2023-08-15 12:54:33.914230,69.0
2023-08-15 12:54:33.921920,41.0
2023-08-15 12:54:33.929609,-2.0
2023-08-15 12:54:33.937298,-7.0
2023-08-15 12:54:33.944988,-9.0
2023-08-15 12:54:33.952677,-19.0
2023-08-15 12:54:33.960366,-12.0
2023-08-15 12:54:33.968056,-21.0
2023-08-15 12:54:33.975745,-43.0
2023-08-15 12:54:33.983435,-50.0
2023-08-15 12:54:33.991124,-53.0
2023-08-15 12:54:33.998813,-65.0
2023-08-15 12:54:34.006503,-79.0
2023-08-15 12:54:34.014192,-94.0
2023-08-15 12:54:34.021881,-106.0
2023-08-15 12:54:34.029571,-103.0
2023-08-15 12:54:34.037260,-110.0
2023-08-15 12:54:34.044949,-125.0
2023-08-15 12:54:34.052639,-125.0
2023-08-15 12:54:34.060328,-115.0
2023-08-15 12:54:34.068018,-98.0
2023-08-15 12:54:34.075707,-82.0
2023-08-15 12:54:34.083396,-84.0
2023-08-15 12:54:34.091086,-77.0
2023-08-15 12:54:34.098775,-45.0
2023-08-15 12:54:34.106464,-24.0
2023-08-15 12:54:34.114154,-19.0
2023-08-15 12:54:34.121843,-24.0
2023-08-15 12:54:34.129532,-16.0
2023-08-15 12:54:34.137222,0.0
2023-08-15 12:54:34.144911,4.0
2023-08-15 12:54:34.152600,-2.0
2023-08-15 12:54:34.160290,-12.0
2023-08-15 12:54:34.167979,-21.0
2023-08-15 12:54:34.175669,-24.0
2023-08-15 12:54:34.183358,-31.0
2023-08-15 12:54:34.191047,-28.0
2023-08-15 12:54:34.198737,-12.0
2023-08-15 12:54:34.206426,-14.0
2023-08-15 12:54:34.214115,-31.0
2023-08-15 12:54:34.221805,-33.0
2023-08-15 12:54:34.229494,-28.0
2023-08-15 12:54:34.237183,-26.0
2023-08-15 12:54:34.244873,-16.0
2023-08-15 12:54:34.252562,-14.0
2023-08-15 12:54:34.260251,-21.0
2023-08-15 12:54:34.267941,-21.0
2023-08-15 12:54:34.275630,-19.0
2023-08-15 12:54:34.283320,-16.0
2023-08-15 12:54:34.291009,-14.0
2023-08-15 12:54:34.298698,-19.0
2023-08-15 12:54:34.306388,-21.0
2023-08-15 12:54:34.314077,-9.0
2023-08-15 12:54:34.321766,-2.0
2023-08-15 12:54:34.329456,-9.0
2023-08-15 12:54:34.337145,-14.0
2023-08-15 12:54:34.344834,-7.0
2023-08-15 12:54:34.352524,-2.0
2023-08-15 12:54:34.360213,-7.0
2023-08-15 12:54:34.367903,-9.0
2023-08-15 12:54:34.375592,-19.0
2023-08-15 12:54:34.383281,-45.0
2023-08-15 12:54:34.390971,-65.0
2023-08-15 12:54:34.398660,-67.0
2023-08-15 12:54:34.406349,-82.0
2023-08-15 12:54:34.414039,-103.0
2023-08-15 12:54:34.421728,-115.0
2023-08-15 12:54:34.429417,-110.0
2023-08-15 12:54:34.437107,-74.0
2023-08-15 12:54:34.444796,-38.0
2023-08-15 12:54:34.452485,-28.0
2023-08-15 12:54:34.460175,-28.0
2023-08-15 12:54:34.467864,-14.0
2023-08-15 12:54:34.475554,2.0
2023-08-15 12:54:34.483243,7.0
2023-08-15 12:54:34.490932,-4.0
2023-08-15 12:54:34.498622,-14.0
2023-08-15 12:54:34.506311,-16.0
2023-08-15 12:54:34.514000,-19.0
2023-08-15 12:54:34.521690,-9.0
2023-08-15 12:54:34.529379,0.0
2023-08-15 12:54:34.537068,-67.0
2023-08-15 12:54:34.544758,-311.0
2023-08-15 12:54:34.552447,-714.0
2023-08-15 12:54:34.560136,-1027.0
2023-08-15 12:54:34.567826,-861.0
2023-08-15 12:54:34.575515,-195.0
2023-08-15 12:54:34.583205,325.0
2023-08-15 12:54:34.590894,219.0
2023-08-15 12:54:34.598583,-43.0
2023-08-15 12:54:34.606273,21.0
2023-08-15 12:54:34.613962,120.0
2023-08-15 12:54:34.621651,62.0
2023-08-15 12:54:34.629341,24.0
2023-08-15 12:54:34.637030,33.0
2023-08-15 12:54:34.644719,31.0
2023-08-15 12:54:34.652409,26.0
2023-08-15 12:54:34.660098,14.0
2023-08-15 12:54:34.667787,-12.0
2023-08-15 12:54:34.675477,-26.0
2023-08-15 12:54:34.683166,-26.0
2023-08-15 12:54:34.690856,-31.0
2023-08-15 12:54:34.698545,-38.0
2023-08-15 12:54:34.706234,-43.0
2023-08-15 12:54:34.713924,-45.0
2023-08-15 12:54:34.721613,-50.0
2023-08-15 12:54:34.729302,-65.0
2023-08-15 12:54:34.736992,-86.0
2023-08-15 12:54:34.744681,-96.0
2023-08-15 12:54:34.752370,-106.0
2023-08-15 12:54:34.760060,-125.0
2023-08-15 12:54:34.767749,-147.0
2023-08-15 12:54:34.775439,-144.0
2023-08-15 12:54:34.783128,-132.0
2023-08-15 12:54:34.790817,-120.0
2023-08-15 12:54:34.798507,-106.0
2023-08-15 12:54:34.806196,-91.0
2023-08-15 12:54:34.813885,-77.0
2023-08-15 12:54:34.821575,-55.0
2023-08-15 12:54:34.829264,-38.0
2023-08-15 12:54:34.836953,-28.0
2023-08-15 12:54:34.844643,-31.0
2023-08-15 12:54:34.852332,-24.0
2023-08-15 12:54:34.860021,-7.0
2023-08-15 12:54:34.867711,-4.0
2023-08-15 12:54:34.875400,-4.0
2023-08-15 12:54:34.883090,7.0
2023-08-15 12:54:34.890779,2.0
2023-08-15 12:54:34.898468,-16.0
2023-08-15 12:54:34.906158,-26.0
2023-08-15 12:54:34.913847,-26.0
2023-08-15 12:54:34.921536,-21.0
2023-08-15 12:54:34.929226,-19.0
2023-08-15 12:54:34.936915,-28.0
2023-08-15 12:54:34.944604,-38.0
2023-08-15 12:54:34.952294,-26.0
2023-08-15 12:54:34.959983,-12.0
2023-08-15 12:54:34.967672,-16.0
2023-08-15 12:54:34.975362,-28.0
2023-08-15 12:54:34.983051,-16.0
2023-08-15 12:54:34.990741,-14.0
2023-08-15 12:54:34.998430,-24.0
2023-08-15 12:54:35.006119,-7.0
2023-08-15 12:54:35.013809,-2.0
2023-08-15 12:54:35.021498,-33.0
2023-08-15 12:54:35.029187,-26.0
2023-08-15 12:54:35.036877,0.0
2023-08-15 12:54:35.044566,-4.0
2023-08-15 12:54:35.052255,-14.0
2023-08-15 12:54:35.059945,-21.0
2023-08-15 12:54:35.067634,-21.0
2023-08-15 12:54:35.075323,-12.0
2023-08-15 12:54:35.083013,-4.0
2023-08-15 12:54:35.090702,-12.0
2023-08-15 12:54:35.098392,-16.0
2023-08-15 12:54:35.106081,-19.0
2023-08-15 12:54:35.113770,-31.0
2023-08-15 12:54:35.121460,-43.0
2023-08-15 12:54:35.129149,-41.0
2023-08-15 12:54:35.136838,-53.0
2023-08-15 12:54:35.144528,-77.0
2023-08-15 12:54:35.152217,-96.0
2023-08-15 12:54:35.159906,-115.0
2023-08-15 12:54:35.167596,-115.0
2023-08-15 12:54:35.175285,-77.0
2023-08-15 12:54:35.182975,-41.0
2023-08-15 12:54:35.190664,-28.0
2023-08-15 12:54:35.198353,-28.0
2023-08-15 12:54:35.206043,-14.0
2023-08-15 12:54:35.213732,2.0
2023-08-15 12:54:35.221421,-7.0
2023-08-15 12:54:35.229111,-21.0
2023-08-15 12:54:35.236800,-24.0
2023-08-15 12:54:35.244489,-21.0
2023-08-15 12:54:35.252179,-21.0
2023-08-15 12:54:35.259868,-19.0
2023-08-15 12:54:35.267557,-24.0
2023-08-15 12:54:35.275247,-62.0
2023-08-15 12:54:35.282936,-219.0
2023-08-15 12:54:35.290626,-559.0
2023-08-15 12:54:35.298315,-928.0
2023-08-15 12:54:35.306004,-914.0
2023-08-15 12:54:35.313694,-347.0
2023-08-15 12:54:35.321383,253.0
2023-08-15 12:54:35.329072,287.0
2023-08-15 12:54:35.336762,9.0
2023-08-15 12:54:35.344451,-4.0
2023-08-15 12:54:35.352140,106.0
2023-08-15 12:54:35.359830,67.0
2023-08-15 12:54:35.367519,24.0
2023-08-15 12:54:35.375208,41.0
2023-08-15 12:54:35.382898,31.0
2023-08-15 12:54:35.390587,2.0
2023-08-15 12:54:35.398277,-12.0
2023-08-15 12:54:35.405966,-16.0
2023-08-15 12:54:35.413655,-24.0
2023-08-15 12:54:35.421345,-41.0
2023-08-15 12:54:35.429034,-43.0
2023-08-15 12:54:35.436723,-36.0
2023-08-15 12:54:35.444413,-45.0
2023-08-15 12:54:35.452102,-67.0
2023-08-15 12:54:35.459791,-77.0
2023-08-15 12:54:35.467481,-82.0
2023-08-15 12:54:35.475170,-94.0
2023-08-15 12:54:35.482859,-106.0
2023-08-15 12:54:35.490549,-103.0
2023-08-15 12:54:35.498238,-115.0
2023-08-15 12:54:35.505928,-135.0
2023-08-15 12:54:35.513617,-130.0
2023-08-15 12:54:35.521306,-113.0
2023-08-15 12:54:35.528996,-106.0
2023-08-15 12:54:35.536685,-103.0
2023-08-15 12:54:35.544374,-84.0
2023-08-15 12:54:35.552064,-57.0
2023-08-15 12:54:35.559753,-53.0
2023-08-15 12:54:35.567442,-55.0
2023-08-15 12:54:35.575132,-36.0
2023-08-15 12:54:35.582821,-14.0
2023-08-15 12:54:35.590511,-7.0
2023-08-15 12:54:35.598200,-14.0
2023-08-15 12:54:35.605889,-16.0
2023-08-15 12:54:35.613579,-12.0
2023-08-15 12:54:35.621268,-2.0
2023-08-15 12:54:35.628957,7.0
2023-08-15 12:54:35.636647,4.0
2023-08-15 12:54:35.644336,-7.0
2023-08-15 12:54:35.652025,-16.0
2023-08-15 12:54:35.659715,-24.0
2023-08-15 12:54:35.667404,-24.0
2023-08-15 12:54:35.675093,-16.0
2023-08-15 12:54:35.682783,-4.0
2023-08-15 12:54:35.690472,-4.0
2023-08-15 12:54:35.698162,-19.0
2023-08-15 12:54:35.705851,-19.0
2023-08-15 12:54:35.713540,2.0
2023-08-15 12:54:35.721230,4.0
2023-08-15 12:54:35.728919,-26.0
2023-08-15 12:54:35.736608,-38.0
2023-08-15 12:54:35.744298,-26.0
2023-08-15 12:54:35.751987,-26.0
2023-08-15 12:54:35.759676,-21.0
2023-08-15 12:54:35.767366,-7.0
2023-08-15 12:54:35.775055,-4.0
2023-08-15 12:54:35.782744,-16.0
2023-08-15 12:54:35.790434,-21.0
2023-08-15 12:54:35.798123,-19.0
2023-08-15 12:54:35.805813,-19.0
2023-08-15 12:54:35.813502,-19.0
2023-08-15 12:54:35.821191,-16.0
2023-08-15 12:54:35.828881,-19.0
2023-08-15 12:54:35.836570,-24.0
2023-08-15 12:54:35.844259,-19.0
2023-08-15 12:54:35.851949,-12.0
2023-08-15 12:54:35.859638,-21.0
2023-08-15 12:54:35.867327,-36.0
2023-08-15 12:54:35.875017,-33.0
2023-08-15 12:54:35.882706,-38.0
2023-08-15 12:54:35.890395,-55.0
2023-08-15 12:54:35.898085,-72.0
2023-08-15 12:54:35.905774,-98.0
2023-08-15 12:54:35.913464,-123.0
2023-08-15 12:54:35.921153,-123.0
2023-08-15 12:54:35.928842,-89.0
2023-08-15 12:54:35.936532,-55.0
2023-08-15 12:54:35.944221,-55.0
2023-08-15 12:54:35.951910,-55.0
2023-08-15 12:54:35.959600,-12.0
2023-08-15 12:54:35.967289,12.0
2023-08-15 12:54:35.974978,-12.0
2023-08-15 12:54:35.982668,-26.0
2023-08-15 12:54:35.990357,-16.0
2023-08-15 12:54:35.998047,-19.0
2023-08-15 12:54:36.005736,-26.0
2023-08-15 12:54:36.013425,-19.0
2023-08-15 12:54:36.021115,-16.0
2023-08-15 12:54:36.028804,-48.0
2023-08-15 12:54:36.036493,-190.0
2023-08-15 12:54:36.044183,-523.0
2023-08-15 12:54:36.051872,-941.0
2023-08-15 12:54:36.059561,-1023.0
2023-08-15 12:54:36.067251,-497.0
2023-08-15 12:54:36.074940,205.0
2023-08-15 12:54:36.082629,349.0
2023-08-15 12:54:36.090319,41.0
2023-08-15 12:54:36.098008,-31.0
2023-08-15 12:54:36.105698,91.0
2023-08-15 12:54:36.113387,65.0
2023-08-15 12:54:36.121076,12.0
2023-08-15 12:54:36.128766,43.0
2023-08-15 12:54:36.136455,55.0
2023-08-15 12:54:36.144144,31.0
2023-08-15 12:54:36.151834,2.0
2023-08-15 12:54:36.159523,-24.0
2023-08-15 12:54:36.167212,-28.0
2023-08-15 12:54:36.174902,-16.0
2023-08-15 12:54:36.182591,-24.0
2023-08-15 12:54:36.190280,-36.0
2023-08-15 12:54:36.197970,-36.0
2023-08-15 12:54:36.205659,-43.0
2023-08-15 12:54:36.213349,-53.0
2023-08-15 12:54:36.221038,-55.0
2023-08-15 12:54:36.228727,-72.0
2023-08-15 12:54:36.236417,-96.0
2023-08-15 12:54:36.244106,-113.0
2023-08-15 12:54:36.251795,-115.0
2023-08-15 12:54:36.259485,-115.0
2023-08-15 12:54:36.267174,-120.0
2023-08-15 12:54:36.274863,-110.0
2023-08-15 12:54:36.282553,-94.0
2023-08-15 12:54:36.290242,-89.0
2023-08-15 12:54:36.297931,-77.0
2023-08-15 12:54:36.305621,-53.0
2023-08-15 12:54:36.313310,-36.0
2023-08-15 12:54:36.321000,-26.0
2023-08-15 12:54:36.328689,-36.0
2023-08-15 12:54:36.336378,-41.0
2023-08-15 12:54:36.344068,-12.0
2023-08-15 12:54:36.351757,-9.0
2023-08-15 12:54:36.359446,-31.0
2023-08-15 12:54:36.367136,-16.0
2023-08-15 12:54:36.374825,-7.0
2023-08-15 12:54:36.382514,-28.0
2023-08-15 12:54:36.390204,-26.0
2023-08-15 12:54:36.397893,-14.0
2023-08-15 12:54:36.405583,-33.0
2023-08-15 12:54:36.413272,-65.0
2023-08-15 12:54:36.420961,-62.0
2023-08-15 12:54:36.428651,-36.0
2023-08-15 12:54:36.436340,-28.0
2023-08-15 12:54:36.444029,-45.0
2023-08-15 12:54:36.451719,-38.0
2023-08-15 12:54:36.459408,-26.0
2023-08-15 12:54:36.467097,-33.0
2023-08-15 12:54:36.474787,-38.0
2023-08-15 12:54:36.482476,-24.0
2023-08-15 12:54:36.490165,-12.0
2023-08-15 12:54:36.497855,-26.0
2023-08-15 12:54:36.505544,-36.0
2023-08-15 12:54:36.513234,-14.0
2023-08-15 12:54:36.520923,-9.0
2023-08-15 12:54:36.528612,-28.0
2023-08-15 12:54:36.536302,-24.0
2023-08-15 12:54:36.543991,-12.0
2023-08-15 12:54:36.551680,-19.0
2023-08-15 12:54:36.559370,-19.0
2023-08-15 12:54:36.567059,-7.0
2023-08-15 12:54:36.574748,-4.0
2023-08-15 12:54:36.582438,-7.0
2023-08-15 12:54:36.590127,-12.0
2023-08-15 12:54:36.597816,-19.0
2023-08-15 12:54:36.605506,-28.0
2023-08-15 12:54:36.613195,-26.0
2023-08-15 12:54:36.620885,-19.0
2023-08-15 12:54:36.628574,-21.0
2023-08-15 12:54:36.636263,-33.0
2023-08-15 12:54:36.643953,-55.0
2023-08-15 12:54:36.651642,-67.0
2023-08-15 12:54:36.659331,-69.0
2023-08-15 12:54:36.667021,-98.0
2023-08-15 12:54:36.674710,-125.0
2023-08-15 12:54:36.682399,-98.0
2023-08-15 12:54:36.690089,-60.0
2023-08-15 12:54:36.697778,-41.0
2023-08-15 12:54:36.705468,-24.0
2023-08-15 12:54:36.713157,-12.0
2023-08-15 12:54:36.720846,-7.0
2023-08-15 12:54:36.728536,2.0
2023-08-15 12:54:36.736225,2.0
2023-08-15 12:54:36.743914,-7.0
2023-08-15 12:54:36.751604,-12.0
2023-08-15 12:54:36.759293,-12.0
2023-08-15 12:54:36.766982,-9.0
2023-08-15 12:54:36.774672,-4.0
2023-08-15 12:54:36.782361,-24.0
2023-08-15 12:54:36.790050,-110.0
2023-08-15 12:54:36.797740,-359.0
2023-08-15 12:54:36.805429,-784.0
2023-08-15 12:54:36.813119,-1073.0
2023-08-15 12:54:36.820808,-789.0
2023-08-15 12:54:36.828497,-53.0
2023-08-15 12:54:36.836187,381.0
2023-08-15 12:54:36.843876,193.0
2023-08-15 12:54:36.851565,-21.0
2023-08-15 12:54:36.859255,67.0
2023-08-15 12:54:36.866944,113.0
2023-08-15 12:54:36.874633,43.0
2023-08-15 12:54:36.882323,33.0
2023-08-15 12:54:36.890012,43.0
2023-08-15 12:54:36.897701,24.0
2023-08-15 12:54:36.905391,7.0
2023-08-15 12:54:36.913080,-4.0
2023-08-15 12:54:36.920770,-16.0
2023-08-15 12:54:36.928459,-19.0
2023-08-15 12:54:36.936148,-33.0
2023-08-15 12:54:36.943838,-50.0
2023-08-15 12:54:36.951527,-53.0
2023-08-15 12:54:36.959216,-60.0
2023-08-15 12:54:36.966906,-69.0
2023-08-15 12:54:36.974595,-74.0
2023-08-15 12:54:36.982284,-89.0
2023-08-15 12:54:36.989974,-96.0
2023-08-15 12:54:36.997663,-91.0
2023-08-15 12:54:37.005352,-108.0
2023-08-15 12:54:37.013042,-125.0
2023-08-15 12:54:37.020731,-127.0
2023-08-15 12:54:37.028421,-127.0
2023-08-15 12:54:37.036110,-125.0
2023-08-15 12:54:37.043799,-108.0
2023-08-15 12:54:37.051489,-74.0
2023-08-15 12:54:37.059178,-55.0
2023-08-15 12:54:37.066867,-53.0
2023-08-15 12:54:37.074557,-41.0
2023-08-15 12:54:37.082246,-33.0
2023-08-15 12:54:37.089935,-24.0
2023-08-15 12:54:37.097625,-14.0
2023-08-15 12:54:37.105314,-16.0
2023-08-15 12:54:37.113004,-9.0
2023-08-15 12:54:37.120693,-2.0
2023-08-15 12:54:37.128382,-14.0
2023-08-15 12:54:37.136072,-14.0
2023-08-15 12:54:37.143761,0.0
2023-08-15 12:54:37.151450,-9.0
2023-08-15 12:54:37.159140,-26.0
2023-08-15 12:54:37.166829,-24.0
2023-08-15 12:54:37.174518,-12.0
2023-08-15 12:54:37.182208,-9.0
2023-08-15 12:54:37.189897,-26.0
2023-08-15 12:54:37.197586,-31.0
2023-08-15 12:54:37.205276,-16.0
2023-08-15 12:54:37.212965,-12.0
2023-08-15 12:54:37.220655,-9.0
2023-08-15 12:54:37.228344,-7.0
2023-08-15 12:54:37.236033,-7.0
2023-08-15 12:54:37.243723,-4.0
2023-08-15 12:54:37.251412,-7.0
2023-08-15 12:54:37.259101,-9.0
2023-08-15 12:54:37.266791,0.0
2023-08-15 12:54:37.274480,9.0
2023-08-15 12:54:37.282169,2.0
2023-08-15 12:54:37.289859,-4.0
2023-08-15 12:54:37.297548,2.0
2023-08-15 12:54:37.305237,4.0
2023-08-15 12:54:37.312927,-9.0
2023-08-15 12:54:37.320616,-16.0
2023-08-15 12:54:37.328306,4.0
2023-08-15 12:54:37.335995,12.0
2023-08-15 12:54:37.343684,-9.0
2023-08-15 12:54:37.351374,-19.0
2023-08-15 12:54:37.359063,-16.0
2023-08-15 12:54:37.366752,-19.0
2023-08-15 12:54:37.374442,-19.0
2023-08-15 12:54:37.382131,-24.0
2023-08-15 12:54:37.389820,-28.0
2023-08-15 12:54:37.397510,-26.0
2023-08-15 12:54:37.405199,-38.0
2023-08-15 12:54:37.412888,-55.0
2023-08-15 12:54:37.420578,-57.0
2023-08-15 12:54:37.428267,-77.0
2023-08-15 12:54:37.435957,-120.0
2023-08-15 12:54:37.443646,-135.0
2023-08-15 12:54:37.451335,-118.0
2023-08-15 12:54:37.459025,-94.0
2023-08-15 12:54:37.466714,-69.0
2023-08-15 12:54:37.474403,-53.0
2023-08-15 12:54:37.482093,-38.0
2023-08-15 12:54:37.489782,-19.0
2023-08-15 12:54:37.497471,-14.0
2023-08-15 12:54:37.505161,-19.0
2023-08-15 12:54:37.512850,-21.0
2023-08-15 12:54:37.520540,-28.0
2023-08-15 12:54:37.528229,-33.0
2023-08-15 12:54:37.535918,-28.0
2023-08-15 12:54:37.543608,-24.0
2023-08-15 12:54:37.551297,-24.0
2023-08-15 12:54:37.558986,-91.0
2023-08-15 12:54:37.566676,-323.0
2023-08-15 12:54:37.574365,-711.0
2023-08-15 12:54:37.582054,-1001.0
2023-08-15 12:54:37.589744,-767.0
2023-08-15 12:54:37.597433,-69.0
2023-08-15 12:54:37.605122,352.0
2023-08-15 12:54:37.612812,171.0
2023-08-15 12:54:37.620501,-31.0
2023-08-15 12:54:37.628191,53.0
2023-08-15 12:54:37.635880,94.0
2023-08-15 12:54:37.643569,26.0
2023-08-15 12:54:37.651259,24.0
2023-08-15 12:54:37.658948,41.0
2023-08-15 12:54:37.666637,24.0
2023-08-15 12:54:37.674327,16.0
2023-08-15 12:54:37.682016,2.0
2023-08-15 12:54:37.689705,-28.0
2023-08-15 12:54:37.697395,-28.0
2023-08-15 12:54:37.705084,-7.0
2023-08-15 12:54:37.712773,-12.0
2023-08-15 12:54:37.720463,-33.0
2023-08-15 12:54:37.728152,-48.0
2023-08-15 12:54:37.735842,-57.0
2023-08-15 12:54:37.743531,-62.0
2023-08-15 12:54:37.751220,-65.0
2023-08-15 12:54:37.758910,-79.0
2023-08-15 12:54:37.766599,-91.0
2023-08-15 12:54:37.774288,-94.0
2023-08-15 12:54:37.781978,-115.0
2023-08-15 12:54:37.789667,-137.0
2023-08-15 12:54:37.797356,-115.0
2023-08-15 12:54:37.805046,-101.0
2023-08-15 12:54:37.812735,-108.0
2023-08-15 12:54:37.820424,-86.0
2023-08-15 12:54:37.828114,-60.0
2023-08-15 12:54:37.835803,-45.0
2023-08-15 12:54:37.843493,-38.0
2023-08-15 12:54:37.851182,-41.0
2023-08-15 12:54:37.858871,-36.0
2023-08-15 12:54:37.866561,-19.0
2023-08-15 12:54:37.874250,-16.0
2023-08-15 12:54:37.881939,-14.0
2023-08-15 12:54:37.889629,9.0
2023-08-15 12:54:37.897318,12.0
2023-08-15 12:54:37.905007,-7.0
2023-08-15 12:54:37.912697,-12.0
2023-08-15 12:54:37.920386,-19.0
2023-08-15 12:54:37.928076,-36.0
2023-08-15 12:54:37.935765,-31.0
2023-08-15 12:54:37.943454,-9.0
2023-08-15 12:54:37.951144,-12.0
2023-08-15 12:54:37.958833,-26.0
2023-08-15 12:54:37.966522,-19.0
2023-08-15 12:54:37.974212,-12.0
2023-08-15 12:54:37.981901,-21.0
2023-08-15 12:54:37.989590,-21.0
2023-08-15 12:54:37.997280,-16.0
2023-08-15 12:54:38.004969,-28.0
2023-08-15 12:54:38.012658,-36.0
2023-08-15 12:54:38.020348,-21.0
2023-08-15 12:54:38.028037,-16.0
2023-08-15 12:54:38.035727,-26.0
2023-08-15 12:54:38.043416,-36.0
2023-08-15 12:54:38.051105,-41.0
2023-08-15 12:54:38.058795,-38.0
2023-08-15 12:54:38.066484,-31.0
2023-08-15 12:54:38.074173,-21.0
2023-08-15 12:54:38.081863,-16.0
2023-08-15 12:54:38.089552,-28.0
2023-08-15 12:54:38.097241,-41.0
2023-08-15 12:54:38.104931,-26.0
2023-08-15 12:54:38.112620,-7.0
2023-08-15 12:54:38.120309,-31.0
2023-08-15 12:54:38.127999,-53.0
2023-08-15 12:54:38.135688,-31.0
2023-08-15 12:54:38.143378,-31.0
2023-08-15 12:54:38.151067,-55.0
2023-08-15 12:54:38.158756,-53.0
2023-08-15 12:54:38.166446,-43.0
2023-08-15 12:54:38.174135,-60.0
2023-08-15 12:54:38.181824,-82.0
2023-08-15 12:54:38.189514,-77.0
2023-08-15 12:54:38.197203,-84.0
2023-08-15 12:54:38.204892,-120.0
2023-08-15 12:54:38.212582,-147.0
2023-08-15 12:54:38.220271,-142.0
2023-08-15 12:54:38.227960,-101.0
2023-08-15 12:54:38.235650,-55.0
2023-08-15 12:54:38.243339,-50.0
2023-08-15 12:54:38.251029,-45.0
2023-08-15 12:54:38.258718,-12.0
2023-08-15 12:54:38.266407,-9.0
2023-08-15 12:54:38.274097,-24.0
2023-08-15 12:54:38.281786,-12.0
2023-08-15 12:54:38.289475,-4.0
2023-08-15 12:54:38.297165,-7.0
2023-08-15 12:54:38.304854,-9.0
2023-08-15 12:54:38.312543,-21.0
2023-08-15 12:54:38.320233,-21.0
2023-08-15 12:54:38.327922,-21.0
2023-08-15 12:54:38.335612,-120.0
2023-08-15 12:54:38.343301,-410.0
2023-08-15 12:54:38.350990,-803.0
2023-08-15 12:54:38.358680,-950.0
2023-08-15 12:54:38.366369,-547.0
2023-08-15 12:54:38.374058,120.0
2023-08-15 12:54:38.381748,369.0
2023-08-15 12:54:38.389437,110.0
2023-08-15 12:54:38.397126,-36.0
2023-08-15 12:54:38.404816,74.0
2023-08-15 12:54:38.412505,84.0
2023-08-15 12:54:38.420194,21.0
2023-08-15 12:54:38.427884,33.0
2023-08-15 12:54:38.435573,28.0
2023-08-15 12:54:38.443263,-2.0
2023-08-15 12:54:38.450952,-14.0
2023-08-15 12:54:38.458641,-24.0
2023-08-15 12:54:38.466331,-24.0
2023-08-15 12:54:38.474020,-19.0
2023-08-15 12:54:38.481709,-19.0
2023-08-15 12:54:38.489399,-38.0
2023-08-15 12:54:38.497088,-57.0
2023-08-15 12:54:38.504777,-55.0
2023-08-15 12:54:38.512467,-57.0
2023-08-15 12:54:38.520156,-77.0
2023-08-15 12:54:38.527845,-79.0
2023-08-15 12:54:38.535535,-84.0
2023-08-15 12:54:38.543224,-103.0
2023-08-15 12:54:38.550914,-115.0
2023-08-15 12:54:38.558603,-120.0
2023-08-15 12:54:38.566292,-127.0
2023-08-15 12:54:38.573982,-120.0
2023-08-15 12:54:38.581671,-115.0
2023-08-15 12:54:38.589360,-115.0
2023-08-15 12:54:38.597050,-106.0
2023-08-15 12:54:38.604739,-94.0
2023-08-15 12:54:38.612428,-77.0
2023-08-15 12:54:38.620118,-69.0
2023-08-15 12:54:38.627807,-69.0
2023-08-15 12:54:38.635497,-55.0
2023-08-15 12:54:38.643186,-45.0
2023-08-15 12:54:38.650875,-53.0
2023-08-15 12:54:38.658565,-41.0
2023-08-15 12:54:38.666254,-26.0
2023-08-15 12:54:38.673943,-31.0
2023-08-15 12:54:38.681633,-36.0
2023-08-15 12:54:38.689322,-36.0
2023-08-15 12:54:38.697011,-33.0
2023-08-15 12:54:38.704701,-26.0
2023-08-15 12:54:38.712390,-31.0
2023-08-15 12:54:38.720079,-38.0
2023-08-15 12:54:38.727769,-28.0
2023-08-15 12:54:38.735458,-36.0
2023-08-15 12:54:38.743148,-50.0
2023-08-15 12:54:38.750837,-38.0
2023-08-15 12:54:38.758526,-21.0
2023-08-15 12:54:38.766216,-26.0
2023-08-15 12:54:38.773905,-33.0
2023-08-15 12:54:38.781594,-19.0
2023-08-15 12:54:38.789284,-9.0
2023-08-15 12:54:38.796973,-31.0
2023-08-15 12:54:38.804662,-41.0
2023-08-15 12:54:38.812352,-26.0
2023-08-15 12:54:38.820041,-28.0
2023-08-15 12:54:38.827730,-21.0
2023-08-15 12:54:38.835420,0.0
2023-08-15 12:54:38.843109,-21.0
2023-08-15 12:54:38.850799,-50.0
2023-08-15 12:54:38.858488,-28.0
2023-08-15 12:54:38.866177,-12.0
2023-08-15 12:54:38.873867,-33.0
2023-08-15 12:54:38.881556,-45.0
2023-08-15 12:54:38.889245,-38.0
2023-08-15 12:54:38.896935,-28.0
2023-08-15 12:54:38.904624,-21.0
2023-08-15 12:54:38.912313,-36.0
2023-08-15 12:54:38.920003,-50.0
2023-08-15 12:54:38.927692,-48.0
2023-08-15 12:54:38.935381,-79.0
2023-08-15 12:54:38.943071,-106.0
2023-08-15 12:54:38.950760,-98.0
2023-08-15 12:54:38.958450,-123.0
2023-08-15 12:54:38.966139,-144.0
2023-08-15 12:54:38.973828,-113.0
2023-08-15 12:54:38.981518,-82.0
2023-08-15 12:54:38.989207,-67.0
2023-08-15 12:54:38.996896,-36.0
2023-08-15 12:54:39.004586,-19.0
2023-08-15 12:54:39.012275,-16.0
2023-08-15 12:54:39.019964,-9.0
2023-08-15 12:54:39.027654,-19.0
2023-08-15 12:54:39.035343,-31.0
2023-08-15 12:54:39.043033,-12.0
2023-08-15 12:54:39.050722,-2.0
2023-08-15 12:54:39.058411,-21.0
2023-08-15 12:54:39.066101,-33.0
2023-08-15 12:54:39.073790,-28.0
2023-08-15 12:54:39.081479,-113.0
2023-08-15 12:54:39.089169,-424.0
2023-08-15 12:54:39.096858,-897.0
2023-08-15 12:54:39.104547,-1138.0
2023-08-15 12:54:39.112237,-752.0
2023-08-15 12:54:39.119926,31.0
2023-08-15 12:54:39.127615,427.0
2023-08-15 12:54:39.135305,195.0
2023-08-15 12:54:39.142994,-31.0
2023-08-15 12:54:39.150684,53.0
2023-08-15 12:54:39.158373,91.0
2023-08-15 12:54:39.166062,26.0
2023-08-15 12:54:39.173752,31.0
2023-08-15 12:54:39.181441,38.0
2023-08-15 12:54:39.189130,14.0
2023-08-15 12:54:39.196820,12.0
2023-08-15 12:54:39.204509,4.0
2023-08-15 12:54:39.212198,-9.0
2023-08-15 12:54:39.219888,-21.0
2023-08-15 12:54:39.227577,-28.0
2023-08-15 12:54:39.235266,-21.0
2023-08-15 12:54:39.242956,-19.0
2023-08-15 12:54:39.250645,-38.0
2023-08-15 12:54:39.258335,-55.0
2023-08-15 12:54:39.266024,-57.0
2023-08-15 12:54:39.273713,-67.0
2023-08-15 12:54:39.281403,-84.0
2023-08-15 12:54:39.289092,-89.0
2023-08-15 12:54:39.296781,-89.0
2023-08-15 12:54:39.304471,-108.0
2023-08-15 12:54:39.312160,-113.0
2023-08-15 12:54:39.319849,-98.0
2023-08-15 12:54:39.327539,-89.0
2023-08-15 12:54:39.335228,-86.0
2023-08-15 12:54:39.342917,-77.0
2023-08-15 12:54:39.350607,-72.0
2023-08-15 12:54:39.358296,-60.0
2023-08-15 12:54:39.365986,-36.0
2023-08-15 12:54:39.373675,-21.0
2023-08-15 12:54:39.381364,-26.0
2023-08-15 12:54:39.389054,-28.0
2023-08-15 12:54:39.396743,-19.0
2023-08-15 12:54:39.404432,2.0
2023-08-15 12:54:39.412122,9.0
2023-08-15 12:54:39.419811,-16.0
2023-08-15 12:54:39.427500,-24.0
2023-08-15 12:54:39.435190,-4.0
2023-08-15 12:54:39.442879,-12.0
2023-08-15 12:54:39.450569,-26.0
2023-08-15 12:54:39.458258,-21.0
2023-08-15 12:54:39.465947,-24.0
2023-08-15 12:54:39.473637,-21.0
2023-08-15 12:54:39.481326,-14.0
2023-08-15 12:54:39.489015,-21.0
2023-08-15 12:54:39.496705,-31.0
2023-08-15 12:54:39.504394,-24.0
2023-08-15 12:54:39.512083,-16.0
2023-08-15 12:54:39.519773,-26.0
2023-08-15 12:54:39.527462,-24.0
2023-08-15 12:54:39.535151,-12.0
2023-08-15 12:54:39.542841,-4.0
2023-08-15 12:54:39.550530,-12.0
2023-08-15 12:54:39.558220,-16.0
2023-08-15 12:54:39.565909,-12.0
2023-08-15 12:54:39.573598,-12.0
2023-08-15 12:54:39.581288,-16.0
2023-08-15 12:54:39.588977,-14.0
2023-08-15 12:54:39.596666,-12.0
2023-08-15 12:54:39.604356,-19.0
2023-08-15 12:54:39.612045,-26.0
2023-08-15 12:54:39.619734,-19.0
2023-08-15 12:54:39.627424,-9.0
2023-08-15 12:54:39.635113,-21.0
2023-08-15 12:54:39.642802,-43.0
2023-08-15 12:54:39.650492,-48.0
2023-08-15 12:54:39.658181,-38.0
2023-08-15 12:54:39.665871,-50.0
2023-08-15 12:54:39.673560,-77.0
2023-08-15 12:54:39.681249,-86.0
2023-08-15 12:54:39.688939,-106.0
2023-08-15 12:54:39.696628,-118.0
2023-08-15 12:54:39.704317,-98.0
2023-08-15 12:54:39.712007,-79.0
2023-08-15 12:54:39.719696,-65.0
2023-08-15 12:54:39.727385,-31.0
2023-08-15 12:54:39.735075,-2.0
2023-08-15 12:54:39.742764,-4.0
2023-08-15 12:54:39.750453,-12.0
2023-08-15 12:54:39.758143,-14.0
2023-08-15 12:54:39.765832,-14.0
2023-08-15 12:54:39.773522,-12.0
2023-08-15 12:54:39.781211,-16.0
2023-08-15 12:54:39.788900,-19.0
2023-08-15 12:54:39.796590,-9.0
2023-08-15 12:54:39.804279,-21.0
2023-08-15 12:54:39.811968,-113.0
2023-08-15 12:54:39.819658,-381.0
2023-08-15 12:54:39.827347,-796.0
2023-08-15 12:54:39.835036,-1054.0
2023-08-15 12:54:39.842726,-760.0
2023-08-15 12:54:39.850415,-36.0
2023-08-15 12:54:39.858105,395.0
2023-08-15 12:54:39.865794,207.0
2023-08-15 12:54:39.873483,-12.0
2023-08-15 12:54:39.881173,65.0
2023-08-15 12:54:39.888862,98.0
2023-08-15 12:54:39.896551,50.0
2023-08-15 12:54:39.904241,60.0
2023-08-15 12:54:39.911930,48.0
2023-08-15 12:54:39.919619,19.0
2023-08-15 12:54:39.927309,28.0
2023-08-15 12:54:39.934998,19.0
2023-08-15 12:54:39.942687,-4.0
2023-08-15 12:54:39.950377,-9.0
2023-08-15 12:54:39.958066,-12.0
2023-08-15 12:54:39.965756,-24.0
2023-08-15 12:54:39.973445,-31.0
2023-08-15 12:54:39.981134,-36.0
2023-08-15 12:54:39.988824,-48.0
2023-08-15 12:54:39.996513,-67.0
2023-08-15 12:54:40.004202,-79.0
2023-08-15 12:54:40.011892,-82.0
2023-08-15 12:54:40.019581,-84.0
2023-08-15 12:54:40.027270,-96.0
2023-08-15 12:54:40.034960,-110.0
2023-08-15 12:54:40.042649,-127.0
2023-08-15 12:54:40.050338,-130.0
2023-08-15 12:54:40.058028,-115.0
2023-08-15 12:54:40.065717,-101.0
2023-08-15 12:54:40.073407,-98.0
2023-08-15 12:54:40.081096,-86.0
2023-08-15 12:54:40.088785,-57.0
2023-08-15 12:54:40.096475,-31.0
2023-08-15 12:54:40.104164,-36.0
2023-08-15 12:54:40.111853,-53.0
2023-08-15 12:54:40.119543,-38.0
2023-08-15 12:54:40.127232,-9.0
2023-08-15 12:54:40.134921,7.0
2023-08-15 12:54:40.142611,4.0
2023-08-15 12:54:40.150300,0.0
2023-08-15 12:54:40.157989,4.0
2023-08-15 12:54:40.165679,9.0
2023-08-15 12:54:40.173368,-9.0
2023-08-15 12:54:40.181058,-19.0
2023-08-15 12:54:40.188747,-4.0
2023-08-15 12:54:40.196436,-4.0
2023-08-15 12:54:40.204126,-12.0
2023-08-15 12:54:40.211815,-4.0
2023-08-15 12:54:40.219504,-4.0
2023-08-15 12:54:40.227194,-16.0
2023-08-15 12:54:40.234883,-14.0
2023-08-15 12:54:40.242572,-9.0
2023-08-15 12:54:40.250262,-7.0
2023-08-15 12:54:40.257951,-2.0
2023-08-15 12:54:40.265641,-7.0
2023-08-15 12:54:40.273330,-16.0
2023-08-15 12:54:40.281019,-19.0
2023-08-15 12:54:40.288709,-19.0
2023-08-15 12:54:40.296398,-24.0
2023-08-15 12:54:40.304087,-24.0
2023-08-15 12:54:40.311777,-16.0
2023-08-15 12:54:40.319466,-14.0
2023-08-15 12:54:40.327155,-24.0
2023-08-15 12:54:40.334845,-26.0
2023-08-15 12:54:40.342534,-14.0
2023-08-15 12:54:40.350223,-19.0
2023-08-15 12:54:40.357913,-38.0
2023-08-15 12:54:40.365602,-31.0
2023-08-15 12:54:40.373292,-16.0
2023-08-15 12:54:40.380981,-33.0
2023-08-15 12:54:40.388670,-55.0
2023-08-15 12:54:40.396360,-55.0
2023-08-15 12:54:40.404049,-57.0
2023-08-15 12:54:40.411738,-89.0
2023-08-15 12:54:40.419428,-120.0
2023-08-15 12:54:40.427117,-127.0
2023-08-15 12:54:40.434806,-110.0
2023-08-15 12:54:40.442496,-84.0
2023-08-15 12:54:40.450185,-65.0
2023-08-15 12:54:40.457874,-55.0
2023-08-15 12:54:40.465564,-45.0
2023-08-15 12:54:40.473253,-28.0
2023-08-15 12:54:40.480943,-19.0
2023-08-15 12:54:40.488632,-14.0
2023-08-15 12:54:40.496321,-12.0
2023-08-15 12:54:40.504011,-16.0
2023-08-15 12:54:40.511700,-12.0
2023-08-15 12:54:40.519389,-4.0
2023-08-15 12:54:40.527079,-7.0
2023-08-15 12:54:40.534768,-12.0
2023-08-15 12:54:40.542457,-57.0
2023-08-15 12:54:40.550147,-246.0
2023-08-15 12:54:40.557836,-615.0
2023-08-15 12:54:40.565525,-962.0
2023-08-15 12:54:40.573215,-887.0
2023-08-15 12:54:40.580904,-284.0
2023-08-15 12:54:40.588594,296.0
2023-08-15 12:54:40.596283,294.0
2023-08-15 12:54:40.603972,9.0
2023-08-15 12:54:40.611662,-2.0
2023-08-15 12:54:40.619351,98.0
2023-08-15 12:54:40.627040,53.0
2023-08-15 12:54:40.634730,12.0
2023-08-15 12:54:40.642419,33.0
2023-08-15 12:54:40.650108,26.0
2023-08-15 12:54:40.657798,4.0
2023-08-15 12:54:40.665487,4.0
2023-08-15 12:54:40.673177,7.0
2023-08-15 12:54:40.680866,0.0
2023-08-15 12:54:40.688555,-9.0
2023-08-15 12:54:40.696245,-16.0
2023-08-15 12:54:40.703934,-33.0
2023-08-15 12:54:40.711623,-57.0
2023-08-15 12:54:40.719313,-60.0
2023-08-15 12:54:40.727002,-57.0
2023-08-15 12:54:40.734691,-65.0
2023-08-15 12:54:40.742381,-72.0
2023-08-15 12:54:40.750070,-79.0
2023-08-15 12:54:40.757759,-94.0
2023-08-15 12:54:40.765449,-115.0
2023-08-15 12:54:40.773138,-132.0
2023-08-15 12:54:40.780828,-132.0
2023-08-15 12:54:40.788517,-118.0
2023-08-15 12:54:40.796206,-103.0
2023-08-15 12:54:40.803896,-98.0
2023-08-15 12:54:40.811585,-91.0
2023-08-15 12:54:40.819274,-72.0
2023-08-15 12:54:40.826964,-55.0
2023-08-15 12:54:40.834653,-45.0
2023-08-15 12:54:40.842342,-21.0
2023-08-15 12:54:40.850032,-4.0
2023-08-15 12:54:40.857721,-9.0
2023-08-15 12:54:40.865410,-7.0
2023-08-15 12:54:40.873100,7.0
2023-08-15 12:54:40.880789,0.0
2023-08-15 12:54:40.888479,-16.0
2023-08-15 12:54:40.896168,-14.0
2023-08-15 12:54:40.903857,-2.0
2023-08-15 12:54:40.911547,-12.0
2023-08-15 12:54:40.919236,-19.0
2023-08-15 12:54:40.926925,-16.0
2023-08-15 12:54:40.934615,-26.0
2023-08-15 12:54:40.942304,-43.0
2023-08-15 12:54:40.949993,-24.0
2023-08-15 12:54:40.957683,2.0
2023-08-15 12:54:40.965372,-14.0
2023-08-15 12:54:40.973062,-41.0
2023-08-15 12:54:40.980751,-21.0
2023-08-15 12:54:40.988440,-9.0
2023-08-15 12:54:40.996130,-38.0
2023-08-15 12:54:41.003819,-38.0
2023-08-15 12:54:41.011508,-14.0
2023-08-15 12:54:41.019198,-12.0
2023-08-15 12:54:41.026887,-12.0
2023-08-15 12:54:41.034576,-9.0
2023-08-15 12:54:41.042266,-21.0
2023-08-15 12:54:41.049955,-28.0
2023-08-15 12:54:41.057644,-24.0
2023-08-15 12:54:41.065334,-19.0
2023-08-15 12:54:41.073023,-9.0
2023-08-15 12:54:41.080713,-9.0
2023-08-15 12:54:41.088402,-21.0
2023-08-15 12:54:41.096091,-26.0
2023-08-15 12:54:41.103781,-24.0
2023-08-15 12:54:41.111470,-21.0
2023-08-15 12:54:41.119159,-21.0
2023-08-15 12:54:41.126849,-36.0
2023-08-15 12:54:41.134538,-57.0
2023-08-15 12:54:41.142227,-74.0
2023-08-15 12:54:41.149917,-84.0
2023-08-15 12:54:41.157606,-94.0
2023-08-15 12:54:41.165295,-113.0
2023-08-15 12:54:41.172985,-113.0
2023-08-15 12:54:41.180674,-86.0
2023-08-15 12:54:41.188364,-74.0
2023-08-15 12:54:41.196053,-65.0
2023-08-15 12:54:41.203742,-41.0
