time,ECG
2023-08-12 12:06:09.125257,-136.0
2023-08-12 12:06:09.132947,-141.0
2023-08-12 12:06:09.140637,-146.0
2023-08-12 12:06:09.148326,-146.0
2023-08-12 12:06:09.156016,-139.0
2023-08-12 12:06:09.163706,-134.0
2023-08-12 12:06:09.171396,-131.0
2023-08-12 12:06:09.179086,-129.0
2023-08-12 12:06:09.186775,-122.0
2023-08-12 12:06:09.194465,-117.0
2023-08-12 12:06:09.202155,-112.0
2023-08-12 12:06:09.209845,-112.0
2023-08-12 12:06:09.217535,-110.0
2023-08-12 12:06:09.225224,-105.0
2023-08-12 12:06:09.232914,-95.0
2023-08-12 12:06:09.240604,-86.0
2023-08-12 12:06:09.248294,-88.0
2023-08-12 12:06:09.255984,-93.0
2023-08-12 12:06:09.263673,-86.0
2023-08-12 12:06:09.271363,-76.0
2023-08-12 12:06:09.279053,-76.0
2023-08-12 12:06:09.286743,-81.0
2023-08-12 12:06:09.294433,-81.0
2023-08-12 12:06:09.302122,-81.0
2023-08-12 12:06:09.309812,-79.0
2023-08-12 12:06:09.317502,-74.0
2023-08-12 12:06:09.325192,-74.0
2023-08-12 12:06:09.332882,-79.0
2023-08-12 12:06:09.340571,-81.0
2023-08-12 12:06:09.348261,-79.0
2023-08-12 12:06:09.355951,-71.0
2023-08-12 12:06:09.363641,-74.0
2023-08-12 12:06:09.371331,-76.0
2023-08-12 12:06:09.379020,-71.0
2023-08-12 12:06:09.386710,-67.0
2023-08-12 12:06:09.394400,-71.0
2023-08-12 12:06:09.402090,-76.0
2023-08-12 12:06:09.409780,-74.0
2023-08-12 12:06:09.417469,-71.0
2023-08-12 12:06:09.425159,-69.0
2023-08-12 12:06:09.432849,-62.0
2023-08-12 12:06:09.440539,-45.0
2023-08-12 12:06:09.448229,-33.0
2023-08-12 12:06:09.455918,-14.0
2023-08-12 12:06:09.463608,-2.0
2023-08-12 12:06:09.471298,-23.0
2023-08-12 12:06:09.478988,-55.0
2023-08-12 12:06:09.486678,-67.0
2023-08-12 12:06:09.494367,-71.0
2023-08-12 12:06:09.502057,-93.0
2023-08-12 12:06:09.509747,-107.0
2023-08-12 12:06:09.517437,-105.0
2023-08-12 12:06:09.525127,-100.0
2023-08-12 12:06:09.532816,-100.0
2023-08-12 12:06:09.540506,-100.0
2023-08-12 12:06:09.548196,-95.0
2023-08-12 12:06:09.555886,-93.0
2023-08-12 12:06:09.563576,-95.0
2023-08-12 12:06:09.571265,-112.0
2023-08-12 12:06:09.578955,-98.0
2023-08-12 12:06:09.586645,110.0
2023-08-12 12:06:09.594335,517.0
2023-08-12 12:06:09.602025,778.0
2023-08-12 12:06:09.609714,522.0
2023-08-12 12:06:09.617404,-88.0
2023-08-12 12:06:09.625094,-342.0
2023-08-12 12:06:09.632784,-129.0
2023-08-12 12:06:09.640474,-69.0
2023-08-12 12:06:09.648163,-186.0
2023-08-12 12:06:09.655853,-160.0
2023-08-12 12:06:09.663543,-110.0
2023-08-12 12:06:09.671233,-134.0
2023-08-12 12:06:09.678923,-129.0
2023-08-12 12:06:09.686612,-105.0
2023-08-12 12:06:09.694302,-103.0
2023-08-12 12:06:09.701992,-98.0
2023-08-12 12:06:09.709682,-81.0
2023-08-12 12:06:09.717372,-74.0
2023-08-12 12:06:09.725061,-69.0
2023-08-12 12:06:09.732751,-59.0
2023-08-12 12:06:09.740441,-50.0
2023-08-12 12:06:09.748131,-38.0
2023-08-12 12:06:09.755821,-26.0
2023-08-12 12:06:09.763510,-14.0
2023-08-12 12:06:09.771200,-2.0
2023-08-12 12:06:09.778890,11.0
2023-08-12 12:06:09.786580,26.0
2023-08-12 12:06:09.794270,43.0
2023-08-12 12:06:09.801959,55.0
2023-08-12 12:06:09.809649,64.0
2023-08-12 12:06:09.817339,69.0
2023-08-12 12:06:09.825029,74.0
2023-08-12 12:06:09.832719,71.0
2023-08-12 12:06:09.840408,52.0
2023-08-12 12:06:09.848098,21.0
2023-08-12 12:06:09.855788,-19.0
2023-08-12 12:06:09.863478,-62.0
2023-08-12 12:06:09.871168,-100.0
2023-08-12 12:06:09.878857,-129.0
2023-08-12 12:06:09.886547,-146.0
2023-08-12 12:06:09.894237,-148.0
2023-08-12 12:06:09.901927,-153.0
2023-08-12 12:06:09.909617,-155.0
2023-08-12 12:06:09.917306,-153.0
2023-08-12 12:06:09.924996,-150.0
2023-08-12 12:06:09.932686,-153.0
2023-08-12 12:06:09.940376,-150.0
2023-08-12 12:06:09.948066,-143.0
2023-08-12 12:06:09.955755,-136.0
2023-08-12 12:06:09.963445,-134.0
2023-08-12 12:06:09.971135,-139.0
2023-08-12 12:06:09.978825,-136.0
2023-08-12 12:06:09.986515,-129.0
2023-08-12 12:06:09.994204,-124.0
2023-08-12 12:06:10.001894,-119.0
2023-08-12 12:06:10.009584,-110.0
2023-08-12 12:06:10.017274,-107.0
2023-08-12 12:06:10.024964,-107.0
2023-08-12 12:06:10.032653,-98.0
2023-08-12 12:06:10.040343,-93.0
2023-08-12 12:06:10.048033,-98.0
2023-08-12 12:06:10.055723,-95.0
2023-08-12 12:06:10.063413,-93.0
2023-08-12 12:06:10.071102,-93.0
2023-08-12 12:06:10.078792,-93.0
2023-08-12 12:06:10.086482,-91.0
2023-08-12 12:06:10.094172,-91.0
2023-08-12 12:06:10.101862,-93.0
2023-08-12 12:06:10.109551,-93.0
2023-08-12 12:06:10.117241,-91.0
2023-08-12 12:06:10.124931,-86.0
2023-08-12 12:06:10.132621,-86.0
2023-08-12 12:06:10.140311,-81.0
2023-08-12 12:06:10.148000,-81.0
2023-08-12 12:06:10.155690,-88.0
2023-08-12 12:06:10.163380,-86.0
2023-08-12 12:06:10.171070,-81.0
2023-08-12 12:06:10.178760,-81.0
2023-08-12 12:06:10.186449,-79.0
2023-08-12 12:06:10.194139,-76.0
2023-08-12 12:06:10.201829,-74.0
2023-08-12 12:06:10.209519,-67.0
2023-08-12 12:06:10.217209,-55.0
2023-08-12 12:06:10.224898,-45.0
2023-08-12 12:06:10.232588,-33.0
2023-08-12 12:06:10.240278,-11.0
2023-08-12 12:06:10.247968,-2.0
2023-08-12 12:06:10.255658,-21.0
2023-08-12 12:06:10.263347,-47.0
2023-08-12 12:06:10.271037,-59.0
2023-08-12 12:06:10.278727,-62.0
2023-08-12 12:06:10.286417,-76.0
2023-08-12 12:06:10.294107,-95.0
2023-08-12 12:06:10.301796,-95.0
2023-08-12 12:06:10.309486,-91.0
2023-08-12 12:06:10.317176,-91.0
2023-08-12 12:06:10.324866,-93.0
2023-08-12 12:06:10.332556,-98.0
2023-08-12 12:06:10.340245,-105.0
2023-08-12 12:06:10.347935,-105.0
2023-08-12 12:06:10.355625,-117.0
2023-08-12 12:06:10.363315,-103.0
2023-08-12 12:06:10.371005,100.0
2023-08-12 12:06:10.378694,493.0
2023-08-12 12:06:10.386384,762.0
2023-08-12 12:06:10.394074,520.0
2023-08-12 12:06:10.401764,-83.0
2023-08-12 12:06:10.409454,-309.0
2023-08-12 12:06:10.417143,-112.0
2023-08-12 12:06:10.424833,-103.0
2023-08-12 12:06:10.432523,-208.0
2023-08-12 12:06:10.440213,-170.0
2023-08-12 12:06:10.447903,-129.0
2023-08-12 12:06:10.455592,-146.0
2023-08-12 12:06:10.463282,-139.0
2023-08-12 12:06:10.470972,-119.0
2023-08-12 12:06:10.478662,-119.0
2023-08-12 12:06:10.486352,-112.0
2023-08-12 12:06:10.494041,-98.0
2023-08-12 12:06:10.501731,-91.0
2023-08-12 12:06:10.509421,-83.0
2023-08-12 12:06:10.517111,-71.0
2023-08-12 12:06:10.524801,-64.0
2023-08-12 12:06:10.532490,-55.0
2023-08-12 12:06:10.540180,-45.0
2023-08-12 12:06:10.547870,-38.0
2023-08-12 12:06:10.555560,-33.0
2023-08-12 12:06:10.563250,-23.0
2023-08-12 12:06:10.570939,-2.0
2023-08-12 12:06:10.578629,14.0
2023-08-12 12:06:10.586319,23.0
2023-08-12 12:06:10.594009,33.0
2023-08-12 12:06:10.601699,40.0
2023-08-12 12:06:10.609388,40.0
2023-08-12 12:06:10.617078,45.0
2023-08-12 12:06:10.624768,45.0
2023-08-12 12:06:10.632458,19.0
2023-08-12 12:06:10.640148,-26.0
2023-08-12 12:06:10.647837,-71.0
2023-08-12 12:06:10.655527,-105.0
2023-08-12 12:06:10.663217,-127.0
2023-08-12 12:06:10.670907,-139.0
2023-08-12 12:06:10.678597,-148.0
2023-08-12 12:06:10.686286,-153.0
2023-08-12 12:06:10.693976,-153.0
2023-08-12 12:06:10.701666,-150.0
2023-08-12 12:06:10.709356,-141.0
2023-08-12 12:06:10.717046,-136.0
2023-08-12 12:06:10.724735,-129.0
2023-08-12 12:06:10.732425,-124.0
2023-08-12 12:06:10.740115,-122.0
2023-08-12 12:06:10.747805,-117.0
2023-08-12 12:06:10.755495,-110.0
2023-08-12 12:06:10.763184,-107.0
2023-08-12 12:06:10.770874,-107.0
2023-08-12 12:06:10.778564,-100.0
2023-08-12 12:06:10.786254,-100.0
2023-08-12 12:06:10.793944,-103.0
2023-08-12 12:06:10.801633,-98.0
2023-08-12 12:06:10.809323,-91.0
2023-08-12 12:06:10.817013,-91.0
2023-08-12 12:06:10.824703,-91.0
2023-08-12 12:06:10.832393,-86.0
2023-08-12 12:06:10.840082,-81.0
2023-08-12 12:06:10.847772,-79.0
2023-08-12 12:06:10.855462,-81.0
2023-08-12 12:06:10.863152,-83.0
2023-08-12 12:06:10.870842,-83.0
2023-08-12 12:06:10.878531,-79.0
2023-08-12 12:06:10.886221,-76.0
2023-08-12 12:06:10.893911,-83.0
2023-08-12 12:06:10.901601,-83.0
2023-08-12 12:06:10.909291,-79.0
2023-08-12 12:06:10.916980,-79.0
2023-08-12 12:06:10.924670,-74.0
2023-08-12 12:06:10.932360,-71.0
2023-08-12 12:06:10.940050,-74.0
2023-08-12 12:06:10.947740,-81.0
2023-08-12 12:06:10.955429,-81.0
2023-08-12 12:06:10.963119,-76.0
2023-08-12 12:06:10.970809,-76.0
2023-08-12 12:06:10.978499,-71.0
2023-08-12 12:06:10.986189,-59.0
2023-08-12 12:06:10.993878,-50.0
2023-08-12 12:06:11.001568,-45.0
2023-08-12 12:06:11.009258,-35.0
2023-08-12 12:06:11.016948,-14.0
2023-08-12 12:06:11.024638,0.0
2023-08-12 12:06:11.032327,-11.0
2023-08-12 12:06:11.040017,-35.0
2023-08-12 12:06:11.047707,-47.0
2023-08-12 12:06:11.055397,-59.0
2023-08-12 12:06:11.063087,-69.0
2023-08-12 12:06:11.070776,-83.0
2023-08-12 12:06:11.078466,-91.0
2023-08-12 12:06:11.086156,-91.0
2023-08-12 12:06:11.093846,-93.0
2023-08-12 12:06:11.101536,-100.0
2023-08-12 12:06:11.109225,-95.0
2023-08-12 12:06:11.116915,-91.0
2023-08-12 12:06:11.124605,-98.0
2023-08-12 12:06:11.132295,-112.0
2023-08-12 12:06:11.139985,-107.0
2023-08-12 12:06:11.147674,43.0
2023-08-12 12:06:11.155364,388.0
2023-08-12 12:06:11.163054,683.0
2023-08-12 12:06:11.170744,551.0
2023-08-12 12:06:11.178434,4.0
2023-08-12 12:06:11.186123,-306.0
2023-08-12 12:06:11.193813,-153.0
2023-08-12 12:06:11.201503,-79.0
2023-08-12 12:06:11.209193,-177.0
2023-08-12 12:06:11.216882,-155.0
2023-08-12 12:06:11.224572,-105.0
2023-08-12 12:06:11.232262,-131.0
2023-08-12 12:06:11.239952,-134.0
2023-08-12 12:06:11.247642,-103.0
2023-08-12 12:06:11.255331,-98.0
2023-08-12 12:06:11.263021,-98.0
2023-08-12 12:06:11.270711,-81.0
2023-08-12 12:06:11.278401,-74.0
2023-08-12 12:06:11.286091,-74.0
2023-08-12 12:06:11.293780,-62.0
2023-08-12 12:06:11.301470,-55.0
2023-08-12 12:06:11.309160,-55.0
2023-08-12 12:06:11.316850,-45.0
2023-08-12 12:06:11.324540,-28.0
2023-08-12 12:06:11.332229,-16.0
2023-08-12 12:06:11.339919,-2.0
2023-08-12 12:06:11.347609,16.0
2023-08-12 12:06:11.355299,26.0
2023-08-12 12:06:11.362989,33.0
2023-08-12 12:06:11.370678,43.0
2023-08-12 12:06:11.378368,55.0
2023-08-12 12:06:11.386058,57.0
2023-08-12 12:06:11.393748,57.0
2023-08-12 12:06:11.401438,50.0
2023-08-12 12:06:11.409127,26.0
2023-08-12 12:06:11.416817,-4.0
2023-08-12 12:06:11.424507,-40.0
2023-08-12 12:06:11.432197,-74.0
2023-08-12 12:06:11.439887,-103.0
2023-08-12 12:06:11.447576,-122.0
2023-08-12 12:06:11.455266,-139.0
2023-08-12 12:06:11.462956,-143.0
2023-08-12 12:06:11.470646,-139.0
2023-08-12 12:06:11.478336,-134.0
2023-08-12 12:06:11.486025,-134.0
2023-08-12 12:06:11.493715,-129.0
2023-08-12 12:06:11.501405,-122.0
2023-08-12 12:06:11.509095,-115.0
2023-08-12 12:06:11.516785,-107.0
2023-08-12 12:06:11.524474,-103.0
2023-08-12 12:06:11.532164,-100.0
2023-08-12 12:06:11.539854,-100.0
2023-08-12 12:06:11.547544,-98.0
2023-08-12 12:06:11.555234,-98.0
2023-08-12 12:06:11.562923,-93.0
2023-08-12 12:06:11.570613,-86.0
2023-08-12 12:06:11.578303,-86.0
2023-08-12 12:06:11.585993,-83.0
2023-08-12 12:06:11.593683,-81.0
2023-08-12 12:06:11.601372,-76.0
2023-08-12 12:06:11.609062,-74.0
2023-08-12 12:06:11.616752,-71.0
2023-08-12 12:06:11.624442,-76.0
2023-08-12 12:06:11.632132,-83.0
2023-08-12 12:06:11.639821,-81.0
2023-08-12 12:06:11.647511,-79.0
2023-08-12 12:06:11.655201,-76.0
2023-08-12 12:06:11.662891,-74.0
2023-08-12 12:06:11.670581,-71.0
2023-08-12 12:06:11.678270,-79.0
2023-08-12 12:06:11.685960,-83.0
2023-08-12 12:06:11.693650,-79.0
2023-08-12 12:06:11.701340,-76.0
2023-08-12 12:06:11.709030,-79.0
2023-08-12 12:06:11.716719,-76.0
2023-08-12 12:06:11.724409,-74.0
2023-08-12 12:06:11.732099,-67.0
2023-08-12 12:06:11.739789,-52.0
2023-08-12 12:06:11.747479,-43.0
2023-08-12 12:06:11.755168,-40.0
2023-08-12 12:06:11.762858,-28.0
2023-08-12 12:06:11.770548,-9.0
2023-08-12 12:06:11.778238,2.0
2023-08-12 12:06:11.785928,-9.0
2023-08-12 12:06:11.793617,-31.0
2023-08-12 12:06:11.801307,-47.0
2023-08-12 12:06:11.808997,-62.0
2023-08-12 12:06:11.816687,-79.0
2023-08-12 12:06:11.824377,-88.0
2023-08-12 12:06:11.832066,-83.0
2023-08-12 12:06:11.839756,-76.0
2023-08-12 12:06:11.847446,-76.0
2023-08-12 12:06:11.855136,-83.0
2023-08-12 12:06:11.862826,-88.0
2023-08-12 12:06:11.870515,-81.0
2023-08-12 12:06:11.878205,-81.0
2023-08-12 12:06:11.885895,-103.0
2023-08-12 12:06:11.893585,-83.0
2023-08-12 12:06:11.901275,129.0
2023-08-12 12:06:11.908964,510.0
2023-08-12 12:06:11.916654,733.0
2023-08-12 12:06:11.924344,469.0
2023-08-12 12:06:11.932034,-98.0
2023-08-12 12:06:11.939724,-299.0
2023-08-12 12:06:11.947413,-103.0
2023-08-12 12:06:11.955103,-81.0
2023-08-12 12:06:11.962793,-184.0
2023-08-12 12:06:11.970483,-139.0
2023-08-12 12:06:11.978173,-93.0
2023-08-12 12:06:11.985862,-122.0
2023-08-12 12:06:11.993552,-117.0
2023-08-12 12:06:12.001242,-93.0
2023-08-12 12:06:12.008932,-91.0
2023-08-12 12:06:12.016622,-86.0
2023-08-12 12:06:12.024311,-71.0
2023-08-12 12:06:12.032001,-64.0
2023-08-12 12:06:12.039691,-59.0
2023-08-12 12:06:12.047381,-57.0
2023-08-12 12:06:12.055071,-50.0
2023-08-12 12:06:12.062760,-40.0
2023-08-12 12:06:12.070450,-21.0
2023-08-12 12:06:12.078140,-9.0
2023-08-12 12:06:12.085830,-4.0
2023-08-12 12:06:12.093520,7.0
2023-08-12 12:06:12.101209,23.0
2023-08-12 12:06:12.108899,38.0
2023-08-12 12:06:12.116589,45.0
2023-08-12 12:06:12.124279,55.0
2023-08-12 12:06:12.131969,64.0
2023-08-12 12:06:12.139658,67.0
2023-08-12 12:06:12.147348,64.0
2023-08-12 12:06:12.155038,52.0
2023-08-12 12:06:12.162728,28.0
2023-08-12 12:06:12.170418,-11.0
2023-08-12 12:06:12.178107,-52.0
2023-08-12 12:06:12.185797,-88.0
2023-08-12 12:06:12.193487,-110.0
2023-08-12 12:06:12.201177,-124.0
2023-08-12 12:06:12.208867,-131.0
2023-08-12 12:06:12.216556,-139.0
2023-08-12 12:06:12.224246,-139.0
2023-08-12 12:06:12.231936,-129.0
2023-08-12 12:06:12.239626,-122.0
2023-08-12 12:06:12.247316,-124.0
2023-08-12 12:06:12.255005,-119.0
2023-08-12 12:06:12.262695,-119.0
2023-08-12 12:06:12.270385,-124.0
2023-08-12 12:06:12.278075,-119.0
2023-08-12 12:06:12.285765,-112.0
2023-08-12 12:06:12.293454,-110.0
2023-08-12 12:06:12.301144,-105.0
2023-08-12 12:06:12.308834,-103.0
2023-08-12 12:06:12.316524,-100.0
2023-08-12 12:06:12.324214,-95.0
2023-08-12 12:06:12.331903,-93.0
2023-08-12 12:06:12.339593,-91.0
2023-08-12 12:06:12.347283,-83.0
2023-08-12 12:06:12.354973,-83.0
2023-08-12 12:06:12.362663,-86.0
2023-08-12 12:06:12.370352,-88.0
2023-08-12 12:06:12.378042,-91.0
2023-08-12 12:06:12.385732,-88.0
2023-08-12 12:06:12.393422,-86.0
2023-08-12 12:06:12.401112,-86.0
2023-08-12 12:06:12.408801,-86.0
2023-08-12 12:06:12.416491,-83.0
2023-08-12 12:06:12.424181,-81.0
2023-08-12 12:06:12.431871,-81.0
2023-08-12 12:06:12.439561,-79.0
2023-08-12 12:06:12.447250,-74.0
2023-08-12 12:06:12.454940,-76.0
2023-08-12 12:06:12.462630,-81.0
2023-08-12 12:06:12.470320,-67.0
2023-08-12 12:06:12.478010,-47.0
2023-08-12 12:06:12.485699,-40.0
2023-08-12 12:06:12.493389,-31.0
2023-08-12 12:06:12.501079,-4.0
2023-08-12 12:06:12.508769,-4.0
2023-08-12 12:06:12.516459,-38.0
2023-08-12 12:06:12.524148,-55.0
2023-08-12 12:06:12.531838,-59.0
2023-08-12 12:06:12.539528,-74.0
2023-08-12 12:06:12.547218,-91.0
2023-08-12 12:06:12.554908,-95.0
2023-08-12 12:06:12.562597,-91.0
2023-08-12 12:06:12.570287,-91.0
2023-08-12 12:06:12.577977,-91.0
2023-08-12 12:06:12.585667,-88.0
2023-08-12 12:06:12.593357,-86.0
2023-08-12 12:06:12.601046,-83.0
2023-08-12 12:06:12.608736,-98.0
2023-08-12 12:06:12.616426,-107.0
2023-08-12 12:06:12.624116,19.0
2023-08-12 12:06:12.631806,381.0
2023-08-12 12:06:12.639495,723.0
2023-08-12 12:06:12.647185,637.0
2023-08-12 12:06:12.654875,86.0
2023-08-12 12:06:12.662565,-313.0
2023-08-12 12:06:12.670255,-189.0
2023-08-12 12:06:12.677944,-52.0
2023-08-12 12:06:12.685634,-153.0
2023-08-12 12:06:12.693324,-167.0
2023-08-12 12:06:12.701014,-103.0
2023-08-12 12:06:12.708704,-117.0
2023-08-12 12:06:12.716393,-129.0
2023-08-12 12:06:12.724083,-100.0
2023-08-12 12:06:12.731773,-93.0
2023-08-12 12:06:12.739463,-95.0
2023-08-12 12:06:12.747153,-81.0
2023-08-12 12:06:12.754842,-71.0
2023-08-12 12:06:12.762532,-62.0
2023-08-12 12:06:12.770222,-52.0
2023-08-12 12:06:12.777912,-45.0
2023-08-12 12:06:12.785602,-35.0
2023-08-12 12:06:12.793291,-23.0
2023-08-12 12:06:12.800981,-16.0
2023-08-12 12:06:12.808671,-11.0
2023-08-12 12:06:12.816361,-2.0
2023-08-12 12:06:12.824051,14.0
2023-08-12 12:06:12.831740,28.0
2023-08-12 12:06:12.839430,38.0
2023-08-12 12:06:12.847120,47.0
2023-08-12 12:06:12.854810,52.0
2023-08-12 12:06:12.862500,50.0
2023-08-12 12:06:12.870189,52.0
2023-08-12 12:06:12.877879,50.0
2023-08-12 12:06:12.885569,28.0
2023-08-12 12:06:12.893259,-7.0
2023-08-12 12:06:12.900949,-43.0
2023-08-12 12:06:12.908638,-79.0
2023-08-12 12:06:12.916328,-110.0
2023-08-12 12:06:12.924018,-131.0
2023-08-12 12:06:12.931708,-139.0
2023-08-12 12:06:12.939398,-139.0
2023-08-12 12:06:12.947087,-141.0
2023-08-12 12:06:12.954777,-141.0
2023-08-12 12:06:12.962467,-139.0
2023-08-12 12:06:12.970157,-136.0
2023-08-12 12:06:12.977847,-129.0
2023-08-12 12:06:12.985536,-122.0
2023-08-12 12:06:12.993226,-119.0
2023-08-12 12:06:13.000916,-115.0
2023-08-12 12:06:13.008606,-107.0
2023-08-12 12:06:13.016296,-105.0
2023-08-12 12:06:13.023985,-103.0
2023-08-12 12:06:13.031675,-103.0
2023-08-12 12:06:13.039365,-98.0
2023-08-12 12:06:13.047055,-91.0
2023-08-12 12:06:13.054745,-91.0
2023-08-12 12:06:13.062434,-88.0
2023-08-12 12:06:13.070124,-83.0
2023-08-12 12:06:13.077814,-83.0
2023-08-12 12:06:13.085504,-83.0
2023-08-12 12:06:13.093194,-79.0
2023-08-12 12:06:13.100883,-79.0
2023-08-12 12:06:13.108573,-83.0
2023-08-12 12:06:13.116263,-86.0
2023-08-12 12:06:13.123953,-83.0
2023-08-12 12:06:13.131643,-79.0
2023-08-12 12:06:13.139332,-79.0
2023-08-12 12:06:13.147022,-81.0
2023-08-12 12:06:13.154712,-76.0
2023-08-12 12:06:13.162402,-69.0
2023-08-12 12:06:13.170092,-69.0
2023-08-12 12:06:13.177781,-74.0
2023-08-12 12:06:13.185471,-71.0
2023-08-12 12:06:13.193161,-64.0
2023-08-12 12:06:13.200851,-55.0
2023-08-12 12:06:13.208541,-45.0
2023-08-12 12:06:13.216230,-33.0
2023-08-12 12:06:13.223920,-11.0
2023-08-12 12:06:13.231610,9.0
2023-08-12 12:06:13.239300,-2.0
2023-08-12 12:06:13.246990,-31.0
2023-08-12 12:06:13.254679,-45.0
2023-08-12 12:06:13.262369,-52.0
2023-08-12 12:06:13.270059,-67.0
2023-08-12 12:06:13.277749,-81.0
2023-08-12 12:06:13.285439,-88.0
2023-08-12 12:06:13.293128,-86.0
2023-08-12 12:06:13.300818,-83.0
2023-08-12 12:06:13.308508,-83.0
2023-08-12 12:06:13.316198,-86.0
2023-08-12 12:06:13.323888,-81.0
2023-08-12 12:06:13.331577,-83.0
2023-08-12 12:06:13.339267,-98.0
2023-08-12 12:06:13.346957,-105.0
2023-08-12 12:06:13.354647,33.0
2023-08-12 12:06:13.362337,393.0
2023-08-12 12:06:13.370026,738.0
2023-08-12 12:06:13.377716,647.0
2023-08-12 12:06:13.385406,69.0
2023-08-12 12:06:13.393096,-304.0
2023-08-12 12:06:13.400786,-158.0
2023-08-12 12:06:13.408475,-62.0
2023-08-12 12:06:13.416165,-172.0
2023-08-12 12:06:13.423855,-167.0
2023-08-12 12:06:13.431545,-107.0
2023-08-12 12:06:13.439235,-127.0
2023-08-12 12:06:13.446924,-127.0
2023-08-12 12:06:13.454614,-100.0
2023-08-12 12:06:13.462304,-100.0
2023-08-12 12:06:13.469994,-105.0
2023-08-12 12:06:13.477684,-93.0
2023-08-12 12:06:13.485373,-81.0
2023-08-12 12:06:13.493063,-74.0
2023-08-12 12:06:13.500753,-69.0
2023-08-12 12:06:13.508443,-59.0
2023-08-12 12:06:13.516133,-47.0
2023-08-12 12:06:13.523822,-38.0
2023-08-12 12:06:13.531512,-26.0
2023-08-12 12:06:13.539202,-14.0
2023-08-12 12:06:13.546892,0.0
2023-08-12 12:06:13.554582,14.0
2023-08-12 12:06:13.562271,28.0
2023-08-12 12:06:13.569961,40.0
2023-08-12 12:06:13.577651,50.0
2023-08-12 12:06:13.585341,52.0
2023-08-12 12:06:13.593031,55.0
2023-08-12 12:06:13.600720,52.0
2023-08-12 12:06:13.608410,45.0
2023-08-12 12:06:13.616100,23.0
2023-08-12 12:06:13.623790,-9.0
2023-08-12 12:06:13.631480,-50.0
2023-08-12 12:06:13.639169,-81.0
2023-08-12 12:06:13.646859,-107.0
2023-08-12 12:06:13.654549,-131.0
2023-08-12 12:06:13.662239,-148.0
2023-08-12 12:06:13.669929,-148.0
2023-08-12 12:06:13.677618,-146.0
2023-08-12 12:06:13.685308,-143.0
2023-08-12 12:06:13.692998,-139.0
2023-08-12 12:06:13.700688,-129.0
2023-08-12 12:06:13.708378,-124.0
2023-08-12 12:06:13.716067,-122.0
2023-08-12 12:06:13.723757,-122.0
2023-08-12 12:06:13.731447,-115.0
2023-08-12 12:06:13.739137,-107.0
2023-08-12 12:06:13.746827,-107.0
2023-08-12 12:06:13.754516,-107.0
2023-08-12 12:06:13.762206,-103.0
2023-08-12 12:06:13.769896,-98.0
2023-08-12 12:06:13.777586,-95.0
2023-08-12 12:06:13.785276,-93.0
2023-08-12 12:06:13.792965,-95.0
2023-08-12 12:06:13.800655,-93.0
2023-08-12 12:06:13.808345,-91.0
2023-08-12 12:06:13.816035,-86.0
2023-08-12 12:06:13.823725,-83.0
2023-08-12 12:06:13.831414,-83.0
2023-08-12 12:06:13.839104,-86.0
2023-08-12 12:06:13.846794,-86.0
2023-08-12 12:06:13.854484,-86.0
2023-08-12 12:06:13.862174,-86.0
2023-08-12 12:06:13.869863,-81.0
2023-08-12 12:06:13.877553,-79.0
2023-08-12 12:06:13.885243,-83.0
2023-08-12 12:06:13.892933,-81.0
2023-08-12 12:06:13.900623,-81.0
2023-08-12 12:06:13.908312,-83.0
2023-08-12 12:06:13.916002,-74.0
2023-08-12 12:06:13.923692,-59.0
2023-08-12 12:06:13.931382,-57.0
2023-08-12 12:06:13.939072,-55.0
2023-08-12 12:06:13.946761,-38.0
2023-08-12 12:06:13.954451,-11.0
2023-08-12 12:06:13.962141,-9.0
2023-08-12 12:06:13.969831,-35.0
2023-08-12 12:06:13.977521,-59.0
2023-08-12 12:06:13.985210,-67.0
2023-08-12 12:06:13.992900,-79.0
2023-08-12 12:06:14.000590,-98.0
2023-08-12 12:06:14.008280,-107.0
2023-08-12 12:06:14.015970,-103.0
2023-08-12 12:06:14.023659,-107.0
2023-08-12 12:06:14.031349,-115.0
2023-08-12 12:06:14.039039,-110.0
2023-08-12 12:06:14.046729,-100.0
2023-08-12 12:06:14.054419,-98.0
2023-08-12 12:06:14.062108,-112.0
2023-08-12 12:06:14.069798,-131.0
2023-08-12 12:06:14.077488,-59.0
2023-08-12 12:06:14.085178,234.0
2023-08-12 12:06:14.092868,606.0
2023-08-12 12:06:14.100557,666.0
2023-08-12 12:06:14.108247,227.0
2023-08-12 12:06:14.115937,-254.0
2023-08-12 12:06:14.123627,-232.0
2023-08-12 12:06:14.131317,-62.0
2023-08-12 12:06:14.139006,-136.0
2023-08-12 12:06:14.146696,-186.0
2023-08-12 12:06:14.154386,-119.0
2023-08-12 12:06:14.162076,-117.0
2023-08-12 12:06:14.169766,-136.0
2023-08-12 12:06:14.177455,-107.0
2023-08-12 12:06:14.185145,-95.0
2023-08-12 12:06:14.192835,-100.0
2023-08-12 12:06:14.200525,-86.0
2023-08-12 12:06:14.208215,-74.0
2023-08-12 12:06:14.215904,-69.0
2023-08-12 12:06:14.223594,-62.0
2023-08-12 12:06:14.231284,-50.0
2023-08-12 12:06:14.238974,-45.0
2023-08-12 12:06:14.246664,-35.0
2023-08-12 12:06:14.254353,-21.0
2023-08-12 12:06:14.262043,-4.0
2023-08-12 12:06:14.269733,4.0
2023-08-12 12:06:14.277423,11.0
2023-08-12 12:06:14.285113,28.0
2023-08-12 12:06:14.292802,40.0
2023-08-12 12:06:14.300492,43.0
2023-08-12 12:06:14.308182,45.0
2023-08-12 12:06:14.315872,52.0
2023-08-12 12:06:14.323562,59.0
2023-08-12 12:06:14.331251,59.0
2023-08-12 12:06:14.338941,43.0
2023-08-12 12:06:14.346631,14.0
2023-08-12 12:06:14.354321,-21.0
2023-08-12 12:06:14.362011,-57.0
2023-08-12 12:06:14.369700,-86.0
2023-08-12 12:06:14.377390,-105.0
2023-08-12 12:06:14.385080,-117.0
2023-08-12 12:06:14.392770,-124.0
2023-08-12 12:06:14.400460,-129.0
2023-08-12 12:06:14.408149,-129.0
2023-08-12 12:06:14.415839,-124.0
2023-08-12 12:06:14.423529,-119.0
2023-08-12 12:06:14.431219,-117.0
2023-08-12 12:06:14.438909,-117.0
2023-08-12 12:06:14.446598,-115.0
2023-08-12 12:06:14.454288,-112.0
2023-08-12 12:06:14.461978,-105.0
2023-08-12 12:06:14.469668,-107.0
2023-08-12 12:06:14.477358,-117.0
2023-08-12 12:06:14.485047,-117.0
2023-08-12 12:06:14.492737,-107.0
2023-08-12 12:06:14.500427,-98.0
2023-08-12 12:06:14.508117,-105.0
2023-08-12 12:06:14.515807,-119.0
2023-08-12 12:06:14.523496,-117.0
2023-08-12 12:06:14.531186,-103.0
2023-08-12 12:06:14.538876,-100.0
2023-08-12 12:06:14.546566,-105.0
2023-08-12 12:06:14.554256,-107.0
2023-08-12 12:06:14.561945,-103.0
2023-08-12 12:06:14.569635,-100.0
2023-08-12 12:06:14.577325,-95.0
2023-08-12 12:06:14.585015,-93.0
2023-08-12 12:06:14.592705,-100.0
2023-08-12 12:06:14.600394,-103.0
2023-08-12 12:06:14.608084,-103.0
2023-08-12 12:06:14.615774,-105.0
2023-08-12 12:06:14.623464,-98.0
2023-08-12 12:06:14.631154,-86.0
2023-08-12 12:06:14.638843,-76.0
2023-08-12 12:06:14.646533,-67.0
2023-08-12 12:06:14.654223,-52.0
2023-08-12 12:06:14.661913,-38.0
2023-08-12 12:06:14.669603,-21.0
2023-08-12 12:06:14.677292,-9.0
2023-08-12 12:06:14.684982,-23.0
2023-08-12 12:06:14.692672,-52.0
2023-08-12 12:06:14.700362,-69.0
2023-08-12 12:06:14.708052,-74.0
2023-08-12 12:06:14.715741,-86.0
2023-08-12 12:06:14.723431,-100.0
2023-08-12 12:06:14.731121,-100.0
2023-08-12 12:06:14.738811,-98.0
2023-08-12 12:06:14.746501,-100.0
2023-08-12 12:06:14.754190,-95.0
2023-08-12 12:06:14.761880,-86.0
2023-08-12 12:06:14.769570,-88.0
2023-08-12 12:06:14.777260,-98.0
2023-08-12 12:06:14.784950,-112.0
2023-08-12 12:06:14.792639,-83.0
2023-08-12 12:06:14.800329,124.0
2023-08-12 12:06:14.808019,493.0
2023-08-12 12:06:14.815709,699.0
2023-08-12 12:06:14.823399,424.0
2023-08-12 12:06:14.831088,-124.0
2023-08-12 12:06:14.838778,-294.0
2023-08-12 12:06:14.846468,-95.0
2023-08-12 12:06:14.854158,-76.0
2023-08-12 12:06:14.861848,-170.0
2023-08-12 12:06:14.869537,-134.0
2023-08-12 12:06:14.877227,-95.0
2023-08-12 12:06:14.884917,-115.0
2023-08-12 12:06:14.892607,-107.0
2023-08-12 12:06:14.900297,-88.0
2023-08-12 12:06:14.907986,-86.0
2023-08-12 12:06:14.915676,-83.0
2023-08-12 12:06:14.923366,-69.0
2023-08-12 12:06:14.931056,-62.0
2023-08-12 12:06:14.938746,-57.0
2023-08-12 12:06:14.946435,-43.0
2023-08-12 12:06:14.954125,-33.0
2023-08-12 12:06:14.961815,-26.0
2023-08-12 12:06:14.969505,-14.0
2023-08-12 12:06:14.977195,-4.0
2023-08-12 12:06:14.984884,2.0
2023-08-12 12:06:14.992574,9.0
2023-08-12 12:06:15.000264,26.0
2023-08-12 12:06:15.007954,40.0
2023-08-12 12:06:15.015644,45.0
2023-08-12 12:06:15.023333,50.0
2023-08-12 12:06:15.031023,52.0
2023-08-12 12:06:15.038713,52.0
2023-08-12 12:06:15.046403,52.0
2023-08-12 12:06:15.054093,40.0
2023-08-12 12:06:15.061782,11.0
2023-08-12 12:06:15.069472,-23.0
2023-08-12 12:06:15.077162,-59.0
2023-08-12 12:06:15.084852,-93.0
2023-08-12 12:06:15.092541,-117.0
2023-08-12 12:06:15.100231,-131.0
2023-08-12 12:06:15.107921,-136.0
2023-08-12 12:06:15.115611,-136.0
2023-08-12 12:06:15.123301,-131.0
2023-08-12 12:06:15.130990,-129.0
2023-08-12 12:06:15.138680,-127.0
2023-08-12 12:06:15.146370,-122.0
2023-08-12 12:06:15.154060,-117.0
2023-08-12 12:06:15.161750,-117.0
2023-08-12 12:06:15.169439,-115.0
2023-08-12 12:06:15.177129,-107.0
2023-08-12 12:06:15.184819,-100.0
2023-08-12 12:06:15.192509,-103.0
2023-08-12 12:06:15.200199,-100.0
2023-08-12 12:06:15.207888,-98.0
2023-08-12 12:06:15.215578,-98.0
2023-08-12 12:06:15.223268,-98.0
2023-08-12 12:06:15.230958,-95.0
2023-08-12 12:06:15.238648,-93.0
2023-08-12 12:06:15.246337,-88.0
2023-08-12 12:06:15.254027,-83.0
2023-08-12 12:06:15.261717,-86.0
2023-08-12 12:06:15.269407,-88.0
2023-08-12 12:06:15.277097,-91.0
2023-08-12 12:06:15.284786,-91.0
2023-08-12 12:06:15.292476,-88.0
2023-08-12 12:06:15.300166,-83.0
2023-08-12 12:06:15.307856,-83.0
2023-08-12 12:06:15.315546,-83.0
2023-08-12 12:06:15.323235,-83.0
2023-08-12 12:06:15.330925,-83.0
2023-08-12 12:06:15.338615,-76.0
2023-08-12 12:06:15.346305,-64.0
2023-08-12 12:06:15.353995,-50.0
2023-08-12 12:06:15.361684,-43.0
2023-08-12 12:06:15.369374,-31.0
2023-08-12 12:06:15.377064,-7.0
2023-08-12 12:06:15.384754,-4.0
2023-08-12 12:06:15.392444,-31.0
2023-08-12 12:06:15.400133,-52.0
2023-08-12 12:06:15.407823,-59.0
2023-08-12 12:06:15.415513,-76.0
2023-08-12 12:06:15.423203,-93.0
2023-08-12 12:06:15.430893,-95.0
2023-08-12 12:06:15.438582,-91.0
2023-08-12 12:06:15.446272,-91.0
2023-08-12 12:06:15.453962,-93.0
2023-08-12 12:06:15.461652,-91.0
2023-08-12 12:06:15.469342,-91.0
2023-08-12 12:06:15.477031,-91.0
2023-08-12 12:06:15.484721,-100.0
2023-08-12 12:06:15.492411,-117.0
2023-08-12 12:06:15.500101,-23.0
2023-08-12 12:06:15.507791,301.0
2023-08-12 12:06:15.515480,659.0
2023-08-12 12:06:15.523170,644.0
2023-08-12 12:06:15.530860,146.0
2023-08-12 12:06:15.538550,-301.0
2023-08-12 12:06:15.546240,-225.0
2023-08-12 12:06:15.553929,-55.0
2023-08-12 12:06:15.561619,-139.0
2023-08-12 12:06:15.569309,-177.0
2023-08-12 12:06:15.576999,-112.0
2023-08-12 12:06:15.584689,-112.0
2023-08-12 12:06:15.592378,-129.0
2023-08-12 12:06:15.600068,-105.0
2023-08-12 12:06:15.607758,-91.0
2023-08-12 12:06:15.615448,-93.0
2023-08-12 12:06:15.623138,-86.0
2023-08-12 12:06:15.630827,-76.0
2023-08-12 12:06:15.638517,-76.0
2023-08-12 12:06:15.646207,-69.0
2023-08-12 12:06:15.653897,-52.0
2023-08-12 12:06:15.661587,-40.0
2023-08-12 12:06:15.669276,-35.0
2023-08-12 12:06:15.676966,-26.0
2023-08-12 12:06:15.684656,-14.0
2023-08-12 12:06:15.692346,-4.0
2023-08-12 12:06:15.700036,7.0
2023-08-12 12:06:15.707725,28.0
2023-08-12 12:06:15.715415,43.0
2023-08-12 12:06:15.723105,50.0
2023-08-12 12:06:15.730795,50.0
2023-08-12 12:06:15.738485,50.0
2023-08-12 12:06:15.746174,50.0
2023-08-12 12:06:15.753864,47.0
2023-08-12 12:06:15.761554,33.0
2023-08-12 12:06:15.769244,4.0
2023-08-12 12:06:15.776934,-33.0
2023-08-12 12:06:15.784623,-67.0
2023-08-12 12:06:15.792313,-93.0
2023-08-12 12:06:15.800003,-110.0
2023-08-12 12:06:15.807693,-124.0
2023-08-12 12:06:15.815383,-129.0
2023-08-12 12:06:15.823072,-134.0
2023-08-12 12:06:15.830762,-131.0
2023-08-12 12:06:15.838452,-122.0
2023-08-12 12:06:15.846142,-122.0
2023-08-12 12:06:15.853832,-119.0
2023-08-12 12:06:15.861521,-112.0
2023-08-12 12:06:15.869211,-107.0
2023-08-12 12:06:15.876901,-107.0
2023-08-12 12:06:15.884591,-103.0
2023-08-12 12:06:15.892281,-98.0
2023-08-12 12:06:15.899970,-93.0
2023-08-12 12:06:15.907660,-88.0
2023-08-12 12:06:15.915350,-91.0
2023-08-12 12:06:15.923040,-91.0
2023-08-12 12:06:15.930730,-86.0
2023-08-12 12:06:15.938419,-86.0
2023-08-12 12:06:15.946109,-86.0
2023-08-12 12:06:15.953799,-91.0
2023-08-12 12:06:15.961489,-93.0
2023-08-12 12:06:15.969179,-91.0
2023-08-12 12:06:15.976868,-93.0
2023-08-12 12:06:15.984558,-93.0
2023-08-12 12:06:15.992248,-95.0
2023-08-12 12:06:15.999938,-100.0
2023-08-12 12:06:16.007628,-100.0
2023-08-12 12:06:16.015317,-100.0
2023-08-12 12:06:16.023007,-100.0
2023-08-12 12:06:16.030697,-98.0
2023-08-12 12:06:16.038387,-93.0
2023-08-12 12:06:16.046077,-93.0
2023-08-12 12:06:16.053766,-93.0
2023-08-12 12:06:16.061456,-88.0
2023-08-12 12:06:16.069146,-79.0
2023-08-12 12:06:16.076836,-67.0
2023-08-12 12:06:16.084526,-59.0
2023-08-12 12:06:16.092215,-40.0
2023-08-12 12:06:16.099905,-14.0
2023-08-12 12:06:16.107595,-21.0
2023-08-12 12:06:16.115285,-50.0
2023-08-12 12:06:16.122975,-67.0
2023-08-12 12:06:16.130664,-74.0
2023-08-12 12:06:16.138354,-88.0
2023-08-12 12:06:16.146044,-105.0
2023-08-12 12:06:16.153734,-110.0
2023-08-12 12:06:16.161424,-107.0
2023-08-12 12:06:16.169113,-103.0
2023-08-12 12:06:16.176803,-110.0
2023-08-12 12:06:16.184493,-117.0
2023-08-12 12:06:16.192183,-112.0
2023-08-12 12:06:16.199873,-107.0
2023-08-12 12:06:16.207562,-122.0
2023-08-12 12:06:16.215252,-129.0
2023-08-12 12:06:16.222942,14.0
2023-08-12 12:06:16.230632,378.0
2023-08-12 12:06:16.238322,711.0
2023-08-12 12:06:16.246011,603.0
2023-08-12 12:06:16.253701,33.0
2023-08-12 12:06:16.261391,-313.0
2023-08-12 12:06:16.269081,-162.0
2023-08-12 12:06:16.276771,-81.0
2023-08-12 12:06:16.284460,-189.0
2023-08-12 12:06:16.292150,-174.0
2023-08-12 12:06:16.299840,-117.0
2023-08-12 12:06:16.307530,-139.0
2023-08-12 12:06:16.315220,-148.0
2023-08-12 12:06:16.322909,-119.0
2023-08-12 12:06:16.330599,-107.0
2023-08-12 12:06:16.338289,-105.0
2023-08-12 12:06:16.345979,-91.0
2023-08-12 12:06:16.353669,-79.0
2023-08-12 12:06:16.361358,-74.0
2023-08-12 12:06:16.369048,-64.0
2023-08-12 12:06:16.376738,-52.0
2023-08-12 12:06:16.384428,-45.0
2023-08-12 12:06:16.392118,-31.0
2023-08-12 12:06:16.399807,-19.0
2023-08-12 12:06:16.407497,-9.0
2023-08-12 12:06:16.415187,2.0
2023-08-12 12:06:16.422877,14.0
2023-08-12 12:06:16.430567,23.0
2023-08-12 12:06:16.438256,40.0
2023-08-12 12:06:16.445946,50.0
2023-08-12 12:06:16.453636,52.0
2023-08-12 12:06:16.461326,57.0
2023-08-12 12:06:16.469016,59.0
2023-08-12 12:06:16.476705,52.0
2023-08-12 12:06:16.484395,35.0
2023-08-12 12:06:16.492085,0.0
2023-08-12 12:06:16.499775,-45.0
2023-08-12 12:06:16.507465,-76.0
2023-08-12 12:06:16.515154,-98.0
2023-08-12 12:06:16.522844,-117.0
2023-08-12 12:06:16.530534,-129.0
2023-08-12 12:06:16.538224,-129.0
2023-08-12 12:06:16.545914,-127.0
2023-08-12 12:06:16.553603,-129.0
2023-08-12 12:06:16.561293,-127.0
2023-08-12 12:06:16.568983,-117.0
2023-08-12 12:06:16.576673,-110.0
2023-08-12 12:06:16.584363,-110.0
2023-08-12 12:06:16.592052,-107.0
2023-08-12 12:06:16.599742,-98.0
2023-08-12 12:06:16.607432,-93.0
2023-08-12 12:06:16.615122,-98.0
2023-08-12 12:06:16.622812,-98.0
2023-08-12 12:06:16.630501,-91.0
2023-08-12 12:06:16.638191,-91.0
2023-08-12 12:06:16.645881,-91.0
2023-08-12 12:06:16.653571,-91.0
2023-08-12 12:06:16.661261,-93.0
2023-08-12 12:06:16.668950,-88.0
2023-08-12 12:06:16.676640,-83.0
2023-08-12 12:06:16.684330,-81.0
2023-08-12 12:06:16.692020,-79.0
2023-08-12 12:06:16.699710,-79.0
2023-08-12 12:06:16.707399,-83.0
2023-08-12 12:06:16.715089,-83.0
2023-08-12 12:06:16.722779,-88.0
2023-08-12 12:06:16.730469,-93.0
2023-08-12 12:06:16.738159,-93.0
2023-08-12 12:06:16.745848,-93.0
2023-08-12 12:06:16.753538,-93.0
2023-08-12 12:06:16.761228,-93.0
2023-08-12 12:06:16.768918,-91.0
2023-08-12 12:06:16.776608,-86.0
2023-08-12 12:06:16.784297,-76.0
2023-08-12 12:06:16.791987,-64.0
2023-08-12 12:06:16.799677,-62.0
2023-08-12 12:06:16.807367,-57.0
2023-08-12 12:06:16.815057,-35.0
2023-08-12 12:06:16.822746,-7.0
2023-08-12 12:06:16.830436,-14.0
2023-08-12 12:06:16.838126,-47.0
2023-08-12 12:06:16.845816,-67.0
2023-08-12 12:06:16.853506,-69.0
2023-08-12 12:06:16.861195,-81.0
2023-08-12 12:06:16.868885,-103.0
2023-08-12 12:06:16.876575,-112.0
2023-08-12 12:06:16.884265,-103.0
2023-08-12 12:06:16.891955,-98.0
2023-08-12 12:06:16.899644,-103.0
2023-08-12 12:06:16.907334,-103.0
2023-08-12 12:06:16.915024,-98.0
2023-08-12 12:06:16.922714,-98.0
2023-08-12 12:06:16.930404,-112.0
2023-08-12 12:06:16.938093,-124.0
2023-08-12 12:06:16.945783,-9.0
2023-08-12 12:06:16.953473,330.0
2023-08-12 12:06:16.961163,671.0
2023-08-12 12:06:16.968853,611.0
2023-08-12 12:06:16.976542,88.0
2023-08-12 12:06:16.984232,-289.0
2023-08-12 12:06:16.991922,-174.0
2023-08-12 12:06:16.999612,-69.0
2023-08-12 12:06:17.007302,-167.0
2023-08-12 12:06:17.014991,-170.0
2023-08-12 12:06:17.022681,-115.0
2023-08-12 12:06:17.030371,-131.0
2023-08-12 12:06:17.038061,-139.0
2023-08-12 12:06:17.045751,-112.0
2023-08-12 12:06:17.053440,-103.0
2023-08-12 12:06:17.061130,-100.0
2023-08-12 12:06:17.068820,-93.0
2023-08-12 12:06:17.076510,-86.0
2023-08-12 12:06:17.084200,-79.0
2023-08-12 12:06:17.091889,-64.0
2023-08-12 12:06:17.099579,-52.0
2023-08-12 12:06:17.107269,-45.0
2023-08-12 12:06:17.114959,-38.0
2023-08-12 12:06:17.122649,-31.0
2023-08-12 12:06:17.130338,-16.0
2023-08-12 12:06:17.138028,-4.0
2023-08-12 12:06:17.145718,7.0
2023-08-12 12:06:17.153408,23.0
2023-08-12 12:06:17.161098,35.0
2023-08-12 12:06:17.168787,38.0
2023-08-12 12:06:17.176477,40.0
2023-08-12 12:06:17.184167,47.0
2023-08-12 12:06:17.191857,47.0
2023-08-12 12:06:17.199547,40.0
2023-08-12 12:06:17.207236,23.0
2023-08-12 12:06:17.214926,-4.0
2023-08-12 12:06:17.222616,-35.0
2023-08-12 12:06:17.230306,-62.0
2023-08-12 12:06:17.237996,-86.0
2023-08-12 12:06:17.245685,-105.0
2023-08-12 12:06:17.253375,-124.0
2023-08-12 12:06:17.261065,-134.0
2023-08-12 12:06:17.268755,-134.0
2023-08-12 12:06:17.276445,-124.0
2023-08-12 12:06:17.284134,-127.0
2023-08-12 12:06:17.291824,-131.0
2023-08-12 12:06:17.299514,-124.0
2023-08-12 12:06:17.307204,-115.0
2023-08-12 12:06:17.314894,-112.0
2023-08-12 12:06:17.322583,-107.0
2023-08-12 12:06:17.330273,-105.0
2023-08-12 12:06:17.337963,-100.0
2023-08-12 12:06:17.345653,-93.0
2023-08-12 12:06:17.353343,-88.0
2023-08-12 12:06:17.361032,-98.0
2023-08-12 12:06:17.368722,-105.0
2023-08-12 12:06:17.376412,-98.0
2023-08-12 12:06:17.384102,-91.0
2023-08-12 12:06:17.391792,-93.0
2023-08-12 12:06:17.399481,-95.0
2023-08-12 12:06:17.407171,-91.0
2023-08-12 12:06:17.414861,-88.0
2023-08-12 12:06:17.422551,-91.0
2023-08-12 12:06:17.430241,-86.0
2023-08-12 12:06:17.437930,-79.0
2023-08-12 12:06:17.445620,-83.0
2023-08-12 12:06:17.453310,-88.0
2023-08-12 12:06:17.461000,-86.0
2023-08-12 12:06:17.468690,-88.0
2023-08-12 12:06:17.476379,-88.0
2023-08-12 12:06:17.484069,-83.0
2023-08-12 12:06:17.491759,-88.0
2023-08-12 12:06:17.499449,-98.0
2023-08-12 12:06:17.507139,-98.0
2023-08-12 12:06:17.514828,-83.0
2023-08-12 12:06:17.522518,-76.0
2023-08-12 12:06:17.530208,-67.0
2023-08-12 12:06:17.537898,-55.0
2023-08-12 12:06:17.545588,-38.0
2023-08-12 12:06:17.553277,-21.0
2023-08-12 12:06:17.560967,-26.0
2023-08-12 12:06:17.568657,-55.0
2023-08-12 12:06:17.576347,-76.0
2023-08-12 12:06:17.584037,-86.0
2023-08-12 12:06:17.591726,-98.0
2023-08-12 12:06:17.599416,-107.0
2023-08-12 12:06:17.607106,-115.0
2023-08-12 12:06:17.614796,-110.0
2023-08-12 12:06:17.622486,-107.0
2023-08-12 12:06:17.630175,-110.0
2023-08-12 12:06:17.637865,-107.0
2023-08-12 12:06:17.645555,-103.0
2023-08-12 12:06:17.653245,-105.0
2023-08-12 12:06:17.660935,-117.0
2023-08-12 12:06:17.668624,-122.0
2023-08-12 12:06:17.676314,9.0
2023-08-12 12:06:17.684004,337.0
2023-08-12 12:06:17.691694,637.0
2023-08-12 12:06:17.699384,534.0
2023-08-12 12:06:17.707073,19.0
2023-08-12 12:06:17.714763,-301.0
2023-08-12 12:06:17.722453,-160.0
2023-08-12 12:06:17.730143,-64.0
2023-08-12 12:06:17.737833,-160.0
2023-08-12 12:06:17.745522,-153.0
2023-08-12 12:06:17.753212,-100.0
2023-08-12 12:06:17.760902,-122.0
2023-08-12 12:06:17.768592,-129.0
2023-08-12 12:06:17.776282,-103.0
2023-08-12 12:06:17.783971,-95.0
2023-08-12 12:06:17.791661,-98.0
2023-08-12 12:06:17.799351,-83.0
2023-08-12 12:06:17.807041,-69.0
2023-08-12 12:06:17.814731,-64.0
2023-08-12 12:06:17.822420,-59.0
2023-08-12 12:06:17.830110,-52.0
2023-08-12 12:06:17.837800,-43.0
2023-08-12 12:06:17.845490,-38.0
2023-08-12 12:06:17.853180,-35.0
2023-08-12 12:06:17.860869,-23.0
2023-08-12 12:06:17.868559,-7.0
2023-08-12 12:06:17.876249,9.0
2023-08-12 12:06:17.883939,21.0
2023-08-12 12:06:17.891629,28.0
2023-08-12 12:06:17.899318,35.0
2023-08-12 12:06:17.907008,45.0
2023-08-12 12:06:17.914698,47.0
2023-08-12 12:06:17.922388,47.0
2023-08-12 12:06:17.930078,43.0
2023-08-12 12:06:17.937767,26.0
2023-08-12 12:06:17.945457,-2.0
2023-08-12 12:06:17.953147,-35.0
2023-08-12 12:06:17.960837,-62.0
2023-08-12 12:06:17.968527,-83.0
2023-08-12 12:06:17.976216,-105.0
2023-08-12 12:06:17.983906,-117.0
2023-08-12 12:06:17.991596,-117.0
2023-08-12 12:06:17.999286,-122.0
2023-08-12 12:06:18.006976,-124.0
2023-08-12 12:06:18.014665,-117.0
2023-08-12 12:06:18.022355,-107.0
2023-08-12 12:06:18.030045,-105.0
2023-08-12 12:06:18.037735,-105.0
2023-08-12 12:06:18.045425,-100.0
2023-08-12 12:06:18.053114,-93.0
2023-08-12 12:06:18.060804,-93.0
2023-08-12 12:06:18.068494,-91.0
2023-08-12 12:06:18.076184,-86.0
2023-08-12 12:06:18.083874,-86.0
2023-08-12 12:06:18.091563,-88.0
2023-08-12 12:06:18.099253,-83.0
2023-08-12 12:06:18.106943,-74.0
2023-08-12 12:06:18.114633,-74.0
2023-08-12 12:06:18.122323,-83.0
2023-08-12 12:06:18.130012,-83.0
2023-08-12 12:06:18.137702,-81.0
2023-08-12 12:06:18.145392,-76.0
2023-08-12 12:06:18.153082,-74.0
2023-08-12 12:06:18.160772,-74.0
2023-08-12 12:06:18.168461,-71.0
2023-08-12 12:06:18.176151,-79.0
2023-08-12 12:06:18.183841,-83.0
2023-08-12 12:06:18.191531,-76.0
2023-08-12 12:06:18.199221,-71.0
2023-08-12 12:06:18.206910,-74.0
2023-08-12 12:06:18.214600,-76.0
2023-08-12 12:06:18.222290,-76.0
2023-08-12 12:06:18.229980,-76.0
2023-08-12 12:06:18.237670,-71.0
2023-08-12 12:06:18.245359,-59.0
2023-08-12 12:06:18.253049,-50.0
2023-08-12 12:06:18.260739,-43.0
2023-08-12 12:06:18.268429,-23.0
2023-08-12 12:06:18.276119,-2.0
2023-08-12 12:06:18.283808,-2.0
2023-08-12 12:06:18.291498,-31.0
2023-08-12 12:06:18.299188,-57.0
2023-08-12 12:06:18.306878,-64.0
2023-08-12 12:06:18.314568,-74.0
2023-08-12 12:06:18.322257,-95.0
2023-08-12 12:06:18.329947,-103.0
2023-08-12 12:06:18.337637,-95.0
2023-08-12 12:06:18.345327,-91.0
2023-08-12 12:06:18.353017,-95.0
2023-08-12 12:06:18.360706,-95.0
2023-08-12 12:06:18.368396,-91.0
2023-08-12 12:06:18.376086,-93.0
2023-08-12 12:06:18.383776,-103.0
2023-08-12 12:06:18.391466,-112.0
2023-08-12 12:06:18.399155,-40.0
2023-08-12 12:06:18.406845,242.0
2023-08-12 12:06:18.414535,582.0
2023-08-12 12:06:18.422225,596.0
2023-08-12 12:06:18.429915,160.0
2023-08-12 12:06:18.437604,-261.0
2023-08-12 12:06:18.445294,-215.0
2023-08-12 12:06:18.452984,-62.0
2023-08-12 12:06:18.460674,-134.0
2023-08-12 12:06:18.468364,-170.0
2023-08-12 12:06:18.476053,-112.0
2023-08-12 12:06:18.483743,-115.0
2023-08-12 12:06:18.491433,-127.0
2023-08-12 12:06:18.499123,-105.0
2023-08-12 12:06:18.506813,-98.0
2023-08-12 12:06:18.514502,-98.0
2023-08-12 12:06:18.522192,-88.0
2023-08-12 12:06:18.529882,-79.0
2023-08-12 12:06:18.537572,-71.0
2023-08-12 12:06:18.545262,-67.0
2023-08-12 12:06:18.552951,-57.0
2023-08-12 12:06:18.560641,-45.0
2023-08-12 12:06:18.568331,-33.0
2023-08-12 12:06:18.576021,-31.0
2023-08-12 12:06:18.583711,-14.0
2023-08-12 12:06:18.591400,7.0
2023-08-12 12:06:18.599090,16.0
2023-08-12 12:06:18.606780,19.0
2023-08-12 12:06:18.614470,28.0
2023-08-12 12:06:18.622160,40.0
2023-08-12 12:06:18.629849,50.0
2023-08-12 12:06:18.637539,52.0
2023-08-12 12:06:18.645229,47.0
2023-08-12 12:06:18.652919,45.0
2023-08-12 12:06:18.660609,33.0
2023-08-12 12:06:18.668298,7.0
2023-08-12 12:06:18.675988,-26.0
2023-08-12 12:06:18.683678,-57.0
2023-08-12 12:06:18.691368,-81.0
2023-08-12 12:06:18.699058,-98.0
2023-08-12 12:06:18.706747,-107.0
2023-08-12 12:06:18.714437,-117.0
2023-08-12 12:06:18.722127,-117.0
2023-08-12 12:06:18.729817,-115.0
2023-08-12 12:06:18.737507,-115.0
2023-08-12 12:06:18.745196,-110.0
2023-08-12 12:06:18.752886,-98.0
2023-08-12 12:06:18.760576,-91.0
2023-08-12 12:06:18.768266,-93.0
2023-08-12 12:06:18.775956,-95.0
2023-08-12 12:06:18.783645,-95.0
2023-08-12 12:06:18.791335,-93.0
2023-08-12 12:06:18.799025,-86.0
2023-08-12 12:06:18.806715,-76.0
2023-08-12 12:06:18.814405,-76.0
2023-08-12 12:06:18.822094,-81.0
2023-08-12 12:06:18.829784,-83.0
2023-08-12 12:06:18.837474,-86.0
2023-08-12 12:06:18.845164,-83.0
2023-08-12 12:06:18.852854,-74.0
2023-08-12 12:06:18.860543,-74.0
2023-08-12 12:06:18.868233,-81.0
2023-08-12 12:06:18.875923,-83.0
2023-08-12 12:06:18.883613,-76.0
2023-08-12 12:06:18.891303,-76.0
2023-08-12 12:06:18.898992,-79.0
2023-08-12 12:06:18.906682,-74.0
2023-08-12 12:06:18.914372,-74.0
2023-08-12 12:06:18.922062,-79.0
2023-08-12 12:06:18.929751,-76.0
2023-08-12 12:06:18.937441,-76.0
2023-08-12 12:06:18.945131,-79.0
2023-08-12 12:06:18.952821,-76.0
2023-08-12 12:06:18.960511,-69.0
2023-08-12 12:06:18.968200,-59.0
2023-08-12 12:06:18.975890,-47.0
2023-08-12 12:06:18.983580,-31.0
2023-08-12 12:06:18.991270,-11.0
2023-08-12 12:06:18.998960,-4.0
2023-08-12 12:06:19.006649,-23.0
2023-08-12 12:06:19.014339,-57.0
2023-08-12 12:06:19.022029,-74.0
2023-08-12 12:06:19.029719,-79.0
2023-08-12 12:06:19.037409,-95.0
2023-08-12 12:06:19.045098,-110.0
2023-08-12 12:06:19.052788,-110.0
2023-08-12 12:06:19.060478,-115.0
2023-08-12 12:06:19.068168,-117.0
2023-08-12 12:06:19.075858,-110.0
2023-08-12 12:06:19.083547,-105.0
2023-08-12 12:06:19.091237,-103.0
2023-08-12 12:06:19.098927,-107.0
2023-08-12 12:06:19.106617,-124.0
2023-08-12 12:06:19.114307,-93.0
2023-08-12 12:06:19.121996,131.0
2023-08-12 12:06:19.129686,508.0
2023-08-12 12:06:19.137376,680.0
2023-08-12 12:06:19.145066,352.0
2023-08-12 12:06:19.152756,-191.0
2023-08-12 12:06:19.160445,-311.0
2023-08-12 12:06:19.168135,-98.0
2023-08-12 12:06:19.175825,-93.0
2023-08-12 12:06:19.183515,-177.0
2023-08-12 12:06:19.191205,-129.0
2023-08-12 12:06:19.198894,-105.0
2023-08-12 12:06:19.206584,-131.0
2023-08-12 12:06:19.214274,-112.0
2023-08-12 12:06:19.221964,-86.0
2023-08-12 12:06:19.229654,-93.0
2023-08-12 12:06:19.237343,-91.0
2023-08-12 12:06:19.245033,-74.0
2023-08-12 12:06:19.252723,-62.0
2023-08-12 12:06:19.260413,-55.0
2023-08-12 12:06:19.268103,-55.0
2023-08-12 12:06:19.275792,-47.0
2023-08-12 12:06:19.283482,-33.0
2023-08-12 12:06:19.291172,-21.0
2023-08-12 12:06:19.298862,-9.0
2023-08-12 12:06:19.306552,2.0
2023-08-12 12:06:19.314241,14.0
2023-08-12 12:06:19.321931,23.0
2023-08-12 12:06:19.329621,35.0
2023-08-12 12:06:19.337311,43.0
2023-08-12 12:06:19.345001,45.0
2023-08-12 12:06:19.352690,52.0
2023-08-12 12:06:19.360380,55.0
2023-08-12 12:06:19.368070,50.0
2023-08-12 12:06:19.375760,38.0
2023-08-12 12:06:19.383450,14.0
2023-08-12 12:06:19.391139,-19.0
2023-08-12 12:06:19.398829,-55.0
2023-08-12 12:06:19.406519,-81.0
2023-08-12 12:06:19.414209,-98.0
2023-08-12 12:06:19.421899,-107.0
2023-08-12 12:06:19.429588,-119.0
2023-08-12 12:06:19.437278,-124.0
2023-08-12 12:06:19.444968,-122.0
2023-08-12 12:06:19.452658,-117.0
2023-08-12 12:06:19.460348,-112.0
2023-08-12 12:06:19.468037,-110.0
2023-08-12 12:06:19.475727,-105.0
2023-08-12 12:06:19.483417,-103.0
2023-08-12 12:06:19.491107,-98.0
2023-08-12 12:06:19.498797,-93.0
2023-08-12 12:06:19.506486,-93.0
2023-08-12 12:06:19.514176,-95.0
2023-08-12 12:06:19.521866,-98.0
2023-08-12 12:06:19.529556,-91.0
2023-08-12 12:06:19.537246,-91.0
2023-08-12 12:06:19.544935,-93.0
2023-08-12 12:06:19.552625,-98.0
2023-08-12 12:06:19.560315,-100.0
2023-08-12 12:06:19.568005,-100.0
2023-08-12 12:06:19.575695,-95.0
2023-08-12 12:06:19.583384,-93.0
2023-08-12 12:06:19.591074,-93.0
2023-08-12 12:06:19.598764,-93.0
2023-08-12 12:06:19.606454,-93.0
2023-08-12 12:06:19.614144,-93.0
2023-08-12 12:06:19.621833,-91.0
2023-08-12 12:06:19.629523,-91.0
2023-08-12 12:06:19.637213,-93.0
2023-08-12 12:06:19.644903,-93.0
2023-08-12 12:06:19.652593,-91.0
2023-08-12 12:06:19.660282,-88.0
2023-08-12 12:06:19.667972,-88.0
2023-08-12 12:06:19.675662,-81.0
2023-08-12 12:06:19.683352,-74.0
2023-08-12 12:06:19.691042,-62.0
2023-08-12 12:06:19.698731,-50.0
2023-08-12 12:06:19.706421,-31.0
2023-08-12 12:06:19.714111,-14.0
2023-08-12 12:06:19.721801,-28.0
2023-08-12 12:06:19.729491,-57.0
2023-08-12 12:06:19.737180,-69.0
2023-08-12 12:06:19.744870,-76.0
2023-08-12 12:06:19.752560,-98.0
2023-08-12 12:06:19.760250,-122.0
2023-08-12 12:06:19.767940,-119.0
2023-08-12 12:06:19.775629,-110.0
2023-08-12 12:06:19.783319,-112.0
2023-08-12 12:06:19.791009,-117.0
2023-08-12 12:06:19.798699,-110.0
2023-08-12 12:06:19.806389,-107.0
2023-08-12 12:06:19.814078,-112.0
2023-08-12 12:06:19.821768,-131.0
2023-08-12 12:06:19.829458,-110.0
2023-08-12 12:06:19.837148,112.0
2023-08-12 12:06:19.844838,508.0
2023-08-12 12:06:19.852527,735.0
2023-08-12 12:06:19.860217,450.0
2023-08-12 12:06:19.867907,-141.0
2023-08-12 12:06:19.875597,-323.0
2023-08-12 12:06:19.883287,-107.0
2023-08-12 12:06:19.890976,-95.0
2023-08-12 12:06:19.898666,-194.0
2023-08-12 12:06:19.906356,-148.0
2023-08-12 12:06:19.914046,-115.0
2023-08-12 12:06:19.921736,-139.0
2023-08-12 12:06:19.929425,-127.0
2023-08-12 12:06:19.937115,-103.0
2023-08-12 12:06:19.944805,-103.0
2023-08-12 12:06:19.952495,-95.0
2023-08-12 12:06:19.960185,-81.0
2023-08-12 12:06:19.967874,-74.0
2023-08-12 12:06:19.975564,-67.0
2023-08-12 12:06:19.983254,-55.0
2023-08-12 12:06:19.990944,-47.0
2023-08-12 12:06:19.998634,-40.0
2023-08-12 12:06:20.006323,-33.0
2023-08-12 12:06:20.014013,-26.0
2023-08-12 12:06:20.021703,-16.0
2023-08-12 12:06:20.029393,-7.0
2023-08-12 12:06:20.037083,7.0
2023-08-12 12:06:20.044772,21.0
2023-08-12 12:06:20.052462,31.0
2023-08-12 12:06:20.060152,35.0
2023-08-12 12:06:20.067842,38.0
2023-08-12 12:06:20.075532,43.0
2023-08-12 12:06:20.083221,43.0
2023-08-12 12:06:20.090911,26.0
2023-08-12 12:06:20.098601,-4.0
2023-08-12 12:06:20.106291,-40.0
2023-08-12 12:06:20.113981,-71.0
2023-08-12 12:06:20.121670,-103.0
2023-08-12 12:06:20.129360,-127.0
2023-08-12 12:06:20.137050,-139.0
2023-08-12 12:06:20.144740,-146.0
2023-08-12 12:06:20.152430,-146.0
2023-08-12 12:06:20.160119,-141.0
2023-08-12 12:06:20.167809,-136.0
2023-08-12 12:06:20.175499,-136.0
2023-08-12 12:06:20.183189,-134.0
2023-08-12 12:06:20.190879,-127.0
2023-08-12 12:06:20.198568,-115.0
2023-08-12 12:06:20.206258,-112.0
2023-08-12 12:06:20.213948,-112.0
2023-08-12 12:06:20.221638,-107.0
2023-08-12 12:06:20.229328,-103.0
2023-08-12 12:06:20.237017,-100.0
2023-08-12 12:06:20.244707,-100.0
2023-08-12 12:06:20.252397,-103.0
2023-08-12 12:06:20.260087,-100.0
2023-08-12 12:06:20.267777,-95.0
2023-08-12 12:06:20.275466,-95.0
2023-08-12 12:06:20.283156,-98.0
2023-08-12 12:06:20.290846,-98.0
2023-08-12 12:06:20.298536,-91.0
2023-08-12 12:06:20.306226,-88.0
2023-08-12 12:06:20.313915,-91.0
2023-08-12 12:06:20.321605,-95.0
2023-08-12 12:06:20.329295,-93.0
2023-08-12 12:06:20.336985,-91.0
2023-08-12 12:06:20.344675,-91.0
2023-08-12 12:06:20.352364,-88.0
2023-08-12 12:06:20.360054,-86.0
2023-08-12 12:06:20.367744,-88.0
2023-08-12 12:06:20.375434,-91.0
2023-08-12 12:06:20.383124,-91.0
2023-08-12 12:06:20.390813,-91.0
2023-08-12 12:06:20.398503,-93.0
2023-08-12 12:06:20.406193,-91.0
2023-08-12 12:06:20.413883,-86.0
2023-08-12 12:06:20.421573,-74.0
2023-08-12 12:06:20.429262,-62.0
2023-08-12 12:06:20.436952,-55.0
2023-08-12 12:06:20.444642,-38.0
2023-08-12 12:06:20.452332,-16.0
2023-08-12 12:06:20.460022,-19.0
2023-08-12 12:06:20.467711,-45.0
2023-08-12 12:06:20.475401,-62.0
2023-08-12 12:06:20.483091,-69.0
2023-08-12 12:06:20.490781,-86.0
2023-08-12 12:06:20.498471,-107.0
2023-08-12 12:06:20.506160,-119.0
2023-08-12 12:06:20.513850,-115.0
2023-08-12 12:06:20.521540,-110.0
2023-08-12 12:06:20.529230,-115.0
2023-08-12 12:06:20.536920,-119.0
2023-08-12 12:06:20.544609,-117.0
2023-08-12 12:06:20.552299,-115.0
2023-08-12 12:06:20.559989,-129.0
2023-08-12 12:06:20.567679,-134.0
2023-08-12 12:06:20.575369,-2.0
2023-08-12 12:06:20.583058,337.0
2023-08-12 12:06:20.590748,659.0
2023-08-12 12:06:20.598438,575.0
2023-08-12 12:06:20.606128,40.0
2023-08-12 12:06:20.613818,-316.0
2023-08-12 12:06:20.621507,-177.0
2023-08-12 12:06:20.629197,-74.0
2023-08-12 12:06:20.636887,-184.0
2023-08-12 12:06:20.644577,-186.0
2023-08-12 12:06:20.652267,-122.0
2023-08-12 12:06:20.659956,-139.0
2023-08-12 12:06:20.667646,-148.0
2023-08-12 12:06:20.675336,-122.0
2023-08-12 12:06:20.683026,-115.0
2023-08-12 12:06:20.690716,-112.0
2023-08-12 12:06:20.698405,-98.0
2023-08-12 12:06:20.706095,-88.0
2023-08-12 12:06:20.713785,-83.0
2023-08-12 12:06:20.721475,-71.0
2023-08-12 12:06:20.729165,-59.0
2023-08-12 12:06:20.736854,-50.0
2023-08-12 12:06:20.744544,-43.0
2023-08-12 12:06:20.752234,-33.0
2023-08-12 12:06:20.759924,-21.0
2023-08-12 12:06:20.767614,-11.0
2023-08-12 12:06:20.775303,0.0
2023-08-12 12:06:20.782993,16.0
2023-08-12 12:06:20.790683,28.0
2023-08-12 12:06:20.798373,38.0
2023-08-12 12:06:20.806063,38.0
2023-08-12 12:06:20.813752,40.0
2023-08-12 12:06:20.821442,45.0
2023-08-12 12:06:20.829132,43.0
2023-08-12 12:06:20.836822,23.0
2023-08-12 12:06:20.844512,-7.0
2023-08-12 12:06:20.852201,-43.0
2023-08-12 12:06:20.859891,-71.0
2023-08-12 12:06:20.867581,-98.0
2023-08-12 12:06:20.875271,-117.0
2023-08-12 12:06:20.882961,-129.0
2023-08-12 12:06:20.890650,-131.0
2023-08-12 12:06:20.898340,-129.0
2023-08-12 12:06:20.906030,-124.0
2023-08-12 12:06:20.913720,-119.0
2023-08-12 12:06:20.921410,-115.0
2023-08-12 12:06:20.929099,-112.0
2023-08-12 12:06:20.936789,-107.0
2023-08-12 12:06:20.944479,-103.0
2023-08-12 12:06:20.952169,-103.0
2023-08-12 12:06:20.959859,-103.0
2023-08-12 12:06:20.967548,-100.0
2023-08-12 12:06:20.975238,-95.0
2023-08-12 12:06:20.982928,-93.0
2023-08-12 12:06:20.990618,-95.0
2023-08-12 12:06:20.998308,-100.0
2023-08-12 12:06:21.005997,-95.0
2023-08-12 12:06:21.013687,-95.0
2023-08-12 12:06:21.021377,-93.0
2023-08-12 12:06:21.029067,-91.0
2023-08-12 12:06:21.036757,-95.0
2023-08-12 12:06:21.044446,-100.0
2023-08-12 12:06:21.052136,-95.0
2023-08-12 12:06:21.059826,-91.0
2023-08-12 12:06:21.067516,-91.0
2023-08-12 12:06:21.075206,-91.0
2023-08-12 12:06:21.082895,-93.0
2023-08-12 12:06:21.090585,-95.0
2023-08-12 12:06:21.098275,-98.0
2023-08-12 12:06:21.105965,-98.0
2023-08-12 12:06:21.113655,-93.0
2023-08-12 12:06:21.121344,-93.0
2023-08-12 12:06:21.129034,-95.0
2023-08-12 12:06:21.136724,-93.0
2023-08-12 12:06:21.144414,-93.0
2023-08-12 12:06:21.152104,-88.0
2023-08-12 12:06:21.159793,-74.0
2023-08-12 12:06:21.167483,-62.0
2023-08-12 12:06:21.175173,-57.0
2023-08-12 12:06:21.182863,-47.0
2023-08-12 12:06:21.190553,-19.0
2023-08-12 12:06:21.198242,-4.0
2023-08-12 12:06:21.205932,-28.0
2023-08-12 12:06:21.213622,-59.0
2023-08-12 12:06:21.221312,-79.0
2023-08-12 12:06:21.229002,-91.0
2023-08-12 12:06:21.236691,-103.0
2023-08-12 12:06:21.244381,-117.0
2023-08-12 12:06:21.252071,-122.0
2023-08-12 12:06:21.259761,-117.0
2023-08-12 12:06:21.267451,-115.0
2023-08-12 12:06:21.275140,-117.0
2023-08-12 12:06:21.282830,-117.0
2023-08-12 12:06:21.290520,-112.0
2023-08-12 12:06:21.298210,-115.0
2023-08-12 12:06:21.305900,-136.0
2023-08-12 12:06:21.313589,-103.0
2023-08-12 12:06:21.321279,129.0
2023-08-12 12:06:21.328969,498.0
2023-08-12 12:06:21.336659,661.0
2023-08-12 12:06:21.344349,340.0
2023-08-12 12:06:21.352038,-189.0
2023-08-12 12:06:21.359728,-285.0
2023-08-12 12:06:21.367418,-83.0
2023-08-12 12:06:21.375108,-105.0
2023-08-12 12:06:21.382798,-189.0
2023-08-12 12:06:21.390487,-139.0
2023-08-12 12:06:21.398177,-112.0
2023-08-12 12:06:21.405867,-136.0
2023-08-12 12:06:21.413557,-119.0
2023-08-12 12:06:21.421247,-98.0
2023-08-12 12:06:21.428936,-103.0
2023-08-12 12:06:21.436626,-98.0
2023-08-12 12:06:21.444316,-83.0
2023-08-12 12:06:21.452006,-74.0
2023-08-12 12:06:21.459696,-67.0
2023-08-12 12:06:21.467385,-62.0
2023-08-12 12:06:21.475075,-55.0
2023-08-12 12:06:21.482765,-43.0
2023-08-12 12:06:21.490455,-33.0
2023-08-12 12:06:21.498145,-23.0
2023-08-12 12:06:21.505834,-14.0
2023-08-12 12:06:21.513524,-2.0
2023-08-12 12:06:21.521214,14.0
2023-08-12 12:06:21.528904,28.0
2023-08-12 12:06:21.536594,31.0
2023-08-12 12:06:21.544283,31.0
2023-08-12 12:06:21.551973,35.0
2023-08-12 12:06:21.559663,40.0
2023-08-12 12:06:21.567353,35.0
2023-08-12 12:06:21.575043,23.0
2023-08-12 12:06:21.582732,0.0
2023-08-12 12:06:21.590422,-33.0
2023-08-12 12:06:21.598112,-64.0
2023-08-12 12:06:21.605802,-88.0
2023-08-12 12:06:21.613492,-107.0
2023-08-12 12:06:21.621181,-122.0
2023-08-12 12:06:21.628871,-129.0
2023-08-12 12:06:21.636561,-129.0
2023-08-12 12:06:21.644251,-122.0
2023-08-12 12:06:21.651941,-117.0
2023-08-12 12:06:21.659630,-117.0
2023-08-12 12:06:21.667320,-119.0
2023-08-12 12:06:21.675010,-117.0
2023-08-12 12:06:21.682700,-112.0
2023-08-12 12:06:21.690390,-105.0
2023-08-12 12:06:21.698079,-103.0
2023-08-12 12:06:21.705769,-103.0
2023-08-12 12:06:21.713459,-103.0
2023-08-12 12:06:21.721149,-103.0
2023-08-12 12:06:21.728839,-100.0
2023-08-12 12:06:21.736528,-95.0
2023-08-12 12:06:21.744218,-93.0
2023-08-12 12:06:21.751908,-93.0
2023-08-12 12:06:21.759598,-88.0
2023-08-12 12:06:21.767288,-86.0
2023-08-12 12:06:21.774977,-91.0
2023-08-12 12:06:21.782667,-91.0
2023-08-12 12:06:21.790357,-83.0
2023-08-12 12:06:21.798047,-86.0
2023-08-12 12:06:21.805737,-88.0
2023-08-12 12:06:21.813426,-86.0
2023-08-12 12:06:21.821116,-88.0
2023-08-12 12:06:21.828806,-95.0
2023-08-12 12:06:21.836496,-93.0
2023-08-12 12:06:21.844186,-88.0
2023-08-12 12:06:21.851875,-98.0
2023-08-12 12:06:21.859565,-100.0
2023-08-12 12:06:21.867255,-91.0
2023-08-12 12:06:21.874945,-91.0
2023-08-12 12:06:21.882635,-98.0
2023-08-12 12:06:21.890324,-95.0
2023-08-12 12:06:21.898014,-95.0
2023-08-12 12:06:21.905704,-91.0
2023-08-12 12:06:21.913394,-74.0
2023-08-12 12:06:21.921084,-59.0
2023-08-12 12:06:21.928773,-52.0
2023-08-12 12:06:21.936463,-28.0
2023-08-12 12:06:21.944153,-11.0
2023-08-12 12:06:21.951843,-28.0
2023-08-12 12:06:21.959533,-55.0
2023-08-12 12:06:21.967222,-69.0
2023-08-12 12:06:21.974912,-79.0
2023-08-12 12:06:21.982602,-95.0
2023-08-12 12:06:21.990292,-110.0
2023-08-12 12:06:21.997982,-112.0
2023-08-12 12:06:22.005671,-105.0
2023-08-12 12:06:22.013361,-105.0
2023-08-12 12:06:22.021051,-107.0
2023-08-12 12:06:22.028741,-103.0
2023-08-12 12:06:22.036431,-103.0
2023-08-12 12:06:22.044120,-115.0
2023-08-12 12:06:22.051810,-131.0
2023-08-12 12:06:22.059500,-117.0
2023-08-12 12:06:22.067190,62.0
2023-08-12 12:06:22.074880,409.0
2023-08-12 12:06:22.082569,642.0
2023-08-12 12:06:22.090259,433.0
2023-08-12 12:06:22.097949,-93.0
2023-08-12 12:06:22.105639,-309.0
2023-08-12 12:06:22.113329,-122.0
2023-08-12 12:06:22.121018,-76.0
2023-08-12 12:06:22.128708,-177.0
2023-08-12 12:06:22.136398,-143.0
2023-08-12 12:06:22.144088,-103.0
2023-08-12 12:06:22.151778,-129.0
2023-08-12 12:06:22.159467,-119.0
2023-08-12 12:06:22.167157,-93.0
2023-08-12 12:06:22.174847,-95.0
2023-08-12 12:06:22.182537,-88.0
2023-08-12 12:06:22.190227,-76.0
2023-08-12 12:06:22.197916,-69.0
2023-08-12 12:06:22.205606,-67.0
2023-08-12 12:06:22.213296,-59.0
2023-08-12 12:06:22.220986,-50.0
2023-08-12 12:06:22.228676,-43.0
2023-08-12 12:06:22.236365,-33.0
2023-08-12 12:06:22.244055,-21.0
2023-08-12 12:06:22.251745,-7.0
2023-08-12 12:06:22.259435,4.0
2023-08-12 12:06:22.267125,16.0
2023-08-12 12:06:22.274814,35.0
2023-08-12 12:06:22.282504,45.0
2023-08-12 12:06:22.290194,45.0
2023-08-12 12:06:22.297884,47.0
2023-08-12 12:06:22.305574,55.0
2023-08-12 12:06:22.313263,55.0
2023-08-12 12:06:22.320953,45.0
2023-08-12 12:06:22.328643,26.0
2023-08-12 12:06:22.336333,-7.0
2023-08-12 12:06:22.344023,-50.0
2023-08-12 12:06:22.351712,-83.0
2023-08-12 12:06:22.359402,-103.0
2023-08-12 12:06:22.367092,-112.0
2023-08-12 12:06:22.374782,-124.0
2023-08-12 12:06:22.382472,-129.0
2023-08-12 12:06:22.390161,-124.0
2023-08-12 12:06:22.397851,-117.0
2023-08-12 12:06:22.405541,-117.0
2023-08-12 12:06:22.413231,-117.0
2023-08-12 12:06:22.420921,-112.0
2023-08-12 12:06:22.428610,-107.0
2023-08-12 12:06:22.436300,-107.0
2023-08-12 12:06:22.443990,-103.0
2023-08-12 12:06:22.451680,-93.0
2023-08-12 12:06:22.459370,-95.0
2023-08-12 12:06:22.467059,-98.0
2023-08-12 12:06:22.474749,-95.0
2023-08-12 12:06:22.482439,-88.0
2023-08-12 12:06:22.490129,-88.0
2023-08-12 12:06:22.497819,-86.0
2023-08-12 12:06:22.505508,-83.0
2023-08-12 12:06:22.513198,-81.0
2023-08-12 12:06:22.520888,-81.0
2023-08-12 12:06:22.528578,-83.0
2023-08-12 12:06:22.536268,-88.0
2023-08-12 12:06:22.543957,-93.0
2023-08-12 12:06:22.551647,-93.0
2023-08-12 12:06:22.559337,-88.0
2023-08-12 12:06:22.567027,-88.0
2023-08-12 12:06:22.574717,-95.0
2023-08-12 12:06:22.582406,-93.0
2023-08-12 12:06:22.590096,-86.0
2023-08-12 12:06:22.597786,-81.0
2023-08-12 12:06:22.605476,-83.0
2023-08-12 12:06:22.613166,-83.0
2023-08-12 12:06:22.620855,-81.0
2023-08-12 12:06:22.628545,-79.0
2023-08-12 12:06:22.636235,-79.0
2023-08-12 12:06:22.643925,-76.0
2023-08-12 12:06:22.651615,-69.0
2023-08-12 12:06:22.659304,-55.0
2023-08-12 12:06:22.666994,-40.0
2023-08-12 12:06:22.674684,-33.0
2023-08-12 12:06:22.682374,-16.0
2023-08-12 12:06:22.690064,7.0
2023-08-12 12:06:22.697753,-2.0
2023-08-12 12:06:22.705443,-35.0
2023-08-12 12:06:22.713133,-55.0
2023-08-12 12:06:22.720823,-57.0
2023-08-12 12:06:22.728513,-71.0
2023-08-12 12:06:22.736202,-91.0
2023-08-12 12:06:22.743892,-95.0
2023-08-12 12:06:22.751582,-91.0
2023-08-12 12:06:22.759272,-86.0
2023-08-12 12:06:22.766961,-86.0
2023-08-12 12:06:22.774651,-88.0
2023-08-12 12:06:22.782341,-83.0
2023-08-12 12:06:22.790031,-81.0
2023-08-12 12:06:22.797721,-95.0
2023-08-12 12:06:22.805410,-93.0
2023-08-12 12:06:22.813100,67.0
2023-08-12 12:06:22.820790,426.0
2023-08-12 12:06:22.828480,695.0
2023-08-12 12:06:22.836170,500.0
2023-08-12 12:06:22.843859,-50.0
2023-08-12 12:06:22.851549,-321.0
2023-08-12 12:06:22.859239,-136.0
2023-08-12 12:06:22.866929,-50.0
2023-08-12 12:06:22.874619,-148.0
2023-08-12 12:06:22.882308,-131.0
2023-08-12 12:06:22.889998,-86.0
2023-08-12 12:06:22.897688,-107.0
2023-08-12 12:06:22.905378,-103.0
2023-08-12 12:06:22.913068,-71.0
2023-08-12 12:06:22.920757,-71.0
2023-08-12 12:06:22.928447,-83.0
2023-08-12 12:06:22.936137,-76.0
2023-08-12 12:06:22.943827,-59.0
2023-08-12 12:06:22.951517,-50.0
2023-08-12 12:06:22.959206,-45.0
2023-08-12 12:06:22.966896,-38.0
2023-08-12 12:06:22.974586,-28.0
2023-08-12 12:06:22.982276,-21.0
2023-08-12 12:06:22.989966,-9.0
2023-08-12 12:06:22.997655,7.0
2023-08-12 12:06:23.005345,19.0
2023-08-12 12:06:23.013035,31.0
2023-08-12 12:06:23.020725,43.0
2023-08-12 12:06:23.028415,50.0
2023-08-12 12:06:23.036104,55.0
2023-08-12 12:06:23.043794,57.0
2023-08-12 12:06:23.051484,57.0
2023-08-12 12:06:23.059174,57.0
2023-08-12 12:06:23.066864,52.0
2023-08-12 12:06:23.074553,23.0
2023-08-12 12:06:23.082243,-9.0
2023-08-12 12:06:23.089933,-38.0
2023-08-12 12:06:23.097623,-67.0
2023-08-12 12:06:23.105313,-93.0
2023-08-12 12:06:23.113002,-110.0
2023-08-12 12:06:23.120692,-117.0
2023-08-12 12:06:23.128382,-119.0
2023-08-12 12:06:23.136072,-122.0
2023-08-12 12:06:23.143762,-119.0
2023-08-12 12:06:23.151451,-115.0
2023-08-12 12:06:23.159141,-115.0
2023-08-12 12:06:23.166831,-110.0
2023-08-12 12:06:23.174521,-103.0
2023-08-12 12:06:23.182211,-98.0
2023-08-12 12:06:23.189900,-95.0
2023-08-12 12:06:23.197590,-91.0
2023-08-12 12:06:23.205280,-91.0
2023-08-12 12:06:23.212970,-93.0
2023-08-12 12:06:23.220660,-86.0
2023-08-12 12:06:23.228349,-81.0
2023-08-12 12:06:23.236039,-83.0
2023-08-12 12:06:23.243729,-81.0
2023-08-12 12:06:23.251419,-79.0
2023-08-12 12:06:23.259109,-79.0
2023-08-12 12:06:23.266798,-79.0
2023-08-12 12:06:23.274488,-81.0
2023-08-12 12:06:23.282178,-86.0
2023-08-12 12:06:23.289868,-86.0
2023-08-12 12:06:23.297558,-86.0
2023-08-12 12:06:23.305247,-86.0
2023-08-12 12:06:23.312937,-86.0
2023-08-12 12:06:23.320627,-88.0
2023-08-12 12:06:23.328317,-91.0
2023-08-12 12:06:23.336007,-88.0
2023-08-12 12:06:23.343696,-86.0
2023-08-12 12:06:23.351386,-86.0
2023-08-12 12:06:23.359076,-81.0
2023-08-12 12:06:23.366766,-76.0
2023-08-12 12:06:23.374456,-67.0
2023-08-12 12:06:23.382145,-55.0
2023-08-12 12:06:23.389835,-45.0
2023-08-12 12:06:23.397525,-33.0
2023-08-12 12:06:23.405215,-14.0
2023-08-12 12:06:23.412905,-4.0
2023-08-12 12:06:23.420594,-23.0
2023-08-12 12:06:23.428284,-47.0
2023-08-12 12:06:23.435974,-59.0
2023-08-12 12:06:23.443664,-67.0
2023-08-12 12:06:23.451354,-88.0
2023-08-12 12:06:23.459043,-107.0
2023-08-12 12:06:23.466733,-110.0
2023-08-12 12:06:23.474423,-107.0
2023-08-12 12:06:23.482113,-110.0
2023-08-12 12:06:23.489803,-105.0
2023-08-12 12:06:23.497492,-100.0
2023-08-12 12:06:23.505182,-105.0
2023-08-12 12:06:23.512872,-112.0
2023-08-12 12:06:23.520562,-124.0
2023-08-12 12:06:23.528252,-83.0
2023-08-12 12:06:23.535941,155.0
2023-08-12 12:06:23.543631,548.0
2023-08-12 12:06:23.551321,726.0
2023-08-12 12:06:23.559011,378.0
2023-08-12 12:06:23.566701,-203.0
2023-08-12 12:06:23.574390,-321.0
2023-08-12 12:06:23.582080,-93.0
2023-08-12 12:06:23.589770,-95.0
2023-08-12 12:06:23.597460,-194.0
2023-08-12 12:06:23.605150,-143.0
2023-08-12 12:06:23.612839,-107.0
2023-08-12 12:06:23.620529,-131.0
2023-08-12 12:06:23.628219,-122.0
2023-08-12 12:06:23.635909,-95.0
2023-08-12 12:06:23.643599,-93.0
2023-08-12 12:06:23.651288,-91.0
2023-08-12 12:06:23.658978,-81.0
2023-08-12 12:06:23.666668,-71.0
2023-08-12 12:06:23.674358,-62.0
2023-08-12 12:06:23.682048,-50.0
2023-08-12 12:06:23.689737,-43.0
2023-08-12 12:06:23.697427,-38.0
2023-08-12 12:06:23.705117,-26.0
2023-08-12 12:06:23.712807,-11.0
2023-08-12 12:06:23.720497,2.0
2023-08-12 12:06:23.728186,16.0
2023-08-12 12:06:23.735876,33.0
2023-08-12 12:06:23.743566,43.0
2023-08-12 12:06:23.751256,52.0
2023-08-12 12:06:23.758946,64.0
2023-08-12 12:06:23.766635,67.0
2023-08-12 12:06:23.774325,64.0
2023-08-12 12:06:23.782015,62.0
2023-08-12 12:06:23.789705,47.0
2023-08-12 12:06:23.797395,16.0
2023-08-12 12:06:23.805084,-21.0
2023-08-12 12:06:23.812774,-57.0
2023-08-12 12:06:23.820464,-88.0
2023-08-12 12:06:23.828154,-107.0
2023-08-12 12:06:23.835844,-117.0
2023-08-12 12:06:23.843533,-124.0
2023-08-12 12:06:23.851223,-127.0
2023-08-12 12:06:23.858913,-127.0
2023-08-12 12:06:23.866603,-124.0
2023-08-12 12:06:23.874293,-122.0
2023-08-12 12:06:23.881982,-115.0
2023-08-12 12:06:23.889672,-110.0
2023-08-12 12:06:23.897362,-110.0
2023-08-12 12:06:23.905052,-107.0
2023-08-12 12:06:23.912742,-105.0
2023-08-12 12:06:23.920431,-103.0
2023-08-12 12:06:23.928121,-100.0
2023-08-12 12:06:23.935811,-93.0
2023-08-12 12:06:23.943501,-91.0
2023-08-12 12:06:23.951191,-93.0
2023-08-12 12:06:23.958880,-91.0
2023-08-12 12:06:23.966570,-86.0
2023-08-12 12:06:23.974260,-88.0
2023-08-12 12:06:23.981950,-88.0
2023-08-12 12:06:23.989640,-86.0
2023-08-12 12:06:23.997329,-88.0
2023-08-12 12:06:24.005019,-95.0
2023-08-12 12:06:24.012709,-100.0
2023-08-12 12:06:24.020399,-105.0
2023-08-12 12:06:24.028089,-103.0
2023-08-12 12:06:24.035778,-95.0
2023-08-12 12:06:24.043468,-93.0
2023-08-12 12:06:24.051158,-95.0
2023-08-12 12:06:24.058848,-98.0
2023-08-12 12:06:24.066538,-103.0
2023-08-12 12:06:24.074227,-100.0
2023-08-12 12:06:24.081917,-98.0
2023-08-12 12:06:24.089607,-95.0
2023-08-12 12:06:24.097297,-93.0
2023-08-12 12:06:24.104987,-86.0
2023-08-12 12:06:24.112676,-76.0
2023-08-12 12:06:24.120366,-67.0
2023-08-12 12:06:24.128056,-57.0
2023-08-12 12:06:24.135746,-38.0
2023-08-12 12:06:24.143436,-16.0
2023-08-12 12:06:24.151125,-19.0
2023-08-12 12:06:24.158815,-40.0
2023-08-12 12:06:24.166505,-57.0
2023-08-12 12:06:24.174195,-69.0
2023-08-12 12:06:24.181885,-81.0
2023-08-12 12:06:24.189574,-100.0
2023-08-12 12:06:24.197264,-112.0
2023-08-12 12:06:24.204954,-105.0
2023-08-12 12:06:24.212644,-100.0
2023-08-12 12:06:24.220334,-100.0
2023-08-12 12:06:24.228023,-100.0
2023-08-12 12:06:24.235713,-100.0
2023-08-12 12:06:24.243403,-98.0
2023-08-12 12:06:24.251093,-105.0
2023-08-12 12:06:24.258783,-122.0
2023-08-12 12:06:24.266472,-43.0
2023-08-12 12:06:24.274162,258.0
2023-08-12 12:06:24.281852,632.0
2023-08-12 12:06:24.289542,685.0
2023-08-12 12:06:24.297232,222.0
2023-08-12 12:06:24.304921,-266.0
2023-08-12 12:06:24.312611,-234.0
2023-08-12 12:06:24.320301,-62.0
2023-08-12 12:06:24.327991,-139.0
2023-08-12 12:06:24.335681,-184.0
2023-08-12 12:06:24.343370,-117.0
2023-08-12 12:06:24.351060,-115.0
2023-08-12 12:06:24.358750,-134.0
2023-08-12 12:06:24.366440,-110.0
2023-08-12 12:06:24.374130,-95.0
2023-08-12 12:06:24.381819,-93.0
2023-08-12 12:06:24.389509,-81.0
2023-08-12 12:06:24.397199,-71.0
2023-08-12 12:06:24.404889,-69.0
2023-08-12 12:06:24.412579,-62.0
2023-08-12 12:06:24.420268,-50.0
2023-08-12 12:06:24.427958,-38.0
2023-08-12 12:06:24.435648,-31.0
2023-08-12 12:06:24.443338,-23.0
2023-08-12 12:06:24.451028,-11.0
2023-08-12 12:06:24.458717,-2.0
2023-08-12 12:06:24.466407,9.0
2023-08-12 12:06:24.474097,28.0
2023-08-12 12:06:24.481787,43.0
2023-08-12 12:06:24.489477,50.0
2023-08-12 12:06:24.497166,57.0
2023-08-12 12:06:24.504856,59.0
2023-08-12 12:06:24.512546,57.0
2023-08-12 12:06:24.520236,55.0
2023-08-12 12:06:24.527926,40.0
2023-08-12 12:06:24.535615,11.0
2023-08-12 12:06:24.543305,-28.0
2023-08-12 12:06:24.550995,-74.0
2023-08-12 12:06:24.558685,-105.0
2023-08-12 12:06:24.566375,-122.0
2023-08-12 12:06:24.574064,-139.0
2023-08-12 12:06:24.581754,-148.0
2023-08-12 12:06:24.589444,-146.0
2023-08-12 12:06:24.597134,-143.0
2023-08-12 12:06:24.604824,-141.0
2023-08-12 12:06:24.612513,-134.0
2023-08-12 12:06:24.620203,-127.0
2023-08-12 12:06:24.627893,-124.0
2023-08-12 12:06:24.635583,-119.0
2023-08-12 12:06:24.643273,-115.0
2023-08-12 12:06:24.650962,-112.0
2023-08-12 12:06:24.658652,-110.0
2023-08-12 12:06:24.666342,-105.0
2023-08-12 12:06:24.674032,-100.0
2023-08-12 12:06:24.681722,-98.0
2023-08-12 12:06:24.689411,-100.0
2023-08-12 12:06:24.697101,-98.0
2023-08-12 12:06:24.704791,-98.0
2023-08-12 12:06:24.712481,-103.0
2023-08-12 12:06:24.720171,-103.0
2023-08-12 12:06:24.727860,-95.0
2023-08-12 12:06:24.735550,-98.0
2023-08-12 12:06:24.743240,-100.0
2023-08-12 12:06:24.750930,-100.0
2023-08-12 12:06:24.758620,-93.0
2023-08-12 12:06:24.766309,-88.0
2023-08-12 12:06:24.773999,-93.0
2023-08-12 12:06:24.781689,-95.0
2023-08-12 12:06:24.789379,-93.0
2023-08-12 12:06:24.797069,-88.0
2023-08-12 12:06:24.804758,-88.0
2023-08-12 12:06:24.812448,-88.0
2023-08-12 12:06:24.820138,-88.0
2023-08-12 12:06:24.827828,-86.0
2023-08-12 12:06:24.835518,-86.0
2023-08-12 12:06:24.843207,-88.0
2023-08-12 12:06:24.850897,-83.0
2023-08-12 12:06:24.858587,-76.0
2023-08-12 12:06:24.866277,-64.0
2023-08-12 12:06:24.873967,-50.0
2023-08-12 12:06:24.881656,-40.0
2023-08-12 12:06:24.889346,-26.0
2023-08-12 12:06:24.897036,-4.0
2023-08-12 12:06:24.904726,-7.0
2023-08-12 12:06:24.912416,-35.0
2023-08-12 12:06:24.920105,-57.0
2023-08-12 12:06:24.927795,-64.0
2023-08-12 12:06:24.935485,-76.0
2023-08-12 12:06:24.943175,-95.0
2023-08-12 12:06:24.950865,-103.0
2023-08-12 12:06:24.958554,-100.0
2023-08-12 12:06:24.966244,-98.0
2023-08-12 12:06:24.973934,-98.0
2023-08-12 12:06:24.981624,-98.0
2023-08-12 12:06:24.989314,-95.0
2023-08-12 12:06:24.997003,-93.0
2023-08-12 12:06:25.004693,-105.0
2023-08-12 12:06:25.012383,-117.0
2023-08-12 12:06:25.020073,-28.0
2023-08-12 12:06:25.027763,268.0
2023-08-12 12:06:25.035452,618.0
2023-08-12 12:06:25.043142,635.0
2023-08-12 12:06:25.050832,174.0
2023-08-12 12:06:25.058522,-261.0
2023-08-12 12:06:25.066212,-208.0
2023-08-12 12:06:25.073901,-64.0
2023-08-12 12:06:25.081591,-153.0
2023-08-12 12:06:25.089281,-184.0
2023-08-12 12:06:25.096971,-119.0
2023-08-12 12:06:25.104661,-124.0
2023-08-12 12:06:25.112350,-139.0
2023-08-12 12:06:25.120040,-110.0
2023-08-12 12:06:25.127730,-95.0
2023-08-12 12:06:25.135420,-98.0
2023-08-12 12:06:25.143110,-91.0
2023-08-12 12:06:25.150799,-76.0
2023-08-12 12:06:25.158489,-67.0
2023-08-12 12:06:25.166179,-57.0
2023-08-12 12:06:25.173869,-55.0
2023-08-12 12:06:25.181559,-62.0
2023-08-12 12:06:25.189248,-57.0
2023-08-12 12:06:25.196938,-38.0
2023-08-12 12:06:25.204628,-21.0
2023-08-12 12:06:25.212318,-11.0
2023-08-12 12:06:25.220008,2.0
2023-08-12 12:06:25.227697,14.0
2023-08-12 12:06:25.235387,26.0
2023-08-12 12:06:25.243077,38.0
2023-08-12 12:06:25.250767,47.0
2023-08-12 12:06:25.258457,52.0
2023-08-12 12:06:25.266146,57.0
2023-08-12 12:06:25.273836,50.0
2023-08-12 12:06:25.281526,31.0
2023-08-12 12:06:25.289216,2.0
2023-08-12 12:06:25.296906,-31.0
2023-08-12 12:06:25.304595,-67.0
2023-08-12 12:06:25.312285,-98.0
2023-08-12 12:06:25.319975,-119.0
2023-08-12 12:06:25.327665,-127.0
2023-08-12 12:06:25.335355,-127.0
2023-08-12 12:06:25.343044,-127.0
2023-08-12 12:06:25.350734,-127.0
2023-08-12 12:06:25.358424,-124.0
2023-08-12 12:06:25.366114,-119.0
2023-08-12 12:06:25.373804,-115.0
2023-08-12 12:06:25.381493,-117.0
2023-08-12 12:06:25.389183,-112.0
2023-08-12 12:06:25.396873,-98.0
2023-08-12 12:06:25.404563,-91.0
2023-08-12 12:06:25.412253,-98.0
2023-08-12 12:06:25.419942,-98.0
2023-08-12 12:06:25.427632,-98.0
2023-08-12 12:06:25.435322,-103.0
2023-08-12 12:06:25.443012,-105.0
2023-08-12 12:06:25.450702,-103.0
2023-08-12 12:06:25.458391,-103.0
2023-08-12 12:06:25.466081,-95.0
2023-08-12 12:06:25.473771,-93.0
2023-08-12 12:06:25.481461,-93.0
2023-08-12 12:06:25.489151,-91.0
2023-08-12 12:06:25.496840,-91.0
2023-08-12 12:06:25.504530,-93.0
2023-08-12 12:06:25.512220,-93.0
2023-08-12 12:06:25.519910,-88.0
2023-08-12 12:06:25.527600,-86.0
2023-08-12 12:06:25.535289,-86.0
2023-08-12 12:06:25.542979,-81.0
2023-08-12 12:06:25.550669,-74.0
2023-08-12 12:06:25.558359,-71.0
2023-08-12 12:06:25.566049,-76.0
2023-08-12 12:06:25.573738,-79.0
2023-08-12 12:06:25.581428,-76.0
2023-08-12 12:06:25.589118,-79.0
2023-08-12 12:06:25.596808,-76.0
2023-08-12 12:06:25.604498,-64.0
2023-08-12 12:06:25.612187,-50.0
2023-08-12 12:06:25.619877,-35.0
2023-08-12 12:06:25.627567,-26.0
2023-08-12 12:06:25.635257,-7.0
2023-08-12 12:06:25.642947,9.0
2023-08-12 12:06:25.650636,-11.0
2023-08-12 12:06:25.658326,-43.0
2023-08-12 12:06:25.666016,-57.0
2023-08-12 12:06:25.673706,-62.0
2023-08-12 12:06:25.681396,-74.0
2023-08-12 12:06:25.689085,-83.0
2023-08-12 12:06:25.696775,-91.0
2023-08-12 12:06:25.704465,-93.0
2023-08-12 12:06:25.712155,-91.0
2023-08-12 12:06:25.719845,-95.0
2023-08-12 12:06:25.727534,-103.0
2023-08-12 12:06:25.735224,-95.0
2023-08-12 12:06:25.742914,-91.0
2023-08-12 12:06:25.750604,-112.0
2023-08-12 12:06:25.758294,-74.0
2023-08-12 12:06:25.765983,167.0
2023-08-12 12:06:25.773673,544.0
2023-08-12 12:06:25.781363,699.0
2023-08-12 12:06:25.789053,359.0
2023-08-12 12:06:25.796743,-179.0
2023-08-12 12:06:25.804432,-282.0
2023-08-12 12:06:25.812122,-81.0
2023-08-12 12:06:25.819812,-86.0
2023-08-12 12:06:25.827502,-167.0
2023-08-12 12:06:25.835192,-124.0
2023-08-12 12:06:25.842881,-100.0
2023-08-12 12:06:25.850571,-122.0
2023-08-12 12:06:25.858261,-110.0
2023-08-12 12:06:25.865951,-83.0
2023-08-12 12:06:25.873641,-81.0
2023-08-12 12:06:25.881330,-79.0
2023-08-12 12:06:25.889020,-69.0
2023-08-12 12:06:25.896710,-62.0
2023-08-12 12:06:25.904400,-47.0
2023-08-12 12:06:25.912090,-38.0
2023-08-12 12:06:25.919779,-31.0
2023-08-12 12:06:25.927469,-16.0
2023-08-12 12:06:25.935159,-9.0
2023-08-12 12:06:25.942849,-7.0
2023-08-12 12:06:25.950539,9.0
2023-08-12 12:06:25.958228,33.0
2023-08-12 12:06:25.965918,40.0
2023-08-12 12:06:25.973608,45.0
2023-08-12 12:06:25.981298,64.0
2023-08-12 12:06:25.988988,74.0
2023-08-12 12:06:25.996677,74.0
2023-08-12 12:06:26.004367,71.0
2023-08-12 12:06:26.012057,64.0
2023-08-12 12:06:26.019747,55.0
2023-08-12 12:06:26.027437,28.0
2023-08-12 12:06:26.035126,-11.0
2023-08-12 12:06:26.042816,-47.0
2023-08-12 12:06:26.050506,-76.0
2023-08-12 12:06:26.058196,-103.0
2023-08-12 12:06:26.065886,-124.0
2023-08-12 12:06:26.073575,-129.0
2023-08-12 12:06:26.081265,-119.0
2023-08-12 12:06:26.088955,-119.0
2023-08-12 12:06:26.096645,-131.0
2023-08-12 12:06:26.104335,-134.0
2023-08-12 12:06:26.112024,-124.0
2023-08-12 12:06:26.119714,-115.0
2023-08-12 12:06:26.127404,-110.0
2023-08-12 12:06:26.135094,-107.0
2023-08-12 12:06:26.142784,-100.0
2023-08-12 12:06:26.150473,-95.0
2023-08-12 12:06:26.158163,-98.0
2023-08-12 12:06:26.165853,-100.0
2023-08-12 12:06:26.173543,-95.0
2023-08-12 12:06:26.181233,-95.0
2023-08-12 12:06:26.188922,-98.0
2023-08-12 12:06:26.196612,-98.0
2023-08-12 12:06:26.204302,-91.0
2023-08-12 12:06:26.211992,-86.0
2023-08-12 12:06:26.219682,-88.0
2023-08-12 12:06:26.227371,-81.0
2023-08-12 12:06:26.235061,-79.0
2023-08-12 12:06:26.242751,-83.0
2023-08-12 12:06:26.250441,-86.0
2023-08-12 12:06:26.258131,-88.0
2023-08-12 12:06:26.265820,-93.0
2023-08-12 12:06:26.273510,-93.0
2023-08-12 12:06:26.281200,-88.0
2023-08-12 12:06:26.288890,-86.0
2023-08-12 12:06:26.296580,-86.0
2023-08-12 12:06:26.304269,-83.0
2023-08-12 12:06:26.311959,-76.0
2023-08-12 12:06:26.319649,-62.0
2023-08-12 12:06:26.327339,-47.0
2023-08-12 12:06:26.335029,-40.0
2023-08-12 12:06:26.342718,-28.0
2023-08-12 12:06:26.350408,-7.0
2023-08-12 12:06:26.358098,-9.0
2023-08-12 12:06:26.365788,-35.0
2023-08-12 12:06:26.373478,-50.0
2023-08-12 12:06:26.381167,-57.0
2023-08-12 12:06:26.388857,-71.0
2023-08-12 12:06:26.396547,-91.0
2023-08-12 12:06:26.404237,-100.0
2023-08-12 12:06:26.411927,-93.0
2023-08-12 12:06:26.419616,-88.0
2023-08-12 12:06:26.427306,-93.0
2023-08-12 12:06:26.434996,-95.0
2023-08-12 12:06:26.442686,-88.0
2023-08-12 12:06:26.450376,-88.0
2023-08-12 12:06:26.458065,-105.0
2023-08-12 12:06:26.465755,-110.0
2023-08-12 12:06:26.473445,26.0
2023-08-12 12:06:26.481135,397.0
2023-08-12 12:06:26.488825,742.0
2023-08-12 12:06:26.496514,642.0
2023-08-12 12:06:26.504204,79.0
2023-08-12 12:06:26.511894,-321.0
2023-08-12 12:06:26.519584,-189.0
2023-08-12 12:06:26.527274,-45.0
2023-08-12 12:06:26.534963,-146.0
2023-08-12 12:06:26.542653,-160.0
2023-08-12 12:06:26.550343,-100.0
2023-08-12 12:06:26.558033,-110.0
2023-08-12 12:06:26.565723,-115.0
2023-08-12 12:06:26.573412,-88.0
2023-08-12 12:06:26.581102,-83.0
2023-08-12 12:06:26.588792,-83.0
2023-08-12 12:06:26.596482,-74.0
2023-08-12 12:06:26.604171,-64.0
2023-08-12 12:06:26.611861,-57.0
2023-08-12 12:06:26.619551,-45.0
2023-08-12 12:06:26.627241,-40.0
2023-08-12 12:06:26.634931,-33.0
2023-08-12 12:06:26.642620,-16.0
2023-08-12 12:06:26.650310,-2.0
2023-08-12 12:06:26.658000,7.0
2023-08-12 12:06:26.665690,14.0
2023-08-12 12:06:26.673380,26.0
2023-08-12 12:06:26.681069,43.0
2023-08-12 12:06:26.688759,62.0
2023-08-12 12:06:26.696449,69.0
2023-08-12 12:06:26.704139,76.0
2023-08-12 12:06:26.711829,81.0
2023-08-12 12:06:26.719518,76.0
2023-08-12 12:06:26.727208,62.0
2023-08-12 12:06:26.734898,33.0
2023-08-12 12:06:26.742588,-2.0
2023-08-12 12:06:26.750278,-40.0
2023-08-12 12:06:26.757967,-79.0
2023-08-12 12:06:26.765657,-107.0
2023-08-12 12:06:26.773347,-122.0
2023-08-12 12:06:26.781037,-129.0
2023-08-12 12:06:26.788727,-134.0
2023-08-12 12:06:26.796416,-134.0
2023-08-12 12:06:26.804106,-136.0
2023-08-12 12:06:26.811796,-131.0
2023-08-12 12:06:26.819486,-119.0
2023-08-12 12:06:26.827176,-117.0
2023-08-12 12:06:26.834865,-117.0
2023-08-12 12:06:26.842555,-119.0
2023-08-12 12:06:26.850245,-117.0
2023-08-12 12:06:26.857935,-112.0
2023-08-12 12:06:26.865625,-110.0
2023-08-12 12:06:26.873314,-105.0
2023-08-12 12:06:26.881004,-100.0
2023-08-12 12:06:26.888694,-93.0
2023-08-12 12:06:26.896384,-95.0
2023-08-12 12:06:26.904074,-95.0
2023-08-12 12:06:26.911763,-91.0
2023-08-12 12:06:26.919453,-91.0
2023-08-12 12:06:26.927143,-95.0
2023-08-12 12:06:26.934833,-100.0
2023-08-12 12:06:26.942523,-95.0
2023-08-12 12:06:26.950212,-91.0
2023-08-12 12:06:26.957902,-95.0
2023-08-12 12:06:26.965592,-95.0
2023-08-12 12:06:26.973282,-93.0
2023-08-12 12:06:26.980972,-93.0
2023-08-12 12:06:26.988661,-93.0
2023-08-12 12:06:26.996351,-88.0
2023-08-12 12:06:27.004041,-88.0
2023-08-12 12:06:27.011731,-88.0
2023-08-12 12:06:27.019421,-83.0
2023-08-12 12:06:27.027110,-74.0
2023-08-12 12:06:27.034800,-64.0
2023-08-12 12:06:27.042490,-55.0
2023-08-12 12:06:27.050180,-38.0
2023-08-12 12:06:27.057870,-16.0
2023-08-12 12:06:27.065559,-11.0
2023-08-12 12:06:27.073249,-31.0
2023-08-12 12:06:27.080939,-52.0
2023-08-12 12:06:27.088629,-62.0
2023-08-12 12:06:27.096319,-74.0
2023-08-12 12:06:27.104008,-100.0
2023-08-12 12:06:27.111698,-117.0
2023-08-12 12:06:27.119388,-110.0
2023-08-12 12:06:27.127078,-100.0
2023-08-12 12:06:27.134768,-103.0
2023-08-12 12:06:27.142457,-107.0
2023-08-12 12:06:27.150147,-105.0
2023-08-12 12:06:27.157837,-103.0
2023-08-12 12:06:27.165527,-105.0
2023-08-12 12:06:27.173217,-124.0
2023-08-12 12:06:27.180906,-93.0
2023-08-12 12:06:27.188596,153.0
2023-08-12 12:06:27.196286,560.0
2023-08-12 12:06:27.203976,757.0
2023-08-12 12:06:27.211666,419.0
2023-08-12 12:06:27.219355,-170.0
2023-08-12 12:06:27.227045,-304.0
2023-08-12 12:06:27.234735,-88.0
2023-08-12 12:06:27.242425,-103.0
2023-08-12 12:06:27.250115,-196.0
2023-08-12 12:06:27.257804,-141.0
2023-08-12 12:06:27.265494,-110.0
2023-08-12 12:06:27.273184,-139.0
2023-08-12 12:06:27.280874,-124.0
2023-08-12 12:06:27.288564,-100.0
2023-08-12 12:06:27.296253,-103.0
2023-08-12 12:06:27.303943,-98.0
2023-08-12 12:06:27.311633,-83.0
2023-08-12 12:06:27.319323,-74.0
2023-08-12 12:06:27.327013,-64.0
2023-08-12 12:06:27.334702,-57.0
2023-08-12 12:06:27.342392,-50.0
2023-08-12 12:06:27.350082,-43.0
2023-08-12 12:06:27.357772,-28.0
2023-08-12 12:06:27.365462,-11.0
2023-08-12 12:06:27.373151,2.0
2023-08-12 12:06:27.380841,14.0
2023-08-12 12:06:27.388531,26.0
2023-08-12 12:06:27.396221,40.0
2023-08-12 12:06:27.403911,52.0
2023-08-12 12:06:27.411600,57.0
2023-08-12 12:06:27.419290,64.0
2023-08-12 12:06:27.426980,67.0
2023-08-12 12:06:27.434670,50.0
2023-08-12 12:06:27.442360,28.0
2023-08-12 12:06:27.450049,4.0
2023-08-12 12:06:27.457739,-35.0
2023-08-12 12:06:27.465429,-76.0
2023-08-12 12:06:27.473119,-103.0
2023-08-12 12:06:27.480809,-119.0
2023-08-12 12:06:27.488498,-129.0
2023-08-12 12:06:27.496188,-136.0
2023-08-12 12:06:27.503878,-141.0
2023-08-12 12:06:27.511568,-141.0
2023-08-12 12:06:27.519258,-136.0
2023-08-12 12:06:27.526947,-131.0
2023-08-12 12:06:27.534637,-129.0
2023-08-12 12:06:27.542327,-127.0
2023-08-12 12:06:27.550017,-122.0
2023-08-12 12:06:27.557707,-115.0
2023-08-12 12:06:27.565396,-112.0
2023-08-12 12:06:27.573086,-112.0
2023-08-12 12:06:27.580776,-107.0
2023-08-12 12:06:27.588466,-100.0
2023-08-12 12:06:27.596156,-103.0
2023-08-12 12:06:27.603845,-110.0
2023-08-12 12:06:27.611535,-110.0
2023-08-12 12:06:27.619225,-103.0
2023-08-12 12:06:27.626915,-98.0
2023-08-12 12:06:27.634605,-98.0
2023-08-12 12:06:27.642294,-103.0
2023-08-12 12:06:27.649984,-105.0
2023-08-12 12:06:27.657674,-105.0
2023-08-12 12:06:27.665364,-107.0
2023-08-12 12:06:27.673054,-107.0
2023-08-12 12:06:27.680743,-105.0
2023-08-12 12:06:27.688433,-100.0
2023-08-12 12:06:27.696123,-100.0
2023-08-12 12:06:27.703813,-105.0
2023-08-12 12:06:27.711503,-103.0
2023-08-12 12:06:27.719192,-95.0
2023-08-12 12:06:27.726882,-95.0
2023-08-12 12:06:27.734572,-95.0
2023-08-12 12:06:27.742262,-95.0
2023-08-12 12:06:27.749952,-95.0
2023-08-12 12:06:27.757641,-93.0
2023-08-12 12:06:27.765331,-86.0
2023-08-12 12:06:27.773021,-79.0
2023-08-12 12:06:27.780711,-67.0
2023-08-12 12:06:27.788401,-59.0
2023-08-12 12:06:27.796090,-50.0
2023-08-12 12:06:27.803780,-26.0
2023-08-12 12:06:27.811470,-9.0
2023-08-12 12:06:27.819160,-26.0
2023-08-12 12:06:27.826850,-52.0
2023-08-12 12:06:27.834539,-62.0
2023-08-12 12:06:27.842229,-71.0
2023-08-12 12:06:27.849919,-86.0
2023-08-12 12:06:27.857609,-100.0
2023-08-12 12:06:27.865299,-105.0
2023-08-12 12:06:27.872988,-100.0
2023-08-12 12:06:27.880678,-100.0
2023-08-12 12:06:27.888368,-105.0
2023-08-12 12:06:27.896058,-100.0
2023-08-12 12:06:27.903748,-93.0
2023-08-12 12:06:27.911437,-103.0
2023-08-12 12:06:27.919127,-124.0
2023-08-12 12:06:27.926817,-112.0
2023-08-12 12:06:27.934507,76.0
2023-08-12 12:06:27.942197,448.0
2023-08-12 12:06:27.949886,699.0
2023-08-12 12:06:27.957576,476.0
2023-08-12 12:06:27.965266,-88.0
2023-08-12 12:06:27.972956,-309.0
2023-08-12 12:06:27.980646,-119.0
2023-08-12 12:06:27.988335,-88.0
2023-08-12 12:06:27.996025,-189.0
2023-08-12 12:06:28.003715,-153.0
2023-08-12 12:06:28.011405,-115.0
2023-08-12 12:06:28.019095,-139.0
2023-08-12 12:06:28.026784,-129.0
2023-08-12 12:06:28.034474,-98.0
2023-08-12 12:06:28.042164,-98.0
2023-08-12 12:06:28.049854,-98.0
2023-08-12 12:06:28.057544,-86.0
2023-08-12 12:06:28.065233,-79.0
2023-08-12 12:06:28.072923,-71.0
2023-08-12 12:06:28.080613,-55.0
2023-08-12 12:06:28.088303,-45.0
2023-08-12 12:06:28.095993,-40.0
2023-08-12 12:06:28.103682,-35.0
2023-08-12 12:06:28.111372,-26.0
2023-08-12 12:06:28.119062,-11.0
2023-08-12 12:06:28.126752,0.0
2023-08-12 12:06:28.134442,11.0
2023-08-12 12:06:28.142131,26.0
2023-08-12 12:06:28.149821,40.0
2023-08-12 12:06:28.157511,45.0
2023-08-12 12:06:28.165201,50.0
2023-08-12 12:06:28.172891,57.0
2023-08-12 12:06:28.180580,57.0
2023-08-12 12:06:28.188270,47.0
2023-08-12 12:06:28.195960,26.0
2023-08-12 12:06:28.203650,-9.0
2023-08-12 12:06:28.211340,-45.0
2023-08-12 12:06:28.219029,-76.0
2023-08-12 12:06:28.226719,-103.0
2023-08-12 12:06:28.234409,-117.0
2023-08-12 12:06:28.242099,-124.0
2023-08-12 12:06:28.249789,-124.0
2023-08-12 12:06:28.257478,-117.0
2023-08-12 12:06:28.265168,-115.0
2023-08-12 12:06:28.272858,-112.0
2023-08-12 12:06:28.280548,-112.0
2023-08-12 12:06:28.288238,-110.0
2023-08-12 12:06:28.295927,-103.0
2023-08-12 12:06:28.303617,-98.0
2023-08-12 12:06:28.311307,-93.0
2023-08-12 12:06:28.318997,-91.0
2023-08-12 12:06:28.326687,-91.0
2023-08-12 12:06:28.334376,-88.0
2023-08-12 12:06:28.342066,-86.0
2023-08-12 12:06:28.349756,-83.0
2023-08-12 12:06:28.357446,-83.0
2023-08-12 12:06:28.365136,-81.0
2023-08-12 12:06:28.372825,-81.0
2023-08-12 12:06:28.380515,-83.0
2023-08-12 12:06:28.388205,-83.0
2023-08-12 12:06:28.395895,-81.0
2023-08-12 12:06:28.403585,-81.0
2023-08-12 12:06:28.411274,-83.0
2023-08-12 12:06:28.418964,-86.0
2023-08-12 12:06:28.426654,-86.0
2023-08-12 12:06:28.434344,-86.0
2023-08-12 12:06:28.442034,-83.0
2023-08-12 12:06:28.449723,-81.0
2023-08-12 12:06:28.457413,-81.0
2023-08-12 12:06:28.465103,-83.0
2023-08-12 12:06:28.472793,-83.0
2023-08-12 12:06:28.480483,-79.0
2023-08-12 12:06:28.488172,-76.0
2023-08-12 12:06:28.495862,-76.0
2023-08-12 12:06:28.503552,-74.0
2023-08-12 12:06:28.511242,-76.0
2023-08-12 12:06:28.518932,-76.0
2023-08-12 12:06:28.526621,-74.0
2023-08-12 12:06:28.534311,-67.0
2023-08-12 12:06:28.542001,-55.0
2023-08-12 12:06:28.549691,-50.0
2023-08-12 12:06:28.557381,-52.0
2023-08-12 12:06:28.565070,-43.0
2023-08-12 12:06:28.572760,-14.0
2023-08-12 12:06:28.580450,-2.0
2023-08-12 12:06:28.588140,-23.0
2023-08-12 12:06:28.595830,-45.0
2023-08-12 12:06:28.603519,-57.0
2023-08-12 12:06:28.611209,-71.0
2023-08-12 12:06:28.618899,-88.0
2023-08-12 12:06:28.626589,-103.0
2023-08-12 12:06:28.634279,-105.0
2023-08-12 12:06:28.641968,-107.0
2023-08-12 12:06:28.649658,-115.0
2023-08-12 12:06:28.657348,-115.0
2023-08-12 12:06:28.665038,-107.0
2023-08-12 12:06:28.672728,-105.0
2023-08-12 12:06:28.680417,-107.0
2023-08-12 12:06:28.688107,-129.0
2023-08-12 12:06:28.695797,-107.0
2023-08-12 12:06:28.703487,112.0
2023-08-12 12:06:28.711177,488.0
2023-08-12 12:06:28.718866,695.0
2023-08-12 12:06:28.726556,419.0
2023-08-12 12:06:28.734246,-143.0
2023-08-12 12:06:28.741936,-316.0
2023-08-12 12:06:28.749626,-115.0
2023-08-12 12:06:28.757315,-103.0
2023-08-12 12:06:28.765005,-196.0
2023-08-12 12:06:28.772695,-153.0
2023-08-12 12:06:28.780385,-119.0
2023-08-12 12:06:28.788075,-143.0
2023-08-12 12:06:28.795764,-129.0
2023-08-12 12:06:28.803454,-103.0
2023-08-12 12:06:28.811144,-103.0
2023-08-12 12:06:28.818834,-98.0
2023-08-12 12:06:28.826524,-81.0
2023-08-12 12:06:28.834213,-74.0
2023-08-12 12:06:28.841903,-71.0
2023-08-12 12:06:28.849593,-62.0
2023-08-12 12:06:28.857283,-50.0
2023-08-12 12:06:28.864973,-38.0
2023-08-12 12:06:28.872662,-28.0
2023-08-12 12:06:28.880352,-19.0
2023-08-12 12:06:28.888042,-7.0
2023-08-12 12:06:28.895732,9.0
2023-08-12 12:06:28.903422,21.0
2023-08-12 12:06:28.911111,33.0
2023-08-12 12:06:28.918801,45.0
2023-08-12 12:06:28.926491,52.0
2023-08-12 12:06:28.934181,57.0
2023-08-12 12:06:28.941871,64.0
2023-08-12 12:06:28.949560,64.0
2023-08-12 12:06:28.957250,57.0
2023-08-12 12:06:28.964940,33.0
2023-08-12 12:06:28.972630,-4.0
2023-08-12 12:06:28.980320,-43.0
2023-08-12 12:06:28.988009,-74.0
2023-08-12 12:06:28.995699,-95.0
2023-08-12 12:06:29.003389,-112.0
2023-08-12 12:06:29.011079,-122.0
2023-08-12 12:06:29.018769,-124.0
2023-08-12 12:06:29.026458,-122.0
2023-08-12 12:06:29.034148,-119.0
2023-08-12 12:06:29.041838,-115.0
2023-08-12 12:06:29.049528,-110.0
2023-08-12 12:06:29.057218,-107.0
2023-08-12 12:06:29.064907,-103.0
2023-08-12 12:06:29.072597,-95.0
2023-08-12 12:06:29.080287,-91.0
2023-08-12 12:06:29.087977,-93.0
2023-08-12 12:06:29.095667,-95.0
2023-08-12 12:06:29.103356,-98.0
2023-08-12 12:06:29.111046,-98.0
2023-08-12 12:06:29.118736,-103.0
2023-08-12 12:06:29.126426,-103.0
2023-08-12 12:06:29.134116,-100.0
2023-08-12 12:06:29.141805,-98.0
2023-08-12 12:06:29.149495,-98.0
2023-08-12 12:06:29.157185,-95.0
2023-08-12 12:06:29.164875,-93.0
2023-08-12 12:06:29.172565,-88.0
2023-08-12 12:06:29.180254,-88.0
2023-08-12 12:06:29.187944,-91.0
2023-08-12 12:06:29.195634,-91.0
2023-08-12 12:06:29.203324,-88.0
2023-08-12 12:06:29.211014,-86.0
2023-08-12 12:06:29.218703,-83.0
2023-08-12 12:06:29.226393,-86.0
2023-08-12 12:06:29.234083,-86.0
2023-08-12 12:06:29.241773,-81.0
2023-08-12 12:06:29.249463,-79.0
2023-08-12 12:06:29.257152,-79.0
2023-08-12 12:06:29.264842,-76.0
2023-08-12 12:06:29.272532,-74.0
2023-08-12 12:06:29.280222,-76.0
2023-08-12 12:06:29.287912,-74.0
2023-08-12 12:06:29.295601,-69.0
2023-08-12 12:06:29.303291,-59.0
2023-08-12 12:06:29.310981,-45.0
2023-08-12 12:06:29.318671,-35.0
2023-08-12 12:06:29.326361,-23.0
2023-08-12 12:06:29.334050,0.0
2023-08-12 12:06:29.341740,7.0
2023-08-12 12:06:29.349430,-16.0
2023-08-12 12:06:29.357120,-43.0
2023-08-12 12:06:29.364810,-55.0
2023-08-12 12:06:29.372499,-57.0
2023-08-12 12:06:29.380189,-74.0
2023-08-12 12:06:29.387879,-93.0
2023-08-12 12:06:29.395569,-95.0
2023-08-12 12:06:29.403259,-86.0
2023-08-12 12:06:29.410948,-88.0
2023-08-12 12:06:29.418638,-91.0
2023-08-12 12:06:29.426328,-88.0
2023-08-12 12:06:29.434018,-83.0
2023-08-12 12:06:29.441708,-88.0
2023-08-12 12:06:29.449397,-107.0
2023-08-12 12:06:29.457087,-67.0
2023-08-12 12:06:29.464777,194.0
2023-08-12 12:06:29.472467,591.0
2023-08-12 12:06:29.480157,752.0
2023-08-12 12:06:29.487846,395.0
2023-08-12 12:06:29.495536,-177.0
2023-08-12 12:06:29.503226,-294.0
2023-08-12 12:06:29.510916,-74.0
2023-08-12 12:06:29.518606,-81.0
2023-08-12 12:06:29.526295,-174.0
2023-08-12 12:06:29.533985,-124.0
2023-08-12 12:06:29.541675,-93.0
2023-08-12 12:06:29.549365,-117.0
2023-08-12 12:06:29.557055,-105.0
2023-08-12 12:06:29.564744,-83.0
2023-08-12 12:06:29.572434,-83.0
2023-08-12 12:06:29.580124,-76.0
2023-08-12 12:06:29.587814,-57.0
2023-08-12 12:06:29.595504,-55.0
2023-08-12 12:06:29.603193,-55.0
2023-08-12 12:06:29.610883,-43.0
2023-08-12 12:06:29.618573,-33.0
2023-08-12 12:06:29.626263,-31.0
2023-08-12 12:06:29.633953,-26.0
2023-08-12 12:06:29.641642,-14.0
2023-08-12 12:06:29.649332,0.0
2023-08-12 12:06:29.657022,14.0
2023-08-12 12:06:29.664712,26.0
2023-08-12 12:06:29.672402,40.0
2023-08-12 12:06:29.680091,52.0
2023-08-12 12:06:29.687781,62.0
2023-08-12 12:06:29.695471,67.0
2023-08-12 12:06:29.703161,71.0
2023-08-12 12:06:29.710851,67.0
2023-08-12 12:06:29.718540,55.0
2023-08-12 12:06:29.726230,28.0
2023-08-12 12:06:29.733920,-11.0
2023-08-12 12:06:29.741610,-52.0
2023-08-12 12:06:29.749300,-83.0
2023-08-12 12:06:29.756989,-107.0
2023-08-12 12:06:29.764679,-124.0
2023-08-12 12:06:29.772369,-131.0
2023-08-12 12:06:29.780059,-134.0
2023-08-12 12:06:29.787749,-129.0
2023-08-12 12:06:29.795438,-127.0
2023-08-12 12:06:29.803128,-122.0
2023-08-12 12:06:29.810818,-117.0
2023-08-12 12:06:29.818508,-115.0
2023-08-12 12:06:29.826198,-110.0
2023-08-12 12:06:29.833887,-103.0
2023-08-12 12:06:29.841577,-103.0
2023-08-12 12:06:29.849267,-105.0
2023-08-12 12:06:29.856957,-103.0
2023-08-12 12:06:29.864647,-98.0
2023-08-12 12:06:29.872336,-100.0
2023-08-12 12:06:29.880026,-95.0
2023-08-12 12:06:29.887716,-93.0
2023-08-12 12:06:29.895406,-93.0
2023-08-12 12:06:29.903096,-93.0
2023-08-12 12:06:29.910785,-88.0
2023-08-12 12:06:29.918475,-86.0
2023-08-12 12:06:29.926165,-83.0
2023-08-12 12:06:29.933855,-83.0
2023-08-12 12:06:29.941545,-86.0
2023-08-12 12:06:29.949234,-86.0
2023-08-12 12:06:29.956924,-83.0
2023-08-12 12:06:29.964614,-81.0
2023-08-12 12:06:29.972304,-79.0
2023-08-12 12:06:29.979994,-83.0
2023-08-12 12:06:29.987683,-83.0
2023-08-12 12:06:29.995373,-81.0
2023-08-12 12:06:30.003063,-81.0
2023-08-12 12:06:30.010753,-81.0
2023-08-12 12:06:30.018443,-76.0
2023-08-12 12:06:30.026132,-69.0
2023-08-12 12:06:30.033822,-62.0
2023-08-12 12:06:30.041512,-52.0
2023-08-12 12:06:30.049202,-40.0
2023-08-12 12:06:30.056892,-21.0
2023-08-12 12:06:30.064581,0.0
2023-08-12 12:06:30.072271,2.0
2023-08-12 12:06:30.079961,-23.0
2023-08-12 12:06:30.087651,-47.0
2023-08-12 12:06:30.095341,-57.0
2023-08-12 12:06:30.103030,-67.0
2023-08-12 12:06:30.110720,-88.0
2023-08-12 12:06:30.118410,-100.0
2023-08-12 12:06:30.126100,-103.0
2023-08-12 12:06:30.133790,-103.0
2023-08-12 12:06:30.141479,-100.0
2023-08-12 12:06:30.149169,-98.0
2023-08-12 12:06:30.156859,-93.0
2023-08-12 12:06:30.164549,-91.0
2023-08-12 12:06:30.172239,-100.0
2023-08-12 12:06:30.179928,-119.0
2023-08-12 12:06:30.187618,-33.0
2023-08-12 12:06:30.195308,289.0
2023-08-12 12:06:30.202998,673.0
2023-08-12 12:06:30.210688,709.0
2023-08-12 12:06:30.218377,225.0
2023-08-12 12:06:30.226067,-289.0
2023-08-12 12:06:30.233757,-263.0
2023-08-12 12:06:30.241447,-59.0
2023-08-12 12:06:30.249137,-129.0
2023-08-12 12:06:30.256826,-186.0
2023-08-12 12:06:30.264516,-122.0
2023-08-12 12:06:30.272206,-115.0
2023-08-12 12:06:30.279896,-134.0
2023-08-12 12:06:30.287586,-110.0
2023-08-12 12:06:30.295275,-93.0
2023-08-12 12:06:30.302965,-93.0
2023-08-12 12:06:30.310655,-83.0
2023-08-12 12:06:30.318345,-71.0
2023-08-12 12:06:30.326035,-67.0
2023-08-12 12:06:30.333724,-55.0
2023-08-12 12:06:30.341414,-45.0
2023-08-12 12:06:30.349104,-43.0
2023-08-12 12:06:30.356794,-43.0
2023-08-12 12:06:30.364484,-31.0
2023-08-12 12:06:30.372173,-11.0
2023-08-12 12:06:30.379863,2.0
2023-08-12 12:06:30.387553,14.0
2023-08-12 12:06:30.395243,31.0
2023-08-12 12:06:30.402933,43.0
2023-08-12 12:06:30.410622,50.0
2023-08-12 12:06:30.418312,57.0
2023-08-12 12:06:30.426002,62.0
2023-08-12 12:06:30.433692,64.0
2023-08-12 12:06:30.441382,57.0
2023-08-12 12:06:30.449071,40.0
2023-08-12 12:06:30.456761,9.0
2023-08-12 12:06:30.464451,-31.0
2023-08-12 12:06:30.472141,-67.0
2023-08-12 12:06:30.479830,-95.0
2023-08-12 12:06:30.487520,-119.0
2023-08-12 12:06:30.495210,-134.0
2023-08-12 12:06:30.502900,-139.0
2023-08-12 12:06:30.510590,-139.0
2023-08-12 12:06:30.518279,-139.0
2023-08-12 12:06:30.525969,-131.0
2023-08-12 12:06:30.533659,-127.0
2023-08-12 12:06:30.541349,-124.0
2023-08-12 12:06:30.549039,-119.0
2023-08-12 12:06:30.556728,-115.0
2023-08-12 12:06:30.564418,-110.0
2023-08-12 12:06:30.572108,-107.0
2023-08-12 12:06:30.579798,-103.0
2023-08-12 12:06:30.587488,-103.0
2023-08-12 12:06:30.595177,-103.0
2023-08-12 12:06:30.602867,-103.0
2023-08-12 12:06:30.610557,-98.0
2023-08-12 12:06:30.618247,-98.0
2023-08-12 12:06:30.625937,-103.0
2023-08-12 12:06:30.633626,-107.0
2023-08-12 12:06:30.641316,-103.0
2023-08-12 12:06:30.649006,-100.0
2023-08-12 12:06:30.656696,-100.0
2023-08-12 12:06:30.664386,-98.0
2023-08-12 12:06:30.672075,-95.0
2023-08-12 12:06:30.679765,-98.0
2023-08-12 12:06:30.687455,-98.0
2023-08-12 12:06:30.695145,-93.0
2023-08-12 12:06:30.702835,-93.0
2023-08-12 12:06:30.710524,-93.0
2023-08-12 12:06:30.718214,-93.0
2023-08-12 12:06:30.725904,-93.0
2023-08-12 12:06:30.733594,-91.0
2023-08-12 12:06:30.741284,-88.0
2023-08-12 12:06:30.748973,-86.0
2023-08-12 12:06:30.756663,-91.0
2023-08-12 12:06:30.764353,-98.0
2023-08-12 12:06:30.772043,-95.0
2023-08-12 12:06:30.779733,-83.0
2023-08-12 12:06:30.787422,-76.0
2023-08-12 12:06:30.795112,-67.0
2023-08-12 12:06:30.802802,-57.0
2023-08-12 12:06:30.810492,-43.0
2023-08-12 12:06:30.818182,-19.0
2023-08-12 12:06:30.825871,-9.0
2023-08-12 12:06:30.833561,-31.0
2023-08-12 12:06:30.841251,-57.0
2023-08-12 12:06:30.848941,-69.0
2023-08-12 12:06:30.856631,-79.0
2023-08-12 12:06:30.864320,-93.0
2023-08-12 12:06:30.872010,-107.0
2023-08-12 12:06:30.879700,-105.0
2023-08-12 12:06:30.887390,-98.0
2023-08-12 12:06:30.895080,-100.0
2023-08-12 12:06:30.902769,-100.0
2023-08-12 12:06:30.910459,-95.0
2023-08-12 12:06:30.918149,-95.0
2023-08-12 12:06:30.925839,-105.0
2023-08-12 12:06:30.933529,-122.0
2023-08-12 12:06:30.941218,-52.0
2023-08-12 12:06:30.948908,244.0
2023-08-12 12:06:30.956598,644.0
2023-08-12 12:06:30.964288,738.0
2023-08-12 12:06:30.971978,294.0
2023-08-12 12:06:30.979667,-244.0
2023-08-12 12:06:30.987357,-258.0
2023-08-12 12:06:30.995047,-59.0
2023-08-12 12:06:31.002737,-122.0
2023-08-12 12:06:31.010427,-186.0
2023-08-12 12:06:31.018116,-119.0
2023-08-12 12:06:31.025806,-110.0
2023-08-12 12:06:31.033496,-136.0
2023-08-12 12:06:31.041186,-112.0
2023-08-12 12:06:31.048876,-93.0
2023-08-12 12:06:31.056565,-95.0
2023-08-12 12:06:31.064255,-86.0
2023-08-12 12:06:31.071945,-71.0
2023-08-12 12:06:31.079635,-67.0
2023-08-12 12:06:31.087325,-62.0
2023-08-12 12:06:31.095014,-55.0
2023-08-12 12:06:31.102704,-43.0
2023-08-12 12:06:31.110394,-31.0
2023-08-12 12:06:31.118084,-21.0
2023-08-12 12:06:31.125774,-9.0
2023-08-12 12:06:31.133463,0.0
2023-08-12 12:06:31.141153,7.0
2023-08-12 12:06:31.148843,21.0
2023-08-12 12:06:31.156533,38.0
2023-08-12 12:06:31.164223,50.0
2023-08-12 12:06:31.171912,55.0
2023-08-12 12:06:31.179602,62.0
2023-08-12 12:06:31.187292,64.0
2023-08-12 12:06:31.194982,62.0
2023-08-12 12:06:31.202672,50.0
2023-08-12 12:06:31.210361,21.0
2023-08-12 12:06:31.218051,-19.0
2023-08-12 12:06:31.225741,-59.0
2023-08-12 12:06:31.233431,-93.0
2023-08-12 12:06:31.241121,-115.0
2023-08-12 12:06:31.248810,-129.0
2023-08-12 12:06:31.256500,-136.0
2023-08-12 12:06:31.264190,-134.0
2023-08-12 12:06:31.271880,-131.0
2023-08-12 12:06:31.279570,-127.0
2023-08-12 12:06:31.287259,-124.0
2023-08-12 12:06:31.294949,-122.0
2023-08-12 12:06:31.302639,-124.0
2023-08-12 12:06:31.310329,-122.0
2023-08-12 12:06:31.318019,-115.0
2023-08-12 12:06:31.325708,-112.0
2023-08-12 12:06:31.333398,-115.0
2023-08-12 12:06:31.341088,-117.0
2023-08-12 12:06:31.348778,-119.0
2023-08-12 12:06:31.356468,-117.0
2023-08-12 12:06:31.364157,-112.0
2023-08-12 12:06:31.371847,-112.0
2023-08-12 12:06:31.379537,-112.0
2023-08-12 12:06:31.387227,-110.0
2023-08-12 12:06:31.394917,-110.0
2023-08-12 12:06:31.402606,-107.0
2023-08-12 12:06:31.410296,-103.0
2023-08-12 12:06:31.417986,-100.0
2023-08-12 12:06:31.425676,-103.0
2023-08-12 12:06:31.433366,-103.0
2023-08-12 12:06:31.441055,-100.0
2023-08-12 12:06:31.448745,-98.0
2023-08-12 12:06:31.456435,-98.0
2023-08-12 12:06:31.464125,-95.0
2023-08-12 12:06:31.471815,-93.0
2023-08-12 12:06:31.479504,-93.0
2023-08-12 12:06:31.487194,-93.0
2023-08-12 12:06:31.494884,-88.0
2023-08-12 12:06:31.502574,-86.0
2023-08-12 12:06:31.510264,-88.0
2023-08-12 12:06:31.517953,-88.0
2023-08-12 12:06:31.525643,-88.0
2023-08-12 12:06:31.533333,-83.0
2023-08-12 12:06:31.541023,-71.0
2023-08-12 12:06:31.548713,-59.0
2023-08-12 12:06:31.556402,-50.0
2023-08-12 12:06:31.564092,-38.0
2023-08-12 12:06:31.571782,-16.0
2023-08-12 12:06:31.579472,-2.0
2023-08-12 12:06:31.587162,-19.0
2023-08-12 12:06:31.594851,-45.0
2023-08-12 12:06:31.602541,-57.0
2023-08-12 12:06:31.610231,-67.0
2023-08-12 12:06:31.617921,-83.0
2023-08-12 12:06:31.625611,-98.0
2023-08-12 12:06:31.633300,-100.0
2023-08-12 12:06:31.640990,-100.0
2023-08-12 12:06:31.648680,-105.0
2023-08-12 12:06:31.656370,-105.0
2023-08-12 12:06:31.664060,-100.0
2023-08-12 12:06:31.671749,-98.0
2023-08-12 12:06:31.679439,-100.0
2023-08-12 12:06:31.687129,-117.0
2023-08-12 12:06:31.694819,-98.0
2023-08-12 12:06:31.702509,107.0
2023-08-12 12:06:31.710198,491.0
2023-08-12 12:06:31.717888,735.0
2023-08-12 12:06:31.725578,484.0
2023-08-12 12:06:31.733268,-100.0
2023-08-12 12:06:31.740958,-309.0
2023-08-12 12:06:31.748647,-103.0
2023-08-12 12:06:31.756337,-81.0
2023-08-12 12:06:31.764027,-186.0
2023-08-12 12:06:31.771717,-143.0
2023-08-12 12:06:31.779407,-105.0
2023-08-12 12:06:31.787096,-131.0
2023-08-12 12:06:31.794786,-122.0
2023-08-12 12:06:31.802476,-95.0
2023-08-12 12:06:31.810166,-95.0
2023-08-12 12:06:31.817856,-91.0
2023-08-12 12:06:31.825545,-79.0
2023-08-12 12:06:31.833235,-74.0
2023-08-12 12:06:31.840925,-69.0
2023-08-12 12:06:31.848615,-57.0
2023-08-12 12:06:31.856305,-43.0
2023-08-12 12:06:31.863994,-35.0
2023-08-12 12:06:31.871684,-26.0
2023-08-12 12:06:31.879374,-16.0
2023-08-12 12:06:31.887064,-14.0
2023-08-12 12:06:31.894754,-4.0
2023-08-12 12:06:31.902443,16.0
2023-08-12 12:06:31.910133,31.0
2023-08-12 12:06:31.917823,38.0
2023-08-12 12:06:31.925513,43.0
2023-08-12 12:06:31.933203,40.0
2023-08-12 12:06:31.940892,38.0
2023-08-12 12:06:31.948582,40.0
2023-08-12 12:06:31.956272,33.0
2023-08-12 12:06:31.963962,11.0
2023-08-12 12:06:31.971652,-23.0
2023-08-12 12:06:31.979341,-69.0
2023-08-12 12:06:31.987031,-103.0
2023-08-12 12:06:31.994721,-122.0
2023-08-12 12:06:32.002411,-136.0
2023-08-12 12:06:32.010101,-143.0
2023-08-12 12:06:32.017790,-143.0
2023-08-12 12:06:32.025480,-146.0
2023-08-12 12:06:32.033170,-141.0
2023-08-12 12:06:32.040860,-134.0
2023-08-12 12:06:32.048550,-131.0
2023-08-12 12:06:32.056239,-129.0
2023-08-12 12:06:32.063929,-124.0
2023-08-12 12:06:32.071619,-124.0
2023-08-12 12:06:32.079309,-122.0
2023-08-12 12:06:32.086999,-115.0
2023-08-12 12:06:32.094688,-112.0
2023-08-12 12:06:32.102378,-110.0
2023-08-12 12:06:32.110068,-107.0
2023-08-12 12:06:32.117758,-107.0
2023-08-12 12:06:32.125448,-105.0
2023-08-12 12:06:32.133137,-103.0
2023-08-12 12:06:32.140827,-100.0
2023-08-12 12:06:32.148517,-103.0
2023-08-12 12:06:32.156207,-105.0
2023-08-12 12:06:32.163897,-105.0
2023-08-12 12:06:32.171586,-100.0
2023-08-12 12:06:32.179276,-100.0
2023-08-12 12:06:32.186966,-95.0
2023-08-12 12:06:32.194656,-93.0
2023-08-12 12:06:32.202346,-95.0
2023-08-12 12:06:32.210035,-95.0
2023-08-12 12:06:32.217725,-93.0
2023-08-12 12:06:32.225415,-91.0
2023-08-12 12:06:32.233105,-86.0
2023-08-12 12:06:32.240795,-86.0
2023-08-12 12:06:32.248484,-88.0
2023-08-12 12:06:32.256174,-86.0
2023-08-12 12:06:32.263864,-81.0
2023-08-12 12:06:32.271554,-79.0
2023-08-12 12:06:32.279244,-79.0
2023-08-12 12:06:32.286933,-76.0
2023-08-12 12:06:32.294623,-74.0
2023-08-12 12:06:32.302313,-69.0
2023-08-12 12:06:32.310003,-59.0
2023-08-12 12:06:32.317693,-52.0
2023-08-12 12:06:32.325382,-45.0
2023-08-12 12:06:32.333072,-26.0
2023-08-12 12:06:32.340762,-4.0
2023-08-12 12:06:32.348452,-2.0
2023-08-12 12:06:32.356142,-23.0
2023-08-12 12:06:32.363831,-45.0
2023-08-12 12:06:32.371521,-52.0
2023-08-12 12:06:32.379211,-64.0
2023-08-12 12:06:32.386901,-83.0
2023-08-12 12:06:32.394591,-98.0
2023-08-12 12:06:32.402280,-95.0
2023-08-12 12:06:32.409970,-88.0
2023-08-12 12:06:32.417660,-86.0
2023-08-12 12:06:32.425350,-88.0
2023-08-12 12:06:32.433040,-88.0
2023-08-12 12:06:32.440729,-88.0
2023-08-12 12:06:32.448419,-98.0
2023-08-12 12:06:32.456109,-110.0
2023-08-12 12:06:32.463799,-31.0
2023-08-12 12:06:32.471489,261.0
2023-08-12 12:06:32.479178,618.0
2023-08-12 12:06:32.486868,659.0
2023-08-12 12:06:32.494558,201.0
2023-08-12 12:06:32.502248,-268.0
2023-08-12 12:06:32.509938,-222.0
2023-08-12 12:06:32.517627,-57.0
2023-08-12 12:06:32.525317,-139.0
2023-08-12 12:06:32.533007,-179.0
2023-08-12 12:06:32.540697,-110.0
2023-08-12 12:06:32.548387,-110.0
2023-08-12 12:06:32.556076,-129.0
2023-08-12 12:06:32.563766,-105.0
2023-08-12 12:06:32.571456,-95.0
2023-08-12 12:06:32.579146,-95.0
2023-08-12 12:06:32.586836,-81.0
2023-08-12 12:06:32.594525,-69.0
2023-08-12 12:06:32.602215,-64.0
2023-08-12 12:06:32.609905,-59.0
2023-08-12 12:06:32.617595,-50.0
2023-08-12 12:06:32.625285,-40.0
2023-08-12 12:06:32.632974,-31.0
2023-08-12 12:06:32.640664,-19.0
2023-08-12 12:06:32.648354,-11.0
2023-08-12 12:06:32.656044,-4.0
2023-08-12 12:06:32.663734,4.0
2023-08-12 12:06:32.671423,19.0
2023-08-12 12:06:32.679113,31.0
2023-08-12 12:06:32.686803,43.0
2023-08-12 12:06:32.694493,45.0
2023-08-12 12:06:32.702183,47.0
2023-08-12 12:06:32.709872,50.0
2023-08-12 12:06:32.717562,50.0
2023-08-12 12:06:32.725252,38.0
2023-08-12 12:06:32.732942,9.0
2023-08-12 12:06:32.740632,-23.0
2023-08-12 12:06:32.748321,-59.0
2023-08-12 12:06:32.756011,-91.0
2023-08-12 12:06:32.763701,-115.0
2023-08-12 12:06:32.771391,-127.0
2023-08-12 12:06:32.779081,-134.0
2023-08-12 12:06:32.786770,-136.0
2023-08-12 12:06:32.794460,-134.0
2023-08-12 12:06:32.802150,-131.0
2023-08-12 12:06:32.809840,-131.0
2023-08-12 12:06:32.817530,-131.0
2023-08-12 12:06:32.825219,-124.0
2023-08-12 12:06:32.832909,-117.0
2023-08-12 12:06:32.840599,-115.0
2023-08-12 12:06:32.848289,-110.0
2023-08-12 12:06:32.855979,-107.0
2023-08-12 12:06:32.863668,-103.0
2023-08-12 12:06:32.871358,-103.0
2023-08-12 12:06:32.879048,-100.0
2023-08-12 12:06:32.886738,-98.0
2023-08-12 12:06:32.894428,-95.0
2023-08-12 12:06:32.902117,-95.0
2023-08-12 12:06:32.909807,-93.0
2023-08-12 12:06:32.917497,-91.0
2023-08-12 12:06:32.925187,-91.0
2023-08-12 12:06:32.932877,-88.0
2023-08-12 12:06:32.940566,-88.0
2023-08-12 12:06:32.948256,-86.0
2023-08-12 12:06:32.955946,-86.0
2023-08-12 12:06:32.963636,-83.0
2023-08-12 12:06:32.971326,-83.0
2023-08-12 12:06:32.979015,-81.0
2023-08-12 12:06:32.986705,-81.0
2023-08-12 12:06:32.994395,-83.0
2023-08-12 12:06:33.002085,-81.0
2023-08-12 12:06:33.009775,-86.0
2023-08-12 12:06:33.017464,-93.0
2023-08-12 12:06:33.025154,-86.0
2023-08-12 12:06:33.032844,-79.0
2023-08-12 12:06:33.040534,-81.0
2023-08-12 12:06:33.048224,-81.0
2023-08-12 12:06:33.055913,-71.0
2023-08-12 12:06:33.063603,-59.0
2023-08-12 12:06:33.071293,-50.0
2023-08-12 12:06:33.078983,-38.0
2023-08-12 12:06:33.086673,-19.0
2023-08-12 12:06:33.094362,0.0
2023-08-12 12:06:33.102052,-9.0
2023-08-12 12:06:33.109742,-38.0
2023-08-12 12:06:33.117432,-55.0
2023-08-12 12:06:33.125122,-62.0
2023-08-12 12:06:33.132811,-76.0
2023-08-12 12:06:33.140501,-95.0
2023-08-12 12:06:33.148191,-100.0
2023-08-12 12:06:33.155881,-98.0
2023-08-12 12:06:33.163571,-103.0
2023-08-12 12:06:33.171260,-103.0
2023-08-12 12:06:33.178950,-95.0
2023-08-12 12:06:33.186640,-95.0
2023-08-12 12:06:33.194330,-100.0
2023-08-12 12:06:33.202020,-112.0
2023-08-12 12:06:33.209709,-110.0
2023-08-12 12:06:33.217399,50.0
2023-08-12 12:06:33.225089,402.0
2023-08-12 12:06:33.232779,678.0
2023-08-12 12:06:33.240469,515.0
2023-08-12 12:06:33.248158,-31.0
2023-08-12 12:06:33.255848,-304.0
2023-08-12 12:06:33.263538,-122.0
2023-08-12 12:06:33.271228,-59.0
2023-08-12 12:06:33.278918,-167.0
2023-08-12 12:06:33.286607,-148.0
2023-08-12 12:06:33.294297,-100.0
2023-08-12 12:06:33.301987,-122.0
2023-08-12 12:06:33.309677,-122.0
2023-08-12 12:06:33.317367,-95.0
2023-08-12 12:06:33.325056,-91.0
2023-08-12 12:06:33.332746,-88.0
2023-08-12 12:06:33.340436,-76.0
2023-08-12 12:06:33.348126,-67.0
2023-08-12 12:06:33.355816,-59.0
2023-08-12 12:06:33.363505,-52.0
2023-08-12 12:06:33.371195,-43.0
2023-08-12 12:06:33.378885,-33.0
2023-08-12 12:06:33.386575,-21.0
2023-08-12 12:06:33.394265,-14.0
2023-08-12 12:06:33.401954,-4.0
2023-08-12 12:06:33.409644,4.0
2023-08-12 12:06:33.417334,16.0
2023-08-12 12:06:33.425024,28.0
2023-08-12 12:06:33.432714,43.0
2023-08-12 12:06:33.440403,50.0
2023-08-12 12:06:33.448093,52.0
2023-08-12 12:06:33.455783,55.0
2023-08-12 12:06:33.463473,55.0
2023-08-12 12:06:33.471163,47.0
2023-08-12 12:06:33.478852,33.0
2023-08-12 12:06:33.486542,4.0
2023-08-12 12:06:33.494232,-31.0
2023-08-12 12:06:33.501922,-67.0
2023-08-12 12:06:33.509612,-98.0
2023-08-12 12:06:33.517301,-115.0
2023-08-12 12:06:33.524991,-122.0
2023-08-12 12:06:33.532681,-127.0
2023-08-12 12:06:33.540371,-129.0
2023-08-12 12:06:33.548061,-129.0
2023-08-12 12:06:33.555750,-129.0
2023-08-12 12:06:33.563440,-124.0
2023-08-12 12:06:33.571130,-117.0
2023-08-12 12:06:33.578820,-112.0
2023-08-12 12:06:33.586510,-110.0
2023-08-12 12:06:33.594199,-112.0
2023-08-12 12:06:33.601889,-112.0
2023-08-12 12:06:33.609579,-105.0
2023-08-12 12:06:33.617269,-103.0
2023-08-12 12:06:33.624959,-103.0
2023-08-12 12:06:33.632648,-100.0
2023-08-12 12:06:33.640338,-98.0
2023-08-12 12:06:33.648028,-95.0
2023-08-12 12:06:33.655718,-93.0
2023-08-12 12:06:33.663408,-93.0
2023-08-12 12:06:33.671097,-98.0
2023-08-12 12:06:33.678787,-95.0
2023-08-12 12:06:33.686477,-95.0
2023-08-12 12:06:33.694167,-95.0
2023-08-12 12:06:33.701857,-91.0
2023-08-12 12:06:33.709546,-86.0
2023-08-12 12:06:33.717236,-88.0
2023-08-12 12:06:33.724926,-88.0
2023-08-12 12:06:33.732616,-88.0
2023-08-12 12:06:33.740306,-86.0
2023-08-12 12:06:33.747995,-81.0
2023-08-12 12:06:33.755685,-81.0
2023-08-12 12:06:33.763375,-79.0
2023-08-12 12:06:33.771065,-79.0
2023-08-12 12:06:33.778755,-81.0
2023-08-12 12:06:33.786444,-79.0
2023-08-12 12:06:33.794134,-76.0
2023-08-12 12:06:33.801824,-74.0
2023-08-12 12:06:33.809514,-62.0
2023-08-12 12:06:33.817204,-50.0
2023-08-12 12:06:33.824893,-40.0
2023-08-12 12:06:33.832583,-26.0
2023-08-12 12:06:33.840273,-2.0
2023-08-12 12:06:33.847963,7.0
2023-08-12 12:06:33.855653,-14.0
2023-08-12 12:06:33.863342,-40.0
2023-08-12 12:06:33.871032,-52.0
2023-08-12 12:06:33.878722,-59.0
2023-08-12 12:06:33.886412,-76.0
2023-08-12 12:06:33.894102,-95.0
2023-08-12 12:06:33.901791,-93.0
2023-08-12 12:06:33.909481,-88.0
2023-08-12 12:06:33.917171,-88.0
2023-08-12 12:06:33.924861,-86.0
2023-08-12 12:06:33.932551,-83.0
2023-08-12 12:06:33.940240,-83.0
2023-08-12 12:06:33.947930,-88.0
2023-08-12 12:06:33.955620,-107.0
2023-08-12 12:06:33.963310,-62.0
2023-08-12 12:06:33.971000,203.0
2023-08-12 12:06:33.978689,575.0
2023-08-12 12:06:33.986379,685.0
2023-08-12 12:06:33.994069,301.0
2023-08-12 12:06:34.001759,-213.0
2023-08-12 12:06:34.009449,-254.0
2023-08-12 12:06:34.017138,-52.0
2023-08-12 12:06:34.024828,-95.0
2023-08-12 12:06:34.032518,-165.0
2023-08-12 12:06:34.040208,-105.0
2023-08-12 12:06:34.047898,-98.0
2023-08-12 12:06:34.055587,-124.0
2023-08-12 12:06:34.063277,-98.0
2023-08-12 12:06:34.070967,-79.0
2023-08-12 12:06:34.078657,-83.0
2023-08-12 12:06:34.086347,-76.0
2023-08-12 12:06:34.094036,-64.0
2023-08-12 12:06:34.101726,-57.0
2023-08-12 12:06:34.109416,-50.0
2023-08-12 12:06:34.117106,-40.0
2023-08-12 12:06:34.124796,-33.0
2023-08-12 12:06:34.132485,-26.0
2023-08-12 12:06:34.140175,-21.0
2023-08-12 12:06:34.147865,-9.0
2023-08-12 12:06:34.155555,4.0
2023-08-12 12:06:34.163245,11.0
2023-08-12 12:06:34.170934,19.0
2023-08-12 12:06:34.178624,28.0
2023-08-12 12:06:34.186314,40.0
2023-08-12 12:06:34.194004,43.0
2023-08-12 12:06:34.201694,43.0
2023-08-12 12:06:34.209383,50.0
2023-08-12 12:06:34.217073,52.0
2023-08-12 12:06:34.224763,38.0
2023-08-12 12:06:34.232453,14.0
2023-08-12 12:06:34.240143,-21.0
2023-08-12 12:06:34.247832,-55.0
2023-08-12 12:06:34.255522,-83.0
2023-08-12 12:06:34.263212,-105.0
2023-08-12 12:06:34.270902,-122.0
2023-08-12 12:06:34.278592,-131.0
2023-08-12 12:06:34.286281,-139.0
2023-08-12 12:06:34.293971,-139.0
2023-08-12 12:06:34.301661,-134.0
2023-08-12 12:06:34.309351,-131.0
2023-08-12 12:06:34.317040,-129.0
2023-08-12 12:06:34.324730,-122.0
2023-08-12 12:06:34.332420,-117.0
2023-08-12 12:06:34.340110,-115.0
2023-08-12 12:06:34.347800,-110.0
2023-08-12 12:06:34.355489,-103.0
2023-08-12 12:06:34.363179,-103.0
2023-08-12 12:06:34.370869,-103.0
2023-08-12 12:06:34.378559,-100.0
2023-08-12 12:06:34.386249,-93.0
2023-08-12 12:06:34.393938,-88.0
2023-08-12 12:06:34.401628,-86.0
2023-08-12 12:06:34.409318,-88.0
2023-08-12 12:06:34.417008,-88.0
2023-08-12 12:06:34.424698,-86.0
2023-08-12 12:06:34.432387,-81.0
2023-08-12 12:06:34.440077,-81.0
2023-08-12 12:06:34.447767,-83.0
2023-08-12 12:06:34.455457,-83.0
2023-08-12 12:06:34.463147,-81.0
2023-08-12 12:06:34.470836,-81.0
2023-08-12 12:06:34.478526,-79.0
2023-08-12 12:06:34.486216,-74.0
2023-08-12 12:06:34.493906,-76.0
2023-08-12 12:06:34.501596,-76.0
2023-08-12 12:06:34.509285,-76.0
2023-08-12 12:06:34.516975,-76.0
2023-08-12 12:06:34.524665,-69.0
2023-08-12 12:06:34.532355,-62.0
2023-08-12 12:06:34.540045,-57.0
2023-08-12 12:06:34.547734,-47.0
2023-08-12 12:06:34.555424,-31.0
2023-08-12 12:06:34.563114,-11.0
2023-08-12 12:06:34.570804,7.0
2023-08-12 12:06:34.578494,-7.0
2023-08-12 12:06:34.586183,-43.0
2023-08-12 12:06:34.593873,-55.0
2023-08-12 12:06:34.601563,-55.0
2023-08-12 12:06:34.609253,-76.0
2023-08-12 12:06:34.616943,-100.0
2023-08-12 12:06:34.624632,-95.0
2023-08-12 12:06:34.632322,-83.0
2023-08-12 12:06:34.640012,-86.0
2023-08-12 12:06:34.647702,-93.0
2023-08-12 12:06:34.655392,-91.0
2023-08-12 12:06:34.663081,-86.0
2023-08-12 12:06:34.670771,-93.0
2023-08-12 12:06:34.678461,-115.0
2023-08-12 12:06:34.686151,-86.0
2023-08-12 12:06:34.693841,141.0
2023-08-12 12:06:34.701530,529.0
2023-08-12 12:06:34.709220,733.0
2023-08-12 12:06:34.716910,421.0
2023-08-12 12:06:34.724600,-167.0
2023-08-12 12:06:34.732290,-340.0
2023-08-12 12:06:34.739979,-105.0
2023-08-12 12:06:34.747669,-76.0
2023-08-12 12:06:34.755359,-186.0
2023-08-12 12:06:34.763049,-143.0
2023-08-12 12:06:34.770739,-105.0
2023-08-12 12:06:34.778428,-131.0
2023-08-12 12:06:34.786118,-119.0
2023-08-12 12:06:34.793808,-95.0
2023-08-12 12:06:34.801498,-95.0
2023-08-12 12:06:34.809188,-88.0
2023-08-12 12:06:34.816877,-76.0
2023-08-12 12:06:34.824567,-69.0
2023-08-12 12:06:34.832257,-57.0
2023-08-12 12:06:34.839947,-43.0
2023-08-12 12:06:34.847637,-35.0
2023-08-12 12:06:34.855326,-28.0
2023-08-12 12:06:34.863016,-16.0
2023-08-12 12:06:34.870706,-2.0
2023-08-12 12:06:34.878396,9.0
2023-08-12 12:06:34.886086,23.0
2023-08-12 12:06:34.893775,35.0
2023-08-12 12:06:34.901465,45.0
2023-08-12 12:06:34.909155,59.0
2023-08-12 12:06:34.916845,69.0
2023-08-12 12:06:34.924535,67.0
2023-08-12 12:06:34.932224,62.0
2023-08-12 12:06:34.939914,64.0
2023-08-12 12:06:34.947604,50.0
2023-08-12 12:06:34.955294,19.0
2023-08-12 12:06:34.962984,-16.0
2023-08-12 12:06:34.970673,-52.0
2023-08-12 12:06:34.978363,-88.0
2023-08-12 12:06:34.986053,-112.0
2023-08-12 12:06:34.993743,-127.0
2023-08-12 12:06:35.001433,-129.0
2023-08-12 12:06:35.009122,-131.0
2023-08-12 12:06:35.016812,-134.0
2023-08-12 12:06:35.024502,-134.0
2023-08-12 12:06:35.032192,-131.0
2023-08-12 12:06:35.039882,-127.0
2023-08-12 12:06:35.047571,-122.0
2023-08-12 12:06:35.055261,-117.0
2023-08-12 12:06:35.062951,-117.0
2023-08-12 12:06:35.070641,-117.0
2023-08-12 12:06:35.078331,-115.0
2023-08-12 12:06:35.086020,-107.0
2023-08-12 12:06:35.093710,-103.0
2023-08-12 12:06:35.101400,-100.0
2023-08-12 12:06:35.109090,-98.0
2023-08-12 12:06:35.116780,-95.0
2023-08-12 12:06:35.124469,-95.0
2023-08-12 12:06:35.132159,-95.0
2023-08-12 12:06:35.139849,-93.0
2023-08-12 12:06:35.147539,-91.0
2023-08-12 12:06:35.155229,-88.0
2023-08-12 12:06:35.162918,-91.0
2023-08-12 12:06:35.170608,-93.0
2023-08-12 12:06:35.178298,-95.0
2023-08-12 12:06:35.185988,-98.0
2023-08-12 12:06:35.193678,-95.0
2023-08-12 12:06:35.201367,-95.0
2023-08-12 12:06:35.209057,-95.0
2023-08-12 12:06:35.216747,-93.0
2023-08-12 12:06:35.224437,-91.0
2023-08-12 12:06:35.232127,-86.0
2023-08-12 12:06:35.239816,-76.0
2023-08-12 12:06:35.247506,-67.0
2023-08-12 12:06:35.255196,-59.0
2023-08-12 12:06:35.262886,-57.0
2023-08-12 12:06:35.270576,-43.0
2023-08-12 12:06:35.278265,-21.0
2023-08-12 12:06:35.285955,-31.0
2023-08-12 12:06:35.293645,-59.0
2023-08-12 12:06:35.301335,-74.0
2023-08-12 12:06:35.309025,-81.0
2023-08-12 12:06:35.316714,-98.0
2023-08-12 12:06:35.324404,-112.0
2023-08-12 12:06:35.332094,-112.0
2023-08-12 12:06:35.339784,-107.0
2023-08-12 12:06:35.347474,-112.0
2023-08-12 12:06:35.355163,-110.0
2023-08-12 12:06:35.362853,-105.0
2023-08-12 12:06:35.370543,-100.0
2023-08-12 12:06:35.378233,-105.0
2023-08-12 12:06:35.385923,-124.0
2023-08-12 12:06:35.393612,-107.0
2023-08-12 12:06:35.401302,112.0
2023-08-12 12:06:35.408992,520.0
2023-08-12 12:06:35.416682,752.0
2023-08-12 12:06:35.424372,467.0
2023-08-12 12:06:35.432061,-136.0
2023-08-12 12:06:35.439751,-340.0
2023-08-12 12:06:35.447441,-115.0
2023-08-12 12:06:35.455131,-79.0
2023-08-12 12:06:35.462821,-184.0
2023-08-12 12:06:35.470510,-146.0
2023-08-12 12:06:35.478200,-105.0
2023-08-12 12:06:35.485890,-134.0
2023-08-12 12:06:35.493580,-124.0
2023-08-12 12:06:35.501270,-98.0
2023-08-12 12:06:35.508959,-100.0
2023-08-12 12:06:35.516649,-95.0
2023-08-12 12:06:35.524339,-83.0
2023-08-12 12:06:35.532029,-76.0
2023-08-12 12:06:35.539719,-69.0
2023-08-12 12:06:35.547408,-57.0
2023-08-12 12:06:35.555098,-45.0
2023-08-12 12:06:35.562788,-33.0
2023-08-12 12:06:35.570478,-23.0
2023-08-12 12:06:35.578168,-14.0
2023-08-12 12:06:35.585857,-2.0
2023-08-12 12:06:35.593547,14.0
2023-08-12 12:06:35.601237,28.0
2023-08-12 12:06:35.608927,43.0
2023-08-12 12:06:35.616617,55.0
2023-08-12 12:06:35.624306,59.0
2023-08-12 12:06:35.631996,64.0
2023-08-12 12:06:35.639686,67.0
2023-08-12 12:06:35.647376,64.0
2023-08-12 12:06:35.655066,47.0
2023-08-12 12:06:35.662755,16.0
2023-08-12 12:06:35.670445,-26.0
2023-08-12 12:06:35.678135,-64.0
2023-08-12 12:06:35.685825,-100.0
2023-08-12 12:06:35.693515,-122.0
2023-08-12 12:06:35.701204,-134.0
2023-08-12 12:06:35.708894,-141.0
2023-08-12 12:06:35.716584,-146.0
2023-08-12 12:06:35.724274,-143.0
2023-08-12 12:06:35.731964,-139.0
2023-08-12 12:06:35.739653,-134.0
2023-08-12 12:06:35.747343,-127.0
2023-08-12 12:06:35.755033,-124.0
2023-08-12 12:06:35.762723,-124.0
2023-08-12 12:06:35.770413,-124.0
2023-08-12 12:06:35.778102,-119.0
2023-08-12 12:06:35.785792,-115.0
2023-08-12 12:06:35.793482,-115.0
2023-08-12 12:06:35.801172,-115.0
2023-08-12 12:06:35.808862,-110.0
2023-08-12 12:06:35.816551,-107.0
2023-08-12 12:06:35.824241,-103.0
2023-08-12 12:06:35.831931,-98.0
2023-08-12 12:06:35.839621,-100.0
2023-08-12 12:06:35.847311,-107.0
2023-08-12 12:06:35.855000,-107.0
2023-08-12 12:06:35.862690,-100.0
2023-08-12 12:06:35.870380,-100.0
2023-08-12 12:06:35.878070,-100.0
2023-08-12 12:06:35.885760,-103.0
2023-08-12 12:06:35.893449,-110.0
2023-08-12 12:06:35.901139,-115.0
2023-08-12 12:06:35.908829,-115.0
2023-08-12 12:06:35.916519,-115.0
2023-08-12 12:06:35.924209,-112.0
2023-08-12 12:06:35.931898,-115.0
2023-08-12 12:06:35.939588,-122.0
2023-08-12 12:06:35.947278,-117.0
2023-08-12 12:06:35.954968,-105.0
2023-08-12 12:06:35.962658,-95.0
2023-08-12 12:06:35.970347,-86.0
2023-08-12 12:06:35.978037,-71.0
2023-08-12 12:06:35.985727,-57.0
2023-08-12 12:06:35.993417,-38.0
2023-08-12 12:06:36.001107,-21.0
2023-08-12 12:06:36.008796,-40.0
2023-08-12 12:06:36.016486,-71.0
2023-08-12 12:06:36.024176,-88.0
2023-08-12 12:06:36.031866,-98.0
2023-08-12 12:06:36.039556,-112.0
2023-08-12 12:06:36.047245,-124.0
2023-08-12 12:06:36.054935,-124.0
2023-08-12 12:06:36.062625,-119.0
2023-08-12 12:06:36.070315,-127.0
2023-08-12 12:06:36.078005,-131.0
2023-08-12 12:06:36.085694,-124.0
2023-08-12 12:06:36.093384,-119.0
2023-08-12 12:06:36.101074,-127.0
2023-08-12 12:06:36.108764,-148.0
2023-08-12 12:06:36.116454,-107.0
2023-08-12 12:06:36.124143,150.0
2023-08-12 12:06:36.131833,563.0
2023-08-12 12:06:36.139523,750.0
2023-08-12 12:06:36.147213,385.0
2023-08-12 12:06:36.154903,-201.0
2023-08-12 12:06:36.162592,-299.0
2023-08-12 12:06:36.170282,-86.0
2023-08-12 12:06:36.177972,-122.0
2023-08-12 12:06:36.185662,-208.0
2023-08-12 12:06:36.193352,-143.0
2023-08-12 12:06:36.201041,-117.0
2023-08-12 12:06:36.208731,-146.0
2023-08-12 12:06:36.216421,-127.0
2023-08-12 12:06:36.224111,-103.0
2023-08-12 12:06:36.231801,-105.0
2023-08-12 12:06:36.239490,-95.0
2023-08-12 12:06:36.247180,-79.0
2023-08-12 12:06:36.254870,-76.0
2023-08-12 12:06:36.262560,-74.0
2023-08-12 12:06:36.270250,-59.0
2023-08-12 12:06:36.277939,-47.0
2023-08-12 12:06:36.285629,-40.0
2023-08-12 12:06:36.293319,-26.0
2023-08-12 12:06:36.301009,-16.0
2023-08-12 12:06:36.308699,-2.0
2023-08-12 12:06:36.316388,11.0
2023-08-12 12:06:36.324078,28.0
2023-08-12 12:06:36.331768,43.0
2023-08-12 12:06:36.339458,52.0
2023-08-12 12:06:36.347148,59.0
2023-08-12 12:06:36.354837,64.0
2023-08-12 12:06:36.362527,67.0
2023-08-12 12:06:36.370217,64.0
2023-08-12 12:06:36.377907,50.0
2023-08-12 12:06:36.385597,11.0
2023-08-12 12:06:36.393286,-35.0
2023-08-12 12:06:36.400976,-71.0
2023-08-12 12:06:36.408666,-105.0
2023-08-12 12:06:36.416356,-136.0
2023-08-12 12:06:36.424046,-146.0
2023-08-12 12:06:36.431735,-148.0
2023-08-12 12:06:36.439425,-150.0
2023-08-12 12:06:36.447115,-148.0
2023-08-12 12:06:36.454805,-141.0
2023-08-12 12:06:36.462495,-136.0
2023-08-12 12:06:36.470184,-131.0
2023-08-12 12:06:36.477874,-124.0
2023-08-12 12:06:36.485564,-119.0
2023-08-12 12:06:36.493254,-115.0
2023-08-12 12:06:36.500944,-112.0
2023-08-12 12:06:36.508633,-112.0
2023-08-12 12:06:36.516323,-112.0
2023-08-12 12:06:36.524013,-112.0
2023-08-12 12:06:36.531703,-110.0
2023-08-12 12:06:36.539393,-107.0
2023-08-12 12:06:36.547082,-107.0
2023-08-12 12:06:36.554772,-105.0
2023-08-12 12:06:36.562462,-103.0
2023-08-12 12:06:36.570152,-103.0
2023-08-12 12:06:36.577842,-100.0
2023-08-12 12:06:36.585531,-100.0
2023-08-12 12:06:36.593221,-98.0
2023-08-12 12:06:36.600911,-95.0
2023-08-12 12:06:36.608601,-95.0
2023-08-12 12:06:36.616291,-95.0
2023-08-12 12:06:36.623980,-93.0
2023-08-12 12:06:36.631670,-91.0
2023-08-12 12:06:36.639360,-91.0
2023-08-12 12:06:36.647050,-88.0
2023-08-12 12:06:36.654740,-88.0
2023-08-12 12:06:36.662429,-88.0
2023-08-12 12:06:36.670119,-86.0
2023-08-12 12:06:36.677809,-83.0
2023-08-12 12:06:36.685499,-83.0
2023-08-12 12:06:36.693189,-79.0
2023-08-12 12:06:36.700878,-69.0
2023-08-12 12:06:36.708568,-59.0
2023-08-12 12:06:36.716258,-50.0
2023-08-12 12:06:36.723948,-33.0
2023-08-12 12:06:36.731638,-9.0
2023-08-12 12:06:36.739327,2.0
2023-08-12 12:06:36.747017,-19.0
2023-08-12 12:06:36.754707,-50.0
2023-08-12 12:06:36.762397,-59.0
2023-08-12 12:06:36.770087,-67.0
2023-08-12 12:06:36.777776,-83.0
2023-08-12 12:06:36.785466,-100.0
2023-08-12 12:06:36.793156,-100.0
2023-08-12 12:06:36.800846,-95.0
2023-08-12 12:06:36.808536,-95.0
2023-08-12 12:06:36.816225,-95.0
2023-08-12 12:06:36.823915,-93.0
2023-08-12 12:06:36.831605,-91.0
2023-08-12 12:06:36.839295,-95.0
2023-08-12 12:06:36.846985,-117.0
2023-08-12 12:06:36.854674,-81.0
2023-08-12 12:06:36.862364,167.0
2023-08-12 12:06:36.870054,563.0
2023-08-12 12:06:36.877744,735.0
2023-08-12 12:06:36.885434,381.0
2023-08-12 12:06:36.893123,-184.0
2023-08-12 12:06:36.900813,-273.0
2023-08-12 12:06:36.908503,-64.0
2023-08-12 12:06:36.916193,-105.0
2023-08-12 12:06:36.923883,-196.0
