time,ECG
2023-12-20 13:59:45.899488,-107.0
2023-12-20 13:59:45.907177,-104.0
2023-12-20 13:59:45.914866,-112.0
2023-12-20 13:59:45.922555,-123.0
2023-12-20 13:59:45.930244,-126.0
2023-12-20 13:59:45.937933,-126.0
2023-12-20 13:59:45.945622,-126.0
2023-12-20 13:59:45.953311,-119.0
2023-12-20 13:59:45.961000,-107.0
2023-12-20 13:59:45.968689,-104.0
2023-12-20 13:59:45.976378,-104.0
2023-12-20 13:59:45.984067,-104.0
2023-12-20 13:59:45.991756,-95.0
2023-12-20 13:59:45.999445,-83.0
2023-12-20 13:59:46.007134,-81.0
2023-12-20 13:59:46.014823,-81.0
2023-12-20 13:59:46.022512,-83.0
2023-12-20 13:59:46.030201,-76.0
2023-12-20 13:59:46.037890,-47.0
2023-12-20 13:59:46.045579,-28.0
2023-12-20 13:59:46.053268,-30.0
2023-12-20 13:59:46.060957,-35.0
2023-12-20 13:59:46.068646,-30.0
2023-12-20 13:59:46.076335,-26.0
2023-12-20 13:59:46.084024,-21.0
2023-12-20 13:59:46.091713,-21.0
2023-12-20 13:59:46.099402,-23.0
2023-12-20 13:59:46.107091,-30.0
2023-12-20 13:59:46.114780,-45.0
2023-12-20 13:59:46.122469,-47.0
2023-12-20 13:59:46.130158,-40.0
2023-12-20 13:59:46.137847,-35.0
2023-12-20 13:59:46.145536,-33.0
2023-12-20 13:59:46.153225,-35.0
2023-12-20 13:59:46.160914,-38.0
2023-12-20 13:59:46.168603,-40.0
2023-12-20 13:59:46.176292,-38.0
2023-12-20 13:59:46.183980,-38.0
2023-12-20 13:59:46.191669,-38.0
2023-12-20 13:59:46.199358,-38.0
2023-12-20 13:59:46.207047,-47.0
2023-12-20 13:59:46.214736,-61.0
2023-12-20 13:59:46.222425,-59.0
2023-12-20 13:59:46.230114,-47.0
2023-12-20 13:59:46.237803,-54.0
2023-12-20 13:59:46.245492,-71.0
2023-12-20 13:59:46.253181,-71.0
2023-12-20 13:59:46.260870,-66.0
2023-12-20 13:59:46.268559,-69.0
2023-12-20 13:59:46.276248,-61.0
2023-12-20 13:59:46.283937,-42.0
2023-12-20 13:59:46.291626,-30.0
2023-12-20 13:59:46.299315,-30.0
2023-12-20 13:59:46.307004,-30.0
2023-12-20 13:59:46.314693,-30.0
2023-12-20 13:59:46.322382,-33.0
2023-12-20 13:59:46.330071,-28.0
2023-12-20 13:59:46.337760,-26.0
2023-12-20 13:59:46.345449,-42.0
2023-12-20 13:59:46.353138,-135.0
2023-12-20 13:59:46.360827,-331.0
2023-12-20 13:59:46.368516,-431.0
2023-12-20 13:59:46.376205,-207.0
2023-12-20 13:59:46.383894,145.0
2023-12-20 13:59:46.391583,276.0
2023-12-20 13:59:46.399272,216.0
2023-12-20 13:59:46.406961,121.0
2023-12-20 13:59:46.414650,7.0
2023-12-20 13:59:46.422339,-95.0
2023-12-20 13:59:46.430028,-143.0
2023-12-20 13:59:46.437717,-135.0
2023-12-20 13:59:46.445406,-121.0
2023-12-20 13:59:46.453095,-114.0
2023-12-20 13:59:46.460784,-119.0
2023-12-20 13:59:46.468473,-150.0
2023-12-20 13:59:46.476162,-174.0
2023-12-20 13:59:46.483851,-159.0
2023-12-20 13:59:46.491540,-138.0
2023-12-20 13:59:46.499229,-138.0
2023-12-20 13:59:46.506918,-154.0
2023-12-20 13:59:46.514607,-178.0
2023-12-20 13:59:46.522296,-190.0
2023-12-20 13:59:46.529985,-174.0
2023-12-20 13:59:46.537674,-157.0
2023-12-20 13:59:46.545363,-147.0
2023-12-20 13:59:46.553052,-140.0
2023-12-20 13:59:46.560741,-159.0
2023-12-20 13:59:46.568430,-171.0
2023-12-20 13:59:46.576119,-145.0
2023-12-20 13:59:46.583808,-119.0
2023-12-20 13:59:46.591497,-121.0
2023-12-20 13:59:46.599186,-131.0
2023-12-20 13:59:46.606875,-128.0
2023-12-20 13:59:46.614564,-109.0
2023-12-20 13:59:46.622253,-92.0
2023-12-20 13:59:46.629942,-81.0
2023-12-20 13:59:46.637631,-66.0
2023-12-20 13:59:46.645320,-61.0
2023-12-20 13:59:46.653009,-66.0
2023-12-20 13:59:46.660698,-69.0
2023-12-20 13:59:46.668387,-61.0
2023-12-20 13:59:46.676076,-54.0
2023-12-20 13:59:46.683765,-54.0
2023-12-20 13:59:46.691453,-61.0
2023-12-20 13:59:46.699142,-61.0
2023-12-20 13:59:46.706831,-66.0
2023-12-20 13:59:46.714520,-83.0
2023-12-20 13:59:46.722209,-90.0
2023-12-20 13:59:46.729898,-71.0
2023-12-20 13:59:46.737587,-61.0
2023-12-20 13:59:46.745276,-66.0
2023-12-20 13:59:46.752965,-57.0
2023-12-20 13:59:46.760654,-57.0
2023-12-20 13:59:46.768343,-59.0
2023-12-20 13:59:46.776032,-50.0
2023-12-20 13:59:46.783721,-50.0
2023-12-20 13:59:46.791410,-54.0
2023-12-20 13:59:46.799099,-45.0
2023-12-20 13:59:46.806788,-35.0
2023-12-20 13:59:46.814477,-40.0
2023-12-20 13:59:46.822166,-40.0
2023-12-20 13:59:46.829855,-45.0
2023-12-20 13:59:46.837544,-59.0
2023-12-20 13:59:46.845233,-66.0
2023-12-20 13:59:46.852922,-54.0
2023-12-20 13:59:46.860611,-33.0
2023-12-20 13:59:46.868300,-14.0
2023-12-20 13:59:46.875989,-16.0
2023-12-20 13:59:46.883678,-26.0
2023-12-20 13:59:46.891367,-19.0
2023-12-20 13:59:46.899056,-23.0
2023-12-20 13:59:46.906745,-33.0
2023-12-20 13:59:46.914434,-23.0
2023-12-20 13:59:46.922123,-21.0
2023-12-20 13:59:46.929812,-95.0
2023-12-20 13:59:46.937501,-267.0
2023-12-20 13:59:46.945190,-393.0
2023-12-20 13:59:46.952879,-226.0
2023-12-20 13:59:46.960568,121.0
2023-12-20 13:59:46.968257,278.0
2023-12-20 13:59:46.975946,238.0
2023-12-20 13:59:46.983635,159.0
2023-12-20 13:59:46.991324,47.0
2023-12-20 13:59:46.999013,-61.0
2023-12-20 13:59:47.006702,-90.0
2023-12-20 13:59:47.014391,-73.0
2023-12-20 13:59:47.022080,-85.0
2023-12-20 13:59:47.029769,-90.0
2023-12-20 13:59:47.037458,-71.0
2023-12-20 13:59:47.045147,-73.0
2023-12-20 13:59:47.052836,-90.0
2023-12-20 13:59:47.060525,-90.0
2023-12-20 13:59:47.068214,-81.0
2023-12-20 13:59:47.075903,-81.0
2023-12-20 13:59:47.083592,-81.0
2023-12-20 13:59:47.091281,-73.0
2023-12-20 13:59:47.098970,-81.0
2023-12-20 13:59:47.106659,-90.0
2023-12-20 13:59:47.114348,-92.0
2023-12-20 13:59:47.122037,-83.0
2023-12-20 13:59:47.129726,-71.0
2023-12-20 13:59:47.137415,-69.0
2023-12-20 13:59:47.145104,-73.0
2023-12-20 13:59:47.152793,-69.0
2023-12-20 13:59:47.160482,-71.0
2023-12-20 13:59:47.168171,-78.0
2023-12-20 13:59:47.175860,-73.0
2023-12-20 13:59:47.183549,-66.0
2023-12-20 13:59:47.191237,-61.0
2023-12-20 13:59:47.198926,-45.0
2023-12-20 13:59:47.206615,-23.0
2023-12-20 13:59:47.214304,-23.0
2023-12-20 13:59:47.221993,-40.0
2023-12-20 13:59:47.229682,-42.0
2023-12-20 13:59:47.237371,-35.0
2023-12-20 13:59:47.245060,-38.0
2023-12-20 13:59:47.252749,-40.0
2023-12-20 13:59:47.260438,-38.0
2023-12-20 13:59:47.268127,-35.0
2023-12-20 13:59:47.275816,-38.0
2023-12-20 13:59:47.283505,-42.0
2023-12-20 13:59:47.291194,-35.0
2023-12-20 13:59:47.298883,-26.0
2023-12-20 13:59:47.306572,-23.0
2023-12-20 13:59:47.314261,-26.0
2023-12-20 13:59:47.321950,-26.0
2023-12-20 13:59:47.329639,-26.0
2023-12-20 13:59:47.337328,-26.0
2023-12-20 13:59:47.345017,-23.0
2023-12-20 13:59:47.352706,-19.0
2023-12-20 13:59:47.360395,-19.0
2023-12-20 13:59:47.368084,-21.0
2023-12-20 13:59:47.375773,-19.0
2023-12-20 13:59:47.383462,-21.0
2023-12-20 13:59:47.391151,-33.0
2023-12-20 13:59:47.398840,-47.0
2023-12-20 13:59:47.406529,-52.0
2023-12-20 13:59:47.414218,-52.0
2023-12-20 13:59:47.421907,-54.0
2023-12-20 13:59:47.429596,-45.0
2023-12-20 13:59:47.437285,-30.0
2023-12-20 13:59:47.444974,-9.0
2023-12-20 13:59:47.452663,2.0
2023-12-20 13:59:47.460352,-9.0
2023-12-20 13:59:47.468041,-30.0
2023-12-20 13:59:47.475730,-21.0
2023-12-20 13:59:47.483419,-2.0
2023-12-20 13:59:47.491108,-2.0
2023-12-20 13:59:47.498797,-14.0
2023-12-20 13:59:47.506486,-73.0
2023-12-20 13:59:47.514175,-214.0
2023-12-20 13:59:47.521864,-367.0
2023-12-20 13:59:47.529553,-298.0
2023-12-20 13:59:47.537242,30.0
2023-12-20 13:59:47.544931,278.0
2023-12-20 13:59:47.552620,281.0
2023-12-20 13:59:47.560309,200.0
2023-12-20 13:59:47.567998,88.0
2023-12-20 13:59:47.575687,-42.0
2023-12-20 13:59:47.583376,-92.0
2023-12-20 13:59:47.591065,-76.0
2023-12-20 13:59:47.598754,-76.0
2023-12-20 13:59:47.606443,-88.0
2023-12-20 13:59:47.614132,-85.0
2023-12-20 13:59:47.621821,-76.0
2023-12-20 13:59:47.629510,-73.0
2023-12-20 13:59:47.637199,-85.0
2023-12-20 13:59:47.644888,-95.0
2023-12-20 13:59:47.652577,-88.0
2023-12-20 13:59:47.660266,-88.0
2023-12-20 13:59:47.667955,-100.0
2023-12-20 13:59:47.675644,-97.0
2023-12-20 13:59:47.683333,-90.0
2023-12-20 13:59:47.691021,-95.0
2023-12-20 13:59:47.698710,-95.0
2023-12-20 13:59:47.706399,-85.0
2023-12-20 13:59:47.714088,-88.0
2023-12-20 13:59:47.721777,-104.0
2023-12-20 13:59:47.729466,-119.0
2023-12-20 13:59:47.737155,-116.0
2023-12-20 13:59:47.744844,-109.0
2023-12-20 13:59:47.752533,-114.0
2023-12-20 13:59:47.760222,-116.0
2023-12-20 13:59:47.767911,-100.0
2023-12-20 13:59:47.775600,-71.0
2023-12-20 13:59:47.783289,-52.0
2023-12-20 13:59:47.790978,-47.0
2023-12-20 13:59:47.798667,-38.0
2023-12-20 13:59:47.806356,-30.0
2023-12-20 13:59:47.814045,-30.0
2023-12-20 13:59:47.821734,-35.0
2023-12-20 13:59:47.829423,-38.0
2023-12-20 13:59:47.837112,-35.0
2023-12-20 13:59:47.844801,-38.0
2023-12-20 13:59:47.852490,-38.0
2023-12-20 13:59:47.860179,-38.0
2023-12-20 13:59:47.867868,-40.0
2023-12-20 13:59:47.875557,-45.0
2023-12-20 13:59:47.883246,-54.0
2023-12-20 13:59:47.890935,-57.0
2023-12-20 13:59:47.898624,-47.0
2023-12-20 13:59:47.906313,-40.0
2023-12-20 13:59:47.914002,-45.0
2023-12-20 13:59:47.921691,-45.0
2023-12-20 13:59:47.929380,-30.0
2023-12-20 13:59:47.937069,-23.0
2023-12-20 13:59:47.944758,-40.0
2023-12-20 13:59:47.952447,-47.0
2023-12-20 13:59:47.960136,-38.0
2023-12-20 13:59:47.967825,-38.0
2023-12-20 13:59:47.975514,-45.0
2023-12-20 13:59:47.983203,-52.0
2023-12-20 13:59:47.990892,-57.0
2023-12-20 13:59:47.998581,-61.0
2023-12-20 13:59:48.006270,-69.0
2023-12-20 13:59:48.013959,-64.0
2023-12-20 13:59:48.021648,-30.0
2023-12-20 13:59:48.029337,-7.0
2023-12-20 13:59:48.037026,-16.0
2023-12-20 13:59:48.044715,-26.0
2023-12-20 13:59:48.052404,-28.0
2023-12-20 13:59:48.060093,-33.0
2023-12-20 13:59:48.067782,-28.0
2023-12-20 13:59:48.075471,-9.0
2023-12-20 13:59:48.083160,-35.0
2023-12-20 13:59:48.090849,-162.0
2023-12-20 13:59:48.098538,-343.0
2023-12-20 13:59:48.106227,-381.0
2023-12-20 13:59:48.113916,-128.0
2023-12-20 13:59:48.121605,185.0
2023-12-20 13:59:48.129294,264.0
2023-12-20 13:59:48.136983,195.0
2023-12-20 13:59:48.144672,109.0
2023-12-20 13:59:48.152361,-9.0
2023-12-20 13:59:48.160050,-100.0
2023-12-20 13:59:48.167739,-116.0
2023-12-20 13:59:48.175428,-121.0
2023-12-20 13:59:48.183117,-140.0
2023-12-20 13:59:48.190806,-143.0
2023-12-20 13:59:48.198494,-133.0
2023-12-20 13:59:48.206183,-135.0
2023-12-20 13:59:48.213872,-140.0
2023-12-20 13:59:48.221561,-154.0
2023-12-20 13:59:48.229250,-169.0
2023-12-20 13:59:48.236939,-159.0
2023-12-20 13:59:48.244628,-145.0
2023-12-20 13:59:48.252317,-143.0
2023-12-20 13:59:48.260006,-140.0
2023-12-20 13:59:48.267695,-140.0
2023-12-20 13:59:48.275384,-145.0
2023-12-20 13:59:48.283073,-138.0
2023-12-20 13:59:48.290762,-123.0
2023-12-20 13:59:48.298451,-116.0
2023-12-20 13:59:48.306140,-121.0
2023-12-20 13:59:48.313829,-133.0
2023-12-20 13:59:48.321518,-135.0
2023-12-20 13:59:48.329207,-133.0
2023-12-20 13:59:48.336896,-131.0
2023-12-20 13:59:48.344585,-128.0
2023-12-20 13:59:48.352274,-119.0
2023-12-20 13:59:48.359963,-104.0
2023-12-20 13:59:48.367652,-83.0
2023-12-20 13:59:48.375341,-69.0
2023-12-20 13:59:48.383030,-73.0
2023-12-20 13:59:48.390719,-71.0
2023-12-20 13:59:48.398408,-69.0
2023-12-20 13:59:48.406097,-81.0
2023-12-20 13:59:48.413786,-83.0
2023-12-20 13:59:48.421475,-66.0
2023-12-20 13:59:48.429164,-61.0
2023-12-20 13:59:48.436853,-66.0
2023-12-20 13:59:48.444542,-69.0
2023-12-20 13:59:48.452231,-69.0
2023-12-20 13:59:48.459920,-64.0
2023-12-20 13:59:48.467609,-57.0
2023-12-20 13:59:48.475298,-52.0
2023-12-20 13:59:48.482987,-64.0
2023-12-20 13:59:48.490676,-81.0
2023-12-20 13:59:48.498365,-71.0
2023-12-20 13:59:48.506054,-54.0
2023-12-20 13:59:48.513743,-54.0
2023-12-20 13:59:48.521432,-52.0
2023-12-20 13:59:48.529121,-38.0
2023-12-20 13:59:48.536810,-42.0
2023-12-20 13:59:48.544499,-61.0
2023-12-20 13:59:48.552188,-66.0
2023-12-20 13:59:48.559877,-61.0
2023-12-20 13:59:48.567566,-66.0
2023-12-20 13:59:48.575255,-73.0
2023-12-20 13:59:48.582944,-83.0
2023-12-20 13:59:48.590633,-81.0
2023-12-20 13:59:48.598322,-59.0
2023-12-20 13:59:48.606011,-38.0
2023-12-20 13:59:48.613700,-30.0
2023-12-20 13:59:48.621389,-50.0
2023-12-20 13:59:48.629078,-73.0
2023-12-20 13:59:48.636767,-73.0
2023-12-20 13:59:48.644456,-59.0
2023-12-20 13:59:48.652145,-42.0
2023-12-20 13:59:48.659834,-38.0
2023-12-20 13:59:48.667523,-88.0
2023-12-20 13:59:48.675212,-255.0
2023-12-20 13:59:48.682901,-453.0
2023-12-20 13:59:48.690590,-424.0
2023-12-20 13:59:48.698278,-90.0
2023-12-20 13:59:48.705967,214.0
2023-12-20 13:59:48.713656,255.0
2023-12-20 13:59:48.721345,178.0
2023-12-20 13:59:48.729034,69.0
2023-12-20 13:59:48.736723,-81.0
2023-12-20 13:59:48.744412,-150.0
2023-12-20 13:59:48.752101,-126.0
2023-12-20 13:59:48.759790,-119.0
2023-12-20 13:59:48.767479,-140.0
2023-12-20 13:59:48.775168,-143.0
2023-12-20 13:59:48.782857,-126.0
2023-12-20 13:59:48.790546,-123.0
2023-12-20 13:59:48.798235,-133.0
2023-12-20 13:59:48.805924,-135.0
2023-12-20 13:59:48.813613,-140.0
2023-12-20 13:59:48.821302,-138.0
2023-12-20 13:59:48.828991,-126.0
2023-12-20 13:59:48.836680,-116.0
2023-12-20 13:59:48.844369,-116.0
2023-12-20 13:59:48.852058,-131.0
2023-12-20 13:59:48.859747,-147.0
2023-12-20 13:59:48.867436,-145.0
2023-12-20 13:59:48.875125,-138.0
2023-12-20 13:59:48.882814,-138.0
2023-12-20 13:59:48.890503,-143.0
2023-12-20 13:59:48.898192,-140.0
2023-12-20 13:59:48.905881,-135.0
2023-12-20 13:59:48.913570,-131.0
2023-12-20 13:59:48.921259,-119.0
2023-12-20 13:59:48.928948,-92.0
2023-12-20 13:59:48.936637,-85.0
2023-12-20 13:59:48.944326,-92.0
2023-12-20 13:59:48.952015,-81.0
2023-12-20 13:59:48.959704,-59.0
2023-12-20 13:59:48.967393,-52.0
2023-12-20 13:59:48.975082,-50.0
2023-12-20 13:59:48.982771,-50.0
2023-12-20 13:59:48.990460,-54.0
2023-12-20 13:59:48.998149,-61.0
2023-12-20 13:59:49.005838,-54.0
2023-12-20 13:59:49.013527,-38.0
2023-12-20 13:59:49.021216,-38.0
2023-12-20 13:59:49.028905,-57.0
2023-12-20 13:59:49.036594,-66.0
2023-12-20 13:59:49.044283,-59.0
2023-12-20 13:59:49.051972,-54.0
2023-12-20 13:59:49.059661,-54.0
2023-12-20 13:59:49.067350,-45.0
2023-12-20 13:59:49.075039,-33.0
2023-12-20 13:59:49.082728,-35.0
2023-12-20 13:59:49.090417,-40.0
2023-12-20 13:59:49.098106,-35.0
2023-12-20 13:59:49.105795,-35.0
2023-12-20 13:59:49.113484,-50.0
2023-12-20 13:59:49.121173,-59.0
2023-12-20 13:59:49.128862,-45.0
2023-12-20 13:59:49.136551,-42.0
2023-12-20 13:59:49.144240,-66.0
2023-12-20 13:59:49.151929,-69.0
2023-12-20 13:59:49.159618,-54.0
2023-12-20 13:59:49.167307,-57.0
2023-12-20 13:59:49.174996,-61.0
2023-12-20 13:59:49.182685,-45.0
2023-12-20 13:59:49.190374,-26.0
2023-12-20 13:59:49.198062,-23.0
2023-12-20 13:59:49.205751,-30.0
2023-12-20 13:59:49.213440,-47.0
2023-12-20 13:59:49.221129,-61.0
2023-12-20 13:59:49.228818,-66.0
2023-12-20 13:59:49.236507,-76.0
2023-12-20 13:59:49.244196,-109.0
2023-12-20 13:59:49.251885,-231.0
2023-12-20 13:59:49.259574,-429.0
2023-12-20 13:59:49.267263,-448.0
2023-12-20 13:59:49.274952,-123.0
2023-12-20 13:59:49.282641,214.0
2023-12-20 13:59:49.290330,271.0
2023-12-20 13:59:49.298019,202.0
2023-12-20 13:59:49.305708,107.0
2023-12-20 13:59:49.313397,-35.0
2023-12-20 13:59:49.321086,-112.0
2023-12-20 13:59:49.328775,-92.0
2023-12-20 13:59:49.336464,-85.0
2023-12-20 13:59:49.344153,-100.0
2023-12-20 13:59:49.351842,-109.0
2023-12-20 13:59:49.359531,-114.0
2023-12-20 13:59:49.367220,-119.0
2023-12-20 13:59:49.374909,-114.0
2023-12-20 13:59:49.382598,-109.0
2023-12-20 13:59:49.390287,-107.0
2023-12-20 13:59:49.397976,-104.0
2023-12-20 13:59:49.405665,-100.0
2023-12-20 13:59:49.413354,-100.0
2023-12-20 13:59:49.421043,-102.0
2023-12-20 13:59:49.428732,-116.0
2023-12-20 13:59:49.436421,-126.0
2023-12-20 13:59:49.444110,-116.0
2023-12-20 13:59:49.451799,-102.0
2023-12-20 13:59:49.459488,-116.0
2023-12-20 13:59:49.467177,-128.0
2023-12-20 13:59:49.474866,-112.0
2023-12-20 13:59:49.482555,-102.0
2023-12-20 13:59:49.490244,-100.0
2023-12-20 13:59:49.497933,-90.0
2023-12-20 13:59:49.505622,-81.0
2023-12-20 13:59:49.513311,-69.0
2023-12-20 13:59:49.521000,-50.0
2023-12-20 13:59:49.528689,-38.0
2023-12-20 13:59:49.536378,-33.0
2023-12-20 13:59:49.544067,-19.0
2023-12-20 13:59:49.551756,-7.0
2023-12-20 13:59:49.559445,-19.0
2023-12-20 13:59:49.567134,-30.0
2023-12-20 13:59:49.574823,-21.0
2023-12-20 13:59:49.582512,-9.0
2023-12-20 13:59:49.590201,-16.0
2023-12-20 13:59:49.597890,-30.0
2023-12-20 13:59:49.605579,-38.0
2023-12-20 13:59:49.613268,-40.0
2023-12-20 13:59:49.620957,-42.0
2023-12-20 13:59:49.628646,-35.0
2023-12-20 13:59:49.636335,-30.0
2023-12-20 13:59:49.644024,-40.0
2023-12-20 13:59:49.651713,-42.0
2023-12-20 13:59:49.659402,-30.0
2023-12-20 13:59:49.667091,-26.0
2023-12-20 13:59:49.674780,-28.0
2023-12-20 13:59:49.682469,-16.0
2023-12-20 13:59:49.690158,-4.0
2023-12-20 13:59:49.697847,-14.0
2023-12-20 13:59:49.705535,-28.0
2023-12-20 13:59:49.713224,-21.0
2023-12-20 13:59:49.720913,-16.0
2023-12-20 13:59:49.728602,-35.0
2023-12-20 13:59:49.736291,-64.0
2023-12-20 13:59:49.743980,-92.0
2023-12-20 13:59:49.751669,-104.0
2023-12-20 13:59:49.759358,-97.0
2023-12-20 13:59:49.767047,-78.0
2023-12-20 13:59:49.774736,-61.0
2023-12-20 13:59:49.782425,-47.0
2023-12-20 13:59:49.790114,-42.0
2023-12-20 13:59:49.797803,-50.0
2023-12-20 13:59:49.805492,-50.0
2023-12-20 13:59:49.813181,-45.0
2023-12-20 13:59:49.820870,-52.0
2023-12-20 13:59:49.828559,-81.0
2023-12-20 13:59:49.836248,-190.0
2023-12-20 13:59:49.843937,-376.0
2023-12-20 13:59:49.851626,-398.0
2023-12-20 13:59:49.859315,-88.0
2023-12-20 13:59:49.867004,233.0
2023-12-20 13:59:49.874693,274.0
2023-12-20 13:59:49.882382,183.0
2023-12-20 13:59:49.890071,95.0
2023-12-20 13:59:49.897760,-11.0
2023-12-20 13:59:49.905449,-78.0
2023-12-20 13:59:49.913138,-78.0
2023-12-20 13:59:49.920827,-73.0
2023-12-20 13:59:49.928516,-90.0
2023-12-20 13:59:49.936205,-102.0
2023-12-20 13:59:49.943894,-95.0
2023-12-20 13:59:49.951583,-78.0
2023-12-20 13:59:49.959272,-73.0
2023-12-20 13:59:49.966961,-85.0
2023-12-20 13:59:49.974650,-92.0
2023-12-20 13:59:49.982339,-85.0
2023-12-20 13:59:49.990028,-78.0
2023-12-20 13:59:49.997717,-83.0
2023-12-20 13:59:50.005406,-92.0
2023-12-20 13:59:50.013095,-100.0
2023-12-20 13:59:50.020784,-109.0
2023-12-20 13:59:50.028473,-121.0
2023-12-20 13:59:50.036162,-123.0
2023-12-20 13:59:50.043851,-109.0
2023-12-20 13:59:50.051540,-90.0
2023-12-20 13:59:50.059229,-88.0
2023-12-20 13:59:50.066918,-102.0
2023-12-20 13:59:50.074607,-100.0
2023-12-20 13:59:50.082296,-78.0
2023-12-20 13:59:50.089985,-69.0
2023-12-20 13:59:50.097674,-66.0
2023-12-20 13:59:50.105363,-59.0
2023-12-20 13:59:50.113052,-42.0
2023-12-20 13:59:50.120741,-30.0
2023-12-20 13:59:50.128430,-26.0
2023-12-20 13:59:50.136119,-21.0
2023-12-20 13:59:50.143808,-19.0
2023-12-20 13:59:50.151497,-19.0
2023-12-20 13:59:50.159186,-28.0
2023-12-20 13:59:50.166875,-35.0
2023-12-20 13:59:50.174564,-23.0
2023-12-20 13:59:50.182253,-14.0
2023-12-20 13:59:50.189942,-14.0
2023-12-20 13:59:50.197631,-19.0
2023-12-20 13:59:50.205319,-33.0
2023-12-20 13:59:50.213008,-35.0
2023-12-20 13:59:50.220697,-19.0
2023-12-20 13:59:50.228386,-16.0
2023-12-20 13:59:50.236075,-30.0
2023-12-20 13:59:50.243764,-40.0
2023-12-20 13:59:50.251453,-45.0
2023-12-20 13:59:50.259142,-40.0
2023-12-20 13:59:50.266831,-19.0
2023-12-20 13:59:50.274520,-11.0
2023-12-20 13:59:50.282209,-23.0
2023-12-20 13:59:50.289898,-52.0
2023-12-20 13:59:50.297587,-76.0
2023-12-20 13:59:50.305276,-78.0
2023-12-20 13:59:50.312965,-69.0
2023-12-20 13:59:50.320654,-81.0
2023-12-20 13:59:50.328343,-88.0
2023-12-20 13:59:50.336032,-73.0
2023-12-20 13:59:50.343721,-59.0
2023-12-20 13:59:50.351410,-50.0
2023-12-20 13:59:50.359099,-38.0
2023-12-20 13:59:50.366788,-26.0
2023-12-20 13:59:50.374477,-30.0
2023-12-20 13:59:50.382166,-47.0
2023-12-20 13:59:50.389855,-50.0
2023-12-20 13:59:50.397544,-26.0
2023-12-20 13:59:50.405233,-28.0
2023-12-20 13:59:50.412922,-78.0
2023-12-20 13:59:50.420611,-202.0
2023-12-20 13:59:50.428300,-362.0
2023-12-20 13:59:50.435989,-309.0
2023-12-20 13:59:50.443678,26.0
2023-12-20 13:59:50.451367,271.0
2023-12-20 13:59:50.459056,267.0
2023-12-20 13:59:50.466745,193.0
2023-12-20 13:59:50.474434,95.0
2023-12-20 13:59:50.482123,-33.0
2023-12-20 13:59:50.489812,-85.0
2023-12-20 13:59:50.497501,-69.0
2023-12-20 13:59:50.505190,-71.0
2023-12-20 13:59:50.512879,-88.0
2023-12-20 13:59:50.520568,-85.0
2023-12-20 13:59:50.528257,-78.0
2023-12-20 13:59:50.535946,-81.0
2023-12-20 13:59:50.543635,-78.0
2023-12-20 13:59:50.551324,-69.0
2023-12-20 13:59:50.559013,-76.0
2023-12-20 13:59:50.566702,-95.0
2023-12-20 13:59:50.574391,-88.0
2023-12-20 13:59:50.582080,-76.0
2023-12-20 13:59:50.589769,-104.0
2023-12-20 13:59:50.597458,-126.0
2023-12-20 13:59:50.605147,-121.0
2023-12-20 13:59:50.612836,-126.0
2023-12-20 13:59:50.620525,-128.0
2023-12-20 13:59:50.628214,-107.0
2023-12-20 13:59:50.635903,-92.0
2023-12-20 13:59:50.643592,-95.0
2023-12-20 13:59:50.651281,-97.0
2023-12-20 13:59:50.658970,-95.0
2023-12-20 13:59:50.666659,-85.0
2023-12-20 13:59:50.674348,-64.0
2023-12-20 13:59:50.682037,-47.0
2023-12-20 13:59:50.689726,-38.0
2023-12-20 13:59:50.697415,-30.0
2023-12-20 13:59:50.705103,-19.0
2023-12-20 13:59:50.712792,-9.0
2023-12-20 13:59:50.720481,0.0
2023-12-20 13:59:50.728170,9.0
2023-12-20 13:59:50.735859,2.0
2023-12-20 13:59:50.743548,-23.0
2023-12-20 13:59:50.751237,-40.0
2023-12-20 13:59:50.758926,-30.0
2023-12-20 13:59:50.766615,-26.0
2023-12-20 13:59:50.774304,-28.0
2023-12-20 13:59:50.781993,-28.0
2023-12-20 13:59:50.789682,-26.0
2023-12-20 13:59:50.797371,-23.0
2023-12-20 13:59:50.805060,-21.0
2023-12-20 13:59:50.812749,-21.0
2023-12-20 13:59:50.820438,-21.0
2023-12-20 13:59:50.828127,-14.0
2023-12-20 13:59:50.835816,-7.0
2023-12-20 13:59:50.843505,-19.0
2023-12-20 13:59:50.851194,-28.0
2023-12-20 13:59:50.858883,-19.0
2023-12-20 13:59:50.866572,-11.0
2023-12-20 13:59:50.874261,-30.0
2023-12-20 13:59:50.881950,-59.0
2023-12-20 13:59:50.889639,-73.0
2023-12-20 13:59:50.897328,-66.0
2023-12-20 13:59:50.905017,-57.0
2023-12-20 13:59:50.912706,-57.0
2023-12-20 13:59:50.920395,-61.0
2023-12-20 13:59:50.928084,-59.0
2023-12-20 13:59:50.935773,-45.0
2023-12-20 13:59:50.943462,-33.0
2023-12-20 13:59:50.951151,-26.0
2023-12-20 13:59:50.958840,-23.0
2023-12-20 13:59:50.966529,-19.0
2023-12-20 13:59:50.974218,-21.0
2023-12-20 13:59:50.981907,-33.0
2023-12-20 13:59:50.989596,-33.0
2023-12-20 13:59:50.997285,-42.0
2023-12-20 13:59:51.004974,-152.0
2023-12-20 13:59:51.012663,-340.0
2023-12-20 13:59:51.020352,-367.0
2023-12-20 13:59:51.028041,-73.0
2023-12-20 13:59:51.035730,224.0
2023-12-20 13:59:51.043419,269.0
2023-12-20 13:59:51.051108,219.0
2023-12-20 13:59:51.058797,154.0
2023-12-20 13:59:51.066486,21.0
2023-12-20 13:59:51.074175,-81.0
2023-12-20 13:59:51.081864,-95.0
2023-12-20 13:59:51.089553,-92.0
2023-12-20 13:59:51.097242,-100.0
2023-12-20 13:59:51.104931,-95.0
2023-12-20 13:59:51.112620,-95.0
2023-12-20 13:59:51.120309,-100.0
2023-12-20 13:59:51.127998,-95.0
2023-12-20 13:59:51.135687,-95.0
2023-12-20 13:59:51.143376,-104.0
2023-12-20 13:59:51.151065,-107.0
2023-12-20 13:59:51.158754,-104.0
2023-12-20 13:59:51.166443,-112.0
2023-12-20 13:59:51.174132,-121.0
2023-12-20 13:59:51.181821,-121.0
2023-12-20 13:59:51.189510,-131.0
2023-12-20 13:59:51.197199,-140.0
2023-12-20 13:59:51.204888,-133.0
2023-12-20 13:59:51.212576,-121.0
2023-12-20 13:59:51.220265,-121.0
2023-12-20 13:59:51.227954,-114.0
2023-12-20 13:59:51.235643,-107.0
2023-12-20 13:59:51.243332,-112.0
2023-12-20 13:59:51.251021,-123.0
2023-12-20 13:59:51.258710,-121.0
2023-12-20 13:59:51.266399,-102.0
2023-12-20 13:59:51.274088,-78.0
2023-12-20 13:59:51.281777,-66.0
2023-12-20 13:59:51.289466,-59.0
2023-12-20 13:59:51.297155,-38.0
2023-12-20 13:59:51.304844,-38.0
2023-12-20 13:59:51.312533,-50.0
2023-12-20 13:59:51.320222,-45.0
2023-12-20 13:59:51.327911,-47.0
2023-12-20 13:59:51.335600,-57.0
2023-12-20 13:59:51.343289,-50.0
2023-12-20 13:59:51.350978,-50.0
2023-12-20 13:59:51.358667,-50.0
2023-12-20 13:59:51.366356,-42.0
2023-12-20 13:59:51.374045,-52.0
2023-12-20 13:59:51.381734,-64.0
2023-12-20 13:59:51.389423,-50.0
2023-12-20 13:59:51.397112,-45.0
2023-12-20 13:59:51.404801,-57.0
2023-12-20 13:59:51.412490,-47.0
2023-12-20 13:59:51.420179,-38.0
2023-12-20 13:59:51.427868,-42.0
2023-12-20 13:59:51.435557,-42.0
2023-12-20 13:59:51.443246,-30.0
2023-12-20 13:59:51.450935,-33.0
2023-12-20 13:59:51.458624,-57.0
2023-12-20 13:59:51.466313,-90.0
2023-12-20 13:59:51.474002,-97.0
2023-12-20 13:59:51.481691,-78.0
2023-12-20 13:59:51.489380,-88.0
2023-12-20 13:59:51.497069,-100.0
2023-12-20 13:59:51.504758,-76.0
2023-12-20 13:59:51.512447,-54.0
2023-12-20 13:59:51.520136,-57.0
2023-12-20 13:59:51.527825,-45.0
2023-12-20 13:59:51.535514,-38.0
2023-12-20 13:59:51.543203,-61.0
2023-12-20 13:59:51.550892,-64.0
2023-12-20 13:59:51.558581,-42.0
2023-12-20 13:59:51.566270,-40.0
2023-12-20 13:59:51.573959,-90.0
2023-12-20 13:59:51.581648,-238.0
2023-12-20 13:59:51.589337,-436.0
2023-12-20 13:59:51.597026,-431.0
2023-12-20 13:59:51.604715,-100.0
2023-12-20 13:59:51.612404,216.0
2023-12-20 13:59:51.620093,250.0
2023-12-20 13:59:51.627782,200.0
2023-12-20 13:59:51.635471,147.0
2023-12-20 13:59:51.643160,11.0
2023-12-20 13:59:51.650849,-92.0
2023-12-20 13:59:51.658538,-100.0
2023-12-20 13:59:51.666227,-95.0
2023-12-20 13:59:51.673916,-107.0
2023-12-20 13:59:51.681605,-112.0
2023-12-20 13:59:51.689294,-114.0
2023-12-20 13:59:51.696983,-109.0
2023-12-20 13:59:51.704672,-97.0
2023-12-20 13:59:51.712360,-104.0
2023-12-20 13:59:51.720049,-119.0
2023-12-20 13:59:51.727738,-116.0
2023-12-20 13:59:51.735427,-112.0
2023-12-20 13:59:51.743116,-128.0
2023-12-20 13:59:51.750805,-152.0
2023-12-20 13:59:51.758494,-157.0
2023-12-20 13:59:51.766183,-152.0
2023-12-20 13:59:51.773872,-164.0
2023-12-20 13:59:51.781561,-174.0
2023-12-20 13:59:51.789250,-159.0
2023-12-20 13:59:51.796939,-145.0
2023-12-20 13:59:51.804628,-138.0
2023-12-20 13:59:51.812317,-135.0
2023-12-20 13:59:51.820006,-143.0
2023-12-20 13:59:51.827695,-135.0
2023-12-20 13:59:51.835384,-114.0
2023-12-20 13:59:51.843073,-102.0
2023-12-20 13:59:51.850762,-81.0
2023-12-20 13:59:51.858451,-64.0
2023-12-20 13:59:51.866140,-66.0
2023-12-20 13:59:51.873829,-54.0
2023-12-20 13:59:51.881518,-35.0
2023-12-20 13:59:51.889207,-42.0
2023-12-20 13:59:51.896896,-54.0
2023-12-20 13:59:51.904585,-52.0
2023-12-20 13:59:51.912274,-52.0
2023-12-20 13:59:51.919963,-54.0
2023-12-20 13:59:51.927652,-42.0
2023-12-20 13:59:51.935341,-33.0
2023-12-20 13:59:51.943030,-35.0
2023-12-20 13:59:51.950719,-45.0
2023-12-20 13:59:51.958408,-52.0
2023-12-20 13:59:51.966097,-45.0
2023-12-20 13:59:51.973786,-35.0
2023-12-20 13:59:51.981475,-33.0
2023-12-20 13:59:51.989164,-30.0
2023-12-20 13:59:51.996853,-38.0
2023-12-20 13:59:52.004542,-76.0
2023-12-20 13:59:52.012231,-92.0
2023-12-20 13:59:52.019920,-59.0
2023-12-20 13:59:52.027609,-45.0
2023-12-20 13:59:52.035298,-66.0
2023-12-20 13:59:52.042987,-73.0
2023-12-20 13:59:52.050676,-76.0
2023-12-20 13:59:52.058365,-73.0
2023-12-20 13:59:52.066054,-73.0
2023-12-20 13:59:52.073743,-71.0
2023-12-20 13:59:52.081432,-47.0
2023-12-20 13:59:52.089121,-38.0
2023-12-20 13:59:52.096810,-52.0
2023-12-20 13:59:52.104499,-47.0
2023-12-20 13:59:52.112188,-38.0
2023-12-20 13:59:52.119877,-42.0
2023-12-20 13:59:52.127566,-38.0
2023-12-20 13:59:52.135255,-33.0
2023-12-20 13:59:52.142944,-76.0
2023-12-20 13:59:52.150633,-212.0
2023-12-20 13:59:52.158322,-400.0
2023-12-20 13:59:52.166011,-381.0
2023-12-20 13:59:52.173700,-38.0
2023-12-20 13:59:52.181389,252.0
2023-12-20 13:59:52.189078,259.0
2023-12-20 13:59:52.196767,205.0
2023-12-20 13:59:52.204456,150.0
2023-12-20 13:59:52.212144,19.0
2023-12-20 13:59:52.219833,-76.0
2023-12-20 13:59:52.227522,-81.0
2023-12-20 13:59:52.235211,-76.0
2023-12-20 13:59:52.242900,-85.0
2023-12-20 13:59:52.250589,-100.0
2023-12-20 13:59:52.258278,-112.0
2023-12-20 13:59:52.265967,-100.0
2023-12-20 13:59:52.273656,-97.0
2023-12-20 13:59:52.281345,-116.0
2023-12-20 13:59:52.289034,-112.0
2023-12-20 13:59:52.296723,-97.0
2023-12-20 13:59:52.304412,-104.0
2023-12-20 13:59:52.312101,-126.0
2023-12-20 13:59:52.319790,-133.0
2023-12-20 13:59:52.327479,-135.0
2023-12-20 13:59:52.335168,-138.0
2023-12-20 13:59:52.342857,-131.0
2023-12-20 13:59:52.350546,-128.0
2023-12-20 13:59:52.358235,-133.0
2023-12-20 13:59:52.365924,-140.0
2023-12-20 13:59:52.373613,-138.0
2023-12-20 13:59:52.381302,-116.0
2023-12-20 13:59:52.388991,-97.0
2023-12-20 13:59:52.396680,-95.0
2023-12-20 13:59:52.404369,-85.0
2023-12-20 13:59:52.412058,-61.0
2023-12-20 13:59:52.419747,-45.0
2023-12-20 13:59:52.427436,-35.0
2023-12-20 13:59:52.435125,-30.0
2023-12-20 13:59:52.442814,-26.0
2023-12-20 13:59:52.450503,-19.0
2023-12-20 13:59:52.458192,-11.0
2023-12-20 13:59:52.465881,-14.0
2023-12-20 13:59:52.473570,-19.0
2023-12-20 13:59:52.481259,-11.0
2023-12-20 13:59:52.488948,-11.0
2023-12-20 13:59:52.496637,-33.0
2023-12-20 13:59:52.504326,-42.0
2023-12-20 13:59:52.512015,-30.0
2023-12-20 13:59:52.519704,-21.0
2023-12-20 13:59:52.527393,-16.0
2023-12-20 13:59:52.535082,-21.0
2023-12-20 13:59:52.542771,-26.0
2023-12-20 13:59:52.550460,-23.0
2023-12-20 13:59:52.558149,-26.0
2023-12-20 13:59:52.565838,-35.0
2023-12-20 13:59:52.573527,-45.0
2023-12-20 13:59:52.581216,-42.0
2023-12-20 13:59:52.588905,-50.0
2023-12-20 13:59:52.596594,-76.0
2023-12-20 13:59:52.604283,-78.0
2023-12-20 13:59:52.611972,-61.0
2023-12-20 13:59:52.619661,-64.0
2023-12-20 13:59:52.627350,-71.0
2023-12-20 13:59:52.635039,-61.0
2023-12-20 13:59:52.642728,-52.0
2023-12-20 13:59:52.650417,-35.0
2023-12-20 13:59:52.658106,-28.0
2023-12-20 13:59:52.665795,-33.0
2023-12-20 13:59:52.673484,-30.0
2023-12-20 13:59:52.681173,-33.0
2023-12-20 13:59:52.688862,-30.0
2023-12-20 13:59:52.696551,-21.0
2023-12-20 13:59:52.704240,-28.0
2023-12-20 13:59:52.711929,-66.0
2023-12-20 13:59:52.719617,-190.0
2023-12-20 13:59:52.727306,-374.0
2023-12-20 13:59:52.734995,-352.0
2023-12-20 13:59:52.742684,-21.0
2023-12-20 13:59:52.750373,257.0
2023-12-20 13:59:52.758062,262.0
2023-12-20 13:59:52.765751,181.0
2023-12-20 13:59:52.773440,92.0
2023-12-20 13:59:52.781129,-30.0
2023-12-20 13:59:52.788818,-92.0
2023-12-20 13:59:52.796507,-81.0
2023-12-20 13:59:52.804196,-83.0
2023-12-20 13:59:52.811885,-112.0
2023-12-20 13:59:52.819574,-109.0
2023-12-20 13:59:52.827263,-92.0
2023-12-20 13:59:52.834952,-97.0
2023-12-20 13:59:52.842641,-102.0
2023-12-20 13:59:52.850330,-92.0
2023-12-20 13:59:52.858019,-95.0
2023-12-20 13:59:52.865708,-109.0
2023-12-20 13:59:52.873397,-114.0
2023-12-20 13:59:52.881086,-112.0
2023-12-20 13:59:52.888775,-104.0
2023-12-20 13:59:52.896464,-109.0
2023-12-20 13:59:52.904153,-121.0
2023-12-20 13:59:52.911842,-119.0
2023-12-20 13:59:52.919531,-119.0
2023-12-20 13:59:52.927220,-126.0
2023-12-20 13:59:52.934909,-119.0
2023-12-20 13:59:52.942598,-107.0
2023-12-20 13:59:52.950287,-102.0
2023-12-20 13:59:52.957976,-100.0
2023-12-20 13:59:52.965665,-88.0
2023-12-20 13:59:52.973354,-66.0
2023-12-20 13:59:52.981043,-45.0
2023-12-20 13:59:52.988732,-33.0
2023-12-20 13:59:52.996421,-26.0
2023-12-20 13:59:53.004110,-16.0
2023-12-20 13:59:53.011799,-7.0
2023-12-20 13:59:53.019488,-11.0
2023-12-20 13:59:53.027177,-11.0
2023-12-20 13:59:53.034866,-4.0
2023-12-20 13:59:53.042555,-21.0
2023-12-20 13:59:53.050244,-38.0
2023-12-20 13:59:53.057933,-38.0
2023-12-20 13:59:53.065622,-33.0
2023-12-20 13:59:53.073311,-28.0
2023-12-20 13:59:53.081000,-30.0
2023-12-20 13:59:53.088689,-38.0
2023-12-20 13:59:53.096378,-30.0
2023-12-20 13:59:53.104067,-26.0
2023-12-20 13:59:53.111756,-33.0
2023-12-20 13:59:53.119445,-28.0
2023-12-20 13:59:53.127134,-35.0
2023-12-20 13:59:53.134823,-66.0
2023-12-20 13:59:53.142512,-69.0
2023-12-20 13:59:53.150201,-50.0
2023-12-20 13:59:53.157890,-54.0
2023-12-20 13:59:53.165579,-69.0
2023-12-20 13:59:53.173268,-95.0
2023-12-20 13:59:53.180957,-119.0
2023-12-20 13:59:53.188646,-107.0
2023-12-20 13:59:53.196335,-88.0
2023-12-20 13:59:53.204024,-88.0
2023-12-20 13:59:53.211713,-85.0
2023-12-20 13:59:53.219401,-85.0
2023-12-20 13:59:53.227090,-90.0
2023-12-20 13:59:53.234779,-78.0
2023-12-20 13:59:53.242468,-71.0
2023-12-20 13:59:53.250157,-78.0
2023-12-20 13:59:53.257846,-71.0
2023-12-20 13:59:53.265535,-69.0
2023-12-20 13:59:53.273224,-88.0
2023-12-20 13:59:53.280913,-152.0
2023-12-20 13:59:53.288602,-307.0
2023-12-20 13:59:53.296291,-453.0
2023-12-20 13:59:53.303980,-331.0
2023-12-20 13:59:53.311669,7.0
2023-12-20 13:59:53.319358,195.0
2023-12-20 13:59:53.327047,169.0
2023-12-20 13:59:53.334736,102.0
2023-12-20 13:59:53.342425,9.0
2023-12-20 13:59:53.350114,-100.0
2023-12-20 13:59:53.357803,-147.0
2023-12-20 13:59:53.365492,-135.0
2023-12-20 13:59:53.373181,-123.0
2023-12-20 13:59:53.380870,-128.0
2023-12-20 13:59:53.388559,-128.0
2023-12-20 13:59:53.396248,-145.0
2023-12-20 13:59:53.403937,-176.0
2023-12-20 13:59:53.411626,-174.0
2023-12-20 13:59:53.419315,-154.0
2023-12-20 13:59:53.427004,-159.0
2023-12-20 13:59:53.434693,-162.0
2023-12-20 13:59:53.442382,-154.0
2023-12-20 13:59:53.450071,-154.0
2023-12-20 13:59:53.457760,-154.0
2023-12-20 13:59:53.465449,-152.0
2023-12-20 13:59:53.473138,-147.0
2023-12-20 13:59:53.480827,-152.0
2023-12-20 13:59:53.488516,-164.0
2023-12-20 13:59:53.496205,-162.0
2023-12-20 13:59:53.503894,-143.0
2023-12-20 13:59:53.511583,-138.0
2023-12-20 13:59:53.519272,-147.0
2023-12-20 13:59:53.526961,-145.0
2023-12-20 13:59:53.534650,-131.0
2023-12-20 13:59:53.542339,-112.0
2023-12-20 13:59:53.550028,-90.0
2023-12-20 13:59:53.557717,-69.0
2023-12-20 13:59:53.565406,-64.0
2023-12-20 13:59:53.573095,-71.0
2023-12-20 13:59:53.580784,-69.0
2023-12-20 13:59:53.588473,-57.0
2023-12-20 13:59:53.596162,-50.0
2023-12-20 13:59:53.603851,-47.0
2023-12-20 13:59:53.611540,-52.0
2023-12-20 13:59:53.619229,-57.0
2023-12-20 13:59:53.626918,-59.0
2023-12-20 13:59:53.634607,-52.0
2023-12-20 13:59:53.642296,-50.0
2023-12-20 13:59:53.649985,-57.0
2023-12-20 13:59:53.657674,-57.0
2023-12-20 13:59:53.665363,-69.0
2023-12-20 13:59:53.673052,-95.0
2023-12-20 13:59:53.680741,-100.0
2023-12-20 13:59:53.688430,-78.0
2023-12-20 13:59:53.696119,-64.0
2023-12-20 13:59:53.703808,-66.0
2023-12-20 13:59:53.711497,-78.0
2023-12-20 13:59:53.719185,-81.0
2023-12-20 13:59:53.726874,-64.0
2023-12-20 13:59:53.734563,-61.0
2023-12-20 13:59:53.742252,-78.0
2023-12-20 13:59:53.749941,-88.0
2023-12-20 13:59:53.757630,-97.0
2023-12-20 13:59:53.765319,-109.0
2023-12-20 13:59:53.773008,-109.0
2023-12-20 13:59:53.780697,-97.0
2023-12-20 13:59:53.788386,-71.0
2023-12-20 13:59:53.796075,-61.0
2023-12-20 13:59:53.803764,-83.0
2023-12-20 13:59:53.811453,-88.0
2023-12-20 13:59:53.819142,-71.0
2023-12-20 13:59:53.826831,-61.0
2023-12-20 13:59:53.834520,-57.0
2023-12-20 13:59:53.842209,-57.0
2023-12-20 13:59:53.849898,-116.0
2023-12-20 13:59:53.857587,-264.0
2023-12-20 13:59:53.865276,-433.0
2023-12-20 13:59:53.872965,-386.0
2023-12-20 13:59:53.880654,-21.0
2023-12-20 13:59:53.888343,267.0
2023-12-20 13:59:53.896032,259.0
2023-12-20 13:59:53.903721,185.0
2023-12-20 13:59:53.911410,112.0
2023-12-20 13:59:53.919099,-23.0
2023-12-20 13:59:53.926788,-100.0
2023-12-20 13:59:53.934477,-88.0
2023-12-20 13:59:53.942166,-90.0
2023-12-20 13:59:53.949855,-112.0
2023-12-20 13:59:53.957544,-109.0
2023-12-20 13:59:53.965233,-97.0
2023-12-20 13:59:53.972922,-100.0
2023-12-20 13:59:53.980611,-107.0
2023-12-20 13:59:53.988300,-102.0
2023-12-20 13:59:53.995989,-107.0
2023-12-20 13:59:54.003678,-119.0
2023-12-20 13:59:54.011367,-114.0
2023-12-20 13:59:54.019056,-104.0
2023-12-20 13:59:54.026745,-116.0
2023-12-20 13:59:54.034434,-131.0
2023-12-20 13:59:54.042123,-138.0
2023-12-20 13:59:54.049812,-131.0
2023-12-20 13:59:54.057501,-116.0
2023-12-20 13:59:54.065190,-112.0
2023-12-20 13:59:54.072879,-126.0
2023-12-20 13:59:54.080568,-133.0
2023-12-20 13:59:54.088257,-126.0
2023-12-20 13:59:54.095946,-114.0
2023-12-20 13:59:54.103635,-104.0
2023-12-20 13:59:54.111324,-88.0
2023-12-20 13:59:54.119013,-76.0
2023-12-20 13:59:54.126702,-59.0
2023-12-20 13:59:54.134391,-35.0
2023-12-20 13:59:54.142080,-35.0
2023-12-20 13:59:54.149769,-35.0
2023-12-20 13:59:54.157458,-19.0
2023-12-20 13:59:54.165147,-19.0
2023-12-20 13:59:54.172836,-35.0
2023-12-20 13:59:54.180525,-35.0
2023-12-20 13:59:54.188214,-26.0
2023-12-20 13:59:54.195903,-38.0
2023-12-20 13:59:54.203592,-45.0
2023-12-20 13:59:54.211281,-38.0
2023-12-20 13:59:54.218970,-38.0
2023-12-20 13:59:54.226658,-33.0
2023-12-20 13:59:54.234347,-21.0
2023-12-20 13:59:54.242036,-23.0
2023-12-20 13:59:54.249725,-40.0
2023-12-20 13:59:54.257414,-64.0
2023-12-20 13:59:54.265103,-69.0
2023-12-20 13:59:54.272792,-61.0
2023-12-20 13:59:54.280481,-78.0
2023-12-20 13:59:54.288170,-95.0
2023-12-20 13:59:54.295859,-83.0
2023-12-20 13:59:54.303548,-69.0
2023-12-20 13:59:54.311237,-71.0
2023-12-20 13:59:54.318926,-76.0
2023-12-20 13:59:54.326615,-73.0
2023-12-20 13:59:54.334304,-73.0
2023-12-20 13:59:54.341993,-85.0
2023-12-20 13:59:54.349682,-90.0
2023-12-20 13:59:54.357371,-73.0
2023-12-20 13:59:54.365060,-54.0
2023-12-20 13:59:54.372749,-38.0
2023-12-20 13:59:54.380438,-23.0
2023-12-20 13:59:54.388127,-23.0
2023-12-20 13:59:54.395816,-40.0
2023-12-20 13:59:54.403505,-45.0
2023-12-20 13:59:54.411194,-26.0
2023-12-20 13:59:54.418883,-19.0
2023-12-20 13:59:54.426572,-33.0
2023-12-20 13:59:54.434261,-102.0
2023-12-20 13:59:54.441950,-278.0
2023-12-20 13:59:54.449639,-424.0
2023-12-20 13:59:54.457328,-257.0
2023-12-20 13:59:54.465017,140.0
2023-12-20 13:59:54.472706,336.0
2023-12-20 13:59:54.480395,281.0
2023-12-20 13:59:54.488084,200.0
2023-12-20 13:59:54.495773,102.0
2023-12-20 13:59:54.503462,-16.0
2023-12-20 13:59:54.511151,-64.0
2023-12-20 13:59:54.518840,-59.0
2023-12-20 13:59:54.526529,-64.0
2023-12-20 13:59:54.534218,-81.0
2023-12-20 13:59:54.541907,-85.0
2023-12-20 13:59:54.549596,-78.0
2023-12-20 13:59:54.557285,-69.0
2023-12-20 13:59:54.564974,-71.0
2023-12-20 13:59:54.572663,-85.0
2023-12-20 13:59:54.580352,-95.0
2023-12-20 13:59:54.588041,-92.0
2023-12-20 13:59:54.595730,-83.0
2023-12-20 13:59:54.603419,-88.0
2023-12-20 13:59:54.611108,-100.0
2023-12-20 13:59:54.618797,-90.0
2023-12-20 13:59:54.626486,-81.0
2023-12-20 13:59:54.634175,-88.0
2023-12-20 13:59:54.641864,-92.0
2023-12-20 13:59:54.649553,-88.0
2023-12-20 13:59:54.657242,-78.0
2023-12-20 13:59:54.664931,-81.0
2023-12-20 13:59:54.672620,-85.0
2023-12-20 13:59:54.680309,-88.0
2023-12-20 13:59:54.687998,-78.0
2023-12-20 13:59:54.695687,-54.0
2023-12-20 13:59:54.703376,-33.0
2023-12-20 13:59:54.711065,-14.0
2023-12-20 13:59:54.718754,-2.0
2023-12-20 13:59:54.726442,-11.0
2023-12-20 13:59:54.734131,-19.0
2023-12-20 13:59:54.741820,-11.0
2023-12-20 13:59:54.749509,-2.0
2023-12-20 13:59:54.757198,-4.0
2023-12-20 13:59:54.764887,-9.0
2023-12-20 13:59:54.772576,-19.0
2023-12-20 13:59:54.780265,-50.0
2023-12-20 13:59:54.787954,-66.0
2023-12-20 13:59:54.795643,-47.0
2023-12-20 13:59:54.803332,-38.0
2023-12-20 13:59:54.811021,-47.0
2023-12-20 13:59:54.818710,-52.0
2023-12-20 13:59:54.826399,-52.0
2023-12-20 13:59:54.834088,-59.0
2023-12-20 13:59:54.841777,-73.0
2023-12-20 13:59:54.849466,-71.0
2023-12-20 13:59:54.857155,-54.0
2023-12-20 13:59:54.864844,-52.0
2023-12-20 13:59:54.872533,-50.0
2023-12-20 13:59:54.880222,-47.0
2023-12-20 13:59:54.887911,-52.0
2023-12-20 13:59:54.895600,-47.0
2023-12-20 13:59:54.903289,-38.0
2023-12-20 13:59:54.910978,-47.0
2023-12-20 13:59:54.918667,-64.0
2023-12-20 13:59:54.926356,-69.0
2023-12-20 13:59:54.934045,-66.0
2023-12-20 13:59:54.941734,-59.0
2023-12-20 13:59:54.949423,-57.0
2023-12-20 13:59:54.957112,-42.0
2023-12-20 13:59:54.964801,-19.0
2023-12-20 13:59:54.972490,-14.0
2023-12-20 13:59:54.980179,-30.0
2023-12-20 13:59:54.987868,-26.0
2023-12-20 13:59:54.995557,-19.0
2023-12-20 13:59:55.003246,-26.0
2023-12-20 13:59:55.010935,-21.0
2023-12-20 13:59:55.018624,-16.0
2023-12-20 13:59:55.026313,-66.0
2023-12-20 13:59:55.034002,-202.0
2023-12-20 13:59:55.041691,-371.0
2023-12-20 13:59:55.049380,-333.0
2023-12-20 13:59:55.057069,11.0
2023-12-20 13:59:55.064758,290.0
2023-12-20 13:59:55.072447,281.0
2023-12-20 13:59:55.080136,209.0
2023-12-20 13:59:55.087825,133.0
2023-12-20 13:59:55.095514,-2.0
2023-12-20 13:59:55.103203,-81.0
2023-12-20 13:59:55.110892,-76.0
2023-12-20 13:59:55.118581,-71.0
2023-12-20 13:59:55.126270,-78.0
2023-12-20 13:59:55.133959,-78.0
2023-12-20 13:59:55.141648,-81.0
2023-12-20 13:59:55.149337,-85.0
2023-12-20 13:59:55.157026,-85.0
2023-12-20 13:59:55.164715,-78.0
2023-12-20 13:59:55.172404,-83.0
2023-12-20 13:59:55.180093,-97.0
2023-12-20 13:59:55.187782,-97.0
2023-12-20 13:59:55.195471,-92.0
2023-12-20 13:59:55.203160,-104.0
2023-12-20 13:59:55.210849,-107.0
2023-12-20 13:59:55.218538,-92.0
2023-12-20 13:59:55.226227,-92.0
2023-12-20 13:59:55.233915,-109.0
2023-12-20 13:59:55.241604,-116.0
2023-12-20 13:59:55.249293,-114.0
2023-12-20 13:59:55.256982,-112.0
2023-12-20 13:59:55.264671,-102.0
2023-12-20 13:59:55.272360,-104.0
2023-12-20 13:59:55.280049,-107.0
2023-12-20 13:59:55.287738,-90.0
2023-12-20 13:59:55.295427,-81.0
2023-12-20 13:59:55.303116,-69.0
2023-12-20 13:59:55.310805,-54.0
2023-12-20 13:59:55.318494,-61.0
2023-12-20 13:59:55.326183,-64.0
2023-12-20 13:59:55.333872,-40.0
2023-12-20 13:59:55.341561,-28.0
2023-12-20 13:59:55.349250,-38.0
2023-12-20 13:59:55.356939,-40.0
2023-12-20 13:59:55.364628,-38.0
2023-12-20 13:59:55.372317,-52.0
2023-12-20 13:59:55.380006,-81.0
2023-12-20 13:59:55.387695,-88.0
2023-12-20 13:59:55.395384,-64.0
2023-12-20 13:59:55.403073,-52.0
2023-12-20 13:59:55.410762,-64.0
2023-12-20 13:59:55.418451,-73.0
2023-12-20 13:59:55.426140,-73.0
2023-12-20 13:59:55.433829,-64.0
2023-12-20 13:59:55.441518,-52.0
2023-12-20 13:59:55.449207,-45.0
2023-12-20 13:59:55.456896,-38.0
2023-12-20 13:59:55.464585,-38.0
2023-12-20 13:59:55.472274,-40.0
2023-12-20 13:59:55.479963,-38.0
2023-12-20 13:59:55.487652,-35.0
2023-12-20 13:59:55.495341,-42.0
2023-12-20 13:59:55.503030,-52.0
2023-12-20 13:59:55.510719,-47.0
2023-12-20 13:59:55.518408,-52.0
2023-12-20 13:59:55.526097,-69.0
2023-12-20 13:59:55.533786,-66.0
2023-12-20 13:59:55.541475,-61.0
2023-12-20 13:59:55.549164,-61.0
2023-12-20 13:59:55.556853,-47.0
2023-12-20 13:59:55.564542,-35.0
2023-12-20 13:59:55.572231,-35.0
2023-12-20 13:59:55.579920,-23.0
2023-12-20 13:59:55.587609,-11.0
2023-12-20 13:59:55.595298,-11.0
2023-12-20 13:59:55.602987,-23.0
2023-12-20 13:59:55.610676,-33.0
2023-12-20 13:59:55.618365,-28.0
2023-12-20 13:59:55.626054,-57.0
2023-12-20 13:59:55.633743,-174.0
2023-12-20 13:59:55.641432,-350.0
2023-12-20 13:59:55.649121,-357.0
2023-12-20 13:59:55.656810,-52.0
2023-12-20 13:59:55.664499,259.0
2023-12-20 13:59:55.672188,295.0
2023-12-20 13:59:55.679877,216.0
2023-12-20 13:59:55.687566,135.0
2023-12-20 13:59:55.695255,7.0
2023-12-20 13:59:55.702944,-73.0
2023-12-20 13:59:55.710633,-71.0
2023-12-20 13:59:55.718322,-64.0
2023-12-20 13:59:55.726011,-64.0
2023-12-20 13:59:55.733699,-71.0
2023-12-20 13:59:55.741388,-85.0
2023-12-20 13:59:55.749077,-90.0
2023-12-20 13:59:55.756766,-92.0
2023-12-20 13:59:55.764455,-104.0
2023-12-20 13:59:55.772144,-109.0
2023-12-20 13:59:55.779833,-107.0
2023-12-20 13:59:55.787522,-109.0
2023-12-20 13:59:55.795211,-114.0
2023-12-20 13:59:55.802900,-135.0
2023-12-20 13:59:55.810589,-157.0
2023-12-20 13:59:55.818278,-152.0
2023-12-20 13:59:55.825967,-159.0
2023-12-20 13:59:55.833656,-176.0
2023-12-20 13:59:55.841345,-169.0
2023-12-20 13:59:55.849034,-154.0
2023-12-20 13:59:55.856723,-145.0
2023-12-20 13:59:55.864412,-135.0
2023-12-20 13:59:55.872101,-140.0
2023-12-20 13:59:55.879790,-147.0
2023-12-20 13:59:55.887479,-114.0
2023-12-20 13:59:55.895168,-78.0
2023-12-20 13:59:55.902857,-71.0
2023-12-20 13:59:55.910546,-59.0
2023-12-20 13:59:55.918235,-38.0
2023-12-20 13:59:55.925924,-35.0
2023-12-20 13:59:55.933613,-38.0
2023-12-20 13:59:55.941302,-35.0
2023-12-20 13:59:55.948991,-38.0
2023-12-20 13:59:55.956680,-40.0
2023-12-20 13:59:55.964369,-64.0
2023-12-20 13:59:55.972058,-100.0
2023-12-20 13:59:55.979747,-92.0
2023-12-20 13:59:55.987436,-73.0
2023-12-20 13:59:55.995125,-78.0
2023-12-20 13:59:56.002814,-73.0
2023-12-20 13:59:56.010503,-64.0
2023-12-20 13:59:56.018192,-73.0
2023-12-20 13:59:56.025881,-85.0
2023-12-20 13:59:56.033570,-81.0
2023-12-20 13:59:56.041259,-71.0
2023-12-20 13:59:56.048948,-85.0
2023-12-20 13:59:56.056637,-109.0
2023-12-20 13:59:56.064326,-104.0
2023-12-20 13:59:56.072015,-85.0
2023-12-20 13:59:56.079704,-92.0
2023-12-20 13:59:56.087393,-102.0
2023-12-20 13:59:56.095082,-83.0
2023-12-20 13:59:56.102771,-81.0
2023-12-20 13:59:56.110460,-90.0
2023-12-20 13:59:56.118149,-88.0
2023-12-20 13:59:56.125838,-88.0
2023-12-20 13:59:56.133527,-97.0
2023-12-20 13:59:56.141216,-102.0
2023-12-20 13:59:56.148905,-97.0
2023-12-20 13:59:56.156594,-92.0
2023-12-20 13:59:56.164283,-85.0
2023-12-20 13:59:56.171972,-69.0
2023-12-20 13:59:56.179661,-54.0
2023-12-20 13:59:56.187350,-54.0
2023-12-20 13:59:56.195039,-69.0
2023-12-20 13:59:56.202728,-76.0
2023-12-20 13:59:56.210417,-66.0
2023-12-20 13:59:56.218106,-69.0
2023-12-20 13:59:56.225795,-109.0
2023-12-20 13:59:56.233483,-219.0
2023-12-20 13:59:56.241172,-386.0
2023-12-20 13:59:56.248861,-414.0
2023-12-20 13:59:56.256550,-131.0
2023-12-20 13:59:56.264239,188.0
2023-12-20 13:59:56.271928,238.0
2023-12-20 13:59:56.279617,185.0
2023-12-20 13:59:56.287306,143.0
2023-12-20 13:59:56.294995,21.0
2023-12-20 13:59:56.302684,-119.0
2023-12-20 13:59:56.310373,-164.0
2023-12-20 13:59:56.318062,-145.0
2023-12-20 13:59:56.325751,-145.0
2023-12-20 13:59:56.333440,-154.0
2023-12-20 13:59:56.341129,-143.0
2023-12-20 13:59:56.348818,-133.0
2023-12-20 13:59:56.356507,-140.0
2023-12-20 13:59:56.364196,-140.0
2023-12-20 13:59:56.371885,-147.0
2023-12-20 13:59:56.379574,-162.0
2023-12-20 13:59:56.387263,-178.0
2023-12-20 13:59:56.394952,-183.0
2023-12-20 13:59:56.402641,-157.0
2023-12-20 13:59:56.410330,-138.0
2023-12-20 13:59:56.418019,-159.0
2023-12-20 13:59:56.425708,-181.0
2023-12-20 13:59:56.433397,-181.0
2023-12-20 13:59:56.441086,-174.0
2023-12-20 13:59:56.448775,-164.0
2023-12-20 13:59:56.456464,-162.0
2023-12-20 13:59:56.464153,-162.0
2023-12-20 13:59:56.471842,-135.0
2023-12-20 13:59:56.479531,-112.0
2023-12-20 13:59:56.487220,-109.0
2023-12-20 13:59:56.494909,-97.0
2023-12-20 13:59:56.502598,-97.0
2023-12-20 13:59:56.510287,-114.0
2023-12-20 13:59:56.517976,-71.0
2023-12-20 13:59:56.525665,-21.0
2023-12-20 13:59:56.533354,-66.0
2023-12-20 13:59:56.541043,-107.0
2023-12-20 13:59:56.548732,-69.0
2023-12-20 13:59:56.556421,-59.0
2023-12-20 13:59:56.564110,-85.0
2023-12-20 13:59:56.571799,-88.0
2023-12-20 13:59:56.579488,-92.0
2023-12-20 13:59:56.587177,-114.0
2023-12-20 13:59:56.594866,-112.0
2023-12-20 13:59:56.602555,-88.0
2023-12-20 13:59:56.610244,-66.0
2023-12-20 13:59:56.617933,-76.0
2023-12-20 13:59:56.625622,-109.0
2023-12-20 13:59:56.633311,-85.0
2023-12-20 13:59:56.641000,-54.0
2023-12-20 13:59:56.648689,-71.0
2023-12-20 13:59:56.656378,-81.0
2023-12-20 13:59:56.664067,-78.0
2023-12-20 13:59:56.671756,-88.0
2023-12-20 13:59:56.679445,-73.0
2023-12-20 13:59:56.687134,-54.0
2023-12-20 13:59:56.694823,-59.0
2023-12-20 13:59:56.702512,-73.0
2023-12-20 13:59:56.710201,-85.0
2023-12-20 13:59:56.717890,-83.0
2023-12-20 13:59:56.725579,-102.0
2023-12-20 13:59:56.733268,-116.0
2023-12-20 13:59:56.740956,-81.0
2023-12-20 13:59:56.748645,-73.0
2023-12-20 13:59:56.756334,-102.0
2023-12-20 13:59:56.764023,-76.0
2023-12-20 13:59:56.771712,-42.0
2023-12-20 13:59:56.779401,-71.0
2023-12-20 13:59:56.787090,-76.0
2023-12-20 13:59:56.794779,-40.0
2023-12-20 13:59:56.802468,-45.0
2023-12-20 13:59:56.810157,-88.0
2023-12-20 13:59:56.817846,-138.0
2023-12-20 13:59:56.825535,-209.0
2023-12-20 13:59:56.833224,-312.0
2023-12-20 13:59:56.840913,-433.0
2023-12-20 13:59:56.848602,-345.0
2023-12-20 13:59:56.856291,42.0
2023-12-20 13:59:56.863980,283.0
2023-12-20 13:59:56.871669,212.0
2023-12-20 13:59:56.879358,169.0
2023-12-20 13:59:56.887047,119.0
2023-12-20 13:59:56.894736,-52.0
2023-12-20 13:59:56.902425,-140.0
2023-12-20 13:59:56.910114,-128.0
2023-12-20 13:59:56.917803,-114.0
2023-12-20 13:59:56.925492,-92.0
2023-12-20 13:59:56.933181,-116.0
2023-12-20 13:59:56.940870,-159.0
2023-12-20 13:59:56.948559,-135.0
2023-12-20 13:59:56.956248,-133.0
2023-12-20 13:59:56.963937,-176.0
2023-12-20 13:59:56.971626,-147.0
2023-12-20 13:59:56.979315,-102.0
2023-12-20 13:59:56.987004,-147.0
2023-12-20 13:59:56.994693,-190.0
2023-12-20 13:59:57.002382,-185.0
2023-12-20 13:59:57.010071,-178.0
2023-12-20 13:59:57.017760,-185.0
2023-12-20 13:59:57.025449,-185.0
2023-12-20 13:59:57.033138,-176.0
2023-12-20 13:59:57.040827,-169.0
2023-12-20 13:59:57.048516,-143.0
2023-12-20 13:59:57.056205,-114.0
2023-12-20 13:59:57.063894,-128.0
2023-12-20 13:59:57.071583,-135.0
2023-12-20 13:59:57.079272,-121.0
2023-12-20 13:59:57.086961,-121.0
2023-12-20 13:59:57.094650,-109.0
2023-12-20 13:59:57.102339,-78.0
2023-12-20 13:59:57.110028,-61.0
2023-12-20 13:59:57.117717,-50.0
2023-12-20 13:59:57.125406,-42.0
2023-12-20 13:59:57.133095,-57.0
2023-12-20 13:59:57.140784,-78.0
2023-12-20 13:59:57.148473,-64.0
2023-12-20 13:59:57.156162,-35.0
2023-12-20 13:59:57.163851,-64.0
2023-12-20 13:59:57.171540,-116.0
2023-12-20 13:59:57.179229,-107.0
2023-12-20 13:59:57.186918,-45.0
2023-12-20 13:59:57.194607,-19.0
2023-12-20 13:59:57.202296,-40.0
2023-12-20 13:59:57.209985,-61.0
2023-12-20 13:59:57.217674,-66.0
2023-12-20 13:59:57.225363,-45.0
2023-12-20 13:59:57.233052,-28.0
2023-12-20 13:59:57.240740,-30.0
2023-12-20 13:59:57.248429,-42.0
2023-12-20 13:59:57.256118,-52.0
2023-12-20 13:59:57.263807,-47.0
2023-12-20 13:59:57.271496,-52.0
2023-12-20 13:59:57.279185,-57.0
2023-12-20 13:59:57.286874,-45.0
2023-12-20 13:59:57.294563,-61.0
2023-12-20 13:59:57.302252,-78.0
2023-12-20 13:59:57.309941,-64.0
2023-12-20 13:59:57.317630,-69.0
2023-12-20 13:59:57.325319,-90.0
2023-12-20 13:59:57.333008,-78.0
2023-12-20 13:59:57.340697,-57.0
2023-12-20 13:59:57.348386,-69.0
2023-12-20 13:59:57.356075,-78.0
2023-12-20 13:59:57.363764,-47.0
2023-12-20 13:59:57.371453,-26.0
2023-12-20 13:59:57.379142,-33.0
2023-12-20 13:59:57.386831,-45.0
2023-12-20 13:59:57.394520,-54.0
2023-12-20 13:59:57.402209,-57.0
2023-12-20 13:59:57.409898,-73.0
2023-12-20 13:59:57.417587,-154.0
2023-12-20 13:59:57.425276,-309.0
2023-12-20 13:59:57.432965,-374.0
2023-12-20 13:59:57.440654,-143.0
2023-12-20 13:59:57.448343,202.0
2023-12-20 13:59:57.456032,307.0
2023-12-20 13:59:57.463721,243.0
2023-12-20 13:59:57.471410,178.0
2023-12-20 13:59:57.479099,66.0
2023-12-20 13:59:57.486788,-57.0
2023-12-20 13:59:57.494477,-109.0
2023-12-20 13:59:57.502166,-109.0
2023-12-20 13:59:57.509855,-114.0
2023-12-20 13:59:57.517544,-123.0
2023-12-20 13:59:57.525233,-109.0
2023-12-20 13:59:57.532922,-97.0
2023-12-20 13:59:57.540611,-112.0
2023-12-20 13:59:57.548300,-131.0
2023-12-20 13:59:57.555989,-131.0
2023-12-20 13:59:57.563678,-128.0
2023-12-20 13:59:57.571367,-133.0
2023-12-20 13:59:57.579056,-138.0
2023-12-20 13:59:57.586745,-143.0
2023-12-20 13:59:57.594434,-147.0
2023-12-20 13:59:57.602123,-143.0
2023-12-20 13:59:57.609812,-128.0
2023-12-20 13:59:57.617501,-112.0
2023-12-20 13:59:57.625190,-119.0
2023-12-20 13:59:57.632879,-133.0
2023-12-20 13:59:57.640568,-128.0
2023-12-20 13:59:57.648257,-112.0
2023-12-20 13:59:57.655946,-104.0
2023-12-20 13:59:57.663635,-102.0
2023-12-20 13:59:57.671324,-92.0
2023-12-20 13:59:57.679013,-76.0
2023-12-20 13:59:57.686702,-66.0
2023-12-20 13:59:57.694391,-50.0
2023-12-20 13:59:57.702080,-23.0
2023-12-20 13:59:57.709769,-16.0
2023-12-20 13:59:57.717458,-33.0
2023-12-20 13:59:57.725147,-35.0
2023-12-20 13:59:57.732836,-23.0
2023-12-20 13:59:57.740524,-26.0
2023-12-20 13:59:57.748213,-33.0
2023-12-20 13:59:57.755902,-42.0
2023-12-20 13:59:57.763591,-40.0
2023-12-20 13:59:57.771280,-21.0
2023-12-20 13:59:57.778969,-21.0
2023-12-20 13:59:57.786658,-40.0
2023-12-20 13:59:57.794347,-23.0
2023-12-20 13:59:57.802036,-9.0
2023-12-20 13:59:57.809725,-38.0
2023-12-20 13:59:57.817414,-69.0
2023-12-20 13:59:57.825103,-73.0
2023-12-20 13:59:57.832792,-59.0
2023-12-20 13:59:57.840481,-38.0
2023-12-20 13:59:57.848170,-30.0
2023-12-20 13:59:57.855859,-38.0
2023-12-20 13:59:57.863548,-47.0
2023-12-20 13:59:57.871237,-42.0
2023-12-20 13:59:57.878926,-30.0
2023-12-20 13:59:57.886615,-42.0
2023-12-20 13:59:57.894304,-66.0
2023-12-20 13:59:57.901993,-66.0
2023-12-20 13:59:57.909682,-61.0
2023-12-20 13:59:57.917371,-64.0
2023-12-20 13:59:57.925060,-54.0
2023-12-20 13:59:57.932749,-54.0
2023-12-20 13:59:57.940438,-50.0
2023-12-20 13:59:57.948127,-19.0
2023-12-20 13:59:57.955816,-23.0
2023-12-20 13:59:57.963505,-45.0
2023-12-20 13:59:57.971194,-40.0
2023-12-20 13:59:57.978883,-47.0
2023-12-20 13:59:57.986572,-61.0
2023-12-20 13:59:57.994261,-69.0
2023-12-20 13:59:58.001950,-133.0
2023-12-20 13:59:58.009639,-267.0
2023-12-20 13:59:58.017328,-369.0
2023-12-20 13:59:58.025017,-240.0
2023-12-20 13:59:58.032706,107.0
2023-12-20 13:59:58.040395,298.0
2023-12-20 13:59:58.048084,250.0
2023-12-20 13:59:58.055773,183.0
2023-12-20 13:59:58.063462,88.0
2023-12-20 13:59:58.071151,-42.0
2023-12-20 13:59:58.078840,-104.0
2023-12-20 13:59:58.086529,-100.0
2023-12-20 13:59:58.094218,-92.0
2023-12-20 13:59:58.101907,-107.0
2023-12-20 13:59:58.109596,-119.0
2023-12-20 13:59:58.117285,-114.0
2023-12-20 13:59:58.124974,-119.0
2023-12-20 13:59:58.132663,-135.0
2023-12-20 13:59:58.140352,-133.0
2023-12-20 13:59:58.148041,-133.0
2023-12-20 13:59:58.155730,-147.0
2023-12-20 13:59:58.163419,-147.0
2023-12-20 13:59:58.171108,-135.0
2023-12-20 13:59:58.178797,-143.0
2023-12-20 13:59:58.186486,-143.0
2023-12-20 13:59:58.194175,-135.0
2023-12-20 13:59:58.201864,-135.0
2023-12-20 13:59:58.209553,-147.0
2023-12-20 13:59:58.217242,-181.0
2023-12-20 13:59:58.224931,-195.0
2023-12-20 13:59:58.232620,-171.0
2023-12-20 13:59:58.240309,-162.0
2023-12-20 13:59:58.247997,-164.0
2023-12-20 13:59:58.255686,-135.0
2023-12-20 13:59:58.263375,-112.0
2023-12-20 13:59:58.271064,-90.0
2023-12-20 13:59:58.278753,-57.0
2023-12-20 13:59:58.286442,-50.0
2023-12-20 13:59:58.294131,-54.0
2023-12-20 13:59:58.301820,-47.0
2023-12-20 13:59:58.309509,-38.0
2023-12-20 13:59:58.317198,-35.0
2023-12-20 13:59:58.324887,-59.0
2023-12-20 13:59:58.332576,-78.0
2023-12-20 13:59:58.340265,-71.0
2023-12-20 13:59:58.347954,-69.0
2023-12-20 13:59:58.355643,-81.0
2023-12-20 13:59:58.363332,-71.0
2023-12-20 13:59:58.371021,-66.0
2023-12-20 13:59:58.378710,-73.0
2023-12-20 13:59:58.386399,-71.0
2023-12-20 13:59:58.394088,-61.0
2023-12-20 13:59:58.401777,-57.0
2023-12-20 13:59:58.409466,-61.0
2023-12-20 13:59:58.417155,-61.0
2023-12-20 13:59:58.424844,-47.0
2023-12-20 13:59:58.432533,-42.0
2023-12-20 13:59:58.440222,-52.0
2023-12-20 13:59:58.447911,-54.0
2023-12-20 13:59:58.455600,-50.0
2023-12-20 13:59:58.463289,-59.0
2023-12-20 13:59:58.470978,-78.0
2023-12-20 13:59:58.478667,-90.0
2023-12-20 13:59:58.486356,-88.0
2023-12-20 13:59:58.494045,-92.0
2023-12-20 13:59:58.501734,-97.0
2023-12-20 13:59:58.509423,-76.0
2023-12-20 13:59:58.517112,-50.0
2023-12-20 13:59:58.524801,-47.0
2023-12-20 13:59:58.532490,-59.0
2023-12-20 13:59:58.540179,-64.0
2023-12-20 13:59:58.547868,-61.0
2023-12-20 13:59:58.555557,-54.0
2023-12-20 13:59:58.563246,-42.0
2023-12-20 13:59:58.570935,-52.0
2023-12-20 13:59:58.578624,-90.0
2023-12-20 13:59:58.586313,-159.0
2023-12-20 13:59:58.594002,-309.0
2023-12-20 13:59:58.601691,-419.0
2023-12-20 13:59:58.609380,-219.0
2023-12-20 13:59:58.617069,159.0
2023-12-20 13:59:58.624758,300.0
2023-12-20 13:59:58.632447,243.0
2023-12-20 13:59:58.640136,183.0
2023-12-20 13:59:58.647825,73.0
2023-12-20 13:59:58.655514,-50.0
2023-12-20 13:59:58.663203,-95.0
2023-12-20 13:59:58.670892,-95.0
2023-12-20 13:59:58.678581,-107.0
2023-12-20 13:59:58.686270,-119.0
2023-12-20 13:59:58.693959,-116.0
2023-12-20 13:59:58.701648,-119.0
2023-12-20 13:59:58.709337,-135.0
2023-12-20 13:59:58.717026,-150.0
2023-12-20 13:59:58.724715,-152.0
2023-12-20 13:59:58.732404,-147.0
2023-12-20 13:59:58.740093,-145.0
2023-12-20 13:59:58.747781,-152.0
2023-12-20 13:59:58.755470,-183.0
2023-12-20 13:59:58.763159,-205.0
2023-12-20 13:59:58.770848,-190.0
2023-12-20 13:59:58.778537,-183.0
2023-12-20 13:59:58.786226,-195.0
2023-12-20 13:59:58.793915,-185.0
2023-12-20 13:59:58.801604,-164.0
2023-12-20 13:59:58.809293,-152.0
2023-12-20 13:59:58.816982,-145.0
2023-12-20 13:59:58.824671,-150.0
2023-12-20 13:59:58.832360,-162.0
2023-12-20 13:59:58.840049,-150.0
2023-12-20 13:59:58.847738,-114.0
2023-12-20 13:59:58.855427,-85.0
2023-12-20 13:59:58.863116,-73.0
2023-12-20 13:59:58.870805,-66.0
2023-12-20 13:59:58.878494,-59.0
2023-12-20 13:59:58.886183,-54.0
2023-12-20 13:59:58.893872,-57.0
2023-12-20 13:59:58.901561,-52.0
2023-12-20 13:59:58.909250,-40.0
2023-12-20 13:59:58.916939,-40.0
2023-12-20 13:59:58.924628,-47.0
2023-12-20 13:59:58.932317,-54.0
2023-12-20 13:59:58.940006,-54.0
2023-12-20 13:59:58.947695,-40.0
2023-12-20 13:59:58.955384,-30.0
2023-12-20 13:59:58.963073,-59.0
2023-12-20 13:59:58.970762,-81.0
2023-12-20 13:59:58.978451,-57.0
2023-12-20 13:59:58.986140,-35.0
2023-12-20 13:59:58.993829,-50.0
2023-12-20 13:59:59.001518,-47.0
2023-12-20 13:59:59.009207,-35.0
2023-12-20 13:59:59.016896,-66.0
2023-12-20 13:59:59.024585,-95.0
2023-12-20 13:59:59.032274,-66.0
2023-12-20 13:59:59.039963,-50.0
2023-12-20 13:59:59.047652,-64.0
2023-12-20 13:59:59.055341,-59.0
2023-12-20 13:59:59.063030,-57.0
2023-12-20 13:59:59.070719,-69.0
2023-12-20 13:59:59.078408,-69.0
2023-12-20 13:59:59.086097,-59.0
2023-12-20 13:59:59.093786,-54.0
2023-12-20 13:59:59.101475,-42.0
2023-12-20 13:59:59.109164,-42.0
2023-12-20 13:59:59.116853,-59.0
2023-12-20 13:59:59.124542,-57.0
2023-12-20 13:59:59.132231,-40.0
2023-12-20 13:59:59.139920,-50.0
2023-12-20 13:59:59.147609,-64.0
2023-12-20 13:59:59.155298,-52.0
2023-12-20 13:59:59.162987,-76.0
2023-12-20 13:59:59.170676,-200.0
2023-12-20 13:59:59.178365,-383.0
2023-12-20 13:59:59.186054,-405.0
2023-12-20 13:59:59.193743,-102.0
2023-12-20 13:59:59.201432,233.0
2023-12-20 13:59:59.209121,281.0
2023-12-20 13:59:59.216810,205.0
2023-12-20 13:59:59.224499,152.0
2023-12-20 13:59:59.232188,33.0
2023-12-20 13:59:59.239877,-95.0
2023-12-20 13:59:59.247565,-123.0
2023-12-20 13:59:59.255254,-100.0
2023-12-20 13:59:59.262943,-95.0
2023-12-20 13:59:59.270632,-97.0
2023-12-20 13:59:59.278321,-92.0
2023-12-20 13:59:59.286010,-100.0
2023-12-20 13:59:59.293699,-145.0
2023-12-20 13:59:59.301388,-178.0
2023-12-20 13:59:59.309077,-164.0
2023-12-20 13:59:59.316766,-154.0
2023-12-20 13:59:59.324455,-171.0
2023-12-20 13:59:59.332144,-195.0
2023-12-20 13:59:59.339833,-214.0
2023-12-20 13:59:59.347522,-200.0
2023-12-20 13:59:59.355211,-176.0
2023-12-20 13:59:59.362900,-181.0
2023-12-20 13:59:59.370589,-181.0
2023-12-20 13:59:59.378278,-166.0
2023-12-20 13:59:59.385967,-169.0
2023-12-20 13:59:59.393656,-176.0
2023-12-20 13:59:59.401345,-154.0
2023-12-20 13:59:59.409034,-128.0
2023-12-20 13:59:59.416723,-123.0
2023-12-20 13:59:59.424412,-102.0
2023-12-20 13:59:59.432101,-64.0
2023-12-20 13:59:59.439790,-57.0
2023-12-20 13:59:59.447479,-52.0
2023-12-20 13:59:59.455168,-38.0
2023-12-20 13:59:59.462857,-38.0
2023-12-20 13:59:59.470546,-42.0
2023-12-20 13:59:59.478235,-50.0
2023-12-20 13:59:59.485924,-50.0
2023-12-20 13:59:59.493613,-26.0
2023-12-20 13:59:59.501302,-23.0
2023-12-20 13:59:59.508991,-35.0
2023-12-20 13:59:59.516680,-35.0
2023-12-20 13:59:59.524369,-35.0
2023-12-20 13:59:59.532058,-38.0
2023-12-20 13:59:59.539747,-38.0
2023-12-20 13:59:59.547436,-28.0
2023-12-20 13:59:59.555125,-21.0
2023-12-20 13:59:59.562814,-33.0
2023-12-20 13:59:59.570503,-40.0
2023-12-20 13:59:59.578192,-30.0
2023-12-20 13:59:59.585881,-33.0
2023-12-20 13:59:59.593570,-33.0
2023-12-20 13:59:59.601259,-11.0
2023-12-20 13:59:59.608948,-23.0
2023-12-20 13:59:59.616637,-47.0
2023-12-20 13:59:59.624326,-26.0
2023-12-20 13:59:59.632015,2.0
2023-12-20 13:59:59.639704,-21.0
2023-12-20 13:59:59.647393,-42.0
2023-12-20 13:59:59.655082,-40.0
2023-12-20 13:59:59.662771,-52.0
2023-12-20 13:59:59.670460,-64.0
2023-12-20 13:59:59.678149,-42.0
2023-12-20 13:59:59.685838,-23.0
2023-12-20 13:59:59.693527,-28.0
2023-12-20 13:59:59.701216,-30.0
2023-12-20 13:59:59.708905,-16.0
2023-12-20 13:59:59.716594,-4.0
2023-12-20 13:59:59.724283,-23.0
2023-12-20 13:59:59.731972,-35.0
2023-12-20 13:59:59.739661,-30.0
2023-12-20 13:59:59.747350,-66.0
2023-12-20 13:59:59.755038,-171.0
2023-12-20 13:59:59.762727,-326.0
2023-12-20 13:59:59.770416,-391.0
2023-12-20 13:59:59.778105,-164.0
2023-12-20 13:59:59.785794,188.0
2023-12-20 13:59:59.793483,307.0
2023-12-20 13:59:59.801172,236.0
2023-12-20 13:59:59.808861,152.0
2023-12-20 13:59:59.816550,42.0
2023-12-20 13:59:59.824239,-54.0
2023-12-20 13:59:59.831928,-85.0
2023-12-20 13:59:59.839617,-95.0
2023-12-20 13:59:59.847306,-112.0
2023-12-20 13:59:59.854995,-95.0
2023-12-20 13:59:59.862684,-78.0
2023-12-20 13:59:59.870373,-90.0
2023-12-20 13:59:59.878062,-112.0
2023-12-20 13:59:59.885751,-143.0
2023-12-20 13:59:59.893440,-164.0
2023-12-20 13:59:59.901129,-162.0
2023-12-20 13:59:59.908818,-159.0
2023-12-20 13:59:59.916507,-150.0
2023-12-20 13:59:59.924196,-138.0
2023-12-20 13:59:59.931885,-152.0
2023-12-20 13:59:59.939574,-178.0
2023-12-20 13:59:59.947263,-181.0
2023-12-20 13:59:59.954952,-166.0
2023-12-20 13:59:59.962641,-162.0
2023-12-20 13:59:59.970330,-159.0
2023-12-20 13:59:59.978019,-162.0
2023-12-20 13:59:59.985708,-164.0
2023-12-20 13:59:59.993397,-145.0
2023-12-20 14:00:00.001086,-112.0
2023-12-20 14:00:00.008775,-88.0
2023-12-20 14:00:00.016464,-81.0
2023-12-20 14:00:00.024153,-73.0
2023-12-20 14:00:00.031842,-52.0
2023-12-20 14:00:00.039531,-35.0
2023-12-20 14:00:00.047220,-30.0
2023-12-20 14:00:00.054909,-21.0
2023-12-20 14:00:00.062598,-16.0
2023-12-20 14:00:00.070287,-26.0
2023-12-20 14:00:00.077976,-35.0
2023-12-20 14:00:00.085665,-26.0
2023-12-20 14:00:00.093354,-23.0
2023-12-20 14:00:00.101043,-33.0
2023-12-20 14:00:00.108732,-35.0
2023-12-20 14:00:00.116421,-38.0
2023-12-20 14:00:00.124110,-30.0
2023-12-20 14:00:00.131799,-14.0
2023-12-20 14:00:00.139488,-11.0
2023-12-20 14:00:00.147177,-26.0
2023-12-20 14:00:00.154866,-35.0
2023-12-20 14:00:00.162555,-38.0
2023-12-20 14:00:00.170244,-30.0
2023-12-20 14:00:00.177933,-21.0
2023-12-20 14:00:00.185622,-21.0
2023-12-20 14:00:00.193311,-26.0
2023-12-20 14:00:00.201000,-19.0
2023-12-20 14:00:00.208689,-21.0
2023-12-20 14:00:00.216378,-38.0
2023-12-20 14:00:00.224067,-35.0
2023-12-20 14:00:00.231756,-35.0
2023-12-20 14:00:00.239445,-61.0
2023-12-20 14:00:00.247134,-73.0
2023-12-20 14:00:00.254822,-59.0
2023-12-20 14:00:00.262511,-42.0
2023-12-20 14:00:00.270200,-23.0
2023-12-20 14:00:00.277889,-21.0
2023-12-20 14:00:00.285578,-23.0
2023-12-20 14:00:00.293267,-9.0
2023-12-20 14:00:00.300956,-7.0
2023-12-20 14:00:00.308645,-23.0
2023-12-20 14:00:00.316334,-33.0
2023-12-20 14:00:00.324023,-30.0
2023-12-20 14:00:00.331712,-47.0
2023-12-20 14:00:00.339401,-88.0
2023-12-20 14:00:00.347090,-212.0
2023-12-20 14:00:00.354779,-395.0
2023-12-20 14:00:00.362468,-374.0
2023-12-20 14:00:00.370157,-50.0
2023-12-20 14:00:00.377846,224.0
2023-12-20 14:00:00.385535,247.0
2023-12-20 14:00:00.393224,195.0
2023-12-20 14:00:00.400913,119.0
2023-12-20 14:00:00.408602,-16.0
2023-12-20 14:00:00.416291,-114.0
2023-12-20 14:00:00.423980,-119.0
2023-12-20 14:00:00.431669,-92.0
2023-12-20 14:00:00.439358,-100.0
2023-12-20 14:00:00.447047,-121.0
2023-12-20 14:00:00.454736,-114.0
2023-12-20 14:00:00.462425,-123.0
2023-12-20 14:00:00.470114,-150.0
2023-12-20 14:00:00.477803,-138.0
2023-12-20 14:00:00.485492,-138.0
2023-12-20 14:00:00.493181,-169.0
2023-12-20 14:00:00.500870,-164.0
2023-12-20 14:00:00.508559,-162.0
2023-12-20 14:00:00.516248,-185.0
2023-12-20 14:00:00.523937,-188.0
2023-12-20 14:00:00.531626,-162.0
2023-12-20 14:00:00.539315,-162.0
2023-12-20 14:00:00.547004,-174.0
2023-12-20 14:00:00.554693,-166.0
2023-12-20 14:00:00.562382,-164.0
2023-12-20 14:00:00.570071,-164.0
2023-12-20 14:00:00.577760,-152.0
2023-12-20 14:00:00.585449,-133.0
2023-12-20 14:00:00.593138,-128.0
2023-12-20 14:00:00.600827,-119.0
2023-12-20 14:00:00.608516,-92.0
2023-12-20 14:00:00.616205,-71.0
2023-12-20 14:00:00.623894,-66.0
2023-12-20 14:00:00.631583,-54.0
2023-12-20 14:00:00.639272,-40.0
2023-12-20 14:00:00.646961,-45.0
2023-12-20 14:00:00.654650,-42.0
2023-12-20 14:00:00.662339,-23.0
2023-12-20 14:00:00.670028,-26.0
2023-12-20 14:00:00.677717,-45.0
2023-12-20 14:00:00.685406,-47.0
2023-12-20 14:00:00.693095,-52.0
2023-12-20 14:00:00.700784,-59.0
2023-12-20 14:00:00.708473,-52.0
2023-12-20 14:00:00.716162,-47.0
2023-12-20 14:00:00.723851,-50.0
2023-12-20 14:00:00.731540,-42.0
2023-12-20 14:00:00.739229,-35.0
2023-12-20 14:00:00.746918,-40.0
2023-12-20 14:00:00.754606,-52.0
2023-12-20 14:00:00.762295,-52.0
2023-12-20 14:00:00.769984,-45.0
2023-12-20 14:00:00.777673,-40.0
2023-12-20 14:00:00.785362,-30.0
2023-12-20 14:00:00.793051,-23.0
2023-12-20 14:00:00.800740,-33.0
2023-12-20 14:00:00.808429,-54.0
2023-12-20 14:00:00.816118,-71.0
2023-12-20 14:00:00.823807,-73.0
2023-12-20 14:00:00.831496,-59.0
2023-12-20 14:00:00.839185,-52.0
2023-12-20 14:00:00.846874,-71.0
2023-12-20 14:00:00.854563,-85.0
2023-12-20 14:00:00.862252,-66.0
2023-12-20 14:00:00.869941,-47.0
2023-12-20 14:00:00.877630,-50.0
2023-12-20 14:00:00.885319,-54.0
2023-12-20 14:00:00.893008,-50.0
2023-12-20 14:00:00.900697,-47.0
2023-12-20 14:00:00.908386,-57.0
2023-12-20 14:00:00.916075,-71.0
2023-12-20 14:00:00.923764,-95.0
2023-12-20 14:00:00.931453,-197.0
2023-12-20 14:00:00.939142,-388.0
2023-12-20 14:00:00.946831,-450.0
2023-12-20 14:00:00.954520,-185.0
2023-12-20 14:00:00.962209,143.0
2023-12-20 14:00:00.969898,214.0
2023-12-20 14:00:00.977587,171.0
2023-12-20 14:00:00.985276,126.0
2023-12-20 14:00:00.992965,-4.0
2023-12-20 14:00:01.000654,-143.0
2023-12-20 14:00:01.008343,-174.0
2023-12-20 14:00:01.016032,-157.0
2023-12-20 14:00:01.023721,-166.0
2023-12-20 14:00:01.031410,-174.0
2023-12-20 14:00:01.039099,-140.0
2023-12-20 14:00:01.046788,-126.0
2023-12-20 14:00:01.054477,-145.0
2023-12-20 14:00:01.062166,-145.0
2023-12-20 14:00:01.069855,-145.0
2023-12-20 14:00:01.077544,-166.0
2023-12-20 14:00:01.085233,-181.0
2023-12-20 14:00:01.092922,-181.0
2023-12-20 14:00:01.100611,-176.0
2023-12-20 14:00:01.108300,-159.0
2023-12-20 14:00:01.115989,-157.0
2023-12-20 14:00:01.123678,-169.0
2023-12-20 14:00:01.131367,-164.0
2023-12-20 14:00:01.139056,-159.0
2023-12-20 14:00:01.146745,-159.0
2023-12-20 14:00:01.154434,-162.0
2023-12-20 14:00:01.162123,-157.0
2023-12-20 14:00:01.169812,-131.0
2023-12-20 14:00:01.177501,-116.0
2023-12-20 14:00:01.185190,-123.0
2023-12-20 14:00:01.192879,-102.0
2023-12-20 14:00:01.200568,-52.0
2023-12-20 14:00:01.208257,-35.0
2023-12-20 14:00:01.215946,-52.0
2023-12-20 14:00:01.223635,-61.0
2023-12-20 14:00:01.231324,-61.0
2023-12-20 14:00:01.239013,-45.0
2023-12-20 14:00:01.246702,-26.0
2023-12-20 14:00:01.254391,-23.0
2023-12-20 14:00:01.262079,-30.0
2023-12-20 14:00:01.269768,-38.0
2023-12-20 14:00:01.277457,-40.0
2023-12-20 14:00:01.285146,-23.0
2023-12-20 14:00:01.292835,-14.0
2023-12-20 14:00:01.300524,-28.0
2023-12-20 14:00:01.308213,-33.0
2023-12-20 14:00:01.315902,-30.0
2023-12-20 14:00:01.323591,-45.0
2023-12-20 14:00:01.331280,-50.0
2023-12-20 14:00:01.338969,-30.0
2023-12-20 14:00:01.346658,-21.0
2023-12-20 14:00:01.354347,-16.0
2023-12-20 14:00:01.362036,-21.0
2023-12-20 14:00:01.369725,-38.0
2023-12-20 14:00:01.377414,-38.0
2023-12-20 14:00:01.385103,-30.0
2023-12-20 14:00:01.392792,-30.0
2023-12-20 14:00:01.400481,-30.0
2023-12-20 14:00:01.408170,-45.0
2023-12-20 14:00:01.415859,-66.0
2023-12-20 14:00:01.423548,-76.0
2023-12-20 14:00:01.431237,-83.0
2023-12-20 14:00:01.438926,-78.0
2023-12-20 14:00:01.446615,-45.0
2023-12-20 14:00:01.454304,-21.0
2023-12-20 14:00:01.461993,-14.0
2023-12-20 14:00:01.469682,-16.0
2023-12-20 14:00:01.477371,-23.0
2023-12-20 14:00:01.485060,-19.0
2023-12-20 14:00:01.492749,-21.0
2023-12-20 14:00:01.500438,-52.0
2023-12-20 14:00:01.508127,-73.0
2023-12-20 14:00:01.515816,-95.0
2023-12-20 14:00:01.523505,-216.0
2023-12-20 14:00:01.531194,-393.0
2023-12-20 14:00:01.538883,-343.0
2023-12-20 14:00:01.546572,4.0
2023-12-20 14:00:01.554261,286.0
2023-12-20 14:00:01.561950,295.0
2023-12-20 14:00:01.569639,221.0
2023-12-20 14:00:01.577328,135.0
2023-12-20 14:00:01.585017,9.0
2023-12-20 14:00:01.592706,-69.0
2023-12-20 14:00:01.600395,-71.0
2023-12-20 14:00:01.608084,-59.0
2023-12-20 14:00:01.615773,-64.0
2023-12-20 14:00:01.623462,-71.0
2023-12-20 14:00:01.631151,-95.0
2023-12-20 14:00:01.638840,-121.0
2023-12-20 14:00:01.646529,-116.0
2023-12-20 14:00:01.654218,-107.0
2023-12-20 14:00:01.661907,-123.0
2023-12-20 14:00:01.669596,-133.0
2023-12-20 14:00:01.677285,-121.0
2023-12-20 14:00:01.684974,-128.0
2023-12-20 14:00:01.692663,-150.0
2023-12-20 14:00:01.700352,-145.0
2023-12-20 14:00:01.708041,-131.0
2023-12-20 14:00:01.715730,-140.0
2023-12-20 14:00:01.723419,-154.0
2023-12-20 14:00:01.731108,-145.0
2023-12-20 14:00:01.738797,-138.0
2023-12-20 14:00:01.746486,-135.0
2023-12-20 14:00:01.754175,-112.0
2023-12-20 14:00:01.761863,-83.0
2023-12-20 14:00:01.769552,-73.0
2023-12-20 14:00:01.777241,-66.0
2023-12-20 14:00:01.784930,-54.0
2023-12-20 14:00:01.792619,-40.0
2023-12-20 14:00:01.800308,-23.0
2023-12-20 14:00:01.807997,-16.0
2023-12-20 14:00:01.815686,-16.0
2023-12-20 14:00:01.823375,-9.0
2023-12-20 14:00:01.831064,-4.0
2023-12-20 14:00:01.838753,-9.0
2023-12-20 14:00:01.846442,-4.0
2023-12-20 14:00:01.854131,0.0
2023-12-20 14:00:01.861820,-19.0
2023-12-20 14:00:01.869509,-47.0
2023-12-20 14:00:01.877198,-35.0
2023-12-20 14:00:01.884887,-11.0
2023-12-20 14:00:01.892576,-38.0
2023-12-20 14:00:01.900265,-57.0
2023-12-20 14:00:01.907954,-42.0
2023-12-20 14:00:01.915643,-35.0
2023-12-20 14:00:01.923332,-42.0
2023-12-20 14:00:01.931021,-40.0
2023-12-20 14:00:01.938710,-28.0
2023-12-20 14:00:01.946399,-28.0
2023-12-20 14:00:01.954088,-30.0
2023-12-20 14:00:01.961777,-21.0
2023-12-20 14:00:01.969466,-19.0
2023-12-20 14:00:01.977155,-26.0
2023-12-20 14:00:01.984844,-26.0
2023-12-20 14:00:01.992533,-35.0
2023-12-20 14:00:02.000222,-52.0
2023-12-20 14:00:02.007911,-54.0
2023-12-20 14:00:02.015600,-50.0
2023-12-20 14:00:02.023289,-50.0
2023-12-20 14:00:02.030978,-42.0
2023-12-20 14:00:02.038667,-16.0
2023-12-20 14:00:02.046356,4.0
2023-12-20 14:00:02.054045,-2.0
2023-12-20 14:00:02.061734,-19.0
2023-12-20 14:00:02.069423,-21.0
2023-12-20 14:00:02.077112,-21.0
2023-12-20 14:00:02.084801,-23.0
2023-12-20 14:00:02.092490,-23.0
2023-12-20 14:00:02.100179,-45.0
2023-12-20 14:00:02.107868,-147.0
2023-12-20 14:00:02.115557,-324.0
2023-12-20 14:00:02.123246,-391.0
2023-12-20 14:00:02.130935,-152.0
2023-12-20 14:00:02.138624,190.0
2023-12-20 14:00:02.146313,283.0
2023-12-20 14:00:02.154002,195.0
2023-12-20 14:00:02.161691,119.0
2023-12-20 14:00:02.169380,14.0
2023-12-20 14:00:02.177069,-92.0
2023-12-20 14:00:02.184758,-114.0
2023-12-20 14:00:02.192447,-85.0
2023-12-20 14:00:02.200136,-88.0
2023-12-20 14:00:02.207825,-104.0
2023-12-20 14:00:02.215514,-107.0
2023-12-20 14:00:02.223203,-92.0
2023-12-20 14:00:02.230892,-83.0
2023-12-20 14:00:02.238581,-95.0
2023-12-20 14:00:02.246270,-107.0
2023-12-20 14:00:02.253959,-109.0
2023-12-20 14:00:02.261647,-126.0
2023-12-20 14:00:02.269336,-140.0
2023-12-20 14:00:02.277025,-128.0
2023-12-20 14:00:02.284714,-123.0
2023-12-20 14:00:02.292403,-133.0
2023-12-20 14:00:02.300092,-131.0
2023-12-20 14:00:02.307781,-126.0
2023-12-20 14:00:02.315470,-126.0
2023-12-20 14:00:02.323159,-119.0
2023-12-20 14:00:02.330848,-109.0
2023-12-20 14:00:02.338537,-112.0
2023-12-20 14:00:02.346226,-102.0
2023-12-20 14:00:02.353915,-83.0
2023-12-20 14:00:02.361604,-66.0
2023-12-20 14:00:02.369293,-59.0
2023-12-20 14:00:02.376982,-64.0
2023-12-20 14:00:02.384671,-61.0
2023-12-20 14:00:02.392360,-40.0
2023-12-20 14:00:02.400049,-30.0
2023-12-20 14:00:02.407738,-38.0
2023-12-20 14:00:02.415427,-47.0
2023-12-20 14:00:02.423116,-45.0
2023-12-20 14:00:02.430805,-38.0
2023-12-20 14:00:02.438494,-35.0
2023-12-20 14:00:02.446183,-47.0
2023-12-20 14:00:02.453872,-47.0
2023-12-20 14:00:02.461561,-33.0
2023-12-20 14:00:02.469250,-33.0
2023-12-20 14:00:02.476939,-35.0
2023-12-20 14:00:02.484628,-30.0
2023-12-20 14:00:02.492317,-33.0
2023-12-20 14:00:02.500006,-40.0
2023-12-20 14:00:02.507695,-30.0
2023-12-20 14:00:02.515384,-23.0
2023-12-20 14:00:02.523073,-30.0
2023-12-20 14:00:02.530762,-26.0
2023-12-20 14:00:02.538451,-26.0
2023-12-20 14:00:02.546140,-30.0
2023-12-20 14:00:02.553829,-19.0
2023-12-20 14:00:02.561518,-4.0
2023-12-20 14:00:02.569207,-9.0
2023-12-20 14:00:02.576896,-38.0
2023-12-20 14:00:02.584585,-54.0
2023-12-20 14:00:02.592274,-42.0
2023-12-20 14:00:02.599963,-45.0
2023-12-20 14:00:02.607652,-54.0
2023-12-20 14:00:02.615341,-42.0
2023-12-20 14:00:02.623030,-19.0
2023-12-20 14:00:02.630719,-11.0
2023-12-20 14:00:02.638408,-11.0
2023-12-20 14:00:02.646097,-11.0
2023-12-20 14:00:02.653786,-14.0
2023-12-20 14:00:02.661475,-26.0
2023-12-20 14:00:02.669164,-61.0
2023-12-20 14:00:02.676853,-97.0
2023-12-20 14:00:02.684542,-85.0
2023-12-20 14:00:02.692231,-119.0
2023-12-20 14:00:02.699920,-267.0
2023-12-20 14:00:02.707609,-414.0
2023-12-20 14:00:02.715298,-324.0
2023-12-20 14:00:02.722987,7.0
2023-12-20 14:00:02.730676,236.0
2023-12-20 14:00:02.738365,224.0
2023-12-20 14:00:02.746054,150.0
2023-12-20 14:00:02.753743,45.0
2023-12-20 14:00:02.761432,-100.0
2023-12-20 14:00:02.769120,-164.0
2023-12-20 14:00:02.776809,-133.0
2023-12-20 14:00:02.784498,-107.0
2023-12-20 14:00:02.792187,-116.0
2023-12-20 14:00:02.799876,-140.0
2023-12-20 14:00:02.807565,-164.0
2023-12-20 14:00:02.815254,-164.0
2023-12-20 14:00:02.822943,-157.0
2023-12-20 14:00:02.830632,-162.0
2023-12-20 14:00:02.838321,-166.0
2023-12-20 14:00:02.846010,-171.0
2023-12-20 14:00:02.853699,-176.0
2023-12-20 14:00:02.861388,-176.0
2023-12-20 14:00:02.869077,-171.0
2023-12-20 14:00:02.876766,-166.0
2023-12-20 14:00:02.884455,-188.0
2023-12-20 14:00:02.892144,-212.0
2023-12-20 14:00:02.899833,-202.0
2023-12-20 14:00:02.907522,-183.0
2023-12-20 14:00:02.915211,-178.0
2023-12-20 14:00:02.922900,-176.0
2023-12-20 14:00:02.930589,-164.0
2023-12-20 14:00:02.938278,-150.0
2023-12-20 14:00:02.945967,-140.0
2023-12-20 14:00:02.953656,-119.0
2023-12-20 14:00:02.961345,-90.0
2023-12-20 14:00:02.969034,-71.0
2023-12-20 14:00:02.976723,-64.0
2023-12-20 14:00:02.984412,-59.0
2023-12-20 14:00:02.992101,-57.0
2023-12-20 14:00:02.999790,-50.0
2023-12-20 14:00:03.007479,-38.0
2023-12-20 14:00:03.015168,-35.0
2023-12-20 14:00:03.022857,-42.0
2023-12-20 14:00:03.030546,-52.0
2023-12-20 14:00:03.038235,-59.0
2023-12-20 14:00:03.045924,-47.0
2023-12-20 14:00:03.053613,-33.0
2023-12-20 14:00:03.061302,-35.0
2023-12-20 14:00:03.068991,-42.0
2023-12-20 14:00:03.076680,-38.0
2023-12-20 14:00:03.084369,-30.0
2023-12-20 14:00:03.092058,-26.0
2023-12-20 14:00:03.099747,-28.0
2023-12-20 14:00:03.107436,-38.0
2023-12-20 14:00:03.115125,-45.0
2023-12-20 14:00:03.122814,-40.0
2023-12-20 14:00:03.130503,-28.0
2023-12-20 14:00:03.138192,-26.0
2023-12-20 14:00:03.145881,-47.0
2023-12-20 14:00:03.153570,-61.0
2023-12-20 14:00:03.161259,-57.0
2023-12-20 14:00:03.168948,-61.0
2023-12-20 14:00:03.176637,-69.0
2023-12-20 14:00:03.184326,-57.0
2023-12-20 14:00:03.192015,-50.0
2023-12-20 14:00:03.199704,-57.0
2023-12-20 14:00:03.207393,-50.0
2023-12-20 14:00:03.215082,-38.0
2023-12-20 14:00:03.222771,-35.0
2023-12-20 14:00:03.230460,-28.0
2023-12-20 14:00:03.238149,-23.0
2023-12-20 14:00:03.245838,-30.0
2023-12-20 14:00:03.253527,-45.0
2023-12-20 14:00:03.261216,-45.0
2023-12-20 14:00:03.268904,-47.0
2023-12-20 14:00:03.276593,-102.0
2023-12-20 14:00:03.284282,-238.0
2023-12-20 14:00:03.291971,-381.0
2023-12-20 14:00:03.299660,-317.0
2023-12-20 14:00:03.307349,2.0
2023-12-20 14:00:03.315038,240.0
2023-12-20 14:00:03.322727,238.0
2023-12-20 14:00:03.330416,169.0
2023-12-20 14:00:03.338105,81.0
2023-12-20 14:00:03.345794,-47.0
2023-12-20 14:00:03.353483,-116.0
2023-12-20 14:00:03.361172,-107.0
2023-12-20 14:00:03.368861,-97.0
2023-12-20 14:00:03.376550,-104.0
2023-12-20 14:00:03.384239,-107.0
2023-12-20 14:00:03.391928,-121.0
2023-12-20 14:00:03.399617,-147.0
2023-12-20 14:00:03.407306,-147.0
2023-12-20 14:00:03.414995,-135.0
2023-12-20 14:00:03.422684,-145.0
2023-12-20 14:00:03.430373,-154.0
2023-12-20 14:00:03.438062,-162.0
2023-12-20 14:00:03.445751,-164.0
2023-12-20 14:00:03.453440,-162.0
2023-12-20 14:00:03.461129,-162.0
2023-12-20 14:00:03.468818,-159.0
2023-12-20 14:00:03.476507,-150.0
2023-12-20 14:00:03.484196,-150.0
2023-12-20 14:00:03.491885,-143.0
2023-12-20 14:00:03.499574,-135.0
2023-12-20 14:00:03.507263,-135.0
2023-12-20 14:00:03.514952,-135.0
2023-12-20 14:00:03.522641,-128.0
2023-12-20 14:00:03.530330,-119.0
2023-12-20 14:00:03.538019,-100.0
2023-12-20 14:00:03.545708,-73.0
2023-12-20 14:00:03.553397,-52.0
2023-12-20 14:00:03.561086,-38.0
2023-12-20 14:00:03.568775,-28.0
2023-12-20 14:00:03.576464,-33.0
2023-12-20 14:00:03.584153,-33.0
2023-12-20 14:00:03.591842,-26.0
2023-12-20 14:00:03.599531,-26.0
2023-12-20 14:00:03.607220,-30.0
2023-12-20 14:00:03.614909,-38.0
2023-12-20 14:00:03.622598,-38.0
2023-12-20 14:00:03.630287,-33.0
2023-12-20 14:00:03.637976,-38.0
2023-12-20 14:00:03.645665,-45.0
2023-12-20 14:00:03.653354,-45.0
2023-12-20 14:00:03.661043,-50.0
2023-12-20 14:00:03.668732,-50.0
2023-12-20 14:00:03.676421,-40.0
2023-12-20 14:00:03.684110,-30.0
2023-12-20 14:00:03.691799,-28.0
2023-12-20 14:00:03.699488,-33.0
2023-12-20 14:00:03.707177,-40.0
2023-12-20 14:00:03.714866,-42.0
2023-12-20 14:00:03.722555,-42.0
2023-12-20 14:00:03.730244,-33.0
2023-12-20 14:00:03.737933,-28.0
2023-12-20 14:00:03.745622,-50.0
2023-12-20 14:00:03.753311,-59.0
2023-12-20 14:00:03.761000,-50.0
2023-12-20 14:00:03.768688,-59.0
2023-12-20 14:00:03.776377,-69.0
2023-12-20 14:00:03.784066,-50.0
2023-12-20 14:00:03.791755,-30.0
2023-12-20 14:00:03.799444,-26.0
2023-12-20 14:00:03.807133,-19.0
2023-12-20 14:00:03.814822,-16.0
2023-12-20 14:00:03.822511,-28.0
2023-12-20 14:00:03.830200,-42.0
2023-12-20 14:00:03.837889,-66.0
2023-12-20 14:00:03.845578,-85.0
2023-12-20 14:00:03.853267,-123.0
2023-12-20 14:00:03.860956,-271.0
2023-12-20 14:00:03.868645,-455.0
2023-12-20 14:00:03.876334,-379.0
2023-12-20 14:00:03.884023,-9.0
2023-12-20 14:00:03.891712,245.0
2023-12-20 14:00:03.899401,224.0
2023-12-20 14:00:03.907090,154.0
2023-12-20 14:00:03.914779,81.0
2023-12-20 14:00:03.922468,-50.0
2023-12-20 14:00:03.930157,-133.0
2023-12-20 14:00:03.937846,-121.0
2023-12-20 14:00:03.945535,-100.0
2023-12-20 14:00:03.953224,-109.0
2023-12-20 14:00:03.960913,-112.0
2023-12-20 14:00:03.968602,-114.0
2023-12-20 14:00:03.976291,-121.0
2023-12-20 14:00:03.983980,-121.0
2023-12-20 14:00:03.991669,-116.0
2023-12-20 14:00:03.999358,-126.0
2023-12-20 14:00:04.007047,-133.0
2023-12-20 14:00:04.014736,-138.0
2023-12-20 14:00:04.022425,-150.0
2023-12-20 14:00:04.030114,-147.0
2023-12-20 14:00:04.037803,-143.0
2023-12-20 14:00:04.045492,-147.0
2023-12-20 14:00:04.053181,-138.0
2023-12-20 14:00:04.060870,-126.0
2023-12-20 14:00:04.068559,-138.0
2023-12-20 14:00:04.076248,-133.0
2023-12-20 14:00:04.083937,-107.0
2023-12-20 14:00:04.091626,-107.0
2023-12-20 14:00:04.099315,-119.0
2023-12-20 14:00:04.107004,-102.0
2023-12-20 14:00:04.114693,-73.0
2023-12-20 14:00:04.122382,-57.0
2023-12-20 14:00:04.130071,-52.0
2023-12-20 14:00:04.137760,-45.0
2023-12-20 14:00:04.145449,-35.0
2023-12-20 14:00:04.153138,-33.0
2023-12-20 14:00:04.160827,-42.0
2023-12-20 14:00:04.168516,-30.0
2023-12-20 14:00:04.176205,-14.0
2023-12-20 14:00:04.183894,-28.0
2023-12-20 14:00:04.191583,-40.0
2023-12-20 14:00:04.199272,-26.0
2023-12-20 14:00:04.206961,-19.0
2023-12-20 14:00:04.214650,-28.0
2023-12-20 14:00:04.222339,-28.0
2023-12-20 14:00:04.230028,-23.0
2023-12-20 14:00:04.237717,-28.0
2023-12-20 14:00:04.245406,-33.0
2023-12-20 14:00:04.253095,-30.0
2023-12-20 14:00:04.260784,-21.0
2023-12-20 14:00:04.268473,-14.0
2023-12-20 14:00:04.276161,-14.0
2023-12-20 14:00:04.283850,-14.0
2023-12-20 14:00:04.291539,-14.0
2023-12-20 14:00:04.299228,-11.0
2023-12-20 14:00:04.306917,-16.0
2023-12-20 14:00:04.314606,-28.0
2023-12-20 14:00:04.322295,-35.0
2023-12-20 14:00:04.329984,-47.0
2023-12-20 14:00:04.337673,-85.0
2023-12-20 14:00:04.345362,-92.0
2023-12-20 14:00:04.353051,-52.0
2023-12-20 14:00:04.360740,-30.0
2023-12-20 14:00:04.368429,-33.0
2023-12-20 14:00:04.376118,-26.0
2023-12-20 14:00:04.383807,-28.0
2023-12-20 14:00:04.391496,-35.0
2023-12-20 14:00:04.399185,-33.0
2023-12-20 14:00:04.406874,-45.0
2023-12-20 14:00:04.414563,-71.0
2023-12-20 14:00:04.422252,-128.0
2023-12-20 14:00:04.429941,-290.0
2023-12-20 14:00:04.437630,-462.0
2023-12-20 14:00:04.445319,-357.0
2023-12-20 14:00:04.453008,23.0
2023-12-20 14:00:04.460697,278.0
2023-12-20 14:00:04.468386,262.0
2023-12-20 14:00:04.476075,176.0
2023-12-20 14:00:04.483764,83.0
2023-12-20 14:00:04.491453,-33.0
2023-12-20 14:00:04.499142,-95.0
2023-12-20 14:00:04.506831,-81.0
2023-12-20 14:00:04.514520,-71.0
2023-12-20 14:00:04.522209,-78.0
2023-12-20 14:00:04.529898,-83.0
2023-12-20 14:00:04.537587,-83.0
2023-12-20 14:00:04.545276,-83.0
2023-12-20 14:00:04.552965,-95.0
2023-12-20 14:00:04.560654,-102.0
2023-12-20 14:00:04.568343,-90.0
2023-12-20 14:00:04.576032,-88.0
2023-12-20 14:00:04.583721,-102.0
2023-12-20 14:00:04.591410,-107.0
2023-12-20 14:00:04.599099,-109.0
2023-12-20 14:00:04.606788,-121.0
2023-12-20 14:00:04.614477,-121.0
2023-12-20 14:00:04.622166,-114.0
2023-12-20 14:00:04.629855,-128.0
2023-12-20 14:00:04.637544,-133.0
2023-12-20 14:00:04.645233,-119.0
2023-12-20 14:00:04.652922,-112.0
2023-12-20 14:00:04.660611,-104.0
2023-12-20 14:00:04.668300,-90.0
2023-12-20 14:00:04.675989,-83.0
2023-12-20 14:00:04.683678,-73.0
2023-12-20 14:00:04.691367,-47.0
2023-12-20 14:00:04.699056,-33.0
2023-12-20 14:00:04.706745,-28.0
2023-12-20 14:00:04.714434,-19.0
2023-12-20 14:00:04.722123,-9.0
2023-12-20 14:00:04.729812,-9.0
2023-12-20 14:00:04.737501,-16.0
2023-12-20 14:00:04.745190,-19.0
2023-12-20 14:00:04.752879,-14.0
2023-12-20 14:00:04.760568,-19.0
2023-12-20 14:00:04.768257,-21.0
2023-12-20 14:00:04.775945,-16.0
2023-12-20 14:00:04.783634,-19.0
2023-12-20 14:00:04.791323,-21.0
2023-12-20 14:00:04.799012,-14.0
2023-12-20 14:00:04.806701,-14.0
2023-12-20 14:00:04.814390,-14.0
2023-12-20 14:00:04.822079,-4.0
2023-12-20 14:00:04.829768,-11.0
2023-12-20 14:00:04.837457,-19.0
2023-12-20 14:00:04.845146,-2.0
2023-12-20 14:00:04.852835,-2.0
2023-12-20 14:00:04.860524,-14.0
2023-12-20 14:00:04.868213,-11.0
2023-12-20 14:00:04.875902,-19.0
2023-12-20 14:00:04.883591,-30.0
2023-12-20 14:00:04.891280,-28.0
2023-12-20 14:00:04.898969,-28.0
2023-12-20 14:00:04.906658,-45.0
2023-12-20 14:00:04.914347,-78.0
2023-12-20 14:00:04.922036,-109.0
2023-12-20 14:00:04.929725,-90.0
2023-12-20 14:00:04.937414,-50.0
2023-12-20 14:00:04.945103,-50.0
2023-12-20 14:00:04.952792,-57.0
2023-12-20 14:00:04.960481,-57.0
2023-12-20 14:00:04.968170,-61.0
2023-12-20 14:00:04.975859,-50.0
2023-12-20 14:00:04.983548,-35.0
2023-12-20 14:00:04.991237,-54.0
2023-12-20 14:00:04.998926,-164.0
2023-12-20 14:00:05.006615,-362.0
2023-12-20 14:00:05.014304,-407.0
2023-12-20 14:00:05.021993,-126.0
2023-12-20 14:00:05.029682,207.0
2023-12-20 14:00:05.037371,286.0
2023-12-20 14:00:05.045060,212.0
2023-12-20 14:00:05.052749,116.0
2023-12-20 14:00:05.060438,2.0
2023-12-20 14:00:05.068127,-69.0
2023-12-20 14:00:05.075816,-81.0
2023-12-20 14:00:05.083505,-69.0
2023-12-20 14:00:05.091194,-57.0
2023-12-20 14:00:05.098883,-64.0
2023-12-20 14:00:05.106572,-78.0
2023-12-20 14:00:05.114261,-83.0
2023-12-20 14:00:05.121950,-95.0
2023-12-20 14:00:05.129639,-104.0
2023-12-20 14:00:05.137328,-102.0
2023-12-20 14:00:05.145017,-109.0
2023-12-20 14:00:05.152706,-114.0
2023-12-20 14:00:05.160395,-102.0
2023-12-20 14:00:05.168084,-100.0
2023-12-20 14:00:05.175773,-112.0
2023-12-20 14:00:05.183462,-109.0
2023-12-20 14:00:05.191151,-112.0
2023-12-20 14:00:05.198840,-126.0
2023-12-20 14:00:05.206529,-116.0
2023-12-20 14:00:05.214218,-100.0
2023-12-20 14:00:05.221907,-107.0
2023-12-20 14:00:05.229596,-116.0
2023-12-20 14:00:05.237285,-109.0
2023-12-20 14:00:05.244974,-92.0
2023-12-20 14:00:05.252663,-78.0
2023-12-20 14:00:05.260352,-61.0
2023-12-20 14:00:05.268041,-38.0
2023-12-20 14:00:05.275729,-19.0
2023-12-20 14:00:05.283418,-16.0
2023-12-20 14:00:05.291107,-23.0
2023-12-20 14:00:05.298796,-21.0
2023-12-20 14:00:05.306485,-16.0
2023-12-20 14:00:05.314174,-11.0
2023-12-20 14:00:05.321863,-19.0
2023-12-20 14:00:05.329552,-35.0
2023-12-20 14:00:05.337241,-40.0
2023-12-20 14:00:05.344930,-28.0
2023-12-20 14:00:05.352619,-21.0
2023-12-20 14:00:05.360308,-21.0
2023-12-20 14:00:05.367997,-21.0
2023-12-20 14:00:05.375686,-30.0
2023-12-20 14:00:05.383375,-38.0
2023-12-20 14:00:05.391064,-35.0
2023-12-20 14:00:05.398753,-28.0
2023-12-20 14:00:05.406442,-26.0
2023-12-20 14:00:05.414131,-40.0
2023-12-20 14:00:05.421820,-50.0
2023-12-20 14:00:05.429509,-40.0
2023-12-20 14:00:05.437198,-33.0
2023-12-20 14:00:05.444887,-38.0
2023-12-20 14:00:05.452576,-42.0
2023-12-20 14:00:05.460265,-47.0
2023-12-20 14:00:05.467954,-57.0
2023-12-20 14:00:05.475643,-66.0
2023-12-20 14:00:05.483332,-66.0
2023-12-20 14:00:05.491021,-57.0
2023-12-20 14:00:05.498710,-50.0
2023-12-20 14:00:05.506399,-66.0
2023-12-20 14:00:05.514088,-71.0
2023-12-20 14:00:05.521777,-47.0
2023-12-20 14:00:05.529466,-40.0
2023-12-20 14:00:05.537155,-47.0
2023-12-20 14:00:05.544844,-38.0
2023-12-20 14:00:05.552533,-33.0
2023-12-20 14:00:05.560222,-45.0
2023-12-20 14:00:05.567911,-64.0
2023-12-20 14:00:05.575600,-147.0
2023-12-20 14:00:05.583289,-314.0
2023-12-20 14:00:05.590978,-369.0
2023-12-20 14:00:05.598667,-112.0
2023-12-20 14:00:05.606356,214.0
2023-12-20 14:00:05.614045,278.0
2023-12-20 14:00:05.621734,195.0
2023-12-20 14:00:05.629423,107.0
2023-12-20 14:00:05.637112,-14.0
2023-12-20 14:00:05.644801,-97.0
2023-12-20 14:00:05.652490,-95.0
2023-12-20 14:00:05.660179,-81.0
2023-12-20 14:00:05.667868,-88.0
2023-12-20 14:00:05.675557,-90.0
2023-12-20 14:00:05.683246,-88.0
2023-12-20 14:00:05.690935,-90.0
2023-12-20 14:00:05.698624,-90.0
2023-12-20 14:00:05.706313,-92.0
2023-12-20 14:00:05.714002,-95.0
2023-12-20 14:00:05.721691,-95.0
2023-12-20 14:00:05.729380,-100.0
2023-12-20 14:00:05.737069,-104.0
2023-12-20 14:00:05.744758,-102.0
2023-12-20 14:00:05.752447,-104.0
2023-12-20 14:00:05.760136,-109.0
2023-12-20 14:00:05.767825,-102.0
2023-12-20 14:00:05.775514,-107.0
2023-12-20 14:00:05.783202,-121.0
2023-12-20 14:00:05.790891,-121.0
2023-12-20 14:00:05.798580,-107.0
2023-12-20 14:00:05.806269,-100.0
2023-12-20 14:00:05.813958,-102.0
2023-12-20 14:00:05.821647,-102.0
2023-12-20 14:00:05.829336,-88.0
2023-12-20 14:00:05.837025,-61.0
2023-12-20 14:00:05.844714,-54.0
2023-12-20 14:00:05.852403,-45.0
2023-12-20 14:00:05.860092,-30.0
2023-12-20 14:00:05.867781,-33.0
2023-12-20 14:00:05.875470,-38.0
2023-12-20 14:00:05.883159,-35.0
2023-12-20 14:00:05.890848,-35.0
2023-12-20 14:00:05.898537,-30.0
2023-12-20 14:00:05.906226,-26.0
2023-12-20 14:00:05.913915,-40.0
2023-12-20 14:00:05.921604,-61.0
2023-12-20 14:00:05.929293,-59.0
2023-12-20 14:00:05.936982,-45.0
2023-12-20 14:00:05.944671,-50.0
2023-12-20 14:00:05.952360,-57.0
2023-12-20 14:00:05.960049,-47.0
2023-12-20 14:00:05.967738,-33.0
2023-12-20 14:00:05.975427,-33.0
2023-12-20 14:00:05.983116,-42.0
2023-12-20 14:00:05.990805,-35.0
2023-12-20 14:00:05.998494,-28.0
2023-12-20 14:00:06.006183,-33.0
2023-12-20 14:00:06.013872,-42.0
2023-12-20 14:00:06.021561,-45.0
2023-12-20 14:00:06.029250,-42.0
2023-12-20 14:00:06.036939,-54.0
2023-12-20 14:00:06.044628,-83.0
2023-12-20 14:00:06.052317,-95.0
2023-12-20 14:00:06.060006,-83.0
2023-12-20 14:00:06.067695,-78.0
2023-12-20 14:00:06.075384,-76.0
2023-12-20 14:00:06.083073,-50.0
2023-12-20 14:00:06.090762,-35.0
2023-12-20 14:00:06.098451,-45.0
2023-12-20 14:00:06.106140,-57.0
2023-12-20 14:00:06.113829,-59.0
2023-12-20 14:00:06.121518,-54.0
2023-12-20 14:00:06.129207,-47.0
2023-12-20 14:00:06.136896,-57.0
2023-12-20 14:00:06.144585,-92.0
2023-12-20 14:00:06.152274,-200.0
2023-12-20 14:00:06.159963,-348.0
2023-12-20 14:00:06.167652,-309.0
2023-12-20 14:00:06.175341,0.0
2023-12-20 14:00:06.183030,238.0
2023-12-20 14:00:06.190719,231.0
2023-12-20 14:00:06.198408,176.0
2023-12-20 14:00:06.206097,102.0
2023-12-20 14:00:06.213786,-26.0
2023-12-20 14:00:06.221475,-97.0
2023-12-20 14:00:06.229164,-102.0
2023-12-20 14:00:06.236853,-104.0
2023-12-20 14:00:06.244542,-95.0
2023-12-20 14:00:06.252231,-92.0
2023-12-20 14:00:06.259920,-109.0
2023-12-20 14:00:06.267609,-112.0
2023-12-20 14:00:06.275298,-102.0
2023-12-20 14:00:06.282986,-100.0
2023-12-20 14:00:06.290675,-104.0
2023-12-20 14:00:06.298364,-107.0
2023-12-20 14:00:06.306053,-107.0
2023-12-20 14:00:06.313742,-114.0
2023-12-20 14:00:06.321431,-119.0
2023-12-20 14:00:06.329120,-112.0
2023-12-20 14:00:06.336809,-114.0
2023-12-20 14:00:06.344498,-123.0
2023-12-20 14:00:06.352187,-133.0
2023-12-20 14:00:06.359876,-147.0
2023-12-20 14:00:06.367565,-147.0
2023-12-20 14:00:06.375254,-133.0
2023-12-20 14:00:06.382943,-116.0
2023-12-20 14:00:06.390632,-112.0
2023-12-20 14:00:06.398321,-119.0
2023-12-20 14:00:06.406010,-119.0
2023-12-20 14:00:06.413699,-107.0
2023-12-20 14:00:06.421388,-97.0
2023-12-20 14:00:06.429077,-97.0
2023-12-20 14:00:06.436766,-81.0
2023-12-20 14:00:06.444455,-61.0
2023-12-20 14:00:06.452144,-61.0
2023-12-20 14:00:06.459833,-57.0
2023-12-20 14:00:06.467522,-50.0
2023-12-20 14:00:06.475211,-64.0
2023-12-20 14:00:06.482900,-73.0
2023-12-20 14:00:06.490589,-71.0
2023-12-20 14:00:06.498278,-76.0
2023-12-20 14:00:06.505967,-71.0
2023-12-20 14:00:06.513656,-59.0
2023-12-20 14:00:06.521345,-57.0
2023-12-20 14:00:06.529034,-59.0
2023-12-20 14:00:06.536723,-57.0
2023-12-20 14:00:06.544412,-57.0
2023-12-20 14:00:06.552101,-45.0
2023-12-20 14:00:06.559790,-45.0
2023-12-20 14:00:06.567479,-52.0
2023-12-20 14:00:06.575168,-54.0
2023-12-20 14:00:06.582857,-73.0
2023-12-20 14:00:06.590546,-97.0
2023-12-20 14:00:06.598235,-90.0
2023-12-20 14:00:06.605924,-92.0
2023-12-20 14:00:06.613613,-112.0
2023-12-20 14:00:06.621302,-116.0
2023-12-20 14:00:06.628991,-119.0
2023-12-20 14:00:06.636680,-114.0
2023-12-20 14:00:06.644369,-90.0
2023-12-20 14:00:06.652058,-73.0
2023-12-20 14:00:06.659747,-61.0
2023-12-20 14:00:06.667436,-50.0
2023-12-20 14:00:06.675125,-57.0
2023-12-20 14:00:06.682814,-71.0
2023-12-20 14:00:06.690503,-57.0
2023-12-20 14:00:06.698192,-47.0
2023-12-20 14:00:06.705881,-54.0
2023-12-20 14:00:06.713570,-73.0
2023-12-20 14:00:06.721259,-171.0
2023-12-20 14:00:06.728948,-360.0
2023-12-20 14:00:06.736637,-422.0
2023-12-20 14:00:06.744326,-145.0
2023-12-20 14:00:06.752015,212.0
2023-12-20 14:00:06.759704,295.0
2023-12-20 14:00:06.767393,221.0
2023-12-20 14:00:06.775082,135.0
2023-12-20 14:00:06.782770,16.0
2023-12-20 14:00:06.790459,-76.0
2023-12-20 14:00:06.798148,-92.0
2023-12-20 14:00:06.805837,-97.0
2023-12-20 14:00:06.813526,-112.0
2023-12-20 14:00:06.821215,-104.0
2023-12-20 14:00:06.828904,-97.0
2023-12-20 14:00:06.836593,-107.0
2023-12-20 14:00:06.844282,-114.0
2023-12-20 14:00:06.851971,-123.0
2023-12-20 14:00:06.859660,-126.0
2023-12-20 14:00:06.867349,-119.0
2023-12-20 14:00:06.875038,-123.0
2023-12-20 14:00:06.882727,-126.0
2023-12-20 14:00:06.890416,-109.0
2023-12-20 14:00:06.898105,-109.0
2023-12-20 14:00:06.905794,-128.0
2023-12-20 14:00:06.913483,-123.0
2023-12-20 14:00:06.921172,-119.0
2023-12-20 14:00:06.928861,-135.0
2023-12-20 14:00:06.936550,-135.0
2023-12-20 14:00:06.944239,-128.0
2023-12-20 14:00:06.951928,-140.0
2023-12-20 14:00:06.959617,-150.0
2023-12-20 14:00:06.967306,-135.0
2023-12-20 14:00:06.974995,-112.0
2023-12-20 14:00:06.982684,-102.0
2023-12-20 14:00:06.990373,-92.0
2023-12-20 14:00:06.998062,-73.0
2023-12-20 14:00:07.005751,-61.0
2023-12-20 14:00:07.013440,-54.0
2023-12-20 14:00:07.021129,-50.0
2023-12-20 14:00:07.028818,-50.0
2023-12-20 14:00:07.036507,-50.0
2023-12-20 14:00:07.044196,-42.0
2023-12-20 14:00:07.051885,-33.0
2023-12-20 14:00:07.059574,-47.0
2023-12-20 14:00:07.067263,-59.0
2023-12-20 14:00:07.074952,-50.0
2023-12-20 14:00:07.082641,-54.0
2023-12-20 14:00:07.090330,-71.0
2023-12-20 14:00:07.098019,-61.0
2023-12-20 14:00:07.105708,-54.0
2023-12-20 14:00:07.113397,-69.0
2023-12-20 14:00:07.121086,-66.0
2023-12-20 14:00:07.128775,-54.0
2023-12-20 14:00:07.136464,-52.0
2023-12-20 14:00:07.144153,-45.0
2023-12-20 14:00:07.151842,-35.0
2023-12-20 14:00:07.159531,-35.0
2023-12-20 14:00:07.167220,-59.0
2023-12-20 14:00:07.174909,-95.0
2023-12-20 14:00:07.182598,-92.0
2023-12-20 14:00:07.190287,-83.0
2023-12-20 14:00:07.197976,-92.0
2023-12-20 14:00:07.205665,-90.0
2023-12-20 14:00:07.213354,-73.0
2023-12-20 14:00:07.221043,-66.0
2023-12-20 14:00:07.228732,-50.0
2023-12-20 14:00:07.236421,-30.0
2023-12-20 14:00:07.244110,-23.0
2023-12-20 14:00:07.251799,-26.0
2023-12-20 14:00:07.259488,-35.0
2023-12-20 14:00:07.267177,-40.0
2023-12-20 14:00:07.274866,-40.0
2023-12-20 14:00:07.282555,-57.0
2023-12-20 14:00:07.290243,-147.0
2023-12-20 14:00:07.297932,-321.0
2023-12-20 14:00:07.305621,-410.0
2023-12-20 14:00:07.313310,-164.0
2023-12-20 14:00:07.320999,214.0
2023-12-20 14:00:07.328688,333.0
2023-12-20 14:00:07.336377,250.0
2023-12-20 14:00:07.344066,147.0
2023-12-20 14:00:07.351755,23.0
2023-12-20 14:00:07.359444,-73.0
2023-12-20 14:00:07.367133,-90.0
2023-12-20 14:00:07.374822,-73.0
2023-12-20 14:00:07.382511,-76.0
2023-12-20 14:00:07.390200,-92.0
2023-12-20 14:00:07.397889,-95.0
2023-12-20 14:00:07.405578,-81.0
2023-12-20 14:00:07.413267,-88.0
2023-12-20 14:00:07.420956,-109.0
2023-12-20 14:00:07.428645,-116.0
2023-12-20 14:00:07.436334,-119.0
2023-12-20 14:00:07.444023,-123.0
2023-12-20 14:00:07.451712,-121.0
2023-12-20 14:00:07.459401,-114.0
2023-12-20 14:00:07.467090,-112.0
2023-12-20 14:00:07.474779,-102.0
2023-12-20 14:00:07.482468,-100.0
2023-12-20 14:00:07.490157,-104.0
2023-12-20 14:00:07.497846,-92.0
2023-12-20 14:00:07.505535,-85.0
2023-12-20 14:00:07.513224,-92.0
2023-12-20 14:00:07.520913,-88.0
2023-12-20 14:00:07.528602,-88.0
2023-12-20 14:00:07.536291,-100.0
2023-12-20 14:00:07.543980,-92.0
2023-12-20 14:00:07.551669,-71.0
2023-12-20 14:00:07.559358,-52.0
2023-12-20 14:00:07.567047,-38.0
2023-12-20 14:00:07.574736,-28.0
2023-12-20 14:00:07.582425,-26.0
2023-12-20 14:00:07.590114,-28.0
2023-12-20 14:00:07.597803,-40.0
2023-12-20 14:00:07.605492,-38.0
2023-12-20 14:00:07.613181,-30.0
2023-12-20 14:00:07.620870,-38.0
2023-12-20 14:00:07.628559,-33.0
2023-12-20 14:00:07.636248,-23.0
2023-12-20 14:00:07.643937,-38.0
2023-12-20 14:00:07.651626,-47.0
2023-12-20 14:00:07.659315,-33.0
2023-12-20 14:00:07.667004,-26.0
2023-12-20 14:00:07.674693,-35.0
2023-12-20 14:00:07.682382,-38.0
2023-12-20 14:00:07.690071,-35.0
2023-12-20 14:00:07.697760,-28.0
2023-12-20 14:00:07.705449,-33.0
2023-12-20 14:00:07.713138,-59.0
2023-12-20 14:00:07.720827,-59.0
2023-12-20 14:00:07.728516,-42.0
2023-12-20 14:00:07.736205,-45.0
2023-12-20 14:00:07.743894,-52.0
2023-12-20 14:00:07.751583,-52.0
2023-12-20 14:00:07.759272,-61.0
2023-12-20 14:00:07.766961,-66.0
2023-12-20 14:00:07.774650,-66.0
2023-12-20 14:00:07.782339,-64.0
2023-12-20 14:00:07.790027,-50.0
2023-12-20 14:00:07.797716,-28.0
2023-12-20 14:00:07.805405,-11.0
2023-12-20 14:00:07.813094,-7.0
2023-12-20 14:00:07.820783,-16.0
2023-12-20 14:00:07.828472,-35.0
2023-12-20 14:00:07.836161,-38.0
2023-12-20 14:00:07.843850,-30.0
2023-12-20 14:00:07.851539,-38.0
2023-12-20 14:00:07.859228,-92.0
2023-12-20 14:00:07.866917,-250.0
2023-12-20 14:00:07.874606,-388.0
2023-12-20 14:00:07.882295,-238.0
2023-12-20 14:00:07.889984,128.0
2023-12-20 14:00:07.897673,314.0
2023-12-20 14:00:07.905362,274.0
2023-12-20 14:00:07.913051,195.0
2023-12-20 14:00:07.920740,83.0
2023-12-20 14:00:07.928429,-50.0
2023-12-20 14:00:07.936118,-107.0
2023-12-20 14:00:07.943807,-90.0
2023-12-20 14:00:07.951496,-83.0
2023-12-20 14:00:07.959185,-102.0
2023-12-20 14:00:07.966874,-100.0
2023-12-20 14:00:07.974563,-85.0
2023-12-20 14:00:07.982252,-88.0
2023-12-20 14:00:07.989941,-92.0
2023-12-20 14:00:07.997630,-92.0
2023-12-20 14:00:08.005319,-100.0
2023-12-20 14:00:08.013008,-97.0
2023-12-20 14:00:08.020697,-85.0
2023-12-20 14:00:08.028386,-85.0
2023-12-20 14:00:08.036075,-88.0
2023-12-20 14:00:08.043764,-83.0
2023-12-20 14:00:08.051453,-81.0
2023-12-20 14:00:08.059142,-85.0
2023-12-20 14:00:08.066831,-92.0
2023-12-20 14:00:08.074520,-90.0
2023-12-20 14:00:08.082209,-85.0
2023-12-20 14:00:08.089898,-83.0
2023-12-20 14:00:08.097587,-88.0
2023-12-20 14:00:08.105276,-92.0
2023-12-20 14:00:08.112965,-83.0
2023-12-20 14:00:08.120654,-71.0
2023-12-20 14:00:08.128343,-54.0
2023-12-20 14:00:08.136032,-30.0
2023-12-20 14:00:08.143721,-21.0
2023-12-20 14:00:08.151410,-21.0
2023-12-20 14:00:08.159099,-14.0
2023-12-20 14:00:08.166788,-14.0
2023-12-20 14:00:08.174477,-16.0
2023-12-20 14:00:08.182166,-14.0
2023-12-20 14:00:08.189855,-14.0
2023-12-20 14:00:08.197544,-26.0
2023-12-20 14:00:08.205233,-33.0
2023-12-20 14:00:08.212922,-19.0
2023-12-20 14:00:08.220611,-2.0
2023-12-20 14:00:08.228300,-7.0
2023-12-20 14:00:08.235989,-11.0
2023-12-20 14:00:08.243678,-16.0
2023-12-20 14:00:08.251367,-30.0
2023-12-20 14:00:08.259056,-28.0
2023-12-20 14:00:08.266745,-19.0
2023-12-20 14:00:08.274434,-11.0
2023-12-20 14:00:08.282123,-14.0
2023-12-20 14:00:08.289811,-28.0
2023-12-20 14:00:08.297500,-50.0
2023-12-20 14:00:08.305189,-57.0
2023-12-20 14:00:08.312878,-42.0
2023-12-20 14:00:08.320567,-52.0
2023-12-20 14:00:08.328256,-76.0
2023-12-20 14:00:08.335945,-78.0
2023-12-20 14:00:08.343634,-73.0
2023-12-20 14:00:08.351323,-73.0
2023-12-20 14:00:08.359012,-61.0
2023-12-20 14:00:08.366701,-42.0
2023-12-20 14:00:08.374390,-33.0
2023-12-20 14:00:08.382079,-30.0
2023-12-20 14:00:08.389768,-30.0
2023-12-20 14:00:08.397457,-28.0
2023-12-20 14:00:08.405146,-21.0
2023-12-20 14:00:08.412835,-9.0
2023-12-20 14:00:08.420524,-19.0
2023-12-20 14:00:08.428213,-76.0
2023-12-20 14:00:08.435902,-221.0
2023-12-20 14:00:08.443591,-391.0
2023-12-20 14:00:08.451280,-307.0
2023-12-20 14:00:08.458969,59.0
2023-12-20 14:00:08.466658,290.0
2023-12-20 14:00:08.474347,257.0
2023-12-20 14:00:08.482036,181.0
2023-12-20 14:00:08.489725,88.0
2023-12-20 14:00:08.497414,-35.0
2023-12-20 14:00:08.505103,-90.0
2023-12-20 14:00:08.512792,-81.0
2023-12-20 14:00:08.520481,-90.0
2023-12-20 14:00:08.528170,-100.0
2023-12-20 14:00:08.535859,-83.0
2023-12-20 14:00:08.543548,-76.0
2023-12-20 14:00:08.551237,-78.0
2023-12-20 14:00:08.558926,-81.0
2023-12-20 14:00:08.566615,-97.0
2023-12-20 14:00:08.574304,-109.0
2023-12-20 14:00:08.581993,-104.0
2023-12-20 14:00:08.589682,-97.0
2023-12-20 14:00:08.597371,-109.0
2023-12-20 14:00:08.605060,-114.0
2023-12-20 14:00:08.612749,-107.0
2023-12-20 14:00:08.620438,-95.0
2023-12-20 14:00:08.628127,-83.0
2023-12-20 14:00:08.635816,-81.0
2023-12-20 14:00:08.643505,-90.0
2023-12-20 14:00:08.651194,-97.0
2023-12-20 14:00:08.658883,-104.0
2023-12-20 14:00:08.666572,-102.0
2023-12-20 14:00:08.674261,-95.0
2023-12-20 14:00:08.681950,-85.0
2023-12-20 14:00:08.689639,-59.0
2023-12-20 14:00:08.697328,-50.0
2023-12-20 14:00:08.705017,-50.0
2023-12-20 14:00:08.712706,-30.0
2023-12-20 14:00:08.720395,-28.0
2023-12-20 14:00:08.728084,-33.0
2023-12-20 14:00:08.735773,-21.0
2023-12-20 14:00:08.743462,-16.0
2023-12-20 14:00:08.751151,-23.0
2023-12-20 14:00:08.758840,-26.0
2023-12-20 14:00:08.766529,-30.0
2023-12-20 14:00:08.774218,-28.0
2023-12-20 14:00:08.781907,-21.0
2023-12-20 14:00:08.789596,-23.0
2023-12-20 14:00:08.797284,-33.0
2023-12-20 14:00:08.804973,-33.0
2023-12-20 14:00:08.812662,-33.0
2023-12-20 14:00:08.820351,-33.0
2023-12-20 14:00:08.828040,-23.0
2023-12-20 14:00:08.835729,-42.0
2023-12-20 14:00:08.843418,-66.0
2023-12-20 14:00:08.851107,-45.0
2023-12-20 14:00:08.858796,-21.0
2023-12-20 14:00:08.866485,-35.0
2023-12-20 14:00:08.874174,-59.0
2023-12-20 14:00:08.881863,-78.0
2023-12-20 14:00:08.889552,-88.0
2023-12-20 14:00:08.897241,-90.0
2023-12-20 14:00:08.904930,-83.0
2023-12-20 14:00:08.912619,-78.0
2023-12-20 14:00:08.920308,-76.0
2023-12-20 14:00:08.927997,-61.0
2023-12-20 14:00:08.935686,-45.0
2023-12-20 14:00:08.943375,-54.0
2023-12-20 14:00:08.951064,-69.0
2023-12-20 14:00:08.958753,-59.0
2023-12-20 14:00:08.966442,-54.0
2023-12-20 14:00:08.974131,-71.0
2023-12-20 14:00:08.981820,-66.0
2023-12-20 14:00:08.989509,-57.0
2023-12-20 14:00:08.997198,-112.0
2023-12-20 14:00:09.004887,-255.0
2023-12-20 14:00:09.012576,-381.0
2023-12-20 14:00:09.020265,-255.0
2023-12-20 14:00:09.027954,95.0
2023-12-20 14:00:09.035643,288.0
2023-12-20 14:00:09.043332,252.0
2023-12-20 14:00:09.051021,185.0
2023-12-20 14:00:09.058710,78.0
2023-12-20 14:00:09.066399,-71.0
2023-12-20 14:00:09.074088,-123.0
2023-12-20 14:00:09.081777,-97.0
2023-12-20 14:00:09.089466,-97.0
2023-12-20 14:00:09.097155,-107.0
2023-12-20 14:00:09.104844,-102.0
2023-12-20 14:00:09.112533,-114.0
2023-12-20 14:00:09.120222,-121.0
2023-12-20 14:00:09.127911,-107.0
2023-12-20 14:00:09.135600,-104.0
2023-12-20 14:00:09.143289,-121.0
2023-12-20 14:00:09.150978,-131.0
2023-12-20 14:00:09.158667,-123.0
2023-12-20 14:00:09.166356,-109.0
2023-12-20 14:00:09.174045,-112.0
2023-12-20 14:00:09.181734,-121.0
2023-12-20 14:00:09.189423,-116.0
2023-12-20 14:00:09.197112,-119.0
2023-12-20 14:00:09.204801,-128.0
2023-12-20 14:00:09.212490,-126.0
2023-12-20 14:00:09.220179,-114.0
2023-12-20 14:00:09.227868,-104.0
2023-12-20 14:00:09.235557,-102.0
2023-12-20 14:00:09.243246,-112.0
2023-12-20 14:00:09.250935,-123.0
2023-12-20 14:00:09.258624,-109.0
2023-12-20 14:00:09.266313,-78.0
2023-12-20 14:00:09.274002,-64.0
2023-12-20 14:00:09.281691,-61.0
2023-12-20 14:00:09.289380,-59.0
2023-12-20 14:00:09.297068,-59.0
2023-12-20 14:00:09.304757,-64.0
2023-12-20 14:00:09.312446,-66.0
2023-12-20 14:00:09.320135,-61.0
2023-12-20 14:00:09.327824,-54.0
2023-12-20 14:00:09.335513,-61.0
2023-12-20 14:00:09.343202,-69.0
2023-12-20 14:00:09.350891,-73.0
2023-12-20 14:00:09.358580,-78.0
2023-12-20 14:00:09.366269,-76.0
2023-12-20 14:00:09.373958,-66.0
2023-12-20 14:00:09.381647,-57.0
2023-12-20 14:00:09.389336,-59.0
2023-12-20 14:00:09.397025,-64.0
2023-12-20 14:00:09.404714,-61.0
2023-12-20 14:00:09.412403,-66.0
2023-12-20 14:00:09.420092,-92.0
2023-12-20 14:00:09.427781,-109.0
2023-12-20 14:00:09.435470,-104.0
2023-12-20 14:00:09.443159,-95.0
2023-12-20 14:00:09.450848,-104.0
2023-12-20 14:00:09.458537,-123.0
2023-12-20 14:00:09.466226,-126.0
2023-12-20 14:00:09.473915,-119.0
2023-12-20 14:00:09.481604,-116.0
2023-12-20 14:00:09.489293,-116.0
2023-12-20 14:00:09.496982,-95.0
2023-12-20 14:00:09.504671,-71.0
2023-12-20 14:00:09.512360,-76.0
2023-12-20 14:00:09.520049,-85.0
2023-12-20 14:00:09.527738,-81.0
2023-12-20 14:00:09.535427,-71.0
2023-12-20 14:00:09.543116,-64.0
2023-12-20 14:00:09.550805,-64.0
2023-12-20 14:00:09.558494,-95.0
2023-12-20 14:00:09.566183,-190.0
2023-12-20 14:00:09.573872,-355.0
2023-12-20 14:00:09.581561,-443.0
2023-12-20 14:00:09.589250,-214.0
2023-12-20 14:00:09.596939,157.0
2023-12-20 14:00:09.604628,278.0
2023-12-20 14:00:09.612317,221.0
2023-12-20 14:00:09.620006,159.0
2023-12-20 14:00:09.627695,52.0
2023-12-20 14:00:09.635384,-64.0
2023-12-20 14:00:09.643073,-109.0
2023-12-20 14:00:09.650762,-102.0
2023-12-20 14:00:09.658451,-100.0
2023-12-20 14:00:09.666140,-121.0
2023-12-20 14:00:09.673829,-131.0
2023-12-20 14:00:09.681518,-114.0
2023-12-20 14:00:09.689207,-116.0
2023-12-20 14:00:09.696896,-133.0
2023-12-20 14:00:09.704585,-126.0
2023-12-20 14:00:09.712274,-109.0
2023-12-20 14:00:09.719963,-114.0
2023-12-20 14:00:09.727652,-128.0
2023-12-20 14:00:09.735341,-128.0
2023-12-20 14:00:09.743030,-123.0
2023-12-20 14:00:09.750719,-123.0
2023-12-20 14:00:09.758408,-116.0
2023-12-20 14:00:09.766097,-116.0
2023-12-20 14:00:09.773786,-121.0
2023-12-20 14:00:09.781475,-112.0
2023-12-20 14:00:09.789164,-102.0
2023-12-20 14:00:09.796853,-102.0
2023-12-20 14:00:09.804541,-107.0
2023-12-20 14:00:09.812230,-107.0
2023-12-20 14:00:09.819919,-112.0
2023-12-20 14:00:09.827608,-107.0
2023-12-20 14:00:09.835297,-73.0
2023-12-20 14:00:09.842986,-50.0
2023-12-20 14:00:09.850675,-54.0
2023-12-20 14:00:09.858364,-57.0
2023-12-20 14:00:09.866053,-50.0
2023-12-20 14:00:09.873742,-50.0
2023-12-20 14:00:09.881431,-42.0
2023-12-20 14:00:09.889120,-30.0
2023-12-20 14:00:09.896809,-40.0
2023-12-20 14:00:09.904498,-54.0
2023-12-20 14:00:09.912187,-47.0
2023-12-20 14:00:09.919876,-42.0
2023-12-20 14:00:09.927565,-52.0
2023-12-20 14:00:09.935254,-57.0
2023-12-20 14:00:09.942943,-59.0
2023-12-20 14:00:09.950632,-59.0
2023-12-20 14:00:09.958321,-64.0
2023-12-20 14:00:09.966010,-76.0
2023-12-20 14:00:09.973699,-71.0
2023-12-20 14:00:09.981388,-59.0
2023-12-20 14:00:09.989077,-64.0
2023-12-20 14:00:09.996766,-66.0
2023-12-20 14:00:10.004455,-54.0
2023-12-20 14:00:10.012144,-47.0
2023-12-20 14:00:10.019833,-50.0
2023-12-20 14:00:10.027522,-52.0
2023-12-20 14:00:10.035211,-61.0
2023-12-20 14:00:10.042900,-76.0
2023-12-20 14:00:10.050589,-85.0
2023-12-20 14:00:10.058278,-73.0
2023-12-20 14:00:10.065967,-57.0
2023-12-20 14:00:10.073656,-47.0
2023-12-20 14:00:10.081345,-40.0
2023-12-20 14:00:10.089034,-50.0
2023-12-20 14:00:10.096723,-71.0
2023-12-20 14:00:10.104412,-73.0
2023-12-20 14:00:10.112101,-61.0
2023-12-20 14:00:10.119790,-54.0
2023-12-20 14:00:10.127479,-71.0
2023-12-20 14:00:10.135168,-183.0
2023-12-20 14:00:10.142857,-405.0
2023-12-20 14:00:10.150546,-503.0
2023-12-20 14:00:10.158235,-221.0
2023-12-20 14:00:10.165924,171.0
2023-12-20 14:00:10.173613,283.0
2023-12-20 14:00:10.181302,216.0
2023-12-20 14:00:10.188991,150.0
2023-12-20 14:00:10.196680,35.0
2023-12-20 14:00:10.204369,-78.0
2023-12-20 14:00:10.212058,-107.0
2023-12-20 14:00:10.219747,-97.0
2023-12-20 14:00:10.227436,-116.0
2023-12-20 14:00:10.235125,-126.0
2023-12-20 14:00:10.242814,-102.0
2023-12-20 14:00:10.250503,-102.0
2023-12-20 14:00:10.258192,-114.0
2023-12-20 14:00:10.265881,-112.0
2023-12-20 14:00:10.273570,-112.0
2023-12-20 14:00:10.281259,-121.0
2023-12-20 14:00:10.288948,-121.0
2023-12-20 14:00:10.296637,-128.0
2023-12-20 14:00:10.304325,-133.0
2023-12-20 14:00:10.312014,-133.0
2023-12-20 14:00:10.319703,-133.0
2023-12-20 14:00:10.327392,-133.0
2023-12-20 14:00:10.335081,-119.0
2023-12-20 14:00:10.342770,-107.0
2023-12-20 14:00:10.350459,-109.0
2023-12-20 14:00:10.358148,-112.0
2023-12-20 14:00:10.365837,-114.0
2023-12-20 14:00:10.373526,-104.0
2023-12-20 14:00:10.381215,-88.0
2023-12-20 14:00:10.388904,-78.0
2023-12-20 14:00:10.396593,-71.0
2023-12-20 14:00:10.404282,-66.0
2023-12-20 14:00:10.411971,-59.0
2023-12-20 14:00:10.419660,-47.0
2023-12-20 14:00:10.427349,-35.0
2023-12-20 14:00:10.435038,-26.0
2023-12-20 14:00:10.442727,-19.0
2023-12-20 14:00:10.450416,-21.0
2023-12-20 14:00:10.458105,-35.0
2023-12-20 14:00:10.465794,-54.0
2023-12-20 14:00:10.473483,-61.0
2023-12-20 14:00:10.481172,-54.0
2023-12-20 14:00:10.488861,-54.0
2023-12-20 14:00:10.496550,-66.0
2023-12-20 14:00:10.504239,-71.0
2023-12-20 14:00:10.511928,-59.0
2023-12-20 14:00:10.519617,-47.0
2023-12-20 14:00:10.527306,-47.0
2023-12-20 14:00:10.534995,-40.0
2023-12-20 14:00:10.542684,-59.0
2023-12-20 14:00:10.550373,-95.0
2023-12-20 14:00:10.558062,-90.0
2023-12-20 14:00:10.565751,-66.0
2023-12-20 14:00:10.573440,-66.0
2023-12-20 14:00:10.581129,-81.0
2023-12-20 14:00:10.588818,-83.0
2023-12-20 14:00:10.596507,-76.0
2023-12-20 14:00:10.604196,-73.0
2023-12-20 14:00:10.611885,-71.0
2023-12-20 14:00:10.619574,-69.0
2023-12-20 14:00:10.627263,-71.0
2023-12-20 14:00:10.634952,-71.0
2023-12-20 14:00:10.642641,-52.0
2023-12-20 14:00:10.650330,-30.0
2023-12-20 14:00:10.658019,-28.0
2023-12-20 14:00:10.665708,-38.0
2023-12-20 14:00:10.673397,-35.0
2023-12-20 14:00:10.681086,-38.0
2023-12-20 14:00:10.688775,-47.0
2023-12-20 14:00:10.696464,-28.0
2023-12-20 14:00:10.704153,-28.0
2023-12-20 14:00:10.711842,-121.0
2023-12-20 14:00:10.719531,-298.0
2023-12-20 14:00:10.727220,-395.0
2023-12-20 14:00:10.734909,-188.0
2023-12-20 14:00:10.742598,181.0
2023-12-20 14:00:10.750287,326.0
2023-12-20 14:00:10.757976,262.0
2023-12-20 14:00:10.765665,185.0
2023-12-20 14:00:10.773354,73.0
2023-12-20 14:00:10.781043,-59.0
2023-12-20 14:00:10.788732,-104.0
2023-12-20 14:00:10.796421,-81.0
2023-12-20 14:00:10.804109,-81.0
2023-12-20 14:00:10.811798,-97.0
2023-12-20 14:00:10.819487,-100.0
2023-12-20 14:00:10.827176,-88.0
2023-12-20 14:00:10.834865,-81.0
2023-12-20 14:00:10.842554,-85.0
2023-12-20 14:00:10.850243,-88.0
2023-12-20 14:00:10.857932,-92.0
2023-12-20 14:00:10.865621,-107.0
2023-12-20 14:00:10.873310,-114.0
2023-12-20 14:00:10.880999,-107.0
2023-12-20 14:00:10.888688,-104.0
2023-12-20 14:00:10.896377,-100.0
2023-12-20 14:00:10.904066,-95.0
2023-12-20 14:00:10.911755,-102.0
2023-12-20 14:00:10.919444,-104.0
2023-12-20 14:00:10.927133,-88.0
2023-12-20 14:00:10.934822,-73.0
2023-12-20 14:00:10.942511,-81.0
2023-12-20 14:00:10.950200,-97.0
2023-12-20 14:00:10.957889,-88.0
2023-12-20 14:00:10.965578,-81.0
2023-12-20 14:00:10.973267,-88.0
2023-12-20 14:00:10.980956,-73.0
2023-12-20 14:00:10.988645,-52.0
2023-12-20 14:00:10.996334,-47.0
2023-12-20 14:00:11.004023,-38.0
2023-12-20 14:00:11.011712,-26.0
2023-12-20 14:00:11.019401,-35.0
2023-12-20 14:00:11.027090,-42.0
2023-12-20 14:00:11.034779,-47.0
2023-12-20 14:00:11.042468,-52.0
2023-12-20 14:00:11.050157,-57.0
2023-12-20 14:00:11.057846,-52.0
2023-12-20 14:00:11.065535,-45.0
2023-12-20 14:00:11.073224,-47.0
2023-12-20 14:00:11.080913,-57.0
2023-12-20 14:00:11.088602,-78.0
2023-12-20 14:00:11.096291,-76.0
2023-12-20 14:00:11.103980,-59.0
2023-12-20 14:00:11.111669,-61.0
2023-12-20 14:00:11.119358,-73.0
2023-12-20 14:00:11.127047,-85.0
2023-12-20 14:00:11.134736,-100.0
2023-12-20 14:00:11.142425,-88.0
2023-12-20 14:00:11.150114,-69.0
2023-12-20 14:00:11.157803,-71.0
2023-12-20 14:00:11.165492,-71.0
2023-12-20 14:00:11.173181,-61.0
2023-12-20 14:00:11.180870,-61.0
2023-12-20 14:00:11.188559,-66.0
2023-12-20 14:00:11.196248,-78.0
2023-12-20 14:00:11.203937,-81.0
2023-12-20 14:00:11.211626,-81.0
2023-12-20 14:00:11.219315,-90.0
2023-12-20 14:00:11.227004,-81.0
2023-12-20 14:00:11.234693,-54.0
2023-12-20 14:00:11.242382,-45.0
2023-12-20 14:00:11.250071,-38.0
2023-12-20 14:00:11.257760,-28.0
2023-12-20 14:00:11.265449,-28.0
2023-12-20 14:00:11.273138,-38.0
2023-12-20 14:00:11.280827,-45.0
2023-12-20 14:00:11.288516,-54.0
2023-12-20 14:00:11.296205,-54.0
2023-12-20 14:00:11.303894,-78.0
2023-12-20 14:00:11.311582,-200.0
2023-12-20 14:00:11.319271,-369.0
2023-12-20 14:00:11.326960,-331.0
2023-12-20 14:00:11.334649,7.0
2023-12-20 14:00:11.342338,293.0
2023-12-20 14:00:11.350027,293.0
2023-12-20 14:00:11.357716,190.0
2023-12-20 14:00:11.365405,92.0
2023-12-20 14:00:11.373094,-23.0
2023-12-20 14:00:11.380783,-85.0
2023-12-20 14:00:11.388472,-78.0
2023-12-20 14:00:11.396161,-78.0
2023-12-20 14:00:11.403850,-92.0
2023-12-20 14:00:11.411539,-85.0
2023-12-20 14:00:11.419228,-85.0
2023-12-20 14:00:11.426917,-97.0
2023-12-20 14:00:11.434606,-97.0
2023-12-20 14:00:11.442295,-85.0
2023-12-20 14:00:11.449984,-88.0
2023-12-20 14:00:11.457673,-92.0
2023-12-20 14:00:11.465362,-95.0
2023-12-20 14:00:11.473051,-112.0
2023-12-20 14:00:11.480740,-133.0
2023-12-20 14:00:11.488429,-135.0
2023-12-20 14:00:11.496118,-123.0
2023-12-20 14:00:11.503807,-119.0
2023-12-20 14:00:11.511496,-123.0
2023-12-20 14:00:11.519185,-135.0
2023-12-20 14:00:11.526874,-150.0
2023-12-20 14:00:11.534563,-147.0
2023-12-20 14:00:11.542252,-135.0
2023-12-20 14:00:11.549941,-128.0
2023-12-20 14:00:11.557630,-121.0
2023-12-20 14:00:11.565319,-100.0
2023-12-20 14:00:11.573008,-78.0
2023-12-20 14:00:11.580697,-66.0
2023-12-20 14:00:11.588386,-52.0
2023-12-20 14:00:11.596075,-38.0
2023-12-20 14:00:11.603764,-38.0
2023-12-20 14:00:11.611453,-35.0
2023-12-20 14:00:11.619142,-23.0
2023-12-20 14:00:11.626831,-21.0
2023-12-20 14:00:11.634520,-30.0
2023-12-20 14:00:11.642209,-40.0
2023-12-20 14:00:11.649898,-42.0
2023-12-20 14:00:11.657587,-35.0
2023-12-20 14:00:11.665276,-47.0
2023-12-20 14:00:11.672965,-78.0
2023-12-20 14:00:11.680654,-83.0
2023-12-20 14:00:11.688343,-61.0
2023-12-20 14:00:11.696032,-59.0
2023-12-20 14:00:11.703721,-64.0
2023-12-20 14:00:11.711410,-50.0
2023-12-20 14:00:11.719099,-45.0
2023-12-20 14:00:11.726788,-50.0
2023-12-20 14:00:11.734477,-45.0
2023-12-20 14:00:11.742166,-35.0
2023-12-20 14:00:11.749855,-38.0
2023-12-20 14:00:11.757544,-35.0
2023-12-20 14:00:11.765233,-40.0
2023-12-20 14:00:11.772922,-57.0
2023-12-20 14:00:11.780611,-59.0
2023-12-20 14:00:11.788300,-52.0
2023-12-20 14:00:11.795989,-61.0
2023-12-20 14:00:11.803678,-76.0
2023-12-20 14:00:11.811366,-69.0
2023-12-20 14:00:11.819055,-61.0
2023-12-20 14:00:11.826744,-66.0
2023-12-20 14:00:11.834433,-61.0
2023-12-20 14:00:11.842122,-52.0
2023-12-20 14:00:11.849811,-35.0
2023-12-20 14:00:11.857500,-26.0
2023-12-20 14:00:11.865189,-33.0
2023-12-20 14:00:11.872878,-35.0
2023-12-20 14:00:11.880567,-26.0
2023-12-20 14:00:11.888256,-28.0
2023-12-20 14:00:11.895945,-42.0
2023-12-20 14:00:11.903634,-47.0
2023-12-20 14:00:11.911323,-69.0
2023-12-20 14:00:11.919012,-171.0
2023-12-20 14:00:11.926701,-326.0
2023-12-20 14:00:11.934390,-336.0
2023-12-20 14:00:11.942079,-57.0
2023-12-20 14:00:11.949768,243.0
2023-12-20 14:00:11.957457,283.0
2023-12-20 14:00:11.965146,212.0
2023-12-20 14:00:11.972835,135.0
2023-12-20 14:00:11.980524,-7.0
2023-12-20 14:00:11.988213,-116.0
2023-12-20 14:00:11.995902,-114.0
2023-12-20 14:00:12.003591,-97.0
2023-12-20 14:00:12.011280,-116.0
2023-12-20 14:00:12.018969,-121.0
2023-12-20 14:00:12.026658,-119.0
2023-12-20 14:00:12.034347,-126.0
2023-12-20 14:00:12.042036,-126.0
2023-12-20 14:00:12.049725,-119.0
2023-12-20 14:00:12.057414,-114.0
2023-12-20 14:00:12.065103,-116.0
2023-12-20 14:00:12.072792,-121.0
2023-12-20 14:00:12.080481,-135.0
2023-12-20 14:00:12.088170,-143.0
2023-12-20 14:00:12.095859,-131.0
2023-12-20 14:00:12.103548,-140.0
2023-12-20 14:00:12.111237,-174.0
2023-12-20 14:00:12.118926,-181.0
2023-12-20 14:00:12.126615,-154.0
2023-12-20 14:00:12.134304,-138.0
2023-12-20 14:00:12.141993,-140.0
2023-12-20 14:00:12.149682,-135.0
2023-12-20 14:00:12.157371,-126.0
2023-12-20 14:00:12.165060,-126.0
2023-12-20 14:00:12.172749,-109.0
2023-12-20 14:00:12.180438,-76.0
2023-12-20 14:00:12.188127,-59.0
2023-12-20 14:00:12.195816,-57.0
2023-12-20 14:00:12.203505,-47.0
2023-12-20 14:00:12.211194,-42.0
2023-12-20 14:00:12.218883,-40.0
2023-12-20 14:00:12.226572,-30.0
2023-12-20 14:00:12.234261,-23.0
2023-12-20 14:00:12.241950,-33.0
2023-12-20 14:00:12.249639,-50.0
2023-12-20 14:00:12.257328,-57.0
2023-12-20 14:00:12.265017,-57.0
2023-12-20 14:00:12.272706,-47.0
2023-12-20 14:00:12.280395,-30.0
2023-12-20 14:00:12.288084,-30.0
2023-12-20 14:00:12.295773,-64.0
2023-12-20 14:00:12.303462,-95.0
2023-12-20 14:00:12.311150,-78.0
2023-12-20 14:00:12.318839,-59.0
2023-12-20 14:00:12.326528,-73.0
2023-12-20 14:00:12.334217,-71.0
2023-12-20 14:00:12.341906,-54.0
2023-12-20 14:00:12.349595,-64.0
2023-12-20 14:00:12.357284,-73.0
2023-12-20 14:00:12.364973,-64.0
2023-12-20 14:00:12.372662,-57.0
2023-12-20 14:00:12.380351,-50.0
2023-12-20 14:00:12.388040,-57.0
2023-12-20 14:00:12.395729,-69.0
2023-12-20 14:00:12.403418,-61.0
2023-12-20 14:00:12.411107,-52.0
2023-12-20 14:00:12.418796,-59.0
2023-12-20 14:00:12.426485,-64.0
2023-12-20 14:00:12.434174,-73.0
2023-12-20 14:00:12.441863,-78.0
2023-12-20 14:00:12.449552,-66.0
2023-12-20 14:00:12.457241,-52.0
2023-12-20 14:00:12.464930,-38.0
2023-12-20 14:00:12.472619,-28.0
2023-12-20 14:00:12.480308,-38.0
2023-12-20 14:00:12.487997,-66.0
2023-12-20 14:00:12.495686,-73.0
2023-12-20 14:00:12.503375,-57.0
2023-12-20 14:00:12.511064,-66.0
2023-12-20 14:00:12.518753,-109.0
2023-12-20 14:00:12.526442,-214.0
2023-12-20 14:00:12.534131,-391.0
2023-12-20 14:00:12.541820,-436.0
2023-12-20 14:00:12.549509,-152.0
2023-12-20 14:00:12.557198,190.0
2023-12-20 14:00:12.564887,271.0
2023-12-20 14:00:12.572576,214.0
2023-12-20 14:00:12.580265,143.0
2023-12-20 14:00:12.587954,16.0
2023-12-20 14:00:12.595643,-81.0
2023-12-20 14:00:12.603332,-95.0
2023-12-20 14:00:12.611021,-90.0
2023-12-20 14:00:12.618710,-109.0
2023-12-20 14:00:12.626399,-112.0
2023-12-20 14:00:12.634088,-102.0
2023-12-20 14:00:12.641777,-107.0
2023-12-20 14:00:12.649466,-112.0
2023-12-20 14:00:12.657155,-121.0
2023-12-20 14:00:12.664844,-131.0
2023-12-20 14:00:12.672533,-138.0
2023-12-20 14:00:12.680222,-145.0
2023-12-20 14:00:12.687911,-143.0
2023-12-20 14:00:12.695600,-138.0
2023-12-20 14:00:12.703289,-145.0
2023-12-20 14:00:12.710978,-152.0
2023-12-20 14:00:12.718667,-150.0
2023-12-20 14:00:12.726356,-143.0
2023-12-20 14:00:12.734045,-143.0
2023-12-20 14:00:12.741734,-140.0
2023-12-20 14:00:12.749423,-131.0
2023-12-20 14:00:12.757112,-126.0
2023-12-20 14:00:12.764801,-133.0
2023-12-20 14:00:12.772490,-121.0
2023-12-20 14:00:12.780179,-100.0
2023-12-20 14:00:12.787868,-92.0
2023-12-20 14:00:12.795557,-97.0
2023-12-20 14:00:12.803246,-88.0
2023-12-20 14:00:12.810935,-64.0
2023-12-20 14:00:12.818623,-57.0
2023-12-20 14:00:12.826312,-57.0
2023-12-20 14:00:12.834001,-50.0
2023-12-20 14:00:12.841690,-52.0
2023-12-20 14:00:12.849379,-61.0
2023-12-20 14:00:12.857068,-61.0
2023-12-20 14:00:12.864757,-52.0
2023-12-20 14:00:12.872446,-42.0
2023-12-20 14:00:12.880135,-40.0
2023-12-20 14:00:12.887824,-45.0
2023-12-20 14:00:12.895513,-45.0
2023-12-20 14:00:12.903202,-40.0
2023-12-20 14:00:12.910891,-40.0
2023-12-20 14:00:12.918580,-45.0
2023-12-20 14:00:12.926269,-50.0
2023-12-20 14:00:12.933958,-45.0
2023-12-20 14:00:12.941647,-45.0
2023-12-20 14:00:12.949336,-45.0
2023-12-20 14:00:12.957025,-35.0
2023-12-20 14:00:12.964714,-28.0
2023-12-20 14:00:12.972403,-30.0
2023-12-20 14:00:12.980092,-21.0
2023-12-20 14:00:12.987781,-19.0
2023-12-20 14:00:12.995470,-59.0
2023-12-20 14:00:13.003159,-92.0
2023-12-20 14:00:13.010848,-73.0
2023-12-20 14:00:13.018537,-57.0
2023-12-20 14:00:13.026226,-73.0
2023-12-20 14:00:13.033915,-83.0
2023-12-20 14:00:13.041604,-76.0
2023-12-20 14:00:13.049293,-83.0
2023-12-20 14:00:13.056982,-88.0
2023-12-20 14:00:13.064671,-71.0
2023-12-20 14:00:13.072360,-50.0
2023-12-20 14:00:13.080049,-45.0
2023-12-20 14:00:13.087738,-57.0
2023-12-20 14:00:13.095427,-54.0
2023-12-20 14:00:13.103116,-45.0
2023-12-20 14:00:13.110805,-45.0
2023-12-20 14:00:13.118494,-47.0
2023-12-20 14:00:13.126183,-57.0
2023-12-20 14:00:13.133872,-133.0
2023-12-20 14:00:13.141561,-300.0
2023-12-20 14:00:13.149250,-436.0
2023-12-20 14:00:13.156939,-271.0
2023-12-20 14:00:13.164628,116.0
2023-12-20 14:00:13.172317,309.0
2023-12-20 14:00:13.180006,271.0
2023-12-20 14:00:13.187695,209.0
2023-12-20 14:00:13.195384,92.0
2023-12-20 14:00:13.203073,-47.0
2023-12-20 14:00:13.210762,-81.0
2023-12-20 14:00:13.218451,-71.0
2023-12-20 14:00:13.226140,-88.0
2023-12-20 14:00:13.233829,-90.0
2023-12-20 14:00:13.241518,-85.0
2023-12-20 14:00:13.249207,-109.0
2023-12-20 14:00:13.256896,-128.0
2023-12-20 14:00:13.264585,-123.0
2023-12-20 14:00:13.272274,-126.0
2023-12-20 14:00:13.279963,-135.0
2023-12-20 14:00:13.287652,-123.0
2023-12-20 14:00:13.295341,-116.0
2023-12-20 14:00:13.303030,-131.0
2023-12-20 14:00:13.310719,-138.0
2023-12-20 14:00:13.318407,-138.0
2023-12-20 14:00:13.326096,-135.0
2023-12-20 14:00:13.333785,-147.0
2023-12-20 14:00:13.341474,-171.0
2023-12-20 14:00:13.349163,-162.0
2023-12-20 14:00:13.356852,-133.0
2023-12-20 14:00:13.364541,-123.0
2023-12-20 14:00:13.372230,-126.0
2023-12-20 14:00:13.379919,-121.0
2023-12-20 14:00:13.387608,-107.0
2023-12-20 14:00:13.395297,-81.0
2023-12-20 14:00:13.402986,-52.0
2023-12-20 14:00:13.410675,-40.0
2023-12-20 14:00:13.418364,-30.0
2023-12-20 14:00:13.426053,-19.0
2023-12-20 14:00:13.433742,-14.0
2023-12-20 14:00:13.441431,-11.0
2023-12-20 14:00:13.449120,-11.0
2023-12-20 14:00:13.456809,-14.0
2023-12-20 14:00:13.464498,-19.0
2023-12-20 14:00:13.472187,-21.0
2023-12-20 14:00:13.479876,-19.0
2023-12-20 14:00:13.487565,-26.0
2023-12-20 14:00:13.495254,-47.0
2023-12-20 14:00:13.502943,-50.0
2023-12-20 14:00:13.510632,-45.0
2023-12-20 14:00:13.518321,-54.0
2023-12-20 14:00:13.526010,-45.0
2023-12-20 14:00:13.533699,-26.0
2023-12-20 14:00:13.541388,-30.0
2023-12-20 14:00:13.549077,-42.0
2023-12-20 14:00:13.556766,-42.0
2023-12-20 14:00:13.564455,-30.0
2023-12-20 14:00:13.572144,-26.0
2023-12-20 14:00:13.579833,-26.0
2023-12-20 14:00:13.587522,-19.0
2023-12-20 14:00:13.595211,-19.0
2023-12-20 14:00:13.602900,-26.0
2023-12-20 14:00:13.610589,-28.0
2023-12-20 14:00:13.618278,-26.0
2023-12-20 14:00:13.625967,-42.0
