time,ECG
2023-08-12 14:30:35.376375,-52.0
2023-08-12 14:30:35.384065,-49.0
2023-08-12 14:30:35.391755,-47.0
2023-08-12 14:30:35.399445,-38.0
2023-08-12 14:30:35.407135,-30.0
2023-08-12 14:30:35.414825,-28.0
2023-08-12 14:30:35.422515,-30.0
2023-08-12 14:30:35.430205,-35.0
2023-08-12 14:30:35.437895,-38.0
2023-08-12 14:30:35.445585,-42.0
2023-08-12 14:30:35.453275,-49.0
2023-08-12 14:30:35.460965,-59.0
2023-08-12 14:30:35.468655,-76.0
2023-08-12 14:30:35.476345,-92.0
2023-08-12 14:30:35.484035,-85.0
2023-08-12 14:30:35.491725,-69.0
2023-08-12 14:30:35.499415,-69.0
2023-08-12 14:30:35.507105,-76.0
2023-08-12 14:30:35.514794,-52.0
2023-08-12 14:30:35.522484,71.0
2023-08-12 14:30:35.530174,318.0
2023-08-12 14:30:35.537864,528.0
2023-08-12 14:30:35.545554,435.0
2023-08-12 14:30:35.553244,64.0
2023-08-12 14:30:35.560934,-188.0
2023-08-12 14:30:35.568624,-173.0
2023-08-12 14:30:35.576314,-149.0
2023-08-12 14:30:35.584004,-161.0
2023-08-12 14:30:35.591694,-109.0
2023-08-12 14:30:35.599384,-80.0
2023-08-12 14:30:35.607074,-99.0
2023-08-12 14:30:35.614764,-90.0
2023-08-12 14:30:35.622454,-69.0
2023-08-12 14:30:35.630144,-71.0
2023-08-12 14:30:35.637834,-73.0
2023-08-12 14:30:35.645524,-64.0
2023-08-12 14:30:35.653214,-59.0
2023-08-12 14:30:35.660904,-59.0
2023-08-12 14:30:35.668594,-52.0
2023-08-12 14:30:35.676284,-38.0
2023-08-12 14:30:35.683974,-26.0
2023-08-12 14:30:35.691664,-19.0
2023-08-12 14:30:35.699354,-9.0
2023-08-12 14:30:35.707044,0.0
2023-08-12 14:30:35.714734,11.0
2023-08-12 14:30:35.722424,26.0
2023-08-12 14:30:35.730114,47.0
2023-08-12 14:30:35.737804,61.0
2023-08-12 14:30:35.745493,69.0
2023-08-12 14:30:35.753183,71.0
2023-08-12 14:30:35.760873,73.0
2023-08-12 14:30:35.768563,76.0
2023-08-12 14:30:35.776253,64.0
2023-08-12 14:30:35.783943,33.0
2023-08-12 14:30:35.791633,-11.0
2023-08-12 14:30:35.799323,-49.0
2023-08-12 14:30:35.807013,-76.0
2023-08-12 14:30:35.814703,-97.0
2023-08-12 14:30:35.822393,-130.0
2023-08-12 14:30:35.830083,-152.0
2023-08-12 14:30:35.837773,-152.0
2023-08-12 14:30:35.845463,-154.0
2023-08-12 14:30:35.853153,-159.0
2023-08-12 14:30:35.860843,-157.0
2023-08-12 14:30:35.868533,-145.0
2023-08-12 14:30:35.876223,-140.0
2023-08-12 14:30:35.883913,-142.0
2023-08-12 14:30:35.891603,-130.0
2023-08-12 14:30:35.899293,-116.0
2023-08-12 14:30:35.906983,-114.0
2023-08-12 14:30:35.914673,-114.0
2023-08-12 14:30:35.922363,-111.0
2023-08-12 14:30:35.930053,-111.0
2023-08-12 14:30:35.937743,-114.0
2023-08-12 14:30:35.945433,-107.0
2023-08-12 14:30:35.953123,-99.0
2023-08-12 14:30:35.960813,-99.0
2023-08-12 14:30:35.968502,-99.0
2023-08-12 14:30:35.976192,-97.0
2023-08-12 14:30:35.983882,-95.0
2023-08-12 14:30:35.991572,-90.0
2023-08-12 14:30:35.999262,-83.0
2023-08-12 14:30:36.006952,-92.0
2023-08-12 14:30:36.014642,-104.0
2023-08-12 14:30:36.022332,-102.0
2023-08-12 14:30:36.030022,-97.0
2023-08-12 14:30:36.037712,-99.0
2023-08-12 14:30:36.045402,-102.0
2023-08-12 14:30:36.053092,-104.0
2023-08-12 14:30:36.060782,-114.0
2023-08-12 14:30:36.068472,-114.0
2023-08-12 14:30:36.076162,-99.0
2023-08-12 14:30:36.083852,-92.0
2023-08-12 14:30:36.091542,-97.0
2023-08-12 14:30:36.099232,-104.0
2023-08-12 14:30:36.106922,-104.0
2023-08-12 14:30:36.114612,-95.0
2023-08-12 14:30:36.122302,-95.0
2023-08-12 14:30:36.129992,-95.0
2023-08-12 14:30:36.137682,-92.0
2023-08-12 14:30:36.145372,-99.0
2023-08-12 14:30:36.153062,-99.0
2023-08-12 14:30:36.160752,-88.0
2023-08-12 14:30:36.168442,-83.0
2023-08-12 14:30:36.176132,-83.0
2023-08-12 14:30:36.183822,-78.0
2023-08-12 14:30:36.191511,-85.0
2023-08-12 14:30:36.199201,-90.0
2023-08-12 14:30:36.206891,-83.0
2023-08-12 14:30:36.214581,-76.0
2023-08-12 14:30:36.222271,-78.0
2023-08-12 14:30:36.229961,-80.0
2023-08-12 14:30:36.237651,-78.0
2023-08-12 14:30:36.245341,-76.0
2023-08-12 14:30:36.253031,-69.0
2023-08-12 14:30:36.260721,-69.0
2023-08-12 14:30:36.268411,-71.0
2023-08-12 14:30:36.276101,-64.0
2023-08-12 14:30:36.283791,-57.0
2023-08-12 14:30:36.291481,-66.0
2023-08-12 14:30:36.299171,-71.0
2023-08-12 14:30:36.306861,-64.0
2023-08-12 14:30:36.314551,-54.0
2023-08-12 14:30:36.322241,-52.0
2023-08-12 14:30:36.329931,-57.0
2023-08-12 14:30:36.337621,-52.0
2023-08-12 14:30:36.345311,-38.0
2023-08-12 14:30:36.353001,-30.0
2023-08-12 14:30:36.360691,-33.0
2023-08-12 14:30:36.368381,-38.0
2023-08-12 14:30:36.376071,-40.0
2023-08-12 14:30:36.383761,-49.0
2023-08-12 14:30:36.391451,-61.0
2023-08-12 14:30:36.399141,-61.0
2023-08-12 14:30:36.406831,-69.0
2023-08-12 14:30:36.414520,-78.0
2023-08-12 14:30:36.422210,-78.0
2023-08-12 14:30:36.429900,-78.0
2023-08-12 14:30:36.437590,-78.0
2023-08-12 14:30:36.445280,-78.0
2023-08-12 14:30:36.452970,-47.0
2023-08-12 14:30:36.460660,88.0
2023-08-12 14:30:36.468350,349.0
2023-08-12 14:30:36.476040,561.0
2023-08-12 14:30:36.483730,440.0
2023-08-12 14:30:36.491420,38.0
2023-08-12 14:30:36.499110,-199.0
2023-08-12 14:30:36.506800,-166.0
2023-08-12 14:30:36.514490,-154.0
2023-08-12 14:30:36.522180,-173.0
2023-08-12 14:30:36.529870,-107.0
2023-08-12 14:30:36.537560,-73.0
2023-08-12 14:30:36.545250,-104.0
2023-08-12 14:30:36.552940,-95.0
2023-08-12 14:30:36.560630,-64.0
2023-08-12 14:30:36.568320,-64.0
2023-08-12 14:30:36.576010,-66.0
2023-08-12 14:30:36.583700,-59.0
2023-08-12 14:30:36.591390,-52.0
2023-08-12 14:30:36.599080,-52.0
2023-08-12 14:30:36.606770,-54.0
2023-08-12 14:30:36.614460,-47.0
2023-08-12 14:30:36.622150,-35.0
2023-08-12 14:30:36.629840,-19.0
2023-08-12 14:30:36.637530,-9.0
2023-08-12 14:30:36.645219,-9.0
2023-08-12 14:30:36.652909,2.0
2023-08-12 14:30:36.660599,23.0
2023-08-12 14:30:36.668289,35.0
2023-08-12 14:30:36.675979,47.0
2023-08-12 14:30:36.683669,59.0
2023-08-12 14:30:36.691359,66.0
2023-08-12 14:30:36.699049,61.0
2023-08-12 14:30:36.706739,52.0
2023-08-12 14:30:36.714429,35.0
2023-08-12 14:30:36.722119,14.0
2023-08-12 14:30:36.729809,-14.0
2023-08-12 14:30:36.737499,-57.0
2023-08-12 14:30:36.745189,-95.0
2023-08-12 14:30:36.752879,-126.0
2023-08-12 14:30:36.760569,-152.0
2023-08-12 14:30:36.768259,-166.0
2023-08-12 14:30:36.775949,-171.0
2023-08-12 14:30:36.783639,-169.0
2023-08-12 14:30:36.791329,-161.0
2023-08-12 14:30:36.799019,-161.0
2023-08-12 14:30:36.806709,-164.0
2023-08-12 14:30:36.814399,-159.0
2023-08-12 14:30:36.822089,-152.0
2023-08-12 14:30:36.829779,-140.0
2023-08-12 14:30:36.837469,-128.0
2023-08-12 14:30:36.845159,-130.0
2023-08-12 14:30:36.852849,-130.0
2023-08-12 14:30:36.860539,-126.0
2023-08-12 14:30:36.868228,-121.0
2023-08-12 14:30:36.875918,-116.0
2023-08-12 14:30:36.883608,-109.0
2023-08-12 14:30:36.891298,-109.0
2023-08-12 14:30:36.898988,-102.0
2023-08-12 14:30:36.906678,-102.0
2023-08-12 14:30:36.914368,-102.0
2023-08-12 14:30:36.922058,-90.0
2023-08-12 14:30:36.929748,-90.0
2023-08-12 14:30:36.937438,-99.0
2023-08-12 14:30:36.945128,-97.0
2023-08-12 14:30:36.952818,-95.0
2023-08-12 14:30:36.960508,-99.0
2023-08-12 14:30:36.968198,-97.0
2023-08-12 14:30:36.975888,-90.0
2023-08-12 14:30:36.983578,-88.0
2023-08-12 14:30:36.991268,-90.0
2023-08-12 14:30:36.998958,-92.0
2023-08-12 14:30:37.006648,-97.0
2023-08-12 14:30:37.014338,-92.0
2023-08-12 14:30:37.022028,-73.0
2023-08-12 14:30:37.029718,-66.0
2023-08-12 14:30:37.037408,-80.0
2023-08-12 14:30:37.045098,-85.0
2023-08-12 14:30:37.052788,-85.0
2023-08-12 14:30:37.060478,-80.0
2023-08-12 14:30:37.068168,-78.0
2023-08-12 14:30:37.075858,-80.0
2023-08-12 14:30:37.083548,-76.0
2023-08-12 14:30:37.091237,-73.0
2023-08-12 14:30:37.098927,-78.0
2023-08-12 14:30:37.106617,-78.0
2023-08-12 14:30:37.114307,-78.0
2023-08-12 14:30:37.121997,-71.0
2023-08-12 14:30:37.129687,-66.0
2023-08-12 14:30:37.137377,-80.0
2023-08-12 14:30:37.145067,-92.0
2023-08-12 14:30:37.152757,-83.0
2023-08-12 14:30:37.160447,-78.0
2023-08-12 14:30:37.168137,-83.0
2023-08-12 14:30:37.175827,-90.0
2023-08-12 14:30:37.183517,-92.0
2023-08-12 14:30:37.191207,-83.0
2023-08-12 14:30:37.198897,-76.0
2023-08-12 14:30:37.206587,-76.0
2023-08-12 14:30:37.214277,-66.0
2023-08-12 14:30:37.221967,-59.0
2023-08-12 14:30:37.229657,-59.0
2023-08-12 14:30:37.237347,-57.0
2023-08-12 14:30:37.245037,-54.0
2023-08-12 14:30:37.252727,-49.0
2023-08-12 14:30:37.260417,-47.0
2023-08-12 14:30:37.268107,-57.0
2023-08-12 14:30:37.275797,-78.0
2023-08-12 14:30:37.283487,-88.0
2023-08-12 14:30:37.291177,-85.0
2023-08-12 14:30:37.298867,-88.0
2023-08-12 14:30:37.306557,-90.0
2023-08-12 14:30:37.314246,-92.0
2023-08-12 14:30:37.321936,-90.0
2023-08-12 14:30:37.329626,-85.0
2023-08-12 14:30:37.337316,-83.0
2023-08-12 14:30:37.345006,-42.0
2023-08-12 14:30:37.352696,107.0
2023-08-12 14:30:37.360386,354.0
2023-08-12 14:30:37.368076,528.0
2023-08-12 14:30:37.375766,392.0
2023-08-12 14:30:37.383456,19.0
2023-08-12 14:30:37.391146,-199.0
2023-08-12 14:30:37.398836,-164.0
2023-08-12 14:30:37.406526,-142.0
2023-08-12 14:30:37.414216,-149.0
2023-08-12 14:30:37.421906,-97.0
2023-08-12 14:30:37.429596,-76.0
2023-08-12 14:30:37.437286,-97.0
2023-08-12 14:30:37.444976,-83.0
2023-08-12 14:30:37.452666,-66.0
2023-08-12 14:30:37.460356,-73.0
2023-08-12 14:30:37.468046,-69.0
2023-08-12 14:30:37.475736,-52.0
2023-08-12 14:30:37.483426,-49.0
2023-08-12 14:30:37.491116,-45.0
2023-08-12 14:30:37.498806,-30.0
2023-08-12 14:30:37.506496,-19.0
2023-08-12 14:30:37.514186,-14.0
2023-08-12 14:30:37.521876,-7.0
2023-08-12 14:30:37.529566,7.0
2023-08-12 14:30:37.537256,16.0
2023-08-12 14:30:37.544945,26.0
2023-08-12 14:30:37.552635,42.0
2023-08-12 14:30:37.560325,57.0
2023-08-12 14:30:37.568015,69.0
2023-08-12 14:30:37.575705,76.0
2023-08-12 14:30:37.583395,80.0
2023-08-12 14:30:37.591085,76.0
2023-08-12 14:30:37.598775,64.0
2023-08-12 14:30:37.606465,54.0
2023-08-12 14:30:37.614155,30.0
2023-08-12 14:30:37.621845,-9.0
2023-08-12 14:30:37.629535,-45.0
2023-08-12 14:30:37.637225,-73.0
2023-08-12 14:30:37.644915,-99.0
2023-08-12 14:30:37.652605,-128.0
2023-08-12 14:30:37.660295,-145.0
2023-08-12 14:30:37.667985,-154.0
2023-08-12 14:30:37.675675,-159.0
2023-08-12 14:30:37.683365,-157.0
2023-08-12 14:30:37.691055,-147.0
2023-08-12 14:30:37.698745,-138.0
2023-08-12 14:30:37.706435,-138.0
2023-08-12 14:30:37.714125,-138.0
2023-08-12 14:30:37.721815,-140.0
2023-08-12 14:30:37.729505,-147.0
2023-08-12 14:30:37.737195,-142.0
2023-08-12 14:30:37.744885,-130.0
2023-08-12 14:30:37.752575,-133.0
2023-08-12 14:30:37.760265,-133.0
2023-08-12 14:30:37.767954,-130.0
2023-08-12 14:30:37.775644,-128.0
2023-08-12 14:30:37.783334,-128.0
2023-08-12 14:30:37.791024,-123.0
2023-08-12 14:30:37.798714,-119.0
2023-08-12 14:30:37.806404,-119.0
2023-08-12 14:30:37.814094,-123.0
2023-08-12 14:30:37.821784,-119.0
2023-08-12 14:30:37.829474,-111.0
2023-08-12 14:30:37.837164,-109.0
2023-08-12 14:30:37.844854,-111.0
2023-08-12 14:30:37.852544,-111.0
2023-08-12 14:30:37.860234,-111.0
2023-08-12 14:30:37.867924,-111.0
2023-08-12 14:30:37.875614,-114.0
2023-08-12 14:30:37.883304,-109.0
2023-08-12 14:30:37.890994,-104.0
2023-08-12 14:30:37.898684,-99.0
2023-08-12 14:30:37.906374,-99.0
2023-08-12 14:30:37.914064,-104.0
2023-08-12 14:30:37.921754,-107.0
2023-08-12 14:30:37.929444,-97.0
2023-08-12 14:30:37.937134,-97.0
2023-08-12 14:30:37.944824,-104.0
2023-08-12 14:30:37.952514,-92.0
2023-08-12 14:30:37.960204,-83.0
2023-08-12 14:30:37.967894,-88.0
2023-08-12 14:30:37.975584,-85.0
2023-08-12 14:30:37.983274,-78.0
2023-08-12 14:30:37.990963,-85.0
2023-08-12 14:30:37.998653,-90.0
2023-08-12 14:30:38.006343,-80.0
2023-08-12 14:30:38.014033,-73.0
2023-08-12 14:30:38.021723,-76.0
2023-08-12 14:30:38.029413,-73.0
2023-08-12 14:30:38.037103,-69.0
2023-08-12 14:30:38.044793,-69.0
2023-08-12 14:30:38.052483,-71.0
2023-08-12 14:30:38.060173,-73.0
2023-08-12 14:30:38.067863,-71.0
2023-08-12 14:30:38.075553,-66.0
2023-08-12 14:30:38.083243,-64.0
2023-08-12 14:30:38.090933,-64.0
2023-08-12 14:30:38.098623,-64.0
2023-08-12 14:30:38.106313,-64.0
2023-08-12 14:30:38.114003,-57.0
2023-08-12 14:30:38.121693,-49.0
2023-08-12 14:30:38.129383,-45.0
2023-08-12 14:30:38.137073,-42.0
2023-08-12 14:30:38.144763,-45.0
2023-08-12 14:30:38.152453,-45.0
2023-08-12 14:30:38.160143,-35.0
2023-08-12 14:30:38.167833,-28.0
2023-08-12 14:30:38.175523,-33.0
2023-08-12 14:30:38.183213,-42.0
2023-08-12 14:30:38.190903,-45.0
2023-08-12 14:30:38.198593,-45.0
2023-08-12 14:30:38.206283,-49.0
2023-08-12 14:30:38.213972,-59.0
2023-08-12 14:30:38.221662,-69.0
2023-08-12 14:30:38.229352,-69.0
2023-08-12 14:30:38.237042,-71.0
2023-08-12 14:30:38.244732,-71.0
2023-08-12 14:30:38.252422,-64.0
2023-08-12 14:30:38.260112,-59.0
2023-08-12 14:30:38.267802,-35.0
2023-08-12 14:30:38.275492,109.0
2023-08-12 14:30:38.283182,371.0
2023-08-12 14:30:38.290872,545.0
2023-08-12 14:30:38.298562,395.0
2023-08-12 14:30:38.306252,16.0
2023-08-12 14:30:38.313942,-197.0
2023-08-12 14:30:38.321632,-164.0
2023-08-12 14:30:38.329322,-149.0
2023-08-12 14:30:38.337012,-157.0
2023-08-12 14:30:38.344702,-95.0
2023-08-12 14:30:38.352392,-76.0
2023-08-12 14:30:38.360082,-97.0
2023-08-12 14:30:38.367772,-80.0
2023-08-12 14:30:38.375462,-61.0
2023-08-12 14:30:38.383152,-71.0
2023-08-12 14:30:38.390842,-57.0
2023-08-12 14:30:38.398532,-38.0
2023-08-12 14:30:38.406222,-40.0
2023-08-12 14:30:38.413912,-45.0
2023-08-12 14:30:38.421602,-35.0
2023-08-12 14:30:38.429292,-28.0
2023-08-12 14:30:38.436982,-21.0
2023-08-12 14:30:38.444671,-2.0
2023-08-12 14:30:38.452361,11.0
2023-08-12 14:30:38.460051,21.0
2023-08-12 14:30:38.467741,33.0
2023-08-12 14:30:38.475431,52.0
2023-08-12 14:30:38.483121,69.0
2023-08-12 14:30:38.490811,76.0
2023-08-12 14:30:38.498501,83.0
2023-08-12 14:30:38.506191,95.0
2023-08-12 14:30:38.513881,95.0
2023-08-12 14:30:38.521571,83.0
2023-08-12 14:30:38.529261,66.0
2023-08-12 14:30:38.536951,42.0
2023-08-12 14:30:38.544641,7.0
2023-08-12 14:30:38.552331,-35.0
2023-08-12 14:30:38.560021,-80.0
2023-08-12 14:30:38.567711,-107.0
2023-08-12 14:30:38.575401,-119.0
2023-08-12 14:30:38.583091,-128.0
2023-08-12 14:30:38.590781,-133.0
2023-08-12 14:30:38.598471,-135.0
2023-08-12 14:30:38.606161,-138.0
2023-08-12 14:30:38.613851,-140.0
2023-08-12 14:30:38.621541,-138.0
2023-08-12 14:30:38.629231,-126.0
2023-08-12 14:30:38.636921,-121.0
2023-08-12 14:30:38.644611,-126.0
2023-08-12 14:30:38.652301,-123.0
2023-08-12 14:30:38.659991,-123.0
2023-08-12 14:30:38.667680,-128.0
2023-08-12 14:30:38.675370,-119.0
2023-08-12 14:30:38.683060,-104.0
2023-08-12 14:30:38.690750,-104.0
2023-08-12 14:30:38.698440,-114.0
2023-08-12 14:30:38.706130,-119.0
2023-08-12 14:30:38.713820,-104.0
2023-08-12 14:30:38.721510,-85.0
2023-08-12 14:30:38.729200,-88.0
2023-08-12 14:30:38.736890,-97.0
2023-08-12 14:30:38.744580,-99.0
2023-08-12 14:30:38.752270,-95.0
2023-08-12 14:30:38.759960,-90.0
2023-08-12 14:30:38.767650,-97.0
2023-08-12 14:30:38.775340,-95.0
2023-08-12 14:30:38.783030,-88.0
2023-08-12 14:30:38.790720,-90.0
2023-08-12 14:30:38.798410,-97.0
2023-08-12 14:30:38.806100,-95.0
2023-08-12 14:30:38.813790,-90.0
2023-08-12 14:30:38.821480,-85.0
2023-08-12 14:30:38.829170,-80.0
2023-08-12 14:30:38.836860,-83.0
2023-08-12 14:30:38.844550,-97.0
2023-08-12 14:30:38.852240,-97.0
2023-08-12 14:30:38.859930,-88.0
2023-08-12 14:30:38.867620,-85.0
2023-08-12 14:30:38.875310,-85.0
2023-08-12 14:30:38.883000,-78.0
2023-08-12 14:30:38.890689,-78.0
2023-08-12 14:30:38.898379,-80.0
2023-08-12 14:30:38.906069,-73.0
2023-08-12 14:30:38.913759,-73.0
2023-08-12 14:30:38.921449,-78.0
2023-08-12 14:30:38.929139,-73.0
2023-08-12 14:30:38.936829,-78.0
2023-08-12 14:30:38.944519,-78.0
2023-08-12 14:30:38.952209,-64.0
2023-08-12 14:30:38.959899,-61.0
2023-08-12 14:30:38.967589,-64.0
2023-08-12 14:30:38.975279,-54.0
2023-08-12 14:30:38.982969,-57.0
2023-08-12 14:30:38.990659,-66.0
2023-08-12 14:30:38.998349,-64.0
2023-08-12 14:30:39.006039,-49.0
2023-08-12 14:30:39.013729,-40.0
2023-08-12 14:30:39.021419,-49.0
2023-08-12 14:30:39.029109,-54.0
2023-08-12 14:30:39.036799,-38.0
2023-08-12 14:30:39.044489,-26.0
2023-08-12 14:30:39.052179,-30.0
2023-08-12 14:30:39.059869,-38.0
2023-08-12 14:30:39.067559,-35.0
2023-08-12 14:30:39.075249,-35.0
2023-08-12 14:30:39.082939,-40.0
2023-08-12 14:30:39.090629,-49.0
2023-08-12 14:30:39.098319,-61.0
2023-08-12 14:30:39.106009,-71.0
2023-08-12 14:30:39.113698,-71.0
2023-08-12 14:30:39.121388,-66.0
2023-08-12 14:30:39.129078,-69.0
2023-08-12 14:30:39.136768,-66.0
2023-08-12 14:30:39.144458,-64.0
2023-08-12 14:30:39.152148,-54.0
2023-08-12 14:30:39.159838,69.0
2023-08-12 14:30:39.167528,354.0
2023-08-12 14:30:39.175218,587.0
2023-08-12 14:30:39.182908,459.0
2023-08-12 14:30:39.190598,49.0
2023-08-12 14:30:39.198288,-197.0
2023-08-12 14:30:39.205978,-171.0
2023-08-12 14:30:39.213668,-157.0
2023-08-12 14:30:39.221358,-176.0
2023-08-12 14:30:39.229048,-114.0
2023-08-12 14:30:39.236738,-73.0
2023-08-12 14:30:39.244428,-95.0
2023-08-12 14:30:39.252118,-92.0
2023-08-12 14:30:39.259808,-78.0
2023-08-12 14:30:39.267498,-76.0
2023-08-12 14:30:39.275188,-64.0
2023-08-12 14:30:39.282878,-52.0
2023-08-12 14:30:39.290568,-47.0
2023-08-12 14:30:39.298258,-38.0
2023-08-12 14:30:39.305948,-33.0
2023-08-12 14:30:39.313638,-28.0
2023-08-12 14:30:39.321328,-19.0
2023-08-12 14:30:39.329018,-9.0
2023-08-12 14:30:39.336708,4.0
2023-08-12 14:30:39.344397,19.0
2023-08-12 14:30:39.352087,30.0
2023-08-12 14:30:39.359777,45.0
2023-08-12 14:30:39.367467,61.0
2023-08-12 14:30:39.375157,78.0
2023-08-12 14:30:39.382847,92.0
2023-08-12 14:30:39.390537,97.0
2023-08-12 14:30:39.398227,92.0
2023-08-12 14:30:39.405917,83.0
2023-08-12 14:30:39.413607,66.0
2023-08-12 14:30:39.421297,38.0
2023-08-12 14:30:39.428987,2.0
2023-08-12 14:30:39.436677,-40.0
2023-08-12 14:30:39.444367,-88.0
2023-08-12 14:30:39.452057,-121.0
2023-08-12 14:30:39.459747,-140.0
2023-08-12 14:30:39.467437,-154.0
2023-08-12 14:30:39.475127,-164.0
2023-08-12 14:30:39.482817,-157.0
2023-08-12 14:30:39.490507,-149.0
2023-08-12 14:30:39.498197,-147.0
2023-08-12 14:30:39.505887,-145.0
2023-08-12 14:30:39.513577,-135.0
2023-08-12 14:30:39.521267,-133.0
2023-08-12 14:30:39.528957,-138.0
2023-08-12 14:30:39.536647,-138.0
2023-08-12 14:30:39.544337,-133.0
2023-08-12 14:30:39.552027,-123.0
2023-08-12 14:30:39.559717,-119.0
2023-08-12 14:30:39.567406,-119.0
2023-08-12 14:30:39.575096,-116.0
2023-08-12 14:30:39.582786,-107.0
2023-08-12 14:30:39.590476,-99.0
2023-08-12 14:30:39.598166,-102.0
2023-08-12 14:30:39.605856,-97.0
2023-08-12 14:30:39.613546,-90.0
2023-08-12 14:30:39.621236,-92.0
2023-08-12 14:30:39.628926,-95.0
2023-08-12 14:30:39.636616,-95.0
2023-08-12 14:30:39.644306,-92.0
2023-08-12 14:30:39.651996,-88.0
2023-08-12 14:30:39.659686,-92.0
2023-08-12 14:30:39.667376,-99.0
2023-08-12 14:30:39.675066,-102.0
2023-08-12 14:30:39.682756,-104.0
2023-08-12 14:30:39.690446,-99.0
2023-08-12 14:30:39.698136,-92.0
2023-08-12 14:30:39.705826,-95.0
2023-08-12 14:30:39.713516,-102.0
2023-08-12 14:30:39.721206,-90.0
2023-08-12 14:30:39.728896,-80.0
2023-08-12 14:30:39.736586,-83.0
2023-08-12 14:30:39.744276,-90.0
2023-08-12 14:30:39.751966,-88.0
2023-08-12 14:30:39.759656,-83.0
2023-08-12 14:30:39.767346,-78.0
2023-08-12 14:30:39.775036,-80.0
2023-08-12 14:30:39.782726,-80.0
2023-08-12 14:30:39.790415,-76.0
2023-08-12 14:30:39.798105,-76.0
2023-08-12 14:30:39.805795,-76.0
2023-08-12 14:30:39.813485,-76.0
2023-08-12 14:30:39.821175,-71.0
2023-08-12 14:30:39.828865,-64.0
2023-08-12 14:30:39.836555,-66.0
2023-08-12 14:30:39.844245,-73.0
2023-08-12 14:30:39.851935,-78.0
2023-08-12 14:30:39.859625,-71.0
2023-08-12 14:30:39.867315,-66.0
2023-08-12 14:30:39.875005,-71.0
2023-08-12 14:30:39.882695,-80.0
2023-08-12 14:30:39.890385,-78.0
2023-08-12 14:30:39.898075,-66.0
2023-08-12 14:30:39.905765,-69.0
2023-08-12 14:30:39.913455,-78.0
2023-08-12 14:30:39.921145,-69.0
2023-08-12 14:30:39.928835,-54.0
2023-08-12 14:30:39.936525,-47.0
2023-08-12 14:30:39.944215,-45.0
2023-08-12 14:30:39.951905,-35.0
2023-08-12 14:30:39.959595,-30.0
2023-08-12 14:30:39.967285,-35.0
2023-08-12 14:30:39.974975,-45.0
2023-08-12 14:30:39.982665,-47.0
2023-08-12 14:30:39.990355,-42.0
2023-08-12 14:30:39.998045,-49.0
2023-08-12 14:30:40.005735,-66.0
2023-08-12 14:30:40.013424,-78.0
2023-08-12 14:30:40.021114,-80.0
2023-08-12 14:30:40.028804,-76.0
2023-08-12 14:30:40.036494,-76.0
2023-08-12 14:30:40.044184,-80.0
2023-08-12 14:30:40.051874,-76.0
2023-08-12 14:30:40.059564,-57.0
2023-08-12 14:30:40.067254,21.0
2023-08-12 14:30:40.074944,230.0
2023-08-12 14:30:40.082634,483.0
2023-08-12 14:30:40.090324,523.0
2023-08-12 14:30:40.098014,240.0
2023-08-12 14:30:40.105704,-97.0
2023-08-12 14:30:40.113394,-188.0
2023-08-12 14:30:40.121084,-147.0
2023-08-12 14:30:40.128774,-152.0
2023-08-12 14:30:40.136464,-128.0
2023-08-12 14:30:40.144154,-83.0
2023-08-12 14:30:40.151844,-83.0
2023-08-12 14:30:40.159534,-92.0
2023-08-12 14:30:40.167224,-78.0
2023-08-12 14:30:40.174914,-66.0
2023-08-12 14:30:40.182604,-64.0
2023-08-12 14:30:40.190294,-69.0
2023-08-12 14:30:40.197984,-69.0
2023-08-12 14:30:40.205674,-59.0
2023-08-12 14:30:40.213364,-45.0
2023-08-12 14:30:40.221054,-30.0
2023-08-12 14:30:40.228744,-21.0
2023-08-12 14:30:40.236434,-9.0
2023-08-12 14:30:40.244123,-9.0
2023-08-12 14:30:40.251813,-7.0
2023-08-12 14:30:40.259503,19.0
2023-08-12 14:30:40.267193,40.0
2023-08-12 14:30:40.274883,45.0
2023-08-12 14:30:40.282573,54.0
2023-08-12 14:30:40.290263,73.0
2023-08-12 14:30:40.297953,88.0
2023-08-12 14:30:40.305643,88.0
2023-08-12 14:30:40.313333,80.0
2023-08-12 14:30:40.321023,73.0
2023-08-12 14:30:40.328713,57.0
2023-08-12 14:30:40.336403,16.0
2023-08-12 14:30:40.344093,-16.0
2023-08-12 14:30:40.351783,-40.0
2023-08-12 14:30:40.359473,-88.0
2023-08-12 14:30:40.367163,-121.0
2023-08-12 14:30:40.374853,-121.0
2023-08-12 14:30:40.382543,-133.0
2023-08-12 14:30:40.390233,-140.0
2023-08-12 14:30:40.397923,-126.0
2023-08-12 14:30:40.405613,-119.0
2023-08-12 14:30:40.413303,-123.0
2023-08-12 14:30:40.420993,-128.0
2023-08-12 14:30:40.428683,-121.0
2023-08-12 14:30:40.436373,-102.0
2023-08-12 14:30:40.444063,-88.0
2023-08-12 14:30:40.451753,-102.0
2023-08-12 14:30:40.459443,-119.0
2023-08-12 14:30:40.467132,-114.0
2023-08-12 14:30:40.474822,-109.0
2023-08-12 14:30:40.482512,-107.0
2023-08-12 14:30:40.490202,-104.0
2023-08-12 14:30:40.497892,-107.0
2023-08-12 14:30:40.505582,-99.0
2023-08-12 14:30:40.513272,-104.0
2023-08-12 14:30:40.520962,-114.0
2023-08-12 14:30:40.528652,-104.0
2023-08-12 14:30:40.536342,-95.0
2023-08-12 14:30:40.544032,-97.0
2023-08-12 14:30:40.551722,-104.0
2023-08-12 14:30:40.559412,-102.0
2023-08-12 14:30:40.567102,-92.0
2023-08-12 14:30:40.574792,-88.0
2023-08-12 14:30:40.582482,-88.0
2023-08-12 14:30:40.590172,-90.0
2023-08-12 14:30:40.597862,-92.0
2023-08-12 14:30:40.605552,-92.0
2023-08-12 14:30:40.613242,-95.0
2023-08-12 14:30:40.620932,-102.0
2023-08-12 14:30:40.628622,-99.0
2023-08-12 14:30:40.636312,-92.0
2023-08-12 14:30:40.644002,-99.0
2023-08-12 14:30:40.651692,-102.0
2023-08-12 14:30:40.659382,-90.0
2023-08-12 14:30:40.667072,-85.0
2023-08-12 14:30:40.674762,-90.0
2023-08-12 14:30:40.682452,-92.0
2023-08-12 14:30:40.690141,-97.0
2023-08-12 14:30:40.697831,-97.0
2023-08-12 14:30:40.705521,-90.0
2023-08-12 14:30:40.713211,-90.0
2023-08-12 14:30:40.720901,-90.0
2023-08-12 14:30:40.728591,-85.0
2023-08-12 14:30:40.736281,-90.0
2023-08-12 14:30:40.743971,-95.0
2023-08-12 14:30:40.751661,-88.0
2023-08-12 14:30:40.759351,-80.0
2023-08-12 14:30:40.767041,-78.0
2023-08-12 14:30:40.774731,-80.0
2023-08-12 14:30:40.782421,-83.0
2023-08-12 14:30:40.790111,-80.0
2023-08-12 14:30:40.797801,-76.0
2023-08-12 14:30:40.805491,-71.0
2023-08-12 14:30:40.813181,-71.0
2023-08-12 14:30:40.820871,-73.0
2023-08-12 14:30:40.828561,-73.0
2023-08-12 14:30:40.836251,-69.0
2023-08-12 14:30:40.843941,-66.0
2023-08-12 14:30:40.851631,-66.0
2023-08-12 14:30:40.859321,-64.0
2023-08-12 14:30:40.867011,-66.0
2023-08-12 14:30:40.874701,-73.0
2023-08-12 14:30:40.882391,-73.0
2023-08-12 14:30:40.890081,-69.0
2023-08-12 14:30:40.897771,-61.0
2023-08-12 14:30:40.905461,-59.0
2023-08-12 14:30:40.913150,-61.0
2023-08-12 14:30:40.920840,-64.0
2023-08-12 14:30:40.928530,-59.0
2023-08-12 14:30:40.936220,-57.0
2023-08-12 14:30:40.943910,-64.0
2023-08-12 14:30:40.951600,-61.0
2023-08-12 14:30:40.959290,-54.0
2023-08-12 14:30:40.966980,-54.0
2023-08-12 14:30:40.974670,-52.0
2023-08-12 14:30:40.982360,-42.0
2023-08-12 14:30:40.990050,-30.0
2023-08-12 14:30:40.997740,-26.0
2023-08-12 14:30:41.005430,-23.0
2023-08-12 14:30:41.013120,-30.0
2023-08-12 14:30:41.020810,-38.0
2023-08-12 14:30:41.028500,-38.0
2023-08-12 14:30:41.036190,-42.0
2023-08-12 14:30:41.043880,-57.0
2023-08-12 14:30:41.051570,-64.0
2023-08-12 14:30:41.059260,-66.0
2023-08-12 14:30:41.066950,-66.0
2023-08-12 14:30:41.074640,-59.0
2023-08-12 14:30:41.082330,-61.0
2023-08-12 14:30:41.090020,-73.0
2023-08-12 14:30:41.097710,-64.0
2023-08-12 14:30:41.105400,30.0
2023-08-12 14:30:41.113090,257.0
2023-08-12 14:30:41.120780,516.0
2023-08-12 14:30:41.128470,530.0
2023-08-12 14:30:41.136160,197.0
2023-08-12 14:30:41.143849,-145.0
2023-08-12 14:30:41.151539,-204.0
2023-08-12 14:30:41.159229,-159.0
2023-08-12 14:30:41.166919,-171.0
2023-08-12 14:30:41.174609,-135.0
2023-08-12 14:30:41.182299,-90.0
2023-08-12 14:30:41.189989,-104.0
2023-08-12 14:30:41.197679,-114.0
2023-08-12 14:30:41.205369,-90.0
2023-08-12 14:30:41.213059,-78.0
2023-08-12 14:30:41.220749,-76.0
2023-08-12 14:30:41.228439,-64.0
2023-08-12 14:30:41.236129,-57.0
2023-08-12 14:30:41.243819,-57.0
2023-08-12 14:30:41.251509,-49.0
2023-08-12 14:30:41.259199,-33.0
2023-08-12 14:30:41.266889,-19.0
2023-08-12 14:30:41.274579,-11.0
2023-08-12 14:30:41.282269,-11.0
2023-08-12 14:30:41.289959,2.0
2023-08-12 14:30:41.297649,28.0
2023-08-12 14:30:41.305339,54.0
2023-08-12 14:30:41.313029,71.0
2023-08-12 14:30:41.320719,78.0
2023-08-12 14:30:41.328409,85.0
2023-08-12 14:30:41.336099,95.0
2023-08-12 14:30:41.343789,88.0
2023-08-12 14:30:41.351479,76.0
2023-08-12 14:30:41.359169,76.0
2023-08-12 14:30:41.366858,61.0
2023-08-12 14:30:41.374548,30.0
2023-08-12 14:30:41.382238,-11.0
2023-08-12 14:30:41.389928,-54.0
2023-08-12 14:30:41.397618,-97.0
2023-08-12 14:30:41.405308,-130.0
2023-08-12 14:30:41.412998,-147.0
2023-08-12 14:30:41.420688,-154.0
2023-08-12 14:30:41.428378,-157.0
2023-08-12 14:30:41.436068,-149.0
2023-08-12 14:30:41.443758,-142.0
2023-08-12 14:30:41.451448,-142.0
2023-08-12 14:30:41.459138,-140.0
2023-08-12 14:30:41.466828,-138.0
2023-08-12 14:30:41.474518,-133.0
2023-08-12 14:30:41.482208,-130.0
2023-08-12 14:30:41.489898,-138.0
2023-08-12 14:30:41.497588,-133.0
2023-08-12 14:30:41.505278,-114.0
2023-08-12 14:30:41.512968,-114.0
2023-08-12 14:30:41.520658,-126.0
2023-08-12 14:30:41.528348,-128.0
2023-08-12 14:30:41.536038,-109.0
2023-08-12 14:30:41.543728,-97.0
2023-08-12 14:30:41.551418,-107.0
2023-08-12 14:30:41.559108,-114.0
2023-08-12 14:30:41.566798,-107.0
2023-08-12 14:30:41.574488,-99.0
2023-08-12 14:30:41.582178,-97.0
2023-08-12 14:30:41.589867,-95.0
2023-08-12 14:30:41.597557,-97.0
2023-08-12 14:30:41.605247,-102.0
2023-08-12 14:30:41.612937,-104.0
2023-08-12 14:30:41.620627,-102.0
2023-08-12 14:30:41.628317,-102.0
2023-08-12 14:30:41.636007,-97.0
2023-08-12 14:30:41.643697,-97.0
2023-08-12 14:30:41.651387,-97.0
2023-08-12 14:30:41.659077,-97.0
2023-08-12 14:30:41.666767,-97.0
2023-08-12 14:30:41.674457,-97.0
2023-08-12 14:30:41.682147,-102.0
2023-08-12 14:30:41.689837,-107.0
2023-08-12 14:30:41.697527,-107.0
2023-08-12 14:30:41.705217,-102.0
2023-08-12 14:30:41.712907,-95.0
2023-08-12 14:30:41.720597,-95.0
2023-08-12 14:30:41.728287,-99.0
2023-08-12 14:30:41.735977,-97.0
2023-08-12 14:30:41.743667,-90.0
2023-08-12 14:30:41.751357,-90.0
2023-08-12 14:30:41.759047,-92.0
2023-08-12 14:30:41.766737,-90.0
2023-08-12 14:30:41.774427,-88.0
2023-08-12 14:30:41.782117,-88.0
2023-08-12 14:30:41.789807,-83.0
2023-08-12 14:30:41.797497,-85.0
2023-08-12 14:30:41.805187,-90.0
2023-08-12 14:30:41.812876,-83.0
2023-08-12 14:30:41.820566,-76.0
2023-08-12 14:30:41.828256,-80.0
2023-08-12 14:30:41.835946,-83.0
2023-08-12 14:30:41.843636,-85.0
2023-08-12 14:30:41.851326,-83.0
2023-08-12 14:30:41.859016,-71.0
2023-08-12 14:30:41.866706,-61.0
2023-08-12 14:30:41.874396,-64.0
2023-08-12 14:30:41.882086,-61.0
2023-08-12 14:30:41.889776,-52.0
2023-08-12 14:30:41.897466,-45.0
2023-08-12 14:30:41.905156,-42.0
2023-08-12 14:30:41.912846,-40.0
2023-08-12 14:30:41.920536,-42.0
2023-08-12 14:30:41.928226,-49.0
2023-08-12 14:30:41.935916,-49.0
2023-08-12 14:30:41.943606,-49.0
2023-08-12 14:30:41.951296,-61.0
2023-08-12 14:30:41.958986,-78.0
2023-08-12 14:30:41.966676,-78.0
2023-08-12 14:30:41.974366,-73.0
2023-08-12 14:30:41.982056,-76.0
2023-08-12 14:30:41.989746,-73.0
2023-08-12 14:30:41.997436,-66.0
2023-08-12 14:30:42.005126,-54.0
2023-08-12 14:30:42.012816,40.0
2023-08-12 14:30:42.020506,283.0
2023-08-12 14:30:42.028196,549.0
2023-08-12 14:30:42.035886,537.0
2023-08-12 14:30:42.043575,178.0
2023-08-12 14:30:42.051265,-149.0
2023-08-12 14:30:42.058955,-183.0
2023-08-12 14:30:42.066645,-145.0
2023-08-12 14:30:42.074335,-169.0
2023-08-12 14:30:42.082025,-126.0
2023-08-12 14:30:42.089715,-71.0
2023-08-12 14:30:42.097405,-88.0
2023-08-12 14:30:42.105095,-92.0
2023-08-12 14:30:42.112785,-69.0
2023-08-12 14:30:42.120475,-66.0
2023-08-12 14:30:42.128165,-69.0
2023-08-12 14:30:42.135855,-61.0
2023-08-12 14:30:42.143545,-47.0
2023-08-12 14:30:42.151235,-30.0
2023-08-12 14:30:42.158925,-26.0
2023-08-12 14:30:42.166615,-28.0
2023-08-12 14:30:42.174305,-19.0
2023-08-12 14:30:42.181995,-9.0
2023-08-12 14:30:42.189685,0.0
2023-08-12 14:30:42.197375,11.0
2023-08-12 14:30:42.205065,19.0
2023-08-12 14:30:42.212755,30.0
2023-08-12 14:30:42.220445,47.0
2023-08-12 14:30:42.228135,61.0
2023-08-12 14:30:42.235825,78.0
2023-08-12 14:30:42.243515,90.0
2023-08-12 14:30:42.251205,85.0
2023-08-12 14:30:42.258895,76.0
2023-08-12 14:30:42.266584,69.0
2023-08-12 14:30:42.274274,52.0
2023-08-12 14:30:42.281964,11.0
2023-08-12 14:30:42.289654,-33.0
2023-08-12 14:30:42.297344,-80.0
2023-08-12 14:30:42.305034,-111.0
2023-08-12 14:30:42.312724,-126.0
2023-08-12 14:30:42.320414,-152.0
2023-08-12 14:30:42.328104,-164.0
2023-08-12 14:30:42.335794,-154.0
2023-08-12 14:30:42.343484,-154.0
2023-08-12 14:30:42.351174,-164.0
2023-08-12 14:30:42.358864,-164.0
2023-08-12 14:30:42.366554,-159.0
2023-08-12 14:30:42.374244,-147.0
2023-08-12 14:30:42.381934,-140.0
2023-08-12 14:30:42.389624,-138.0
2023-08-12 14:30:42.397314,-133.0
2023-08-12 14:30:42.405004,-138.0
2023-08-12 14:30:42.412694,-138.0
2023-08-12 14:30:42.420384,-130.0
2023-08-12 14:30:42.428074,-121.0
2023-08-12 14:30:42.435764,-111.0
2023-08-12 14:30:42.443454,-111.0
2023-08-12 14:30:42.451144,-121.0
2023-08-12 14:30:42.458834,-121.0
2023-08-12 14:30:42.466524,-107.0
2023-08-12 14:30:42.474214,-97.0
2023-08-12 14:30:42.481904,-99.0
2023-08-12 14:30:42.489593,-102.0
2023-08-12 14:30:42.497283,-99.0
2023-08-12 14:30:42.504973,-99.0
2023-08-12 14:30:42.512663,-99.0
2023-08-12 14:30:42.520353,-97.0
2023-08-12 14:30:42.528043,-90.0
2023-08-12 14:30:42.535733,-92.0
2023-08-12 14:30:42.543423,-107.0
2023-08-12 14:30:42.551113,-104.0
2023-08-12 14:30:42.558803,-90.0
2023-08-12 14:30:42.566493,-83.0
2023-08-12 14:30:42.574183,-90.0
2023-08-12 14:30:42.581873,-95.0
2023-08-12 14:30:42.589563,-95.0
2023-08-12 14:30:42.597253,-88.0
2023-08-12 14:30:42.604943,-90.0
2023-08-12 14:30:42.612633,-88.0
2023-08-12 14:30:42.620323,-83.0
2023-08-12 14:30:42.628013,-83.0
2023-08-12 14:30:42.635703,-85.0
2023-08-12 14:30:42.643393,-83.0
2023-08-12 14:30:42.651083,-83.0
2023-08-12 14:30:42.658773,-78.0
2023-08-12 14:30:42.666463,-69.0
2023-08-12 14:30:42.674153,-71.0
2023-08-12 14:30:42.681843,-78.0
2023-08-12 14:30:42.689533,-76.0
2023-08-12 14:30:42.697223,-78.0
2023-08-12 14:30:42.704913,-80.0
2023-08-12 14:30:42.712602,-78.0
2023-08-12 14:30:42.720292,-71.0
2023-08-12 14:30:42.727982,-73.0
2023-08-12 14:30:42.735672,-76.0
2023-08-12 14:30:42.743362,-71.0
2023-08-12 14:30:42.751052,-76.0
2023-08-12 14:30:42.758742,-78.0
2023-08-12 14:30:42.766432,-69.0
2023-08-12 14:30:42.774122,-61.0
2023-08-12 14:30:42.781812,-61.0
2023-08-12 14:30:42.789502,-64.0
2023-08-12 14:30:42.797192,-66.0
2023-08-12 14:30:42.804882,-76.0
2023-08-12 14:30:42.812572,-78.0
2023-08-12 14:30:42.820262,-69.0
2023-08-12 14:30:42.827952,-64.0
2023-08-12 14:30:42.835642,-69.0
2023-08-12 14:30:42.843332,-73.0
2023-08-12 14:30:42.851022,-69.0
2023-08-12 14:30:42.858712,-66.0
2023-08-12 14:30:42.866402,-61.0
2023-08-12 14:30:42.874092,-42.0
2023-08-12 14:30:42.881782,-28.0
2023-08-12 14:30:42.889472,-30.0
2023-08-12 14:30:42.897162,-33.0
2023-08-12 14:30:42.904852,-35.0
2023-08-12 14:30:42.912542,-42.0
2023-08-12 14:30:42.920232,-38.0
2023-08-12 14:30:42.927922,-38.0
2023-08-12 14:30:42.935612,-47.0
2023-08-12 14:30:42.943301,-64.0
2023-08-12 14:30:42.950991,-78.0
2023-08-12 14:30:42.958681,-76.0
2023-08-12 14:30:42.966371,-64.0
2023-08-12 14:30:42.974061,-57.0
2023-08-12 14:30:42.981751,-59.0
2023-08-12 14:30:42.989441,-69.0
2023-08-12 14:30:42.997131,-23.0
2023-08-12 14:30:43.004821,149.0
2023-08-12 14:30:43.012511,421.0
2023-08-12 14:30:43.020201,571.0
2023-08-12 14:30:43.027891,392.0
2023-08-12 14:30:43.035581,7.0
2023-08-12 14:30:43.043271,-192.0
2023-08-12 14:30:43.050961,-159.0
2023-08-12 14:30:43.058651,-138.0
2023-08-12 14:30:43.066341,-138.0
2023-08-12 14:30:43.074031,-95.0
2023-08-12 14:30:43.081721,-78.0
2023-08-12 14:30:43.089411,-90.0
2023-08-12 14:30:43.097101,-80.0
2023-08-12 14:30:43.104791,-61.0
2023-08-12 14:30:43.112481,-61.0
2023-08-12 14:30:43.120171,-61.0
2023-08-12 14:30:43.127861,-47.0
2023-08-12 14:30:43.135551,-40.0
2023-08-12 14:30:43.143241,-38.0
2023-08-12 14:30:43.150931,-33.0
2023-08-12 14:30:43.158621,-26.0
2023-08-12 14:30:43.166310,-16.0
2023-08-12 14:30:43.174000,-7.0
2023-08-12 14:30:43.181690,4.0
2023-08-12 14:30:43.189380,9.0
2023-08-12 14:30:43.197070,19.0
2023-08-12 14:30:43.204760,33.0
2023-08-12 14:30:43.212450,49.0
2023-08-12 14:30:43.220140,69.0
2023-08-12 14:30:43.227830,76.0
2023-08-12 14:30:43.235520,73.0
2023-08-12 14:30:43.243210,71.0
2023-08-12 14:30:43.250900,73.0
2023-08-12 14:30:43.258590,61.0
2023-08-12 14:30:43.266280,30.0
2023-08-12 14:30:43.273970,-2.0
2023-08-12 14:30:43.281660,-40.0
2023-08-12 14:30:43.289350,-73.0
2023-08-12 14:30:43.297040,-99.0
2023-08-12 14:30:43.304730,-121.0
2023-08-12 14:30:43.312420,-138.0
2023-08-12 14:30:43.320110,-145.0
2023-08-12 14:30:43.327800,-152.0
2023-08-12 14:30:43.335490,-154.0
2023-08-12 14:30:43.343180,-147.0
2023-08-12 14:30:43.350870,-147.0
2023-08-12 14:30:43.358560,-147.0
2023-08-12 14:30:43.366250,-135.0
2023-08-12 14:30:43.373940,-135.0
2023-08-12 14:30:43.381630,-138.0
2023-08-12 14:30:43.389319,-126.0
2023-08-12 14:30:43.397009,-121.0
2023-08-12 14:30:43.404699,-130.0
2023-08-12 14:30:43.412389,-128.0
2023-08-12 14:30:43.420079,-119.0
2023-08-12 14:30:43.427769,-109.0
2023-08-12 14:30:43.435459,-104.0
2023-08-12 14:30:43.443149,-102.0
2023-08-12 14:30:43.450839,-104.0
2023-08-12 14:30:43.458529,-102.0
2023-08-12 14:30:43.466219,-102.0
2023-08-12 14:30:43.473909,-99.0
2023-08-12 14:30:43.481599,-90.0
2023-08-12 14:30:43.489289,-83.0
2023-08-12 14:30:43.496979,-90.0
2023-08-12 14:30:43.504669,-95.0
2023-08-12 14:30:43.512359,-90.0
2023-08-12 14:30:43.520049,-80.0
2023-08-12 14:30:43.527739,-83.0
2023-08-12 14:30:43.535429,-85.0
2023-08-12 14:30:43.543119,-88.0
2023-08-12 14:30:43.550809,-83.0
2023-08-12 14:30:43.558499,-69.0
2023-08-12 14:30:43.566189,-66.0
2023-08-12 14:30:43.573879,-78.0
2023-08-12 14:30:43.581569,-83.0
2023-08-12 14:30:43.589259,-71.0
2023-08-12 14:30:43.596949,-66.0
2023-08-12 14:30:43.604639,-71.0
2023-08-12 14:30:43.612328,-73.0
2023-08-12 14:30:43.620018,-66.0
2023-08-12 14:30:43.627708,-64.0
2023-08-12 14:30:43.635398,-73.0
2023-08-12 14:30:43.643088,-76.0
2023-08-12 14:30:43.650778,-64.0
2023-08-12 14:30:43.658468,-57.0
2023-08-12 14:30:43.666158,-59.0
2023-08-12 14:30:43.673848,-66.0
2023-08-12 14:30:43.681538,-61.0
2023-08-12 14:30:43.689228,-54.0
2023-08-12 14:30:43.696918,-49.0
2023-08-12 14:30:43.704608,-57.0
2023-08-12 14:30:43.712298,-69.0
2023-08-12 14:30:43.719988,-71.0
2023-08-12 14:30:43.727678,-61.0
2023-08-12 14:30:43.735368,-54.0
2023-08-12 14:30:43.743058,-57.0
2023-08-12 14:30:43.750748,-59.0
2023-08-12 14:30:43.758438,-54.0
2023-08-12 14:30:43.766128,-52.0
2023-08-12 14:30:43.773818,-57.0
2023-08-12 14:30:43.781508,-61.0
2023-08-12 14:30:43.789198,-61.0
2023-08-12 14:30:43.796888,-59.0
2023-08-12 14:30:43.804578,-45.0
2023-08-12 14:30:43.812268,-38.0
2023-08-12 14:30:43.819958,-52.0
2023-08-12 14:30:43.827648,-61.0
2023-08-12 14:30:43.835338,-57.0
2023-08-12 14:30:43.843027,-49.0
2023-08-12 14:30:43.850717,-42.0
2023-08-12 14:30:43.858407,-42.0
2023-08-12 14:30:43.866097,-47.0
2023-08-12 14:30:43.873787,-35.0
2023-08-12 14:30:43.881477,-21.0
2023-08-12 14:30:43.889167,-23.0
2023-08-12 14:30:43.896857,-30.0
2023-08-12 14:30:43.904547,-30.0
2023-08-12 14:30:43.912237,-35.0
2023-08-12 14:30:43.919927,-49.0
2023-08-12 14:30:43.927617,-61.0
2023-08-12 14:30:43.935307,-73.0
2023-08-12 14:30:43.942997,-78.0
2023-08-12 14:30:43.950687,-78.0
2023-08-12 14:30:43.958377,-78.0
2023-08-12 14:30:43.966067,-73.0
2023-08-12 14:30:43.973757,-73.0
2023-08-12 14:30:43.981447,-76.0
2023-08-12 14:30:43.989137,-38.0
2023-08-12 14:30:43.996827,121.0
2023-08-12 14:30:44.004517,390.0
2023-08-12 14:30:44.012207,571.0
2023-08-12 14:30:44.019897,411.0
2023-08-12 14:30:44.027587,9.0
2023-08-12 14:30:44.035277,-207.0
2023-08-12 14:30:44.042967,-169.0
2023-08-12 14:30:44.050657,-149.0
2023-08-12 14:30:44.058347,-154.0
2023-08-12 14:30:44.066036,-97.0
2023-08-12 14:30:44.073726,-76.0
2023-08-12 14:30:44.081416,-97.0
2023-08-12 14:30:44.089106,-85.0
2023-08-12 14:30:44.096796,-69.0
2023-08-12 14:30:44.104486,-73.0
2023-08-12 14:30:44.112176,-73.0
2023-08-12 14:30:44.119866,-59.0
2023-08-12 14:30:44.127556,-52.0
2023-08-12 14:30:44.135246,-49.0
2023-08-12 14:30:44.142936,-38.0
2023-08-12 14:30:44.150626,-23.0
2023-08-12 14:30:44.158316,-26.0
2023-08-12 14:30:44.166006,-23.0
2023-08-12 14:30:44.173696,-4.0
2023-08-12 14:30:44.181386,21.0
2023-08-12 14:30:44.189076,30.0
2023-08-12 14:30:44.196766,42.0
2023-08-12 14:30:44.204456,61.0
2023-08-12 14:30:44.212146,61.0
2023-08-12 14:30:44.219836,71.0
2023-08-12 14:30:44.227526,90.0
2023-08-12 14:30:44.235216,85.0
2023-08-12 14:30:44.242906,66.0
2023-08-12 14:30:44.250596,59.0
2023-08-12 14:30:44.258286,45.0
2023-08-12 14:30:44.265976,4.0
2023-08-12 14:30:44.273666,-42.0
2023-08-12 14:30:44.281356,-78.0
2023-08-12 14:30:44.289045,-107.0
2023-08-12 14:30:44.296735,-133.0
2023-08-12 14:30:44.304425,-154.0
2023-08-12 14:30:44.312115,-166.0
2023-08-12 14:30:44.319805,-159.0
2023-08-12 14:30:44.327495,-149.0
2023-08-12 14:30:44.335185,-161.0
2023-08-12 14:30:44.342875,-164.0
2023-08-12 14:30:44.350565,-152.0
2023-08-12 14:30:44.358255,-147.0
2023-08-12 14:30:44.365945,-147.0
2023-08-12 14:30:44.373635,-140.0
2023-08-12 14:30:44.381325,-135.0
2023-08-12 14:30:44.389015,-128.0
2023-08-12 14:30:44.396705,-116.0
2023-08-12 14:30:44.404395,-114.0
2023-08-12 14:30:44.412085,-116.0
2023-08-12 14:30:44.419775,-111.0
2023-08-12 14:30:44.427465,-109.0
2023-08-12 14:30:44.435155,-104.0
2023-08-12 14:30:44.442845,-99.0
2023-08-12 14:30:44.450535,-109.0
2023-08-12 14:30:44.458225,-107.0
2023-08-12 14:30:44.465915,-99.0
2023-08-12 14:30:44.473605,-109.0
2023-08-12 14:30:44.481295,-109.0
2023-08-12 14:30:44.488985,-85.0
2023-08-12 14:30:44.496675,-83.0
2023-08-12 14:30:44.504365,-97.0
2023-08-12 14:30:44.512054,-97.0
2023-08-12 14:30:44.519744,-97.0
2023-08-12 14:30:44.527434,-107.0
2023-08-12 14:30:44.535124,-104.0
2023-08-12 14:30:44.542814,-92.0
2023-08-12 14:30:44.550504,-88.0
2023-08-12 14:30:44.558194,-90.0
2023-08-12 14:30:44.565884,-95.0
2023-08-12 14:30:44.573574,-99.0
2023-08-12 14:30:44.581264,-97.0
2023-08-12 14:30:44.588954,-85.0
2023-08-12 14:30:44.596644,-80.0
2023-08-12 14:30:44.604334,-88.0
2023-08-12 14:30:44.612024,-90.0
2023-08-12 14:30:44.619714,-88.0
2023-08-12 14:30:44.627404,-80.0
2023-08-12 14:30:44.635094,-76.0
2023-08-12 14:30:44.642784,-76.0
2023-08-12 14:30:44.650474,-85.0
2023-08-12 14:30:44.658164,-88.0
2023-08-12 14:30:44.665854,-78.0
2023-08-12 14:30:44.673544,-73.0
2023-08-12 14:30:44.681234,-76.0
2023-08-12 14:30:44.688924,-80.0
2023-08-12 14:30:44.696614,-76.0
2023-08-12 14:30:44.704304,-69.0
2023-08-12 14:30:44.711994,-78.0
2023-08-12 14:30:44.719684,-85.0
2023-08-12 14:30:44.727374,-73.0
2023-08-12 14:30:44.735064,-71.0
2023-08-12 14:30:44.742753,-80.0
2023-08-12 14:30:44.750443,-73.0
2023-08-12 14:30:44.758133,-61.0
2023-08-12 14:30:44.765823,-64.0
2023-08-12 14:30:44.773513,-57.0
2023-08-12 14:30:44.781203,-35.0
2023-08-12 14:30:44.788893,-33.0
2023-08-12 14:30:44.796583,-45.0
2023-08-12 14:30:44.804273,-52.0
2023-08-12 14:30:44.811963,-54.0
2023-08-12 14:30:44.819653,-49.0
2023-08-12 14:30:44.827343,-64.0
2023-08-12 14:30:44.835033,-80.0
2023-08-12 14:30:44.842723,-80.0
2023-08-12 14:30:44.850413,-83.0
2023-08-12 14:30:44.858103,-83.0
2023-08-12 14:30:44.865793,-76.0
2023-08-12 14:30:44.873483,-71.0
2023-08-12 14:30:44.881173,-80.0
2023-08-12 14:30:44.888863,-80.0
2023-08-12 14:30:44.896553,-4.0
2023-08-12 14:30:44.904243,211.0
2023-08-12 14:30:44.911933,483.0
2023-08-12 14:30:44.919623,549.0
2023-08-12 14:30:44.927313,264.0
2023-08-12 14:30:44.935003,-109.0
2023-08-12 14:30:44.942693,-211.0
2023-08-12 14:30:44.950383,-159.0
2023-08-12 14:30:44.958073,-161.0
2023-08-12 14:30:44.965762,-138.0
2023-08-12 14:30:44.973452,-90.0
2023-08-12 14:30:44.981142,-99.0
2023-08-12 14:30:44.988832,-104.0
2023-08-12 14:30:44.996522,-80.0
2023-08-12 14:30:45.004212,-78.0
2023-08-12 14:30:45.011902,-80.0
2023-08-12 14:30:45.019592,-66.0
2023-08-12 14:30:45.027282,-61.0
2023-08-12 14:30:45.034972,-61.0
2023-08-12 14:30:45.042662,-49.0
2023-08-12 14:30:45.050352,-40.0
2023-08-12 14:30:45.058042,-38.0
2023-08-12 14:30:45.065732,-30.0
2023-08-12 14:30:45.073422,-14.0
2023-08-12 14:30:45.081112,0.0
2023-08-12 14:30:45.088802,11.0
2023-08-12 14:30:45.096492,23.0
2023-08-12 14:30:45.104182,35.0
2023-08-12 14:30:45.111872,38.0
2023-08-12 14:30:45.119562,52.0
2023-08-12 14:30:45.127252,69.0
2023-08-12 14:30:45.134942,69.0
2023-08-12 14:30:45.142632,61.0
2023-08-12 14:30:45.150322,47.0
2023-08-12 14:30:45.158012,23.0
2023-08-12 14:30:45.165702,-2.0
2023-08-12 14:30:45.173392,-38.0
2023-08-12 14:30:45.181082,-80.0
2023-08-12 14:30:45.188771,-111.0
2023-08-12 14:30:45.196461,-135.0
2023-08-12 14:30:45.204151,-152.0
2023-08-12 14:30:45.211841,-166.0
2023-08-12 14:30:45.219531,-176.0
2023-08-12 14:30:45.227221,-180.0
2023-08-12 14:30:45.234911,-178.0
2023-08-12 14:30:45.242601,-171.0
2023-08-12 14:30:45.250291,-161.0
2023-08-12 14:30:45.257981,-152.0
2023-08-12 14:30:45.265671,-145.0
2023-08-12 14:30:45.273361,-145.0
2023-08-12 14:30:45.281051,-145.0
2023-08-12 14:30:45.288741,-142.0
2023-08-12 14:30:45.296431,-135.0
2023-08-12 14:30:45.304121,-126.0
2023-08-12 14:30:45.311811,-126.0
2023-08-12 14:30:45.319501,-126.0
2023-08-12 14:30:45.327191,-116.0
2023-08-12 14:30:45.334881,-111.0
2023-08-12 14:30:45.342571,-111.0
2023-08-12 14:30:45.350261,-109.0
2023-08-12 14:30:45.357951,-107.0
2023-08-12 14:30:45.365641,-104.0
2023-08-12 14:30:45.373331,-99.0
2023-08-12 14:30:45.381021,-99.0
2023-08-12 14:30:45.388711,-97.0
2023-08-12 14:30:45.396401,-95.0
2023-08-12 14:30:45.404091,-95.0
2023-08-12 14:30:45.411780,-90.0
2023-08-12 14:30:45.419470,-76.0
2023-08-12 14:30:45.427160,-64.0
2023-08-12 14:30:45.434850,-47.0
2023-08-12 14:30:45.442540,-38.0
2023-08-12 14:30:45.450230,-42.0
2023-08-12 14:30:45.457920,-45.0
2023-08-12 14:30:45.465610,-40.0
2023-08-12 14:30:45.473300,-42.0
2023-08-12 14:30:45.480990,-42.0
2023-08-12 14:30:45.488680,-38.0
2023-08-12 14:30:45.496370,-38.0
2023-08-12 14:30:45.504060,-42.0
2023-08-12 14:30:45.511750,-47.0
2023-08-12 14:30:45.519440,-47.0
2023-08-12 14:30:45.527130,-42.0
2023-08-12 14:30:45.534820,-38.0
2023-08-12 14:30:45.542510,-47.0
2023-08-12 14:30:45.550200,-49.0
2023-08-12 14:30:45.557890,-45.0
2023-08-12 14:30:45.565580,-47.0
2023-08-12 14:30:45.573270,-49.0
2023-08-12 14:30:45.580960,-54.0
2023-08-12 14:30:45.588650,-57.0
2023-08-12 14:30:45.596340,-54.0
2023-08-12 14:30:45.604030,-64.0
2023-08-12 14:30:45.611720,-78.0
2023-08-12 14:30:45.619410,-78.0
2023-08-12 14:30:45.627100,-76.0
2023-08-12 14:30:45.634790,-80.0
2023-08-12 14:30:45.642479,-83.0
2023-08-12 14:30:45.650169,-78.0
2023-08-12 14:30:45.657859,-80.0
2023-08-12 14:30:45.665549,-83.0
2023-08-12 14:30:45.673239,-66.0
2023-08-12 14:30:45.680929,-49.0
2023-08-12 14:30:45.688619,-52.0
2023-08-12 14:30:45.696309,-59.0
2023-08-12 14:30:45.703999,-61.0
2023-08-12 14:30:45.711689,-61.0
2023-08-12 14:30:45.719379,-66.0
2023-08-12 14:30:45.727069,-83.0
2023-08-12 14:30:45.734759,-95.0
2023-08-12 14:30:45.742449,-102.0
2023-08-12 14:30:45.750139,-104.0
2023-08-12 14:30:45.757829,-95.0
2023-08-12 14:30:45.765519,-88.0
2023-08-12 14:30:45.773209,-85.0
2023-08-12 14:30:45.780899,-90.0
2023-08-12 14:30:45.788589,-69.0
2023-08-12 14:30:45.796279,52.0
2023-08-12 14:30:45.803969,304.0
2023-08-12 14:30:45.811659,523.0
2023-08-12 14:30:45.819349,447.0
2023-08-12 14:30:45.827039,88.0
2023-08-12 14:30:45.834729,-185.0
2023-08-12 14:30:45.842419,-195.0
2023-08-12 14:30:45.850109,-164.0
2023-08-12 14:30:45.857799,-169.0
2023-08-12 14:30:45.865488,-123.0
2023-08-12 14:30:45.873178,-97.0
2023-08-12 14:30:45.880868,-111.0
2023-08-12 14:30:45.888558,-102.0
2023-08-12 14:30:45.896248,-80.0
2023-08-12 14:30:45.903938,-80.0
2023-08-12 14:30:45.911628,-83.0
2023-08-12 14:30:45.919318,-73.0
2023-08-12 14:30:45.927008,-61.0
2023-08-12 14:30:45.934698,-57.0
2023-08-12 14:30:45.942388,-52.0
2023-08-12 14:30:45.950078,-38.0
2023-08-12 14:30:45.957768,-30.0
2023-08-12 14:30:45.965458,-26.0
2023-08-12 14:30:45.973148,-11.0
2023-08-12 14:30:45.980838,2.0
2023-08-12 14:30:45.988528,9.0
2023-08-12 14:30:45.996218,23.0
2023-08-12 14:30:46.003908,47.0
2023-08-12 14:30:46.011598,66.0
2023-08-12 14:30:46.019288,66.0
2023-08-12 14:30:46.026978,64.0
2023-08-12 14:30:46.034668,66.0
2023-08-12 14:30:46.042358,59.0
2023-08-12 14:30:46.050048,40.0
2023-08-12 14:30:46.057738,23.0
2023-08-12 14:30:46.065428,0.0
2023-08-12 14:30:46.073118,-35.0
2023-08-12 14:30:46.080808,-73.0
2023-08-12 14:30:46.088497,-114.0
2023-08-12 14:30:46.096187,-140.0
2023-08-12 14:30:46.103877,-145.0
2023-08-12 14:30:46.111567,-149.0
2023-08-12 14:30:46.119257,-152.0
2023-08-12 14:30:46.126947,-152.0
2023-08-12 14:30:46.134637,-157.0
2023-08-12 14:30:46.142327,-166.0
2023-08-12 14:30:46.150017,-157.0
2023-08-12 14:30:46.157707,-138.0
2023-08-12 14:30:46.165397,-128.0
2023-08-12 14:30:46.173087,-130.0
2023-08-12 14:30:46.180777,-133.0
2023-08-12 14:30:46.188467,-133.0
2023-08-12 14:30:46.196157,-123.0
2023-08-12 14:30:46.203847,-114.0
2023-08-12 14:30:46.211537,-109.0
2023-08-12 14:30:46.219227,-111.0
2023-08-12 14:30:46.226917,-107.0
2023-08-12 14:30:46.234607,-97.0
2023-08-12 14:30:46.242297,-99.0
2023-08-12 14:30:46.249987,-107.0
2023-08-12 14:30:46.257677,-104.0
2023-08-12 14:30:46.265367,-104.0
2023-08-12 14:30:46.273057,-107.0
2023-08-12 14:30:46.280747,-97.0
2023-08-12 14:30:46.288437,-90.0
2023-08-12 14:30:46.296127,-90.0
2023-08-12 14:30:46.303817,-88.0
2023-08-12 14:30:46.311506,-90.0
2023-08-12 14:30:46.319196,-90.0
2023-08-12 14:30:46.326886,-90.0
2023-08-12 14:30:46.334576,-88.0
2023-08-12 14:30:46.342266,-85.0
2023-08-12 14:30:46.349956,-83.0
2023-08-12 14:30:46.357646,-83.0
2023-08-12 14:30:46.365336,-85.0
2023-08-12 14:30:46.373026,-90.0
2023-08-12 14:30:46.380716,-85.0
2023-08-12 14:30:46.388406,-73.0
2023-08-12 14:30:46.396096,-73.0
2023-08-12 14:30:46.403786,-80.0
2023-08-12 14:30:46.411476,-80.0
2023-08-12 14:30:46.419166,-78.0
2023-08-12 14:30:46.426856,-76.0
2023-08-12 14:30:46.434546,-66.0
2023-08-12 14:30:46.442236,-66.0
2023-08-12 14:30:46.449926,-76.0
2023-08-12 14:30:46.457616,-73.0
2023-08-12 14:30:46.465306,-66.0
2023-08-12 14:30:46.472996,-66.0
2023-08-12 14:30:46.480686,-69.0
2023-08-12 14:30:46.488376,-66.0
2023-08-12 14:30:46.496066,-71.0
2023-08-12 14:30:46.503756,-73.0
2023-08-12 14:30:46.511446,-69.0
2023-08-12 14:30:46.519136,-59.0
2023-08-12 14:30:46.526826,-52.0
2023-08-12 14:30:46.534516,-57.0
2023-08-12 14:30:46.542205,-57.0
2023-08-12 14:30:46.549895,-52.0
2023-08-12 14:30:46.557585,-42.0
2023-08-12 14:30:46.565275,-35.0
2023-08-12 14:30:46.572965,-26.0
2023-08-12 14:30:46.580655,-26.0
2023-08-12 14:30:46.588345,-40.0
2023-08-12 14:30:46.596035,-47.0
2023-08-12 14:30:46.603725,-45.0
2023-08-12 14:30:46.611415,-52.0
2023-08-12 14:30:46.619105,-66.0
2023-08-12 14:30:46.626795,-76.0
2023-08-12 14:30:46.634485,-73.0
2023-08-12 14:30:46.642175,-71.0
2023-08-12 14:30:46.649865,-73.0
2023-08-12 14:30:46.657555,-71.0
2023-08-12 14:30:46.665245,-71.0
2023-08-12 14:30:46.672935,-47.0
2023-08-12 14:30:46.680625,88.0
2023-08-12 14:30:46.688315,352.0
2023-08-12 14:30:46.696005,552.0
2023-08-12 14:30:46.703695,426.0
2023-08-12 14:30:46.711385,38.0
2023-08-12 14:30:46.719075,-195.0
2023-08-12 14:30:46.726765,-173.0
2023-08-12 14:30:46.734455,-159.0
2023-08-12 14:30:46.742145,-161.0
2023-08-12 14:30:46.749835,-107.0
2023-08-12 14:30:46.757525,-85.0
2023-08-12 14:30:46.765214,-102.0
2023-08-12 14:30:46.772904,-102.0
2023-08-12 14:30:46.780594,-95.0
2023-08-12 14:30:46.788284,-92.0
2023-08-12 14:30:46.795974,-80.0
2023-08-12 14:30:46.803664,-76.0
2023-08-12 14:30:46.811354,-78.0
2023-08-12 14:30:46.819044,-69.0
2023-08-12 14:30:46.826734,-52.0
2023-08-12 14:30:46.834424,-47.0
2023-08-12 14:30:46.842114,-38.0
2023-08-12 14:30:46.849804,-16.0
2023-08-12 14:30:46.857494,2.0
2023-08-12 14:30:46.865184,14.0
2023-08-12 14:30:46.872874,26.0
2023-08-12 14:30:46.880564,38.0
2023-08-12 14:30:46.888254,52.0
2023-08-12 14:30:46.895944,69.0
2023-08-12 14:30:46.903634,80.0
2023-08-12 14:30:46.911324,90.0
2023-08-12 14:30:46.919014,90.0
2023-08-12 14:30:46.926704,83.0
2023-08-12 14:30:46.934394,69.0
2023-08-12 14:30:46.942084,45.0
2023-08-12 14:30:46.949774,0.0
2023-08-12 14:30:46.957464,-47.0
2023-08-12 14:30:46.965154,-80.0
2023-08-12 14:30:46.972844,-109.0
2023-08-12 14:30:46.980534,-130.0
2023-08-12 14:30:46.988223,-145.0
2023-08-12 14:30:46.995913,-147.0
2023-08-12 14:30:47.003603,-147.0
2023-08-12 14:30:47.011293,-149.0
2023-08-12 14:30:47.018983,-147.0
2023-08-12 14:30:47.026673,-147.0
2023-08-12 14:30:47.034363,-142.0
2023-08-12 14:30:47.042053,-133.0
2023-08-12 14:30:47.049743,-135.0
2023-08-12 14:30:47.057433,-142.0
2023-08-12 14:30:47.065123,-128.0
2023-08-12 14:30:47.072813,-114.0
2023-08-12 14:30:47.080503,-121.0
2023-08-12 14:30:47.088193,-126.0
2023-08-12 14:30:47.095883,-116.0
2023-08-12 14:30:47.103573,-119.0
2023-08-12 14:30:47.111263,-123.0
2023-08-12 14:30:47.118953,-114.0
2023-08-12 14:30:47.126643,-109.0
2023-08-12 14:30:47.134333,-109.0
2023-08-12 14:30:47.142023,-104.0
2023-08-12 14:30:47.149713,-107.0
2023-08-12 14:30:47.157403,-109.0
2023-08-12 14:30:47.165093,-97.0
2023-08-12 14:30:47.172783,-83.0
2023-08-12 14:30:47.180473,-90.0
2023-08-12 14:30:47.188163,-104.0
2023-08-12 14:30:47.195853,-109.0
2023-08-12 14:30:47.203543,-104.0
2023-08-12 14:30:47.211232,-99.0
2023-08-12 14:30:47.218922,-97.0
2023-08-12 14:30:47.226612,-92.0
2023-08-12 14:30:47.234302,-97.0
2023-08-12 14:30:47.241992,-104.0
2023-08-12 14:30:47.249682,-99.0
2023-08-12 14:30:47.257372,-95.0
2023-08-12 14:30:47.265062,-97.0
2023-08-12 14:30:47.272752,-95.0
2023-08-12 14:30:47.280442,-85.0
2023-08-12 14:30:47.288132,-83.0
2023-08-12 14:30:47.295822,-88.0
2023-08-12 14:30:47.303512,-90.0
2023-08-12 14:30:47.311202,-92.0
2023-08-12 14:30:47.318892,-97.0
2023-08-12 14:30:47.326582,-92.0
2023-08-12 14:30:47.334272,-85.0
2023-08-12 14:30:47.341962,-83.0
2023-08-12 14:30:47.349652,-83.0
2023-08-12 14:30:47.357342,-80.0
2023-08-12 14:30:47.365032,-76.0
2023-08-12 14:30:47.372722,-66.0
2023-08-12 14:30:47.380412,-57.0
2023-08-12 14:30:47.388102,-49.0
2023-08-12 14:30:47.395792,-47.0
2023-08-12 14:30:47.403482,-42.0
2023-08-12 14:30:47.411172,-45.0
2023-08-12 14:30:47.418862,-52.0
2023-08-12 14:30:47.426552,-52.0
2023-08-12 14:30:47.434242,-57.0
2023-08-12 14:30:47.441931,-76.0
2023-08-12 14:30:47.449621,-90.0
2023-08-12 14:30:47.457311,-85.0
2023-08-12 14:30:47.465001,-76.0
2023-08-12 14:30:47.472691,-69.0
2023-08-12 14:30:47.480381,-69.0
2023-08-12 14:30:47.488071,-73.0
2023-08-12 14:30:47.495761,-54.0
2023-08-12 14:30:47.503451,71.0
2023-08-12 14:30:47.511141,338.0
2023-08-12 14:30:47.518831,568.0
2023-08-12 14:30:47.526521,461.0
2023-08-12 14:30:47.534211,42.0
2023-08-12 14:30:47.541901,-226.0
2023-08-12 14:30:47.549591,-188.0
2023-08-12 14:30:47.557281,-154.0
2023-08-12 14:30:47.564971,-178.0
2023-08-12 14:30:47.572661,-116.0
2023-08-12 14:30:47.580351,-69.0
2023-08-12 14:30:47.588041,-85.0
2023-08-12 14:30:47.595731,-78.0
2023-08-12 14:30:47.603421,-59.0
2023-08-12 14:30:47.611111,-61.0
2023-08-12 14:30:47.618801,-64.0
2023-08-12 14:30:47.626491,-57.0
2023-08-12 14:30:47.634181,-45.0
2023-08-12 14:30:47.641871,-30.0
2023-08-12 14:30:47.649561,-23.0
2023-08-12 14:30:47.657251,-19.0
2023-08-12 14:30:47.664940,-11.0
2023-08-12 14:30:47.672630,2.0
2023-08-12 14:30:47.680320,16.0
2023-08-12 14:30:47.688010,30.0
2023-08-12 14:30:47.695700,49.0
2023-08-12 14:30:47.703390,69.0
2023-08-12 14:30:47.711080,76.0
2023-08-12 14:30:47.718770,92.0
2023-08-12 14:30:47.726460,111.0
2023-08-12 14:30:47.734150,109.0
2023-08-12 14:30:47.741840,104.0
2023-08-12 14:30:47.749530,102.0
2023-08-12 14:30:47.757220,78.0
2023-08-12 14:30:47.764910,42.0
2023-08-12 14:30:47.772600,16.0
2023-08-12 14:30:47.780290,-21.0
2023-08-12 14:30:47.787980,-73.0
2023-08-12 14:30:47.795670,-111.0
2023-08-12 14:30:47.803360,-133.0
2023-08-12 14:30:47.811050,-147.0
2023-08-12 14:30:47.818740,-149.0
2023-08-12 14:30:47.826430,-145.0
2023-08-12 14:30:47.834120,-140.0
2023-08-12 14:30:47.841810,-138.0
2023-08-12 14:30:47.849500,-145.0
2023-08-12 14:30:47.857190,-152.0
2023-08-12 14:30:47.864880,-145.0
2023-08-12 14:30:47.872570,-138.0
2023-08-12 14:30:47.880260,-135.0
2023-08-12 14:30:47.887949,-126.0
2023-08-12 14:30:47.895639,-114.0
2023-08-12 14:30:47.903329,-114.0
2023-08-12 14:30:47.911019,-114.0
2023-08-12 14:30:47.918709,-99.0
2023-08-12 14:30:47.926399,-99.0
2023-08-12 14:30:47.934089,-104.0
2023-08-12 14:30:47.941779,-97.0
2023-08-12 14:30:47.949469,-92.0
2023-08-12 14:30:47.957159,-92.0
2023-08-12 14:30:47.964849,-85.0
2023-08-12 14:30:47.972539,-83.0
2023-08-12 14:30:47.980229,-88.0
2023-08-12 14:30:47.987919,-95.0
2023-08-12 14:30:47.995609,-99.0
2023-08-12 14:30:48.003299,-97.0
2023-08-12 14:30:48.010989,-95.0
2023-08-12 14:30:48.018679,-95.0
2023-08-12 14:30:48.026369,-95.0
2023-08-12 14:30:48.034059,-92.0
2023-08-12 14:30:48.041749,-92.0
2023-08-12 14:30:48.049439,-92.0
2023-08-12 14:30:48.057129,-85.0
2023-08-12 14:30:48.064819,-80.0
2023-08-12 14:30:48.072509,-88.0
2023-08-12 14:30:48.080199,-90.0
2023-08-12 14:30:48.087889,-80.0
2023-08-12 14:30:48.095579,-76.0
2023-08-12 14:30:48.103269,-80.0
2023-08-12 14:30:48.110958,-78.0
2023-08-12 14:30:48.118648,-76.0
2023-08-12 14:30:48.126338,-71.0
2023-08-12 14:30:48.134028,-73.0
2023-08-12 14:30:48.141718,-73.0
2023-08-12 14:30:48.149408,-69.0
2023-08-12 14:30:48.157098,-64.0
2023-08-12 14:30:48.164788,-64.0
2023-08-12 14:30:48.172478,-64.0
2023-08-12 14:30:48.180168,-57.0
2023-08-12 14:30:48.187858,-54.0
2023-08-12 14:30:48.195548,-59.0
2023-08-12 14:30:48.203238,-61.0
2023-08-12 14:30:48.210928,-45.0
2023-08-12 14:30:48.218618,-28.0
2023-08-12 14:30:48.226308,-30.0
2023-08-12 14:30:48.233998,-26.0
2023-08-12 14:30:48.241688,-30.0
2023-08-12 14:30:48.249378,-49.0
2023-08-12 14:30:48.257068,-54.0
2023-08-12 14:30:48.264758,-54.0
2023-08-12 14:30:48.272448,-66.0
2023-08-12 14:30:48.280138,-78.0
2023-08-12 14:30:48.287828,-83.0
2023-08-12 14:30:48.295518,-83.0
2023-08-12 14:30:48.303208,-76.0
2023-08-12 14:30:48.310898,-66.0
2023-08-12 14:30:48.318588,-66.0
2023-08-12 14:30:48.326278,-69.0
2023-08-12 14:30:48.333968,-23.0
2023-08-12 14:30:48.341657,145.0
2023-08-12 14:30:48.349347,411.0
2023-08-12 14:30:48.357037,540.0
2023-08-12 14:30:48.364727,328.0
2023-08-12 14:30:48.372417,-49.0
2023-08-12 14:30:48.380107,-199.0
2023-08-12 14:30:48.387797,-152.0
2023-08-12 14:30:48.395487,-149.0
2023-08-12 14:30:48.403177,-138.0
2023-08-12 14:30:48.410867,-78.0
2023-08-12 14:30:48.418557,-66.0
2023-08-12 14:30:48.426247,-83.0
2023-08-12 14:30:48.433937,-83.0
2023-08-12 14:30:48.441627,-76.0
2023-08-12 14:30:48.449317,-66.0
2023-08-12 14:30:48.457007,-52.0
2023-08-12 14:30:48.464697,-49.0
2023-08-12 14:30:48.472387,-49.0
2023-08-12 14:30:48.480077,-40.0
2023-08-12 14:30:48.487767,-33.0
2023-08-12 14:30:48.495457,-23.0
2023-08-12 14:30:48.503147,-11.0
2023-08-12 14:30:48.510837,-2.0
2023-08-12 14:30:48.518527,9.0
2023-08-12 14:30:48.526217,23.0
2023-08-12 14:30:48.533907,38.0
2023-08-12 14:30:48.541597,45.0
2023-08-12 14:30:48.549287,61.0
2023-08-12 14:30:48.556977,85.0
2023-08-12 14:30:48.564666,97.0
2023-08-12 14:30:48.572356,92.0
2023-08-12 14:30:48.580046,85.0
2023-08-12 14:30:48.587736,83.0
2023-08-12 14:30:48.595426,66.0
2023-08-12 14:30:48.603116,33.0
2023-08-12 14:30:48.610806,-2.0
2023-08-12 14:30:48.618496,-40.0
2023-08-12 14:30:48.626186,-78.0
2023-08-12 14:30:48.633876,-99.0
2023-08-12 14:30:48.641566,-116.0
2023-08-12 14:30:48.649256,-128.0
2023-08-12 14:30:48.656946,-135.0
2023-08-12 14:30:48.664636,-133.0
2023-08-12 14:30:48.672326,-126.0
2023-08-12 14:30:48.680016,-121.0
2023-08-12 14:30:48.687706,-114.0
2023-08-12 14:30:48.695396,-111.0
2023-08-12 14:30:48.703086,-111.0
2023-08-12 14:30:48.710776,-111.0
2023-08-12 14:30:48.718466,-107.0
2023-08-12 14:30:48.726156,-104.0
2023-08-12 14:30:48.733846,-99.0
2023-08-12 14:30:48.741536,-97.0
2023-08-12 14:30:48.749226,-102.0
2023-08-12 14:30:48.756916,-99.0
2023-08-12 14:30:48.764606,-90.0
2023-08-12 14:30:48.772296,-85.0
2023-08-12 14:30:48.779986,-85.0
2023-08-12 14:30:48.787675,-80.0
2023-08-12 14:30:48.795365,-83.0
2023-08-12 14:30:48.803055,-85.0
2023-08-12 14:30:48.810745,-80.0
2023-08-12 14:30:48.818435,-76.0
2023-08-12 14:30:48.826125,-76.0
2023-08-12 14:30:48.833815,-78.0
2023-08-12 14:30:48.841505,-76.0
2023-08-12 14:30:48.849195,-76.0
2023-08-12 14:30:48.856885,-78.0
2023-08-12 14:30:48.864575,-80.0
2023-08-12 14:30:48.872265,-76.0
2023-08-12 14:30:48.879955,-76.0
2023-08-12 14:30:48.887645,-78.0
2023-08-12 14:30:48.895335,-78.0
2023-08-12 14:30:48.903025,-78.0
2023-08-12 14:30:48.910715,-73.0
2023-08-12 14:30:48.918405,-66.0
2023-08-12 14:30:48.926095,-66.0
2023-08-12 14:30:48.933785,-69.0
2023-08-12 14:30:48.941475,-73.0
2023-08-12 14:30:48.949165,-73.0
2023-08-12 14:30:48.956855,-73.0
2023-08-12 14:30:48.964545,-73.0
2023-08-12 14:30:48.972235,-80.0
2023-08-12 14:30:48.979925,-88.0
2023-08-12 14:30:48.987615,-88.0
2023-08-12 14:30:48.995305,-88.0
2023-08-12 14:30:49.002995,-90.0
2023-08-12 14:30:49.010684,-85.0
2023-08-12 14:30:49.018374,-80.0
2023-08-12 14:30:49.026064,-83.0
2023-08-12 14:30:49.033754,-83.0
2023-08-12 14:30:49.041444,-83.0
2023-08-12 14:30:49.049134,-80.0
2023-08-12 14:30:49.056824,-76.0
2023-08-12 14:30:49.064514,-73.0
2023-08-12 14:30:49.072204,-71.0
2023-08-12 14:30:49.079894,-71.0
2023-08-12 14:30:49.087584,-69.0
2023-08-12 14:30:49.095274,-59.0
2023-08-12 14:30:49.102964,-47.0
2023-08-12 14:30:49.110654,-40.0
2023-08-12 14:30:49.118344,-38.0
2023-08-12 14:30:49.126034,-45.0
2023-08-12 14:30:49.133724,-54.0
2023-08-12 14:30:49.141414,-59.0
2023-08-12 14:30:49.149104,-66.0
2023-08-12 14:30:49.156794,-80.0
2023-08-12 14:30:49.164484,-85.0
2023-08-12 14:30:49.172174,-85.0
2023-08-12 14:30:49.179864,-83.0
2023-08-12 14:30:49.187554,-78.0
2023-08-12 14:30:49.195244,-73.0
2023-08-12 14:30:49.202934,-78.0
2023-08-12 14:30:49.210624,-42.0
2023-08-12 14:30:49.218314,111.0
2023-08-12 14:30:49.226004,371.0
2023-08-12 14:30:49.233694,535.0
2023-08-12 14:30:49.241383,366.0
2023-08-12 14:30:49.249073,-26.0
2023-08-12 14:30:49.256763,-226.0
2023-08-12 14:30:49.264453,-178.0
2023-08-12 14:30:49.272143,-164.0
2023-08-12 14:30:49.279833,-171.0
2023-08-12 14:30:49.287523,-107.0
2023-08-12 14:30:49.295213,-80.0
2023-08-12 14:30:49.302903,-99.0
2023-08-12 14:30:49.310593,-92.0
2023-08-12 14:30:49.318283,-73.0
2023-08-12 14:30:49.325973,-76.0
2023-08-12 14:30:49.333663,-69.0
2023-08-12 14:30:49.341353,-54.0
2023-08-12 14:30:49.349043,-52.0
2023-08-12 14:30:49.356733,-52.0
2023-08-12 14:30:49.364423,-38.0
2023-08-12 14:30:49.372113,-23.0
2023-08-12 14:30:49.379803,-21.0
2023-08-12 14:30:49.387493,-14.0
2023-08-12 14:30:49.395183,2.0
2023-08-12 14:30:49.402873,19.0
2023-08-12 14:30:49.410563,33.0
2023-08-12 14:30:49.418253,45.0
2023-08-12 14:30:49.425943,61.0
2023-08-12 14:30:49.433633,80.0
2023-08-12 14:30:49.441323,90.0
2023-08-12 14:30:49.449013,92.0
2023-08-12 14:30:49.456703,95.0
2023-08-12 14:30:49.464392,85.0
2023-08-12 14:30:49.472082,64.0
2023-08-12 14:30:49.479772,38.0
2023-08-12 14:30:49.487462,4.0
2023-08-12 14:30:49.495152,-40.0
2023-08-12 14:30:49.502842,-85.0
2023-08-12 14:30:49.510532,-116.0
2023-08-12 14:30:49.518222,-135.0
2023-08-12 14:30:49.525912,-152.0
2023-08-12 14:30:49.533602,-159.0
2023-08-12 14:30:49.541292,-159.0
2023-08-12 14:30:49.548982,-149.0
2023-08-12 14:30:49.556672,-147.0
2023-08-12 14:30:49.564362,-147.0
2023-08-12 14:30:49.572052,-140.0
2023-08-12 14:30:49.579742,-135.0
2023-08-12 14:30:49.587432,-130.0
2023-08-12 14:30:49.595122,-128.0
2023-08-12 14:30:49.602812,-123.0
2023-08-12 14:30:49.610502,-116.0
2023-08-12 14:30:49.618192,-116.0
2023-08-12 14:30:49.625882,-119.0
2023-08-12 14:30:49.633572,-111.0
2023-08-12 14:30:49.641262,-104.0
2023-08-12 14:30:49.648952,-109.0
2023-08-12 14:30:49.656642,-104.0
2023-08-12 14:30:49.664332,-90.0
2023-08-12 14:30:49.672022,-90.0
2023-08-12 14:30:49.679712,-92.0
2023-08-12 14:30:49.687401,-90.0
2023-08-12 14:30:49.695091,-92.0
2023-08-12 14:30:49.702781,-95.0
2023-08-12 14:30:49.710471,-92.0
2023-08-12 14:30:49.718161,-85.0
2023-08-12 14:30:49.725851,-85.0
2023-08-12 14:30:49.733541,-88.0
2023-08-12 14:30:49.741231,-90.0
2023-08-12 14:30:49.748921,-88.0
2023-08-12 14:30:49.756611,-92.0
2023-08-12 14:30:49.764301,-97.0
2023-08-12 14:30:49.771991,-90.0
2023-08-12 14:30:49.779681,-90.0
2023-08-12 14:30:49.787371,-97.0
2023-08-12 14:30:49.795061,-92.0
2023-08-12 14:30:49.802751,-90.0
2023-08-12 14:30:49.810441,-88.0
2023-08-12 14:30:49.818131,-83.0
2023-08-12 14:30:49.825821,-85.0
2023-08-12 14:30:49.833511,-92.0
2023-08-12 14:30:49.841201,-90.0
2023-08-12 14:30:49.848891,-78.0
2023-08-12 14:30:49.856581,-76.0
2023-08-12 14:30:49.864271,-80.0
2023-08-12 14:30:49.871961,-90.0
2023-08-12 14:30:49.879651,-90.0
2023-08-12 14:30:49.887341,-78.0
2023-08-12 14:30:49.895031,-73.0
2023-08-12 14:30:49.902721,-76.0
2023-08-12 14:30:49.910410,-80.0
2023-08-12 14:30:49.918100,-85.0
2023-08-12 14:30:49.925790,-78.0
2023-08-12 14:30:49.933480,-64.0
2023-08-12 14:30:49.941170,-64.0
2023-08-12 14:30:49.948860,-61.0
2023-08-12 14:30:49.956550,-54.0
2023-08-12 14:30:49.964240,-47.0
2023-08-12 14:30:49.971930,-49.0
2023-08-12 14:30:49.979620,-59.0
2023-08-12 14:30:49.987310,-64.0
2023-08-12 14:30:49.995000,-61.0
2023-08-12 14:30:50.002690,-64.0
2023-08-12 14:30:50.010380,-80.0
2023-08-12 14:30:50.018070,-90.0
2023-08-12 14:30:50.025760,-95.0
2023-08-12 14:30:50.033450,-102.0
2023-08-12 14:30:50.041140,-99.0
2023-08-12 14:30:50.048830,-95.0
2023-08-12 14:30:50.056520,-102.0
2023-08-12 14:30:50.064210,-109.0
2023-08-12 14:30:50.071900,-90.0
2023-08-12 14:30:50.079590,11.0
2023-08-12 14:30:50.087280,264.0
2023-08-12 14:30:50.094970,530.0
2023-08-12 14:30:50.102660,495.0
2023-08-12 14:30:50.110350,97.0
2023-08-12 14:30:50.118040,-228.0
2023-08-12 14:30:50.125730,-228.0
2023-08-12 14:30:50.133420,-180.0
2023-08-12 14:30:50.141109,-211.0
2023-08-12 14:30:50.148799,-164.0
2023-08-12 14:30:50.156489,-97.0
2023-08-12 14:30:50.164179,-107.0
2023-08-12 14:30:50.171869,-114.0
2023-08-12 14:30:50.179559,-92.0
2023-08-12 14:30:50.187249,-85.0
2023-08-12 14:30:50.194939,-85.0
2023-08-12 14:30:50.202629,-73.0
2023-08-12 14:30:50.210319,-64.0
2023-08-12 14:30:50.218009,-57.0
2023-08-12 14:30:50.225699,-49.0
2023-08-12 14:30:50.233389,-47.0
2023-08-12 14:30:50.241079,-40.0
2023-08-12 14:30:50.248769,-26.0
2023-08-12 14:30:50.256459,-14.0
2023-08-12 14:30:50.264149,-7.0
2023-08-12 14:30:50.271839,4.0
2023-08-12 14:30:50.279529,21.0
2023-08-12 14:30:50.287219,40.0
2023-08-12 14:30:50.294909,59.0
2023-08-12 14:30:50.302599,73.0
2023-08-12 14:30:50.310289,80.0
2023-08-12 14:30:50.317979,80.0
2023-08-12 14:30:50.325669,78.0
2023-08-12 14:30:50.333359,64.0
2023-08-12 14:30:50.341049,40.0
2023-08-12 14:30:50.348739,11.0
2023-08-12 14:30:50.356429,-21.0
2023-08-12 14:30:50.364118,-73.0
2023-08-12 14:30:50.371808,-114.0
2023-08-12 14:30:50.379498,-128.0
2023-08-12 14:30:50.387188,-140.0
2023-08-12 14:30:50.394878,-149.0
2023-08-12 14:30:50.402568,-149.0
2023-08-12 14:30:50.410258,-145.0
2023-08-12 14:30:50.417948,-145.0
2023-08-12 14:30:50.425638,-149.0
2023-08-12 14:30:50.433328,-140.0
2023-08-12 14:30:50.441018,-130.0
2023-08-12 14:30:50.448708,-123.0
2023-08-12 14:30:50.456398,-123.0
2023-08-12 14:30:50.464088,-123.0
2023-08-12 14:30:50.471778,-121.0
2023-08-12 14:30:50.479468,-119.0
2023-08-12 14:30:50.487158,-109.0
2023-08-12 14:30:50.494848,-97.0
2023-08-12 14:30:50.502538,-97.0
2023-08-12 14:30:50.510228,-102.0
2023-08-12 14:30:50.517918,-99.0
2023-08-12 14:30:50.525608,-92.0
2023-08-12 14:30:50.533298,-90.0
2023-08-12 14:30:50.540988,-90.0
2023-08-12 14:30:50.548678,-88.0
2023-08-12 14:30:50.556368,-85.0
2023-08-12 14:30:50.564058,-85.0
2023-08-12 14:30:50.571748,-85.0
2023-08-12 14:30:50.579438,-78.0
2023-08-12 14:30:50.587127,-80.0
2023-08-12 14:30:50.594817,-90.0
2023-08-12 14:30:50.602507,-88.0
2023-08-12 14:30:50.610197,-80.0
2023-08-12 14:30:50.617887,-83.0
2023-08-12 14:30:50.625577,-85.0
2023-08-12 14:30:50.633267,-83.0
2023-08-12 14:30:50.640957,-85.0
2023-08-12 14:30:50.648647,-90.0
2023-08-12 14:30:50.656337,-83.0
2023-08-12 14:30:50.664027,-78.0
2023-08-12 14:30:50.671717,-80.0
2023-08-12 14:30:50.679407,-85.0
2023-08-12 14:30:50.687097,-92.0
2023-08-12 14:30:50.694787,-97.0
2023-08-12 14:30:50.702477,-85.0
2023-08-12 14:30:50.710167,-76.0
2023-08-12 14:30:50.717857,-78.0
2023-08-12 14:30:50.725547,-88.0
2023-08-12 14:30:50.733237,-88.0
2023-08-12 14:30:50.740927,-88.0
2023-08-12 14:30:50.748617,-92.0
2023-08-12 14:30:50.756307,-83.0
2023-08-12 14:30:50.763997,-73.0
2023-08-12 14:30:50.771687,-83.0
2023-08-12 14:30:50.779377,-90.0
2023-08-12 14:30:50.787067,-83.0
2023-08-12 14:30:50.794757,-78.0
2023-08-12 14:30:50.802447,-80.0
2023-08-12 14:30:50.810136,-78.0
2023-08-12 14:30:50.817826,-76.0
2023-08-12 14:30:50.825516,-69.0
2023-08-12 14:30:50.833206,-69.0
2023-08-12 14:30:50.840896,-73.0
2023-08-12 14:30:50.848586,-71.0
2023-08-12 14:30:50.856276,-64.0
2023-08-12 14:30:50.863966,-64.0
2023-08-12 14:30:50.871656,-71.0
2023-08-12 14:30:50.879346,-71.0
2023-08-12 14:30:50.887036,-64.0
2023-08-12 14:30:50.894726,-61.0
2023-08-12 14:30:50.902416,-54.0
2023-08-12 14:30:50.910106,-45.0
2023-08-12 14:30:50.917796,-40.0
2023-08-12 14:30:50.925486,-35.0
2023-08-12 14:30:50.933176,-35.0
2023-08-12 14:30:50.940866,-47.0
2023-08-12 14:30:50.948556,-54.0
2023-08-12 14:30:50.956246,-52.0
2023-08-12 14:30:50.963936,-61.0
2023-08-12 14:30:50.971626,-76.0
2023-08-12 14:30:50.979316,-85.0
2023-08-12 14:30:50.987006,-78.0
2023-08-12 14:30:50.994696,-69.0
2023-08-12 14:30:51.002386,-71.0
2023-08-12 14:30:51.010076,-76.0
2023-08-12 14:30:51.017766,-71.0
2023-08-12 14:30:51.025456,-28.0
2023-08-12 14:30:51.033146,128.0
2023-08-12 14:30:51.040835,390.0
2023-08-12 14:30:51.048525,554.0
2023-08-12 14:30:51.056215,392.0
2023-08-12 14:30:51.063905,7.0
2023-08-12 14:30:51.071595,-202.0
2023-08-12 14:30:51.079285,-166.0
2023-08-12 14:30:51.086975,-147.0
2023-08-12 14:30:51.094665,-142.0
2023-08-12 14:30:51.102355,-88.0
2023-08-12 14:30:51.110045,-76.0
2023-08-12 14:30:51.117735,-95.0
2023-08-12 14:30:51.125425,-78.0
2023-08-12 14:30:51.133115,-61.0
2023-08-12 14:30:51.140805,-64.0
2023-08-12 14:30:51.148495,-57.0
2023-08-12 14:30:51.156185,-45.0
2023-08-12 14:30:51.163875,-47.0
2023-08-12 14:30:51.171565,-45.0
2023-08-12 14:30:51.179255,-35.0
2023-08-12 14:30:51.186945,-26.0
2023-08-12 14:30:51.194635,-16.0
2023-08-12 14:30:51.202325,-9.0
2023-08-12 14:30:51.210015,0.0
2023-08-12 14:30:51.217705,14.0
2023-08-12 14:30:51.225395,23.0
2023-08-12 14:30:51.233085,33.0
2023-08-12 14:30:51.240775,49.0
2023-08-12 14:30:51.248465,64.0
2023-08-12 14:30:51.256155,76.0
2023-08-12 14:30:51.263844,88.0
2023-08-12 14:30:51.271534,83.0
2023-08-12 14:30:51.279224,69.0
2023-08-12 14:30:51.286914,52.0
2023-08-12 14:30:51.294604,33.0
2023-08-12 14:30:51.302294,4.0
2023-08-12 14:30:51.309984,-33.0
2023-08-12 14:30:51.317674,-76.0
2023-08-12 14:30:51.325364,-104.0
2023-08-12 14:30:51.333054,-114.0
2023-08-12 14:30:51.340744,-123.0
2023-08-12 14:30:51.348434,-133.0
2023-08-12 14:30:51.356124,-133.0
2023-08-12 14:30:51.363814,-130.0
2023-08-12 14:30:51.371504,-128.0
2023-08-12 14:30:51.379194,-123.0
2023-08-12 14:30:51.386884,-119.0
2023-08-12 14:30:51.394574,-111.0
2023-08-12 14:30:51.402264,-104.0
2023-08-12 14:30:51.409954,-104.0
2023-08-12 14:30:51.417644,-104.0
2023-08-12 14:30:51.425334,-102.0
2023-08-12 14:30:51.433024,-99.0
2023-08-12 14:30:51.440714,-92.0
2023-08-12 14:30:51.448404,-85.0
2023-08-12 14:30:51.456094,-92.0
2023-08-12 14:30:51.463784,-95.0
2023-08-12 14:30:51.471474,-85.0
2023-08-12 14:30:51.479164,-78.0
2023-08-12 14:30:51.486853,-83.0
2023-08-12 14:30:51.494543,-85.0
2023-08-12 14:30:51.502233,-80.0
2023-08-12 14:30:51.509923,-78.0
2023-08-12 14:30:51.517613,-78.0
2023-08-12 14:30:51.525303,-76.0
2023-08-12 14:30:51.532993,-73.0
2023-08-12 14:30:51.540683,-73.0
2023-08-12 14:30:51.548373,-76.0
2023-08-12 14:30:51.556063,-78.0
2023-08-12 14:30:51.563753,-78.0
2023-08-12 14:30:51.571443,-78.0
2023-08-12 14:30:51.579133,-73.0
2023-08-12 14:30:51.586823,-73.0
2023-08-12 14:30:51.594513,-80.0
2023-08-12 14:30:51.602203,-80.0
2023-08-12 14:30:51.609893,-76.0
2023-08-12 14:30:51.617583,-78.0
2023-08-12 14:30:51.625273,-80.0
2023-08-12 14:30:51.632963,-80.0
2023-08-12 14:30:51.640653,-83.0
2023-08-12 14:30:51.648343,-73.0
2023-08-12 14:30:51.656033,-64.0
2023-08-12 14:30:51.663723,-69.0
2023-08-12 14:30:51.671413,-80.0
2023-08-12 14:30:51.679103,-76.0
2023-08-12 14:30:51.686793,-71.0
2023-08-12 14:30:51.694483,-73.0
2023-08-12 14:30:51.702173,-76.0
2023-08-12 14:30:51.709862,-73.0
2023-08-12 14:30:51.717552,-73.0
2023-08-12 14:30:51.725242,-76.0
2023-08-12 14:30:51.732932,-76.0
2023-08-12 14:30:51.740622,-71.0
2023-08-12 14:30:51.748312,-73.0
2023-08-12 14:30:51.756002,-83.0
2023-08-12 14:30:51.763692,-95.0
2023-08-12 14:30:51.771382,-97.0
2023-08-12 14:30:51.779072,-95.0
2023-08-12 14:30:51.786762,-97.0
2023-08-12 14:30:51.794452,-95.0
2023-08-12 14:30:51.802142,-92.0
2023-08-12 14:30:51.809832,-109.0
2023-08-12 14:30:51.817522,-111.0
2023-08-12 14:30:51.825212,-95.0
2023-08-12 14:30:51.832902,-83.0
2023-08-12 14:30:51.840592,-85.0
2023-08-12 14:30:51.848282,-85.0
2023-08-12 14:30:51.855972,-92.0
2023-08-12 14:30:51.863662,-88.0
2023-08-12 14:30:51.871352,-71.0
2023-08-12 14:30:51.879042,-61.0
2023-08-12 14:30:51.886732,-64.0
2023-08-12 14:30:51.894422,-69.0
2023-08-12 14:30:51.902112,-73.0
2023-08-12 14:30:51.909802,-80.0
2023-08-12 14:30:51.917492,-88.0
2023-08-12 14:30:51.925182,-97.0
2023-08-12 14:30:51.932872,-104.0
2023-08-12 14:30:51.940561,-102.0
2023-08-12 14:30:51.948251,-97.0
2023-08-12 14:30:51.955941,-92.0
2023-08-12 14:30:51.963631,-88.0
2023-08-12 14:30:51.971321,-90.0
2023-08-12 14:30:51.979011,-49.0
2023-08-12 14:30:51.986701,128.0
2023-08-12 14:30:51.994391,418.0
2023-08-12 14:30:52.002081,576.0
2023-08-12 14:30:52.009771,357.0
2023-08-12 14:30:52.017461,-64.0
2023-08-12 14:30:52.025151,-245.0
2023-08-12 14:30:52.032841,-188.0
2023-08-12 14:30:52.040531,-185.0
2023-08-12 14:30:52.048221,-190.0
2023-08-12 14:30:52.055911,-119.0
2023-08-12 14:30:52.063601,-95.0
2023-08-12 14:30:52.071291,-111.0
2023-08-12 14:30:52.078981,-99.0
2023-08-12 14:30:52.086671,-90.0
2023-08-12 14:30:52.094361,-95.0
2023-08-12 14:30:52.102051,-76.0
2023-08-12 14:30:52.109741,-57.0
2023-08-12 14:30:52.117431,-61.0
2023-08-12 14:30:52.125121,-59.0
2023-08-12 14:30:52.132811,-47.0
2023-08-12 14:30:52.140501,-42.0
2023-08-12 14:30:52.148191,-33.0
2023-08-12 14:30:52.155881,-14.0
2023-08-12 14:30:52.163570,2.0
2023-08-12 14:30:52.171260,11.0
2023-08-12 14:30:52.178950,23.0
2023-08-12 14:30:52.186640,40.0
2023-08-12 14:30:52.194330,54.0
2023-08-12 14:30:52.202020,73.0
2023-08-12 14:30:52.209710,90.0
2023-08-12 14:30:52.217400,90.0
2023-08-12 14:30:52.225090,83.0
2023-08-12 14:30:52.232780,78.0
2023-08-12 14:30:52.240470,66.0
2023-08-12 14:30:52.248160,38.0
2023-08-12 14:30:52.255850,4.0
2023-08-12 14:30:52.263540,-35.0
2023-08-12 14:30:52.271230,-83.0
2023-08-12 14:30:52.278920,-114.0
2023-08-12 14:30:52.286610,-128.0
2023-08-12 14:30:52.294300,-145.0
2023-08-12 14:30:52.301990,-159.0
2023-08-12 14:30:52.309680,-157.0
2023-08-12 14:30:52.317370,-147.0
2023-08-12 14:30:52.325060,-145.0
2023-08-12 14:30:52.332750,-149.0
2023-08-12 14:30:52.340440,-145.0
2023-08-12 14:30:52.348130,-142.0
2023-08-12 14:30:52.355820,-142.0
2023-08-12 14:30:52.363510,-135.0
2023-08-12 14:30:52.371200,-130.0
2023-08-12 14:30:52.378890,-126.0
2023-08-12 14:30:52.386579,-119.0
2023-08-12 14:30:52.394269,-119.0
2023-08-12 14:30:52.401959,-119.0
2023-08-12 14:30:52.409649,-109.0
2023-08-12 14:30:52.417339,-102.0
2023-08-12 14:30:52.425029,-104.0
2023-08-12 14:30:52.432719,-99.0
2023-08-12 14:30:52.440409,-97.0
2023-08-12 14:30:52.448099,-102.0
2023-08-12 14:30:52.455789,-99.0
2023-08-12 14:30:52.463479,-97.0
2023-08-12 14:30:52.471169,-95.0
2023-08-12 14:30:52.478859,-97.0
2023-08-12 14:30:52.486549,-102.0
2023-08-12 14:30:52.494239,-104.0
2023-08-12 14:30:52.501929,-107.0
2023-08-12 14:30:52.509619,-114.0
2023-08-12 14:30:52.517309,-107.0
2023-08-12 14:30:52.524999,-102.0
2023-08-12 14:30:52.532689,-107.0
2023-08-12 14:30:52.540379,-104.0
2023-08-12 14:30:52.548069,-99.0
2023-08-12 14:30:52.555759,-97.0
2023-08-12 14:30:52.563449,-97.0
2023-08-12 14:30:52.571139,-97.0
2023-08-12 14:30:52.578829,-97.0
2023-08-12 14:30:52.586519,-88.0
2023-08-12 14:30:52.594209,-83.0
2023-08-12 14:30:52.601899,-88.0
2023-08-12 14:30:52.609588,-88.0
2023-08-12 14:30:52.617278,-90.0
2023-08-12 14:30:52.624968,-92.0
2023-08-12 14:30:52.632658,-90.0
2023-08-12 14:30:52.640348,-88.0
2023-08-12 14:30:52.648038,-92.0
2023-08-12 14:30:52.655728,-92.0
2023-08-12 14:30:52.663418,-90.0
2023-08-12 14:30:52.671108,-90.0
2023-08-12 14:30:52.678798,-88.0
2023-08-12 14:30:52.686488,-88.0
2023-08-12 14:30:52.694178,-88.0
2023-08-12 14:30:52.701868,-83.0
2023-08-12 14:30:52.709558,-83.0
2023-08-12 14:30:52.717248,-73.0
2023-08-12 14:30:52.724938,-59.0
2023-08-12 14:30:52.732628,-54.0
2023-08-12 14:30:52.740318,-59.0
2023-08-12 14:30:52.748008,-64.0
2023-08-12 14:30:52.755698,-66.0
2023-08-12 14:30:52.763388,-64.0
2023-08-12 14:30:52.771078,-73.0
2023-08-12 14:30:52.778768,-88.0
2023-08-12 14:30:52.786458,-92.0
2023-08-12 14:30:52.794148,-95.0
2023-08-12 14:30:52.801838,-95.0
2023-08-12 14:30:52.809528,-90.0
2023-08-12 14:30:52.817218,-85.0
2023-08-12 14:30:52.824908,-90.0
2023-08-12 14:30:52.832598,-90.0
2023-08-12 14:30:52.840287,-4.0
2023-08-12 14:30:52.847977,240.0
2023-08-12 14:30:52.855667,533.0
2023-08-12 14:30:52.863357,571.0
2023-08-12 14:30:52.871047,226.0
2023-08-12 14:30:52.878737,-157.0
2023-08-12 14:30:52.886427,-240.0
2023-08-12 14:30:52.894117,-195.0
2023-08-12 14:30:52.901807,-202.0
2023-08-12 14:30:52.909497,-159.0
2023-08-12 14:30:52.917187,-97.0
2023-08-12 14:30:52.924877,-107.0
2023-08-12 14:30:52.932567,-116.0
2023-08-12 14:30:52.940257,-95.0
2023-08-12 14:30:52.947947,-90.0
2023-08-12 14:30:52.955637,-88.0
2023-08-12 14:30:52.963327,-76.0
2023-08-12 14:30:52.971017,-71.0
2023-08-12 14:30:52.978707,-73.0
2023-08-12 14:30:52.986397,-71.0
2023-08-12 14:30:52.994087,-54.0
2023-08-12 14:30:53.001777,-45.0
2023-08-12 14:30:53.009467,-47.0
2023-08-12 14:30:53.017157,-40.0
2023-08-12 14:30:53.024847,-14.0
2023-08-12 14:30:53.032537,2.0
2023-08-12 14:30:53.040227,14.0
2023-08-12 14:30:53.047917,38.0
2023-08-12 14:30:53.055607,54.0
2023-08-12 14:30:53.063296,61.0
2023-08-12 14:30:53.070986,73.0
2023-08-12 14:30:53.078676,83.0
2023-08-12 14:30:53.086366,83.0
2023-08-12 14:30:53.094056,66.0
2023-08-12 14:30:53.101746,42.0
2023-08-12 14:30:53.109436,14.0
2023-08-12 14:30:53.117126,-26.0
2023-08-12 14:30:53.124816,-66.0
2023-08-12 14:30:53.132506,-97.0
2023-08-12 14:30:53.140196,-123.0
2023-08-12 14:30:53.147886,-142.0
2023-08-12 14:30:53.155576,-157.0
2023-08-12 14:30:53.163266,-159.0
2023-08-12 14:30:53.170956,-154.0
2023-08-12 14:30:53.178646,-149.0
2023-08-12 14:30:53.186336,-149.0
2023-08-12 14:30:53.194026,-142.0
2023-08-12 14:30:53.201716,-138.0
2023-08-12 14:30:53.209406,-140.0
2023-08-12 14:30:53.217096,-140.0
2023-08-12 14:30:53.224786,-126.0
2023-08-12 14:30:53.232476,-121.0
2023-08-12 14:30:53.240166,-119.0
2023-08-12 14:30:53.247856,-111.0
2023-08-12 14:30:53.255546,-104.0
2023-08-12 14:30:53.263236,-102.0
2023-08-12 14:30:53.270926,-102.0
2023-08-12 14:30:53.278616,-102.0
2023-08-12 14:30:53.286305,-104.0
2023-08-12 14:30:53.293995,-99.0
2023-08-12 14:30:53.301685,-92.0
2023-08-12 14:30:53.309375,-92.0
2023-08-12 14:30:53.317065,-102.0
2023-08-12 14:30:53.324755,-99.0
2023-08-12 14:30:53.332445,-90.0
2023-08-12 14:30:53.340135,-90.0
2023-08-12 14:30:53.347825,-95.0
2023-08-12 14:30:53.355515,-97.0
2023-08-12 14:30:53.363205,-92.0
2023-08-12 14:30:53.370895,-85.0
2023-08-12 14:30:53.378585,-83.0
2023-08-12 14:30:53.386275,-88.0
2023-08-12 14:30:53.393965,-88.0
2023-08-12 14:30:53.401655,-83.0
2023-08-12 14:30:53.409345,-83.0
2023-08-12 14:30:53.417035,-90.0
2023-08-12 14:30:53.424725,-95.0
2023-08-12 14:30:53.432415,-92.0
2023-08-12 14:30:53.440105,-80.0
2023-08-12 14:30:53.447795,-66.0
2023-08-12 14:30:53.455485,-71.0
2023-08-12 14:30:53.463175,-83.0
2023-08-12 14:30:53.470865,-90.0
2023-08-12 14:30:53.478555,-95.0
2023-08-12 14:30:53.486245,-95.0
2023-08-12 14:30:53.493935,-92.0
2023-08-12 14:30:53.501625,-90.0
2023-08-12 14:30:53.509314,-88.0
2023-08-12 14:30:53.517004,-92.0
2023-08-12 14:30:53.524694,-99.0
2023-08-12 14:30:53.532384,-92.0
2023-08-12 14:30:53.540074,-83.0
2023-08-12 14:30:53.547764,-85.0
2023-08-12 14:30:53.555454,-88.0
2023-08-12 14:30:53.563144,-88.0
2023-08-12 14:30:53.570834,-83.0
2023-08-12 14:30:53.578524,-73.0
2023-08-12 14:30:53.586214,-73.0
2023-08-12 14:30:53.593904,-73.0
2023-08-12 14:30:53.601594,-64.0
2023-08-12 14:30:53.609284,-54.0
2023-08-12 14:30:53.616974,-47.0
2023-08-12 14:30:53.624664,-40.0
2023-08-12 14:30:53.632354,-40.0
2023-08-12 14:30:53.640044,-49.0
2023-08-12 14:30:53.647734,-54.0
2023-08-12 14:30:53.655424,-61.0
2023-08-12 14:30:53.663114,-71.0
2023-08-12 14:30:53.670804,-80.0
2023-08-12 14:30:53.678494,-90.0
2023-08-12 14:30:53.686184,-90.0
2023-08-12 14:30:53.693874,-80.0
2023-08-12 14:30:53.701564,-73.0
2023-08-12 14:30:53.709254,-78.0
2023-08-12 14:30:53.716944,-76.0
2023-08-12 14:30:53.724634,0.0
2023-08-12 14:30:53.732324,216.0
2023-08-12 14:30:53.740013,499.0
2023-08-12 14:30:53.747703,578.0
2023-08-12 14:30:53.755393,292.0
2023-08-12 14:30:53.763083,-102.0
2023-08-12 14:30:53.770773,-228.0
2023-08-12 14:30:53.778463,-171.0
2023-08-12 14:30:53.786153,-164.0
2023-08-12 14:30:53.793843,-140.0
2023-08-12 14:30:53.801533,-85.0
2023-08-12 14:30:53.809223,-88.0
2023-08-12 14:30:53.816913,-97.0
2023-08-12 14:30:53.824603,-78.0
2023-08-12 14:30:53.832293,-76.0
2023-08-12 14:30:53.839983,-73.0
2023-08-12 14:30:53.847673,-52.0
2023-08-12 14:30:53.855363,-42.0
2023-08-12 14:30:53.863053,-45.0
2023-08-12 14:30:53.870743,-33.0
2023-08-12 14:30:53.878433,-21.0
2023-08-12 14:30:53.886123,-19.0
2023-08-12 14:30:53.893813,-11.0
2023-08-12 14:30:53.901503,2.0
2023-08-12 14:30:53.909193,11.0
2023-08-12 14:30:53.916883,26.0
2023-08-12 14:30:53.924573,42.0
2023-08-12 14:30:53.932263,54.0
2023-08-12 14:30:53.939953,69.0
2023-08-12 14:30:53.947643,88.0
2023-08-12 14:30:53.955333,99.0
2023-08-12 14:30:53.963022,97.0
2023-08-12 14:30:53.970712,90.0
2023-08-12 14:30:53.978402,78.0
2023-08-12 14:30:53.986092,61.0
2023-08-12 14:30:53.993782,33.0
2023-08-12 14:30:54.001472,-7.0
2023-08-12 14:30:54.009162,-40.0
2023-08-12 14:30:54.016852,-78.0
2023-08-12 14:30:54.024542,-111.0
2023-08-12 14:30:54.032232,-123.0
2023-08-12 14:30:54.039922,-130.0
2023-08-12 14:30:54.047612,-138.0
2023-08-12 14:30:54.055302,-138.0
2023-08-12 14:30:54.062992,-142.0
2023-08-12 14:30:54.070682,-145.0
2023-08-12 14:30:54.078372,-130.0
2023-08-12 14:30:54.086062,-123.0
2023-08-12 14:30:54.093752,-121.0
2023-08-12 14:30:54.101442,-121.0
2023-08-12 14:30:54.109132,-114.0
2023-08-12 14:30:54.116822,-104.0
2023-08-12 14:30:54.124512,-102.0
2023-08-12 14:30:54.132202,-102.0
2023-08-12 14:30:54.139892,-102.0
2023-08-12 14:30:54.147582,-99.0
2023-08-12 14:30:54.155272,-99.0
2023-08-12 14:30:54.162962,-102.0
2023-08-12 14:30:54.170652,-97.0
2023-08-12 14:30:54.178342,-88.0
2023-08-12 14:30:54.186031,-88.0
2023-08-12 14:30:54.193721,-92.0
2023-08-12 14:30:54.201411,-90.0
2023-08-12 14:30:54.209101,-88.0
2023-08-12 14:30:54.216791,-90.0
2023-08-12 14:30:54.224481,-92.0
2023-08-12 14:30:54.232171,-88.0
2023-08-12 14:30:54.239861,-80.0
2023-08-12 14:30:54.247551,-78.0
2023-08-12 14:30:54.255241,-85.0
2023-08-12 14:30:54.262931,-85.0
2023-08-12 14:30:54.270621,-80.0
2023-08-12 14:30:54.278311,-83.0
2023-08-12 14:30:54.286001,-83.0
2023-08-12 14:30:54.293691,-78.0
2023-08-12 14:30:54.301381,-76.0
2023-08-12 14:30:54.309071,-80.0
2023-08-12 14:30:54.316761,-80.0
2023-08-12 14:30:54.324451,-83.0
2023-08-12 14:30:54.332141,-83.0
2023-08-12 14:30:54.339831,-78.0
2023-08-12 14:30:54.347521,-78.0
2023-08-12 14:30:54.355211,-78.0
2023-08-12 14:30:54.362901,-76.0
2023-08-12 14:30:54.370591,-73.0
2023-08-12 14:30:54.378281,-76.0
2023-08-12 14:30:54.385971,-76.0
2023-08-12 14:30:54.393661,-76.0
2023-08-12 14:30:54.401351,-69.0
2023-08-12 14:30:54.409041,-64.0
2023-08-12 14:30:54.416730,-69.0
2023-08-12 14:30:54.424420,-76.0
2023-08-12 14:30:54.432110,-71.0
2023-08-12 14:30:54.439800,-71.0
2023-08-12 14:30:54.447490,-73.0
2023-08-12 14:30:54.455180,-66.0
2023-08-12 14:30:54.462870,-61.0
2023-08-12 14:30:54.470560,-61.0
2023-08-12 14:30:54.478250,-59.0
2023-08-12 14:30:54.485940,-57.0
2023-08-12 14:30:54.493630,-52.0
2023-08-12 14:30:54.501320,-42.0
2023-08-12 14:30:54.509010,-35.0
2023-08-12 14:30:54.516700,-38.0
2023-08-12 14:30:54.524390,-42.0
2023-08-12 14:30:54.532080,-49.0
2023-08-12 14:30:54.539770,-49.0
2023-08-12 14:30:54.547460,-54.0
2023-08-12 14:30:54.555150,-69.0
2023-08-12 14:30:54.562840,-66.0
2023-08-12 14:30:54.570530,-69.0
2023-08-12 14:30:54.578220,-85.0
2023-08-12 14:30:54.585910,-85.0
2023-08-12 14:30:54.593600,-76.0
2023-08-12 14:30:54.601290,-78.0
2023-08-12 14:30:54.608980,-83.0
2023-08-12 14:30:54.616670,-71.0
2023-08-12 14:30:54.624360,11.0
2023-08-12 14:30:54.632050,230.0
2023-08-12 14:30:54.639739,499.0
2023-08-12 14:30:54.647429,549.0
2023-08-12 14:30:54.655119,249.0
2023-08-12 14:30:54.662809,-123.0
2023-08-12 14:30:54.670499,-218.0
2023-08-12 14:30:54.678189,-166.0
2023-08-12 14:30:54.685879,-171.0
2023-08-12 14:30:54.693569,-142.0
2023-08-12 14:30:54.701259,-83.0
2023-08-12 14:30:54.708949,-83.0
2023-08-12 14:30:54.716639,-92.0
2023-08-12 14:30:54.724329,-76.0
2023-08-12 14:30:54.732019,-71.0
2023-08-12 14:30:54.739709,-69.0
2023-08-12 14:30:54.747399,-54.0
2023-08-12 14:30:54.755089,-47.0
2023-08-12 14:30:54.762779,-47.0
2023-08-12 14:30:54.770469,-38.0
2023-08-12 14:30:54.778159,-26.0
2023-08-12 14:30:54.785849,-21.0
2023-08-12 14:30:54.793539,-16.0
2023-08-12 14:30:54.801229,-4.0
2023-08-12 14:30:54.808919,9.0
2023-08-12 14:30:54.816609,26.0
2023-08-12 14:30:54.824299,42.0
2023-08-12 14:30:54.831989,61.0
2023-08-12 14:30:54.839679,73.0
2023-08-12 14:30:54.847369,88.0
2023-08-12 14:30:54.855059,99.0
2023-08-12 14:30:54.862748,99.0
2023-08-12 14:30:54.870438,92.0
2023-08-12 14:30:54.878128,85.0
2023-08-12 14:30:54.885818,71.0
2023-08-12 14:30:54.893508,45.0
2023-08-12 14:30:54.901198,4.0
2023-08-12 14:30:54.908888,-47.0
2023-08-12 14:30:54.916578,-90.0
2023-08-12 14:30:54.924268,-114.0
2023-08-12 14:30:54.931958,-126.0
2023-08-12 14:30:54.939648,-138.0
2023-08-12 14:30:54.947338,-147.0
2023-08-12 14:30:54.955028,-145.0
2023-08-12 14:30:54.962718,-135.0
2023-08-12 14:30:54.970408,-133.0
2023-08-12 14:30:54.978098,-130.0
2023-08-12 14:30:54.985788,-126.0
2023-08-12 14:30:54.993478,-133.0
2023-08-12 14:30:55.001168,-123.0
2023-08-12 14:30:55.008858,-107.0
2023-08-12 14:30:55.016548,-116.0
2023-08-12 14:30:55.024238,-128.0
2023-08-12 14:30:55.031928,-109.0
2023-08-12 14:30:55.039618,-97.0
2023-08-12 14:30:55.047308,-109.0
2023-08-12 14:30:55.054998,-111.0
2023-08-12 14:30:55.062688,-99.0
2023-08-12 14:30:55.070378,-92.0
2023-08-12 14:30:55.078068,-97.0
2023-08-12 14:30:55.085757,-102.0
2023-08-12 14:30:55.093447,-102.0
2023-08-12 14:30:55.101137,-92.0
2023-08-12 14:30:55.108827,-88.0
2023-08-12 14:30:55.116517,-95.0
2023-08-12 14:30:55.124207,-97.0
2023-08-12 14:30:55.131897,-90.0
2023-08-12 14:30:55.139587,-97.0
2023-08-12 14:30:55.147277,-107.0
2023-08-12 14:30:55.154967,-109.0
2023-08-12 14:30:55.162657,-104.0
2023-08-12 14:30:55.170347,-104.0
2023-08-12 14:30:55.178037,-102.0
2023-08-12 14:30:55.185727,-102.0
2023-08-12 14:30:55.193417,-99.0
2023-08-12 14:30:55.201107,-99.0
2023-08-12 14:30:55.208797,-104.0
2023-08-12 14:30:55.216487,-109.0
2023-08-12 14:30:55.224177,-109.0
2023-08-12 14:30:55.231867,-95.0
2023-08-12 14:30:55.239557,-85.0
2023-08-12 14:30:55.247247,-92.0
2023-08-12 14:30:55.254937,-97.0
2023-08-12 14:30:55.262627,-92.0
2023-08-12 14:30:55.270317,-97.0
2023-08-12 14:30:55.278007,-90.0
2023-08-12 14:30:55.285697,-80.0
2023-08-12 14:30:55.293387,-88.0
2023-08-12 14:30:55.301077,-88.0
2023-08-12 14:30:55.308767,-78.0
2023-08-12 14:30:55.316456,-78.0
2023-08-12 14:30:55.324146,-73.0
2023-08-12 14:30:55.331836,-52.0
2023-08-12 14:30:55.339526,-40.0
2023-08-12 14:30:55.347216,-49.0
2023-08-12 14:30:55.354906,-59.0
2023-08-12 14:30:55.362596,-61.0
2023-08-12 14:30:55.370286,-59.0
2023-08-12 14:30:55.377976,-64.0
2023-08-12 14:30:55.385666,-76.0
2023-08-12 14:30:55.393356,-85.0
2023-08-12 14:30:55.401046,-92.0
2023-08-12 14:30:55.408736,-95.0
2023-08-12 14:30:55.416426,-90.0
2023-08-12 14:30:55.424116,-83.0
2023-08-12 14:30:55.431806,-85.0
2023-08-12 14:30:55.439496,-85.0
2023-08-12 14:30:55.447186,-19.0
2023-08-12 14:30:55.454876,188.0
2023-08-12 14:30:55.462566,487.0
2023-08-12 14:30:55.470256,595.0
2023-08-12 14:30:55.477946,285.0
2023-08-12 14:30:55.485636,-133.0
2023-08-12 14:30:55.493326,-230.0
2023-08-12 14:30:55.501016,-159.0
2023-08-12 14:30:55.508706,-185.0
2023-08-12 14:30:55.516396,-176.0
2023-08-12 14:30:55.524086,-97.0
2023-08-12 14:30:55.531776,-88.0
2023-08-12 14:30:55.539465,-109.0
2023-08-12 14:30:55.547155,-90.0
2023-08-12 14:30:55.554845,-73.0
2023-08-12 14:30:55.562535,-80.0
2023-08-12 14:30:55.570225,-71.0
2023-08-12 14:30:55.577915,-57.0
2023-08-12 14:30:55.585605,-57.0
2023-08-12 14:30:55.593295,-57.0
2023-08-12 14:30:55.600985,-40.0
2023-08-12 14:30:55.608675,-23.0
2023-08-12 14:30:55.616365,-23.0
2023-08-12 14:30:55.624055,-11.0
2023-08-12 14:30:55.631745,9.0
2023-08-12 14:30:55.639435,19.0
2023-08-12 14:30:55.647125,26.0
2023-08-12 14:30:55.654815,52.0
2023-08-12 14:30:55.662505,78.0
2023-08-12 14:30:55.670195,88.0
2023-08-12 14:30:55.677885,88.0
2023-08-12 14:30:55.685575,88.0
2023-08-12 14:30:55.693265,88.0
2023-08-12 14:30:55.700955,85.0
2023-08-12 14:30:55.708645,66.0
2023-08-12 14:30:55.716335,28.0
2023-08-12 14:30:55.724025,-23.0
2023-08-12 14:30:55.731715,-69.0
2023-08-12 14:30:55.739405,-97.0
2023-08-12 14:30:55.747095,-116.0
2023-08-12 14:30:55.754785,-138.0
2023-08-12 14:30:55.762474,-154.0
2023-08-12 14:30:55.770164,-166.0
2023-08-12 14:30:55.777854,-171.0
2023-08-12 14:30:55.785544,-166.0
2023-08-12 14:30:55.793234,-157.0
2023-08-12 14:30:55.800924,-147.0
2023-08-12 14:30:55.808614,-152.0
2023-08-12 14:30:55.816304,-157.0
2023-08-12 14:30:55.823994,-149.0
2023-08-12 14:30:55.831684,-140.0
2023-08-12 14:30:55.839374,-135.0
2023-08-12 14:30:55.847064,-128.0
2023-08-12 14:30:55.854754,-123.0
2023-08-12 14:30:55.862444,-123.0
2023-08-12 14:30:55.870134,-119.0
2023-08-12 14:30:55.877824,-114.0
2023-08-12 14:30:55.885514,-116.0
2023-08-12 14:30:55.893204,-111.0
2023-08-12 14:30:55.900894,-102.0
2023-08-12 14:30:55.908584,-102.0
2023-08-12 14:30:55.916274,-107.0
2023-08-12 14:30:55.923964,-107.0
2023-08-12 14:30:55.931654,-104.0
2023-08-12 14:30:55.939344,-104.0
2023-08-12 14:30:55.947034,-107.0
2023-08-12 14:30:55.954724,-104.0
2023-08-12 14:30:55.962414,-97.0
2023-08-12 14:30:55.970104,-95.0
2023-08-12 14:30:55.977794,-97.0
2023-08-12 14:30:55.985483,-95.0
2023-08-12 14:30:55.993173,-90.0
2023-08-12 14:30:56.000863,-92.0
2023-08-12 14:30:56.008553,-92.0
2023-08-12 14:30:56.016243,-90.0
2023-08-12 14:30:56.023933,-95.0
2023-08-12 14:30:56.031623,-95.0
2023-08-12 14:30:56.039313,-92.0
2023-08-12 14:30:56.047003,-97.0
2023-08-12 14:30:56.054693,-102.0
2023-08-12 14:30:56.062383,-97.0
2023-08-12 14:30:56.070073,-88.0
2023-08-12 14:30:56.077763,-85.0
2023-08-12 14:30:56.085453,-85.0
2023-08-12 14:30:56.093143,-85.0
2023-08-12 14:30:56.100833,-85.0
2023-08-12 14:30:56.108523,-85.0
2023-08-12 14:30:56.116213,-83.0
2023-08-12 14:30:56.123903,-78.0
2023-08-12 14:30:56.131593,-76.0
2023-08-12 14:30:56.139283,-71.0
2023-08-12 14:30:56.146973,-69.0
2023-08-12 14:30:56.154663,-64.0
2023-08-12 14:30:56.162353,-49.0
2023-08-12 14:30:56.170043,-40.0
2023-08-12 14:30:56.177733,-45.0
2023-08-12 14:30:56.185423,-47.0
2023-08-12 14:30:56.193113,-45.0
2023-08-12 14:30:56.200803,-47.0
2023-08-12 14:30:56.208493,-54.0
2023-08-12 14:30:56.216182,-66.0
2023-08-12 14:30:56.223872,-76.0
2023-08-12 14:30:56.231562,-80.0
2023-08-12 14:30:56.239252,-80.0
2023-08-12 14:30:56.246942,-78.0
2023-08-12 14:30:56.254632,-73.0
2023-08-12 14:30:56.262322,-71.0
2023-08-12 14:30:56.270012,-73.0
2023-08-12 14:30:56.277702,-47.0
2023-08-12 14:30:56.285392,85.0
2023-08-12 14:30:56.293082,352.0
2023-08-12 14:30:56.300772,571.0
2023-08-12 14:30:56.308462,464.0
2023-08-12 14:30:56.316152,69.0
2023-08-12 14:30:56.323842,-197.0
2023-08-12 14:30:56.331532,-190.0
2023-08-12 14:30:56.339222,-164.0
2023-08-12 14:30:56.346912,-164.0
2023-08-12 14:30:56.354602,-107.0
2023-08-12 14:30:56.362292,-80.0
2023-08-12 14:30:56.369982,-102.0
2023-08-12 14:30:56.377672,-92.0
2023-08-12 14:30:56.385362,-73.0
2023-08-12 14:30:56.393052,-71.0
2023-08-12 14:30:56.400742,-66.0
2023-08-12 14:30:56.408432,-59.0
2023-08-12 14:30:56.416122,-54.0
2023-08-12 14:30:56.423812,-42.0
2023-08-12 14:30:56.431502,-28.0
2023-08-12 14:30:56.439191,-23.0
2023-08-12 14:30:56.446881,-21.0
2023-08-12 14:30:56.454571,-11.0
2023-08-12 14:30:56.462261,0.0
2023-08-12 14:30:56.469951,14.0
2023-08-12 14:30:56.477641,33.0
2023-08-12 14:30:56.485331,54.0
2023-08-12 14:30:56.493021,69.0
2023-08-12 14:30:56.500711,78.0
2023-08-12 14:30:56.508401,90.0
2023-08-12 14:30:56.516091,95.0
2023-08-12 14:30:56.523781,88.0
2023-08-12 14:30:56.531471,73.0
2023-08-12 14:30:56.539161,61.0
2023-08-12 14:30:56.546851,40.0
2023-08-12 14:30:56.554541,4.0
2023-08-12 14:30:56.562231,-33.0
2023-08-12 14:30:56.569921,-69.0
2023-08-12 14:30:56.577611,-95.0
2023-08-12 14:30:56.585301,-114.0
2023-08-12 14:30:56.592991,-128.0
2023-08-12 14:30:56.600681,-138.0
2023-08-12 14:30:56.608371,-130.0
2023-08-12 14:30:56.616061,-121.0
2023-08-12 14:30:56.623751,-119.0
2023-08-12 14:30:56.631441,-123.0
2023-08-12 14:30:56.639131,-119.0
2023-08-12 14:30:56.646821,-114.0
2023-08-12 14:30:56.654511,-109.0
2023-08-12 14:30:56.662200,-107.0
2023-08-12 14:30:56.669890,-104.0
2023-08-12 14:30:56.677580,-99.0
2023-08-12 14:30:56.685270,-97.0
2023-08-12 14:30:56.692960,-92.0
2023-08-12 14:30:56.700650,-90.0
2023-08-12 14:30:56.708340,-85.0
2023-08-12 14:30:56.716030,-80.0
2023-08-12 14:30:56.723720,-80.0
2023-08-12 14:30:56.731410,-78.0
2023-08-12 14:30:56.739100,-73.0
2023-08-12 14:30:56.746790,-73.0
2023-08-12 14:30:56.754480,-71.0
2023-08-12 14:30:56.762170,-69.0
2023-08-12 14:30:56.769860,-73.0
2023-08-12 14:30:56.777550,-71.0
2023-08-12 14:30:56.785240,-66.0
2023-08-12 14:30:56.792930,-69.0
2023-08-12 14:30:56.800620,-80.0
2023-08-12 14:30:56.808310,-85.0
2023-08-12 14:30:56.816000,-73.0
2023-08-12 14:30:56.823690,-76.0
2023-08-12 14:30:56.831380,-83.0
2023-08-12 14:30:56.839070,-76.0
2023-08-12 14:30:56.846760,-78.0
2023-08-12 14:30:56.854450,-83.0
2023-08-12 14:30:56.862140,-78.0
2023-08-12 14:30:56.869830,-73.0
2023-08-12 14:30:56.877520,-76.0
2023-08-12 14:30:56.885209,-76.0
2023-08-12 14:30:56.892899,-73.0
2023-08-12 14:30:56.900589,-73.0
2023-08-12 14:30:56.908279,-76.0
2023-08-12 14:30:56.915969,-71.0
2023-08-12 14:30:56.923659,-66.0
2023-08-12 14:30:56.931349,-64.0
2023-08-12 14:30:56.939039,-64.0
2023-08-12 14:30:56.946729,-61.0
2023-08-12 14:30:56.954419,-64.0
2023-08-12 14:30:56.962109,-66.0
2023-08-12 14:30:56.969799,-64.0
2023-08-12 14:30:56.977489,-66.0
2023-08-12 14:30:56.985179,-59.0
2023-08-12 14:30:56.992869,-47.0
2023-08-12 14:30:57.000559,-40.0
2023-08-12 14:30:57.008249,-30.0
2023-08-12 14:30:57.015939,-33.0
2023-08-12 14:30:57.023629,-45.0
2023-08-12 14:30:57.031319,-54.0
2023-08-12 14:30:57.039009,-57.0
2023-08-12 14:30:57.046699,-54.0
2023-08-12 14:30:57.054389,-54.0
2023-08-12 14:30:57.062079,-69.0
2023-08-12 14:30:57.069769,-92.0
2023-08-12 14:30:57.077459,-95.0
2023-08-12 14:30:57.085149,-83.0
2023-08-12 14:30:57.092839,-78.0
2023-08-12 14:30:57.100529,-80.0
2023-08-12 14:30:57.108219,-80.0
2023-08-12 14:30:57.115908,-71.0
2023-08-12 14:30:57.123598,14.0
2023-08-12 14:30:57.131288,245.0
2023-08-12 14:30:57.138978,507.0
2023-08-12 14:30:57.146668,526.0
2023-08-12 14:30:57.154358,209.0
2023-08-12 14:30:57.162048,-135.0
2023-08-12 14:30:57.169738,-204.0
2023-08-12 14:30:57.177428,-154.0
2023-08-12 14:30:57.185118,-161.0
2023-08-12 14:30:57.192808,-128.0
2023-08-12 14:30:57.200498,-76.0
2023-08-12 14:30:57.208188,-88.0
2023-08-12 14:30:57.215878,-99.0
2023-08-12 14:30:57.223568,-76.0
2023-08-12 14:30:57.231258,-66.0
2023-08-12 14:30:57.238948,-66.0
2023-08-12 14:30:57.246638,-57.0
2023-08-12 14:30:57.254328,-47.0
2023-08-12 14:30:57.262018,-45.0
2023-08-12 14:30:57.269708,-40.0
2023-08-12 14:30:57.277398,-28.0
2023-08-12 14:30:57.285088,-14.0
2023-08-12 14:30:57.292778,-4.0
2023-08-12 14:30:57.300468,-2.0
2023-08-12 14:30:57.308158,11.0
2023-08-12 14:30:57.315848,33.0
2023-08-12 14:30:57.323538,45.0
2023-08-12 14:30:57.331228,59.0
2023-08-12 14:30:57.338917,71.0
2023-08-12 14:30:57.346607,73.0
2023-08-12 14:30:57.354297,76.0
2023-08-12 14:30:57.361987,80.0
2023-08-12 14:30:57.369677,76.0
2023-08-12 14:30:57.377367,59.0
2023-08-12 14:30:57.385057,40.0
2023-08-12 14:30:57.392747,14.0
2023-08-12 14:30:57.400437,-23.0
2023-08-12 14:30:57.408127,-64.0
2023-08-12 14:30:57.415817,-92.0
2023-08-12 14:30:57.423507,-107.0
2023-08-12 14:30:57.431197,-123.0
2023-08-12 14:30:57.438887,-138.0
2023-08-12 14:30:57.446577,-138.0
2023-08-12 14:30:57.454267,-133.0
2023-08-12 14:30:57.461957,-128.0
2023-08-12 14:30:57.469647,-126.0
2023-08-12 14:30:57.477337,-121.0
2023-08-12 14:30:57.485027,-119.0
2023-08-12 14:30:57.492717,-116.0
2023-08-12 14:30:57.500407,-111.0
2023-08-12 14:30:57.508097,-107.0
2023-08-12 14:30:57.515787,-102.0
2023-08-12 14:30:57.523477,-99.0
2023-08-12 14:30:57.531167,-99.0
2023-08-12 14:30:57.538857,-102.0
2023-08-12 14:30:57.546547,-97.0
2023-08-12 14:30:57.554237,-88.0
2023-08-12 14:30:57.561926,-88.0
2023-08-12 14:30:57.569616,-92.0
2023-08-12 14:30:57.577306,-90.0
2023-08-12 14:30:57.584996,-88.0
2023-08-12 14:30:57.592686,-88.0
2023-08-12 14:30:57.600376,-78.0
2023-08-12 14:30:57.608066,-76.0
2023-08-12 14:30:57.615756,-83.0
2023-08-12 14:30:57.623446,-83.0
2023-08-12 14:30:57.631136,-78.0
2023-08-12 14:30:57.638826,-78.0
2023-08-12 14:30:57.646516,-80.0
2023-08-12 14:30:57.654206,-76.0
2023-08-12 14:30:57.661896,-73.0
2023-08-12 14:30:57.669586,-73.0
2023-08-12 14:30:57.677276,-76.0
2023-08-12 14:30:57.684966,-76.0
2023-08-12 14:30:57.692656,-73.0
2023-08-12 14:30:57.700346,-69.0
2023-08-12 14:30:57.708036,-69.0
2023-08-12 14:30:57.715726,-71.0
2023-08-12 14:30:57.723416,-71.0
2023-08-12 14:30:57.731106,-69.0
2023-08-12 14:30:57.738796,-71.0
2023-08-12 14:30:57.746486,-73.0
2023-08-12 14:30:57.754176,-73.0
2023-08-12 14:30:57.761866,-69.0
2023-08-12 14:30:57.769556,-59.0
2023-08-12 14:30:57.777246,-57.0
2023-08-12 14:30:57.784935,-64.0
2023-08-12 14:30:57.792625,-66.0
2023-08-12 14:30:57.800315,-64.0
2023-08-12 14:30:57.808005,-71.0
2023-08-12 14:30:57.815695,-71.0
2023-08-12 14:30:57.823385,-57.0
2023-08-12 14:30:57.831075,-47.0
2023-08-12 14:30:57.838765,-47.0
2023-08-12 14:30:57.846455,-40.0
2023-08-12 14:30:57.854145,-30.0
2023-08-12 14:30:57.861835,-30.0
2023-08-12 14:30:57.869525,-35.0
2023-08-12 14:30:57.877215,-38.0
2023-08-12 14:30:57.884905,-42.0
2023-08-12 14:30:57.892595,-49.0
2023-08-12 14:30:57.900285,-61.0
2023-08-12 14:30:57.907975,-73.0
2023-08-12 14:30:57.915665,-80.0
2023-08-12 14:30:57.923355,-85.0
2023-08-12 14:30:57.931045,-90.0
2023-08-12 14:30:57.938735,-92.0
2023-08-12 14:30:57.946425,-92.0
2023-08-12 14:30:57.954115,-95.0
2023-08-12 14:30:57.961805,-66.0
2023-08-12 14:30:57.969495,66.0
2023-08-12 14:30:57.977185,328.0
2023-08-12 14:30:57.984875,535.0
2023-08-12 14:30:57.992565,411.0
2023-08-12 14:30:58.000255,21.0
2023-08-12 14:30:58.007945,-211.0
2023-08-12 14:30:58.015634,-188.0
2023-08-12 14:30:58.023324,-176.0
2023-08-12 14:30:58.031014,-188.0
2023-08-12 14:30:58.038704,-133.0
2023-08-12 14:30:58.046394,-102.0
2023-08-12 14:30:58.054084,-121.0
2023-08-12 14:30:58.061774,-114.0
2023-08-12 14:30:58.069464,-90.0
2023-08-12 14:30:58.077154,-88.0
2023-08-12 14:30:58.084844,-88.0
2023-08-12 14:30:58.092534,-76.0
2023-08-12 14:30:58.100224,-66.0
2023-08-12 14:30:58.107914,-64.0
2023-08-12 14:30:58.115604,-57.0
2023-08-12 14:30:58.123294,-45.0
2023-08-12 14:30:58.130984,-35.0
2023-08-12 14:30:58.138674,-23.0
2023-08-12 14:30:58.146364,-7.0
2023-08-12 14:30:58.154054,7.0
2023-08-12 14:30:58.161744,19.0
2023-08-12 14:30:58.169434,30.0
2023-08-12 14:30:58.177124,45.0
2023-08-12 14:30:58.184814,59.0
2023-08-12 14:30:58.192504,66.0
2023-08-12 14:30:58.200194,71.0
2023-08-12 14:30:58.207884,83.0
2023-08-12 14:30:58.215574,80.0
2023-08-12 14:30:58.223264,59.0
2023-08-12 14:30:58.230954,35.0
2023-08-12 14:30:58.238643,-2.0
2023-08-12 14:30:58.246333,-52.0
2023-08-12 14:30:58.254023,-88.0
2023-08-12 14:30:58.261713,-109.0
2023-08-12 14:30:58.269403,-128.0
2023-08-12 14:30:58.277093,-147.0
2023-08-12 14:30:58.284783,-154.0
2023-08-12 14:30:58.292473,-147.0
2023-08-12 14:30:58.300163,-140.0
2023-08-12 14:30:58.307853,-140.0
2023-08-12 14:30:58.315543,-135.0
2023-08-12 14:30:58.323233,-128.0
2023-08-12 14:30:58.330923,-128.0
2023-08-12 14:30:58.338613,-130.0
2023-08-12 14:30:58.346303,-130.0
2023-08-12 14:30:58.353993,-128.0
2023-08-12 14:30:58.361683,-119.0
2023-08-12 14:30:58.369373,-109.0
2023-08-12 14:30:58.377063,-109.0
2023-08-12 14:30:58.384753,-111.0
2023-08-12 14:30:58.392443,-102.0
2023-08-12 14:30:58.400133,-99.0
2023-08-12 14:30:58.407823,-99.0
2023-08-12 14:30:58.415513,-97.0
2023-08-12 14:30:58.423203,-95.0
2023-08-12 14:30:58.430893,-92.0
2023-08-12 14:30:58.438583,-88.0
2023-08-12 14:30:58.446273,-85.0
2023-08-12 14:30:58.453963,-85.0
2023-08-12 14:30:58.461652,-90.0
2023-08-12 14:30:58.469342,-92.0
2023-08-12 14:30:58.477032,-90.0
2023-08-12 14:30:58.484722,-92.0
2023-08-12 14:30:58.492412,-95.0
2023-08-12 14:30:58.500102,-92.0
2023-08-12 14:30:58.507792,-88.0
2023-08-12 14:30:58.515482,-92.0
2023-08-12 14:30:58.523172,-92.0
2023-08-12 14:30:58.530862,-90.0
2023-08-12 14:30:58.538552,-92.0
2023-08-12 14:30:58.546242,-99.0
2023-08-12 14:30:58.553932,-99.0
2023-08-12 14:30:58.561622,-97.0
2023-08-12 14:30:58.569312,-95.0
2023-08-12 14:30:58.577002,-88.0
2023-08-12 14:30:58.584692,-85.0
2023-08-12 14:30:58.592382,-95.0
2023-08-12 14:30:58.600072,-97.0
2023-08-12 14:30:58.607762,-88.0
2023-08-12 14:30:58.615452,-83.0
2023-08-12 14:30:58.623142,-85.0
2023-08-12 14:30:58.630832,-80.0
2023-08-12 14:30:58.638522,-78.0
2023-08-12 14:30:58.646212,-88.0
2023-08-12 14:30:58.653902,-85.0
2023-08-12 14:30:58.661592,-76.0
2023-08-12 14:30:58.669282,-66.0
2023-08-12 14:30:58.676972,-57.0
2023-08-12 14:30:58.684661,-49.0
2023-08-12 14:30:58.692351,-45.0
2023-08-12 14:30:58.700041,-49.0
2023-08-12 14:30:58.707731,-61.0
2023-08-12 14:30:58.715421,-64.0
2023-08-12 14:30:58.723111,-61.0
2023-08-12 14:30:58.730801,-78.0
2023-08-12 14:30:58.738491,-90.0
2023-08-12 14:30:58.746181,-90.0
2023-08-12 14:30:58.753871,-95.0
2023-08-12 14:30:58.761561,-90.0
2023-08-12 14:30:58.769251,-76.0
2023-08-12 14:30:58.776941,-78.0
2023-08-12 14:30:58.784631,-88.0
2023-08-12 14:30:58.792321,-61.0
2023-08-12 14:30:58.800011,83.0
2023-08-12 14:30:58.807701,357.0
2023-08-12 14:30:58.815391,554.0
2023-08-12 14:30:58.823081,397.0
2023-08-12 14:30:58.830771,-11.0
2023-08-12 14:30:58.838461,-228.0
2023-08-12 14:30:58.846151,-180.0
2023-08-12 14:30:58.853841,-169.0
2023-08-12 14:30:58.861531,-188.0
2023-08-12 14:30:58.869221,-123.0
2023-08-12 14:30:58.876911,-90.0
2023-08-12 14:30:58.884601,-111.0
2023-08-12 14:30:58.892291,-107.0
2023-08-12 14:30:58.899981,-90.0
2023-08-12 14:30:58.907671,-88.0
2023-08-12 14:30:58.915360,-85.0
2023-08-12 14:30:58.923050,-73.0
2023-08-12 14:30:58.930740,-59.0
2023-08-12 14:30:58.938430,-45.0
2023-08-12 14:30:58.946120,-38.0
2023-08-12 14:30:58.953810,-42.0
2023-08-12 14:30:58.961500,-35.0
2023-08-12 14:30:58.969190,-19.0
2023-08-12 14:30:58.976880,-4.0
2023-08-12 14:30:58.984570,4.0
2023-08-12 14:30:58.992260,21.0
2023-08-12 14:30:58.999950,35.0
2023-08-12 14:30:59.007640,47.0
2023-08-12 14:30:59.015330,69.0
2023-08-12 14:30:59.023020,83.0
2023-08-12 14:30:59.030710,80.0
2023-08-12 14:30:59.038400,76.0
2023-08-12 14:30:59.046090,76.0
2023-08-12 14:30:59.053780,57.0
2023-08-12 14:30:59.061470,23.0
2023-08-12 14:30:59.069160,-9.0
2023-08-12 14:30:59.076850,-45.0
2023-08-12 14:30:59.084540,-88.0
2023-08-12 14:30:59.092230,-128.0
2023-08-12 14:30:59.099920,-154.0
2023-08-12 14:30:59.107610,-159.0
2023-08-12 14:30:59.115300,-161.0
2023-08-12 14:30:59.122990,-161.0
2023-08-12 14:30:59.130680,-154.0
2023-08-12 14:30:59.138369,-152.0
2023-08-12 14:30:59.146059,-152.0
2023-08-12 14:30:59.153749,-142.0
2023-08-12 14:30:59.161439,-133.0
2023-08-12 14:30:59.169129,-130.0
2023-08-12 14:30:59.176819,-126.0
2023-08-12 14:30:59.184509,-123.0
2023-08-12 14:30:59.192199,-119.0
2023-08-12 14:30:59.199889,-116.0
2023-08-12 14:30:59.207579,-111.0
2023-08-12 14:30:59.215269,-104.0
2023-08-12 14:30:59.222959,-99.0
2023-08-12 14:30:59.230649,-102.0
2023-08-12 14:30:59.238339,-99.0
2023-08-12 14:30:59.246029,-92.0
2023-08-12 14:30:59.253719,-83.0
2023-08-12 14:30:59.261409,-88.0
2023-08-12 14:30:59.269099,-92.0
2023-08-12 14:30:59.276789,-95.0
2023-08-12 14:30:59.284479,-95.0
2023-08-12 14:30:59.292169,-90.0
2023-08-12 14:30:59.299859,-80.0
2023-08-12 14:30:59.307549,-78.0
2023-08-12 14:30:59.315239,-80.0
2023-08-12 14:30:59.322929,-85.0
2023-08-12 14:30:59.330619,-85.0
2023-08-12 14:30:59.338309,-83.0
2023-08-12 14:30:59.345999,-88.0
2023-08-12 14:30:59.353689,-83.0
2023-08-12 14:30:59.361378,-76.0
2023-08-12 14:30:59.369068,-83.0
2023-08-12 14:30:59.376758,-88.0
2023-08-12 14:30:59.384448,-78.0
2023-08-12 14:30:59.392138,-73.0
2023-08-12 14:30:59.399828,-78.0
2023-08-12 14:30:59.407518,-76.0
2023-08-12 14:30:59.415208,-69.0
2023-08-12 14:30:59.422898,-64.0
2023-08-12 14:30:59.430588,-69.0
2023-08-12 14:30:59.438278,-69.0
2023-08-12 14:30:59.445968,-64.0
2023-08-12 14:30:59.453658,-64.0
2023-08-12 14:30:59.461348,-71.0
2023-08-12 14:30:59.469038,-71.0
2023-08-12 14:30:59.476728,-66.0
2023-08-12 14:30:59.484418,-71.0
2023-08-12 14:30:59.492108,-69.0
2023-08-12 14:30:59.499798,-59.0
2023-08-12 14:30:59.507488,-59.0
2023-08-12 14:30:59.515178,-61.0
2023-08-12 14:30:59.522868,-47.0
2023-08-12 14:30:59.530558,-42.0
2023-08-12 14:30:59.538248,-47.0
2023-08-12 14:30:59.545938,-40.0
2023-08-12 14:30:59.553628,-35.0
2023-08-12 14:30:59.561318,-40.0
2023-08-12 14:30:59.569008,-42.0
2023-08-12 14:30:59.576698,-45.0
2023-08-12 14:30:59.584387,-49.0
2023-08-12 14:30:59.592077,-57.0
2023-08-12 14:30:59.599767,-64.0
2023-08-12 14:30:59.607457,-78.0
2023-08-12 14:30:59.615147,-92.0
2023-08-12 14:30:59.622837,-88.0
2023-08-12 14:30:59.630527,-71.0
2023-08-12 14:30:59.638217,-78.0
2023-08-12 14:30:59.645907,-90.0
2023-08-12 14:30:59.653597,-90.0
2023-08-12 14:30:59.661287,-42.0
2023-08-12 14:30:59.668977,121.0
2023-08-12 14:30:59.676667,388.0
2023-08-12 14:30:59.684357,542.0
2023-08-12 14:30:59.692047,359.0
2023-08-12 14:30:59.699737,-33.0
2023-08-12 14:30:59.707427,-223.0
2023-08-12 14:30:59.715117,-176.0
2023-08-12 14:30:59.722807,-166.0
2023-08-12 14:30:59.730497,-169.0
2023-08-12 14:30:59.738187,-109.0
2023-08-12 14:30:59.745877,-97.0
2023-08-12 14:30:59.753567,-116.0
2023-08-12 14:30:59.761257,-99.0
2023-08-12 14:30:59.768947,-85.0
2023-08-12 14:30:59.776637,-90.0
2023-08-12 14:30:59.784327,-80.0
2023-08-12 14:30:59.792017,-66.0
2023-08-12 14:30:59.799707,-59.0
2023-08-12 14:30:59.807397,-54.0
2023-08-12 14:30:59.815086,-47.0
2023-08-12 14:30:59.822776,-35.0
2023-08-12 14:30:59.830466,-30.0
2023-08-12 14:30:59.838156,-23.0
2023-08-12 14:30:59.845846,-7.0
2023-08-12 14:30:59.853536,2.0
2023-08-12 14:30:59.861226,14.0
2023-08-12 14:30:59.868916,30.0
2023-08-12 14:30:59.876606,45.0
2023-08-12 14:30:59.884296,59.0
2023-08-12 14:30:59.891986,71.0
2023-08-12 14:30:59.899676,71.0
2023-08-12 14:30:59.907366,64.0
2023-08-12 14:30:59.915056,59.0
2023-08-12 14:30:59.922746,47.0
2023-08-12 14:30:59.930436,21.0
2023-08-12 14:30:59.938126,-14.0
2023-08-12 14:30:59.945816,-54.0
2023-08-12 14:30:59.953506,-95.0
2023-08-12 14:30:59.961196,-116.0
2023-08-12 14:30:59.968886,-130.0
2023-08-12 14:30:59.976576,-140.0
2023-08-12 14:30:59.984266,-140.0
2023-08-12 14:30:59.991956,-138.0
2023-08-12 14:30:59.999646,-140.0
2023-08-12 14:31:00.007336,-135.0
2023-08-12 14:31:00.015026,-128.0
2023-08-12 14:31:00.022716,-126.0
2023-08-12 14:31:00.030406,-123.0
2023-08-12 14:31:00.038095,-119.0
2023-08-12 14:31:00.045785,-114.0
2023-08-12 14:31:00.053475,-111.0
2023-08-12 14:31:00.061165,-114.0
2023-08-12 14:31:00.068855,-119.0
2023-08-12 14:31:00.076545,-116.0
2023-08-12 14:31:00.084235,-111.0
2023-08-12 14:31:00.091925,-107.0
2023-08-12 14:31:00.099615,-104.0
2023-08-12 14:31:00.107305,-99.0
2023-08-12 14:31:00.114995,-97.0
2023-08-12 14:31:00.122685,-99.0
2023-08-12 14:31:00.130375,-95.0
2023-08-12 14:31:00.138065,-92.0
2023-08-12 14:31:00.145755,-92.0
2023-08-12 14:31:00.153445,-85.0
2023-08-12 14:31:00.161135,-88.0
2023-08-12 14:31:00.168825,-97.0
2023-08-12 14:31:00.176515,-99.0
2023-08-12 14:31:00.184205,-99.0
2023-08-12 14:31:00.191895,-95.0
2023-08-12 14:31:00.199585,-95.0
2023-08-12 14:31:00.207275,-97.0
2023-08-12 14:31:00.214965,-92.0
2023-08-12 14:31:00.222655,-92.0
2023-08-12 14:31:00.230345,-95.0
2023-08-12 14:31:00.238035,-90.0
2023-08-12 14:31:00.245725,-83.0
2023-08-12 14:31:00.253415,-88.0
2023-08-12 14:31:00.261104,-85.0
2023-08-12 14:31:00.268794,-78.0
2023-08-12 14:31:00.276484,-76.0
2023-08-12 14:31:00.284174,-76.0
2023-08-12 14:31:00.291864,-78.0
2023-08-12 14:31:00.299554,-78.0
2023-08-12 14:31:00.307244,-78.0
2023-08-12 14:31:00.314934,-78.0
2023-08-12 14:31:00.322624,-78.0
2023-08-12 14:31:00.330314,-83.0
2023-08-12 14:31:00.338004,-85.0
2023-08-12 14:31:00.345694,-80.0
2023-08-12 14:31:00.353384,-76.0
2023-08-12 14:31:00.361074,-73.0
2023-08-12 14:31:00.368764,-73.0
2023-08-12 14:31:00.376454,-76.0
2023-08-12 14:31:00.384144,-78.0
2023-08-12 14:31:00.391834,-78.0
2023-08-12 14:31:00.399524,-71.0
2023-08-12 14:31:00.407214,-66.0
2023-08-12 14:31:00.414904,-69.0
2023-08-12 14:31:00.422594,-64.0
2023-08-12 14:31:00.430284,-64.0
2023-08-12 14:31:00.437974,-66.0
2023-08-12 14:31:00.445664,-64.0
2023-08-12 14:31:00.453354,-57.0
2023-08-12 14:31:00.461044,-49.0
2023-08-12 14:31:00.468734,-40.0
2023-08-12 14:31:00.476424,-33.0
2023-08-12 14:31:00.484113,-40.0
2023-08-12 14:31:00.491803,-52.0
2023-08-12 14:31:00.499493,-54.0
2023-08-12 14:31:00.507183,-52.0
2023-08-12 14:31:00.514873,-61.0
2023-08-12 14:31:00.522563,-78.0
2023-08-12 14:31:00.530253,-88.0
2023-08-12 14:31:00.537943,-85.0
2023-08-12 14:31:00.545633,-80.0
2023-08-12 14:31:00.553323,-76.0
2023-08-12 14:31:00.561013,-80.0
2023-08-12 14:31:00.568703,-92.0
2023-08-12 14:31:00.576393,-49.0
2023-08-12 14:31:00.584083,128.0
2023-08-12 14:31:00.591773,390.0
2023-08-12 14:31:00.599463,523.0
2023-08-12 14:31:00.607153,323.0
2023-08-12 14:31:00.614843,-61.0
2023-08-12 14:31:00.622533,-235.0
2023-08-12 14:31:00.630223,-185.0
2023-08-12 14:31:00.637913,-171.0
2023-08-12 14:31:00.645603,-169.0
2023-08-12 14:31:00.653293,-116.0
2023-08-12 14:31:00.660983,-109.0
2023-08-12 14:31:00.668673,-121.0
2023-08-12 14:31:00.676363,-107.0
2023-08-12 14:31:00.684053,-95.0
2023-08-12 14:31:00.691743,-95.0
2023-08-12 14:31:00.699433,-85.0
2023-08-12 14:31:00.707123,-76.0
2023-08-12 14:31:00.714812,-78.0
2023-08-12 14:31:00.722502,-78.0
2023-08-12 14:31:00.730192,-69.0
2023-08-12 14:31:00.737882,-57.0
2023-08-12 14:31:00.745572,-45.0
2023-08-12 14:31:00.753262,-26.0
2023-08-12 14:31:00.760952,-19.0
2023-08-12 14:31:00.768642,-14.0
2023-08-12 14:31:00.776332,7.0
2023-08-12 14:31:00.784022,28.0
2023-08-12 14:31:00.791712,38.0
2023-08-12 14:31:00.799402,52.0
2023-08-12 14:31:00.807092,66.0
2023-08-12 14:31:00.814782,64.0
2023-08-12 14:31:00.822472,57.0
2023-08-12 14:31:00.830162,57.0
2023-08-12 14:31:00.837852,45.0
2023-08-12 14:31:00.845542,11.0
2023-08-12 14:31:00.853232,-28.0
2023-08-12 14:31:00.860922,-61.0
2023-08-12 14:31:00.868612,-85.0
2023-08-12 14:31:00.876302,-114.0
2023-08-12 14:31:00.883992,-140.0
2023-08-12 14:31:00.891682,-147.0
2023-08-12 14:31:00.899372,-149.0
2023-08-12 14:31:00.907062,-152.0
2023-08-12 14:31:00.914752,-147.0
2023-08-12 14:31:00.922442,-138.0
2023-08-12 14:31:00.930132,-135.0
2023-08-12 14:31:00.937821,-133.0
2023-08-12 14:31:00.945511,-128.0
2023-08-12 14:31:00.953201,-119.0
2023-08-12 14:31:00.960891,-116.0
2023-08-12 14:31:00.968581,-121.0
2023-08-12 14:31:00.976271,-116.0
2023-08-12 14:31:00.983961,-104.0
2023-08-12 14:31:00.991651,-99.0
2023-08-12 14:31:00.999341,-102.0
2023-08-12 14:31:01.007031,-99.0
2023-08-12 14:31:01.014721,-92.0
2023-08-12 14:31:01.022411,-90.0
2023-08-12 14:31:01.030101,-95.0
2023-08-12 14:31:01.037791,-99.0
2023-08-12 14:31:01.045481,-92.0
2023-08-12 14:31:01.053171,-80.0
2023-08-12 14:31:01.060861,-88.0
2023-08-12 14:31:01.068551,-99.0
2023-08-12 14:31:01.076241,-97.0
2023-08-12 14:31:01.083931,-88.0
2023-08-12 14:31:01.091621,-88.0
2023-08-12 14:31:01.099311,-90.0
2023-08-12 14:31:01.107001,-88.0
2023-08-12 14:31:01.114691,-83.0
2023-08-12 14:31:01.122381,-85.0
2023-08-12 14:31:01.130071,-88.0
2023-08-12 14:31:01.137761,-85.0
2023-08-12 14:31:01.145451,-78.0
2023-08-12 14:31:01.153141,-78.0
2023-08-12 14:31:01.160830,-78.0
2023-08-12 14:31:01.168520,-78.0
2023-08-12 14:31:01.176210,-78.0
2023-08-12 14:31:01.183900,-76.0
2023-08-12 14:31:01.191590,-71.0
2023-08-12 14:31:01.199280,-66.0
2023-08-12 14:31:01.206970,-66.0
2023-08-12 14:31:01.214660,-71.0
2023-08-12 14:31:01.222350,-71.0
2023-08-12 14:31:01.230040,-69.0
2023-08-12 14:31:01.237730,-66.0
2023-08-12 14:31:01.245420,-64.0
2023-08-12 14:31:01.253110,-69.0
2023-08-12 14:31:01.260800,-73.0
2023-08-12 14:31:01.268490,-71.0
2023-08-12 14:31:01.276180,-71.0
2023-08-12 14:31:01.283870,-69.0
2023-08-12 14:31:01.291560,-66.0
2023-08-12 14:31:01.299250,-66.0
2023-08-12 14:31:01.306940,-69.0
2023-08-12 14:31:01.314630,-69.0
2023-08-12 14:31:01.322320,-66.0
2023-08-12 14:31:01.330010,-57.0
2023-08-12 14:31:01.337700,-54.0
2023-08-12 14:31:01.345390,-64.0
2023-08-12 14:31:01.353080,-69.0
2023-08-12 14:31:01.360770,-64.0
2023-08-12 14:31:01.368460,-59.0
2023-08-12 14:31:01.376150,-52.0
2023-08-12 14:31:01.383839,-42.0
2023-08-12 14:31:01.391529,-30.0
2023-08-12 14:31:01.399219,-30.0
2023-08-12 14:31:01.406909,-47.0
2023-08-12 14:31:01.414599,-59.0
2023-08-12 14:31:01.422289,-52.0
2023-08-12 14:31:01.429979,-57.0
2023-08-12 14:31:01.437669,-78.0
2023-08-12 14:31:01.445359,-90.0
2023-08-12 14:31:01.453049,-88.0
2023-08-12 14:31:01.460739,-80.0
2023-08-12 14:31:01.468429,-78.0
2023-08-12 14:31:01.476119,-76.0
2023-08-12 14:31:01.483809,-78.0
2023-08-12 14:31:01.491499,-69.0
2023-08-12 14:31:01.499189,19.0
2023-08-12 14:31:01.506879,259.0
2023-08-12 14:31:01.514569,526.0
2023-08-12 14:31:01.522259,509.0
2023-08-12 14:31:01.529949,145.0
2023-08-12 14:31:01.537639,-180.0
2023-08-12 14:31:01.545329,-202.0
2023-08-12 14:31:01.553019,-161.0
2023-08-12 14:31:01.560709,-190.0
2023-08-12 14:31:01.568399,-140.0
2023-08-12 14:31:01.576089,-88.0
2023-08-12 14:31:01.583779,-109.0
2023-08-12 14:31:01.591469,-111.0
2023-08-12 14:31:01.599159,-80.0
2023-08-12 14:31:01.606849,-78.0
2023-08-12 14:31:01.614538,-83.0
2023-08-12 14:31:01.622228,-66.0
2023-08-12 14:31:01.629918,-54.0
2023-08-12 14:31:01.637608,-59.0
2023-08-12 14:31:01.645298,-47.0
2023-08-12 14:31:01.652988,-26.0
2023-08-12 14:31:01.660678,-21.0
2023-08-12 14:31:01.668368,-19.0
2023-08-12 14:31:01.676058,-2.0
2023-08-12 14:31:01.683748,11.0
2023-08-12 14:31:01.691438,26.0
2023-08-12 14:31:01.699128,40.0
2023-08-12 14:31:01.706818,54.0
2023-08-12 14:31:01.714508,66.0
2023-08-12 14:31:01.722198,83.0
2023-08-12 14:31:01.729888,95.0
2023-08-12 14:31:01.737578,97.0
2023-08-12 14:31:01.745268,88.0
2023-08-12 14:31:01.752958,73.0
2023-08-12 14:31:01.760648,57.0
2023-08-12 14:31:01.768338,26.0
2023-08-12 14:31:01.776028,-14.0
2023-08-12 14:31:01.783718,-52.0
2023-08-12 14:31:01.791408,-83.0
2023-08-12 14:31:01.799098,-109.0
2023-08-12 14:31:01.806788,-128.0
2023-08-12 14:31:01.814478,-130.0
2023-08-12 14:31:01.822168,-130.0
2023-08-12 14:31:01.829858,-135.0
2023-08-12 14:31:01.837547,-133.0
2023-08-12 14:31:01.845237,-133.0
2023-08-12 14:31:01.852927,-128.0
2023-08-12 14:31:01.860617,-116.0
2023-08-12 14:31:01.868307,-121.0
2023-08-12 14:31:01.875997,-121.0
2023-08-12 14:31:01.883687,-109.0
2023-08-12 14:31:01.891377,-107.0
2023-08-12 14:31:01.899067,-111.0
2023-08-12 14:31:01.906757,-104.0
2023-08-12 14:31:01.914447,-99.0
2023-08-12 14:31:01.922137,-92.0
2023-08-12 14:31:01.929827,-90.0
2023-08-12 14:31:01.937517,-95.0
2023-08-12 14:31:01.945207,-92.0
2023-08-12 14:31:01.952897,-83.0
2023-08-12 14:31:01.960587,-83.0
2023-08-12 14:31:01.968277,-80.0
2023-08-12 14:31:01.975967,-73.0
2023-08-12 14:31:01.983657,-73.0
2023-08-12 14:31:01.991347,-73.0
2023-08-12 14:31:01.999037,-76.0
2023-08-12 14:31:02.006727,-80.0
2023-08-12 14:31:02.014417,-78.0
2023-08-12 14:31:02.022107,-73.0
2023-08-12 14:31:02.029797,-71.0
2023-08-12 14:31:02.037487,-78.0
2023-08-12 14:31:02.045177,-83.0
2023-08-12 14:31:02.052867,-83.0
2023-08-12 14:31:02.060556,-80.0
2023-08-12 14:31:02.068246,-83.0
2023-08-12 14:31:02.075936,-80.0
2023-08-12 14:31:02.083626,-73.0
2023-08-12 14:31:02.091316,-76.0
2023-08-12 14:31:02.099006,-80.0
2023-08-12 14:31:02.106696,-76.0
2023-08-12 14:31:02.114386,-78.0
2023-08-12 14:31:02.122076,-78.0
2023-08-12 14:31:02.129766,-71.0
2023-08-12 14:31:02.137456,-64.0
2023-08-12 14:31:02.145146,-69.0
2023-08-12 14:31:02.152836,-73.0
2023-08-12 14:31:02.160526,-71.0
2023-08-12 14:31:02.168216,-69.0
2023-08-12 14:31:02.175906,-73.0
2023-08-12 14:31:02.183596,-66.0
2023-08-12 14:31:02.191286,-54.0
2023-08-12 14:31:02.198976,-54.0
2023-08-12 14:31:02.206666,-66.0
2023-08-12 14:31:02.214356,-61.0
2023-08-12 14:31:02.222046,-54.0
2023-08-12 14:31:02.229736,-61.0
2023-08-12 14:31:02.237426,-66.0
2023-08-12 14:31:02.245116,-59.0
2023-08-12 14:31:02.252806,-59.0
2023-08-12 14:31:02.260496,-69.0
2023-08-12 14:31:02.268186,-66.0
2023-08-12 14:31:02.275876,-52.0
2023-08-12 14:31:02.283565,-49.0
2023-08-12 14:31:02.291255,-57.0
2023-08-12 14:31:02.298945,-57.0
2023-08-12 14:31:02.306635,-42.0
2023-08-12 14:31:02.314325,-23.0
2023-08-12 14:31:02.322015,-23.0
2023-08-12 14:31:02.329705,-38.0
2023-08-12 14:31:02.337395,-42.0
2023-08-12 14:31:02.345085,-42.0
2023-08-12 14:31:02.352775,-52.0
2023-08-12 14:31:02.360465,-61.0
2023-08-12 14:31:02.368155,-66.0
2023-08-12 14:31:02.375845,-71.0
2023-08-12 14:31:02.383535,-73.0
2023-08-12 14:31:02.391225,-73.0
2023-08-12 14:31:02.398915,-71.0
2023-08-12 14:31:02.406605,-73.0
2023-08-12 14:31:02.414295,-76.0
2023-08-12 14:31:02.421985,-33.0
2023-08-12 14:31:02.429675,130.0
2023-08-12 14:31:02.437365,397.0
2023-08-12 14:31:02.445055,547.0
2023-08-12 14:31:02.452745,364.0
2023-08-12 14:31:02.460435,-16.0
2023-08-12 14:31:02.468125,-199.0
2023-08-12 14:31:02.475815,-164.0
2023-08-12 14:31:02.483505,-159.0
2023-08-12 14:31:02.491195,-152.0
2023-08-12 14:31:02.498885,-95.0
2023-08-12 14:31:02.506575,-85.0
2023-08-12 14:31:02.514264,-95.0
2023-08-12 14:31:02.521954,-76.0
2023-08-12 14:31:02.529644,-66.0
2023-08-12 14:31:02.537334,-71.0
2023-08-12 14:31:02.545024,-66.0
2023-08-12 14:31:02.552714,-54.0
2023-08-12 14:31:02.560404,-47.0
2023-08-12 14:31:02.568094,-42.0
2023-08-12 14:31:02.575784,-42.0
2023-08-12 14:31:02.583474,-33.0
2023-08-12 14:31:02.591164,-21.0
2023-08-12 14:31:02.598854,-16.0
2023-08-12 14:31:02.606544,-9.0
2023-08-12 14:31:02.614234,7.0
2023-08-12 14:31:02.621924,21.0
2023-08-12 14:31:02.629614,38.0
2023-08-12 14:31:02.637304,57.0
2023-08-12 14:31:02.644994,66.0
2023-08-12 14:31:02.652684,69.0
2023-08-12 14:31:02.660374,78.0
2023-08-12 14:31:02.668064,80.0
2023-08-12 14:31:02.675754,64.0
2023-08-12 14:31:02.683444,49.0
2023-08-12 14:31:02.691134,33.0
2023-08-12 14:31:02.698824,0.0
2023-08-12 14:31:02.706514,-42.0
2023-08-12 14:31:02.714204,-76.0
2023-08-12 14:31:02.721894,-102.0
2023-08-12 14:31:02.729584,-119.0
2023-08-12 14:31:02.737273,-128.0
2023-08-12 14:31:02.744963,-138.0
2023-08-12 14:31:02.752653,-135.0
2023-08-12 14:31:02.760343,-128.0
2023-08-12 14:31:02.768033,-126.0
2023-08-12 14:31:02.775723,-126.0
2023-08-12 14:31:02.783413,-119.0
2023-08-12 14:31:02.791103,-116.0
2023-08-12 14:31:02.798793,-114.0
2023-08-12 14:31:02.806483,-107.0
2023-08-12 14:31:02.814173,-102.0
2023-08-12 14:31:02.821863,-99.0
2023-08-12 14:31:02.829553,-99.0
2023-08-12 14:31:02.837243,-97.0
2023-08-12 14:31:02.844933,-92.0
2023-08-12 14:31:02.852623,-90.0
2023-08-12 14:31:02.860313,-85.0
2023-08-12 14:31:02.868003,-78.0
2023-08-12 14:31:02.875693,-80.0
2023-08-12 14:31:02.883383,-88.0
2023-08-12 14:31:02.891073,-85.0
2023-08-12 14:31:02.898763,-83.0
2023-08-12 14:31:02.906453,-76.0
2023-08-12 14:31:02.914143,-66.0
2023-08-12 14:31:02.921833,-76.0
2023-08-12 14:31:02.929523,-80.0
2023-08-12 14:31:02.937213,-76.0
2023-08-12 14:31:02.944903,-80.0
2023-08-12 14:31:02.952593,-85.0
2023-08-12 14:31:02.960282,-78.0
2023-08-12 14:31:02.967972,-78.0
2023-08-12 14:31:02.975662,-78.0
2023-08-12 14:31:02.983352,-76.0
2023-08-12 14:31:02.991042,-73.0
2023-08-12 14:31:02.998732,-73.0
2023-08-12 14:31:03.006422,-78.0
2023-08-12 14:31:03.014112,-90.0
2023-08-12 14:31:03.021802,-90.0
2023-08-12 14:31:03.029492,-80.0
2023-08-12 14:31:03.037182,-83.0
2023-08-12 14:31:03.044872,-83.0
2023-08-12 14:31:03.052562,-78.0
2023-08-12 14:31:03.060252,-80.0
2023-08-12 14:31:03.067942,-88.0
2023-08-12 14:31:03.075632,-95.0
2023-08-12 14:31:03.083322,-97.0
2023-08-12 14:31:03.091012,-85.0
2023-08-12 14:31:03.098702,-85.0
2023-08-12 14:31:03.106392,-95.0
2023-08-12 14:31:03.114082,-90.0
2023-08-12 14:31:03.121772,-85.0
2023-08-12 14:31:03.129462,-88.0
2023-08-12 14:31:03.137152,-83.0
2023-08-12 14:31:03.144842,-80.0
2023-08-12 14:31:03.152532,-83.0
2023-08-12 14:31:03.160222,-88.0
2023-08-12 14:31:03.167912,-85.0
2023-08-12 14:31:03.175602,-78.0
2023-08-12 14:31:03.183291,-80.0
2023-08-12 14:31:03.190981,-83.0
2023-08-12 14:31:03.198671,-73.0
2023-08-12 14:31:03.206361,-76.0
2023-08-12 14:31:03.214051,-76.0
2023-08-12 14:31:03.221741,-66.0
2023-08-12 14:31:03.229431,-59.0
2023-08-12 14:31:03.237121,-57.0
2023-08-12 14:31:03.244811,-54.0
