time,ECG
2023-08-12 18:52:16.258289,-92.0
2023-08-12 18:52:16.265979,-90.0
2023-08-12 18:52:16.273668,-92.0
2023-08-12 18:52:16.281358,-92.0
2023-08-12 18:52:16.289048,-90.0
2023-08-12 18:52:16.296737,-85.0
2023-08-12 18:52:16.304427,-83.0
2023-08-12 18:52:16.312116,-85.0
2023-08-12 18:52:16.319806,-88.0
2023-08-12 18:52:16.327495,-88.0
2023-08-12 18:52:16.335185,-88.0
2023-08-12 18:52:16.342874,-88.0
2023-08-12 18:52:16.350564,-88.0
2023-08-12 18:52:16.358253,-90.0
2023-08-12 18:52:16.365943,-92.0
2023-08-12 18:52:16.373632,-97.0
2023-08-12 18:52:16.381322,-104.0
2023-08-12 18:52:16.389011,-107.0
2023-08-12 18:52:16.396701,-102.0
2023-08-12 18:52:16.404391,-102.0
2023-08-12 18:52:16.412080,-104.0
2023-08-12 18:52:16.419770,-102.0
2023-08-12 18:52:16.427459,-99.0
2023-08-12 18:52:16.435149,-97.0
2023-08-12 18:52:16.442838,-95.0
2023-08-12 18:52:16.450528,-95.0
2023-08-12 18:52:16.458217,-92.0
2023-08-12 18:52:16.465907,-90.0
2023-08-12 18:52:16.473596,-90.0
2023-08-12 18:52:16.481286,-92.0
2023-08-12 18:52:16.488975,-90.0
2023-08-12 18:52:16.496665,-88.0
2023-08-12 18:52:16.504354,-92.0
2023-08-12 18:52:16.512044,-95.0
2023-08-12 18:52:16.519734,-95.0
2023-08-12 18:52:16.527423,-92.0
2023-08-12 18:52:16.535113,-90.0
2023-08-12 18:52:16.542802,-83.0
2023-08-12 18:52:16.550492,-64.0
2023-08-12 18:52:16.558181,-45.0
2023-08-12 18:52:16.565871,-30.0
2023-08-12 18:52:16.573560,-35.0
2023-08-12 18:52:16.581250,-57.0
2023-08-12 18:52:16.588939,-69.0
2023-08-12 18:52:16.596629,-76.0
2023-08-12 18:52:16.604318,-90.0
2023-08-12 18:52:16.612008,-99.0
2023-08-12 18:52:16.619697,-92.0
2023-08-12 18:52:16.627387,-88.0
2023-08-12 18:52:16.635077,-85.0
2023-08-12 18:52:16.642766,-80.0
2023-08-12 18:52:16.650456,-78.0
2023-08-12 18:52:16.658145,-45.0
2023-08-12 18:52:16.665835,140.0
2023-08-12 18:52:16.673524,561.0
2023-08-12 18:52:16.681214,983.0
2023-08-12 18:52:16.688903,823.0
2023-08-12 18:52:16.696593,-71.0
2023-08-12 18:52:16.704282,-709.0
2023-08-12 18:52:16.711972,-480.0
2023-08-12 18:52:16.719661,-192.0
2023-08-12 18:52:16.727351,-188.0
2023-08-12 18:52:16.735040,-121.0
2023-08-12 18:52:16.742730,-69.0
2023-08-12 18:52:16.750420,-102.0
2023-08-12 18:52:16.758109,-95.0
2023-08-12 18:52:16.765799,-66.0
2023-08-12 18:52:16.773488,-76.0
2023-08-12 18:52:16.781178,-76.0
2023-08-12 18:52:16.788867,-59.0
2023-08-12 18:52:16.796557,-52.0
2023-08-12 18:52:16.804246,-52.0
2023-08-12 18:52:16.811936,-45.0
2023-08-12 18:52:16.819625,-38.0
2023-08-12 18:52:16.827315,-35.0
2023-08-12 18:52:16.835004,-30.0
2023-08-12 18:52:16.842694,-21.0
2023-08-12 18:52:16.850383,-14.0
2023-08-12 18:52:16.858073,-9.0
2023-08-12 18:52:16.865762,-4.0
2023-08-12 18:52:16.873452,0.0
2023-08-12 18:52:16.881142,7.0
2023-08-12 18:52:16.888831,19.0
2023-08-12 18:52:16.896521,28.0
2023-08-12 18:52:16.904210,33.0
2023-08-12 18:52:16.911900,40.0
2023-08-12 18:52:16.919589,45.0
2023-08-12 18:52:16.927279,49.0
2023-08-12 18:52:16.934968,57.0
2023-08-12 18:52:16.942658,61.0
2023-08-12 18:52:16.950347,59.0
2023-08-12 18:52:16.958037,49.0
2023-08-12 18:52:16.965726,38.0
2023-08-12 18:52:16.973416,26.0
2023-08-12 18:52:16.981105,7.0
2023-08-12 18:52:16.988795,-21.0
2023-08-12 18:52:16.996485,-42.0
2023-08-12 18:52:17.004174,-69.0
2023-08-12 18:52:17.011864,-92.0
2023-08-12 18:52:17.019553,-107.0
2023-08-12 18:52:17.027243,-111.0
2023-08-12 18:52:17.034932,-119.0
2023-08-12 18:52:17.042622,-123.0
2023-08-12 18:52:17.050311,-126.0
2023-08-12 18:52:17.058001,-128.0
2023-08-12 18:52:17.065690,-128.0
2023-08-12 18:52:17.073380,-123.0
2023-08-12 18:52:17.081069,-121.0
2023-08-12 18:52:17.088759,-116.0
2023-08-12 18:52:17.096448,-114.0
2023-08-12 18:52:17.104138,-114.0
2023-08-12 18:52:17.111828,-111.0
2023-08-12 18:52:17.119517,-107.0
2023-08-12 18:52:17.127207,-102.0
2023-08-12 18:52:17.134896,-99.0
2023-08-12 18:52:17.142586,-97.0
2023-08-12 18:52:17.150275,-95.0
2023-08-12 18:52:17.157965,-95.0
2023-08-12 18:52:17.165654,-92.0
2023-08-12 18:52:17.173344,-90.0
2023-08-12 18:52:17.181033,-88.0
2023-08-12 18:52:17.188723,-90.0
2023-08-12 18:52:17.196412,-90.0
2023-08-12 18:52:17.204102,-88.0
2023-08-12 18:52:17.211791,-90.0
2023-08-12 18:52:17.219481,-92.0
2023-08-12 18:52:17.227171,-92.0
2023-08-12 18:52:17.234860,-95.0
2023-08-12 18:52:17.242550,-97.0
2023-08-12 18:52:17.250239,-99.0
2023-08-12 18:52:17.257929,-99.0
2023-08-12 18:52:17.265618,-99.0
2023-08-12 18:52:17.273308,-99.0
2023-08-12 18:52:17.280997,-97.0
2023-08-12 18:52:17.288687,-99.0
2023-08-12 18:52:17.296376,-99.0
2023-08-12 18:52:17.304066,-97.0
2023-08-12 18:52:17.311755,-92.0
2023-08-12 18:52:17.319445,-90.0
2023-08-12 18:52:17.327134,-92.0
2023-08-12 18:52:17.334824,-92.0
2023-08-12 18:52:17.342514,-90.0
2023-08-12 18:52:17.350203,-88.0
2023-08-12 18:52:17.357893,-85.0
2023-08-12 18:52:17.365582,-83.0
2023-08-12 18:52:17.373272,-83.0
2023-08-12 18:52:17.380961,-83.0
2023-08-12 18:52:17.388651,-78.0
2023-08-12 18:52:17.396340,-76.0
2023-08-12 18:52:17.404030,-76.0
2023-08-12 18:52:17.411719,-78.0
2023-08-12 18:52:17.419409,-76.0
2023-08-12 18:52:17.427098,-76.0
2023-08-12 18:52:17.434788,-73.0
2023-08-12 18:52:17.442477,-71.0
2023-08-12 18:52:17.450167,-69.0
2023-08-12 18:52:17.457857,-71.0
2023-08-12 18:52:17.465546,-73.0
2023-08-12 18:52:17.473236,-73.0
2023-08-12 18:52:17.480925,-69.0
2023-08-12 18:52:17.488615,-64.0
2023-08-12 18:52:17.496304,-49.0
2023-08-12 18:52:17.503994,-30.0
2023-08-12 18:52:17.511683,-19.0
2023-08-12 18:52:17.519373,-21.0
2023-08-12 18:52:17.527062,-42.0
2023-08-12 18:52:17.534752,-59.0
2023-08-12 18:52:17.542441,-61.0
2023-08-12 18:52:17.550131,-78.0
2023-08-12 18:52:17.557820,-99.0
2023-08-12 18:52:17.565510,-99.0
2023-08-12 18:52:17.573200,-95.0
2023-08-12 18:52:17.580889,-99.0
2023-08-12 18:52:17.588579,-99.0
2023-08-12 18:52:17.596268,-95.0
2023-08-12 18:52:17.603958,-73.0
2023-08-12 18:52:17.611647,80.0
2023-08-12 18:52:17.619337,490.0
2023-08-12 18:52:17.627026,978.0
2023-08-12 18:52:17.634716,964.0
2023-08-12 18:52:17.642405,135.0
2023-08-12 18:52:17.650095,-645.0
2023-08-12 18:52:17.657784,-542.0
2023-08-12 18:52:17.665474,-214.0
2023-08-12 18:52:17.673163,-188.0
2023-08-12 18:52:17.680853,-152.0
2023-08-12 18:52:17.688543,-90.0
2023-08-12 18:52:17.696232,-114.0
2023-08-12 18:52:17.703922,-116.0
2023-08-12 18:52:17.711611,-85.0
2023-08-12 18:52:17.719301,-83.0
2023-08-12 18:52:17.726990,-85.0
2023-08-12 18:52:17.734680,-71.0
2023-08-12 18:52:17.742369,-64.0
2023-08-12 18:52:17.750059,-64.0
2023-08-12 18:52:17.757748,-57.0
2023-08-12 18:52:17.765438,-49.0
2023-08-12 18:52:17.773127,-47.0
2023-08-12 18:52:17.780817,-40.0
2023-08-12 18:52:17.788506,-33.0
2023-08-12 18:52:17.796196,-28.0
2023-08-12 18:52:17.803885,-23.0
2023-08-12 18:52:17.811575,-16.0
2023-08-12 18:52:17.819265,-9.0
2023-08-12 18:52:17.826954,-4.0
2023-08-12 18:52:17.834644,4.0
2023-08-12 18:52:17.842333,14.0
2023-08-12 18:52:17.850023,21.0
2023-08-12 18:52:17.857712,28.0
2023-08-12 18:52:17.865402,38.0
2023-08-12 18:52:17.873091,45.0
2023-08-12 18:52:17.880781,49.0
2023-08-12 18:52:17.888470,49.0
2023-08-12 18:52:17.896160,52.0
2023-08-12 18:52:17.903849,45.0
2023-08-12 18:52:17.911539,33.0
2023-08-12 18:52:17.919228,21.0
2023-08-12 18:52:17.926918,4.0
2023-08-12 18:52:17.934608,-16.0
2023-08-12 18:52:17.942297,-40.0
2023-08-12 18:52:17.949987,-61.0
2023-08-12 18:52:17.957676,-80.0
2023-08-12 18:52:17.965366,-88.0
2023-08-12 18:52:17.973055,-95.0
2023-08-12 18:52:17.980745,-104.0
2023-08-12 18:52:17.988434,-109.0
2023-08-12 18:52:17.996124,-116.0
2023-08-12 18:52:18.003813,-123.0
2023-08-12 18:52:18.011503,-123.0
2023-08-12 18:52:18.019192,-126.0
2023-08-12 18:52:18.026882,-130.0
2023-08-12 18:52:18.034571,-126.0
2023-08-12 18:52:18.042261,-121.0
2023-08-12 18:52:18.049951,-121.0
2023-08-12 18:52:18.057640,-116.0
2023-08-12 18:52:18.065330,-114.0
2023-08-12 18:52:18.073019,-111.0
2023-08-12 18:52:18.080709,-109.0
2023-08-12 18:52:18.088398,-109.0
2023-08-12 18:52:18.096088,-111.0
2023-08-12 18:52:18.103777,-109.0
2023-08-12 18:52:18.111467,-104.0
2023-08-12 18:52:18.119156,-102.0
2023-08-12 18:52:18.126846,-99.0
2023-08-12 18:52:18.134535,-95.0
2023-08-12 18:52:18.142225,-95.0
2023-08-12 18:52:18.149914,-95.0
2023-08-12 18:52:18.157604,-92.0
2023-08-12 18:52:18.165294,-92.0
2023-08-12 18:52:18.172983,-92.0
2023-08-12 18:52:18.180673,-92.0
2023-08-12 18:52:18.188362,-92.0
2023-08-12 18:52:18.196052,-90.0
2023-08-12 18:52:18.203741,-88.0
2023-08-12 18:52:18.211431,-90.0
2023-08-12 18:52:18.219120,-90.0
2023-08-12 18:52:18.226810,-85.0
2023-08-12 18:52:18.234499,-85.0
2023-08-12 18:52:18.242189,-88.0
2023-08-12 18:52:18.249878,-90.0
2023-08-12 18:52:18.257568,-88.0
2023-08-12 18:52:18.265257,-83.0
2023-08-12 18:52:18.272947,-83.0
2023-08-12 18:52:18.280637,-80.0
2023-08-12 18:52:18.288326,-78.0
2023-08-12 18:52:18.296016,-78.0
2023-08-12 18:52:18.303705,-78.0
2023-08-12 18:52:18.311395,-78.0
2023-08-12 18:52:18.319084,-76.0
2023-08-12 18:52:18.326774,-73.0
2023-08-12 18:52:18.334463,-71.0
2023-08-12 18:52:18.342153,-69.0
2023-08-12 18:52:18.349842,-69.0
2023-08-12 18:52:18.357532,-69.0
2023-08-12 18:52:18.365221,-66.0
2023-08-12 18:52:18.372911,-66.0
2023-08-12 18:52:18.380600,-64.0
2023-08-12 18:52:18.388290,-64.0
2023-08-12 18:52:18.395980,-64.0
2023-08-12 18:52:18.403669,-61.0
2023-08-12 18:52:18.411359,-59.0
2023-08-12 18:52:18.419048,-59.0
2023-08-12 18:52:18.426738,-59.0
2023-08-12 18:52:18.434427,-57.0
2023-08-12 18:52:18.442117,-57.0
2023-08-12 18:52:18.449806,-57.0
2023-08-12 18:52:18.457496,-57.0
2023-08-12 18:52:18.465185,-54.0
2023-08-12 18:52:18.472875,-54.0
2023-08-12 18:52:18.480564,-57.0
2023-08-12 18:52:18.488254,-57.0
2023-08-12 18:52:18.495943,-54.0
2023-08-12 18:52:18.503633,-49.0
2023-08-12 18:52:18.511323,-40.0
2023-08-12 18:52:18.519012,-28.0
2023-08-12 18:52:18.526702,-11.0
2023-08-12 18:52:18.534391,-2.0
2023-08-12 18:52:18.542081,-19.0
2023-08-12 18:52:18.549770,-42.0
2023-08-12 18:52:18.557460,-47.0
2023-08-12 18:52:18.565149,-57.0
2023-08-12 18:52:18.572839,-76.0
2023-08-12 18:52:18.580528,-76.0
2023-08-12 18:52:18.588218,-69.0
2023-08-12 18:52:18.595907,-69.0
2023-08-12 18:52:18.603597,-66.0
2023-08-12 18:52:18.611286,-61.0
2023-08-12 18:52:18.618976,-42.0
2023-08-12 18:52:18.626665,97.0
2023-08-12 18:52:18.634355,497.0
2023-08-12 18:52:18.642045,987.0
2023-08-12 18:52:18.649734,980.0
2023-08-12 18:52:18.657424,164.0
2023-08-12 18:52:18.665113,-592.0
2023-08-12 18:52:18.672803,-483.0
2023-08-12 18:52:18.680492,-176.0
2023-08-12 18:52:18.688182,-171.0
2023-08-12 18:52:18.695871,-142.0
2023-08-12 18:52:18.703561,-83.0
2023-08-12 18:52:18.711250,-107.0
2023-08-12 18:52:18.718940,-114.0
2023-08-12 18:52:18.726629,-85.0
2023-08-12 18:52:18.734319,-80.0
2023-08-12 18:52:18.742008,-88.0
2023-08-12 18:52:18.749698,-76.0
2023-08-12 18:52:18.757388,-66.0
2023-08-12 18:52:18.765077,-66.0
2023-08-12 18:52:18.772767,-59.0
2023-08-12 18:52:18.780456,-54.0
2023-08-12 18:52:18.788146,-54.0
2023-08-12 18:52:18.795835,-47.0
2023-08-12 18:52:18.803525,-42.0
2023-08-12 18:52:18.811214,-42.0
2023-08-12 18:52:18.818904,-35.0
2023-08-12 18:52:18.826593,-26.0
2023-08-12 18:52:18.834283,-21.0
2023-08-12 18:52:18.841972,-16.0
2023-08-12 18:52:18.849662,-9.0
2023-08-12 18:52:18.857351,-4.0
2023-08-12 18:52:18.865041,0.0
2023-08-12 18:52:18.872731,11.0
2023-08-12 18:52:18.880420,19.0
2023-08-12 18:52:18.888110,26.0
2023-08-12 18:52:18.895799,30.0
2023-08-12 18:52:18.903489,30.0
2023-08-12 18:52:18.911178,28.0
2023-08-12 18:52:18.918868,26.0
2023-08-12 18:52:18.926557,19.0
2023-08-12 18:52:18.934247,7.0
2023-08-12 18:52:18.941936,-9.0
2023-08-12 18:52:18.949626,-30.0
2023-08-12 18:52:18.957315,-52.0
2023-08-12 18:52:18.965005,-69.0
2023-08-12 18:52:18.972694,-80.0
2023-08-12 18:52:18.980384,-90.0
2023-08-12 18:52:18.988074,-102.0
2023-08-12 18:52:18.995763,-109.0
2023-08-12 18:52:19.003453,-116.0
2023-08-12 18:52:19.011142,-116.0
2023-08-12 18:52:19.018832,-116.0
2023-08-12 18:52:19.026521,-123.0
2023-08-12 18:52:19.034211,-128.0
2023-08-12 18:52:19.041900,-123.0
2023-08-12 18:52:19.049590,-119.0
2023-08-12 18:52:19.057279,-116.0
2023-08-12 18:52:19.064969,-114.0
2023-08-12 18:52:19.072658,-111.0
2023-08-12 18:52:19.080348,-109.0
2023-08-12 18:52:19.088037,-107.0
2023-08-12 18:52:19.095727,-102.0
2023-08-12 18:52:19.103417,-97.0
2023-08-12 18:52:19.111106,-92.0
2023-08-12 18:52:19.118796,-92.0
2023-08-12 18:52:19.126485,-90.0
2023-08-12 18:52:19.134175,-90.0
2023-08-12 18:52:19.141864,-85.0
2023-08-12 18:52:19.149554,-80.0
2023-08-12 18:52:19.157243,-80.0
2023-08-12 18:52:19.164933,-80.0
2023-08-12 18:52:19.172622,-80.0
2023-08-12 18:52:19.180312,-80.0
2023-08-12 18:52:19.188001,-80.0
2023-08-12 18:52:19.195691,-78.0
2023-08-12 18:52:19.203380,-76.0
2023-08-12 18:52:19.211070,-80.0
2023-08-12 18:52:19.218760,-88.0
2023-08-12 18:52:19.226449,-92.0
2023-08-12 18:52:19.234139,-90.0
2023-08-12 18:52:19.241828,-90.0
2023-08-12 18:52:19.249518,-90.0
2023-08-12 18:52:19.257207,-88.0
2023-08-12 18:52:19.264897,-85.0
2023-08-12 18:52:19.272586,-85.0
2023-08-12 18:52:19.280276,-80.0
2023-08-12 18:52:19.287965,-80.0
2023-08-12 18:52:19.295655,-80.0
2023-08-12 18:52:19.303344,-78.0
2023-08-12 18:52:19.311034,-76.0
2023-08-12 18:52:19.318723,-76.0
2023-08-12 18:52:19.326413,-73.0
2023-08-12 18:52:19.334103,-73.0
2023-08-12 18:52:19.341792,-73.0
2023-08-12 18:52:19.349482,-73.0
2023-08-12 18:52:19.357171,-71.0
2023-08-12 18:52:19.364861,-71.0
2023-08-12 18:52:19.372550,-69.0
2023-08-12 18:52:19.380240,-66.0
2023-08-12 18:52:19.387929,-66.0
2023-08-12 18:52:19.395619,-64.0
2023-08-12 18:52:19.403308,-64.0
2023-08-12 18:52:19.410998,-64.0
2023-08-12 18:52:19.418687,-64.0
2023-08-12 18:52:19.426377,-59.0
2023-08-12 18:52:19.434066,-61.0
2023-08-12 18:52:19.441756,-64.0
2023-08-12 18:52:19.449445,-61.0
2023-08-12 18:52:19.457135,-59.0
2023-08-12 18:52:19.464825,-59.0
2023-08-12 18:52:19.472514,-61.0
2023-08-12 18:52:19.480204,-64.0
2023-08-12 18:52:19.487893,-61.0
2023-08-12 18:52:19.495583,-57.0
2023-08-12 18:52:19.503272,-54.0
2023-08-12 18:52:19.510962,-42.0
2023-08-12 18:52:19.518651,-16.0
2023-08-12 18:52:19.526341,0.0
2023-08-12 18:52:19.534030,-9.0
2023-08-12 18:52:19.541720,-35.0
2023-08-12 18:52:19.549409,-49.0
2023-08-12 18:52:19.557099,-57.0
2023-08-12 18:52:19.564788,-73.0
2023-08-12 18:52:19.572478,-85.0
2023-08-12 18:52:19.580168,-80.0
2023-08-12 18:52:19.587857,-78.0
2023-08-12 18:52:19.595547,-78.0
2023-08-12 18:52:19.603236,-73.0
2023-08-12 18:52:19.610926,-66.0
2023-08-12 18:52:19.618615,-14.0
2023-08-12 18:52:19.626305,228.0
2023-08-12 18:52:19.633994,673.0
2023-08-12 18:52:19.641684,949.0
2023-08-12 18:52:19.649373,526.0
2023-08-12 18:52:19.657063,-366.0
2023-08-12 18:52:19.664752,-666.0
2023-08-12 18:52:19.672442,-335.0
2023-08-12 18:52:19.680131,-173.0
2023-08-12 18:52:19.687821,-169.0
2023-08-12 18:52:19.695511,-95.0
2023-08-12 18:52:19.703200,-85.0
2023-08-12 18:52:19.710890,-111.0
2023-08-12 18:52:19.718579,-90.0
2023-08-12 18:52:19.726269,-76.0
2023-08-12 18:52:19.733958,-85.0
2023-08-12 18:52:19.741648,-78.0
2023-08-12 18:52:19.749337,-66.0
2023-08-12 18:52:19.757027,-71.0
2023-08-12 18:52:19.764716,-69.0
2023-08-12 18:52:19.772406,-57.0
2023-08-12 18:52:19.780095,-49.0
2023-08-12 18:52:19.787785,-49.0
2023-08-12 18:52:19.795474,-40.0
2023-08-12 18:52:19.803164,-33.0
2023-08-12 18:52:19.810854,-26.0
2023-08-12 18:52:19.818543,-23.0
2023-08-12 18:52:19.826233,-21.0
2023-08-12 18:52:19.833922,-14.0
2023-08-12 18:52:19.841612,-4.0
2023-08-12 18:52:19.849301,0.0
2023-08-12 18:52:19.856991,9.0
2023-08-12 18:52:19.864680,21.0
2023-08-12 18:52:19.872370,30.0
2023-08-12 18:52:19.880059,40.0
2023-08-12 18:52:19.887749,47.0
2023-08-12 18:52:19.895438,52.0
2023-08-12 18:52:19.903128,54.0
2023-08-12 18:52:19.910817,47.0
2023-08-12 18:52:19.918507,35.0
2023-08-12 18:52:19.926197,28.0
2023-08-12 18:52:19.933886,16.0
2023-08-12 18:52:19.941576,-7.0
2023-08-12 18:52:19.949265,-28.0
2023-08-12 18:52:19.956955,-47.0
2023-08-12 18:52:19.964644,-66.0
2023-08-12 18:52:19.972334,-83.0
2023-08-12 18:52:19.980023,-92.0
2023-08-12 18:52:19.987713,-99.0
2023-08-12 18:52:19.995402,-109.0
2023-08-12 18:52:20.003092,-114.0
2023-08-12 18:52:20.010781,-114.0
2023-08-12 18:52:20.018471,-116.0
2023-08-12 18:52:20.026160,-116.0
2023-08-12 18:52:20.033850,-116.0
2023-08-12 18:52:20.041540,-119.0
2023-08-12 18:52:20.049229,-114.0
2023-08-12 18:52:20.056919,-111.0
2023-08-12 18:52:20.064608,-111.0
2023-08-12 18:52:20.072298,-107.0
2023-08-12 18:52:20.079987,-99.0
2023-08-12 18:52:20.087677,-95.0
2023-08-12 18:52:20.095366,-97.0
2023-08-12 18:52:20.103056,-97.0
2023-08-12 18:52:20.110745,-95.0
2023-08-12 18:52:20.118435,-92.0
2023-08-12 18:52:20.126124,-90.0
2023-08-12 18:52:20.133814,-88.0
2023-08-12 18:52:20.141503,-83.0
2023-08-12 18:52:20.149193,-80.0
2023-08-12 18:52:20.156883,-80.0
2023-08-12 18:52:20.164572,-83.0
2023-08-12 18:52:20.172262,-83.0
2023-08-12 18:52:20.179951,-80.0
2023-08-12 18:52:20.187641,-80.0
2023-08-12 18:52:20.195330,-80.0
2023-08-12 18:52:20.203020,-78.0
2023-08-12 18:52:20.210709,-83.0
2023-08-12 18:52:20.218399,-85.0
2023-08-12 18:52:20.226088,-80.0
2023-08-12 18:52:20.233778,-80.0
2023-08-12 18:52:20.241467,-80.0
2023-08-12 18:52:20.249157,-80.0
2023-08-12 18:52:20.256846,-76.0
2023-08-12 18:52:20.264536,-78.0
2023-08-12 18:52:20.272226,-76.0
2023-08-12 18:52:20.279915,-73.0
2023-08-12 18:52:20.287605,-76.0
2023-08-12 18:52:20.295294,-83.0
2023-08-12 18:52:20.302984,-85.0
2023-08-12 18:52:20.310673,-80.0
2023-08-12 18:52:20.318363,-80.0
2023-08-12 18:52:20.326052,-80.0
2023-08-12 18:52:20.333742,-80.0
2023-08-12 18:52:20.341431,-76.0
2023-08-12 18:52:20.349121,-73.0
2023-08-12 18:52:20.356810,-73.0
2023-08-12 18:52:20.364500,-73.0
2023-08-12 18:52:20.372189,-76.0
2023-08-12 18:52:20.379879,-78.0
2023-08-12 18:52:20.387568,-78.0
2023-08-12 18:52:20.395258,-73.0
2023-08-12 18:52:20.402948,-73.0
2023-08-12 18:52:20.410637,-61.0
2023-08-12 18:52:20.418327,-38.0
2023-08-12 18:52:20.426016,-16.0
2023-08-12 18:52:20.433706,-14.0
2023-08-12 18:52:20.441395,-33.0
2023-08-12 18:52:20.449085,-54.0
2023-08-12 18:52:20.456774,-64.0
2023-08-12 18:52:20.464464,-76.0
2023-08-12 18:52:20.472153,-90.0
2023-08-12 18:52:20.479843,-88.0
2023-08-12 18:52:20.487532,-80.0
2023-08-12 18:52:20.495222,-80.0
2023-08-12 18:52:20.502911,-80.0
2023-08-12 18:52:20.510601,-73.0
2023-08-12 18:52:20.518291,-19.0
2023-08-12 18:52:20.525980,204.0
2023-08-12 18:52:20.533670,616.0
2023-08-12 18:52:20.541359,899.0
2023-08-12 18:52:20.549049,523.0
2023-08-12 18:52:20.556738,-361.0
2023-08-12 18:52:20.564428,-716.0
2023-08-12 18:52:20.572117,-397.0
2023-08-12 18:52:20.579807,-211.0
2023-08-12 18:52:20.587496,-195.0
2023-08-12 18:52:20.595186,-95.0
2023-08-12 18:52:20.602875,-73.0
2023-08-12 18:52:20.610565,-111.0
2023-08-12 18:52:20.618254,-88.0
2023-08-12 18:52:20.625944,-64.0
2023-08-12 18:52:20.633634,-71.0
2023-08-12 18:52:20.641323,-66.0
2023-08-12 18:52:20.649013,-54.0
2023-08-12 18:52:20.656702,-54.0
2023-08-12 18:52:20.664392,-49.0
2023-08-12 18:52:20.672081,-40.0
2023-08-12 18:52:20.679771,-35.0
2023-08-12 18:52:20.687460,-28.0
2023-08-12 18:52:20.695150,-21.0
2023-08-12 18:52:20.702839,-19.0
2023-08-12 18:52:20.710529,-14.0
2023-08-12 18:52:20.718218,-9.0
2023-08-12 18:52:20.725908,-2.0
2023-08-12 18:52:20.733597,4.0
2023-08-12 18:52:20.741287,14.0
2023-08-12 18:52:20.748977,21.0
2023-08-12 18:52:20.756666,28.0
2023-08-12 18:52:20.764356,40.0
2023-08-12 18:52:20.772045,52.0
2023-08-12 18:52:20.779735,61.0
2023-08-12 18:52:20.787424,71.0
2023-08-12 18:52:20.795114,76.0
2023-08-12 18:52:20.802803,73.0
2023-08-12 18:52:20.810493,73.0
2023-08-12 18:52:20.818182,69.0
2023-08-12 18:52:20.825872,54.0
2023-08-12 18:52:20.833561,38.0
2023-08-12 18:52:20.841251,16.0
2023-08-12 18:52:20.848940,-9.0
2023-08-12 18:52:20.856630,-33.0
2023-08-12 18:52:20.864320,-57.0
2023-08-12 18:52:20.872009,-76.0
2023-08-12 18:52:20.879699,-97.0
2023-08-12 18:52:20.887388,-114.0
2023-08-12 18:52:20.895078,-121.0
2023-08-12 18:52:20.902767,-123.0
2023-08-12 18:52:20.910457,-128.0
2023-08-12 18:52:20.918146,-130.0
2023-08-12 18:52:20.925836,-133.0
2023-08-12 18:52:20.933525,-138.0
2023-08-12 18:52:20.941215,-130.0
2023-08-12 18:52:20.948904,-123.0
2023-08-12 18:52:20.956594,-126.0
2023-08-12 18:52:20.964283,-123.0
2023-08-12 18:52:20.971973,-114.0
2023-08-12 18:52:20.979663,-111.0
2023-08-12 18:52:20.987352,-111.0
2023-08-12 18:52:20.995042,-104.0
2023-08-12 18:52:21.002731,-97.0
2023-08-12 18:52:21.010421,-97.0
2023-08-12 18:52:21.018110,-99.0
2023-08-12 18:52:21.025800,-95.0
2023-08-12 18:52:21.033489,-92.0
2023-08-12 18:52:21.041179,-95.0
2023-08-12 18:52:21.048868,-95.0
2023-08-12 18:52:21.056558,-92.0
2023-08-12 18:52:21.064247,-92.0
2023-08-12 18:52:21.071937,-92.0
2023-08-12 18:52:21.079626,-92.0
2023-08-12 18:52:21.087316,-90.0
2023-08-12 18:52:21.095006,-90.0
2023-08-12 18:52:21.102695,-90.0
2023-08-12 18:52:21.110385,-92.0
2023-08-12 18:52:21.118074,-88.0
2023-08-12 18:52:21.125764,-85.0
2023-08-12 18:52:21.133453,-85.0
2023-08-12 18:52:21.141143,-83.0
2023-08-12 18:52:21.148832,-83.0
2023-08-12 18:52:21.156522,-83.0
2023-08-12 18:52:21.164211,-80.0
2023-08-12 18:52:21.171901,-80.0
2023-08-12 18:52:21.179590,-78.0
2023-08-12 18:52:21.187280,-73.0
2023-08-12 18:52:21.194969,-73.0
2023-08-12 18:52:21.202659,-78.0
2023-08-12 18:52:21.210348,-80.0
2023-08-12 18:52:21.218038,-78.0
2023-08-12 18:52:21.225728,-76.0
2023-08-12 18:52:21.233417,-76.0
2023-08-12 18:52:21.241107,-78.0
2023-08-12 18:52:21.248796,-76.0
2023-08-12 18:52:21.256486,-66.0
2023-08-12 18:52:21.264175,-49.0
2023-08-12 18:52:21.271865,-26.0
2023-08-12 18:52:21.279554,-11.0
2023-08-12 18:52:21.287244,-21.0
2023-08-12 18:52:21.294933,-45.0
2023-08-12 18:52:21.302623,-57.0
2023-08-12 18:52:21.310312,-61.0
2023-08-12 18:52:21.318002,-76.0
2023-08-12 18:52:21.325691,-83.0
2023-08-12 18:52:21.333381,-78.0
2023-08-12 18:52:21.341071,-76.0
2023-08-12 18:52:21.348760,-76.0
2023-08-12 18:52:21.356450,-71.0
2023-08-12 18:52:21.364139,-57.0
2023-08-12 18:52:21.371829,57.0
2023-08-12 18:52:21.379518,404.0
2023-08-12 18:52:21.387208,861.0
2023-08-12 18:52:21.394897,918.0
2023-08-12 18:52:21.402587,202.0
2023-08-12 18:52:21.410276,-595.0
2023-08-12 18:52:21.417966,-573.0
2023-08-12 18:52:21.425655,-235.0
2023-08-12 18:52:21.433345,-180.0
2023-08-12 18:52:21.441034,-138.0
2023-08-12 18:52:21.448724,-71.0
2023-08-12 18:52:21.456414,-97.0
2023-08-12 18:52:21.464103,-114.0
2023-08-12 18:52:21.471793,-90.0
2023-08-12 18:52:21.479482,-88.0
2023-08-12 18:52:21.487172,-88.0
2023-08-12 18:52:21.494861,-76.0
2023-08-12 18:52:21.502551,-69.0
2023-08-12 18:52:21.510240,-71.0
2023-08-12 18:52:21.517930,-73.0
2023-08-12 18:52:21.525619,-64.0
2023-08-12 18:52:21.533309,-57.0
2023-08-12 18:52:21.540998,-52.0
2023-08-12 18:52:21.548688,-47.0
2023-08-12 18:52:21.556377,-45.0
2023-08-12 18:52:21.564067,-40.0
2023-08-12 18:52:21.571757,-30.0
2023-08-12 18:52:21.579446,-23.0
2023-08-12 18:52:21.587136,-16.0
2023-08-12 18:52:21.594825,-7.0
2023-08-12 18:52:21.602515,0.0
2023-08-12 18:52:21.610204,9.0
2023-08-12 18:52:21.617894,21.0
2023-08-12 18:52:21.625583,30.0
2023-08-12 18:52:21.633273,40.0
2023-08-12 18:52:21.640962,47.0
2023-08-12 18:52:21.648652,47.0
2023-08-12 18:52:21.656341,49.0
2023-08-12 18:52:21.664031,45.0
2023-08-12 18:52:21.671720,33.0
2023-08-12 18:52:21.679410,21.0
2023-08-12 18:52:21.687100,4.0
2023-08-12 18:52:21.694789,-21.0
2023-08-12 18:52:21.702479,-49.0
2023-08-12 18:52:21.710168,-69.0
2023-08-12 18:52:21.717858,-85.0
2023-08-12 18:52:21.725547,-99.0
2023-08-12 18:52:21.733237,-109.0
2023-08-12 18:52:21.740926,-116.0
2023-08-12 18:52:21.748616,-121.0
2023-08-12 18:52:21.756305,-123.0
2023-08-12 18:52:21.763995,-126.0
2023-08-12 18:52:21.771684,-126.0
2023-08-12 18:52:21.779374,-123.0
2023-08-12 18:52:21.787063,-121.0
2023-08-12 18:52:21.794753,-116.0
2023-08-12 18:52:21.802443,-114.0
2023-08-12 18:52:21.810132,-114.0
2023-08-12 18:52:21.817822,-109.0
2023-08-12 18:52:21.825511,-102.0
2023-08-12 18:52:21.833201,-99.0
2023-08-12 18:52:21.840890,-97.0
2023-08-12 18:52:21.848580,-90.0
2023-08-12 18:52:21.856269,-88.0
2023-08-12 18:52:21.863959,-88.0
2023-08-12 18:52:21.871648,-85.0
2023-08-12 18:52:21.879338,-80.0
2023-08-12 18:52:21.887027,-78.0
2023-08-12 18:52:21.894717,-78.0
2023-08-12 18:52:21.902406,-76.0
2023-08-12 18:52:21.910096,-76.0
2023-08-12 18:52:21.917786,-76.0
2023-08-12 18:52:21.925475,-78.0
2023-08-12 18:52:21.933165,-78.0
2023-08-12 18:52:21.940854,-80.0
2023-08-12 18:52:21.948544,-80.0
2023-08-12 18:52:21.956233,-80.0
2023-08-12 18:52:21.963923,-80.0
2023-08-12 18:52:21.971612,-80.0
2023-08-12 18:52:21.979302,-78.0
2023-08-12 18:52:21.986991,-78.0
2023-08-12 18:52:21.994681,-80.0
2023-08-12 18:52:22.002370,-80.0
2023-08-12 18:52:22.010060,-85.0
2023-08-12 18:52:22.017749,-85.0
2023-08-12 18:52:22.025439,-83.0
2023-08-12 18:52:22.033128,-80.0
2023-08-12 18:52:22.040818,-80.0
2023-08-12 18:52:22.048508,-78.0
2023-08-12 18:52:22.056197,-80.0
2023-08-12 18:52:22.063887,-83.0
2023-08-12 18:52:22.071576,-83.0
2023-08-12 18:52:22.079266,-80.0
2023-08-12 18:52:22.086955,-85.0
2023-08-12 18:52:22.094645,-90.0
2023-08-12 18:52:22.102334,-92.0
2023-08-12 18:52:22.110024,-88.0
2023-08-12 18:52:22.117713,-80.0
2023-08-12 18:52:22.125403,-64.0
2023-08-12 18:52:22.133092,-40.0
2023-08-12 18:52:22.140782,-21.0
2023-08-12 18:52:22.148471,-26.0
2023-08-12 18:52:22.156161,-49.0
2023-08-12 18:52:22.163851,-59.0
2023-08-12 18:52:22.171540,-66.0
2023-08-12 18:52:22.179230,-85.0
2023-08-12 18:52:22.186919,-95.0
2023-08-12 18:52:22.194609,-88.0
2023-08-12 18:52:22.202298,-83.0
2023-08-12 18:52:22.209988,-83.0
2023-08-12 18:52:22.217677,-78.0
2023-08-12 18:52:22.225367,-71.0
2023-08-12 18:52:22.233056,14.0
2023-08-12 18:52:22.240746,330.0
2023-08-12 18:52:22.248435,828.0
2023-08-12 18:52:22.256125,1035.0
2023-08-12 18:52:22.263814,440.0
2023-08-12 18:52:22.271504,-466.0
2023-08-12 18:52:22.279194,-616.0
2023-08-12 18:52:22.286883,-261.0
2023-08-12 18:52:22.294573,-164.0
2023-08-12 18:52:22.302262,-159.0
2023-08-12 18:52:22.309952,-88.0
2023-08-12 18:52:22.317641,-92.0
2023-08-12 18:52:22.325331,-114.0
2023-08-12 18:52:22.333020,-85.0
2023-08-12 18:52:22.340710,-73.0
2023-08-12 18:52:22.348399,-78.0
2023-08-12 18:52:22.356089,-69.0
2023-08-12 18:52:22.363778,-59.0
2023-08-12 18:52:22.371468,-59.0
2023-08-12 18:52:22.379157,-52.0
2023-08-12 18:52:22.386847,-45.0
2023-08-12 18:52:22.394537,-38.0
2023-08-12 18:52:22.402226,-35.0
2023-08-12 18:52:22.409916,-30.0
2023-08-12 18:52:22.417605,-26.0
2023-08-12 18:52:22.425295,-21.0
2023-08-12 18:52:22.432984,-19.0
2023-08-12 18:52:22.440674,-16.0
2023-08-12 18:52:22.448363,-9.0
2023-08-12 18:52:22.456053,-2.0
2023-08-12 18:52:22.463742,0.0
2023-08-12 18:52:22.471432,7.0
2023-08-12 18:52:22.479121,16.0
2023-08-12 18:52:22.486811,23.0
2023-08-12 18:52:22.494500,28.0
2023-08-12 18:52:22.502190,33.0
2023-08-12 18:52:22.509880,33.0
2023-08-12 18:52:22.517569,33.0
2023-08-12 18:52:22.525259,28.0
2023-08-12 18:52:22.532948,21.0
2023-08-12 18:52:22.540638,2.0
2023-08-12 18:52:22.548327,-23.0
2023-08-12 18:52:22.556017,-47.0
2023-08-12 18:52:22.563706,-69.0
2023-08-12 18:52:22.571396,-90.0
2023-08-12 18:52:22.579085,-102.0
2023-08-12 18:52:22.586775,-109.0
2023-08-12 18:52:22.594464,-119.0
2023-08-12 18:52:22.602154,-123.0
2023-08-12 18:52:22.609843,-126.0
2023-08-12 18:52:22.617533,-130.0
2023-08-12 18:52:22.625223,-133.0
2023-08-12 18:52:22.632912,-133.0
2023-08-12 18:52:22.640602,-130.0
2023-08-12 18:52:22.648291,-128.0
2023-08-12 18:52:22.655981,-123.0
2023-08-12 18:52:22.663670,-123.0
2023-08-12 18:52:22.671360,-119.0
2023-08-12 18:52:22.679049,-116.0
2023-08-12 18:52:22.686739,-116.0
2023-08-12 18:52:22.694428,-111.0
2023-08-12 18:52:22.702118,-107.0
2023-08-12 18:52:22.709807,-104.0
2023-08-12 18:52:22.717497,-99.0
2023-08-12 18:52:22.725186,-97.0
2023-08-12 18:52:22.732876,-97.0
2023-08-12 18:52:22.740566,-95.0
2023-08-12 18:52:22.748255,-90.0
2023-08-12 18:52:22.755945,-92.0
2023-08-12 18:52:22.763634,-97.0
2023-08-12 18:52:22.771324,-99.0
2023-08-12 18:52:22.779013,-95.0
2023-08-12 18:52:22.786703,-95.0
2023-08-12 18:52:22.794392,-95.0
2023-08-12 18:52:22.802082,-92.0
2023-08-12 18:52:22.809771,-90.0
2023-08-12 18:52:22.817461,-92.0
2023-08-12 18:52:22.825150,-92.0
2023-08-12 18:52:22.832840,-90.0
2023-08-12 18:52:22.840529,-90.0
2023-08-12 18:52:22.848219,-88.0
2023-08-12 18:52:22.855908,-88.0
2023-08-12 18:52:22.863598,-88.0
2023-08-12 18:52:22.871288,-85.0
2023-08-12 18:52:22.878977,-83.0
2023-08-12 18:52:22.886667,-83.0
2023-08-12 18:52:22.894356,-80.0
2023-08-12 18:52:22.902046,-78.0
2023-08-12 18:52:22.909735,-78.0
2023-08-12 18:52:22.917425,-80.0
2023-08-12 18:52:22.925114,-80.0
2023-08-12 18:52:22.932804,-78.0
2023-08-12 18:52:22.940493,-76.0
2023-08-12 18:52:22.948183,-76.0
2023-08-12 18:52:22.955872,-80.0
2023-08-12 18:52:22.963562,-80.0
2023-08-12 18:52:22.971251,-78.0
2023-08-12 18:52:22.978941,-76.0
2023-08-12 18:52:22.986631,-71.0
2023-08-12 18:52:22.994320,-59.0
2023-08-12 18:52:23.002010,-45.0
2023-08-12 18:52:23.009699,-21.0
2023-08-12 18:52:23.017389,-2.0
2023-08-12 18:52:23.025078,-21.0
2023-08-12 18:52:23.032768,-52.0
2023-08-12 18:52:23.040457,-59.0
2023-08-12 18:52:23.048147,-66.0
2023-08-12 18:52:23.055836,-78.0
2023-08-12 18:52:23.063526,-78.0
2023-08-12 18:52:23.071215,-73.0
2023-08-12 18:52:23.078905,-71.0
2023-08-12 18:52:23.086594,-73.0
2023-08-12 18:52:23.094284,-71.0
2023-08-12 18:52:23.101974,-45.0
2023-08-12 18:52:23.109663,109.0
2023-08-12 18:52:23.117353,497.0
2023-08-12 18:52:23.125042,933.0
2023-08-12 18:52:23.132732,849.0
2023-08-12 18:52:23.140421,16.0
2023-08-12 18:52:23.148111,-656.0
2023-08-12 18:52:23.155800,-480.0
2023-08-12 18:52:23.163490,-183.0
2023-08-12 18:52:23.171179,-176.0
2023-08-12 18:52:23.178869,-130.0
2023-08-12 18:52:23.186558,-76.0
2023-08-12 18:52:23.194248,-107.0
2023-08-12 18:52:23.201937,-104.0
2023-08-12 18:52:23.209627,-71.0
2023-08-12 18:52:23.217317,-73.0
2023-08-12 18:52:23.225006,-80.0
2023-08-12 18:52:23.232696,-66.0
2023-08-12 18:52:23.240385,-59.0
2023-08-12 18:52:23.248075,-57.0
2023-08-12 18:52:23.255764,-47.0
2023-08-12 18:52:23.263454,-45.0
2023-08-12 18:52:23.271143,-45.0
2023-08-12 18:52:23.278833,-38.0
2023-08-12 18:52:23.286522,-28.0
2023-08-12 18:52:23.294212,-21.0
2023-08-12 18:52:23.301901,-19.0
2023-08-12 18:52:23.309591,-14.0
2023-08-12 18:52:23.317280,-4.0
2023-08-12 18:52:23.324970,0.0
2023-08-12 18:52:23.332660,2.0
2023-08-12 18:52:23.340349,14.0
2023-08-12 18:52:23.348039,21.0
2023-08-12 18:52:23.355728,28.0
2023-08-12 18:52:23.363418,35.0
2023-08-12 18:52:23.371107,42.0
2023-08-12 18:52:23.378797,45.0
2023-08-12 18:52:23.386486,45.0
2023-08-12 18:52:23.394176,40.0
2023-08-12 18:52:23.401865,35.0
2023-08-12 18:52:23.409555,28.0
2023-08-12 18:52:23.417244,9.0
2023-08-12 18:52:23.424934,-16.0
2023-08-12 18:52:23.432623,-35.0
2023-08-12 18:52:23.440313,-57.0
2023-08-12 18:52:23.448003,-78.0
2023-08-12 18:52:23.455692,-88.0
2023-08-12 18:52:23.463382,-95.0
2023-08-12 18:52:23.471071,-109.0
2023-08-12 18:52:23.478761,-116.0
2023-08-12 18:52:23.486450,-126.0
2023-08-12 18:52:23.494140,-128.0
2023-08-12 18:52:23.501829,-123.0
2023-08-12 18:52:23.509519,-123.0
2023-08-12 18:52:23.517208,-128.0
2023-08-12 18:52:23.524898,-123.0
2023-08-12 18:52:23.532587,-123.0
2023-08-12 18:52:23.540277,-126.0
2023-08-12 18:52:23.547966,-119.0
2023-08-12 18:52:23.555656,-114.0
2023-08-12 18:52:23.563346,-111.0
2023-08-12 18:52:23.571035,-111.0
2023-08-12 18:52:23.578725,-109.0
2023-08-12 18:52:23.586414,-104.0
2023-08-12 18:52:23.594104,-102.0
2023-08-12 18:52:23.601793,-97.0
2023-08-12 18:52:23.609483,-97.0
2023-08-12 18:52:23.617172,-99.0
2023-08-12 18:52:23.624862,-99.0
2023-08-12 18:52:23.632551,-95.0
2023-08-12 18:52:23.640241,-92.0
2023-08-12 18:52:23.647930,-92.0
2023-08-12 18:52:23.655620,-92.0
2023-08-12 18:52:23.663309,-92.0
2023-08-12 18:52:23.670999,-102.0
2023-08-12 18:52:23.678689,-107.0
2023-08-12 18:52:23.686378,-107.0
2023-08-12 18:52:23.694068,-104.0
2023-08-12 18:52:23.701757,-102.0
2023-08-12 18:52:23.709447,-99.0
2023-08-12 18:52:23.717136,-99.0
2023-08-12 18:52:23.724826,-97.0
2023-08-12 18:52:23.732515,-92.0
2023-08-12 18:52:23.740205,-92.0
2023-08-12 18:52:23.747894,-95.0
2023-08-12 18:52:23.755584,-92.0
2023-08-12 18:52:23.763273,-97.0
2023-08-12 18:52:23.770963,-95.0
2023-08-12 18:52:23.778652,-90.0
2023-08-12 18:52:23.786342,-88.0
2023-08-12 18:52:23.794031,-85.0
2023-08-12 18:52:23.801721,-83.0
2023-08-12 18:52:23.809411,-85.0
2023-08-12 18:52:23.817100,-85.0
2023-08-12 18:52:23.824790,-83.0
2023-08-12 18:52:23.832479,-78.0
2023-08-12 18:52:23.840169,-71.0
2023-08-12 18:52:23.847858,-61.0
2023-08-12 18:52:23.855548,-40.0
2023-08-12 18:52:23.863237,-16.0
2023-08-12 18:52:23.870927,-11.0
2023-08-12 18:52:23.878616,-38.0
2023-08-12 18:52:23.886306,-61.0
2023-08-12 18:52:23.893995,-66.0
2023-08-12 18:52:23.901685,-78.0
2023-08-12 18:52:23.909374,-92.0
2023-08-12 18:52:23.917064,-88.0
2023-08-12 18:52:23.924754,-83.0
2023-08-12 18:52:23.932443,-83.0
2023-08-12 18:52:23.940133,-83.0
2023-08-12 18:52:23.947822,-73.0
2023-08-12 18:52:23.955512,-28.0
2023-08-12 18:52:23.963201,157.0
2023-08-12 18:52:23.970891,540.0
2023-08-12 18:52:23.978580,856.0
2023-08-12 18:52:23.986270,576.0
2023-08-12 18:52:23.993959,-271.0
2023-08-12 18:52:24.001649,-695.0
2023-08-12 18:52:24.009338,-409.0
2023-08-12 18:52:24.017028,-197.0
2023-08-12 18:52:24.024717,-176.0
2023-08-12 18:52:24.032407,-80.0
2023-08-12 18:52:24.040097,-49.0
2023-08-12 18:52:24.047786,-85.0
2023-08-12 18:52:24.055476,-69.0
2023-08-12 18:52:24.063165,-47.0
2023-08-12 18:52:24.070855,-49.0
2023-08-12 18:52:24.078544,-45.0
2023-08-12 18:52:24.086234,-38.0
2023-08-12 18:52:24.093923,-35.0
2023-08-12 18:52:24.101613,-30.0
2023-08-12 18:52:24.109302,-26.0
2023-08-12 18:52:24.116992,-21.0
2023-08-12 18:52:24.124681,-14.0
2023-08-12 18:52:24.132371,-9.0
2023-08-12 18:52:24.140060,-7.0
2023-08-12 18:52:24.147750,-2.0
2023-08-12 18:52:24.155440,4.0
2023-08-12 18:52:24.163129,7.0
2023-08-12 18:52:24.170819,9.0
2023-08-12 18:52:24.178508,21.0
2023-08-12 18:52:24.186198,30.0
2023-08-12 18:52:24.193887,38.0
2023-08-12 18:52:24.201577,45.0
2023-08-12 18:52:24.209266,47.0
2023-08-12 18:52:24.216956,52.0
2023-08-12 18:52:24.224645,57.0
2023-08-12 18:52:24.232335,59.0
2023-08-12 18:52:24.240024,61.0
2023-08-12 18:52:24.247714,61.0
2023-08-12 18:52:24.255403,52.0
2023-08-12 18:52:24.263093,33.0
2023-08-12 18:52:24.270783,14.0
2023-08-12 18:52:24.278472,2.0
2023-08-12 18:52:24.286162,-16.0
2023-08-12 18:52:24.293851,-45.0
2023-08-12 18:52:24.301541,-66.0
2023-08-12 18:52:24.309230,-80.0
2023-08-12 18:52:24.316920,-99.0
2023-08-12 18:52:24.324609,-111.0
2023-08-12 18:52:24.332299,-116.0
2023-08-12 18:52:24.339988,-123.0
2023-08-12 18:52:24.347678,-128.0
2023-08-12 18:52:24.355367,-126.0
2023-08-12 18:52:24.363057,-123.0
2023-08-12 18:52:24.370746,-126.0
2023-08-12 18:52:24.378436,-121.0
2023-08-12 18:52:24.386126,-121.0
2023-08-12 18:52:24.393815,-123.0
2023-08-12 18:52:24.401505,-123.0
2023-08-12 18:52:24.409194,-123.0
2023-08-12 18:52:24.416884,-119.0
2023-08-12 18:52:24.424573,-116.0
2023-08-12 18:52:24.432263,-114.0
2023-08-12 18:52:24.439952,-109.0
2023-08-12 18:52:24.447642,-107.0
2023-08-12 18:52:24.455331,-102.0
2023-08-12 18:52:24.463021,-99.0
2023-08-12 18:52:24.470710,-104.0
2023-08-12 18:52:24.478400,-104.0
2023-08-12 18:52:24.486089,-104.0
2023-08-12 18:52:24.493779,-107.0
2023-08-12 18:52:24.501469,-107.0
2023-08-12 18:52:24.509158,-104.0
2023-08-12 18:52:24.516848,-99.0
2023-08-12 18:52:24.524537,-99.0
2023-08-12 18:52:24.532227,-102.0
2023-08-12 18:52:24.539916,-97.0
2023-08-12 18:52:24.547606,-97.0
2023-08-12 18:52:24.555295,-97.0
2023-08-12 18:52:24.562985,-95.0
2023-08-12 18:52:24.570674,-97.0
2023-08-12 18:52:24.578364,-97.0
2023-08-12 18:52:24.586053,-92.0
2023-08-12 18:52:24.593743,-90.0
2023-08-12 18:52:24.601432,-92.0
2023-08-12 18:52:24.609122,-95.0
2023-08-12 18:52:24.616811,-95.0
2023-08-12 18:52:24.624501,-90.0
2023-08-12 18:52:24.632191,-83.0
2023-08-12 18:52:24.639880,-69.0
2023-08-12 18:52:24.647570,-49.0
2023-08-12 18:52:24.655259,-33.0
2023-08-12 18:52:24.662949,-33.0
2023-08-12 18:52:24.670638,-52.0
2023-08-12 18:52:24.678328,-69.0
2023-08-12 18:52:24.686017,-76.0
2023-08-12 18:52:24.693707,-88.0
2023-08-12 18:52:24.701396,-95.0
2023-08-12 18:52:24.709086,-92.0
2023-08-12 18:52:24.716775,-88.0
2023-08-12 18:52:24.724465,-88.0
2023-08-12 18:52:24.732154,-85.0
2023-08-12 18:52:24.739844,-76.0
2023-08-12 18:52:24.747534,-26.0
2023-08-12 18:52:24.755223,166.0
2023-08-12 18:52:24.762913,561.0
2023-08-12 18:52:24.770602,883.0
2023-08-12 18:52:24.778292,578.0
2023-08-12 18:52:24.785981,-292.0
2023-08-12 18:52:24.793671,-733.0
2023-08-12 18:52:24.801360,-454.0
2023-08-12 18:52:24.809050,-238.0
2023-08-12 18:52:24.816739,-204.0
2023-08-12 18:52:24.824429,-85.0
2023-08-12 18:52:24.832118,-45.0
2023-08-12 18:52:24.839808,-95.0
2023-08-12 18:52:24.847497,-83.0
2023-08-12 18:52:24.855187,-54.0
2023-08-12 18:52:24.862877,-61.0
2023-08-12 18:52:24.870566,-61.0
2023-08-12 18:52:24.878256,-45.0
2023-08-12 18:52:24.885945,-40.0
2023-08-12 18:52:24.893635,-42.0
2023-08-12 18:52:24.901324,-35.0
2023-08-12 18:52:24.909014,-26.0
2023-08-12 18:52:24.916703,-21.0
2023-08-12 18:52:24.924393,-19.0
2023-08-12 18:52:24.932082,-14.0
2023-08-12 18:52:24.939772,-9.0
2023-08-12 18:52:24.947461,-4.0
2023-08-12 18:52:24.955151,4.0
2023-08-12 18:52:24.962840,11.0
2023-08-12 18:52:24.970530,19.0
2023-08-12 18:52:24.978220,28.0
2023-08-12 18:52:24.985909,38.0
2023-08-12 18:52:24.993599,52.0
2023-08-12 18:52:25.001288,61.0
2023-08-12 18:52:25.008978,73.0
2023-08-12 18:52:25.016667,80.0
2023-08-12 18:52:25.024357,83.0
2023-08-12 18:52:25.032046,80.0
2023-08-12 18:52:25.039736,76.0
2023-08-12 18:52:25.047425,66.0
2023-08-12 18:52:25.055115,52.0
2023-08-12 18:52:25.062804,38.0
2023-08-12 18:52:25.070494,16.0
2023-08-12 18:52:25.078183,-9.0
2023-08-12 18:52:25.085873,-35.0
2023-08-12 18:52:25.093563,-57.0
2023-08-12 18:52:25.101252,-76.0
2023-08-12 18:52:25.108942,-92.0
2023-08-12 18:52:25.116631,-104.0
2023-08-12 18:52:25.124321,-114.0
2023-08-12 18:52:25.132010,-119.0
2023-08-12 18:52:25.139700,-123.0
2023-08-12 18:52:25.147389,-133.0
2023-08-12 18:52:25.155079,-135.0
2023-08-12 18:52:25.162768,-128.0
2023-08-12 18:52:25.170458,-123.0
2023-08-12 18:52:25.178147,-123.0
2023-08-12 18:52:25.185837,-121.0
2023-08-12 18:52:25.193526,-114.0
2023-08-12 18:52:25.201216,-109.0
2023-08-12 18:52:25.208906,-107.0
2023-08-12 18:52:25.216595,-107.0
2023-08-12 18:52:25.224285,-107.0
2023-08-12 18:52:25.231974,-104.0
2023-08-12 18:52:25.239664,-102.0
2023-08-12 18:52:25.247353,-102.0
2023-08-12 18:52:25.255043,-104.0
2023-08-12 18:52:25.262732,-102.0
2023-08-12 18:52:25.270422,-104.0
2023-08-12 18:52:25.278111,-111.0
2023-08-12 18:52:25.285801,-111.0
2023-08-12 18:52:25.293490,-109.0
2023-08-12 18:52:25.301180,-109.0
2023-08-12 18:52:25.308869,-107.0
2023-08-12 18:52:25.316559,-102.0
2023-08-12 18:52:25.324249,-107.0
2023-08-12 18:52:25.331938,-109.0
2023-08-12 18:52:25.339628,-104.0
2023-08-12 18:52:25.347317,-102.0
2023-08-12 18:52:25.355007,-99.0
2023-08-12 18:52:25.362696,-97.0
2023-08-12 18:52:25.370386,-97.0
2023-08-12 18:52:25.378075,-99.0
2023-08-12 18:52:25.385765,-102.0
2023-08-12 18:52:25.393454,-99.0
2023-08-12 18:52:25.401144,-95.0
2023-08-12 18:52:25.408833,-95.0
2023-08-12 18:52:25.416523,-88.0
2023-08-12 18:52:25.424212,-71.0
2023-08-12 18:52:25.431902,-54.0
2023-08-12 18:52:25.439591,-38.0
2023-08-12 18:52:25.447281,-40.0
2023-08-12 18:52:25.454971,-64.0
2023-08-12 18:52:25.462660,-80.0
2023-08-12 18:52:25.470350,-88.0
2023-08-12 18:52:25.478039,-99.0
2023-08-12 18:52:25.485729,-107.0
2023-08-12 18:52:25.493418,-102.0
2023-08-12 18:52:25.501108,-97.0
2023-08-12 18:52:25.508797,-97.0
2023-08-12 18:52:25.516487,-92.0
2023-08-12 18:52:25.524176,-83.0
2023-08-12 18:52:25.531866,0.0
2023-08-12 18:52:25.539555,304.0
2023-08-12 18:52:25.547245,780.0
2023-08-12 18:52:25.554934,978.0
2023-08-12 18:52:25.562624,399.0
2023-08-12 18:52:25.570314,-476.0
2023-08-12 18:52:25.578003,-623.0
2023-08-12 18:52:25.585693,-292.0
2023-08-12 18:52:25.593382,-199.0
2023-08-12 18:52:25.601072,-173.0
2023-08-12 18:52:25.608761,-90.0
2023-08-12 18:52:25.616451,-99.0
2023-08-12 18:52:25.624140,-116.0
2023-08-12 18:52:25.631830,-88.0
2023-08-12 18:52:25.639519,-78.0
2023-08-12 18:52:25.647209,-88.0
2023-08-12 18:52:25.654898,-78.0
2023-08-12 18:52:25.662588,-66.0
2023-08-12 18:52:25.670277,-64.0
2023-08-12 18:52:25.677967,-57.0
2023-08-12 18:52:25.685657,-49.0
2023-08-12 18:52:25.693346,-45.0
2023-08-12 18:52:25.701036,-42.0
2023-08-12 18:52:25.708725,-35.0
2023-08-12 18:52:25.716415,-28.0
2023-08-12 18:52:25.724104,-21.0
2023-08-12 18:52:25.731794,-19.0
2023-08-12 18:52:25.739483,-14.0
2023-08-12 18:52:25.747173,-7.0
2023-08-12 18:52:25.754862,4.0
2023-08-12 18:52:25.762552,14.0
2023-08-12 18:52:25.770241,19.0
2023-08-12 18:52:25.777931,19.0
2023-08-12 18:52:25.785620,21.0
2023-08-12 18:52:25.793310,33.0
2023-08-12 18:52:25.801000,42.0
2023-08-12 18:52:25.808689,45.0
2023-08-12 18:52:25.816379,42.0
2023-08-12 18:52:25.824068,33.0
2023-08-12 18:52:25.831758,23.0
2023-08-12 18:52:25.839447,11.0
2023-08-12 18:52:25.847137,-2.0
2023-08-12 18:52:25.854826,-21.0
2023-08-12 18:52:25.862516,-42.0
2023-08-12 18:52:25.870205,-64.0
2023-08-12 18:52:25.877895,-80.0
2023-08-12 18:52:25.885584,-92.0
2023-08-12 18:52:25.893274,-99.0
2023-08-12 18:52:25.900963,-107.0
2023-08-12 18:52:25.908653,-114.0
2023-08-12 18:52:25.916343,-121.0
2023-08-12 18:52:25.924032,-119.0
2023-08-12 18:52:25.931722,-119.0
2023-08-12 18:52:25.939411,-119.0
2023-08-12 18:52:25.947101,-119.0
2023-08-12 18:52:25.954790,-114.0
2023-08-12 18:52:25.962480,-119.0
2023-08-12 18:52:25.970169,-123.0
2023-08-12 18:52:25.977859,-119.0
2023-08-12 18:52:25.985548,-109.0
2023-08-12 18:52:25.993238,-109.0
2023-08-12 18:52:26.000927,-109.0
2023-08-12 18:52:26.008617,-107.0
2023-08-12 18:52:26.016306,-102.0
2023-08-12 18:52:26.023996,-97.0
2023-08-12 18:52:26.031686,-95.0
2023-08-12 18:52:26.039375,-95.0
2023-08-12 18:52:26.047065,-95.0
2023-08-12 18:52:26.054754,-92.0
2023-08-12 18:52:26.062444,-92.0
2023-08-12 18:52:26.070133,-95.0
2023-08-12 18:52:26.077823,-97.0
2023-08-12 18:52:26.085512,-95.0
2023-08-12 18:52:26.093202,-99.0
2023-08-12 18:52:26.100891,-104.0
2023-08-12 18:52:26.108581,-102.0
2023-08-12 18:52:26.116270,-99.0
2023-08-12 18:52:26.123960,-102.0
2023-08-12 18:52:26.131649,-104.0
2023-08-12 18:52:26.139339,-102.0
2023-08-12 18:52:26.147029,-104.0
2023-08-12 18:52:26.154718,-107.0
2023-08-12 18:52:26.162408,-107.0
2023-08-12 18:52:26.170097,-104.0
2023-08-12 18:52:26.177787,-102.0
2023-08-12 18:52:26.185476,-99.0
2023-08-12 18:52:26.193166,-92.0
2023-08-12 18:52:26.200855,-69.0
2023-08-12 18:52:26.208545,-40.0
2023-08-12 18:52:26.216234,-30.0
2023-08-12 18:52:26.223924,-45.0
2023-08-12 18:52:26.231613,-69.0
2023-08-12 18:52:26.239303,-85.0
2023-08-12 18:52:26.246992,-92.0
2023-08-12 18:52:26.254682,-104.0
2023-08-12 18:52:26.262371,-107.0
2023-08-12 18:52:26.270061,-99.0
2023-08-12 18:52:26.277751,-99.0
2023-08-12 18:52:26.285440,-107.0
2023-08-12 18:52:26.293130,-102.0
2023-08-12 18:52:26.300819,-69.0
2023-08-12 18:52:26.308509,95.0
2023-08-12 18:52:26.316198,504.0
2023-08-12 18:52:26.323888,933.0
2023-08-12 18:52:26.331577,797.0
2023-08-12 18:52:26.339267,-49.0
2023-08-12 18:52:26.346956,-664.0
2023-08-12 18:52:26.354646,-466.0
2023-08-12 18:52:26.362335,-209.0
2023-08-12 18:52:26.370025,-207.0
2023-08-12 18:52:26.377714,-140.0
2023-08-12 18:52:26.385404,-92.0
2023-08-12 18:52:26.393094,-126.0
2023-08-12 18:52:26.400783,-116.0
2023-08-12 18:52:26.408473,-85.0
2023-08-12 18:52:26.416162,-88.0
2023-08-12 18:52:26.423852,-90.0
2023-08-12 18:52:26.431541,-78.0
2023-08-12 18:52:26.439231,-69.0
2023-08-12 18:52:26.446920,-66.0
2023-08-12 18:52:26.454610,-59.0
2023-08-12 18:52:26.462299,-54.0
2023-08-12 18:52:26.469989,-49.0
2023-08-12 18:52:26.477678,-40.0
2023-08-12 18:52:26.485368,-33.0
2023-08-12 18:52:26.493057,-30.0
2023-08-12 18:52:26.500747,-28.0
2023-08-12 18:52:26.508437,-26.0
2023-08-12 18:52:26.516126,-23.0
2023-08-12 18:52:26.523816,-16.0
2023-08-12 18:52:26.531505,-4.0
2023-08-12 18:52:26.539195,4.0
2023-08-12 18:52:26.546884,9.0
2023-08-12 18:52:26.554574,9.0
2023-08-12 18:52:26.562263,16.0
2023-08-12 18:52:26.569953,26.0
2023-08-12 18:52:26.577642,33.0
2023-08-12 18:52:26.585332,35.0
2023-08-12 18:52:26.593021,30.0
2023-08-12 18:52:26.600711,21.0
2023-08-12 18:52:26.608400,9.0
2023-08-12 18:52:26.616090,-2.0
2023-08-12 18:52:26.623780,-23.0
2023-08-12 18:52:26.631469,-42.0
2023-08-12 18:52:26.639159,-64.0
2023-08-12 18:52:26.646848,-85.0
2023-08-12 18:52:26.654538,-99.0
2023-08-12 18:52:26.662227,-104.0
2023-08-12 18:52:26.669917,-111.0
2023-08-12 18:52:26.677606,-119.0
2023-08-12 18:52:26.685296,-121.0
2023-08-12 18:52:26.692985,-121.0
2023-08-12 18:52:26.700675,-123.0
2023-08-12 18:52:26.708364,-121.0
2023-08-12 18:52:26.716054,-119.0
2023-08-12 18:52:26.723743,-116.0
2023-08-12 18:52:26.731433,-114.0
2023-08-12 18:52:26.739123,-111.0
2023-08-12 18:52:26.746812,-109.0
2023-08-12 18:52:26.754502,-107.0
2023-08-12 18:52:26.762191,-104.0
2023-08-12 18:52:26.769881,-99.0
2023-08-12 18:52:26.777570,-99.0
2023-08-12 18:52:26.785260,-99.0
2023-08-12 18:52:26.792949,-102.0
2023-08-12 18:52:26.800639,-102.0
2023-08-12 18:52:26.808328,-97.0
2023-08-12 18:52:26.816018,-92.0
2023-08-12 18:52:26.823707,-95.0
2023-08-12 18:52:26.831397,-92.0
2023-08-12 18:52:26.839086,-90.0
2023-08-12 18:52:26.846776,-90.0
2023-08-12 18:52:26.854466,-88.0
2023-08-12 18:52:26.862155,-90.0
2023-08-12 18:52:26.869845,-92.0
2023-08-12 18:52:26.877534,-92.0
2023-08-12 18:52:26.885224,-90.0
2023-08-12 18:52:26.892913,-90.0
2023-08-12 18:52:26.900603,-90.0
2023-08-12 18:52:26.908292,-92.0
2023-08-12 18:52:26.915982,-92.0
2023-08-12 18:52:26.923671,-95.0
2023-08-12 18:52:26.931361,-95.0
2023-08-12 18:52:26.939050,-92.0
2023-08-12 18:52:26.946740,-90.0
2023-08-12 18:52:26.954429,-90.0
2023-08-12 18:52:26.962119,-76.0
2023-08-12 18:52:26.969809,-52.0
2023-08-12 18:52:26.977498,-33.0
2023-08-12 18:52:26.985188,-35.0
2023-08-12 18:52:26.992877,-57.0
2023-08-12 18:52:27.000567,-80.0
2023-08-12 18:52:27.008256,-90.0
2023-08-12 18:52:27.015946,-102.0
2023-08-12 18:52:27.023635,-109.0
2023-08-12 18:52:27.031325,-104.0
2023-08-12 18:52:27.039014,-102.0
2023-08-12 18:52:27.046704,-109.0
2023-08-12 18:52:27.054393,-109.0
2023-08-12 18:52:27.062083,-95.0
2023-08-12 18:52:27.069772,-33.0
2023-08-12 18:52:27.077462,214.0
2023-08-12 18:52:27.085152,668.0
2023-08-12 18:52:27.092841,952.0
2023-08-12 18:52:27.100531,502.0
2023-08-12 18:52:27.108220,-399.0
2023-08-12 18:52:27.115910,-666.0
2023-08-12 18:52:27.123599,-333.0
2023-08-12 18:52:27.131289,-197.0
2023-08-12 18:52:27.138978,-192.0
2023-08-12 18:52:27.146668,-109.0
2023-08-12 18:52:27.154357,-102.0
2023-08-12 18:52:27.162047,-128.0
2023-08-12 18:52:27.169736,-99.0
2023-08-12 18:52:27.177426,-83.0
2023-08-12 18:52:27.185115,-92.0
2023-08-12 18:52:27.192805,-83.0
2023-08-12 18:52:27.200494,-66.0
2023-08-12 18:52:27.208184,-66.0
2023-08-12 18:52:27.215874,-64.0
2023-08-12 18:52:27.223563,-54.0
2023-08-12 18:52:27.231253,-52.0
2023-08-12 18:52:27.238942,-45.0
2023-08-12 18:52:27.246632,-35.0
2023-08-12 18:52:27.254321,-33.0
2023-08-12 18:52:27.262011,-26.0
2023-08-12 18:52:27.269700,-21.0
2023-08-12 18:52:27.277390,-14.0
2023-08-12 18:52:27.285079,-7.0
2023-08-12 18:52:27.292769,-2.0
2023-08-12 18:52:27.300458,0.0
2023-08-12 18:52:27.308148,7.0
2023-08-12 18:52:27.315837,16.0
2023-08-12 18:52:27.323527,26.0
2023-08-12 18:52:27.331217,33.0
2023-08-12 18:52:27.338906,38.0
2023-08-12 18:52:27.346596,40.0
2023-08-12 18:52:27.354285,38.0
2023-08-12 18:52:27.361975,30.0
2023-08-12 18:52:27.369664,21.0
2023-08-12 18:52:27.377354,11.0
2023-08-12 18:52:27.385043,-4.0
2023-08-12 18:52:27.392733,-26.0
2023-08-12 18:52:27.400422,-47.0
2023-08-12 18:52:27.408112,-66.0
2023-08-12 18:52:27.415801,-83.0
2023-08-12 18:52:27.423491,-90.0
2023-08-12 18:52:27.431180,-97.0
2023-08-12 18:52:27.438870,-104.0
2023-08-12 18:52:27.446560,-111.0
2023-08-12 18:52:27.454249,-111.0
2023-08-12 18:52:27.461939,-111.0
2023-08-12 18:52:27.469628,-111.0
2023-08-12 18:52:27.477318,-109.0
2023-08-12 18:52:27.485007,-107.0
2023-08-12 18:52:27.492697,-104.0
2023-08-12 18:52:27.500386,-104.0
2023-08-12 18:52:27.508076,-104.0
2023-08-12 18:52:27.515765,-99.0
2023-08-12 18:52:27.523455,-97.0
2023-08-12 18:52:27.531144,-97.0
2023-08-12 18:52:27.538834,-97.0
2023-08-12 18:52:27.546523,-92.0
2023-08-12 18:52:27.554213,-88.0
2023-08-12 18:52:27.561903,-88.0
2023-08-12 18:52:27.569592,-88.0
2023-08-12 18:52:27.577282,-85.0
2023-08-12 18:52:27.584971,-90.0
2023-08-12 18:52:27.592661,-95.0
2023-08-12 18:52:27.600350,-95.0
2023-08-12 18:52:27.608040,-92.0
2023-08-12 18:52:27.615729,-92.0
2023-08-12 18:52:27.623419,-95.0
2023-08-12 18:52:27.631108,-99.0
2023-08-12 18:52:27.638798,-104.0
2023-08-12 18:52:27.646487,-102.0
2023-08-12 18:52:27.654177,-97.0
2023-08-12 18:52:27.661866,-97.0
2023-08-12 18:52:27.669556,-99.0
2023-08-12 18:52:27.677246,-99.0
2023-08-12 18:52:27.684935,-97.0
2023-08-12 18:52:27.692625,-90.0
2023-08-12 18:52:27.700314,-85.0
2023-08-12 18:52:27.708004,-69.0
2023-08-12 18:52:27.715693,-40.0
2023-08-12 18:52:27.723383,-23.0
2023-08-12 18:52:27.731072,-33.0
2023-08-12 18:52:27.738762,-57.0
2023-08-12 18:52:27.746451,-76.0
2023-08-12 18:52:27.754141,-88.0
2023-08-12 18:52:27.761830,-102.0
2023-08-12 18:52:27.769520,-104.0
2023-08-12 18:52:27.777209,-99.0
2023-08-12 18:52:27.784899,-97.0
2023-08-12 18:52:27.792589,-97.0
2023-08-12 18:52:27.800278,-99.0
2023-08-12 18:52:27.807968,-95.0
2023-08-12 18:52:27.815657,0.0
2023-08-12 18:52:27.823347,311.0
2023-08-12 18:52:27.831036,761.0
2023-08-12 18:52:27.838726,875.0
2023-08-12 18:52:27.846415,216.0
2023-08-12 18:52:27.854105,-592.0
2023-08-12 18:52:27.861794,-602.0
2023-08-12 18:52:27.869484,-266.0
2023-08-12 18:52:27.877173,-211.0
2023-08-12 18:52:27.884863,-171.0
2023-08-12 18:52:27.892552,-90.0
2023-08-12 18:52:27.900242,-116.0
2023-08-12 18:52:27.907932,-128.0
2023-08-12 18:52:27.915621,-92.0
2023-08-12 18:52:27.923311,-85.0
2023-08-12 18:52:27.931000,-92.0
2023-08-12 18:52:27.938690,-78.0
2023-08-12 18:52:27.946379,-71.0
2023-08-12 18:52:27.954069,-69.0
2023-08-12 18:52:27.961758,-61.0
2023-08-12 18:52:27.969448,-49.0
2023-08-12 18:52:27.977137,-45.0
2023-08-12 18:52:27.984827,-42.0
2023-08-12 18:52:27.992516,-38.0
2023-08-12 18:52:28.000206,-30.0
2023-08-12 18:52:28.007895,-23.0
2023-08-12 18:52:28.015585,-16.0
2023-08-12 18:52:28.023274,-9.0
2023-08-12 18:52:28.030964,-7.0
2023-08-12 18:52:28.038654,0.0
2023-08-12 18:52:28.046343,9.0
2023-08-12 18:52:28.054033,19.0
2023-08-12 18:52:28.061722,30.0
2023-08-12 18:52:28.069412,38.0
2023-08-12 18:52:28.077101,42.0
2023-08-12 18:52:28.084791,47.0
2023-08-12 18:52:28.092480,49.0
2023-08-12 18:52:28.100170,47.0
2023-08-12 18:52:28.107859,38.0
2023-08-12 18:52:28.115549,28.0
2023-08-12 18:52:28.123238,14.0
2023-08-12 18:52:28.130928,-7.0
2023-08-12 18:52:28.138617,-28.0
2023-08-12 18:52:28.146307,-52.0
2023-08-12 18:52:28.153997,-69.0
2023-08-12 18:52:28.161686,-80.0
2023-08-12 18:52:28.169376,-92.0
2023-08-12 18:52:28.177065,-104.0
2023-08-12 18:52:28.184755,-109.0
2023-08-12 18:52:28.192444,-111.0
2023-08-12 18:52:28.200134,-114.0
2023-08-12 18:52:28.207823,-116.0
2023-08-12 18:52:28.215513,-121.0
2023-08-12 18:52:28.223202,-123.0
2023-08-12 18:52:28.230892,-119.0
2023-08-12 18:52:28.238581,-111.0
2023-08-12 18:52:28.246271,-111.0
2023-08-12 18:52:28.253960,-109.0
2023-08-12 18:52:28.261650,-114.0
2023-08-12 18:52:28.269340,-114.0
2023-08-12 18:52:28.277029,-109.0
2023-08-12 18:52:28.284719,-107.0
2023-08-12 18:52:28.292408,-102.0
2023-08-12 18:52:28.300098,-102.0
2023-08-12 18:52:28.307787,-107.0
2023-08-12 18:52:28.315477,-104.0
2023-08-12 18:52:28.323166,-99.0
2023-08-12 18:52:28.330856,-95.0
2023-08-12 18:52:28.338545,-95.0
2023-08-12 18:52:28.346235,-97.0
2023-08-12 18:52:28.353924,-99.0
2023-08-12 18:52:28.361614,-97.0
2023-08-12 18:52:28.369303,-95.0
2023-08-12 18:52:28.376993,-95.0
2023-08-12 18:52:28.384683,-95.0
2023-08-12 18:52:28.392372,-95.0
2023-08-12 18:52:28.400062,-95.0
2023-08-12 18:52:28.407751,-92.0
2023-08-12 18:52:28.415441,-88.0
2023-08-12 18:52:28.423130,-83.0
2023-08-12 18:52:28.430820,-71.0
2023-08-12 18:52:28.438509,-47.0
2023-08-12 18:52:28.446199,-26.0
2023-08-12 18:52:28.453888,-28.0
2023-08-12 18:52:28.461578,-45.0
2023-08-12 18:52:28.469267,-66.0
2023-08-12 18:52:28.476957,-80.0
2023-08-12 18:52:28.484646,-92.0
2023-08-12 18:52:28.492336,-99.0
2023-08-12 18:52:28.500026,-97.0
2023-08-12 18:52:28.507715,-92.0
2023-08-12 18:52:28.515405,-90.0
2023-08-12 18:52:28.523094,-88.0
2023-08-12 18:52:28.530784,-80.0
2023-08-12 18:52:28.538473,-33.0
2023-08-12 18:52:28.546163,183.0
2023-08-12 18:52:28.553852,611.0
2023-08-12 18:52:28.561542,935.0
2023-08-12 18:52:28.569231,578.0
2023-08-12 18:52:28.576921,-323.0
2023-08-12 18:52:28.584610,-690.0
2023-08-12 18:52:28.592300,-378.0
2023-08-12 18:52:28.599989,-199.0
2023-08-12 18:52:28.607679,-190.0
2023-08-12 18:52:28.615369,-107.0
2023-08-12 18:52:28.623058,-92.0
2023-08-12 18:52:28.630748,-123.0
2023-08-12 18:52:28.638437,-99.0
2023-08-12 18:52:28.646127,-80.0
2023-08-12 18:52:28.653816,-88.0
2023-08-12 18:52:28.661506,-83.0
2023-08-12 18:52:28.669195,-71.0
2023-08-12 18:52:28.676885,-69.0
2023-08-12 18:52:28.684574,-61.0
2023-08-12 18:52:28.692264,-54.0
2023-08-12 18:52:28.699953,-49.0
2023-08-12 18:52:28.707643,-45.0
2023-08-12 18:52:28.715332,-40.0
2023-08-12 18:52:28.723022,-38.0
2023-08-12 18:52:28.730712,-30.0
2023-08-12 18:52:28.738401,-19.0
2023-08-12 18:52:28.746091,-11.0
2023-08-12 18:52:28.753780,-7.0
2023-08-12 18:52:28.761470,0.0
2023-08-12 18:52:28.769159,7.0
2023-08-12 18:52:28.776849,16.0
2023-08-12 18:52:28.784538,26.0
2023-08-12 18:52:28.792228,33.0
2023-08-12 18:52:28.799917,42.0
2023-08-12 18:52:28.807607,45.0
2023-08-12 18:52:28.815296,45.0
2023-08-12 18:52:28.822986,42.0
2023-08-12 18:52:28.830675,38.0
2023-08-12 18:52:28.838365,26.0
2023-08-12 18:52:28.846054,4.0
2023-08-12 18:52:28.853744,-14.0
2023-08-12 18:52:28.861434,-33.0
2023-08-12 18:52:28.869123,-54.0
2023-08-12 18:52:28.876813,-73.0
2023-08-12 18:52:28.884502,-88.0
2023-08-12 18:52:28.892192,-102.0
2023-08-12 18:52:28.899881,-114.0
2023-08-12 18:52:28.907571,-119.0
2023-08-12 18:52:28.915260,-126.0
2023-08-12 18:52:28.922950,-126.0
2023-08-12 18:52:28.930639,-128.0
2023-08-12 18:52:28.938329,-128.0
2023-08-12 18:52:28.946018,-123.0
2023-08-12 18:52:28.953708,-119.0
2023-08-12 18:52:28.961397,-116.0
2023-08-12 18:52:28.969087,-114.0
2023-08-12 18:52:28.976777,-109.0
2023-08-12 18:52:28.984466,-107.0
2023-08-12 18:52:28.992156,-107.0
2023-08-12 18:52:28.999845,-104.0
2023-08-12 18:52:29.007535,-99.0
2023-08-12 18:52:29.015224,-99.0
2023-08-12 18:52:29.022914,-97.0
2023-08-12 18:52:29.030603,-92.0
2023-08-12 18:52:29.038293,-90.0
2023-08-12 18:52:29.045982,-90.0
2023-08-12 18:52:29.053672,-88.0
2023-08-12 18:52:29.061361,-88.0
2023-08-12 18:52:29.069051,-88.0
2023-08-12 18:52:29.076740,-90.0
2023-08-12 18:52:29.084430,-88.0
2023-08-12 18:52:29.092120,-88.0
2023-08-12 18:52:29.099809,-90.0
2023-08-12 18:52:29.107499,-92.0
2023-08-12 18:52:29.115188,-90.0
2023-08-12 18:52:29.122878,-85.0
2023-08-12 18:52:29.130567,-80.0
2023-08-12 18:52:29.138257,-76.0
2023-08-12 18:52:29.145946,-61.0
2023-08-12 18:52:29.153636,-35.0
2023-08-12 18:52:29.161325,-19.0
2023-08-12 18:52:29.169015,-28.0
2023-08-12 18:52:29.176704,-52.0
2023-08-12 18:52:29.184394,-71.0
2023-08-12 18:52:29.192083,-80.0
2023-08-12 18:52:29.199773,-90.0
2023-08-12 18:52:29.207463,-97.0
2023-08-12 18:52:29.215152,-95.0
2023-08-12 18:52:29.222842,-90.0
2023-08-12 18:52:29.230531,-85.0
2023-08-12 18:52:29.238221,-83.0
2023-08-12 18:52:29.245910,-78.0
2023-08-12 18:52:29.253600,-26.0
2023-08-12 18:52:29.261289,190.0
2023-08-12 18:52:29.268979,595.0
2023-08-12 18:52:29.276668,878.0
2023-08-12 18:52:29.284358,495.0
2023-08-12 18:52:29.292047,-385.0
2023-08-12 18:52:29.299737,-716.0
2023-08-12 18:52:29.307426,-397.0
2023-08-12 18:52:29.315116,-223.0
2023-08-12 18:52:29.322806,-192.0
2023-08-12 18:52:29.330495,-92.0
2023-08-12 18:52:29.338185,-85.0
2023-08-12 18:52:29.345874,-121.0
2023-08-12 18:52:29.353564,-92.0
2023-08-12 18:52:29.361253,-71.0
2023-08-12 18:52:29.368943,-78.0
2023-08-12 18:52:29.376632,-71.0
2023-08-12 18:52:29.384322,-61.0
2023-08-12 18:52:29.392011,-64.0
2023-08-12 18:52:29.399701,-59.0
2023-08-12 18:52:29.407390,-52.0
2023-08-12 18:52:29.415080,-47.0
2023-08-12 18:52:29.422769,-42.0
2023-08-12 18:52:29.430459,-35.0
2023-08-12 18:52:29.438149,-30.0
2023-08-12 18:52:29.445838,-26.0
2023-08-12 18:52:29.453528,-19.0
2023-08-12 18:52:29.461217,-9.0
2023-08-12 18:52:29.468907,-4.0
2023-08-12 18:52:29.476596,2.0
2023-08-12 18:52:29.484286,11.0
2023-08-12 18:52:29.491975,21.0
2023-08-12 18:52:29.499665,30.0
2023-08-12 18:52:29.507354,40.0
2023-08-12 18:52:29.515044,49.0
2023-08-12 18:52:29.522733,57.0
2023-08-12 18:52:29.530423,57.0
2023-08-12 18:52:29.538112,52.0
2023-08-12 18:52:29.545802,45.0
2023-08-12 18:52:29.553492,35.0
2023-08-12 18:52:29.561181,21.0
2023-08-12 18:52:29.568871,2.0
2023-08-12 18:52:29.576560,-23.0
2023-08-12 18:52:29.584250,-47.0
2023-08-12 18:52:29.591939,-64.0
2023-08-12 18:52:29.599629,-80.0
2023-08-12 18:52:29.607318,-97.0
2023-08-12 18:52:29.615008,-109.0
2023-08-12 18:52:29.622697,-116.0
2023-08-12 18:52:29.630387,-121.0
2023-08-12 18:52:29.638076,-123.0
2023-08-12 18:52:29.645766,-123.0
2023-08-12 18:52:29.653455,-121.0
2023-08-12 18:52:29.661145,-119.0
2023-08-12 18:52:29.668835,-116.0
2023-08-12 18:52:29.676524,-111.0
2023-08-12 18:52:29.684214,-109.0
2023-08-12 18:52:29.691903,-107.0
2023-08-12 18:52:29.699593,-104.0
2023-08-12 18:52:29.707282,-99.0
2023-08-12 18:52:29.714972,-97.0
2023-08-12 18:52:29.722661,-95.0
2023-08-12 18:52:29.730351,-92.0
2023-08-12 18:52:29.738040,-90.0
2023-08-12 18:52:29.745730,-90.0
2023-08-12 18:52:29.753419,-92.0
2023-08-12 18:52:29.761109,-90.0
2023-08-12 18:52:29.768798,-88.0
2023-08-12 18:52:29.776488,-88.0
2023-08-12 18:52:29.784177,-88.0
2023-08-12 18:52:29.791867,-92.0
2023-08-12 18:52:29.799557,-90.0
2023-08-12 18:52:29.807246,-85.0
2023-08-12 18:52:29.814936,-90.0
2023-08-12 18:52:29.822625,-95.0
2023-08-12 18:52:29.830315,-97.0
2023-08-12 18:52:29.838004,-99.0
2023-08-12 18:52:29.845694,-102.0
2023-08-12 18:52:29.853383,-97.0
2023-08-12 18:52:29.861073,-95.0
2023-08-12 18:52:29.868762,-95.0
2023-08-12 18:52:29.876452,-95.0
2023-08-12 18:52:29.884141,-95.0
2023-08-12 18:52:29.891831,-92.0
2023-08-12 18:52:29.899520,-88.0
2023-08-12 18:52:29.907210,-80.0
2023-08-12 18:52:29.914900,-61.0
2023-08-12 18:52:29.922589,-35.0
2023-08-12 18:52:29.930279,-21.0
2023-08-12 18:52:29.937968,-30.0
2023-08-12 18:52:29.945658,-54.0
2023-08-12 18:52:29.953347,-69.0
2023-08-12 18:52:29.961037,-78.0
2023-08-12 18:52:29.968726,-92.0
2023-08-12 18:52:29.976416,-97.0
2023-08-12 18:52:29.984105,-88.0
2023-08-12 18:52:29.991795,-85.0
2023-08-12 18:52:29.999484,-85.0
2023-08-12 18:52:30.007174,-80.0
2023-08-12 18:52:30.014863,-73.0
2023-08-12 18:52:30.022553,-16.0
2023-08-12 18:52:30.030243,238.0
2023-08-12 18:52:30.037932,697.0
2023-08-12 18:52:30.045622,980.0
2023-08-12 18:52:30.053311,521.0
2023-08-12 18:52:30.061001,-404.0
2023-08-12 18:52:30.068690,-687.0
2023-08-12 18:52:30.076380,-340.0
2023-08-12 18:52:30.084069,-188.0
2023-08-12 18:52:30.091759,-171.0
2023-08-12 18:52:30.099448,-83.0
2023-08-12 18:52:30.107138,-80.0
2023-08-12 18:52:30.114827,-109.0
2023-08-12 18:52:30.122517,-80.0
2023-08-12 18:52:30.130206,-66.0
2023-08-12 18:52:30.137896,-73.0
2023-08-12 18:52:30.145586,-69.0
2023-08-12 18:52:30.153275,-59.0
2023-08-12 18:52:30.160965,-61.0
2023-08-12 18:52:30.168654,-54.0
2023-08-12 18:52:30.176344,-47.0
2023-08-12 18:52:30.184033,-45.0
2023-08-12 18:52:30.191723,-40.0
2023-08-12 18:52:30.199412,-35.0
2023-08-12 18:52:30.207102,-30.0
2023-08-12 18:52:30.214791,-26.0
2023-08-12 18:52:30.222481,-19.0
2023-08-12 18:52:30.230170,-11.0
2023-08-12 18:52:30.237860,-7.0
2023-08-12 18:52:30.245549,-2.0
2023-08-12 18:52:30.253239,7.0
2023-08-12 18:52:30.260929,16.0
2023-08-12 18:52:30.268618,23.0
2023-08-12 18:52:30.276308,30.0
2023-08-12 18:52:30.283997,35.0
2023-08-12 18:52:30.291687,40.0
2023-08-12 18:52:30.299376,40.0
2023-08-12 18:52:30.307066,35.0
2023-08-12 18:52:30.314755,23.0
2023-08-12 18:52:30.322445,9.0
2023-08-12 18:52:30.330134,-4.0
2023-08-12 18:52:30.337824,-21.0
2023-08-12 18:52:30.345513,-42.0
2023-08-12 18:52:30.353203,-61.0
2023-08-12 18:52:30.360892,-76.0
2023-08-12 18:52:30.368582,-85.0
2023-08-12 18:52:30.376272,-95.0
2023-08-12 18:52:30.383961,-104.0
2023-08-12 18:52:30.391651,-111.0
2023-08-12 18:52:30.399340,-114.0
2023-08-12 18:52:30.407030,-116.0
2023-08-12 18:52:30.414719,-119.0
2023-08-12 18:52:30.422409,-126.0
2023-08-12 18:52:30.430098,-126.0
2023-08-12 18:52:30.437788,-121.0
2023-08-12 18:52:30.445477,-119.0
2023-08-12 18:52:30.453167,-114.0
2023-08-12 18:52:30.460856,-109.0
2023-08-12 18:52:30.468546,-109.0
2023-08-12 18:52:30.476235,-107.0
2023-08-12 18:52:30.483925,-102.0
2023-08-12 18:52:30.491615,-97.0
2023-08-12 18:52:30.499304,-95.0
2023-08-12 18:52:30.506994,-90.0
2023-08-12 18:52:30.514683,-90.0
2023-08-12 18:52:30.522373,-88.0
2023-08-12 18:52:30.530062,-85.0
2023-08-12 18:52:30.537752,-83.0
2023-08-12 18:52:30.545441,-85.0
2023-08-12 18:52:30.553131,-88.0
2023-08-12 18:52:30.560820,-90.0
2023-08-12 18:52:30.568510,-90.0
2023-08-12 18:52:30.576199,-88.0
2023-08-12 18:52:30.583889,-88.0
2023-08-12 18:52:30.591578,-88.0
2023-08-12 18:52:30.599268,-88.0
2023-08-12 18:52:30.606957,-88.0
2023-08-12 18:52:30.614647,-85.0
2023-08-12 18:52:30.622337,-88.0
2023-08-12 18:52:30.630026,-88.0
2023-08-12 18:52:30.637716,-83.0
2023-08-12 18:52:30.645405,-83.0
2023-08-12 18:52:30.653095,-83.0
2023-08-12 18:52:30.660784,-80.0
2023-08-12 18:52:30.668474,-78.0
2023-08-12 18:52:30.676163,-78.0
2023-08-12 18:52:30.683853,-76.0
2023-08-12 18:52:30.691542,-76.0
2023-08-12 18:52:30.699232,-73.0
2023-08-12 18:52:30.706921,-73.0
2023-08-12 18:52:30.714611,-71.0
2023-08-12 18:52:30.722300,-71.0
2023-08-12 18:52:30.729990,-69.0
2023-08-12 18:52:30.737680,-71.0
2023-08-12 18:52:30.745369,-73.0
2023-08-12 18:52:30.753059,-71.0
2023-08-12 18:52:30.760748,-69.0
2023-08-12 18:52:30.768438,-64.0
2023-08-12 18:52:30.776127,-52.0
2023-08-12 18:52:30.783817,-33.0
2023-08-12 18:52:30.791506,-11.0
2023-08-12 18:52:30.799196,-9.0
2023-08-12 18:52:30.806885,-33.0
2023-08-12 18:52:30.814575,-49.0
2023-08-12 18:52:30.822264,-57.0
2023-08-12 18:52:30.829954,-73.0
2023-08-12 18:52:30.837643,-92.0
2023-08-12 18:52:30.845333,-90.0
2023-08-12 18:52:30.853023,-83.0
2023-08-12 18:52:30.860712,-85.0
2023-08-12 18:52:30.868402,-85.0
2023-08-12 18:52:30.876091,-83.0
2023-08-12 18:52:30.883781,-61.0
2023-08-12 18:52:30.891470,95.0
2023-08-12 18:52:30.899160,507.0
2023-08-12 18:52:30.906849,971.0
2023-08-12 18:52:30.914539,892.0
2023-08-12 18:52:30.922228,38.0
2023-08-12 18:52:30.929918,-656.0
2023-08-12 18:52:30.937607,-487.0
2023-08-12 18:52:30.945297,-195.0
2023-08-12 18:52:30.952986,-192.0
2023-08-12 18:52:30.960676,-152.0
2023-08-12 18:52:30.968366,-104.0
2023-08-12 18:52:30.976055,-130.0
2023-08-12 18:52:30.983745,-126.0
2023-08-12 18:52:30.991434,-99.0
2023-08-12 18:52:30.999124,-104.0
2023-08-12 18:52:31.006813,-107.0
2023-08-12 18:52:31.014503,-95.0
2023-08-12 18:52:31.022192,-85.0
2023-08-12 18:52:31.029882,-80.0
2023-08-12 18:52:31.037571,-76.0
2023-08-12 18:52:31.045261,-69.0
2023-08-12 18:52:31.052950,-64.0
2023-08-12 18:52:31.060640,-59.0
2023-08-12 18:52:31.068329,-49.0
2023-08-12 18:52:31.076019,-42.0
2023-08-12 18:52:31.083709,-40.0
2023-08-12 18:52:31.091398,-33.0
2023-08-12 18:52:31.099088,-26.0
2023-08-12 18:52:31.106777,-19.0
2023-08-12 18:52:31.114467,-9.0
2023-08-12 18:52:31.122156,-2.0
2023-08-12 18:52:31.129846,0.0
2023-08-12 18:52:31.137535,9.0
2023-08-12 18:52:31.145225,19.0
2023-08-12 18:52:31.152914,23.0
2023-08-12 18:52:31.160604,26.0
2023-08-12 18:52:31.168293,26.0
2023-08-12 18:52:31.175983,21.0
2023-08-12 18:52:31.183672,11.0
2023-08-12 18:52:31.191362,2.0
2023-08-12 18:52:31.199052,-11.0
2023-08-12 18:52:31.206741,-30.0
2023-08-12 18:52:31.214431,-47.0
2023-08-12 18:52:31.222120,-61.0
2023-08-12 18:52:31.229810,-73.0
2023-08-12 18:52:31.237499,-85.0
2023-08-12 18:52:31.245189,-88.0
2023-08-12 18:52:31.252878,-90.0
2023-08-12 18:52:31.260568,-97.0
2023-08-12 18:52:31.268257,-104.0
2023-08-12 18:52:31.275947,-104.0
2023-08-12 18:52:31.283636,-102.0
2023-08-12 18:52:31.291326,-102.0
2023-08-12 18:52:31.299015,-104.0
2023-08-12 18:52:31.306705,-104.0
2023-08-12 18:52:31.314395,-102.0
2023-08-12 18:52:31.322084,-99.0
2023-08-12 18:52:31.329774,-97.0
2023-08-12 18:52:31.337463,-95.0
2023-08-12 18:52:31.345153,-97.0
2023-08-12 18:52:31.352842,-95.0
2023-08-12 18:52:31.360532,-92.0
2023-08-12 18:52:31.368221,-88.0
2023-08-12 18:52:31.375911,-85.0
2023-08-12 18:52:31.383600,-83.0
2023-08-12 18:52:31.391290,-78.0
2023-08-12 18:52:31.398979,-76.0
2023-08-12 18:52:31.406669,-76.0
2023-08-12 18:52:31.414358,-80.0
2023-08-12 18:52:31.422048,-78.0
2023-08-12 18:52:31.429737,-76.0
2023-08-12 18:52:31.437427,-76.0
2023-08-12 18:52:31.445117,-76.0
2023-08-12 18:52:31.452806,-76.0
2023-08-12 18:52:31.460496,-78.0
2023-08-12 18:52:31.468185,-73.0
2023-08-12 18:52:31.475875,-71.0
2023-08-12 18:52:31.483564,-71.0
2023-08-12 18:52:31.491254,-71.0
2023-08-12 18:52:31.498943,-71.0
2023-08-12 18:52:31.506633,-71.0
2023-08-12 18:52:31.514322,-71.0
2023-08-12 18:52:31.522012,-69.0
2023-08-12 18:52:31.529701,-69.0
2023-08-12 18:52:31.537391,-66.0
2023-08-12 18:52:31.545080,-66.0
2023-08-12 18:52:31.552770,-66.0
2023-08-12 18:52:31.560460,-66.0
2023-08-12 18:52:31.568149,-64.0
2023-08-12 18:52:31.575839,-61.0
2023-08-12 18:52:31.583528,-64.0
2023-08-12 18:52:31.591218,-69.0
2023-08-12 18:52:31.598907,-76.0
2023-08-12 18:52:31.606597,-71.0
2023-08-12 18:52:31.614286,-69.0
2023-08-12 18:52:31.621976,-71.0
2023-08-12 18:52:31.629665,-73.0
2023-08-12 18:52:31.637355,-73.0
2023-08-12 18:52:31.645044,-71.0
2023-08-12 18:52:31.652734,-69.0
2023-08-12 18:52:31.660423,-66.0
2023-08-12 18:52:31.668113,-57.0
2023-08-12 18:52:31.675803,-42.0
2023-08-12 18:52:31.683492,-26.0
2023-08-12 18:52:31.691182,-11.0
2023-08-12 18:52:31.698871,-26.0
2023-08-12 18:52:31.706561,-52.0
2023-08-12 18:52:31.714250,-61.0
2023-08-12 18:52:31.721940,-71.0
2023-08-12 18:52:31.729629,-88.0
2023-08-12 18:52:31.737319,-88.0
2023-08-12 18:52:31.745008,-80.0
2023-08-12 18:52:31.752698,-80.0
2023-08-12 18:52:31.760387,-80.0
2023-08-12 18:52:31.768077,-78.0
2023-08-12 18:52:31.775766,-66.0
2023-08-12 18:52:31.783456,35.0
2023-08-12 18:52:31.791146,368.0
2023-08-12 18:52:31.798835,830.0
2023-08-12 18:52:31.806525,935.0
2023-08-12 18:52:31.814214,261.0
2023-08-12 18:52:31.821904,-552.0
2023-08-12 18:52:31.829593,-564.0
2023-08-12 18:52:31.837283,-230.0
2023-08-12 18:52:31.844972,-180.0
2023-08-12 18:52:31.852662,-157.0
2023-08-12 18:52:31.860351,-83.0
2023-08-12 18:52:31.868041,-102.0
2023-08-12 18:52:31.875730,-111.0
2023-08-12 18:52:31.883420,-78.0
2023-08-12 18:52:31.891109,-73.0
2023-08-12 18:52:31.898799,-78.0
2023-08-12 18:52:31.906489,-69.0
2023-08-12 18:52:31.914178,-59.0
2023-08-12 18:52:31.921868,-57.0
2023-08-12 18:52:31.929557,-49.0
2023-08-12 18:52:31.937247,-40.0
2023-08-12 18:52:31.944936,-35.0
2023-08-12 18:52:31.952626,-33.0
2023-08-12 18:52:31.960315,-28.0
2023-08-12 18:52:31.968005,-21.0
2023-08-12 18:52:31.975694,-14.0
2023-08-12 18:52:31.983384,-9.0
2023-08-12 18:52:31.991073,-4.0
2023-08-12 18:52:31.998763,2.0
2023-08-12 18:52:32.006452,9.0
2023-08-12 18:52:32.014142,14.0
2023-08-12 18:52:32.021832,23.0
2023-08-12 18:52:32.029521,30.0
2023-08-12 18:52:32.037211,35.0
2023-08-12 18:52:32.044900,40.0
2023-08-12 18:52:32.052590,42.0
2023-08-12 18:52:32.060279,42.0
2023-08-12 18:52:32.067969,40.0
2023-08-12 18:52:32.075658,33.0
2023-08-12 18:52:32.083348,21.0
2023-08-12 18:52:32.091037,7.0
2023-08-12 18:52:32.098727,-9.0
2023-08-12 18:52:32.106416,-26.0
2023-08-12 18:52:32.114106,-45.0
2023-08-12 18:52:32.121795,-61.0
2023-08-12 18:52:32.129485,-78.0
2023-08-12 18:52:32.137175,-95.0
2023-08-12 18:52:32.144864,-99.0
2023-08-12 18:52:32.152554,-102.0
2023-08-12 18:52:32.160243,-109.0
2023-08-12 18:52:32.167933,-114.0
2023-08-12 18:52:32.175622,-114.0
2023-08-12 18:52:32.183312,-114.0
2023-08-12 18:52:32.191001,-114.0
2023-08-12 18:52:32.198691,-109.0
2023-08-12 18:52:32.206380,-107.0
2023-08-12 18:52:32.214070,-104.0
2023-08-12 18:52:32.221759,-102.0
2023-08-12 18:52:32.229449,-99.0
2023-08-12 18:52:32.237138,-97.0
2023-08-12 18:52:32.244828,-90.0
2023-08-12 18:52:32.252517,-88.0
2023-08-12 18:52:32.260207,-85.0
2023-08-12 18:52:32.267897,-83.0
2023-08-12 18:52:32.275586,-80.0
2023-08-12 18:52:32.283276,-80.0
2023-08-12 18:52:32.290965,-80.0
2023-08-12 18:52:32.298655,-76.0
2023-08-12 18:52:32.306344,-76.0
2023-08-12 18:52:32.314034,-78.0
2023-08-12 18:52:32.321723,-78.0
2023-08-12 18:52:32.329413,-78.0
2023-08-12 18:52:32.337102,-83.0
2023-08-12 18:52:32.344792,-85.0
2023-08-12 18:52:32.352481,-88.0
2023-08-12 18:52:32.360171,-90.0
2023-08-12 18:52:32.367860,-90.0
2023-08-12 18:52:32.375550,-90.0
2023-08-12 18:52:32.383240,-92.0
2023-08-12 18:52:32.390929,-92.0
2023-08-12 18:52:32.398619,-90.0
2023-08-12 18:52:32.406308,-92.0
2023-08-12 18:52:32.413998,-92.0
2023-08-12 18:52:32.421687,-90.0
2023-08-12 18:52:32.429377,-90.0
2023-08-12 18:52:32.437066,-88.0
2023-08-12 18:52:32.444756,-88.0
2023-08-12 18:52:32.452445,-88.0
2023-08-12 18:52:32.460135,-85.0
2023-08-12 18:52:32.467824,-85.0
2023-08-12 18:52:32.475514,-83.0
2023-08-12 18:52:32.483203,-83.0
2023-08-12 18:52:32.490893,-83.0
2023-08-12 18:52:32.498583,-80.0
2023-08-12 18:52:32.506272,-78.0
2023-08-12 18:52:32.513962,-78.0
2023-08-12 18:52:32.521651,-80.0
2023-08-12 18:52:32.529341,-80.0
2023-08-12 18:52:32.537030,-80.0
2023-08-12 18:52:32.544720,-78.0
2023-08-12 18:52:32.552409,-73.0
2023-08-12 18:52:32.560099,-59.0
2023-08-12 18:52:32.567788,-40.0
2023-08-12 18:52:32.575478,-19.0
2023-08-12 18:52:32.583167,-14.0
2023-08-12 18:52:32.590857,-35.0
2023-08-12 18:52:32.598546,-57.0
2023-08-12 18:52:32.606236,-64.0
2023-08-12 18:52:32.613926,-76.0
2023-08-12 18:52:32.621615,-88.0
2023-08-12 18:52:32.629305,-88.0
2023-08-12 18:52:32.636994,-78.0
2023-08-12 18:52:32.644684,-78.0
2023-08-12 18:52:32.652373,-78.0
2023-08-12 18:52:32.660063,-71.0
2023-08-12 18:52:32.667752,-35.0
2023-08-12 18:52:32.675442,157.0
2023-08-12 18:52:32.683131,576.0
2023-08-12 18:52:32.690821,937.0
2023-08-12 18:52:32.698510,661.0
2023-08-12 18:52:32.706200,-214.0
2023-08-12 18:52:32.713889,-664.0
2023-08-12 18:52:32.721579,-385.0
2023-08-12 18:52:32.729269,-183.0
2023-08-12 18:52:32.736958,-180.0
2023-08-12 18:52:32.744648,-97.0
2023-08-12 18:52:32.752337,-71.0
2023-08-12 18:52:32.760027,-104.0
2023-08-12 18:52:32.767716,-85.0
2023-08-12 18:52:32.775406,-66.0
2023-08-12 18:52:32.783095,-76.0
2023-08-12 18:52:32.790785,-69.0
2023-08-12 18:52:32.798474,-54.0
2023-08-12 18:52:32.806164,-52.0
2023-08-12 18:52:32.813853,-47.0
2023-08-12 18:52:32.821543,-40.0
2023-08-12 18:52:32.829232,-35.0
2023-08-12 18:52:32.836922,-30.0
2023-08-12 18:52:32.844612,-26.0
2023-08-12 18:52:32.852301,-21.0
2023-08-12 18:52:32.859991,-19.0
2023-08-12 18:52:32.867680,-14.0
2023-08-12 18:52:32.875370,-4.0
2023-08-12 18:52:32.883059,2.0
2023-08-12 18:52:32.890749,4.0
2023-08-12 18:52:32.898438,11.0
2023-08-12 18:52:32.906128,21.0
2023-08-12 18:52:32.913817,30.0
2023-08-12 18:52:32.921507,38.0
2023-08-12 18:52:32.929196,42.0
2023-08-12 18:52:32.936886,47.0
2023-08-12 18:52:32.944575,49.0
2023-08-12 18:52:32.952265,49.0
2023-08-12 18:52:32.959955,47.0
2023-08-12 18:52:32.967644,38.0
2023-08-12 18:52:32.975334,23.0
2023-08-12 18:52:32.983023,9.0
2023-08-12 18:52:32.990713,-9.0
2023-08-12 18:52:32.998402,-26.0
2023-08-12 18:52:33.006092,-42.0
2023-08-12 18:52:33.013781,-59.0
2023-08-12 18:52:33.021471,-76.0
2023-08-12 18:52:33.029160,-90.0
2023-08-12 18:52:33.036850,-99.0
2023-08-12 18:52:33.044539,-107.0
2023-08-12 18:52:33.052229,-116.0
2023-08-12 18:52:33.059918,-119.0
2023-08-12 18:52:33.067608,-116.0
2023-08-12 18:52:33.075298,-119.0
2023-08-12 18:52:33.082987,-119.0
2023-08-12 18:52:33.090677,-116.0
2023-08-12 18:52:33.098366,-114.0
2023-08-12 18:52:33.106056,-114.0
2023-08-12 18:52:33.113745,-114.0
2023-08-12 18:52:33.121435,-114.0
2023-08-12 18:52:33.129124,-109.0
2023-08-12 18:52:33.136814,-107.0
2023-08-12 18:52:33.144503,-107.0
2023-08-12 18:52:33.152193,-104.0
2023-08-12 18:52:33.159882,-99.0
2023-08-12 18:52:33.167572,-99.0
2023-08-12 18:52:33.175261,-97.0
2023-08-12 18:52:33.182951,-90.0
2023-08-12 18:52:33.190640,-92.0
2023-08-12 18:52:33.198330,-95.0
2023-08-12 18:52:33.206020,-95.0
2023-08-12 18:52:33.213709,-102.0
2023-08-12 18:52:33.221399,-107.0
2023-08-12 18:52:33.229088,-102.0
2023-08-12 18:52:33.236778,-99.0
2023-08-12 18:52:33.244467,-99.0
2023-08-12 18:52:33.252157,-102.0
2023-08-12 18:52:33.259846,-111.0
2023-08-12 18:52:33.267536,-114.0
2023-08-12 18:52:33.275225,-109.0
2023-08-12 18:52:33.282915,-104.0
2023-08-12 18:52:33.290604,-102.0
2023-08-12 18:52:33.298294,-102.0
2023-08-12 18:52:33.305983,-102.0
2023-08-12 18:52:33.313673,-102.0
2023-08-12 18:52:33.321363,-99.0
2023-08-12 18:52:33.329052,-95.0
2023-08-12 18:52:33.336742,-92.0
2023-08-12 18:52:33.344431,-95.0
2023-08-12 18:52:33.352121,-95.0
2023-08-12 18:52:33.359810,-90.0
2023-08-12 18:52:33.367500,-92.0
2023-08-12 18:52:33.375189,-95.0
2023-08-12 18:52:33.382879,-95.0
2023-08-12 18:52:33.390568,-92.0
2023-08-12 18:52:33.398258,-90.0
2023-08-12 18:52:33.405947,-85.0
2023-08-12 18:52:33.413637,-76.0
2023-08-12 18:52:33.421326,-59.0
2023-08-12 18:52:33.429016,-42.0
2023-08-12 18:52:33.436706,-26.0
2023-08-12 18:52:33.444395,-23.0
2023-08-12 18:52:33.452085,-45.0
2023-08-12 18:52:33.459774,-64.0
2023-08-12 18:52:33.467464,-66.0
2023-08-12 18:52:33.475153,-78.0
2023-08-12 18:52:33.482843,-95.0
2023-08-12 18:52:33.490532,-90.0
2023-08-12 18:52:33.498222,-80.0
2023-08-12 18:52:33.505911,-78.0
2023-08-12 18:52:33.513601,-78.0
2023-08-12 18:52:33.521290,-78.0
2023-08-12 18:52:33.528980,-35.0
2023-08-12 18:52:33.536669,159.0
2023-08-12 18:52:33.544359,554.0
2023-08-12 18:52:33.552049,866.0
2023-08-12 18:52:33.559738,557.0
2023-08-12 18:52:33.567428,-297.0
2023-08-12 18:52:33.575117,-697.0
2023-08-12 18:52:33.582807,-404.0
2023-08-12 18:52:33.590496,-197.0
2023-08-12 18:52:33.598186,-169.0
2023-08-12 18:52:33.605875,-73.0
2023-08-12 18:52:33.613565,-49.0
2023-08-12 18:52:33.621254,-88.0
2023-08-12 18:52:33.628944,-66.0
2023-08-12 18:52:33.636633,-45.0
2023-08-12 18:52:33.644323,-52.0
2023-08-12 18:52:33.652012,-42.0
2023-08-12 18:52:33.659702,-33.0
2023-08-12 18:52:33.667392,-35.0
2023-08-12 18:52:33.675081,-30.0
2023-08-12 18:52:33.682771,-19.0
2023-08-12 18:52:33.690460,-14.0
2023-08-12 18:52:33.698150,-9.0
2023-08-12 18:52:33.705839,-4.0
2023-08-12 18:52:33.713529,-2.0
2023-08-12 18:52:33.721218,4.0
2023-08-12 18:52:33.728908,9.0
2023-08-12 18:52:33.736597,14.0
2023-08-12 18:52:33.744287,26.0
2023-08-12 18:52:33.751976,33.0
2023-08-12 18:52:33.759666,33.0
2023-08-12 18:52:33.767355,40.0
2023-08-12 18:52:33.775045,54.0
2023-08-12 18:52:33.782735,64.0
2023-08-12 18:52:33.790424,66.0
2023-08-12 18:52:33.798114,69.0
2023-08-12 18:52:33.805803,69.0
2023-08-12 18:52:33.813493,69.0
2023-08-12 18:52:33.821182,61.0
2023-08-12 18:52:33.828872,54.0
2023-08-12 18:52:33.836561,42.0
2023-08-12 18:52:33.844251,16.0
2023-08-12 18:52:33.851940,-7.0
2023-08-12 18:52:33.859630,-28.0
2023-08-12 18:52:33.867319,-61.0
2023-08-12 18:52:33.875009,-90.0
2023-08-12 18:52:33.882698,-104.0
2023-08-12 18:52:33.890388,-116.0
2023-08-12 18:52:33.898078,-130.0
2023-08-12 18:52:33.905767,-138.0
2023-08-12 18:52:33.913457,-142.0
2023-08-12 18:52:33.921146,-145.0
2023-08-12 18:52:33.928836,-140.0
2023-08-12 18:52:33.936525,-138.0
2023-08-12 18:52:33.944215,-135.0
2023-08-12 18:52:33.951904,-130.0
2023-08-12 18:52:33.959594,-128.0
2023-08-12 18:52:33.967283,-128.0
2023-08-12 18:52:33.974973,-123.0
2023-08-12 18:52:33.982662,-119.0
2023-08-12 18:52:33.990352,-114.0
2023-08-12 18:52:33.998041,-109.0
2023-08-12 18:52:34.005731,-109.0
2023-08-12 18:52:34.013420,-114.0
2023-08-12 18:52:34.021110,-109.0
2023-08-12 18:52:34.028800,-102.0
2023-08-12 18:52:34.036489,-97.0
2023-08-12 18:52:34.044179,-97.0
2023-08-12 18:52:34.051868,-97.0
2023-08-12 18:52:34.059558,-97.0
2023-08-12 18:52:34.067247,-97.0
2023-08-12 18:52:34.074937,-97.0
2023-08-12 18:52:34.082626,-97.0
2023-08-12 18:52:34.090316,-95.0
2023-08-12 18:52:34.098005,-92.0
2023-08-12 18:52:34.105695,-90.0
2023-08-12 18:52:34.113384,-88.0
2023-08-12 18:52:34.121074,-92.0
2023-08-12 18:52:34.128763,-92.0
2023-08-12 18:52:34.136453,-85.0
2023-08-12 18:52:34.144143,-85.0
2023-08-12 18:52:34.151832,-85.0
2023-08-12 18:52:34.159522,-85.0
2023-08-12 18:52:34.167211,-83.0
2023-08-12 18:52:34.174901,-83.0
2023-08-12 18:52:34.182590,-85.0
2023-08-12 18:52:34.190280,-85.0
2023-08-12 18:52:34.197969,-78.0
2023-08-12 18:52:34.205659,-73.0
2023-08-12 18:52:34.213348,-59.0
2023-08-12 18:52:34.221038,-38.0
2023-08-12 18:52:34.228727,-16.0
2023-08-12 18:52:34.236417,-19.0
2023-08-12 18:52:34.244106,-38.0
2023-08-12 18:52:34.251796,-59.0
2023-08-12 18:52:34.259486,-69.0
2023-08-12 18:52:34.267175,-76.0
2023-08-12 18:52:34.274865,-85.0
2023-08-12 18:52:34.282554,-85.0
2023-08-12 18:52:34.290244,-80.0
2023-08-12 18:52:34.297933,-80.0
2023-08-12 18:52:34.305623,-76.0
2023-08-12 18:52:34.313312,-64.0
2023-08-12 18:52:34.321002,-2.0
2023-08-12 18:52:34.328691,235.0
2023-08-12 18:52:34.336381,649.0
2023-08-12 18:52:34.344070,892.0
2023-08-12 18:52:34.351760,454.0
2023-08-12 18:52:34.359449,-428.0
2023-08-12 18:52:34.367139,-723.0
2023-08-12 18:52:34.374829,-390.0
2023-08-12 18:52:34.382518,-223.0
2023-08-12 18:52:34.390208,-190.0
2023-08-12 18:52:34.397897,-71.0
2023-08-12 18:52:34.405587,-57.0
2023-08-12 18:52:34.413276,-92.0
2023-08-12 18:52:34.420966,-61.0
2023-08-12 18:52:34.428655,-42.0
2023-08-12 18:52:34.436345,-54.0
2023-08-12 18:52:34.444034,-45.0
2023-08-12 18:52:34.451724,-33.0
2023-08-12 18:52:34.459413,-33.0
2023-08-12 18:52:34.467103,-26.0
2023-08-12 18:52:34.474792,-19.0
2023-08-12 18:52:34.482482,-14.0
2023-08-12 18:52:34.490172,-11.0
2023-08-12 18:52:34.497861,-4.0
2023-08-12 18:52:34.505551,0.0
2023-08-12 18:52:34.513240,4.0
2023-08-12 18:52:34.520930,9.0
2023-08-12 18:52:34.528619,19.0
2023-08-12 18:52:34.536309,28.0
2023-08-12 18:52:34.543998,33.0
2023-08-12 18:52:34.551688,42.0
2023-08-12 18:52:34.559377,52.0
2023-08-12 18:52:34.567067,59.0
2023-08-12 18:52:34.574756,69.0
2023-08-12 18:52:34.582446,83.0
2023-08-12 18:52:34.590135,95.0
2023-08-12 18:52:34.597825,97.0
2023-08-12 18:52:34.605515,97.0
2023-08-12 18:52:34.613204,90.0
2023-08-12 18:52:34.620894,76.0
2023-08-12 18:52:34.628583,59.0
2023-08-12 18:52:34.636273,42.0
2023-08-12 18:52:34.643962,19.0
2023-08-12 18:52:34.651652,-11.0
2023-08-12 18:52:34.659341,-38.0
2023-08-12 18:52:34.667031,-61.0
2023-08-12 18:52:34.674720,-83.0
2023-08-12 18:52:34.682410,-102.0
2023-08-12 18:52:34.690099,-116.0
2023-08-12 18:52:34.697789,-123.0
2023-08-12 18:52:34.705478,-126.0
2023-08-12 18:52:34.713168,-130.0
2023-08-12 18:52:34.720858,-133.0
2023-08-12 18:52:34.728547,-130.0
2023-08-12 18:52:34.736237,-126.0
2023-08-12 18:52:34.743926,-123.0
2023-08-12 18:52:34.751616,-126.0
2023-08-12 18:52:34.759305,-123.0
2023-08-12 18:52:34.766995,-116.0
2023-08-12 18:52:34.774684,-114.0
2023-08-12 18:52:34.782374,-114.0
2023-08-12 18:52:34.790063,-111.0
2023-08-12 18:52:34.797753,-107.0
2023-08-12 18:52:34.805442,-102.0
2023-08-12 18:52:34.813132,-97.0
2023-08-12 18:52:34.820821,-99.0
2023-08-12 18:52:34.828511,-95.0
2023-08-12 18:52:34.836200,-90.0
2023-08-12 18:52:34.843890,-95.0
2023-08-12 18:52:34.851580,-97.0
2023-08-12 18:52:34.859269,-92.0
2023-08-12 18:52:34.866959,-92.0
2023-08-12 18:52:34.874648,-97.0
2023-08-12 18:52:34.882338,-102.0
2023-08-12 18:52:34.890027,-102.0
2023-08-12 18:52:34.897717,-97.0
2023-08-12 18:52:34.905406,-95.0
2023-08-12 18:52:34.913096,-97.0
2023-08-12 18:52:34.920785,-107.0
2023-08-12 18:52:34.928475,-109.0
2023-08-12 18:52:34.936164,-102.0
2023-08-12 18:52:34.943854,-99.0
2023-08-12 18:52:34.951543,-102.0
2023-08-12 18:52:34.959233,-99.0
2023-08-12 18:52:34.966923,-95.0
2023-08-12 18:52:34.974612,-88.0
2023-08-12 18:52:34.982302,-69.0
2023-08-12 18:52:34.989991,-42.0
2023-08-12 18:52:34.997681,-33.0
2023-08-12 18:52:35.005370,-52.0
2023-08-12 18:52:35.013060,-76.0
2023-08-12 18:52:35.020749,-80.0
2023-08-12 18:52:35.028439,-88.0
2023-08-12 18:52:35.036128,-102.0
2023-08-12 18:52:35.043818,-102.0
2023-08-12 18:52:35.051507,-95.0
2023-08-12 18:52:35.059197,-95.0
2023-08-12 18:52:35.066886,-92.0
2023-08-12 18:52:35.074576,-85.0
2023-08-12 18:52:35.082266,-49.0
2023-08-12 18:52:35.089955,107.0
2023-08-12 18:52:35.097645,480.0
2023-08-12 18:52:35.105334,885.0
2023-08-12 18:52:35.113024,778.0
2023-08-12 18:52:35.120713,-52.0
2023-08-12 18:52:35.128403,-716.0
2023-08-12 18:52:35.136092,-535.0
2023-08-12 18:52:35.143782,-233.0
2023-08-12 18:52:35.151471,-204.0
2023-08-12 18:52:35.159161,-116.0
2023-08-12 18:52:35.166850,-47.0
2023-08-12 18:52:35.174540,-88.0
2023-08-12 18:52:35.182229,-83.0
2023-08-12 18:52:35.189919,-49.0
2023-08-12 18:52:35.197609,-54.0
2023-08-12 18:52:35.205298,-57.0
2023-08-12 18:52:35.212988,-40.0
2023-08-12 18:52:35.220677,-33.0
2023-08-12 18:52:35.228367,-33.0
2023-08-12 18:52:35.236056,-30.0
2023-08-12 18:52:35.243746,-26.0
2023-08-12 18:52:35.251435,-21.0
2023-08-12 18:52:35.259125,-14.0
2023-08-12 18:52:35.266814,-4.0
2023-08-12 18:52:35.274504,-2.0
2023-08-12 18:52:35.282193,0.0
2023-08-12 18:52:35.289883,9.0
2023-08-12 18:52:35.297572,16.0
2023-08-12 18:52:35.305262,26.0
2023-08-12 18:52:35.312952,35.0
2023-08-12 18:52:35.320641,45.0
2023-08-12 18:52:35.328331,54.0
2023-08-12 18:52:35.336020,66.0
2023-08-12 18:52:35.343710,76.0
2023-08-12 18:52:35.351399,83.0
2023-08-12 18:52:35.359089,88.0
2023-08-12 18:52:35.366778,92.0
2023-08-12 18:52:35.374468,83.0
2023-08-12 18:52:35.382157,69.0
2023-08-12 18:52:35.389847,57.0
2023-08-12 18:52:35.397536,42.0
2023-08-12 18:52:35.405226,19.0
2023-08-12 18:52:35.412915,-14.0
2023-08-12 18:52:35.420605,-42.0
2023-08-12 18:52:35.428295,-69.0
2023-08-12 18:52:35.435984,-88.0
2023-08-12 18:52:35.443674,-104.0
2023-08-12 18:52:35.451363,-116.0
2023-08-12 18:52:35.459053,-123.0
2023-08-12 18:52:35.466742,-130.0
2023-08-12 18:52:35.474432,-133.0
2023-08-12 18:52:35.482121,-133.0
2023-08-12 18:52:35.489811,-133.0
2023-08-12 18:52:35.497500,-130.0
2023-08-12 18:52:35.505190,-133.0
2023-08-12 18:52:35.512879,-138.0
2023-08-12 18:52:35.520569,-133.0
2023-08-12 18:52:35.528258,-121.0
2023-08-12 18:52:35.535948,-116.0
2023-08-12 18:52:35.543638,-111.0
2023-08-12 18:52:35.551327,-107.0
2023-08-12 18:52:35.559017,-111.0
2023-08-12 18:52:35.566706,-109.0
2023-08-12 18:52:35.574396,-102.0
2023-08-12 18:52:35.582085,-99.0
2023-08-12 18:52:35.589775,-99.0
2023-08-12 18:52:35.597464,-99.0
2023-08-12 18:52:35.605154,-99.0
2023-08-12 18:52:35.612843,-97.0
2023-08-12 18:52:35.620533,-97.0
2023-08-12 18:52:35.628222,-97.0
2023-08-12 18:52:35.635912,-97.0
2023-08-12 18:52:35.643601,-104.0
2023-08-12 18:52:35.651291,-107.0
2023-08-12 18:52:35.658980,-104.0
2023-08-12 18:52:35.666670,-104.0
2023-08-12 18:52:35.674360,-104.0
2023-08-12 18:52:35.682049,-107.0
2023-08-12 18:52:35.689739,-104.0
2023-08-12 18:52:35.697428,-107.0
2023-08-12 18:52:35.705118,-107.0
2023-08-12 18:52:35.712807,-102.0
2023-08-12 18:52:35.720497,-97.0
2023-08-12 18:52:35.728186,-97.0
2023-08-12 18:52:35.735876,-90.0
2023-08-12 18:52:35.743565,-69.0
2023-08-12 18:52:35.751255,-45.0
2023-08-12 18:52:35.758944,-38.0
2023-08-12 18:52:35.766634,-54.0
2023-08-12 18:52:35.774323,-76.0
2023-08-12 18:52:35.782013,-80.0
2023-08-12 18:52:35.789703,-88.0
2023-08-12 18:52:35.797392,-104.0
2023-08-12 18:52:35.805082,-111.0
2023-08-12 18:52:35.812771,-102.0
2023-08-12 18:52:35.820461,-97.0
2023-08-12 18:52:35.828150,-95.0
2023-08-12 18:52:35.835840,-92.0
2023-08-12 18:52:35.843529,-73.0
2023-08-12 18:52:35.851219,59.0
2023-08-12 18:52:35.858908,440.0
2023-08-12 18:52:35.866598,906.0
2023-08-12 18:52:35.874287,906.0
2023-08-12 18:52:35.881977,107.0
2023-08-12 18:52:35.889666,-685.0
2023-08-12 18:52:35.897356,-597.0
2023-08-12 18:52:35.905046,-252.0
2023-08-12 18:52:35.912735,-209.0
2023-08-12 18:52:35.920425,-149.0
2023-08-12 18:52:35.928114,-76.0
2023-08-12 18:52:35.935804,-111.0
2023-08-12 18:52:35.943493,-114.0
2023-08-12 18:52:35.951183,-73.0
2023-08-12 18:52:35.958872,-76.0
2023-08-12 18:52:35.966562,-83.0
2023-08-12 18:52:35.974251,-66.0
2023-08-12 18:52:35.981941,-59.0
2023-08-12 18:52:35.989630,-59.0
2023-08-12 18:52:35.997320,-52.0
2023-08-12 18:52:36.005009,-45.0
2023-08-12 18:52:36.012699,-40.0
2023-08-12 18:52:36.020389,-35.0
2023-08-12 18:52:36.028078,-30.0
2023-08-12 18:52:36.035768,-21.0
2023-08-12 18:52:36.043457,-14.0
2023-08-12 18:52:36.051147,-14.0
2023-08-12 18:52:36.058836,-11.0
2023-08-12 18:52:36.066526,-2.0
2023-08-12 18:52:36.074215,4.0
2023-08-12 18:52:36.081905,11.0
2023-08-12 18:52:36.089594,26.0
2023-08-12 18:52:36.097284,38.0
2023-08-12 18:52:36.104973,47.0
2023-08-12 18:52:36.112663,57.0
2023-08-12 18:52:36.120352,64.0
2023-08-12 18:52:36.128042,64.0
2023-08-12 18:52:36.135732,59.0
2023-08-12 18:52:36.143421,47.0
2023-08-12 18:52:36.151111,35.0
2023-08-12 18:52:36.158800,21.0
2023-08-12 18:52:36.166490,-2.0
2023-08-12 18:52:36.174179,-30.0
2023-08-12 18:52:36.181869,-54.0
2023-08-12 18:52:36.189558,-76.0
2023-08-12 18:52:36.197248,-92.0
2023-08-12 18:52:36.204937,-104.0
2023-08-12 18:52:36.212627,-114.0
2023-08-12 18:52:36.220316,-123.0
2023-08-12 18:52:36.228006,-130.0
2023-08-12 18:52:36.235695,-133.0
2023-08-12 18:52:36.243385,-130.0
2023-08-12 18:52:36.251075,-126.0
2023-08-12 18:52:36.258764,-121.0
2023-08-12 18:52:36.266454,-123.0
2023-08-12 18:52:36.274143,-121.0
2023-08-12 18:52:36.281833,-114.0
2023-08-12 18:52:36.289522,-114.0
2023-08-12 18:52:36.297212,-111.0
2023-08-12 18:52:36.304901,-102.0
2023-08-12 18:52:36.312591,-97.0
2023-08-12 18:52:36.320280,-97.0
2023-08-12 18:52:36.327970,-95.0
2023-08-12 18:52:36.335659,-90.0
2023-08-12 18:52:36.343349,-85.0
2023-08-12 18:52:36.351038,-80.0
2023-08-12 18:52:36.358728,-80.0
2023-08-12 18:52:36.366418,-83.0
2023-08-12 18:52:36.374107,-80.0
2023-08-12 18:52:36.381797,-80.0
2023-08-12 18:52:36.389486,-85.0
2023-08-12 18:52:36.397176,-88.0
2023-08-12 18:52:36.404865,-88.0
2023-08-12 18:52:36.412555,-90.0
2023-08-12 18:52:36.420244,-88.0
2023-08-12 18:52:36.427934,-83.0
2023-08-12 18:52:36.435623,-85.0
2023-08-12 18:52:36.443313,-85.0
2023-08-12 18:52:36.451002,-85.0
2023-08-12 18:52:36.458692,-88.0
2023-08-12 18:52:36.466381,-88.0
2023-08-12 18:52:36.474071,-88.0
2023-08-12 18:52:36.481761,-88.0
2023-08-12 18:52:36.489450,-88.0
2023-08-12 18:52:36.497140,-88.0
2023-08-12 18:52:36.504829,-85.0
2023-08-12 18:52:36.512519,-88.0
2023-08-12 18:52:36.520208,-90.0
2023-08-12 18:52:36.527898,-90.0
2023-08-12 18:52:36.535587,-92.0
2023-08-12 18:52:36.543277,-92.0
2023-08-12 18:52:36.550966,-92.0
2023-08-12 18:52:36.558656,-92.0
2023-08-12 18:52:36.566345,-90.0
2023-08-12 18:52:36.574035,-85.0
2023-08-12 18:52:36.581724,-73.0
2023-08-12 18:52:36.589414,-59.0
2023-08-12 18:52:36.597103,-38.0
2023-08-12 18:52:36.604793,-38.0
2023-08-12 18:52:36.612483,-57.0
2023-08-12 18:52:36.620172,-73.0
2023-08-12 18:52:36.627862,-80.0
2023-08-12 18:52:36.635551,-97.0
2023-08-12 18:52:36.643241,-107.0
2023-08-12 18:52:36.650930,-99.0
2023-08-12 18:52:36.658620,-95.0
2023-08-12 18:52:36.666309,-97.0
2023-08-12 18:52:36.673999,-95.0
2023-08-12 18:52:36.681688,-90.0
2023-08-12 18:52:36.689378,-45.0
2023-08-12 18:52:36.697067,195.0
2023-08-12 18:52:36.704757,695.0
2023-08-12 18:52:36.712446,1087.0
2023-08-12 18:52:36.720136,740.0
2023-08-12 18:52:36.727826,-226.0
2023-08-12 18:52:36.735515,-671.0
2023-08-12 18:52:36.743205,-364.0
2023-08-12 18:52:36.750894,-176.0
2023-08-12 18:52:36.758584,-195.0
2023-08-12 18:52:36.766273,-126.0
2023-08-12 18:52:36.773963,-99.0
2023-08-12 18:52:36.781652,-128.0
2023-08-12 18:52:36.789342,-109.0
2023-08-12 18:52:36.797031,-85.0
2023-08-12 18:52:36.804721,-90.0
2023-08-12 18:52:36.812410,-85.0
2023-08-12 18:52:36.820100,-71.0
2023-08-12 18:52:36.827789,-69.0
2023-08-12 18:52:36.835479,-66.0
2023-08-12 18:52:36.843169,-54.0
2023-08-12 18:52:36.850858,-47.0
2023-08-12 18:52:36.858548,-45.0
2023-08-12 18:52:36.866237,-40.0
2023-08-12 18:52:36.873927,-28.0
2023-08-12 18:52:36.881616,-23.0
2023-08-12 18:52:36.889306,-26.0
2023-08-12 18:52:36.896995,-23.0
2023-08-12 18:52:36.904685,-14.0
2023-08-12 18:52:36.912374,-7.0
2023-08-12 18:52:36.920064,2.0
2023-08-12 18:52:36.927753,9.0
2023-08-12 18:52:36.935443,21.0
2023-08-12 18:52:36.943132,28.0
2023-08-12 18:52:36.950822,35.0
2023-08-12 18:52:36.958512,42.0
2023-08-12 18:52:36.966201,45.0
2023-08-12 18:52:36.973891,45.0
2023-08-12 18:52:36.981580,42.0
2023-08-12 18:52:36.989270,33.0
2023-08-12 18:52:36.996959,21.0
2023-08-12 18:52:37.004649,7.0
2023-08-12 18:52:37.012338,-14.0
2023-08-12 18:52:37.020028,-38.0
2023-08-12 18:52:37.027717,-57.0
2023-08-12 18:52:37.035407,-76.0
2023-08-12 18:52:37.043096,-88.0
2023-08-12 18:52:37.050786,-97.0
2023-08-12 18:52:37.058475,-107.0
2023-08-12 18:52:37.066165,-111.0
2023-08-12 18:52:37.073855,-114.0
2023-08-12 18:52:37.081544,-116.0
2023-08-12 18:52:37.089234,-119.0
2023-08-12 18:52:37.096923,-114.0
2023-08-12 18:52:37.104613,-111.0
2023-08-12 18:52:37.112302,-111.0
2023-08-12 18:52:37.119992,-111.0
2023-08-12 18:52:37.127681,-116.0
2023-08-12 18:52:37.135371,-116.0
2023-08-12 18:52:37.143060,-107.0
2023-08-12 18:52:37.150750,-102.0
2023-08-12 18:52:37.158439,-104.0
2023-08-12 18:52:37.166129,-102.0
2023-08-12 18:52:37.173818,-95.0
2023-08-12 18:52:37.181508,-92.0
2023-08-12 18:52:37.189198,-90.0
2023-08-12 18:52:37.196887,-88.0
2023-08-12 18:52:37.204577,-85.0
2023-08-12 18:52:37.212266,-85.0
2023-08-12 18:52:37.219956,-88.0
2023-08-12 18:52:37.227645,-85.0
2023-08-12 18:52:37.235335,-83.0
2023-08-12 18:52:37.243024,-83.0
2023-08-12 18:52:37.250714,-85.0
2023-08-12 18:52:37.258403,-85.0
2023-08-12 18:52:37.266093,-85.0
2023-08-12 18:52:37.273782,-85.0
2023-08-12 18:52:37.281472,-83.0
2023-08-12 18:52:37.289161,-80.0
2023-08-12 18:52:37.296851,-80.0
2023-08-12 18:52:37.304541,-80.0
2023-08-12 18:52:37.312230,-80.0
2023-08-12 18:52:37.319920,-80.0
2023-08-12 18:52:37.327609,-80.0
2023-08-12 18:52:37.335299,-80.0
2023-08-12 18:52:37.342988,-78.0
2023-08-12 18:52:37.350678,-80.0
2023-08-12 18:52:37.358367,-80.0
2023-08-12 18:52:37.366057,-78.0
2023-08-12 18:52:37.373746,-78.0
2023-08-12 18:52:37.381436,-83.0
2023-08-12 18:52:37.389125,-85.0
2023-08-12 18:52:37.396815,-90.0
2023-08-12 18:52:37.404504,-92.0
2023-08-12 18:52:37.412194,-90.0
2023-08-12 18:52:37.419883,-88.0
2023-08-12 18:52:37.427573,-88.0
2023-08-12 18:52:37.435263,-85.0
2023-08-12 18:52:37.442952,-85.0
2023-08-12 18:52:37.450642,-88.0
2023-08-12 18:52:37.458331,-92.0
2023-08-12 18:52:37.466021,-88.0
2023-08-12 18:52:37.473710,-83.0
2023-08-12 18:52:37.481400,-80.0
2023-08-12 18:52:37.489089,-71.0
2023-08-12 18:52:37.496779,-49.0
2023-08-12 18:52:37.504468,-28.0
2023-08-12 18:52:37.512158,-23.0
2023-08-12 18:52:37.519847,-40.0
2023-08-12 18:52:37.527537,-59.0
2023-08-12 18:52:37.535226,-69.0
2023-08-12 18:52:37.542916,-80.0
2023-08-12 18:52:37.550606,-92.0
2023-08-12 18:52:37.558295,-90.0
2023-08-12 18:52:37.565985,-85.0
2023-08-12 18:52:37.573674,-83.0
2023-08-12 18:52:37.581364,-83.0
2023-08-12 18:52:37.589053,-80.0
2023-08-12 18:52:37.596743,-69.0
2023-08-12 18:52:37.604432,40.0
2023-08-12 18:52:37.612122,388.0
2023-08-12 18:52:37.619811,875.0
2023-08-12 18:52:37.627501,978.0
2023-08-12 18:52:37.635190,276.0
2023-08-12 18:52:37.642880,-545.0
2023-08-12 18:52:37.650569,-545.0
2023-08-12 18:52:37.658259,-221.0
2023-08-12 18:52:37.665949,-183.0
2023-08-12 18:52:37.673638,-152.0
2023-08-12 18:52:37.681328,-78.0
2023-08-12 18:52:37.689017,-99.0
2023-08-12 18:52:37.696707,-114.0
2023-08-12 18:52:37.704396,-85.0
2023-08-12 18:52:37.712086,-85.0
2023-08-12 18:52:37.719775,-95.0
2023-08-12 18:52:37.727465,-80.0
2023-08-12 18:52:37.735154,-69.0
2023-08-12 18:52:37.742844,-66.0
2023-08-12 18:52:37.750533,-61.0
2023-08-12 18:52:37.758223,-54.0
2023-08-12 18:52:37.765912,-49.0
2023-08-12 18:52:37.773602,-45.0
2023-08-12 18:52:37.781292,-38.0
2023-08-12 18:52:37.788981,-30.0
2023-08-12 18:52:37.796671,-28.0
2023-08-12 18:52:37.804360,-21.0
2023-08-12 18:52:37.812050,-14.0
2023-08-12 18:52:37.819739,-4.0
2023-08-12 18:52:37.827429,2.0
2023-08-12 18:52:37.835118,9.0
2023-08-12 18:52:37.842808,19.0
2023-08-12 18:52:37.850497,26.0
2023-08-12 18:52:37.858187,35.0
2023-08-12 18:52:37.865876,42.0
2023-08-12 18:52:37.873566,49.0
2023-08-12 18:52:37.881255,52.0
2023-08-12 18:52:37.888945,49.0
2023-08-12 18:52:37.896635,42.0
2023-08-12 18:52:37.904324,30.0
2023-08-12 18:52:37.912014,19.0
2023-08-12 18:52:37.919703,4.0
2023-08-12 18:52:37.927393,-19.0
2023-08-12 18:52:37.935082,-42.0
2023-08-12 18:52:37.942772,-64.0
2023-08-12 18:52:37.950461,-80.0
2023-08-12 18:52:37.958151,-95.0
2023-08-12 18:52:37.965840,-104.0
2023-08-12 18:52:37.973530,-114.0
2023-08-12 18:52:37.981219,-121.0
2023-08-12 18:52:37.988909,-121.0
2023-08-12 18:52:37.996598,-121.0
2023-08-12 18:52:38.004288,-121.0
2023-08-12 18:52:38.011978,-119.0
2023-08-12 18:52:38.019667,-116.0
2023-08-12 18:52:38.027357,-114.0
2023-08-12 18:52:38.035046,-111.0
2023-08-12 18:52:38.042736,-109.0
2023-08-12 18:52:38.050425,-109.0
2023-08-12 18:52:38.058115,-104.0
2023-08-12 18:52:38.065804,-99.0
2023-08-12 18:52:38.073494,-99.0
2023-08-12 18:52:38.081183,-95.0
2023-08-12 18:52:38.088873,-92.0
2023-08-12 18:52:38.096562,-90.0
2023-08-12 18:52:38.104252,-88.0
2023-08-12 18:52:38.111941,-83.0
2023-08-12 18:52:38.119631,-83.0
2023-08-12 18:52:38.127321,-83.0
2023-08-12 18:52:38.135010,-83.0
2023-08-12 18:52:38.142700,-85.0
2023-08-12 18:52:38.150389,-85.0
2023-08-12 18:52:38.158079,-88.0
2023-08-12 18:52:38.165768,-90.0
2023-08-12 18:52:38.173458,-92.0
2023-08-12 18:52:38.181147,-95.0
2023-08-12 18:52:38.188837,-97.0
2023-08-12 18:52:38.196526,-97.0
2023-08-12 18:52:38.204216,-97.0
2023-08-12 18:52:38.211905,-99.0
2023-08-12 18:52:38.219595,-97.0
2023-08-12 18:52:38.227284,-95.0
2023-08-12 18:52:38.234974,-95.0
2023-08-12 18:52:38.242663,-95.0
2023-08-12 18:52:38.250353,-92.0
2023-08-12 18:52:38.258043,-92.0
2023-08-12 18:52:38.265732,-92.0
2023-08-12 18:52:38.273422,-90.0
2023-08-12 18:52:38.281111,-90.0
2023-08-12 18:52:38.288801,-90.0
2023-08-12 18:52:38.296490,-95.0
2023-08-12 18:52:38.304180,-95.0
2023-08-12 18:52:38.311869,-92.0
2023-08-12 18:52:38.319559,-92.0
2023-08-12 18:52:38.327248,-90.0
2023-08-12 18:52:38.334938,-90.0
2023-08-12 18:52:38.342627,-95.0
2023-08-12 18:52:38.350317,-97.0
2023-08-12 18:52:38.358006,-92.0
2023-08-12 18:52:38.365696,-90.0
2023-08-12 18:52:38.373386,-88.0
2023-08-12 18:52:38.381075,-90.0
2023-08-12 18:52:38.388765,-92.0
2023-08-12 18:52:38.396454,-95.0
2023-08-12 18:52:38.404144,-95.0
2023-08-12 18:52:38.411833,-95.0
2023-08-12 18:52:38.419523,-92.0
2023-08-12 18:52:38.427212,-90.0
2023-08-12 18:52:38.434902,-92.0
2023-08-12 18:52:38.442591,-95.0
2023-08-12 18:52:38.450281,-90.0
2023-08-12 18:52:38.457970,-88.0
2023-08-12 18:52:38.465660,-85.0
2023-08-12 18:52:38.473349,-76.0
2023-08-12 18:52:38.481039,-57.0
2023-08-12 18:52:38.488729,-35.0
2023-08-12 18:52:38.496418,-21.0
2023-08-12 18:52:38.504108,-30.0
2023-08-12 18:52:38.511797,-52.0
2023-08-12 18:52:38.519487,-64.0
2023-08-12 18:52:38.527176,-71.0
2023-08-12 18:52:38.534866,-85.0
2023-08-12 18:52:38.542555,-92.0
2023-08-12 18:52:38.550245,-85.0
2023-08-12 18:52:38.557934,-80.0
2023-08-12 18:52:38.565624,-80.0
2023-08-12 18:52:38.573313,-78.0
2023-08-12 18:52:38.581003,-73.0
2023-08-12 18:52:38.588692,-26.0
2023-08-12 18:52:38.596382,207.0
2023-08-12 18:52:38.604072,654.0
2023-08-12 18:52:38.611761,980.0
2023-08-12 18:52:38.619451,604.0
2023-08-12 18:52:38.627140,-304.0
2023-08-12 18:52:38.634830,-654.0
2023-08-12 18:52:38.642519,-333.0
2023-08-12 18:52:38.650209,-166.0
2023-08-12 18:52:38.657898,-171.0
2023-08-12 18:52:38.665588,-92.0
2023-08-12 18:52:38.673277,-76.0
2023-08-12 18:52:38.680967,-104.0
2023-08-12 18:52:38.688656,-85.0
2023-08-12 18:52:38.696346,-69.0
2023-08-12 18:52:38.704035,-73.0
2023-08-12 18:52:38.711725,-66.0
2023-08-12 18:52:38.719415,-54.0
2023-08-12 18:52:38.727104,-49.0
2023-08-12 18:52:38.734794,-45.0
2023-08-12 18:52:38.742483,-40.0
2023-08-12 18:52:38.750173,-35.0
2023-08-12 18:52:38.757862,-28.0
2023-08-12 18:52:38.765552,-26.0
2023-08-12 18:52:38.773241,-21.0
2023-08-12 18:52:38.780931,-16.0
2023-08-12 18:52:38.788620,-9.0
2023-08-12 18:52:38.796310,-2.0
2023-08-12 18:52:38.803999,2.0
2023-08-12 18:52:38.811689,11.0
2023-08-12 18:52:38.819378,21.0
2023-08-12 18:52:38.827068,26.0
2023-08-12 18:52:38.834758,26.0
2023-08-12 18:52:38.842447,30.0
2023-08-12 18:52:38.850137,42.0
2023-08-12 18:52:38.857826,54.0
2023-08-12 18:52:38.865516,59.0
2023-08-12 18:52:38.873205,59.0
2023-08-12 18:52:38.880895,54.0
2023-08-12 18:52:38.888584,47.0
2023-08-12 18:52:38.896274,38.0
2023-08-12 18:52:38.903963,19.0
2023-08-12 18:52:38.911653,-4.0
2023-08-12 18:52:38.919342,-26.0
2023-08-12 18:52:38.927032,-54.0
2023-08-12 18:52:38.934721,-78.0
2023-08-12 18:52:38.942411,-95.0
2023-08-12 18:52:38.950101,-109.0
2023-08-12 18:52:38.957790,-126.0
2023-08-12 18:52:38.965480,-135.0
2023-08-12 18:52:38.973169,-140.0
2023-08-12 18:52:38.980859,-140.0
2023-08-12 18:52:38.988548,-140.0
2023-08-12 18:52:38.996238,-138.0
2023-08-12 18:52:39.003927,-133.0
2023-08-12 18:52:39.011617,-130.0
2023-08-12 18:52:39.019306,-130.0
2023-08-12 18:52:39.026996,-128.0
2023-08-12 18:52:39.034685,-123.0
2023-08-12 18:52:39.042375,-119.0
2023-08-12 18:52:39.050064,-116.0
2023-08-12 18:52:39.057754,-111.0
2023-08-12 18:52:39.065444,-109.0
2023-08-12 18:52:39.073133,-109.0
2023-08-12 18:52:39.080823,-107.0
2023-08-12 18:52:39.088512,-104.0
2023-08-12 18:52:39.096202,-99.0
2023-08-12 18:52:39.103891,-95.0
2023-08-12 18:52:39.111581,-95.0
2023-08-12 18:52:39.119270,-97.0
2023-08-12 18:52:39.126960,-95.0
2023-08-12 18:52:39.134649,-90.0
2023-08-12 18:52:39.142339,-88.0
2023-08-12 18:52:39.150028,-92.0
2023-08-12 18:52:39.157718,-95.0
2023-08-12 18:52:39.165407,-90.0
2023-08-12 18:52:39.173097,-90.0
2023-08-12 18:52:39.180786,-90.0
2023-08-12 18:52:39.188476,-92.0
2023-08-12 18:52:39.196166,-92.0
2023-08-12 18:52:39.203855,-90.0
2023-08-12 18:52:39.211545,-88.0
2023-08-12 18:52:39.219234,-85.0
2023-08-12 18:52:39.226924,-85.0
2023-08-12 18:52:39.234613,-83.0
2023-08-12 18:52:39.242303,-85.0
2023-08-12 18:52:39.249992,-83.0
2023-08-12 18:52:39.257682,-80.0
2023-08-12 18:52:39.265371,-78.0
2023-08-12 18:52:39.273061,-78.0
2023-08-12 18:52:39.280750,-76.0
2023-08-12 18:52:39.288440,-76.0
2023-08-12 18:52:39.296129,-76.0
2023-08-12 18:52:39.303819,-73.0
2023-08-12 18:52:39.311509,-71.0
2023-08-12 18:52:39.319198,-69.0
2023-08-12 18:52:39.326888,-71.0
2023-08-12 18:52:39.334577,-71.0
2023-08-12 18:52:39.342267,-69.0
2023-08-12 18:52:39.349956,-66.0
2023-08-12 18:52:39.357646,-64.0
2023-08-12 18:52:39.365335,-66.0
2023-08-12 18:52:39.373025,-69.0
2023-08-12 18:52:39.380714,-66.0
2023-08-12 18:52:39.388404,-64.0
2023-08-12 18:52:39.396093,-64.0
2023-08-12 18:52:39.403783,-69.0
2023-08-12 18:52:39.411472,-71.0
2023-08-12 18:52:39.419162,-64.0
2023-08-12 18:52:39.426852,-52.0
2023-08-12 18:52:39.434541,-38.0
2023-08-12 18:52:39.442231,-21.0
2023-08-12 18:52:39.449920,-14.0
2023-08-12 18:52:39.457610,-30.0
2023-08-12 18:52:39.465299,-57.0
2023-08-12 18:52:39.472989,-71.0
2023-08-12 18:52:39.480678,-78.0
2023-08-12 18:52:39.488368,-88.0
2023-08-12 18:52:39.496057,-85.0
2023-08-12 18:52:39.503747,-78.0
2023-08-12 18:52:39.511436,-78.0
2023-08-12 18:52:39.519126,-76.0
2023-08-12 18:52:39.526815,-69.0
2023-08-12 18:52:39.534505,-49.0
2023-08-12 18:52:39.542195,83.0
2023-08-12 18:52:39.549884,435.0
2023-08-12 18:52:39.557574,852.0
2023-08-12 18:52:39.565263,816.0
2023-08-12 18:52:39.572953,40.0
2023-08-12 18:52:39.580642,-673.0
2023-08-12 18:52:39.588332,-542.0
2023-08-12 18:52:39.596021,-223.0
2023-08-12 18:52:39.603711,-190.0
2023-08-12 18:52:39.611400,-119.0
2023-08-12 18:52:39.619090,-45.0
2023-08-12 18:52:39.626779,-76.0
2023-08-12 18:52:39.634469,-76.0
2023-08-12 18:52:39.642158,-45.0
2023-08-12 18:52:39.649848,-52.0
2023-08-12 18:52:39.657538,-57.0
2023-08-12 18:52:39.665227,-40.0
2023-08-12 18:52:39.672917,-38.0
2023-08-12 18:52:39.680606,-38.0
2023-08-12 18:52:39.688296,-30.0
2023-08-12 18:52:39.695985,-28.0
2023-08-12 18:52:39.703675,-28.0
2023-08-12 18:52:39.711364,-23.0
2023-08-12 18:52:39.719054,-19.0
2023-08-12 18:52:39.726743,-14.0
2023-08-12 18:52:39.734433,-7.0
2023-08-12 18:52:39.742122,-2.0
2023-08-12 18:52:39.749812,2.0
2023-08-12 18:52:39.757501,11.0
2023-08-12 18:52:39.765191,23.0
2023-08-12 18:52:39.772881,33.0
2023-08-12 18:52:39.780570,38.0
2023-08-12 18:52:39.788260,45.0
2023-08-12 18:52:39.795949,61.0
2023-08-12 18:52:39.803639,71.0
2023-08-12 18:52:39.811328,80.0
2023-08-12 18:52:39.819018,85.0
2023-08-12 18:52:39.826707,80.0
2023-08-12 18:52:39.834397,76.0
2023-08-12 18:52:39.842086,71.0
2023-08-12 18:52:39.849776,57.0
2023-08-12 18:52:39.857465,38.0
2023-08-12 18:52:39.865155,11.0
2023-08-12 18:52:39.872844,-21.0
2023-08-12 18:52:39.880534,-49.0
2023-08-12 18:52:39.888224,-69.0
2023-08-12 18:52:39.895913,-88.0
2023-08-12 18:52:39.903603,-107.0
2023-08-12 18:52:39.911292,-119.0
2023-08-12 18:52:39.918982,-130.0
2023-08-12 18:52:39.926671,-135.0
2023-08-12 18:52:39.934361,-130.0
2023-08-12 18:52:39.942050,-133.0
2023-08-12 18:52:39.949740,-130.0
2023-08-12 18:52:39.957429,-133.0
2023-08-12 18:52:39.965119,-133.0
2023-08-12 18:52:39.972808,-130.0
2023-08-12 18:52:39.980498,-123.0
2023-08-12 18:52:39.988187,-116.0
2023-08-12 18:52:39.995877,-111.0
2023-08-12 18:52:40.003566,-109.0
2023-08-12 18:52:40.011256,-107.0
2023-08-12 18:52:40.018946,-104.0
2023-08-12 18:52:40.026635,-99.0
2023-08-12 18:52:40.034325,-97.0
2023-08-12 18:52:40.042014,-92.0
2023-08-12 18:52:40.049704,-90.0
2023-08-12 18:52:40.057393,-90.0
2023-08-12 18:52:40.065083,-90.0
2023-08-12 18:52:40.072772,-88.0
2023-08-12 18:52:40.080462,-88.0
2023-08-12 18:52:40.088151,-88.0
2023-08-12 18:52:40.095841,-88.0
2023-08-12 18:52:40.103530,-85.0
2023-08-12 18:52:40.111220,-85.0
2023-08-12 18:52:40.118909,-85.0
2023-08-12 18:52:40.126599,-85.0
2023-08-12 18:52:40.134289,-83.0
2023-08-12 18:52:40.141978,-83.0
2023-08-12 18:52:40.149668,-83.0
2023-08-12 18:52:40.157357,-83.0
2023-08-12 18:52:40.165047,-83.0
2023-08-12 18:52:40.172736,-85.0
2023-08-12 18:52:40.180426,-83.0
2023-08-12 18:52:40.188115,-78.0
2023-08-12 18:52:40.195805,-76.0
2023-08-12 18:52:40.203494,-76.0
2023-08-12 18:52:40.211184,-76.0
2023-08-12 18:52:40.218873,-76.0
2023-08-12 18:52:40.226563,-73.0
2023-08-12 18:52:40.234252,-73.0
2023-08-12 18:52:40.241942,-76.0
2023-08-12 18:52:40.249632,-73.0
2023-08-12 18:52:40.257321,-71.0
2023-08-12 18:52:40.265011,-69.0
2023-08-12 18:52:40.272700,-71.0
2023-08-12 18:52:40.280390,-71.0
2023-08-12 18:52:40.288079,-66.0
2023-08-12 18:52:40.295769,-64.0
2023-08-12 18:52:40.303458,-64.0
2023-08-12 18:52:40.311148,-66.0
2023-08-12 18:52:40.318837,-64.0
2023-08-12 18:52:40.326527,-61.0
2023-08-12 18:52:40.334216,-61.0
2023-08-12 18:52:40.341906,-61.0
2023-08-12 18:52:40.349595,-64.0
2023-08-12 18:52:40.357285,-64.0
2023-08-12 18:52:40.364975,-49.0
2023-08-12 18:52:40.372664,-28.0
2023-08-12 18:52:40.380354,-9.0
2023-08-12 18:52:40.388043,-2.0
2023-08-12 18:52:40.395733,-16.0
2023-08-12 18:52:40.403422,-38.0
2023-08-12 18:52:40.411112,-49.0
2023-08-12 18:52:40.418801,-61.0
2023-08-12 18:52:40.426491,-80.0
2023-08-12 18:52:40.434180,-83.0
2023-08-12 18:52:40.441870,-73.0
2023-08-12 18:52:40.449559,-73.0
2023-08-12 18:52:40.457249,-73.0
2023-08-12 18:52:40.464938,-69.0
2023-08-12 18:52:40.472628,-49.0
2023-08-12 18:52:40.480318,80.0
2023-08-12 18:52:40.488007,445.0
2023-08-12 18:52:40.495697,895.0
2023-08-12 18:52:40.503386,899.0
2023-08-12 18:52:40.511076,121.0
2023-08-12 18:52:40.518765,-659.0
2023-08-12 18:52:40.526455,-573.0
2023-08-12 18:52:40.534144,-240.0
2023-08-12 18:52:40.541834,-204.0
2023-08-12 18:52:40.549523,-149.0
2023-08-12 18:52:40.557213,-76.0
2023-08-12 18:52:40.564902,-107.0
2023-08-12 18:52:40.572592,-109.0
2023-08-12 18:52:40.580281,-78.0
2023-08-12 18:52:40.587971,-78.0
2023-08-12 18:52:40.595661,-83.0
2023-08-12 18:52:40.603350,-66.0
2023-08-12 18:52:40.611040,-57.0
2023-08-12 18:52:40.618729,-59.0
2023-08-12 18:52:40.626419,-54.0
2023-08-12 18:52:40.634108,-47.0
2023-08-12 18:52:40.641798,-45.0
2023-08-12 18:52:40.649487,-40.0
2023-08-12 18:52:40.657177,-33.0
2023-08-12 18:52:40.664866,-28.0
2023-08-12 18:52:40.672556,-21.0
2023-08-12 18:52:40.680245,-19.0
2023-08-12 18:52:40.687935,-11.0
2023-08-12 18:52:40.695624,-2.0
2023-08-12 18:52:40.703314,7.0
2023-08-12 18:52:40.711004,16.0
2023-08-12 18:52:40.718693,23.0
2023-08-12 18:52:40.726383,33.0
2023-08-12 18:52:40.734072,45.0
2023-08-12 18:52:40.741762,57.0
2023-08-12 18:52:40.749451,66.0
2023-08-12 18:52:40.757141,71.0
2023-08-12 18:52:40.764830,69.0
2023-08-12 18:52:40.772520,64.0
2023-08-12 18:52:40.780209,54.0
2023-08-12 18:52:40.787899,42.0
2023-08-12 18:52:40.795588,26.0
2023-08-12 18:52:40.803278,0.0
2023-08-12 18:52:40.810967,-30.0
2023-08-12 18:52:40.818657,-57.0
2023-08-12 18:52:40.826346,-78.0
2023-08-12 18:52:40.834036,-95.0
2023-08-12 18:52:40.841726,-109.0
2023-08-12 18:52:40.849415,-116.0
2023-08-12 18:52:40.857105,-126.0
2023-08-12 18:52:40.864794,-130.0
2023-08-12 18:52:40.872484,-130.0
2023-08-12 18:52:40.880173,-128.0
2023-08-12 18:52:40.887863,-128.0
2023-08-12 18:52:40.895552,-126.0
2023-08-12 18:52:40.903242,-126.0
2023-08-12 18:52:40.910931,-126.0
2023-08-12 18:52:40.918621,-121.0
2023-08-12 18:52:40.926310,-121.0
2023-08-12 18:52:40.934000,-121.0
2023-08-12 18:52:40.941689,-114.0
2023-08-12 18:52:40.949379,-109.0
2023-08-12 18:52:40.957069,-107.0
2023-08-12 18:52:40.964758,-102.0
2023-08-12 18:52:40.972448,-97.0
2023-08-12 18:52:40.980137,-92.0
2023-08-12 18:52:40.987827,-90.0
2023-08-12 18:52:40.995516,-90.0
2023-08-12 18:52:41.003206,-90.0
2023-08-12 18:52:41.010895,-85.0
2023-08-12 18:52:41.018585,-83.0
2023-08-12 18:52:41.026274,-83.0
2023-08-12 18:52:41.033964,-83.0
2023-08-12 18:52:41.041653,-85.0
2023-08-12 18:52:41.049343,-88.0
2023-08-12 18:52:41.057032,-85.0
2023-08-12 18:52:41.064722,-85.0
2023-08-12 18:52:41.072412,-85.0
2023-08-12 18:52:41.080101,-88.0
2023-08-12 18:52:41.087791,-92.0
2023-08-12 18:52:41.095480,-97.0
2023-08-12 18:52:41.103170,-92.0
2023-08-12 18:52:41.110859,-90.0
2023-08-12 18:52:41.118549,-90.0
2023-08-12 18:52:41.126238,-88.0
2023-08-12 18:52:41.133928,-90.0
2023-08-12 18:52:41.141617,-90.0
2023-08-12 18:52:41.149307,-88.0
2023-08-12 18:52:41.156996,-85.0
2023-08-12 18:52:41.164686,-85.0
2023-08-12 18:52:41.172375,-83.0
2023-08-12 18:52:41.180065,-83.0
2023-08-12 18:52:41.187755,-83.0
2023-08-12 18:52:41.195444,-80.0
2023-08-12 18:52:41.203134,-78.0
2023-08-12 18:52:41.210823,-76.0
2023-08-12 18:52:41.218513,-78.0
2023-08-12 18:52:41.226202,-76.0
2023-08-12 18:52:41.233892,-73.0
2023-08-12 18:52:41.241581,-71.0
2023-08-12 18:52:41.249271,-71.0
2023-08-12 18:52:41.256960,-69.0
2023-08-12 18:52:41.264650,-69.0
2023-08-12 18:52:41.272339,-69.0
2023-08-12 18:52:41.280029,-66.0
2023-08-12 18:52:41.287718,-66.0
2023-08-12 18:52:41.295408,-64.0
2023-08-12 18:52:41.303098,-64.0
2023-08-12 18:52:41.310787,-66.0
2023-08-12 18:52:41.318477,-66.0
2023-08-12 18:52:41.326166,-64.0
2023-08-12 18:52:41.333856,-59.0
2023-08-12 18:52:41.341545,-52.0
2023-08-12 18:52:41.349235,-35.0
2023-08-12 18:52:41.356924,-16.0
2023-08-12 18:52:41.364614,-4.0
2023-08-12 18:52:41.372303,-11.0
2023-08-12 18:52:41.379993,-33.0
2023-08-12 18:52:41.387682,-47.0
2023-08-12 18:52:41.395372,-59.0
2023-08-12 18:52:41.403061,-78.0
2023-08-12 18:52:41.410751,-85.0
2023-08-12 18:52:41.418441,-78.0
2023-08-12 18:52:41.426130,-78.0
2023-08-12 18:52:41.433820,-83.0
2023-08-12 18:52:41.441509,-85.0
2023-08-12 18:52:41.449199,-76.0
2023-08-12 18:52:41.456888,16.0
2023-08-12 18:52:41.464578,345.0
2023-08-12 18:52:41.472267,854.0
2023-08-12 18:52:41.479957,1052.0
2023-08-12 18:52:41.487646,430.0
2023-08-12 18:52:41.495336,-471.0
2023-08-12 18:52:41.503025,-606.0
2023-08-12 18:52:41.510715,-271.0
2023-08-12 18:52:41.518404,-190.0
2023-08-12 18:52:41.526094,-178.0
2023-08-12 18:52:41.533784,-102.0
2023-08-12 18:52:41.541473,-111.0
2023-08-12 18:52:41.549163,-130.0
2023-08-12 18:52:41.556852,-99.0
2023-08-12 18:52:41.564542,-88.0
2023-08-12 18:52:41.572231,-95.0
2023-08-12 18:52:41.579921,-83.0
2023-08-12 18:52:41.587610,-73.0
2023-08-12 18:52:41.595300,-71.0
2023-08-12 18:52:41.602989,-64.0
2023-08-12 18:52:41.610679,-57.0
2023-08-12 18:52:41.618368,-52.0
2023-08-12 18:52:41.626058,-45.0
2023-08-12 18:52:41.633747,-40.0
2023-08-12 18:52:41.641437,-38.0
2023-08-12 18:52:41.649126,-33.0
2023-08-12 18:52:41.656816,-26.0
2023-08-12 18:52:41.664506,-19.0
2023-08-12 18:52:41.672195,-11.0
2023-08-12 18:52:41.679885,-4.0
2023-08-12 18:52:41.687574,2.0
2023-08-12 18:52:41.695264,11.0
2023-08-12 18:52:41.702953,21.0
2023-08-12 18:52:41.710643,28.0
2023-08-12 18:52:41.718332,33.0
2023-08-12 18:52:41.726022,38.0
2023-08-12 18:52:41.733711,47.0
2023-08-12 18:52:41.741401,49.0
2023-08-12 18:52:41.749090,47.0
2023-08-12 18:52:41.756780,40.0
2023-08-12 18:52:41.764469,28.0
2023-08-12 18:52:41.772159,14.0
2023-08-12 18:52:41.779849,-7.0
2023-08-12 18:52:41.787538,-30.0
2023-08-12 18:52:41.795228,-57.0
2023-08-12 18:52:41.802917,-78.0
2023-08-12 18:52:41.810607,-92.0
2023-08-12 18:52:41.818296,-104.0
2023-08-12 18:52:41.825986,-114.0
2023-08-12 18:52:41.833675,-121.0
2023-08-12 18:52:41.841365,-126.0
2023-08-12 18:52:41.849054,-128.0
2023-08-12 18:52:41.856744,-128.0
2023-08-12 18:52:41.864433,-128.0
2023-08-12 18:52:41.872123,-123.0
2023-08-12 18:52:41.879812,-123.0
2023-08-12 18:52:41.887502,-123.0
2023-08-12 18:52:41.895192,-123.0
2023-08-12 18:52:41.902881,-119.0
2023-08-12 18:52:41.910571,-111.0
2023-08-12 18:52:41.918260,-109.0
2023-08-12 18:52:41.925950,-107.0
2023-08-12 18:52:41.933639,-102.0
2023-08-12 18:52:41.941329,-99.0
2023-08-12 18:52:41.949018,-102.0
2023-08-12 18:52:41.956708,-95.0
2023-08-12 18:52:41.964397,-92.0
2023-08-12 18:52:41.972087,-90.0
2023-08-12 18:52:41.979776,-88.0
2023-08-12 18:52:41.987466,-85.0
2023-08-12 18:52:41.995155,-85.0
2023-08-12 18:52:42.002845,-85.0
2023-08-12 18:52:42.010535,-85.0
2023-08-12 18:52:42.018224,-85.0
2023-08-12 18:52:42.025914,-85.0
2023-08-12 18:52:42.033603,-85.0
2023-08-12 18:52:42.041293,-85.0
2023-08-12 18:52:42.048982,-85.0
2023-08-12 18:52:42.056672,-85.0
2023-08-12 18:52:42.064361,-85.0
2023-08-12 18:52:42.072051,-85.0
2023-08-12 18:52:42.079740,-85.0
2023-08-12 18:52:42.087430,-85.0
2023-08-12 18:52:42.095119,-83.0
2023-08-12 18:52:42.102809,-83.0
2023-08-12 18:52:42.110498,-83.0
2023-08-12 18:52:42.118188,-80.0
2023-08-12 18:52:42.125878,-80.0
2023-08-12 18:52:42.133567,-80.0
2023-08-12 18:52:42.141257,-80.0
2023-08-12 18:52:42.148946,-80.0
2023-08-12 18:52:42.156636,-78.0
2023-08-12 18:52:42.164325,-78.0
2023-08-12 18:52:42.172015,-76.0
2023-08-12 18:52:42.179704,-73.0
2023-08-12 18:52:42.187394,-71.0
2023-08-12 18:52:42.195083,-69.0
2023-08-12 18:52:42.202773,-71.0
2023-08-12 18:52:42.210462,-76.0
2023-08-12 18:52:42.218152,-78.0
2023-08-12 18:52:42.225841,-76.0
2023-08-12 18:52:42.233531,-73.0
2023-08-12 18:52:42.241221,-73.0
2023-08-12 18:52:42.248910,-73.0
2023-08-12 18:52:42.256600,-78.0
2023-08-12 18:52:42.264289,-80.0
2023-08-12 18:52:42.271979,-78.0
2023-08-12 18:52:42.279668,-73.0
2023-08-12 18:52:42.287358,-73.0
2023-08-12 18:52:42.295047,-73.0
2023-08-12 18:52:42.302737,-73.0
2023-08-12 18:52:42.310426,-73.0
2023-08-12 18:52:42.318116,-71.0
2023-08-12 18:52:42.325805,-66.0
2023-08-12 18:52:42.333495,-66.0
2023-08-12 18:52:42.341184,-57.0
2023-08-12 18:52:42.348874,-38.0
2023-08-12 18:52:42.356564,-14.0
2023-08-12 18:52:42.364253,-7.0
2023-08-12 18:52:42.371943,-19.0
2023-08-12 18:52:42.379632,-40.0
2023-08-12 18:52:42.387322,-54.0
2023-08-12 18:52:42.395011,-66.0
2023-08-12 18:52:42.402701,-83.0
2023-08-12 18:52:42.410390,-88.0
2023-08-12 18:52:42.418080,-83.0
2023-08-12 18:52:42.425769,-80.0
2023-08-12 18:52:42.433459,-83.0
2023-08-12 18:52:42.441148,-83.0
2023-08-12 18:52:42.448838,-83.0
2023-08-12 18:52:42.456527,-16.0
2023-08-12 18:52:42.464217,261.0
2023-08-12 18:52:42.471907,742.0
2023-08-12 18:52:42.479596,1014.0
2023-08-12 18:52:42.487286,535.0
2023-08-12 18:52:42.494975,-368.0
2023-08-12 18:52:42.502665,-635.0
2023-08-12 18:52:42.510354,-316.0
2023-08-12 18:52:42.518044,-190.0
2023-08-12 18:52:42.525733,-188.0
2023-08-12 18:52:42.533423,-107.0
2023-08-12 18:52:42.541112,-102.0
2023-08-12 18:52:42.548802,-126.0
2023-08-12 18:52:42.556491,-99.0
2023-08-12 18:52:42.564181,-85.0
2023-08-12 18:52:42.571870,-95.0
2023-08-12 18:52:42.579560,-85.0
2023-08-12 18:52:42.587249,-71.0
2023-08-12 18:52:42.594939,-69.0
2023-08-12 18:52:42.602629,-64.0
2023-08-12 18:52:42.610318,-54.0
2023-08-12 18:52:42.618008,-52.0
2023-08-12 18:52:42.625697,-47.0
2023-08-12 18:52:42.633387,-42.0
2023-08-12 18:52:42.641076,-35.0
2023-08-12 18:52:42.648766,-28.0
2023-08-12 18:52:42.656455,-23.0
2023-08-12 18:52:42.664145,-19.0
2023-08-12 18:52:42.671834,-11.0
2023-08-12 18:52:42.679524,-2.0
2023-08-12 18:52:42.687213,4.0
2023-08-12 18:52:42.694903,14.0
2023-08-12 18:52:42.702592,23.0
2023-08-12 18:52:42.710282,30.0
2023-08-12 18:52:42.717972,40.0
2023-08-12 18:52:42.725661,52.0
2023-08-12 18:52:42.733351,57.0
2023-08-12 18:52:42.741040,59.0
2023-08-12 18:52:42.748730,54.0
2023-08-12 18:52:42.756419,47.0
2023-08-12 18:52:42.764109,38.0
2023-08-12 18:52:42.771798,23.0
2023-08-12 18:52:42.779488,2.0
2023-08-12 18:52:42.787177,-21.0
2023-08-12 18:52:42.794867,-49.0
2023-08-12 18:52:42.802556,-78.0
2023-08-12 18:52:42.810246,-92.0
2023-08-12 18:52:42.817935,-99.0
2023-08-12 18:52:42.825625,-111.0
2023-08-12 18:52:42.833315,-121.0
2023-08-12 18:52:42.841004,-130.0
2023-08-12 18:52:42.848694,-138.0
2023-08-12 18:52:42.856383,-135.0
2023-08-12 18:52:42.864073,-133.0
2023-08-12 18:52:42.871762,-133.0
2023-08-12 18:52:42.879452,-133.0
2023-08-12 18:52:42.887141,-130.0
2023-08-12 18:52:42.894831,-128.0
2023-08-12 18:52:42.902520,-123.0
2023-08-12 18:52:42.910210,-119.0
2023-08-12 18:52:42.917899,-114.0
2023-08-12 18:52:42.925589,-109.0
2023-08-12 18:52:42.933278,-107.0
2023-08-12 18:52:42.940968,-104.0
2023-08-12 18:52:42.948658,-99.0
2023-08-12 18:52:42.956347,-102.0
2023-08-12 18:52:42.964037,-99.0
2023-08-12 18:52:42.971726,-92.0
2023-08-12 18:52:42.979416,-92.0
2023-08-12 18:52:42.987105,-92.0
2023-08-12 18:52:42.994795,-88.0
2023-08-12 18:52:43.002484,-85.0
2023-08-12 18:52:43.010174,-85.0
2023-08-12 18:52:43.017863,-85.0
2023-08-12 18:52:43.025553,-88.0
2023-08-12 18:52:43.033242,-88.0
2023-08-12 18:52:43.040932,-88.0
2023-08-12 18:52:43.048621,-85.0
2023-08-12 18:52:43.056311,-85.0
2023-08-12 18:52:43.064001,-85.0
2023-08-12 18:52:43.071690,-88.0
2023-08-12 18:52:43.079380,-85.0
2023-08-12 18:52:43.087069,-80.0
2023-08-12 18:52:43.094759,-80.0
2023-08-12 18:52:43.102448,-78.0
2023-08-12 18:52:43.110138,-76.0
2023-08-12 18:52:43.117827,-78.0
2023-08-12 18:52:43.125517,-78.0
2023-08-12 18:52:43.133206,-78.0
2023-08-12 18:52:43.140896,-76.0
2023-08-12 18:52:43.148585,-73.0
2023-08-12 18:52:43.156275,-76.0
2023-08-12 18:52:43.163964,-76.0
2023-08-12 18:52:43.171654,-73.0
2023-08-12 18:52:43.179344,-69.0
2023-08-12 18:52:43.187033,-66.0
2023-08-12 18:52:43.194723,-69.0
2023-08-12 18:52:43.202412,-66.0
2023-08-12 18:52:43.210102,-66.0
2023-08-12 18:52:43.217791,-66.0
2023-08-12 18:52:43.225481,-66.0
2023-08-12 18:52:43.233170,-64.0
2023-08-12 18:52:43.240860,-64.0
2023-08-12 18:52:43.248549,-61.0
2023-08-12 18:52:43.256239,-61.0
2023-08-12 18:52:43.263928,-61.0
2023-08-12 18:52:43.271618,-59.0
2023-08-12 18:52:43.279307,-57.0
2023-08-12 18:52:43.286997,-57.0
2023-08-12 18:52:43.294687,-59.0
2023-08-12 18:52:43.302376,-59.0
2023-08-12 18:52:43.310066,-57.0
2023-08-12 18:52:43.317755,-54.0
2023-08-12 18:52:43.325445,-47.0
2023-08-12 18:52:43.333134,-28.0
2023-08-12 18:52:43.340824,-4.0
2023-08-12 18:52:43.348513,0.0
2023-08-12 18:52:43.356203,-16.0
2023-08-12 18:52:43.363892,-38.0
2023-08-12 18:52:43.371582,-49.0
2023-08-12 18:52:43.379271,-69.0
2023-08-12 18:52:43.386961,-92.0
2023-08-12 18:52:43.394650,-97.0
2023-08-12 18:52:43.402340,-90.0
2023-08-12 18:52:43.410029,-88.0
2023-08-12 18:52:43.417719,-88.0
2023-08-12 18:52:43.425409,-85.0
2023-08-12 18:52:43.433098,-71.0
2023-08-12 18:52:43.440788,49.0
2023-08-12 18:52:43.448477,395.0
2023-08-12 18:52:43.456167,830.0
2023-08-12 18:52:43.463856,866.0
2023-08-12 18:52:43.471546,147.0
2023-08-12 18:52:43.479235,-618.0
2023-08-12 18:52:43.486925,-568.0
2023-08-12 18:52:43.494614,-242.0
2023-08-12 18:52:43.502304,-192.0
2023-08-12 18:52:43.509993,-145.0
2023-08-12 18:52:43.517683,-83.0
2023-08-12 18:52:43.525372,-104.0
2023-08-12 18:52:43.533062,-104.0
2023-08-12 18:52:43.540752,-78.0
2023-08-12 18:52:43.548441,-78.0
2023-08-12 18:52:43.556131,-78.0
2023-08-12 18:52:43.563820,-66.0
2023-08-12 18:52:43.571510,-61.0
2023-08-12 18:52:43.579199,-59.0
2023-08-12 18:52:43.586889,-52.0
2023-08-12 18:52:43.594578,-45.0
2023-08-12 18:52:43.602268,-35.0
2023-08-12 18:52:43.609957,-30.0
2023-08-12 18:52:43.617647,-28.0
2023-08-12 18:52:43.625336,-26.0
2023-08-12 18:52:43.633026,-16.0
2023-08-12 18:52:43.640715,-9.0
2023-08-12 18:52:43.648405,-2.0
2023-08-12 18:52:43.656095,2.0
2023-08-12 18:52:43.663784,9.0
2023-08-12 18:52:43.671474,14.0
2023-08-12 18:52:43.679163,28.0
2023-08-12 18:52:43.686853,42.0
2023-08-12 18:52:43.694542,52.0
2023-08-12 18:52:43.702232,57.0
2023-08-12 18:52:43.709921,66.0
2023-08-12 18:52:43.717611,71.0
2023-08-12 18:52:43.725300,66.0
2023-08-12 18:52:43.732990,64.0
2023-08-12 18:52:43.740679,57.0
2023-08-12 18:52:43.748369,45.0
2023-08-12 18:52:43.756058,28.0
2023-08-12 18:52:43.763748,4.0
2023-08-12 18:52:43.771438,-21.0
2023-08-12 18:52:43.779127,-42.0
2023-08-12 18:52:43.786817,-64.0
2023-08-12 18:52:43.794506,-83.0
2023-08-12 18:52:43.802196,-95.0
2023-08-12 18:52:43.809885,-102.0
2023-08-12 18:52:43.817575,-109.0
2023-08-12 18:52:43.825264,-114.0
2023-08-12 18:52:43.832954,-116.0
2023-08-12 18:52:43.840643,-116.0
2023-08-12 18:52:43.848333,-116.0
2023-08-12 18:52:43.856022,-116.0
2023-08-12 18:52:43.863712,-114.0
2023-08-12 18:52:43.871401,-114.0
2023-08-12 18:52:43.879091,-109.0
2023-08-12 18:52:43.886781,-104.0
2023-08-12 18:52:43.894470,-102.0
2023-08-12 18:52:43.902160,-99.0
2023-08-12 18:52:43.909849,-97.0
2023-08-12 18:52:43.917539,-99.0
2023-08-12 18:52:43.925228,-102.0
2023-08-12 18:52:43.932918,-102.0
2023-08-12 18:52:43.940607,-95.0
2023-08-12 18:52:43.948297,-92.0
2023-08-12 18:52:43.955986,-92.0
2023-08-12 18:52:43.963676,-90.0
2023-08-12 18:52:43.971365,-95.0
2023-08-12 18:52:43.979055,-95.0
2023-08-12 18:52:43.986744,-90.0
2023-08-12 18:52:43.994434,-88.0
2023-08-12 18:52:44.002124,-88.0
2023-08-12 18:52:44.009813,-90.0
2023-08-12 18:52:44.017503,-90.0
2023-08-12 18:52:44.025192,-88.0
2023-08-12 18:52:44.032882,-85.0
2023-08-12 18:52:44.040571,-85.0
2023-08-12 18:52:44.048261,-85.0
2023-08-12 18:52:44.055950,-85.0
2023-08-12 18:52:44.063640,-85.0
2023-08-12 18:52:44.071329,-83.0
2023-08-12 18:52:44.079019,-80.0
2023-08-12 18:52:44.086708,-78.0
2023-08-12 18:52:44.094398,-76.0
2023-08-12 18:52:44.102087,-78.0
2023-08-12 18:52:44.109777,-80.0
2023-08-12 18:52:44.117467,-78.0
2023-08-12 18:52:44.125156,-73.0
2023-08-12 18:52:44.132846,-73.0
2023-08-12 18:52:44.140535,-73.0
2023-08-12 18:52:44.148225,-73.0
2023-08-12 18:52:44.155914,-71.0
2023-08-12 18:52:44.163604,-69.0
