time,ECG
2023-12-19 12:11:44.372896,-73.0
2023-12-19 12:11:44.380585,-69.0
2023-12-19 12:11:44.388274,-69.0
2023-12-19 12:11:44.395962,-69.0
2023-12-19 12:11:44.403651,-69.0
2023-12-19 12:11:44.411340,-69.0
2023-12-19 12:11:44.419029,-64.0
2023-12-19 12:11:44.426718,-59.0
2023-12-19 12:11:44.434407,-59.0
2023-12-19 12:11:44.442096,-61.0
2023-12-19 12:11:44.449785,-73.0
2023-12-19 12:11:44.457473,-81.0
2023-12-19 12:11:44.465162,-76.0
2023-12-19 12:11:44.472851,-64.0
2023-12-19 12:11:44.480540,-57.0
2023-12-19 12:11:44.488229,-57.0
2023-12-19 12:11:44.495918,-54.0
2023-12-19 12:11:44.503607,-50.0
2023-12-19 12:11:44.511296,-54.0
2023-12-19 12:11:44.518984,-76.0
2023-12-19 12:11:44.526673,-95.0
2023-12-19 12:11:44.534362,-85.0
2023-12-19 12:11:44.542051,-69.0
2023-12-19 12:11:44.549740,-59.0
2023-12-19 12:11:44.557429,-47.0
2023-12-19 12:11:44.565118,-38.0
2023-12-19 12:11:44.572806,-38.0
2023-12-19 12:11:44.580495,-38.0
2023-12-19 12:11:44.588184,-38.0
2023-12-19 12:11:44.595873,-33.0
2023-12-19 12:11:44.603562,-28.0
2023-12-19 12:11:44.611251,-16.0
2023-12-19 12:11:44.618940,-35.0
2023-12-19 12:11:44.626629,-226.0
2023-12-19 12:11:44.634317,-636.0
2023-12-19 12:11:44.642006,-987.0
2023-12-19 12:11:44.649695,-782.0
2023-12-19 12:11:44.657384,-107.0
2023-12-19 12:11:44.665073,238.0
2023-12-19 12:11:44.672762,88.0
2023-12-19 12:11:44.680451,23.0
2023-12-19 12:11:44.688140,114.0
2023-12-19 12:11:44.695828,95.0
2023-12-19 12:11:44.703517,57.0
2023-12-19 12:11:44.711206,78.0
2023-12-19 12:11:44.718895,73.0
2023-12-19 12:11:44.726584,54.0
2023-12-19 12:11:44.734273,54.0
2023-12-19 12:11:44.741962,54.0
2023-12-19 12:11:44.749650,42.0
2023-12-19 12:11:44.757339,19.0
2023-12-19 12:11:44.765028,0.0
2023-12-19 12:11:44.772717,0.0
2023-12-19 12:11:44.780406,-4.0
2023-12-19 12:11:44.788095,-14.0
2023-12-19 12:11:44.795784,-23.0
2023-12-19 12:11:44.803473,-35.0
2023-12-19 12:11:44.811161,-52.0
2023-12-19 12:11:44.818850,-69.0
2023-12-19 12:11:44.826539,-90.0
2023-12-19 12:11:44.834228,-112.0
2023-12-19 12:11:44.841917,-126.0
2023-12-19 12:11:44.849606,-138.0
2023-12-19 12:11:44.857295,-147.0
2023-12-19 12:11:44.864984,-145.0
2023-12-19 12:11:44.872672,-128.0
2023-12-19 12:11:44.880361,-112.0
2023-12-19 12:11:44.888050,-95.0
2023-12-19 12:11:44.895739,-76.0
2023-12-19 12:11:44.903428,-50.0
2023-12-19 12:11:44.911117,-26.0
2023-12-19 12:11:44.918806,-9.0
2023-12-19 12:11:44.926494,4.0
2023-12-19 12:11:44.934183,21.0
2023-12-19 12:11:44.941872,28.0
2023-12-19 12:11:44.949561,21.0
2023-12-19 12:11:44.957250,11.0
2023-12-19 12:11:44.964939,16.0
2023-12-19 12:11:44.972628,23.0
2023-12-19 12:11:44.980317,16.0
2023-12-19 12:11:44.988005,14.0
2023-12-19 12:11:44.995694,16.0
2023-12-19 12:11:45.003383,14.0
2023-12-19 12:11:45.011072,4.0
2023-12-19 12:11:45.018761,4.0
2023-12-19 12:11:45.026450,2.0
2023-12-19 12:11:45.034139,-4.0
2023-12-19 12:11:45.041828,-4.0
2023-12-19 12:11:45.049516,-4.0
2023-12-19 12:11:45.057205,-11.0
2023-12-19 12:11:45.064894,-14.0
2023-12-19 12:11:45.072583,-16.0
2023-12-19 12:11:45.080272,-21.0
2023-12-19 12:11:45.087961,-23.0
2023-12-19 12:11:45.095650,-26.0
2023-12-19 12:11:45.103338,-33.0
2023-12-19 12:11:45.111027,-38.0
2023-12-19 12:11:45.118716,-38.0
2023-12-19 12:11:45.126405,-38.0
2023-12-19 12:11:45.134094,-38.0
2023-12-19 12:11:45.141783,-38.0
2023-12-19 12:11:45.149472,-45.0
2023-12-19 12:11:45.157161,-52.0
2023-12-19 12:11:45.164849,-50.0
2023-12-19 12:11:45.172538,-50.0
2023-12-19 12:11:45.180227,-52.0
2023-12-19 12:11:45.187916,-50.0
2023-12-19 12:11:45.195605,-45.0
2023-12-19 12:11:45.203294,-50.0
2023-12-19 12:11:45.210983,-52.0
2023-12-19 12:11:45.218672,-47.0
2023-12-19 12:11:45.226360,-45.0
2023-12-19 12:11:45.234049,-42.0
2023-12-19 12:11:45.241738,-42.0
2023-12-19 12:11:45.249427,-50.0
2023-12-19 12:11:45.257116,-54.0
2023-12-19 12:11:45.264805,-45.0
2023-12-19 12:11:45.272494,-38.0
2023-12-19 12:11:45.280182,-40.0
2023-12-19 12:11:45.287871,-42.0
2023-12-19 12:11:45.295560,-42.0
2023-12-19 12:11:45.303249,-42.0
2023-12-19 12:11:45.310938,-40.0
2023-12-19 12:11:45.318627,-33.0
2023-12-19 12:11:45.326316,-30.0
2023-12-19 12:11:45.334005,-35.0
2023-12-19 12:11:45.341693,-38.0
2023-12-19 12:11:45.349382,-42.0
2023-12-19 12:11:45.357071,-40.0
2023-12-19 12:11:45.364760,-35.0
2023-12-19 12:11:45.372449,-33.0
2023-12-19 12:11:45.380138,-40.0
2023-12-19 12:11:45.387827,-61.0
2023-12-19 12:11:45.395516,-71.0
2023-12-19 12:11:45.403204,-59.0
2023-12-19 12:11:45.410893,-45.0
2023-12-19 12:11:45.418582,-42.0
2023-12-19 12:11:45.426271,-42.0
2023-12-19 12:11:45.433960,-50.0
2023-12-19 12:11:45.441649,-71.0
2023-12-19 12:11:45.449338,-95.0
2023-12-19 12:11:45.457026,-102.0
2023-12-19 12:11:45.464715,-90.0
2023-12-19 12:11:45.472404,-73.0
2023-12-19 12:11:45.480093,-64.0
2023-12-19 12:11:45.487782,-59.0
2023-12-19 12:11:45.495471,-52.0
2023-12-19 12:11:45.503160,-47.0
2023-12-19 12:11:45.510849,-42.0
2023-12-19 12:11:45.518537,-42.0
2023-12-19 12:11:45.526226,-40.0
2023-12-19 12:11:45.533915,-21.0
2023-12-19 12:11:45.541604,-38.0
2023-12-19 12:11:45.549293,-228.0
2023-12-19 12:11:45.556982,-622.0
2023-12-19 12:11:45.564671,-932.0
2023-12-19 12:11:45.572360,-701.0
2023-12-19 12:11:45.580048,-59.0
2023-12-19 12:11:45.587737,236.0
2023-12-19 12:11:45.595426,71.0
2023-12-19 12:11:45.603115,14.0
2023-12-19 12:11:45.610804,97.0
2023-12-19 12:11:45.618493,71.0
2023-12-19 12:11:45.626182,38.0
2023-12-19 12:11:45.633870,64.0
2023-12-19 12:11:45.641559,64.0
2023-12-19 12:11:45.649248,45.0
2023-12-19 12:11:45.656937,40.0
2023-12-19 12:11:45.664626,40.0
2023-12-19 12:11:45.672315,40.0
2023-12-19 12:11:45.680004,35.0
2023-12-19 12:11:45.687693,28.0
2023-12-19 12:11:45.695381,19.0
2023-12-19 12:11:45.703070,11.0
2023-12-19 12:11:45.710759,4.0
2023-12-19 12:11:45.718448,-4.0
2023-12-19 12:11:45.726137,-16.0
2023-12-19 12:11:45.733826,-28.0
2023-12-19 12:11:45.741515,-52.0
2023-12-19 12:11:45.749204,-76.0
2023-12-19 12:11:45.756892,-95.0
2023-12-19 12:11:45.764581,-114.0
2023-12-19 12:11:45.772270,-126.0
2023-12-19 12:11:45.779959,-128.0
2023-12-19 12:11:45.787648,-131.0
2023-12-19 12:11:45.795337,-128.0
2023-12-19 12:11:45.803026,-114.0
2023-12-19 12:11:45.810715,-92.0
2023-12-19 12:11:45.818403,-71.0
2023-12-19 12:11:45.826092,-50.0
2023-12-19 12:11:45.833781,-35.0
2023-12-19 12:11:45.841470,-30.0
2023-12-19 12:11:45.849159,-19.0
2023-12-19 12:11:45.856848,0.0
2023-12-19 12:11:45.864537,11.0
2023-12-19 12:11:45.872225,19.0
2023-12-19 12:11:45.879914,14.0
2023-12-19 12:11:45.887603,7.0
2023-12-19 12:11:45.895292,9.0
2023-12-19 12:11:45.902981,11.0
2023-12-19 12:11:45.910670,4.0
2023-12-19 12:11:45.918359,-11.0
2023-12-19 12:11:45.926048,-38.0
2023-12-19 12:11:45.933736,-54.0
2023-12-19 12:11:45.941425,-50.0
2023-12-19 12:11:45.949114,-50.0
2023-12-19 12:11:45.956803,-73.0
2023-12-19 12:11:45.964492,-85.0
2023-12-19 12:11:45.972181,-83.0
2023-12-19 12:11:45.979870,-83.0
2023-12-19 12:11:45.987559,-85.0
2023-12-19 12:11:45.995247,-78.0
2023-12-19 12:11:46.002936,-78.0
2023-12-19 12:11:46.010625,-83.0
2023-12-19 12:11:46.018314,-85.0
2023-12-19 12:11:46.026003,-81.0
2023-12-19 12:11:46.033692,-76.0
2023-12-19 12:11:46.041381,-71.0
2023-12-19 12:11:46.049069,-66.0
2023-12-19 12:11:46.056758,-64.0
2023-12-19 12:11:46.064447,-64.0
2023-12-19 12:11:46.072136,-64.0
2023-12-19 12:11:46.079825,-59.0
2023-12-19 12:11:46.087514,-61.0
2023-12-19 12:11:46.095203,-64.0
2023-12-19 12:11:46.102892,-61.0
2023-12-19 12:11:46.110580,-59.0
2023-12-19 12:11:46.118269,-57.0
2023-12-19 12:11:46.125958,-52.0
2023-12-19 12:11:46.133647,-45.0
2023-12-19 12:11:46.141336,-45.0
2023-12-19 12:11:46.149025,-52.0
2023-12-19 12:11:46.156714,-47.0
2023-12-19 12:11:46.164403,-42.0
2023-12-19 12:11:46.172091,-40.0
2023-12-19 12:11:46.179780,-38.0
2023-12-19 12:11:46.187469,-35.0
2023-12-19 12:11:46.195158,-35.0
2023-12-19 12:11:46.202847,-33.0
2023-12-19 12:11:46.210536,-35.0
2023-12-19 12:11:46.218225,-38.0
2023-12-19 12:11:46.225913,-28.0
2023-12-19 12:11:46.233602,-21.0
2023-12-19 12:11:46.241291,-28.0
2023-12-19 12:11:46.248980,-33.0
2023-12-19 12:11:46.256669,-28.0
2023-12-19 12:11:46.264358,-26.0
2023-12-19 12:11:46.272047,-21.0
2023-12-19 12:11:46.279736,-19.0
2023-12-19 12:11:46.287424,-23.0
2023-12-19 12:11:46.295113,-23.0
2023-12-19 12:11:46.302802,-11.0
2023-12-19 12:11:46.310491,-4.0
2023-12-19 12:11:46.318180,-9.0
2023-12-19 12:11:46.325869,-33.0
2023-12-19 12:11:46.333558,-64.0
2023-12-19 12:11:46.341247,-64.0
2023-12-19 12:11:46.348935,-45.0
2023-12-19 12:11:46.356624,-30.0
2023-12-19 12:11:46.364313,-26.0
2023-12-19 12:11:46.372002,-21.0
2023-12-19 12:11:46.379691,-21.0
2023-12-19 12:11:46.387380,-21.0
2023-12-19 12:11:46.395069,-21.0
2023-12-19 12:11:46.402757,-16.0
2023-12-19 12:11:46.410446,-9.0
2023-12-19 12:11:46.418135,0.0
2023-12-19 12:11:46.425824,-9.0
2023-12-19 12:11:46.433513,-135.0
2023-12-19 12:11:46.441202,-462.0
2023-12-19 12:11:46.448891,-822.0
2023-12-19 12:11:46.456580,-777.0
2023-12-19 12:11:46.464268,-214.0
2023-12-19 12:11:46.471957,233.0
2023-12-19 12:11:46.479646,166.0
2023-12-19 12:11:46.487335,14.0
2023-12-19 12:11:46.495024,54.0
2023-12-19 12:11:46.502713,66.0
2023-12-19 12:11:46.510402,2.0
2023-12-19 12:11:46.518091,-7.0
2023-12-19 12:11:46.525779,4.0
2023-12-19 12:11:46.533468,-9.0
2023-12-19 12:11:46.541157,-14.0
2023-12-19 12:11:46.548846,-14.0
2023-12-19 12:11:46.556535,-35.0
2023-12-19 12:11:46.564224,-61.0
2023-12-19 12:11:46.571913,-61.0
2023-12-19 12:11:46.579601,-66.0
2023-12-19 12:11:46.587290,-78.0
2023-12-19 12:11:46.594979,-95.0
2023-12-19 12:11:46.602668,-121.0
2023-12-19 12:11:46.610357,-140.0
2023-12-19 12:11:46.618046,-152.0
2023-12-19 12:11:46.625735,-176.0
2023-12-19 12:11:46.633424,-202.0
2023-12-19 12:11:46.641112,-221.0
2023-12-19 12:11:46.648801,-233.0
2023-12-19 12:11:46.656490,-243.0
2023-12-19 12:11:46.664179,-245.0
2023-12-19 12:11:46.671868,-238.0
2023-12-19 12:11:46.679557,-221.0
2023-12-19 12:11:46.687246,-209.0
2023-12-19 12:11:46.694935,-195.0
2023-12-19 12:11:46.702623,-166.0
2023-12-19 12:11:46.710312,-140.0
2023-12-19 12:11:46.718001,-121.0
2023-12-19 12:11:46.725690,-102.0
2023-12-19 12:11:46.733379,-85.0
2023-12-19 12:11:46.741068,-76.0
2023-12-19 12:11:46.748757,-59.0
2023-12-19 12:11:46.756445,-45.0
2023-12-19 12:11:46.764134,-42.0
2023-12-19 12:11:46.771823,-35.0
2023-12-19 12:11:46.779512,-30.0
2023-12-19 12:11:46.787201,-33.0
2023-12-19 12:11:46.794890,-28.0
2023-12-19 12:11:46.802579,-19.0
2023-12-19 12:11:46.810268,-23.0
2023-12-19 12:11:46.817956,-33.0
2023-12-19 12:11:46.825645,-47.0
2023-12-19 12:11:46.833334,-54.0
2023-12-19 12:11:46.841023,-45.0
2023-12-19 12:11:46.848712,-40.0
2023-12-19 12:11:46.856401,-45.0
2023-12-19 12:11:46.864090,-47.0
2023-12-19 12:11:46.871779,-47.0
2023-12-19 12:11:46.879467,-50.0
2023-12-19 12:11:46.887156,-45.0
2023-12-19 12:11:46.894845,-40.0
2023-12-19 12:11:46.902534,-40.0
2023-12-19 12:11:46.910223,-35.0
2023-12-19 12:11:46.917912,-33.0
2023-12-19 12:11:46.925601,-30.0
2023-12-19 12:11:46.933289,-21.0
2023-12-19 12:11:46.940978,-19.0
2023-12-19 12:11:46.948667,-21.0
2023-12-19 12:11:46.956356,-16.0
2023-12-19 12:11:46.964045,-14.0
2023-12-19 12:11:46.971734,-23.0
2023-12-19 12:11:46.979423,-26.0
2023-12-19 12:11:46.987112,-19.0
2023-12-19 12:11:46.994800,-23.0
2023-12-19 12:11:47.002489,-35.0
2023-12-19 12:11:47.010178,-50.0
2023-12-19 12:11:47.017867,-52.0
2023-12-19 12:11:47.025556,-42.0
2023-12-19 12:11:47.033245,-38.0
2023-12-19 12:11:47.040934,-40.0
2023-12-19 12:11:47.048623,-45.0
2023-12-19 12:11:47.056311,-42.0
2023-12-19 12:11:47.064000,-33.0
2023-12-19 12:11:47.071689,-40.0
2023-12-19 12:11:47.079378,-47.0
2023-12-19 12:11:47.087067,-40.0
2023-12-19 12:11:47.094756,-35.0
2023-12-19 12:11:47.102445,-42.0
2023-12-19 12:11:47.110133,-35.0
2023-12-19 12:11:47.117822,-23.0
2023-12-19 12:11:47.125511,-26.0
2023-12-19 12:11:47.133200,-28.0
2023-12-19 12:11:47.140889,-23.0
2023-12-19 12:11:47.148578,-16.0
2023-12-19 12:11:47.156267,-11.0
2023-12-19 12:11:47.163956,-26.0
2023-12-19 12:11:47.171644,-50.0
2023-12-19 12:11:47.179333,-57.0
2023-12-19 12:11:47.187022,-45.0
2023-12-19 12:11:47.194711,-30.0
2023-12-19 12:11:47.202400,-16.0
2023-12-19 12:11:47.210089,-14.0
2023-12-19 12:11:47.217778,-21.0
2023-12-19 12:11:47.225467,-28.0
2023-12-19 12:11:47.233155,-28.0
2023-12-19 12:11:47.240844,-23.0
2023-12-19 12:11:47.248533,-16.0
2023-12-19 12:11:47.256222,0.0
2023-12-19 12:11:47.263911,-2.0
2023-12-19 12:11:47.271600,-133.0
2023-12-19 12:11:47.279289,-479.0
2023-12-19 12:11:47.286977,-860.0
2023-12-19 12:11:47.294666,-832.0
2023-12-19 12:11:47.302355,-247.0
2023-12-19 12:11:47.310044,240.0
2023-12-19 12:11:47.317733,174.0
2023-12-19 12:11:47.325422,14.0
2023-12-19 12:11:47.333111,73.0
2023-12-19 12:11:47.340800,97.0
2023-12-19 12:11:47.348488,40.0
2023-12-19 12:11:47.356177,42.0
2023-12-19 12:11:47.363866,50.0
2023-12-19 12:11:47.371555,16.0
2023-12-19 12:11:47.379244,4.0
2023-12-19 12:11:47.386933,14.0
2023-12-19 12:11:47.394622,14.0
2023-12-19 12:11:47.402311,4.0
2023-12-19 12:11:47.409999,-4.0
2023-12-19 12:11:47.417688,-14.0
2023-12-19 12:11:47.425377,-16.0
2023-12-19 12:11:47.433066,-19.0
2023-12-19 12:11:47.440755,-28.0
2023-12-19 12:11:47.448444,-42.0
2023-12-19 12:11:47.456133,-66.0
2023-12-19 12:11:47.463821,-95.0
2023-12-19 12:11:47.471510,-121.0
2023-12-19 12:11:47.479199,-143.0
2023-12-19 12:11:47.486888,-154.0
2023-12-19 12:11:47.494577,-164.0
2023-12-19 12:11:47.502266,-174.0
2023-12-19 12:11:47.509955,-164.0
2023-12-19 12:11:47.517644,-145.0
2023-12-19 12:11:47.525332,-128.0
2023-12-19 12:11:47.533021,-112.0
2023-12-19 12:11:47.540710,-100.0
2023-12-19 12:11:47.548399,-100.0
2023-12-19 12:11:47.556088,-88.0
2023-12-19 12:11:47.563777,-66.0
2023-12-19 12:11:47.571466,-57.0
2023-12-19 12:11:47.579155,-40.0
2023-12-19 12:11:47.586843,-23.0
2023-12-19 12:11:47.594532,-21.0
2023-12-19 12:11:47.602221,-21.0
2023-12-19 12:11:47.609910,-11.0
2023-12-19 12:11:47.617599,2.0
2023-12-19 12:11:47.625288,7.0
2023-12-19 12:11:47.632977,2.0
2023-12-19 12:11:47.640665,0.0
2023-12-19 12:11:47.648354,4.0
2023-12-19 12:11:47.656043,7.0
2023-12-19 12:11:47.663732,2.0
2023-12-19 12:11:47.671421,0.0
2023-12-19 12:11:47.679110,-2.0
2023-12-19 12:11:47.686799,-9.0
2023-12-19 12:11:47.694488,-9.0
2023-12-19 12:11:47.702176,-4.0
2023-12-19 12:11:47.709865,-4.0
2023-12-19 12:11:47.717554,-4.0
2023-12-19 12:11:47.725243,-4.0
2023-12-19 12:11:47.732932,-9.0
2023-12-19 12:11:47.740621,-4.0
2023-12-19 12:11:47.748310,4.0
2023-12-19 12:11:47.755999,7.0
2023-12-19 12:11:47.763687,9.0
2023-12-19 12:11:47.771376,9.0
2023-12-19 12:11:47.779065,7.0
2023-12-19 12:11:47.786754,11.0
2023-12-19 12:11:47.794443,21.0
2023-12-19 12:11:47.802132,23.0
2023-12-19 12:11:47.809821,14.0
2023-12-19 12:11:47.817509,4.0
2023-12-19 12:11:47.825198,7.0
2023-12-19 12:11:47.832887,14.0
2023-12-19 12:11:47.840576,19.0
2023-12-19 12:11:47.848265,21.0
2023-12-19 12:11:47.855954,21.0
2023-12-19 12:11:47.863643,14.0
2023-12-19 12:11:47.871332,11.0
2023-12-19 12:11:47.879020,19.0
2023-12-19 12:11:47.886709,23.0
2023-12-19 12:11:47.894398,21.0
2023-12-19 12:11:47.902087,21.0
2023-12-19 12:11:47.909776,21.0
2023-12-19 12:11:47.917465,19.0
2023-12-19 12:11:47.925154,19.0
2023-12-19 12:11:47.932843,21.0
2023-12-19 12:11:47.940531,23.0
2023-12-19 12:11:47.948220,23.0
2023-12-19 12:11:47.955909,23.0
2023-12-19 12:11:47.963598,26.0
2023-12-19 12:11:47.971287,26.0
2023-12-19 12:11:47.978976,16.0
2023-12-19 12:11:47.986665,11.0
2023-12-19 12:11:47.994353,16.0
2023-12-19 12:11:48.002042,14.0
2023-12-19 12:11:48.009731,-11.0
2023-12-19 12:11:48.017420,-40.0
2023-12-19 12:11:48.025109,-42.0
2023-12-19 12:11:48.032798,-28.0
2023-12-19 12:11:48.040487,-14.0
2023-12-19 12:11:48.048176,-11.0
2023-12-19 12:11:48.055864,-16.0
2023-12-19 12:11:48.063553,-21.0
2023-12-19 12:11:48.071242,-14.0
2023-12-19 12:11:48.078931,-7.0
2023-12-19 12:11:48.086620,-9.0
2023-12-19 12:11:48.094309,-9.0
2023-12-19 12:11:48.101998,2.0
2023-12-19 12:11:48.109687,16.0
2023-12-19 12:11:48.117375,-85.0
2023-12-19 12:11:48.125064,-417.0
2023-12-19 12:11:48.132753,-841.0
2023-12-19 12:11:48.140442,-891.0
2023-12-19 12:11:48.148131,-345.0
2023-12-19 12:11:48.155820,169.0
2023-12-19 12:11:48.163509,140.0
2023-12-19 12:11:48.171197,-9.0
2023-12-19 12:11:48.178886,47.0
2023-12-19 12:11:48.186575,78.0
2023-12-19 12:11:48.194264,23.0
2023-12-19 12:11:48.201953,28.0
2023-12-19 12:11:48.209642,52.0
2023-12-19 12:11:48.217331,35.0
2023-12-19 12:11:48.225020,23.0
2023-12-19 12:11:48.232708,28.0
2023-12-19 12:11:48.240397,23.0
2023-12-19 12:11:48.248086,19.0
2023-12-19 12:11:48.255775,19.0
2023-12-19 12:11:48.263464,14.0
2023-12-19 12:11:48.271153,4.0
2023-12-19 12:11:48.278842,0.0
2023-12-19 12:11:48.286531,-4.0
2023-12-19 12:11:48.294219,-19.0
2023-12-19 12:11:48.301908,-40.0
2023-12-19 12:11:48.309597,-54.0
2023-12-19 12:11:48.317286,-69.0
2023-12-19 12:11:48.324975,-90.0
2023-12-19 12:11:48.332664,-107.0
2023-12-19 12:11:48.340353,-109.0
2023-12-19 12:11:48.348041,-112.0
2023-12-19 12:11:48.355730,-109.0
2023-12-19 12:11:48.363419,-100.0
2023-12-19 12:11:48.371108,-85.0
2023-12-19 12:11:48.378797,-66.0
2023-12-19 12:11:48.386486,-45.0
2023-12-19 12:11:48.394175,-21.0
2023-12-19 12:11:48.401864,-7.0
2023-12-19 12:11:48.409552,7.0
2023-12-19 12:11:48.417241,28.0
2023-12-19 12:11:48.424930,42.0
2023-12-19 12:11:48.432619,52.0
2023-12-19 12:11:48.440308,64.0
2023-12-19 12:11:48.447997,69.0
2023-12-19 12:11:48.455686,69.0
2023-12-19 12:11:48.463375,71.0
2023-12-19 12:11:48.471063,76.0
2023-12-19 12:11:48.478752,71.0
2023-12-19 12:11:48.486441,57.0
2023-12-19 12:11:48.494130,42.0
2023-12-19 12:11:48.501819,45.0
2023-12-19 12:11:48.509508,50.0
2023-12-19 12:11:48.517197,42.0
2023-12-19 12:11:48.524885,38.0
2023-12-19 12:11:48.532574,38.0
2023-12-19 12:11:48.540263,33.0
2023-12-19 12:11:48.547952,28.0
2023-12-19 12:11:48.555641,21.0
2023-12-19 12:11:48.563330,16.0
2023-12-19 12:11:48.571019,19.0
2023-12-19 12:11:48.578708,21.0
2023-12-19 12:11:48.586396,16.0
2023-12-19 12:11:48.594085,19.0
2023-12-19 12:11:48.601774,23.0
2023-12-19 12:11:48.609463,23.0
2023-12-19 12:11:48.617152,26.0
2023-12-19 12:11:48.624841,26.0
2023-12-19 12:11:48.632530,26.0
2023-12-19 12:11:48.640219,30.0
2023-12-19 12:11:48.647907,33.0
2023-12-19 12:11:48.655596,30.0
2023-12-19 12:11:48.663285,28.0
2023-12-19 12:11:48.670974,30.0
2023-12-19 12:11:48.678663,28.0
2023-12-19 12:11:48.686352,30.0
2023-12-19 12:11:48.694041,33.0
2023-12-19 12:11:48.701729,30.0
2023-12-19 12:11:48.709418,21.0
2023-12-19 12:11:48.717107,2.0
2023-12-19 12:11:48.724796,-7.0
2023-12-19 12:11:48.732485,0.0
2023-12-19 12:11:48.740174,0.0
2023-12-19 12:11:48.747863,-7.0
2023-12-19 12:11:48.755552,-14.0
2023-12-19 12:11:48.763240,-30.0
2023-12-19 12:11:48.770929,-42.0
2023-12-19 12:11:48.778618,-33.0
2023-12-19 12:11:48.786307,-33.0
2023-12-19 12:11:48.793996,-45.0
2023-12-19 12:11:48.801685,-52.0
2023-12-19 12:11:48.809374,-47.0
2023-12-19 12:11:48.817063,-45.0
2023-12-19 12:11:48.824751,-38.0
2023-12-19 12:11:48.832440,-33.0
2023-12-19 12:11:48.840129,-33.0
2023-12-19 12:11:48.847818,-33.0
2023-12-19 12:11:48.855507,-42.0
2023-12-19 12:11:48.863196,-71.0
2023-12-19 12:11:48.870885,-92.0
2023-12-19 12:11:48.878573,-85.0
2023-12-19 12:11:48.886262,-71.0
2023-12-19 12:11:48.893951,-64.0
2023-12-19 12:11:48.901640,-59.0
2023-12-19 12:11:48.909329,-52.0
2023-12-19 12:11:48.917018,-52.0
2023-12-19 12:11:48.924707,-52.0
2023-12-19 12:11:48.932396,-54.0
2023-12-19 12:11:48.940084,-54.0
2023-12-19 12:11:48.947773,-50.0
2023-12-19 12:11:48.955462,-38.0
2023-12-19 12:11:48.963151,-95.0
2023-12-19 12:11:48.970840,-340.0
2023-12-19 12:11:48.978529,-732.0
2023-12-19 12:11:48.986218,-906.0
2023-12-19 12:11:48.993907,-524.0
2023-12-19 12:11:49.001595,52.0
2023-12-19 12:11:49.009284,174.0
2023-12-19 12:11:49.016973,-19.0
2023-12-19 12:11:49.024662,-45.0
2023-12-19 12:11:49.032351,14.0
2023-12-19 12:11:49.040040,-28.0
2023-12-19 12:11:49.047729,-52.0
2023-12-19 12:11:49.055417,-30.0
2023-12-19 12:11:49.063106,-42.0
2023-12-19 12:11:49.070795,-61.0
2023-12-19 12:11:49.078484,-64.0
2023-12-19 12:11:49.086173,-66.0
2023-12-19 12:11:49.093862,-73.0
2023-12-19 12:11:49.101551,-73.0
2023-12-19 12:11:49.109240,-78.0
2023-12-19 12:11:49.116928,-92.0
2023-12-19 12:11:49.124617,-107.0
2023-12-19 12:11:49.132306,-114.0
2023-12-19 12:11:49.139995,-121.0
2023-12-19 12:11:49.147684,-131.0
2023-12-19 12:11:49.155373,-150.0
2023-12-19 12:11:49.163062,-178.0
2023-12-19 12:11:49.170751,-195.0
2023-12-19 12:11:49.178439,-205.0
2023-12-19 12:11:49.186128,-219.0
2023-12-19 12:11:49.193817,-226.0
2023-12-19 12:11:49.201506,-221.0
2023-12-19 12:11:49.209195,-216.0
2023-12-19 12:11:49.216884,-207.0
2023-12-19 12:11:49.224573,-193.0
2023-12-19 12:11:49.232261,-174.0
2023-12-19 12:11:49.239950,-147.0
2023-12-19 12:11:49.247639,-131.0
2023-12-19 12:11:49.255328,-135.0
2023-12-19 12:11:49.263017,-138.0
2023-12-19 12:11:49.270706,-116.0
2023-12-19 12:11:49.278395,-97.0
2023-12-19 12:11:49.286084,-97.0
2023-12-19 12:11:49.293772,-102.0
2023-12-19 12:11:49.301461,-97.0
2023-12-19 12:11:49.309150,-92.0
2023-12-19 12:11:49.316839,-88.0
2023-12-19 12:11:49.324528,-83.0
2023-12-19 12:11:49.332217,-83.0
2023-12-19 12:11:49.339906,-88.0
2023-12-19 12:11:49.347595,-92.0
2023-12-19 12:11:49.355283,-95.0
2023-12-19 12:11:49.362972,-92.0
2023-12-19 12:11:49.370661,-92.0
2023-12-19 12:11:49.378350,-95.0
2023-12-19 12:11:49.386039,-95.0
2023-12-19 12:11:49.393728,-100.0
2023-12-19 12:11:49.401417,-100.0
2023-12-19 12:11:49.409105,-97.0
2023-12-19 12:11:49.416794,-95.0
2023-12-19 12:11:49.424483,-92.0
2023-12-19 12:11:49.432172,-95.0
2023-12-19 12:11:49.439861,-100.0
2023-12-19 12:11:49.447550,-90.0
2023-12-19 12:11:49.455239,-78.0
2023-12-19 12:11:49.462928,-78.0
2023-12-19 12:11:49.470616,-78.0
2023-12-19 12:11:49.478305,-78.0
2023-12-19 12:11:49.485994,-76.0
2023-12-19 12:11:49.493683,-76.0
2023-12-19 12:11:49.501372,-95.0
2023-12-19 12:11:49.509061,-107.0
2023-12-19 12:11:49.516750,-95.0
2023-12-19 12:11:49.524439,-95.0
2023-12-19 12:11:49.532127,-109.0
2023-12-19 12:11:49.539816,-109.0
2023-12-19 12:11:49.547505,-97.0
2023-12-19 12:11:49.555194,-90.0
2023-12-19 12:11:49.562883,-92.0
2023-12-19 12:11:49.570572,-97.0
2023-12-19 12:11:49.578261,-92.0
2023-12-19 12:11:49.585949,-90.0
2023-12-19 12:11:49.593638,-90.0
2023-12-19 12:11:49.601327,-85.0
2023-12-19 12:11:49.609016,-83.0
2023-12-19 12:11:49.616705,-88.0
2023-12-19 12:11:49.624394,-85.0
2023-12-19 12:11:49.632083,-76.0
2023-12-19 12:11:49.639772,-73.0
2023-12-19 12:11:49.647460,-66.0
2023-12-19 12:11:49.655149,-57.0
2023-12-19 12:11:49.662838,-71.0
2023-12-19 12:11:49.670527,-104.0
2023-12-19 12:11:49.678216,-116.0
2023-12-19 12:11:49.685905,-102.0
2023-12-19 12:11:49.693594,-88.0
2023-12-19 12:11:49.701283,-81.0
2023-12-19 12:11:49.708971,-73.0
2023-12-19 12:11:49.716660,-71.0
2023-12-19 12:11:49.724349,-73.0
2023-12-19 12:11:49.732038,-66.0
2023-12-19 12:11:49.739727,-64.0
2023-12-19 12:11:49.747416,-66.0
2023-12-19 12:11:49.755105,-54.0
2023-12-19 12:11:49.762793,-45.0
2023-12-19 12:11:49.770482,-140.0
2023-12-19 12:11:49.778171,-448.0
2023-12-19 12:11:49.785860,-853.0
2023-12-19 12:11:49.793549,-915.0
2023-12-19 12:11:49.801238,-400.0
2023-12-19 12:11:49.808927,150.0
2023-12-19 12:11:49.816616,174.0
2023-12-19 12:11:49.824304,-11.0
2023-12-19 12:11:49.831993,-2.0
2023-12-19 12:11:49.839682,19.0
2023-12-19 12:11:49.847371,-42.0
2023-12-19 12:11:49.855060,-42.0
2023-12-19 12:11:49.862749,-21.0
2023-12-19 12:11:49.870438,-38.0
2023-12-19 12:11:49.878127,-45.0
2023-12-19 12:11:49.885815,-42.0
2023-12-19 12:11:49.893504,-52.0
2023-12-19 12:11:49.901193,-57.0
2023-12-19 12:11:49.908882,-50.0
2023-12-19 12:11:49.916571,-52.0
2023-12-19 12:11:49.924260,-69.0
2023-12-19 12:11:49.931949,-88.0
2023-12-19 12:11:49.939637,-107.0
2023-12-19 12:11:49.947326,-126.0
2023-12-19 12:11:49.955015,-133.0
2023-12-19 12:11:49.962704,-143.0
2023-12-19 12:11:49.970393,-169.0
2023-12-19 12:11:49.978082,-190.0
2023-12-19 12:11:49.985771,-202.0
2023-12-19 12:11:49.993460,-214.0
2023-12-19 12:11:50.001148,-221.0
2023-12-19 12:11:50.008837,-209.0
2023-12-19 12:11:50.016526,-193.0
2023-12-19 12:11:50.024215,-188.0
2023-12-19 12:11:50.031904,-178.0
2023-12-19 12:11:50.039593,-154.0
2023-12-19 12:11:50.047282,-128.0
2023-12-19 12:11:50.054971,-112.0
2023-12-19 12:11:50.062659,-100.0
2023-12-19 12:11:50.070348,-88.0
2023-12-19 12:11:50.078037,-71.0
2023-12-19 12:11:50.085726,-61.0
2023-12-19 12:11:50.093415,-57.0
2023-12-19 12:11:50.101104,-45.0
2023-12-19 12:11:50.108793,-38.0
2023-12-19 12:11:50.116481,-35.0
2023-12-19 12:11:50.124170,-35.0
2023-12-19 12:11:50.131859,-38.0
2023-12-19 12:11:50.139548,-35.0
2023-12-19 12:11:50.147237,-33.0
2023-12-19 12:11:50.154926,-38.0
2023-12-19 12:11:50.162615,-50.0
2023-12-19 12:11:50.170304,-54.0
2023-12-19 12:11:50.177992,-50.0
2023-12-19 12:11:50.185681,-45.0
2023-12-19 12:11:50.193370,-52.0
2023-12-19 12:11:50.201059,-64.0
2023-12-19 12:11:50.208748,-76.0
2023-12-19 12:11:50.216437,-73.0
2023-12-19 12:11:50.224126,-66.0
2023-12-19 12:11:50.231815,-64.0
2023-12-19 12:11:50.239503,-64.0
2023-12-19 12:11:50.247192,-66.0
2023-12-19 12:11:50.254881,-61.0
2023-12-19 12:11:50.262570,-57.0
2023-12-19 12:11:50.270259,-64.0
2023-12-19 12:11:50.277948,-66.0
2023-12-19 12:11:50.285637,-54.0
2023-12-19 12:11:50.293325,-54.0
2023-12-19 12:11:50.301014,-57.0
2023-12-19 12:11:50.308703,-47.0
2023-12-19 12:11:50.316392,-42.0
2023-12-19 12:11:50.324081,-42.0
2023-12-19 12:11:50.331770,-45.0
2023-12-19 12:11:50.339459,-45.0
2023-12-19 12:11:50.347148,-40.0
2023-12-19 12:11:50.354836,-33.0
2023-12-19 12:11:50.362525,-33.0
2023-12-19 12:11:50.370214,-35.0
2023-12-19 12:11:50.377903,-47.0
2023-12-19 12:11:50.385592,-66.0
2023-12-19 12:11:50.393281,-64.0
2023-12-19 12:11:50.400970,-50.0
2023-12-19 12:11:50.408659,-59.0
2023-12-19 12:11:50.416347,-66.0
2023-12-19 12:11:50.424036,-69.0
2023-12-19 12:11:50.431725,-85.0
2023-12-19 12:11:50.439414,-90.0
2023-12-19 12:11:50.447103,-76.0
2023-12-19 12:11:50.454792,-73.0
2023-12-19 12:11:50.462481,-73.0
2023-12-19 12:11:50.470169,-71.0
2023-12-19 12:11:50.477858,-59.0
2023-12-19 12:11:50.485547,-50.0
2023-12-19 12:11:50.493236,-64.0
2023-12-19 12:11:50.500925,-92.0
2023-12-19 12:11:50.508614,-102.0
2023-12-19 12:11:50.516303,-90.0
2023-12-19 12:11:50.523992,-83.0
2023-12-19 12:11:50.531680,-73.0
2023-12-19 12:11:50.539369,-59.0
2023-12-19 12:11:50.547058,-54.0
2023-12-19 12:11:50.554747,-54.0
2023-12-19 12:11:50.562436,-52.0
2023-12-19 12:11:50.570125,-47.0
2023-12-19 12:11:50.577814,-40.0
2023-12-19 12:11:50.585503,-30.0
2023-12-19 12:11:50.593191,-19.0
2023-12-19 12:11:50.600880,-59.0
2023-12-19 12:11:50.608569,-281.0
2023-12-19 12:11:50.616258,-674.0
2023-12-19 12:11:50.623947,-901.0
2023-12-19 12:11:50.631636,-567.0
2023-12-19 12:11:50.639325,45.0
2023-12-19 12:11:50.647013,233.0
2023-12-19 12:11:50.654702,52.0
2023-12-19 12:11:50.662391,26.0
2023-12-19 12:11:50.670080,102.0
2023-12-19 12:11:50.677769,59.0
2023-12-19 12:11:50.685458,26.0
2023-12-19 12:11:50.693147,50.0
2023-12-19 12:11:50.700836,38.0
2023-12-19 12:11:50.708524,4.0
2023-12-19 12:11:50.716213,-7.0
2023-12-19 12:11:50.723902,-9.0
2023-12-19 12:11:50.731591,-14.0
2023-12-19 12:11:50.739280,-19.0
2023-12-19 12:11:50.746969,-19.0
2023-12-19 12:11:50.754658,-26.0
2023-12-19 12:11:50.762347,-42.0
2023-12-19 12:11:50.770035,-57.0
2023-12-19 12:11:50.777724,-64.0
2023-12-19 12:11:50.785413,-78.0
2023-12-19 12:11:50.793102,-95.0
2023-12-19 12:11:50.800791,-112.0
2023-12-19 12:11:50.808480,-135.0
2023-12-19 12:11:50.816169,-154.0
2023-12-19 12:11:50.823857,-174.0
2023-12-19 12:11:50.831546,-190.0
2023-12-19 12:11:50.839235,-190.0
2023-12-19 12:11:50.846924,-178.0
2023-12-19 12:11:50.854613,-164.0
2023-12-19 12:11:50.862302,-150.0
2023-12-19 12:11:50.869991,-135.0
2023-12-19 12:11:50.877680,-119.0
2023-12-19 12:11:50.885368,-97.0
2023-12-19 12:11:50.893057,-71.0
2023-12-19 12:11:50.900746,-54.0
2023-12-19 12:11:50.908435,-47.0
2023-12-19 12:11:50.916124,-47.0
2023-12-19 12:11:50.923813,-54.0
2023-12-19 12:11:50.931502,-57.0
2023-12-19 12:11:50.939191,-45.0
2023-12-19 12:11:50.946879,-35.0
2023-12-19 12:11:50.954568,-33.0
2023-12-19 12:11:50.962257,-35.0
2023-12-19 12:11:50.969946,-35.0
2023-12-19 12:11:50.977635,-30.0
2023-12-19 12:11:50.985324,-28.0
2023-12-19 12:11:50.993013,-28.0
2023-12-19 12:11:51.000701,-30.0
2023-12-19 12:11:51.008390,-40.0
2023-12-19 12:11:51.016079,-47.0
2023-12-19 12:11:51.023768,-45.0
2023-12-19 12:11:51.031457,-40.0
2023-12-19 12:11:51.039146,-40.0
2023-12-19 12:11:51.046835,-40.0
2023-12-19 12:11:51.054524,-45.0
2023-12-19 12:11:51.062212,-47.0
2023-12-19 12:11:51.069901,-45.0
2023-12-19 12:11:51.077590,-42.0
2023-12-19 12:11:51.085279,-38.0
2023-12-19 12:11:51.092968,-30.0
2023-12-19 12:11:51.100657,-28.0
2023-12-19 12:11:51.108346,-30.0
2023-12-19 12:11:51.116035,-28.0
2023-12-19 12:11:51.123723,-26.0
2023-12-19 12:11:51.131412,-21.0
2023-12-19 12:11:51.139101,-19.0
2023-12-19 12:11:51.146790,-21.0
2023-12-19 12:11:51.154479,-21.0
2023-12-19 12:11:51.162168,-16.0
2023-12-19 12:11:51.169857,-9.0
2023-12-19 12:11:51.177545,-9.0
2023-12-19 12:11:51.185234,-9.0
2023-12-19 12:11:51.192923,-16.0
2023-12-19 12:11:51.200612,-21.0
2023-12-19 12:11:51.208301,-23.0
2023-12-19 12:11:51.215990,-33.0
2023-12-19 12:11:51.223679,-33.0
2023-12-19 12:11:51.231368,-28.0
2023-12-19 12:11:51.239056,-35.0
2023-12-19 12:11:51.246745,-38.0
2023-12-19 12:11:51.254434,-33.0
2023-12-19 12:11:51.262123,-40.0
2023-12-19 12:11:51.269812,-40.0
2023-12-19 12:11:51.277501,-35.0
2023-12-19 12:11:51.285190,-38.0
2023-12-19 12:11:51.292879,-38.0
2023-12-19 12:11:51.300567,-30.0
2023-12-19 12:11:51.308256,-28.0
2023-12-19 12:11:51.315945,-26.0
2023-12-19 12:11:51.323634,-23.0
2023-12-19 12:11:51.331323,-19.0
2023-12-19 12:11:51.339012,-11.0
2023-12-19 12:11:51.346701,-16.0
2023-12-19 12:11:51.354389,-40.0
2023-12-19 12:11:51.362078,-54.0
2023-12-19 12:11:51.369767,-47.0
2023-12-19 12:11:51.377456,-38.0
2023-12-19 12:11:51.385145,-33.0
2023-12-19 12:11:51.392834,-19.0
2023-12-19 12:11:51.400523,-9.0
2023-12-19 12:11:51.408212,-11.0
2023-12-19 12:11:51.415900,-14.0
2023-12-19 12:11:51.423589,-11.0
2023-12-19 12:11:51.431278,-7.0
2023-12-19 12:11:51.438967,-2.0
2023-12-19 12:11:51.446656,14.0
2023-12-19 12:11:51.454345,7.0
2023-12-19 12:11:51.462034,-150.0
2023-12-19 12:11:51.469723,-498.0
2023-12-19 12:11:51.477411,-791.0
2023-12-19 12:11:51.485100,-629.0
2023-12-19 12:11:51.492789,-61.0
2023-12-19 12:11:51.500478,245.0
2023-12-19 12:11:51.508167,95.0
2023-12-19 12:11:51.515856,-7.0
2023-12-19 12:11:51.523545,57.0
2023-12-19 12:11:51.531233,52.0
2023-12-19 12:11:51.538922,19.0
2023-12-19 12:11:51.546611,38.0
2023-12-19 12:11:51.554300,35.0
2023-12-19 12:11:51.561989,7.0
2023-12-19 12:11:51.569678,7.0
2023-12-19 12:11:51.577367,19.0
2023-12-19 12:11:51.585056,11.0
2023-12-19 12:11:51.592744,0.0
2023-12-19 12:11:51.600433,-2.0
2023-12-19 12:11:51.608122,-7.0
2023-12-19 12:11:51.615811,-16.0
2023-12-19 12:11:51.623500,-23.0
2023-12-19 12:11:51.631189,-28.0
2023-12-19 12:11:51.638878,-45.0
2023-12-19 12:11:51.646567,-73.0
2023-12-19 12:11:51.654255,-95.0
2023-12-19 12:11:51.661944,-112.0
2023-12-19 12:11:51.669633,-135.0
2023-12-19 12:11:51.677322,-150.0
2023-12-19 12:11:51.685011,-157.0
2023-12-19 12:11:51.692700,-166.0
2023-12-19 12:11:51.700389,-164.0
2023-12-19 12:11:51.708077,-152.0
2023-12-19 12:11:51.715766,-150.0
2023-12-19 12:11:51.723455,-154.0
2023-12-19 12:11:51.731144,-138.0
2023-12-19 12:11:51.738833,-116.0
2023-12-19 12:11:51.746522,-109.0
2023-12-19 12:11:51.754211,-100.0
2023-12-19 12:11:51.761900,-78.0
2023-12-19 12:11:51.769588,-61.0
2023-12-19 12:11:51.777277,-54.0
2023-12-19 12:11:51.784966,-50.0
2023-12-19 12:11:51.792655,-42.0
2023-12-19 12:11:51.800344,-35.0
2023-12-19 12:11:51.808033,-28.0
2023-12-19 12:11:51.815722,-26.0
2023-12-19 12:11:51.823411,-23.0
2023-12-19 12:11:51.831099,-28.0
2023-12-19 12:11:51.838788,-38.0
2023-12-19 12:11:51.846477,-35.0
2023-12-19 12:11:51.854166,-23.0
2023-12-19 12:11:51.861855,-23.0
2023-12-19 12:11:51.869544,-33.0
2023-12-19 12:11:51.877233,-38.0
2023-12-19 12:11:51.884921,-38.0
2023-12-19 12:11:51.892610,-35.0
2023-12-19 12:11:51.900299,-33.0
2023-12-19 12:11:51.907988,-35.0
2023-12-19 12:11:51.915677,-38.0
2023-12-19 12:11:51.923366,-33.0
2023-12-19 12:11:51.931055,-30.0
2023-12-19 12:11:51.938744,-30.0
2023-12-19 12:11:51.946432,-26.0
2023-12-19 12:11:51.954121,-19.0
2023-12-19 12:11:51.961810,-19.0
2023-12-19 12:11:51.969499,-23.0
2023-12-19 12:11:51.977188,-21.0
2023-12-19 12:11:51.984877,-11.0
2023-12-19 12:11:51.992566,-11.0
2023-12-19 12:11:52.000255,-23.0
2023-12-19 12:11:52.007943,-23.0
2023-12-19 12:11:52.015632,-19.0
2023-12-19 12:11:52.023321,-16.0
2023-12-19 12:11:52.031010,-21.0
2023-12-19 12:11:52.038699,-19.0
2023-12-19 12:11:52.046388,-19.0
2023-12-19 12:11:52.054077,-19.0
2023-12-19 12:11:52.061765,-16.0
2023-12-19 12:11:52.069454,-16.0
2023-12-19 12:11:52.077143,-14.0
2023-12-19 12:11:52.084832,-16.0
2023-12-19 12:11:52.092521,-40.0
2023-12-19 12:11:52.100210,-54.0
2023-12-19 12:11:52.107899,-47.0
2023-12-19 12:11:52.115588,-40.0
2023-12-19 12:11:52.123276,-40.0
2023-12-19 12:11:52.130965,-40.0
2023-12-19 12:11:52.138654,-40.0
2023-12-19 12:11:52.146343,-35.0
2023-12-19 12:11:52.154032,-33.0
2023-12-19 12:11:52.161721,-33.0
2023-12-19 12:11:52.169410,-28.0
2023-12-19 12:11:52.177099,-26.0
2023-12-19 12:11:52.184787,-21.0
2023-12-19 12:11:52.192476,-16.0
2023-12-19 12:11:52.200165,-33.0
2023-12-19 12:11:52.207854,-59.0
2023-12-19 12:11:52.215543,-61.0
2023-12-19 12:11:52.223232,-61.0
2023-12-19 12:11:52.230921,-71.0
2023-12-19 12:11:52.238609,-61.0
2023-12-19 12:11:52.246298,-50.0
2023-12-19 12:11:52.253987,-57.0
2023-12-19 12:11:52.261676,-54.0
2023-12-19 12:11:52.269365,-45.0
2023-12-19 12:11:52.277054,-40.0
2023-12-19 12:11:52.284743,-38.0
2023-12-19 12:11:52.292432,-26.0
2023-12-19 12:11:52.300120,-11.0
2023-12-19 12:11:52.307809,-71.0
2023-12-19 12:11:52.315498,-319.0
2023-12-19 12:11:52.323187,-693.0
2023-12-19 12:11:52.330876,-827.0
2023-12-19 12:11:52.338565,-422.0
2023-12-19 12:11:52.346254,140.0
2023-12-19 12:11:52.353943,247.0
2023-12-19 12:11:52.361631,54.0
2023-12-19 12:11:52.369320,30.0
2023-12-19 12:11:52.377009,90.0
2023-12-19 12:11:52.384698,59.0
2023-12-19 12:11:52.392387,35.0
2023-12-19 12:11:52.400076,50.0
2023-12-19 12:11:52.407765,45.0
2023-12-19 12:11:52.415453,23.0
2023-12-19 12:11:52.423142,26.0
2023-12-19 12:11:52.430831,28.0
2023-12-19 12:11:52.438520,16.0
2023-12-19 12:11:52.446209,9.0
2023-12-19 12:11:52.453898,11.0
2023-12-19 12:11:52.461587,2.0
2023-12-19 12:11:52.469276,-9.0
2023-12-19 12:11:52.476964,-19.0
2023-12-19 12:11:52.484653,-38.0
2023-12-19 12:11:52.492342,-66.0
2023-12-19 12:11:52.500031,-88.0
2023-12-19 12:11:52.507720,-107.0
2023-12-19 12:11:52.515409,-133.0
2023-12-19 12:11:52.523098,-154.0
2023-12-19 12:11:52.530787,-166.0
2023-12-19 12:11:52.538475,-176.0
2023-12-19 12:11:52.546164,-178.0
2023-12-19 12:11:52.553853,-166.0
2023-12-19 12:11:52.561542,-150.0
2023-12-19 12:11:52.569231,-135.0
2023-12-19 12:11:52.576920,-121.0
2023-12-19 12:11:52.584609,-109.0
2023-12-19 12:11:52.592297,-95.0
2023-12-19 12:11:52.599986,-69.0
2023-12-19 12:11:52.607675,-50.0
2023-12-19 12:11:52.615364,-45.0
2023-12-19 12:11:52.623053,-42.0
2023-12-19 12:11:52.630742,-45.0
2023-12-19 12:11:52.638431,-52.0
2023-12-19 12:11:52.646120,-42.0
2023-12-19 12:11:52.653808,-28.0
2023-12-19 12:11:52.661497,-30.0
2023-12-19 12:11:52.669186,-35.0
2023-12-19 12:11:52.676875,-35.0
2023-12-19 12:11:52.684564,-33.0
2023-12-19 12:11:52.692253,-33.0
2023-12-19 12:11:52.699942,-40.0
2023-12-19 12:11:52.707631,-50.0
2023-12-19 12:11:52.715319,-47.0
2023-12-19 12:11:52.723008,-50.0
2023-12-19 12:11:52.730697,-81.0
2023-12-19 12:11:52.738386,-97.0
2023-12-19 12:11:52.746075,-83.0
2023-12-19 12:11:52.753764,-81.0
2023-12-19 12:11:52.761453,-92.0
2023-12-19 12:11:52.769141,-85.0
2023-12-19 12:11:52.776830,-71.0
2023-12-19 12:11:52.784519,-71.0
2023-12-19 12:11:52.792208,-69.0
2023-12-19 12:11:52.799897,-57.0
2023-12-19 12:11:52.807586,-54.0
2023-12-19 12:11:52.815275,-59.0
2023-12-19 12:11:52.822964,-50.0
2023-12-19 12:11:52.830652,-40.0
2023-12-19 12:11:52.838341,-35.0
2023-12-19 12:11:52.846030,-35.0
2023-12-19 12:11:52.853719,-40.0
2023-12-19 12:11:52.861408,-38.0
2023-12-19 12:11:52.869097,-30.0
2023-12-19 12:11:52.876786,-26.0
2023-12-19 12:11:52.884475,-23.0
2023-12-19 12:11:52.892163,-21.0
2023-12-19 12:11:52.899852,-23.0
2023-12-19 12:11:52.907541,-26.0
2023-12-19 12:11:52.915230,-21.0
2023-12-19 12:11:52.922919,-14.0
2023-12-19 12:11:52.930608,-11.0
2023-12-19 12:11:52.938297,-11.0
2023-12-19 12:11:52.945985,-9.0
2023-12-19 12:11:52.953674,-7.0
2023-12-19 12:11:52.961363,-4.0
2023-12-19 12:11:52.969052,-2.0
2023-12-19 12:11:52.976741,-14.0
2023-12-19 12:11:52.984430,-47.0
2023-12-19 12:11:52.992119,-61.0
2023-12-19 12:11:52.999808,-52.0
2023-12-19 12:11:53.007496,-38.0
2023-12-19 12:11:53.015185,-21.0
2023-12-19 12:11:53.022874,-7.0
2023-12-19 12:11:53.030563,-9.0
2023-12-19 12:11:53.038252,-19.0
2023-12-19 12:11:53.045941,-16.0
2023-12-19 12:11:53.053630,-2.0
2023-12-19 12:11:53.061319,2.0
2023-12-19 12:11:53.069007,9.0
2023-12-19 12:11:53.076696,4.0
2023-12-19 12:11:53.084385,-107.0
2023-12-19 12:11:53.092074,-419.0
2023-12-19 12:11:53.099763,-789.0
2023-12-19 12:11:53.107452,-782.0
2023-12-19 12:11:53.115141,-226.0
2023-12-19 12:11:53.122829,288.0
2023-12-19 12:11:53.130518,264.0
2023-12-19 12:11:53.138207,78.0
2023-12-19 12:11:53.145896,95.0
2023-12-19 12:11:53.153585,123.0
2023-12-19 12:11:53.161274,78.0
2023-12-19 12:11:53.168963,76.0
2023-12-19 12:11:53.176652,85.0
2023-12-19 12:11:53.184340,66.0
2023-12-19 12:11:53.192029,61.0
2023-12-19 12:11:53.199718,64.0
2023-12-19 12:11:53.207407,52.0
2023-12-19 12:11:53.215096,23.0
2023-12-19 12:11:53.222785,-11.0
2023-12-19 12:11:53.230474,-38.0
2023-12-19 12:11:53.238163,-45.0
2023-12-19 12:11:53.245851,-50.0
2023-12-19 12:11:53.253540,-66.0
2023-12-19 12:11:53.261229,-100.0
2023-12-19 12:11:53.268918,-126.0
2023-12-19 12:11:53.276607,-138.0
2023-12-19 12:11:53.284296,-150.0
2023-12-19 12:11:53.291985,-169.0
2023-12-19 12:11:53.299673,-178.0
2023-12-19 12:11:53.307362,-190.0
2023-12-19 12:11:53.315051,-197.0
2023-12-19 12:11:53.322740,-185.0
2023-12-19 12:11:53.330429,-164.0
2023-12-19 12:11:53.338118,-152.0
2023-12-19 12:11:53.345807,-140.0
2023-12-19 12:11:53.353496,-126.0
2023-12-19 12:11:53.361184,-116.0
2023-12-19 12:11:53.368873,-97.0
2023-12-19 12:11:53.376562,-71.0
2023-12-19 12:11:53.384251,-57.0
2023-12-19 12:11:53.391940,-47.0
2023-12-19 12:11:53.399629,-40.0
2023-12-19 12:11:53.407318,-38.0
2023-12-19 12:11:53.415007,-23.0
2023-12-19 12:11:53.422695,-14.0
2023-12-19 12:11:53.430384,-11.0
2023-12-19 12:11:53.438073,-9.0
2023-12-19 12:11:53.445762,-14.0
2023-12-19 12:11:53.453451,-21.0
2023-12-19 12:11:53.461140,-19.0
2023-12-19 12:11:53.468829,-16.0
2023-12-19 12:11:53.476517,-26.0
2023-12-19 12:11:53.484206,-30.0
2023-12-19 12:11:53.491895,-38.0
2023-12-19 12:11:53.499584,-45.0
2023-12-19 12:11:53.507273,-45.0
2023-12-19 12:11:53.514962,-40.0
2023-12-19 12:11:53.522651,-42.0
2023-12-19 12:11:53.530340,-47.0
2023-12-19 12:11:53.538028,-47.0
2023-12-19 12:11:53.545717,-40.0
2023-12-19 12:11:53.553406,-38.0
2023-12-19 12:11:53.561095,-35.0
2023-12-19 12:11:53.568784,-28.0
2023-12-19 12:11:53.576473,-23.0
2023-12-19 12:11:53.584162,-23.0
2023-12-19 12:11:53.591851,-21.0
2023-12-19 12:11:53.599539,-14.0
2023-12-19 12:11:53.607228,-11.0
2023-12-19 12:11:53.614917,-7.0
2023-12-19 12:11:53.622606,-9.0
2023-12-19 12:11:53.630295,-9.0
2023-12-19 12:11:53.637984,-11.0
2023-12-19 12:11:53.645673,-11.0
2023-12-19 12:11:53.653361,9.0
2023-12-19 12:11:53.661050,14.0
2023-12-19 12:11:53.668739,-2.0
2023-12-19 12:11:53.676428,2.0
2023-12-19 12:11:53.684117,11.0
2023-12-19 12:11:53.691806,7.0
2023-12-19 12:11:53.699495,4.0
2023-12-19 12:11:53.707184,14.0
2023-12-19 12:11:53.714872,14.0
2023-12-19 12:11:53.722561,-2.0
2023-12-19 12:11:53.730250,-14.0
2023-12-19 12:11:53.737939,-28.0
2023-12-19 12:11:53.745628,-40.0
2023-12-19 12:11:53.753317,-28.0
2023-12-19 12:11:53.761006,-16.0
2023-12-19 12:11:53.768695,-14.0
2023-12-19 12:11:53.776383,-4.0
2023-12-19 12:11:53.784072,-4.0
2023-12-19 12:11:53.791761,-33.0
2023-12-19 12:11:53.799450,-76.0
2023-12-19 12:11:53.807139,-92.0
2023-12-19 12:11:53.814828,-73.0
2023-12-19 12:11:53.822517,-54.0
2023-12-19 12:11:53.830205,-45.0
2023-12-19 12:11:53.837894,-38.0
2023-12-19 12:11:53.845583,-52.0
2023-12-19 12:11:53.853272,-73.0
2023-12-19 12:11:53.860961,-61.0
2023-12-19 12:11:53.868650,-45.0
2023-12-19 12:11:53.876339,-47.0
2023-12-19 12:11:53.884028,-28.0
2023-12-19 12:11:53.891716,-11.0
2023-12-19 12:11:53.899405,-114.0
2023-12-19 12:11:53.907094,-407.0
2023-12-19 12:11:53.914783,-777.0
2023-12-19 12:11:53.922472,-827.0
2023-12-19 12:11:53.930161,-329.0
2023-12-19 12:11:53.937850,174.0
2023-12-19 12:11:53.945539,174.0
2023-12-19 12:11:53.953227,21.0
2023-12-19 12:11:53.960916,61.0
2023-12-19 12:11:53.968605,95.0
2023-12-19 12:11:53.976294,42.0
2023-12-19 12:11:53.983983,42.0
2023-12-19 12:11:53.991672,69.0
2023-12-19 12:11:53.999361,52.0
2023-12-19 12:11:54.007049,38.0
2023-12-19 12:11:54.014738,38.0
2023-12-19 12:11:54.022427,23.0
2023-12-19 12:11:54.030116,14.0
2023-12-19 12:11:54.037805,14.0
2023-12-19 12:11:54.045494,11.0
2023-12-19 12:11:54.053183,2.0
2023-12-19 12:11:54.060872,2.0
2023-12-19 12:11:54.068560,-2.0
2023-12-19 12:11:54.076249,-28.0
2023-12-19 12:11:54.083938,-50.0
2023-12-19 12:11:54.091627,-64.0
2023-12-19 12:11:54.099316,-73.0
2023-12-19 12:11:54.107005,-83.0
2023-12-19 12:11:54.114694,-114.0
2023-12-19 12:11:54.122383,-133.0
2023-12-19 12:11:54.130071,-123.0
2023-12-19 12:11:54.137760,-128.0
2023-12-19 12:11:54.145449,-138.0
2023-12-19 12:11:54.153138,-123.0
2023-12-19 12:11:54.160827,-107.0
2023-12-19 12:11:54.168516,-95.0
2023-12-19 12:11:54.176205,-81.0
2023-12-19 12:11:54.183893,-64.0
2023-12-19 12:11:54.191582,-50.0
2023-12-19 12:11:54.199271,-38.0
2023-12-19 12:11:54.206960,-28.0
2023-12-19 12:11:54.214649,-23.0
2023-12-19 12:11:54.222338,-14.0
2023-12-19 12:11:54.230027,-7.0
2023-12-19 12:11:54.237716,-21.0
2023-12-19 12:11:54.245404,-40.0
2023-12-19 12:11:54.253093,-42.0
2023-12-19 12:11:54.260782,-33.0
2023-12-19 12:11:54.268471,-28.0
2023-12-19 12:11:54.276160,-28.0
2023-12-19 12:11:54.283849,-33.0
2023-12-19 12:11:54.291538,-45.0
2023-12-19 12:11:54.299227,-57.0
2023-12-19 12:11:54.306915,-69.0
2023-12-19 12:11:54.314604,-76.0
2023-12-19 12:11:54.322293,-73.0
2023-12-19 12:11:54.329982,-73.0
2023-12-19 12:11:54.337671,-81.0
2023-12-19 12:11:54.345360,-102.0
2023-12-19 12:11:54.353049,-107.0
2023-12-19 12:11:54.360737,-90.0
2023-12-19 12:11:54.368426,-85.0
2023-12-19 12:11:54.376115,-88.0
2023-12-19 12:11:54.383804,-95.0
2023-12-19 12:11:54.391493,-107.0
2023-12-19 12:11:54.399182,-97.0
2023-12-19 12:11:54.406871,-78.0
2023-12-19 12:11:54.414560,-81.0
2023-12-19 12:11:54.422248,-88.0
2023-12-19 12:11:54.429937,-81.0
2023-12-19 12:11:54.437626,-81.0
2023-12-19 12:11:54.445315,-90.0
2023-12-19 12:11:54.453004,-95.0
2023-12-19 12:11:54.460693,-90.0
2023-12-19 12:11:54.468382,-81.0
2023-12-19 12:11:54.476071,-95.0
2023-12-19 12:11:54.483759,-114.0
2023-12-19 12:11:54.491448,-107.0
2023-12-19 12:11:54.499137,-85.0
2023-12-19 12:11:54.506826,-78.0
2023-12-19 12:11:54.514515,-88.0
2023-12-19 12:11:54.522204,-104.0
2023-12-19 12:11:54.529893,-109.0
2023-12-19 12:11:54.537581,-97.0
2023-12-19 12:11:54.545270,-81.0
2023-12-19 12:11:54.552959,-76.0
2023-12-19 12:11:54.560648,-73.0
2023-12-19 12:11:54.568337,-71.0
2023-12-19 12:11:54.576026,-69.0
2023-12-19 12:11:54.583715,-59.0
2023-12-19 12:11:54.591404,-40.0
2023-12-19 12:11:54.599092,-33.0
2023-12-19 12:11:54.606781,-57.0
2023-12-19 12:11:54.614470,-97.0
2023-12-19 12:11:54.622159,-109.0
2023-12-19 12:11:54.629848,-92.0
2023-12-19 12:11:54.637537,-71.0
2023-12-19 12:11:54.645226,-59.0
2023-12-19 12:11:54.652915,-61.0
2023-12-19 12:11:54.660603,-81.0
2023-12-19 12:11:54.668292,-81.0
2023-12-19 12:11:54.675981,-57.0
2023-12-19 12:11:54.683670,-47.0
2023-12-19 12:11:54.691359,-52.0
2023-12-19 12:11:54.699048,-42.0
2023-12-19 12:11:54.706737,-28.0
2023-12-19 12:11:54.714425,-69.0
2023-12-19 12:11:54.722114,-271.0
2023-12-19 12:11:54.729803,-619.0
2023-12-19 12:11:54.737492,-798.0
2023-12-19 12:11:54.745181,-486.0
2023-12-19 12:11:54.752870,40.0
2023-12-19 12:11:54.760559,205.0
2023-12-19 12:11:54.768248,64.0
2023-12-19 12:11:54.775936,38.0
2023-12-19 12:11:54.783625,83.0
2023-12-19 12:11:54.791314,30.0
2023-12-19 12:11:54.799003,2.0
2023-12-19 12:11:54.806692,30.0
2023-12-19 12:11:54.814381,26.0
2023-12-19 12:11:54.822070,14.0
2023-12-19 12:11:54.829759,16.0
2023-12-19 12:11:54.837447,-7.0
2023-12-19 12:11:54.845136,-35.0
2023-12-19 12:11:54.852825,-38.0
2023-12-19 12:11:54.860514,-35.0
2023-12-19 12:11:54.868203,-38.0
2023-12-19 12:11:54.875892,-50.0
2023-12-19 12:11:54.883581,-83.0
2023-12-19 12:11:54.891269,-100.0
2023-12-19 12:11:54.898958,-95.0
2023-12-19 12:11:54.906647,-107.0
2023-12-19 12:11:54.914336,-128.0
2023-12-19 12:11:54.922025,-154.0
2023-12-19 12:11:54.929714,-185.0
2023-12-19 12:11:54.937403,-200.0
2023-12-19 12:11:54.945092,-195.0
2023-12-19 12:11:54.952780,-202.0
2023-12-19 12:11:54.960469,-200.0
2023-12-19 12:11:54.968158,-178.0
2023-12-19 12:11:54.975847,-164.0
2023-12-19 12:11:54.983536,-152.0
2023-12-19 12:11:54.991225,-131.0
2023-12-19 12:11:54.998914,-112.0
2023-12-19 12:11:55.006603,-97.0
2023-12-19 12:11:55.014291,-81.0
2023-12-19 12:11:55.021980,-69.0
2023-12-19 12:11:55.029669,-59.0
2023-12-19 12:11:55.037358,-45.0
2023-12-19 12:11:55.045047,-35.0
2023-12-19 12:11:55.052736,-28.0
2023-12-19 12:11:55.060425,-21.0
2023-12-19 12:11:55.068113,-21.0
2023-12-19 12:11:55.075802,-16.0
2023-12-19 12:11:55.083491,-9.0
2023-12-19 12:11:55.091180,-7.0
2023-12-19 12:11:55.098869,-11.0
2023-12-19 12:11:55.106558,-19.0
2023-12-19 12:11:55.114247,-16.0
2023-12-19 12:11:55.121936,-9.0
2023-12-19 12:11:55.129624,-7.0
2023-12-19 12:11:55.137313,-19.0
2023-12-19 12:11:55.145002,-26.0
2023-12-19 12:11:55.152691,-23.0
2023-12-19 12:11:55.160380,-23.0
2023-12-19 12:11:55.168069,-21.0
2023-12-19 12:11:55.175758,-16.0
2023-12-19 12:11:55.183447,-14.0
2023-12-19 12:11:55.191135,-11.0
2023-12-19 12:11:55.198824,-14.0
2023-12-19 12:11:55.206513,-14.0
2023-12-19 12:11:55.214202,-4.0
2023-12-19 12:11:55.221891,-2.0
2023-12-19 12:11:55.229580,-4.0
2023-12-19 12:11:55.237269,2.0
2023-12-19 12:11:55.244957,2.0
2023-12-19 12:11:55.252646,-14.0
2023-12-19 12:11:55.260335,-19.0
2023-12-19 12:11:55.268024,-14.0
2023-12-19 12:11:55.275713,-9.0
2023-12-19 12:11:55.283402,-7.0
2023-12-19 12:11:55.291091,-9.0
2023-12-19 12:11:55.298780,-11.0
2023-12-19 12:11:55.306468,-7.0
2023-12-19 12:11:55.314157,0.0
2023-12-19 12:11:55.321846,2.0
2023-12-19 12:11:55.329535,0.0
2023-12-19 12:11:55.337224,-2.0
2023-12-19 12:11:55.344913,2.0
2023-12-19 12:11:55.352602,7.0
2023-12-19 12:11:55.360291,7.0
2023-12-19 12:11:55.367979,7.0
2023-12-19 12:11:55.375668,9.0
2023-12-19 12:11:55.383357,9.0
2023-12-19 12:11:55.391046,11.0
2023-12-19 12:11:55.398735,16.0
2023-12-19 12:11:55.406424,21.0
2023-12-19 12:11:55.414113,26.0
2023-12-19 12:11:55.421801,30.0
2023-12-19 12:11:55.429490,23.0
2023-12-19 12:11:55.437179,0.0
2023-12-19 12:11:55.444868,-26.0
2023-12-19 12:11:55.452557,-30.0
2023-12-19 12:11:55.460246,-23.0
2023-12-19 12:11:55.467935,-30.0
2023-12-19 12:11:55.475624,-33.0
2023-12-19 12:11:55.483312,-23.0
2023-12-19 12:11:55.491001,-23.0
2023-12-19 12:11:55.498690,-21.0
2023-12-19 12:11:55.506379,-19.0
2023-12-19 12:11:55.514068,-42.0
2023-12-19 12:11:55.521757,-54.0
2023-12-19 12:11:55.529446,-28.0
2023-12-19 12:11:55.537135,-28.0
2023-12-19 12:11:55.544823,-178.0
2023-12-19 12:11:55.552512,-536.0
2023-12-19 12:11:55.560201,-879.0
2023-12-19 12:11:55.567890,-765.0
2023-12-19 12:11:55.575579,-176.0
2023-12-19 12:11:55.583268,216.0
2023-12-19 12:11:55.590957,123.0
2023-12-19 12:11:55.598645,4.0
2023-12-19 12:11:55.606334,40.0
2023-12-19 12:11:55.614023,33.0
2023-12-19 12:11:55.621712,-2.0
2023-12-19 12:11:55.629401,19.0
2023-12-19 12:11:55.637090,26.0
2023-12-19 12:11:55.644779,-4.0
2023-12-19 12:11:55.652468,-26.0
2023-12-19 12:11:55.660156,-21.0
2023-12-19 12:11:55.667845,-21.0
2023-12-19 12:11:55.675534,-28.0
2023-12-19 12:11:55.683223,-23.0
2023-12-19 12:11:55.690912,-28.0
2023-12-19 12:11:55.698601,-47.0
2023-12-19 12:11:55.706290,-61.0
2023-12-19 12:11:55.713979,-66.0
2023-12-19 12:11:55.721667,-71.0
2023-12-19 12:11:55.729356,-85.0
2023-12-19 12:11:55.737045,-109.0
2023-12-19 12:11:55.744734,-126.0
2023-12-19 12:11:55.752423,-145.0
2023-12-19 12:11:55.760112,-174.0
2023-12-19 12:11:55.767801,-193.0
2023-12-19 12:11:55.775489,-190.0
2023-12-19 12:11:55.783178,-185.0
2023-12-19 12:11:55.790867,-171.0
2023-12-19 12:11:55.798556,-150.0
2023-12-19 12:11:55.806245,-133.0
2023-12-19 12:11:55.813934,-114.0
2023-12-19 12:11:55.821623,-85.0
2023-12-19 12:11:55.829312,-66.0
2023-12-19 12:11:55.837000,-54.0
2023-12-19 12:11:55.844689,-45.0
2023-12-19 12:11:55.852378,-38.0
2023-12-19 12:11:55.860067,-33.0
2023-12-19 12:11:55.867756,-23.0
2023-12-19 12:11:55.875445,-19.0
2023-12-19 12:11:55.883134,-19.0
2023-12-19 12:11:55.890823,-14.0
2023-12-19 12:11:55.898511,-7.0
2023-12-19 12:11:55.906200,-7.0
2023-12-19 12:11:55.913889,-9.0
2023-12-19 12:11:55.921578,-14.0
2023-12-19 12:11:55.929267,-16.0
2023-12-19 12:11:55.936956,-21.0
2023-12-19 12:11:55.944645,-30.0
2023-12-19 12:11:55.952333,-35.0
2023-12-19 12:11:55.960022,-40.0
2023-12-19 12:11:55.967711,-42.0
2023-12-19 12:11:55.975400,-40.0
2023-12-19 12:11:55.983089,-40.0
2023-12-19 12:11:55.990778,-42.0
2023-12-19 12:11:55.998467,-42.0
2023-12-19 12:11:56.006156,-59.0
2023-12-19 12:11:56.013844,-73.0
2023-12-19 12:11:56.021533,-64.0
2023-12-19 12:11:56.029222,-47.0
2023-12-19 12:11:56.036911,-45.0
2023-12-19 12:11:56.044600,-45.0
2023-12-19 12:11:56.052289,-45.0
2023-12-19 12:11:56.059978,-35.0
2023-12-19 12:11:56.067667,-26.0
2023-12-19 12:11:56.075355,-21.0
2023-12-19 12:11:56.083044,-21.0
2023-12-19 12:11:56.090733,-19.0
2023-12-19 12:11:56.098422,-16.0
2023-12-19 12:11:56.106111,-14.0
2023-12-19 12:11:56.113800,-11.0
2023-12-19 12:11:56.121489,-9.0
2023-12-19 12:11:56.129177,-9.0
2023-12-19 12:11:56.136866,-9.0
2023-12-19 12:11:56.144555,-7.0
2023-12-19 12:11:56.152244,-4.0
2023-12-19 12:11:56.159933,-4.0
2023-12-19 12:11:56.167622,-4.0
2023-12-19 12:11:56.175311,-7.0
2023-12-19 12:11:56.183000,-11.0
2023-12-19 12:11:56.190688,-14.0
2023-12-19 12:11:56.198377,-9.0
2023-12-19 12:11:56.206066,0.0
2023-12-19 12:11:56.213755,4.0
2023-12-19 12:11:56.221444,9.0
2023-12-19 12:11:56.229133,7.0
2023-12-19 12:11:56.236822,-2.0
2023-12-19 12:11:56.244511,-16.0
2023-12-19 12:11:56.252199,-30.0
2023-12-19 12:11:56.259888,-40.0
2023-12-19 12:11:56.267577,-42.0
2023-12-19 12:11:56.275266,-35.0
2023-12-19 12:11:56.282955,-21.0
2023-12-19 12:11:56.290644,-9.0
2023-12-19 12:11:56.298333,-4.0
2023-12-19 12:11:56.306021,-2.0
2023-12-19 12:11:56.313710,-4.0
2023-12-19 12:11:56.321399,-7.0
2023-12-19 12:11:56.329088,2.0
2023-12-19 12:11:56.336777,23.0
2023-12-19 12:11:56.344466,2.0
2023-12-19 12:11:56.352155,-193.0
2023-12-19 12:11:56.359844,-584.0
2023-12-19 12:11:56.367532,-875.0
2023-12-19 12:11:56.375221,-636.0
2023-12-19 12:11:56.382910,-9.0
2023-12-19 12:11:56.390599,283.0
2023-12-19 12:11:56.398288,135.0
2023-12-19 12:11:56.405977,69.0
2023-12-19 12:11:56.413666,135.0
2023-12-19 12:11:56.421355,107.0
2023-12-19 12:11:56.429043,69.0
2023-12-19 12:11:56.436732,85.0
2023-12-19 12:11:56.444421,88.0
2023-12-19 12:11:56.452110,66.0
2023-12-19 12:11:56.459799,59.0
2023-12-19 12:11:56.467488,59.0
2023-12-19 12:11:56.475177,59.0
2023-12-19 12:11:56.482865,54.0
2023-12-19 12:11:56.490554,47.0
2023-12-19 12:11:56.498243,38.0
2023-12-19 12:11:56.505932,30.0
2023-12-19 12:11:56.513621,23.0
2023-12-19 12:11:56.521310,14.0
2023-12-19 12:11:56.528999,4.0
2023-12-19 12:11:56.536688,-16.0
2023-12-19 12:11:56.544376,-59.0
2023-12-19 12:11:56.552065,-109.0
2023-12-19 12:11:56.559754,-131.0
2023-12-19 12:11:56.567443,-131.0
2023-12-19 12:11:56.575132,-143.0
2023-12-19 12:11:56.582821,-152.0
2023-12-19 12:11:56.590510,-147.0
2023-12-19 12:11:56.598199,-135.0
2023-12-19 12:11:56.605887,-116.0
2023-12-19 12:11:56.613576,-95.0
2023-12-19 12:11:56.621265,-73.0
2023-12-19 12:11:56.628954,-57.0
2023-12-19 12:11:56.636643,-42.0
2023-12-19 12:11:56.644332,-26.0
2023-12-19 12:11:56.652021,-7.0
2023-12-19 12:11:56.659709,7.0
2023-12-19 12:11:56.667398,11.0
2023-12-19 12:11:56.675087,7.0
2023-12-19 12:11:56.682776,-4.0
2023-12-19 12:11:56.690465,-9.0
2023-12-19 12:11:56.698154,-4.0
2023-12-19 12:11:56.705843,-9.0
2023-12-19 12:11:56.713532,-11.0
2023-12-19 12:11:56.721220,-9.0
2023-12-19 12:11:56.728909,-14.0
2023-12-19 12:11:56.736598,-21.0
2023-12-19 12:11:56.744287,-16.0
2023-12-19 12:11:56.751976,-16.0
2023-12-19 12:11:56.759665,-26.0
2023-12-19 12:11:56.767354,-35.0
2023-12-19 12:11:56.775043,-47.0
2023-12-19 12:11:56.782731,-54.0
2023-12-19 12:11:56.790420,-57.0
2023-12-19 12:11:56.798109,-54.0
2023-12-19 12:11:56.805798,-52.0
2023-12-19 12:11:56.813487,-50.0
2023-12-19 12:11:56.821176,-57.0
2023-12-19 12:11:56.828865,-57.0
2023-12-19 12:11:56.836553,-35.0
2023-12-19 12:11:56.844242,-30.0
2023-12-19 12:11:56.851931,-45.0
2023-12-19 12:11:56.859620,-38.0
2023-12-19 12:11:56.867309,-26.0
2023-12-19 12:11:56.874998,-35.0
2023-12-19 12:11:56.882687,-33.0
2023-12-19 12:11:56.890376,-14.0
2023-12-19 12:11:56.898064,-11.0
2023-12-19 12:11:56.905753,-23.0
2023-12-19 12:11:56.913442,-28.0
2023-12-19 12:11:56.921131,-30.0
2023-12-19 12:11:56.928820,-30.0
2023-12-19 12:11:56.936509,-28.0
2023-12-19 12:11:56.944198,-30.0
2023-12-19 12:11:56.951887,-33.0
2023-12-19 12:11:56.959575,-30.0
2023-12-19 12:11:56.967264,-26.0
2023-12-19 12:11:56.974953,-21.0
2023-12-19 12:11:56.982642,-14.0
2023-12-19 12:11:56.990331,-16.0
2023-12-19 12:11:56.998020,-38.0
2023-12-19 12:11:57.005709,-38.0
2023-12-19 12:11:57.013397,-16.0
2023-12-19 12:11:57.021086,-19.0
2023-12-19 12:11:57.028775,-33.0
2023-12-19 12:11:57.036464,-21.0
2023-12-19 12:11:57.044153,-16.0
2023-12-19 12:11:57.051842,-30.0
2023-12-19 12:11:57.059531,-26.0
2023-12-19 12:11:57.067220,-14.0
2023-12-19 12:11:57.074908,-7.0
2023-12-19 12:11:57.082597,2.0
2023-12-19 12:11:57.090286,-19.0
2023-12-19 12:11:57.097975,-52.0
2023-12-19 12:11:57.105664,-57.0
2023-12-19 12:11:57.113353,-50.0
2023-12-19 12:11:57.121042,-64.0
2023-12-19 12:11:57.128731,-66.0
2023-12-19 12:11:57.136419,-54.0
2023-12-19 12:11:57.144108,-57.0
2023-12-19 12:11:57.151797,-61.0
2023-12-19 12:11:57.159486,-57.0
2023-12-19 12:11:57.167175,-54.0
2023-12-19 12:11:57.174864,-73.0
2023-12-19 12:11:57.182553,-100.0
2023-12-19 12:11:57.190241,-83.0
2023-12-19 12:11:57.197930,-54.0
2023-12-19 12:11:57.205619,-178.0
2023-12-19 12:11:57.213308,-553.0
2023-12-19 12:11:57.220997,-937.0
2023-12-19 12:11:57.228686,-813.0
2023-12-19 12:11:57.236375,-188.0
2023-12-19 12:11:57.244064,193.0
2023-12-19 12:11:57.251752,78.0
2023-12-19 12:11:57.259441,-9.0
2023-12-19 12:11:57.267130,64.0
2023-12-19 12:11:57.274819,45.0
2023-12-19 12:11:57.282508,2.0
2023-12-19 12:11:57.290197,28.0
2023-12-19 12:11:57.297886,38.0
2023-12-19 12:11:57.305575,16.0
2023-12-19 12:11:57.313263,7.0
2023-12-19 12:11:57.320952,-11.0
2023-12-19 12:11:57.328641,-33.0
2023-12-19 12:11:57.336330,-23.0
2023-12-19 12:11:57.344019,-11.0
2023-12-19 12:11:57.351708,-26.0
2023-12-19 12:11:57.359397,-52.0
2023-12-19 12:11:57.367085,-59.0
2023-12-19 12:11:57.374774,-52.0
2023-12-19 12:11:57.382463,-54.0
2023-12-19 12:11:57.390152,-81.0
2023-12-19 12:11:57.397841,-100.0
2023-12-19 12:11:57.405530,-114.0
2023-12-19 12:11:57.413219,-147.0
2023-12-19 12:11:57.420908,-174.0
2023-12-19 12:11:57.428596,-176.0
2023-12-19 12:11:57.436285,-174.0
2023-12-19 12:11:57.443974,-178.0
2023-12-19 12:11:57.451663,-171.0
2023-12-19 12:11:57.459352,-159.0
2023-12-19 12:11:57.467041,-152.0
2023-12-19 12:11:57.474730,-138.0
2023-12-19 12:11:57.482419,-109.0
2023-12-19 12:11:57.490107,-95.0
2023-12-19 12:11:57.497796,-95.0
2023-12-19 12:11:57.505485,-81.0
2023-12-19 12:11:57.513174,-54.0
2023-12-19 12:11:57.520863,-40.0
2023-12-19 12:11:57.528552,-35.0
2023-12-19 12:11:57.536241,-30.0
2023-12-19 12:11:57.543929,-28.0
2023-12-19 12:11:57.551618,-28.0
2023-12-19 12:11:57.559307,-23.0
2023-12-19 12:11:57.566996,-21.0
2023-12-19 12:11:57.574685,-21.0
2023-12-19 12:11:57.582374,-19.0
2023-12-19 12:11:57.590063,-19.0
2023-12-19 12:11:57.597752,-21.0
2023-12-19 12:11:57.605440,-26.0
2023-12-19 12:11:57.613129,-26.0
2023-12-19 12:11:57.620818,-21.0
2023-12-19 12:11:57.628507,-26.0
2023-12-19 12:11:57.636196,-33.0
2023-12-19 12:11:57.643885,-33.0
2023-12-19 12:11:57.651574,-38.0
2023-12-19 12:11:57.659263,-47.0
2023-12-19 12:11:57.666951,-64.0
2023-12-19 12:11:57.674640,-85.0
2023-12-19 12:11:57.682329,-85.0
2023-12-19 12:11:57.690018,-73.0
2023-12-19 12:11:57.697707,-71.0
2023-12-19 12:11:57.705396,-69.0
2023-12-19 12:11:57.713085,-59.0
2023-12-19 12:11:57.720773,-54.0
2023-12-19 12:11:57.728462,-52.0
2023-12-19 12:11:57.736151,-40.0
2023-12-19 12:11:57.743840,-38.0
2023-12-19 12:11:57.751529,-35.0
2023-12-19 12:11:57.759218,-33.0
2023-12-19 12:11:57.766907,-38.0
2023-12-19 12:11:57.774596,-50.0
2023-12-19 12:11:57.782284,-54.0
2023-12-19 12:11:57.789973,-45.0
2023-12-19 12:11:57.797662,-33.0
2023-12-19 12:11:57.805351,-30.0
2023-12-19 12:11:57.813040,-38.0
2023-12-19 12:11:57.820729,-33.0
2023-12-19 12:11:57.828418,-23.0
2023-12-19 12:11:57.836107,-26.0
2023-12-19 12:11:57.843795,-23.0
2023-12-19 12:11:57.851484,-23.0
2023-12-19 12:11:57.859173,-28.0
2023-12-19 12:11:57.866862,-19.0
2023-12-19 12:11:57.874551,-9.0
2023-12-19 12:11:57.882240,-11.0
2023-12-19 12:11:57.889929,-11.0
2023-12-19 12:11:57.897617,2.0
2023-12-19 12:11:57.905306,-9.0
2023-12-19 12:11:57.912995,-47.0
2023-12-19 12:11:57.920684,-57.0
2023-12-19 12:11:57.928373,-42.0
2023-12-19 12:11:57.936062,-40.0
2023-12-19 12:11:57.943751,-35.0
2023-12-19 12:11:57.951440,-21.0
2023-12-19 12:11:57.959128,-7.0
2023-12-19 12:11:57.966817,-2.0
2023-12-19 12:11:57.974506,-9.0
2023-12-19 12:11:57.982195,-14.0
2023-12-19 12:11:57.989884,-11.0
2023-12-19 12:11:57.997573,-4.0
2023-12-19 12:11:58.005262,16.0
2023-12-19 12:11:58.012951,4.0
2023-12-19 12:11:58.020639,-138.0
2023-12-19 12:11:58.028328,-455.0
2023-12-19 12:11:58.036017,-782.0
2023-12-19 12:11:58.043706,-715.0
2023-12-19 12:11:58.051395,-152.0
2023-12-19 12:11:58.059084,288.0
2023-12-19 12:11:58.066773,219.0
2023-12-19 12:11:58.074461,69.0
2023-12-19 12:11:58.082150,104.0
2023-12-19 12:11:58.089839,119.0
2023-12-19 12:11:58.097528,78.0
2023-12-19 12:11:58.105217,81.0
2023-12-19 12:11:58.112906,88.0
2023-12-19 12:11:58.120595,73.0
2023-12-19 12:11:58.128284,59.0
2023-12-19 12:11:58.135972,50.0
2023-12-19 12:11:58.143661,47.0
2023-12-19 12:11:58.151350,30.0
2023-12-19 12:11:58.159039,11.0
2023-12-19 12:11:58.166728,16.0
2023-12-19 12:11:58.174417,11.0
2023-12-19 12:11:58.182106,-7.0
2023-12-19 12:11:58.189795,-11.0
2023-12-19 12:11:58.197483,-16.0
2023-12-19 12:11:58.205172,-57.0
2023-12-19 12:11:58.212861,-109.0
2023-12-19 12:11:58.220550,-133.0
2023-12-19 12:11:58.228239,-138.0
2023-12-19 12:11:58.235928,-157.0
2023-12-19 12:11:58.243617,-178.0
2023-12-19 12:11:58.251305,-183.0
2023-12-19 12:11:58.258994,-174.0
2023-12-19 12:11:58.266683,-164.0
2023-12-19 12:11:58.274372,-164.0
2023-12-19 12:11:58.282061,-159.0
2023-12-19 12:11:58.289750,-143.0
2023-12-19 12:11:58.297439,-133.0
2023-12-19 12:11:58.305128,-119.0
2023-12-19 12:11:58.312816,-90.0
2023-12-19 12:11:58.320505,-73.0
2023-12-19 12:11:58.328194,-66.0
2023-12-19 12:11:58.335883,-57.0
2023-12-19 12:11:58.343572,-47.0
2023-12-19 12:11:58.351261,-42.0
2023-12-19 12:11:58.358950,-38.0
2023-12-19 12:11:58.366639,-26.0
2023-12-19 12:11:58.374327,-21.0
2023-12-19 12:11:58.382016,-26.0
2023-12-19 12:11:58.389705,-23.0
2023-12-19 12:11:58.397394,-28.0
2023-12-19 12:11:58.405083,-35.0
2023-12-19 12:11:58.412772,-23.0
2023-12-19 12:11:58.420461,-26.0
2023-12-19 12:11:58.428149,-45.0
2023-12-19 12:11:58.435838,-50.0
2023-12-19 12:11:58.443527,-45.0
2023-12-19 12:11:58.451216,-45.0
2023-12-19 12:11:58.458905,-35.0
2023-12-19 12:11:58.466594,-35.0
2023-12-19 12:11:58.474283,-50.0
2023-12-19 12:11:58.481972,-57.0
2023-12-19 12:11:58.489660,-54.0
2023-12-19 12:11:58.497349,-33.0
2023-12-19 12:11:58.505038,-14.0
2023-12-19 12:11:58.512727,-16.0
2023-12-19 12:11:58.520416,-26.0
2023-12-19 12:11:58.528105,-23.0
2023-12-19 12:11:58.535794,-4.0
2023-12-19 12:11:58.543483,0.0
2023-12-19 12:11:58.551171,-4.0
2023-12-19 12:11:58.558860,16.0
2023-12-19 12:11:58.566549,26.0
2023-12-19 12:11:58.574238,7.0
2023-12-19 12:11:58.581927,16.0
2023-12-19 12:11:58.589616,30.0
2023-12-19 12:11:58.597305,16.0
2023-12-19 12:11:58.604993,4.0
2023-12-19 12:11:58.612682,2.0
2023-12-19 12:11:58.620371,-4.0
2023-12-19 12:11:58.628060,2.0
2023-12-19 12:11:58.635749,7.0
2023-12-19 12:11:58.643438,-9.0
2023-12-19 12:11:58.651127,-19.0
2023-12-19 12:11:58.658816,-19.0
2023-12-19 12:11:58.666504,-23.0
2023-12-19 12:11:58.674193,-19.0
2023-12-19 12:11:58.681882,-11.0
2023-12-19 12:11:58.689571,-9.0
2023-12-19 12:11:58.697260,-21.0
2023-12-19 12:11:58.704949,-50.0
2023-12-19 12:11:58.712638,-64.0
2023-12-19 12:11:58.720327,-50.0
2023-12-19 12:11:58.728015,-30.0
2023-12-19 12:11:58.735704,-21.0
2023-12-19 12:11:58.743393,-11.0
2023-12-19 12:11:58.751082,-7.0
2023-12-19 12:11:58.758771,-16.0
2023-12-19 12:11:58.766460,-19.0
2023-12-19 12:11:58.774149,-14.0
2023-12-19 12:11:58.781837,-19.0
2023-12-19 12:11:58.789526,-21.0
2023-12-19 12:11:58.797215,-14.0
2023-12-19 12:11:58.804904,-81.0
2023-12-19 12:11:58.812593,-340.0
2023-12-19 12:11:58.820282,-720.0
2023-12-19 12:11:58.827971,-839.0
2023-12-19 12:11:58.835660,-419.0
2023-12-19 12:11:58.843348,140.0
2023-12-19 12:11:58.851037,243.0
2023-12-19 12:11:58.858726,59.0
2023-12-19 12:11:58.866415,30.0
2023-12-19 12:11:58.874104,76.0
2023-12-19 12:11:58.881793,40.0
2023-12-19 12:11:58.889482,19.0
2023-12-19 12:11:58.897171,30.0
2023-12-19 12:11:58.904859,30.0
2023-12-19 12:11:58.912548,19.0
2023-12-19 12:11:58.920237,16.0
2023-12-19 12:11:58.927926,7.0
2023-12-19 12:11:58.935615,-19.0
2023-12-19 12:11:58.943304,-33.0
2023-12-19 12:11:58.950993,-30.0
2023-12-19 12:11:58.958681,-38.0
2023-12-19 12:11:58.966370,-50.0
2023-12-19 12:11:58.974059,-69.0
2023-12-19 12:11:58.981748,-102.0
2023-12-19 12:11:58.989437,-123.0
2023-12-19 12:11:58.997126,-121.0
2023-12-19 12:11:59.004815,-128.0
2023-12-19 12:11:59.012504,-159.0
2023-12-19 12:11:59.020192,-178.0
2023-12-19 12:11:59.027881,-190.0
2023-12-19 12:11:59.035570,-197.0
2023-12-19 12:11:59.043259,-183.0
2023-12-19 12:11:59.050948,-166.0
2023-12-19 12:11:59.058637,-164.0
2023-12-19 12:11:59.066326,-145.0
2023-12-19 12:11:59.074015,-112.0
2023-12-19 12:11:59.081703,-104.0
2023-12-19 12:11:59.089392,-95.0
2023-12-19 12:11:59.097081,-71.0
2023-12-19 12:11:59.104770,-64.0
2023-12-19 12:11:59.112459,-66.0
2023-12-19 12:11:59.120148,-50.0
2023-12-19 12:11:59.127837,-38.0
2023-12-19 12:11:59.135525,-50.0
2023-12-19 12:11:59.143214,-57.0
2023-12-19 12:11:59.150903,-35.0
2023-12-19 12:11:59.158592,-38.0
2023-12-19 12:11:59.166281,-54.0
2023-12-19 12:11:59.173970,-45.0
2023-12-19 12:11:59.181659,-28.0
2023-12-19 12:11:59.189348,-35.0
2023-12-19 12:11:59.197036,-54.0
2023-12-19 12:11:59.204725,-50.0
2023-12-19 12:11:59.212414,-42.0
2023-12-19 12:11:59.220103,-54.0
2023-12-19 12:11:59.227792,-54.0
2023-12-19 12:11:59.235481,-50.0
2023-12-19 12:11:59.243170,-52.0
2023-12-19 12:11:59.250859,-61.0
2023-12-19 12:11:59.258547,-66.0
2023-12-19 12:11:59.266236,-54.0
2023-12-19 12:11:59.273925,-38.0
2023-12-19 12:11:59.281614,-42.0
2023-12-19 12:11:59.289303,-66.0
2023-12-19 12:11:59.296992,-64.0
2023-12-19 12:11:59.304681,-35.0
2023-12-19 12:11:59.312369,-40.0
2023-12-19 12:11:59.320058,-57.0
2023-12-19 12:11:59.327747,-40.0
2023-12-19 12:11:59.335436,-26.0
2023-12-19 12:11:59.343125,-33.0
2023-12-19 12:11:59.350814,-33.0
2023-12-19 12:11:59.358503,-26.0
2023-12-19 12:11:59.366192,-26.0
2023-12-19 12:11:59.373880,-23.0
2023-12-19 12:11:59.381569,-26.0
2023-12-19 12:11:59.389258,-30.0
2023-12-19 12:11:59.396947,-26.0
2023-12-19 12:11:59.404636,-19.0
2023-12-19 12:11:59.412325,-16.0
2023-12-19 12:11:59.420014,-19.0
2023-12-19 12:11:59.427703,-21.0
2023-12-19 12:11:59.435391,-16.0
2023-12-19 12:11:59.443080,-11.0
2023-12-19 12:11:59.450769,-7.0
2023-12-19 12:11:59.458458,-2.0
2023-12-19 12:11:59.466147,-19.0
2023-12-19 12:11:59.473836,-64.0
2023-12-19 12:11:59.481525,-83.0
2023-12-19 12:11:59.489213,-66.0
2023-12-19 12:11:59.496902,-61.0
2023-12-19 12:11:59.504591,-57.0
2023-12-19 12:11:59.512280,-45.0
2023-12-19 12:11:59.519969,-59.0
2023-12-19 12:11:59.527658,-71.0
2023-12-19 12:11:59.535347,-52.0
2023-12-19 12:11:59.543036,-45.0
2023-12-19 12:11:59.550724,-52.0
2023-12-19 12:11:59.558413,-50.0
2023-12-19 12:11:59.566102,-28.0
2023-12-19 12:11:59.573791,-23.0
2023-12-19 12:11:59.581480,-138.0
2023-12-19 12:11:59.589169,-441.0
2023-12-19 12:11:59.596858,-770.0
2023-12-19 12:11:59.604547,-751.0
2023-12-19 12:11:59.612235,-238.0
2023-12-19 12:11:59.619924,214.0
2023-12-19 12:11:59.627613,171.0
2023-12-19 12:11:59.635302,11.0
2023-12-19 12:11:59.642991,50.0
2023-12-19 12:11:59.650680,76.0
2023-12-19 12:11:59.658369,26.0
2023-12-19 12:11:59.666057,30.0
2023-12-19 12:11:59.673746,45.0
2023-12-19 12:11:59.681435,23.0
2023-12-19 12:11:59.689124,21.0
2023-12-19 12:11:59.696813,28.0
2023-12-19 12:11:59.704502,23.0
2023-12-19 12:11:59.712191,19.0
2023-12-19 12:11:59.719880,11.0
2023-12-19 12:11:59.727568,4.0
2023-12-19 12:11:59.735257,0.0
2023-12-19 12:11:59.742946,-7.0
2023-12-19 12:11:59.750635,-16.0
2023-12-19 12:11:59.758324,-19.0
2023-12-19 12:11:59.766013,-33.0
2023-12-19 12:11:59.773702,-54.0
2023-12-19 12:11:59.781391,-76.0
2023-12-19 12:11:59.789079,-109.0
2023-12-19 12:11:59.796768,-135.0
2023-12-19 12:11:59.804457,-138.0
2023-12-19 12:11:59.812146,-150.0
2023-12-19 12:11:59.819835,-154.0
2023-12-19 12:11:59.827524,-135.0
2023-12-19 12:11:59.835213,-119.0
2023-12-19 12:11:59.842901,-112.0
2023-12-19 12:11:59.850590,-90.0
2023-12-19 12:11:59.858279,-69.0
2023-12-19 12:11:59.865968,-57.0
2023-12-19 12:11:59.873657,-50.0
2023-12-19 12:11:59.881346,-38.0
2023-12-19 12:11:59.889035,-23.0
2023-12-19 12:11:59.896724,-4.0
2023-12-19 12:11:59.904412,4.0
2023-12-19 12:11:59.912101,-2.0
2023-12-19 12:11:59.919790,-14.0
2023-12-19 12:11:59.927479,-14.0
2023-12-19 12:11:59.935168,-14.0
2023-12-19 12:11:59.942857,-23.0
2023-12-19 12:11:59.950546,-30.0
2023-12-19 12:11:59.958235,-33.0
2023-12-19 12:11:59.965923,-30.0
2023-12-19 12:11:59.973612,-35.0
2023-12-19 12:11:59.981301,-45.0
2023-12-19 12:11:59.988990,-50.0
2023-12-19 12:11:59.996679,-50.0
2023-12-19 12:12:00.004368,-50.0
2023-12-19 12:12:00.012057,-57.0
2023-12-19 12:12:00.019745,-64.0
2023-12-19 12:12:00.027434,-64.0
2023-12-19 12:12:00.035123,-61.0
2023-12-19 12:12:00.042812,-57.0
2023-12-19 12:12:00.050501,-52.0
2023-12-19 12:12:00.058190,-54.0
2023-12-19 12:12:00.065879,-57.0
2023-12-19 12:12:00.073568,-52.0
2023-12-19 12:12:00.081256,-42.0
2023-12-19 12:12:00.088945,-38.0
2023-12-19 12:12:00.096634,-50.0
2023-12-19 12:12:00.104323,-71.0
2023-12-19 12:12:00.112012,-83.0
2023-12-19 12:12:00.119701,-78.0
2023-12-19 12:12:00.127390,-73.0
2023-12-19 12:12:00.135079,-83.0
2023-12-19 12:12:00.142767,-85.0
2023-12-19 12:12:00.150456,-78.0
2023-12-19 12:12:00.158145,-71.0
2023-12-19 12:12:00.165834,-66.0
2023-12-19 12:12:00.173523,-64.0
2023-12-19 12:12:00.181212,-69.0
2023-12-19 12:12:00.188901,-78.0
2023-12-19 12:12:00.196589,-92.0
2023-12-19 12:12:00.204278,-97.0
2023-12-19 12:12:00.211967,-88.0
2023-12-19 12:12:00.219656,-85.0
2023-12-19 12:12:00.227345,-88.0
2023-12-19 12:12:00.235034,-97.0
2023-12-19 12:12:00.242723,-104.0
2023-12-19 12:12:00.250412,-104.0
2023-12-19 12:12:00.258100,-119.0
2023-12-19 12:12:00.265789,-140.0
2023-12-19 12:12:00.273478,-133.0
2023-12-19 12:12:00.281167,-121.0
2023-12-19 12:12:00.288856,-123.0
2023-12-19 12:12:00.296545,-123.0
2023-12-19 12:12:00.304234,-112.0
2023-12-19 12:12:00.311923,-102.0
2023-12-19 12:12:00.319611,-100.0
2023-12-19 12:12:00.327300,-100.0
2023-12-19 12:12:00.334989,-100.0
2023-12-19 12:12:00.342678,-90.0
2023-12-19 12:12:00.350367,-69.0
2023-12-19 12:12:00.358056,-64.0
2023-12-19 12:12:00.365745,-181.0
2023-12-19 12:12:00.373433,-491.0
2023-12-19 12:12:00.381122,-836.0
2023-12-19 12:12:00.388811,-813.0
2023-12-19 12:12:00.396500,-278.0
2023-12-19 12:12:00.404189,190.0
2023-12-19 12:12:00.411878,154.0
2023-12-19 12:12:00.419567,-4.0
2023-12-19 12:12:00.427256,21.0
2023-12-19 12:12:00.434944,40.0
2023-12-19 12:12:00.442633,-2.0
2023-12-19 12:12:00.450322,7.0
2023-12-19 12:12:00.458011,21.0
2023-12-19 12:12:00.465700,2.0
2023-12-19 12:12:00.473389,-9.0
2023-12-19 12:12:00.481078,0.0
2023-12-19 12:12:00.488767,2.0
2023-12-19 12:12:00.496455,-2.0
2023-12-19 12:12:00.504144,-26.0
2023-12-19 12:12:00.511833,-57.0
2023-12-19 12:12:00.519522,-66.0
2023-12-19 12:12:00.527211,-64.0
2023-12-19 12:12:00.534900,-71.0
2023-12-19 12:12:00.542589,-88.0
2023-12-19 12:12:00.550277,-104.0
2023-12-19 12:12:00.557966,-119.0
2023-12-19 12:12:00.565655,-138.0
2023-12-19 12:12:00.573344,-154.0
2023-12-19 12:12:00.581033,-164.0
2023-12-19 12:12:00.588722,-178.0
2023-12-19 12:12:00.596411,-197.0
2023-12-19 12:12:00.604100,-202.0
2023-12-19 12:12:00.611788,-197.0
2023-12-19 12:12:00.619477,-188.0
2023-12-19 12:12:00.627166,-166.0
2023-12-19 12:12:00.634855,-147.0
2023-12-19 12:12:00.642544,-135.0
2023-12-19 12:12:00.650233,-114.0
2023-12-19 12:12:00.657922,-88.0
2023-12-19 12:12:00.665611,-71.0
2023-12-19 12:12:00.673299,-59.0
2023-12-19 12:12:00.680988,-45.0
2023-12-19 12:12:00.688677,-33.0
2023-12-19 12:12:00.696366,-28.0
2023-12-19 12:12:00.704055,-30.0
2023-12-19 12:12:00.711744,-28.0
2023-12-19 12:12:00.719433,-26.0
2023-12-19 12:12:00.727121,-40.0
2023-12-19 12:12:00.734810,-54.0
2023-12-19 12:12:00.742499,-59.0
2023-12-19 12:12:00.750188,-64.0
2023-12-19 12:12:00.757877,-76.0
2023-12-19 12:12:00.765566,-78.0
2023-12-19 12:12:00.773255,-73.0
2023-12-19 12:12:00.780944,-83.0
2023-12-19 12:12:00.788632,-100.0
2023-12-19 12:12:00.796321,-112.0
2023-12-19 12:12:00.804010,-119.0
2023-12-19 12:12:00.811699,-112.0
2023-12-19 12:12:00.819388,-109.0
2023-12-19 12:12:00.827077,-116.0
2023-12-19 12:12:00.834766,-109.0
2023-12-19 12:12:00.842455,-95.0
2023-12-19 12:12:00.850143,-90.0
2023-12-19 12:12:00.857832,-90.0
2023-12-19 12:12:00.865521,-107.0
2023-12-19 12:12:00.873210,-119.0
2023-12-19 12:12:00.880899,-97.0
2023-12-19 12:12:00.888588,-78.0
2023-12-19 12:12:00.896277,-81.0
2023-12-19 12:12:00.903965,-90.0
2023-12-19 12:12:00.911654,-90.0
2023-12-19 12:12:00.919343,-88.0
2023-12-19 12:12:00.927032,-81.0
2023-12-19 12:12:00.934721,-66.0
2023-12-19 12:12:00.942410,-61.0
2023-12-19 12:12:00.950099,-66.0
2023-12-19 12:12:00.957788,-54.0
2023-12-19 12:12:00.965476,-45.0
2023-12-19 12:12:00.973165,-64.0
2023-12-19 12:12:00.980854,-88.0
2023-12-19 12:12:00.988543,-95.0
2023-12-19 12:12:00.996232,-90.0
2023-12-19 12:12:01.003921,-81.0
2023-12-19 12:12:01.011610,-66.0
2023-12-19 12:12:01.019299,-54.0
2023-12-19 12:12:01.026987,-54.0
2023-12-19 12:12:01.034676,-52.0
2023-12-19 12:12:01.042365,-50.0
2023-12-19 12:12:01.050054,-69.0
2023-12-19 12:12:01.057743,-83.0
2023-12-19 12:12:01.065432,-64.0
2023-12-19 12:12:01.073121,-42.0
2023-12-19 12:12:01.080809,-88.0
2023-12-19 12:12:01.088498,-309.0
2023-12-19 12:12:01.096187,-720.0
2023-12-19 12:12:01.103876,-1001.0
2023-12-19 12:12:01.111565,-705.0
2023-12-19 12:12:01.119254,-16.0
2023-12-19 12:12:01.126943,283.0
2023-12-19 12:12:01.134632,71.0
2023-12-19 12:12:01.142320,-57.0
2023-12-19 12:12:01.150009,4.0
2023-12-19 12:12:01.157698,-11.0
2023-12-19 12:12:01.165387,-54.0
2023-12-19 12:12:01.173076,-30.0
2023-12-19 12:12:01.180765,-42.0
2023-12-19 12:12:01.188454,-81.0
2023-12-19 12:12:01.196143,-76.0
2023-12-19 12:12:01.203831,-73.0
2023-12-19 12:12:01.211520,-83.0
2023-12-19 12:12:01.219209,-81.0
2023-12-19 12:12:01.226898,-92.0
2023-12-19 12:12:01.234587,-119.0
2023-12-19 12:12:01.242276,-112.0
2023-12-19 12:12:01.249965,-107.0
2023-12-19 12:12:01.257653,-119.0
2023-12-19 12:12:01.265342,-128.0
2023-12-19 12:12:01.273031,-140.0
2023-12-19 12:12:01.280720,-154.0
2023-12-19 12:12:01.288409,-169.0
2023-12-19 12:12:01.296098,-193.0
2023-12-19 12:12:01.303787,-212.0
2023-12-19 12:12:01.311476,-236.0
2023-12-19 12:12:01.319164,-252.0
2023-12-19 12:12:01.326853,-236.0
2023-12-19 12:12:01.334542,-207.0
2023-12-19 12:12:01.342231,-190.0
2023-12-19 12:12:01.349920,-176.0
2023-12-19 12:12:01.357609,-166.0
2023-12-19 12:12:01.365298,-164.0
2023-12-19 12:12:01.372987,-143.0
2023-12-19 12:12:01.380675,-114.0
2023-12-19 12:12:01.388364,-95.0
2023-12-19 12:12:01.396053,-78.0
2023-12-19 12:12:01.403742,-73.0
2023-12-19 12:12:01.411431,-81.0
2023-12-19 12:12:01.419120,-71.0
2023-12-19 12:12:01.426809,-54.0
2023-12-19 12:12:01.434497,-52.0
2023-12-19 12:12:01.442186,-45.0
2023-12-19 12:12:01.449875,-50.0
2023-12-19 12:12:01.457564,-69.0
2023-12-19 12:12:01.465253,-73.0
2023-12-19 12:12:01.472942,-66.0
2023-12-19 12:12:01.480631,-69.0
2023-12-19 12:12:01.488320,-76.0
2023-12-19 12:12:01.496008,-95.0
2023-12-19 12:12:01.503697,-109.0
2023-12-19 12:12:01.511386,-104.0
2023-12-19 12:12:01.519075,-100.0
2023-12-19 12:12:01.526764,-100.0
2023-12-19 12:12:01.534453,-100.0
2023-12-19 12:12:01.542142,-112.0
2023-12-19 12:12:01.549831,-119.0
2023-12-19 12:12:01.557519,-102.0
2023-12-19 12:12:01.565208,-85.0
2023-12-19 12:12:01.572897,-90.0
2023-12-19 12:12:01.580586,-100.0
2023-12-19 12:12:01.588275,-109.0
2023-12-19 12:12:01.595964,-121.0
2023-12-19 12:12:01.603653,-123.0
2023-12-19 12:12:01.611341,-112.0
2023-12-19 12:12:01.619030,-107.0
2023-12-19 12:12:01.626719,-109.0
2023-12-19 12:12:01.634408,-102.0
2023-12-19 12:12:01.642097,-88.0
2023-12-19 12:12:01.649786,-83.0
2023-12-19 12:12:01.657475,-81.0
2023-12-19 12:12:01.665164,-69.0
2023-12-19 12:12:01.672852,-76.0
2023-12-19 12:12:01.680541,-114.0
2023-12-19 12:12:01.688230,-121.0
2023-12-19 12:12:01.695919,-102.0
2023-12-19 12:12:01.703608,-121.0
2023-12-19 12:12:01.711297,-143.0
2023-12-19 12:12:01.718986,-123.0
2023-12-19 12:12:01.726675,-102.0
2023-12-19 12:12:01.734363,-88.0
2023-12-19 12:12:01.742052,-69.0
2023-12-19 12:12:01.749741,-57.0
2023-12-19 12:12:01.757430,-57.0
2023-12-19 12:12:01.765119,-76.0
2023-12-19 12:12:01.772808,-107.0
2023-12-19 12:12:01.780497,-107.0
2023-12-19 12:12:01.788185,-76.0
2023-12-19 12:12:01.795874,-50.0
2023-12-19 12:12:01.803563,-85.0
2023-12-19 12:12:01.811252,-298.0
2023-12-19 12:12:01.818941,-696.0
2023-12-19 12:12:01.826630,-991.0
2023-12-19 12:12:01.834319,-748.0
2023-12-19 12:12:01.842008,-78.0
2023-12-19 12:12:01.849696,243.0
2023-12-19 12:12:01.857385,57.0
2023-12-19 12:12:01.865074,-33.0
2023-12-19 12:12:01.872763,57.0
2023-12-19 12:12:01.880452,45.0
2023-12-19 12:12:01.888141,7.0
2023-12-19 12:12:01.895830,30.0
2023-12-19 12:12:01.903519,19.0
2023-12-19 12:12:01.911207,-11.0
2023-12-19 12:12:01.918896,2.0
2023-12-19 12:12:01.926585,14.0
2023-12-19 12:12:01.934274,2.0
2023-12-19 12:12:01.941963,-9.0
2023-12-19 12:12:01.949652,-23.0
2023-12-19 12:12:01.957341,-33.0
2023-12-19 12:12:01.965029,-26.0
2023-12-19 12:12:01.972718,-23.0
2023-12-19 12:12:01.980407,-28.0
2023-12-19 12:12:01.988096,-50.0
2023-12-19 12:12:01.995785,-69.0
2023-12-19 12:12:02.003474,-71.0
2023-12-19 12:12:02.011163,-76.0
2023-12-19 12:12:02.018852,-102.0
2023-12-19 12:12:02.026540,-119.0
2023-12-19 12:12:02.034229,-133.0
2023-12-19 12:12:02.041918,-150.0
2023-12-19 12:12:02.049607,-145.0
2023-12-19 12:12:02.057296,-116.0
2023-12-19 12:12:02.064985,-92.0
2023-12-19 12:12:02.072674,-73.0
2023-12-19 12:12:02.080363,-66.0
2023-12-19 12:12:02.088051,-66.0
2023-12-19 12:12:02.095740,-47.0
2023-12-19 12:12:02.103429,-21.0
2023-12-19 12:12:02.111118,2.0
2023-12-19 12:12:02.118807,16.0
2023-12-19 12:12:02.126496,21.0
2023-12-19 12:12:02.134185,26.0
2023-12-19 12:12:02.141873,40.0
2023-12-19 12:12:02.149562,50.0
2023-12-19 12:12:02.157251,52.0
2023-12-19 12:12:02.164940,52.0
2023-12-19 12:12:02.172629,50.0
2023-12-19 12:12:02.180318,50.0
2023-12-19 12:12:02.188007,57.0
2023-12-19 12:12:02.195696,64.0
2023-12-19 12:12:02.203384,64.0
2023-12-19 12:12:02.211073,57.0
2023-12-19 12:12:02.218762,47.0
2023-12-19 12:12:02.226451,45.0
2023-12-19 12:12:02.234140,50.0
2023-12-19 12:12:02.241829,52.0
2023-12-19 12:12:02.249518,52.0
2023-12-19 12:12:02.257207,33.0
2023-12-19 12:12:02.264895,4.0
2023-12-19 12:12:02.272584,2.0
2023-12-19 12:12:02.280273,11.0
2023-12-19 12:12:02.287962,9.0
2023-12-19 12:12:02.295651,11.0
2023-12-19 12:12:02.303340,11.0
2023-12-19 12:12:02.311029,-2.0
2023-12-19 12:12:02.318717,0.0
2023-12-19 12:12:02.326406,11.0
2023-12-19 12:12:02.334095,11.0
2023-12-19 12:12:02.341784,4.0
2023-12-19 12:12:02.349473,0.0
2023-12-19 12:12:02.357162,0.0
2023-12-19 12:12:02.364851,0.0
2023-12-19 12:12:02.372540,7.0
2023-12-19 12:12:02.380228,14.0
2023-12-19 12:12:02.387917,11.0
2023-12-19 12:12:02.395606,2.0
2023-12-19 12:12:02.403295,-2.0
2023-12-19 12:12:02.410984,-2.0
2023-12-19 12:12:02.418673,-2.0
2023-12-19 12:12:02.426362,4.0
2023-12-19 12:12:02.434051,11.0
2023-12-19 12:12:02.441739,9.0
2023-12-19 12:12:02.449428,-7.0
2023-12-19 12:12:02.457117,-30.0
2023-12-19 12:12:02.464806,-40.0
2023-12-19 12:12:02.472495,-30.0
2023-12-19 12:12:02.480184,-19.0
2023-12-19 12:12:02.487873,-11.0
2023-12-19 12:12:02.495561,0.0
2023-12-19 12:12:02.503250,11.0
2023-12-19 12:12:02.510939,14.0
2023-12-19 12:12:02.518628,16.0
2023-12-19 12:12:02.526317,16.0
2023-12-19 12:12:02.534006,14.0
2023-12-19 12:12:02.541695,19.0
2023-12-19 12:12:02.549384,35.0
2023-12-19 12:12:02.557072,35.0
2023-12-19 12:12:02.564761,-102.0
2023-12-19 12:12:02.572450,-441.0
2023-12-19 12:12:02.580139,-798.0
2023-12-19 12:12:02.587828,-739.0
2023-12-19 12:12:02.595517,-152.0
2023-12-19 12:12:02.603206,286.0
2023-12-19 12:12:02.610895,200.0
2023-12-19 12:12:02.618583,71.0
2023-12-19 12:12:02.626272,131.0
2023-12-19 12:12:02.633961,138.0
2023-12-19 12:12:02.641650,95.0
2023-12-19 12:12:02.649339,112.0
2023-12-19 12:12:02.657028,116.0
2023-12-19 12:12:02.664717,88.0
2023-12-19 12:12:02.672405,88.0
2023-12-19 12:12:02.680094,90.0
2023-12-19 12:12:02.687783,81.0
2023-12-19 12:12:02.695472,78.0
2023-12-19 12:12:02.703161,81.0
2023-12-19 12:12:02.710850,76.0
2023-12-19 12:12:02.718539,64.0
2023-12-19 12:12:02.726228,50.0
2023-12-19 12:12:02.733916,35.0
2023-12-19 12:12:02.741605,28.0
2023-12-19 12:12:02.749294,11.0
2023-12-19 12:12:02.756983,-26.0
2023-12-19 12:12:02.764672,-61.0
2023-12-19 12:12:02.772361,-73.0
2023-12-19 12:12:02.780050,-83.0
2023-12-19 12:12:02.787739,-97.0
2023-12-19 12:12:02.795427,-109.0
2023-12-19 12:12:02.803116,-128.0
2023-12-19 12:12:02.810805,-138.0
2023-12-19 12:12:02.818494,-126.0
2023-12-19 12:12:02.826183,-107.0
2023-12-19 12:12:02.833872,-97.0
2023-12-19 12:12:02.841561,-88.0
2023-12-19 12:12:02.849249,-81.0
2023-12-19 12:12:02.856938,-73.0
2023-12-19 12:12:02.864627,-47.0
2023-12-19 12:12:02.872316,-21.0
2023-12-19 12:12:02.880005,-9.0
2023-12-19 12:12:02.887694,-2.0
2023-12-19 12:12:02.895383,4.0
2023-12-19 12:12:02.903072,9.0
2023-12-19 12:12:02.910760,14.0
2023-12-19 12:12:02.918449,21.0
2023-12-19 12:12:02.926138,28.0
2023-12-19 12:12:02.933827,26.0
2023-12-19 12:12:02.941516,19.0
2023-12-19 12:12:02.949205,19.0
2023-12-19 12:12:02.956894,28.0
2023-12-19 12:12:02.964583,30.0
2023-12-19 12:12:02.972271,30.0
2023-12-19 12:12:02.979960,23.0
2023-12-19 12:12:02.987649,21.0
2023-12-19 12:12:02.995338,19.0
2023-12-19 12:12:03.003027,19.0
2023-12-19 12:12:03.010716,21.0
2023-12-19 12:12:03.018405,21.0
2023-12-19 12:12:03.026094,16.0
2023-12-19 12:12:03.033782,16.0
2023-12-19 12:12:03.041471,21.0
2023-12-19 12:12:03.049160,16.0
2023-12-19 12:12:03.056849,9.0
2023-12-19 12:12:03.064538,16.0
2023-12-19 12:12:03.072227,16.0
2023-12-19 12:12:03.079916,7.0
2023-12-19 12:12:03.087604,9.0
2023-12-19 12:12:03.095293,14.0
2023-12-19 12:12:03.102982,9.0
2023-12-19 12:12:03.110671,9.0
2023-12-19 12:12:03.118360,14.0
2023-12-19 12:12:03.126049,16.0
2023-12-19 12:12:03.133738,9.0
2023-12-19 12:12:03.141427,9.0
2023-12-19 12:12:03.149115,14.0
2023-12-19 12:12:03.156804,19.0
2023-12-19 12:12:03.164493,16.0
2023-12-19 12:12:03.172182,7.0
2023-12-19 12:12:03.179871,0.0
2023-12-19 12:12:03.187560,-2.0
2023-12-19 12:12:03.195249,-4.0
2023-12-19 12:12:03.202938,-11.0
2023-12-19 12:12:03.210626,-19.0
2023-12-19 12:12:03.218315,-14.0
2023-12-19 12:12:03.226004,-7.0
2023-12-19 12:12:03.233693,-9.0
2023-12-19 12:12:03.241382,-21.0
2023-12-19 12:12:03.249071,-40.0
2023-12-19 12:12:03.256760,-54.0
2023-12-19 12:12:03.264448,-47.0
2023-12-19 12:12:03.272137,-38.0
2023-12-19 12:12:03.279826,-28.0
2023-12-19 12:12:03.287515,-14.0
2023-12-19 12:12:03.295204,-26.0
2023-12-19 12:12:03.302893,-52.0
2023-12-19 12:12:03.310582,-52.0
2023-12-19 12:12:03.318271,-59.0
2023-12-19 12:12:03.325959,-81.0
2023-12-19 12:12:03.333648,-76.0
2023-12-19 12:12:03.341337,-71.0
2023-12-19 12:12:03.349026,-97.0
2023-12-19 12:12:03.356715,-219.0
2023-12-19 12:12:03.364404,-524.0
2023-12-19 12:12:03.372093,-856.0
2023-12-19 12:12:03.379782,-777.0
2023-12-19 12:12:03.387470,-221.0
2023-12-19 12:12:03.395159,169.0
2023-12-19 12:12:03.402848,83.0
2023-12-19 12:12:03.410537,-19.0
2023-12-19 12:12:03.418226,40.0
2023-12-19 12:12:03.425915,42.0
2023-12-19 12:12:03.433604,4.0
2023-12-19 12:12:03.441292,21.0
2023-12-19 12:12:03.448981,28.0
2023-12-19 12:12:03.456670,14.0
2023-12-19 12:12:03.464359,14.0
2023-12-19 12:12:03.472048,19.0
2023-12-19 12:12:03.479737,7.0
2023-12-19 12:12:03.487426,2.0
2023-12-19 12:12:03.495115,4.0
2023-12-19 12:12:03.502803,0.0
2023-12-19 12:12:03.510492,-7.0
2023-12-19 12:12:03.518181,-16.0
2023-12-19 12:12:03.525870,-28.0
2023-12-19 12:12:03.533559,-35.0
2023-12-19 12:12:03.541248,-45.0
2023-12-19 12:12:03.548937,-64.0
2023-12-19 12:12:03.556626,-81.0
2023-12-19 12:12:03.564314,-100.0
2023-12-19 12:12:03.572003,-123.0
2023-12-19 12:12:03.579692,-131.0
2023-12-19 12:12:03.587381,-123.0
2023-12-19 12:12:03.595070,-121.0
2023-12-19 12:12:03.602759,-121.0
2023-12-19 12:12:03.610448,-109.0
2023-12-19 12:12:03.618136,-85.0
2023-12-19 12:12:03.625825,-64.0
2023-12-19 12:12:03.633514,-45.0
2023-12-19 12:12:03.641203,-28.0
2023-12-19 12:12:03.648892,-11.0
2023-12-19 12:12:03.656581,2.0
2023-12-19 12:12:03.664270,16.0
2023-12-19 12:12:03.671959,30.0
2023-12-19 12:12:03.679647,40.0
2023-12-19 12:12:03.687336,42.0
2023-12-19 12:12:03.695025,42.0
2023-12-19 12:12:03.702714,42.0
2023-12-19 12:12:03.710403,42.0
2023-12-19 12:12:03.718092,42.0
2023-12-19 12:12:03.725781,47.0
2023-12-19 12:12:03.733470,45.0
2023-12-19 12:12:03.741158,38.0
2023-12-19 12:12:03.748847,33.0
2023-12-19 12:12:03.756536,28.0
2023-12-19 12:12:03.764225,30.0
2023-12-19 12:12:03.771914,33.0
2023-12-19 12:12:03.779603,26.0
2023-12-19 12:12:03.787292,19.0
2023-12-19 12:12:03.794980,16.0
2023-12-19 12:12:03.802669,11.0
2023-12-19 12:12:03.810358,4.0
2023-12-19 12:12:03.818047,-7.0
2023-12-19 12:12:03.825736,-28.0
2023-12-19 12:12:03.833425,-52.0
2023-12-19 12:12:03.841114,-64.0
2023-12-19 12:12:03.848803,-69.0
2023-12-19 12:12:03.856491,-61.0
2023-12-19 12:12:03.864180,-52.0
2023-12-19 12:12:03.871869,-47.0
2023-12-19 12:12:03.879558,-64.0
2023-12-19 12:12:03.887247,-90.0
2023-12-19 12:12:03.894936,-83.0
2023-12-19 12:12:03.902625,-64.0
2023-12-19 12:12:03.910314,-61.0
2023-12-19 12:12:03.918002,-69.0
2023-12-19 12:12:03.925691,-85.0
2023-12-19 12:12:03.933380,-102.0
2023-12-19 12:12:03.941069,-90.0
2023-12-19 12:12:03.948758,-78.0
2023-12-19 12:12:03.956447,-88.0
2023-12-19 12:12:03.964136,-90.0
2023-12-19 12:12:03.971824,-90.0
2023-12-19 12:12:03.979513,-102.0
2023-12-19 12:12:03.987202,-102.0
2023-12-19 12:12:03.994891,-92.0
2023-12-19 12:12:04.002580,-83.0
2023-12-19 12:12:04.010269,-83.0
2023-12-19 12:12:04.017958,-85.0
2023-12-19 12:12:04.025647,-85.0
2023-12-19 12:12:04.033335,-90.0
2023-12-19 12:12:04.041024,-107.0
2023-12-19 12:12:04.048713,-112.0
2023-12-19 12:12:04.056402,-102.0
2023-12-19 12:12:04.064091,-100.0
2023-12-19 12:12:04.071780,-90.0
2023-12-19 12:12:04.079469,-73.0
2023-12-19 12:12:04.087158,-69.0
2023-12-19 12:12:04.094846,-66.0
2023-12-19 12:12:04.102535,-61.0
2023-12-19 12:12:04.110224,-64.0
2023-12-19 12:12:04.117913,-54.0
2023-12-19 12:12:04.125602,-40.0
2023-12-19 12:12:04.133291,-33.0
2023-12-19 12:12:04.140980,-73.0
2023-12-19 12:12:04.148668,-286.0
2023-12-19 12:12:04.156357,-658.0
2023-12-19 12:12:04.164046,-872.0
2023-12-19 12:12:04.171735,-560.0
2023-12-19 12:12:04.179424,42.0
2023-12-19 12:12:04.187113,262.0
2023-12-19 12:12:04.194802,90.0
2023-12-19 12:12:04.202491,33.0
2023-12-19 12:12:04.210179,88.0
2023-12-19 12:12:04.217868,61.0
2023-12-19 12:12:04.225557,45.0
2023-12-19 12:12:04.233246,66.0
2023-12-19 12:12:04.240935,45.0
2023-12-19 12:12:04.248624,21.0
2023-12-19 12:12:04.256313,38.0
2023-12-19 12:12:04.264002,42.0
2023-12-19 12:12:04.271690,30.0
2023-12-19 12:12:04.279379,28.0
2023-12-19 12:12:04.287068,21.0
2023-12-19 12:12:04.294757,7.0
2023-12-19 12:12:04.302446,2.0
2023-12-19 12:12:04.310135,-7.0
2023-12-19 12:12:04.317824,-26.0
2023-12-19 12:12:04.325512,-45.0
2023-12-19 12:12:04.333201,-76.0
2023-12-19 12:12:04.340890,-100.0
2023-12-19 12:12:04.348579,-104.0
2023-12-19 12:12:04.356268,-114.0
2023-12-19 12:12:04.363957,-133.0
2023-12-19 12:12:04.371646,-140.0
2023-12-19 12:12:04.379335,-138.0
2023-12-19 12:12:04.387023,-131.0
2023-12-19 12:12:04.394712,-119.0
2023-12-19 12:12:04.402401,-97.0
2023-12-19 12:12:04.410090,-83.0
2023-12-19 12:12:04.417779,-78.0
2023-12-19 12:12:04.425468,-76.0
2023-12-19 12:12:04.433157,-61.0
2023-12-19 12:12:04.440846,-35.0
2023-12-19 12:12:04.448534,-21.0
2023-12-19 12:12:04.456223,-11.0
2023-12-19 12:12:04.463912,-2.0
2023-12-19 12:12:04.471601,2.0
2023-12-19 12:12:04.479290,7.0
2023-12-19 12:12:04.486979,16.0
2023-12-19 12:12:04.494668,21.0
2023-12-19 12:12:04.502356,21.0
2023-12-19 12:12:04.510045,23.0
2023-12-19 12:12:04.517734,16.0
2023-12-19 12:12:04.525423,7.0
2023-12-19 12:12:04.533112,7.0
2023-12-19 12:12:04.540801,9.0
2023-12-19 12:12:04.548490,7.0
2023-12-19 12:12:04.556179,0.0
2023-12-19 12:12:04.563867,-7.0
2023-12-19 12:12:04.571556,-16.0
2023-12-19 12:12:04.579245,-14.0
2023-12-19 12:12:04.586934,-7.0
2023-12-19 12:12:04.594623,-2.0
2023-12-19 12:12:04.602312,-7.0
2023-12-19 12:12:04.610001,-19.0
2023-12-19 12:12:04.617690,-19.0
2023-12-19 12:12:04.625378,-7.0
2023-12-19 12:12:04.633067,-4.0
2023-12-19 12:12:04.640756,-9.0
2023-12-19 12:12:04.648445,-9.0
2023-12-19 12:12:04.656134,-4.0
2023-12-19 12:12:04.663823,0.0
2023-12-19 12:12:04.671512,0.0
2023-12-19 12:12:04.679200,2.0
2023-12-19 12:12:04.686889,4.0
2023-12-19 12:12:04.694578,0.0
2023-12-19 12:12:04.702267,-2.0
2023-12-19 12:12:04.709956,0.0
2023-12-19 12:12:04.717645,2.0
2023-12-19 12:12:04.725334,2.0
2023-12-19 12:12:04.733023,0.0
2023-12-19 12:12:04.740711,-4.0
2023-12-19 12:12:04.748400,-9.0
2023-12-19 12:12:04.756089,-16.0
2023-12-19 12:12:04.763778,-21.0
2023-12-19 12:12:04.771467,-19.0
2023-12-19 12:12:04.779156,-21.0
2023-12-19 12:12:04.786845,-26.0
2023-12-19 12:12:04.794534,-23.0
2023-12-19 12:12:04.802222,-35.0
2023-12-19 12:12:04.809911,-61.0
2023-12-19 12:12:04.817600,-73.0
2023-12-19 12:12:04.825289,-73.0
2023-12-19 12:12:04.832978,-83.0
2023-12-19 12:12:04.840667,-81.0
2023-12-19 12:12:04.848356,-59.0
2023-12-19 12:12:04.856044,-54.0
2023-12-19 12:12:04.863733,-57.0
2023-12-19 12:12:04.871422,-52.0
2023-12-19 12:12:04.879111,-54.0
2023-12-19 12:12:04.886800,-47.0
2023-12-19 12:12:04.894489,-35.0
2023-12-19 12:12:04.902178,-30.0
2023-12-19 12:12:04.909867,-26.0
2023-12-19 12:12:04.917555,-135.0
2023-12-19 12:12:04.925244,-472.0
2023-12-19 12:12:04.932933,-856.0
2023-12-19 12:12:04.940622,-825.0
2023-12-19 12:12:04.948311,-247.0
2023-12-19 12:12:04.956000,216.0
2023-12-19 12:12:04.963689,138.0
2023-12-19 12:12:04.971378,-19.0
2023-12-19 12:12:04.979066,47.0
2023-12-19 12:12:04.986755,76.0
2023-12-19 12:12:04.994444,21.0
2023-12-19 12:12:05.002133,23.0
2023-12-19 12:12:05.009822,28.0
2023-12-19 12:12:05.017511,4.0
2023-12-19 12:12:05.025200,4.0
2023-12-19 12:12:05.032888,2.0
2023-12-19 12:12:05.040577,-11.0
2023-12-19 12:12:05.048266,-21.0
2023-12-19 12:12:05.055955,-35.0
2023-12-19 12:12:05.063644,-52.0
2023-12-19 12:12:05.071333,-57.0
2023-12-19 12:12:05.079022,-61.0
2023-12-19 12:12:05.086711,-69.0
2023-12-19 12:12:05.094399,-76.0
2023-12-19 12:12:05.102088,-85.0
2023-12-19 12:12:05.109777,-100.0
2023-12-19 12:12:05.117466,-114.0
2023-12-19 12:12:05.125155,-123.0
2023-12-19 12:12:05.132844,-138.0
2023-12-19 12:12:05.140533,-152.0
2023-12-19 12:12:05.148222,-140.0
2023-12-19 12:12:05.155910,-133.0
2023-12-19 12:12:05.163599,-138.0
2023-12-19 12:12:05.171288,-112.0
2023-12-19 12:12:05.178977,-81.0
2023-12-19 12:12:05.186666,-78.0
2023-12-19 12:12:05.194355,-59.0
2023-12-19 12:12:05.202044,-23.0
2023-12-19 12:12:05.209732,-2.0
2023-12-19 12:12:05.217421,-2.0
2023-12-19 12:12:05.225110,0.0
2023-12-19 12:12:05.232799,19.0
2023-12-19 12:12:05.240488,42.0
2023-12-19 12:12:05.248177,54.0
2023-12-19 12:12:05.255866,42.0
2023-12-19 12:12:05.263555,38.0
2023-12-19 12:12:05.271243,47.0
2023-12-19 12:12:05.278932,50.0
2023-12-19 12:12:05.286621,47.0
2023-12-19 12:12:05.294310,42.0
2023-12-19 12:12:05.301999,33.0
2023-12-19 12:12:05.309688,33.0
2023-12-19 12:12:05.317377,26.0
2023-12-19 12:12:05.325066,9.0
2023-12-19 12:12:05.332754,0.0
2023-12-19 12:12:05.340443,-9.0
2023-12-19 12:12:05.348132,-26.0
2023-12-19 12:12:05.355821,-30.0
2023-12-19 12:12:05.363510,-21.0
2023-12-19 12:12:05.371199,-19.0
2023-12-19 12:12:05.378888,-26.0
2023-12-19 12:12:05.386576,-28.0
2023-12-19 12:12:05.394265,-19.0
2023-12-19 12:12:05.401954,-14.0
2023-12-19 12:12:05.409643,-19.0
2023-12-19 12:12:05.417332,-21.0
2023-12-19 12:12:05.425021,-16.0
2023-12-19 12:12:05.432710,-9.0
2023-12-19 12:12:05.440399,-7.0
2023-12-19 12:12:05.448087,-11.0
2023-12-19 12:12:05.455776,-19.0
2023-12-19 12:12:05.463465,-26.0
2023-12-19 12:12:05.471154,-28.0
2023-12-19 12:12:05.478843,-28.0
2023-12-19 12:12:05.486532,-26.0
2023-12-19 12:12:05.494221,-30.0
2023-12-19 12:12:05.501910,-40.0
2023-12-19 12:12:05.509598,-33.0
2023-12-19 12:12:05.517287,-28.0
2023-12-19 12:12:05.524976,-38.0
2023-12-19 12:12:05.532665,-40.0
2023-12-19 12:12:05.540354,-50.0
2023-12-19 12:12:05.548043,-85.0
2023-12-19 12:12:05.555732,-92.0
2023-12-19 12:12:05.563420,-69.0
2023-12-19 12:12:05.571109,-64.0
2023-12-19 12:12:05.578798,-69.0
2023-12-19 12:12:05.586487,-69.0
2023-12-19 12:12:05.594176,-59.0
2023-12-19 12:12:05.601865,-52.0
2023-12-19 12:12:05.609554,-64.0
2023-12-19 12:12:05.617243,-66.0
2023-12-19 12:12:05.624931,-73.0
2023-12-19 12:12:05.632620,-92.0
2023-12-19 12:12:05.640309,-90.0
2023-12-19 12:12:05.647998,-66.0
2023-12-19 12:12:05.655687,-45.0
2023-12-19 12:12:05.663376,-42.0
2023-12-19 12:12:05.671065,-45.0
2023-12-19 12:12:05.678754,-35.0
2023-12-19 12:12:05.686442,-28.0
2023-12-19 12:12:05.694131,-30.0
2023-12-19 12:12:05.701820,-30.0
2023-12-19 12:12:05.709509,-14.0
2023-12-19 12:12:05.717198,0.0
2023-12-19 12:12:05.724887,-83.0
2023-12-19 12:12:05.732576,-345.0
2023-12-19 12:12:05.740264,-698.0
2023-12-19 12:12:05.747953,-777.0
2023-12-19 12:12:05.755642,-331.0
2023-12-19 12:12:05.763331,169.0
2023-12-19 12:12:05.771020,188.0
2023-12-19 12:12:05.778709,33.0
2023-12-19 12:12:05.786398,66.0
2023-12-19 12:12:05.794087,83.0
2023-12-19 12:12:05.801775,30.0
2023-12-19 12:12:05.809464,52.0
2023-12-19 12:12:05.817153,59.0
2023-12-19 12:12:05.824842,26.0
2023-12-19 12:12:05.832531,35.0
2023-12-19 12:12:05.840220,38.0
2023-12-19 12:12:05.847909,2.0
2023-12-19 12:12:05.855598,-9.0
2023-12-19 12:12:05.863286,-4.0
2023-12-19 12:12:05.870975,-11.0
2023-12-19 12:12:05.878664,-14.0
2023-12-19 12:12:05.886353,-14.0
2023-12-19 12:12:05.894042,-26.0
2023-12-19 12:12:05.901731,-45.0
2023-12-19 12:12:05.909420,-59.0
2023-12-19 12:12:05.917108,-71.0
2023-12-19 12:12:05.924797,-81.0
2023-12-19 12:12:05.932486,-88.0
2023-12-19 12:12:05.940175,-107.0
2023-12-19 12:12:05.947864,-128.0
2023-12-19 12:12:05.955553,-126.0
2023-12-19 12:12:05.963242,-114.0
2023-12-19 12:12:05.970931,-109.0
2023-12-19 12:12:05.978619,-100.0
2023-12-19 12:12:05.986308,-83.0
2023-12-19 12:12:05.993997,-69.0
2023-12-19 12:12:06.001686,-57.0
2023-12-19 12:12:06.009375,-35.0
2023-12-19 12:12:06.017064,-16.0
2023-12-19 12:12:06.024753,-9.0
2023-12-19 12:12:06.032442,-2.0
2023-12-19 12:12:06.040130,4.0
2023-12-19 12:12:06.047819,4.0
2023-12-19 12:12:06.055508,2.0
2023-12-19 12:12:06.063197,11.0
2023-12-19 12:12:06.070886,28.0
2023-12-19 12:12:06.078575,23.0
2023-12-19 12:12:06.086264,4.0
2023-12-19 12:12:06.093952,-4.0
2023-12-19 12:12:06.101641,2.0
2023-12-19 12:12:06.109330,4.0
2023-12-19 12:12:06.117019,-4.0
2023-12-19 12:12:06.124708,-16.0
2023-12-19 12:12:06.132397,-35.0
2023-12-19 12:12:06.140086,-54.0
2023-12-19 12:12:06.147775,-52.0
2023-12-19 12:12:06.155463,-45.0
2023-12-19 12:12:06.163152,-45.0
2023-12-19 12:12:06.170841,-47.0
2023-12-19 12:12:06.178530,-54.0
2023-12-19 12:12:06.186219,-64.0
2023-12-19 12:12:06.193908,-61.0
2023-12-19 12:12:06.201597,-57.0
2023-12-19 12:12:06.209286,-66.0
2023-12-19 12:12:06.216974,-69.0
2023-12-19 12:12:06.224663,-64.0
2023-12-19 12:12:06.232352,-59.0
2023-12-19 12:12:06.240041,-57.0
2023-12-19 12:12:06.247730,-59.0
2023-12-19 12:12:06.255419,-59.0
2023-12-19 12:12:06.263108,-50.0
2023-12-19 12:12:06.270796,-50.0
2023-12-19 12:12:06.278485,-61.0
2023-12-19 12:12:06.286174,-69.0
2023-12-19 12:12:06.293863,-61.0
2023-12-19 12:12:06.301552,-57.0
2023-12-19 12:12:06.309241,-64.0
2023-12-19 12:12:06.316930,-64.0
2023-12-19 12:12:06.324619,-57.0
2023-12-19 12:12:06.332307,-59.0
2023-12-19 12:12:06.339996,-59.0
2023-12-19 12:12:06.347685,-54.0
2023-12-19 12:12:06.355374,-66.0
2023-12-19 12:12:06.363063,-78.0
2023-12-19 12:12:06.370752,-71.0
2023-12-19 12:12:06.378441,-57.0
2023-12-19 12:12:06.386130,-45.0
2023-12-19 12:12:06.393818,-35.0
2023-12-19 12:12:06.401507,-45.0
2023-12-19 12:12:06.409196,-73.0
2023-12-19 12:12:06.416885,-95.0
2023-12-19 12:12:06.424574,-83.0
2023-12-19 12:12:06.432263,-66.0
2023-12-19 12:12:06.439952,-57.0
2023-12-19 12:12:06.447640,-52.0
2023-12-19 12:12:06.455329,-47.0
2023-12-19 12:12:06.463018,-38.0
2023-12-19 12:12:06.470707,-30.0
2023-12-19 12:12:06.478396,-30.0
2023-12-19 12:12:06.486085,-28.0
2023-12-19 12:12:06.493774,-26.0
2023-12-19 12:12:06.501463,-19.0
2023-12-19 12:12:06.509151,-21.0
2023-12-19 12:12:06.516840,-152.0
2023-12-19 12:12:06.524529,-484.0
2023-12-19 12:12:06.532218,-820.0
2023-12-19 12:12:06.539907,-729.0
2023-12-19 12:12:06.547596,-166.0
2023-12-19 12:12:06.555285,231.0
2023-12-19 12:12:06.562974,152.0
2023-12-19 12:12:06.570662,26.0
2023-12-19 12:12:06.578351,64.0
2023-12-19 12:12:06.586040,71.0
2023-12-19 12:12:06.593729,35.0
2023-12-19 12:12:06.601418,47.0
2023-12-19 12:12:06.609107,54.0
2023-12-19 12:12:06.616796,40.0
2023-12-19 12:12:06.624484,30.0
2023-12-19 12:12:06.632173,28.0
2023-12-19 12:12:06.639862,26.0
2023-12-19 12:12:06.647551,19.0
2023-12-19 12:12:06.655240,11.0
2023-12-19 12:12:06.662929,11.0
2023-12-19 12:12:06.670618,9.0
2023-12-19 12:12:06.678307,-4.0
2023-12-19 12:12:06.685995,-14.0
2023-12-19 12:12:06.693684,-23.0
2023-12-19 12:12:06.701373,-42.0
2023-12-19 12:12:06.709062,-57.0
2023-12-19 12:12:06.716751,-76.0
2023-12-19 12:12:06.724440,-97.0
2023-12-19 12:12:06.732129,-107.0
2023-12-19 12:12:06.739818,-119.0
2023-12-19 12:12:06.747506,-126.0
2023-12-19 12:12:06.755195,-123.0
2023-12-19 12:12:06.762884,-131.0
2023-12-19 12:12:06.770573,-143.0
2023-12-19 12:12:06.778262,-131.0
2023-12-19 12:12:06.785951,-112.0
2023-12-19 12:12:06.793640,-90.0
2023-12-19 12:12:06.801328,-66.0
2023-12-19 12:12:06.809017,-54.0
2023-12-19 12:12:06.816706,-45.0
2023-12-19 12:12:06.824395,-28.0
2023-12-19 12:12:06.832084,-23.0
2023-12-19 12:12:06.839773,-19.0
2023-12-19 12:12:06.847462,-7.0
2023-12-19 12:12:06.855151,-7.0
2023-12-19 12:12:06.862839,-23.0
2023-12-19 12:12:06.870528,-28.0
2023-12-19 12:12:06.878217,-19.0
2023-12-19 12:12:06.885906,-21.0
2023-12-19 12:12:06.893595,-30.0
2023-12-19 12:12:06.901284,-26.0
2023-12-19 12:12:06.908973,-21.0
2023-12-19 12:12:06.916662,-35.0
2023-12-19 12:12:06.924350,-40.0
2023-12-19 12:12:06.932039,-38.0
2023-12-19 12:12:06.939728,-42.0
2023-12-19 12:12:06.947417,-57.0
2023-12-19 12:12:06.955106,-69.0
2023-12-19 12:12:06.962795,-69.0
2023-12-19 12:12:06.970484,-59.0
2023-12-19 12:12:06.978172,-61.0
2023-12-19 12:12:06.985861,-69.0
2023-12-19 12:12:06.993550,-61.0
2023-12-19 12:12:07.001239,-57.0
2023-12-19 12:12:07.008928,-61.0
2023-12-19 12:12:07.016617,-69.0
2023-12-19 12:12:07.024306,-64.0
2023-12-19 12:12:07.031995,-61.0
2023-12-19 12:12:07.039683,-61.0
2023-12-19 12:12:07.047372,-54.0
2023-12-19 12:12:07.055061,-52.0
2023-12-19 12:12:07.062750,-52.0
2023-12-19 12:12:07.070439,-52.0
2023-12-19 12:12:07.078128,-54.0
2023-12-19 12:12:07.085817,-57.0
2023-12-19 12:12:07.093506,-52.0
2023-12-19 12:12:07.101194,-47.0
2023-12-19 12:12:07.108883,-42.0
2023-12-19 12:12:07.116572,-42.0
2023-12-19 12:12:07.124261,-40.0
2023-12-19 12:12:07.131950,-28.0
2023-12-19 12:12:07.139639,-26.0
2023-12-19 12:12:07.147328,-28.0
2023-12-19 12:12:07.155016,-26.0
2023-12-19 12:12:07.162705,-47.0
2023-12-19 12:12:07.170394,-73.0
2023-12-19 12:12:07.178083,-66.0
2023-12-19 12:12:07.185772,-42.0
2023-12-19 12:12:07.193461,-33.0
2023-12-19 12:12:07.201150,-30.0
2023-12-19 12:12:07.208839,-40.0
2023-12-19 12:12:07.216527,-54.0
2023-12-19 12:12:07.224216,-50.0
2023-12-19 12:12:07.231905,-35.0
2023-12-19 12:12:07.239594,-35.0
2023-12-19 12:12:07.247283,-33.0
2023-12-19 12:12:07.254972,-14.0
2023-12-19 12:12:07.262661,-42.0
2023-12-19 12:12:07.270350,-245.0
2023-12-19 12:12:07.278038,-624.0
2023-12-19 12:12:07.285727,-884.0
2023-12-19 12:12:07.293416,-629.0
2023-12-19 12:12:07.301105,-19.0
2023-12-19 12:12:07.308794,259.0
2023-12-19 12:12:07.316483,107.0
2023-12-19 12:12:07.324172,35.0
2023-12-19 12:12:07.331860,100.0
2023-12-19 12:12:07.339549,71.0
2023-12-19 12:12:07.347238,35.0
2023-12-19 12:12:07.354927,57.0
2023-12-19 12:12:07.362616,47.0
2023-12-19 12:12:07.370305,19.0
2023-12-19 12:12:07.377994,16.0
2023-12-19 12:12:07.385683,19.0
2023-12-19 12:12:07.393371,9.0
2023-12-19 12:12:07.401060,4.0
2023-12-19 12:12:07.408749,2.0
2023-12-19 12:12:07.416438,4.0
2023-12-19 12:12:07.424127,2.0
2023-12-19 12:12:07.431816,-11.0
2023-12-19 12:12:07.439505,-26.0
2023-12-19 12:12:07.447194,-35.0
2023-12-19 12:12:07.454882,-50.0
2023-12-19 12:12:07.462571,-66.0
2023-12-19 12:12:07.470260,-81.0
2023-12-19 12:12:07.477949,-102.0
2023-12-19 12:12:07.485638,-119.0
2023-12-19 12:12:07.493327,-123.0
2023-12-19 12:12:07.501016,-119.0
2023-12-19 12:12:07.508704,-114.0
2023-12-19 12:12:07.516393,-112.0
2023-12-19 12:12:07.524082,-97.0
2023-12-19 12:12:07.531771,-81.0
2023-12-19 12:12:07.539460,-61.0
2023-12-19 12:12:07.547149,-33.0
2023-12-19 12:12:07.554838,-14.0
2023-12-19 12:12:07.562527,-7.0
2023-12-19 12:12:07.570215,7.0
2023-12-19 12:12:07.577904,21.0
2023-12-19 12:12:07.585593,26.0
2023-12-19 12:12:07.593282,30.0
2023-12-19 12:12:07.600971,33.0
2023-12-19 12:12:07.608660,30.0
2023-12-19 12:12:07.616349,28.0
2023-12-19 12:12:07.624038,23.0
2023-12-19 12:12:07.631726,19.0
2023-12-19 12:12:07.639415,23.0
2023-12-19 12:12:07.647104,19.0
2023-12-19 12:12:07.654793,11.0
2023-12-19 12:12:07.662482,11.0
2023-12-19 12:12:07.670171,4.0
2023-12-19 12:12:07.677860,-4.0
2023-12-19 12:12:07.685548,2.0
2023-12-19 12:12:07.693237,9.0
2023-12-19 12:12:07.700926,-2.0
2023-12-19 12:12:07.708615,-23.0
2023-12-19 12:12:07.716304,-16.0
2023-12-19 12:12:07.723993,4.0
2023-12-19 12:12:07.731682,-4.0
2023-12-19 12:12:07.739371,-19.0
2023-12-19 12:12:07.747059,-19.0
2023-12-19 12:12:07.754748,-23.0
2023-12-19 12:12:07.762437,-30.0
2023-12-19 12:12:07.770126,-26.0
2023-12-19 12:12:07.777815,-30.0
2023-12-19 12:12:07.785504,-33.0
2023-12-19 12:12:07.793193,-35.0
2023-12-19 12:12:07.800882,-59.0
2023-12-19 12:12:07.808570,-66.0
2023-12-19 12:12:07.816259,-50.0
2023-12-19 12:12:07.823948,-45.0
2023-12-19 12:12:07.831637,-50.0
2023-12-19 12:12:07.839326,-50.0
2023-12-19 12:12:07.847015,-57.0
2023-12-19 12:12:07.854704,-59.0
2023-12-19 12:12:07.862392,-40.0
2023-12-19 12:12:07.870081,-45.0
2023-12-19 12:12:07.877770,-66.0
2023-12-19 12:12:07.885459,-61.0
2023-12-19 12:12:07.893148,-57.0
2023-12-19 12:12:07.900837,-66.0
2023-12-19 12:12:07.908526,-57.0
2023-12-19 12:12:07.916215,-47.0
2023-12-19 12:12:07.923903,-61.0
2023-12-19 12:12:07.931592,-83.0
2023-12-19 12:12:07.939281,-100.0
2023-12-19 12:12:07.946970,-85.0
2023-12-19 12:12:07.954659,-57.0
2023-12-19 12:12:07.962348,-45.0
2023-12-19 12:12:07.970037,-50.0
2023-12-19 12:12:07.977726,-54.0
2023-12-19 12:12:07.985414,-47.0
2023-12-19 12:12:07.993103,-38.0
2023-12-19 12:12:08.000792,-38.0
2023-12-19 12:12:08.008481,-40.0
2023-12-19 12:12:08.016170,-40.0
2023-12-19 12:12:08.023859,-23.0
2023-12-19 12:12:08.031548,-57.0
2023-12-19 12:12:08.039236,-257.0
2023-12-19 12:12:08.046925,-617.0
2023-12-19 12:12:08.054614,-851.0
2023-12-19 12:12:08.062303,-588.0
2023-12-19 12:12:08.069992,-7.0
2023-12-19 12:12:08.077681,221.0
2023-12-19 12:12:08.085370,64.0
2023-12-19 12:12:08.093059,23.0
2023-12-19 12:12:08.100747,92.0
2023-12-19 12:12:08.108436,71.0
2023-12-19 12:12:08.116125,40.0
2023-12-19 12:12:08.123814,50.0
2023-12-19 12:12:08.131503,57.0
2023-12-19 12:12:08.139192,54.0
2023-12-19 12:12:08.146881,45.0
2023-12-19 12:12:08.154570,30.0
2023-12-19 12:12:08.162258,23.0
2023-12-19 12:12:08.169947,30.0
2023-12-19 12:12:08.177636,33.0
2023-12-19 12:12:08.185325,19.0
2023-12-19 12:12:08.193014,9.0
2023-12-19 12:12:08.200703,7.0
2023-12-19 12:12:08.208392,-7.0
2023-12-19 12:12:08.216080,-30.0
2023-12-19 12:12:08.223769,-38.0
2023-12-19 12:12:08.231458,-40.0
2023-12-19 12:12:08.239147,-64.0
2023-12-19 12:12:08.246836,-97.0
2023-12-19 12:12:08.254525,-114.0
2023-12-19 12:12:08.262214,-114.0
2023-12-19 12:12:08.269903,-112.0
2023-12-19 12:12:08.277591,-104.0
2023-12-19 12:12:08.285280,-102.0
2023-12-19 12:12:08.292969,-92.0
2023-12-19 12:12:08.300658,-73.0
2023-12-19 12:12:08.308347,-52.0
2023-12-19 12:12:08.316036,-35.0
2023-12-19 12:12:08.323725,-16.0
2023-12-19 12:12:08.331414,-7.0
2023-12-19 12:12:08.339102,-19.0
2023-12-19 12:12:08.346791,-19.0
2023-12-19 12:12:08.354480,-4.0
2023-12-19 12:12:08.362169,2.0
2023-12-19 12:12:08.369858,4.0
2023-12-19 12:12:08.377547,11.0
2023-12-19 12:12:08.385236,2.0
2023-12-19 12:12:08.392924,-23.0
2023-12-19 12:12:08.400613,-30.0
2023-12-19 12:12:08.408302,-19.0
2023-12-19 12:12:08.415991,-14.0
2023-12-19 12:12:08.423680,-23.0
2023-12-19 12:12:08.431369,-30.0
2023-12-19 12:12:08.439058,-28.0
2023-12-19 12:12:08.446747,-23.0
2023-12-19 12:12:08.454435,-26.0
2023-12-19 12:12:08.462124,-28.0
2023-12-19 12:12:08.469813,-35.0
2023-12-19 12:12:08.477502,-42.0
2023-12-19 12:12:08.485191,-35.0
2023-12-19 12:12:08.492880,-33.0
2023-12-19 12:12:08.500569,-45.0
2023-12-19 12:12:08.508258,-47.0
2023-12-19 12:12:08.515946,-52.0
2023-12-19 12:12:08.523635,-54.0
2023-12-19 12:12:08.531324,-47.0
2023-12-19 12:12:08.539013,-54.0
2023-12-19 12:12:08.546702,-64.0
2023-12-19 12:12:08.554391,-57.0
2023-12-19 12:12:08.562080,-50.0
2023-12-19 12:12:08.569768,-64.0
2023-12-19 12:12:08.577457,-66.0
2023-12-19 12:12:08.585146,-52.0
2023-12-19 12:12:08.592835,-50.0
2023-12-19 12:12:08.600524,-59.0
2023-12-19 12:12:08.608213,-52.0
2023-12-19 12:12:08.615902,-40.0
2023-12-19 12:12:08.623591,-45.0
2023-12-19 12:12:08.631279,-47.0
2023-12-19 12:12:08.638968,-33.0
2023-12-19 12:12:08.646657,-33.0
2023-12-19 12:12:08.654346,-52.0
2023-12-19 12:12:08.662035,-69.0
2023-12-19 12:12:08.669724,-76.0
2023-12-19 12:12:08.677413,-71.0
2023-12-19 12:12:08.685102,-61.0
2023-12-19 12:12:08.692790,-50.0
2023-12-19 12:12:08.700479,-35.0
2023-12-19 12:12:08.708168,-21.0
2023-12-19 12:12:08.715857,-23.0
2023-12-19 12:12:08.723546,-33.0
2023-12-19 12:12:08.731235,-26.0
2023-12-19 12:12:08.738924,-19.0
2023-12-19 12:12:08.746612,-23.0
2023-12-19 12:12:08.754301,-14.0
2023-12-19 12:12:08.761990,-21.0
2023-12-19 12:12:08.769679,-176.0
2023-12-19 12:12:08.777368,-510.0
2023-12-19 12:12:08.785057,-782.0
2023-12-19 12:12:08.792746,-608.0
2023-12-19 12:12:08.800435,-52.0
2023-12-19 12:12:08.808123,250.0
2023-12-19 12:12:08.815812,119.0
2023-12-19 12:12:08.823501,30.0
2023-12-19 12:12:08.831190,85.0
2023-12-19 12:12:08.838879,66.0
2023-12-19 12:12:08.846568,30.0
2023-12-19 12:12:08.854257,52.0
2023-12-19 12:12:08.861946,57.0
2023-12-19 12:12:08.869634,42.0
2023-12-19 12:12:08.877323,38.0
2023-12-19 12:12:08.885012,21.0
2023-12-19 12:12:08.892701,4.0
2023-12-19 12:12:08.900390,0.0
2023-12-19 12:12:08.908079,-4.0
2023-12-19 12:12:08.915768,-14.0
2023-12-19 12:12:08.923456,-42.0
2023-12-19 12:12:08.931145,-64.0
2023-12-19 12:12:08.938834,-61.0
2023-12-19 12:12:08.946523,-69.0
2023-12-19 12:12:08.954212,-95.0
2023-12-19 12:12:08.961901,-109.0
2023-12-19 12:12:08.969590,-114.0
2023-12-19 12:12:08.977279,-126.0
2023-12-19 12:12:08.984967,-147.0
2023-12-19 12:12:08.992656,-169.0
2023-12-19 12:12:09.000345,-171.0
2023-12-19 12:12:09.008034,-157.0
2023-12-19 12:12:09.015723,-140.0
2023-12-19 12:12:09.023412,-131.0
2023-12-19 12:12:09.031101,-112.0
2023-12-19 12:12:09.038790,-90.0
2023-12-19 12:12:09.046478,-81.0
2023-12-19 12:12:09.054167,-71.0
2023-12-19 12:12:09.061856,-40.0
2023-12-19 12:12:09.069545,-16.0
2023-12-19 12:12:09.077234,-16.0
2023-12-19 12:12:09.084923,-11.0
2023-12-19 12:12:09.092612,-4.0
2023-12-19 12:12:09.100300,-9.0
2023-12-19 12:12:09.107989,-14.0
2023-12-19 12:12:09.115678,0.0
2023-12-19 12:12:09.123367,4.0
2023-12-19 12:12:09.131056,0.0
2023-12-19 12:12:09.138745,0.0
2023-12-19 12:12:09.146434,-4.0
2023-12-19 12:12:09.154123,-16.0
2023-12-19 12:12:09.161811,-26.0
2023-12-19 12:12:09.169500,-26.0
2023-12-19 12:12:09.177189,-23.0
2023-12-19 12:12:09.184878,-33.0
2023-12-19 12:12:09.192567,-38.0
2023-12-19 12:12:09.200256,-33.0
2023-12-19 12:12:09.207945,-35.0
2023-12-19 12:12:09.215634,-40.0
2023-12-19 12:12:09.223322,-42.0
2023-12-19 12:12:09.231011,-40.0
2023-12-19 12:12:09.238700,-38.0
2023-12-19 12:12:09.246389,-40.0
2023-12-19 12:12:09.254078,-35.0
2023-12-19 12:12:09.261767,-23.0
2023-12-19 12:12:09.269456,-26.0
2023-12-19 12:12:09.277144,-30.0
2023-12-19 12:12:09.284833,-33.0
2023-12-19 12:12:09.292522,-35.0
2023-12-19 12:12:09.300211,-33.0
2023-12-19 12:12:09.307900,-30.0
2023-12-19 12:12:09.315589,-45.0
2023-12-19 12:12:09.323278,-52.0
2023-12-19 12:12:09.330967,-40.0
2023-12-19 12:12:09.338655,-35.0
2023-12-19 12:12:09.346344,-40.0
2023-12-19 12:12:09.354033,-45.0
2023-12-19 12:12:09.361722,-64.0
2023-12-19 12:12:09.369411,-88.0
2023-12-19 12:12:09.377100,-90.0
2023-12-19 12:12:09.384789,-78.0
2023-12-19 12:12:09.392478,-81.0
2023-12-19 12:12:09.400166,-73.0
2023-12-19 12:12:09.407855,-61.0
2023-12-19 12:12:09.415544,-71.0
2023-12-19 12:12:09.423233,-81.0
2023-12-19 12:12:09.430922,-69.0
2023-12-19 12:12:09.438611,-54.0
2023-12-19 12:12:09.446300,-45.0
2023-12-19 12:12:09.453988,-35.0
2023-12-19 12:12:09.461677,-66.0
2023-12-19 12:12:09.469366,-226.0
2023-12-19 12:12:09.477055,-546.0
2023-12-19 12:12:09.484744,-841.0
2023-12-19 12:12:09.492433,-715.0
2023-12-19 12:12:09.500122,-162.0
2023-12-19 12:12:09.507811,164.0
2023-12-19 12:12:09.515499,47.0
2023-12-19 12:12:09.523188,-42.0
2023-12-19 12:12:09.530877,21.0
2023-12-19 12:12:09.538566,26.0
2023-12-19 12:12:09.546255,-2.0
2023-12-19 12:12:09.553944,4.0
2023-12-19 12:12:09.561633,2.0
2023-12-19 12:12:09.569322,-7.0
2023-12-19 12:12:09.577010,-2.0
2023-12-19 12:12:09.584699,-2.0
2023-12-19 12:12:09.592388,-16.0
2023-12-19 12:12:09.600077,-26.0
2023-12-19 12:12:09.607766,-19.0
2023-12-19 12:12:09.615455,-11.0
2023-12-19 12:12:09.623144,-26.0
2023-12-19 12:12:09.630832,-38.0
2023-12-19 12:12:09.638521,-45.0
2023-12-19 12:12:09.646210,-54.0
2023-12-19 12:12:09.653899,-64.0
2023-12-19 12:12:09.661588,-76.0
2023-12-19 12:12:09.669277,-92.0
2023-12-19 12:12:09.676966,-109.0
2023-12-19 12:12:09.684655,-123.0
2023-12-19 12:12:09.692343,-135.0
2023-12-19 12:12:09.700032,-135.0
2023-12-19 12:12:09.707721,-123.0
2023-12-19 12:12:09.715410,-112.0
2023-12-19 12:12:09.723099,-102.0
2023-12-19 12:12:09.730788,-102.0
2023-12-19 12:12:09.738477,-90.0
2023-12-19 12:12:09.746166,-61.0
2023-12-19 12:12:09.753854,-40.0
2023-12-19 12:12:09.761543,-26.0
2023-12-19 12:12:09.769232,-16.0
2023-12-19 12:12:09.776921,-14.0
2023-12-19 12:12:09.784610,-7.0
2023-12-19 12:12:09.792299,2.0
2023-12-19 12:12:09.799988,7.0
2023-12-19 12:12:09.807676,19.0
2023-12-19 12:12:09.815365,23.0
2023-12-19 12:12:09.823054,14.0
2023-12-19 12:12:09.830743,7.0
2023-12-19 12:12:09.838432,4.0
2023-12-19 12:12:09.846121,2.0
2023-12-19 12:12:09.853810,4.0
2023-12-19 12:12:09.861499,7.0
2023-12-19 12:12:09.869187,0.0
2023-12-19 12:12:09.876876,-9.0
2023-12-19 12:12:09.884565,-9.0
2023-12-19 12:12:09.892254,-14.0
2023-12-19 12:12:09.899943,-40.0
2023-12-19 12:12:09.907632,-50.0
2023-12-19 12:12:09.915321,-35.0
2023-12-19 12:12:09.923010,-35.0
2023-12-19 12:12:09.930698,-35.0
2023-12-19 12:12:09.938387,-23.0
2023-12-19 12:12:09.946076,-21.0
2023-12-19 12:12:09.953765,-28.0
2023-12-19 12:12:09.961454,-33.0
2023-12-19 12:12:09.969143,-38.0
2023-12-19 12:12:09.976832,-42.0
2023-12-19 12:12:09.984520,-42.0
2023-12-19 12:12:09.992209,-45.0
2023-12-19 12:12:09.999898,-35.0
2023-12-19 12:12:10.007587,-35.0
2023-12-19 12:12:10.015276,-42.0
2023-12-19 12:12:10.022965,-33.0
2023-12-19 12:12:10.030654,-19.0
2023-12-19 12:12:10.038343,-40.0
2023-12-19 12:12:10.046031,-88.0
2023-12-19 12:12:10.053720,-114.0
2023-12-19 12:12:10.061409,-97.0
2023-12-19 12:12:10.069098,-76.0
2023-12-19 12:12:10.076787,-66.0
2023-12-19 12:12:10.084476,-54.0
2023-12-19 12:12:10.092165,-57.0
2023-12-19 12:12:10.099854,-69.0
2023-12-19 12:12:10.107542,-71.0
2023-12-19 12:12:10.115231,-66.0
2023-12-19 12:12:10.122920,-61.0
2023-12-19 12:12:10.130609,-61.0
2023-12-19 12:12:10.138298,-57.0
2023-12-19 12:12:10.145987,-81.0
2023-12-19 12:12:10.153676,-243.0
2023-12-19 12:12:10.161364,-560.0
2023-12-19 12:12:10.169053,-779.0
2023-12-19 12:12:10.176742,-541.0
2023-12-19 12:12:10.184431,-21.0
2023-12-19 12:12:10.192120,164.0
2023-12-19 12:12:10.199809,4.0
2023-12-19 12:12:10.207498,-30.0
2023-12-19 12:12:10.215187,38.0
2023-12-19 12:12:10.222875,11.0
2023-12-19 12:12:10.230564,-23.0
2023-12-19 12:12:10.238253,-2.0
2023-12-19 12:12:10.245942,-2.0
2023-12-19 12:12:10.253631,-16.0
2023-12-19 12:12:10.261320,0.0
2023-12-19 12:12:10.269009,2.0
2023-12-19 12:12:10.276698,-26.0
2023-12-19 12:12:10.284386,-30.0
2023-12-19 12:12:10.292075,-19.0
2023-12-19 12:12:10.299764,-38.0
2023-12-19 12:12:10.307453,-54.0
2023-12-19 12:12:10.315142,-35.0
2023-12-19 12:12:10.322831,-38.0
2023-12-19 12:12:10.330520,-64.0
2023-12-19 12:12:10.338208,-78.0
2023-12-19 12:12:10.345897,-85.0
2023-12-19 12:12:10.353586,-97.0
2023-12-19 12:12:10.361275,-107.0
2023-12-19 12:12:10.368964,-123.0
2023-12-19 12:12:10.376653,-133.0
2023-12-19 12:12:10.384342,-121.0
2023-12-19 12:12:10.392031,-109.0
2023-12-19 12:12:10.399719,-112.0
2023-12-19 12:12:10.407408,-114.0
2023-12-19 12:12:10.415097,-104.0
2023-12-19 12:12:10.422786,-81.0
2023-12-19 12:12:10.430475,-59.0
2023-12-19 12:12:10.438164,-45.0
2023-12-19 12:12:10.445853,-33.0
2023-12-19 12:12:10.453542,-21.0
2023-12-19 12:12:10.461230,-16.0
2023-12-19 12:12:10.468919,-11.0
2023-12-19 12:12:10.476608,-11.0
2023-12-19 12:12:10.484297,-11.0
2023-12-19 12:12:10.491986,-4.0
2023-12-19 12:12:10.499675,2.0
2023-12-19 12:12:10.507364,4.0
2023-12-19 12:12:10.515052,-7.0
2023-12-19 12:12:10.522741,-11.0
2023-12-19 12:12:10.530430,-2.0
2023-12-19 12:12:10.538119,0.0
2023-12-19 12:12:10.545808,-7.0
2023-12-19 12:12:10.553497,-16.0
2023-12-19 12:12:10.561186,-16.0
2023-12-19 12:12:10.568875,-9.0
2023-12-19 12:12:10.576563,-9.0
2023-12-19 12:12:10.584252,-19.0
2023-12-19 12:12:10.591941,-19.0
2023-12-19 12:12:10.599630,-9.0
2023-12-19 12:12:10.607319,-7.0
2023-12-19 12:12:10.615008,-11.0
2023-12-19 12:12:10.622697,-11.0
2023-12-19 12:12:10.630386,-21.0
2023-12-19 12:12:10.638074,-33.0
2023-12-19 12:12:10.645763,-28.0
2023-12-19 12:12:10.653452,-19.0
2023-12-19 12:12:10.661141,-26.0
2023-12-19 12:12:10.668830,-35.0
2023-12-19 12:12:10.676519,-42.0
2023-12-19 12:12:10.684208,-52.0
2023-12-19 12:12:10.691896,-45.0
2023-12-19 12:12:10.699585,-38.0
2023-12-19 12:12:10.707274,-42.0
2023-12-19 12:12:10.714963,-47.0
2023-12-19 12:12:10.722652,-47.0
2023-12-19 12:12:10.730341,-47.0
2023-12-19 12:12:10.738030,-38.0
2023-12-19 12:12:10.745719,-30.0
2023-12-19 12:12:10.753407,-54.0
2023-12-19 12:12:10.761096,-90.0
2023-12-19 12:12:10.768785,-92.0
2023-12-19 12:12:10.776474,-71.0
2023-12-19 12:12:10.784163,-64.0
2023-12-19 12:12:10.791852,-59.0
2023-12-19 12:12:10.799541,-38.0
2023-12-19 12:12:10.807230,-30.0
2023-12-19 12:12:10.814918,-42.0
2023-12-19 12:12:10.822607,-42.0
2023-12-19 12:12:10.830296,-33.0
2023-12-19 12:12:10.837985,-30.0
2023-12-19 12:12:10.845674,-26.0
2023-12-19 12:12:10.853363,-2.0
2023-12-19 12:12:10.861052,-21.0
2023-12-19 12:12:10.868740,-174.0
2023-12-19 12:12:10.876429,-469.0
2023-12-19 12:12:10.884118,-724.0
2023-12-19 12:12:10.891807,-569.0
2023-12-19 12:12:10.899496,-57.0
2023-12-19 12:12:10.907185,188.0
2023-12-19 12:12:10.914874,40.0
2023-12-19 12:12:10.922563,-28.0
2023-12-19 12:12:10.930251,35.0
2023-12-19 12:12:10.937940,14.0
2023-12-19 12:12:10.945629,-11.0
2023-12-19 12:12:10.953318,4.0
2023-12-19 12:12:10.961007,-4.0
2023-12-19 12:12:10.968696,-28.0
2023-12-19 12:12:10.976385,-23.0
2023-12-19 12:12:10.984074,-19.0
2023-12-19 12:12:10.991762,-30.0
2023-12-19 12:12:10.999451,-35.0
2023-12-19 12:12:11.007140,-30.0
2023-12-19 12:12:11.014829,-38.0
2023-12-19 12:12:11.022518,-45.0
2023-12-19 12:12:11.030207,-52.0
2023-12-19 12:12:11.037896,-64.0
2023-12-19 12:12:11.045584,-71.0
2023-12-19 12:12:11.053273,-78.0
2023-12-19 12:12:11.060962,-95.0
2023-12-19 12:12:11.068651,-112.0
2023-12-19 12:12:11.076340,-123.0
2023-12-19 12:12:11.084029,-133.0
2023-12-19 12:12:11.091718,-140.0
2023-12-19 12:12:11.099407,-140.0
2023-12-19 12:12:11.107095,-126.0
2023-12-19 12:12:11.114784,-114.0
2023-12-19 12:12:11.122473,-123.0
2023-12-19 12:12:11.130162,-138.0
2023-12-19 12:12:11.137851,-119.0
2023-12-19 12:12:11.145540,-83.0
2023-12-19 12:12:11.153229,-69.0
2023-12-19 12:12:11.160918,-59.0
2023-12-19 12:12:11.168606,-47.0
2023-12-19 12:12:11.176295,-38.0
2023-12-19 12:12:11.183984,-28.0
2023-12-19 12:12:11.191673,-16.0
2023-12-19 12:12:11.199362,-11.0
2023-12-19 12:12:11.207051,-14.0
2023-12-19 12:12:11.214740,-26.0
2023-12-19 12:12:11.222428,-26.0
2023-12-19 12:12:11.230117,-16.0
2023-12-19 12:12:11.237806,-16.0
2023-12-19 12:12:11.245495,-26.0
2023-12-19 12:12:11.253184,-26.0
2023-12-19 12:12:11.260873,-23.0
2023-12-19 12:12:11.268562,-28.0
2023-12-19 12:12:11.276251,-26.0
2023-12-19 12:12:11.283939,-23.0
2023-12-19 12:12:11.291628,-23.0
2023-12-19 12:12:11.299317,-26.0
2023-12-19 12:12:11.307006,-30.0
2023-12-19 12:12:11.314695,-30.0
2023-12-19 12:12:11.322384,-23.0
2023-12-19 12:12:11.330073,-16.0
2023-12-19 12:12:11.337762,-9.0
2023-12-19 12:12:11.345450,-7.0
2023-12-19 12:12:11.353139,-19.0
2023-12-19 12:12:11.360828,-14.0
2023-12-19 12:12:11.368517,0.0
2023-12-19 12:12:11.376206,0.0
2023-12-19 12:12:11.383895,0.0
2023-12-19 12:12:11.391584,2.0
2023-12-19 12:12:11.399272,-4.0
2023-12-19 12:12:11.406961,-11.0
2023-12-19 12:12:11.414650,-16.0
2023-12-19 12:12:11.422339,-19.0
2023-12-19 12:12:11.430028,-16.0
2023-12-19 12:12:11.437717,-16.0
2023-12-19 12:12:11.445406,-26.0
2023-12-19 12:12:11.453095,-33.0
2023-12-19 12:12:11.460783,-28.0
2023-12-19 12:12:11.468472,-14.0
2023-12-19 12:12:11.476161,-9.0
2023-12-19 12:12:11.483850,-23.0
2023-12-19 12:12:11.491539,-45.0
2023-12-19 12:12:11.499228,-64.0
2023-12-19 12:12:11.506917,-69.0
2023-12-19 12:12:11.514606,-57.0
2023-12-19 12:12:11.522294,-40.0
2023-12-19 12:12:11.529983,-38.0
2023-12-19 12:12:11.537672,-45.0
2023-12-19 12:12:11.545361,-35.0
2023-12-19 12:12:11.553050,-23.0
2023-12-19 12:12:11.560739,-26.0
2023-12-19 12:12:11.568428,-28.0
2023-12-19 12:12:11.576116,-23.0
2023-12-19 12:12:11.583805,-16.0
2023-12-19 12:12:11.591494,-9.0
2023-12-19 12:12:11.599183,-66.0
2023-12-19 12:12:11.606872,-314.0
2023-12-19 12:12:11.614561,-693.0
2023-12-19 12:12:11.622250,-813.0
2023-12-19 12:12:11.629939,-376.0
2023-12-19 12:12:11.637627,159.0
2023-12-19 12:12:11.645316,233.0
2023-12-19 12:12:11.653005,57.0
2023-12-19 12:12:11.660694,26.0
2023-12-19 12:12:11.668383,50.0
2023-12-19 12:12:11.676072,16.0
2023-12-19 12:12:11.683761,9.0
2023-12-19 12:12:11.691450,19.0
2023-12-19 12:12:11.699138,0.0
2023-12-19 12:12:11.706827,-23.0
2023-12-19 12:12:11.714516,-47.0
2023-12-19 12:12:11.722205,-54.0
2023-12-19 12:12:11.729894,-47.0
2023-12-19 12:12:11.737583,-50.0
2023-12-19 12:12:11.745272,-61.0
2023-12-19 12:12:11.752960,-61.0
2023-12-19 12:12:11.760649,-69.0
2023-12-19 12:12:11.768338,-81.0
2023-12-19 12:12:11.776027,-90.0
2023-12-19 12:12:11.783716,-100.0
2023-12-19 12:12:11.791405,-107.0
2023-12-19 12:12:11.799094,-119.0
2023-12-19 12:12:11.806783,-140.0
2023-12-19 12:12:11.814471,-157.0
2023-12-19 12:12:11.822160,-154.0
2023-12-19 12:12:11.829849,-150.0
2023-12-19 12:12:11.837538,-150.0
2023-12-19 12:12:11.845227,-140.0
2023-12-19 12:12:11.852916,-119.0
2023-12-19 12:12:11.860605,-109.0
2023-12-19 12:12:11.868294,-102.0
2023-12-19 12:12:11.875982,-81.0
2023-12-19 12:12:11.883671,-50.0
2023-12-19 12:12:11.891360,-33.0
2023-12-19 12:12:11.899049,-33.0
2023-12-19 12:12:11.906738,-23.0
2023-12-19 12:12:11.914427,-19.0
2023-12-19 12:12:11.922116,-28.0
2023-12-19 12:12:11.929804,-23.0
2023-12-19 12:12:11.937493,-11.0
2023-12-19 12:12:11.945182,-16.0
2023-12-19 12:12:11.952871,-26.0
2023-12-19 12:12:11.960560,-19.0
2023-12-19 12:12:11.968249,-11.0
2023-12-19 12:12:11.975938,-19.0
2023-12-19 12:12:11.983627,-26.0
2023-12-19 12:12:11.991315,-30.0
2023-12-19 12:12:11.999004,-33.0
2023-12-19 12:12:12.006693,-33.0
2023-12-19 12:12:12.014382,-33.0
2023-12-19 12:12:12.022071,-26.0
2023-12-19 12:12:12.029760,-26.0
2023-12-19 12:12:12.037449,-35.0
2023-12-19 12:12:12.045138,-38.0
2023-12-19 12:12:12.052826,-26.0
2023-12-19 12:12:12.060515,-16.0
2023-12-19 12:12:12.068204,-16.0
2023-12-19 12:12:12.075893,-19.0
2023-12-19 12:12:12.083582,-16.0
2023-12-19 12:12:12.091271,-16.0
2023-12-19 12:12:12.098960,-7.0
2023-12-19 12:12:12.106648,4.0
2023-12-19 12:12:12.114337,-2.0
2023-12-19 12:12:12.122026,-4.0
2023-12-19 12:12:12.129715,4.0
2023-12-19 12:12:12.137404,0.0
2023-12-19 12:12:12.145093,0.0
2023-12-19 12:12:12.152782,2.0
2023-12-19 12:12:12.160471,-2.0
2023-12-19 12:12:12.168159,2.0
2023-12-19 12:12:12.175848,7.0
2023-12-19 12:12:12.183537,-2.0
2023-12-19 12:12:12.191226,-2.0
2023-12-19 12:12:12.198915,0.0
2023-12-19 12:12:12.206604,-7.0
2023-12-19 12:12:12.214293,-4.0
2023-12-19 12:12:12.221982,0.0
2023-12-19 12:12:12.229670,-21.0
2023-12-19 12:12:12.237359,-42.0
2023-12-19 12:12:12.245048,-35.0
2023-12-19 12:12:12.252737,-23.0
2023-12-19 12:12:12.260426,-26.0
2023-12-19 12:12:12.268115,-16.0
2023-12-19 12:12:12.275804,-2.0
2023-12-19 12:12:12.283492,-7.0
2023-12-19 12:12:12.291181,-21.0
2023-12-19 12:12:12.298870,-35.0
2023-12-19 12:12:12.306559,-45.0
2023-12-19 12:12:12.314248,-38.0
2023-12-19 12:12:12.321937,-21.0
2023-12-19 12:12:12.329626,-11.0
2023-12-19 12:12:12.337315,-85.0
2023-12-19 12:12:12.345003,-352.0
2023-12-19 12:12:12.352692,-736.0
2023-12-19 12:12:12.360381,-851.0
2023-12-19 12:12:12.368070,-417.0
2023-12-19 12:12:12.375759,116.0
2023-12-19 12:12:12.383448,178.0
2023-12-19 12:12:12.391137,19.0
2023-12-19 12:12:12.398826,47.0
2023-12-19 12:12:12.406514,90.0
2023-12-19 12:12:12.414203,38.0
2023-12-19 12:12:12.421892,19.0
2023-12-19 12:12:12.429581,16.0
2023-12-19 12:12:12.437270,-14.0
2023-12-19 12:12:12.444959,-23.0
2023-12-19 12:12:12.452648,-16.0
