time,ECG
2023-12-20 14:28:44.855645,-126.0
2023-12-20 14:28:44.863334,-119.0
2023-12-20 14:28:44.871023,-116.0
2023-12-20 14:28:44.878712,-119.0
2023-12-20 14:28:44.886401,-119.0
2023-12-20 14:28:44.894090,-109.0
2023-12-20 14:28:44.901779,-97.0
2023-12-20 14:28:44.909468,-95.0
2023-12-20 14:28:44.917157,-88.0
2023-12-20 14:28:44.924846,-78.0
2023-12-20 14:28:44.932535,-61.0
2023-12-20 14:28:44.940224,-40.0
2023-12-20 14:28:44.947913,-23.0
2023-12-20 14:28:44.955602,-14.0
2023-12-20 14:28:44.963291,-14.0
2023-12-20 14:28:44.970980,-16.0
2023-12-20 14:28:44.978669,-16.0
2023-12-20 14:28:44.986358,-11.0
2023-12-20 14:28:44.994047,-7.0
2023-12-20 14:28:45.001736,-2.0
2023-12-20 14:28:45.009425,-7.0
2023-12-20 14:28:45.017114,-14.0
2023-12-20 14:28:45.024803,-14.0
2023-12-20 14:28:45.032492,-11.0
2023-12-20 14:28:45.040181,-14.0
2023-12-20 14:28:45.047870,-14.0
2023-12-20 14:28:45.055559,-14.0
2023-12-20 14:28:45.063248,-9.0
2023-12-20 14:28:45.070937,-7.0
2023-12-20 14:28:45.078626,-9.0
2023-12-20 14:28:45.086315,-9.0
2023-12-20 14:28:45.094004,-2.0
2023-12-20 14:28:45.101693,-4.0
2023-12-20 14:28:45.109382,-9.0
2023-12-20 14:28:45.117071,-4.0
2023-12-20 14:28:45.124759,-2.0
2023-12-20 14:28:45.132448,-7.0
2023-12-20 14:28:45.140137,-14.0
2023-12-20 14:28:45.147826,-19.0
2023-12-20 14:28:45.155515,-23.0
2023-12-20 14:28:45.163204,-33.0
2023-12-20 14:28:45.170893,-45.0
2023-12-20 14:28:45.178582,-45.0
2023-12-20 14:28:45.186271,-33.0
2023-12-20 14:28:45.193960,-21.0
2023-12-20 14:28:45.201649,-9.0
2023-12-20 14:28:45.209338,-7.0
2023-12-20 14:28:45.217027,-9.0
2023-12-20 14:28:45.224716,-21.0
2023-12-20 14:28:45.232405,-33.0
2023-12-20 14:28:45.240094,-35.0
2023-12-20 14:28:45.247783,-35.0
2023-12-20 14:28:45.255472,-42.0
2023-12-20 14:28:45.263161,-126.0
2023-12-20 14:28:45.270850,-340.0
2023-12-20 14:28:45.278539,-510.0
2023-12-20 14:28:45.286228,-321.0
2023-12-20 14:28:45.293917,90.0
2023-12-20 14:28:45.301606,283.0
2023-12-20 14:28:45.309295,228.0
2023-12-20 14:28:45.316984,138.0
2023-12-20 14:28:45.324673,35.0
2023-12-20 14:28:45.332362,-59.0
2023-12-20 14:28:45.340051,-83.0
2023-12-20 14:28:45.347740,-71.0
2023-12-20 14:28:45.355429,-73.0
2023-12-20 14:28:45.363118,-81.0
2023-12-20 14:28:45.370807,-88.0
2023-12-20 14:28:45.378496,-90.0
2023-12-20 14:28:45.386185,-88.0
2023-12-20 14:28:45.393874,-90.0
2023-12-20 14:28:45.401563,-92.0
2023-12-20 14:28:45.409252,-100.0
2023-12-20 14:28:45.416941,-112.0
2023-12-20 14:28:45.424630,-119.0
2023-12-20 14:28:45.432319,-126.0
2023-12-20 14:28:45.440008,-128.0
2023-12-20 14:28:45.447697,-123.0
2023-12-20 14:28:45.455386,-119.0
2023-12-20 14:28:45.463075,-116.0
2023-12-20 14:28:45.470764,-107.0
2023-12-20 14:28:45.478453,-102.0
2023-12-20 14:28:45.486142,-95.0
2023-12-20 14:28:45.493831,-88.0
2023-12-20 14:28:45.501520,-88.0
2023-12-20 14:28:45.509209,-81.0
2023-12-20 14:28:45.516898,-64.0
2023-12-20 14:28:45.524587,-50.0
2023-12-20 14:28:45.532276,-40.0
2023-12-20 14:28:45.539965,-21.0
2023-12-20 14:28:45.547654,-11.0
2023-12-20 14:28:45.555343,-9.0
2023-12-20 14:28:45.563032,-4.0
2023-12-20 14:28:45.570721,0.0
2023-12-20 14:28:45.578410,-4.0
2023-12-20 14:28:45.586099,-4.0
2023-12-20 14:28:45.593788,-7.0
2023-12-20 14:28:45.601477,-7.0
2023-12-20 14:28:45.609166,-7.0
2023-12-20 14:28:45.616855,-11.0
2023-12-20 14:28:45.624543,-26.0
2023-12-20 14:28:45.632232,-28.0
2023-12-20 14:28:45.639921,-16.0
2023-12-20 14:28:45.647610,-14.0
2023-12-20 14:28:45.655299,-16.0
2023-12-20 14:28:45.662988,-14.0
2023-12-20 14:28:45.670677,-14.0
2023-12-20 14:28:45.678366,-11.0
2023-12-20 14:28:45.686055,-11.0
2023-12-20 14:28:45.693744,-11.0
2023-12-20 14:28:45.701433,-7.0
2023-12-20 14:28:45.709122,-2.0
2023-12-20 14:28:45.716811,-7.0
2023-12-20 14:28:45.724500,-19.0
2023-12-20 14:28:45.732189,-30.0
2023-12-20 14:28:45.739878,-28.0
2023-12-20 14:28:45.747567,-23.0
2023-12-20 14:28:45.755256,-35.0
2023-12-20 14:28:45.762945,-50.0
2023-12-20 14:28:45.770634,-52.0
2023-12-20 14:28:45.778323,-42.0
2023-12-20 14:28:45.786012,-26.0
2023-12-20 14:28:45.793701,-7.0
2023-12-20 14:28:45.801390,0.0
2023-12-20 14:28:45.809079,-2.0
2023-12-20 14:28:45.816768,-11.0
2023-12-20 14:28:45.824457,-16.0
2023-12-20 14:28:45.832146,-11.0
2023-12-20 14:28:45.839835,-7.0
2023-12-20 14:28:45.847524,-21.0
2023-12-20 14:28:45.855213,-97.0
2023-12-20 14:28:45.862902,-288.0
2023-12-20 14:28:45.870591,-450.0
2023-12-20 14:28:45.878280,-293.0
2023-12-20 14:28:45.885969,100.0
2023-12-20 14:28:45.893658,302.0
2023-12-20 14:28:45.901347,262.0
2023-12-20 14:28:45.909036,157.0
2023-12-20 14:28:45.916725,35.0
2023-12-20 14:28:45.924414,-61.0
2023-12-20 14:28:45.932103,-83.0
2023-12-20 14:28:45.939792,-73.0
2023-12-20 14:28:45.947481,-81.0
2023-12-20 14:28:45.955170,-88.0
2023-12-20 14:28:45.962859,-81.0
2023-12-20 14:28:45.970548,-78.0
2023-12-20 14:28:45.978237,-83.0
2023-12-20 14:28:45.985926,-85.0
2023-12-20 14:28:45.993615,-90.0
2023-12-20 14:28:46.001304,-102.0
2023-12-20 14:28:46.008993,-109.0
2023-12-20 14:28:46.016682,-109.0
2023-12-20 14:28:46.024371,-116.0
2023-12-20 14:28:46.032060,-128.0
2023-12-20 14:28:46.039749,-128.0
2023-12-20 14:28:46.047438,-123.0
2023-12-20 14:28:46.055127,-119.0
2023-12-20 14:28:46.062816,-112.0
2023-12-20 14:28:46.070505,-100.0
2023-12-20 14:28:46.078194,-92.0
2023-12-20 14:28:46.085883,-95.0
2023-12-20 14:28:46.093572,-90.0
2023-12-20 14:28:46.101261,-78.0
2023-12-20 14:28:46.108950,-71.0
2023-12-20 14:28:46.116639,-69.0
2023-12-20 14:28:46.124327,-57.0
2023-12-20 14:28:46.132016,-42.0
2023-12-20 14:28:46.139705,-35.0
2023-12-20 14:28:46.147394,-23.0
2023-12-20 14:28:46.155083,-11.0
2023-12-20 14:28:46.162772,-9.0
2023-12-20 14:28:46.170461,-16.0
2023-12-20 14:28:46.178150,-23.0
2023-12-20 14:28:46.185839,-23.0
2023-12-20 14:28:46.193528,-19.0
2023-12-20 14:28:46.201217,-23.0
2023-12-20 14:28:46.208906,-28.0
2023-12-20 14:28:46.216595,-23.0
2023-12-20 14:28:46.224284,-26.0
2023-12-20 14:28:46.231973,-38.0
2023-12-20 14:28:46.239662,-50.0
2023-12-20 14:28:46.247351,-54.0
2023-12-20 14:28:46.255040,-42.0
2023-12-20 14:28:46.262729,-40.0
2023-12-20 14:28:46.270418,-45.0
2023-12-20 14:28:46.278107,-38.0
2023-12-20 14:28:46.285796,-30.0
2023-12-20 14:28:46.293485,-30.0
2023-12-20 14:28:46.301174,-23.0
2023-12-20 14:28:46.308863,-26.0
2023-12-20 14:28:46.316552,-38.0
2023-12-20 14:28:46.324241,-40.0
2023-12-20 14:28:46.331930,-28.0
2023-12-20 14:28:46.339619,-28.0
2023-12-20 14:28:46.347308,-42.0
2023-12-20 14:28:46.354997,-64.0
2023-12-20 14:28:46.362686,-73.0
2023-12-20 14:28:46.370375,-59.0
2023-12-20 14:28:46.378064,-38.0
2023-12-20 14:28:46.385753,-23.0
2023-12-20 14:28:46.393442,-14.0
2023-12-20 14:28:46.401131,-14.0
2023-12-20 14:28:46.408820,-26.0
2023-12-20 14:28:46.416509,-28.0
2023-12-20 14:28:46.424198,-23.0
2023-12-20 14:28:46.431887,-23.0
2023-12-20 14:28:46.439576,-33.0
2023-12-20 14:28:46.447265,-112.0
2023-12-20 14:28:46.454954,-305.0
2023-12-20 14:28:46.462643,-460.0
2023-12-20 14:28:46.470332,-324.0
2023-12-20 14:28:46.478021,40.0
2023-12-20 14:28:46.485710,262.0
2023-12-20 14:28:46.493399,243.0
2023-12-20 14:28:46.501088,162.0
2023-12-20 14:28:46.508777,66.0
2023-12-20 14:28:46.516466,-40.0
2023-12-20 14:28:46.524155,-83.0
2023-12-20 14:28:46.531844,-66.0
2023-12-20 14:28:46.539533,-71.0
2023-12-20 14:28:46.547222,-90.0
2023-12-20 14:28:46.554911,-85.0
2023-12-20 14:28:46.562600,-83.0
2023-12-20 14:28:46.570289,-88.0
2023-12-20 14:28:46.577978,-83.0
2023-12-20 14:28:46.585667,-83.0
2023-12-20 14:28:46.593356,-100.0
2023-12-20 14:28:46.601045,-114.0
2023-12-20 14:28:46.608734,-123.0
2023-12-20 14:28:46.616423,-133.0
2023-12-20 14:28:46.624112,-135.0
2023-12-20 14:28:46.631800,-138.0
2023-12-20 14:28:46.639489,-140.0
2023-12-20 14:28:46.647178,-133.0
2023-12-20 14:28:46.654867,-119.0
2023-12-20 14:28:46.662556,-112.0
2023-12-20 14:28:46.670245,-114.0
2023-12-20 14:28:46.677934,-119.0
2023-12-20 14:28:46.685623,-107.0
2023-12-20 14:28:46.693312,-90.0
2023-12-20 14:28:46.701001,-88.0
2023-12-20 14:28:46.708690,-81.0
2023-12-20 14:28:46.716379,-59.0
2023-12-20 14:28:46.724068,-45.0
2023-12-20 14:28:46.731757,-45.0
2023-12-20 14:28:46.739446,-50.0
2023-12-20 14:28:46.747135,-52.0
2023-12-20 14:28:46.754824,-42.0
2023-12-20 14:28:46.762513,-40.0
2023-12-20 14:28:46.770202,-47.0
2023-12-20 14:28:46.777891,-47.0
2023-12-20 14:28:46.785580,-40.0
2023-12-20 14:28:46.793269,-35.0
2023-12-20 14:28:46.800958,-30.0
2023-12-20 14:28:46.808647,-33.0
2023-12-20 14:28:46.816336,-42.0
2023-12-20 14:28:46.824025,-42.0
2023-12-20 14:28:46.831714,-38.0
2023-12-20 14:28:46.839403,-35.0
2023-12-20 14:28:46.847092,-45.0
2023-12-20 14:28:46.854781,-47.0
2023-12-20 14:28:46.862470,-42.0
2023-12-20 14:28:46.870159,-40.0
2023-12-20 14:28:46.877848,-38.0
2023-12-20 14:28:46.885537,-33.0
2023-12-20 14:28:46.893226,-28.0
2023-12-20 14:28:46.900915,-30.0
2023-12-20 14:28:46.908604,-30.0
2023-12-20 14:28:46.916293,-30.0
2023-12-20 14:28:46.923982,-35.0
2023-12-20 14:28:46.931671,-45.0
2023-12-20 14:28:46.939360,-54.0
2023-12-20 14:28:46.947049,-66.0
2023-12-20 14:28:46.954738,-64.0
2023-12-20 14:28:46.962427,-47.0
2023-12-20 14:28:46.970116,-21.0
2023-12-20 14:28:46.977805,-11.0
2023-12-20 14:28:46.985494,-26.0
2023-12-20 14:28:46.993183,-52.0
2023-12-20 14:28:47.000872,-59.0
2023-12-20 14:28:47.008561,-52.0
2023-12-20 14:28:47.016250,-54.0
2023-12-20 14:28:47.023939,-61.0
2023-12-20 14:28:47.031628,-116.0
2023-12-20 14:28:47.039317,-290.0
2023-12-20 14:28:47.047006,-479.0
2023-12-20 14:28:47.054695,-379.0
2023-12-20 14:28:47.062384,14.0
2023-12-20 14:28:47.070073,271.0
2023-12-20 14:28:47.077762,264.0
2023-12-20 14:28:47.085451,195.0
2023-12-20 14:28:47.093140,95.0
2023-12-20 14:28:47.100829,-45.0
2023-12-20 14:28:47.108518,-109.0
2023-12-20 14:28:47.116207,-88.0
2023-12-20 14:28:47.123896,-78.0
2023-12-20 14:28:47.131584,-95.0
2023-12-20 14:28:47.139273,-97.0
2023-12-20 14:28:47.146962,-95.0
2023-12-20 14:28:47.154651,-97.0
2023-12-20 14:28:47.162340,-97.0
2023-12-20 14:28:47.170029,-100.0
2023-12-20 14:28:47.177718,-107.0
2023-12-20 14:28:47.185407,-112.0
2023-12-20 14:28:47.193096,-121.0
2023-12-20 14:28:47.200785,-135.0
2023-12-20 14:28:47.208474,-135.0
2023-12-20 14:28:47.216163,-126.0
2023-12-20 14:28:47.223852,-128.0
2023-12-20 14:28:47.231541,-135.0
2023-12-20 14:28:47.239230,-140.0
2023-12-20 14:28:47.246919,-143.0
2023-12-20 14:28:47.254608,-135.0
2023-12-20 14:28:47.262297,-131.0
2023-12-20 14:28:47.269986,-126.0
2023-12-20 14:28:47.277675,-116.0
2023-12-20 14:28:47.285364,-107.0
2023-12-20 14:28:47.293053,-90.0
2023-12-20 14:28:47.300742,-71.0
2023-12-20 14:28:47.308431,-61.0
2023-12-20 14:28:47.316120,-50.0
2023-12-20 14:28:47.323809,-42.0
2023-12-20 14:28:47.331498,-38.0
2023-12-20 14:28:47.339187,-35.0
2023-12-20 14:28:47.346876,-54.0
2023-12-20 14:28:47.354565,-66.0
2023-12-20 14:28:47.362254,-47.0
2023-12-20 14:28:47.369943,-35.0
2023-12-20 14:28:47.377632,-50.0
2023-12-20 14:28:47.385321,-57.0
2023-12-20 14:28:47.393010,-50.0
2023-12-20 14:28:47.400699,-52.0
2023-12-20 14:28:47.408388,-45.0
2023-12-20 14:28:47.416077,-38.0
2023-12-20 14:28:47.423766,-40.0
2023-12-20 14:28:47.431455,-42.0
2023-12-20 14:28:47.439144,-42.0
2023-12-20 14:28:47.446833,-38.0
2023-12-20 14:28:47.454522,-30.0
2023-12-20 14:28:47.462211,-33.0
2023-12-20 14:28:47.469900,-38.0
2023-12-20 14:28:47.477589,-35.0
2023-12-20 14:28:47.485278,-33.0
2023-12-20 14:28:47.492967,-30.0
2023-12-20 14:28:47.500656,-23.0
2023-12-20 14:28:47.508345,-30.0
2023-12-20 14:28:47.516034,-42.0
2023-12-20 14:28:47.523723,-57.0
2023-12-20 14:28:47.531412,-85.0
2023-12-20 14:28:47.539101,-95.0
2023-12-20 14:28:47.546790,-64.0
2023-12-20 14:28:47.554479,-42.0
2023-12-20 14:28:47.562168,-42.0
2023-12-20 14:28:47.569857,-40.0
2023-12-20 14:28:47.577546,-38.0
2023-12-20 14:28:47.585235,-50.0
2023-12-20 14:28:47.592924,-59.0
2023-12-20 14:28:47.600613,-59.0
2023-12-20 14:28:47.608302,-64.0
2023-12-20 14:28:47.615991,-152.0
2023-12-20 14:28:47.623680,-374.0
2023-12-20 14:28:47.631368,-538.0
2023-12-20 14:28:47.639057,-350.0
2023-12-20 14:28:47.646746,76.0
2023-12-20 14:28:47.654435,293.0
2023-12-20 14:28:47.662124,255.0
2023-12-20 14:28:47.669813,171.0
2023-12-20 14:28:47.677502,73.0
2023-12-20 14:28:47.685191,-33.0
2023-12-20 14:28:47.692880,-71.0
2023-12-20 14:28:47.700569,-61.0
2023-12-20 14:28:47.708258,-71.0
2023-12-20 14:28:47.715947,-81.0
2023-12-20 14:28:47.723636,-69.0
2023-12-20 14:28:47.731325,-66.0
2023-12-20 14:28:47.739014,-78.0
2023-12-20 14:28:47.746703,-95.0
2023-12-20 14:28:47.754392,-112.0
2023-12-20 14:28:47.762081,-116.0
2023-12-20 14:28:47.769770,-119.0
2023-12-20 14:28:47.777459,-126.0
2023-12-20 14:28:47.785148,-133.0
2023-12-20 14:28:47.792837,-138.0
2023-12-20 14:28:47.800526,-135.0
2023-12-20 14:28:47.808215,-131.0
2023-12-20 14:28:47.815904,-123.0
2023-12-20 14:28:47.823593,-112.0
2023-12-20 14:28:47.831282,-112.0
2023-12-20 14:28:47.838971,-119.0
2023-12-20 14:28:47.846660,-114.0
2023-12-20 14:28:47.854349,-97.0
2023-12-20 14:28:47.862038,-88.0
2023-12-20 14:28:47.869727,-81.0
2023-12-20 14:28:47.877416,-71.0
2023-12-20 14:28:47.885105,-57.0
2023-12-20 14:28:47.892794,-40.0
2023-12-20 14:28:47.900483,-21.0
2023-12-20 14:28:47.908172,-9.0
2023-12-20 14:28:47.915861,-11.0
2023-12-20 14:28:47.923550,-14.0
2023-12-20 14:28:47.931239,-16.0
2023-12-20 14:28:47.938928,-19.0
2023-12-20 14:28:47.946617,-16.0
2023-12-20 14:28:47.954306,-14.0
2023-12-20 14:28:47.961995,-14.0
2023-12-20 14:28:47.969684,-14.0
2023-12-20 14:28:47.977373,-19.0
2023-12-20 14:28:47.985062,-21.0
2023-12-20 14:28:47.992751,-16.0
2023-12-20 14:28:48.000440,-11.0
2023-12-20 14:28:48.008129,-9.0
2023-12-20 14:28:48.015818,-14.0
2023-12-20 14:28:48.023507,-21.0
2023-12-20 14:28:48.031196,-19.0
2023-12-20 14:28:48.038885,-4.0
2023-12-20 14:28:48.046574,-2.0
2023-12-20 14:28:48.054263,-2.0
2023-12-20 14:28:48.061952,-4.0
2023-12-20 14:28:48.069641,-33.0
2023-12-20 14:28:48.077330,-52.0
2023-12-20 14:28:48.085019,-45.0
2023-12-20 14:28:48.092708,-45.0
2023-12-20 14:28:48.100397,-54.0
2023-12-20 14:28:48.108086,-64.0
2023-12-20 14:28:48.115775,-73.0
2023-12-20 14:28:48.123464,-71.0
2023-12-20 14:28:48.131153,-52.0
2023-12-20 14:28:48.138841,-35.0
2023-12-20 14:28:48.146530,-23.0
2023-12-20 14:28:48.154219,-26.0
2023-12-20 14:28:48.161908,-42.0
2023-12-20 14:28:48.169597,-42.0
2023-12-20 14:28:48.177286,-33.0
2023-12-20 14:28:48.184975,-40.0
2023-12-20 14:28:48.192664,-45.0
2023-12-20 14:28:48.200353,-71.0
2023-12-20 14:28:48.208042,-221.0
2023-12-20 14:28:48.215731,-453.0
2023-12-20 14:28:48.223420,-467.0
2023-12-20 14:28:48.231109,-123.0
2023-12-20 14:28:48.238798,228.0
2023-12-20 14:28:48.246487,283.0
2023-12-20 14:28:48.254176,181.0
2023-12-20 14:28:48.261865,90.0
2023-12-20 14:28:48.269554,-2.0
2023-12-20 14:28:48.277243,-71.0
2023-12-20 14:28:48.284932,-71.0
2023-12-20 14:28:48.292621,-66.0
2023-12-20 14:28:48.300310,-83.0
2023-12-20 14:28:48.307999,-81.0
2023-12-20 14:28:48.315688,-71.0
2023-12-20 14:28:48.323377,-81.0
2023-12-20 14:28:48.331066,-95.0
2023-12-20 14:28:48.338755,-102.0
2023-12-20 14:28:48.346444,-112.0
2023-12-20 14:28:48.354133,-116.0
2023-12-20 14:28:48.361822,-114.0
2023-12-20 14:28:48.369511,-121.0
2023-12-20 14:28:48.377200,-131.0
2023-12-20 14:28:48.384889,-133.0
2023-12-20 14:28:48.392578,-128.0
2023-12-20 14:28:48.400267,-123.0
2023-12-20 14:28:48.407956,-121.0
2023-12-20 14:28:48.415645,-114.0
2023-12-20 14:28:48.423334,-100.0
2023-12-20 14:28:48.431023,-97.0
2023-12-20 14:28:48.438712,-100.0
2023-12-20 14:28:48.446401,-85.0
2023-12-20 14:28:48.454090,-71.0
2023-12-20 14:28:48.461779,-61.0
2023-12-20 14:28:48.469468,-47.0
2023-12-20 14:28:48.477157,-30.0
2023-12-20 14:28:48.484846,-19.0
2023-12-20 14:28:48.492535,-9.0
2023-12-20 14:28:48.500224,0.0
2023-12-20 14:28:48.507913,4.0
2023-12-20 14:28:48.515602,4.0
2023-12-20 14:28:48.523291,0.0
2023-12-20 14:28:48.530980,-4.0
2023-12-20 14:28:48.538669,-2.0
2023-12-20 14:28:48.546358,-4.0
2023-12-20 14:28:48.554047,-9.0
2023-12-20 14:28:48.561736,-9.0
2023-12-20 14:28:48.569425,-11.0
2023-12-20 14:28:48.577114,-23.0
2023-12-20 14:28:48.584803,-26.0
2023-12-20 14:28:48.592492,-14.0
2023-12-20 14:28:48.600181,-14.0
2023-12-20 14:28:48.607870,-14.0
2023-12-20 14:28:48.615559,-9.0
2023-12-20 14:28:48.623248,-11.0
2023-12-20 14:28:48.630937,-14.0
2023-12-20 14:28:48.638625,-7.0
2023-12-20 14:28:48.646314,7.0
2023-12-20 14:28:48.654003,2.0
2023-12-20 14:28:48.661692,-9.0
2023-12-20 14:28:48.669381,-4.0
2023-12-20 14:28:48.677070,4.0
2023-12-20 14:28:48.684759,-2.0
2023-12-20 14:28:48.692448,-19.0
2023-12-20 14:28:48.700137,-45.0
2023-12-20 14:28:48.707826,-64.0
2023-12-20 14:28:48.715515,-54.0
2023-12-20 14:28:48.723204,-42.0
2023-12-20 14:28:48.730893,-45.0
2023-12-20 14:28:48.738582,-30.0
2023-12-20 14:28:48.746271,-16.0
2023-12-20 14:28:48.753960,-33.0
2023-12-20 14:28:48.761649,-52.0
2023-12-20 14:28:48.769338,-45.0
2023-12-20 14:28:48.777027,-42.0
2023-12-20 14:28:48.784716,-52.0
2023-12-20 14:28:48.792405,-57.0
2023-12-20 14:28:48.800094,-119.0
2023-12-20 14:28:48.807783,-300.0
2023-12-20 14:28:48.815472,-472.0
2023-12-20 14:28:48.823161,-345.0
2023-12-20 14:28:48.830850,38.0
2023-12-20 14:28:48.838539,269.0
2023-12-20 14:28:48.846228,240.0
2023-12-20 14:28:48.853917,150.0
2023-12-20 14:28:48.861606,57.0
2023-12-20 14:28:48.869295,-45.0
2023-12-20 14:28:48.876984,-90.0
2023-12-20 14:28:48.884673,-73.0
2023-12-20 14:28:48.892362,-66.0
2023-12-20 14:28:48.900051,-78.0
2023-12-20 14:28:48.907740,-78.0
2023-12-20 14:28:48.915429,-73.0
2023-12-20 14:28:48.923118,-73.0
2023-12-20 14:28:48.930807,-78.0
2023-12-20 14:28:48.938496,-88.0
2023-12-20 14:28:48.946185,-102.0
2023-12-20 14:28:48.953874,-104.0
2023-12-20 14:28:48.961563,-109.0
2023-12-20 14:28:48.969252,-121.0
2023-12-20 14:28:48.976941,-123.0
2023-12-20 14:28:48.984630,-116.0
2023-12-20 14:28:48.992319,-116.0
2023-12-20 14:28:49.000008,-114.0
2023-12-20 14:28:49.007697,-107.0
2023-12-20 14:28:49.015386,-109.0
2023-12-20 14:28:49.023075,-107.0
2023-12-20 14:28:49.030764,-97.0
2023-12-20 14:28:49.038453,-90.0
2023-12-20 14:28:49.046142,-81.0
2023-12-20 14:28:49.053831,-66.0
2023-12-20 14:28:49.061520,-61.0
2023-12-20 14:28:49.069209,-59.0
2023-12-20 14:28:49.076898,-47.0
2023-12-20 14:28:49.084587,-23.0
2023-12-20 14:28:49.092276,-9.0
2023-12-20 14:28:49.099965,-11.0
2023-12-20 14:28:49.107654,-16.0
2023-12-20 14:28:49.115343,-14.0
2023-12-20 14:28:49.123032,-9.0
2023-12-20 14:28:49.130721,-9.0
2023-12-20 14:28:49.138409,-14.0
2023-12-20 14:28:49.146098,-21.0
2023-12-20 14:28:49.153787,-26.0
2023-12-20 14:28:49.161476,-26.0
2023-12-20 14:28:49.169165,-19.0
2023-12-20 14:28:49.176854,-16.0
2023-12-20 14:28:49.184543,-16.0
2023-12-20 14:28:49.192232,-14.0
2023-12-20 14:28:49.199921,-11.0
2023-12-20 14:28:49.207610,-11.0
2023-12-20 14:28:49.215299,-9.0
2023-12-20 14:28:49.222988,-9.0
2023-12-20 14:28:49.230677,-19.0
2023-12-20 14:28:49.238366,-35.0
2023-12-20 14:28:49.246055,-50.0
2023-12-20 14:28:49.253744,-52.0
2023-12-20 14:28:49.261433,-61.0
2023-12-20 14:28:49.269122,-64.0
2023-12-20 14:28:49.276811,-61.0
2023-12-20 14:28:49.284500,-85.0
2023-12-20 14:28:49.292189,-107.0
2023-12-20 14:28:49.299878,-97.0
2023-12-20 14:28:49.307567,-100.0
2023-12-20 14:28:49.315256,-112.0
2023-12-20 14:28:49.322945,-97.0
2023-12-20 14:28:49.330634,-71.0
2023-12-20 14:28:49.338323,-61.0
2023-12-20 14:28:49.346012,-59.0
2023-12-20 14:28:49.353701,-52.0
2023-12-20 14:28:49.361390,-52.0
2023-12-20 14:28:49.369079,-64.0
2023-12-20 14:28:49.376768,-64.0
2023-12-20 14:28:49.384457,-54.0
2023-12-20 14:28:49.392146,-76.0
2023-12-20 14:28:49.399835,-195.0
2023-12-20 14:28:49.407524,-379.0
2023-12-20 14:28:49.415213,-395.0
2023-12-20 14:28:49.422902,-104.0
2023-12-20 14:28:49.430591,209.0
2023-12-20 14:28:49.438280,274.0
2023-12-20 14:28:49.445969,209.0
2023-12-20 14:28:49.453658,126.0
2023-12-20 14:28:49.461347,4.0
2023-12-20 14:28:49.469036,-76.0
2023-12-20 14:28:49.476725,-73.0
2023-12-20 14:28:49.484414,-57.0
2023-12-20 14:28:49.492103,-69.0
2023-12-20 14:28:49.499792,-78.0
2023-12-20 14:28:49.507481,-71.0
2023-12-20 14:28:49.515170,-69.0
2023-12-20 14:28:49.522859,-73.0
2023-12-20 14:28:49.530548,-85.0
2023-12-20 14:28:49.538237,-97.0
2023-12-20 14:28:49.545926,-102.0
2023-12-20 14:28:49.553615,-112.0
2023-12-20 14:28:49.561304,-126.0
2023-12-20 14:28:49.568993,-123.0
2023-12-20 14:28:49.576682,-119.0
2023-12-20 14:28:49.584371,-121.0
2023-12-20 14:28:49.592060,-121.0
2023-12-20 14:28:49.599749,-123.0
2023-12-20 14:28:49.607438,-121.0
2023-12-20 14:28:49.615127,-102.0
2023-12-20 14:28:49.622816,-85.0
2023-12-20 14:28:49.630505,-85.0
2023-12-20 14:28:49.638194,-85.0
2023-12-20 14:28:49.645882,-78.0
2023-12-20 14:28:49.653571,-66.0
2023-12-20 14:28:49.661260,-47.0
2023-12-20 14:28:49.668949,-30.0
2023-12-20 14:28:49.676638,-19.0
2023-12-20 14:28:49.684327,-9.0
2023-12-20 14:28:49.692016,-2.0
2023-12-20 14:28:49.699705,-4.0
2023-12-20 14:28:49.707394,-4.0
2023-12-20 14:28:49.715083,-2.0
2023-12-20 14:28:49.722772,-4.0
2023-12-20 14:28:49.730461,-9.0
2023-12-20 14:28:49.738150,-9.0
2023-12-20 14:28:49.745839,-11.0
2023-12-20 14:28:49.753528,-28.0
2023-12-20 14:28:49.761217,-52.0
2023-12-20 14:28:49.768906,-47.0
2023-12-20 14:28:49.776595,-52.0
2023-12-20 14:28:49.784284,-76.0
2023-12-20 14:28:49.791973,-71.0
2023-12-20 14:28:49.799662,-54.0
2023-12-20 14:28:49.807351,-64.0
2023-12-20 14:28:49.815040,-71.0
2023-12-20 14:28:49.822729,-66.0
2023-12-20 14:28:49.830418,-61.0
2023-12-20 14:28:49.838107,-59.0
2023-12-20 14:28:49.845796,-47.0
2023-12-20 14:28:49.853485,-42.0
2023-12-20 14:28:49.861174,-47.0
2023-12-20 14:28:49.868863,-52.0
2023-12-20 14:28:49.876552,-52.0
2023-12-20 14:28:49.884241,-57.0
2023-12-20 14:28:49.891930,-66.0
2023-12-20 14:28:49.899619,-64.0
2023-12-20 14:28:49.907308,-54.0
2023-12-20 14:28:49.914997,-50.0
2023-12-20 14:28:49.922686,-35.0
2023-12-20 14:28:49.930375,-19.0
2023-12-20 14:28:49.938064,-16.0
2023-12-20 14:28:49.945753,-19.0
2023-12-20 14:28:49.953442,-23.0
2023-12-20 14:28:49.961131,-38.0
2023-12-20 14:28:49.968820,-42.0
2023-12-20 14:28:49.976509,-35.0
2023-12-20 14:28:49.984198,-73.0
2023-12-20 14:28:49.991887,-221.0
2023-12-20 14:28:49.999576,-398.0
2023-12-20 14:28:50.007265,-350.0
2023-12-20 14:28:50.014954,-7.0
2023-12-20 14:28:50.022643,264.0
2023-12-20 14:28:50.030332,276.0
2023-12-20 14:28:50.038021,224.0
2023-12-20 14:28:50.045710,145.0
2023-12-20 14:28:50.053399,9.0
2023-12-20 14:28:50.061088,-71.0
2023-12-20 14:28:50.068777,-61.0
2023-12-20 14:28:50.076466,-54.0
2023-12-20 14:28:50.084155,-69.0
2023-12-20 14:28:50.091844,-69.0
2023-12-20 14:28:50.099533,-69.0
2023-12-20 14:28:50.107222,-81.0
2023-12-20 14:28:50.114911,-85.0
2023-12-20 14:28:50.122600,-83.0
2023-12-20 14:28:50.130289,-88.0
2023-12-20 14:28:50.137978,-100.0
2023-12-20 14:28:50.145666,-114.0
2023-12-20 14:28:50.153355,-116.0
2023-12-20 14:28:50.161044,-114.0
2023-12-20 14:28:50.168733,-112.0
2023-12-20 14:28:50.176422,-109.0
2023-12-20 14:28:50.184111,-107.0
2023-12-20 14:28:50.191800,-114.0
2023-12-20 14:28:50.199489,-112.0
2023-12-20 14:28:50.207178,-97.0
2023-12-20 14:28:50.214867,-83.0
2023-12-20 14:28:50.222556,-85.0
2023-12-20 14:28:50.230245,-90.0
2023-12-20 14:28:50.237934,-78.0
2023-12-20 14:28:50.245623,-59.0
2023-12-20 14:28:50.253312,-50.0
2023-12-20 14:28:50.261001,-45.0
2023-12-20 14:28:50.268690,-42.0
2023-12-20 14:28:50.276379,-38.0
2023-12-20 14:28:50.284068,-30.0
2023-12-20 14:28:50.291757,-28.0
2023-12-20 14:28:50.299446,-35.0
2023-12-20 14:28:50.307135,-40.0
2023-12-20 14:28:50.314824,-38.0
2023-12-20 14:28:50.322513,-38.0
2023-12-20 14:28:50.330202,-40.0
2023-12-20 14:28:50.337891,-40.0
2023-12-20 14:28:50.345580,-40.0
2023-12-20 14:28:50.353269,-40.0
2023-12-20 14:28:50.360958,-54.0
2023-12-20 14:28:50.368647,-76.0
2023-12-20 14:28:50.376336,-76.0
2023-12-20 14:28:50.384025,-61.0
2023-12-20 14:28:50.391714,-52.0
2023-12-20 14:28:50.399403,-47.0
2023-12-20 14:28:50.407092,-47.0
2023-12-20 14:28:50.414781,-54.0
2023-12-20 14:28:50.422470,-50.0
2023-12-20 14:28:50.430159,-38.0
2023-12-20 14:28:50.437848,-30.0
2023-12-20 14:28:50.445537,-30.0
2023-12-20 14:28:50.453226,-33.0
2023-12-20 14:28:50.460915,-38.0
2023-12-20 14:28:50.468604,-42.0
2023-12-20 14:28:50.476293,-47.0
2023-12-20 14:28:50.483982,-52.0
2023-12-20 14:28:50.491671,-54.0
2023-12-20 14:28:50.499360,-50.0
2023-12-20 14:28:50.507049,-38.0
2023-12-20 14:28:50.514738,-23.0
2023-12-20 14:28:50.522427,-16.0
2023-12-20 14:28:50.530116,-9.0
2023-12-20 14:28:50.537805,-14.0
2023-12-20 14:28:50.545494,-28.0
2023-12-20 14:28:50.553183,-38.0
2023-12-20 14:28:50.560872,-33.0
2023-12-20 14:28:50.568561,-45.0
2023-12-20 14:28:50.576250,-135.0
2023-12-20 14:28:50.583939,-336.0
2023-12-20 14:28:50.591628,-472.0
2023-12-20 14:28:50.599317,-259.0
2023-12-20 14:28:50.607006,143.0
2023-12-20 14:28:50.614695,307.0
2023-12-20 14:28:50.622384,264.0
2023-12-20 14:28:50.630073,212.0
2023-12-20 14:28:50.637762,104.0
2023-12-20 14:28:50.645450,-26.0
2023-12-20 14:28:50.653139,-66.0
2023-12-20 14:28:50.660828,-50.0
2023-12-20 14:28:50.668517,-52.0
2023-12-20 14:28:50.676206,-66.0
2023-12-20 14:28:50.683895,-71.0
2023-12-20 14:28:50.691584,-69.0
2023-12-20 14:28:50.699273,-73.0
2023-12-20 14:28:50.706962,-85.0
2023-12-20 14:28:50.714651,-90.0
2023-12-20 14:28:50.722340,-92.0
2023-12-20 14:28:50.730029,-107.0
2023-12-20 14:28:50.737718,-121.0
2023-12-20 14:28:50.745407,-119.0
2023-12-20 14:28:50.753096,-112.0
2023-12-20 14:28:50.760785,-121.0
2023-12-20 14:28:50.768474,-140.0
2023-12-20 14:28:50.776163,-140.0
2023-12-20 14:28:50.783852,-123.0
2023-12-20 14:28:50.791541,-126.0
2023-12-20 14:28:50.799230,-133.0
2023-12-20 14:28:50.806919,-116.0
2023-12-20 14:28:50.814608,-102.0
2023-12-20 14:28:50.822297,-95.0
2023-12-20 14:28:50.829986,-76.0
2023-12-20 14:28:50.837675,-66.0
2023-12-20 14:28:50.845364,-59.0
2023-12-20 14:28:50.853053,-45.0
2023-12-20 14:28:50.860742,-28.0
2023-12-20 14:28:50.868431,-23.0
2023-12-20 14:28:50.876120,-28.0
2023-12-20 14:28:50.883809,-35.0
2023-12-20 14:28:50.891498,-30.0
2023-12-20 14:28:50.899187,-21.0
2023-12-20 14:28:50.906876,-33.0
2023-12-20 14:28:50.914565,-42.0
2023-12-20 14:28:50.922254,-38.0
2023-12-20 14:28:50.929943,-57.0
2023-12-20 14:28:50.937632,-61.0
2023-12-20 14:28:50.945321,-47.0
2023-12-20 14:28:50.953010,-52.0
2023-12-20 14:28:50.960699,-54.0
2023-12-20 14:28:50.968388,-45.0
2023-12-20 14:28:50.976077,-45.0
2023-12-20 14:28:50.983766,-45.0
2023-12-20 14:28:50.991455,-38.0
2023-12-20 14:28:50.999144,-42.0
2023-12-20 14:28:51.006833,-42.0
2023-12-20 14:28:51.014522,-40.0
2023-12-20 14:28:51.022211,-40.0
2023-12-20 14:28:51.029900,-38.0
2023-12-20 14:28:51.037589,-40.0
2023-12-20 14:28:51.045278,-52.0
2023-12-20 14:28:51.052967,-47.0
2023-12-20 14:28:51.060656,-47.0
2023-12-20 14:28:51.068345,-64.0
2023-12-20 14:28:51.076034,-71.0
2023-12-20 14:28:51.083723,-54.0
2023-12-20 14:28:51.091412,-28.0
2023-12-20 14:28:51.099101,-19.0
2023-12-20 14:28:51.106790,-33.0
2023-12-20 14:28:51.114479,-33.0
2023-12-20 14:28:51.122168,-21.0
2023-12-20 14:28:51.129857,-33.0
2023-12-20 14:28:51.137546,-50.0
2023-12-20 14:28:51.145235,-42.0
2023-12-20 14:28:51.152923,-104.0
2023-12-20 14:28:51.160612,-295.0
2023-12-20 14:28:51.168301,-476.0
2023-12-20 14:28:51.175990,-348.0
2023-12-20 14:28:51.183679,42.0
2023-12-20 14:28:51.191368,269.0
2023-12-20 14:28:51.199057,255.0
2023-12-20 14:28:51.206746,207.0
2023-12-20 14:28:51.214435,112.0
2023-12-20 14:28:51.222124,-23.0
2023-12-20 14:28:51.229813,-69.0
2023-12-20 14:28:51.237502,-45.0
2023-12-20 14:28:51.245191,-59.0
2023-12-20 14:28:51.252880,-83.0
2023-12-20 14:28:51.260569,-81.0
2023-12-20 14:28:51.268258,-78.0
2023-12-20 14:28:51.275947,-92.0
2023-12-20 14:28:51.283636,-116.0
2023-12-20 14:28:51.291325,-133.0
2023-12-20 14:28:51.299014,-135.0
2023-12-20 14:28:51.306703,-135.0
2023-12-20 14:28:51.314392,-152.0
2023-12-20 14:28:51.322081,-164.0
2023-12-20 14:28:51.329770,-157.0
2023-12-20 14:28:51.337459,-145.0
2023-12-20 14:28:51.345148,-147.0
2023-12-20 14:28:51.352837,-152.0
2023-12-20 14:28:51.360526,-147.0
2023-12-20 14:28:51.368215,-140.0
2023-12-20 14:28:51.375904,-131.0
2023-12-20 14:28:51.383593,-123.0
2023-12-20 14:28:51.391282,-123.0
2023-12-20 14:28:51.398971,-109.0
2023-12-20 14:28:51.406660,-83.0
2023-12-20 14:28:51.414349,-59.0
2023-12-20 14:28:51.422038,-47.0
2023-12-20 14:28:51.429727,-38.0
2023-12-20 14:28:51.437416,-35.0
2023-12-20 14:28:51.445105,-52.0
2023-12-20 14:28:51.452794,-59.0
2023-12-20 14:28:51.460483,-42.0
2023-12-20 14:28:51.468172,-38.0
2023-12-20 14:28:51.475861,-47.0
2023-12-20 14:28:51.483550,-52.0
2023-12-20 14:28:51.491239,-45.0
2023-12-20 14:28:51.498928,-40.0
2023-12-20 14:28:51.506617,-38.0
2023-12-20 14:28:51.514306,-33.0
2023-12-20 14:28:51.521995,-40.0
2023-12-20 14:28:51.529684,-61.0
2023-12-20 14:28:51.537373,-69.0
2023-12-20 14:28:51.545062,-59.0
2023-12-20 14:28:51.552751,-45.0
2023-12-20 14:28:51.560440,-35.0
2023-12-20 14:28:51.568129,-40.0
2023-12-20 14:28:51.575818,-45.0
2023-12-20 14:28:51.583507,-35.0
2023-12-20 14:28:51.591196,-30.0
2023-12-20 14:28:51.598885,-38.0
2023-12-20 14:28:51.606574,-40.0
2023-12-20 14:28:51.614263,-35.0
2023-12-20 14:28:51.621952,-40.0
2023-12-20 14:28:51.629641,-45.0
2023-12-20 14:28:51.637330,-47.0
2023-12-20 14:28:51.645019,-57.0
2023-12-20 14:28:51.652707,-61.0
2023-12-20 14:28:51.660396,-52.0
2023-12-20 14:28:51.668085,-40.0
2023-12-20 14:28:51.675774,-30.0
2023-12-20 14:28:51.683463,-26.0
2023-12-20 14:28:51.691152,-21.0
2023-12-20 14:28:51.698841,-19.0
2023-12-20 14:28:51.706530,-23.0
2023-12-20 14:28:51.714219,-33.0
2023-12-20 14:28:51.721908,-40.0
2023-12-20 14:28:51.729597,-42.0
2023-12-20 14:28:51.737286,-95.0
2023-12-20 14:28:51.744975,-267.0
2023-12-20 14:28:51.752664,-455.0
2023-12-20 14:28:51.760353,-360.0
2023-12-20 14:28:51.768042,11.0
2023-12-20 14:28:51.775731,243.0
2023-12-20 14:28:51.783420,221.0
2023-12-20 14:28:51.791109,154.0
2023-12-20 14:28:51.798798,69.0
2023-12-20 14:28:51.806487,-50.0
2023-12-20 14:28:51.814176,-97.0
2023-12-20 14:28:51.821865,-78.0
2023-12-20 14:28:51.829554,-78.0
2023-12-20 14:28:51.837243,-100.0
2023-12-20 14:28:51.844932,-100.0
2023-12-20 14:28:51.852621,-100.0
2023-12-20 14:28:51.860310,-107.0
2023-12-20 14:28:51.867999,-107.0
2023-12-20 14:28:51.875688,-104.0
2023-12-20 14:28:51.883377,-107.0
2023-12-20 14:28:51.891066,-119.0
2023-12-20 14:28:51.898755,-135.0
2023-12-20 14:28:51.906444,-147.0
2023-12-20 14:28:51.914133,-143.0
2023-12-20 14:28:51.921822,-133.0
2023-12-20 14:28:51.929511,-138.0
2023-12-20 14:28:51.937200,-150.0
2023-12-20 14:28:51.944889,-150.0
2023-12-20 14:28:51.952578,-133.0
2023-12-20 14:28:51.960267,-123.0
2023-12-20 14:28:51.967956,-119.0
2023-12-20 14:28:51.975645,-104.0
2023-12-20 14:28:51.983334,-95.0
2023-12-20 14:28:51.991023,-92.0
2023-12-20 14:28:51.998712,-73.0
2023-12-20 14:28:52.006401,-50.0
2023-12-20 14:28:52.014090,-38.0
2023-12-20 14:28:52.021779,-35.0
2023-12-20 14:28:52.029468,-57.0
2023-12-20 14:28:52.037157,-71.0
2023-12-20 14:28:52.044846,-52.0
2023-12-20 14:28:52.052535,-38.0
2023-12-20 14:28:52.060224,-50.0
2023-12-20 14:28:52.067913,-52.0
2023-12-20 14:28:52.075602,-45.0
2023-12-20 14:28:52.083291,-47.0
2023-12-20 14:28:52.090980,-47.0
2023-12-20 14:28:52.098669,-38.0
2023-12-20 14:28:52.106358,-38.0
2023-12-20 14:28:52.114047,-45.0
2023-12-20 14:28:52.121736,-47.0
2023-12-20 14:28:52.129425,-47.0
2023-12-20 14:28:52.137114,-42.0
2023-12-20 14:28:52.144803,-30.0
2023-12-20 14:28:52.152491,-28.0
2023-12-20 14:28:52.160180,-38.0
2023-12-20 14:28:52.167869,-38.0
2023-12-20 14:28:52.175558,-30.0
2023-12-20 14:28:52.183247,-23.0
2023-12-20 14:28:52.190936,-21.0
2023-12-20 14:28:52.198625,-19.0
2023-12-20 14:28:52.206314,-21.0
2023-12-20 14:28:52.214003,-33.0
2023-12-20 14:28:52.221692,-42.0
2023-12-20 14:28:52.229381,-45.0
2023-12-20 14:28:52.237070,-47.0
2023-12-20 14:28:52.244759,-50.0
2023-12-20 14:28:52.252448,-38.0
2023-12-20 14:28:52.260137,-21.0
2023-12-20 14:28:52.267826,-23.0
2023-12-20 14:28:52.275515,-33.0
2023-12-20 14:28:52.283204,-30.0
2023-12-20 14:28:52.290893,-33.0
2023-12-20 14:28:52.298582,-50.0
2023-12-20 14:28:52.306271,-47.0
2023-12-20 14:28:52.313960,-45.0
2023-12-20 14:28:52.321649,-95.0
2023-12-20 14:28:52.329338,-226.0
2023-12-20 14:28:52.337027,-410.0
2023-12-20 14:28:52.344716,-431.0
2023-12-20 14:28:52.352405,-123.0
2023-12-20 14:28:52.360094,205.0
2023-12-20 14:28:52.367783,264.0
2023-12-20 14:28:52.375472,200.0
2023-12-20 14:28:52.383161,123.0
2023-12-20 14:28:52.390850,9.0
2023-12-20 14:28:52.398539,-69.0
2023-12-20 14:28:52.406228,-73.0
2023-12-20 14:28:52.413917,-71.0
2023-12-20 14:28:52.421606,-81.0
2023-12-20 14:28:52.429295,-78.0
2023-12-20 14:28:52.436984,-81.0
2023-12-20 14:28:52.444673,-97.0
2023-12-20 14:28:52.452362,-95.0
2023-12-20 14:28:52.460051,-83.0
2023-12-20 14:28:52.467740,-81.0
2023-12-20 14:28:52.475429,-97.0
2023-12-20 14:28:52.483118,-114.0
2023-12-20 14:28:52.490807,-114.0
2023-12-20 14:28:52.498496,-128.0
2023-12-20 14:28:52.506185,-152.0
2023-12-20 14:28:52.513874,-152.0
2023-12-20 14:28:52.521563,-150.0
2023-12-20 14:28:52.529252,-152.0
2023-12-20 14:28:52.536941,-138.0
2023-12-20 14:28:52.544630,-131.0
2023-12-20 14:28:52.552319,-135.0
2023-12-20 14:28:52.560008,-133.0
2023-12-20 14:28:52.567697,-121.0
2023-12-20 14:28:52.575386,-109.0
2023-12-20 14:28:52.583075,-85.0
2023-12-20 14:28:52.590764,-66.0
2023-12-20 14:28:52.598453,-52.0
2023-12-20 14:28:52.606142,-30.0
2023-12-20 14:28:52.613831,-35.0
2023-12-20 14:28:52.621520,-59.0
2023-12-20 14:28:52.629209,-59.0
2023-12-20 14:28:52.636898,-50.0
2023-12-20 14:28:52.644587,-42.0
2023-12-20 14:28:52.652276,-35.0
2023-12-20 14:28:52.659964,-45.0
2023-12-20 14:28:52.667653,-57.0
2023-12-20 14:28:52.675342,-40.0
2023-12-20 14:28:52.683031,-28.0
2023-12-20 14:28:52.690720,-42.0
2023-12-20 14:28:52.698409,-45.0
2023-12-20 14:28:52.706098,-38.0
2023-12-20 14:28:52.713787,-38.0
2023-12-20 14:28:52.721476,-38.0
2023-12-20 14:28:52.729165,-35.0
2023-12-20 14:28:52.736854,-28.0
2023-12-20 14:28:52.744543,-23.0
2023-12-20 14:28:52.752232,-30.0
2023-12-20 14:28:52.759921,-40.0
2023-12-20 14:28:52.767610,-40.0
2023-12-20 14:28:52.775299,-30.0
2023-12-20 14:28:52.782988,-42.0
2023-12-20 14:28:52.790677,-57.0
2023-12-20 14:28:52.798366,-54.0
2023-12-20 14:28:52.806055,-71.0
2023-12-20 14:28:52.813744,-92.0
2023-12-20 14:28:52.821433,-88.0
2023-12-20 14:28:52.829122,-76.0
2023-12-20 14:28:52.836811,-69.0
2023-12-20 14:28:52.844500,-57.0
2023-12-20 14:28:52.852189,-42.0
2023-12-20 14:28:52.859878,-40.0
2023-12-20 14:28:52.867567,-42.0
2023-12-20 14:28:52.875256,-30.0
2023-12-20 14:28:52.882945,-28.0
2023-12-20 14:28:52.890634,-42.0
2023-12-20 14:28:52.898323,-38.0
2023-12-20 14:28:52.906012,-50.0
2023-12-20 14:28:52.913701,-164.0
2023-12-20 14:28:52.921390,-383.0
2023-12-20 14:28:52.929079,-505.0
2023-12-20 14:28:52.936768,-274.0
2023-12-20 14:28:52.944457,126.0
2023-12-20 14:28:52.952146,283.0
2023-12-20 14:28:52.959835,238.0
2023-12-20 14:28:52.967524,171.0
2023-12-20 14:28:52.975213,57.0
2023-12-20 14:28:52.982902,-50.0
2023-12-20 14:28:52.990591,-64.0
2023-12-20 14:28:52.998280,-61.0
2023-12-20 14:28:53.005969,-92.0
2023-12-20 14:28:53.013658,-107.0
2023-12-20 14:28:53.021347,-100.0
2023-12-20 14:28:53.029036,-90.0
2023-12-20 14:28:53.036725,-88.0
2023-12-20 14:28:53.044414,-100.0
2023-12-20 14:28:53.052103,-104.0
2023-12-20 14:28:53.059792,-97.0
2023-12-20 14:28:53.067481,-109.0
2023-12-20 14:28:53.075170,-121.0
2023-12-20 14:28:53.082859,-123.0
2023-12-20 14:28:53.090548,-133.0
2023-12-20 14:28:53.098237,-143.0
2023-12-20 14:28:53.105926,-150.0
2023-12-20 14:28:53.113615,-154.0
2023-12-20 14:28:53.121304,-143.0
2023-12-20 14:28:53.128993,-126.0
2023-12-20 14:28:53.136682,-126.0
2023-12-20 14:28:53.144371,-126.0
2023-12-20 14:28:53.152060,-131.0
2023-12-20 14:28:53.159748,-138.0
2023-12-20 14:28:53.167437,-112.0
2023-12-20 14:28:53.175126,-76.0
2023-12-20 14:28:53.182815,-69.0
2023-12-20 14:28:53.190504,-59.0
2023-12-20 14:28:53.198193,-47.0
2023-12-20 14:28:53.205882,-45.0
2023-12-20 14:28:53.213571,-35.0
2023-12-20 14:28:53.221260,-23.0
2023-12-20 14:28:53.228949,-23.0
2023-12-20 14:28:53.236638,-26.0
2023-12-20 14:28:53.244327,-30.0
2023-12-20 14:28:53.252016,-38.0
2023-12-20 14:28:53.259705,-42.0
2023-12-20 14:28:53.267394,-42.0
2023-12-20 14:28:53.275083,-54.0
2023-12-20 14:28:53.282772,-54.0
2023-12-20 14:28:53.290461,-45.0
2023-12-20 14:28:53.298150,-47.0
2023-12-20 14:28:53.305839,-52.0
2023-12-20 14:28:53.313528,-57.0
2023-12-20 14:28:53.321217,-59.0
2023-12-20 14:28:53.328906,-59.0
2023-12-20 14:28:53.336595,-59.0
2023-12-20 14:28:53.344284,-54.0
2023-12-20 14:28:53.351973,-42.0
2023-12-20 14:28:53.359662,-38.0
2023-12-20 14:28:53.367351,-42.0
2023-12-20 14:28:53.375040,-42.0
2023-12-20 14:28:53.382729,-38.0
2023-12-20 14:28:53.390418,-38.0
2023-12-20 14:28:53.398107,-40.0
2023-12-20 14:28:53.405796,-47.0
2023-12-20 14:28:53.413485,-59.0
2023-12-20 14:28:53.421174,-61.0
2023-12-20 14:28:53.428863,-57.0
2023-12-20 14:28:53.436552,-38.0
2023-12-20 14:28:53.444241,-14.0
2023-12-20 14:28:53.451930,-9.0
2023-12-20 14:28:53.459619,-16.0
2023-12-20 14:28:53.467308,-19.0
2023-12-20 14:28:53.474997,-26.0
2023-12-20 14:28:53.482686,-26.0
2023-12-20 14:28:53.490375,-14.0
2023-12-20 14:28:53.498064,-26.0
2023-12-20 14:28:53.505753,-133.0
2023-12-20 14:28:53.513442,-357.0
2023-12-20 14:28:53.521131,-517.0
2023-12-20 14:28:53.528820,-331.0
2023-12-20 14:28:53.536509,88.0
2023-12-20 14:28:53.544198,305.0
2023-12-20 14:28:53.551887,264.0
2023-12-20 14:28:53.559576,174.0
2023-12-20 14:28:53.567265,73.0
2023-12-20 14:28:53.574954,-16.0
2023-12-20 14:28:53.582643,-50.0
2023-12-20 14:28:53.590332,-50.0
2023-12-20 14:28:53.598021,-64.0
2023-12-20 14:28:53.605710,-71.0
2023-12-20 14:28:53.613399,-64.0
2023-12-20 14:28:53.621088,-61.0
2023-12-20 14:28:53.628777,-66.0
2023-12-20 14:28:53.636466,-66.0
2023-12-20 14:28:53.644155,-71.0
2023-12-20 14:28:53.651844,-81.0
2023-12-20 14:28:53.659532,-90.0
2023-12-20 14:28:53.667221,-95.0
2023-12-20 14:28:53.674910,-100.0
2023-12-20 14:28:53.682599,-109.0
2023-12-20 14:28:53.690288,-135.0
2023-12-20 14:28:53.697977,-162.0
2023-12-20 14:28:53.705666,-157.0
2023-12-20 14:28:53.713355,-140.0
2023-12-20 14:28:53.721044,-138.0
2023-12-20 14:28:53.728733,-128.0
2023-12-20 14:28:53.736422,-112.0
2023-12-20 14:28:53.744111,-109.0
2023-12-20 14:28:53.751800,-107.0
2023-12-20 14:28:53.759489,-85.0
2023-12-20 14:28:53.767178,-64.0
2023-12-20 14:28:53.774867,-54.0
2023-12-20 14:28:53.782556,-35.0
2023-12-20 14:28:53.790245,-23.0
2023-12-20 14:28:53.797934,-21.0
2023-12-20 14:28:53.805623,-16.0
2023-12-20 14:28:53.813312,-19.0
2023-12-20 14:28:53.821001,-35.0
2023-12-20 14:28:53.828690,-52.0
2023-12-20 14:28:53.836379,-47.0
2023-12-20 14:28:53.844068,-38.0
2023-12-20 14:28:53.851757,-38.0
2023-12-20 14:28:53.859446,-33.0
2023-12-20 14:28:53.867135,-30.0
2023-12-20 14:28:53.874824,-40.0
2023-12-20 14:28:53.882513,-40.0
2023-12-20 14:28:53.890202,-30.0
2023-12-20 14:28:53.897891,-30.0
2023-12-20 14:28:53.905580,-28.0
2023-12-20 14:28:53.913269,-14.0
2023-12-20 14:28:53.920958,-16.0
2023-12-20 14:28:53.928647,-30.0
2023-12-20 14:28:53.936336,-28.0
2023-12-20 14:28:53.944025,-16.0
2023-12-20 14:28:53.951714,-11.0
2023-12-20 14:28:53.959403,-14.0
2023-12-20 14:28:53.967092,-16.0
2023-12-20 14:28:53.974781,-14.0
2023-12-20 14:28:53.982470,-14.0
2023-12-20 14:28:53.990159,-23.0
2023-12-20 14:28:53.997848,-42.0
2023-12-20 14:28:54.005537,-52.0
2023-12-20 14:28:54.013226,-57.0
2023-12-20 14:28:54.020915,-50.0
2023-12-20 14:28:54.028604,-40.0
2023-12-20 14:28:54.036293,-23.0
2023-12-20 14:28:54.043982,-7.0
2023-12-20 14:28:54.051671,-7.0
2023-12-20 14:28:54.059360,-21.0
2023-12-20 14:28:54.067049,-21.0
2023-12-20 14:28:54.074738,-11.0
2023-12-20 14:28:54.082427,-14.0
2023-12-20 14:28:54.090116,-19.0
2023-12-20 14:28:54.097805,-38.0
2023-12-20 14:28:54.105494,-152.0
2023-12-20 14:28:54.113183,-374.0
2023-12-20 14:28:54.120872,-488.0
2023-12-20 14:28:54.128561,-243.0
2023-12-20 14:28:54.136250,152.0
2023-12-20 14:28:54.143939,302.0
2023-12-20 14:28:54.151628,250.0
2023-12-20 14:28:54.159317,169.0
2023-12-20 14:28:54.167005,64.0
2023-12-20 14:28:54.174694,-23.0
2023-12-20 14:28:54.182383,-42.0
2023-12-20 14:28:54.190072,-40.0
2023-12-20 14:28:54.197761,-57.0
2023-12-20 14:28:54.205450,-66.0
2023-12-20 14:28:54.213139,-57.0
2023-12-20 14:28:54.220828,-54.0
2023-12-20 14:28:54.228517,-61.0
2023-12-20 14:28:54.236206,-71.0
2023-12-20 14:28:54.243895,-85.0
2023-12-20 14:28:54.251584,-90.0
2023-12-20 14:28:54.259273,-97.0
2023-12-20 14:28:54.266962,-112.0
2023-12-20 14:28:54.274651,-131.0
2023-12-20 14:28:54.282340,-157.0
2023-12-20 14:28:54.290029,-164.0
2023-12-20 14:28:54.297718,-152.0
2023-12-20 14:28:54.305407,-147.0
2023-12-20 14:28:54.313096,-147.0
2023-12-20 14:28:54.320785,-145.0
2023-12-20 14:28:54.328474,-157.0
2023-12-20 14:28:54.336163,-154.0
2023-12-20 14:28:54.343852,-128.0
2023-12-20 14:28:54.351541,-109.0
2023-12-20 14:28:54.359230,-97.0
2023-12-20 14:28:54.366919,-81.0
2023-12-20 14:28:54.374608,-66.0
2023-12-20 14:28:54.382297,-54.0
2023-12-20 14:28:54.389986,-38.0
2023-12-20 14:28:54.397675,-23.0
2023-12-20 14:28:54.405364,-21.0
2023-12-20 14:28:54.413053,-23.0
2023-12-20 14:28:54.420742,-21.0
2023-12-20 14:28:54.428431,-26.0
2023-12-20 14:28:54.436120,-33.0
2023-12-20 14:28:54.443809,-30.0
2023-12-20 14:28:54.451498,-23.0
2023-12-20 14:28:54.459187,-19.0
2023-12-20 14:28:54.466876,-19.0
2023-12-20 14:28:54.474565,-28.0
2023-12-20 14:28:54.482254,-45.0
2023-12-20 14:28:54.489943,-50.0
2023-12-20 14:28:54.497632,-33.0
2023-12-20 14:28:54.505321,-28.0
2023-12-20 14:28:54.513010,-38.0
2023-12-20 14:28:54.520699,-35.0
2023-12-20 14:28:54.528388,-26.0
2023-12-20 14:28:54.536077,-26.0
2023-12-20 14:28:54.543766,-19.0
2023-12-20 14:28:54.551455,-16.0
2023-12-20 14:28:54.559144,-23.0
2023-12-20 14:28:54.566833,-16.0
2023-12-20 14:28:54.574522,-7.0
2023-12-20 14:28:54.582211,-14.0
2023-12-20 14:28:54.589900,-26.0
2023-12-20 14:28:54.597589,-30.0
2023-12-20 14:28:54.605278,-30.0
2023-12-20 14:28:54.612967,-33.0
2023-12-20 14:28:54.620656,-40.0
2023-12-20 14:28:54.628345,-38.0
2023-12-20 14:28:54.636034,-26.0
2023-12-20 14:28:54.643723,-19.0
2023-12-20 14:28:54.651412,-9.0
2023-12-20 14:28:54.659101,-2.0
2023-12-20 14:28:54.666789,-11.0
2023-12-20 14:28:54.674478,-28.0
2023-12-20 14:28:54.682167,-30.0
2023-12-20 14:28:54.689856,-19.0
2023-12-20 14:28:54.697545,-14.0
2023-12-20 14:28:54.705234,-38.0
2023-12-20 14:28:54.712923,-162.0
2023-12-20 14:28:54.720612,-386.0
2023-12-20 14:28:54.728301,-469.0
2023-12-20 14:28:54.735990,-188.0
2023-12-20 14:28:54.743679,190.0
2023-12-20 14:28:54.751368,302.0
2023-12-20 14:28:54.759057,233.0
2023-12-20 14:28:54.766746,145.0
2023-12-20 14:28:54.774435,42.0
2023-12-20 14:28:54.782124,-30.0
2023-12-20 14:28:54.789813,-38.0
2023-12-20 14:28:54.797502,-40.0
2023-12-20 14:28:54.805191,-57.0
2023-12-20 14:28:54.812880,-64.0
2023-12-20 14:28:54.820569,-92.0
2023-12-20 14:28:54.828258,-121.0
2023-12-20 14:28:54.835947,-121.0
2023-12-20 14:28:54.843636,-121.0
2023-12-20 14:28:54.851325,-138.0
2023-12-20 14:28:54.859014,-159.0
2023-12-20 14:28:54.866703,-183.0
2023-12-20 14:28:54.874392,-183.0
2023-12-20 14:28:54.882081,-162.0
2023-12-20 14:28:54.889770,-159.0
2023-12-20 14:28:54.897459,-176.0
2023-12-20 14:28:54.905148,-181.0
2023-12-20 14:28:54.912837,-166.0
2023-12-20 14:28:54.920526,-152.0
2023-12-20 14:28:54.928215,-147.0
2023-12-20 14:28:54.935904,-143.0
2023-12-20 14:28:54.943593,-126.0
2023-12-20 14:28:54.951282,-109.0
2023-12-20 14:28:54.958971,-104.0
2023-12-20 14:28:54.966660,-95.0
2023-12-20 14:28:54.974349,-73.0
2023-12-20 14:28:54.982038,-59.0
2023-12-20 14:28:54.989727,-52.0
2023-12-20 14:28:54.997416,-40.0
2023-12-20 14:28:55.005105,-30.0
2023-12-20 14:28:55.012794,-21.0
2023-12-20 14:28:55.020483,-16.0
2023-12-20 14:28:55.028172,-19.0
2023-12-20 14:28:55.035861,-28.0
2023-12-20 14:28:55.043550,-30.0
2023-12-20 14:28:55.051239,-26.0
2023-12-20 14:28:55.058928,-19.0
2023-12-20 14:28:55.066617,-14.0
2023-12-20 14:28:55.074306,-23.0
2023-12-20 14:28:55.081995,-35.0
2023-12-20 14:28:55.089684,-33.0
2023-12-20 14:28:55.097373,-21.0
2023-12-20 14:28:55.105062,-11.0
2023-12-20 14:28:55.112751,-9.0
2023-12-20 14:28:55.120440,-9.0
2023-12-20 14:28:55.128129,-11.0
2023-12-20 14:28:55.135818,-14.0
2023-12-20 14:28:55.143507,-9.0
2023-12-20 14:28:55.151196,-11.0
2023-12-20 14:28:55.158885,-9.0
2023-12-20 14:28:55.166574,2.0
2023-12-20 14:28:55.174262,2.0
2023-12-20 14:28:55.181951,-11.0
2023-12-20 14:28:55.189640,-9.0
2023-12-20 14:28:55.197329,4.0
2023-12-20 14:28:55.205018,-2.0
2023-12-20 14:28:55.212707,-21.0
2023-12-20 14:28:55.220396,-28.0
2023-12-20 14:28:55.228085,-33.0
2023-12-20 14:28:55.235774,-45.0
2023-12-20 14:28:55.243463,-38.0
2023-12-20 14:28:55.251152,-14.0
2023-12-20 14:28:55.258841,-9.0
2023-12-20 14:28:55.266530,-21.0
2023-12-20 14:28:55.274219,-23.0
2023-12-20 14:28:55.281908,-11.0
2023-12-20 14:28:55.289597,-14.0
2023-12-20 14:28:55.297286,-19.0
2023-12-20 14:28:55.304975,-14.0
2023-12-20 14:28:55.312664,-7.0
2023-12-20 14:28:55.320353,-71.0
2023-12-20 14:28:55.328042,-264.0
2023-12-20 14:28:55.335731,-469.0
2023-12-20 14:28:55.343420,-386.0
2023-12-20 14:28:55.351109,-2.0
2023-12-20 14:28:55.358798,247.0
2023-12-20 14:28:55.366487,224.0
2023-12-20 14:28:55.374176,154.0
2023-12-20 14:28:55.381865,83.0
2023-12-20 14:28:55.389554,-26.0
2023-12-20 14:28:55.397243,-88.0
2023-12-20 14:28:55.404932,-104.0
2023-12-20 14:28:55.412621,-116.0
2023-12-20 14:28:55.420310,-121.0
2023-12-20 14:28:55.427999,-121.0
2023-12-20 14:28:55.435688,-126.0
2023-12-20 14:28:55.443377,-131.0
2023-12-20 14:28:55.451066,-135.0
2023-12-20 14:28:55.458755,-135.0
2023-12-20 14:28:55.466444,-140.0
2023-12-20 14:28:55.474133,-150.0
2023-12-20 14:28:55.481822,-147.0
2023-12-20 14:28:55.489511,-147.0
2023-12-20 14:28:55.497200,-157.0
2023-12-20 14:28:55.504889,-154.0
2023-12-20 14:28:55.512578,-143.0
2023-12-20 14:28:55.520267,-140.0
2023-12-20 14:28:55.527956,-135.0
2023-12-20 14:28:55.535645,-128.0
2023-12-20 14:28:55.543334,-123.0
2023-12-20 14:28:55.551023,-114.0
2023-12-20 14:28:55.558712,-102.0
2023-12-20 14:28:55.566401,-92.0
2023-12-20 14:28:55.574090,-76.0
2023-12-20 14:28:55.581779,-59.0
2023-12-20 14:28:55.589468,-42.0
2023-12-20 14:28:55.597157,-26.0
2023-12-20 14:28:55.604846,-14.0
2023-12-20 14:28:55.612535,-11.0
2023-12-20 14:28:55.620224,-7.0
2023-12-20 14:28:55.627913,-4.0
2023-12-20 14:28:55.635602,-7.0
2023-12-20 14:28:55.643291,-2.0
2023-12-20 14:28:55.650980,2.0
2023-12-20 14:28:55.658669,0.0
2023-12-20 14:28:55.666358,-4.0
2023-12-20 14:28:55.674046,-11.0
2023-12-20 14:28:55.681735,-19.0
2023-12-20 14:28:55.689424,-4.0
2023-12-20 14:28:55.697113,7.0
2023-12-20 14:28:55.704802,0.0
2023-12-20 14:28:55.712491,-14.0
2023-12-20 14:28:55.720180,-21.0
2023-12-20 14:28:55.727869,-14.0
2023-12-20 14:28:55.735558,-7.0
2023-12-20 14:28:55.743247,-2.0
2023-12-20 14:28:55.750936,2.0
2023-12-20 14:28:55.758625,2.0
2023-12-20 14:28:55.766314,-2.0
2023-12-20 14:28:55.774003,-4.0
2023-12-20 14:28:55.781692,0.0
2023-12-20 14:28:55.789381,4.0
2023-12-20 14:28:55.797070,4.0
2023-12-20 14:28:55.804759,2.0
2023-12-20 14:28:55.812448,2.0
2023-12-20 14:28:55.820137,-9.0
2023-12-20 14:28:55.827826,-23.0
2023-12-20 14:28:55.835515,-42.0
2023-12-20 14:28:55.843204,-57.0
2023-12-20 14:28:55.850893,-57.0
2023-12-20 14:28:55.858582,-54.0
2023-12-20 14:28:55.866271,-54.0
2023-12-20 14:28:55.873960,-33.0
2023-12-20 14:28:55.881649,-16.0
2023-12-20 14:28:55.889338,-21.0
2023-12-20 14:28:55.897027,-26.0
2023-12-20 14:28:55.904716,-23.0
2023-12-20 14:28:55.912405,-26.0
2023-12-20 14:28:55.920094,-23.0
2023-12-20 14:28:55.927783,-19.0
2023-12-20 14:28:55.935472,-61.0
2023-12-20 14:28:55.943161,-212.0
2023-12-20 14:28:55.950850,-402.0
2023-12-20 14:28:55.958539,-360.0
2023-12-20 14:28:55.966228,-14.0
2023-12-20 14:28:55.973917,259.0
2023-12-20 14:28:55.981606,274.0
2023-12-20 14:28:55.989295,185.0
2023-12-20 14:28:55.996984,76.0
2023-12-20 14:28:56.004673,-40.0
2023-12-20 14:28:56.012362,-104.0
2023-12-20 14:28:56.020051,-104.0
2023-12-20 14:28:56.027740,-104.0
2023-12-20 14:28:56.035429,-119.0
2023-12-20 14:28:56.043118,-126.0
2023-12-20 14:28:56.050807,-119.0
2023-12-20 14:28:56.058496,-114.0
2023-12-20 14:28:56.066185,-109.0
2023-12-20 14:28:56.073874,-114.0
2023-12-20 14:28:56.081563,-126.0
2023-12-20 14:28:56.089252,-128.0
2023-12-20 14:28:56.096941,-123.0
2023-12-20 14:28:56.104630,-123.0
2023-12-20 14:28:56.112319,-131.0
2023-12-20 14:28:56.120008,-133.0
2023-12-20 14:28:56.127697,-126.0
2023-12-20 14:28:56.135386,-123.0
2023-12-20 14:28:56.143075,-119.0
2023-12-20 14:28:56.150764,-112.0
2023-12-20 14:28:56.158453,-102.0
2023-12-20 14:28:56.166142,-102.0
2023-12-20 14:28:56.173830,-107.0
2023-12-20 14:28:56.181519,-95.0
2023-12-20 14:28:56.189208,-78.0
2023-12-20 14:28:56.196897,-64.0
2023-12-20 14:28:56.204586,-47.0
2023-12-20 14:28:56.212275,-38.0
2023-12-20 14:28:56.219964,-28.0
2023-12-20 14:28:56.227653,-19.0
2023-12-20 14:28:56.235342,-11.0
2023-12-20 14:28:56.243031,-9.0
2023-12-20 14:28:56.250720,-7.0
2023-12-20 14:28:56.258409,-9.0
2023-12-20 14:28:56.266098,-9.0
2023-12-20 14:28:56.273787,-9.0
2023-12-20 14:28:56.281476,-19.0
2023-12-20 14:28:56.289165,-14.0
2023-12-20 14:28:56.296854,-7.0
2023-12-20 14:28:56.304543,-14.0
2023-12-20 14:28:56.312232,-14.0
2023-12-20 14:28:56.319921,-9.0
2023-12-20 14:28:56.327610,-19.0
2023-12-20 14:28:56.335299,-23.0
2023-12-20 14:28:56.342988,-30.0
2023-12-20 14:28:56.350677,-42.0
2023-12-20 14:28:56.358366,-35.0
2023-12-20 14:28:56.366055,-28.0
2023-12-20 14:28:56.373744,-33.0
2023-12-20 14:28:56.381433,-28.0
2023-12-20 14:28:56.389122,-19.0
2023-12-20 14:28:56.396811,-28.0
2023-12-20 14:28:56.404500,-30.0
2023-12-20 14:28:56.412189,-26.0
2023-12-20 14:28:56.419878,-30.0
2023-12-20 14:28:56.427567,-42.0
2023-12-20 14:28:56.435256,-47.0
2023-12-20 14:28:56.442945,-54.0
2023-12-20 14:28:56.450634,-66.0
2023-12-20 14:28:56.458323,-78.0
2023-12-20 14:28:56.466012,-76.0
2023-12-20 14:28:56.473701,-59.0
2023-12-20 14:28:56.481390,-45.0
2023-12-20 14:28:56.489079,-42.0
2023-12-20 14:28:56.496768,-38.0
2023-12-20 14:28:56.504457,-33.0
2023-12-20 14:28:56.512146,-40.0
2023-12-20 14:28:56.519835,-47.0
2023-12-20 14:28:56.527524,-50.0
2023-12-20 14:28:56.535213,-71.0
2023-12-20 14:28:56.542902,-138.0
2023-12-20 14:28:56.550591,-300.0
2023-12-20 14:28:56.558280,-488.0
2023-12-20 14:28:56.565969,-402.0
2023-12-20 14:28:56.573658,-16.0
2023-12-20 14:28:56.581347,250.0
2023-12-20 14:28:56.589036,247.0
2023-12-20 14:28:56.596725,190.0
2023-12-20 14:28:56.604414,107.0
2023-12-20 14:28:56.612103,-33.0
2023-12-20 14:28:56.619792,-114.0
2023-12-20 14:28:56.627481,-107.0
2023-12-20 14:28:56.635170,-95.0
2023-12-20 14:28:56.642859,-107.0
2023-12-20 14:28:56.650548,-116.0
2023-12-20 14:28:56.658237,-119.0
2023-12-20 14:28:56.665926,-126.0
2023-12-20 14:28:56.673615,-126.0
2023-12-20 14:28:56.681303,-116.0
2023-12-20 14:28:56.688992,-119.0
2023-12-20 14:28:56.696681,-131.0
2023-12-20 14:28:56.704370,-145.0
2023-12-20 14:28:56.712059,-152.0
2023-12-20 14:28:56.719748,-143.0
2023-12-20 14:28:56.727437,-131.0
2023-12-20 14:28:56.735126,-135.0
2023-12-20 14:28:56.742815,-143.0
2023-12-20 14:28:56.750504,-138.0
2023-12-20 14:28:56.758193,-128.0
2023-12-20 14:28:56.765882,-114.0
2023-12-20 14:28:56.773571,-92.0
2023-12-20 14:28:56.781260,-88.0
2023-12-20 14:28:56.788949,-92.0
2023-12-20 14:28:56.796638,-76.0
2023-12-20 14:28:56.804327,-61.0
2023-12-20 14:28:56.812016,-47.0
2023-12-20 14:28:56.819705,-28.0
2023-12-20 14:28:56.827394,-16.0
2023-12-20 14:28:56.835083,-14.0
2023-12-20 14:28:56.842772,-16.0
2023-12-20 14:28:56.850461,-23.0
2023-12-20 14:28:56.858150,-21.0
2023-12-20 14:28:56.865839,-14.0
2023-12-20 14:28:56.873528,-19.0
2023-12-20 14:28:56.881217,-28.0
2023-12-20 14:28:56.888906,-23.0
2023-12-20 14:28:56.896595,-11.0
2023-12-20 14:28:56.904284,-9.0
2023-12-20 14:28:56.911973,-16.0
2023-12-20 14:28:56.919662,-21.0
2023-12-20 14:28:56.927351,-19.0
2023-12-20 14:28:56.935040,-19.0
2023-12-20 14:28:56.942729,-21.0
2023-12-20 14:28:56.950418,-26.0
2023-12-20 14:28:56.958107,-21.0
2023-12-20 14:28:56.965796,-14.0
2023-12-20 14:28:56.973485,-19.0
2023-12-20 14:28:56.981174,-21.0
2023-12-20 14:28:56.988863,-11.0
2023-12-20 14:28:56.996552,-9.0
2023-12-20 14:28:57.004241,-19.0
2023-12-20 14:28:57.011930,-21.0
2023-12-20 14:28:57.019619,-21.0
2023-12-20 14:28:57.027308,-23.0
2023-12-20 14:28:57.034997,-30.0
2023-12-20 14:28:57.042686,-35.0
2023-12-20 14:28:57.050375,-45.0
2023-12-20 14:28:57.058064,-54.0
2023-12-20 14:28:57.065753,-69.0
2023-12-20 14:28:57.073442,-81.0
2023-12-20 14:28:57.081131,-66.0
2023-12-20 14:28:57.088820,-42.0
2023-12-20 14:28:57.096509,-50.0
2023-12-20 14:28:57.104198,-52.0
2023-12-20 14:28:57.111887,-40.0
2023-12-20 14:28:57.119576,-40.0
2023-12-20 14:28:57.127265,-42.0
2023-12-20 14:28:57.134954,-38.0
2023-12-20 14:28:57.142643,-54.0
2023-12-20 14:28:57.150332,-176.0
2023-12-20 14:28:57.158021,-400.0
2023-12-20 14:28:57.165710,-474.0
2023-12-20 14:28:57.173399,-183.0
2023-12-20 14:28:57.181087,193.0
2023-12-20 14:28:57.188776,290.0
2023-12-20 14:28:57.196465,221.0
2023-12-20 14:28:57.204154,140.0
2023-12-20 14:28:57.211843,16.0
2023-12-20 14:28:57.219532,-78.0
2023-12-20 14:28:57.227221,-92.0
2023-12-20 14:28:57.234910,-78.0
2023-12-20 14:28:57.242599,-88.0
2023-12-20 14:28:57.250288,-109.0
2023-12-20 14:28:57.257977,-104.0
2023-12-20 14:28:57.265666,-95.0
2023-12-20 14:28:57.273355,-102.0
2023-12-20 14:28:57.281044,-102.0
2023-12-20 14:28:57.288733,-100.0
2023-12-20 14:28:57.296422,-112.0
2023-12-20 14:28:57.304111,-116.0
2023-12-20 14:28:57.311800,-109.0
2023-12-20 14:28:57.319489,-109.0
2023-12-20 14:28:57.327178,-114.0
2023-12-20 14:28:57.334867,-114.0
2023-12-20 14:28:57.342556,-121.0
2023-12-20 14:28:57.350245,-133.0
2023-12-20 14:28:57.357934,-119.0
2023-12-20 14:28:57.365623,-102.0
2023-12-20 14:28:57.373312,-100.0
2023-12-20 14:28:57.381001,-88.0
2023-12-20 14:28:57.388690,-76.0
2023-12-20 14:28:57.396379,-73.0
2023-12-20 14:28:57.404068,-61.0
2023-12-20 14:28:57.411757,-42.0
2023-12-20 14:28:57.419446,-16.0
2023-12-20 14:28:57.427135,-2.0
2023-12-20 14:28:57.434824,-14.0
2023-12-20 14:28:57.442513,-26.0
2023-12-20 14:28:57.450202,-11.0
2023-12-20 14:28:57.457891,0.0
2023-12-20 14:28:57.465580,-4.0
2023-12-20 14:28:57.473269,-11.0
2023-12-20 14:28:57.480958,-14.0
2023-12-20 14:28:57.488647,-11.0
2023-12-20 14:28:57.496336,-7.0
2023-12-20 14:28:57.504025,-2.0
2023-12-20 14:28:57.511714,-2.0
2023-12-20 14:28:57.519403,-11.0
2023-12-20 14:28:57.527092,-9.0
2023-12-20 14:28:57.534781,0.0
2023-12-20 14:28:57.542470,-9.0
2023-12-20 14:28:57.550159,-14.0
2023-12-20 14:28:57.557848,0.0
2023-12-20 14:28:57.565537,0.0
2023-12-20 14:28:57.573226,-9.0
2023-12-20 14:28:57.580915,-9.0
2023-12-20 14:28:57.588604,-4.0
2023-12-20 14:28:57.596293,7.0
2023-12-20 14:28:57.603982,11.0
2023-12-20 14:28:57.611671,0.0
2023-12-20 14:28:57.619360,-14.0
2023-12-20 14:28:57.627049,-16.0
2023-12-20 14:28:57.634738,-16.0
2023-12-20 14:28:57.642427,-28.0
2023-12-20 14:28:57.650116,-50.0
2023-12-20 14:28:57.657805,-76.0
2023-12-20 14:28:57.665494,-83.0
2023-12-20 14:28:57.673183,-71.0
2023-12-20 14:28:57.680871,-57.0
2023-12-20 14:28:57.688560,-40.0
2023-12-20 14:28:57.696249,-40.0
2023-12-20 14:28:57.703938,-52.0
2023-12-20 14:28:57.711627,-47.0
2023-12-20 14:28:57.719316,-40.0
2023-12-20 14:28:57.727005,-40.0
2023-12-20 14:28:57.734694,-40.0
2023-12-20 14:28:57.742383,-71.0
2023-12-20 14:28:57.750072,-207.0
2023-12-20 14:28:57.757761,-417.0
2023-12-20 14:28:57.765450,-453.0
2023-12-20 14:28:57.773139,-140.0
2023-12-20 14:28:57.780828,216.0
2023-12-20 14:28:57.788517,283.0
2023-12-20 14:28:57.796206,207.0
2023-12-20 14:28:57.803895,131.0
2023-12-20 14:28:57.811584,14.0
2023-12-20 14:28:57.819273,-78.0
2023-12-20 14:28:57.826962,-92.0
2023-12-20 14:28:57.834651,-90.0
2023-12-20 14:28:57.842340,-104.0
2023-12-20 14:28:57.850029,-121.0
2023-12-20 14:28:57.857718,-128.0
2023-12-20 14:28:57.865407,-119.0
2023-12-20 14:28:57.873096,-116.0
2023-12-20 14:28:57.880785,-126.0
2023-12-20 14:28:57.888474,-123.0
2023-12-20 14:28:57.896163,-114.0
2023-12-20 14:28:57.903852,-123.0
2023-12-20 14:28:57.911541,-138.0
2023-12-20 14:28:57.919230,-128.0
2023-12-20 14:28:57.926919,-119.0
2023-12-20 14:28:57.934608,-133.0
2023-12-20 14:28:57.942297,-147.0
2023-12-20 14:28:57.949986,-133.0
2023-12-20 14:28:57.957675,-119.0
2023-12-20 14:28:57.965364,-109.0
2023-12-20 14:28:57.973053,-97.0
2023-12-20 14:28:57.980742,-95.0
2023-12-20 14:28:57.988431,-92.0
2023-12-20 14:28:57.996120,-81.0
2023-12-20 14:28:58.003809,-66.0
2023-12-20 14:28:58.011498,-54.0
2023-12-20 14:28:58.019187,-30.0
2023-12-20 14:28:58.026876,-14.0
2023-12-20 14:28:58.034565,-11.0
2023-12-20 14:28:58.042254,-9.0
2023-12-20 14:28:58.049943,-2.0
2023-12-20 14:28:58.057632,-2.0
2023-12-20 14:28:58.065321,-9.0
2023-12-20 14:28:58.073010,-11.0
2023-12-20 14:28:58.080699,-9.0
2023-12-20 14:28:58.088388,-4.0
2023-12-20 14:28:58.096077,-2.0
2023-12-20 14:28:58.103766,-11.0
2023-12-20 14:28:58.111455,-23.0
2023-12-20 14:28:58.119144,-14.0
2023-12-20 14:28:58.126833,-2.0
2023-12-20 14:28:58.134522,-7.0
2023-12-20 14:28:58.142211,-9.0
2023-12-20 14:28:58.149900,-11.0
2023-12-20 14:28:58.157589,-19.0
2023-12-20 14:28:58.165278,-19.0
2023-12-20 14:28:58.172967,-9.0
2023-12-20 14:28:58.180656,-9.0
2023-12-20 14:28:58.188344,-28.0
2023-12-20 14:28:58.196033,-52.0
2023-12-20 14:28:58.203722,-59.0
2023-12-20 14:28:58.211411,-50.0
2023-12-20 14:28:58.219100,-52.0
2023-12-20 14:28:58.226789,-66.0
2023-12-20 14:28:58.234478,-71.0
2023-12-20 14:28:58.242167,-76.0
2023-12-20 14:28:58.249856,-88.0
2023-12-20 14:28:58.257545,-81.0
2023-12-20 14:28:58.265234,-61.0
2023-12-20 14:28:58.272923,-47.0
2023-12-20 14:28:58.280612,-40.0
2023-12-20 14:28:58.288301,-45.0
2023-12-20 14:28:58.295990,-45.0
2023-12-20 14:28:58.303679,-45.0
2023-12-20 14:28:58.311368,-45.0
2023-12-20 14:28:58.319057,-30.0
2023-12-20 14:28:58.326746,-30.0
2023-12-20 14:28:58.334435,-59.0
2023-12-20 14:28:58.342124,-143.0
2023-12-20 14:28:58.349813,-329.0
2023-12-20 14:28:58.357502,-469.0
2023-12-20 14:28:58.365191,-283.0
2023-12-20 14:28:58.372880,100.0
2023-12-20 14:28:58.380569,267.0
2023-12-20 14:28:58.388258,221.0
2023-12-20 14:28:58.395947,150.0
2023-12-20 14:28:58.403636,45.0
2023-12-20 14:28:58.411325,-69.0
2023-12-20 14:28:58.419014,-107.0
2023-12-20 14:28:58.426703,-95.0
2023-12-20 14:28:58.434392,-100.0
2023-12-20 14:28:58.442081,-112.0
2023-12-20 14:28:58.449770,-121.0
2023-12-20 14:28:58.457459,-128.0
2023-12-20 14:28:58.465148,-128.0
2023-12-20 14:28:58.472837,-123.0
2023-12-20 14:28:58.480526,-121.0
2023-12-20 14:28:58.488215,-116.0
2023-12-20 14:28:58.495904,-119.0
2023-12-20 14:28:58.503593,-126.0
2023-12-20 14:28:58.511282,-128.0
2023-12-20 14:28:58.518971,-126.0
2023-12-20 14:28:58.526660,-123.0
2023-12-20 14:28:58.534349,-119.0
2023-12-20 14:28:58.542038,-116.0
2023-12-20 14:28:58.549727,-112.0
2023-12-20 14:28:58.557416,-102.0
2023-12-20 14:28:58.565105,-100.0
2023-12-20 14:28:58.572794,-97.0
2023-12-20 14:28:58.580483,-83.0
2023-12-20 14:28:58.588172,-71.0
2023-12-20 14:28:58.595861,-61.0
2023-12-20 14:28:58.603550,-50.0
2023-12-20 14:28:58.611239,-33.0
2023-12-20 14:28:58.618928,-11.0
2023-12-20 14:28:58.626617,-2.0
2023-12-20 14:28:58.634306,-7.0
2023-12-20 14:28:58.641995,-4.0
2023-12-20 14:28:58.649684,7.0
2023-12-20 14:28:58.657373,4.0
2023-12-20 14:28:58.665062,-7.0
2023-12-20 14:28:58.672751,-14.0
2023-12-20 14:28:58.680440,-14.0
2023-12-20 14:28:58.688128,-14.0
2023-12-20 14:28:58.695817,-16.0
2023-12-20 14:28:58.703506,-14.0
2023-12-20 14:28:58.711195,-4.0
2023-12-20 14:28:58.718884,-11.0
2023-12-20 14:28:58.726573,-23.0
2023-12-20 14:28:58.734262,-19.0
2023-12-20 14:28:58.741951,-11.0
2023-12-20 14:28:58.749640,-9.0
2023-12-20 14:28:58.757329,-4.0
2023-12-20 14:28:58.765018,-4.0
2023-12-20 14:28:58.772707,-7.0
2023-12-20 14:28:58.780396,-23.0
2023-12-20 14:28:58.788085,-42.0
2023-12-20 14:28:58.795774,-42.0
2023-12-20 14:28:58.803463,-30.0
2023-12-20 14:28:58.811152,-28.0
2023-12-20 14:28:58.818841,-40.0
2023-12-20 14:28:58.826530,-66.0
2023-12-20 14:28:58.834219,-88.0
2023-12-20 14:28:58.841908,-85.0
2023-12-20 14:28:58.849597,-85.0
2023-12-20 14:28:58.857286,-102.0
2023-12-20 14:28:58.864975,-104.0
2023-12-20 14:28:58.872664,-78.0
2023-12-20 14:28:58.880353,-61.0
2023-12-20 14:28:58.888042,-57.0
2023-12-20 14:28:58.895731,-50.0
2023-12-20 14:28:58.903420,-50.0
2023-12-20 14:28:58.911109,-57.0
2023-12-20 14:28:58.918798,-57.0
2023-12-20 14:28:58.926487,-59.0
2023-12-20 14:28:58.934176,-109.0
2023-12-20 14:28:58.941865,-262.0
2023-12-20 14:28:58.949554,-438.0
2023-12-20 14:28:58.957243,-367.0
2023-12-20 14:28:58.964932,4.0
2023-12-20 14:28:58.972621,276.0
2023-12-20 14:28:58.980310,269.0
2023-12-20 14:28:58.987999,193.0
2023-12-20 14:28:58.995688,109.0
2023-12-20 14:28:59.003377,-19.0
2023-12-20 14:28:59.011066,-95.0
2023-12-20 14:28:59.018755,-85.0
2023-12-20 14:28:59.026444,-76.0
2023-12-20 14:28:59.034133,-85.0
2023-12-20 14:28:59.041822,-97.0
2023-12-20 14:28:59.049511,-116.0
2023-12-20 14:28:59.057200,-119.0
2023-12-20 14:28:59.064889,-114.0
2023-12-20 14:28:59.072578,-123.0
2023-12-20 14:28:59.080267,-119.0
2023-12-20 14:28:59.087956,-114.0
2023-12-20 14:28:59.095645,-126.0
2023-12-20 14:28:59.103334,-128.0
2023-12-20 14:28:59.111023,-112.0
2023-12-20 14:28:59.118712,-114.0
2023-12-20 14:28:59.126401,-126.0
2023-12-20 14:28:59.134090,-116.0
2023-12-20 14:28:59.141779,-107.0
2023-12-20 14:28:59.149468,-109.0
2023-12-20 14:28:59.157157,-109.0
2023-12-20 14:28:59.164846,-114.0
2023-12-20 14:28:59.172535,-104.0
2023-12-20 14:28:59.180224,-88.0
2023-12-20 14:28:59.187912,-85.0
2023-12-20 14:28:59.195601,-78.0
2023-12-20 14:28:59.203290,-50.0
2023-12-20 14:28:59.210979,-23.0
2023-12-20 14:28:59.218668,-19.0
2023-12-20 14:28:59.226357,-21.0
2023-12-20 14:28:59.234046,-23.0
2023-12-20 14:28:59.241735,-19.0
2023-12-20 14:28:59.249424,-11.0
2023-12-20 14:28:59.257113,-9.0
2023-12-20 14:28:59.264802,-4.0
2023-12-20 14:28:59.272491,-11.0
2023-12-20 14:28:59.280180,-16.0
2023-12-20 14:28:59.287869,-11.0
2023-12-20 14:28:59.295558,-7.0
2023-12-20 14:28:59.303247,-14.0
2023-12-20 14:28:59.310936,-19.0
2023-12-20 14:28:59.318625,-19.0
2023-12-20 14:28:59.326314,-26.0
2023-12-20 14:28:59.334003,-26.0
2023-12-20 14:28:59.341692,-14.0
2023-12-20 14:28:59.349381,-14.0
2023-12-20 14:28:59.357070,-30.0
2023-12-20 14:28:59.364759,-61.0
2023-12-20 14:28:59.372448,-78.0
2023-12-20 14:28:59.380137,-66.0
2023-12-20 14:28:59.387826,-64.0
2023-12-20 14:28:59.395515,-69.0
2023-12-20 14:28:59.403204,-64.0
2023-12-20 14:28:59.410893,-66.0
2023-12-20 14:28:59.418582,-81.0
2023-12-20 14:28:59.426271,-81.0
2023-12-20 14:28:59.433960,-71.0
2023-12-20 14:28:59.441649,-69.0
2023-12-20 14:28:59.449338,-76.0
2023-12-20 14:28:59.457027,-92.0
2023-12-20 14:28:59.464716,-90.0
2023-12-20 14:28:59.472405,-76.0
2023-12-20 14:28:59.480094,-73.0
2023-12-20 14:28:59.487783,-71.0
2023-12-20 14:28:59.495472,-64.0
2023-12-20 14:28:59.503161,-64.0
2023-12-20 14:28:59.510850,-83.0
2023-12-20 14:28:59.518539,-157.0
2023-12-20 14:28:59.526228,-331.0
2023-12-20 14:28:59.533917,-484.0
2023-12-20 14:28:59.541606,-324.0
2023-12-20 14:28:59.549295,64.0
2023-12-20 14:28:59.556984,252.0
2023-12-20 14:28:59.564673,228.0
2023-12-20 14:28:59.572362,193.0
2023-12-20 14:28:59.580051,114.0
2023-12-20 14:28:59.587740,-23.0
2023-12-20 14:28:59.595429,-97.0
2023-12-20 14:28:59.603118,-88.0
2023-12-20 14:28:59.610807,-88.0
2023-12-20 14:28:59.618496,-112.0
2023-12-20 14:28:59.626185,-114.0
2023-12-20 14:28:59.633874,-104.0
2023-12-20 14:28:59.641563,-119.0
2023-12-20 14:28:59.649252,-128.0
2023-12-20 14:28:59.656941,-123.0
2023-12-20 14:28:59.664630,-140.0
2023-12-20 14:28:59.672319,-166.0
2023-12-20 14:28:59.680008,-164.0
2023-12-20 14:28:59.687697,-154.0
2023-12-20 14:28:59.695385,-152.0
2023-12-20 14:28:59.703074,-145.0
2023-12-20 14:28:59.710763,-145.0
2023-12-20 14:28:59.718452,-143.0
2023-12-20 14:28:59.726141,-128.0
2023-12-20 14:28:59.733830,-123.0
2023-12-20 14:28:59.741519,-123.0
2023-12-20 14:28:59.749208,-112.0
2023-12-20 14:28:59.756897,-102.0
2023-12-20 14:28:59.764586,-95.0
2023-12-20 14:28:59.772275,-81.0
2023-12-20 14:28:59.779964,-73.0
2023-12-20 14:28:59.787653,-66.0
2023-12-20 14:28:59.795342,-40.0
2023-12-20 14:28:59.803031,-19.0
2023-12-20 14:28:59.810720,-16.0
2023-12-20 14:28:59.818409,-16.0
2023-12-20 14:28:59.826098,-19.0
2023-12-20 14:28:59.833787,-19.0
2023-12-20 14:28:59.841476,-9.0
2023-12-20 14:28:59.849165,-14.0
2023-12-20 14:28:59.856854,-23.0
2023-12-20 14:28:59.864543,-30.0
2023-12-20 14:28:59.872232,-42.0
2023-12-20 14:28:59.879921,-42.0
2023-12-20 14:28:59.887610,-30.0
2023-12-20 14:28:59.895299,-28.0
2023-12-20 14:28:59.902988,-40.0
2023-12-20 14:28:59.910677,-42.0
2023-12-20 14:28:59.918366,-38.0
2023-12-20 14:28:59.926055,-35.0
2023-12-20 14:28:59.933744,-28.0
2023-12-20 14:28:59.941433,-21.0
2023-12-20 14:28:59.949122,-45.0
2023-12-20 14:28:59.956811,-69.0
2023-12-20 14:28:59.964500,-61.0
2023-12-20 14:28:59.972189,-54.0
2023-12-20 14:28:59.979878,-52.0
2023-12-20 14:28:59.987567,-47.0
2023-12-20 14:28:59.995256,-59.0
2023-12-20 14:29:00.002945,-69.0
2023-12-20 14:29:00.010634,-61.0
2023-12-20 14:29:00.018323,-61.0
2023-12-20 14:29:00.026012,-57.0
2023-12-20 14:29:00.033701,-35.0
2023-12-20 14:29:00.041390,-21.0
2023-12-20 14:29:00.049079,-28.0
2023-12-20 14:29:00.056768,-35.0
2023-12-20 14:29:00.064457,-38.0
2023-12-20 14:29:00.072146,-38.0
2023-12-20 14:29:00.079835,-38.0
2023-12-20 14:29:00.087524,-42.0
2023-12-20 14:29:00.095213,-59.0
2023-12-20 14:29:00.102902,-150.0
2023-12-20 14:29:00.110591,-350.0
2023-12-20 14:29:00.118280,-469.0
2023-12-20 14:29:00.125969,-247.0
2023-12-20 14:29:00.133658,147.0
2023-12-20 14:29:00.141347,307.0
2023-12-20 14:29:00.149036,243.0
2023-12-20 14:29:00.156725,166.0
2023-12-20 14:29:00.164414,73.0
2023-12-20 14:29:00.172103,-35.0
2023-12-20 14:29:00.179792,-78.0
2023-12-20 14:29:00.187481,-66.0
2023-12-20 14:29:00.195169,-76.0
2023-12-20 14:29:00.202858,-85.0
2023-12-20 14:29:00.210547,-73.0
2023-12-20 14:29:00.218236,-73.0
2023-12-20 14:29:00.225925,-97.0
2023-12-20 14:29:00.233614,-104.0
2023-12-20 14:29:00.241303,-102.0
2023-12-20 14:29:00.248992,-119.0
2023-12-20 14:29:00.256681,-126.0
2023-12-20 14:29:00.264370,-121.0
2023-12-20 14:29:00.272059,-126.0
2023-12-20 14:29:00.279748,-133.0
2023-12-20 14:29:00.287437,-128.0
2023-12-20 14:29:00.295126,-119.0
2023-12-20 14:29:00.302815,-121.0
2023-12-20 14:29:00.310504,-119.0
2023-12-20 14:29:00.318193,-104.0
2023-12-20 14:29:00.325882,-97.0
2023-12-20 14:29:00.333571,-104.0
2023-12-20 14:29:00.341260,-97.0
2023-12-20 14:29:00.348949,-73.0
2023-12-20 14:29:00.356638,-71.0
2023-12-20 14:29:00.364327,-78.0
2023-12-20 14:29:00.372016,-66.0
2023-12-20 14:29:00.379705,-45.0
2023-12-20 14:29:00.387394,-38.0
2023-12-20 14:29:00.395083,-40.0
2023-12-20 14:29:00.402772,-42.0
2023-12-20 14:29:00.410461,-38.0
2023-12-20 14:29:00.418150,-26.0
2023-12-20 14:29:00.425839,-26.0
2023-12-20 14:29:00.433528,-30.0
2023-12-20 14:29:00.441217,-45.0
2023-12-20 14:29:00.448906,-73.0
2023-12-20 14:29:00.456595,-73.0
2023-12-20 14:29:00.464284,-50.0
2023-12-20 14:29:00.471973,-42.0
2023-12-20 14:29:00.479662,-57.0
2023-12-20 14:29:00.487351,-73.0
2023-12-20 14:29:00.495040,-88.0
2023-12-20 14:29:00.502729,-83.0
2023-12-20 14:29:00.510418,-69.0
2023-12-20 14:29:00.518107,-61.0
2023-12-20 14:29:00.525796,-64.0
2023-12-20 14:29:00.533485,-78.0
2023-12-20 14:29:00.541174,-95.0
2023-12-20 14:29:00.548863,-83.0
2023-12-20 14:29:00.556552,-61.0
2023-12-20 14:29:00.564241,-66.0
2023-12-20 14:29:00.571930,-81.0
2023-12-20 14:29:00.579619,-85.0
2023-12-20 14:29:00.587308,-85.0
2023-12-20 14:29:00.594997,-90.0
2023-12-20 14:29:00.602686,-88.0
2023-12-20 14:29:00.610375,-71.0
2023-12-20 14:29:00.618064,-47.0
2023-12-20 14:29:00.625753,-38.0
2023-12-20 14:29:00.633442,-42.0
2023-12-20 14:29:00.641131,-42.0
2023-12-20 14:29:00.648820,-47.0
2023-12-20 14:29:00.656509,-59.0
2023-12-20 14:29:00.664198,-64.0
2023-12-20 14:29:00.671887,-59.0
2023-12-20 14:29:00.679576,-95.0
2023-12-20 14:29:00.687265,-247.0
2023-12-20 14:29:00.694953,-450.0
2023-12-20 14:29:00.702642,-422.0
2023-12-20 14:29:00.710331,-66.0
2023-12-20 14:29:00.718020,240.0
2023-12-20 14:29:00.725709,269.0
2023-12-20 14:29:00.733398,205.0
2023-12-20 14:29:00.741087,123.0
2023-12-20 14:29:00.748776,2.0
2023-12-20 14:29:00.756465,-69.0
2023-12-20 14:29:00.764154,-73.0
2023-12-20 14:29:00.771843,-66.0
2023-12-20 14:29:00.779532,-78.0
2023-12-20 14:29:00.787221,-88.0
2023-12-20 14:29:00.794910,-83.0
2023-12-20 14:29:00.802599,-88.0
2023-12-20 14:29:00.810288,-92.0
2023-12-20 14:29:00.817977,-85.0
2023-12-20 14:29:00.825666,-88.0
2023-12-20 14:29:00.833355,-97.0
2023-12-20 14:29:00.841044,-102.0
2023-12-20 14:29:00.848733,-121.0
2023-12-20 14:29:00.856422,-133.0
2023-12-20 14:29:00.864111,-126.0
2023-12-20 14:29:00.871800,-140.0
2023-12-20 14:29:00.879489,-157.0
2023-12-20 14:29:00.887178,-150.0
2023-12-20 14:29:00.894867,-147.0
2023-12-20 14:29:00.902556,-143.0
2023-12-20 14:29:00.910245,-126.0
2023-12-20 14:29:00.917934,-109.0
2023-12-20 14:29:00.925623,-100.0
2023-12-20 14:29:00.933312,-100.0
2023-12-20 14:29:00.941001,-92.0
2023-12-20 14:29:00.948690,-66.0
2023-12-20 14:29:00.956379,-40.0
2023-12-20 14:29:00.964068,-35.0
2023-12-20 14:29:00.971757,-30.0
2023-12-20 14:29:00.979446,-30.0
2023-12-20 14:29:00.987135,-52.0
2023-12-20 14:29:00.994824,-61.0
2023-12-20 14:29:01.002513,-45.0
2023-12-20 14:29:01.010202,-38.0
2023-12-20 14:29:01.017891,-45.0
2023-12-20 14:29:01.025580,-59.0
2023-12-20 14:29:01.033269,-83.0
2023-12-20 14:29:01.040958,-85.0
2023-12-20 14:29:01.048647,-71.0
2023-12-20 14:29:01.056336,-69.0
2023-12-20 14:29:01.064025,-71.0
2023-12-20 14:29:01.071714,-64.0
2023-12-20 14:29:01.079403,-47.0
2023-12-20 14:29:01.087092,-45.0
2023-12-20 14:29:01.094781,-54.0
2023-12-20 14:29:01.102470,-50.0
2023-12-20 14:29:01.110159,-35.0
2023-12-20 14:29:01.117848,-50.0
2023-12-20 14:29:01.125537,-66.0
2023-12-20 14:29:01.133226,-54.0
2023-12-20 14:29:01.140915,-52.0
2023-12-20 14:29:01.148604,-64.0
2023-12-20 14:29:01.156293,-64.0
2023-12-20 14:29:01.163982,-66.0
2023-12-20 14:29:01.171671,-76.0
2023-12-20 14:29:01.179360,-66.0
2023-12-20 14:29:01.187049,-42.0
2023-12-20 14:29:01.194738,-23.0
2023-12-20 14:29:01.202426,-21.0
2023-12-20 14:29:01.210115,-33.0
2023-12-20 14:29:01.217804,-40.0
2023-12-20 14:29:01.225493,-30.0
2023-12-20 14:29:01.233182,-21.0
2023-12-20 14:29:01.240871,-23.0
2023-12-20 14:29:01.248560,-26.0
2023-12-20 14:29:01.256249,-76.0
2023-12-20 14:29:01.263938,-228.0
2023-12-20 14:29:01.271627,-417.0
2023-12-20 14:29:01.279316,-376.0
2023-12-20 14:29:01.287005,-26.0
2023-12-20 14:29:01.294694,264.0
2023-12-20 14:29:01.302383,274.0
2023-12-20 14:29:01.310072,197.0
2023-12-20 14:29:01.317761,121.0
2023-12-20 14:29:01.325450,14.0
2023-12-20 14:29:01.333139,-57.0
2023-12-20 14:29:01.340828,-61.0
2023-12-20 14:29:01.348517,-57.0
2023-12-20 14:29:01.356206,-64.0
2023-12-20 14:29:01.363895,-69.0
2023-12-20 14:29:01.371584,-78.0
2023-12-20 14:29:01.379273,-100.0
2023-12-20 14:29:01.386962,-112.0
2023-12-20 14:29:01.394651,-116.0
2023-12-20 14:29:01.402340,-119.0
2023-12-20 14:29:01.410029,-114.0
2023-12-20 14:29:01.417718,-109.0
2023-12-20 14:29:01.425407,-119.0
2023-12-20 14:29:01.433096,-123.0
2023-12-20 14:29:01.440785,-126.0
2023-12-20 14:29:01.448474,-131.0
2023-12-20 14:29:01.456163,-135.0
2023-12-20 14:29:01.463852,-128.0
2023-12-20 14:29:01.471541,-112.0
2023-12-20 14:29:01.479230,-112.0
2023-12-20 14:29:01.486919,-119.0
2023-12-20 14:29:01.494608,-116.0
2023-12-20 14:29:01.502297,-102.0
2023-12-20 14:29:01.509986,-83.0
2023-12-20 14:29:01.517675,-61.0
2023-12-20 14:29:01.525364,-45.0
2023-12-20 14:29:01.533053,-38.0
2023-12-20 14:29:01.540742,-35.0
2023-12-20 14:29:01.548431,-19.0
2023-12-20 14:29:01.556120,-9.0
2023-12-20 14:29:01.563809,-19.0
2023-12-20 14:29:01.571498,-40.0
2023-12-20 14:29:01.579187,-52.0
2023-12-20 14:29:01.586876,-47.0
2023-12-20 14:29:01.594565,-47.0
2023-12-20 14:29:01.602254,-45.0
2023-12-20 14:29:01.609943,-50.0
2023-12-20 14:29:01.617632,-71.0
2023-12-20 14:29:01.625321,-85.0
2023-12-20 14:29:01.633010,-78.0
2023-12-20 14:29:01.640699,-71.0
2023-12-20 14:29:01.648388,-71.0
2023-12-20 14:29:01.656077,-64.0
2023-12-20 14:29:01.663766,-59.0
2023-12-20 14:29:01.671455,-57.0
2023-12-20 14:29:01.679144,-59.0
2023-12-20 14:29:01.686833,-54.0
2023-12-20 14:29:01.694522,-47.0
2023-12-20 14:29:01.702210,-50.0
2023-12-20 14:29:01.709899,-50.0
2023-12-20 14:29:01.717588,-45.0
2023-12-20 14:29:01.725277,-42.0
2023-12-20 14:29:01.732966,-50.0
2023-12-20 14:29:01.740655,-64.0
2023-12-20 14:29:01.748344,-66.0
2023-12-20 14:29:01.756033,-61.0
2023-12-20 14:29:01.763722,-61.0
2023-12-20 14:29:01.771411,-50.0
2023-12-20 14:29:01.779100,-26.0
2023-12-20 14:29:01.786789,-16.0
2023-12-20 14:29:01.794478,-21.0
2023-12-20 14:29:01.802167,-19.0
2023-12-20 14:29:01.809856,-14.0
2023-12-20 14:29:01.817545,-14.0
2023-12-20 14:29:01.825234,-11.0
2023-12-20 14:29:01.832923,-19.0
2023-12-20 14:29:01.840612,-88.0
2023-12-20 14:29:01.848301,-259.0
2023-12-20 14:29:01.855990,-422.0
2023-12-20 14:29:01.863679,-307.0
2023-12-20 14:29:01.871368,61.0
2023-12-20 14:29:01.879057,271.0
2023-12-20 14:29:01.886746,236.0
2023-12-20 14:29:01.894435,171.0
2023-12-20 14:29:01.902124,71.0
2023-12-20 14:29:01.909813,-54.0
2023-12-20 14:29:01.917502,-88.0
2023-12-20 14:29:01.925191,-64.0
2023-12-20 14:29:01.932880,-73.0
2023-12-20 14:29:01.940569,-95.0
2023-12-20 14:29:01.948258,-88.0
2023-12-20 14:29:01.955947,-88.0
2023-12-20 14:29:01.963636,-90.0
2023-12-20 14:29:01.971325,-83.0
2023-12-20 14:29:01.979014,-83.0
2023-12-20 14:29:01.986703,-97.0
2023-12-20 14:29:01.994392,-100.0
2023-12-20 14:29:02.002081,-92.0
2023-12-20 14:29:02.009770,-97.0
2023-12-20 14:29:02.017459,-112.0
2023-12-20 14:29:02.025148,-112.0
2023-12-20 14:29:02.032837,-102.0
2023-12-20 14:29:02.040526,-109.0
2023-12-20 14:29:02.048215,-123.0
2023-12-20 14:29:02.055904,-123.0
2023-12-20 14:29:02.063593,-116.0
2023-12-20 14:29:02.071282,-114.0
2023-12-20 14:29:02.078971,-100.0
2023-12-20 14:29:02.086660,-85.0
2023-12-20 14:29:02.094349,-78.0
2023-12-20 14:29:02.102038,-71.0
2023-12-20 14:29:02.109727,-81.0
2023-12-20 14:29:02.117416,-90.0
2023-12-20 14:29:02.125105,-73.0
2023-12-20 14:29:02.132794,-59.0
2023-12-20 14:29:02.140483,-57.0
2023-12-20 14:29:02.148172,-59.0
2023-12-20 14:29:02.155861,-64.0
2023-12-20 14:29:02.163550,-61.0
2023-12-20 14:29:02.171239,-47.0
2023-12-20 14:29:02.178928,-47.0
2023-12-20 14:29:02.186617,-54.0
2023-12-20 14:29:02.194306,-52.0
2023-12-20 14:29:02.201994,-50.0
2023-12-20 14:29:02.209683,-47.0
2023-12-20 14:29:02.217372,-45.0
2023-12-20 14:29:02.225061,-47.0
2023-12-20 14:29:02.232750,-45.0
2023-12-20 14:29:02.240439,-42.0
2023-12-20 14:29:02.248128,-50.0
2023-12-20 14:29:02.255817,-47.0
2023-12-20 14:29:02.263506,-35.0
2023-12-20 14:29:02.271195,-28.0
2023-12-20 14:29:02.278884,-28.0
2023-12-20 14:29:02.286573,-30.0
2023-12-20 14:29:02.294262,-38.0
2023-12-20 14:29:02.301951,-30.0
2023-12-20 14:29:02.309640,-28.0
2023-12-20 14:29:02.317329,-42.0
2023-12-20 14:29:02.325018,-59.0
2023-12-20 14:29:02.332707,-66.0
2023-12-20 14:29:02.340396,-66.0
2023-12-20 14:29:02.348085,-59.0
2023-12-20 14:29:02.355774,-42.0
2023-12-20 14:29:02.363463,-23.0
2023-12-20 14:29:02.371152,-19.0
2023-12-20 14:29:02.378841,-30.0
2023-12-20 14:29:02.386530,-50.0
2023-12-20 14:29:02.394219,-52.0
2023-12-20 14:29:02.401908,-38.0
2023-12-20 14:29:02.409597,-35.0
2023-12-20 14:29:02.417286,-52.0
2023-12-20 14:29:02.424975,-123.0
2023-12-20 14:29:02.432664,-312.0
2023-12-20 14:29:02.440353,-486.0
2023-12-20 14:29:02.448042,-340.0
2023-12-20 14:29:02.455731,66.0
2023-12-20 14:29:02.463420,283.0
2023-12-20 14:29:02.471109,245.0
2023-12-20 14:29:02.478798,195.0
2023-12-20 14:29:02.486487,114.0
2023-12-20 14:29:02.494176,-21.0
2023-12-20 14:29:02.501865,-88.0
2023-12-20 14:29:02.509554,-83.0
2023-12-20 14:29:02.517243,-83.0
2023-12-20 14:29:02.524932,-92.0
2023-12-20 14:29:02.532621,-88.0
2023-12-20 14:29:02.540310,-85.0
2023-12-20 14:29:02.547999,-88.0
2023-12-20 14:29:02.555688,-90.0
2023-12-20 14:29:02.563377,-97.0
2023-12-20 14:29:02.571066,-95.0
2023-12-20 14:29:02.578755,-88.0
2023-12-20 14:29:02.586444,-97.0
2023-12-20 14:29:02.594133,-102.0
2023-12-20 14:29:02.601822,-100.0
2023-12-20 14:29:02.609511,-112.0
2023-12-20 14:29:02.617200,-121.0
2023-12-20 14:29:02.624889,-109.0
2023-12-20 14:29:02.632578,-102.0
2023-12-20 14:29:02.640267,-109.0
2023-12-20 14:29:02.647956,-123.0
2023-12-20 14:29:02.655645,-119.0
2023-12-20 14:29:02.663334,-97.0
2023-12-20 14:29:02.671023,-88.0
2023-12-20 14:29:02.678712,-88.0
2023-12-20 14:29:02.686401,-78.0
2023-12-20 14:29:02.694090,-81.0
2023-12-20 14:29:02.701779,-88.0
2023-12-20 14:29:02.709467,-73.0
2023-12-20 14:29:02.717156,-54.0
2023-12-20 14:29:02.724845,-50.0
2023-12-20 14:29:02.732534,-50.0
2023-12-20 14:29:02.740223,-57.0
2023-12-20 14:29:02.747912,-52.0
2023-12-20 14:29:02.755601,-35.0
2023-12-20 14:29:02.763290,-33.0
2023-12-20 14:29:02.770979,-40.0
2023-12-20 14:29:02.778668,-50.0
2023-12-20 14:29:02.786357,-59.0
2023-12-20 14:29:02.794046,-54.0
2023-12-20 14:29:02.801735,-47.0
2023-12-20 14:29:02.809424,-40.0
2023-12-20 14:29:02.817113,-35.0
2023-12-20 14:29:02.824802,-38.0
2023-12-20 14:29:02.832491,-45.0
2023-12-20 14:29:02.840180,-45.0
2023-12-20 14:29:02.847869,-38.0
2023-12-20 14:29:02.855558,-35.0
2023-12-20 14:29:02.863247,-33.0
2023-12-20 14:29:02.870936,-35.0
2023-12-20 14:29:02.878625,-42.0
2023-12-20 14:29:02.886314,-50.0
2023-12-20 14:29:02.894003,-57.0
2023-12-20 14:29:02.901692,-69.0
2023-12-20 14:29:02.909381,-73.0
2023-12-20 14:29:02.917070,-81.0
2023-12-20 14:29:02.924759,-83.0
2023-12-20 14:29:02.932448,-66.0
2023-12-20 14:29:02.940137,-47.0
2023-12-20 14:29:02.947826,-30.0
2023-12-20 14:29:02.955515,-16.0
2023-12-20 14:29:02.963204,-35.0
2023-12-20 14:29:02.970893,-42.0
2023-12-20 14:29:02.978582,-21.0
2023-12-20 14:29:02.986271,-19.0
2023-12-20 14:29:02.993960,-33.0
2023-12-20 14:29:03.001649,-30.0
2023-12-20 14:29:03.009338,-85.0
2023-12-20 14:29:03.017027,-281.0
2023-12-20 14:29:03.024716,-469.0
2023-12-20 14:29:03.032405,-343.0
2023-12-20 14:29:03.040094,54.0
2023-12-20 14:29:03.047783,288.0
2023-12-20 14:29:03.055472,269.0
2023-12-20 14:29:03.063161,200.0
2023-12-20 14:29:03.070850,107.0
2023-12-20 14:29:03.078539,-7.0
2023-12-20 14:29:03.086228,-50.0
2023-12-20 14:29:03.093917,-54.0
2023-12-20 14:29:03.101606,-76.0
2023-12-20 14:29:03.109295,-85.0
2023-12-20 14:29:03.116984,-71.0
2023-12-20 14:29:03.124673,-66.0
2023-12-20 14:29:03.132362,-78.0
2023-12-20 14:29:03.140051,-78.0
2023-12-20 14:29:03.147740,-78.0
2023-12-20 14:29:03.155429,-90.0
2023-12-20 14:29:03.163118,-92.0
2023-12-20 14:29:03.170807,-88.0
2023-12-20 14:29:03.178496,-92.0
2023-12-20 14:29:03.186185,-90.0
2023-12-20 14:29:03.193874,-90.0
2023-12-20 14:29:03.201563,-104.0
2023-12-20 14:29:03.209251,-107.0
2023-12-20 14:29:03.216940,-100.0
2023-12-20 14:29:03.224629,-90.0
2023-12-20 14:29:03.232318,-88.0
2023-12-20 14:29:03.240007,-104.0
2023-12-20 14:29:03.247696,-97.0
2023-12-20 14:29:03.255385,-69.0
2023-12-20 14:29:03.263074,-61.0
2023-12-20 14:29:03.270763,-66.0
2023-12-20 14:29:03.278452,-71.0
2023-12-20 14:29:03.286141,-78.0
2023-12-20 14:29:03.293830,-59.0
2023-12-20 14:29:03.301519,-33.0
2023-12-20 14:29:03.309208,-30.0
2023-12-20 14:29:03.316897,-35.0
2023-12-20 14:29:03.324586,-35.0
2023-12-20 14:29:03.332275,-42.0
2023-12-20 14:29:03.339964,-50.0
2023-12-20 14:29:03.347653,-47.0
2023-12-20 14:29:03.355342,-54.0
2023-12-20 14:29:03.363031,-54.0
2023-12-20 14:29:03.370720,-45.0
2023-12-20 14:29:03.378409,-52.0
2023-12-20 14:29:03.386098,-57.0
2023-12-20 14:29:03.393787,-59.0
2023-12-20 14:29:03.401476,-73.0
2023-12-20 14:29:03.409165,-71.0
2023-12-20 14:29:03.416854,-61.0
2023-12-20 14:29:03.424543,-59.0
2023-12-20 14:29:03.432232,-59.0
2023-12-20 14:29:03.439921,-66.0
2023-12-20 14:29:03.447610,-52.0
2023-12-20 14:29:03.455299,-30.0
2023-12-20 14:29:03.462988,-35.0
2023-12-20 14:29:03.470677,-47.0
2023-12-20 14:29:03.478366,-50.0
2023-12-20 14:29:03.486055,-42.0
2023-12-20 14:29:03.493744,-38.0
2023-12-20 14:29:03.501433,-54.0
2023-12-20 14:29:03.509122,-61.0
2023-12-20 14:29:03.516811,-57.0
2023-12-20 14:29:03.524500,-50.0
2023-12-20 14:29:03.532189,-33.0
2023-12-20 14:29:03.539878,-19.0
2023-12-20 14:29:03.547567,-21.0
2023-12-20 14:29:03.555256,-26.0
2023-12-20 14:29:03.562945,-16.0
2023-12-20 14:29:03.570634,-7.0
2023-12-20 14:29:03.578323,-7.0
2023-12-20 14:29:03.586012,-11.0
2023-12-20 14:29:03.593701,-50.0
2023-12-20 14:29:03.601390,-197.0
2023-12-20 14:29:03.609079,-412.0
2023-12-20 14:29:03.616768,-417.0
2023-12-20 14:29:03.624457,-81.0
2023-12-20 14:29:03.632146,247.0
2023-12-20 14:29:03.639835,290.0
2023-12-20 14:29:03.647524,216.0
2023-12-20 14:29:03.655213,133.0
2023-12-20 14:29:03.662902,7.0
2023-12-20 14:29:03.670591,-66.0
2023-12-20 14:29:03.678280,-61.0
2023-12-20 14:29:03.685969,-59.0
2023-12-20 14:29:03.693658,-64.0
2023-12-20 14:29:03.701347,-57.0
2023-12-20 14:29:03.709035,-64.0
2023-12-20 14:29:03.716724,-73.0
2023-12-20 14:29:03.724413,-73.0
2023-12-20 14:29:03.732102,-76.0
2023-12-20 14:29:03.739791,-78.0
2023-12-20 14:29:03.747480,-71.0
2023-12-20 14:29:03.755169,-78.0
2023-12-20 14:29:03.762858,-90.0
2023-12-20 14:29:03.770547,-92.0
2023-12-20 14:29:03.778236,-95.0
2023-12-20 14:29:03.785925,-97.0
2023-12-20 14:29:03.793614,-95.0
2023-12-20 14:29:03.801303,-97.0
2023-12-20 14:29:03.808992,-104.0
2023-12-20 14:29:03.816681,-112.0
2023-12-20 14:29:03.824370,-128.0
2023-12-20 14:29:03.832059,-119.0
2023-12-20 14:29:03.839748,-102.0
2023-12-20 14:29:03.847437,-114.0
2023-12-20 14:29:03.855126,-109.0
2023-12-20 14:29:03.862815,-69.0
2023-12-20 14:29:03.870504,-40.0
2023-12-20 14:29:03.878193,-40.0
2023-12-20 14:29:03.885882,-50.0
2023-12-20 14:29:03.893571,-45.0
2023-12-20 14:29:03.901260,-52.0
2023-12-20 14:29:03.908949,-81.0
2023-12-20 14:29:03.916638,-85.0
2023-12-20 14:29:03.924327,-59.0
2023-12-20 14:29:03.932016,-64.0
2023-12-20 14:29:03.939705,-81.0
2023-12-20 14:29:03.947394,-73.0
2023-12-20 14:29:03.955083,-95.0
2023-12-20 14:29:03.962772,-112.0
2023-12-20 14:29:03.970461,-81.0
2023-12-20 14:29:03.978150,-66.0
2023-12-20 14:29:03.985839,-76.0
2023-12-20 14:29:03.993528,-69.0
2023-12-20 14:29:04.001217,-85.0
2023-12-20 14:29:04.008906,-109.0
2023-12-20 14:29:04.016595,-88.0
2023-12-20 14:29:04.024284,-73.0
2023-12-20 14:29:04.031973,-85.0
2023-12-20 14:29:04.039662,-71.0
2023-12-20 14:29:04.047351,-57.0
2023-12-20 14:29:04.055040,-64.0
2023-12-20 14:29:04.062729,-69.0
2023-12-20 14:29:04.070418,-66.0
2023-12-20 14:29:04.078107,-73.0
2023-12-20 14:29:04.085796,-85.0
2023-12-20 14:29:04.093485,-85.0
2023-12-20 14:29:04.101174,-78.0
2023-12-20 14:29:04.108863,-64.0
2023-12-20 14:29:04.116552,-45.0
2023-12-20 14:29:04.124241,-42.0
2023-12-20 14:29:04.131930,-45.0
2023-12-20 14:29:04.139619,-28.0
2023-12-20 14:29:04.147308,-23.0
2023-12-20 14:29:04.154997,-28.0
2023-12-20 14:29:04.162686,-19.0
2023-12-20 14:29:04.170375,-30.0
2023-12-20 14:29:04.178064,-76.0
2023-12-20 14:29:04.185753,-178.0
2023-12-20 14:29:04.193442,-362.0
2023-12-20 14:29:04.201131,-410.0
2023-12-20 14:29:04.208820,-121.0
2023-12-20 14:29:04.216508,216.0
2023-12-20 14:29:04.224197,281.0
2023-12-20 14:29:04.231886,209.0
2023-12-20 14:29:04.239575,138.0
2023-12-20 14:29:04.247264,23.0
2023-12-20 14:29:04.254953,-66.0
2023-12-20 14:29:04.262642,-66.0
2023-12-20 14:29:04.270331,-50.0
2023-12-20 14:29:04.278020,-71.0
2023-12-20 14:29:04.285709,-83.0
2023-12-20 14:29:04.293398,-73.0
2023-12-20 14:29:04.301087,-66.0
2023-12-20 14:29:04.308776,-71.0
2023-12-20 14:29:04.316465,-76.0
2023-12-20 14:29:04.324154,-81.0
2023-12-20 14:29:04.331843,-85.0
2023-12-20 14:29:04.339532,-88.0
2023-12-20 14:29:04.347221,-104.0
2023-12-20 14:29:04.354910,-138.0
2023-12-20 14:29:04.362599,-152.0
2023-12-20 14:29:04.370288,-145.0
2023-12-20 14:29:04.377977,-133.0
2023-12-20 14:29:04.385666,-133.0
2023-12-20 14:29:04.393355,-145.0
2023-12-20 14:29:04.401044,-154.0
2023-12-20 14:29:04.408733,-145.0
2023-12-20 14:29:04.416422,-133.0
2023-12-20 14:29:04.424111,-133.0
2023-12-20 14:29:04.431800,-119.0
2023-12-20 14:29:04.439489,-92.0
2023-12-20 14:29:04.447178,-104.0
2023-12-20 14:29:04.454867,-119.0
2023-12-20 14:29:04.462556,-88.0
2023-12-20 14:29:04.470245,-61.0
2023-12-20 14:29:04.477934,-69.0
2023-12-20 14:29:04.485623,-64.0
2023-12-20 14:29:04.493312,-54.0
2023-12-20 14:29:04.501001,-59.0
2023-12-20 14:29:04.508690,-59.0
2023-12-20 14:29:04.516379,-47.0
2023-12-20 14:29:04.524068,-33.0
2023-12-20 14:29:04.531757,-40.0
2023-12-20 14:29:04.539446,-54.0
2023-12-20 14:29:04.547135,-52.0
2023-12-20 14:29:04.554824,-47.0
2023-12-20 14:29:04.562513,-45.0
2023-12-20 14:29:04.570202,-35.0
2023-12-20 14:29:04.577891,-35.0
2023-12-20 14:29:04.585580,-45.0
2023-12-20 14:29:04.593269,-42.0
2023-12-20 14:29:04.600958,-23.0
2023-12-20 14:29:04.608647,-21.0
2023-12-20 14:29:04.616336,-38.0
2023-12-20 14:29:04.624025,-38.0
2023-12-20 14:29:04.631714,-30.0
2023-12-20 14:29:04.639403,-38.0
2023-12-20 14:29:04.647092,-42.0
2023-12-20 14:29:04.654781,-35.0
2023-12-20 14:29:04.662470,-38.0
2023-12-20 14:29:04.670159,-52.0
2023-12-20 14:29:04.677848,-61.0
2023-12-20 14:29:04.685537,-50.0
2023-12-20 14:29:04.693226,-33.0
2023-12-20 14:29:04.700915,-21.0
2023-12-20 14:29:04.708604,-7.0
2023-12-20 14:29:04.716292,-7.0
2023-12-20 14:29:04.723981,-21.0
2023-12-20 14:29:04.731670,-16.0
2023-12-20 14:29:04.739359,-7.0
2023-12-20 14:29:04.747048,-7.0
2023-12-20 14:29:04.754737,-19.0
2023-12-20 14:29:04.762426,-78.0
2023-12-20 14:29:04.770115,-250.0
2023-12-20 14:29:04.777804,-414.0
2023-12-20 14:29:04.785493,-281.0
2023-12-20 14:29:04.793182,90.0
2023-12-20 14:29:04.800871,295.0
2023-12-20 14:29:04.808560,269.0
2023-12-20 14:29:04.816249,202.0
2023-12-20 14:29:04.823938,109.0
2023-12-20 14:29:04.831627,-11.0
2023-12-20 14:29:04.839316,-73.0
2023-12-20 14:29:04.847005,-71.0
2023-12-20 14:29:04.854694,-78.0
2023-12-20 14:29:04.862383,-88.0
2023-12-20 14:29:04.870072,-78.0
2023-12-20 14:29:04.877761,-71.0
2023-12-20 14:29:04.885450,-81.0
2023-12-20 14:29:04.893139,-78.0
2023-12-20 14:29:04.900828,-76.0
2023-12-20 14:29:04.908517,-100.0
2023-12-20 14:29:04.916206,-116.0
2023-12-20 14:29:04.923895,-102.0
2023-12-20 14:29:04.931584,-112.0
2023-12-20 14:29:04.939273,-138.0
2023-12-20 14:29:04.946962,-157.0
2023-12-20 14:29:04.954651,-169.0
2023-12-20 14:29:04.962340,-169.0
2023-12-20 14:29:04.970029,-166.0
2023-12-20 14:29:04.977718,-157.0
2023-12-20 14:29:04.985407,-135.0
2023-12-20 14:29:04.993096,-128.0
2023-12-20 14:29:05.000785,-133.0
2023-12-20 14:29:05.008474,-131.0
2023-12-20 14:29:05.016163,-116.0
2023-12-20 14:29:05.023852,-90.0
2023-12-20 14:29:05.031541,-64.0
2023-12-20 14:29:05.039230,-59.0
2023-12-20 14:29:05.046919,-59.0
2023-12-20 14:29:05.054608,-50.0
2023-12-20 14:29:05.062297,-30.0
2023-12-20 14:29:05.069986,-23.0
2023-12-20 14:29:05.077675,-35.0
2023-12-20 14:29:05.085364,-52.0
2023-12-20 14:29:05.093053,-47.0
2023-12-20 14:29:05.100742,-38.0
2023-12-20 14:29:05.108431,-40.0
2023-12-20 14:29:05.116120,-42.0
2023-12-20 14:29:05.123809,-42.0
2023-12-20 14:29:05.131498,-42.0
2023-12-20 14:29:05.139187,-45.0
2023-12-20 14:29:05.146876,-38.0
2023-12-20 14:29:05.154565,-28.0
2023-12-20 14:29:05.162254,-28.0
2023-12-20 14:29:05.169943,-23.0
2023-12-20 14:29:05.177632,-21.0
2023-12-20 14:29:05.185321,-30.0
2023-12-20 14:29:05.193010,-33.0
2023-12-20 14:29:05.200699,-19.0
2023-12-20 14:29:05.208388,-19.0
2023-12-20 14:29:05.216076,-28.0
2023-12-20 14:29:05.223765,-30.0
2023-12-20 14:29:05.231454,-30.0
2023-12-20 14:29:05.239143,-30.0
2023-12-20 14:29:05.246832,-28.0
2023-12-20 14:29:05.254521,-35.0
2023-12-20 14:29:05.262210,-45.0
2023-12-20 14:29:05.269899,-42.0
2023-12-20 14:29:05.277588,-23.0
2023-12-20 14:29:05.285277,-2.0
2023-12-20 14:29:05.292966,-4.0
2023-12-20 14:29:05.300655,-11.0
2023-12-20 14:29:05.308344,-4.0
2023-12-20 14:29:05.316033,-7.0
2023-12-20 14:29:05.323722,-30.0
2023-12-20 14:29:05.331411,-38.0
2023-12-20 14:29:05.339100,-50.0
2023-12-20 14:29:05.346789,-176.0
2023-12-20 14:29:05.354478,-414.0
2023-12-20 14:29:05.362167,-464.0
2023-12-20 14:29:05.369856,-119.0
2023-12-20 14:29:05.377545,247.0
2023-12-20 14:29:05.385234,300.0
2023-12-20 14:29:05.392923,236.0
2023-12-20 14:29:05.400612,166.0
2023-12-20 14:29:05.408301,23.0
2023-12-20 14:29:05.415990,-81.0
2023-12-20 14:29:05.423679,-81.0
2023-12-20 14:29:05.431368,-78.0
2023-12-20 14:29:05.439057,-107.0
2023-12-20 14:29:05.446746,-112.0
2023-12-20 14:29:05.454435,-92.0
2023-12-20 14:29:05.462124,-92.0
2023-12-20 14:29:05.469813,-97.0
2023-12-20 14:29:05.477502,-92.0
2023-12-20 14:29:05.485191,-95.0
2023-12-20 14:29:05.492880,-97.0
2023-12-20 14:29:05.500569,-92.0
2023-12-20 14:29:05.508258,-92.0
2023-12-20 14:29:05.515947,-95.0
2023-12-20 14:29:05.523636,-107.0
2023-12-20 14:29:05.531325,-152.0
2023-12-20 14:29:05.539014,-176.0
2023-12-20 14:29:05.546703,-150.0
2023-12-20 14:29:05.554392,-135.0
2023-12-20 14:29:05.562081,-150.0
2023-12-20 14:29:05.569770,-150.0
2023-12-20 14:29:05.577459,-135.0
2023-12-20 14:29:05.585148,-114.0
2023-12-20 14:29:05.592837,-104.0
2023-12-20 14:29:05.600526,-102.0
2023-12-20 14:29:05.608215,-81.0
2023-12-20 14:29:05.615904,-57.0
2023-12-20 14:29:05.623593,-45.0
2023-12-20 14:29:05.631282,-33.0
2023-12-20 14:29:05.638971,-33.0
2023-12-20 14:29:05.646660,-40.0
2023-12-20 14:29:05.654349,-35.0
2023-12-20 14:29:05.662038,-26.0
2023-12-20 14:29:05.669727,-30.0
2023-12-20 14:29:05.677416,-33.0
2023-12-20 14:29:05.685105,-19.0
2023-12-20 14:29:05.692794,-16.0
2023-12-20 14:29:05.700483,-30.0
2023-12-20 14:29:05.708172,-35.0
2023-12-20 14:29:05.715861,-38.0
2023-12-20 14:29:05.723549,-35.0
2023-12-20 14:29:05.731238,-26.0
2023-12-20 14:29:05.738927,-26.0
2023-12-20 14:29:05.746616,-16.0
2023-12-20 14:29:05.754305,-4.0
2023-12-20 14:29:05.761994,-7.0
2023-12-20 14:29:05.769683,-14.0
2023-12-20 14:29:05.777372,-19.0
2023-12-20 14:29:05.785061,-19.0
2023-12-20 14:29:05.792750,-16.0
2023-12-20 14:29:05.800439,-11.0
2023-12-20 14:29:05.808128,-16.0
2023-12-20 14:29:05.815817,-30.0
2023-12-20 14:29:05.823506,-42.0
2023-12-20 14:29:05.831195,-54.0
2023-12-20 14:29:05.838884,-64.0
2023-12-20 14:29:05.846573,-47.0
2023-12-20 14:29:05.854262,-19.0
2023-12-20 14:29:05.861951,-7.0
2023-12-20 14:29:05.869640,-7.0
2023-12-20 14:29:05.877329,-7.0
2023-12-20 14:29:05.885018,-4.0
2023-12-20 14:29:05.892707,-7.0
2023-12-20 14:29:05.900396,-19.0
2023-12-20 14:29:05.908085,-14.0
2023-12-20 14:29:05.915774,-45.0
2023-12-20 14:29:05.923463,-195.0
2023-12-20 14:29:05.931152,-410.0
2023-12-20 14:29:05.938841,-450.0
2023-12-20 14:29:05.946530,-157.0
2023-12-20 14:29:05.954219,200.0
2023-12-20 14:29:05.961908,298.0
2023-12-20 14:29:05.969597,224.0
2023-12-20 14:29:05.977286,131.0
2023-12-20 14:29:05.984975,19.0
2023-12-20 14:29:05.992664,-59.0
2023-12-20 14:29:06.000353,-66.0
2023-12-20 14:29:06.008042,-54.0
2023-12-20 14:29:06.015731,-59.0
2023-12-20 14:29:06.023420,-73.0
2023-12-20 14:29:06.031109,-81.0
2023-12-20 14:29:06.038798,-73.0
2023-12-20 14:29:06.046487,-73.0
2023-12-20 14:29:06.054176,-90.0
2023-12-20 14:29:06.061865,-104.0
2023-12-20 14:29:06.069554,-121.0
2023-12-20 14:29:06.077243,-133.0
2023-12-20 14:29:06.084932,-128.0
2023-12-20 14:29:06.092621,-126.0
2023-12-20 14:29:06.100310,-128.0
2023-12-20 14:29:06.107999,-138.0
2023-12-20 14:29:06.115688,-150.0
2023-12-20 14:29:06.123377,-140.0
2023-12-20 14:29:06.131066,-123.0
2023-12-20 14:29:06.138755,-121.0
2023-12-20 14:29:06.146444,-121.0
2023-12-20 14:29:06.154133,-107.0
2023-12-20 14:29:06.161822,-102.0
2023-12-20 14:29:06.169511,-102.0
2023-12-20 14:29:06.177200,-97.0
2023-12-20 14:29:06.184889,-73.0
2023-12-20 14:29:06.192578,-40.0
2023-12-20 14:29:06.200267,-35.0
2023-12-20 14:29:06.207956,-33.0
2023-12-20 14:29:06.215645,-19.0
2023-12-20 14:29:06.223333,-16.0
2023-12-20 14:29:06.231022,-21.0
2023-12-20 14:29:06.238711,-26.0
2023-12-20 14:29:06.246400,-35.0
2023-12-20 14:29:06.254089,-30.0
2023-12-20 14:29:06.261778,-26.0
2023-12-20 14:29:06.269467,-28.0
2023-12-20 14:29:06.277156,-23.0
2023-12-20 14:29:06.284845,-19.0
2023-12-20 14:29:06.292534,-30.0
2023-12-20 14:29:06.300223,-40.0
2023-12-20 14:29:06.307912,-35.0
2023-12-20 14:29:06.315601,-35.0
2023-12-20 14:29:06.323290,-33.0
2023-12-20 14:29:06.330979,-33.0
2023-12-20 14:29:06.338668,-42.0
2023-12-20 14:29:06.346357,-35.0
2023-12-20 14:29:06.354046,-21.0
2023-12-20 14:29:06.361735,-14.0
2023-12-20 14:29:06.369424,-14.0
2023-12-20 14:29:06.377113,-21.0
2023-12-20 14:29:06.384802,-42.0
2023-12-20 14:29:06.392491,-50.0
2023-12-20 14:29:06.400180,-47.0
2023-12-20 14:29:06.407869,-50.0
2023-12-20 14:29:06.415558,-52.0
2023-12-20 14:29:06.423247,-64.0
2023-12-20 14:29:06.430936,-66.0
2023-12-20 14:29:06.438625,-38.0
2023-12-20 14:29:06.446314,-19.0
2023-12-20 14:29:06.454003,-21.0
2023-12-20 14:29:06.461692,-19.0
2023-12-20 14:29:06.469381,-26.0
2023-12-20 14:29:06.477070,-35.0
2023-12-20 14:29:06.484759,-28.0
2023-12-20 14:29:06.492448,-35.0
2023-12-20 14:29:06.500137,-123.0
2023-12-20 14:29:06.507826,-317.0
2023-12-20 14:29:06.515515,-441.0
2023-12-20 14:29:06.523204,-250.0
2023-12-20 14:29:06.530893,112.0
2023-12-20 14:29:06.538582,276.0
2023-12-20 14:29:06.546271,236.0
2023-12-20 14:29:06.553960,150.0
2023-12-20 14:29:06.561649,40.0
2023-12-20 14:29:06.569338,-47.0
2023-12-20 14:29:06.577027,-61.0
2023-12-20 14:29:06.584716,-54.0
2023-12-20 14:29:06.592405,-76.0
2023-12-20 14:29:06.600094,-88.0
2023-12-20 14:29:06.607783,-83.0
2023-12-20 14:29:06.615472,-92.0
2023-12-20 14:29:06.623161,-95.0
2023-12-20 14:29:06.630850,-90.0
2023-12-20 14:29:06.638539,-88.0
2023-12-20 14:29:06.646228,-95.0
2023-12-20 14:29:06.653917,-114.0
2023-12-20 14:29:06.661606,-131.0
2023-12-20 14:29:06.669295,-126.0
2023-12-20 14:29:06.676984,-119.0
2023-12-20 14:29:06.684673,-123.0
2023-12-20 14:29:06.692362,-128.0
2023-12-20 14:29:06.700051,-133.0
2023-12-20 14:29:06.707740,-143.0
2023-12-20 14:29:06.715429,-140.0
2023-12-20 14:29:06.723117,-128.0
2023-12-20 14:29:06.730806,-114.0
2023-12-20 14:29:06.738495,-112.0
2023-12-20 14:29:06.746184,-112.0
2023-12-20 14:29:06.753873,-97.0
2023-12-20 14:29:06.761562,-61.0
2023-12-20 14:29:06.769251,-42.0
2023-12-20 14:29:06.776940,-50.0
2023-12-20 14:29:06.784629,-50.0
2023-12-20 14:29:06.792318,-40.0
2023-12-20 14:29:06.800007,-40.0
2023-12-20 14:29:06.807696,-45.0
2023-12-20 14:29:06.815385,-45.0
2023-12-20 14:29:06.823074,-42.0
2023-12-20 14:29:06.830763,-42.0
2023-12-20 14:29:06.838452,-40.0
2023-12-20 14:29:06.846141,-33.0
2023-12-20 14:29:06.853830,-33.0
2023-12-20 14:29:06.861519,-35.0
2023-12-20 14:29:06.869208,-40.0
2023-12-20 14:29:06.876897,-42.0
2023-12-20 14:29:06.884586,-35.0
2023-12-20 14:29:06.892275,-30.0
2023-12-20 14:29:06.899964,-28.0
2023-12-20 14:29:06.907653,-23.0
2023-12-20 14:29:06.915342,-21.0
2023-12-20 14:29:06.923031,-30.0
2023-12-20 14:29:06.930720,-45.0
2023-12-20 14:29:06.938409,-50.0
2023-12-20 14:29:06.946098,-35.0
2023-12-20 14:29:06.953787,-26.0
2023-12-20 14:29:06.961476,-40.0
2023-12-20 14:29:06.969165,-52.0
2023-12-20 14:29:06.976854,-50.0
2023-12-20 14:29:06.984543,-57.0
2023-12-20 14:29:06.992232,-64.0
2023-12-20 14:29:06.999921,-59.0
2023-12-20 14:29:07.007610,-45.0
2023-12-20 14:29:07.015299,-30.0
2023-12-20 14:29:07.022988,-21.0
2023-12-20 14:29:07.030677,-19.0
2023-12-20 14:29:07.038366,-19.0
2023-12-20 14:29:07.046055,-21.0
2023-12-20 14:29:07.053744,-30.0
2023-12-20 14:29:07.061433,-33.0
2023-12-20 14:29:07.069122,-33.0
2023-12-20 14:29:07.076811,-59.0
2023-12-20 14:29:07.084500,-181.0
2023-12-20 14:29:07.092189,-371.0
2023-12-20 14:29:07.099878,-371.0
2023-12-20 14:29:07.107567,-66.0
2023-12-20 14:29:07.115256,216.0
2023-12-20 14:29:07.122945,259.0
2023-12-20 14:29:07.130634,207.0
2023-12-20 14:29:07.138323,116.0
2023-12-20 14:29:07.146012,-11.0
2023-12-20 14:29:07.153701,-73.0
2023-12-20 14:29:07.161390,-54.0
2023-12-20 14:29:07.169079,-52.0
2023-12-20 14:29:07.176768,-78.0
2023-12-20 14:29:07.184457,-81.0
2023-12-20 14:29:07.192146,-73.0
2023-12-20 14:29:07.199835,-76.0
2023-12-20 14:29:07.207524,-78.0
2023-12-20 14:29:07.215213,-73.0
2023-12-20 14:29:07.222902,-78.0
2023-12-20 14:29:07.230590,-97.0
2023-12-20 14:29:07.238279,-116.0
2023-12-20 14:29:07.245968,-128.0
2023-12-20 14:29:07.253657,-133.0
2023-12-20 14:29:07.261346,-128.0
2023-12-20 14:29:07.269035,-126.0
2023-12-20 14:29:07.276724,-128.0
2023-12-20 14:29:07.284413,-121.0
2023-12-20 14:29:07.292102,-121.0
2023-12-20 14:29:07.299791,-143.0
2023-12-20 14:29:07.307480,-147.0
2023-12-20 14:29:07.315169,-121.0
2023-12-20 14:29:07.322858,-112.0
2023-12-20 14:29:07.330547,-119.0
2023-12-20 14:29:07.338236,-102.0
2023-12-20 14:29:07.345925,-73.0
2023-12-20 14:29:07.353614,-61.0
2023-12-20 14:29:07.361303,-45.0
2023-12-20 14:29:07.368992,-23.0
2023-12-20 14:29:07.376681,-33.0
2023-12-20 14:29:07.384370,-40.0
2023-12-20 14:29:07.392059,-28.0
2023-12-20 14:29:07.399748,-33.0
2023-12-20 14:29:07.407437,-45.0
2023-12-20 14:29:07.415126,-40.0
2023-12-20 14:29:07.422815,-35.0
2023-12-20 14:29:07.430504,-50.0
2023-12-20 14:29:07.438193,-66.0
2023-12-20 14:29:07.445882,-61.0
2023-12-20 14:29:07.453571,-52.0
2023-12-20 14:29:07.461260,-59.0
2023-12-20 14:29:07.468949,-54.0
2023-12-20 14:29:07.476638,-42.0
2023-12-20 14:29:07.484327,-50.0
2023-12-20 14:29:07.492016,-57.0
2023-12-20 14:29:07.499705,-47.0
2023-12-20 14:29:07.507394,-47.0
2023-12-20 14:29:07.515083,-52.0
2023-12-20 14:29:07.522772,-45.0
2023-12-20 14:29:07.530461,-45.0
2023-12-20 14:29:07.538150,-52.0
2023-12-20 14:29:07.545839,-59.0
2023-12-20 14:29:07.553528,-66.0
2023-12-20 14:29:07.561217,-69.0
2023-12-20 14:29:07.568906,-69.0
2023-12-20 14:29:07.576595,-69.0
2023-12-20 14:29:07.584284,-64.0
2023-12-20 14:29:07.591973,-52.0
2023-12-20 14:29:07.599662,-35.0
2023-12-20 14:29:07.607351,-35.0
2023-12-20 14:29:07.615040,-40.0
2023-12-20 14:29:07.622729,-35.0
2023-12-20 14:29:07.630418,-30.0
2023-12-20 14:29:07.638107,-30.0
2023-12-20 14:29:07.645796,-26.0
2023-12-20 14:29:07.653485,-35.0
2023-12-20 14:29:07.661174,-126.0
2023-12-20 14:29:07.668863,-329.0
2023-12-20 14:29:07.676552,-460.0
2023-12-20 14:29:07.684241,-240.0
2023-12-20 14:29:07.691930,143.0
2023-12-20 14:29:07.699619,286.0
2023-12-20 14:29:07.707308,236.0
2023-12-20 14:29:07.714997,171.0
2023-12-20 14:29:07.722686,64.0
2023-12-20 14:29:07.730374,-59.0
2023-12-20 14:29:07.738063,-109.0
2023-12-20 14:29:07.745752,-100.0
2023-12-20 14:29:07.753441,-97.0
2023-12-20 14:29:07.761130,-104.0
2023-12-20 14:29:07.768819,-102.0
2023-12-20 14:29:07.776508,-102.0
2023-12-20 14:29:07.784197,-109.0
2023-12-20 14:29:07.791886,-116.0
2023-12-20 14:29:07.799575,-119.0
2023-12-20 14:29:07.807264,-112.0
2023-12-20 14:29:07.814953,-114.0
2023-12-20 14:29:07.822642,-126.0
2023-12-20 14:29:07.830331,-126.0
2023-12-20 14:29:07.838020,-112.0
2023-12-20 14:29:07.845709,-107.0
2023-12-20 14:29:07.853398,-121.0
2023-12-20 14:29:07.861087,-131.0
2023-12-20 14:29:07.868776,-121.0
2023-12-20 14:29:07.876465,-114.0
2023-12-20 14:29:07.884154,-114.0
2023-12-20 14:29:07.891843,-109.0
2023-12-20 14:29:07.899532,-100.0
2023-12-20 14:29:07.907221,-100.0
2023-12-20 14:29:07.914910,-97.0
2023-12-20 14:29:07.922599,-83.0
2023-12-20 14:29:07.930288,-76.0
2023-12-20 14:29:07.937977,-76.0
2023-12-20 14:29:07.945666,-64.0
2023-12-20 14:29:07.953355,-52.0
2023-12-20 14:29:07.961044,-52.0
2023-12-20 14:29:07.968733,-52.0
2023-12-20 14:29:07.976422,-50.0
2023-12-20 14:29:07.984111,-47.0
2023-12-20 14:29:07.991800,-47.0
2023-12-20 14:29:07.999489,-50.0
2023-12-20 14:29:08.007178,-47.0
2023-12-20 14:29:08.014867,-45.0
2023-12-20 14:29:08.022556,-50.0
2023-12-20 14:29:08.030245,-57.0
2023-12-20 14:29:08.037934,-54.0
2023-12-20 14:29:08.045623,-52.0
2023-12-20 14:29:08.053312,-57.0
2023-12-20 14:29:08.061001,-59.0
2023-12-20 14:29:08.068690,-52.0
2023-12-20 14:29:08.076379,-35.0
2023-12-20 14:29:08.084068,-30.0
2023-12-20 14:29:08.091757,-38.0
2023-12-20 14:29:08.099446,-40.0
2023-12-20 14:29:08.107135,-33.0
2023-12-20 14:29:08.114824,-35.0
2023-12-20 14:29:08.122513,-42.0
2023-12-20 14:29:08.130202,-38.0
2023-12-20 14:29:08.137891,-40.0
2023-12-20 14:29:08.145580,-54.0
2023-12-20 14:29:08.153269,-57.0
2023-12-20 14:29:08.160958,-47.0
2023-12-20 14:29:08.168647,-38.0
2023-12-20 14:29:08.176336,-28.0
2023-12-20 14:29:08.184025,-21.0
2023-12-20 14:29:08.191714,-14.0
2023-12-20 14:29:08.199403,-9.0
2023-12-20 14:29:08.207092,-16.0
2023-12-20 14:29:08.214781,-21.0
2023-12-20 14:29:08.222470,-16.0
2023-12-20 14:29:08.230158,-9.0
2023-12-20 14:29:08.237847,-23.0
2023-12-20 14:29:08.245536,-133.0
2023-12-20 14:29:08.253225,-357.0
2023-12-20 14:29:08.260914,-481.0
2023-12-20 14:29:08.268603,-221.0
2023-12-20 14:29:08.276292,185.0
2023-12-20 14:29:08.283981,302.0
2023-12-20 14:29:08.291670,245.0
2023-12-20 14:29:08.299359,190.0
2023-12-20 14:29:08.307048,76.0
2023-12-20 14:29:08.314737,-50.0
2023-12-20 14:29:08.322426,-100.0
2023-12-20 14:29:08.330115,-92.0
2023-12-20 14:29:08.337804,-78.0
2023-12-20 14:29:08.345493,-81.0
2023-12-20 14:29:08.353182,-92.0
2023-12-20 14:29:08.360871,-100.0
2023-12-20 14:29:08.368560,-97.0
2023-12-20 14:29:08.376249,-90.0
2023-12-20 14:29:08.383938,-90.0
2023-12-20 14:29:08.391627,-97.0
2023-12-20 14:29:08.399316,-102.0
2023-12-20 14:29:08.407005,-104.0
2023-12-20 14:29:08.414694,-107.0
2023-12-20 14:29:08.422383,-97.0
2023-12-20 14:29:08.430072,-95.0
2023-12-20 14:29:08.437761,-119.0
2023-12-20 14:29:08.445450,-135.0
2023-12-20 14:29:08.453139,-119.0
2023-12-20 14:29:08.460828,-114.0
2023-12-20 14:29:08.468517,-128.0
2023-12-20 14:29:08.476206,-114.0
2023-12-20 14:29:08.483895,-88.0
2023-12-20 14:29:08.491584,-83.0
2023-12-20 14:29:08.499273,-88.0
2023-12-20 14:29:08.506962,-78.0
2023-12-20 14:29:08.514651,-59.0
2023-12-20 14:29:08.522340,-38.0
2023-12-20 14:29:08.530029,-33.0
2023-12-20 14:29:08.537718,-40.0
2023-12-20 14:29:08.545407,-47.0
2023-12-20 14:29:08.553096,-42.0
2023-12-20 14:29:08.560785,-30.0
2023-12-20 14:29:08.568474,-23.0
2023-12-20 14:29:08.576163,-23.0
2023-12-20 14:29:08.583852,-26.0
2023-12-20 14:29:08.591541,-30.0
2023-12-20 14:29:08.599230,-28.0
2023-12-20 14:29:08.606919,-26.0
2023-12-20 14:29:08.614608,-28.0
2023-12-20 14:29:08.622297,-23.0
2023-12-20 14:29:08.629986,-28.0
2023-12-20 14:29:08.637675,-40.0
2023-12-20 14:29:08.645364,-35.0
2023-12-20 14:29:08.653053,-21.0
2023-12-20 14:29:08.660742,-14.0
2023-12-20 14:29:08.668431,-4.0
2023-12-20 14:29:08.676120,0.0
2023-12-20 14:29:08.683809,-11.0
2023-12-20 14:29:08.691498,-19.0
2023-12-20 14:29:08.699187,-11.0
2023-12-20 14:29:08.706876,-11.0
2023-12-20 14:29:08.714565,-19.0
2023-12-20 14:29:08.722254,-21.0
2023-12-20 14:29:08.729943,-30.0
2023-12-20 14:29:08.737631,-47.0
2023-12-20 14:29:08.745320,-38.0
2023-12-20 14:29:08.753009,-7.0
2023-12-20 14:29:08.760698,2.0
2023-12-20 14:29:08.768387,-7.0
2023-12-20 14:29:08.776076,-14.0
2023-12-20 14:29:08.783765,-14.0
2023-12-20 14:29:08.791454,-11.0
2023-12-20 14:29:08.799143,-9.0
2023-12-20 14:29:08.806832,0.0
2023-12-20 14:29:08.814521,7.0
2023-12-20 14:29:08.822210,-35.0
2023-12-20 14:29:08.829899,-188.0
2023-12-20 14:29:08.837588,-402.0
2023-12-20 14:29:08.845277,-410.0
2023-12-20 14:29:08.852966,-88.0
2023-12-20 14:29:08.860655,221.0
2023-12-20 14:29:08.868344,262.0
2023-12-20 14:29:08.876033,200.0
2023-12-20 14:29:08.883722,119.0
2023-12-20 14:29:08.891411,-7.0
2023-12-20 14:29:08.899100,-73.0
2023-12-20 14:29:08.906789,-66.0
2023-12-20 14:29:08.914478,-66.0
2023-12-20 14:29:08.922167,-71.0
2023-12-20 14:29:08.929856,-73.0
2023-12-20 14:29:08.937545,-88.0
2023-12-20 14:29:08.945234,-104.0
2023-12-20 14:29:08.952923,-104.0
2023-12-20 14:29:08.960612,-104.0
2023-12-20 14:29:08.968301,-109.0
2023-12-20 14:29:08.975990,-109.0
2023-12-20 14:29:08.983679,-107.0
2023-12-20 14:29:08.991368,-114.0
2023-12-20 14:29:08.999057,-112.0
2023-12-20 14:29:09.006746,-102.0
2023-12-20 14:29:09.014435,-114.0
2023-12-20 14:29:09.022124,-138.0
2023-12-20 14:29:09.029813,-135.0
2023-12-20 14:29:09.037502,-121.0
2023-12-20 14:29:09.045191,-121.0
2023-12-20 14:29:09.052880,-121.0
2023-12-20 14:29:09.060569,-121.0
2023-12-20 14:29:09.068258,-116.0
2023-12-20 14:29:09.075947,-92.0
2023-12-20 14:29:09.083636,-71.0
2023-12-20 14:29:09.091325,-61.0
2023-12-20 14:29:09.099014,-47.0
2023-12-20 14:29:09.106703,-33.0
2023-12-20 14:29:09.114392,-28.0
2023-12-20 14:29:09.122081,-26.0
2023-12-20 14:29:09.129770,-21.0
2023-12-20 14:29:09.137459,-23.0
2023-12-20 14:29:09.145148,-26.0
2023-12-20 14:29:09.152837,-21.0
2023-12-20 14:29:09.160526,-14.0
2023-12-20 14:29:09.168215,-14.0
2023-12-20 14:29:09.175904,-26.0
2023-12-20 14:29:09.183593,-38.0
2023-12-20 14:29:09.191282,-35.0
2023-12-20 14:29:09.198971,-26.0
2023-12-20 14:29:09.206660,-23.0
2023-12-20 14:29:09.214349,-23.0
2023-12-20 14:29:09.222038,-21.0
2023-12-20 14:29:09.229727,-16.0
2023-12-20 14:29:09.237415,-14.0
2023-12-20 14:29:09.245104,-16.0
2023-12-20 14:29:09.252793,-14.0
2023-12-20 14:29:09.260482,-19.0
2023-12-20 14:29:09.268171,-21.0
2023-12-20 14:29:09.275860,-14.0
2023-12-20 14:29:09.283549,-11.0
2023-12-20 14:29:09.291238,-21.0
2023-12-20 14:29:09.298927,-26.0
2023-12-20 14:29:09.306616,-26.0
2023-12-20 14:29:09.314305,-30.0
2023-12-20 14:29:09.321994,-45.0
2023-12-20 14:29:09.329683,-57.0
2023-12-20 14:29:09.337372,-40.0
2023-12-20 14:29:09.345061,-14.0
2023-12-20 14:29:09.352750,-9.0
2023-12-20 14:29:09.360439,-14.0
2023-12-20 14:29:09.368128,-7.0
2023-12-20 14:29:09.375817,-9.0
2023-12-20 14:29:09.383506,-19.0
2023-12-20 14:29:09.391195,-11.0
2023-12-20 14:29:09.398884,2.0
2023-12-20 14:29:09.406573,-2.0
2023-12-20 14:29:09.414262,-97.0
2023-12-20 14:29:09.421951,-293.0
2023-12-20 14:29:09.429640,-417.0
2023-12-20 14:29:09.437329,-228.0
2023-12-20 14:29:09.445018,131.0
2023-12-20 14:29:09.452707,276.0
2023-12-20 14:29:09.460396,221.0
2023-12-20 14:29:09.468085,147.0
2023-12-20 14:29:09.475774,45.0
2023-12-20 14:29:09.483463,-61.0
2023-12-20 14:29:09.491152,-102.0
2023-12-20 14:29:09.498841,-100.0
2023-12-20 14:29:09.506530,-102.0
2023-12-20 14:29:09.514219,-116.0
2023-12-20 14:29:09.521908,-116.0
2023-12-20 14:29:09.529597,-107.0
2023-12-20 14:29:09.537286,-119.0
2023-12-20 14:29:09.544975,-126.0
2023-12-20 14:29:09.552664,-107.0
2023-12-20 14:29:09.560353,-100.0
2023-12-20 14:29:09.568042,-116.0
2023-12-20 14:29:09.575731,-126.0
2023-12-20 14:29:09.583420,-119.0
2023-12-20 14:29:09.591109,-116.0
2023-12-20 14:29:09.598798,-121.0
2023-12-20 14:29:09.606487,-123.0
2023-12-20 14:29:09.614176,-128.0
2023-12-20 14:29:09.621865,-128.0
2023-12-20 14:29:09.629554,-121.0
2023-12-20 14:29:09.637243,-112.0
2023-12-20 14:29:09.644932,-107.0
2023-12-20 14:29:09.652621,-102.0
2023-12-20 14:29:09.660310,-107.0
2023-12-20 14:29:09.667999,-95.0
2023-12-20 14:29:09.675688,-73.0
2023-12-20 14:29:09.683377,-69.0
2023-12-20 14:29:09.691066,-61.0
2023-12-20 14:29:09.698755,-35.0
2023-12-20 14:29:09.706444,-23.0
2023-12-20 14:29:09.714133,-26.0
2023-12-20 14:29:09.721822,-21.0
2023-12-20 14:29:09.729511,-11.0
2023-12-20 14:29:09.737200,-16.0
2023-12-20 14:29:09.744888,-26.0
2023-12-20 14:29:09.752577,-42.0
2023-12-20 14:29:09.760266,-52.0
2023-12-20 14:29:09.767955,-47.0
2023-12-20 14:29:09.775644,-40.0
2023-12-20 14:29:09.783333,-30.0
2023-12-20 14:29:09.791022,-33.0
2023-12-20 14:29:09.798711,-42.0
2023-12-20 14:29:09.806400,-40.0
2023-12-20 14:29:09.814089,-30.0
2023-12-20 14:29:09.821778,-30.0
2023-12-20 14:29:09.829467,-26.0
2023-12-20 14:29:09.837156,-19.0
2023-12-20 14:29:09.844845,-28.0
2023-12-20 14:29:09.852534,-35.0
2023-12-20 14:29:09.860223,-28.0
2023-12-20 14:29:09.867912,-19.0
2023-12-20 14:29:09.875601,-14.0
2023-12-20 14:29:09.883290,-21.0
2023-12-20 14:29:09.890979,-35.0
2023-12-20 14:29:09.898668,-50.0
2023-12-20 14:29:09.906357,-57.0
2023-12-20 14:29:09.914046,-52.0
2023-12-20 14:29:09.921735,-40.0
2023-12-20 14:29:09.929424,-35.0
2023-12-20 14:29:09.937113,-28.0
2023-12-20 14:29:09.944802,-16.0
2023-12-20 14:29:09.952491,-19.0
2023-12-20 14:29:09.960180,-33.0
2023-12-20 14:29:09.967869,-35.0
2023-12-20 14:29:09.975558,-28.0
2023-12-20 14:29:09.983247,-52.0
2023-12-20 14:29:09.990936,-81.0
2023-12-20 14:29:09.998625,-109.0
2023-12-20 14:29:10.006314,-250.0
2023-12-20 14:29:10.014003,-448.0
2023-12-20 14:29:10.021692,-402.0
2023-12-20 14:29:10.029381,-59.0
2023-12-20 14:29:10.037070,207.0
2023-12-20 14:29:10.044759,224.0
2023-12-20 14:29:10.052448,164.0
2023-12-20 14:29:10.060137,78.0
2023-12-20 14:29:10.067826,-45.0
2023-12-20 14:29:10.075515,-112.0
2023-12-20 14:29:10.083204,-100.0
2023-12-20 14:29:10.090893,-83.0
2023-12-20 14:29:10.098582,-90.0
2023-12-20 14:29:10.106271,-95.0
2023-12-20 14:29:10.113960,-100.0
2023-12-20 14:29:10.121649,-112.0
2023-12-20 14:29:10.129338,-112.0
2023-12-20 14:29:10.137027,-100.0
2023-12-20 14:29:10.144716,-97.0
2023-12-20 14:29:10.152405,-100.0
2023-12-20 14:29:10.160094,-109.0
2023-12-20 14:29:10.167783,-123.0
2023-12-20 14:29:10.175472,-128.0
2023-12-20 14:29:10.183161,-123.0
2023-12-20 14:29:10.190850,-121.0
2023-12-20 14:29:10.198539,-133.0
2023-12-20 14:29:10.206228,-143.0
2023-12-20 14:29:10.213917,-135.0
2023-12-20 14:29:10.221606,-119.0
2023-12-20 14:29:10.229295,-112.0
2023-12-20 14:29:10.236984,-109.0
2023-12-20 14:29:10.244672,-114.0
2023-12-20 14:29:10.252361,-121.0
2023-12-20 14:29:10.260050,-109.0
2023-12-20 14:29:10.267739,-85.0
2023-12-20 14:29:10.275428,-69.0
2023-12-20 14:29:10.283117,-54.0
2023-12-20 14:29:10.290806,-38.0
2023-12-20 14:29:10.298495,-38.0
2023-12-20 14:29:10.306184,-50.0
2023-12-20 14:29:10.313873,-45.0
2023-12-20 14:29:10.321562,-33.0
2023-12-20 14:29:10.329251,-33.0
2023-12-20 14:29:10.336940,-30.0
2023-12-20 14:29:10.344629,-33.0
2023-12-20 14:29:10.352318,-42.0
2023-12-20 14:29:10.360007,-50.0
2023-12-20 14:29:10.367696,-45.0
2023-12-20 14:29:10.375385,-40.0
2023-12-20 14:29:10.383074,-45.0
2023-12-20 14:29:10.390763,-45.0
2023-12-20 14:29:10.398452,-42.0
2023-12-20 14:29:10.406141,-40.0
2023-12-20 14:29:10.413830,-30.0
2023-12-20 14:29:10.421519,-26.0
2023-12-20 14:29:10.429208,-30.0
2023-12-20 14:29:10.436897,-33.0
2023-12-20 14:29:10.444586,-23.0
2023-12-20 14:29:10.452275,-30.0
2023-12-20 14:29:10.459964,-54.0
2023-12-20 14:29:10.467653,-52.0
2023-12-20 14:29:10.475342,-57.0
2023-12-20 14:29:10.483031,-78.0
2023-12-20 14:29:10.490720,-85.0
2023-12-20 14:29:10.498409,-90.0
2023-12-20 14:29:10.506098,-95.0
2023-12-20 14:29:10.513787,-78.0
2023-12-20 14:29:10.521476,-59.0
2023-12-20 14:29:10.529165,-52.0
2023-12-20 14:29:10.536854,-52.0
2023-12-20 14:29:10.544543,-45.0
2023-12-20 14:29:10.552232,-30.0
2023-12-20 14:29:10.559921,-30.0
2023-12-20 14:29:10.567610,-54.0
2023-12-20 14:29:10.575299,-78.0
2023-12-20 14:29:10.582988,-83.0
2023-12-20 14:29:10.590677,-147.0
2023-12-20 14:29:10.598366,-333.0
2023-12-20 14:29:10.606055,-481.0
2023-12-20 14:29:10.613744,-319.0
2023-12-20 14:29:10.621433,66.0
2023-12-20 14:29:10.629122,259.0
2023-12-20 14:29:10.636811,228.0
2023-12-20 14:29:10.644500,169.0
2023-12-20 14:29:10.652189,71.0
2023-12-20 14:29:10.659878,-54.0
2023-12-20 14:29:10.667567,-104.0
2023-12-20 14:29:10.675256,-92.0
2023-12-20 14:29:10.682945,-97.0
2023-12-20 14:29:10.690634,-109.0
2023-12-20 14:29:10.698323,-100.0
2023-12-20 14:29:10.706012,-92.0
2023-12-20 14:29:10.713701,-104.0
2023-12-20 14:29:10.721390,-104.0
2023-12-20 14:29:10.729079,-90.0
2023-12-20 14:29:10.736768,-104.0
2023-12-20 14:29:10.744456,-140.0
2023-12-20 14:29:10.752145,-143.0
2023-12-20 14:29:10.759834,-131.0
2023-12-20 14:29:10.767523,-135.0
2023-12-20 14:29:10.775212,-133.0
2023-12-20 14:29:10.782901,-138.0
2023-12-20 14:29:10.790590,-152.0
2023-12-20 14:29:10.798279,-145.0
2023-12-20 14:29:10.805968,-131.0
2023-12-20 14:29:10.813657,-135.0
2023-12-20 14:29:10.821346,-131.0
2023-12-20 14:29:10.829035,-104.0
2023-12-20 14:29:10.836724,-104.0
2023-12-20 14:29:10.844413,-114.0
2023-12-20 14:29:10.852102,-88.0
2023-12-20 14:29:10.859791,-57.0
2023-12-20 14:29:10.867480,-50.0
2023-12-20 14:29:10.875169,-40.0
2023-12-20 14:29:10.882858,-33.0
2023-12-20 14:29:10.890547,-35.0
2023-12-20 14:29:10.898236,-33.0
2023-12-20 14:29:10.905925,-38.0
2023-12-20 14:29:10.913614,-38.0
2023-12-20 14:29:10.921303,-33.0
2023-12-20 14:29:10.928992,-38.0
2023-12-20 14:29:10.936681,-40.0
2023-12-20 14:29:10.944370,-35.0
2023-12-20 14:29:10.952059,-35.0
2023-12-20 14:29:10.959748,-47.0
2023-12-20 14:29:10.967437,-57.0
2023-12-20 14:29:10.975126,-57.0
2023-12-20 14:29:10.982815,-69.0
2023-12-20 14:29:10.990504,-76.0
2023-12-20 14:29:10.998193,-64.0
2023-12-20 14:29:11.005882,-54.0
2023-12-20 14:29:11.013571,-57.0
2023-12-20 14:29:11.021260,-64.0
2023-12-20 14:29:11.028949,-52.0
2023-12-20 14:29:11.036638,-40.0
2023-12-20 14:29:11.044327,-42.0
2023-12-20 14:29:11.052016,-50.0
2023-12-20 14:29:11.059705,-47.0
2023-12-20 14:29:11.067394,-47.0
2023-12-20 14:29:11.075083,-50.0
2023-12-20 14:29:11.082772,-57.0
2023-12-20 14:29:11.090461,-69.0
2023-12-20 14:29:11.098150,-73.0
2023-12-20 14:29:11.105839,-73.0
2023-12-20 14:29:11.113528,-71.0
2023-12-20 14:29:11.121217,-52.0
2023-12-20 14:29:11.128906,-38.0
2023-12-20 14:29:11.136595,-52.0
2023-12-20 14:29:11.144284,-52.0
2023-12-20 14:29:11.151973,-40.0
2023-12-20 14:29:11.159662,-47.0
2023-12-20 14:29:11.167351,-50.0
2023-12-20 14:29:11.175040,-90.0
2023-12-20 14:29:11.182729,-286.0
2023-12-20 14:29:11.190418,-512.0
2023-12-20 14:29:11.198107,-445.0
2023-12-20 14:29:11.205796,-50.0
2023-12-20 14:29:11.213485,267.0
2023-12-20 14:29:11.221174,288.0
2023-12-20 14:29:11.228863,202.0
2023-12-20 14:29:11.236552,104.0
2023-12-20 14:29:11.244241,-19.0
2023-12-20 14:29:11.251929,-92.0
2023-12-20 14:29:11.259618,-83.0
2023-12-20 14:29:11.267307,-71.0
2023-12-20 14:29:11.274996,-85.0
2023-12-20 14:29:11.282685,-85.0
2023-12-20 14:29:11.290374,-78.0
2023-12-20 14:29:11.298063,-88.0
2023-12-20 14:29:11.305752,-88.0
2023-12-20 14:29:11.313441,-81.0
2023-12-20 14:29:11.321130,-85.0
2023-12-20 14:29:11.328819,-107.0
2023-12-20 14:29:11.336508,-119.0
2023-12-20 14:29:11.344197,-112.0
2023-12-20 14:29:11.351886,-116.0
2023-12-20 14:29:11.359575,-126.0
2023-12-20 14:29:11.367264,-123.0
2023-12-20 14:29:11.374953,-123.0
2023-12-20 14:29:11.382642,-121.0
2023-12-20 14:29:11.390331,-104.0
2023-12-20 14:29:11.398020,-83.0
2023-12-20 14:29:11.405709,-83.0
2023-12-20 14:29:11.413398,-90.0
2023-12-20 14:29:11.421087,-88.0
2023-12-20 14:29:11.428776,-85.0
2023-12-20 14:29:11.436465,-69.0
2023-12-20 14:29:11.444154,-42.0
2023-12-20 14:29:11.451843,-30.0
2023-12-20 14:29:11.459532,-30.0
2023-12-20 14:29:11.467221,-35.0
2023-12-20 14:29:11.474910,-38.0
2023-12-20 14:29:11.482599,-35.0
2023-12-20 14:29:11.490288,-33.0
2023-12-20 14:29:11.497977,-30.0
2023-12-20 14:29:11.505666,-33.0
2023-12-20 14:29:11.513355,-40.0
2023-12-20 14:29:11.521044,-47.0
2023-12-20 14:29:11.528733,-47.0
2023-12-20 14:29:11.536422,-40.0
2023-12-20 14:29:11.544111,-30.0
2023-12-20 14:29:11.551800,-33.0
2023-12-20 14:29:11.559489,-38.0
2023-12-20 14:29:11.567178,-35.0
2023-12-20 14:29:11.574867,-26.0
2023-12-20 14:29:11.582556,-16.0
2023-12-20 14:29:11.590245,-16.0
2023-12-20 14:29:11.597934,-23.0
2023-12-20 14:29:11.605623,-28.0
2023-12-20 14:29:11.613312,-26.0
2023-12-20 14:29:11.621001,-19.0
2023-12-20 14:29:11.628690,-7.0
2023-12-20 14:29:11.636379,-9.0
2023-12-20 14:29:11.644068,-30.0
2023-12-20 14:29:11.651757,-61.0
2023-12-20 14:29:11.659446,-73.0
2023-12-20 14:29:11.667135,-64.0
2023-12-20 14:29:11.674824,-59.0
2023-12-20 14:29:11.682513,-66.0
2023-12-20 14:29:11.690202,-54.0
2023-12-20 14:29:11.697891,-28.0
2023-12-20 14:29:11.705580,-16.0
2023-12-20 14:29:11.713269,-23.0
2023-12-20 14:29:11.720958,-33.0
2023-12-20 14:29:11.728647,-47.0
2023-12-20 14:29:11.736336,-57.0
2023-12-20 14:29:11.744025,-33.0
2023-12-20 14:29:11.751713,-21.0
2023-12-20 14:29:11.759402,-102.0
2023-12-20 14:29:11.767091,-314.0
2023-12-20 14:29:11.774780,-515.0
2023-12-20 14:29:11.782469,-412.0
2023-12-20 14:29:11.790158,0.0
2023-12-20 14:29:11.797847,295.0
2023-12-20 14:29:11.805536,283.0
2023-12-20 14:29:11.813225,181.0
2023-12-20 14:29:11.820914,88.0
2023-12-20 14:29:11.828603,-21.0
2023-12-20 14:29:11.836292,-73.0
2023-12-20 14:29:11.843981,-57.0
2023-12-20 14:29:11.851670,-61.0
2023-12-20 14:29:11.859359,-76.0
2023-12-20 14:29:11.867048,-69.0
2023-12-20 14:29:11.874737,-71.0
2023-12-20 14:29:11.882426,-81.0
2023-12-20 14:29:11.890115,-71.0
2023-12-20 14:29:11.897804,-71.0
2023-12-20 14:29:11.905493,-83.0
2023-12-20 14:29:11.913182,-85.0
2023-12-20 14:29:11.920871,-97.0
2023-12-20 14:29:11.928560,-112.0
2023-12-20 14:29:11.936249,-114.0
2023-12-20 14:29:11.943938,-116.0
2023-12-20 14:29:11.951627,-116.0
2023-12-20 14:29:11.959316,-107.0
2023-12-20 14:29:11.967005,-104.0
2023-12-20 14:29:11.974694,-119.0
2023-12-20 14:29:11.982383,-126.0
2023-12-20 14:29:11.990072,-107.0
2023-12-20 14:29:11.997761,-95.0
2023-12-20 14:29:12.005450,-92.0
2023-12-20 14:29:12.013139,-81.0
2023-12-20 14:29:12.020828,-66.0
2023-12-20 14:29:12.028517,-45.0
2023-12-20 14:29:12.036206,-26.0
2023-12-20 14:29:12.043895,-23.0
2023-12-20 14:29:12.051584,-23.0
2023-12-20 14:29:12.059273,-19.0
2023-12-20 14:29:12.066962,-23.0
2023-12-20 14:29:12.074651,-19.0
2023-12-20 14:29:12.082340,-7.0
2023-12-20 14:29:12.090029,-7.0
2023-12-20 14:29:12.097718,-19.0
2023-12-20 14:29:12.105407,-23.0
2023-12-20 14:29:12.113096,-19.0
2023-12-20 14:29:12.120785,-11.0
2023-12-20 14:29:12.128474,-9.0
2023-12-20 14:29:12.136163,-14.0
2023-12-20 14:29:12.143852,-23.0
2023-12-20 14:29:12.151541,-26.0
2023-12-20 14:29:12.159230,-14.0
2023-12-20 14:29:12.166919,-2.0
2023-12-20 14:29:12.174608,-9.0
2023-12-20 14:29:12.182297,-16.0
2023-12-20 14:29:12.189986,-16.0
2023-12-20 14:29:12.197675,-16.0
2023-12-20 14:29:12.205364,-11.0
2023-12-20 14:29:12.213053,-7.0
2023-12-20 14:29:12.220742,-16.0
2023-12-20 14:29:12.228431,-23.0
2023-12-20 14:29:12.236120,-26.0
2023-12-20 14:29:12.243809,-33.0
2023-12-20 14:29:12.251497,-35.0
2023-12-20 14:29:12.259186,-42.0
2023-12-20 14:29:12.266875,-45.0
2023-12-20 14:29:12.274564,-42.0
2023-12-20 14:29:12.282253,-54.0
2023-12-20 14:29:12.289942,-64.0
2023-12-20 14:29:12.297631,-45.0
2023-12-20 14:29:12.305320,-28.0
2023-12-20 14:29:12.313009,-35.0
2023-12-20 14:29:12.320698,-47.0
2023-12-20 14:29:12.328387,-64.0
2023-12-20 14:29:12.336076,-69.0
2023-12-20 14:29:12.343765,-97.0
2023-12-20 14:29:12.351454,-250.0
2023-12-20 14:29:12.359143,-495.0
2023-12-20 14:29:12.366832,-522.0
2023-12-20 14:29:12.374521,-157.0
2023-12-20 14:29:12.382210,233.0
2023-12-20 14:29:12.389899,300.0
2023-12-20 14:29:12.397588,202.0
2023-12-20 14:29:12.405277,114.0
2023-12-20 14:29:12.412966,-2.0
2023-12-20 14:29:12.420655,-88.0
2023-12-20 14:29:12.428344,-92.0
2023-12-20 14:29:12.436033,-76.0
2023-12-20 14:29:12.443722,-76.0
2023-12-20 14:29:12.451411,-73.0
2023-12-20 14:29:12.459100,-78.0
2023-12-20 14:29:12.466789,-97.0
2023-12-20 14:29:12.474478,-112.0
2023-12-20 14:29:12.482167,-114.0
2023-12-20 14:29:12.489856,-114.0
2023-12-20 14:29:12.497545,-114.0
2023-12-20 14:29:12.505234,-121.0
2023-12-20 14:29:12.512923,-133.0
2023-12-20 14:29:12.520612,-145.0
2023-12-20 14:29:12.528301,-154.0
2023-12-20 14:29:12.535990,-145.0
2023-12-20 14:29:12.543679,-133.0
2023-12-20 14:29:12.551368,-128.0
2023-12-20 14:29:12.559057,-123.0
2023-12-20 14:29:12.566746,-109.0
2023-12-20 14:29:12.574435,-95.0
2023-12-20 14:29:12.582124,-92.0
2023-12-20 14:29:12.589813,-83.0
2023-12-20 14:29:12.597502,-73.0
2023-12-20 14:29:12.605191,-66.0
2023-12-20 14:29:12.612880,-54.0
2023-12-20 14:29:12.620569,-38.0
2023-12-20 14:29:12.628258,-23.0
2023-12-20 14:29:12.635947,-19.0
2023-12-20 14:29:12.643636,-11.0
2023-12-20 14:29:12.651325,-7.0
2023-12-20 14:29:12.659014,-11.0
2023-12-20 14:29:12.666703,-9.0
2023-12-20 14:29:12.674392,-2.0
