time,ECG
2023-08-10 17:17:31.111001,-202.0
2023-08-10 17:17:31.118691,-195.0
2023-08-10 17:17:31.126382,-188.0
2023-08-10 17:17:31.134072,-185.0
2023-08-10 17:17:31.141762,-180.0
2023-08-10 17:17:31.149453,-173.0
2023-08-10 17:17:31.157143,-169.0
2023-08-10 17:17:31.164833,-164.0
2023-08-10 17:17:31.172524,-164.0
2023-08-10 17:17:31.180214,-161.0
2023-08-10 17:17:31.187904,-159.0
2023-08-10 17:17:31.195595,-154.0
2023-08-10 17:17:31.203285,-152.0
2023-08-10 17:17:31.210975,-152.0
2023-08-10 17:17:31.218666,-152.0
2023-08-10 17:17:31.226356,-149.0
2023-08-10 17:17:31.234046,-147.0
2023-08-10 17:17:31.241736,-145.0
2023-08-10 17:17:31.249427,-138.0
2023-08-10 17:17:31.257117,-138.0
2023-08-10 17:17:31.264807,-135.0
2023-08-10 17:17:31.272498,-133.0
2023-08-10 17:17:31.280188,-130.0
2023-08-10 17:17:31.287878,-126.0
2023-08-10 17:17:31.295569,-121.0
2023-08-10 17:17:31.303259,-121.0
2023-08-10 17:17:31.310949,-119.0
2023-08-10 17:17:31.318640,-116.0
2023-08-10 17:17:31.326330,-111.0
2023-08-10 17:17:31.334020,-109.0
2023-08-10 17:17:31.341710,-107.0
2023-08-10 17:17:31.349401,-104.0
2023-08-10 17:17:31.357091,-104.0
2023-08-10 17:17:31.364781,-102.0
2023-08-10 17:17:31.372472,-97.0
2023-08-10 17:17:31.380162,-92.0
2023-08-10 17:17:31.387852,-95.0
2023-08-10 17:17:31.395543,-95.0
2023-08-10 17:17:31.403233,-92.0
2023-08-10 17:17:31.410923,-88.0
2023-08-10 17:17:31.418614,-88.0
2023-08-10 17:17:31.426304,-88.0
2023-08-10 17:17:31.433994,-83.0
2023-08-10 17:17:31.441684,-80.0
2023-08-10 17:17:31.449375,-78.0
2023-08-10 17:17:31.457065,-78.0
2023-08-10 17:17:31.464755,-76.0
2023-08-10 17:17:31.472446,-73.0
2023-08-10 17:17:31.480136,-73.0
2023-08-10 17:17:31.487826,-71.0
2023-08-10 17:17:31.495517,-66.0
2023-08-10 17:17:31.503207,-54.0
2023-08-10 17:17:31.510897,-38.0
2023-08-10 17:17:31.518588,-23.0
2023-08-10 17:17:31.526278,-35.0
2023-08-10 17:17:31.533968,-66.0
2023-08-10 17:17:31.541659,-71.0
2023-08-10 17:17:31.549349,-49.0
2023-08-10 17:17:31.557039,-57.0
2023-08-10 17:17:31.564729,-90.0
2023-08-10 17:17:31.572420,-102.0
2023-08-10 17:17:31.580110,-90.0
2023-08-10 17:17:31.587800,-92.0
2023-08-10 17:17:31.595491,-99.0
2023-08-10 17:17:31.603181,-95.0
2023-08-10 17:17:31.610871,-92.0
2023-08-10 17:17:31.618562,-90.0
2023-08-10 17:17:31.626252,-88.0
2023-08-10 17:17:31.633942,-88.0
2023-08-10 17:17:31.641633,-92.0
2023-08-10 17:17:31.649323,-45.0
2023-08-10 17:17:31.657013,180.0
2023-08-10 17:17:31.664703,568.0
2023-08-10 17:17:31.672394,911.0
2023-08-10 17:17:31.680084,861.0
2023-08-10 17:17:31.687774,261.0
2023-08-10 17:17:31.695465,-221.0
2023-08-10 17:17:31.703155,-76.0
2023-08-10 17:17:31.710845,57.0
2023-08-10 17:17:31.718536,-109.0
2023-08-10 17:17:31.726226,-145.0
2023-08-10 17:17:31.733916,-73.0
2023-08-10 17:17:31.741607,-99.0
2023-08-10 17:17:31.749297,-119.0
2023-08-10 17:17:31.756987,-88.0
2023-08-10 17:17:31.764678,-80.0
2023-08-10 17:17:31.772368,-83.0
2023-08-10 17:17:31.780058,-66.0
2023-08-10 17:17:31.787748,-54.0
2023-08-10 17:17:31.795439,-47.0
2023-08-10 17:17:31.803129,-35.0
2023-08-10 17:17:31.810819,-16.0
2023-08-10 17:17:31.818510,-2.0
2023-08-10 17:17:31.826200,9.0
2023-08-10 17:17:31.833890,28.0
2023-08-10 17:17:31.841581,47.0
2023-08-10 17:17:31.849271,69.0
2023-08-10 17:17:31.856961,95.0
2023-08-10 17:17:31.864652,121.0
2023-08-10 17:17:31.872342,147.0
2023-08-10 17:17:31.880032,173.0
2023-08-10 17:17:31.887722,195.0
2023-08-10 17:17:31.895413,214.0
2023-08-10 17:17:31.903103,226.0
2023-08-10 17:17:31.910793,228.0
2023-08-10 17:17:31.918484,221.0
2023-08-10 17:17:31.926174,199.0
2023-08-10 17:17:31.933864,159.0
2023-08-10 17:17:31.941555,99.0
2023-08-10 17:17:31.949245,35.0
2023-08-10 17:17:31.956935,-28.0
2023-08-10 17:17:31.964626,-90.0
2023-08-10 17:17:31.972316,-140.0
2023-08-10 17:17:31.980006,-176.0
2023-08-10 17:17:31.987696,-197.0
2023-08-10 17:17:31.995387,-211.0
2023-08-10 17:17:32.003077,-221.0
2023-08-10 17:17:32.010767,-223.0
2023-08-10 17:17:32.018458,-221.0
2023-08-10 17:17:32.026148,-216.0
2023-08-10 17:17:32.033838,-214.0
2023-08-10 17:17:32.041529,-211.0
2023-08-10 17:17:32.049219,-204.0
2023-08-10 17:17:32.056909,-199.0
2023-08-10 17:17:32.064600,-199.0
2023-08-10 17:17:32.072290,-197.0
2023-08-10 17:17:32.079980,-185.0
2023-08-10 17:17:32.087671,-183.0
2023-08-10 17:17:32.095361,-183.0
2023-08-10 17:17:32.103051,-178.0
2023-08-10 17:17:32.110741,-173.0
2023-08-10 17:17:32.118432,-169.0
2023-08-10 17:17:32.126122,-164.0
2023-08-10 17:17:32.133812,-161.0
2023-08-10 17:17:32.141503,-159.0
2023-08-10 17:17:32.149193,-157.0
2023-08-10 17:17:32.156883,-157.0
2023-08-10 17:17:32.164574,-154.0
2023-08-10 17:17:32.172264,-152.0
2023-08-10 17:17:32.179954,-147.0
2023-08-10 17:17:32.187645,-145.0
2023-08-10 17:17:32.195335,-145.0
2023-08-10 17:17:32.203025,-142.0
2023-08-10 17:17:32.210715,-140.0
2023-08-10 17:17:32.218406,-135.0
2023-08-10 17:17:32.226096,-133.0
2023-08-10 17:17:32.233786,-130.0
2023-08-10 17:17:32.241477,-128.0
2023-08-10 17:17:32.249167,-126.0
2023-08-10 17:17:32.256857,-121.0
2023-08-10 17:17:32.264548,-119.0
2023-08-10 17:17:32.272238,-114.0
2023-08-10 17:17:32.279928,-111.0
2023-08-10 17:17:32.287619,-111.0
2023-08-10 17:17:32.295309,-111.0
2023-08-10 17:17:32.302999,-107.0
2023-08-10 17:17:32.310690,-102.0
2023-08-10 17:17:32.318380,-102.0
2023-08-10 17:17:32.326070,-102.0
2023-08-10 17:17:32.333760,-99.0
2023-08-10 17:17:32.341451,-97.0
2023-08-10 17:17:32.349141,-95.0
2023-08-10 17:17:32.356831,-92.0
2023-08-10 17:17:32.364522,-88.0
2023-08-10 17:17:32.372212,-85.0
2023-08-10 17:17:32.379902,-88.0
2023-08-10 17:17:32.387593,-88.0
2023-08-10 17:17:32.395283,-88.0
2023-08-10 17:17:32.402973,-85.0
2023-08-10 17:17:32.410664,-80.0
2023-08-10 17:17:32.418354,-83.0
2023-08-10 17:17:32.426044,-80.0
2023-08-10 17:17:32.433734,-78.0
2023-08-10 17:17:32.441425,-76.0
2023-08-10 17:17:32.449115,-73.0
2023-08-10 17:17:32.456805,-61.0
2023-08-10 17:17:32.464496,-45.0
2023-08-10 17:17:32.472186,-33.0
2023-08-10 17:17:32.479876,-28.0
2023-08-10 17:17:32.487567,-42.0
2023-08-10 17:17:32.495257,-54.0
2023-08-10 17:17:32.502947,-38.0
2023-08-10 17:17:32.510638,-42.0
2023-08-10 17:17:32.518328,-80.0
2023-08-10 17:17:32.526018,-95.0
2023-08-10 17:17:32.533708,-83.0
2023-08-10 17:17:32.541399,-88.0
2023-08-10 17:17:32.549089,-95.0
2023-08-10 17:17:32.556779,-88.0
2023-08-10 17:17:32.564470,-88.0
2023-08-10 17:17:32.572160,-90.0
2023-08-10 17:17:32.579850,-88.0
2023-08-10 17:17:32.587541,-90.0
2023-08-10 17:17:32.595231,-92.0
2023-08-10 17:17:32.602921,-26.0
2023-08-10 17:17:32.610612,226.0
2023-08-10 17:17:32.618302,621.0
2023-08-10 17:17:32.625992,911.0
2023-08-10 17:17:32.633683,754.0
2023-08-10 17:17:32.641373,121.0
2023-08-10 17:17:32.649063,-247.0
2023-08-10 17:17:32.656753,-47.0
2023-08-10 17:17:32.664444,33.0
2023-08-10 17:17:32.672134,-128.0
2023-08-10 17:17:32.679824,-133.0
2023-08-10 17:17:32.687515,-73.0
2023-08-10 17:17:32.695205,-107.0
2023-08-10 17:17:32.702895,-114.0
2023-08-10 17:17:32.710586,-80.0
2023-08-10 17:17:32.718276,-76.0
2023-08-10 17:17:32.725966,-76.0
2023-08-10 17:17:32.733657,-61.0
2023-08-10 17:17:32.741347,-52.0
2023-08-10 17:17:32.749037,-42.0
2023-08-10 17:17:32.756727,-26.0
2023-08-10 17:17:32.764418,-9.0
2023-08-10 17:17:32.772108,4.0
2023-08-10 17:17:32.779798,21.0
2023-08-10 17:17:32.787489,38.0
2023-08-10 17:17:32.795179,59.0
2023-08-10 17:17:32.802869,83.0
2023-08-10 17:17:32.810560,109.0
2023-08-10 17:17:32.818250,138.0
2023-08-10 17:17:32.825940,161.0
2023-08-10 17:17:32.833631,183.0
2023-08-10 17:17:32.841321,204.0
2023-08-10 17:17:32.849011,223.0
2023-08-10 17:17:32.856702,235.0
2023-08-10 17:17:32.864392,235.0
2023-08-10 17:17:32.872082,226.0
2023-08-10 17:17:32.879772,202.0
2023-08-10 17:17:32.887463,159.0
2023-08-10 17:17:32.895153,99.0
2023-08-10 17:17:32.902843,30.0
2023-08-10 17:17:32.910534,-30.0
2023-08-10 17:17:32.918224,-88.0
2023-08-10 17:17:32.925914,-138.0
2023-08-10 17:17:32.933605,-173.0
2023-08-10 17:17:32.941295,-195.0
2023-08-10 17:17:32.948985,-207.0
2023-08-10 17:17:32.956676,-214.0
2023-08-10 17:17:32.964366,-216.0
2023-08-10 17:17:32.972056,-216.0
2023-08-10 17:17:32.979746,-211.0
2023-08-10 17:17:32.987437,-202.0
2023-08-10 17:17:32.995127,-195.0
2023-08-10 17:17:33.002817,-188.0
2023-08-10 17:17:33.010508,-180.0
2023-08-10 17:17:33.018198,-176.0
2023-08-10 17:17:33.025888,-171.0
2023-08-10 17:17:33.033579,-164.0
2023-08-10 17:17:33.041269,-161.0
2023-08-10 17:17:33.048959,-161.0
2023-08-10 17:17:33.056650,-159.0
2023-08-10 17:17:33.064340,-157.0
2023-08-10 17:17:33.072030,-159.0
2023-08-10 17:17:33.079720,-159.0
2023-08-10 17:17:33.087411,-154.0
2023-08-10 17:17:33.095101,-149.0
2023-08-10 17:17:33.102791,-149.0
2023-08-10 17:17:33.110482,-147.0
2023-08-10 17:17:33.118172,-147.0
2023-08-10 17:17:33.125862,-147.0
2023-08-10 17:17:33.133553,-145.0
2023-08-10 17:17:33.141243,-142.0
2023-08-10 17:17:33.148933,-140.0
2023-08-10 17:17:33.156624,-138.0
2023-08-10 17:17:33.164314,-135.0
2023-08-10 17:17:33.172004,-133.0
2023-08-10 17:17:33.179695,-133.0
2023-08-10 17:17:33.187385,-135.0
2023-08-10 17:17:33.195075,-138.0
2023-08-10 17:17:33.202765,-130.0
2023-08-10 17:17:33.210456,-126.0
2023-08-10 17:17:33.218146,-126.0
2023-08-10 17:17:33.225836,-123.0
2023-08-10 17:17:33.233527,-119.0
2023-08-10 17:17:33.241217,-119.0
2023-08-10 17:17:33.248907,-121.0
2023-08-10 17:17:33.256598,-116.0
2023-08-10 17:17:33.264288,-114.0
2023-08-10 17:17:33.271978,-111.0
2023-08-10 17:17:33.279669,-111.0
2023-08-10 17:17:33.287359,-111.0
2023-08-10 17:17:33.295049,-107.0
2023-08-10 17:17:33.302739,-102.0
2023-08-10 17:17:33.310430,-99.0
2023-08-10 17:17:33.318120,-97.0
2023-08-10 17:17:33.325810,-97.0
2023-08-10 17:17:33.333501,-97.0
2023-08-10 17:17:33.341191,-95.0
2023-08-10 17:17:33.348881,-95.0
2023-08-10 17:17:33.356572,-95.0
2023-08-10 17:17:33.364262,-95.0
2023-08-10 17:17:33.371952,-97.0
2023-08-10 17:17:33.379643,-88.0
2023-08-10 17:17:33.387333,-69.0
2023-08-10 17:17:33.395023,-52.0
2023-08-10 17:17:33.402714,-47.0
2023-08-10 17:17:33.410404,-61.0
2023-08-10 17:17:33.418094,-83.0
2023-08-10 17:17:33.425784,-73.0
2023-08-10 17:17:33.433475,-54.0
2023-08-10 17:17:33.441165,-76.0
2023-08-10 17:17:33.448855,-107.0
2023-08-10 17:17:33.456546,-104.0
2023-08-10 17:17:33.464236,-99.0
2023-08-10 17:17:33.471926,-102.0
2023-08-10 17:17:33.479617,-97.0
2023-08-10 17:17:33.487307,-95.0
2023-08-10 17:17:33.494997,-95.0
2023-08-10 17:17:33.502688,-88.0
2023-08-10 17:17:33.510378,-88.0
2023-08-10 17:17:33.518068,-95.0
2023-08-10 17:17:33.525758,-61.0
2023-08-10 17:17:33.533449,126.0
2023-08-10 17:17:33.541139,497.0
2023-08-10 17:17:33.548829,849.0
2023-08-10 17:17:33.556520,835.0
2023-08-10 17:17:33.564210,285.0
2023-08-10 17:17:33.571900,-242.0
2023-08-10 17:17:33.579591,-145.0
2023-08-10 17:17:33.587281,61.0
2023-08-10 17:17:33.594971,-78.0
2023-08-10 17:17:33.602662,-154.0
2023-08-10 17:17:33.610352,-73.0
2023-08-10 17:17:33.618042,-80.0
2023-08-10 17:17:33.625732,-116.0
2023-08-10 17:17:33.633423,-88.0
2023-08-10 17:17:33.641113,-69.0
2023-08-10 17:17:33.648803,-73.0
2023-08-10 17:17:33.656494,-59.0
2023-08-10 17:17:33.664184,-40.0
2023-08-10 17:17:33.671874,-35.0
2023-08-10 17:17:33.679565,-26.0
2023-08-10 17:17:33.687255,-11.0
2023-08-10 17:17:33.694945,2.0
2023-08-10 17:17:33.702636,21.0
2023-08-10 17:17:33.710326,42.0
2023-08-10 17:17:33.718016,54.0
2023-08-10 17:17:33.725707,76.0
2023-08-10 17:17:33.733397,104.0
2023-08-10 17:17:33.741087,130.0
2023-08-10 17:17:33.748777,157.0
2023-08-10 17:17:33.756468,183.0
2023-08-10 17:17:33.764158,204.0
2023-08-10 17:17:33.771848,216.0
2023-08-10 17:17:33.779539,221.0
2023-08-10 17:17:33.787229,226.0
2023-08-10 17:17:33.794919,230.0
2023-08-10 17:17:33.802610,216.0
2023-08-10 17:17:33.810300,171.0
2023-08-10 17:17:33.817990,109.0
2023-08-10 17:17:33.825681,40.0
2023-08-10 17:17:33.833371,-26.0
2023-08-10 17:17:33.841061,-88.0
2023-08-10 17:17:33.848751,-138.0
2023-08-10 17:17:33.856442,-176.0
2023-08-10 17:17:33.864132,-199.0
2023-08-10 17:17:33.871822,-221.0
2023-08-10 17:17:33.879513,-233.0
2023-08-10 17:17:33.887203,-230.0
2023-08-10 17:17:33.894893,-221.0
2023-08-10 17:17:33.902584,-223.0
2023-08-10 17:17:33.910274,-226.0
2023-08-10 17:17:33.917964,-216.0
2023-08-10 17:17:33.925655,-202.0
2023-08-10 17:17:33.933345,-192.0
2023-08-10 17:17:33.941035,-190.0
2023-08-10 17:17:33.948726,-185.0
2023-08-10 17:17:33.956416,-176.0
2023-08-10 17:17:33.964106,-164.0
2023-08-10 17:17:33.971796,-169.0
2023-08-10 17:17:33.979487,-166.0
2023-08-10 17:17:33.987177,-157.0
2023-08-10 17:17:33.994867,-154.0
2023-08-10 17:17:34.002558,-159.0
2023-08-10 17:17:34.010248,-154.0
2023-08-10 17:17:34.017938,-147.0
2023-08-10 17:17:34.025629,-149.0
2023-08-10 17:17:34.033319,-147.0
2023-08-10 17:17:34.041009,-147.0
2023-08-10 17:17:34.048700,-154.0
2023-08-10 17:17:34.056390,-157.0
2023-08-10 17:17:34.064080,-149.0
2023-08-10 17:17:34.071770,-145.0
2023-08-10 17:17:34.079461,-145.0
2023-08-10 17:17:34.087151,-142.0
2023-08-10 17:17:34.094841,-140.0
2023-08-10 17:17:34.102532,-140.0
2023-08-10 17:17:34.110222,-140.0
2023-08-10 17:17:34.117912,-130.0
2023-08-10 17:17:34.125603,-128.0
2023-08-10 17:17:34.133293,-128.0
2023-08-10 17:17:34.140983,-126.0
2023-08-10 17:17:34.148674,-121.0
2023-08-10 17:17:34.156364,-123.0
2023-08-10 17:17:34.164054,-119.0
2023-08-10 17:17:34.171744,-119.0
2023-08-10 17:17:34.179435,-119.0
2023-08-10 17:17:34.187125,-116.0
2023-08-10 17:17:34.194815,-111.0
2023-08-10 17:17:34.202506,-109.0
2023-08-10 17:17:34.210196,-102.0
2023-08-10 17:17:34.217886,-102.0
2023-08-10 17:17:34.225577,-107.0
2023-08-10 17:17:34.233267,-104.0
2023-08-10 17:17:34.240957,-102.0
2023-08-10 17:17:34.248648,-97.0
2023-08-10 17:17:34.256338,-85.0
2023-08-10 17:17:34.264028,-69.0
2023-08-10 17:17:34.271719,-52.0
2023-08-10 17:17:34.279409,-45.0
2023-08-10 17:17:34.287099,-61.0
2023-08-10 17:17:34.294789,-83.0
2023-08-10 17:17:34.302480,-73.0
2023-08-10 17:17:34.310170,-66.0
2023-08-10 17:17:34.317860,-104.0
2023-08-10 17:17:34.325551,-130.0
2023-08-10 17:17:34.333241,-116.0
2023-08-10 17:17:34.340931,-111.0
2023-08-10 17:17:34.348622,-116.0
2023-08-10 17:17:34.356312,-111.0
2023-08-10 17:17:34.364002,-109.0
2023-08-10 17:17:34.371693,-109.0
2023-08-10 17:17:34.379383,-102.0
2023-08-10 17:17:34.387073,-99.0
2023-08-10 17:17:34.394763,-99.0
2023-08-10 17:17:34.402454,-35.0
2023-08-10 17:17:34.410144,218.0
2023-08-10 17:17:34.417834,640.0
2023-08-10 17:17:34.425525,935.0
2023-08-10 17:17:34.433215,728.0
2023-08-10 17:17:34.440905,49.0
2023-08-10 17:17:34.448596,-326.0
2023-08-10 17:17:34.456286,-76.0
2023-08-10 17:17:34.463976,61.0
2023-08-10 17:17:34.471667,-114.0
2023-08-10 17:17:34.479357,-133.0
2023-08-10 17:17:34.487047,-59.0
2023-08-10 17:17:34.494738,-92.0
2023-08-10 17:17:34.502428,-107.0
2023-08-10 17:17:34.510118,-69.0
2023-08-10 17:17:34.517808,-66.0
2023-08-10 17:17:34.525499,-71.0
2023-08-10 17:17:34.533189,-49.0
2023-08-10 17:17:34.540879,-38.0
2023-08-10 17:17:34.548570,-33.0
2023-08-10 17:17:34.556260,-23.0
2023-08-10 17:17:34.563950,-9.0
2023-08-10 17:17:34.571641,7.0
2023-08-10 17:17:34.579331,23.0
2023-08-10 17:17:34.587021,42.0
2023-08-10 17:17:34.594712,64.0
2023-08-10 17:17:34.602402,88.0
2023-08-10 17:17:34.610092,116.0
2023-08-10 17:17:34.617782,140.0
2023-08-10 17:17:34.625473,164.0
2023-08-10 17:17:34.633163,188.0
2023-08-10 17:17:34.640853,211.0
2023-08-10 17:17:34.648544,226.0
2023-08-10 17:17:34.656234,235.0
2023-08-10 17:17:34.663924,238.0
2023-08-10 17:17:34.671615,228.0
2023-08-10 17:17:34.679305,199.0
2023-08-10 17:17:34.686995,152.0
2023-08-10 17:17:34.694686,92.0
2023-08-10 17:17:34.702376,23.0
2023-08-10 17:17:34.710066,-45.0
2023-08-10 17:17:34.717756,-104.0
2023-08-10 17:17:34.725447,-149.0
2023-08-10 17:17:34.733137,-185.0
2023-08-10 17:17:34.740827,-207.0
2023-08-10 17:17:34.748518,-218.0
2023-08-10 17:17:34.756208,-223.0
2023-08-10 17:17:34.763898,-226.0
2023-08-10 17:17:34.771589,-223.0
2023-08-10 17:17:34.779279,-218.0
2023-08-10 17:17:34.786969,-211.0
2023-08-10 17:17:34.794660,-207.0
2023-08-10 17:17:34.802350,-199.0
2023-08-10 17:17:34.810040,-195.0
2023-08-10 17:17:34.817731,-188.0
2023-08-10 17:17:34.825421,-180.0
2023-08-10 17:17:34.833111,-173.0
2023-08-10 17:17:34.840801,-166.0
2023-08-10 17:17:34.848492,-161.0
2023-08-10 17:17:34.856182,-159.0
2023-08-10 17:17:34.863872,-157.0
2023-08-10 17:17:34.871563,-157.0
2023-08-10 17:17:34.879253,-154.0
2023-08-10 17:17:34.886943,-154.0
2023-08-10 17:17:34.894634,-154.0
2023-08-10 17:17:34.902324,-159.0
2023-08-10 17:17:34.910014,-159.0
2023-08-10 17:17:34.917705,-154.0
2023-08-10 17:17:34.925395,-149.0
2023-08-10 17:17:34.933085,-152.0
2023-08-10 17:17:34.940775,-152.0
2023-08-10 17:17:34.948466,-147.0
2023-08-10 17:17:34.956156,-142.0
2023-08-10 17:17:34.963846,-142.0
2023-08-10 17:17:34.971537,-138.0
2023-08-10 17:17:34.979227,-135.0
2023-08-10 17:17:34.986917,-135.0
2023-08-10 17:17:34.994608,-133.0
2023-08-10 17:17:35.002298,-128.0
2023-08-10 17:17:35.009988,-123.0
2023-08-10 17:17:35.017679,-121.0
2023-08-10 17:17:35.025369,-119.0
2023-08-10 17:17:35.033059,-119.0
2023-08-10 17:17:35.040750,-119.0
2023-08-10 17:17:35.048440,-116.0
2023-08-10 17:17:35.056130,-119.0
2023-08-10 17:17:35.063820,-119.0
2023-08-10 17:17:35.071511,-116.0
2023-08-10 17:17:35.079201,-111.0
2023-08-10 17:17:35.086891,-111.0
2023-08-10 17:17:35.094582,-107.0
2023-08-10 17:17:35.102272,-107.0
2023-08-10 17:17:35.109962,-104.0
2023-08-10 17:17:35.117653,-104.0
2023-08-10 17:17:35.125343,-104.0
2023-08-10 17:17:35.133033,-95.0
2023-08-10 17:17:35.140724,-78.0
2023-08-10 17:17:35.148414,-61.0
2023-08-10 17:17:35.156104,-52.0
2023-08-10 17:17:35.163794,-66.0
2023-08-10 17:17:35.171485,-83.0
2023-08-10 17:17:35.179175,-69.0
2023-08-10 17:17:35.186865,-57.0
2023-08-10 17:17:35.194556,-88.0
2023-08-10 17:17:35.202246,-109.0
2023-08-10 17:17:35.209936,-99.0
2023-08-10 17:17:35.217627,-95.0
2023-08-10 17:17:35.225317,-99.0
2023-08-10 17:17:35.233007,-95.0
2023-08-10 17:17:35.240698,-90.0
2023-08-10 17:17:35.248388,-90.0
2023-08-10 17:17:35.256078,-90.0
2023-08-10 17:17:35.263768,-95.0
2023-08-10 17:17:35.271459,-99.0
2023-08-10 17:17:35.279149,-28.0
2023-08-10 17:17:35.286839,228.0
2023-08-10 17:17:35.294530,621.0
2023-08-10 17:17:35.302220,897.0
2023-08-10 17:17:35.309910,711.0
2023-08-10 17:17:35.317601,64.0
2023-08-10 17:17:35.325291,-266.0
2023-08-10 17:17:35.332981,-35.0
2023-08-10 17:17:35.340672,28.0
2023-08-10 17:17:35.348362,-145.0
2023-08-10 17:17:35.356052,-133.0
2023-08-10 17:17:35.363743,-73.0
2023-08-10 17:17:35.371433,-111.0
2023-08-10 17:17:35.379123,-119.0
2023-08-10 17:17:35.386813,-85.0
2023-08-10 17:17:35.394504,-83.0
2023-08-10 17:17:35.402194,-80.0
2023-08-10 17:17:35.409884,-64.0
2023-08-10 17:17:35.417575,-52.0
2023-08-10 17:17:35.425265,-45.0
2023-08-10 17:17:35.432955,-33.0
2023-08-10 17:17:35.440646,-23.0
2023-08-10 17:17:35.448336,-16.0
2023-08-10 17:17:35.456026,2.0
2023-08-10 17:17:35.463717,26.0
2023-08-10 17:17:35.471407,42.0
2023-08-10 17:17:35.479097,66.0
2023-08-10 17:17:35.486787,95.0
2023-08-10 17:17:35.494478,119.0
2023-08-10 17:17:35.502168,145.0
2023-08-10 17:17:35.509858,169.0
2023-08-10 17:17:35.517549,190.0
2023-08-10 17:17:35.525239,207.0
2023-08-10 17:17:35.532929,216.0
2023-08-10 17:17:35.540620,216.0
2023-08-10 17:17:35.548310,207.0
2023-08-10 17:17:35.556000,180.0
2023-08-10 17:17:35.563691,126.0
2023-08-10 17:17:35.571381,61.0
2023-08-10 17:17:35.579071,-4.0
2023-08-10 17:17:35.586762,-66.0
2023-08-10 17:17:35.594452,-121.0
2023-08-10 17:17:35.602142,-166.0
2023-08-10 17:17:35.609832,-199.0
2023-08-10 17:17:35.617523,-221.0
2023-08-10 17:17:35.625213,-233.0
2023-08-10 17:17:35.632903,-235.0
2023-08-10 17:17:35.640594,-233.0
2023-08-10 17:17:35.648284,-230.0
2023-08-10 17:17:35.655974,-226.0
2023-08-10 17:17:35.663665,-218.0
2023-08-10 17:17:35.671355,-211.0
2023-08-10 17:17:35.679045,-204.0
2023-08-10 17:17:35.686736,-197.0
2023-08-10 17:17:35.694426,-188.0
2023-08-10 17:17:35.702116,-183.0
2023-08-10 17:17:35.709806,-178.0
2023-08-10 17:17:35.717497,-173.0
2023-08-10 17:17:35.725187,-166.0
2023-08-10 17:17:35.732877,-161.0
2023-08-10 17:17:35.740568,-157.0
2023-08-10 17:17:35.748258,-154.0
2023-08-10 17:17:35.755948,-154.0
2023-08-10 17:17:35.763639,-152.0
2023-08-10 17:17:35.771329,-149.0
2023-08-10 17:17:35.779019,-149.0
2023-08-10 17:17:35.786710,-149.0
2023-08-10 17:17:35.794400,-149.0
2023-08-10 17:17:35.802090,-147.0
2023-08-10 17:17:35.809780,-147.0
2023-08-10 17:17:35.817471,-142.0
2023-08-10 17:17:35.825161,-140.0
2023-08-10 17:17:35.832851,-140.0
2023-08-10 17:17:35.840542,-140.0
2023-08-10 17:17:35.848232,-138.0
2023-08-10 17:17:35.855922,-133.0
2023-08-10 17:17:35.863613,-130.0
2023-08-10 17:17:35.871303,-126.0
2023-08-10 17:17:35.878993,-123.0
2023-08-10 17:17:35.886684,-123.0
2023-08-10 17:17:35.894374,-119.0
2023-08-10 17:17:35.902064,-114.0
2023-08-10 17:17:35.909755,-111.0
2023-08-10 17:17:35.917445,-109.0
2023-08-10 17:17:35.925135,-107.0
2023-08-10 17:17:35.932825,-104.0
2023-08-10 17:17:35.940516,-104.0
2023-08-10 17:17:35.948206,-99.0
2023-08-10 17:17:35.955896,-97.0
2023-08-10 17:17:35.963587,-95.0
2023-08-10 17:17:35.971277,-95.0
2023-08-10 17:17:35.978967,-97.0
2023-08-10 17:17:35.986658,-102.0
2023-08-10 17:17:35.994348,-99.0
2023-08-10 17:17:36.002038,-95.0
2023-08-10 17:17:36.009729,-88.0
2023-08-10 17:17:36.017419,-73.0
2023-08-10 17:17:36.025109,-59.0
2023-08-10 17:17:36.032799,-47.0
2023-08-10 17:17:36.040490,-42.0
2023-08-10 17:17:36.048180,-59.0
2023-08-10 17:17:36.055870,-69.0
2023-08-10 17:17:36.063561,-52.0
2023-08-10 17:17:36.071251,-64.0
2023-08-10 17:17:36.078941,-99.0
2023-08-10 17:17:36.086632,-109.0
2023-08-10 17:17:36.094322,-95.0
2023-08-10 17:17:36.102012,-97.0
2023-08-10 17:17:36.109703,-102.0
2023-08-10 17:17:36.117393,-97.0
2023-08-10 17:17:36.125083,-92.0
2023-08-10 17:17:36.132774,-90.0
2023-08-10 17:17:36.140464,-85.0
2023-08-10 17:17:36.148154,-90.0
2023-08-10 17:17:36.155844,-83.0
2023-08-10 17:17:36.163535,30.0
2023-08-10 17:17:36.171225,345.0
2023-08-10 17:17:36.178915,737.0
2023-08-10 17:17:36.186606,914.0
2023-08-10 17:17:36.194296,566.0
2023-08-10 17:17:36.201986,-71.0
2023-08-10 17:17:36.209677,-214.0
2023-08-10 17:17:36.217367,35.0
2023-08-10 17:17:36.225057,-7.0
2023-08-10 17:17:36.232748,-152.0
2023-08-10 17:17:36.240438,-97.0
2023-08-10 17:17:36.248128,-71.0
2023-08-10 17:17:36.255818,-114.0
2023-08-10 17:17:36.263509,-97.0
2023-08-10 17:17:36.271199,-71.0
2023-08-10 17:17:36.278889,-80.0
2023-08-10 17:17:36.286580,-78.0
2023-08-10 17:17:36.294270,-57.0
2023-08-10 17:17:36.301960,-49.0
2023-08-10 17:17:36.309651,-42.0
2023-08-10 17:17:36.317341,-23.0
2023-08-10 17:17:36.325031,-9.0
2023-08-10 17:17:36.332722,4.0
2023-08-10 17:17:36.340412,19.0
2023-08-10 17:17:36.348102,38.0
2023-08-10 17:17:36.355792,61.0
2023-08-10 17:17:36.363483,88.0
2023-08-10 17:17:36.371173,114.0
2023-08-10 17:17:36.378863,135.0
2023-08-10 17:17:36.386554,157.0
2023-08-10 17:17:36.394244,180.0
2023-08-10 17:17:36.401934,202.0
2023-08-10 17:17:36.409625,216.0
2023-08-10 17:17:36.417315,223.0
2023-08-10 17:17:36.425005,226.0
2023-08-10 17:17:36.432696,209.0
2023-08-10 17:17:36.440386,176.0
2023-08-10 17:17:36.448076,128.0
2023-08-10 17:17:36.455767,66.0
2023-08-10 17:17:36.463457,0.0
2023-08-10 17:17:36.471147,-64.0
2023-08-10 17:17:36.478837,-121.0
2023-08-10 17:17:36.486528,-161.0
2023-08-10 17:17:36.494218,-190.0
2023-08-10 17:17:36.501908,-207.0
2023-08-10 17:17:36.509599,-216.0
2023-08-10 17:17:36.517289,-218.0
2023-08-10 17:17:36.524979,-221.0
2023-08-10 17:17:36.532670,-218.0
2023-08-10 17:17:36.540360,-211.0
2023-08-10 17:17:36.548050,-202.0
2023-08-10 17:17:36.555741,-192.0
2023-08-10 17:17:36.563431,-188.0
2023-08-10 17:17:36.571121,-183.0
2023-08-10 17:17:36.578811,-180.0
2023-08-10 17:17:36.586502,-171.0
2023-08-10 17:17:36.594192,-164.0
2023-08-10 17:17:36.601882,-164.0
2023-08-10 17:17:36.609573,-166.0
2023-08-10 17:17:36.617263,-169.0
2023-08-10 17:17:36.624953,-164.0
2023-08-10 17:17:36.632644,-157.0
2023-08-10 17:17:36.640334,-157.0
2023-08-10 17:17:36.648024,-154.0
2023-08-10 17:17:36.655715,-152.0
2023-08-10 17:17:36.663405,-149.0
2023-08-10 17:17:36.671095,-149.0
2023-08-10 17:17:36.678786,-145.0
2023-08-10 17:17:36.686476,-140.0
2023-08-10 17:17:36.694166,-140.0
2023-08-10 17:17:36.701856,-140.0
2023-08-10 17:17:36.709547,-138.0
2023-08-10 17:17:36.717237,-133.0
2023-08-10 17:17:36.724927,-130.0
2023-08-10 17:17:36.732618,-128.0
2023-08-10 17:17:36.740308,-126.0
2023-08-10 17:17:36.747998,-123.0
2023-08-10 17:17:36.755689,-121.0
2023-08-10 17:17:36.763379,-121.0
2023-08-10 17:17:36.771069,-119.0
2023-08-10 17:17:36.778760,-116.0
2023-08-10 17:17:36.786450,-111.0
2023-08-10 17:17:36.794140,-111.0
2023-08-10 17:17:36.801830,-107.0
2023-08-10 17:17:36.809521,-107.0
2023-08-10 17:17:36.817211,-104.0
2023-08-10 17:17:36.824901,-102.0
2023-08-10 17:17:36.832592,-99.0
2023-08-10 17:17:36.840282,-97.0
2023-08-10 17:17:36.847972,-92.0
2023-08-10 17:17:36.855663,-92.0
2023-08-10 17:17:36.863353,-90.0
2023-08-10 17:17:36.871043,-88.0
2023-08-10 17:17:36.878734,-85.0
2023-08-10 17:17:36.886424,-83.0
2023-08-10 17:17:36.894114,-83.0
2023-08-10 17:17:36.901804,-80.0
2023-08-10 17:17:36.909495,-69.0
2023-08-10 17:17:36.917185,-52.0
2023-08-10 17:17:36.924875,-35.0
2023-08-10 17:17:36.932566,-30.0
2023-08-10 17:17:36.940256,-47.0
2023-08-10 17:17:36.947946,-61.0
2023-08-10 17:17:36.955637,-45.0
2023-08-10 17:17:36.963327,-40.0
2023-08-10 17:17:36.971017,-76.0
2023-08-10 17:17:36.978708,-95.0
2023-08-10 17:17:36.986398,-80.0
2023-08-10 17:17:36.994088,-78.0
2023-08-10 17:17:37.001779,-88.0
2023-08-10 17:17:37.009469,-85.0
2023-08-10 17:17:37.017159,-80.0
2023-08-10 17:17:37.024849,-80.0
2023-08-10 17:17:37.032540,-78.0
2023-08-10 17:17:37.040230,-83.0
2023-08-10 17:17:37.047920,-78.0
2023-08-10 17:17:37.055611,19.0
2023-08-10 17:17:37.063301,307.0
2023-08-10 17:17:37.070991,697.0
2023-08-10 17:17:37.078682,902.0
2023-08-10 17:17:37.086372,599.0
2023-08-10 17:17:37.094062,-35.0
2023-08-10 17:17:37.101753,-233.0
2023-08-10 17:17:37.109443,14.0
2023-08-10 17:17:37.117133,9.0
2023-08-10 17:17:37.124823,-142.0
2023-08-10 17:17:37.132514,-109.0
2023-08-10 17:17:37.140204,-69.0
2023-08-10 17:17:37.147894,-114.0
2023-08-10 17:17:37.155585,-116.0
2023-08-10 17:17:37.163275,-85.0
2023-08-10 17:17:37.170965,-85.0
2023-08-10 17:17:37.178656,-83.0
2023-08-10 17:17:37.186346,-69.0
2023-08-10 17:17:37.194036,-59.0
2023-08-10 17:17:37.201727,-52.0
2023-08-10 17:17:37.209417,-38.0
2023-08-10 17:17:37.217107,-23.0
2023-08-10 17:17:37.224798,-7.0
2023-08-10 17:17:37.232488,9.0
2023-08-10 17:17:37.240178,26.0
2023-08-10 17:17:37.247868,47.0
2023-08-10 17:17:37.255559,71.0
2023-08-10 17:17:37.263249,92.0
2023-08-10 17:17:37.270939,116.0
2023-08-10 17:17:37.278630,142.0
2023-08-10 17:17:37.286320,166.0
2023-08-10 17:17:37.294010,185.0
2023-08-10 17:17:37.301701,199.0
2023-08-10 17:17:37.309391,209.0
2023-08-10 17:17:37.317081,211.0
2023-08-10 17:17:37.324772,199.0
2023-08-10 17:17:37.332462,169.0
2023-08-10 17:17:37.340152,123.0
2023-08-10 17:17:37.347842,64.0
2023-08-10 17:17:37.355533,0.0
2023-08-10 17:17:37.363223,-64.0
2023-08-10 17:17:37.370913,-119.0
2023-08-10 17:17:37.378604,-161.0
2023-08-10 17:17:37.386294,-190.0
2023-08-10 17:17:37.393984,-211.0
2023-08-10 17:17:37.401675,-221.0
2023-08-10 17:17:37.409365,-226.0
2023-08-10 17:17:37.417055,-228.0
2023-08-10 17:17:37.424746,-226.0
2023-08-10 17:17:37.432436,-216.0
2023-08-10 17:17:37.440126,-209.0
2023-08-10 17:17:37.447817,-202.0
2023-08-10 17:17:37.455507,-195.0
2023-08-10 17:17:37.463197,-188.0
2023-08-10 17:17:37.470887,-180.0
2023-08-10 17:17:37.478578,-173.0
2023-08-10 17:17:37.486268,-166.0
2023-08-10 17:17:37.493958,-161.0
2023-08-10 17:17:37.501649,-159.0
2023-08-10 17:17:37.509339,-161.0
2023-08-10 17:17:37.517029,-159.0
2023-08-10 17:17:37.524720,-157.0
2023-08-10 17:17:37.532410,-152.0
2023-08-10 17:17:37.540100,-149.0
2023-08-10 17:17:37.547791,-147.0
2023-08-10 17:17:37.555481,-147.0
2023-08-10 17:17:37.563171,-147.0
2023-08-10 17:17:37.570861,-145.0
2023-08-10 17:17:37.578552,-145.0
2023-08-10 17:17:37.586242,-147.0
2023-08-10 17:17:37.593932,-147.0
2023-08-10 17:17:37.601623,-142.0
2023-08-10 17:17:37.609313,-140.0
2023-08-10 17:17:37.617003,-138.0
2023-08-10 17:17:37.624694,-135.0
2023-08-10 17:17:37.632384,-133.0
2023-08-10 17:17:37.640074,-130.0
2023-08-10 17:17:37.647765,-128.0
2023-08-10 17:17:37.655455,-123.0
2023-08-10 17:17:37.663145,-121.0
2023-08-10 17:17:37.670835,-116.0
2023-08-10 17:17:37.678526,-114.0
2023-08-10 17:17:37.686216,-119.0
2023-08-10 17:17:37.693906,-121.0
2023-08-10 17:17:37.701597,-119.0
2023-08-10 17:17:37.709287,-114.0
2023-08-10 17:17:37.716977,-111.0
2023-08-10 17:17:37.724668,-111.0
2023-08-10 17:17:37.732358,-111.0
2023-08-10 17:17:37.740048,-114.0
2023-08-10 17:17:37.747739,-114.0
2023-08-10 17:17:37.755429,-111.0
2023-08-10 17:17:37.763119,-109.0
2023-08-10 17:17:37.770810,-107.0
2023-08-10 17:17:37.778500,-107.0
2023-08-10 17:17:37.786190,-104.0
2023-08-10 17:17:37.793880,-92.0
2023-08-10 17:17:37.801571,-76.0
2023-08-10 17:17:37.809261,-61.0
2023-08-10 17:17:37.816951,-49.0
2023-08-10 17:17:37.824642,-59.0
2023-08-10 17:17:37.832332,-78.0
2023-08-10 17:17:37.840022,-66.0
2023-08-10 17:17:37.847713,-47.0
2023-08-10 17:17:37.855403,-76.0
2023-08-10 17:17:37.863093,-104.0
2023-08-10 17:17:37.870784,-97.0
2023-08-10 17:17:37.878474,-92.0
2023-08-10 17:17:37.886164,-95.0
2023-08-10 17:17:37.893854,-92.0
2023-08-10 17:17:37.901545,-88.0
2023-08-10 17:17:37.909235,-88.0
2023-08-10 17:17:37.916925,-85.0
2023-08-10 17:17:37.924616,-85.0
2023-08-10 17:17:37.932306,-90.0
2023-08-10 17:17:37.939996,-38.0
2023-08-10 17:17:37.947687,183.0
2023-08-10 17:17:37.955377,566.0
2023-08-10 17:17:37.963067,873.0
2023-08-10 17:17:37.970758,740.0
2023-08-10 17:17:37.978448,128.0
2023-08-10 17:17:37.986138,-261.0
2023-08-10 17:17:37.993829,-59.0
2023-08-10 17:17:38.001519,61.0
2023-08-10 17:17:38.009209,-104.0
2023-08-10 17:17:38.016899,-128.0
2023-08-10 17:17:38.024590,-61.0
2023-08-10 17:17:38.032280,-92.0
2023-08-10 17:17:38.039970,-109.0
2023-08-10 17:17:38.047661,-76.0
2023-08-10 17:17:38.055351,-73.0
2023-08-10 17:17:38.063041,-78.0
2023-08-10 17:17:38.070732,-59.0
2023-08-10 17:17:38.078422,-42.0
2023-08-10 17:17:38.086112,-40.0
2023-08-10 17:17:38.093803,-33.0
2023-08-10 17:17:38.101493,-21.0
2023-08-10 17:17:38.109183,-2.0
2023-08-10 17:17:38.116873,16.0
2023-08-10 17:17:38.124564,35.0
2023-08-10 17:17:38.132254,54.0
2023-08-10 17:17:38.139944,73.0
2023-08-10 17:17:38.147635,95.0
2023-08-10 17:17:38.155325,121.0
2023-08-10 17:17:38.163015,145.0
2023-08-10 17:17:38.170706,171.0
2023-08-10 17:17:38.178396,192.0
2023-08-10 17:17:38.186086,207.0
2023-08-10 17:17:38.193777,218.0
2023-08-10 17:17:38.201467,221.0
2023-08-10 17:17:38.209157,214.0
2023-08-10 17:17:38.216847,192.0
2023-08-10 17:17:38.224538,154.0
2023-08-10 17:17:38.232228,97.0
2023-08-10 17:17:38.239918,28.0
2023-08-10 17:17:38.247609,-40.0
2023-08-10 17:17:38.255299,-97.0
2023-08-10 17:17:38.262989,-142.0
2023-08-10 17:17:38.270680,-185.0
2023-08-10 17:17:38.278370,-214.0
2023-08-10 17:17:38.286060,-230.0
2023-08-10 17:17:38.293751,-235.0
2023-08-10 17:17:38.301441,-238.0
2023-08-10 17:17:38.309131,-230.0
2023-08-10 17:17:38.316822,-223.0
2023-08-10 17:17:38.324512,-221.0
2023-08-10 17:17:38.332202,-211.0
2023-08-10 17:17:38.339892,-199.0
2023-08-10 17:17:38.347583,-190.0
2023-08-10 17:17:38.355273,-183.0
2023-08-10 17:17:38.362963,-176.0
2023-08-10 17:17:38.370654,-176.0
2023-08-10 17:17:38.378344,-173.0
2023-08-10 17:17:38.386034,-164.0
2023-08-10 17:17:38.393725,-154.0
2023-08-10 17:17:38.401415,-154.0
2023-08-10 17:17:38.409105,-157.0
2023-08-10 17:17:38.416796,-157.0
2023-08-10 17:17:38.424486,-154.0
2023-08-10 17:17:38.432176,-149.0
2023-08-10 17:17:38.439866,-147.0
2023-08-10 17:17:38.447557,-147.0
2023-08-10 17:17:38.455247,-145.0
2023-08-10 17:17:38.462937,-142.0
2023-08-10 17:17:38.470628,-145.0
2023-08-10 17:17:38.478318,-140.0
2023-08-10 17:17:38.486008,-133.0
2023-08-10 17:17:38.493699,-138.0
2023-08-10 17:17:38.501389,-140.0
2023-08-10 17:17:38.509079,-133.0
2023-08-10 17:17:38.516770,-133.0
2023-08-10 17:17:38.524460,-138.0
2023-08-10 17:17:38.532150,-130.0
2023-08-10 17:17:38.539841,-123.0
2023-08-10 17:17:38.547531,-123.0
2023-08-10 17:17:38.555221,-123.0
2023-08-10 17:17:38.562911,-119.0
2023-08-10 17:17:38.570602,-119.0
2023-08-10 17:17:38.578292,-111.0
2023-08-10 17:17:38.585982,-107.0
2023-08-10 17:17:38.593673,-109.0
2023-08-10 17:17:38.601363,-116.0
2023-08-10 17:17:38.609053,-114.0
2023-08-10 17:17:38.616744,-109.0
2023-08-10 17:17:38.624434,-107.0
2023-08-10 17:17:38.632124,-107.0
2023-08-10 17:17:38.639815,-107.0
2023-08-10 17:17:38.647505,-107.0
2023-08-10 17:17:38.655195,-102.0
2023-08-10 17:17:38.662885,-85.0
2023-08-10 17:17:38.670576,-71.0
2023-08-10 17:17:38.678266,-54.0
2023-08-10 17:17:38.685956,-45.0
2023-08-10 17:17:38.693647,-59.0
2023-08-10 17:17:38.701337,-78.0
2023-08-10 17:17:38.709027,-64.0
2023-08-10 17:17:38.716718,-52.0
2023-08-10 17:17:38.724408,-83.0
2023-08-10 17:17:38.732098,-104.0
2023-08-10 17:17:38.739789,-95.0
2023-08-10 17:17:38.747479,-95.0
2023-08-10 17:17:38.755169,-99.0
2023-08-10 17:17:38.762859,-95.0
2023-08-10 17:17:38.770550,-92.0
2023-08-10 17:17:38.778240,-92.0
2023-08-10 17:17:38.785930,-88.0
2023-08-10 17:17:38.793621,-85.0
2023-08-10 17:17:38.801311,-83.0
2023-08-10 17:17:38.809001,-4.0
2023-08-10 17:17:38.816692,271.0
2023-08-10 17:17:38.824382,695.0
2023-08-10 17:17:38.832072,940.0
2023-08-10 17:17:38.839763,630.0
2023-08-10 17:17:38.847453,-71.0
2023-08-10 17:17:38.855143,-340.0
2023-08-10 17:17:38.862834,-40.0
2023-08-10 17:17:38.870524,45.0
2023-08-10 17:17:38.878214,-130.0
2023-08-10 17:17:38.885904,-123.0
2023-08-10 17:17:38.893595,-64.0
2023-08-10 17:17:38.901285,-102.0
2023-08-10 17:17:38.908975,-109.0
2023-08-10 17:17:38.916666,-73.0
2023-08-10 17:17:38.924356,-71.0
2023-08-10 17:17:38.932046,-73.0
2023-08-10 17:17:38.939737,-54.0
2023-08-10 17:17:38.947427,-42.0
2023-08-10 17:17:38.955117,-38.0
2023-08-10 17:17:38.962808,-21.0
2023-08-10 17:17:38.970498,-4.0
2023-08-10 17:17:38.978188,4.0
2023-08-10 17:17:38.985878,23.0
2023-08-10 17:17:38.993569,40.0
2023-08-10 17:17:39.001259,59.0
2023-08-10 17:17:39.008949,83.0
2023-08-10 17:17:39.016640,111.0
2023-08-10 17:17:39.024330,135.0
2023-08-10 17:17:39.032020,157.0
2023-08-10 17:17:39.039711,183.0
2023-08-10 17:17:39.047401,202.0
2023-08-10 17:17:39.055091,216.0
2023-08-10 17:17:39.062782,226.0
2023-08-10 17:17:39.070472,226.0
2023-08-10 17:17:39.078162,216.0
2023-08-10 17:17:39.085853,188.0
2023-08-10 17:17:39.093543,140.0
2023-08-10 17:17:39.101233,73.0
2023-08-10 17:17:39.108923,-2.0
2023-08-10 17:17:39.116614,-69.0
2023-08-10 17:17:39.124304,-123.0
2023-08-10 17:17:39.131994,-166.0
2023-08-10 17:17:39.139685,-199.0
2023-08-10 17:17:39.147375,-218.0
2023-08-10 17:17:39.155065,-228.0
2023-08-10 17:17:39.162756,-233.0
2023-08-10 17:17:39.170446,-235.0
2023-08-10 17:17:39.178136,-230.0
2023-08-10 17:17:39.185827,-221.0
2023-08-10 17:17:39.193517,-214.0
2023-08-10 17:17:39.201207,-207.0
2023-08-10 17:17:39.208897,-197.0
2023-08-10 17:17:39.216588,-192.0
2023-08-10 17:17:39.224278,-185.0
2023-08-10 17:17:39.231968,-183.0
2023-08-10 17:17:39.239659,-176.0
2023-08-10 17:17:39.247349,-169.0
2023-08-10 17:17:39.255039,-169.0
2023-08-10 17:17:39.262730,-169.0
2023-08-10 17:17:39.270420,-161.0
2023-08-10 17:17:39.278110,-157.0
2023-08-10 17:17:39.285801,-154.0
2023-08-10 17:17:39.293491,-152.0
2023-08-10 17:17:39.301181,-152.0
2023-08-10 17:17:39.308871,-152.0
2023-08-10 17:17:39.316562,-149.0
2023-08-10 17:17:39.324252,-147.0
2023-08-10 17:17:39.331942,-142.0
2023-08-10 17:17:39.339633,-140.0
2023-08-10 17:17:39.347323,-140.0
2023-08-10 17:17:39.355013,-145.0
2023-08-10 17:17:39.362704,-147.0
2023-08-10 17:17:39.370394,-142.0
2023-08-10 17:17:39.378084,-135.0
2023-08-10 17:17:39.385775,-135.0
2023-08-10 17:17:39.393465,-133.0
2023-08-10 17:17:39.401155,-128.0
2023-08-10 17:17:39.408846,-128.0
2023-08-10 17:17:39.416536,-126.0
2023-08-10 17:17:39.424226,-121.0
2023-08-10 17:17:39.431916,-119.0
2023-08-10 17:17:39.439607,-119.0
2023-08-10 17:17:39.447297,-114.0
2023-08-10 17:17:39.454987,-111.0
2023-08-10 17:17:39.462678,-109.0
2023-08-10 17:17:39.470368,-107.0
2023-08-10 17:17:39.478058,-107.0
2023-08-10 17:17:39.485749,-107.0
2023-08-10 17:17:39.493439,-104.0
2023-08-10 17:17:39.501129,-102.0
2023-08-10 17:17:39.508820,-99.0
2023-08-10 17:17:39.516510,-97.0
2023-08-10 17:17:39.524200,-88.0
2023-08-10 17:17:39.531890,-76.0
2023-08-10 17:17:39.539581,-57.0
2023-08-10 17:17:39.547271,-42.0
2023-08-10 17:17:39.554961,-52.0
2023-08-10 17:17:39.562652,-73.0
2023-08-10 17:17:39.570342,-64.0
2023-08-10 17:17:39.578032,-49.0
2023-08-10 17:17:39.585723,-76.0
2023-08-10 17:17:39.593413,-102.0
2023-08-10 17:17:39.601103,-95.0
2023-08-10 17:17:39.608794,-90.0
2023-08-10 17:17:39.616484,-97.0
2023-08-10 17:17:39.624174,-97.0
2023-08-10 17:17:39.631865,-95.0
2023-08-10 17:17:39.639555,-90.0
2023-08-10 17:17:39.647245,-85.0
2023-08-10 17:17:39.654935,-85.0
2023-08-10 17:17:39.662626,-90.0
2023-08-10 17:17:39.670316,-35.0
2023-08-10 17:17:39.678006,202.0
2023-08-10 17:17:39.685697,597.0
2023-08-10 17:17:39.693387,909.0
2023-08-10 17:17:39.701077,790.0
2023-08-10 17:17:39.708768,164.0
2023-08-10 17:17:39.716458,-249.0
2023-08-10 17:17:39.724148,-57.0
2023-08-10 17:17:39.731839,54.0
2023-08-10 17:17:39.739529,-111.0
2023-08-10 17:17:39.747219,-128.0
2023-08-10 17:17:39.754909,-59.0
2023-08-10 17:17:39.762600,-92.0
2023-08-10 17:17:39.770290,-107.0
2023-08-10 17:17:39.777980,-73.0
2023-08-10 17:17:39.785671,-71.0
2023-08-10 17:17:39.793361,-73.0
2023-08-10 17:17:39.801051,-57.0
2023-08-10 17:17:39.808742,-47.0
2023-08-10 17:17:39.816432,-40.0
2023-08-10 17:17:39.824122,-26.0
2023-08-10 17:17:39.831813,-9.0
2023-08-10 17:17:39.839503,4.0
2023-08-10 17:17:39.847193,19.0
2023-08-10 17:17:39.854883,35.0
2023-08-10 17:17:39.862574,54.0
2023-08-10 17:17:39.870264,78.0
2023-08-10 17:17:39.877954,107.0
2023-08-10 17:17:39.885645,133.0
2023-08-10 17:17:39.893335,154.0
2023-08-10 17:17:39.901025,176.0
2023-08-10 17:17:39.908716,197.0
2023-08-10 17:17:39.916406,214.0
2023-08-10 17:17:39.924096,223.0
2023-08-10 17:17:39.931787,226.0
2023-08-10 17:17:39.939477,211.0
2023-08-10 17:17:39.947167,178.0
2023-08-10 17:17:39.954858,133.0
2023-08-10 17:17:39.962548,73.0
2023-08-10 17:17:39.970238,2.0
2023-08-10 17:17:39.977928,-64.0
2023-08-10 17:17:39.985619,-116.0
2023-08-10 17:17:39.993309,-161.0
2023-08-10 17:17:40.000999,-192.0
2023-08-10 17:17:40.008690,-216.0
2023-08-10 17:17:40.016380,-228.0
2023-08-10 17:17:40.024070,-233.0
2023-08-10 17:17:40.031761,-233.0
2023-08-10 17:17:40.039451,-230.0
2023-08-10 17:17:40.047141,-223.0
2023-08-10 17:17:40.054832,-214.0
2023-08-10 17:17:40.062522,-204.0
2023-08-10 17:17:40.070212,-197.0
2023-08-10 17:17:40.077902,-192.0
2023-08-10 17:17:40.085593,-188.0
2023-08-10 17:17:40.093283,-178.0
2023-08-10 17:17:40.100973,-173.0
2023-08-10 17:17:40.108664,-173.0
2023-08-10 17:17:40.116354,-171.0
2023-08-10 17:17:40.124044,-166.0
2023-08-10 17:17:40.131735,-161.0
2023-08-10 17:17:40.139425,-159.0
2023-08-10 17:17:40.147115,-157.0
2023-08-10 17:17:40.154806,-157.0
2023-08-10 17:17:40.162496,-154.0
2023-08-10 17:17:40.170186,-152.0
2023-08-10 17:17:40.177877,-149.0
2023-08-10 17:17:40.185567,-147.0
2023-08-10 17:17:40.193257,-145.0
2023-08-10 17:17:40.200947,-140.0
2023-08-10 17:17:40.208638,-138.0
2023-08-10 17:17:40.216328,-140.0
2023-08-10 17:17:40.224018,-138.0
2023-08-10 17:17:40.231709,-133.0
2023-08-10 17:17:40.239399,-130.0
2023-08-10 17:17:40.247089,-128.0
2023-08-10 17:17:40.254780,-126.0
2023-08-10 17:17:40.262470,-126.0
2023-08-10 17:17:40.270160,-123.0
2023-08-10 17:17:40.277851,-119.0
2023-08-10 17:17:40.285541,-114.0
2023-08-10 17:17:40.293231,-111.0
2023-08-10 17:17:40.300921,-109.0
2023-08-10 17:17:40.308612,-107.0
2023-08-10 17:17:40.316302,-107.0
2023-08-10 17:17:40.323992,-104.0
2023-08-10 17:17:40.331683,-99.0
2023-08-10 17:17:40.339373,-97.0
2023-08-10 17:17:40.347063,-95.0
2023-08-10 17:17:40.354754,-95.0
2023-08-10 17:17:40.362444,-92.0
2023-08-10 17:17:40.370134,-90.0
2023-08-10 17:17:40.377825,-90.0
2023-08-10 17:17:40.385515,-85.0
2023-08-10 17:17:40.393205,-73.0
2023-08-10 17:17:40.400895,-57.0
2023-08-10 17:17:40.408586,-40.0
2023-08-10 17:17:40.416276,-38.0
2023-08-10 17:17:40.423966,-57.0
2023-08-10 17:17:40.431657,-66.0
2023-08-10 17:17:40.439347,-45.0
2023-08-10 17:17:40.447037,-49.0
2023-08-10 17:17:40.454728,-85.0
2023-08-10 17:17:40.462418,-97.0
2023-08-10 17:17:40.470108,-85.0
2023-08-10 17:17:40.477799,-88.0
2023-08-10 17:17:40.485489,-88.0
2023-08-10 17:17:40.493179,-80.0
2023-08-10 17:17:40.500870,-78.0
2023-08-10 17:17:40.508560,-78.0
2023-08-10 17:17:40.516250,-76.0
2023-08-10 17:17:40.523940,-88.0
2023-08-10 17:17:40.531631,-88.0
2023-08-10 17:17:40.539321,16.0
2023-08-10 17:17:40.547011,316.0
2023-08-10 17:17:40.554702,709.0
2023-08-10 17:17:40.562392,909.0
2023-08-10 17:17:40.570082,595.0
2023-08-10 17:17:40.577773,-47.0
2023-08-10 17:17:40.585463,-223.0
2023-08-10 17:17:40.593153,26.0
2023-08-10 17:17:40.600844,7.0
2023-08-10 17:17:40.608534,-142.0
2023-08-10 17:17:40.616224,-99.0
2023-08-10 17:17:40.623914,-69.0
2023-08-10 17:17:40.631605,-107.0
2023-08-10 17:17:40.639295,-95.0
2023-08-10 17:17:40.646985,-71.0
2023-08-10 17:17:40.654676,-76.0
2023-08-10 17:17:40.662366,-73.0
2023-08-10 17:17:40.670056,-57.0
2023-08-10 17:17:40.677747,-49.0
2023-08-10 17:17:40.685437,-42.0
2023-08-10 17:17:40.693127,-26.0
2023-08-10 17:17:40.700818,-11.0
2023-08-10 17:17:40.708508,0.0
2023-08-10 17:17:40.716198,14.0
2023-08-10 17:17:40.723889,35.0
2023-08-10 17:17:40.731579,57.0
2023-08-10 17:17:40.739269,80.0
2023-08-10 17:17:40.746959,104.0
2023-08-10 17:17:40.754650,130.0
2023-08-10 17:17:40.762340,159.0
2023-08-10 17:17:40.770030,180.0
2023-08-10 17:17:40.777721,197.0
2023-08-10 17:17:40.785411,211.0
2023-08-10 17:17:40.793101,221.0
2023-08-10 17:17:40.800792,218.0
2023-08-10 17:17:40.808482,204.0
2023-08-10 17:17:40.816172,173.0
2023-08-10 17:17:40.823863,121.0
2023-08-10 17:17:40.831553,54.0
2023-08-10 17:17:40.839243,-11.0
2023-08-10 17:17:40.846933,-71.0
2023-08-10 17:17:40.854624,-126.0
2023-08-10 17:17:40.862314,-166.0
2023-08-10 17:17:40.870004,-192.0
2023-08-10 17:17:40.877695,-211.0
2023-08-10 17:17:40.885385,-221.0
2023-08-10 17:17:40.893075,-223.0
2023-08-10 17:17:40.900766,-221.0
2023-08-10 17:17:40.908456,-218.0
2023-08-10 17:17:40.916146,-211.0
2023-08-10 17:17:40.923837,-204.0
2023-08-10 17:17:40.931527,-197.0
2023-08-10 17:17:40.939217,-190.0
2023-08-10 17:17:40.946907,-183.0
2023-08-10 17:17:40.954598,-180.0
2023-08-10 17:17:40.962288,-176.0
2023-08-10 17:17:40.969978,-169.0
2023-08-10 17:17:40.977669,-164.0
2023-08-10 17:17:40.985359,-161.0
2023-08-10 17:17:40.993049,-157.0
2023-08-10 17:17:41.000740,-152.0
2023-08-10 17:17:41.008430,-152.0
2023-08-10 17:17:41.016120,-149.0
2023-08-10 17:17:41.023811,-145.0
2023-08-10 17:17:41.031501,-142.0
2023-08-10 17:17:41.039191,-140.0
2023-08-10 17:17:41.046882,-140.0
2023-08-10 17:17:41.054572,-140.0
2023-08-10 17:17:41.062262,-138.0
2023-08-10 17:17:41.069952,-135.0
2023-08-10 17:17:41.077643,-133.0
2023-08-10 17:17:41.085333,-128.0
2023-08-10 17:17:41.093023,-128.0
2023-08-10 17:17:41.100714,-128.0
2023-08-10 17:17:41.108404,-130.0
2023-08-10 17:17:41.116094,-133.0
2023-08-10 17:17:41.123785,-135.0
2023-08-10 17:17:41.131475,-135.0
2023-08-10 17:17:41.139165,-133.0
2023-08-10 17:17:41.146856,-128.0
2023-08-10 17:17:41.154546,-126.0
2023-08-10 17:17:41.162236,-123.0
2023-08-10 17:17:41.169926,-119.0
2023-08-10 17:17:41.177617,-116.0
2023-08-10 17:17:41.185307,-114.0
2023-08-10 17:17:41.192997,-111.0
2023-08-10 17:17:41.200688,-111.0
2023-08-10 17:17:41.208378,-109.0
2023-08-10 17:17:41.216068,-104.0
2023-08-10 17:17:41.223759,-102.0
2023-08-10 17:17:41.231449,-99.0
2023-08-10 17:17:41.239139,-99.0
2023-08-10 17:17:41.246830,-97.0
2023-08-10 17:17:41.254520,-95.0
2023-08-10 17:17:41.262210,-92.0
2023-08-10 17:17:41.269901,-80.0
2023-08-10 17:17:41.277591,-66.0
2023-08-10 17:17:41.285281,-49.0
2023-08-10 17:17:41.292971,-38.0
2023-08-10 17:17:41.300662,-45.0
2023-08-10 17:17:41.308352,-64.0
2023-08-10 17:17:41.316042,-57.0
2023-08-10 17:17:41.323733,-40.0
2023-08-10 17:17:41.331423,-64.0
2023-08-10 17:17:41.339113,-97.0
2023-08-10 17:17:41.346804,-90.0
2023-08-10 17:17:41.354494,-78.0
2023-08-10 17:17:41.362184,-83.0
2023-08-10 17:17:41.369875,-83.0
2023-08-10 17:17:41.377565,-78.0
2023-08-10 17:17:41.385255,-76.0
2023-08-10 17:17:41.392945,-73.0
2023-08-10 17:17:41.400636,-71.0
2023-08-10 17:17:41.408326,-76.0
2023-08-10 17:17:41.416016,-54.0
2023-08-10 17:17:41.423707,104.0
2023-08-10 17:17:41.431397,459.0
2023-08-10 17:17:41.439087,828.0
2023-08-10 17:17:41.446778,864.0
2023-08-10 17:17:41.454468,359.0
2023-08-10 17:17:41.462158,-190.0
2023-08-10 17:17:41.469849,-142.0
2023-08-10 17:17:41.477539,69.0
2023-08-10 17:17:41.485229,-49.0
2023-08-10 17:17:41.492919,-138.0
2023-08-10 17:17:41.500610,-66.0
2023-08-10 17:17:41.508300,-69.0
2023-08-10 17:17:41.515990,-102.0
2023-08-10 17:17:41.523681,-76.0
2023-08-10 17:17:41.531371,-59.0
2023-08-10 17:17:41.539061,-66.0
2023-08-10 17:17:41.546752,-54.0
2023-08-10 17:17:41.554442,-38.0
2023-08-10 17:17:41.562132,-35.0
2023-08-10 17:17:41.569823,-28.0
2023-08-10 17:17:41.577513,-11.0
2023-08-10 17:17:41.585203,2.0
2023-08-10 17:17:41.592894,16.0
2023-08-10 17:17:41.600584,30.0
2023-08-10 17:17:41.608274,42.0
2023-08-10 17:17:41.615964,61.0
2023-08-10 17:17:41.623655,85.0
2023-08-10 17:17:41.631345,109.0
2023-08-10 17:17:41.639035,133.0
2023-08-10 17:17:41.646726,154.0
2023-08-10 17:17:41.654416,176.0
2023-08-10 17:17:41.662106,192.0
2023-08-10 17:17:41.669797,204.0
2023-08-10 17:17:41.677487,209.0
2023-08-10 17:17:41.685177,204.0
2023-08-10 17:17:41.692868,183.0
2023-08-10 17:17:41.700558,145.0
2023-08-10 17:17:41.708248,90.0
2023-08-10 17:17:41.715938,26.0
2023-08-10 17:17:41.723629,-40.0
2023-08-10 17:17:41.731319,-97.0
2023-08-10 17:17:41.739009,-145.0
2023-08-10 17:17:41.746700,-183.0
2023-08-10 17:17:41.754390,-207.0
2023-08-10 17:17:41.762080,-218.0
2023-08-10 17:17:41.769771,-226.0
2023-08-10 17:17:41.777461,-228.0
2023-08-10 17:17:41.785151,-228.0
2023-08-10 17:17:41.792842,-221.0
2023-08-10 17:17:41.800532,-214.0
2023-08-10 17:17:41.808222,-204.0
2023-08-10 17:17:41.815913,-197.0
2023-08-10 17:17:41.823603,-190.0
2023-08-10 17:17:41.831293,-185.0
2023-08-10 17:17:41.838983,-178.0
2023-08-10 17:17:41.846674,-173.0
2023-08-10 17:17:41.854364,-166.0
2023-08-10 17:17:41.862054,-161.0
2023-08-10 17:17:41.869745,-157.0
2023-08-10 17:17:41.877435,-154.0
2023-08-10 17:17:41.885125,-152.0
2023-08-10 17:17:41.892816,-149.0
2023-08-10 17:17:41.900506,-149.0
2023-08-10 17:17:41.908196,-145.0
2023-08-10 17:17:41.915887,-142.0
2023-08-10 17:17:41.923577,-140.0
2023-08-10 17:17:41.931267,-142.0
2023-08-10 17:17:41.938957,-145.0
2023-08-10 17:17:41.946648,-142.0
2023-08-10 17:17:41.954338,-140.0
2023-08-10 17:17:41.962028,-135.0
2023-08-10 17:17:41.969719,-135.0
2023-08-10 17:17:41.977409,-135.0
2023-08-10 17:17:41.985099,-133.0
2023-08-10 17:17:41.992790,-126.0
2023-08-10 17:17:42.000480,-123.0
2023-08-10 17:17:42.008170,-123.0
2023-08-10 17:17:42.015861,-123.0
2023-08-10 17:17:42.023551,-119.0
2023-08-10 17:17:42.031241,-119.0
2023-08-10 17:17:42.038931,-119.0
2023-08-10 17:17:42.046622,-114.0
2023-08-10 17:17:42.054312,-111.0
2023-08-10 17:17:42.062002,-111.0
2023-08-10 17:17:42.069693,-109.0
2023-08-10 17:17:42.077383,-104.0
2023-08-10 17:17:42.085073,-102.0
2023-08-10 17:17:42.092764,-97.0
2023-08-10 17:17:42.100454,-95.0
2023-08-10 17:17:42.108144,-95.0
2023-08-10 17:17:42.115835,-95.0
2023-08-10 17:17:42.123525,-92.0
2023-08-10 17:17:42.131215,-92.0
2023-08-10 17:17:42.138906,-92.0
2023-08-10 17:17:42.146596,-95.0
2023-08-10 17:17:42.154286,-92.0
2023-08-10 17:17:42.161976,-80.0
2023-08-10 17:17:42.169667,-66.0
2023-08-10 17:17:42.177357,-52.0
2023-08-10 17:17:42.185047,-52.0
2023-08-10 17:17:42.192738,-69.0
2023-08-10 17:17:42.200428,-83.0
2023-08-10 17:17:42.208118,-69.0
2023-08-10 17:17:42.215809,-59.0
2023-08-10 17:17:42.223499,-85.0
2023-08-10 17:17:42.231189,-111.0
2023-08-10 17:17:42.238880,-107.0
2023-08-10 17:17:42.246570,-99.0
2023-08-10 17:17:42.254260,-99.0
2023-08-10 17:17:42.261950,-99.0
2023-08-10 17:17:42.269641,-92.0
2023-08-10 17:17:42.277331,-90.0
2023-08-10 17:17:42.285021,-95.0
2023-08-10 17:17:42.292712,-95.0
2023-08-10 17:17:42.300402,-92.0
2023-08-10 17:17:42.308092,-45.0
2023-08-10 17:17:42.315783,157.0
2023-08-10 17:17:42.323473,537.0
2023-08-10 17:17:42.331163,864.0
2023-08-10 17:17:42.338854,768.0
2023-08-10 17:17:42.346544,161.0
2023-08-10 17:17:42.354234,-288.0
2023-08-10 17:17:42.361925,-104.0
2023-08-10 17:17:42.369615,71.0
2023-08-10 17:17:42.377305,-85.0
2023-08-10 17:17:42.384995,-135.0
2023-08-10 17:17:42.392686,-59.0
2023-08-10 17:17:42.400376,-76.0
2023-08-10 17:17:42.408066,-102.0
2023-08-10 17:17:42.415757,-71.0
2023-08-10 17:17:42.423447,-61.0
2023-08-10 17:17:42.431137,-73.0
2023-08-10 17:17:42.438828,-66.0
2023-08-10 17:17:42.446518,-52.0
2023-08-10 17:17:42.454208,-40.0
2023-08-10 17:17:42.461899,-28.0
2023-08-10 17:17:42.469589,-14.0
2023-08-10 17:17:42.477279,2.0
2023-08-10 17:17:42.484969,14.0
2023-08-10 17:17:42.492660,33.0
2023-08-10 17:17:42.500350,57.0
2023-08-10 17:17:42.508040,78.0
2023-08-10 17:17:42.515731,102.0
2023-08-10 17:17:42.523421,123.0
2023-08-10 17:17:42.531111,147.0
2023-08-10 17:17:42.538802,173.0
2023-08-10 17:17:42.546492,197.0
2023-08-10 17:17:42.554182,214.0
2023-08-10 17:17:42.561873,223.0
2023-08-10 17:17:42.569563,223.0
2023-08-10 17:17:42.577253,218.0
2023-08-10 17:17:42.584943,202.0
2023-08-10 17:17:42.592634,159.0
2023-08-10 17:17:42.600324,102.0
2023-08-10 17:17:42.608014,33.0
2023-08-10 17:17:42.615705,-40.0
2023-08-10 17:17:42.623395,-99.0
2023-08-10 17:17:42.631085,-145.0
2023-08-10 17:17:42.638776,-183.0
2023-08-10 17:17:42.646466,-209.0
2023-08-10 17:17:42.654156,-226.0
2023-08-10 17:17:42.661847,-238.0
2023-08-10 17:17:42.669537,-242.0
2023-08-10 17:17:42.677227,-242.0
2023-08-10 17:17:42.684918,-235.0
2023-08-10 17:17:42.692608,-223.0
2023-08-10 17:17:42.700298,-216.0
2023-08-10 17:17:42.707988,-211.0
2023-08-10 17:17:42.715679,-207.0
2023-08-10 17:17:42.723369,-202.0
2023-08-10 17:17:42.731059,-197.0
2023-08-10 17:17:42.738750,-192.0
2023-08-10 17:17:42.746440,-185.0
2023-08-10 17:17:42.754130,-180.0
2023-08-10 17:17:42.761821,-178.0
2023-08-10 17:17:42.769511,-180.0
2023-08-10 17:17:42.777201,-185.0
2023-08-10 17:17:42.784892,-185.0
2023-08-10 17:17:42.792582,-178.0
2023-08-10 17:17:42.800272,-176.0
2023-08-10 17:17:42.807962,-173.0
2023-08-10 17:17:42.815653,-171.0
2023-08-10 17:17:42.823343,-171.0
2023-08-10 17:17:42.831033,-171.0
2023-08-10 17:17:42.838724,-166.0
2023-08-10 17:17:42.846414,-164.0
2023-08-10 17:17:42.854104,-161.0
2023-08-10 17:17:42.861795,-159.0
2023-08-10 17:17:42.869485,-152.0
2023-08-10 17:17:42.877175,-149.0
2023-08-10 17:17:42.884866,-149.0
2023-08-10 17:17:42.892556,-147.0
2023-08-10 17:17:42.900246,-140.0
2023-08-10 17:17:42.907937,-138.0
2023-08-10 17:17:42.915627,-140.0
2023-08-10 17:17:42.923317,-138.0
2023-08-10 17:17:42.931007,-130.0
2023-08-10 17:17:42.938698,-128.0
2023-08-10 17:17:42.946388,-130.0
2023-08-10 17:17:42.954078,-133.0
2023-08-10 17:17:42.961769,-130.0
2023-08-10 17:17:42.969459,-126.0
2023-08-10 17:17:42.977149,-123.0
2023-08-10 17:17:42.984840,-121.0
2023-08-10 17:17:42.992530,-116.0
2023-08-10 17:17:43.000220,-114.0
2023-08-10 17:17:43.007911,-114.0
2023-08-10 17:17:43.015601,-111.0
2023-08-10 17:17:43.023291,-109.0
2023-08-10 17:17:43.030981,-104.0
2023-08-10 17:17:43.038672,-92.0
2023-08-10 17:17:43.046362,-73.0
2023-08-10 17:17:43.054052,-57.0
2023-08-10 17:17:43.061743,-52.0
2023-08-10 17:17:43.069433,-71.0
2023-08-10 17:17:43.077123,-80.0
2023-08-10 17:17:43.084814,-64.0
2023-08-10 17:17:43.092504,-61.0
2023-08-10 17:17:43.100194,-95.0
2023-08-10 17:17:43.107885,-107.0
2023-08-10 17:17:43.115575,-95.0
2023-08-10 17:17:43.123265,-95.0
2023-08-10 17:17:43.130955,-99.0
2023-08-10 17:17:43.138646,-97.0
2023-08-10 17:17:43.146336,-95.0
2023-08-10 17:17:43.154026,-95.0
2023-08-10 17:17:43.161717,-95.0
2023-08-10 17:17:43.169407,-99.0
2023-08-10 17:17:43.177097,-102.0
2023-08-10 17:17:43.184788,-30.0
2023-08-10 17:17:43.192478,238.0
2023-08-10 17:17:43.200168,654.0
2023-08-10 17:17:43.207859,916.0
2023-08-10 17:17:43.215549,671.0
2023-08-10 17:17:43.223239,-2.0
2023-08-10 17:17:43.230930,-304.0
2023-08-10 17:17:43.238620,-35.0
2023-08-10 17:17:43.246310,45.0
2023-08-10 17:17:43.254000,-128.0
2023-08-10 17:17:43.261691,-123.0
2023-08-10 17:17:43.269381,-69.0
2023-08-10 17:17:43.277071,-114.0
2023-08-10 17:17:43.284762,-119.0
2023-08-10 17:17:43.292452,-83.0
2023-08-10 17:17:43.300142,-85.0
2023-08-10 17:17:43.307833,-85.0
2023-08-10 17:17:43.315523,-69.0
2023-08-10 17:17:43.323213,-59.0
2023-08-10 17:17:43.330904,-49.0
2023-08-10 17:17:43.338594,-33.0
2023-08-10 17:17:43.346284,-19.0
2023-08-10 17:17:43.353974,-7.0
2023-08-10 17:17:43.361665,9.0
2023-08-10 17:17:43.369355,30.0
2023-08-10 17:17:43.377045,52.0
2023-08-10 17:17:43.384736,76.0
2023-08-10 17:17:43.392426,104.0
2023-08-10 17:17:43.400116,128.0
2023-08-10 17:17:43.407807,152.0
2023-08-10 17:17:43.415497,176.0
2023-08-10 17:17:43.423187,195.0
2023-08-10 17:17:43.430878,209.0
2023-08-10 17:17:43.438568,218.0
2023-08-10 17:17:43.446258,218.0
2023-08-10 17:17:43.453949,207.0
2023-08-10 17:17:43.461639,178.0
2023-08-10 17:17:43.469329,128.0
2023-08-10 17:17:43.477019,61.0
2023-08-10 17:17:43.484710,-7.0
2023-08-10 17:17:43.492400,-73.0
2023-08-10 17:17:43.500090,-130.0
2023-08-10 17:17:43.507781,-171.0
2023-08-10 17:17:43.515471,-199.0
2023-08-10 17:17:43.523161,-221.0
2023-08-10 17:17:43.530852,-230.0
2023-08-10 17:17:43.538542,-238.0
2023-08-10 17:17:43.546232,-235.0
2023-08-10 17:17:43.553923,-228.0
2023-08-10 17:17:43.561613,-223.0
2023-08-10 17:17:43.569303,-216.0
2023-08-10 17:17:43.576993,-209.0
2023-08-10 17:17:43.584684,-202.0
2023-08-10 17:17:43.592374,-197.0
2023-08-10 17:17:43.600064,-188.0
2023-08-10 17:17:43.607755,-178.0
2023-08-10 17:17:43.615445,-173.0
2023-08-10 17:17:43.623135,-169.0
2023-08-10 17:17:43.630826,-164.0
2023-08-10 17:17:43.638516,-161.0
2023-08-10 17:17:43.646206,-159.0
2023-08-10 17:17:43.653897,-157.0
2023-08-10 17:17:43.661587,-154.0
2023-08-10 17:17:43.669277,-159.0
2023-08-10 17:17:43.676967,-159.0
2023-08-10 17:17:43.684658,-154.0
2023-08-10 17:17:43.692348,-152.0
2023-08-10 17:17:43.700038,-147.0
2023-08-10 17:17:43.707729,-145.0
2023-08-10 17:17:43.715419,-145.0
2023-08-10 17:17:43.723109,-145.0
2023-08-10 17:17:43.730800,-142.0
2023-08-10 17:17:43.738490,-138.0
2023-08-10 17:17:43.746180,-133.0
2023-08-10 17:17:43.753871,-130.0
2023-08-10 17:17:43.761561,-130.0
2023-08-10 17:17:43.769251,-128.0
2023-08-10 17:17:43.776942,-126.0
2023-08-10 17:17:43.784632,-121.0
2023-08-10 17:17:43.792322,-119.0
2023-08-10 17:17:43.800012,-114.0
2023-08-10 17:17:43.807703,-111.0
2023-08-10 17:17:43.815393,-111.0
2023-08-10 17:17:43.823083,-109.0
2023-08-10 17:17:43.830774,-104.0
2023-08-10 17:17:43.838464,-99.0
2023-08-10 17:17:43.846154,-99.0
2023-08-10 17:17:43.853845,-99.0
2023-08-10 17:17:43.861535,-97.0
2023-08-10 17:17:43.869225,-95.0
2023-08-10 17:17:43.876916,-92.0
2023-08-10 17:17:43.884606,-90.0
2023-08-10 17:17:43.892296,-88.0
2023-08-10 17:17:43.899986,-85.0
2023-08-10 17:17:43.907677,-88.0
2023-08-10 17:17:43.915367,-88.0
2023-08-10 17:17:43.923057,-80.0
2023-08-10 17:17:43.930748,-64.0
2023-08-10 17:17:43.938438,-49.0
2023-08-10 17:17:43.946128,-40.0
2023-08-10 17:17:43.953819,-47.0
2023-08-10 17:17:43.961509,-66.0
2023-08-10 17:17:43.969199,-69.0
2023-08-10 17:17:43.976890,-49.0
2023-08-10 17:17:43.984580,-61.0
2023-08-10 17:17:43.992270,-95.0
2023-08-10 17:17:43.999961,-102.0
2023-08-10 17:17:44.007651,-90.0
2023-08-10 17:17:44.015341,-92.0
2023-08-10 17:17:44.023031,-95.0
2023-08-10 17:17:44.030722,-90.0
2023-08-10 17:17:44.038412,-90.0
2023-08-10 17:17:44.046102,-88.0
2023-08-10 17:17:44.053793,-83.0
2023-08-10 17:17:44.061483,-90.0
2023-08-10 17:17:44.069173,-80.0
2023-08-10 17:17:44.076864,42.0
2023-08-10 17:17:44.084554,359.0
2023-08-10 17:17:44.092244,749.0
2023-08-10 17:17:44.099935,909.0
2023-08-10 17:17:44.107625,540.0
2023-08-10 17:17:44.115315,-90.0
2023-08-10 17:17:44.123005,-209.0
2023-08-10 17:17:44.130696,42.0
2023-08-10 17:17:44.138386,-11.0
2023-08-10 17:17:44.146076,-152.0
2023-08-10 17:17:44.153767,-99.0
2023-08-10 17:17:44.161457,-78.0
2023-08-10 17:17:44.169147,-123.0
2023-08-10 17:17:44.176838,-109.0
2023-08-10 17:17:44.184528,-83.0
2023-08-10 17:17:44.192218,-88.0
2023-08-10 17:17:44.199909,-80.0
2023-08-10 17:17:44.207599,-64.0
2023-08-10 17:17:44.215289,-57.0
2023-08-10 17:17:44.222979,-47.0
2023-08-10 17:17:44.230670,-30.0
2023-08-10 17:17:44.238360,-16.0
2023-08-10 17:17:44.246050,-2.0
2023-08-10 17:17:44.253741,16.0
2023-08-10 17:17:44.261431,35.0
2023-08-10 17:17:44.269121,54.0
2023-08-10 17:17:44.276812,80.0
2023-08-10 17:17:44.284502,107.0
2023-08-10 17:17:44.292192,133.0
2023-08-10 17:17:44.299883,159.0
2023-08-10 17:17:44.307573,183.0
2023-08-10 17:17:44.315263,202.0
2023-08-10 17:17:44.322954,214.0
2023-08-10 17:17:44.330644,221.0
2023-08-10 17:17:44.338334,221.0
2023-08-10 17:17:44.346024,204.0
2023-08-10 17:17:44.353715,169.0
2023-08-10 17:17:44.361405,111.0
2023-08-10 17:17:44.369095,42.0
2023-08-10 17:17:44.376786,-26.0
2023-08-10 17:17:44.384476,-85.0
2023-08-10 17:17:44.392166,-135.0
2023-08-10 17:17:44.399857,-178.0
2023-08-10 17:17:44.407547,-207.0
2023-08-10 17:17:44.415237,-223.0
2023-08-10 17:17:44.422928,-233.0
2023-08-10 17:17:44.430618,-235.0
2023-08-10 17:17:44.438308,-238.0
2023-08-10 17:17:44.445998,-240.0
2023-08-10 17:17:44.453689,-230.0
2023-08-10 17:17:44.461379,-221.0
2023-08-10 17:17:44.469069,-216.0
2023-08-10 17:17:44.476760,-207.0
2023-08-10 17:17:44.484450,-199.0
2023-08-10 17:17:44.492140,-195.0
2023-08-10 17:17:44.499831,-185.0
2023-08-10 17:17:44.507521,-178.0
2023-08-10 17:17:44.515211,-173.0
2023-08-10 17:17:44.522902,-169.0
2023-08-10 17:17:44.530592,-164.0
2023-08-10 17:17:44.538282,-161.0
2023-08-10 17:17:44.545973,-157.0
2023-08-10 17:17:44.553663,-154.0
2023-08-10 17:17:44.561353,-152.0
2023-08-10 17:17:44.569043,-149.0
2023-08-10 17:17:44.576734,-149.0
2023-08-10 17:17:44.584424,-147.0
2023-08-10 17:17:44.592114,-142.0
2023-08-10 17:17:44.599805,-142.0
2023-08-10 17:17:44.607495,-142.0
2023-08-10 17:17:44.615185,-140.0
2023-08-10 17:17:44.622876,-138.0
2023-08-10 17:17:44.630566,-135.0
2023-08-10 17:17:44.638256,-130.0
2023-08-10 17:17:44.645947,-130.0
2023-08-10 17:17:44.653637,-130.0
2023-08-10 17:17:44.661327,-130.0
2023-08-10 17:17:44.669017,-126.0
2023-08-10 17:17:44.676708,-121.0
2023-08-10 17:17:44.684398,-116.0
2023-08-10 17:17:44.692088,-116.0
2023-08-10 17:17:44.699779,-116.0
2023-08-10 17:17:44.707469,-114.0
2023-08-10 17:17:44.715159,-109.0
2023-08-10 17:17:44.722850,-107.0
2023-08-10 17:17:44.730540,-104.0
2023-08-10 17:17:44.738230,-102.0
2023-08-10 17:17:44.745921,-99.0
2023-08-10 17:17:44.753611,-97.0
2023-08-10 17:17:44.761301,-95.0
2023-08-10 17:17:44.768991,-92.0
2023-08-10 17:17:44.776682,-88.0
2023-08-10 17:17:44.784372,-85.0
2023-08-10 17:17:44.792062,-85.0
2023-08-10 17:17:44.799753,-85.0
2023-08-10 17:17:44.807443,-83.0
2023-08-10 17:17:44.815133,-80.0
2023-08-10 17:17:44.822824,-76.0
2023-08-10 17:17:44.830514,-69.0
2023-08-10 17:17:44.838204,-54.0
2023-08-10 17:17:44.845895,-40.0
2023-08-10 17:17:44.853585,-28.0
2023-08-10 17:17:44.861275,-42.0
2023-08-10 17:17:44.868966,-64.0
2023-08-10 17:17:44.876656,-57.0
2023-08-10 17:17:44.884346,-45.0
2023-08-10 17:17:44.892036,-78.0
2023-08-10 17:17:44.899727,-104.0
2023-08-10 17:17:44.907417,-95.0
2023-08-10 17:17:44.915107,-88.0
2023-08-10 17:17:44.922798,-95.0
2023-08-10 17:17:44.930488,-92.0
2023-08-10 17:17:44.938178,-88.0
2023-08-10 17:17:44.945869,-83.0
2023-08-10 17:17:44.953559,-80.0
2023-08-10 17:17:44.961249,-78.0
2023-08-10 17:17:44.968940,-83.0
2023-08-10 17:17:44.976630,-59.0
2023-08-10 17:17:44.984320,119.0
2023-08-10 17:17:44.992010,483.0
2023-08-10 17:17:44.999701,835.0
2023-08-10 17:17:45.007391,830.0
2023-08-10 17:17:45.015081,297.0
2023-08-10 17:17:45.022772,-214.0
2023-08-10 17:17:45.030462,-123.0
2023-08-10 17:17:45.038152,54.0
2023-08-10 17:17:45.045843,-85.0
2023-08-10 17:17:45.053533,-152.0
2023-08-10 17:17:45.061223,-78.0
2023-08-10 17:17:45.068914,-90.0
2023-08-10 17:17:45.076604,-121.0
2023-08-10 17:17:45.084294,-92.0
2023-08-10 17:17:45.091985,-76.0
2023-08-10 17:17:45.099675,-80.0
2023-08-10 17:17:45.107365,-69.0
2023-08-10 17:17:45.115055,-57.0
2023-08-10 17:17:45.122746,-47.0
2023-08-10 17:17:45.130436,-35.0
2023-08-10 17:17:45.138126,-21.0
2023-08-10 17:17:45.145817,-11.0
2023-08-10 17:17:45.153507,2.0
2023-08-10 17:17:45.161197,21.0
2023-08-10 17:17:45.168888,42.0
2023-08-10 17:17:45.176578,66.0
2023-08-10 17:17:45.184268,92.0
2023-08-10 17:17:45.191959,119.0
2023-08-10 17:17:45.199649,142.0
2023-08-10 17:17:45.207339,166.0
2023-08-10 17:17:45.215029,188.0
2023-08-10 17:17:45.222720,207.0
2023-08-10 17:17:45.230410,218.0
2023-08-10 17:17:45.238100,223.0
2023-08-10 17:17:45.245791,216.0
2023-08-10 17:17:45.253481,195.0
2023-08-10 17:17:45.261171,154.0
2023-08-10 17:17:45.268862,99.0
2023-08-10 17:17:45.276552,33.0
2023-08-10 17:17:45.284242,-35.0
2023-08-10 17:17:45.291933,-92.0
2023-08-10 17:17:45.299623,-140.0
2023-08-10 17:17:45.307313,-176.0
2023-08-10 17:17:45.315003,-202.0
2023-08-10 17:17:45.322694,-214.0
2023-08-10 17:17:45.330384,-221.0
2023-08-10 17:17:45.338074,-223.0
2023-08-10 17:17:45.345765,-223.0
2023-08-10 17:17:45.353455,-216.0
2023-08-10 17:17:45.361145,-209.0
2023-08-10 17:17:45.368836,-204.0
2023-08-10 17:17:45.376526,-202.0
2023-08-10 17:17:45.384216,-199.0
2023-08-10 17:17:45.391907,-192.0
2023-08-10 17:17:45.399597,-185.0
2023-08-10 17:17:45.407287,-176.0
2023-08-10 17:17:45.414978,-169.0
2023-08-10 17:17:45.422668,-164.0
2023-08-10 17:17:45.430358,-161.0
2023-08-10 17:17:45.438048,-161.0
2023-08-10 17:17:45.445739,-154.0
2023-08-10 17:17:45.453429,-149.0
2023-08-10 17:17:45.461119,-149.0
2023-08-10 17:17:45.468810,-147.0
2023-08-10 17:17:45.476500,-145.0
2023-08-10 17:17:45.484190,-145.0
2023-08-10 17:17:45.491881,-145.0
2023-08-10 17:17:45.499571,-140.0
2023-08-10 17:17:45.507261,-138.0
2023-08-10 17:17:45.514952,-138.0
2023-08-10 17:17:45.522642,-138.0
2023-08-10 17:17:45.530332,-138.0
2023-08-10 17:17:45.538022,-135.0
2023-08-10 17:17:45.545713,-128.0
2023-08-10 17:17:45.553403,-126.0
2023-08-10 17:17:45.561093,-128.0
2023-08-10 17:17:45.568784,-133.0
2023-08-10 17:17:45.576474,-133.0
2023-08-10 17:17:45.584164,-126.0
2023-08-10 17:17:45.591855,-123.0
2023-08-10 17:17:45.599545,-121.0
2023-08-10 17:17:45.607235,-119.0
2023-08-10 17:17:45.614926,-119.0
2023-08-10 17:17:45.622616,-119.0
2023-08-10 17:17:45.630306,-114.0
2023-08-10 17:17:45.637997,-114.0
2023-08-10 17:17:45.645687,-111.0
2023-08-10 17:17:45.653377,-109.0
2023-08-10 17:17:45.661067,-107.0
2023-08-10 17:17:45.668758,-104.0
2023-08-10 17:17:45.676448,-99.0
2023-08-10 17:17:45.684138,-97.0
2023-08-10 17:17:45.691829,-95.0
2023-08-10 17:17:45.699519,-95.0
2023-08-10 17:17:45.707209,-92.0
2023-08-10 17:17:45.714900,-90.0
2023-08-10 17:17:45.722590,-88.0
2023-08-10 17:17:45.730280,-90.0
2023-08-10 17:17:45.737971,-90.0
2023-08-10 17:17:45.745661,-90.0
2023-08-10 17:17:45.753351,-88.0
2023-08-10 17:17:45.761041,-73.0
2023-08-10 17:17:45.768732,-52.0
2023-08-10 17:17:45.776422,-38.0
2023-08-10 17:17:45.784112,-35.0
2023-08-10 17:17:45.791803,-52.0
2023-08-10 17:17:45.799493,-69.0
2023-08-10 17:17:45.807183,-52.0
2023-08-10 17:17:45.814874,-47.0
2023-08-10 17:17:45.822564,-80.0
2023-08-10 17:17:45.830254,-97.0
2023-08-10 17:17:45.837945,-85.0
2023-08-10 17:17:45.845635,-83.0
2023-08-10 17:17:45.853325,-85.0
2023-08-10 17:17:45.861015,-80.0
2023-08-10 17:17:45.868706,-78.0
2023-08-10 17:17:45.876396,-83.0
2023-08-10 17:17:45.884086,-85.0
2023-08-10 17:17:45.891777,-83.0
2023-08-10 17:17:45.899467,-83.0
2023-08-10 17:17:45.907157,-30.0
2023-08-10 17:17:45.914848,190.0
2023-08-10 17:17:45.922538,576.0
2023-08-10 17:17:45.930228,875.0
2023-08-10 17:17:45.937919,737.0
2023-08-10 17:17:45.945609,116.0
2023-08-10 17:17:45.953299,-266.0
2023-08-10 17:17:45.960990,-54.0
2023-08-10 17:17:45.968680,61.0
2023-08-10 17:17:45.976370,-111.0
2023-08-10 17:17:45.984060,-130.0
2023-08-10 17:17:45.991751,-59.0
2023-08-10 17:17:45.999441,-90.0
2023-08-10 17:17:46.007131,-104.0
2023-08-10 17:17:46.014822,-73.0
2023-08-10 17:17:46.022512,-66.0
2023-08-10 17:17:46.030202,-66.0
2023-08-10 17:17:46.037893,-52.0
2023-08-10 17:17:46.045583,-40.0
2023-08-10 17:17:46.053273,-33.0
2023-08-10 17:17:46.060964,-21.0
2023-08-10 17:17:46.068654,-2.0
2023-08-10 17:17:46.076344,14.0
2023-08-10 17:17:46.084034,30.0
2023-08-10 17:17:46.091725,49.0
2023-08-10 17:17:46.099415,66.0
2023-08-10 17:17:46.107105,80.0
2023-08-10 17:17:46.114796,102.0
2023-08-10 17:17:46.122486,130.0
2023-08-10 17:17:46.130176,149.0
2023-08-10 17:17:46.137867,171.0
2023-08-10 17:17:46.145557,199.0
2023-08-10 17:17:46.153247,216.0
2023-08-10 17:17:46.160938,226.0
2023-08-10 17:17:46.168628,230.0
2023-08-10 17:17:46.176318,228.0
2023-08-10 17:17:46.184009,204.0
2023-08-10 17:17:46.191699,157.0
2023-08-10 17:17:46.199389,92.0
2023-08-10 17:17:46.207079,28.0
2023-08-10 17:17:46.214770,-35.0
2023-08-10 17:17:46.222460,-97.0
2023-08-10 17:17:46.230150,-147.0
2023-08-10 17:17:46.237841,-180.0
2023-08-10 17:17:46.245531,-207.0
2023-08-10 17:17:46.253221,-221.0
2023-08-10 17:17:46.260912,-223.0
2023-08-10 17:17:46.268602,-221.0
2023-08-10 17:17:46.276292,-221.0
2023-08-10 17:17:46.283983,-216.0
2023-08-10 17:17:46.291673,-207.0
2023-08-10 17:17:46.299363,-202.0
2023-08-10 17:17:46.307053,-197.0
2023-08-10 17:17:46.314744,-185.0
2023-08-10 17:17:46.322434,-176.0
2023-08-10 17:17:46.330124,-173.0
2023-08-10 17:17:46.337815,-169.0
2023-08-10 17:17:46.345505,-159.0
2023-08-10 17:17:46.353195,-154.0
2023-08-10 17:17:46.360886,-152.0
2023-08-10 17:17:46.368576,-149.0
2023-08-10 17:17:46.376266,-147.0
2023-08-10 17:17:46.383957,-149.0
2023-08-10 17:17:46.391647,-154.0
2023-08-10 17:17:46.399337,-152.0
2023-08-10 17:17:46.407027,-152.0
2023-08-10 17:17:46.414718,-149.0
2023-08-10 17:17:46.422408,-142.0
2023-08-10 17:17:46.430098,-138.0
2023-08-10 17:17:46.437789,-138.0
2023-08-10 17:17:46.445479,-138.0
2023-08-10 17:17:46.453169,-138.0
2023-08-10 17:17:46.460860,-135.0
2023-08-10 17:17:46.468550,-130.0
2023-08-10 17:17:46.476240,-126.0
2023-08-10 17:17:46.483931,-123.0
2023-08-10 17:17:46.491621,-123.0
2023-08-10 17:17:46.499311,-121.0
2023-08-10 17:17:46.507002,-116.0
2023-08-10 17:17:46.514692,-116.0
2023-08-10 17:17:46.522382,-116.0
2023-08-10 17:17:46.530072,-109.0
2023-08-10 17:17:46.537763,-109.0
2023-08-10 17:17:46.545453,-109.0
2023-08-10 17:17:46.553143,-104.0
2023-08-10 17:17:46.560834,-99.0
2023-08-10 17:17:46.568524,-99.0
2023-08-10 17:17:46.576214,-95.0
2023-08-10 17:17:46.583905,-95.0
2023-08-10 17:17:46.591595,-95.0
2023-08-10 17:17:46.599285,-92.0
2023-08-10 17:17:46.606976,-88.0
2023-08-10 17:17:46.614666,-88.0
2023-08-10 17:17:46.622356,-92.0
2023-08-10 17:17:46.630046,-88.0
2023-08-10 17:17:46.637737,-85.0
2023-08-10 17:17:46.645427,-92.0
2023-08-10 17:17:46.653117,-97.0
2023-08-10 17:17:46.660808,-95.0
2023-08-10 17:17:46.668498,-85.0
2023-08-10 17:17:46.676188,-73.0
2023-08-10 17:17:46.683879,-54.0
2023-08-10 17:17:46.691569,-40.0
2023-08-10 17:17:46.699259,-49.0
2023-08-10 17:17:46.706950,-71.0
2023-08-10 17:17:46.714640,-64.0
2023-08-10 17:17:46.722330,-45.0
2023-08-10 17:17:46.730021,-69.0
2023-08-10 17:17:46.737711,-102.0
2023-08-10 17:17:46.745401,-92.0
2023-08-10 17:17:46.753091,-80.0
2023-08-10 17:17:46.760782,-88.0
2023-08-10 17:17:46.768472,-88.0
2023-08-10 17:17:46.776162,-83.0
2023-08-10 17:17:46.783853,-80.0
2023-08-10 17:17:46.791543,-80.0
2023-08-10 17:17:46.799233,-78.0
2023-08-10 17:17:46.806924,-83.0
2023-08-10 17:17:46.814614,-61.0
2023-08-10 17:17:46.822304,95.0
2023-08-10 17:17:46.829995,459.0
2023-08-10 17:17:46.837685,845.0
2023-08-10 17:17:46.845375,892.0
2023-08-10 17:17:46.853065,378.0
2023-08-10 17:17:46.860756,-230.0
2023-08-10 17:17:46.868446,-207.0
2023-08-10 17:17:46.876136,69.0
2023-08-10 17:17:46.883827,-30.0
2023-08-10 17:17:46.891517,-154.0
2023-08-10 17:17:46.899207,-83.0
2023-08-10 17:17:46.906898,-73.0
2023-08-10 17:17:46.914588,-111.0
2023-08-10 17:17:46.922278,-90.0
2023-08-10 17:17:46.929969,-69.0
2023-08-10 17:17:46.937659,-73.0
2023-08-10 17:17:46.945349,-61.0
2023-08-10 17:17:46.953039,-42.0
2023-08-10 17:17:46.960730,-38.0
2023-08-10 17:17:46.968420,-26.0
2023-08-10 17:17:46.976110,-7.0
2023-08-10 17:17:46.983801,7.0
2023-08-10 17:17:46.991491,23.0
2023-08-10 17:17:46.999181,40.0
2023-08-10 17:17:47.006872,59.0
2023-08-10 17:17:47.014562,83.0
2023-08-10 17:17:47.022252,109.0
2023-08-10 17:17:47.029943,135.0
2023-08-10 17:17:47.037633,159.0
2023-08-10 17:17:47.045323,183.0
2023-08-10 17:17:47.053014,207.0
2023-08-10 17:17:47.060704,226.0
2023-08-10 17:17:47.068394,238.0
2023-08-10 17:17:47.076084,245.0
2023-08-10 17:17:47.083775,242.0
2023-08-10 17:17:47.091465,223.0
2023-08-10 17:17:47.099155,183.0
2023-08-10 17:17:47.106846,123.0
2023-08-10 17:17:47.114536,52.0
2023-08-10 17:17:47.122226,-19.0
2023-08-10 17:17:47.129917,-78.0
2023-08-10 17:17:47.137607,-128.0
2023-08-10 17:17:47.145297,-171.0
2023-08-10 17:17:47.152988,-197.0
2023-08-10 17:17:47.160678,-211.0
2023-08-10 17:17:47.168368,-218.0
2023-08-10 17:17:47.176058,-221.0
2023-08-10 17:17:47.183749,-218.0
2023-08-10 17:17:47.191439,-216.0
2023-08-10 17:17:47.199129,-209.0
2023-08-10 17:17:47.206820,-197.0
2023-08-10 17:17:47.214510,-192.0
2023-08-10 17:17:47.222200,-188.0
2023-08-10 17:17:47.229891,-180.0
2023-08-10 17:17:47.237581,-176.0
2023-08-10 17:17:47.245271,-169.0
2023-08-10 17:17:47.252962,-159.0
2023-08-10 17:17:47.260652,-154.0
2023-08-10 17:17:47.268342,-154.0
2023-08-10 17:17:47.276033,-159.0
2023-08-10 17:17:47.283723,-159.0
2023-08-10 17:17:47.291413,-152.0
2023-08-10 17:17:47.299103,-147.0
2023-08-10 17:17:47.306794,-149.0
2023-08-10 17:17:47.314484,-145.0
2023-08-10 17:17:47.322174,-142.0
2023-08-10 17:17:47.329865,-145.0
2023-08-10 17:17:47.337555,-142.0
2023-08-10 17:17:47.345245,-138.0
2023-08-10 17:17:47.352936,-138.0
2023-08-10 17:17:47.360626,-140.0
2023-08-10 17:17:47.368316,-140.0
2023-08-10 17:17:47.376007,-135.0
2023-08-10 17:17:47.383697,-133.0
2023-08-10 17:17:47.391387,-130.0
2023-08-10 17:17:47.399077,-133.0
2023-08-10 17:17:47.406768,-133.0
2023-08-10 17:17:47.414458,-133.0
2023-08-10 17:17:47.422148,-128.0
2023-08-10 17:17:47.429839,-123.0
2023-08-10 17:17:47.437529,-121.0
2023-08-10 17:17:47.445219,-119.0
2023-08-10 17:17:47.452910,-116.0
2023-08-10 17:17:47.460600,-114.0
2023-08-10 17:17:47.468290,-111.0
2023-08-10 17:17:47.475981,-109.0
2023-08-10 17:17:47.483671,-104.0
2023-08-10 17:17:47.491361,-102.0
2023-08-10 17:17:47.499051,-99.0
2023-08-10 17:17:47.506742,-99.0
2023-08-10 17:17:47.514432,-95.0
2023-08-10 17:17:47.522122,-92.0
2023-08-10 17:17:47.529813,-88.0
2023-08-10 17:17:47.537503,-85.0
2023-08-10 17:17:47.545193,-88.0
2023-08-10 17:17:47.552884,-88.0
2023-08-10 17:17:47.560574,-85.0
2023-08-10 17:17:47.568264,-83.0
2023-08-10 17:17:47.575955,-80.0
2023-08-10 17:17:47.583645,-80.0
2023-08-10 17:17:47.591335,-76.0
2023-08-10 17:17:47.599026,-66.0
2023-08-10 17:17:47.606716,-54.0
2023-08-10 17:17:47.614406,-40.0
2023-08-10 17:17:47.622096,-33.0
2023-08-10 17:17:47.629787,-52.0
2023-08-10 17:17:47.637477,-64.0
2023-08-10 17:17:47.645167,-45.0
2023-08-10 17:17:47.652858,-45.0
2023-08-10 17:17:47.660548,-80.0
2023-08-10 17:17:47.668238,-95.0
2023-08-10 17:17:47.675929,-85.0
2023-08-10 17:17:47.683619,-85.0
2023-08-10 17:17:47.691309,-92.0
2023-08-10 17:17:47.699000,-88.0
2023-08-10 17:17:47.706690,-83.0
2023-08-10 17:17:47.714380,-83.0
2023-08-10 17:17:47.722070,-80.0
2023-08-10 17:17:47.729761,-85.0
2023-08-10 17:17:47.737451,-88.0
2023-08-10 17:17:47.745141,-11.0
2023-08-10 17:17:47.752832,257.0
2023-08-10 17:17:47.760522,652.0
2023-08-10 17:17:47.768212,914.0
2023-08-10 17:17:47.775903,706.0
2023-08-10 17:17:47.783593,66.0
2023-08-10 17:17:47.791283,-242.0
2023-08-10 17:17:47.798974,-11.0
2023-08-10 17:17:47.806664,40.0
2023-08-10 17:17:47.814354,-130.0
2023-08-10 17:17:47.822045,-126.0
2023-08-10 17:17:47.829735,-71.0
2023-08-10 17:17:47.837425,-104.0
2023-08-10 17:17:47.845115,-109.0
2023-08-10 17:17:47.852806,-80.0
2023-08-10 17:17:47.860496,-78.0
2023-08-10 17:17:47.868186,-78.0
2023-08-10 17:17:47.875877,-61.0
2023-08-10 17:17:47.883567,-47.0
2023-08-10 17:17:47.891257,-38.0
2023-08-10 17:17:47.898948,-26.0
2023-08-10 17:17:47.906638,-16.0
2023-08-10 17:17:47.914328,-4.0
2023-08-10 17:17:47.922019,19.0
2023-08-10 17:17:47.929709,38.0
2023-08-10 17:17:47.937399,54.0
2023-08-10 17:17:47.945089,80.0
2023-08-10 17:17:47.952780,104.0
2023-08-10 17:17:47.960470,133.0
2023-08-10 17:17:47.968160,161.0
2023-08-10 17:17:47.975851,185.0
2023-08-10 17:17:47.983541,207.0
2023-08-10 17:17:47.991231,223.0
2023-08-10 17:17:47.998922,233.0
2023-08-10 17:17:48.006612,233.0
2023-08-10 17:17:48.014302,226.0
2023-08-10 17:17:48.021993,199.0
2023-08-10 17:17:48.029683,149.0
2023-08-10 17:17:48.037373,85.0
2023-08-10 17:17:48.045063,19.0
2023-08-10 17:17:48.052754,-49.0
2023-08-10 17:17:48.060444,-107.0
2023-08-10 17:17:48.068134,-149.0
2023-08-10 17:17:48.075825,-180.0
2023-08-10 17:17:48.083515,-204.0
2023-08-10 17:17:48.091205,-218.0
2023-08-10 17:17:48.098896,-226.0
2023-08-10 17:17:48.106586,-226.0
2023-08-10 17:17:48.114276,-221.0
2023-08-10 17:17:48.121967,-216.0
2023-08-10 17:17:48.129657,-207.0
2023-08-10 17:17:48.137347,-199.0
2023-08-10 17:17:48.145038,-192.0
2023-08-10 17:17:48.152728,-188.0
2023-08-10 17:17:48.160418,-180.0
2023-08-10 17:17:48.168108,-173.0
2023-08-10 17:17:48.175799,-166.0
2023-08-10 17:17:48.183489,-161.0
2023-08-10 17:17:48.191179,-157.0
2023-08-10 17:17:48.198870,-152.0
2023-08-10 17:17:48.206560,-147.0
2023-08-10 17:17:48.214250,-145.0
2023-08-10 17:17:48.221941,-142.0
2023-08-10 17:17:48.229631,-138.0
2023-08-10 17:17:48.237321,-133.0
2023-08-10 17:17:48.245012,-133.0
2023-08-10 17:17:48.252702,-133.0
2023-08-10 17:17:48.260392,-130.0
2023-08-10 17:17:48.268082,-128.0
2023-08-10 17:17:48.275773,-128.0
2023-08-10 17:17:48.283463,-126.0
2023-08-10 17:17:48.291153,-121.0
2023-08-10 17:17:48.298844,-119.0
2023-08-10 17:17:48.306534,-121.0
2023-08-10 17:17:48.314224,-119.0
2023-08-10 17:17:48.321915,-116.0
2023-08-10 17:17:48.329605,-111.0
2023-08-10 17:17:48.337295,-111.0
2023-08-10 17:17:48.344986,-111.0
2023-08-10 17:17:48.352676,-116.0
2023-08-10 17:17:48.360366,-121.0
2023-08-10 17:17:48.368057,-116.0
2023-08-10 17:17:48.375747,-109.0
2023-08-10 17:17:48.383437,-109.0
2023-08-10 17:17:48.391127,-107.0
2023-08-10 17:17:48.398818,-104.0
2023-08-10 17:17:48.406508,-104.0
2023-08-10 17:17:48.414198,-104.0
2023-08-10 17:17:48.421889,-102.0
2023-08-10 17:17:48.429579,-97.0
2023-08-10 17:17:48.437269,-97.0
2023-08-10 17:17:48.444960,-102.0
2023-08-10 17:17:48.452650,-107.0
2023-08-10 17:17:48.460340,-104.0
2023-08-10 17:17:48.468031,-99.0
2023-08-10 17:17:48.475721,-97.0
2023-08-10 17:17:48.483411,-97.0
2023-08-10 17:17:48.491101,-92.0
2023-08-10 17:17:48.498792,-90.0
2023-08-10 17:17:48.506482,-88.0
2023-08-10 17:17:48.514172,-85.0
2023-08-10 17:17:48.521863,-85.0
2023-08-10 17:17:48.529553,-88.0
2023-08-10 17:17:48.537243,-83.0
2023-08-10 17:17:48.544934,-66.0
2023-08-10 17:17:48.552624,-47.0
2023-08-10 17:17:48.560314,-33.0
2023-08-10 17:17:48.568005,-30.0
2023-08-10 17:17:48.575695,-52.0
2023-08-10 17:17:48.583385,-64.0
2023-08-10 17:17:48.591075,-47.0
2023-08-10 17:17:48.598766,-52.0
2023-08-10 17:17:48.606456,-90.0
2023-08-10 17:17:48.614146,-99.0
2023-08-10 17:17:48.621837,-85.0
2023-08-10 17:17:48.629527,-85.0
2023-08-10 17:17:48.637217,-90.0
2023-08-10 17:17:48.644908,-83.0
2023-08-10 17:17:48.652598,-78.0
2023-08-10 17:17:48.660288,-76.0
2023-08-10 17:17:48.667979,-76.0
2023-08-10 17:17:48.675669,-80.0
2023-08-10 17:17:48.683359,-78.0
2023-08-10 17:17:48.691050,11.0
2023-08-10 17:17:48.698740,295.0
2023-08-10 17:17:48.706430,685.0
2023-08-10 17:17:48.714120,918.0
2023-08-10 17:17:48.721811,666.0
2023-08-10 17:17:48.729501,28.0
2023-08-10 17:17:48.737191,-223.0
2023-08-10 17:17:48.744882,16.0
2023-08-10 17:17:48.752572,38.0
2023-08-10 17:17:48.760262,-126.0
2023-08-10 17:17:48.767953,-95.0
2023-08-10 17:17:48.775643,-45.0
2023-08-10 17:17:48.783333,-85.0
2023-08-10 17:17:48.791024,-83.0
2023-08-10 17:17:48.798714,-54.0
2023-08-10 17:17:48.806404,-59.0
2023-08-10 17:17:48.814094,-54.0
2023-08-10 17:17:48.821785,-33.0
2023-08-10 17:17:48.829475,-26.0
2023-08-10 17:17:48.837165,-23.0
2023-08-10 17:17:48.844856,-9.0
2023-08-10 17:17:48.852546,4.0
2023-08-10 17:17:48.860236,19.0
2023-08-10 17:17:48.867927,38.0
2023-08-10 17:17:48.875617,57.0
2023-08-10 17:17:48.883307,76.0
2023-08-10 17:17:48.890998,97.0
2023-08-10 17:17:48.898688,116.0
2023-08-10 17:17:48.906378,135.0
2023-08-10 17:17:48.914069,161.0
2023-08-10 17:17:48.921759,185.0
2023-08-10 17:17:48.929449,204.0
2023-08-10 17:17:48.937139,218.0
2023-08-10 17:17:48.944830,226.0
2023-08-10 17:17:48.952520,230.0
2023-08-10 17:17:48.960210,221.0
2023-08-10 17:17:48.967901,192.0
2023-08-10 17:17:48.975591,145.0
2023-08-10 17:17:48.983281,80.0
2023-08-10 17:17:48.990972,7.0
2023-08-10 17:17:48.998662,-57.0
2023-08-10 17:17:49.006352,-109.0
2023-08-10 17:17:49.014043,-152.0
2023-08-10 17:17:49.021733,-185.0
2023-08-10 17:17:49.029423,-209.0
2023-08-10 17:17:49.037113,-226.0
2023-08-10 17:17:49.044804,-228.0
2023-08-10 17:17:49.052494,-221.0
2023-08-10 17:17:49.060184,-216.0
2023-08-10 17:17:49.067875,-214.0
2023-08-10 17:17:49.075565,-209.0
2023-08-10 17:17:49.083255,-204.0
2023-08-10 17:17:49.090946,-197.0
2023-08-10 17:17:49.098636,-190.0
2023-08-10 17:17:49.106326,-180.0
2023-08-10 17:17:49.114017,-173.0
2023-08-10 17:17:49.121707,-171.0
2023-08-10 17:17:49.129397,-166.0
2023-08-10 17:17:49.137087,-159.0
2023-08-10 17:17:49.144778,-154.0
2023-08-10 17:17:49.152468,-152.0
2023-08-10 17:17:49.160158,-149.0
2023-08-10 17:17:49.167849,-152.0
2023-08-10 17:17:49.175539,-147.0
2023-08-10 17:17:49.183229,-140.0
2023-08-10 17:17:49.190920,-138.0
2023-08-10 17:17:49.198610,-140.0
2023-08-10 17:17:49.206300,-140.0
2023-08-10 17:17:49.213991,-138.0
2023-08-10 17:17:49.221681,-135.0
2023-08-10 17:17:49.229371,-135.0
2023-08-10 17:17:49.237062,-135.0
2023-08-10 17:17:49.244752,-133.0
2023-08-10 17:17:49.252442,-126.0
2023-08-10 17:17:49.260132,-128.0
2023-08-10 17:17:49.267823,-133.0
2023-08-10 17:17:49.275513,-128.0
2023-08-10 17:17:49.283203,-119.0
2023-08-10 17:17:49.290894,-116.0
2023-08-10 17:17:49.298584,-116.0
2023-08-10 17:17:49.306274,-116.0
2023-08-10 17:17:49.313965,-114.0
2023-08-10 17:17:49.321655,-114.0
2023-08-10 17:17:49.329345,-114.0
2023-08-10 17:17:49.337036,-111.0
2023-08-10 17:17:49.344726,-107.0
2023-08-10 17:17:49.352416,-104.0
2023-08-10 17:17:49.360106,-107.0
2023-08-10 17:17:49.367797,-104.0
2023-08-10 17:17:49.375487,-102.0
2023-08-10 17:17:49.383177,-102.0
2023-08-10 17:17:49.390868,-99.0
2023-08-10 17:17:49.398558,-97.0
2023-08-10 17:17:49.406248,-97.0
2023-08-10 17:17:49.413939,-102.0
2023-08-10 17:17:49.421629,-107.0
2023-08-10 17:17:49.429319,-107.0
2023-08-10 17:17:49.437010,-102.0
2023-08-10 17:17:49.444700,-97.0
2023-08-10 17:17:49.452390,-95.0
2023-08-10 17:17:49.460081,-99.0
2023-08-10 17:17:49.467771,-97.0
2023-08-10 17:17:49.475461,-83.0
2023-08-10 17:17:49.483151,-71.0
2023-08-10 17:17:49.490842,-61.0
2023-08-10 17:17:49.498532,-54.0
2023-08-10 17:17:49.506222,-76.0
2023-08-10 17:17:49.513913,-92.0
2023-08-10 17:17:49.521603,-71.0
2023-08-10 17:17:49.529293,-73.0
2023-08-10 17:17:49.536984,-111.0
2023-08-10 17:17:49.544674,-121.0
2023-08-10 17:17:49.552364,-107.0
2023-08-10 17:17:49.560055,-107.0
2023-08-10 17:17:49.567745,-111.0
2023-08-10 17:17:49.575435,-111.0
2023-08-10 17:17:49.583125,-104.0
2023-08-10 17:17:49.590816,-97.0
2023-08-10 17:17:49.598506,-99.0
2023-08-10 17:17:49.606196,-102.0
2023-08-10 17:17:49.613887,-92.0
2023-08-10 17:17:49.621577,0.0
2023-08-10 17:17:49.629267,295.0
2023-08-10 17:17:49.636958,718.0
2023-08-10 17:17:49.644648,935.0
2023-08-10 17:17:49.652338,609.0
2023-08-10 17:17:49.660029,-78.0
2023-08-10 17:17:49.667719,-302.0
2023-08-10 17:17:49.675409,-4.0
2023-08-10 17:17:49.683099,35.0
2023-08-10 17:17:49.690790,-135.0
2023-08-10 17:17:49.698480,-111.0
2023-08-10 17:17:49.706170,-57.0
2023-08-10 17:17:49.713861,-92.0
2023-08-10 17:17:49.721551,-92.0
2023-08-10 17:17:49.729241,-66.0
2023-08-10 17:17:49.736932,-66.0
2023-08-10 17:17:49.744622,-61.0
2023-08-10 17:17:49.752312,-40.0
2023-08-10 17:17:49.760003,-30.0
2023-08-10 17:17:49.767693,-26.0
2023-08-10 17:17:49.775383,-9.0
2023-08-10 17:17:49.783074,9.0
2023-08-10 17:17:49.790764,23.0
2023-08-10 17:17:49.798454,35.0
2023-08-10 17:17:49.806144,59.0
2023-08-10 17:17:49.813835,83.0
2023-08-10 17:17:49.821525,102.0
2023-08-10 17:17:49.829215,126.0
2023-08-10 17:17:49.836906,159.0
2023-08-10 17:17:49.844596,183.0
2023-08-10 17:17:49.852286,204.0
2023-08-10 17:17:49.859977,228.0
2023-08-10 17:17:49.867667,247.0
2023-08-10 17:17:49.875357,254.0
2023-08-10 17:17:49.883048,252.0
2023-08-10 17:17:49.890738,245.0
2023-08-10 17:17:49.898428,221.0
2023-08-10 17:17:49.906118,161.0
2023-08-10 17:17:49.913809,85.0
2023-08-10 17:17:49.921499,11.0
2023-08-10 17:17:49.929189,-57.0
2023-08-10 17:17:49.936880,-116.0
2023-08-10 17:17:49.944570,-161.0
2023-08-10 17:17:49.952260,-197.0
2023-08-10 17:17:49.959951,-218.0
2023-08-10 17:17:49.967641,-230.0
2023-08-10 17:17:49.975331,-242.0
2023-08-10 17:17:49.983022,-242.0
2023-08-10 17:17:49.990712,-233.0
2023-08-10 17:17:49.998402,-223.0
2023-08-10 17:17:50.006093,-221.0
2023-08-10 17:17:50.013783,-216.0
2023-08-10 17:17:50.021473,-211.0
2023-08-10 17:17:50.029163,-204.0
2023-08-10 17:17:50.036854,-197.0
2023-08-10 17:17:50.044544,-188.0
2023-08-10 17:17:50.052234,-185.0
2023-08-10 17:17:50.059925,-180.0
2023-08-10 17:17:50.067615,-178.0
2023-08-10 17:17:50.075305,-173.0
2023-08-10 17:17:50.082996,-164.0
2023-08-10 17:17:50.090686,-159.0
2023-08-10 17:17:50.098376,-161.0
2023-08-10 17:17:50.106067,-159.0
2023-08-10 17:17:50.113757,-154.0
2023-08-10 17:17:50.121447,-152.0
2023-08-10 17:17:50.129137,-152.0
2023-08-10 17:17:50.136828,-149.0
2023-08-10 17:17:50.144518,-149.0
2023-08-10 17:17:50.152208,-147.0
2023-08-10 17:17:50.159899,-142.0
2023-08-10 17:17:50.167589,-140.0
2023-08-10 17:17:50.175279,-140.0
2023-08-10 17:17:50.182970,-135.0
2023-08-10 17:17:50.190660,-133.0
2023-08-10 17:17:50.198350,-130.0
2023-08-10 17:17:50.206041,-128.0
2023-08-10 17:17:50.213731,-126.0
2023-08-10 17:17:50.221421,-126.0
2023-08-10 17:17:50.229111,-121.0
2023-08-10 17:17:50.236802,-119.0
2023-08-10 17:17:50.244492,-114.0
2023-08-10 17:17:50.252182,-111.0
2023-08-10 17:17:50.259873,-109.0
2023-08-10 17:17:50.267563,-104.0
2023-08-10 17:17:50.275253,-102.0
2023-08-10 17:17:50.282944,-104.0
2023-08-10 17:17:50.290634,-104.0
2023-08-10 17:17:50.298324,-99.0
2023-08-10 17:17:50.306015,-99.0
2023-08-10 17:17:50.313705,-104.0
2023-08-10 17:17:50.321395,-102.0
2023-08-10 17:17:50.329086,-95.0
2023-08-10 17:17:50.336776,-95.0
2023-08-10 17:17:50.344466,-97.0
2023-08-10 17:17:50.352156,-85.0
2023-08-10 17:17:50.359847,-66.0
2023-08-10 17:17:50.367537,-49.0
2023-08-10 17:17:50.375227,-45.0
2023-08-10 17:17:50.382918,-61.0
2023-08-10 17:17:50.390608,-73.0
2023-08-10 17:17:50.398298,-61.0
2023-08-10 17:17:50.405989,-52.0
2023-08-10 17:17:50.413679,-78.0
2023-08-10 17:17:50.421369,-104.0
2023-08-10 17:17:50.429060,-99.0
2023-08-10 17:17:50.436750,-95.0
2023-08-10 17:17:50.444440,-102.0
2023-08-10 17:17:50.452130,-97.0
2023-08-10 17:17:50.459821,-90.0
2023-08-10 17:17:50.467511,-90.0
2023-08-10 17:17:50.475201,-92.0
2023-08-10 17:17:50.482892,-92.0
2023-08-10 17:17:50.490582,-95.0
2023-08-10 17:17:50.498272,-47.0
2023-08-10 17:17:50.505963,173.0
2023-08-10 17:17:50.513653,576.0
2023-08-10 17:17:50.521343,911.0
2023-08-10 17:17:50.529034,825.0
2023-08-10 17:17:50.536724,214.0
2023-08-10 17:17:50.544414,-261.0
2023-08-10 17:17:50.552105,-97.0
2023-08-10 17:17:50.559795,66.0
2023-08-10 17:17:50.567485,-97.0
2023-08-10 17:17:50.575175,-142.0
2023-08-10 17:17:50.582866,-61.0
2023-08-10 17:17:50.590556,-80.0
2023-08-10 17:17:50.598246,-107.0
2023-08-10 17:17:50.605937,-83.0
2023-08-10 17:17:50.613627,-80.0
2023-08-10 17:17:50.621317,-78.0
2023-08-10 17:17:50.629008,-61.0
2023-08-10 17:17:50.636698,-49.0
2023-08-10 17:17:50.644388,-40.0
2023-08-10 17:17:50.652079,-26.0
2023-08-10 17:17:50.659769,-14.0
2023-08-10 17:17:50.667459,-4.0
2023-08-10 17:17:50.675149,14.0
2023-08-10 17:17:50.682840,38.0
2023-08-10 17:17:50.690530,61.0
2023-08-10 17:17:50.698220,83.0
2023-08-10 17:17:50.705911,109.0
2023-08-10 17:17:50.713601,138.0
2023-08-10 17:17:50.721291,164.0
2023-08-10 17:17:50.728982,190.0
2023-08-10 17:17:50.736672,214.0
2023-08-10 17:17:50.744362,230.0
2023-08-10 17:17:50.752053,242.0
2023-08-10 17:17:50.759743,247.0
2023-08-10 17:17:50.767433,240.0
2023-08-10 17:17:50.775124,216.0
2023-08-10 17:17:50.782814,161.0
2023-08-10 17:17:50.790504,90.0
2023-08-10 17:17:50.798194,16.0
2023-08-10 17:17:50.805885,-47.0
2023-08-10 17:17:50.813575,-104.0
2023-08-10 17:17:50.821265,-157.0
2023-08-10 17:17:50.828956,-195.0
2023-08-10 17:17:50.836646,-218.0
2023-08-10 17:17:50.844336,-228.0
2023-08-10 17:17:50.852027,-230.0
2023-08-10 17:17:50.859717,-230.0
2023-08-10 17:17:50.867407,-230.0
2023-08-10 17:17:50.875098,-228.0
2023-08-10 17:17:50.882788,-223.0
2023-08-10 17:17:50.890478,-216.0
2023-08-10 17:17:50.898168,-204.0
2023-08-10 17:17:50.905859,-195.0
2023-08-10 17:17:50.913549,-188.0
2023-08-10 17:17:50.921239,-183.0
2023-08-10 17:17:50.928930,-183.0
2023-08-10 17:17:50.936620,-180.0
2023-08-10 17:17:50.944310,-171.0
2023-08-10 17:17:50.952001,-164.0
2023-08-10 17:17:50.959691,-161.0
2023-08-10 17:17:50.967381,-159.0
2023-08-10 17:17:50.975072,-157.0
2023-08-10 17:17:50.982762,-154.0
2023-08-10 17:17:50.990452,-147.0
2023-08-10 17:17:50.998142,-145.0
2023-08-10 17:17:51.005833,-147.0
2023-08-10 17:17:51.013523,-145.0
2023-08-10 17:17:51.021213,-140.0
2023-08-10 17:17:51.028904,-140.0
2023-08-10 17:17:51.036594,-138.0
2023-08-10 17:17:51.044284,-135.0
2023-08-10 17:17:51.051975,-135.0
2023-08-10 17:17:51.059665,-138.0
2023-08-10 17:17:51.067355,-135.0
2023-08-10 17:17:51.075046,-133.0
2023-08-10 17:17:51.082736,-130.0
2023-08-10 17:17:51.090426,-128.0
2023-08-10 17:17:51.098117,-126.0
2023-08-10 17:17:51.105807,-123.0
2023-08-10 17:17:51.113497,-123.0
2023-08-10 17:17:51.121187,-119.0
2023-08-10 17:17:51.128878,-114.0
2023-08-10 17:17:51.136568,-109.0
2023-08-10 17:17:51.144258,-109.0
2023-08-10 17:17:51.151949,-109.0
2023-08-10 17:17:51.159639,-104.0
2023-08-10 17:17:51.167329,-97.0
2023-08-10 17:17:51.175020,-99.0
2023-08-10 17:17:51.182710,-102.0
2023-08-10 17:17:51.190400,-99.0
2023-08-10 17:17:51.198091,-102.0
2023-08-10 17:17:51.205781,-102.0
2023-08-10 17:17:51.213471,-99.0
2023-08-10 17:17:51.221161,-104.0
2023-08-10 17:17:51.228852,-97.0
2023-08-10 17:17:51.236542,-78.0
2023-08-10 17:17:51.244232,-61.0
2023-08-10 17:17:51.251923,-52.0
2023-08-10 17:17:51.259613,-64.0
2023-08-10 17:17:51.267303,-83.0
2023-08-10 17:17:51.274994,-73.0
2023-08-10 17:17:51.282684,-61.0
2023-08-10 17:17:51.290374,-88.0
2023-08-10 17:17:51.298065,-114.0
2023-08-10 17:17:51.305755,-109.0
2023-08-10 17:17:51.313445,-99.0
2023-08-10 17:17:51.321136,-97.0
2023-08-10 17:17:51.328826,-95.0
2023-08-10 17:17:51.336516,-97.0
2023-08-10 17:17:51.344206,-97.0
2023-08-10 17:17:51.351897,-90.0
2023-08-10 17:17:51.359587,-90.0
2023-08-10 17:17:51.367277,-104.0
2023-08-10 17:17:51.374968,-78.0
2023-08-10 17:17:51.382658,97.0
2023-08-10 17:17:51.390348,461.0
2023-08-10 17:17:51.398039,833.0
2023-08-10 17:17:51.405729,885.0
2023-08-10 17:17:51.413419,388.0
2023-08-10 17:17:51.421110,-183.0
2023-08-10 17:17:51.428800,-154.0
2023-08-10 17:17:51.436490,45.0
2023-08-10 17:17:51.444180,-83.0
2023-08-10 17:17:51.451871,-171.0
2023-08-10 17:17:51.459561,-92.0
2023-08-10 17:17:51.467251,-92.0
2023-08-10 17:17:51.474942,-126.0
2023-08-10 17:17:51.482632,-99.0
2023-08-10 17:17:51.490322,-80.0
2023-08-10 17:17:51.498013,-85.0
2023-08-10 17:17:51.505703,-73.0
2023-08-10 17:17:51.513393,-57.0
2023-08-10 17:17:51.521084,-52.0
2023-08-10 17:17:51.528774,-42.0
2023-08-10 17:17:51.536464,-21.0
2023-08-10 17:17:51.544154,-7.0
2023-08-10 17:17:51.551845,2.0
2023-08-10 17:17:51.559535,19.0
2023-08-10 17:17:51.567225,45.0
2023-08-10 17:17:51.574916,69.0
2023-08-10 17:17:51.582606,95.0
2023-08-10 17:17:51.590296,121.0
2023-08-10 17:17:51.597987,149.0
2023-08-10 17:17:51.605677,178.0
2023-08-10 17:17:51.613367,204.0
2023-08-10 17:17:51.621058,221.0
2023-08-10 17:17:51.628748,235.0
2023-08-10 17:17:51.636438,242.0
2023-08-10 17:17:51.644129,235.0
2023-08-10 17:17:51.651819,209.0
2023-08-10 17:17:51.659509,166.0
2023-08-10 17:17:51.667199,107.0
2023-08-10 17:17:51.674890,35.0
2023-08-10 17:17:51.682580,-35.0
2023-08-10 17:17:51.690270,-92.0
2023-08-10 17:17:51.697961,-142.0
2023-08-10 17:17:51.705651,-180.0
2023-08-10 17:17:51.713341,-204.0
2023-08-10 17:17:51.721032,-218.0
2023-08-10 17:17:51.728722,-233.0
2023-08-10 17:17:51.736412,-240.0
2023-08-10 17:17:51.744103,-235.0
2023-08-10 17:17:51.751793,-228.0
2023-08-10 17:17:51.759483,-221.0
2023-08-10 17:17:51.767173,-214.0
2023-08-10 17:17:51.774864,-211.0
2023-08-10 17:17:51.782554,-211.0
2023-08-10 17:17:51.790244,-204.0
2023-08-10 17:17:51.797935,-199.0
2023-08-10 17:17:51.805625,-195.0
2023-08-10 17:17:51.813315,-185.0
2023-08-10 17:17:51.821006,-178.0
2023-08-10 17:17:51.828696,-173.0
2023-08-10 17:17:51.836386,-169.0
2023-08-10 17:17:51.844077,-164.0
2023-08-10 17:17:51.851767,-159.0
2023-08-10 17:17:51.859457,-154.0
2023-08-10 17:17:51.867148,-154.0
2023-08-10 17:17:51.874838,-152.0
2023-08-10 17:17:51.882528,-147.0
2023-08-10 17:17:51.890218,-145.0
2023-08-10 17:17:51.897909,-145.0
2023-08-10 17:17:51.905599,-142.0
2023-08-10 17:17:51.913289,-140.0
2023-08-10 17:17:51.920980,-135.0
2023-08-10 17:17:51.928670,-135.0
2023-08-10 17:17:51.936360,-135.0
2023-08-10 17:17:51.944051,-135.0
2023-08-10 17:17:51.951741,-138.0
2023-08-10 17:17:51.959431,-135.0
2023-08-10 17:17:51.967122,-130.0
2023-08-10 17:17:51.974812,-126.0
2023-08-10 17:17:51.982502,-123.0
2023-08-10 17:17:51.990192,-121.0
2023-08-10 17:17:51.997883,-119.0
2023-08-10 17:17:52.005573,-114.0
2023-08-10 17:17:52.013263,-111.0
2023-08-10 17:17:52.020954,-109.0
2023-08-10 17:17:52.028644,-107.0
2023-08-10 17:17:52.036334,-109.0
2023-08-10 17:17:52.044025,-109.0
2023-08-10 17:17:52.051715,-107.0
2023-08-10 17:17:52.059405,-102.0
2023-08-10 17:17:52.067096,-99.0
2023-08-10 17:17:52.074786,-97.0
2023-08-10 17:17:52.082476,-95.0
2023-08-10 17:17:52.090166,-92.0
2023-08-10 17:17:52.097857,-88.0
2023-08-10 17:17:52.105547,-88.0
2023-08-10 17:17:52.113237,-85.0
2023-08-10 17:17:52.120928,-85.0
2023-08-10 17:17:52.128618,-83.0
2023-08-10 17:17:52.136308,-76.0
2023-08-10 17:17:52.143999,-59.0
2023-08-10 17:17:52.151689,-40.0
2023-08-10 17:17:52.159379,-33.0
2023-08-10 17:17:52.167070,-49.0
2023-08-10 17:17:52.174760,-71.0
2023-08-10 17:17:52.182450,-59.0
2023-08-10 17:17:52.190141,-42.0
2023-08-10 17:17:52.197831,-71.0
2023-08-10 17:17:52.205521,-97.0
2023-08-10 17:17:52.213211,-90.0
2023-08-10 17:17:52.220902,-83.0
2023-08-10 17:17:52.228592,-90.0
2023-08-10 17:17:52.236282,-88.0
2023-08-10 17:17:52.243973,-80.0
2023-08-10 17:17:52.251663,-78.0
2023-08-10 17:17:52.259353,-76.0
2023-08-10 17:17:52.267044,-78.0
2023-08-10 17:17:52.274734,-92.0
2023-08-10 17:17:52.282424,-85.0
2023-08-10 17:17:52.290115,35.0
2023-08-10 17:17:52.297805,357.0
2023-08-10 17:17:52.305495,752.0
2023-08-10 17:17:52.313185,923.0
2023-08-10 17:17:52.320876,552.0
2023-08-10 17:17:52.328566,-95.0
2023-08-10 17:17:52.336256,-221.0
2023-08-10 17:17:52.343947,21.0
2023-08-10 17:17:52.351637,-38.0
2023-08-10 17:17:52.359327,-178.0
2023-08-10 17:17:52.367018,-126.0
2023-08-10 17:17:52.374708,-102.0
2023-08-10 17:17:52.382398,-140.0
2023-08-10 17:17:52.390089,-119.0
2023-08-10 17:17:52.397779,-95.0
2023-08-10 17:17:52.405469,-99.0
2023-08-10 17:17:52.413160,-95.0
2023-08-10 17:17:52.420850,-73.0
2023-08-10 17:17:52.428540,-64.0
2023-08-10 17:17:52.436230,-52.0
2023-08-10 17:17:52.443921,-38.0
2023-08-10 17:17:52.451611,-30.0
2023-08-10 17:17:52.459301,-16.0
2023-08-10 17:17:52.466992,2.0
2023-08-10 17:17:52.474682,26.0
2023-08-10 17:17:52.482372,52.0
2023-08-10 17:17:52.490063,73.0
2023-08-10 17:17:52.497753,97.0
2023-08-10 17:17:52.505443,126.0
2023-08-10 17:17:52.513134,157.0
2023-08-10 17:17:52.520824,180.0
2023-08-10 17:17:52.528514,195.0
2023-08-10 17:17:52.536204,209.0
2023-08-10 17:17:52.543895,218.0
2023-08-10 17:17:52.551585,216.0
2023-08-10 17:17:52.559275,204.0
2023-08-10 17:17:52.566966,171.0
2023-08-10 17:17:52.574656,114.0
2023-08-10 17:17:52.582346,42.0
2023-08-10 17:17:52.590037,-21.0
2023-08-10 17:17:52.597727,-80.0
2023-08-10 17:17:52.605417,-135.0
2023-08-10 17:17:52.613108,-173.0
2023-08-10 17:17:52.620798,-197.0
2023-08-10 17:17:52.628488,-216.0
2023-08-10 17:17:52.636178,-230.0
2023-08-10 17:17:52.643869,-226.0
2023-08-10 17:17:52.651559,-221.0
2023-08-10 17:17:52.659249,-221.0
2023-08-10 17:17:52.666940,-214.0
2023-08-10 17:17:52.674630,-204.0
2023-08-10 17:17:52.682320,-197.0
2023-08-10 17:17:52.690011,-190.0
2023-08-10 17:17:52.697701,-183.0
2023-08-10 17:17:52.705391,-176.0
2023-08-10 17:17:52.713082,-166.0
2023-08-10 17:17:52.720772,-161.0
2023-08-10 17:17:52.728462,-159.0
2023-08-10 17:17:52.736153,-149.0
2023-08-10 17:17:52.743843,-142.0
2023-08-10 17:17:52.751533,-145.0
2023-08-10 17:17:52.759223,-145.0
2023-08-10 17:17:52.766914,-140.0
2023-08-10 17:17:52.774604,-140.0
2023-08-10 17:17:52.782294,-142.0
2023-08-10 17:17:52.789985,-140.0
2023-08-10 17:17:52.797675,-135.0
2023-08-10 17:17:52.805365,-133.0
2023-08-10 17:17:52.813056,-133.0
2023-08-10 17:17:52.820746,-135.0
2023-08-10 17:17:52.828436,-133.0
2023-08-10 17:17:52.836127,-128.0
2023-08-10 17:17:52.843817,-128.0
2023-08-10 17:17:52.851507,-126.0
2023-08-10 17:17:52.859197,-130.0
2023-08-10 17:17:52.866888,-133.0
2023-08-10 17:17:52.874578,-128.0
2023-08-10 17:17:52.882268,-123.0
2023-08-10 17:17:52.889959,-123.0
2023-08-10 17:17:52.897649,-119.0
2023-08-10 17:17:52.905339,-114.0
2023-08-10 17:17:52.913030,-111.0
2023-08-10 17:17:52.920720,-109.0
2023-08-10 17:17:52.928410,-109.0
2023-08-10 17:17:52.936101,-104.0
2023-08-10 17:17:52.943791,-99.0
2023-08-10 17:17:52.951481,-102.0
2023-08-10 17:17:52.959172,-109.0
2023-08-10 17:17:52.966862,-102.0
2023-08-10 17:17:52.974552,-92.0
2023-08-10 17:17:52.982242,-92.0
2023-08-10 17:17:52.989933,-99.0
2023-08-10 17:17:52.997623,-95.0
2023-08-10 17:17:53.005313,-90.0
2023-08-10 17:17:53.013004,-92.0
2023-08-10 17:17:53.020694,-92.0
2023-08-10 17:17:53.028384,-92.0
2023-08-10 17:17:53.036075,-90.0
2023-08-10 17:17:53.043765,-88.0
2023-08-10 17:17:53.051455,-85.0
2023-08-10 17:17:53.059146,-83.0
2023-08-10 17:17:53.066836,-76.0
2023-08-10 17:17:53.074526,-59.0
2023-08-10 17:17:53.082216,-42.0
2023-08-10 17:17:53.089907,-35.0
2023-08-10 17:17:53.097597,-40.0
2023-08-10 17:17:53.105287,-57.0
2023-08-10 17:17:53.112978,-57.0
2023-08-10 17:17:53.120668,-42.0
2023-08-10 17:17:53.128358,-54.0
2023-08-10 17:17:53.136049,-85.0
2023-08-10 17:17:53.143739,-92.0
2023-08-10 17:17:53.151429,-78.0
2023-08-10 17:17:53.159120,-78.0
2023-08-10 17:17:53.166810,-88.0
2023-08-10 17:17:53.174500,-85.0
2023-08-10 17:17:53.182190,-78.0
2023-08-10 17:17:53.189881,-69.0
2023-08-10 17:17:53.197571,-64.0
2023-08-10 17:17:53.205261,-69.0
2023-08-10 17:17:53.212952,-71.0
2023-08-10 17:17:53.220642,-9.0
2023-08-10 17:17:53.228332,226.0
2023-08-10 17:17:53.236023,599.0
2023-08-10 17:17:53.243713,847.0
2023-08-10 17:17:53.251403,652.0
2023-08-10 17:17:53.259094,54.0
2023-08-10 17:17:53.266784,-247.0
2023-08-10 17:17:53.274474,-33.0
2023-08-10 17:17:53.282165,42.0
2023-08-10 17:17:53.289855,-109.0
2023-08-10 17:17:53.297545,-109.0
2023-08-10 17:17:53.305235,-54.0
2023-08-10 17:17:53.312926,-85.0
2023-08-10 17:17:53.320616,-92.0
2023-08-10 17:17:53.328306,-64.0
2023-08-10 17:17:53.335997,-61.0
2023-08-10 17:17:53.343687,-59.0
2023-08-10 17:17:53.351377,-45.0
2023-08-10 17:17:53.359068,-33.0
2023-08-10 17:17:53.366758,-26.0
2023-08-10 17:17:53.374448,-16.0
2023-08-10 17:17:53.382139,2.0
2023-08-10 17:17:53.389829,21.0
2023-08-10 17:17:53.397519,26.0
2023-08-10 17:17:53.405209,33.0
2023-08-10 17:17:53.412900,66.0
2023-08-10 17:17:53.420590,102.0
2023-08-10 17:17:53.428280,114.0
2023-08-10 17:17:53.435971,123.0
2023-08-10 17:17:53.443661,157.0
2023-08-10 17:17:53.451351,195.0
2023-08-10 17:17:53.459042,204.0
2023-08-10 17:17:53.466732,204.0
2023-08-10 17:17:53.474422,221.0
2023-08-10 17:17:53.482113,233.0
2023-08-10 17:17:53.489803,223.0
2023-08-10 17:17:53.497493,197.0
2023-08-10 17:17:53.505184,138.0
2023-08-10 17:17:53.512874,47.0
2023-08-10 17:17:53.520564,-33.0
2023-08-10 17:17:53.528254,-80.0
2023-08-10 17:17:53.535945,-130.0
2023-08-10 17:17:53.543635,-183.0
2023-08-10 17:17:53.551325,-199.0
2023-08-10 17:17:53.559016,-211.0
2023-08-10 17:17:53.566706,-235.0
2023-08-10 17:17:53.574396,-245.0
2023-08-10 17:17:53.582087,-242.0
2023-08-10 17:17:53.589777,-242.0
2023-08-10 17:17:53.597467,-242.0
2023-08-10 17:17:53.605158,-235.0
2023-08-10 17:17:53.612848,-221.0
2023-08-10 17:17:53.620538,-211.0
2023-08-10 17:17:53.628228,-209.0
2023-08-10 17:17:53.635919,-207.0
2023-08-10 17:17:53.643609,-197.0
2023-08-10 17:17:53.651299,-185.0
2023-08-10 17:17:53.658990,-171.0
2023-08-10 17:17:53.666680,-157.0
2023-08-10 17:17:53.674370,-154.0
2023-08-10 17:17:53.682061,-154.0
2023-08-10 17:17:53.689751,-147.0
2023-08-10 17:17:53.697441,-142.0
2023-08-10 17:17:53.705132,-142.0
2023-08-10 17:17:53.712822,-149.0
2023-08-10 17:17:53.720512,-157.0
2023-08-10 17:17:53.728202,-159.0
2023-08-10 17:17:53.735893,-147.0
2023-08-10 17:17:53.743583,-135.0
2023-08-10 17:17:53.751273,-135.0
2023-08-10 17:17:53.758964,-133.0
2023-08-10 17:17:53.766654,-140.0
2023-08-10 17:17:53.774344,-147.0
2023-08-10 17:17:53.782035,-126.0
2023-08-10 17:17:53.789725,-109.0
2023-08-10 17:17:53.797415,-128.0
2023-08-10 17:17:53.805106,-128.0
2023-08-10 17:17:53.812796,-119.0
2023-08-10 17:17:53.820486,-116.0
2023-08-10 17:17:53.828177,-99.0
2023-08-10 17:17:53.835867,-102.0
2023-08-10 17:17:53.843557,-130.0
2023-08-10 17:17:53.851247,-128.0
2023-08-10 17:17:53.858938,-104.0
2023-08-10 17:17:53.866628,-104.0
2023-08-10 17:17:53.874318,-104.0
2023-08-10 17:17:53.882009,-97.0
2023-08-10 17:17:53.889699,-97.0
2023-08-10 17:17:53.897389,-95.0
2023-08-10 17:17:53.905080,-95.0
2023-08-10 17:17:53.912770,-102.0
2023-08-10 17:17:53.920460,-88.0
2023-08-10 17:17:53.928151,-73.0
2023-08-10 17:17:53.935841,-88.0
2023-08-10 17:17:53.943531,-97.0
2023-08-10 17:17:53.951221,-92.0
2023-08-10 17:17:53.958912,-88.0
2023-08-10 17:17:53.966602,-85.0
2023-08-10 17:17:53.974292,-88.0
2023-08-10 17:17:53.981983,-90.0
2023-08-10 17:17:53.989673,-78.0
2023-08-10 17:17:53.997363,-52.0
2023-08-10 17:17:54.005054,-45.0
2023-08-10 17:17:54.012744,-76.0
2023-08-10 17:17:54.020434,-104.0
2023-08-10 17:17:54.028125,-83.0
2023-08-10 17:17:54.035815,-59.0
2023-08-10 17:17:54.043505,-88.0
2023-08-10 17:17:54.051196,-123.0
2023-08-10 17:17:54.058886,-104.0
2023-08-10 17:17:54.066576,-90.0
2023-08-10 17:17:54.074266,-116.0
2023-08-10 17:17:54.081957,-121.0
2023-08-10 17:17:54.089647,-85.0
2023-08-10 17:17:54.097337,-59.0
2023-08-10 17:17:54.105028,-71.0
2023-08-10 17:17:54.112718,-102.0
2023-08-10 17:17:54.120408,-95.0
2023-08-10 17:17:54.128099,33.0
2023-08-10 17:17:54.135789,359.0
2023-08-10 17:17:54.143479,730.0
2023-08-10 17:17:54.151170,811.0
2023-08-10 17:17:54.158860,395.0
2023-08-10 17:17:54.166550,-218.0
2023-08-10 17:17:54.174240,-309.0
2023-08-10 17:17:54.181931,38.0
2023-08-10 17:17:54.189621,57.0
2023-08-10 17:17:54.197311,-149.0
2023-08-10 17:17:54.205002,-104.0
2023-08-10 17:17:54.212692,7.0
2023-08-10 17:17:54.220382,-59.0
2023-08-10 17:17:54.228073,-114.0
2023-08-10 17:17:54.235763,-59.0
2023-08-10 17:17:54.243453,-21.0
2023-08-10 17:17:54.251144,-23.0
2023-08-10 17:17:54.258834,-7.0
2023-08-10 17:17:54.266524,-4.0
2023-08-10 17:17:54.274214,-11.0
2023-08-10 17:17:54.281905,7.0
2023-08-10 17:17:54.289595,35.0
2023-08-10 17:17:54.297285,54.0
2023-08-10 17:17:54.304976,64.0
2023-08-10 17:17:54.312666,69.0
2023-08-10 17:17:54.320356,99.0
2023-08-10 17:17:54.328047,142.0
2023-08-10 17:17:54.335737,138.0
2023-08-10 17:17:54.343427,157.0
2023-08-10 17:17:54.351118,235.0
2023-08-10 17:17:54.358808,257.0
2023-08-10 17:17:54.366498,238.0
2023-08-10 17:17:54.374189,280.0
2023-08-10 17:17:54.381879,309.0
2023-08-10 17:17:54.389569,271.0
2023-08-10 17:17:54.397259,249.0
2023-08-10 17:17:54.404950,221.0
2023-08-10 17:17:54.412640,164.0
2023-08-10 17:17:54.420330,121.0
2023-08-10 17:17:54.428021,59.0
2023-08-10 17:17:54.435711,-47.0
2023-08-10 17:17:54.443401,-126.0
2023-08-10 17:17:54.451092,-128.0
2023-08-10 17:17:54.458782,-126.0
2023-08-10 17:17:54.466472,-185.0
2023-08-10 17:17:54.474163,-245.0
2023-08-10 17:17:54.481853,-221.0
2023-08-10 17:17:54.489543,-195.0
2023-08-10 17:17:54.497233,-211.0
2023-08-10 17:17:54.504924,-207.0
2023-08-10 17:17:54.512614,-190.0
2023-08-10 17:17:54.520304,-173.0
2023-08-10 17:17:54.527995,-176.0
2023-08-10 17:17:54.535685,-199.0
2023-08-10 17:17:54.543375,-169.0
2023-08-10 17:17:54.551066,-126.0
2023-08-10 17:17:54.558756,-145.0
2023-08-10 17:17:54.566446,-173.0
2023-08-10 17:17:54.574137,-173.0
2023-08-10 17:17:54.581827,-138.0
2023-08-10 17:17:54.589517,-119.0
2023-08-10 17:17:54.597208,-142.0
2023-08-10 17:17:54.604898,-138.0
2023-08-10 17:17:54.612588,-126.0
2023-08-10 17:17:54.620278,-154.0
2023-08-10 17:17:54.627969,-152.0
2023-08-10 17:17:54.635659,-130.0
2023-08-10 17:17:54.643349,-135.0
2023-08-10 17:17:54.651040,-133.0
2023-08-10 17:17:54.658730,-128.0
2023-08-10 17:17:54.666420,-126.0
2023-08-10 17:17:54.674111,-128.0
2023-08-10 17:17:54.681801,-121.0
2023-08-10 17:17:54.689491,-85.0
2023-08-10 17:17:54.697182,-97.0
2023-08-10 17:17:54.704872,-126.0
2023-08-10 17:17:54.712562,-95.0
2023-08-10 17:17:54.720252,-83.0
2023-08-10 17:17:54.727943,-111.0
2023-08-10 17:17:54.735633,-116.0
2023-08-10 17:17:54.743323,-109.0
2023-08-10 17:17:54.751014,-90.0
2023-08-10 17:17:54.758704,-71.0
2023-08-10 17:17:54.766394,-73.0
2023-08-10 17:17:54.774085,-80.0
2023-08-10 17:17:54.781775,-85.0
2023-08-10 17:17:54.789465,-66.0
2023-08-10 17:17:54.797156,-42.0
2023-08-10 17:17:54.804846,-71.0
2023-08-10 17:17:54.812536,-90.0
2023-08-10 17:17:54.820226,-54.0
2023-08-10 17:17:54.827917,-28.0
2023-08-10 17:17:54.835607,-45.0
2023-08-10 17:17:54.843297,-64.0
2023-08-10 17:17:54.850988,-38.0
2023-08-10 17:17:54.858678,11.0
2023-08-10 17:17:54.866368,0.0
2023-08-10 17:17:54.874059,-45.0
2023-08-10 17:17:54.881749,-35.0
2023-08-10 17:17:54.889439,-7.0
2023-08-10 17:17:54.897130,-33.0
2023-08-10 17:17:54.904820,-57.0
2023-08-10 17:17:54.912510,-52.0
2023-08-10 17:17:54.920201,-57.0
2023-08-10 17:17:54.927891,-52.0
2023-08-10 17:17:54.935581,-33.0
2023-08-10 17:17:54.943271,-33.0
2023-08-10 17:17:54.950962,-40.0
2023-08-10 17:17:54.958652,-35.0
2023-08-10 17:17:54.966342,-47.0
2023-08-10 17:17:54.974033,-49.0
2023-08-10 17:17:54.981723,-7.0
2023-08-10 17:17:54.989413,130.0
2023-08-10 17:17:54.997104,433.0
2023-08-10 17:17:55.004794,735.0
2023-08-10 17:17:55.012484,716.0
2023-08-10 17:17:55.020175,261.0
2023-08-10 17:17:55.027865,-214.0
2023-08-10 17:17:55.035555,-188.0
2023-08-10 17:17:55.043245,64.0
2023-08-10 17:17:55.050936,42.0
2023-08-10 17:17:55.058626,-57.0
2023-08-10 17:17:55.066316,-33.0
2023-08-10 17:17:55.074007,-9.0
2023-08-10 17:17:55.081697,-19.0
2023-08-10 17:17:55.089387,-4.0
2023-08-10 17:17:55.097078,0.0
2023-08-10 17:17:55.104768,-7.0
2023-08-10 17:17:55.112458,9.0
2023-08-10 17:17:55.120149,23.0
2023-08-10 17:17:55.127839,30.0
2023-08-10 17:17:55.135529,47.0
2023-08-10 17:17:55.143220,61.0
2023-08-10 17:17:55.150910,71.0
2023-08-10 17:17:55.158600,88.0
2023-08-10 17:17:55.166290,83.0
2023-08-10 17:17:55.173981,90.0
2023-08-10 17:17:55.181671,142.0
2023-08-10 17:17:55.189361,183.0
2023-08-10 17:17:55.197052,185.0
2023-08-10 17:17:55.204742,199.0
2023-08-10 17:17:55.212432,235.0
2023-08-10 17:17:55.220123,273.0
2023-08-10 17:17:55.227813,304.0
2023-08-10 17:17:55.235503,307.0
2023-08-10 17:17:55.243194,283.0
2023-08-10 17:17:55.250884,288.0
2023-08-10 17:17:55.258574,292.0
2023-08-10 17:17:55.266264,242.0
2023-08-10 17:17:55.273955,173.0
2023-08-10 17:17:55.281645,128.0
2023-08-10 17:17:55.289335,73.0
2023-08-10 17:17:55.297026,-4.0
2023-08-10 17:17:55.304716,-61.0
2023-08-10 17:17:55.312406,-97.0
2023-08-10 17:17:55.320097,-138.0
2023-08-10 17:17:55.327787,-154.0
2023-08-10 17:17:55.335477,-159.0
2023-08-10 17:17:55.343168,-157.0
2023-08-10 17:17:55.350858,-145.0
2023-08-10 17:17:55.358548,-138.0
2023-08-10 17:17:55.366238,-142.0
2023-08-10 17:17:55.373929,-147.0
2023-08-10 17:17:55.381619,-147.0
2023-08-10 17:17:55.389309,-140.0
2023-08-10 17:17:55.397000,-116.0
2023-08-10 17:17:55.404690,-109.0
2023-08-10 17:17:55.412380,-123.0
2023-08-10 17:17:55.420071,-109.0
2023-08-10 17:17:55.427761,-73.0
2023-08-10 17:17:55.435451,-80.0
2023-08-10 17:17:55.443142,-109.0
2023-08-10 17:17:55.450832,-92.0
2023-08-10 17:17:55.458522,-76.0
2023-08-10 17:17:55.466213,-99.0
2023-08-10 17:17:55.473903,-104.0
2023-08-10 17:17:55.481593,-90.0
2023-08-10 17:17:55.489283,-97.0
2023-08-10 17:17:55.496974,-116.0
2023-08-10 17:17:55.504664,-107.0
2023-08-10 17:17:55.512354,-78.0
2023-08-10 17:17:55.520045,-80.0
2023-08-10 17:17:55.527735,-104.0
2023-08-10 17:17:55.535425,-107.0
2023-08-10 17:17:55.543116,-83.0
2023-08-10 17:17:55.550806,-76.0
2023-08-10 17:17:55.558496,-85.0
2023-08-10 17:17:55.566187,-80.0
2023-08-10 17:17:55.573877,-64.0
2023-08-10 17:17:55.581567,-69.0
2023-08-10 17:17:55.589257,-88.0
2023-08-10 17:17:55.596948,-85.0
2023-08-10 17:17:55.604638,-69.0
2023-08-10 17:17:55.612328,-59.0
2023-08-10 17:17:55.620019,-57.0
2023-08-10 17:17:55.627709,-64.0
2023-08-10 17:17:55.635399,-69.0
2023-08-10 17:17:55.643090,-64.0
2023-08-10 17:17:55.650780,-61.0
2023-08-10 17:17:55.658470,-61.0
2023-08-10 17:17:55.666161,-66.0
2023-08-10 17:17:55.673851,-66.0
2023-08-10 17:17:55.681541,-54.0
2023-08-10 17:17:55.689232,-59.0
2023-08-10 17:17:55.696922,-73.0
2023-08-10 17:17:55.704612,-61.0
2023-08-10 17:17:55.712302,-38.0
2023-08-10 17:17:55.719993,-14.0
2023-08-10 17:17:55.727683,7.0
2023-08-10 17:17:55.735373,-14.0
2023-08-10 17:17:55.743064,-54.0
2023-08-10 17:17:55.750754,-47.0
2023-08-10 17:17:55.758444,-16.0
2023-08-10 17:17:55.766135,-30.0
2023-08-10 17:17:55.773825,-71.0
2023-08-10 17:17:55.781515,-80.0
2023-08-10 17:17:55.789206,-59.0
2023-08-10 17:17:55.796896,-61.0
2023-08-10 17:17:55.804586,-73.0
2023-08-10 17:17:55.812276,-61.0
2023-08-10 17:17:55.819967,-52.0
2023-08-10 17:17:55.827657,-54.0
2023-08-10 17:17:55.835347,-61.0
2023-08-10 17:17:55.843038,-61.0
2023-08-10 17:17:55.850728,-14.0
2023-08-10 17:17:55.858418,157.0
2023-08-10 17:17:55.866109,461.0
2023-08-10 17:17:55.873799,740.0
2023-08-10 17:17:55.881489,735.0
2023-08-10 17:17:55.889180,288.0
2023-08-10 17:17:55.896870,-185.0
2023-08-10 17:17:55.904560,-111.0
2023-08-10 17:17:55.912250,85.0
2023-08-10 17:17:55.919941,-54.0
2023-08-10 17:17:55.927631,-130.0
2023-08-10 17:17:55.935321,-30.0
2023-08-10 17:17:55.943012,-40.0
2023-08-10 17:17:55.950702,-88.0
2023-08-10 17:17:55.958392,-47.0
2023-08-10 17:17:55.966083,-33.0
2023-08-10 17:17:55.973773,-64.0
2023-08-10 17:17:55.981463,-52.0
2023-08-10 17:17:55.989154,-28.0
2023-08-10 17:17:55.996844,-26.0
2023-08-10 17:17:56.004534,-9.0
2023-08-10 17:17:56.012225,7.0
2023-08-10 17:17:56.019915,0.0
2023-08-10 17:17:56.027605,23.0
2023-08-10 17:17:56.035295,64.0
2023-08-10 17:17:56.042986,76.0
2023-08-10 17:17:56.050676,71.0
2023-08-10 17:17:56.058366,97.0
2023-08-10 17:17:56.066057,147.0
2023-08-10 17:17:56.073747,166.0
2023-08-10 17:17:56.081437,178.0
2023-08-10 17:17:56.089128,209.0
2023-08-10 17:17:56.096818,228.0
2023-08-10 17:17:56.104508,233.0
2023-08-10 17:17:56.112199,245.0
2023-08-10 17:17:56.119889,245.0
2023-08-10 17:17:56.127579,218.0
2023-08-10 17:17:56.135269,178.0
2023-08-10 17:17:56.142960,133.0
2023-08-10 17:17:56.150650,71.0
2023-08-10 17:17:56.158340,-14.0
2023-08-10 17:17:56.166031,-78.0
2023-08-10 17:17:56.173721,-111.0
2023-08-10 17:17:56.181411,-152.0
2023-08-10 17:17:56.189102,-183.0
2023-08-10 17:17:56.196792,-188.0
2023-08-10 17:17:56.204482,-202.0
2023-08-10 17:17:56.212173,-214.0
2023-08-10 17:17:56.219863,-207.0
2023-08-10 17:17:56.227553,-214.0
2023-08-10 17:17:56.235244,-214.0
2023-08-10 17:17:56.242934,-197.0
2023-08-10 17:17:56.250624,-195.0
2023-08-10 17:17:56.258314,-195.0
2023-08-10 17:17:56.266005,-178.0
2023-08-10 17:17:56.273695,-171.0
2023-08-10 17:17:56.281385,-178.0
2023-08-10 17:17:56.289076,-164.0
2023-08-10 17:17:56.296766,-149.0
2023-08-10 17:17:56.304456,-154.0
2023-08-10 17:17:56.312147,-152.0
2023-08-10 17:17:56.319837,-140.0
2023-08-10 17:17:56.327527,-142.0
2023-08-10 17:17:56.335218,-149.0
2023-08-10 17:17:56.342908,-149.0
2023-08-10 17:17:56.350598,-147.0
2023-08-10 17:17:56.358288,-135.0
2023-08-10 17:17:56.365979,-128.0
2023-08-10 17:17:56.373669,-133.0
2023-08-10 17:17:56.381359,-138.0
2023-08-10 17:17:56.389050,-133.0
2023-08-10 17:17:56.396740,-123.0
2023-08-10 17:17:56.404430,-114.0
2023-08-10 17:17:56.412121,-119.0
2023-08-10 17:17:56.419811,-130.0
2023-08-10 17:17:56.427501,-126.0
2023-08-10 17:17:56.435192,-109.0
2023-08-10 17:17:56.442882,-102.0
2023-08-10 17:17:56.450572,-104.0
2023-08-10 17:17:56.458262,-109.0
2023-08-10 17:17:56.465953,-116.0
2023-08-10 17:17:56.473643,-119.0
2023-08-10 17:17:56.481333,-111.0
2023-08-10 17:17:56.489024,-111.0
2023-08-10 17:17:56.496714,-111.0
2023-08-10 17:17:56.504404,-107.0
2023-08-10 17:17:56.512095,-102.0
2023-08-10 17:17:56.519785,-99.0
2023-08-10 17:17:56.527475,-102.0
2023-08-10 17:17:56.535166,-97.0
2023-08-10 17:17:56.542856,-88.0
2023-08-10 17:17:56.550546,-92.0
2023-08-10 17:17:56.558237,-99.0
2023-08-10 17:17:56.565927,-95.0
2023-08-10 17:17:56.573617,-90.0
2023-08-10 17:17:56.581307,-85.0
2023-08-10 17:17:56.588998,-73.0
2023-08-10 17:17:56.596688,-61.0
2023-08-10 17:17:56.604378,-52.0
2023-08-10 17:17:56.612069,-42.0
2023-08-10 17:17:56.619759,-49.0
2023-08-10 17:17:56.627449,-59.0
2023-08-10 17:17:56.635140,-47.0
2023-08-10 17:17:56.642830,-47.0
2023-08-10 17:17:56.650520,-88.0
2023-08-10 17:17:56.658211,-107.0
2023-08-10 17:17:56.665901,-85.0
2023-08-10 17:17:56.673591,-78.0
2023-08-10 17:17:56.681281,-92.0
2023-08-10 17:17:56.688972,-95.0
2023-08-10 17:17:56.696662,-88.0
2023-08-10 17:17:56.704352,-80.0
2023-08-10 17:17:56.712043,-80.0
2023-08-10 17:17:56.719733,-88.0
2023-08-10 17:17:56.727423,-92.0
2023-08-10 17:17:56.735114,-40.0
2023-08-10 17:17:56.742804,178.0
2023-08-10 17:17:56.750494,535.0
2023-08-10 17:17:56.758185,785.0
2023-08-10 17:17:56.765875,664.0
2023-08-10 17:17:56.773565,130.0
2023-08-10 17:17:56.781256,-247.0
2023-08-10 17:17:56.788946,-97.0
2023-08-10 17:17:56.796636,33.0
2023-08-10 17:17:56.804326,-97.0
2023-08-10 17:17:56.812017,-128.0
2023-08-10 17:17:56.819707,-76.0
2023-08-10 17:17:56.827397,-102.0
2023-08-10 17:17:56.835088,-111.0
2023-08-10 17:17:56.842778,-80.0
2023-08-10 17:17:56.850468,-83.0
2023-08-10 17:17:56.858159,-92.0
2023-08-10 17:17:56.865849,-73.0
2023-08-10 17:17:56.873539,-54.0
2023-08-10 17:17:56.881230,-42.0
2023-08-10 17:17:56.888920,-23.0
2023-08-10 17:17:56.896610,-16.0
2023-08-10 17:17:56.904300,-23.0
2023-08-10 17:17:56.911991,-4.0
2023-08-10 17:17:56.919681,28.0
2023-08-10 17:17:56.927371,49.0
2023-08-10 17:17:56.935062,69.0
2023-08-10 17:17:56.942752,90.0
2023-08-10 17:17:56.950442,114.0
2023-08-10 17:17:56.958133,140.0
2023-08-10 17:17:56.965823,166.0
2023-08-10 17:17:56.973513,185.0
2023-08-10 17:17:56.981204,199.0
2023-08-10 17:17:56.988894,204.0
2023-08-10 17:17:56.996584,204.0
2023-08-10 17:17:57.004274,199.0
2023-08-10 17:17:57.011965,180.0
2023-08-10 17:17:57.019655,135.0
2023-08-10 17:17:57.027345,73.0
2023-08-10 17:17:57.035036,14.0
2023-08-10 17:17:57.042726,-47.0
2023-08-10 17:17:57.050416,-109.0
2023-08-10 17:17:57.058107,-157.0
2023-08-10 17:17:57.065797,-195.0
2023-08-10 17:17:57.073487,-218.0
2023-08-10 17:17:57.081178,-233.0
2023-08-10 17:17:57.088868,-242.0
2023-08-10 17:17:57.096558,-242.0
2023-08-10 17:17:57.104249,-240.0
2023-08-10 17:17:57.111939,-238.0
2023-08-10 17:17:57.119629,-230.0
2023-08-10 17:17:57.127319,-216.0
2023-08-10 17:17:57.135010,-207.0
2023-08-10 17:17:57.142700,-207.0
2023-08-10 17:17:57.150390,-202.0
2023-08-10 17:17:57.158081,-190.0
2023-08-10 17:17:57.165771,-183.0
2023-08-10 17:17:57.173461,-180.0
2023-08-10 17:17:57.181152,-180.0
2023-08-10 17:17:57.188842,-176.0
2023-08-10 17:17:57.196532,-171.0
2023-08-10 17:17:57.204223,-169.0
2023-08-10 17:17:57.211913,-171.0
2023-08-10 17:17:57.219603,-169.0
2023-08-10 17:17:57.227293,-164.0
2023-08-10 17:17:57.234984,-164.0
2023-08-10 17:17:57.242674,-166.0
2023-08-10 17:17:57.250364,-164.0
2023-08-10 17:17:57.258055,-161.0
2023-08-10 17:17:57.265745,-159.0
2023-08-10 17:17:57.273435,-157.0
2023-08-10 17:17:57.281126,-154.0
2023-08-10 17:17:57.288816,-157.0
2023-08-10 17:17:57.296506,-152.0
2023-08-10 17:17:57.304197,-149.0
2023-08-10 17:17:57.311887,-149.0
2023-08-10 17:17:57.319577,-147.0
2023-08-10 17:17:57.327268,-145.0
2023-08-10 17:17:57.334958,-147.0
2023-08-10 17:17:57.342648,-145.0
2023-08-10 17:17:57.350338,-142.0
2023-08-10 17:17:57.358029,-145.0
2023-08-10 17:17:57.365719,-145.0
2023-08-10 17:17:57.373409,-140.0
2023-08-10 17:17:57.381100,-138.0
2023-08-10 17:17:57.388790,-140.0
2023-08-10 17:17:57.396480,-138.0
2023-08-10 17:17:57.404171,-133.0
2023-08-10 17:17:57.411861,-128.0
2023-08-10 17:17:57.419551,-123.0
2023-08-10 17:17:57.427242,-121.0
2023-08-10 17:17:57.434932,-123.0
2023-08-10 17:17:57.442622,-121.0
2023-08-10 17:17:57.450312,-116.0
2023-08-10 17:17:57.458003,-116.0
2023-08-10 17:17:57.465693,-114.0
2023-08-10 17:17:57.473383,-92.0
2023-08-10 17:17:57.481074,-73.0
2023-08-10 17:17:57.488764,-69.0
2023-08-10 17:17:57.496454,-73.0
2023-08-10 17:17:57.504145,-85.0
2023-08-10 17:17:57.511835,-85.0
2023-08-10 17:17:57.519525,-66.0
2023-08-10 17:17:57.527216,-78.0
2023-08-10 17:17:57.534906,-111.0
2023-08-10 17:17:57.542596,-114.0
2023-08-10 17:17:57.550286,-99.0
2023-08-10 17:17:57.557977,-99.0
2023-08-10 17:17:57.565667,-95.0
2023-08-10 17:17:57.573357,-85.0
2023-08-10 17:17:57.581048,-90.0
2023-08-10 17:17:57.588738,-92.0
2023-08-10 17:17:57.596428,-88.0
2023-08-10 17:17:57.604119,-95.0
2023-08-10 17:17:57.611809,-80.0
2023-08-10 17:17:57.619499,49.0
2023-08-10 17:17:57.627190,380.0
2023-08-10 17:17:57.634880,790.0
2023-08-10 17:17:57.642570,930.0
2023-08-10 17:17:57.650261,499.0
2023-08-10 17:17:57.657951,-176.0
2023-08-10 17:17:57.665641,-271.0
2023-08-10 17:17:57.673331,33.0
2023-08-10 17:17:57.681022,0.0
2023-08-10 17:17:57.688712,-147.0
2023-08-10 17:17:57.696402,-95.0
2023-08-10 17:17:57.704093,-66.0
2023-08-10 17:17:57.711783,-111.0
2023-08-10 17:17:57.719473,-102.0
2023-08-10 17:17:57.727164,-76.0
2023-08-10 17:17:57.734854,-78.0
2023-08-10 17:17:57.742544,-69.0
2023-08-10 17:17:57.750235,-49.0
2023-08-10 17:17:57.757925,-42.0
2023-08-10 17:17:57.765615,-38.0
2023-08-10 17:17:57.773305,-23.0
2023-08-10 17:17:57.780996,-9.0
2023-08-10 17:17:57.788686,7.0
2023-08-10 17:17:57.796376,23.0
2023-08-10 17:17:57.804067,40.0
2023-08-10 17:17:57.811757,64.0
2023-08-10 17:17:57.819447,90.0
2023-08-10 17:17:57.827138,114.0
2023-08-10 17:17:57.834828,142.0
2023-08-10 17:17:57.842518,171.0
2023-08-10 17:17:57.850209,190.0
2023-08-10 17:17:57.857899,207.0
2023-08-10 17:17:57.865589,223.0
2023-08-10 17:17:57.873280,235.0
2023-08-10 17:17:57.880970,235.0
2023-08-10 17:17:57.888660,221.0
2023-08-10 17:17:57.896350,180.0
2023-08-10 17:17:57.904041,130.0
2023-08-10 17:17:57.911731,69.0
2023-08-10 17:17:57.919421,-4.0
2023-08-10 17:17:57.927112,-76.0
2023-08-10 17:17:57.934802,-130.0
2023-08-10 17:17:57.942492,-173.0
2023-08-10 17:17:57.950183,-207.0
2023-08-10 17:17:57.957873,-226.0
2023-08-10 17:17:57.965563,-238.0
2023-08-10 17:17:57.973254,-242.0
2023-08-10 17:17:57.980944,-247.0
2023-08-10 17:17:57.988634,-247.0
2023-08-10 17:17:57.996324,-242.0
2023-08-10 17:17:58.004015,-233.0
2023-08-10 17:17:58.011705,-221.0
2023-08-10 17:17:58.019395,-214.0
2023-08-10 17:17:58.027086,-211.0
2023-08-10 17:17:58.034776,-211.0
2023-08-10 17:17:58.042466,-202.0
2023-08-10 17:17:58.050157,-192.0
2023-08-10 17:17:58.057847,-192.0
2023-08-10 17:17:58.065537,-190.0
2023-08-10 17:17:58.073228,-178.0
2023-08-10 17:17:58.080918,-176.0
2023-08-10 17:17:58.088608,-178.0
2023-08-10 17:17:58.096298,-176.0
2023-08-10 17:17:58.103989,-169.0
2023-08-10 17:17:58.111679,-169.0
2023-08-10 17:17:58.119369,-169.0
2023-08-10 17:17:58.127060,-166.0
2023-08-10 17:17:58.134750,-161.0
2023-08-10 17:17:58.142440,-161.0
2023-08-10 17:17:58.150131,-157.0
2023-08-10 17:17:58.157821,-149.0
2023-08-10 17:17:58.165511,-147.0
2023-08-10 17:17:58.173202,-149.0
2023-08-10 17:17:58.180892,-147.0
2023-08-10 17:17:58.188582,-142.0
2023-08-10 17:17:58.196273,-140.0
2023-08-10 17:17:58.203963,-138.0
2023-08-10 17:17:58.211653,-135.0
2023-08-10 17:17:58.219343,-135.0
2023-08-10 17:17:58.227034,-128.0
2023-08-10 17:17:58.234724,-123.0
2023-08-10 17:17:58.242414,-121.0
2023-08-10 17:17:58.250105,-119.0
2023-08-10 17:17:58.257795,-119.0
2023-08-10 17:17:58.265485,-119.0
2023-08-10 17:17:58.273176,-116.0
2023-08-10 17:17:58.280866,-109.0
2023-08-10 17:17:58.288556,-104.0
2023-08-10 17:17:58.296247,-102.0
2023-08-10 17:17:58.303937,-95.0
2023-08-10 17:17:58.311627,-73.0
2023-08-10 17:17:58.319317,-52.0
2023-08-10 17:17:58.327008,-57.0
2023-08-10 17:17:58.334698,-78.0
2023-08-10 17:17:58.342388,-71.0
2023-08-10 17:17:58.350079,-64.0
2023-08-10 17:17:58.357769,-95.0
2023-08-10 17:17:58.365459,-109.0
2023-08-10 17:17:58.373150,-95.0
2023-08-10 17:17:58.380840,-92.0
2023-08-10 17:17:58.388530,-97.0
2023-08-10 17:17:58.396221,-95.0
2023-08-10 17:17:58.403911,-88.0
2023-08-10 17:17:58.411601,-85.0
2023-08-10 17:17:58.419292,-83.0
2023-08-10 17:17:58.426982,-83.0
2023-08-10 17:17:58.434672,-83.0
2023-08-10 17:17:58.442362,-23.0
2023-08-10 17:17:58.450053,230.0
2023-08-10 17:17:58.457743,649.0
2023-08-10 17:17:58.465433,966.0
2023-08-10 17:17:58.473124,818.0
2023-08-10 17:17:58.480814,157.0
2023-08-10 17:17:58.488504,-276.0
2023-08-10 17:17:58.496195,-78.0
2023-08-10 17:17:58.503885,47.0
2023-08-10 17:17:58.511575,-123.0
2023-08-10 17:17:58.519266,-149.0
2023-08-10 17:17:58.526956,-83.0
2023-08-10 17:17:58.534646,-116.0
2023-08-10 17:17:58.542336,-128.0
2023-08-10 17:17:58.550027,-92.0
2023-08-10 17:17:58.557717,-88.0
2023-08-10 17:17:58.565407,-90.0
2023-08-10 17:17:58.573098,-73.0
2023-08-10 17:17:58.580788,-61.0
2023-08-10 17:17:58.588478,-57.0
2023-08-10 17:17:58.596169,-42.0
2023-08-10 17:17:58.603859,-28.0
2023-08-10 17:17:58.611549,-19.0
2023-08-10 17:17:58.619240,0.0
2023-08-10 17:17:58.626930,21.0
2023-08-10 17:17:58.634620,40.0
2023-08-10 17:17:58.642310,64.0
2023-08-10 17:17:58.650001,88.0
2023-08-10 17:17:58.657691,109.0
2023-08-10 17:17:58.665381,135.0
2023-08-10 17:17:58.673072,161.0
2023-08-10 17:17:58.680762,180.0
2023-08-10 17:17:58.688452,192.0
2023-08-10 17:17:58.696143,202.0
2023-08-10 17:17:58.703833,204.0
2023-08-10 17:17:58.711523,192.0
2023-08-10 17:17:58.719214,169.0
2023-08-10 17:17:58.726904,123.0
2023-08-10 17:17:58.734594,61.0
2023-08-10 17:17:58.742285,-2.0
2023-08-10 17:17:58.749975,-66.0
2023-08-10 17:17:58.757665,-123.0
