time,ECG
2023-08-16 13:24:27.132061,-127.0
2023-08-16 13:24:27.139751,-129.0
2023-08-16 13:24:27.147440,-127.0
2023-08-16 13:24:27.155129,-125.0
2023-08-16 13:24:27.162819,-120.0
2023-08-16 13:24:27.170508,-117.0
2023-08-16 13:24:27.178198,-117.0
2023-08-16 13:24:27.185887,-115.0
2023-08-16 13:24:27.193577,-115.0
2023-08-16 13:24:27.201266,-115.0
2023-08-16 13:24:27.208956,-117.0
2023-08-16 13:24:27.216645,-122.0
2023-08-16 13:24:27.224335,-120.0
2023-08-16 13:24:27.232024,-101.0
2023-08-16 13:24:27.239714,-79.0
2023-08-16 13:24:27.247403,-67.0
2023-08-16 13:24:27.255093,-64.0
2023-08-16 13:24:27.262782,-69.0
2023-08-16 13:24:27.270472,-88.0
2023-08-16 13:24:27.278161,-108.0
2023-08-16 13:24:27.285850,-115.0
2023-08-16 13:24:27.293540,-110.0
2023-08-16 13:24:27.301229,-110.0
2023-08-16 13:24:27.308919,-110.0
2023-08-16 13:24:27.316608,-110.0
2023-08-16 13:24:27.324298,-110.0
2023-08-16 13:24:27.331987,-110.0
2023-08-16 13:24:27.339677,-105.0
2023-08-16 13:24:27.347366,21.0
2023-08-16 13:24:27.355056,440.0
2023-08-16 13:24:27.362745,1046.0
2023-08-16 13:24:27.370435,1300.0
2023-08-16 13:24:27.378124,721.0
2023-08-16 13:24:27.385814,-168.0
2023-08-16 13:24:27.393503,-396.0
2023-08-16 13:24:27.401193,-175.0
2023-08-16 13:24:27.408882,-180.0
2023-08-16 13:24:27.416572,-264.0
2023-08-16 13:24:27.424261,-206.0
2023-08-16 13:24:27.431950,-177.0
2023-08-16 13:24:27.439640,-202.0
2023-08-16 13:24:27.447329,-180.0
2023-08-16 13:24:27.455019,-158.0
2023-08-16 13:24:27.462708,-161.0
2023-08-16 13:24:27.470398,-153.0
2023-08-16 13:24:27.478087,-137.0
2023-08-16 13:24:27.485777,-129.0
2023-08-16 13:24:27.493466,-122.0
2023-08-16 13:24:27.501156,-110.0
2023-08-16 13:24:27.508845,-103.0
2023-08-16 13:24:27.516535,-96.0
2023-08-16 13:24:27.524224,-81.0
2023-08-16 13:24:27.531914,-67.0
2023-08-16 13:24:27.539603,-50.0
2023-08-16 13:24:27.547293,-33.0
2023-08-16 13:24:27.554982,-16.0
2023-08-16 13:24:27.562671,9.0
2023-08-16 13:24:27.570361,45.0
2023-08-16 13:24:27.578050,79.0
2023-08-16 13:24:27.585740,108.0
2023-08-16 13:24:27.593429,129.0
2023-08-16 13:24:27.601119,137.0
2023-08-16 13:24:27.608808,141.0
2023-08-16 13:24:27.616498,144.0
2023-08-16 13:24:27.624187,129.0
2023-08-16 13:24:27.631877,86.0
2023-08-16 13:24:27.639566,21.0
2023-08-16 13:24:27.647256,-52.0
2023-08-16 13:24:27.654945,-115.0
2023-08-16 13:24:27.662635,-161.0
2023-08-16 13:24:27.670324,-189.0
2023-08-16 13:24:27.678014,-204.0
2023-08-16 13:24:27.685703,-211.0
2023-08-16 13:24:27.693392,-209.0
2023-08-16 13:24:27.701082,-204.0
2023-08-16 13:24:27.708771,-197.0
2023-08-16 13:24:27.716461,-189.0
2023-08-16 13:24:27.724150,-180.0
2023-08-16 13:24:27.731840,-175.0
2023-08-16 13:24:27.739529,-170.0
2023-08-16 13:24:27.747219,-161.0
2023-08-16 13:24:27.754908,-153.0
2023-08-16 13:24:27.762598,-146.0
2023-08-16 13:24:27.770287,-144.0
2023-08-16 13:24:27.777977,-144.0
2023-08-16 13:24:27.785666,-141.0
2023-08-16 13:24:27.793356,-134.0
2023-08-16 13:24:27.801045,-132.0
2023-08-16 13:24:27.808735,-132.0
2023-08-16 13:24:27.816424,-132.0
2023-08-16 13:24:27.824114,-129.0
2023-08-16 13:24:27.831803,-129.0
2023-08-16 13:24:27.839492,-129.0
2023-08-16 13:24:27.847182,-127.0
2023-08-16 13:24:27.854871,-122.0
2023-08-16 13:24:27.862561,-122.0
2023-08-16 13:24:27.870250,-127.0
2023-08-16 13:24:27.877940,-127.0
2023-08-16 13:24:27.885629,-122.0
2023-08-16 13:24:27.893319,-117.0
2023-08-16 13:24:27.901008,-117.0
2023-08-16 13:24:27.908698,-120.0
2023-08-16 13:24:27.916387,-117.0
2023-08-16 13:24:27.924077,-117.0
2023-08-16 13:24:27.931766,-115.0
2023-08-16 13:24:27.939456,-110.0
2023-08-16 13:24:27.947145,-110.0
2023-08-16 13:24:27.954835,-110.0
2023-08-16 13:24:27.962524,-110.0
2023-08-16 13:24:27.970213,-110.0
2023-08-16 13:24:27.977903,-108.0
2023-08-16 13:24:27.985592,-105.0
2023-08-16 13:24:27.993282,-105.0
2023-08-16 13:24:28.000971,-105.0
2023-08-16 13:24:28.008661,-105.0
2023-08-16 13:24:28.016350,-110.0
2023-08-16 13:24:28.024040,-117.0
2023-08-16 13:24:28.031729,-110.0
2023-08-16 13:24:28.039419,-91.0
2023-08-16 13:24:28.047108,-72.0
2023-08-16 13:24:28.054798,-62.0
2023-08-16 13:24:28.062487,-55.0
2023-08-16 13:24:28.070177,-57.0
2023-08-16 13:24:28.077866,-72.0
2023-08-16 13:24:28.085556,-91.0
2023-08-16 13:24:28.093245,-108.0
2023-08-16 13:24:28.100935,-115.0
2023-08-16 13:24:28.108624,-115.0
2023-08-16 13:24:28.116313,-120.0
2023-08-16 13:24:28.124003,-117.0
2023-08-16 13:24:28.131692,-110.0
2023-08-16 13:24:28.139382,-108.0
2023-08-16 13:24:28.147071,-110.0
2023-08-16 13:24:28.154761,-36.0
2023-08-16 13:24:28.162450,288.0
2023-08-16 13:24:28.170140,860.0
2023-08-16 13:24:28.177829,1281.0
2023-08-16 13:24:28.185519,959.0
2023-08-16 13:24:28.193208,60.0
2023-08-16 13:24:28.200898,-394.0
2023-08-16 13:24:28.208587,-216.0
2023-08-16 13:24:28.216277,-144.0
2023-08-16 13:24:28.223966,-252.0
2023-08-16 13:24:28.231656,-223.0
2023-08-16 13:24:28.239345,-168.0
2023-08-16 13:24:28.247034,-192.0
2023-08-16 13:24:28.254724,-187.0
2023-08-16 13:24:28.262413,-156.0
2023-08-16 13:24:28.270103,-156.0
2023-08-16 13:24:28.277792,-158.0
2023-08-16 13:24:28.285482,-144.0
2023-08-16 13:24:28.293171,-129.0
2023-08-16 13:24:28.300861,-125.0
2023-08-16 13:24:28.308550,-117.0
2023-08-16 13:24:28.316240,-108.0
2023-08-16 13:24:28.323929,-101.0
2023-08-16 13:24:28.331619,-86.0
2023-08-16 13:24:28.339308,-72.0
2023-08-16 13:24:28.346998,-60.0
2023-08-16 13:24:28.354687,-40.0
2023-08-16 13:24:28.362377,-16.0
2023-08-16 13:24:28.370066,12.0
2023-08-16 13:24:28.377755,43.0
2023-08-16 13:24:28.385445,76.0
2023-08-16 13:24:28.393134,105.0
2023-08-16 13:24:28.400824,132.0
2023-08-16 13:24:28.408513,149.0
2023-08-16 13:24:28.416203,161.0
2023-08-16 13:24:28.423892,168.0
2023-08-16 13:24:28.431582,163.0
2023-08-16 13:24:28.439271,137.0
2023-08-16 13:24:28.446961,84.0
2023-08-16 13:24:28.454650,14.0
2023-08-16 13:24:28.462340,-55.0
2023-08-16 13:24:28.470029,-110.0
2023-08-16 13:24:28.477719,-153.0
2023-08-16 13:24:28.485408,-182.0
2023-08-16 13:24:28.493098,-197.0
2023-08-16 13:24:28.500787,-197.0
2023-08-16 13:24:28.508477,-189.0
2023-08-16 13:24:28.516166,-180.0
2023-08-16 13:24:28.523855,-175.0
2023-08-16 13:24:28.531545,-170.0
2023-08-16 13:24:28.539234,-168.0
2023-08-16 13:24:28.546924,-163.0
2023-08-16 13:24:28.554613,-156.0
2023-08-16 13:24:28.562303,-149.0
2023-08-16 13:24:28.569992,-146.0
2023-08-16 13:24:28.577682,-139.0
2023-08-16 13:24:28.585371,-127.0
2023-08-16 13:24:28.593061,-127.0
2023-08-16 13:24:28.600750,-132.0
2023-08-16 13:24:28.608440,-132.0
2023-08-16 13:24:28.616129,-132.0
2023-08-16 13:24:28.623819,-132.0
2023-08-16 13:24:28.631508,-139.0
2023-08-16 13:24:28.639198,-146.0
2023-08-16 13:24:28.646887,-141.0
2023-08-16 13:24:28.654576,-134.0
2023-08-16 13:24:28.662266,-139.0
2023-08-16 13:24:28.669955,-141.0
2023-08-16 13:24:28.677645,-137.0
2023-08-16 13:24:28.685334,-129.0
2023-08-16 13:24:28.693024,-127.0
2023-08-16 13:24:28.700713,-127.0
2023-08-16 13:24:28.708403,-127.0
2023-08-16 13:24:28.716092,-129.0
2023-08-16 13:24:28.723782,-127.0
2023-08-16 13:24:28.731471,-122.0
2023-08-16 13:24:28.739161,-120.0
2023-08-16 13:24:28.746850,-117.0
2023-08-16 13:24:28.754540,-115.0
2023-08-16 13:24:28.762229,-115.0
2023-08-16 13:24:28.769919,-113.0
2023-08-16 13:24:28.777608,-115.0
2023-08-16 13:24:28.785298,-120.0
2023-08-16 13:24:28.792987,-120.0
2023-08-16 13:24:28.800676,-115.0
2023-08-16 13:24:28.808366,-115.0
2023-08-16 13:24:28.816055,-117.0
2023-08-16 13:24:28.823745,-120.0
2023-08-16 13:24:28.831434,-117.0
2023-08-16 13:24:28.839124,-113.0
2023-08-16 13:24:28.846813,-115.0
2023-08-16 13:24:28.854503,-117.0
2023-08-16 13:24:28.862192,-115.0
2023-08-16 13:24:28.869882,-113.0
2023-08-16 13:24:28.877571,-115.0
2023-08-16 13:24:28.885261,-117.0
2023-08-16 13:24:28.892950,-110.0
2023-08-16 13:24:28.900640,-93.0
2023-08-16 13:24:28.908329,-72.0
2023-08-16 13:24:28.916019,-57.0
2023-08-16 13:24:28.923708,-72.0
2023-08-16 13:24:28.931397,-96.0
2023-08-16 13:24:28.939087,-101.0
2023-08-16 13:24:28.946776,-103.0
2023-08-16 13:24:28.954466,-103.0
2023-08-16 13:24:28.962155,-101.0
2023-08-16 13:24:28.969845,-93.0
2023-08-16 13:24:28.977534,-88.0
2023-08-16 13:24:28.985224,-91.0
2023-08-16 13:24:28.992913,-93.0
2023-08-16 13:24:29.000603,19.0
2023-08-16 13:24:29.008292,401.0
2023-08-16 13:24:29.015982,971.0
2023-08-16 13:24:29.023671,1250.0
2023-08-16 13:24:29.031361,740.0
2023-08-16 13:24:29.039050,-122.0
2023-08-16 13:24:29.046740,-367.0
2023-08-16 13:24:29.054429,-146.0
2023-08-16 13:24:29.062118,-146.0
2023-08-16 13:24:29.069808,-235.0
2023-08-16 13:24:29.077497,-177.0
2023-08-16 13:24:29.085187,-151.0
2023-08-16 13:24:29.092876,-180.0
2023-08-16 13:24:29.100566,-165.0
2023-08-16 13:24:29.108255,-141.0
2023-08-16 13:24:29.115945,-139.0
2023-08-16 13:24:29.123634,-134.0
2023-08-16 13:24:29.131324,-122.0
2023-08-16 13:24:29.139013,-115.0
2023-08-16 13:24:29.146703,-105.0
2023-08-16 13:24:29.154392,-93.0
2023-08-16 13:24:29.162082,-86.0
2023-08-16 13:24:29.169771,-79.0
2023-08-16 13:24:29.177461,-69.0
2023-08-16 13:24:29.185150,-55.0
2023-08-16 13:24:29.192840,-38.0
2023-08-16 13:24:29.200529,-16.0
2023-08-16 13:24:29.208218,7.0
2023-08-16 13:24:29.215908,31.0
2023-08-16 13:24:29.223597,60.0
2023-08-16 13:24:29.231287,91.0
2023-08-16 13:24:29.238976,122.0
2023-08-16 13:24:29.246666,141.0
2023-08-16 13:24:29.254355,158.0
2023-08-16 13:24:29.262045,163.0
2023-08-16 13:24:29.269734,156.0
2023-08-16 13:24:29.277424,149.0
2023-08-16 13:24:29.285113,120.0
2023-08-16 13:24:29.292803,57.0
2023-08-16 13:24:29.300492,-12.0
2023-08-16 13:24:29.308182,-81.0
2023-08-16 13:24:29.315871,-146.0
2023-08-16 13:24:29.323561,-185.0
2023-08-16 13:24:29.331250,-204.0
2023-08-16 13:24:29.338939,-216.0
2023-08-16 13:24:29.346629,-223.0
2023-08-16 13:24:29.354318,-221.0
2023-08-16 13:24:29.362008,-211.0
2023-08-16 13:24:29.369697,-202.0
2023-08-16 13:24:29.377387,-194.0
2023-08-16 13:24:29.385076,-189.0
2023-08-16 13:24:29.392766,-182.0
2023-08-16 13:24:29.400455,-177.0
2023-08-16 13:24:29.408145,-173.0
2023-08-16 13:24:29.415834,-165.0
2023-08-16 13:24:29.423524,-158.0
2023-08-16 13:24:29.431213,-153.0
2023-08-16 13:24:29.438903,-151.0
2023-08-16 13:24:29.446592,-151.0
2023-08-16 13:24:29.454282,-151.0
2023-08-16 13:24:29.461971,-149.0
2023-08-16 13:24:29.469660,-144.0
2023-08-16 13:24:29.477350,-141.0
2023-08-16 13:24:29.485039,-144.0
2023-08-16 13:24:29.492729,-146.0
2023-08-16 13:24:29.500418,-146.0
2023-08-16 13:24:29.508108,-144.0
2023-08-16 13:24:29.515797,-144.0
2023-08-16 13:24:29.523487,-144.0
2023-08-16 13:24:29.531176,-144.0
2023-08-16 13:24:29.538866,-144.0
2023-08-16 13:24:29.546555,-141.0
2023-08-16 13:24:29.554245,-139.0
2023-08-16 13:24:29.561934,-137.0
2023-08-16 13:24:29.569624,-134.0
2023-08-16 13:24:29.577313,-132.0
2023-08-16 13:24:29.585003,-134.0
2023-08-16 13:24:29.592692,-134.0
2023-08-16 13:24:29.600382,-132.0
2023-08-16 13:24:29.608071,-129.0
2023-08-16 13:24:29.615760,-127.0
2023-08-16 13:24:29.623450,-127.0
2023-08-16 13:24:29.631139,-122.0
2023-08-16 13:24:29.638829,-117.0
2023-08-16 13:24:29.646518,-115.0
2023-08-16 13:24:29.654208,-115.0
2023-08-16 13:24:29.661897,-120.0
2023-08-16 13:24:29.669587,-122.0
2023-08-16 13:24:29.677276,-110.0
2023-08-16 13:24:29.684966,-88.0
2023-08-16 13:24:29.692655,-67.0
2023-08-16 13:24:29.700345,-62.0
2023-08-16 13:24:29.708034,-81.0
2023-08-16 13:24:29.715724,-103.0
2023-08-16 13:24:29.723413,-103.0
2023-08-16 13:24:29.731103,-101.0
2023-08-16 13:24:29.738792,-103.0
2023-08-16 13:24:29.746481,-98.0
2023-08-16 13:24:29.754171,-93.0
2023-08-16 13:24:29.761860,-93.0
2023-08-16 13:24:29.769550,-96.0
2023-08-16 13:24:29.777239,-36.0
2023-08-16 13:24:29.784929,259.0
2023-08-16 13:24:29.792618,810.0
2023-08-16 13:24:29.800308,1209.0
2023-08-16 13:24:29.807997,882.0
2023-08-16 13:24:29.815687,4.0
2023-08-16 13:24:29.823376,-418.0
2023-08-16 13:24:29.831066,-218.0
2023-08-16 13:24:29.838755,-141.0
2023-08-16 13:24:29.846445,-247.0
2023-08-16 13:24:29.854134,-214.0
2023-08-16 13:24:29.861824,-158.0
2023-08-16 13:24:29.869513,-182.0
2023-08-16 13:24:29.877203,-175.0
2023-08-16 13:24:29.884892,-146.0
2023-08-16 13:24:29.892581,-146.0
2023-08-16 13:24:29.900271,-141.0
2023-08-16 13:24:29.907960,-122.0
2023-08-16 13:24:29.915650,-115.0
2023-08-16 13:24:29.923339,-108.0
2023-08-16 13:24:29.931029,-93.0
2023-08-16 13:24:29.938718,-84.0
2023-08-16 13:24:29.946408,-76.0
2023-08-16 13:24:29.954097,-64.0
2023-08-16 13:24:29.961787,-50.0
2023-08-16 13:24:29.969476,-36.0
2023-08-16 13:24:29.977166,-16.0
2023-08-16 13:24:29.984855,4.0
2023-08-16 13:24:29.992545,31.0
2023-08-16 13:24:30.000234,60.0
2023-08-16 13:24:30.007924,88.0
2023-08-16 13:24:30.015613,117.0
2023-08-16 13:24:30.023302,139.0
2023-08-16 13:24:30.030992,151.0
2023-08-16 13:24:30.038681,158.0
2023-08-16 13:24:30.046371,163.0
2023-08-16 13:24:30.054060,156.0
2023-08-16 13:24:30.061750,129.0
2023-08-16 13:24:30.069439,79.0
2023-08-16 13:24:30.077129,12.0
2023-08-16 13:24:30.084818,-57.0
2023-08-16 13:24:30.092508,-113.0
2023-08-16 13:24:30.100197,-149.0
2023-08-16 13:24:30.107887,-170.0
2023-08-16 13:24:30.115576,-180.0
2023-08-16 13:24:30.123266,-182.0
2023-08-16 13:24:30.130955,-177.0
2023-08-16 13:24:30.138645,-175.0
2023-08-16 13:24:30.146334,-170.0
2023-08-16 13:24:30.154023,-158.0
2023-08-16 13:24:30.161713,-151.0
2023-08-16 13:24:30.169402,-146.0
2023-08-16 13:24:30.177092,-139.0
2023-08-16 13:24:30.184781,-132.0
2023-08-16 13:24:30.192471,-127.0
2023-08-16 13:24:30.200160,-122.0
2023-08-16 13:24:30.207850,-117.0
2023-08-16 13:24:30.215539,-117.0
2023-08-16 13:24:30.223229,-117.0
2023-08-16 13:24:30.230918,-117.0
2023-08-16 13:24:30.238608,-120.0
2023-08-16 13:24:30.246297,-122.0
2023-08-16 13:24:30.253987,-122.0
2023-08-16 13:24:30.261676,-122.0
2023-08-16 13:24:30.269366,-122.0
2023-08-16 13:24:30.277055,-122.0
2023-08-16 13:24:30.284745,-122.0
2023-08-16 13:24:30.292434,-125.0
2023-08-16 13:24:30.300123,-129.0
2023-08-16 13:24:30.307813,-129.0
2023-08-16 13:24:30.315502,-127.0
2023-08-16 13:24:30.323192,-125.0
2023-08-16 13:24:30.330881,-129.0
2023-08-16 13:24:30.338571,-134.0
2023-08-16 13:24:30.346260,-137.0
2023-08-16 13:24:30.353950,-134.0
2023-08-16 13:24:30.361639,-129.0
2023-08-16 13:24:30.369329,-127.0
2023-08-16 13:24:30.377018,-127.0
2023-08-16 13:24:30.384708,-127.0
2023-08-16 13:24:30.392397,-129.0
2023-08-16 13:24:30.400087,-134.0
2023-08-16 13:24:30.407776,-125.0
2023-08-16 13:24:30.415466,-103.0
2023-08-16 13:24:30.423155,-84.0
2023-08-16 13:24:30.430844,-74.0
2023-08-16 13:24:30.438534,-67.0
2023-08-16 13:24:30.446223,-69.0
2023-08-16 13:24:30.453913,-84.0
2023-08-16 13:24:30.461602,-103.0
2023-08-16 13:24:30.469292,-108.0
2023-08-16 13:24:30.476981,-108.0
2023-08-16 13:24:30.484671,-105.0
2023-08-16 13:24:30.492360,-101.0
2023-08-16 13:24:30.500050,-96.0
2023-08-16 13:24:30.507739,-93.0
2023-08-16 13:24:30.515429,-98.0
2023-08-16 13:24:30.523118,-69.0
2023-08-16 13:24:30.530808,158.0
2023-08-16 13:24:30.538497,673.0
2023-08-16 13:24:30.546187,1168.0
2023-08-16 13:24:30.553876,1036.0
2023-08-16 13:24:30.561565,199.0
2023-08-16 13:24:30.569255,-387.0
2023-08-16 13:24:30.576944,-254.0
2023-08-16 13:24:30.584634,-108.0
2023-08-16 13:24:30.592323,-206.0
2023-08-16 13:24:30.600013,-204.0
2023-08-16 13:24:30.607702,-141.0
2023-08-16 13:24:30.615392,-158.0
2023-08-16 13:24:30.623081,-161.0
2023-08-16 13:24:30.630771,-129.0
2023-08-16 13:24:30.638460,-122.0
2023-08-16 13:24:30.646150,-122.0
2023-08-16 13:24:30.653839,-110.0
2023-08-16 13:24:30.661529,-98.0
2023-08-16 13:24:30.669218,-88.0
2023-08-16 13:24:30.676908,-79.0
2023-08-16 13:24:30.684597,-69.0
2023-08-16 13:24:30.692287,-62.0
2023-08-16 13:24:30.699976,-52.0
2023-08-16 13:24:30.707665,-43.0
2023-08-16 13:24:30.715355,-26.0
2023-08-16 13:24:30.723044,-4.0
2023-08-16 13:24:30.730734,14.0
2023-08-16 13:24:30.738423,38.0
2023-08-16 13:24:30.746113,62.0
2023-08-16 13:24:30.753802,91.0
2023-08-16 13:24:30.761492,120.0
2023-08-16 13:24:30.769181,141.0
2023-08-16 13:24:30.776871,153.0
2023-08-16 13:24:30.784560,163.0
2023-08-16 13:24:30.792250,165.0
2023-08-16 13:24:30.799939,156.0
2023-08-16 13:24:30.807629,132.0
2023-08-16 13:24:30.815318,88.0
2023-08-16 13:24:30.823008,24.0
2023-08-16 13:24:30.830697,-43.0
2023-08-16 13:24:30.838386,-98.0
2023-08-16 13:24:30.846076,-137.0
2023-08-16 13:24:30.853765,-161.0
2023-08-16 13:24:30.861455,-173.0
2023-08-16 13:24:30.869144,-175.0
2023-08-16 13:24:30.876834,-180.0
2023-08-16 13:24:30.884523,-185.0
2023-08-16 13:24:30.892213,-182.0
2023-08-16 13:24:30.899902,-168.0
2023-08-16 13:24:30.907592,-161.0
2023-08-16 13:24:30.915281,-153.0
2023-08-16 13:24:30.922971,-146.0
2023-08-16 13:24:30.930660,-141.0
2023-08-16 13:24:30.938350,-137.0
2023-08-16 13:24:30.946039,-129.0
2023-08-16 13:24:30.953729,-125.0
2023-08-16 13:24:30.961418,-122.0
2023-08-16 13:24:30.969108,-127.0
2023-08-16 13:24:30.976797,-132.0
2023-08-16 13:24:30.984486,-129.0
2023-08-16 13:24:30.992176,-129.0
2023-08-16 13:24:30.999865,-127.0
2023-08-16 13:24:31.007555,-127.0
2023-08-16 13:24:31.015244,-129.0
2023-08-16 13:24:31.022934,-134.0
2023-08-16 13:24:31.030623,-129.0
2023-08-16 13:24:31.038313,-127.0
2023-08-16 13:24:31.046002,-127.0
2023-08-16 13:24:31.053692,-125.0
2023-08-16 13:24:31.061381,-125.0
2023-08-16 13:24:31.069071,-125.0
2023-08-16 13:24:31.076760,-125.0
2023-08-16 13:24:31.084450,-120.0
2023-08-16 13:24:31.092139,-117.0
2023-08-16 13:24:31.099829,-117.0
2023-08-16 13:24:31.107518,-117.0
2023-08-16 13:24:31.115207,-120.0
2023-08-16 13:24:31.122897,-125.0
2023-08-16 13:24:31.130586,-125.0
2023-08-16 13:24:31.138276,-110.0
2023-08-16 13:24:31.145965,-86.0
2023-08-16 13:24:31.153655,-72.0
2023-08-16 13:24:31.161344,-64.0
2023-08-16 13:24:31.169034,-60.0
2023-08-16 13:24:31.176723,-69.0
2023-08-16 13:24:31.184413,-91.0
2023-08-16 13:24:31.192102,-103.0
2023-08-16 13:24:31.199792,-103.0
2023-08-16 13:24:31.207481,-101.0
2023-08-16 13:24:31.215171,-101.0
2023-08-16 13:24:31.222860,-96.0
2023-08-16 13:24:31.230550,-93.0
2023-08-16 13:24:31.238239,-93.0
2023-08-16 13:24:31.245928,-98.0
2023-08-16 13:24:31.253618,-40.0
2023-08-16 13:24:31.261307,252.0
2023-08-16 13:24:31.268997,800.0
2023-08-16 13:24:31.276686,1192.0
2023-08-16 13:24:31.284376,853.0
2023-08-16 13:24:31.292065,-16.0
2023-08-16 13:24:31.299755,-411.0
2023-08-16 13:24:31.307444,-202.0
2023-08-16 13:24:31.315134,-134.0
2023-08-16 13:24:31.322823,-235.0
2023-08-16 13:24:31.330513,-194.0
2023-08-16 13:24:31.338202,-146.0
2023-08-16 13:24:31.345892,-173.0
2023-08-16 13:24:31.353581,-163.0
2023-08-16 13:24:31.361271,-134.0
2023-08-16 13:24:31.368960,-134.0
2023-08-16 13:24:31.376650,-132.0
2023-08-16 13:24:31.384339,-115.0
2023-08-16 13:24:31.392028,-108.0
2023-08-16 13:24:31.399718,-101.0
2023-08-16 13:24:31.407407,-88.0
2023-08-16 13:24:31.415097,-76.0
2023-08-16 13:24:31.422786,-69.0
2023-08-16 13:24:31.430476,-60.0
2023-08-16 13:24:31.438165,-48.0
2023-08-16 13:24:31.445855,-33.0
2023-08-16 13:24:31.453544,-14.0
2023-08-16 13:24:31.461234,4.0
2023-08-16 13:24:31.468923,19.0
2023-08-16 13:24:31.476613,40.0
2023-08-16 13:24:31.484302,72.0
2023-08-16 13:24:31.491992,98.0
2023-08-16 13:24:31.499681,113.0
2023-08-16 13:24:31.507371,125.0
2023-08-16 13:24:31.515060,132.0
2023-08-16 13:24:31.522749,134.0
2023-08-16 13:24:31.530439,129.0
2023-08-16 13:24:31.538128,108.0
2023-08-16 13:24:31.545818,62.0
2023-08-16 13:24:31.553507,2.0
2023-08-16 13:24:31.561197,-57.0
2023-08-16 13:24:31.568886,-110.0
2023-08-16 13:24:31.576576,-144.0
2023-08-16 13:24:31.584265,-161.0
2023-08-16 13:24:31.591955,-170.0
2023-08-16 13:24:31.599644,-175.0
2023-08-16 13:24:31.607334,-175.0
2023-08-16 13:24:31.615023,-170.0
2023-08-16 13:24:31.622713,-163.0
2023-08-16 13:24:31.630402,-156.0
2023-08-16 13:24:31.638092,-149.0
2023-08-16 13:24:31.645781,-141.0
2023-08-16 13:24:31.653471,-134.0
2023-08-16 13:24:31.661160,-127.0
2023-08-16 13:24:31.668849,-122.0
2023-08-16 13:24:31.676539,-117.0
2023-08-16 13:24:31.684228,-117.0
2023-08-16 13:24:31.691918,-115.0
2023-08-16 13:24:31.699607,-115.0
2023-08-16 13:24:31.707297,-113.0
2023-08-16 13:24:31.714986,-113.0
2023-08-16 13:24:31.722676,-113.0
2023-08-16 13:24:31.730365,-113.0
2023-08-16 13:24:31.738055,-113.0
2023-08-16 13:24:31.745744,-113.0
2023-08-16 13:24:31.753434,-110.0
2023-08-16 13:24:31.761123,-110.0
2023-08-16 13:24:31.768813,-110.0
2023-08-16 13:24:31.776502,-110.0
2023-08-16 13:24:31.784192,-113.0
2023-08-16 13:24:31.791881,-115.0
2023-08-16 13:24:31.799570,-115.0
2023-08-16 13:24:31.807260,-120.0
2023-08-16 13:24:31.814949,-122.0
2023-08-16 13:24:31.822639,-117.0
2023-08-16 13:24:31.830328,-115.0
2023-08-16 13:24:31.838018,-113.0
2023-08-16 13:24:31.845707,-113.0
2023-08-16 13:24:31.853397,-110.0
2023-08-16 13:24:31.861086,-110.0
2023-08-16 13:24:31.868776,-110.0
2023-08-16 13:24:31.876465,-117.0
2023-08-16 13:24:31.884155,-120.0
2023-08-16 13:24:31.891844,-115.0
2023-08-16 13:24:31.899534,-98.0
2023-08-16 13:24:31.907223,-79.0
2023-08-16 13:24:31.914913,-62.0
2023-08-16 13:24:31.922602,-57.0
2023-08-16 13:24:31.930291,-57.0
2023-08-16 13:24:31.937981,-72.0
2023-08-16 13:24:31.945670,-93.0
2023-08-16 13:24:31.953360,-101.0
2023-08-16 13:24:31.961049,-98.0
2023-08-16 13:24:31.968739,-96.0
2023-08-16 13:24:31.976428,-96.0
2023-08-16 13:24:31.984118,-91.0
2023-08-16 13:24:31.991807,-88.0
2023-08-16 13:24:31.999497,-91.0
2023-08-16 13:24:32.007186,-86.0
2023-08-16 13:24:32.014876,28.0
2023-08-16 13:24:32.022565,411.0
2023-08-16 13:24:32.030255,957.0
2023-08-16 13:24:32.037944,1154.0
2023-08-16 13:24:32.045634,567.0
2023-08-16 13:24:32.053323,-235.0
2023-08-16 13:24:32.061013,-360.0
2023-08-16 13:24:32.068702,-127.0
2023-08-16 13:24:32.076391,-153.0
2023-08-16 13:24:32.084081,-226.0
2023-08-16 13:24:32.091770,-158.0
2023-08-16 13:24:32.099460,-146.0
2023-08-16 13:24:32.107149,-175.0
2023-08-16 13:24:32.114839,-149.0
2023-08-16 13:24:32.122528,-127.0
2023-08-16 13:24:32.130218,-134.0
2023-08-16 13:24:32.137907,-122.0
2023-08-16 13:24:32.145597,-108.0
2023-08-16 13:24:32.153286,-103.0
2023-08-16 13:24:32.160976,-98.0
2023-08-16 13:24:32.168665,-86.0
2023-08-16 13:24:32.176355,-76.0
2023-08-16 13:24:32.184044,-64.0
2023-08-16 13:24:32.191734,-52.0
2023-08-16 13:24:32.199423,-40.0
2023-08-16 13:24:32.207112,-24.0
2023-08-16 13:24:32.214802,-4.0
2023-08-16 13:24:32.222491,16.0
2023-08-16 13:24:32.230181,38.0
2023-08-16 13:24:32.237870,62.0
2023-08-16 13:24:32.245560,88.0
2023-08-16 13:24:32.253249,110.0
2023-08-16 13:24:32.260939,122.0
2023-08-16 13:24:32.268628,132.0
2023-08-16 13:24:32.276318,137.0
2023-08-16 13:24:32.284007,137.0
2023-08-16 13:24:32.291697,132.0
2023-08-16 13:24:32.299386,105.0
2023-08-16 13:24:32.307076,50.0
2023-08-16 13:24:32.314765,-12.0
2023-08-16 13:24:32.322455,-67.0
2023-08-16 13:24:32.330144,-113.0
2023-08-16 13:24:32.337833,-146.0
2023-08-16 13:24:32.345523,-163.0
2023-08-16 13:24:32.353212,-173.0
2023-08-16 13:24:32.360902,-173.0
2023-08-16 13:24:32.368591,-170.0
2023-08-16 13:24:32.376281,-165.0
2023-08-16 13:24:32.383970,-156.0
2023-08-16 13:24:32.391660,-146.0
2023-08-16 13:24:32.399349,-139.0
2023-08-16 13:24:32.407039,-134.0
2023-08-16 13:24:32.414728,-127.0
2023-08-16 13:24:32.422418,-120.0
2023-08-16 13:24:32.430107,-115.0
2023-08-16 13:24:32.437797,-113.0
2023-08-16 13:24:32.445486,-110.0
2023-08-16 13:24:32.453176,-115.0
2023-08-16 13:24:32.460865,-120.0
2023-08-16 13:24:32.468555,-117.0
2023-08-16 13:24:32.476244,-115.0
2023-08-16 13:24:32.483933,-115.0
2023-08-16 13:24:32.491623,-117.0
2023-08-16 13:24:32.499312,-117.0
2023-08-16 13:24:32.507002,-117.0
2023-08-16 13:24:32.514691,-115.0
2023-08-16 13:24:32.522381,-113.0
2023-08-16 13:24:32.530070,-113.0
2023-08-16 13:24:32.537760,-113.0
2023-08-16 13:24:32.545449,-113.0
2023-08-16 13:24:32.553139,-115.0
2023-08-16 13:24:32.560828,-110.0
2023-08-16 13:24:32.568518,-108.0
2023-08-16 13:24:32.576207,-105.0
2023-08-16 13:24:32.583897,-108.0
2023-08-16 13:24:32.591586,-113.0
2023-08-16 13:24:32.599276,-117.0
2023-08-16 13:24:32.606965,-115.0
2023-08-16 13:24:32.614654,-113.0
2023-08-16 13:24:32.622344,-122.0
2023-08-16 13:24:32.630033,-127.0
2023-08-16 13:24:32.637723,-117.0
2023-08-16 13:24:32.645412,-101.0
2023-08-16 13:24:32.653102,-81.0
2023-08-16 13:24:32.660791,-69.0
2023-08-16 13:24:32.668481,-67.0
2023-08-16 13:24:32.676170,-79.0
2023-08-16 13:24:32.683860,-101.0
2023-08-16 13:24:32.691549,-115.0
2023-08-16 13:24:32.699239,-113.0
2023-08-16 13:24:32.706928,-110.0
2023-08-16 13:24:32.714618,-110.0
2023-08-16 13:24:32.722307,-108.0
2023-08-16 13:24:32.729997,-105.0
2023-08-16 13:24:32.737686,-101.0
2023-08-16 13:24:32.745376,-103.0
2023-08-16 13:24:32.753065,-62.0
2023-08-16 13:24:32.760754,189.0
2023-08-16 13:24:32.768444,707.0
2023-08-16 13:24:32.776133,1137.0
2023-08-16 13:24:32.783823,901.0
2023-08-16 13:24:32.791512,62.0
2023-08-16 13:24:32.799202,-406.0
2023-08-16 13:24:32.806891,-226.0
2023-08-16 13:24:32.814581,-127.0
2023-08-16 13:24:32.822270,-233.0
2023-08-16 13:24:32.829960,-204.0
2023-08-16 13:24:32.837649,-144.0
2023-08-16 13:24:32.845339,-168.0
2023-08-16 13:24:32.853028,-165.0
2023-08-16 13:24:32.860718,-134.0
2023-08-16 13:24:32.868407,-134.0
2023-08-16 13:24:32.876097,-132.0
2023-08-16 13:24:32.883786,-113.0
2023-08-16 13:24:32.891475,-103.0
2023-08-16 13:24:32.899165,-98.0
2023-08-16 13:24:32.906854,-91.0
2023-08-16 13:24:32.914544,-81.0
2023-08-16 13:24:32.922233,-72.0
2023-08-16 13:24:32.929923,-60.0
2023-08-16 13:24:32.937612,-48.0
2023-08-16 13:24:32.945302,-31.0
2023-08-16 13:24:32.952991,-14.0
2023-08-16 13:24:32.960681,2.0
2023-08-16 13:24:32.968370,26.0
2023-08-16 13:24:32.976060,55.0
2023-08-16 13:24:32.983749,79.0
2023-08-16 13:24:32.991439,101.0
2023-08-16 13:24:32.999128,117.0
2023-08-16 13:24:33.006818,127.0
2023-08-16 13:24:33.014507,134.0
2023-08-16 13:24:33.022196,139.0
2023-08-16 13:24:33.029886,134.0
2023-08-16 13:24:33.037575,113.0
2023-08-16 13:24:33.045265,72.0
2023-08-16 13:24:33.052954,16.0
2023-08-16 13:24:33.060644,-38.0
2023-08-16 13:24:33.068333,-88.0
2023-08-16 13:24:33.076023,-125.0
2023-08-16 13:24:33.083712,-146.0
2023-08-16 13:24:33.091402,-161.0
2023-08-16 13:24:33.099091,-163.0
2023-08-16 13:24:33.106781,-158.0
2023-08-16 13:24:33.114470,-153.0
2023-08-16 13:24:33.122160,-149.0
2023-08-16 13:24:33.129849,-141.0
2023-08-16 13:24:33.137539,-134.0
2023-08-16 13:24:33.145228,-125.0
2023-08-16 13:24:33.152918,-117.0
2023-08-16 13:24:33.160607,-113.0
2023-08-16 13:24:33.168296,-110.0
2023-08-16 13:24:33.175986,-115.0
2023-08-16 13:24:33.183675,-120.0
2023-08-16 13:24:33.191365,-120.0
2023-08-16 13:24:33.199054,-115.0
2023-08-16 13:24:33.206744,-115.0
2023-08-16 13:24:33.214433,-115.0
2023-08-16 13:24:33.222123,-115.0
2023-08-16 13:24:33.229812,-117.0
2023-08-16 13:24:33.237502,-120.0
2023-08-16 13:24:33.245191,-117.0
2023-08-16 13:24:33.252881,-115.0
2023-08-16 13:24:33.260570,-115.0
2023-08-16 13:24:33.268260,-115.0
2023-08-16 13:24:33.275949,-115.0
2023-08-16 13:24:33.283639,-115.0
2023-08-16 13:24:33.291328,-115.0
2023-08-16 13:24:33.299017,-113.0
2023-08-16 13:24:33.306707,-110.0
2023-08-16 13:24:33.314396,-113.0
2023-08-16 13:24:33.322086,-115.0
2023-08-16 13:24:33.329775,-115.0
2023-08-16 13:24:33.337465,-110.0
2023-08-16 13:24:33.345154,-110.0
2023-08-16 13:24:33.352844,-113.0
2023-08-16 13:24:33.360533,-117.0
2023-08-16 13:24:33.368223,-115.0
2023-08-16 13:24:33.375912,-96.0
2023-08-16 13:24:33.383602,-74.0
2023-08-16 13:24:33.391291,-62.0
2023-08-16 13:24:33.398981,-60.0
2023-08-16 13:24:33.406670,-67.0
2023-08-16 13:24:33.414360,-86.0
2023-08-16 13:24:33.422049,-108.0
2023-08-16 13:24:33.429739,-110.0
2023-08-16 13:24:33.437428,-108.0
2023-08-16 13:24:33.445117,-110.0
2023-08-16 13:24:33.452807,-110.0
2023-08-16 13:24:33.460496,-103.0
2023-08-16 13:24:33.468186,-101.0
2023-08-16 13:24:33.475875,-103.0
2023-08-16 13:24:33.483565,-93.0
2023-08-16 13:24:33.491254,50.0
2023-08-16 13:24:33.498944,473.0
2023-08-16 13:24:33.506633,1005.0
2023-08-16 13:24:33.514323,1082.0
2023-08-16 13:24:33.522012,391.0
2023-08-16 13:24:33.529702,-327.0
2023-08-16 13:24:33.537391,-331.0
2023-08-16 13:24:33.545081,-120.0
2023-08-16 13:24:33.552770,-185.0
2023-08-16 13:24:33.560460,-226.0
2023-08-16 13:24:33.568149,-151.0
2023-08-16 13:24:33.575838,-149.0
2023-08-16 13:24:33.583528,-170.0
2023-08-16 13:24:33.591217,-141.0
2023-08-16 13:24:33.598907,-127.0
2023-08-16 13:24:33.606596,-132.0
2023-08-16 13:24:33.614286,-120.0
2023-08-16 13:24:33.621975,-108.0
2023-08-16 13:24:33.629665,-105.0
2023-08-16 13:24:33.637354,-98.0
2023-08-16 13:24:33.645044,-86.0
2023-08-16 13:24:33.652733,-76.0
2023-08-16 13:24:33.660423,-64.0
2023-08-16 13:24:33.668112,-55.0
2023-08-16 13:24:33.675802,-43.0
2023-08-16 13:24:33.683491,-28.0
2023-08-16 13:24:33.691181,-9.0
2023-08-16 13:24:33.698870,14.0
2023-08-16 13:24:33.706559,40.0
2023-08-16 13:24:33.714249,57.0
2023-08-16 13:24:33.721938,69.0
2023-08-16 13:24:33.729628,88.0
2023-08-16 13:24:33.737317,108.0
2023-08-16 13:24:33.745007,117.0
2023-08-16 13:24:33.752696,120.0
2023-08-16 13:24:33.760386,120.0
2023-08-16 13:24:33.768075,108.0
2023-08-16 13:24:33.775765,76.0
2023-08-16 13:24:33.783454,26.0
2023-08-16 13:24:33.791144,-31.0
2023-08-16 13:24:33.798833,-81.0
2023-08-16 13:24:33.806523,-120.0
2023-08-16 13:24:33.814212,-151.0
2023-08-16 13:24:33.821902,-168.0
2023-08-16 13:24:33.829591,-177.0
2023-08-16 13:24:33.837281,-180.0
2023-08-16 13:24:33.844970,-177.0
2023-08-16 13:24:33.852659,-170.0
2023-08-16 13:24:33.860349,-161.0
2023-08-16 13:24:33.868038,-151.0
2023-08-16 13:24:33.875728,-141.0
2023-08-16 13:24:33.883417,-134.0
2023-08-16 13:24:33.891107,-129.0
2023-08-16 13:24:33.898796,-127.0
2023-08-16 13:24:33.906486,-125.0
2023-08-16 13:24:33.914175,-117.0
2023-08-16 13:24:33.921865,-115.0
2023-08-16 13:24:33.929554,-113.0
2023-08-16 13:24:33.937244,-115.0
2023-08-16 13:24:33.944933,-117.0
2023-08-16 13:24:33.952623,-117.0
2023-08-16 13:24:33.960312,-115.0
2023-08-16 13:24:33.968002,-115.0
2023-08-16 13:24:33.975691,-115.0
2023-08-16 13:24:33.983380,-117.0
2023-08-16 13:24:33.991070,-120.0
2023-08-16 13:24:33.998759,-117.0
2023-08-16 13:24:34.006449,-117.0
2023-08-16 13:24:34.014138,-117.0
2023-08-16 13:24:34.021828,-117.0
2023-08-16 13:24:34.029517,-117.0
2023-08-16 13:24:34.037207,-117.0
2023-08-16 13:24:34.044896,-113.0
2023-08-16 13:24:34.052586,-110.0
2023-08-16 13:24:34.060275,-113.0
2023-08-16 13:24:34.067965,-110.0
2023-08-16 13:24:34.075654,-105.0
2023-08-16 13:24:34.083344,-108.0
2023-08-16 13:24:34.091033,-113.0
2023-08-16 13:24:34.098723,-110.0
2023-08-16 13:24:34.106412,-96.0
2023-08-16 13:24:34.114101,-76.0
2023-08-16 13:24:34.121791,-64.0
2023-08-16 13:24:34.129480,-57.0
2023-08-16 13:24:34.137170,-57.0
2023-08-16 13:24:34.144859,-74.0
2023-08-16 13:24:34.152549,-96.0
2023-08-16 13:24:34.160238,-105.0
2023-08-16 13:24:34.167928,-108.0
2023-08-16 13:24:34.175617,-110.0
2023-08-16 13:24:34.183307,-105.0
2023-08-16 13:24:34.190996,-103.0
2023-08-16 13:24:34.198686,-101.0
2023-08-16 13:24:34.206375,-101.0
2023-08-16 13:24:34.214065,-91.0
2023-08-16 13:24:34.221754,50.0
2023-08-16 13:24:34.229444,461.0
2023-08-16 13:24:34.237133,966.0
2023-08-16 13:24:34.244823,1036.0
2023-08-16 13:24:34.252512,370.0
2023-08-16 13:24:34.260201,-351.0
2023-08-16 13:24:34.267891,-375.0
2023-08-16 13:24:34.275580,-153.0
2023-08-16 13:24:34.283270,-199.0
2023-08-16 13:24:34.290959,-238.0
2023-08-16 13:24:34.298649,-163.0
2023-08-16 13:24:34.306338,-156.0
2023-08-16 13:24:34.314028,-170.0
2023-08-16 13:24:34.321717,-144.0
2023-08-16 13:24:34.329407,-129.0
2023-08-16 13:24:34.337096,-141.0
2023-08-16 13:24:34.344786,-139.0
2023-08-16 13:24:34.352475,-125.0
2023-08-16 13:24:34.360165,-115.0
2023-08-16 13:24:34.367854,-105.0
2023-08-16 13:24:34.375544,-96.0
2023-08-16 13:24:34.383233,-86.0
2023-08-16 13:24:34.390922,-79.0
2023-08-16 13:24:34.398612,-67.0
2023-08-16 13:24:34.406301,-50.0
2023-08-16 13:24:34.413991,-33.0
2023-08-16 13:24:34.421680,-14.0
2023-08-16 13:24:34.429370,4.0
2023-08-16 13:24:34.437059,28.0
2023-08-16 13:24:34.444749,52.0
2023-08-16 13:24:34.452438,74.0
2023-08-16 13:24:34.460128,93.0
2023-08-16 13:24:34.467817,110.0
2023-08-16 13:24:34.475507,117.0
2023-08-16 13:24:34.483196,113.0
2023-08-16 13:24:34.490886,113.0
2023-08-16 13:24:34.498575,105.0
2023-08-16 13:24:34.506265,74.0
2023-08-16 13:24:34.513954,26.0
2023-08-16 13:24:34.521644,-31.0
2023-08-16 13:24:34.529333,-84.0
2023-08-16 13:24:34.537022,-125.0
2023-08-16 13:24:34.544712,-149.0
2023-08-16 13:24:34.552401,-163.0
2023-08-16 13:24:34.560091,-170.0
2023-08-16 13:24:34.567780,-170.0
2023-08-16 13:24:34.575470,-168.0
2023-08-16 13:24:34.583159,-161.0
2023-08-16 13:24:34.590849,-151.0
2023-08-16 13:24:34.598538,-141.0
2023-08-16 13:24:34.606228,-134.0
2023-08-16 13:24:34.613917,-129.0
2023-08-16 13:24:34.621607,-127.0
2023-08-16 13:24:34.629296,-120.0
2023-08-16 13:24:34.636986,-113.0
2023-08-16 13:24:34.644675,-108.0
2023-08-16 13:24:34.652365,-105.0
2023-08-16 13:24:34.660054,-105.0
2023-08-16 13:24:34.667743,-108.0
2023-08-16 13:24:34.675433,-108.0
2023-08-16 13:24:34.683122,-103.0
2023-08-16 13:24:34.690812,-103.0
2023-08-16 13:24:34.698501,-103.0
2023-08-16 13:24:34.706191,-105.0
2023-08-16 13:24:34.713880,-108.0
2023-08-16 13:24:34.721570,-105.0
2023-08-16 13:24:34.729259,-101.0
2023-08-16 13:24:34.736949,-101.0
2023-08-16 13:24:34.744638,-103.0
2023-08-16 13:24:34.752328,-103.0
2023-08-16 13:24:34.760017,-103.0
2023-08-16 13:24:34.767707,-105.0
2023-08-16 13:24:34.775396,-101.0
2023-08-16 13:24:34.783086,-96.0
2023-08-16 13:24:34.790775,-96.0
2023-08-16 13:24:34.798464,-96.0
2023-08-16 13:24:34.806154,-101.0
2023-08-16 13:24:34.813843,-105.0
2023-08-16 13:24:34.821533,-101.0
2023-08-16 13:24:34.829222,-81.0
2023-08-16 13:24:34.836912,-62.0
2023-08-16 13:24:34.844601,-52.0
2023-08-16 13:24:34.852291,-52.0
2023-08-16 13:24:34.859980,-55.0
2023-08-16 13:24:34.867670,-69.0
2023-08-16 13:24:34.875359,-88.0
2023-08-16 13:24:34.883049,-101.0
2023-08-16 13:24:34.890738,-110.0
2023-08-16 13:24:34.898428,-113.0
2023-08-16 13:24:34.906117,-108.0
2023-08-16 13:24:34.913807,-103.0
2023-08-16 13:24:34.921496,-101.0
2023-08-16 13:24:34.929186,-101.0
2023-08-16 13:24:34.936875,-96.0
2023-08-16 13:24:34.944564,31.0
2023-08-16 13:24:34.952254,430.0
2023-08-16 13:24:34.959943,964.0
2023-08-16 13:24:34.967633,1111.0
2023-08-16 13:24:34.975322,483.0
2023-08-16 13:24:34.983012,-298.0
2023-08-16 13:24:34.990701,-382.0
2023-08-16 13:24:34.998391,-139.0
2023-08-16 13:24:35.006080,-175.0
2023-08-16 13:24:35.013770,-240.0
2023-08-16 13:24:35.021459,-168.0
2023-08-16 13:24:35.029149,-151.0
2023-08-16 13:24:35.036838,-175.0
2023-08-16 13:24:35.044528,-146.0
2023-08-16 13:24:35.052217,-125.0
2023-08-16 13:24:35.059907,-129.0
2023-08-16 13:24:35.067596,-120.0
2023-08-16 13:24:35.075285,-108.0
2023-08-16 13:24:35.082975,-103.0
2023-08-16 13:24:35.090664,-96.0
2023-08-16 13:24:35.098354,-84.0
2023-08-16 13:24:35.106043,-76.0
2023-08-16 13:24:35.113733,-64.0
2023-08-16 13:24:35.121422,-55.0
2023-08-16 13:24:35.129112,-40.0
2023-08-16 13:24:35.136801,-24.0
2023-08-16 13:24:35.144491,-4.0
2023-08-16 13:24:35.152180,16.0
2023-08-16 13:24:35.159870,40.0
2023-08-16 13:24:35.167559,62.0
2023-08-16 13:24:35.175249,86.0
2023-08-16 13:24:35.182938,105.0
2023-08-16 13:24:35.190628,120.0
2023-08-16 13:24:35.198317,127.0
2023-08-16 13:24:35.206006,132.0
2023-08-16 13:24:35.213696,132.0
2023-08-16 13:24:35.221385,117.0
2023-08-16 13:24:35.229075,86.0
2023-08-16 13:24:35.236764,36.0
2023-08-16 13:24:35.244454,-24.0
2023-08-16 13:24:35.252143,-79.0
2023-08-16 13:24:35.259833,-125.0
2023-08-16 13:24:35.267522,-153.0
2023-08-16 13:24:35.275212,-165.0
2023-08-16 13:24:35.282901,-168.0
2023-08-16 13:24:35.290591,-168.0
2023-08-16 13:24:35.298280,-165.0
2023-08-16 13:24:35.305970,-158.0
2023-08-16 13:24:35.313659,-151.0
2023-08-16 13:24:35.321349,-144.0
2023-08-16 13:24:35.329038,-137.0
2023-08-16 13:24:35.336728,-132.0
2023-08-16 13:24:35.344417,-129.0
2023-08-16 13:24:35.352106,-127.0
2023-08-16 13:24:35.359796,-120.0
2023-08-16 13:24:35.367485,-115.0
2023-08-16 13:24:35.375175,-115.0
2023-08-16 13:24:35.382864,-120.0
2023-08-16 13:24:35.390554,-125.0
2023-08-16 13:24:35.398243,-120.0
2023-08-16 13:24:35.405933,-115.0
2023-08-16 13:24:35.413622,-115.0
2023-08-16 13:24:35.421312,-117.0
2023-08-16 13:24:35.429001,-125.0
2023-08-16 13:24:35.436691,-127.0
2023-08-16 13:24:35.444380,-125.0
2023-08-16 13:24:35.452070,-120.0
2023-08-16 13:24:35.459759,-120.0
2023-08-16 13:24:35.467449,-120.0
2023-08-16 13:24:35.475138,-120.0
2023-08-16 13:24:35.482827,-117.0
2023-08-16 13:24:35.490517,-115.0
2023-08-16 13:24:35.498206,-117.0
2023-08-16 13:24:35.505896,-120.0
2023-08-16 13:24:35.513585,-117.0
2023-08-16 13:24:35.521275,-113.0
2023-08-16 13:24:35.528964,-110.0
2023-08-16 13:24:35.536654,-108.0
2023-08-16 13:24:35.544343,-110.0
2023-08-16 13:24:35.552033,-113.0
2023-08-16 13:24:35.559722,-117.0
2023-08-16 13:24:35.567412,-115.0
2023-08-16 13:24:35.575101,-96.0
2023-08-16 13:24:35.582791,-74.0
2023-08-16 13:24:35.590480,-64.0
2023-08-16 13:24:35.598170,-57.0
2023-08-16 13:24:35.605859,-60.0
2023-08-16 13:24:35.613549,-74.0
2023-08-16 13:24:35.621238,-91.0
2023-08-16 13:24:35.628927,-101.0
2023-08-16 13:24:35.636617,-103.0
2023-08-16 13:24:35.644306,-103.0
2023-08-16 13:24:35.651996,-105.0
2023-08-16 13:24:35.659685,-103.0
2023-08-16 13:24:35.667375,-96.0
2023-08-16 13:24:35.675064,-98.0
2023-08-16 13:24:35.682754,-103.0
2023-08-16 13:24:35.690443,-14.0
2023-08-16 13:24:35.698133,331.0
2023-08-16 13:24:35.705822,889.0
2023-08-16 13:24:35.713512,1185.0
2023-08-16 13:24:35.721201,699.0
2023-08-16 13:24:35.728891,-153.0
2023-08-16 13:24:35.736580,-396.0
2023-08-16 13:24:35.744270,-158.0
2023-08-16 13:24:35.751959,-151.0
2023-08-16 13:24:35.759648,-242.0
2023-08-16 13:24:35.767338,-177.0
2023-08-16 13:24:35.775027,-146.0
2023-08-16 13:24:35.782717,-175.0
2023-08-16 13:24:35.790406,-161.0
2023-08-16 13:24:35.798096,-134.0
2023-08-16 13:24:35.805785,-137.0
2023-08-16 13:24:35.813475,-127.0
2023-08-16 13:24:35.821164,-113.0
2023-08-16 13:24:35.828854,-105.0
2023-08-16 13:24:35.836543,-101.0
2023-08-16 13:24:35.844233,-93.0
2023-08-16 13:24:35.851922,-88.0
2023-08-16 13:24:35.859612,-81.0
2023-08-16 13:24:35.867301,-69.0
2023-08-16 13:24:35.874991,-55.0
2023-08-16 13:24:35.882680,-40.0
2023-08-16 13:24:35.890369,-19.0
2023-08-16 13:24:35.898059,7.0
2023-08-16 13:24:35.905748,28.0
2023-08-16 13:24:35.913438,52.0
2023-08-16 13:24:35.921127,79.0
2023-08-16 13:24:35.928817,101.0
2023-08-16 13:24:35.936506,117.0
2023-08-16 13:24:35.944196,127.0
2023-08-16 13:24:35.951885,134.0
2023-08-16 13:24:35.959575,134.0
2023-08-16 13:24:35.967264,120.0
2023-08-16 13:24:35.974954,84.0
2023-08-16 13:24:35.982643,36.0
2023-08-16 13:24:35.990333,-21.0
2023-08-16 13:24:35.998022,-84.0
2023-08-16 13:24:36.005712,-129.0
2023-08-16 13:24:36.013401,-158.0
2023-08-16 13:24:36.021091,-175.0
2023-08-16 13:24:36.028780,-182.0
2023-08-16 13:24:36.036469,-182.0
2023-08-16 13:24:36.044159,-180.0
2023-08-16 13:24:36.051848,-175.0
2023-08-16 13:24:36.059538,-168.0
2023-08-16 13:24:36.067227,-158.0
2023-08-16 13:24:36.074917,-151.0
2023-08-16 13:24:36.082606,-141.0
2023-08-16 13:24:36.090296,-137.0
2023-08-16 13:24:36.097985,-132.0
2023-08-16 13:24:36.105675,-127.0
2023-08-16 13:24:36.113364,-122.0
2023-08-16 13:24:36.121054,-117.0
2023-08-16 13:24:36.128743,-113.0
2023-08-16 13:24:36.136433,-113.0
2023-08-16 13:24:36.144122,-113.0
2023-08-16 13:24:36.151812,-115.0
2023-08-16 13:24:36.159501,-113.0
2023-08-16 13:24:36.167190,-110.0
2023-08-16 13:24:36.174880,-110.0
2023-08-16 13:24:36.182569,-113.0
2023-08-16 13:24:36.190259,-113.0
2023-08-16 13:24:36.197948,-113.0
2023-08-16 13:24:36.205638,-113.0
2023-08-16 13:24:36.213327,-113.0
2023-08-16 13:24:36.221017,-110.0
2023-08-16 13:24:36.228706,-113.0
2023-08-16 13:24:36.236396,-113.0
2023-08-16 13:24:36.244085,-113.0
2023-08-16 13:24:36.251775,-110.0
2023-08-16 13:24:36.259464,-108.0
2023-08-16 13:24:36.267154,-108.0
2023-08-16 13:24:36.274843,-108.0
2023-08-16 13:24:36.282533,-105.0
2023-08-16 13:24:36.290222,-103.0
2023-08-16 13:24:36.297912,-101.0
2023-08-16 13:24:36.305601,-101.0
2023-08-16 13:24:36.313290,-98.0
2023-08-16 13:24:36.320980,-98.0
2023-08-16 13:24:36.328669,-101.0
2023-08-16 13:24:36.336359,-98.0
2023-08-16 13:24:36.344048,-98.0
2023-08-16 13:24:36.351738,-103.0
2023-08-16 13:24:36.359427,-110.0
2023-08-16 13:24:36.367117,-113.0
2023-08-16 13:24:36.374806,-101.0
2023-08-16 13:24:36.382496,-84.0
2023-08-16 13:24:36.390185,-69.0
2023-08-16 13:24:36.397875,-64.0
2023-08-16 13:24:36.405564,-67.0
2023-08-16 13:24:36.413254,-81.0
2023-08-16 13:24:36.420943,-101.0
2023-08-16 13:24:36.428633,-110.0
2023-08-16 13:24:36.436322,-105.0
2023-08-16 13:24:36.444011,-105.0
2023-08-16 13:24:36.451701,-108.0
2023-08-16 13:24:36.459390,-105.0
2023-08-16 13:24:36.467080,-103.0
2023-08-16 13:24:36.474769,-101.0
2023-08-16 13:24:36.482459,-101.0
2023-08-16 13:24:36.490148,-7.0
2023-08-16 13:24:36.497838,343.0
2023-08-16 13:24:36.505527,894.0
2023-08-16 13:24:36.513217,1166.0
2023-08-16 13:24:36.520906,668.0
2023-08-16 13:24:36.528596,-168.0
2023-08-16 13:24:36.536285,-389.0
2023-08-16 13:24:36.543975,-156.0
2023-08-16 13:24:36.551664,-158.0
2023-08-16 13:24:36.559354,-252.0
2023-08-16 13:24:36.567043,-189.0
2023-08-16 13:24:36.574732,-156.0
2023-08-16 13:24:36.582422,-182.0
2023-08-16 13:24:36.590111,-165.0
2023-08-16 13:24:36.597801,-141.0
2023-08-16 13:24:36.605490,-146.0
2023-08-16 13:24:36.613180,-137.0
2023-08-16 13:24:36.620869,-122.0
2023-08-16 13:24:36.628559,-115.0
2023-08-16 13:24:36.636248,-108.0
2023-08-16 13:24:36.643938,-98.0
2023-08-16 13:24:36.651627,-91.0
2023-08-16 13:24:36.659317,-79.0
2023-08-16 13:24:36.667006,-67.0
2023-08-16 13:24:36.674696,-52.0
2023-08-16 13:24:36.682385,-38.0
2023-08-16 13:24:36.690075,-21.0
2023-08-16 13:24:36.697764,0.0
2023-08-16 13:24:36.705454,24.0
2023-08-16 13:24:36.713143,50.0
2023-08-16 13:24:36.720832,76.0
2023-08-16 13:24:36.728522,98.0
2023-08-16 13:24:36.736211,110.0
2023-08-16 13:24:36.743901,120.0
2023-08-16 13:24:36.751590,127.0
2023-08-16 13:24:36.759280,129.0
2023-08-16 13:24:36.766969,122.0
2023-08-16 13:24:36.774659,96.0
2023-08-16 13:24:36.782348,48.0
2023-08-16 13:24:36.790038,-12.0
2023-08-16 13:24:36.797727,-69.0
2023-08-16 13:24:36.805417,-117.0
2023-08-16 13:24:36.813106,-151.0
2023-08-16 13:24:36.820796,-170.0
2023-08-16 13:24:36.828485,-182.0
2023-08-16 13:24:36.836175,-185.0
2023-08-16 13:24:36.843864,-180.0
2023-08-16 13:24:36.851553,-175.0
2023-08-16 13:24:36.859243,-170.0
2023-08-16 13:24:36.866932,-168.0
2023-08-16 13:24:36.874622,-163.0
2023-08-16 13:24:36.882311,-153.0
2023-08-16 13:24:36.890001,-144.0
2023-08-16 13:24:36.897690,-139.0
2023-08-16 13:24:36.905380,-132.0
2023-08-16 13:24:36.913069,-127.0
2023-08-16 13:24:36.920759,-125.0
2023-08-16 13:24:36.928448,-122.0
2023-08-16 13:24:36.936138,-122.0
2023-08-16 13:24:36.943827,-122.0
2023-08-16 13:24:36.951517,-120.0
2023-08-16 13:24:36.959206,-122.0
2023-08-16 13:24:36.966896,-122.0
2023-08-16 13:24:36.974585,-127.0
2023-08-16 13:24:36.982274,-127.0
2023-08-16 13:24:36.989964,-127.0
2023-08-16 13:24:36.997653,-125.0
2023-08-16 13:24:37.005343,-127.0
2023-08-16 13:24:37.013032,-127.0
2023-08-16 13:24:37.020722,-125.0
2023-08-16 13:24:37.028411,-122.0
2023-08-16 13:24:37.036101,-117.0
2023-08-16 13:24:37.043790,-120.0
2023-08-16 13:24:37.051480,-120.0
2023-08-16 13:24:37.059169,-117.0
2023-08-16 13:24:37.066859,-113.0
2023-08-16 13:24:37.074548,-113.0
2023-08-16 13:24:37.082238,-113.0
2023-08-16 13:24:37.089927,-117.0
2023-08-16 13:24:37.097617,-125.0
2023-08-16 13:24:37.105306,-125.0
2023-08-16 13:24:37.112996,-120.0
2023-08-16 13:24:37.120685,-120.0
2023-08-16 13:24:37.128374,-122.0
2023-08-16 13:24:37.136064,-122.0
2023-08-16 13:24:37.143753,-122.0
2023-08-16 13:24:37.151443,-125.0
2023-08-16 13:24:37.159132,-127.0
2023-08-16 13:24:37.166822,-129.0
2023-08-16 13:24:37.174511,-122.0
2023-08-16 13:24:37.182201,-108.0
2023-08-16 13:24:37.189890,-91.0
2023-08-16 13:24:37.197580,-79.0
2023-08-16 13:24:37.205269,-72.0
2023-08-16 13:24:37.212959,-72.0
2023-08-16 13:24:37.220648,-86.0
2023-08-16 13:24:37.228338,-105.0
2023-08-16 13:24:37.236027,-115.0
2023-08-16 13:24:37.243717,-110.0
2023-08-16 13:24:37.251406,-110.0
2023-08-16 13:24:37.259095,-110.0
2023-08-16 13:24:37.266785,-105.0
2023-08-16 13:24:37.274474,-105.0
2023-08-16 13:24:37.282164,-105.0
2023-08-16 13:24:37.289853,-103.0
2023-08-16 13:24:37.297543,-9.0
2023-08-16 13:24:37.305232,339.0
2023-08-16 13:24:37.312922,887.0
2023-08-16 13:24:37.320611,1161.0
2023-08-16 13:24:37.328301,666.0
2023-08-16 13:24:37.335990,-170.0
2023-08-16 13:24:37.343680,-391.0
2023-08-16 13:24:37.351369,-156.0
2023-08-16 13:24:37.359059,-151.0
2023-08-16 13:24:37.366748,-242.0
2023-08-16 13:24:37.374438,-187.0
2023-08-16 13:24:37.382127,-161.0
2023-08-16 13:24:37.389817,-185.0
2023-08-16 13:24:37.397506,-165.0
2023-08-16 13:24:37.405195,-141.0
2023-08-16 13:24:37.412885,-144.0
2023-08-16 13:24:37.420574,-137.0
2023-08-16 13:24:37.428264,-120.0
2023-08-16 13:24:37.435953,-115.0
2023-08-16 13:24:37.443643,-110.0
2023-08-16 13:24:37.451332,-98.0
2023-08-16 13:24:37.459022,-91.0
2023-08-16 13:24:37.466711,-81.0
2023-08-16 13:24:37.474401,-72.0
2023-08-16 13:24:37.482090,-60.0
2023-08-16 13:24:37.489780,-40.0
2023-08-16 13:24:37.497469,-24.0
2023-08-16 13:24:37.505159,-2.0
2023-08-16 13:24:37.512848,24.0
2023-08-16 13:24:37.520538,50.0
2023-08-16 13:24:37.528227,76.0
2023-08-16 13:24:37.535916,101.0
2023-08-16 13:24:37.543606,115.0
2023-08-16 13:24:37.551295,125.0
2023-08-16 13:24:37.558985,132.0
2023-08-16 13:24:37.566674,134.0
2023-08-16 13:24:37.574364,125.0
2023-08-16 13:24:37.582053,98.0
2023-08-16 13:24:37.589743,48.0
2023-08-16 13:24:37.597432,-12.0
2023-08-16 13:24:37.605122,-67.0
2023-08-16 13:24:37.612811,-115.0
2023-08-16 13:24:37.620501,-151.0
2023-08-16 13:24:37.628190,-170.0
2023-08-16 13:24:37.635880,-177.0
2023-08-16 13:24:37.643569,-177.0
2023-08-16 13:24:37.651259,-173.0
2023-08-16 13:24:37.658948,-168.0
2023-08-16 13:24:37.666637,-165.0
2023-08-16 13:24:37.674327,-163.0
2023-08-16 13:24:37.682016,-156.0
2023-08-16 13:24:37.689706,-146.0
2023-08-16 13:24:37.697395,-139.0
2023-08-16 13:24:37.705085,-134.0
2023-08-16 13:24:37.712774,-132.0
2023-08-16 13:24:37.720464,-129.0
2023-08-16 13:24:37.728153,-127.0
2023-08-16 13:24:37.735843,-122.0
2023-08-16 13:24:37.743532,-120.0
2023-08-16 13:24:37.751222,-117.0
2023-08-16 13:24:37.758911,-117.0
2023-08-16 13:24:37.766601,-122.0
2023-08-16 13:24:37.774290,-129.0
2023-08-16 13:24:37.781980,-127.0
2023-08-16 13:24:37.789669,-122.0
2023-08-16 13:24:37.797359,-125.0
2023-08-16 13:24:37.805048,-127.0
2023-08-16 13:24:37.812737,-125.0
2023-08-16 13:24:37.820427,-125.0
2023-08-16 13:24:37.828116,-122.0
2023-08-16 13:24:37.835806,-122.0
2023-08-16 13:24:37.843495,-122.0
2023-08-16 13:24:37.851185,-122.0
2023-08-16 13:24:37.858874,-125.0
2023-08-16 13:24:37.866564,-122.0
2023-08-16 13:24:37.874253,-120.0
2023-08-16 13:24:37.881943,-127.0
2023-08-16 13:24:37.889632,-127.0
2023-08-16 13:24:37.897322,-122.0
2023-08-16 13:24:37.905011,-122.0
2023-08-16 13:24:37.912701,-120.0
2023-08-16 13:24:37.920390,-117.0
2023-08-16 13:24:37.928080,-115.0
2023-08-16 13:24:37.935769,-113.0
2023-08-16 13:24:37.943458,-113.0
2023-08-16 13:24:37.951148,-113.0
2023-08-16 13:24:37.958837,-115.0
2023-08-16 13:24:37.966527,-120.0
2023-08-16 13:24:37.974216,-122.0
2023-08-16 13:24:37.981906,-115.0
2023-08-16 13:24:37.989595,-101.0
2023-08-16 13:24:37.997285,-84.0
2023-08-16 13:24:38.004974,-69.0
2023-08-16 13:24:38.012664,-62.0
2023-08-16 13:24:38.020353,-67.0
2023-08-16 13:24:38.028043,-79.0
2023-08-16 13:24:38.035732,-98.0
2023-08-16 13:24:38.043422,-105.0
2023-08-16 13:24:38.051111,-101.0
2023-08-16 13:24:38.058801,-101.0
2023-08-16 13:24:38.066490,-101.0
2023-08-16 13:24:38.074179,-96.0
2023-08-16 13:24:38.081869,-93.0
2023-08-16 13:24:38.089558,-96.0
2023-08-16 13:24:38.097248,-88.0
2023-08-16 13:24:38.104937,36.0
2023-08-16 13:24:38.112627,423.0
2023-08-16 13:24:38.120316,964.0
2023-08-16 13:24:38.128006,1137.0
2023-08-16 13:24:38.135695,529.0
2023-08-16 13:24:38.143385,-254.0
2023-08-16 13:24:38.151074,-353.0
2023-08-16 13:24:38.158764,-122.0
2023-08-16 13:24:38.166453,-165.0
2023-08-16 13:24:38.174143,-242.0
2023-08-16 13:24:38.181832,-173.0
2023-08-16 13:24:38.189522,-151.0
2023-08-16 13:24:38.197211,-173.0
2023-08-16 13:24:38.204901,-153.0
2023-08-16 13:24:38.212590,-137.0
2023-08-16 13:24:38.220279,-144.0
2023-08-16 13:24:38.227969,-132.0
2023-08-16 13:24:38.235658,-115.0
2023-08-16 13:24:38.243348,-110.0
2023-08-16 13:24:38.251037,-103.0
2023-08-16 13:24:38.258727,-93.0
2023-08-16 13:24:38.266416,-86.0
2023-08-16 13:24:38.274106,-76.0
2023-08-16 13:24:38.281795,-62.0
2023-08-16 13:24:38.289485,-45.0
2023-08-16 13:24:38.297174,-28.0
2023-08-16 13:24:38.304864,-12.0
2023-08-16 13:24:38.312553,9.0
2023-08-16 13:24:38.320243,36.0
2023-08-16 13:24:38.327932,64.0
2023-08-16 13:24:38.335622,93.0
2023-08-16 13:24:38.343311,115.0
2023-08-16 13:24:38.351000,127.0
2023-08-16 13:24:38.358690,134.0
2023-08-16 13:24:38.366379,141.0
2023-08-16 13:24:38.374069,141.0
2023-08-16 13:24:38.381758,129.0
2023-08-16 13:24:38.389448,91.0
2023-08-16 13:24:38.397137,31.0
2023-08-16 13:24:38.404827,-33.0
2023-08-16 13:24:38.412516,-88.0
2023-08-16 13:24:38.420206,-137.0
2023-08-16 13:24:38.427895,-168.0
2023-08-16 13:24:38.435585,-185.0
2023-08-16 13:24:38.443274,-197.0
2023-08-16 13:24:38.450964,-202.0
2023-08-16 13:24:38.458653,-199.0
2023-08-16 13:24:38.466343,-192.0
2023-08-16 13:24:38.474032,-185.0
2023-08-16 13:24:38.481722,-177.0
2023-08-16 13:24:38.489411,-173.0
2023-08-16 13:24:38.497100,-165.0
2023-08-16 13:24:38.504790,-156.0
2023-08-16 13:24:38.512479,-146.0
2023-08-16 13:24:38.520169,-139.0
2023-08-16 13:24:38.527858,-137.0
2023-08-16 13:24:38.535548,-134.0
2023-08-16 13:24:38.543237,-129.0
2023-08-16 13:24:38.550927,-127.0
2023-08-16 13:24:38.558616,-127.0
2023-08-16 13:24:38.566306,-129.0
2023-08-16 13:24:38.573995,-129.0
2023-08-16 13:24:38.581685,-129.0
2023-08-16 13:24:38.589374,-132.0
2023-08-16 13:24:38.597064,-132.0
2023-08-16 13:24:38.604753,-129.0
2023-08-16 13:24:38.612443,-132.0
2023-08-16 13:24:38.620132,-132.0
2023-08-16 13:24:38.627821,-129.0
2023-08-16 13:24:38.635511,-127.0
2023-08-16 13:24:38.643200,-122.0
2023-08-16 13:24:38.650890,-120.0
2023-08-16 13:24:38.658579,-120.0
2023-08-16 13:24:38.666269,-120.0
2023-08-16 13:24:38.673958,-117.0
2023-08-16 13:24:38.681648,-115.0
2023-08-16 13:24:38.689337,-113.0
2023-08-16 13:24:38.697027,-113.0
2023-08-16 13:24:38.704716,-115.0
2023-08-16 13:24:38.712406,-115.0
2023-08-16 13:24:38.720095,-113.0
2023-08-16 13:24:38.727785,-110.0
2023-08-16 13:24:38.735474,-108.0
2023-08-16 13:24:38.743164,-105.0
2023-08-16 13:24:38.750853,-105.0
2023-08-16 13:24:38.758542,-113.0
2023-08-16 13:24:38.766232,-120.0
2023-08-16 13:24:38.773921,-120.0
2023-08-16 13:24:38.781611,-117.0
2023-08-16 13:24:38.789300,-108.0
2023-08-16 13:24:38.796990,-91.0
2023-08-16 13:24:38.804679,-84.0
2023-08-16 13:24:38.812369,-79.0
2023-08-16 13:24:38.820058,-69.0
2023-08-16 13:24:38.827748,-72.0
2023-08-16 13:24:38.835437,-86.0
2023-08-16 13:24:38.843127,-105.0
2023-08-16 13:24:38.850816,-117.0
2023-08-16 13:24:38.858506,-117.0
2023-08-16 13:24:38.866195,-113.0
2023-08-16 13:24:38.873885,-110.0
2023-08-16 13:24:38.881574,-105.0
2023-08-16 13:24:38.889264,-101.0
2023-08-16 13:24:38.896953,-105.0
2023-08-16 13:24:38.904642,-103.0
2023-08-16 13:24:38.912332,45.0
2023-08-16 13:24:38.920021,461.0
2023-08-16 13:24:38.927711,993.0
2023-08-16 13:24:38.935400,1108.0
2023-08-16 13:24:38.943090,447.0
2023-08-16 13:24:38.950779,-303.0
2023-08-16 13:24:38.958469,-346.0
2023-08-16 13:24:38.966158,-125.0
2023-08-16 13:24:38.973848,-180.0
2023-08-16 13:24:38.981537,-233.0
2023-08-16 13:24:38.989227,-161.0
2023-08-16 13:24:38.996916,-151.0
2023-08-16 13:24:39.004606,-170.0
2023-08-16 13:24:39.012295,-144.0
2023-08-16 13:24:39.019985,-127.0
2023-08-16 13:24:39.027674,-132.0
2023-08-16 13:24:39.035363,-122.0
2023-08-16 13:24:39.043053,-105.0
2023-08-16 13:24:39.050742,-98.0
2023-08-16 13:24:39.058432,-93.0
2023-08-16 13:24:39.066121,-81.0
2023-08-16 13:24:39.073811,-69.0
2023-08-16 13:24:39.081500,-60.0
2023-08-16 13:24:39.089190,-50.0
2023-08-16 13:24:39.096879,-33.0
2023-08-16 13:24:39.104569,-19.0
2023-08-16 13:24:39.112258,2.0
2023-08-16 13:24:39.119948,24.0
2023-08-16 13:24:39.127637,48.0
2023-08-16 13:24:39.135327,74.0
2023-08-16 13:24:39.143016,98.0
2023-08-16 13:24:39.150706,120.0
2023-08-16 13:24:39.158395,137.0
2023-08-16 13:24:39.166085,144.0
2023-08-16 13:24:39.173774,149.0
2023-08-16 13:24:39.181463,149.0
2023-08-16 13:24:39.189153,132.0
2023-08-16 13:24:39.196842,96.0
2023-08-16 13:24:39.204532,40.0
2023-08-16 13:24:39.212221,-24.0
2023-08-16 13:24:39.219911,-79.0
2023-08-16 13:24:39.227600,-125.0
2023-08-16 13:24:39.235290,-158.0
2023-08-16 13:24:39.242979,-175.0
2023-08-16 13:24:39.250669,-182.0
2023-08-16 13:24:39.258358,-185.0
2023-08-16 13:24:39.266048,-180.0
2023-08-16 13:24:39.273737,-175.0
2023-08-16 13:24:39.281427,-170.0
2023-08-16 13:24:39.289116,-165.0
2023-08-16 13:24:39.296806,-163.0
2023-08-16 13:24:39.304495,-165.0
2023-08-16 13:24:39.312184,-158.0
2023-08-16 13:24:39.319874,-149.0
2023-08-16 13:24:39.327563,-146.0
2023-08-16 13:24:39.335253,-141.0
2023-08-16 13:24:39.342942,-137.0
2023-08-16 13:24:39.350632,-134.0
2023-08-16 13:24:39.358321,-132.0
2023-08-16 13:24:39.366011,-129.0
2023-08-16 13:24:39.373700,-129.0
2023-08-16 13:24:39.381390,-129.0
2023-08-16 13:24:39.389079,-132.0
2023-08-16 13:24:39.396769,-132.0
2023-08-16 13:24:39.404458,-134.0
2023-08-16 13:24:39.412148,-137.0
2023-08-16 13:24:39.419837,-134.0
2023-08-16 13:24:39.427527,-132.0
2023-08-16 13:24:39.435216,-132.0
2023-08-16 13:24:39.442905,-134.0
2023-08-16 13:24:39.450595,-132.0
2023-08-16 13:24:39.458284,-127.0
2023-08-16 13:24:39.465974,-127.0
2023-08-16 13:24:39.473663,-125.0
2023-08-16 13:24:39.481353,-122.0
2023-08-16 13:24:39.489042,-120.0
2023-08-16 13:24:39.496732,-115.0
2023-08-16 13:24:39.504421,-113.0
2023-08-16 13:24:39.512111,-110.0
2023-08-16 13:24:39.519800,-110.0
2023-08-16 13:24:39.527490,-108.0
2023-08-16 13:24:39.535179,-103.0
2023-08-16 13:24:39.542869,-103.0
2023-08-16 13:24:39.550558,-103.0
2023-08-16 13:24:39.558248,-101.0
2023-08-16 13:24:39.565937,-98.0
2023-08-16 13:24:39.573627,-98.0
2023-08-16 13:24:39.581316,-96.0
2023-08-16 13:24:39.589005,-98.0
2023-08-16 13:24:39.596695,-101.0
2023-08-16 13:24:39.604384,-96.0
2023-08-16 13:24:39.612074,-79.0
2023-08-16 13:24:39.619763,-60.0
2023-08-16 13:24:39.627453,-50.0
2023-08-16 13:24:39.635142,-45.0
2023-08-16 13:24:39.642832,-48.0
2023-08-16 13:24:39.650521,-67.0
2023-08-16 13:24:39.658211,-84.0
2023-08-16 13:24:39.665900,-88.0
2023-08-16 13:24:39.673590,-86.0
2023-08-16 13:24:39.681279,-86.0
2023-08-16 13:24:39.688969,-88.0
2023-08-16 13:24:39.696658,-88.0
2023-08-16 13:24:39.704348,-84.0
2023-08-16 13:24:39.712037,-84.0
2023-08-16 13:24:39.719726,-76.0
2023-08-16 13:24:39.727416,60.0
2023-08-16 13:24:39.735105,466.0
2023-08-16 13:24:39.742795,997.0
2023-08-16 13:24:39.750484,1139.0
2023-08-16 13:24:39.758174,507.0
2023-08-16 13:24:39.765863,-259.0
2023-08-16 13:24:39.773553,-331.0
2023-08-16 13:24:39.781242,-110.0
2023-08-16 13:24:39.788932,-161.0
2023-08-16 13:24:39.796621,-221.0
2023-08-16 13:24:39.804311,-151.0
2023-08-16 13:24:39.812000,-137.0
2023-08-16 13:24:39.819690,-161.0
2023-08-16 13:24:39.827379,-137.0
2023-08-16 13:24:39.835069,-120.0
2023-08-16 13:24:39.842758,-125.0
2023-08-16 13:24:39.850447,-115.0
2023-08-16 13:24:39.858137,-101.0
2023-08-16 13:24:39.865826,-96.0
2023-08-16 13:24:39.873516,-91.0
2023-08-16 13:24:39.881205,-86.0
2023-08-16 13:24:39.888895,-86.0
2023-08-16 13:24:39.896584,-74.0
2023-08-16 13:24:39.904274,-64.0
2023-08-16 13:24:39.911963,-57.0
2023-08-16 13:24:39.919653,-40.0
2023-08-16 13:24:39.927342,-19.0
2023-08-16 13:24:39.935032,0.0
2023-08-16 13:24:39.942721,21.0
2023-08-16 13:24:39.950411,50.0
2023-08-16 13:24:39.958100,79.0
2023-08-16 13:24:39.965790,103.0
2023-08-16 13:24:39.973479,120.0
2023-08-16 13:24:39.981169,129.0
2023-08-16 13:24:39.988858,134.0
2023-08-16 13:24:39.996547,134.0
2023-08-16 13:24:40.004237,125.0
2023-08-16 13:24:40.011926,91.0
2023-08-16 13:24:40.019616,36.0
2023-08-16 13:24:40.027305,-26.0
2023-08-16 13:24:40.034995,-84.0
2023-08-16 13:24:40.042684,-129.0
2023-08-16 13:24:40.050374,-163.0
2023-08-16 13:24:40.058063,-180.0
2023-08-16 13:24:40.065753,-192.0
2023-08-16 13:24:40.073442,-192.0
2023-08-16 13:24:40.081132,-187.0
2023-08-16 13:24:40.088821,-182.0
2023-08-16 13:24:40.096511,-177.0
2023-08-16 13:24:40.104200,-175.0
2023-08-16 13:24:40.111890,-173.0
2023-08-16 13:24:40.119579,-165.0
2023-08-16 13:24:40.127268,-165.0
2023-08-16 13:24:40.134958,-163.0
2023-08-16 13:24:40.142647,-153.0
2023-08-16 13:24:40.150337,-149.0
2023-08-16 13:24:40.158026,-149.0
2023-08-16 13:24:40.165716,-141.0
2023-08-16 13:24:40.173405,-137.0
2023-08-16 13:24:40.181095,-139.0
2023-08-16 13:24:40.188784,-139.0
2023-08-16 13:24:40.196474,-137.0
2023-08-16 13:24:40.204163,-137.0
2023-08-16 13:24:40.211853,-137.0
2023-08-16 13:24:40.219542,-134.0
2023-08-16 13:24:40.227232,-132.0
2023-08-16 13:24:40.234921,-132.0
2023-08-16 13:24:40.242611,-132.0
2023-08-16 13:24:40.250300,-132.0
2023-08-16 13:24:40.257990,-129.0
2023-08-16 13:24:40.265679,-127.0
2023-08-16 13:24:40.273368,-125.0
2023-08-16 13:24:40.281058,-122.0
2023-08-16 13:24:40.288747,-122.0
2023-08-16 13:24:40.296437,-120.0
2023-08-16 13:24:40.304126,-117.0
2023-08-16 13:24:40.311816,-113.0
2023-08-16 13:24:40.319505,-113.0
2023-08-16 13:24:40.327195,-110.0
2023-08-16 13:24:40.334884,-110.0
2023-08-16 13:24:40.342574,-108.0
2023-08-16 13:24:40.350263,-105.0
2023-08-16 13:24:40.357953,-103.0
2023-08-16 13:24:40.365642,-98.0
2023-08-16 13:24:40.373332,-98.0
2023-08-16 13:24:40.381021,-98.0
2023-08-16 13:24:40.388711,-96.0
2023-08-16 13:24:40.396400,-93.0
2023-08-16 13:24:40.404089,-91.0
2023-08-16 13:24:40.411779,-91.0
2023-08-16 13:24:40.419468,-88.0
2023-08-16 13:24:40.427158,-88.0
2023-08-16 13:24:40.434847,-91.0
2023-08-16 13:24:40.442537,-88.0
2023-08-16 13:24:40.450226,-91.0
2023-08-16 13:24:40.457916,-93.0
2023-08-16 13:24:40.465605,-88.0
2023-08-16 13:24:40.473295,-74.0
2023-08-16 13:24:40.480984,-55.0
2023-08-16 13:24:40.488674,-45.0
2023-08-16 13:24:40.496363,-40.0
2023-08-16 13:24:40.504053,-43.0
2023-08-16 13:24:40.511742,-64.0
2023-08-16 13:24:40.519432,-91.0
2023-08-16 13:24:40.527121,-96.0
2023-08-16 13:24:40.534810,-88.0
2023-08-16 13:24:40.542500,-88.0
2023-08-16 13:24:40.550189,-88.0
2023-08-16 13:24:40.557879,-86.0
2023-08-16 13:24:40.565568,-84.0
2023-08-16 13:24:40.573258,-84.0
2023-08-16 13:24:40.580947,-79.0
2023-08-16 13:24:40.588637,50.0
2023-08-16 13:24:40.596326,447.0
2023-08-16 13:24:40.604016,985.0
2023-08-16 13:24:40.611705,1154.0
2023-08-16 13:24:40.619395,548.0
2023-08-16 13:24:40.627084,-238.0
2023-08-16 13:24:40.634774,-348.0
2023-08-16 13:24:40.642463,-125.0
2023-08-16 13:24:40.650153,-165.0
2023-08-16 13:24:40.657842,-233.0
2023-08-16 13:24:40.665532,-161.0
2023-08-16 13:24:40.673221,-146.0
2023-08-16 13:24:40.680910,-173.0
2023-08-16 13:24:40.688600,-151.0
2023-08-16 13:24:40.696289,-132.0
2023-08-16 13:24:40.703979,-134.0
2023-08-16 13:24:40.711668,-125.0
2023-08-16 13:24:40.719358,-110.0
2023-08-16 13:24:40.727047,-103.0
2023-08-16 13:24:40.734737,-98.0
2023-08-16 13:24:40.742426,-91.0
2023-08-16 13:24:40.750116,-84.0
2023-08-16 13:24:40.757805,-74.0
2023-08-16 13:24:40.765495,-62.0
2023-08-16 13:24:40.773184,-48.0
2023-08-16 13:24:40.780874,-31.0
2023-08-16 13:24:40.788563,-14.0
2023-08-16 13:24:40.796253,9.0
2023-08-16 13:24:40.803942,36.0
2023-08-16 13:24:40.811631,62.0
2023-08-16 13:24:40.819321,91.0
2023-08-16 13:24:40.827010,113.0
2023-08-16 13:24:40.834700,129.0
2023-08-16 13:24:40.842389,141.0
2023-08-16 13:24:40.850079,149.0
2023-08-16 13:24:40.857768,151.0
2023-08-16 13:24:40.865458,144.0
2023-08-16 13:24:40.873147,117.0
2023-08-16 13:24:40.880837,67.0
2023-08-16 13:24:40.888526,4.0
2023-08-16 13:24:40.896216,-57.0
2023-08-16 13:24:40.903905,-108.0
2023-08-16 13:24:40.911595,-146.0
2023-08-16 13:24:40.919284,-173.0
2023-08-16 13:24:40.926974,-187.0
2023-08-16 13:24:40.934663,-189.0
2023-08-16 13:24:40.942352,-189.0
2023-08-16 13:24:40.950042,-185.0
2023-08-16 13:24:40.957731,-180.0
2023-08-16 13:24:40.965421,-175.0
2023-08-16 13:24:40.973110,-170.0
2023-08-16 13:24:40.980800,-161.0
2023-08-16 13:24:40.988489,-153.0
2023-08-16 13:24:40.996179,-149.0
2023-08-16 13:24:41.003868,-146.0
2023-08-16 13:24:41.011558,-149.0
2023-08-16 13:24:41.019247,-146.0
2023-08-16 13:24:41.026937,-139.0
2023-08-16 13:24:41.034626,-137.0
2023-08-16 13:24:41.042316,-134.0
2023-08-16 13:24:41.050005,-132.0
2023-08-16 13:24:41.057695,-132.0
2023-08-16 13:24:41.065384,-129.0
2023-08-16 13:24:41.073074,-127.0
2023-08-16 13:24:41.080763,-127.0
2023-08-16 13:24:41.088452,-125.0
2023-08-16 13:24:41.096142,-122.0
2023-08-16 13:24:41.103831,-122.0
2023-08-16 13:24:41.111521,-122.0
2023-08-16 13:24:41.119210,-120.0
2023-08-16 13:24:41.126900,-125.0
2023-08-16 13:24:41.134589,-127.0
2023-08-16 13:24:41.142279,-125.0
2023-08-16 13:24:41.149968,-122.0
2023-08-16 13:24:41.157658,-120.0
2023-08-16 13:24:41.165347,-120.0
2023-08-16 13:24:41.173037,-120.0
2023-08-16 13:24:41.180726,-117.0
2023-08-16 13:24:41.188416,-117.0
2023-08-16 13:24:41.196105,-115.0
2023-08-16 13:24:41.203795,-110.0
2023-08-16 13:24:41.211484,-108.0
2023-08-16 13:24:41.219173,-105.0
2023-08-16 13:24:41.226863,-103.0
2023-08-16 13:24:41.234552,-103.0
2023-08-16 13:24:41.242242,-101.0
2023-08-16 13:24:41.249931,-98.0
2023-08-16 13:24:41.257621,-96.0
2023-08-16 13:24:41.265310,-96.0
2023-08-16 13:24:41.273000,-93.0
2023-08-16 13:24:41.280689,-93.0
2023-08-16 13:24:41.288379,-91.0
2023-08-16 13:24:41.296068,-88.0
2023-08-16 13:24:41.303758,-91.0
2023-08-16 13:24:41.311447,-93.0
2023-08-16 13:24:41.319137,-91.0
2023-08-16 13:24:41.326826,-76.0
2023-08-16 13:24:41.334516,-57.0
2023-08-16 13:24:41.342205,-43.0
2023-08-16 13:24:41.349895,-38.0
2023-08-16 13:24:41.357584,-40.0
2023-08-16 13:24:41.365273,-52.0
2023-08-16 13:24:41.372963,-72.0
2023-08-16 13:24:41.380652,-81.0
2023-08-16 13:24:41.388342,-79.0
2023-08-16 13:24:41.396031,-79.0
2023-08-16 13:24:41.403721,-81.0
2023-08-16 13:24:41.411410,-81.0
2023-08-16 13:24:41.419100,-79.0
2023-08-16 13:24:41.426789,-76.0
2023-08-16 13:24:41.434479,-76.0
2023-08-16 13:24:41.442168,12.0
2023-08-16 13:24:41.449858,351.0
2023-08-16 13:24:41.457547,889.0
2023-08-16 13:24:41.465237,1183.0
2023-08-16 13:24:41.472926,723.0
2023-08-16 13:24:41.480616,-113.0
2023-08-16 13:24:41.488305,-367.0
2023-08-16 13:24:41.495994,-139.0
2023-08-16 13:24:41.503684,-127.0
2023-08-16 13:24:41.511373,-218.0
2023-08-16 13:24:41.519063,-161.0
2023-08-16 13:24:41.526752,-127.0
2023-08-16 13:24:41.534442,-153.0
2023-08-16 13:24:41.542131,-144.0
2023-08-16 13:24:41.549821,-129.0
2023-08-16 13:24:41.557510,-139.0
2023-08-16 13:24:41.565200,-129.0
2023-08-16 13:24:41.572889,-113.0
2023-08-16 13:24:41.580579,-108.0
2023-08-16 13:24:41.588268,-103.0
2023-08-16 13:24:41.595958,-96.0
2023-08-16 13:24:41.603647,-86.0
2023-08-16 13:24:41.611337,-76.0
2023-08-16 13:24:41.619026,-64.0
2023-08-16 13:24:41.626715,-57.0
2023-08-16 13:24:41.634405,-50.0
2023-08-16 13:24:41.642094,-31.0
2023-08-16 13:24:41.649784,-4.0
2023-08-16 13:24:41.657473,19.0
2023-08-16 13:24:41.665163,43.0
2023-08-16 13:24:41.672852,74.0
2023-08-16 13:24:41.680542,98.0
2023-08-16 13:24:41.688231,115.0
2023-08-16 13:24:41.695921,129.0
2023-08-16 13:24:41.703610,139.0
2023-08-16 13:24:41.711300,141.0
2023-08-16 13:24:41.718989,134.0
2023-08-16 13:24:41.726679,105.0
2023-08-16 13:24:41.734368,55.0
2023-08-16 13:24:41.742058,-4.0
2023-08-16 13:24:41.749747,-69.0
2023-08-16 13:24:41.757437,-122.0
2023-08-16 13:24:41.765126,-161.0
2023-08-16 13:24:41.772815,-189.0
2023-08-16 13:24:41.780505,-202.0
2023-08-16 13:24:41.788194,-202.0
2023-08-16 13:24:41.795884,-199.0
2023-08-16 13:24:41.803573,-197.0
2023-08-16 13:24:41.811263,-189.0
2023-08-16 13:24:41.818952,-185.0
2023-08-16 13:24:41.826642,-177.0
2023-08-16 13:24:41.834331,-168.0
2023-08-16 13:24:41.842021,-158.0
2023-08-16 13:24:41.849710,-151.0
2023-08-16 13:24:41.857400,-146.0
2023-08-16 13:24:41.865089,-144.0
2023-08-16 13:24:41.872779,-137.0
2023-08-16 13:24:41.880468,-132.0
2023-08-16 13:24:41.888158,-127.0
2023-08-16 13:24:41.895847,-125.0
2023-08-16 13:24:41.903536,-125.0
2023-08-16 13:24:41.911226,-127.0
2023-08-16 13:24:41.918915,-127.0
2023-08-16 13:24:41.926605,-122.0
2023-08-16 13:24:41.934294,-122.0
2023-08-16 13:24:41.941984,-120.0
2023-08-16 13:24:41.949673,-120.0
2023-08-16 13:24:41.957363,-122.0
2023-08-16 13:24:41.965052,-122.0
2023-08-16 13:24:41.972742,-117.0
2023-08-16 13:24:41.980431,-115.0
2023-08-16 13:24:41.988121,-115.0
2023-08-16 13:24:41.995810,-115.0
2023-08-16 13:24:42.003500,-117.0
2023-08-16 13:24:42.011189,-115.0
2023-08-16 13:24:42.018879,-113.0
2023-08-16 13:24:42.026568,-110.0
2023-08-16 13:24:42.034258,-108.0
2023-08-16 13:24:42.041947,-108.0
2023-08-16 13:24:42.049636,-108.0
2023-08-16 13:24:42.057326,-105.0
2023-08-16 13:24:42.065015,-103.0
2023-08-16 13:24:42.072705,-101.0
2023-08-16 13:24:42.080394,-98.0
2023-08-16 13:24:42.088084,-98.0
2023-08-16 13:24:42.095773,-101.0
2023-08-16 13:24:42.103463,-96.0
2023-08-16 13:24:42.111152,-93.0
2023-08-16 13:24:42.118842,-93.0
2023-08-16 13:24:42.126531,-96.0
2023-08-16 13:24:42.134221,-103.0
2023-08-16 13:24:42.141910,-108.0
2023-08-16 13:24:42.149600,-110.0
2023-08-16 13:24:42.157289,-103.0
2023-08-16 13:24:42.164979,-86.0
2023-08-16 13:24:42.172668,-72.0
2023-08-16 13:24:42.180357,-72.0
2023-08-16 13:24:42.188047,-74.0
2023-08-16 13:24:42.195736,-72.0
2023-08-16 13:24:42.203426,-84.0
2023-08-16 13:24:42.211115,-103.0
2023-08-16 13:24:42.218805,-110.0
2023-08-16 13:24:42.226494,-110.0
2023-08-16 13:24:42.234184,-113.0
2023-08-16 13:24:42.241873,-108.0
2023-08-16 13:24:42.249563,-98.0
2023-08-16 13:24:42.257252,-96.0
2023-08-16 13:24:42.264942,-98.0
2023-08-16 13:24:42.272631,-76.0
2023-08-16 13:24:42.280321,125.0
2023-08-16 13:24:42.288010,598.0
2023-08-16 13:24:42.295700,1091.0
2023-08-16 13:24:42.303389,1031.0
2023-08-16 13:24:42.311078,257.0
2023-08-16 13:24:42.318768,-367.0
2023-08-16 13:24:42.326457,-283.0
2023-08-16 13:24:42.334147,-117.0
2023-08-16 13:24:42.341836,-206.0
2023-08-16 13:24:42.349526,-216.0
2023-08-16 13:24:42.357215,-149.0
2023-08-16 13:24:42.364905,-163.0
2023-08-16 13:24:42.372594,-177.0
2023-08-16 13:24:42.380284,-146.0
2023-08-16 13:24:42.387973,-139.0
2023-08-16 13:24:42.395663,-144.0
2023-08-16 13:24:42.403352,-134.0
2023-08-16 13:24:42.411042,-125.0
2023-08-16 13:24:42.418731,-117.0
2023-08-16 13:24:42.426421,-108.0
2023-08-16 13:24:42.434110,-96.0
2023-08-16 13:24:42.441800,-88.0
2023-08-16 13:24:42.449489,-79.0
2023-08-16 13:24:42.457178,-67.0
2023-08-16 13:24:42.464868,-55.0
2023-08-16 13:24:42.472557,-36.0
2023-08-16 13:24:42.480247,-9.0
2023-08-16 13:24:42.487936,14.0
2023-08-16 13:24:42.495626,38.0
2023-08-16 13:24:42.503315,69.0
2023-08-16 13:24:42.511005,101.0
2023-08-16 13:24:42.518694,125.0
2023-08-16 13:24:42.526384,139.0
2023-08-16 13:24:42.534073,144.0
2023-08-16 13:24:42.541763,146.0
2023-08-16 13:24:42.549452,146.0
2023-08-16 13:24:42.557142,132.0
2023-08-16 13:24:42.564831,93.0
2023-08-16 13:24:42.572521,36.0
2023-08-16 13:24:42.580210,-31.0
2023-08-16 13:24:42.587899,-96.0
2023-08-16 13:24:42.595589,-141.0
2023-08-16 13:24:42.603278,-165.0
2023-08-16 13:24:42.610968,-182.0
2023-08-16 13:24:42.618657,-194.0
2023-08-16 13:24:42.626347,-199.0
2023-08-16 13:24:42.634036,-202.0
2023-08-16 13:24:42.641726,-202.0
2023-08-16 13:24:42.649415,-197.0
2023-08-16 13:24:42.657105,-185.0
2023-08-16 13:24:42.664794,-180.0
2023-08-16 13:24:42.672484,-185.0
2023-08-16 13:24:42.680173,-182.0
2023-08-16 13:24:42.687863,-168.0
2023-08-16 13:24:42.695552,-158.0
2023-08-16 13:24:42.703242,-153.0
2023-08-16 13:24:42.710931,-149.0
2023-08-16 13:24:42.718620,-144.0
2023-08-16 13:24:42.726310,-139.0
2023-08-16 13:24:42.733999,-137.0
2023-08-16 13:24:42.741689,-141.0
2023-08-16 13:24:42.749378,-144.0
2023-08-16 13:24:42.757068,-141.0
2023-08-16 13:24:42.764757,-139.0
2023-08-16 13:24:42.772447,-137.0
2023-08-16 13:24:42.780136,-137.0
2023-08-16 13:24:42.787826,-134.0
2023-08-16 13:24:42.795515,-132.0
2023-08-16 13:24:42.803205,-132.0
2023-08-16 13:24:42.810894,-129.0
2023-08-16 13:24:42.818584,-125.0
2023-08-16 13:24:42.826273,-122.0
2023-08-16 13:24:42.833963,-122.0
2023-08-16 13:24:42.841652,-120.0
2023-08-16 13:24:42.849342,-117.0
2023-08-16 13:24:42.857031,-120.0
2023-08-16 13:24:42.864720,-115.0
2023-08-16 13:24:42.872410,-113.0
2023-08-16 13:24:42.880099,-113.0
2023-08-16 13:24:42.887789,-110.0
2023-08-16 13:24:42.895478,-108.0
2023-08-16 13:24:42.903168,-110.0
2023-08-16 13:24:42.910857,-108.0
2023-08-16 13:24:42.918547,-103.0
2023-08-16 13:24:42.926236,-105.0
2023-08-16 13:24:42.933926,-108.0
2023-08-16 13:24:42.941615,-108.0
2023-08-16 13:24:42.949305,-103.0
2023-08-16 13:24:42.956994,-91.0
2023-08-16 13:24:42.964684,-69.0
2023-08-16 13:24:42.972373,-52.0
2023-08-16 13:24:42.980063,-50.0
2023-08-16 13:24:42.987752,-57.0
2023-08-16 13:24:42.995441,-69.0
2023-08-16 13:24:43.003131,-84.0
2023-08-16 13:24:43.010820,-91.0
2023-08-16 13:24:43.018510,-93.0
2023-08-16 13:24:43.026199,-86.0
2023-08-16 13:24:43.033889,-86.0
2023-08-16 13:24:43.041578,-86.0
2023-08-16 13:24:43.049268,-81.0
2023-08-16 13:24:43.056957,-74.0
2023-08-16 13:24:43.064647,-62.0
2023-08-16 13:24:43.072336,86.0
2023-08-16 13:24:43.080026,497.0
2023-08-16 13:24:43.087715,990.0
2023-08-16 13:24:43.095405,1062.0
2023-08-16 13:24:43.103094,411.0
2023-08-16 13:24:43.110784,-312.0
2023-08-16 13:24:43.118473,-353.0
2023-08-16 13:24:43.126163,-129.0
2023-08-16 13:24:43.133852,-170.0
2023-08-16 13:24:43.141541,-223.0
2023-08-16 13:24:43.149231,-153.0
2023-08-16 13:24:43.156920,-141.0
2023-08-16 13:24:43.164610,-161.0
2023-08-16 13:24:43.172299,-137.0
2023-08-16 13:24:43.179989,-125.0
2023-08-16 13:24:43.187678,-132.0
2023-08-16 13:24:43.195368,-120.0
2023-08-16 13:24:43.203057,-103.0
2023-08-16 13:24:43.210747,-101.0
2023-08-16 13:24:43.218436,-91.0
2023-08-16 13:24:43.226126,-76.0
2023-08-16 13:24:43.233815,-72.0
2023-08-16 13:24:43.241505,-64.0
2023-08-16 13:24:43.249194,-52.0
2023-08-16 13:24:43.256884,-45.0
2023-08-16 13:24:43.264573,-38.0
2023-08-16 13:24:43.272262,-16.0
2023-08-16 13:24:43.279952,14.0
2023-08-16 13:24:43.287641,40.0
2023-08-16 13:24:43.295331,64.0
2023-08-16 13:24:43.303020,88.0
2023-08-16 13:24:43.310710,105.0
2023-08-16 13:24:43.318399,122.0
2023-08-16 13:24:43.326089,137.0
2023-08-16 13:24:43.333778,139.0
2023-08-16 13:24:43.341468,134.0
2023-08-16 13:24:43.349157,110.0
2023-08-16 13:24:43.356847,69.0
2023-08-16 13:24:43.364536,14.0
2023-08-16 13:24:43.372226,-48.0
2023-08-16 13:24:43.379915,-108.0
2023-08-16 13:24:43.387605,-161.0
2023-08-16 13:24:43.395294,-192.0
2023-08-16 13:24:43.402983,-204.0
2023-08-16 13:24:43.410673,-211.0
2023-08-16 13:24:43.418362,-214.0
2023-08-16 13:24:43.426052,-209.0
2023-08-16 13:24:43.433741,-209.0
2023-08-16 13:24:43.441431,-204.0
2023-08-16 13:24:43.449120,-192.0
2023-08-16 13:24:43.456810,-182.0
2023-08-16 13:24:43.464499,-173.0
2023-08-16 13:24:43.472189,-163.0
2023-08-16 13:24:43.479878,-156.0
2023-08-16 13:24:43.487568,-146.0
2023-08-16 13:24:43.495257,-139.0
2023-08-16 13:24:43.502947,-134.0
2023-08-16 13:24:43.510636,-127.0
2023-08-16 13:24:43.518326,-125.0
2023-08-16 13:24:43.526015,-127.0
2023-08-16 13:24:43.533705,-125.0
2023-08-16 13:24:43.541394,-120.0
2023-08-16 13:24:43.549083,-117.0
2023-08-16 13:24:43.556773,-120.0
2023-08-16 13:24:43.564462,-120.0
2023-08-16 13:24:43.572152,-120.0
2023-08-16 13:24:43.579841,-122.0
2023-08-16 13:24:43.587531,-120.0
2023-08-16 13:24:43.595220,-115.0
2023-08-16 13:24:43.602910,-110.0
2023-08-16 13:24:43.610599,-113.0
2023-08-16 13:24:43.618289,-113.0
2023-08-16 13:24:43.625978,-113.0
2023-08-16 13:24:43.633668,-110.0
2023-08-16 13:24:43.641357,-108.0
2023-08-16 13:24:43.649047,-108.0
2023-08-16 13:24:43.656736,-110.0
2023-08-16 13:24:43.664426,-110.0
2023-08-16 13:24:43.672115,-108.0
2023-08-16 13:24:43.679804,-105.0
2023-08-16 13:24:43.687494,-103.0
2023-08-16 13:24:43.695183,-101.0
2023-08-16 13:24:43.702873,-98.0
2023-08-16 13:24:43.710562,-101.0
2023-08-16 13:24:43.718252,-105.0
2023-08-16 13:24:43.725941,-108.0
2023-08-16 13:24:43.733631,-96.0
2023-08-16 13:24:43.741320,-72.0
2023-08-16 13:24:43.749010,-57.0
2023-08-16 13:24:43.756699,-48.0
2023-08-16 13:24:43.764389,-45.0
2023-08-16 13:24:43.772078,-50.0
2023-08-16 13:24:43.779768,-67.0
2023-08-16 13:24:43.787457,-81.0
2023-08-16 13:24:43.795147,-81.0
2023-08-16 13:24:43.802836,-81.0
2023-08-16 13:24:43.810526,-84.0
2023-08-16 13:24:43.818215,-81.0
2023-08-16 13:24:43.825904,-74.0
2023-08-16 13:24:43.833594,-67.0
2023-08-16 13:24:43.841283,-72.0
2023-08-16 13:24:43.848973,-33.0
2023-08-16 13:24:43.856662,202.0
2023-08-16 13:24:43.864352,694.0
2023-08-16 13:24:43.872041,1135.0
2023-08-16 13:24:43.879731,973.0
2023-08-16 13:24:43.887420,151.0
2023-08-16 13:24:43.895110,-404.0
2023-08-16 13:24:43.902799,-254.0
2023-08-16 13:24:43.910489,-105.0
2023-08-16 13:24:43.918178,-206.0
2023-08-16 13:24:43.925868,-197.0
2023-08-16 13:24:43.933557,-129.0
2023-08-16 13:24:43.941247,-151.0
2023-08-16 13:24:43.948936,-153.0
2023-08-16 13:24:43.956625,-120.0
2023-08-16 13:24:43.964315,-115.0
2023-08-16 13:24:43.972004,-115.0
2023-08-16 13:24:43.979694,-101.0
2023-08-16 13:24:43.987383,-93.0
2023-08-16 13:24:43.995073,-91.0
2023-08-16 13:24:44.002762,-79.0
2023-08-16 13:24:44.010452,-67.0
2023-08-16 13:24:44.018141,-62.0
2023-08-16 13:24:44.025831,-55.0
2023-08-16 13:24:44.033520,-43.0
2023-08-16 13:24:44.041210,-26.0
2023-08-16 13:24:44.048899,-9.0
2023-08-16 13:24:44.056589,14.0
2023-08-16 13:24:44.064278,36.0
2023-08-16 13:24:44.071968,62.0
2023-08-16 13:24:44.079657,88.0
2023-08-16 13:24:44.087346,115.0
2023-08-16 13:24:44.095036,137.0
2023-08-16 13:24:44.102725,151.0
2023-08-16 13:24:44.110415,161.0
2023-08-16 13:24:44.118104,163.0
2023-08-16 13:24:44.125794,153.0
2023-08-16 13:24:44.133483,134.0
2023-08-16 13:24:44.141173,91.0
2023-08-16 13:24:44.148862,24.0
2023-08-16 13:24:44.156552,-48.0
2023-08-16 13:24:44.164241,-105.0
2023-08-16 13:24:44.171931,-144.0
2023-08-16 13:24:44.179620,-170.0
2023-08-16 13:24:44.187310,-182.0
2023-08-16 13:24:44.194999,-185.0
2023-08-16 13:24:44.202689,-185.0
2023-08-16 13:24:44.210378,-185.0
2023-08-16 13:24:44.218068,-180.0
2023-08-16 13:24:44.225757,-175.0
2023-08-16 13:24:44.233446,-168.0
2023-08-16 13:24:44.241136,-161.0
2023-08-16 13:24:44.248825,-153.0
2023-08-16 13:24:44.256515,-149.0
2023-08-16 13:24:44.264204,-141.0
2023-08-16 13:24:44.271894,-137.0
2023-08-16 13:24:44.279583,-129.0
2023-08-16 13:24:44.287273,-125.0
2023-08-16 13:24:44.294962,-122.0
2023-08-16 13:24:44.302652,-120.0
2023-08-16 13:24:44.310341,-120.0
2023-08-16 13:24:44.318031,-117.0
2023-08-16 13:24:44.325720,-115.0
2023-08-16 13:24:44.333410,-115.0
2023-08-16 13:24:44.341099,-117.0
2023-08-16 13:24:44.348789,-120.0
2023-08-16 13:24:44.356478,-117.0
2023-08-16 13:24:44.364167,-120.0
2023-08-16 13:24:44.371857,-125.0
2023-08-16 13:24:44.379546,-127.0
2023-08-16 13:24:44.387236,-129.0
2023-08-16 13:24:44.394925,-129.0
2023-08-16 13:24:44.402615,-127.0
2023-08-16 13:24:44.410304,-122.0
2023-08-16 13:24:44.417994,-120.0
2023-08-16 13:24:44.425683,-117.0
2023-08-16 13:24:44.433373,-117.0
2023-08-16 13:24:44.441062,-115.0
2023-08-16 13:24:44.448752,-113.0
2023-08-16 13:24:44.456441,-110.0
2023-08-16 13:24:44.464131,-105.0
2023-08-16 13:24:44.471820,-105.0
2023-08-16 13:24:44.479510,-105.0
2023-08-16 13:24:44.487199,-101.0
2023-08-16 13:24:44.494888,-98.0
2023-08-16 13:24:44.502578,-93.0
2023-08-16 13:24:44.510267,-91.0
2023-08-16 13:24:44.517957,-93.0
2023-08-16 13:24:44.525646,-93.0
2023-08-16 13:24:44.533336,-91.0
2023-08-16 13:24:44.541025,-93.0
2023-08-16 13:24:44.548715,-96.0
2023-08-16 13:24:44.556404,-86.0
2023-08-16 13:24:44.564094,-67.0
2023-08-16 13:24:44.571783,-50.0
2023-08-16 13:24:44.579473,-40.0
2023-08-16 13:24:44.587162,-38.0
2023-08-16 13:24:44.594852,-43.0
2023-08-16 13:24:44.602541,-57.0
2023-08-16 13:24:44.610231,-74.0
2023-08-16 13:24:44.617920,-79.0
2023-08-16 13:24:44.625610,-79.0
2023-08-16 13:24:44.633299,-79.0
2023-08-16 13:24:44.640988,-76.0
2023-08-16 13:24:44.648678,-74.0
2023-08-16 13:24:44.656367,-74.0
2023-08-16 13:24:44.664057,-79.0
2023-08-16 13:24:44.671746,-67.0
2023-08-16 13:24:44.679436,88.0
2023-08-16 13:24:44.687125,519.0
2023-08-16 13:24:44.694815,1053.0
2023-08-16 13:24:44.702504,1149.0
2023-08-16 13:24:44.710194,478.0
2023-08-16 13:24:44.717883,-264.0
2023-08-16 13:24:44.725573,-310.0
2023-08-16 13:24:44.733262,-101.0
2023-08-16 13:24:44.740952,-158.0
2023-08-16 13:24:44.748641,-214.0
2023-08-16 13:24:44.756331,-141.0
2023-08-16 13:24:44.764020,-132.0
2023-08-16 13:24:44.771709,-156.0
2023-08-16 13:24:44.779399,-129.0
2023-08-16 13:24:44.787088,-113.0
2023-08-16 13:24:44.794778,-117.0
2023-08-16 13:24:44.802467,-108.0
2023-08-16 13:24:44.810157,-96.0
2023-08-16 13:24:44.817846,-88.0
2023-08-16 13:24:44.825536,-81.0
2023-08-16 13:24:44.833225,-72.0
2023-08-16 13:24:44.840915,-64.0
2023-08-16 13:24:44.848604,-52.0
2023-08-16 13:24:44.856294,-43.0
2023-08-16 13:24:44.863983,-33.0
2023-08-16 13:24:44.871673,-16.0
2023-08-16 13:24:44.879362,2.0
2023-08-16 13:24:44.887052,24.0
2023-08-16 13:24:44.894741,48.0
2023-08-16 13:24:44.902431,76.0
2023-08-16 13:24:44.910120,103.0
2023-08-16 13:24:44.917809,122.0
2023-08-16 13:24:44.925499,134.0
2023-08-16 13:24:44.933188,141.0
2023-08-16 13:24:44.940878,156.0
2023-08-16 13:24:44.948567,158.0
2023-08-16 13:24:44.956257,144.0
2023-08-16 13:24:44.963946,108.0
2023-08-16 13:24:44.971636,50.0
2023-08-16 13:24:44.979325,-16.0
2023-08-16 13:24:44.987015,-76.0
2023-08-16 13:24:44.994704,-127.0
2023-08-16 13:24:45.002394,-158.0
2023-08-16 13:24:45.010083,-177.0
2023-08-16 13:24:45.017773,-185.0
2023-08-16 13:24:45.025462,-185.0
2023-08-16 13:24:45.033152,-182.0
2023-08-16 13:24:45.040841,-177.0
2023-08-16 13:24:45.048530,-170.0
2023-08-16 13:24:45.056220,-165.0
2023-08-16 13:24:45.063909,-161.0
2023-08-16 13:24:45.071599,-156.0
2023-08-16 13:24:45.079288,-149.0
2023-08-16 13:24:45.086978,-144.0
2023-08-16 13:24:45.094667,-139.0
2023-08-16 13:24:45.102357,-134.0
2023-08-16 13:24:45.110046,-134.0
2023-08-16 13:24:45.117736,-129.0
2023-08-16 13:24:45.125425,-125.0
2023-08-16 13:24:45.133115,-125.0
2023-08-16 13:24:45.140804,-127.0
2023-08-16 13:24:45.148494,-127.0
2023-08-16 13:24:45.156183,-122.0
2023-08-16 13:24:45.163873,-127.0
2023-08-16 13:24:45.171562,-134.0
2023-08-16 13:24:45.179251,-132.0
2023-08-16 13:24:45.186941,-129.0
2023-08-16 13:24:45.194630,-132.0
2023-08-16 13:24:45.202320,-127.0
2023-08-16 13:24:45.210009,-122.0
2023-08-16 13:24:45.217699,-122.0
2023-08-16 13:24:45.225388,-120.0
2023-08-16 13:24:45.233078,-117.0
2023-08-16 13:24:45.240767,-117.0
2023-08-16 13:24:45.248457,-113.0
2023-08-16 13:24:45.256146,-105.0
2023-08-16 13:24:45.263836,-105.0
2023-08-16 13:24:45.271525,-108.0
2023-08-16 13:24:45.279215,-105.0
2023-08-16 13:24:45.286904,-103.0
2023-08-16 13:24:45.294594,-101.0
2023-08-16 13:24:45.302283,-96.0
2023-08-16 13:24:45.309973,-93.0
2023-08-16 13:24:45.317662,-93.0
2023-08-16 13:24:45.325351,-91.0
2023-08-16 13:24:45.333041,-88.0
2023-08-16 13:24:45.340730,-86.0
2023-08-16 13:24:45.348420,-88.0
2023-08-16 13:24:45.356109,-88.0
2023-08-16 13:24:45.363799,-88.0
2023-08-16 13:24:45.371488,-91.0
2023-08-16 13:24:45.379178,-98.0
2023-08-16 13:24:45.386867,-91.0
2023-08-16 13:24:45.394557,-76.0
2023-08-16 13:24:45.402246,-60.0
2023-08-16 13:24:45.409936,-48.0
2023-08-16 13:24:45.417625,-43.0
2023-08-16 13:24:45.425315,-43.0
2023-08-16 13:24:45.433004,-48.0
2023-08-16 13:24:45.440694,-64.0
2023-08-16 13:24:45.448383,-79.0
2023-08-16 13:24:45.456072,-84.0
2023-08-16 13:24:45.463762,-91.0
2023-08-16 13:24:45.471451,-98.0
2023-08-16 13:24:45.479141,-93.0
2023-08-16 13:24:45.486830,-86.0
2023-08-16 13:24:45.494520,-84.0
2023-08-16 13:24:45.502209,-91.0
2023-08-16 13:24:45.509899,-55.0
2023-08-16 13:24:45.517588,185.0
2023-08-16 13:24:45.525278,694.0
2023-08-16 13:24:45.532967,1144.0
2023-08-16 13:24:45.540657,964.0
2023-08-16 13:24:45.548346,141.0
2023-08-16 13:24:45.556036,-382.0
2023-08-16 13:24:45.563725,-233.0
2023-08-16 13:24:45.571415,-113.0
2023-08-16 13:24:45.579104,-214.0
2023-08-16 13:24:45.586793,-202.0
2023-08-16 13:24:45.594483,-144.0
2023-08-16 13:24:45.602172,-168.0
2023-08-16 13:24:45.609862,-170.0
2023-08-16 13:24:45.617551,-137.0
2023-08-16 13:24:45.625241,-132.0
2023-08-16 13:24:45.632930,-132.0
2023-08-16 13:24:45.640620,-120.0
2023-08-16 13:24:45.648309,-110.0
2023-08-16 13:24:45.655999,-105.0
2023-08-16 13:24:45.663688,-98.0
2023-08-16 13:24:45.671378,-93.0
2023-08-16 13:24:45.679067,-86.0
2023-08-16 13:24:45.686757,-74.0
2023-08-16 13:24:45.694446,-64.0
2023-08-16 13:24:45.702136,-45.0
2023-08-16 13:24:45.709825,-24.0
2023-08-16 13:24:45.717515,-4.0
2023-08-16 13:24:45.725204,19.0
2023-08-16 13:24:45.732893,43.0
2023-08-16 13:24:45.740583,69.0
2023-08-16 13:24:45.748272,98.0
2023-08-16 13:24:45.755962,122.0
2023-08-16 13:24:45.763651,139.0
2023-08-16 13:24:45.771341,146.0
2023-08-16 13:24:45.779030,151.0
2023-08-16 13:24:45.786720,146.0
2023-08-16 13:24:45.794409,129.0
2023-08-16 13:24:45.802099,91.0
2023-08-16 13:24:45.809788,31.0
2023-08-16 13:24:45.817478,-33.0
2023-08-16 13:24:45.825167,-93.0
2023-08-16 13:24:45.832857,-137.0
2023-08-16 13:24:45.840546,-163.0
2023-08-16 13:24:45.848236,-180.0
2023-08-16 13:24:45.855925,-185.0
2023-08-16 13:24:45.863614,-182.0
2023-08-16 13:24:45.871304,-180.0
2023-08-16 13:24:45.878993,-175.0
2023-08-16 13:24:45.886683,-168.0
2023-08-16 13:24:45.894372,-161.0
2023-08-16 13:24:45.902062,-156.0
2023-08-16 13:24:45.909751,-151.0
2023-08-16 13:24:45.917441,-146.0
2023-08-16 13:24:45.925130,-141.0
2023-08-16 13:24:45.932820,-132.0
2023-08-16 13:24:45.940509,-127.0
2023-08-16 13:24:45.948199,-122.0
2023-08-16 13:24:45.955888,-120.0
2023-08-16 13:24:45.963578,-117.0
2023-08-16 13:24:45.971267,-117.0
2023-08-16 13:24:45.978957,-115.0
2023-08-16 13:24:45.986646,-113.0
2023-08-16 13:24:45.994336,-110.0
2023-08-16 13:24:46.002025,-113.0
2023-08-16 13:24:46.009714,-115.0
2023-08-16 13:24:46.017404,-115.0
2023-08-16 13:24:46.025093,-113.0
2023-08-16 13:24:46.032783,-113.0
2023-08-16 13:24:46.040472,-113.0
2023-08-16 13:24:46.048162,-120.0
2023-08-16 13:24:46.055851,-127.0
2023-08-16 13:24:46.063541,-125.0
2023-08-16 13:24:46.071230,-120.0
2023-08-16 13:24:46.078920,-117.0
2023-08-16 13:24:46.086609,-117.0
2023-08-16 13:24:46.094299,-120.0
2023-08-16 13:24:46.101988,-120.0
2023-08-16 13:24:46.109678,-115.0
2023-08-16 13:24:46.117367,-113.0
2023-08-16 13:24:46.125057,-110.0
2023-08-16 13:24:46.132746,-113.0
2023-08-16 13:24:46.140435,-117.0
2023-08-16 13:24:46.148125,-120.0
2023-08-16 13:24:46.155814,-115.0
2023-08-16 13:24:46.163504,-113.0
2023-08-16 13:24:46.171193,-113.0
2023-08-16 13:24:46.178883,-117.0
2023-08-16 13:24:46.186572,-117.0
2023-08-16 13:24:46.194262,-113.0
2023-08-16 13:24:46.201951,-113.0
2023-08-16 13:24:46.209641,-113.0
2023-08-16 13:24:46.217330,-115.0
2023-08-16 13:24:46.225020,-108.0
2023-08-16 13:24:46.232709,-93.0
2023-08-16 13:24:46.240399,-74.0
2023-08-16 13:24:46.248088,-60.0
2023-08-16 13:24:46.255778,-52.0
2023-08-16 13:24:46.263467,-52.0
2023-08-16 13:24:46.271156,-67.0
2023-08-16 13:24:46.278846,-86.0
2023-08-16 13:24:46.286535,-93.0
2023-08-16 13:24:46.294225,-91.0
2023-08-16 13:24:46.301914,-88.0
2023-08-16 13:24:46.309604,-88.0
2023-08-16 13:24:46.317293,-84.0
2023-08-16 13:24:46.324983,-81.0
2023-08-16 13:24:46.332672,-81.0
2023-08-16 13:24:46.340362,-84.0
2023-08-16 13:24:46.348051,7.0
2023-08-16 13:24:46.355741,348.0
2023-08-16 13:24:46.363430,882.0
2023-08-16 13:24:46.371120,1166.0
2023-08-16 13:24:46.378809,702.0
2023-08-16 13:24:46.386499,-122.0
2023-08-16 13:24:46.394188,-363.0
2023-08-16 13:24:46.401878,-137.0
2023-08-16 13:24:46.409567,-129.0
2023-08-16 13:24:46.417256,-216.0
2023-08-16 13:24:46.424946,-158.0
2023-08-16 13:24:46.432635,-127.0
2023-08-16 13:24:46.440325,-153.0
2023-08-16 13:24:46.448014,-134.0
2023-08-16 13:24:46.455704,-113.0
2023-08-16 13:24:46.463393,-113.0
2023-08-16 13:24:46.471083,-105.0
2023-08-16 13:24:46.478772,-91.0
2023-08-16 13:24:46.486462,-84.0
2023-08-16 13:24:46.494151,-79.0
2023-08-16 13:24:46.501841,-69.0
2023-08-16 13:24:46.509530,-60.0
2023-08-16 13:24:46.517220,-50.0
2023-08-16 13:24:46.524909,-45.0
2023-08-16 13:24:46.532599,-33.0
2023-08-16 13:24:46.540288,-14.0
2023-08-16 13:24:46.547977,0.0
2023-08-16 13:24:46.555667,21.0
2023-08-16 13:24:46.563356,50.0
2023-08-16 13:24:46.571046,76.0
2023-08-16 13:24:46.578735,101.0
2023-08-16 13:24:46.586425,125.0
2023-08-16 13:24:46.594114,141.0
2023-08-16 13:24:46.601804,153.0
2023-08-16 13:24:46.609493,161.0
2023-08-16 13:24:46.617183,161.0
2023-08-16 13:24:46.624872,153.0
2023-08-16 13:24:46.632562,122.0
2023-08-16 13:24:46.640251,67.0
2023-08-16 13:24:46.647941,2.0
2023-08-16 13:24:46.655630,-62.0
2023-08-16 13:24:46.663320,-115.0
2023-08-16 13:24:46.671009,-156.0
2023-08-16 13:24:46.678699,-182.0
2023-08-16 13:24:46.686388,-199.0
2023-08-16 13:24:46.694077,-204.0
2023-08-16 13:24:46.701767,-202.0
2023-08-16 13:24:46.709456,-199.0
2023-08-16 13:24:46.717146,-197.0
2023-08-16 13:24:46.724835,-199.0
2023-08-16 13:24:46.732525,-197.0
2023-08-16 13:24:46.740214,-185.0
2023-08-16 13:24:46.747904,-177.0
2023-08-16 13:24:46.755593,-170.0
2023-08-16 13:24:46.763283,-161.0
2023-08-16 13:24:46.770972,-156.0
2023-08-16 13:24:46.778662,-151.0
2023-08-16 13:24:46.786351,-144.0
2023-08-16 13:24:46.794041,-139.0
2023-08-16 13:24:46.801730,-139.0
2023-08-16 13:24:46.809420,-137.0
2023-08-16 13:24:46.817109,-134.0
2023-08-16 13:24:46.824798,-137.0
2023-08-16 13:24:46.832488,-137.0
2023-08-16 13:24:46.840177,-137.0
2023-08-16 13:24:46.847867,-134.0
2023-08-16 13:24:46.855556,-132.0
2023-08-16 13:24:46.863246,-129.0
2023-08-16 13:24:46.870935,-127.0
2023-08-16 13:24:46.878625,-125.0
2023-08-16 13:24:46.886314,-122.0
2023-08-16 13:24:46.894004,-122.0
2023-08-16 13:24:46.901693,-120.0
2023-08-16 13:24:46.909383,-115.0
2023-08-16 13:24:46.917072,-113.0
2023-08-16 13:24:46.924762,-110.0
2023-08-16 13:24:46.932451,-110.0
2023-08-16 13:24:46.940141,-108.0
2023-08-16 13:24:46.947830,-105.0
2023-08-16 13:24:46.955519,-105.0
2023-08-16 13:24:46.963209,-101.0
2023-08-16 13:24:46.970898,-93.0
2023-08-16 13:24:46.978588,-93.0
2023-08-16 13:24:46.986277,-93.0
2023-08-16 13:24:46.993967,-93.0
2023-08-16 13:24:47.001656,-91.0
2023-08-16 13:24:47.009346,-88.0
2023-08-16 13:24:47.017035,-86.0
2023-08-16 13:24:47.024725,-86.0
2023-08-16 13:24:47.032414,-88.0
2023-08-16 13:24:47.040104,-96.0
2023-08-16 13:24:47.047793,-96.0
2023-08-16 13:24:47.055483,-79.0
2023-08-16 13:24:47.063172,-57.0
2023-08-16 13:24:47.070862,-48.0
2023-08-16 13:24:47.078551,-48.0
2023-08-16 13:24:47.086241,-50.0
2023-08-16 13:24:47.093930,-57.0
2023-08-16 13:24:47.101619,-72.0
2023-08-16 13:24:47.109309,-84.0
2023-08-16 13:24:47.116998,-81.0
2023-08-16 13:24:47.124688,-81.0
2023-08-16 13:24:47.132377,-86.0
2023-08-16 13:24:47.140067,-84.0
2023-08-16 13:24:47.147756,-76.0
2023-08-16 13:24:47.155446,-76.0
2023-08-16 13:24:47.163135,-81.0
2023-08-16 13:24:47.170825,-31.0
2023-08-16 13:24:47.178514,235.0
2023-08-16 13:24:47.186204,747.0
2023-08-16 13:24:47.193893,1142.0
2023-08-16 13:24:47.201583,868.0
2023-08-16 13:24:47.209272,31.0
2023-08-16 13:24:47.216962,-413.0
2023-08-16 13:24:47.224651,-233.0
2023-08-16 13:24:47.232340,-137.0
2023-08-16 13:24:47.240030,-233.0
2023-08-16 13:24:47.247719,-202.0
2023-08-16 13:24:47.255409,-146.0
2023-08-16 13:24:47.263098,-180.0
2023-08-16 13:24:47.270788,-185.0
2023-08-16 13:24:47.278477,-151.0
2023-08-16 13:24:47.286167,-144.0
2023-08-16 13:24:47.293856,-139.0
2023-08-16 13:24:47.301546,-127.0
2023-08-16 13:24:47.309235,-125.0
2023-08-16 13:24:47.316925,-125.0
2023-08-16 13:24:47.324614,-115.0
2023-08-16 13:24:47.332304,-103.0
2023-08-16 13:24:47.339993,-88.0
2023-08-16 13:24:47.347683,-79.0
2023-08-16 13:24:47.355372,-67.0
2023-08-16 13:24:47.363061,-52.0
2023-08-16 13:24:47.370751,-33.0
2023-08-16 13:24:47.378440,-12.0
2023-08-16 13:24:47.386130,12.0
2023-08-16 13:24:47.393819,40.0
2023-08-16 13:24:47.401509,69.0
2023-08-16 13:24:47.409198,98.0
2023-08-16 13:24:47.416888,127.0
2023-08-16 13:24:47.424577,144.0
2023-08-16 13:24:47.432267,153.0
2023-08-16 13:24:47.439956,153.0
2023-08-16 13:24:47.447646,146.0
2023-08-16 13:24:47.455335,127.0
2023-08-16 13:24:47.463025,84.0
2023-08-16 13:24:47.470714,19.0
2023-08-16 13:24:47.478404,-48.0
2023-08-16 13:24:47.486093,-105.0
2023-08-16 13:24:47.493783,-151.0
2023-08-16 13:24:47.501472,-177.0
2023-08-16 13:24:47.509161,-192.0
2023-08-16 13:24:47.516851,-197.0
2023-08-16 13:24:47.524540,-197.0
2023-08-16 13:24:47.532230,-192.0
2023-08-16 13:24:47.539919,-189.0
2023-08-16 13:24:47.547609,-182.0
2023-08-16 13:24:47.555298,-173.0
2023-08-16 13:24:47.562988,-165.0
2023-08-16 13:24:47.570677,-161.0
2023-08-16 13:24:47.578367,-156.0
2023-08-16 13:24:47.586056,-149.0
2023-08-16 13:24:47.593746,-139.0
2023-08-16 13:24:47.601435,-134.0
2023-08-16 13:24:47.609125,-129.0
2023-08-16 13:24:47.616814,-125.0
2023-08-16 13:24:47.624504,-125.0
2023-08-16 13:24:47.632193,-122.0
2023-08-16 13:24:47.639882,-120.0
2023-08-16 13:24:47.647572,-120.0
2023-08-16 13:24:47.655261,-117.0
2023-08-16 13:24:47.662951,-115.0
2023-08-16 13:24:47.670640,-117.0
2023-08-16 13:24:47.678330,-117.0
2023-08-16 13:24:47.686019,-115.0
2023-08-16 13:24:47.693709,-117.0
2023-08-16 13:24:47.701398,-120.0
2023-08-16 13:24:47.709088,-115.0
2023-08-16 13:24:47.716777,-115.0
2023-08-16 13:24:47.724467,-115.0
2023-08-16 13:24:47.732156,-108.0
2023-08-16 13:24:47.739846,-105.0
2023-08-16 13:24:47.747535,-103.0
2023-08-16 13:24:47.755225,-103.0
2023-08-16 13:24:47.762914,-108.0
2023-08-16 13:24:47.770604,-108.0
2023-08-16 13:24:47.778293,-98.0
2023-08-16 13:24:47.785982,-96.0
2023-08-16 13:24:47.793672,-96.0
2023-08-16 13:24:47.801361,-98.0
2023-08-16 13:24:47.809051,-105.0
2023-08-16 13:24:47.816740,-113.0
2023-08-16 13:24:47.824430,-115.0
2023-08-16 13:24:47.832119,-110.0
2023-08-16 13:24:47.839809,-93.0
2023-08-16 13:24:47.847498,-81.0
2023-08-16 13:24:47.855188,-72.0
2023-08-16 13:24:47.862877,-60.0
2023-08-16 13:24:47.870567,-57.0
2023-08-16 13:24:47.878256,-69.0
2023-08-16 13:24:47.885946,-84.0
2023-08-16 13:24:47.893635,-91.0
2023-08-16 13:24:47.901325,-91.0
2023-08-16 13:24:47.909014,-91.0
2023-08-16 13:24:47.916703,-91.0
2023-08-16 13:24:47.924393,-84.0
2023-08-16 13:24:47.932082,-76.0
2023-08-16 13:24:47.939772,-81.0
2023-08-16 13:24:47.947461,-81.0
2023-08-16 13:24:47.955151,2.0
2023-08-16 13:24:47.962840,322.0
2023-08-16 13:24:47.970530,844.0
2023-08-16 13:24:47.978219,1161.0
2023-08-16 13:24:47.985909,769.0
2023-08-16 13:24:47.993598,-76.0
2023-08-16 13:24:48.001288,-406.0
2023-08-16 13:24:48.008977,-165.0
2023-08-16 13:24:48.016667,-105.0
2023-08-16 13:24:48.024356,-214.0
2023-08-16 13:24:48.032046,-163.0
2023-08-16 13:24:48.039735,-110.0
2023-08-16 13:24:48.047424,-141.0
2023-08-16 13:24:48.055114,-139.0
2023-08-16 13:24:48.062803,-110.0
2023-08-16 13:24:48.070493,-113.0
2023-08-16 13:24:48.078182,-117.0
2023-08-16 13:24:48.085872,-98.0
2023-08-16 13:24:48.093561,-88.0
2023-08-16 13:24:48.101251,-81.0
2023-08-16 13:24:48.108940,-72.0
2023-08-16 13:24:48.116630,-67.0
2023-08-16 13:24:48.124319,-60.0
2023-08-16 13:24:48.132009,-48.0
2023-08-16 13:24:48.139698,-38.0
2023-08-16 13:24:48.147388,-21.0
2023-08-16 13:24:48.155077,-2.0
2023-08-16 13:24:48.162767,14.0
2023-08-16 13:24:48.170456,36.0
2023-08-16 13:24:48.178146,67.0
2023-08-16 13:24:48.185835,93.0
2023-08-16 13:24:48.193524,110.0
2023-08-16 13:24:48.201214,127.0
2023-08-16 13:24:48.208903,139.0
2023-08-16 13:24:48.216593,146.0
2023-08-16 13:24:48.224282,149.0
2023-08-16 13:24:48.231972,139.0
2023-08-16 13:24:48.239661,115.0
2023-08-16 13:24:48.247351,64.0
2023-08-16 13:24:48.255040,-2.0
2023-08-16 13:24:48.262730,-67.0
2023-08-16 13:24:48.270419,-117.0
2023-08-16 13:24:48.278109,-153.0
2023-08-16 13:24:48.285798,-177.0
2023-08-16 13:24:48.293488,-194.0
2023-08-16 13:24:48.301177,-211.0
2023-08-16 13:24:48.308867,-216.0
2023-08-16 13:24:48.316556,-214.0
2023-08-16 13:24:48.324245,-206.0
2023-08-16 13:24:48.331935,-194.0
2023-08-16 13:24:48.339624,-197.0
2023-08-16 13:24:48.347314,-202.0
2023-08-16 13:24:48.355003,-189.0
2023-08-16 13:24:48.362693,-175.0
2023-08-16 13:24:48.370382,-170.0
2023-08-16 13:24:48.378072,-165.0
2023-08-16 13:24:48.385761,-165.0
2023-08-16 13:24:48.393451,-170.0
2023-08-16 13:24:48.401140,-165.0
2023-08-16 13:24:48.408830,-156.0
2023-08-16 13:24:48.416519,-156.0
2023-08-16 13:24:48.424209,-153.0
2023-08-16 13:24:48.431898,-151.0
2023-08-16 13:24:48.439588,-146.0
2023-08-16 13:24:48.447277,-144.0
2023-08-16 13:24:48.454966,-141.0
2023-08-16 13:24:48.462656,-139.0
2023-08-16 13:24:48.470345,-134.0
2023-08-16 13:24:48.478035,-132.0
2023-08-16 13:24:48.485724,-132.0
2023-08-16 13:24:48.493414,-127.0
2023-08-16 13:24:48.501103,-122.0
2023-08-16 13:24:48.508793,-120.0
2023-08-16 13:24:48.516482,-120.0
2023-08-16 13:24:48.524172,-115.0
2023-08-16 13:24:48.531861,-110.0
2023-08-16 13:24:48.539551,-105.0
2023-08-16 13:24:48.547240,-101.0
2023-08-16 13:24:48.554930,-103.0
2023-08-16 13:24:48.562619,-103.0
2023-08-16 13:24:48.570309,-96.0
2023-08-16 13:24:48.577998,-93.0
2023-08-16 13:24:48.585688,-88.0
2023-08-16 13:24:48.593377,-84.0
2023-08-16 13:24:48.601066,-79.0
2023-08-16 13:24:48.608756,-76.0
2023-08-16 13:24:48.616445,-76.0
2023-08-16 13:24:48.624135,-74.0
2023-08-16 13:24:48.631824,-72.0
2023-08-16 13:24:48.639514,-72.0
2023-08-16 13:24:48.647203,-74.0
2023-08-16 13:24:48.654893,-67.0
2023-08-16 13:24:48.662582,-48.0
2023-08-16 13:24:48.670272,-31.0
2023-08-16 13:24:48.677961,-21.0
2023-08-16 13:24:48.685651,-19.0
2023-08-16 13:24:48.693340,-26.0
2023-08-16 13:24:48.701030,-48.0
2023-08-16 13:24:48.708719,-64.0
2023-08-16 13:24:48.716409,-67.0
2023-08-16 13:24:48.724098,-64.0
2023-08-16 13:24:48.731787,-67.0
2023-08-16 13:24:48.739477,-64.0
2023-08-16 13:24:48.747166,-64.0
2023-08-16 13:24:48.754856,-62.0
2023-08-16 13:24:48.762545,-64.0
2023-08-16 13:24:48.770235,-45.0
2023-08-16 13:24:48.777924,137.0
2023-08-16 13:24:48.785614,577.0
2023-08-16 13:24:48.793303,1070.0
2023-08-16 13:24:48.800993,1062.0
2023-08-16 13:24:48.808682,329.0
2023-08-16 13:24:48.816372,-329.0
2023-08-16 13:24:48.824061,-278.0
2023-08-16 13:24:48.831751,-98.0
2023-08-16 13:24:48.839440,-185.0
2023-08-16 13:24:48.847130,-214.0
2023-08-16 13:24:48.854819,-137.0
2023-08-16 13:24:48.862509,-141.0
2023-08-16 13:24:48.870198,-161.0
2023-08-16 13:24:48.877887,-137.0
2023-08-16 13:24:48.885577,-132.0
2023-08-16 13:24:48.893266,-137.0
2023-08-16 13:24:48.900956,-120.0
2023-08-16 13:24:48.908645,-108.0
2023-08-16 13:24:48.916335,-105.0
2023-08-16 13:24:48.924024,-98.0
2023-08-16 13:24:48.931714,-88.0
2023-08-16 13:24:48.939403,-79.0
2023-08-16 13:24:48.947093,-67.0
2023-08-16 13:24:48.954782,-55.0
2023-08-16 13:24:48.962472,-45.0
2023-08-16 13:24:48.970161,-31.0
2023-08-16 13:24:48.977851,-12.0
2023-08-16 13:24:48.985540,12.0
2023-08-16 13:24:48.993230,38.0
2023-08-16 13:24:49.000919,67.0
2023-08-16 13:24:49.008608,93.0
2023-08-16 13:24:49.016298,115.0
2023-08-16 13:24:49.023987,132.0
2023-08-16 13:24:49.031677,141.0
2023-08-16 13:24:49.039366,146.0
2023-08-16 13:24:49.047056,144.0
2023-08-16 13:24:49.054745,129.0
2023-08-16 13:24:49.062435,96.0
2023-08-16 13:24:49.070124,45.0
2023-08-16 13:24:49.077814,-16.0
2023-08-16 13:24:49.085503,-72.0
2023-08-16 13:24:49.093193,-115.0
2023-08-16 13:24:49.100882,-149.0
2023-08-16 13:24:49.108572,-168.0
2023-08-16 13:24:49.116261,-175.0
2023-08-16 13:24:49.123951,-175.0
2023-08-16 13:24:49.131640,-175.0
2023-08-16 13:24:49.139329,-170.0
2023-08-16 13:24:49.147019,-168.0
2023-08-16 13:24:49.154708,-165.0
2023-08-16 13:24:49.162398,-158.0
2023-08-16 13:24:49.170087,-149.0
2023-08-16 13:24:49.177777,-141.0
2023-08-16 13:24:49.185466,-134.0
2023-08-16 13:24:49.193156,-127.0
2023-08-16 13:24:49.200845,-127.0
2023-08-16 13:24:49.208535,-129.0
2023-08-16 13:24:49.216224,-129.0
2023-08-16 13:24:49.223914,-122.0
2023-08-16 13:24:49.231603,-120.0
2023-08-16 13:24:49.239293,-120.0
2023-08-16 13:24:49.246982,-120.0
2023-08-16 13:24:49.254672,-120.0
2023-08-16 13:24:49.262361,-117.0
2023-08-16 13:24:49.270051,-115.0
2023-08-16 13:24:49.277740,-113.0
2023-08-16 13:24:49.285429,-113.0
2023-08-16 13:24:49.293119,-115.0
2023-08-16 13:24:49.300808,-115.0
2023-08-16 13:24:49.308498,-110.0
2023-08-16 13:24:49.316187,-108.0
2023-08-16 13:24:49.323877,-105.0
2023-08-16 13:24:49.331566,-105.0
2023-08-16 13:24:49.339256,-105.0
2023-08-16 13:24:49.346945,-101.0
2023-08-16 13:24:49.354635,-96.0
2023-08-16 13:24:49.362324,-96.0
2023-08-16 13:24:49.370014,-93.0
2023-08-16 13:24:49.377703,-93.0
2023-08-16 13:24:49.385393,-93.0
2023-08-16 13:24:49.393082,-91.0
2023-08-16 13:24:49.400772,-86.0
2023-08-16 13:24:49.408461,-86.0
2023-08-16 13:24:49.416150,-88.0
2023-08-16 13:24:49.423840,-96.0
2023-08-16 13:24:49.431529,-105.0
2023-08-16 13:24:49.439219,-103.0
2023-08-16 13:24:49.446908,-91.0
2023-08-16 13:24:49.454598,-74.0
2023-08-16 13:24:49.462287,-60.0
2023-08-16 13:24:49.469977,-50.0
2023-08-16 13:24:49.477666,-48.0
2023-08-16 13:24:49.485356,-52.0
2023-08-16 13:24:49.493045,-64.0
2023-08-16 13:24:49.500735,-79.0
2023-08-16 13:24:49.508424,-84.0
2023-08-16 13:24:49.516114,-81.0
2023-08-16 13:24:49.523803,-84.0
2023-08-16 13:24:49.531493,-81.0
2023-08-16 13:24:49.539182,-79.0
2023-08-16 13:24:49.546872,-79.0
2023-08-16 13:24:49.554561,-79.0
2023-08-16 13:24:49.562250,-62.0
2023-08-16 13:24:49.569940,103.0
2023-08-16 13:24:49.577629,533.0
2023-08-16 13:24:49.585319,1041.0
2023-08-16 13:24:49.593008,1086.0
2023-08-16 13:24:49.600698,384.0
2023-08-16 13:24:49.608387,-307.0
2023-08-16 13:24:49.616077,-295.0
2023-08-16 13:24:49.623766,-96.0
2023-08-16 13:24:49.631456,-165.0
2023-08-16 13:24:49.639145,-202.0
2023-08-16 13:24:49.646835,-129.0
2023-08-16 13:24:49.654524,-132.0
2023-08-16 13:24:49.662214,-149.0
2023-08-16 13:24:49.669903,-120.0
2023-08-16 13:24:49.677593,-108.0
2023-08-16 13:24:49.685282,-110.0
2023-08-16 13:24:49.692971,-101.0
2023-08-16 13:24:49.700661,-91.0
2023-08-16 13:24:49.708350,-93.0
2023-08-16 13:24:49.716040,-88.0
2023-08-16 13:24:49.723729,-74.0
2023-08-16 13:24:49.731419,-62.0
2023-08-16 13:24:49.739108,-57.0
2023-08-16 13:24:49.746798,-48.0
2023-08-16 13:24:49.754487,-31.0
2023-08-16 13:24:49.762177,-14.0
2023-08-16 13:24:49.769866,4.0
2023-08-16 13:24:49.777556,28.0
2023-08-16 13:24:49.785245,52.0
2023-08-16 13:24:49.792935,74.0
2023-08-16 13:24:49.800624,103.0
2023-08-16 13:24:49.808314,127.0
2023-08-16 13:24:49.816003,144.0
2023-08-16 13:24:49.823692,153.0
2023-08-16 13:24:49.831382,156.0
2023-08-16 13:24:49.839071,153.0
2023-08-16 13:24:49.846761,139.0
2023-08-16 13:24:49.854450,105.0
2023-08-16 13:24:49.862140,48.0
2023-08-16 13:24:49.869829,-16.0
2023-08-16 13:24:49.877519,-79.0
2023-08-16 13:24:49.885208,-127.0
2023-08-16 13:24:49.892898,-158.0
2023-08-16 13:24:49.900587,-173.0
2023-08-16 13:24:49.908277,-175.0
2023-08-16 13:24:49.915966,-180.0
2023-08-16 13:24:49.923656,-182.0
2023-08-16 13:24:49.931345,-173.0
2023-08-16 13:24:49.939035,-163.0
2023-08-16 13:24:49.946724,-153.0
2023-08-16 13:24:49.954414,-151.0
2023-08-16 13:24:49.962103,-149.0
2023-08-16 13:24:49.969792,-144.0
2023-08-16 13:24:49.977482,-137.0
2023-08-16 13:24:49.985171,-134.0
2023-08-16 13:24:49.992861,-127.0
2023-08-16 13:24:50.000550,-122.0
2023-08-16 13:24:50.008240,-129.0
2023-08-16 13:24:50.015929,-137.0
2023-08-16 13:24:50.023619,-132.0
2023-08-16 13:24:50.031308,-129.0
2023-08-16 13:24:50.038998,-127.0
2023-08-16 13:24:50.046687,-129.0
2023-08-16 13:24:50.054377,-139.0
2023-08-16 13:24:50.062066,-144.0
2023-08-16 13:24:50.069756,-139.0
2023-08-16 13:24:50.077445,-137.0
2023-08-16 13:24:50.085135,-134.0
2023-08-16 13:24:50.092824,-134.0
2023-08-16 13:24:50.100513,-141.0
2023-08-16 13:24:50.108203,-141.0
2023-08-16 13:24:50.115892,-134.0
2023-08-16 13:24:50.123582,-129.0
2023-08-16 13:24:50.131271,-125.0
2023-08-16 13:24:50.138961,-117.0
2023-08-16 13:24:50.146650,-120.0
2023-08-16 13:24:50.154340,-122.0
2023-08-16 13:24:50.162029,-117.0
2023-08-16 13:24:50.169719,-113.0
2023-08-16 13:24:50.177408,-108.0
2023-08-16 13:24:50.185098,-105.0
2023-08-16 13:24:50.192787,-108.0
2023-08-16 13:24:50.200477,-105.0
2023-08-16 13:24:50.208166,-108.0
2023-08-16 13:24:50.215856,-113.0
2023-08-16 13:24:50.223545,-105.0
2023-08-16 13:24:50.231234,-84.0
2023-08-16 13:24:50.238924,-67.0
2023-08-16 13:24:50.246613,-57.0
2023-08-16 13:24:50.254303,-57.0
2023-08-16 13:24:50.261992,-69.0
2023-08-16 13:24:50.269682,-86.0
2023-08-16 13:24:50.277371,-96.0
2023-08-16 13:24:50.285061,-98.0
2023-08-16 13:24:50.292750,-93.0
2023-08-16 13:24:50.300440,-88.0
2023-08-16 13:24:50.308129,-88.0
2023-08-16 13:24:50.315819,-84.0
2023-08-16 13:24:50.323508,-76.0
2023-08-16 13:24:50.331198,-76.0
2023-08-16 13:24:50.338887,-2.0
2023-08-16 13:24:50.346577,307.0
2023-08-16 13:24:50.354266,822.0
2023-08-16 13:24:50.361956,1142.0
2023-08-16 13:24:50.369645,759.0
2023-08-16 13:24:50.377334,-69.0
2023-08-16 13:24:50.385024,-401.0
2023-08-16 13:24:50.392713,-177.0
2023-08-16 13:24:50.400403,-115.0
2023-08-16 13:24:50.408092,-209.0
2023-08-16 13:24:50.415782,-161.0
2023-08-16 13:24:50.423471,-113.0
2023-08-16 13:24:50.431161,-139.0
2023-08-16 13:24:50.438850,-132.0
2023-08-16 13:24:50.446540,-105.0
2023-08-16 13:24:50.454229,-103.0
2023-08-16 13:24:50.461919,-101.0
2023-08-16 13:24:50.469608,-86.0
2023-08-16 13:24:50.477298,-79.0
2023-08-16 13:24:50.484987,-72.0
2023-08-16 13:24:50.492677,-60.0
2023-08-16 13:24:50.500366,-50.0
2023-08-16 13:24:50.508055,-45.0
2023-08-16 13:24:50.515745,-36.0
2023-08-16 13:24:50.523434,-21.0
2023-08-16 13:24:50.531124,-9.0
2023-08-16 13:24:50.538813,7.0
2023-08-16 13:24:50.546503,26.0
2023-08-16 13:24:50.554192,45.0
2023-08-16 13:24:50.561882,72.0
2023-08-16 13:24:50.569571,101.0
2023-08-16 13:24:50.577261,127.0
2023-08-16 13:24:50.584950,149.0
2023-08-16 13:24:50.592640,158.0
2023-08-16 13:24:50.600329,158.0
2023-08-16 13:24:50.608019,165.0
2023-08-16 13:24:50.615708,163.0
2023-08-16 13:24:50.623398,129.0
2023-08-16 13:24:50.631087,74.0
2023-08-16 13:24:50.638777,9.0
2023-08-16 13:24:50.646466,-55.0
2023-08-16 13:24:50.654155,-108.0
2023-08-16 13:24:50.661845,-144.0
2023-08-16 13:24:50.669534,-168.0
2023-08-16 13:24:50.677224,-182.0
2023-08-16 13:24:50.684913,-189.0
2023-08-16 13:24:50.692603,-185.0
2023-08-16 13:24:50.700292,-177.0
2023-08-16 13:24:50.707982,-175.0
2023-08-16 13:24:50.715671,-175.0
2023-08-16 13:24:50.723361,-175.0
2023-08-16 13:24:50.731050,-170.0
2023-08-16 13:24:50.738740,-158.0
2023-08-16 13:24:50.746429,-149.0
2023-08-16 13:24:50.754119,-144.0
2023-08-16 13:24:50.761808,-137.0
2023-08-16 13:24:50.769498,-132.0
2023-08-16 13:24:50.777187,-132.0
2023-08-16 13:24:50.784876,-132.0
2023-08-16 13:24:50.792566,-127.0
2023-08-16 13:24:50.800255,-120.0
2023-08-16 13:24:50.807945,-120.0
2023-08-16 13:24:50.815634,-127.0
2023-08-16 13:24:50.823324,-132.0
2023-08-16 13:24:50.831013,-129.0
2023-08-16 13:24:50.838703,-127.0
2023-08-16 13:24:50.846392,-127.0
2023-08-16 13:24:50.854082,-125.0
2023-08-16 13:24:50.861771,-122.0
2023-08-16 13:24:50.869461,-122.0
2023-08-16 13:24:50.877150,-122.0
2023-08-16 13:24:50.884840,-115.0
2023-08-16 13:24:50.892529,-110.0
2023-08-16 13:24:50.900219,-113.0
2023-08-16 13:24:50.907908,-113.0
2023-08-16 13:24:50.915597,-113.0
2023-08-16 13:24:50.923287,-110.0
2023-08-16 13:24:50.930976,-110.0
2023-08-16 13:24:50.938666,-115.0
2023-08-16 13:24:50.946355,-115.0
2023-08-16 13:24:50.954045,-105.0
2023-08-16 13:24:50.961734,-84.0
2023-08-16 13:24:50.969424,-64.0
2023-08-16 13:24:50.977113,-57.0
2023-08-16 13:24:50.984803,-55.0
2023-08-16 13:24:50.992492,-69.0
2023-08-16 13:24:51.000182,-88.0
2023-08-16 13:24:51.007871,-96.0
2023-08-16 13:24:51.015561,-93.0
2023-08-16 13:24:51.023250,-96.0
2023-08-16 13:24:51.030940,-98.0
2023-08-16 13:24:51.038629,-91.0
2023-08-16 13:24:51.046319,-88.0
2023-08-16 13:24:51.054008,-86.0
2023-08-16 13:24:51.061697,-86.0
2023-08-16 13:24:51.069387,-33.0
2023-08-16 13:24:51.077076,230.0
2023-08-16 13:24:51.084766,731.0
2023-08-16 13:24:51.092455,1127.0
2023-08-16 13:24:51.100145,884.0
2023-08-16 13:24:51.107834,57.0
2023-08-16 13:24:51.115524,-416.0
2023-08-16 13:24:51.123213,-230.0
2023-08-16 13:24:51.130903,-113.0
2023-08-16 13:24:51.138592,-218.0
2023-08-16 13:24:51.146282,-192.0
2023-08-16 13:24:51.153971,-125.0
2023-08-16 13:24:51.161661,-144.0
2023-08-16 13:24:51.169350,-144.0
2023-08-16 13:24:51.177040,-113.0
2023-08-16 13:24:51.184729,-113.0
2023-08-16 13:24:51.192418,-110.0
2023-08-16 13:24:51.200108,-91.0
2023-08-16 13:24:51.207797,-84.0
2023-08-16 13:24:51.215487,-81.0
2023-08-16 13:24:51.223176,-72.0
2023-08-16 13:24:51.230866,-64.0
2023-08-16 13:24:51.238555,-55.0
2023-08-16 13:24:51.246245,-40.0
2023-08-16 13:24:51.253934,-28.0
2023-08-16 13:24:51.261624,-19.0
2023-08-16 13:24:51.269313,-4.0
2023-08-16 13:24:51.277003,16.0
2023-08-16 13:24:51.284692,43.0
2023-08-16 13:24:51.292382,72.0
2023-08-16 13:24:51.300071,98.0
2023-08-16 13:24:51.307761,127.0
2023-08-16 13:24:51.315450,144.0
2023-08-16 13:24:51.323139,153.0
2023-08-16 13:24:51.330829,163.0
2023-08-16 13:24:51.338518,168.0
2023-08-16 13:24:51.346208,156.0
2023-08-16 13:24:51.353897,125.0
2023-08-16 13:24:51.361587,72.0
2023-08-16 13:24:51.369276,7.0
2023-08-16 13:24:51.376966,-52.0
2023-08-16 13:24:51.384655,-105.0
2023-08-16 13:24:51.392345,-141.0
2023-08-16 13:24:51.400034,-163.0
2023-08-16 13:24:51.407724,-177.0
2023-08-16 13:24:51.415413,-182.0
2023-08-16 13:24:51.423103,-180.0
2023-08-16 13:24:51.430792,-175.0
2023-08-16 13:24:51.438482,-173.0
2023-08-16 13:24:51.446171,-168.0
2023-08-16 13:24:51.453861,-161.0
2023-08-16 13:24:51.461550,-153.0
2023-08-16 13:24:51.469239,-146.0
2023-08-16 13:24:51.476929,-137.0
2023-08-16 13:24:51.484618,-129.0
2023-08-16 13:24:51.492308,-125.0
2023-08-16 13:24:51.499997,-122.0
2023-08-16 13:24:51.507687,-122.0
2023-08-16 13:24:51.515376,-120.0
2023-08-16 13:24:51.523066,-115.0
2023-08-16 13:24:51.530755,-113.0
2023-08-16 13:24:51.538445,-113.0
2023-08-16 13:24:51.546134,-113.0
2023-08-16 13:24:51.553824,-110.0
2023-08-16 13:24:51.561513,-110.0
2023-08-16 13:24:51.569203,-110.0
2023-08-16 13:24:51.576892,-113.0
2023-08-16 13:24:51.584582,-115.0
2023-08-16 13:24:51.592271,-115.0
2023-08-16 13:24:51.599960,-115.0
2023-08-16 13:24:51.607650,-110.0
2023-08-16 13:24:51.615339,-110.0
2023-08-16 13:24:51.623029,-108.0
2023-08-16 13:24:51.630718,-108.0
2023-08-16 13:24:51.638408,-105.0
2023-08-16 13:24:51.646097,-105.0
2023-08-16 13:24:51.653787,-101.0
2023-08-16 13:24:51.661476,-96.0
2023-08-16 13:24:51.669166,-98.0
2023-08-16 13:24:51.676855,-108.0
2023-08-16 13:24:51.684545,-110.0
2023-08-16 13:24:51.692234,-110.0
2023-08-16 13:24:51.699924,-115.0
2023-08-16 13:24:51.707613,-110.0
2023-08-16 13:24:51.715303,-91.0
2023-08-16 13:24:51.722992,-76.0
2023-08-16 13:24:51.730682,-69.0
2023-08-16 13:24:51.738371,-62.0
2023-08-16 13:24:51.746060,-64.0
2023-08-16 13:24:51.753750,-86.0
2023-08-16 13:24:51.761439,-101.0
2023-08-16 13:24:51.769129,-103.0
2023-08-16 13:24:51.776818,-103.0
2023-08-16 13:24:51.784508,-103.0
2023-08-16 13:24:51.792197,-98.0
2023-08-16 13:24:51.799887,-93.0
2023-08-16 13:24:51.807576,-91.0
2023-08-16 13:24:51.815266,-91.0
2023-08-16 13:24:51.822955,-81.0
2023-08-16 13:24:51.830645,57.0
2023-08-16 13:24:51.838334,476.0
2023-08-16 13:24:51.846024,1034.0
2023-08-16 13:24:51.853713,1197.0
2023-08-16 13:24:51.861403,565.0
2023-08-16 13:24:51.869092,-238.0
2023-08-16 13:24:51.876781,-346.0
2023-08-16 13:24:51.884471,-120.0
2023-08-16 13:24:51.892160,-156.0
2023-08-16 13:24:51.899850,-223.0
2023-08-16 13:24:51.907539,-151.0
2023-08-16 13:24:51.915229,-137.0
2023-08-16 13:24:51.922918,-161.0
2023-08-16 13:24:51.930608,-137.0
2023-08-16 13:24:51.938297,-117.0
2023-08-16 13:24:51.945987,-122.0
2023-08-16 13:24:51.953676,-110.0
2023-08-16 13:24:51.961366,-96.0
2023-08-16 13:24:51.969055,-91.0
2023-08-16 13:24:51.976745,-84.0
2023-08-16 13:24:51.984434,-72.0
2023-08-16 13:24:51.992124,-64.0
2023-08-16 13:24:51.999813,-57.0
2023-08-16 13:24:52.007502,-48.0
2023-08-16 13:24:52.015192,-33.0
2023-08-16 13:24:52.022881,-14.0
2023-08-16 13:24:52.030571,7.0
2023-08-16 13:24:52.038260,28.0
2023-08-16 13:24:52.045950,55.0
2023-08-16 13:24:52.053639,84.0
2023-08-16 13:24:52.061329,113.0
2023-08-16 13:24:52.069018,139.0
2023-08-16 13:24:52.076708,153.0
2023-08-16 13:24:52.084397,163.0
2023-08-16 13:24:52.092087,173.0
2023-08-16 13:24:52.099776,173.0
2023-08-16 13:24:52.107466,156.0
2023-08-16 13:24:52.115155,120.0
2023-08-16 13:24:52.122845,60.0
2023-08-16 13:24:52.130534,-7.0
2023-08-16 13:24:52.138224,-64.0
2023-08-16 13:24:52.145913,-110.0
2023-08-16 13:24:52.153602,-144.0
2023-08-16 13:24:52.161292,-163.0
2023-08-16 13:24:52.168981,-168.0
2023-08-16 13:24:52.176671,-168.0
2023-08-16 13:24:52.184360,-163.0
2023-08-16 13:24:52.192050,-156.0
2023-08-16 13:24:52.199739,-149.0
2023-08-16 13:24:52.207429,-146.0
2023-08-16 13:24:52.215118,-149.0
2023-08-16 13:24:52.222808,-151.0
2023-08-16 13:24:52.230497,-149.0
2023-08-16 13:24:52.238187,-141.0
2023-08-16 13:24:52.245876,-139.0
2023-08-16 13:24:52.253566,-137.0
2023-08-16 13:24:52.261255,-132.0
2023-08-16 13:24:52.268945,-125.0
2023-08-16 13:24:52.276634,-120.0
2023-08-16 13:24:52.284323,-117.0
2023-08-16 13:24:52.292013,-115.0
2023-08-16 13:24:52.299702,-113.0
2023-08-16 13:24:52.307392,-110.0
2023-08-16 13:24:52.315081,-108.0
2023-08-16 13:24:52.322771,-103.0
2023-08-16 13:24:52.330460,-103.0
2023-08-16 13:24:52.338150,-101.0
2023-08-16 13:24:52.345839,-98.0
2023-08-16 13:24:52.353529,-96.0
2023-08-16 13:24:52.361218,-93.0
2023-08-16 13:24:52.368908,-91.0
2023-08-16 13:24:52.376597,-91.0
2023-08-16 13:24:52.384287,-91.0
2023-08-16 13:24:52.391976,-93.0
2023-08-16 13:24:52.399666,-91.0
2023-08-16 13:24:52.407355,-91.0
2023-08-16 13:24:52.415045,-91.0
2023-08-16 13:24:52.422734,-91.0
2023-08-16 13:24:52.430423,-91.0
2023-08-16 13:24:52.438113,-91.0
2023-08-16 13:24:52.445802,-88.0
2023-08-16 13:24:52.453492,-86.0
2023-08-16 13:24:52.461181,-88.0
2023-08-16 13:24:52.468871,-98.0
2023-08-16 13:24:52.476560,-96.0
2023-08-16 13:24:52.484250,-79.0
2023-08-16 13:24:52.491939,-62.0
2023-08-16 13:24:52.499629,-50.0
2023-08-16 13:24:52.507318,-43.0
2023-08-16 13:24:52.515008,-43.0
2023-08-16 13:24:52.522697,-57.0
2023-08-16 13:24:52.530387,-74.0
2023-08-16 13:24:52.538076,-81.0
2023-08-16 13:24:52.545766,-79.0
2023-08-16 13:24:52.553455,-76.0
2023-08-16 13:24:52.561144,-76.0
2023-08-16 13:24:52.568834,-74.0
2023-08-16 13:24:52.576523,-72.0
2023-08-16 13:24:52.584213,-67.0
2023-08-16 13:24:52.591902,-67.0
2023-08-16 13:24:52.599592,14.0
2023-08-16 13:24:52.607281,336.0
2023-08-16 13:24:52.614971,880.0
2023-08-16 13:24:52.622660,1224.0
2023-08-16 13:24:52.630350,827.0
2023-08-16 13:24:52.638039,-31.0
2023-08-16 13:24:52.645729,-360.0
2023-08-16 13:24:52.653418,-139.0
2023-08-16 13:24:52.661108,-101.0
2023-08-16 13:24:52.668797,-204.0
2023-08-16 13:24:52.676487,-153.0
2023-08-16 13:24:52.684176,-110.0
2023-08-16 13:24:52.691865,-139.0
2023-08-16 13:24:52.699555,-127.0
2023-08-16 13:24:52.707244,-103.0
2023-08-16 13:24:52.714934,-103.0
2023-08-16 13:24:52.722623,-98.0
2023-08-16 13:24:52.730313,-88.0
2023-08-16 13:24:52.738002,-88.0
2023-08-16 13:24:52.745692,-88.0
2023-08-16 13:24:52.753381,-86.0
2023-08-16 13:24:52.761071,-81.0
2023-08-16 13:24:52.768760,-69.0
2023-08-16 13:24:52.776450,-52.0
2023-08-16 13:24:52.784139,-40.0
2023-08-16 13:24:52.791829,-26.0
2023-08-16 13:24:52.799518,-9.0
2023-08-16 13:24:52.807208,14.0
2023-08-16 13:24:52.814897,40.0
2023-08-16 13:24:52.822587,69.0
2023-08-16 13:24:52.830276,98.0
2023-08-16 13:24:52.837965,122.0
2023-08-16 13:24:52.845655,137.0
2023-08-16 13:24:52.853344,149.0
2023-08-16 13:24:52.861034,156.0
2023-08-16 13:24:52.868723,158.0
2023-08-16 13:24:52.876413,151.0
2023-08-16 13:24:52.884102,117.0
2023-08-16 13:24:52.891792,62.0
2023-08-16 13:24:52.899481,0.0
2023-08-16 13:24:52.907171,-57.0
2023-08-16 13:24:52.914860,-108.0
2023-08-16 13:24:52.922550,-144.0
2023-08-16 13:24:52.930239,-165.0
2023-08-16 13:24:52.937929,-175.0
2023-08-16 13:24:52.945618,-177.0
2023-08-16 13:24:52.953308,-173.0
2023-08-16 13:24:52.960997,-165.0
2023-08-16 13:24:52.968686,-158.0
2023-08-16 13:24:52.976376,-153.0
2023-08-16 13:24:52.984065,-151.0
2023-08-16 13:24:52.991755,-146.0
2023-08-16 13:24:52.999444,-137.0
2023-08-16 13:24:53.007134,-127.0
2023-08-16 13:24:53.014823,-125.0
2023-08-16 13:24:53.022513,-122.0
2023-08-16 13:24:53.030202,-120.0
2023-08-16 13:24:53.037892,-117.0
2023-08-16 13:24:53.045581,-115.0
2023-08-16 13:24:53.053271,-110.0
2023-08-16 13:24:53.060960,-108.0
2023-08-16 13:24:53.068650,-108.0
2023-08-16 13:24:53.076339,-108.0
2023-08-16 13:24:53.084029,-105.0
2023-08-16 13:24:53.091718,-103.0
2023-08-16 13:24:53.099407,-101.0
2023-08-16 13:24:53.107097,-101.0
2023-08-16 13:24:53.114786,-98.0
2023-08-16 13:24:53.122476,-98.0
2023-08-16 13:24:53.130165,-96.0
2023-08-16 13:24:53.137855,-93.0
2023-08-16 13:24:53.145544,-88.0
2023-08-16 13:24:53.153234,-88.0
2023-08-16 13:24:53.160923,-91.0
2023-08-16 13:24:53.168613,-88.0
2023-08-16 13:24:53.176302,-84.0
2023-08-16 13:24:53.183992,-84.0
2023-08-16 13:24:53.191681,-84.0
2023-08-16 13:24:53.199371,-84.0
2023-08-16 13:24:53.207060,-88.0
2023-08-16 13:24:53.214750,-91.0
2023-08-16 13:24:53.222439,-88.0
2023-08-16 13:24:53.230129,-91.0
2023-08-16 13:24:53.237818,-101.0
2023-08-16 13:24:53.245507,-113.0
2023-08-16 13:24:53.253197,-110.0
2023-08-16 13:24:53.260886,-96.0
2023-08-16 13:24:53.268576,-79.0
2023-08-16 13:24:53.276265,-62.0
2023-08-16 13:24:53.283955,-52.0
2023-08-16 13:24:53.291644,-52.0
2023-08-16 13:24:53.299334,-64.0
2023-08-16 13:24:53.307023,-81.0
2023-08-16 13:24:53.314713,-91.0
2023-08-16 13:24:53.322402,-88.0
2023-08-16 13:24:53.330092,-86.0
2023-08-16 13:24:53.337781,-86.0
2023-08-16 13:24:53.345471,-86.0
2023-08-16 13:24:53.353160,-81.0
2023-08-16 13:24:53.360850,-79.0
2023-08-16 13:24:53.368539,-79.0
2023-08-16 13:24:53.376228,-33.0
2023-08-16 13:24:53.383918,223.0
2023-08-16 13:24:53.391607,735.0
2023-08-16 13:24:53.399297,1166.0
2023-08-16 13:24:53.406986,933.0
2023-08-16 13:24:53.414676,91.0
2023-08-16 13:24:53.422365,-387.0
2023-08-16 13:24:53.430055,-211.0
2023-08-16 13:24:53.437744,-108.0
2023-08-16 13:24:53.445434,-214.0
2023-08-16 13:24:53.453123,-192.0
2023-08-16 13:24:53.460813,-132.0
2023-08-16 13:24:53.468502,-153.0
2023-08-16 13:24:53.476192,-156.0
2023-08-16 13:24:53.483881,-129.0
2023-08-16 13:24:53.491571,-125.0
2023-08-16 13:24:53.499260,-122.0
2023-08-16 13:24:53.506950,-108.0
2023-08-16 13:24:53.514639,-101.0
2023-08-16 13:24:53.522328,-98.0
2023-08-16 13:24:53.530018,-88.0
2023-08-16 13:24:53.537707,-76.0
2023-08-16 13:24:53.545397,-67.0
2023-08-16 13:24:53.553086,-52.0
2023-08-16 13:24:53.560776,-40.0
2023-08-16 13:24:53.568465,-28.0
2023-08-16 13:24:53.576155,-12.0
2023-08-16 13:24:53.583844,7.0
2023-08-16 13:24:53.591534,33.0
2023-08-16 13:24:53.599223,60.0
2023-08-16 13:24:53.606913,86.0
2023-08-16 13:24:53.614602,110.0
2023-08-16 13:24:53.622292,129.0
2023-08-16 13:24:53.629981,139.0
2023-08-16 13:24:53.637671,146.0
2023-08-16 13:24:53.645360,151.0
2023-08-16 13:24:53.653049,146.0
2023-08-16 13:24:53.660739,122.0
2023-08-16 13:24:53.668428,76.0
2023-08-16 13:24:53.676118,14.0
2023-08-16 13:24:53.683807,-45.0
2023-08-16 13:24:53.691497,-98.0
2023-08-16 13:24:53.699186,-141.0
2023-08-16 13:24:53.706876,-163.0
2023-08-16 13:24:53.714565,-175.0
2023-08-16 13:24:53.722255,-185.0
2023-08-16 13:24:53.729944,-187.0
2023-08-16 13:24:53.737634,-185.0
2023-08-16 13:24:53.745323,-182.0
2023-08-16 13:24:53.753013,-175.0
2023-08-16 13:24:53.760702,-163.0
2023-08-16 13:24:53.768392,-153.0
2023-08-16 13:24:53.776081,-146.0
2023-08-16 13:24:53.783770,-141.0
2023-08-16 13:24:53.791460,-141.0
2023-08-16 13:24:53.799149,-137.0
2023-08-16 13:24:53.806839,-129.0
2023-08-16 13:24:53.814528,-129.0
2023-08-16 13:24:53.822218,-127.0
2023-08-16 13:24:53.829907,-125.0
2023-08-16 13:24:53.837597,-122.0
2023-08-16 13:24:53.845286,-122.0
2023-08-16 13:24:53.852976,-120.0
2023-08-16 13:24:53.860665,-120.0
2023-08-16 13:24:53.868355,-120.0
2023-08-16 13:24:53.876044,-117.0
2023-08-16 13:24:53.883734,-115.0
2023-08-16 13:24:53.891423,-113.0
2023-08-16 13:24:53.899113,-113.0
2023-08-16 13:24:53.906802,-115.0
2023-08-16 13:24:53.914492,-115.0
2023-08-16 13:24:53.922181,-117.0
2023-08-16 13:24:53.929870,-125.0
2023-08-16 13:24:53.937560,-120.0
2023-08-16 13:24:53.945249,-115.0
2023-08-16 13:24:53.952939,-115.0
2023-08-16 13:24:53.960628,-117.0
2023-08-16 13:24:53.968318,-117.0
2023-08-16 13:24:53.976007,-120.0
2023-08-16 13:24:53.983697,-120.0
2023-08-16 13:24:53.991386,-117.0
2023-08-16 13:24:53.999076,-117.0
2023-08-16 13:24:54.006765,-120.0
2023-08-16 13:24:54.014455,-122.0
2023-08-16 13:24:54.022144,-125.0
2023-08-16 13:24:54.029834,-115.0
2023-08-16 13:24:54.037523,-96.0
2023-08-16 13:24:54.045213,-79.0
2023-08-16 13:24:54.052902,-64.0
2023-08-16 13:24:54.060591,-62.0
2023-08-16 13:24:54.068281,-74.0
2023-08-16 13:24:54.075970,-96.0
2023-08-16 13:24:54.083660,-108.0
2023-08-16 13:24:54.091349,-105.0
2023-08-16 13:24:54.099039,-101.0
2023-08-16 13:24:54.106728,-103.0
2023-08-16 13:24:54.114418,-101.0
2023-08-16 13:24:54.122107,-91.0
2023-08-16 13:24:54.129797,-93.0
2023-08-16 13:24:54.137486,-101.0
2023-08-16 13:24:54.145176,-50.0
2023-08-16 13:24:54.152865,218.0
2023-08-16 13:24:54.160555,733.0
2023-08-16 13:24:54.168244,1142.0
2023-08-16 13:24:54.175934,887.0
2023-08-16 13:24:54.183623,50.0
2023-08-16 13:24:54.191312,-420.0
2023-08-16 13:24:54.199002,-238.0
2023-08-16 13:24:54.206691,-125.0
2023-08-16 13:24:54.214381,-226.0
2023-08-16 13:24:54.222070,-202.0
2023-08-16 13:24:54.229760,-139.0
2023-08-16 13:24:54.237449,-158.0
2023-08-16 13:24:54.245139,-165.0
2023-08-16 13:24:54.252828,-144.0
2023-08-16 13:24:54.260518,-137.0
2023-08-16 13:24:54.268207,-134.0
2023-08-16 13:24:54.275897,-125.0
2023-08-16 13:24:54.283586,-117.0
2023-08-16 13:24:54.291276,-103.0
2023-08-16 13:24:54.298965,-91.0
2023-08-16 13:24:54.306655,-84.0
2023-08-16 13:24:54.314344,-79.0
2023-08-16 13:24:54.322034,-67.0
2023-08-16 13:24:54.329723,-55.0
2023-08-16 13:24:54.337412,-40.0
2023-08-16 13:24:54.345102,-19.0
2023-08-16 13:24:54.352791,2.0
2023-08-16 13:24:54.360481,26.0
2023-08-16 13:24:54.368170,52.0
2023-08-16 13:24:54.375860,76.0
2023-08-16 13:24:54.383549,98.0
2023-08-16 13:24:54.391239,117.0
2023-08-16 13:24:54.398928,132.0
2023-08-16 13:24:54.406618,137.0
2023-08-16 13:24:54.414307,137.0
2023-08-16 13:24:54.421997,127.0
2023-08-16 13:24:54.429686,105.0
2023-08-16 13:24:54.437376,62.0
2023-08-16 13:24:54.445065,2.0
2023-08-16 13:24:54.452755,-60.0
2023-08-16 13:24:54.460444,-113.0
2023-08-16 13:24:54.468133,-158.0
2023-08-16 13:24:54.475823,-182.0
2023-08-16 13:24:54.483512,-187.0
2023-08-16 13:24:54.491202,-187.0
2023-08-16 13:24:54.498891,-187.0
2023-08-16 13:24:54.506581,-192.0
2023-08-16 13:24:54.514270,-197.0
2023-08-16 13:24:54.521960,-192.0
2023-08-16 13:24:54.529649,-182.0
2023-08-16 13:24:54.537339,-173.0
2023-08-16 13:24:54.545028,-165.0
2023-08-16 13:24:54.552718,-158.0
2023-08-16 13:24:54.560407,-151.0
2023-08-16 13:24:54.568097,-144.0
2023-08-16 13:24:54.575786,-139.0
2023-08-16 13:24:54.583476,-137.0
2023-08-16 13:24:54.591165,-134.0
2023-08-16 13:24:54.598855,-132.0
2023-08-16 13:24:54.606544,-127.0
2023-08-16 13:24:54.614233,-127.0
2023-08-16 13:24:54.621923,-127.0
2023-08-16 13:24:54.629612,-125.0
2023-08-16 13:24:54.637302,-127.0
2023-08-16 13:24:54.644991,-132.0
