time,ECG
2023-08-15 18:14:33.726685,-88.0
2023-08-15 18:14:33.734375,-90.0
2023-08-15 18:14:33.742064,-85.0
2023-08-15 18:14:33.749754,-85.0
2023-08-15 18:14:33.757443,-88.0
2023-08-15 18:14:33.765133,-88.0
2023-08-15 18:14:33.772823,-88.0
2023-08-15 18:14:33.780512,-90.0
2023-08-15 18:14:33.788202,-88.0
2023-08-15 18:14:33.795892,-85.0
2023-08-15 18:14:33.803581,-88.0
2023-08-15 18:14:33.811271,-92.0
2023-08-15 18:14:33.818960,-90.0
2023-08-15 18:14:33.826650,-80.0
2023-08-15 18:14:33.834340,-73.0
2023-08-15 18:14:33.842029,-71.0
2023-08-15 18:14:33.849719,-57.0
2023-08-15 18:14:33.857408,-40.0
2023-08-15 18:14:33.865098,-45.0
2023-08-15 18:14:33.872788,-57.0
2023-08-15 18:14:33.880477,-76.0
2023-08-15 18:14:33.888167,-97.0
2023-08-15 18:14:33.895857,-102.0
2023-08-15 18:14:33.903546,-97.0
2023-08-15 18:14:33.911236,-99.0
2023-08-15 18:14:33.918925,-97.0
2023-08-15 18:14:33.926615,-57.0
2023-08-15 18:14:33.934305,90.0
2023-08-15 18:14:33.941994,368.0
2023-08-15 18:14:33.949684,530.0
2023-08-15 18:14:33.957373,266.0
2023-08-15 18:14:33.965063,-288.0
2023-08-15 18:14:33.972753,-602.0
2023-08-15 18:14:33.980442,-407.0
2023-08-15 18:14:33.988132,-99.0
2023-08-15 18:14:33.995822,-64.0
2023-08-15 18:14:34.003511,-119.0
2023-08-15 18:14:34.011201,-85.0
2023-08-15 18:14:34.018890,-61.0
2023-08-15 18:14:34.026580,-76.0
2023-08-15 18:14:34.034270,-66.0
2023-08-15 18:14:34.041959,-49.0
2023-08-15 18:14:34.049649,-47.0
2023-08-15 18:14:34.057338,-38.0
2023-08-15 18:14:34.065028,-21.0
2023-08-15 18:14:34.072718,-9.0
2023-08-15 18:14:34.080407,2.0
2023-08-15 18:14:34.088097,14.0
2023-08-15 18:14:34.095787,26.0
2023-08-15 18:14:34.103476,40.0
2023-08-15 18:14:34.111166,61.0
2023-08-15 18:14:34.118855,85.0
2023-08-15 18:14:34.126545,107.0
2023-08-15 18:14:34.134235,121.0
2023-08-15 18:14:34.141924,138.0
2023-08-15 18:14:34.149614,159.0
2023-08-15 18:14:34.157303,169.0
2023-08-15 18:14:34.164993,169.0
2023-08-15 18:14:34.172683,159.0
2023-08-15 18:14:34.180372,138.0
2023-08-15 18:14:34.188062,99.0
2023-08-15 18:14:34.195752,52.0
2023-08-15 18:14:34.203441,-2.0
2023-08-15 18:14:34.211131,-54.0
2023-08-15 18:14:34.218820,-97.0
2023-08-15 18:14:34.226510,-128.0
2023-08-15 18:14:34.234200,-149.0
2023-08-15 18:14:34.241889,-157.0
2023-08-15 18:14:34.249579,-161.0
2023-08-15 18:14:34.257268,-164.0
2023-08-15 18:14:34.264958,-164.0
2023-08-15 18:14:34.272648,-159.0
2023-08-15 18:14:34.280337,-154.0
2023-08-15 18:14:34.288027,-152.0
2023-08-15 18:14:34.295717,-149.0
2023-08-15 18:14:34.303406,-140.0
2023-08-15 18:14:34.311096,-133.0
2023-08-15 18:14:34.318785,-130.0
2023-08-15 18:14:34.326475,-126.0
2023-08-15 18:14:34.334165,-116.0
2023-08-15 18:14:34.341854,-111.0
2023-08-15 18:14:34.349544,-109.0
2023-08-15 18:14:34.357233,-107.0
2023-08-15 18:14:34.364923,-102.0
2023-08-15 18:14:34.372613,-97.0
2023-08-15 18:14:34.380302,-95.0
2023-08-15 18:14:34.387992,-95.0
2023-08-15 18:14:34.395682,-95.0
2023-08-15 18:14:34.403371,-97.0
2023-08-15 18:14:34.411061,-102.0
2023-08-15 18:14:34.418750,-99.0
2023-08-15 18:14:34.426440,-99.0
2023-08-15 18:14:34.434130,-97.0
2023-08-15 18:14:34.441819,-97.0
2023-08-15 18:14:34.449509,-99.0
2023-08-15 18:14:34.457198,-99.0
2023-08-15 18:14:34.464888,-92.0
2023-08-15 18:14:34.472578,-90.0
2023-08-15 18:14:34.480267,-90.0
2023-08-15 18:14:34.487957,-80.0
2023-08-15 18:14:34.495647,-73.0
2023-08-15 18:14:34.503336,-69.0
2023-08-15 18:14:34.511026,-54.0
2023-08-15 18:14:34.518715,-38.0
2023-08-15 18:14:34.526405,-42.0
2023-08-15 18:14:34.534095,-61.0
2023-08-15 18:14:34.541784,-85.0
2023-08-15 18:14:34.549474,-97.0
2023-08-15 18:14:34.557163,-90.0
2023-08-15 18:14:34.564853,-83.0
2023-08-15 18:14:34.572543,-85.0
2023-08-15 18:14:34.580232,-85.0
2023-08-15 18:14:34.587922,-40.0
2023-08-15 18:14:34.595612,133.0
2023-08-15 18:14:34.603301,426.0
2023-08-15 18:14:34.610991,540.0
2023-08-15 18:14:34.618680,195.0
2023-08-15 18:14:34.626370,-371.0
2023-08-15 18:14:34.634060,-599.0
2023-08-15 18:14:34.641749,-349.0
2023-08-15 18:14:34.649439,-97.0
2023-08-15 18:14:34.657128,-78.0
2023-08-15 18:14:34.664818,-90.0
2023-08-15 18:14:34.672508,-57.0
2023-08-15 18:14:34.680197,-54.0
2023-08-15 18:14:34.687887,-57.0
2023-08-15 18:14:34.695576,-40.0
2023-08-15 18:14:34.703266,-30.0
2023-08-15 18:14:34.710956,-26.0
2023-08-15 18:14:34.718645,-16.0
2023-08-15 18:14:34.726335,-4.0
2023-08-15 18:14:34.734025,9.0
2023-08-15 18:14:34.741714,21.0
2023-08-15 18:14:34.749404,35.0
2023-08-15 18:14:34.757093,54.0
2023-08-15 18:14:34.764783,73.0
2023-08-15 18:14:34.772473,92.0
2023-08-15 18:14:34.780162,111.0
2023-08-15 18:14:34.787852,126.0
2023-08-15 18:14:34.795541,145.0
2023-08-15 18:14:34.803231,164.0
2023-08-15 18:14:34.810921,173.0
2023-08-15 18:14:34.818610,173.0
2023-08-15 18:14:34.826300,169.0
2023-08-15 18:14:34.833990,159.0
2023-08-15 18:14:34.841679,138.0
2023-08-15 18:14:34.849369,99.0
2023-08-15 18:14:34.857058,45.0
2023-08-15 18:14:34.864748,-14.0
2023-08-15 18:14:34.872438,-66.0
2023-08-15 18:14:34.880127,-107.0
2023-08-15 18:14:34.887817,-133.0
2023-08-15 18:14:34.895506,-154.0
2023-08-15 18:14:34.903196,-169.0
2023-08-15 18:14:34.910886,-178.0
2023-08-15 18:14:34.918575,-180.0
2023-08-15 18:14:34.926265,-178.0
2023-08-15 18:14:34.933955,-171.0
2023-08-15 18:14:34.941644,-166.0
2023-08-15 18:14:34.949334,-161.0
2023-08-15 18:14:34.957023,-152.0
2023-08-15 18:14:34.964713,-147.0
2023-08-15 18:14:34.972403,-145.0
2023-08-15 18:14:34.980092,-135.0
2023-08-15 18:14:34.987782,-123.0
2023-08-15 18:14:34.995471,-119.0
2023-08-15 18:14:35.003161,-116.0
2023-08-15 18:14:35.010851,-111.0
2023-08-15 18:14:35.018540,-109.0
2023-08-15 18:14:35.026230,-104.0
2023-08-15 18:14:35.033920,-104.0
2023-08-15 18:14:35.041609,-104.0
2023-08-15 18:14:35.049299,-99.0
2023-08-15 18:14:35.056988,-102.0
2023-08-15 18:14:35.064678,-107.0
2023-08-15 18:14:35.072368,-107.0
2023-08-15 18:14:35.080057,-111.0
2023-08-15 18:14:35.087747,-119.0
2023-08-15 18:14:35.095436,-114.0
2023-08-15 18:14:35.103126,-109.0
2023-08-15 18:14:35.110816,-109.0
2023-08-15 18:14:35.118505,-114.0
2023-08-15 18:14:35.126195,-116.0
2023-08-15 18:14:35.133885,-114.0
2023-08-15 18:14:35.141574,-111.0
2023-08-15 18:14:35.149264,-97.0
2023-08-15 18:14:35.156953,-73.0
2023-08-15 18:14:35.164643,-71.0
2023-08-15 18:14:35.172333,-88.0
2023-08-15 18:14:35.180022,-111.0
2023-08-15 18:14:35.187712,-126.0
2023-08-15 18:14:35.195401,-121.0
2023-08-15 18:14:35.203091,-114.0
2023-08-15 18:14:35.210781,-116.0
2023-08-15 18:14:35.218470,-119.0
2023-08-15 18:14:35.226160,-76.0
2023-08-15 18:14:35.233850,83.0
2023-08-15 18:14:35.241539,371.0
2023-08-15 18:14:35.249229,557.0
2023-08-15 18:14:35.256918,299.0
2023-08-15 18:14:35.264608,-283.0
2023-08-15 18:14:35.272298,-618.0
2023-08-15 18:14:35.279987,-445.0
2023-08-15 18:14:35.287677,-166.0
2023-08-15 18:14:35.295366,-104.0
2023-08-15 18:14:35.303056,-111.0
2023-08-15 18:14:35.310746,-78.0
2023-08-15 18:14:35.318435,-66.0
2023-08-15 18:14:35.326125,-71.0
2023-08-15 18:14:35.333815,-54.0
2023-08-15 18:14:35.341504,-42.0
2023-08-15 18:14:35.349194,-38.0
2023-08-15 18:14:35.356883,-26.0
2023-08-15 18:14:35.364573,-9.0
2023-08-15 18:14:35.372263,2.0
2023-08-15 18:14:35.379952,11.0
2023-08-15 18:14:35.387642,26.0
2023-08-15 18:14:35.395331,40.0
2023-08-15 18:14:35.403021,59.0
2023-08-15 18:14:35.410711,80.0
2023-08-15 18:14:35.418400,99.0
2023-08-15 18:14:35.426090,114.0
2023-08-15 18:14:35.433780,133.0
2023-08-15 18:14:35.441469,154.0
2023-08-15 18:14:35.449159,169.0
2023-08-15 18:14:35.456848,176.0
2023-08-15 18:14:35.464538,173.0
2023-08-15 18:14:35.472228,164.0
2023-08-15 18:14:35.479917,138.0
2023-08-15 18:14:35.487607,95.0
2023-08-15 18:14:35.495296,42.0
2023-08-15 18:14:35.502986,-11.0
2023-08-15 18:14:35.510676,-66.0
2023-08-15 18:14:35.518365,-111.0
2023-08-15 18:14:35.526055,-142.0
2023-08-15 18:14:35.533745,-164.0
2023-08-15 18:14:35.541434,-171.0
2023-08-15 18:14:35.549124,-173.0
2023-08-15 18:14:35.556813,-176.0
2023-08-15 18:14:35.564503,-173.0
2023-08-15 18:14:35.572193,-171.0
2023-08-15 18:14:35.579882,-169.0
2023-08-15 18:14:35.587572,-164.0
2023-08-15 18:14:35.595261,-154.0
2023-08-15 18:14:35.602951,-147.0
2023-08-15 18:14:35.610641,-142.0
2023-08-15 18:14:35.618330,-145.0
2023-08-15 18:14:35.626020,-145.0
2023-08-15 18:14:35.633710,-135.0
2023-08-15 18:14:35.641399,-123.0
2023-08-15 18:14:35.649089,-119.0
2023-08-15 18:14:35.656778,-119.0
2023-08-15 18:14:35.664468,-126.0
2023-08-15 18:14:35.672158,-126.0
2023-08-15 18:14:35.679847,-119.0
2023-08-15 18:14:35.687537,-116.0
2023-08-15 18:14:35.695226,-116.0
2023-08-15 18:14:35.702916,-116.0
2023-08-15 18:14:35.710606,-119.0
2023-08-15 18:14:35.718295,-119.0
2023-08-15 18:14:35.725985,-116.0
2023-08-15 18:14:35.733675,-111.0
2023-08-15 18:14:35.741364,-111.0
2023-08-15 18:14:35.749054,-109.0
2023-08-15 18:14:35.756743,-111.0
2023-08-15 18:14:35.764433,-111.0
2023-08-15 18:14:35.772123,-104.0
2023-08-15 18:14:35.779812,-99.0
2023-08-15 18:14:35.787502,-99.0
2023-08-15 18:14:35.795191,-90.0
2023-08-15 18:14:35.802881,-69.0
2023-08-15 18:14:35.810571,-59.0
2023-08-15 18:14:35.818260,-66.0
2023-08-15 18:14:35.825950,-85.0
2023-08-15 18:14:35.833640,-104.0
2023-08-15 18:14:35.841329,-104.0
2023-08-15 18:14:35.849019,-95.0
2023-08-15 18:14:35.856708,-95.0
2023-08-15 18:14:35.864398,-92.0
2023-08-15 18:14:35.872088,-61.0
2023-08-15 18:14:35.879777,54.0
2023-08-15 18:14:35.887467,318.0
2023-08-15 18:14:35.895156,552.0
2023-08-15 18:14:35.902846,395.0
2023-08-15 18:14:35.910536,-154.0
2023-08-15 18:14:35.918225,-592.0
2023-08-15 18:14:35.925915,-502.0
2023-08-15 18:14:35.933605,-164.0
2023-08-15 18:14:35.941294,-54.0
2023-08-15 18:14:35.948984,-95.0
2023-08-15 18:14:35.956673,-71.0
2023-08-15 18:14:35.964363,-42.0
2023-08-15 18:14:35.972053,-57.0
2023-08-15 18:14:35.979742,-52.0
2023-08-15 18:14:35.987432,-33.0
2023-08-15 18:14:35.995121,-26.0
2023-08-15 18:14:36.002811,-16.0
2023-08-15 18:14:36.010501,0.0
2023-08-15 18:14:36.018190,7.0
2023-08-15 18:14:36.025880,16.0
2023-08-15 18:14:36.033570,33.0
2023-08-15 18:14:36.041259,47.0
2023-08-15 18:14:36.048949,64.0
2023-08-15 18:14:36.056638,85.0
2023-08-15 18:14:36.064328,104.0
2023-08-15 18:14:36.072018,123.0
2023-08-15 18:14:36.079707,147.0
2023-08-15 18:14:36.087397,169.0
2023-08-15 18:14:36.095086,185.0
2023-08-15 18:14:36.102776,195.0
2023-08-15 18:14:36.110466,197.0
2023-08-15 18:14:36.118155,188.0
2023-08-15 18:14:36.125845,164.0
2023-08-15 18:14:36.133535,126.0
2023-08-15 18:14:36.141224,73.0
2023-08-15 18:14:36.148914,14.0
2023-08-15 18:14:36.156603,-45.0
2023-08-15 18:14:36.164293,-92.0
2023-08-15 18:14:36.171983,-128.0
2023-08-15 18:14:36.179672,-149.0
2023-08-15 18:14:36.187362,-159.0
2023-08-15 18:14:36.195051,-166.0
2023-08-15 18:14:36.202741,-176.0
2023-08-15 18:14:36.210431,-183.0
2023-08-15 18:14:36.218120,-176.0
2023-08-15 18:14:36.225810,-169.0
2023-08-15 18:14:36.233500,-164.0
2023-08-15 18:14:36.241189,-157.0
2023-08-15 18:14:36.248879,-149.0
2023-08-15 18:14:36.256568,-147.0
2023-08-15 18:14:36.264258,-145.0
2023-08-15 18:14:36.271948,-140.0
2023-08-15 18:14:36.279637,-133.0
2023-08-15 18:14:36.287327,-126.0
2023-08-15 18:14:36.295016,-121.0
2023-08-15 18:14:36.302706,-119.0
2023-08-15 18:14:36.310396,-114.0
2023-08-15 18:14:36.318085,-109.0
2023-08-15 18:14:36.325775,-107.0
2023-08-15 18:14:36.333465,-107.0
2023-08-15 18:14:36.341154,-104.0
2023-08-15 18:14:36.348844,-104.0
2023-08-15 18:14:36.356533,-107.0
2023-08-15 18:14:36.364223,-104.0
2023-08-15 18:14:36.371913,-104.0
2023-08-15 18:14:36.379602,-107.0
2023-08-15 18:14:36.387292,-107.0
2023-08-15 18:14:36.394981,-102.0
2023-08-15 18:14:36.402671,-102.0
2023-08-15 18:14:36.410361,-99.0
2023-08-15 18:14:36.418050,-97.0
2023-08-15 18:14:36.425740,-97.0
2023-08-15 18:14:36.433430,-99.0
2023-08-15 18:14:36.441119,-99.0
2023-08-15 18:14:36.448809,-90.0
2023-08-15 18:14:36.456498,-83.0
2023-08-15 18:14:36.464188,-83.0
2023-08-15 18:14:36.471878,-73.0
2023-08-15 18:14:36.479567,-54.0
2023-08-15 18:14:36.487257,-45.0
2023-08-15 18:14:36.494946,-57.0
2023-08-15 18:14:36.502636,-76.0
2023-08-15 18:14:36.510326,-97.0
2023-08-15 18:14:36.518015,-104.0
2023-08-15 18:14:36.525705,-95.0
2023-08-15 18:14:36.533395,-90.0
2023-08-15 18:14:36.541084,-92.0
2023-08-15 18:14:36.548774,-73.0
2023-08-15 18:14:36.556463,30.0
2023-08-15 18:14:36.564153,288.0
2023-08-15 18:14:36.571843,540.0
2023-08-15 18:14:36.579532,418.0
2023-08-15 18:14:36.587222,-111.0
2023-08-15 18:14:36.594911,-571.0
2023-08-15 18:14:36.602601,-516.0
2023-08-15 18:14:36.610291,-169.0
2023-08-15 18:14:36.617980,-30.0
2023-08-15 18:14:36.625670,-83.0
2023-08-15 18:14:36.633360,-69.0
2023-08-15 18:14:36.641049,-35.0
2023-08-15 18:14:36.648739,-45.0
2023-08-15 18:14:36.656428,-45.0
2023-08-15 18:14:36.664118,-28.0
2023-08-15 18:14:36.671808,-21.0
2023-08-15 18:14:36.679497,-14.0
2023-08-15 18:14:36.687187,0.0
2023-08-15 18:14:36.694876,9.0
2023-08-15 18:14:36.702566,19.0
2023-08-15 18:14:36.710256,33.0
2023-08-15 18:14:36.717945,49.0
2023-08-15 18:14:36.725635,66.0
2023-08-15 18:14:36.733325,85.0
2023-08-15 18:14:36.741014,102.0
2023-08-15 18:14:36.748704,114.0
2023-08-15 18:14:36.756393,130.0
2023-08-15 18:14:36.764083,152.0
2023-08-15 18:14:36.771773,166.0
2023-08-15 18:14:36.779462,176.0
2023-08-15 18:14:36.787152,178.0
2023-08-15 18:14:36.794841,171.0
2023-08-15 18:14:36.802531,152.0
2023-08-15 18:14:36.810221,119.0
2023-08-15 18:14:36.817910,69.0
2023-08-15 18:14:36.825600,11.0
2023-08-15 18:14:36.833290,-45.0
2023-08-15 18:14:36.840979,-92.0
2023-08-15 18:14:36.848669,-126.0
2023-08-15 18:14:36.856358,-147.0
2023-08-15 18:14:36.864048,-161.0
2023-08-15 18:14:36.871738,-169.0
2023-08-15 18:14:36.879427,-171.0
2023-08-15 18:14:36.887117,-169.0
2023-08-15 18:14:36.894806,-161.0
2023-08-15 18:14:36.902496,-159.0
2023-08-15 18:14:36.910186,-154.0
2023-08-15 18:14:36.917875,-149.0
2023-08-15 18:14:36.925565,-145.0
2023-08-15 18:14:36.933255,-142.0
2023-08-15 18:14:36.940944,-140.0
2023-08-15 18:14:36.948634,-133.0
2023-08-15 18:14:36.956323,-128.0
2023-08-15 18:14:36.964013,-123.0
2023-08-15 18:14:36.971703,-116.0
2023-08-15 18:14:36.979392,-109.0
2023-08-15 18:14:36.987082,-107.0
2023-08-15 18:14:36.994771,-102.0
2023-08-15 18:14:37.002461,-104.0
2023-08-15 18:14:37.010151,-107.0
2023-08-15 18:14:37.017840,-104.0
2023-08-15 18:14:37.025530,-102.0
2023-08-15 18:14:37.033220,-102.0
2023-08-15 18:14:37.040909,-102.0
2023-08-15 18:14:37.048599,-102.0
2023-08-15 18:14:37.056288,-104.0
2023-08-15 18:14:37.063978,-102.0
2023-08-15 18:14:37.071668,-99.0
2023-08-15 18:14:37.079357,-99.0
2023-08-15 18:14:37.087047,-97.0
2023-08-15 18:14:37.094736,-95.0
2023-08-15 18:14:37.102426,-95.0
2023-08-15 18:14:37.110116,-92.0
2023-08-15 18:14:37.117805,-88.0
2023-08-15 18:14:37.125495,-85.0
2023-08-15 18:14:37.133185,-83.0
2023-08-15 18:14:37.140874,-80.0
2023-08-15 18:14:37.148564,-73.0
2023-08-15 18:14:37.156253,-64.0
2023-08-15 18:14:37.163943,-52.0
2023-08-15 18:14:37.171633,-42.0
2023-08-15 18:14:37.179322,-33.0
2023-08-15 18:14:37.187012,-28.0
2023-08-15 18:14:37.194701,-38.0
2023-08-15 18:14:37.202391,-61.0
2023-08-15 18:14:37.210081,-80.0
2023-08-15 18:14:37.217770,-83.0
2023-08-15 18:14:37.225460,-76.0
2023-08-15 18:14:37.233150,-76.0
2023-08-15 18:14:37.240839,-78.0
2023-08-15 18:14:37.248529,-61.0
2023-08-15 18:14:37.256218,33.0
2023-08-15 18:14:37.263908,276.0
2023-08-15 18:14:37.271598,523.0
2023-08-15 18:14:37.279287,418.0
2023-08-15 18:14:37.286977,-85.0
2023-08-15 18:14:37.294666,-547.0
2023-08-15 18:14:37.302356,-518.0
2023-08-15 18:14:37.310046,-171.0
2023-08-15 18:14:37.317735,-21.0
2023-08-15 18:14:37.325425,-83.0
2023-08-15 18:14:37.333115,-83.0
2023-08-15 18:14:37.340804,-45.0
2023-08-15 18:14:37.348494,-54.0
2023-08-15 18:14:37.356183,-57.0
2023-08-15 18:14:37.363873,-40.0
2023-08-15 18:14:37.371563,-35.0
2023-08-15 18:14:37.379252,-28.0
2023-08-15 18:14:37.386942,-11.0
2023-08-15 18:14:37.394631,0.0
2023-08-15 18:14:37.402321,11.0
2023-08-15 18:14:37.410011,23.0
2023-08-15 18:14:37.417700,38.0
2023-08-15 18:14:37.425390,54.0
2023-08-15 18:14:37.433080,71.0
2023-08-15 18:14:37.440769,85.0
2023-08-15 18:14:37.448459,104.0
2023-08-15 18:14:37.456148,123.0
2023-08-15 18:14:37.463838,140.0
2023-08-15 18:14:37.471528,157.0
2023-08-15 18:14:37.479217,169.0
2023-08-15 18:14:37.486907,171.0
2023-08-15 18:14:37.494596,169.0
2023-08-15 18:14:37.502286,154.0
2023-08-15 18:14:37.509976,121.0
2023-08-15 18:14:37.517665,71.0
2023-08-15 18:14:37.525355,16.0
2023-08-15 18:14:37.533045,-33.0
2023-08-15 18:14:37.540734,-76.0
2023-08-15 18:14:37.548424,-111.0
2023-08-15 18:14:37.556113,-138.0
2023-08-15 18:14:37.563803,-157.0
2023-08-15 18:14:37.571493,-164.0
2023-08-15 18:14:37.579182,-161.0
2023-08-15 18:14:37.586872,-159.0
2023-08-15 18:14:37.594561,-159.0
2023-08-15 18:14:37.602251,-154.0
2023-08-15 18:14:37.609941,-147.0
2023-08-15 18:14:37.617630,-140.0
2023-08-15 18:14:37.625320,-133.0
2023-08-15 18:14:37.633010,-128.0
2023-08-15 18:14:37.640699,-128.0
2023-08-15 18:14:37.648389,-128.0
2023-08-15 18:14:37.656078,-116.0
2023-08-15 18:14:37.663768,-104.0
2023-08-15 18:14:37.671458,-97.0
2023-08-15 18:14:37.679147,-99.0
2023-08-15 18:14:37.686837,-99.0
2023-08-15 18:14:37.694526,-90.0
2023-08-15 18:14:37.702216,-90.0
2023-08-15 18:14:37.709906,-95.0
2023-08-15 18:14:37.717595,-90.0
2023-08-15 18:14:37.725285,-80.0
2023-08-15 18:14:37.732975,-85.0
2023-08-15 18:14:37.740664,-95.0
2023-08-15 18:14:37.748354,-97.0
2023-08-15 18:14:37.756043,-90.0
2023-08-15 18:14:37.763733,-90.0
2023-08-15 18:14:37.771423,-97.0
2023-08-15 18:14:37.779112,-95.0
2023-08-15 18:14:37.786802,-92.0
2023-08-15 18:14:37.794491,-88.0
2023-08-15 18:14:37.802181,-85.0
2023-08-15 18:14:37.809871,-88.0
2023-08-15 18:14:37.817560,-88.0
2023-08-15 18:14:37.825250,-83.0
2023-08-15 18:14:37.832940,-83.0
2023-08-15 18:14:37.840629,-80.0
2023-08-15 18:14:37.848319,-73.0
2023-08-15 18:14:37.856008,-66.0
2023-08-15 18:14:37.863698,-61.0
2023-08-15 18:14:37.871388,-52.0
2023-08-15 18:14:37.879077,-42.0
2023-08-15 18:14:37.886767,-30.0
2023-08-15 18:14:37.894456,-23.0
2023-08-15 18:14:37.902146,-30.0
2023-08-15 18:14:37.909836,-59.0
2023-08-15 18:14:37.917525,-92.0
2023-08-15 18:14:37.925215,-97.0
2023-08-15 18:14:37.932905,-88.0
2023-08-15 18:14:37.940594,-92.0
2023-08-15 18:14:37.948284,-92.0
2023-08-15 18:14:37.955973,-66.0
2023-08-15 18:14:37.963663,33.0
2023-08-15 18:14:37.971353,271.0
2023-08-15 18:14:37.979042,528.0
2023-08-15 18:14:37.986732,440.0
2023-08-15 18:14:37.994421,-73.0
2023-08-15 18:14:38.002111,-547.0
2023-08-15 18:14:38.009801,-528.0
2023-08-15 18:14:38.017490,-216.0
2023-08-15 18:14:38.025180,-80.0
2023-08-15 18:14:38.032870,-107.0
2023-08-15 18:14:38.040559,-90.0
2023-08-15 18:14:38.048249,-76.0
2023-08-15 18:14:38.055938,-92.0
2023-08-15 18:14:38.063628,-80.0
2023-08-15 18:14:38.071318,-59.0
2023-08-15 18:14:38.079007,-52.0
2023-08-15 18:14:38.086697,-40.0
2023-08-15 18:14:38.094386,-33.0
2023-08-15 18:14:38.102076,-30.0
2023-08-15 18:14:38.109766,-19.0
2023-08-15 18:14:38.117455,-2.0
2023-08-15 18:14:38.125145,9.0
2023-08-15 18:14:38.132835,28.0
2023-08-15 18:14:38.140524,54.0
2023-08-15 18:14:38.148214,71.0
2023-08-15 18:14:38.155903,85.0
2023-08-15 18:14:38.163593,111.0
2023-08-15 18:14:38.171283,140.0
2023-08-15 18:14:38.178972,157.0
2023-08-15 18:14:38.186662,164.0
2023-08-15 18:14:38.194351,164.0
2023-08-15 18:14:38.202041,164.0
2023-08-15 18:14:38.209731,157.0
2023-08-15 18:14:38.217420,126.0
2023-08-15 18:14:38.225110,76.0
2023-08-15 18:14:38.232800,23.0
2023-08-15 18:14:38.240489,-26.0
2023-08-15 18:14:38.248179,-76.0
2023-08-15 18:14:38.255868,-114.0
2023-08-15 18:14:38.263558,-133.0
2023-08-15 18:14:38.271248,-149.0
2023-08-15 18:14:38.278937,-159.0
2023-08-15 18:14:38.286627,-161.0
2023-08-15 18:14:38.294316,-154.0
2023-08-15 18:14:38.302006,-152.0
2023-08-15 18:14:38.309696,-152.0
2023-08-15 18:14:38.317385,-147.0
2023-08-15 18:14:38.325075,-138.0
2023-08-15 18:14:38.332765,-130.0
2023-08-15 18:14:38.340454,-123.0
2023-08-15 18:14:38.348144,-116.0
2023-08-15 18:14:38.355833,-107.0
2023-08-15 18:14:38.363523,-102.0
2023-08-15 18:14:38.371213,-99.0
2023-08-15 18:14:38.378902,-97.0
2023-08-15 18:14:38.386592,-92.0
2023-08-15 18:14:38.394281,-90.0
2023-08-15 18:14:38.401971,-88.0
2023-08-15 18:14:38.409661,-83.0
2023-08-15 18:14:38.417350,-85.0
2023-08-15 18:14:38.425040,-85.0
2023-08-15 18:14:38.432730,-85.0
2023-08-15 18:14:38.440419,-92.0
2023-08-15 18:14:38.448109,-97.0
2023-08-15 18:14:38.455798,-102.0
2023-08-15 18:14:38.463488,-107.0
2023-08-15 18:14:38.471178,-107.0
2023-08-15 18:14:38.478867,-104.0
2023-08-15 18:14:38.486557,-102.0
2023-08-15 18:14:38.494246,-102.0
2023-08-15 18:14:38.501936,-102.0
2023-08-15 18:14:38.509626,-97.0
2023-08-15 18:14:38.517315,-90.0
2023-08-15 18:14:38.525005,-90.0
2023-08-15 18:14:38.532695,-92.0
2023-08-15 18:14:38.540384,-85.0
2023-08-15 18:14:38.548074,-71.0
2023-08-15 18:14:38.555763,-64.0
2023-08-15 18:14:38.563453,-57.0
2023-08-15 18:14:38.571143,-40.0
2023-08-15 18:14:38.578832,-33.0
2023-08-15 18:14:38.586522,-42.0
2023-08-15 18:14:38.594211,-64.0
2023-08-15 18:14:38.601901,-85.0
2023-08-15 18:14:38.609591,-83.0
2023-08-15 18:14:38.617280,-73.0
2023-08-15 18:14:38.624970,-73.0
2023-08-15 18:14:38.632660,-71.0
2023-08-15 18:14:38.640349,-23.0
2023-08-15 18:14:38.648039,133.0
2023-08-15 18:14:38.655728,404.0
2023-08-15 18:14:38.663418,571.0
2023-08-15 18:14:38.671108,307.0
2023-08-15 18:14:38.678797,-273.0
2023-08-15 18:14:38.686487,-590.0
2023-08-15 18:14:38.694176,-402.0
2023-08-15 18:14:38.701866,-119.0
2023-08-15 18:14:38.709556,-61.0
2023-08-15 18:14:38.717245,-69.0
2023-08-15 18:14:38.724935,-38.0
2023-08-15 18:14:38.732625,-33.0
2023-08-15 18:14:38.740314,-42.0
2023-08-15 18:14:38.748004,-30.0
2023-08-15 18:14:38.755693,-19.0
2023-08-15 18:14:38.763383,-16.0
2023-08-15 18:14:38.771073,-9.0
2023-08-15 18:14:38.778762,4.0
2023-08-15 18:14:38.786452,14.0
2023-08-15 18:14:38.794141,26.0
2023-08-15 18:14:38.801831,40.0
2023-08-15 18:14:38.809521,57.0
2023-08-15 18:14:38.817210,76.0
2023-08-15 18:14:38.824900,97.0
2023-08-15 18:14:38.832590,121.0
2023-08-15 18:14:38.840279,142.0
2023-08-15 18:14:38.847969,159.0
2023-08-15 18:14:38.855658,176.0
2023-08-15 18:14:38.863348,190.0
2023-08-15 18:14:38.871038,197.0
2023-08-15 18:14:38.878727,199.0
2023-08-15 18:14:38.886417,190.0
2023-08-15 18:14:38.894106,169.0
2023-08-15 18:14:38.901796,128.0
2023-08-15 18:14:38.909486,76.0
2023-08-15 18:14:38.917175,23.0
2023-08-15 18:14:38.924865,-28.0
2023-08-15 18:14:38.932555,-71.0
2023-08-15 18:14:38.940244,-107.0
2023-08-15 18:14:38.947934,-130.0
2023-08-15 18:14:38.955623,-142.0
2023-08-15 18:14:38.963313,-147.0
2023-08-15 18:14:38.971003,-149.0
2023-08-15 18:14:38.978692,-149.0
2023-08-15 18:14:38.986382,-149.0
2023-08-15 18:14:38.994071,-147.0
2023-08-15 18:14:39.001761,-140.0
2023-08-15 18:14:39.009451,-130.0
2023-08-15 18:14:39.017140,-126.0
2023-08-15 18:14:39.024830,-119.0
2023-08-15 18:14:39.032520,-116.0
2023-08-15 18:14:39.040209,-119.0
2023-08-15 18:14:39.047899,-116.0
2023-08-15 18:14:39.055588,-107.0
2023-08-15 18:14:39.063278,-102.0
2023-08-15 18:14:39.070968,-102.0
2023-08-15 18:14:39.078657,-99.0
2023-08-15 18:14:39.086347,-95.0
2023-08-15 18:14:39.094036,-92.0
2023-08-15 18:14:39.101726,-90.0
2023-08-15 18:14:39.109416,-88.0
2023-08-15 18:14:39.117105,-88.0
2023-08-15 18:14:39.124795,-90.0
2023-08-15 18:14:39.132485,-90.0
2023-08-15 18:14:39.140174,-90.0
2023-08-15 18:14:39.147864,-90.0
2023-08-15 18:14:39.155553,-88.0
2023-08-15 18:14:39.163243,-88.0
2023-08-15 18:14:39.170933,-88.0
2023-08-15 18:14:39.178622,-85.0
2023-08-15 18:14:39.186312,-85.0
2023-08-15 18:14:39.194001,-83.0
2023-08-15 18:14:39.201691,-80.0
2023-08-15 18:14:39.209381,-78.0
2023-08-15 18:14:39.217070,-76.0
2023-08-15 18:14:39.224760,-73.0
2023-08-15 18:14:39.232450,-71.0
2023-08-15 18:14:39.240139,-71.0
2023-08-15 18:14:39.247829,-64.0
2023-08-15 18:14:39.255518,-54.0
2023-08-15 18:14:39.263208,-49.0
2023-08-15 18:14:39.270898,-42.0
2023-08-15 18:14:39.278587,-30.0
2023-08-15 18:14:39.286277,-19.0
2023-08-15 18:14:39.293966,-21.0
2023-08-15 18:14:39.301656,-38.0
2023-08-15 18:14:39.309346,-64.0
2023-08-15 18:14:39.317035,-78.0
2023-08-15 18:14:39.324725,-73.0
2023-08-15 18:14:39.332415,-71.0
2023-08-15 18:14:39.340104,-71.0
2023-08-15 18:14:39.347794,-64.0
2023-08-15 18:14:39.355483,-9.0
2023-08-15 18:14:39.363173,178.0
2023-08-15 18:14:39.370863,464.0
2023-08-15 18:14:39.378552,533.0
2023-08-15 18:14:39.386242,147.0
2023-08-15 18:14:39.393931,-411.0
2023-08-15 18:14:39.401621,-599.0
2023-08-15 18:14:39.409311,-314.0
2023-08-15 18:14:39.417000,-57.0
2023-08-15 18:14:39.424690,-61.0
2023-08-15 18:14:39.432380,-80.0
2023-08-15 18:14:39.440069,-42.0
2023-08-15 18:14:39.447759,-47.0
2023-08-15 18:14:39.455448,-61.0
2023-08-15 18:14:39.463138,-40.0
2023-08-15 18:14:39.470828,-33.0
2023-08-15 18:14:39.478517,-35.0
2023-08-15 18:14:39.486207,-21.0
2023-08-15 18:14:39.493896,-4.0
2023-08-15 18:14:39.501586,4.0
2023-08-15 18:14:39.509276,19.0
2023-08-15 18:14:39.516965,35.0
2023-08-15 18:14:39.524655,52.0
2023-08-15 18:14:39.532345,69.0
2023-08-15 18:14:39.540034,85.0
2023-08-15 18:14:39.547724,109.0
2023-08-15 18:14:39.555413,130.0
2023-08-15 18:14:39.563103,152.0
2023-08-15 18:14:39.570793,171.0
2023-08-15 18:14:39.578482,176.0
2023-08-15 18:14:39.586172,173.0
2023-08-15 18:14:39.593861,176.0
2023-08-15 18:14:39.601551,173.0
2023-08-15 18:14:39.609241,149.0
2023-08-15 18:14:39.616930,107.0
2023-08-15 18:14:39.624620,54.0
2023-08-15 18:14:39.632310,-4.0
2023-08-15 18:14:39.639999,-54.0
2023-08-15 18:14:39.647689,-92.0
2023-08-15 18:14:39.655378,-121.0
2023-08-15 18:14:39.663068,-140.0
2023-08-15 18:14:39.670758,-152.0
2023-08-15 18:14:39.678447,-157.0
2023-08-15 18:14:39.686137,-154.0
2023-08-15 18:14:39.693826,-152.0
2023-08-15 18:14:39.701516,-149.0
2023-08-15 18:14:39.709206,-145.0
2023-08-15 18:14:39.716895,-142.0
2023-08-15 18:14:39.724585,-138.0
2023-08-15 18:14:39.732275,-130.0
2023-08-15 18:14:39.739964,-121.0
2023-08-15 18:14:39.747654,-114.0
2023-08-15 18:14:39.755343,-111.0
2023-08-15 18:14:39.763033,-107.0
2023-08-15 18:14:39.770723,-102.0
2023-08-15 18:14:39.778412,-99.0
2023-08-15 18:14:39.786102,-95.0
2023-08-15 18:14:39.793791,-88.0
2023-08-15 18:14:39.801481,-85.0
2023-08-15 18:14:39.809171,-85.0
2023-08-15 18:14:39.816860,-85.0
2023-08-15 18:14:39.824550,-83.0
2023-08-15 18:14:39.832240,-85.0
2023-08-15 18:14:39.839929,-85.0
2023-08-15 18:14:39.847619,-85.0
2023-08-15 18:14:39.855308,-88.0
2023-08-15 18:14:39.862998,-88.0
2023-08-15 18:14:39.870688,-85.0
2023-08-15 18:14:39.878377,-85.0
2023-08-15 18:14:39.886067,-83.0
2023-08-15 18:14:39.893756,-85.0
2023-08-15 18:14:39.901446,-83.0
2023-08-15 18:14:39.909136,-83.0
2023-08-15 18:14:39.916825,-83.0
2023-08-15 18:14:39.924515,-78.0
2023-08-15 18:14:39.932205,-76.0
2023-08-15 18:14:39.939894,-71.0
2023-08-15 18:14:39.947584,-71.0
2023-08-15 18:14:39.955273,-76.0
2023-08-15 18:14:39.962963,-78.0
2023-08-15 18:14:39.970653,-71.0
2023-08-15 18:14:39.978342,-59.0
2023-08-15 18:14:39.986032,-52.0
2023-08-15 18:14:39.993721,-47.0
2023-08-15 18:14:40.001411,-40.0
2023-08-15 18:14:40.009101,-38.0
2023-08-15 18:14:40.016790,-47.0
2023-08-15 18:14:40.024480,-71.0
2023-08-15 18:14:40.032170,-95.0
2023-08-15 18:14:40.039859,-95.0
2023-08-15 18:14:40.047549,-85.0
2023-08-15 18:14:40.055238,-85.0
2023-08-15 18:14:40.062928,-88.0
2023-08-15 18:14:40.070618,-64.0
2023-08-15 18:14:40.078307,64.0
2023-08-15 18:14:40.085997,330.0
2023-08-15 18:14:40.093686,523.0
2023-08-15 18:14:40.101376,318.0
2023-08-15 18:14:40.109066,-226.0
2023-08-15 18:14:40.116755,-616.0
2023-08-15 18:14:40.124445,-490.0
2023-08-15 18:14:40.132135,-147.0
2023-08-15 18:14:40.139824,-54.0
2023-08-15 18:14:40.147514,-109.0
2023-08-15 18:14:40.155203,-83.0
2023-08-15 18:14:40.162893,-54.0
2023-08-15 18:14:40.170583,-69.0
2023-08-15 18:14:40.178272,-61.0
2023-08-15 18:14:40.185962,-42.0
2023-08-15 18:14:40.193651,-38.0
2023-08-15 18:14:40.201341,-28.0
2023-08-15 18:14:40.209031,-16.0
2023-08-15 18:14:40.216720,-7.0
2023-08-15 18:14:40.224410,7.0
2023-08-15 18:14:40.232100,21.0
2023-08-15 18:14:40.239789,38.0
2023-08-15 18:14:40.247479,57.0
2023-08-15 18:14:40.255168,73.0
2023-08-15 18:14:40.262858,95.0
2023-08-15 18:14:40.270548,119.0
2023-08-15 18:14:40.278237,138.0
2023-08-15 18:14:40.285927,157.0
2023-08-15 18:14:40.293616,173.0
2023-08-15 18:14:40.301306,183.0
2023-08-15 18:14:40.308996,188.0
2023-08-15 18:14:40.316685,183.0
2023-08-15 18:14:40.324375,166.0
2023-08-15 18:14:40.332065,135.0
2023-08-15 18:14:40.339754,88.0
2023-08-15 18:14:40.347444,30.0
2023-08-15 18:14:40.355133,-19.0
2023-08-15 18:14:40.362823,-64.0
2023-08-15 18:14:40.370513,-102.0
2023-08-15 18:14:40.378202,-126.0
2023-08-15 18:14:40.385892,-140.0
2023-08-15 18:14:40.393581,-145.0
2023-08-15 18:14:40.401271,-142.0
2023-08-15 18:14:40.408961,-145.0
2023-08-15 18:14:40.416650,-147.0
2023-08-15 18:14:40.424340,-142.0
2023-08-15 18:14:40.432030,-133.0
2023-08-15 18:14:40.439719,-128.0
2023-08-15 18:14:40.447409,-126.0
2023-08-15 18:14:40.455098,-126.0
2023-08-15 18:14:40.462788,-130.0
2023-08-15 18:14:40.470478,-128.0
2023-08-15 18:14:40.478167,-119.0
2023-08-15 18:14:40.485857,-116.0
2023-08-15 18:14:40.493546,-111.0
2023-08-15 18:14:40.501236,-99.0
2023-08-15 18:14:40.508926,-97.0
2023-08-15 18:14:40.516615,-97.0
2023-08-15 18:14:40.524305,-97.0
2023-08-15 18:14:40.531995,-97.0
2023-08-15 18:14:40.539684,-95.0
2023-08-15 18:14:40.547374,-95.0
2023-08-15 18:14:40.555063,-95.0
2023-08-15 18:14:40.562753,-95.0
2023-08-15 18:14:40.570443,-95.0
2023-08-15 18:14:40.578132,-95.0
2023-08-15 18:14:40.585822,-95.0
2023-08-15 18:14:40.593511,-95.0
2023-08-15 18:14:40.601201,-95.0
2023-08-15 18:14:40.608891,-92.0
2023-08-15 18:14:40.616580,-92.0
2023-08-15 18:14:40.624270,-88.0
2023-08-15 18:14:40.631960,-88.0
2023-08-15 18:14:40.639649,-88.0
2023-08-15 18:14:40.647339,-80.0
2023-08-15 18:14:40.655028,-78.0
2023-08-15 18:14:40.662718,-85.0
2023-08-15 18:14:40.670408,-83.0
2023-08-15 18:14:40.678097,-73.0
2023-08-15 18:14:40.685787,-64.0
2023-08-15 18:14:40.693476,-57.0
2023-08-15 18:14:40.701166,-54.0
2023-08-15 18:14:40.708856,-47.0
2023-08-15 18:14:40.716545,-40.0
2023-08-15 18:14:40.724235,-42.0
2023-08-15 18:14:40.731925,-69.0
2023-08-15 18:14:40.739614,-97.0
2023-08-15 18:14:40.747304,-99.0
2023-08-15 18:14:40.754993,-92.0
2023-08-15 18:14:40.762683,-90.0
2023-08-15 18:14:40.770373,-90.0
2023-08-15 18:14:40.778062,-69.0
2023-08-15 18:14:40.785752,26.0
2023-08-15 18:14:40.793441,264.0
2023-08-15 18:14:40.801131,502.0
2023-08-15 18:14:40.808821,388.0
2023-08-15 18:14:40.816510,-123.0
2023-08-15 18:14:40.824200,-566.0
2023-08-15 18:14:40.831890,-523.0
2023-08-15 18:14:40.839579,-216.0
2023-08-15 18:14:40.847269,-88.0
2023-08-15 18:14:40.854958,-109.0
2023-08-15 18:14:40.862648,-85.0
2023-08-15 18:14:40.870338,-69.0
2023-08-15 18:14:40.878027,-83.0
2023-08-15 18:14:40.885717,-73.0
2023-08-15 18:14:40.893406,-52.0
2023-08-15 18:14:40.901096,-45.0
2023-08-15 18:14:40.908786,-35.0
2023-08-15 18:14:40.916475,-16.0
2023-08-15 18:14:40.924165,-11.0
2023-08-15 18:14:40.931855,-2.0
2023-08-15 18:14:40.939544,16.0
2023-08-15 18:14:40.947234,30.0
2023-08-15 18:14:40.954923,42.0
2023-08-15 18:14:40.962613,64.0
2023-08-15 18:14:40.970303,76.0
2023-08-15 18:14:40.977992,90.0
2023-08-15 18:14:40.985682,119.0
2023-08-15 18:14:40.993371,140.0
2023-08-15 18:14:41.001061,152.0
2023-08-15 18:14:41.008751,161.0
2023-08-15 18:14:41.016440,166.0
2023-08-15 18:14:41.024130,159.0
2023-08-15 18:14:41.031820,145.0
2023-08-15 18:14:41.039509,126.0
2023-08-15 18:14:41.047199,85.0
2023-08-15 18:14:41.054888,26.0
2023-08-15 18:14:41.062578,-30.0
2023-08-15 18:14:41.070268,-71.0
2023-08-15 18:14:41.077957,-107.0
2023-08-15 18:14:41.085647,-135.0
2023-08-15 18:14:41.093336,-145.0
2023-08-15 18:14:41.101026,-149.0
2023-08-15 18:14:41.108716,-161.0
2023-08-15 18:14:41.116405,-164.0
2023-08-15 18:14:41.124095,-154.0
2023-08-15 18:14:41.131785,-152.0
2023-08-15 18:14:41.139474,-147.0
2023-08-15 18:14:41.147164,-140.0
2023-08-15 18:14:41.154853,-140.0
2023-08-15 18:14:41.162543,-135.0
2023-08-15 18:14:41.170233,-126.0
2023-08-15 18:14:41.177922,-121.0
2023-08-15 18:14:41.185612,-116.0
2023-08-15 18:14:41.193301,-109.0
2023-08-15 18:14:41.200991,-109.0
2023-08-15 18:14:41.208681,-109.0
2023-08-15 18:14:41.216370,-104.0
2023-08-15 18:14:41.224060,-99.0
2023-08-15 18:14:41.231750,-102.0
2023-08-15 18:14:41.239439,-102.0
2023-08-15 18:14:41.247129,-99.0
2023-08-15 18:14:41.254818,-102.0
2023-08-15 18:14:41.262508,-99.0
2023-08-15 18:14:41.270198,-97.0
2023-08-15 18:14:41.277887,-97.0
2023-08-15 18:14:41.285577,-109.0
2023-08-15 18:14:41.293266,-119.0
2023-08-15 18:14:41.300956,-116.0
2023-08-15 18:14:41.308646,-109.0
2023-08-15 18:14:41.316335,-107.0
2023-08-15 18:14:41.324025,-104.0
2023-08-15 18:14:41.331715,-104.0
2023-08-15 18:14:41.339404,-104.0
2023-08-15 18:14:41.347094,-97.0
2023-08-15 18:14:41.354783,-95.0
2023-08-15 18:14:41.362473,-95.0
2023-08-15 18:14:41.370163,-83.0
2023-08-15 18:14:41.377852,-83.0
2023-08-15 18:14:41.385542,-80.0
2023-08-15 18:14:41.393231,-59.0
2023-08-15 18:14:41.400921,-45.0
2023-08-15 18:14:41.408611,-52.0
2023-08-15 18:14:41.416300,-76.0
2023-08-15 18:14:41.423990,-99.0
2023-08-15 18:14:41.431680,-104.0
2023-08-15 18:14:41.439369,-97.0
2023-08-15 18:14:41.447059,-99.0
2023-08-15 18:14:41.454748,-97.0
2023-08-15 18:14:41.462438,-59.0
2023-08-15 18:14:41.470128,64.0
2023-08-15 18:14:41.477817,326.0
2023-08-15 18:14:41.485507,547.0
2023-08-15 18:14:41.493196,359.0
2023-08-15 18:14:41.500886,-216.0
2023-08-15 18:14:41.508576,-611.0
2023-08-15 18:14:41.516265,-487.0
2023-08-15 18:14:41.523955,-190.0
2023-08-15 18:14:41.531645,-102.0
2023-08-15 18:14:41.539334,-114.0
2023-08-15 18:14:41.547024,-83.0
2023-08-15 18:14:41.554713,-66.0
2023-08-15 18:14:41.562403,-78.0
2023-08-15 18:14:41.570093,-66.0
2023-08-15 18:14:41.577782,-45.0
2023-08-15 18:14:41.585472,-35.0
2023-08-15 18:14:41.593161,-28.0
2023-08-15 18:14:41.600851,-19.0
2023-08-15 18:14:41.608541,-14.0
2023-08-15 18:14:41.616230,2.0
2023-08-15 18:14:41.623920,23.0
2023-08-15 18:14:41.631610,40.0
2023-08-15 18:14:41.639299,57.0
2023-08-15 18:14:41.646989,71.0
2023-08-15 18:14:41.654678,85.0
2023-08-15 18:14:41.662368,111.0
2023-08-15 18:14:41.670058,138.0
2023-08-15 18:14:41.677747,157.0
2023-08-15 18:14:41.685437,166.0
2023-08-15 18:14:41.693126,173.0
2023-08-15 18:14:41.700816,176.0
2023-08-15 18:14:41.708506,171.0
2023-08-15 18:14:41.716195,154.0
2023-08-15 18:14:41.723885,123.0
2023-08-15 18:14:41.731575,76.0
2023-08-15 18:14:41.739264,19.0
2023-08-15 18:14:41.746954,-35.0
2023-08-15 18:14:41.754643,-76.0
2023-08-15 18:14:41.762333,-109.0
2023-08-15 18:14:41.770023,-135.0
2023-08-15 18:14:41.777712,-149.0
2023-08-15 18:14:41.785402,-154.0
2023-08-15 18:14:41.793091,-152.0
2023-08-15 18:14:41.800781,-152.0
2023-08-15 18:14:41.808471,-152.0
2023-08-15 18:14:41.816160,-147.0
2023-08-15 18:14:41.823850,-145.0
2023-08-15 18:14:41.831540,-149.0
2023-08-15 18:14:41.839229,-142.0
2023-08-15 18:14:41.846919,-133.0
2023-08-15 18:14:41.854608,-128.0
2023-08-15 18:14:41.862298,-121.0
2023-08-15 18:14:41.869988,-114.0
2023-08-15 18:14:41.877677,-111.0
2023-08-15 18:14:41.885367,-107.0
2023-08-15 18:14:41.893056,-104.0
2023-08-15 18:14:41.900746,-99.0
2023-08-15 18:14:41.908436,-92.0
2023-08-15 18:14:41.916125,-95.0
2023-08-15 18:14:41.923815,-99.0
2023-08-15 18:14:41.931505,-99.0
2023-08-15 18:14:41.939194,-99.0
2023-08-15 18:14:41.946884,-99.0
2023-08-15 18:14:41.954573,-99.0
2023-08-15 18:14:41.962263,-99.0
2023-08-15 18:14:41.969953,-104.0
2023-08-15 18:14:41.977642,-114.0
2023-08-15 18:14:41.985332,-111.0
2023-08-15 18:14:41.993021,-104.0
2023-08-15 18:14:42.000711,-102.0
2023-08-15 18:14:42.008401,-99.0
2023-08-15 18:14:42.016090,-97.0
2023-08-15 18:14:42.023780,-97.0
2023-08-15 18:14:42.031470,-90.0
2023-08-15 18:14:42.039159,-85.0
2023-08-15 18:14:42.046849,-85.0
2023-08-15 18:14:42.054538,-71.0
2023-08-15 18:14:42.062228,-52.0
2023-08-15 18:14:42.069918,-49.0
2023-08-15 18:14:42.077607,-64.0
2023-08-15 18:14:42.085297,-85.0
2023-08-15 18:14:42.092986,-104.0
2023-08-15 18:14:42.100676,-102.0
2023-08-15 18:14:42.108366,-90.0
2023-08-15 18:14:42.116055,-90.0
2023-08-15 18:14:42.123745,-88.0
2023-08-15 18:14:42.131435,-38.0
2023-08-15 18:14:42.139124,130.0
2023-08-15 18:14:42.146814,418.0
2023-08-15 18:14:42.154503,552.0
2023-08-15 18:14:42.162193,226.0
2023-08-15 18:14:42.169883,-361.0
2023-08-15 18:14:42.177572,-630.0
2023-08-15 18:14:42.185262,-392.0
2023-08-15 18:14:42.192951,-111.0
2023-08-15 18:14:42.200641,-85.0
2023-08-15 18:14:42.208331,-102.0
2023-08-15 18:14:42.216020,-69.0
2023-08-15 18:14:42.223710,-59.0
2023-08-15 18:14:42.231400,-66.0
2023-08-15 18:14:42.239089,-57.0
2023-08-15 18:14:42.246779,-45.0
2023-08-15 18:14:42.254468,-40.0
2023-08-15 18:14:42.262158,-28.0
2023-08-15 18:14:42.269848,-14.0
2023-08-15 18:14:42.277537,-2.0
2023-08-15 18:14:42.285227,11.0
2023-08-15 18:14:42.292916,28.0
2023-08-15 18:14:42.300606,42.0
2023-08-15 18:14:42.308296,59.0
2023-08-15 18:14:42.315985,83.0
2023-08-15 18:14:42.323675,104.0
2023-08-15 18:14:42.331365,128.0
2023-08-15 18:14:42.339054,149.0
2023-08-15 18:14:42.346744,169.0
2023-08-15 18:14:42.354433,180.0
2023-08-15 18:14:42.362123,185.0
2023-08-15 18:14:42.369813,178.0
2023-08-15 18:14:42.377502,159.0
2023-08-15 18:14:42.385192,142.0
2023-08-15 18:14:42.392881,107.0
2023-08-15 18:14:42.400571,47.0
2023-08-15 18:14:42.408261,-7.0
2023-08-15 18:14:42.415950,-59.0
2023-08-15 18:14:42.423640,-107.0
2023-08-15 18:14:42.431329,-140.0
2023-08-15 18:14:42.439019,-157.0
2023-08-15 18:14:42.446709,-164.0
2023-08-15 18:14:42.454398,-171.0
2023-08-15 18:14:42.462088,-173.0
2023-08-15 18:14:42.469778,-166.0
2023-08-15 18:14:42.477467,-169.0
2023-08-15 18:14:42.485157,-173.0
2023-08-15 18:14:42.492846,-166.0
2023-08-15 18:14:42.500536,-154.0
2023-08-15 18:14:42.508226,-149.0
2023-08-15 18:14:42.515915,-142.0
2023-08-15 18:14:42.523605,-135.0
2023-08-15 18:14:42.531294,-130.0
2023-08-15 18:14:42.538984,-123.0
2023-08-15 18:14:42.546674,-119.0
2023-08-15 18:14:42.554363,-116.0
2023-08-15 18:14:42.562053,-109.0
2023-08-15 18:14:42.569743,-104.0
2023-08-15 18:14:42.577432,-102.0
2023-08-15 18:14:42.585122,-99.0
2023-08-15 18:14:42.592811,-99.0
2023-08-15 18:14:42.600501,-99.0
2023-08-15 18:14:42.608191,-99.0
2023-08-15 18:14:42.615880,-97.0
2023-08-15 18:14:42.623570,-97.0
2023-08-15 18:14:42.631259,-99.0
2023-08-15 18:14:42.638949,-102.0
2023-08-15 18:14:42.646639,-97.0
2023-08-15 18:14:42.654328,-95.0
2023-08-15 18:14:42.662018,-97.0
2023-08-15 18:14:42.669708,-99.0
2023-08-15 18:14:42.677397,-102.0
2023-08-15 18:14:42.685087,-97.0
2023-08-15 18:14:42.692776,-92.0
2023-08-15 18:14:42.700466,-90.0
2023-08-15 18:14:42.708156,-85.0
2023-08-15 18:14:42.715845,-78.0
2023-08-15 18:14:42.723535,-78.0
2023-08-15 18:14:42.731224,-76.0
2023-08-15 18:14:42.738914,-57.0
2023-08-15 18:14:42.746604,-38.0
2023-08-15 18:14:42.754293,-40.0
2023-08-15 18:14:42.761983,-59.0
2023-08-15 18:14:42.769673,-80.0
2023-08-15 18:14:42.777362,-95.0
2023-08-15 18:14:42.785052,-92.0
2023-08-15 18:14:42.792741,-85.0
2023-08-15 18:14:42.800431,-88.0
2023-08-15 18:14:42.808121,-83.0
2023-08-15 18:14:42.815810,-26.0
2023-08-15 18:14:42.823500,166.0
2023-08-15 18:14:42.831189,459.0
2023-08-15 18:14:42.838879,523.0
2023-08-15 18:14:42.846569,130.0
2023-08-15 18:14:42.854258,-430.0
2023-08-15 18:14:42.861948,-611.0
2023-08-15 18:14:42.869638,-316.0
2023-08-15 18:14:42.877327,-57.0
2023-08-15 18:14:42.885017,-69.0
2023-08-15 18:14:42.892706,-90.0
2023-08-15 18:14:42.900396,-52.0
2023-08-15 18:14:42.908086,-54.0
2023-08-15 18:14:42.915775,-64.0
2023-08-15 18:14:42.923465,-49.0
2023-08-15 18:14:42.931154,-38.0
2023-08-15 18:14:42.938844,-33.0
2023-08-15 18:14:42.946534,-23.0
2023-08-15 18:14:42.954223,-21.0
2023-08-15 18:14:42.961913,-16.0
2023-08-15 18:14:42.969603,2.0
2023-08-15 18:14:42.977292,16.0
2023-08-15 18:14:42.984982,26.0
2023-08-15 18:14:42.992671,42.0
2023-08-15 18:14:43.000361,64.0
2023-08-15 18:14:43.008051,83.0
2023-08-15 18:14:43.015740,107.0
2023-08-15 18:14:43.023430,133.0
2023-08-15 18:14:43.031119,152.0
2023-08-15 18:14:43.038809,164.0
2023-08-15 18:14:43.046499,169.0
2023-08-15 18:14:43.054188,166.0
2023-08-15 18:14:43.061878,159.0
2023-08-15 18:14:43.069568,138.0
2023-08-15 18:14:43.077257,102.0
2023-08-15 18:14:43.084947,47.0
2023-08-15 18:14:43.092636,-9.0
2023-08-15 18:14:43.100326,-59.0
2023-08-15 18:14:43.108016,-99.0
2023-08-15 18:14:43.115705,-128.0
2023-08-15 18:14:43.123395,-145.0
2023-08-15 18:14:43.131084,-157.0
2023-08-15 18:14:43.138774,-164.0
2023-08-15 18:14:43.146464,-161.0
2023-08-15 18:14:43.154153,-159.0
2023-08-15 18:14:43.161843,-157.0
2023-08-15 18:14:43.169533,-154.0
2023-08-15 18:14:43.177222,-152.0
2023-08-15 18:14:43.184912,-147.0
2023-08-15 18:14:43.192601,-138.0
2023-08-15 18:14:43.200291,-130.0
2023-08-15 18:14:43.207981,-126.0
2023-08-15 18:14:43.215670,-121.0
2023-08-15 18:14:43.223360,-119.0
2023-08-15 18:14:43.231049,-116.0
2023-08-15 18:14:43.238739,-109.0
2023-08-15 18:14:43.246429,-102.0
2023-08-15 18:14:43.254118,-99.0
2023-08-15 18:14:43.261808,-97.0
2023-08-15 18:14:43.269498,-97.0
2023-08-15 18:14:43.277187,-95.0
2023-08-15 18:14:43.284877,-97.0
2023-08-15 18:14:43.292566,-95.0
2023-08-15 18:14:43.300256,-92.0
2023-08-15 18:14:43.307946,-95.0
2023-08-15 18:14:43.315635,-95.0
2023-08-15 18:14:43.323325,-95.0
2023-08-15 18:14:43.331014,-97.0
2023-08-15 18:14:43.338704,-95.0
2023-08-15 18:14:43.346394,-88.0
2023-08-15 18:14:43.354083,-90.0
2023-08-15 18:14:43.361773,-95.0
2023-08-15 18:14:43.369463,-88.0
2023-08-15 18:14:43.377152,-80.0
2023-08-15 18:14:43.384842,-85.0
2023-08-15 18:14:43.392531,-80.0
2023-08-15 18:14:43.400221,-71.0
2023-08-15 18:14:43.407911,-71.0
2023-08-15 18:14:43.415600,-69.0
2023-08-15 18:14:43.423290,-47.0
2023-08-15 18:14:43.430979,-33.0
2023-08-15 18:14:43.438669,-40.0
2023-08-15 18:14:43.446359,-64.0
2023-08-15 18:14:43.454048,-85.0
2023-08-15 18:14:43.461738,-97.0
2023-08-15 18:14:43.469428,-88.0
2023-08-15 18:14:43.477117,-78.0
2023-08-15 18:14:43.484807,-83.0
2023-08-15 18:14:43.492496,-80.0
2023-08-15 18:14:43.500186,-11.0
2023-08-15 18:14:43.507876,202.0
2023-08-15 18:14:43.515565,473.0
2023-08-15 18:14:43.523255,461.0
2023-08-15 18:14:43.530944,16.0
2023-08-15 18:14:43.538634,-507.0
2023-08-15 18:14:43.546324,-592.0
2023-08-15 18:14:43.554013,-261.0
2023-08-15 18:14:43.561703,-59.0
2023-08-15 18:14:43.569393,-97.0
2023-08-15 18:14:43.577082,-88.0
2023-08-15 18:14:43.584772,-54.0
2023-08-15 18:14:43.592461,-73.0
2023-08-15 18:14:43.600151,-73.0
2023-08-15 18:14:43.607841,-49.0
2023-08-15 18:14:43.615530,-47.0
2023-08-15 18:14:43.623220,-47.0
2023-08-15 18:14:43.630909,-30.0
2023-08-15 18:14:43.638599,-16.0
2023-08-15 18:14:43.646289,-7.0
2023-08-15 18:14:43.653978,2.0
2023-08-15 18:14:43.661668,19.0
2023-08-15 18:14:43.669358,38.0
2023-08-15 18:14:43.677047,52.0
2023-08-15 18:14:43.684737,69.0
2023-08-15 18:14:43.692426,97.0
2023-08-15 18:14:43.700116,121.0
2023-08-15 18:14:43.707806,140.0
2023-08-15 18:14:43.715495,154.0
2023-08-15 18:14:43.723185,166.0
2023-08-15 18:14:43.730874,173.0
2023-08-15 18:14:43.738564,169.0
2023-08-15 18:14:43.746254,157.0
2023-08-15 18:14:43.753943,138.0
2023-08-15 18:14:43.761633,95.0
2023-08-15 18:14:43.769323,38.0
2023-08-15 18:14:43.777012,-16.0
2023-08-15 18:14:43.784702,-61.0
2023-08-15 18:14:43.792391,-92.0
2023-08-15 18:14:43.800081,-121.0
2023-08-15 18:14:43.807771,-147.0
2023-08-15 18:14:43.815460,-154.0
2023-08-15 18:14:43.823150,-152.0
2023-08-15 18:14:43.830839,-154.0
2023-08-15 18:14:43.838529,-152.0
2023-08-15 18:14:43.846219,-147.0
2023-08-15 18:14:43.853908,-145.0
2023-08-15 18:14:43.861598,-140.0
2023-08-15 18:14:43.869288,-130.0
2023-08-15 18:14:43.876977,-123.0
2023-08-15 18:14:43.884667,-116.0
2023-08-15 18:14:43.892356,-109.0
2023-08-15 18:14:43.900046,-107.0
2023-08-15 18:14:43.907736,-104.0
2023-08-15 18:14:43.915425,-102.0
2023-08-15 18:14:43.923115,-99.0
2023-08-15 18:14:43.930804,-92.0
2023-08-15 18:14:43.938494,-90.0
2023-08-15 18:14:43.946184,-95.0
2023-08-15 18:14:43.953873,-95.0
2023-08-15 18:14:43.961563,-88.0
2023-08-15 18:14:43.969253,-88.0
2023-08-15 18:14:43.976942,-88.0
2023-08-15 18:14:43.984632,-90.0
2023-08-15 18:14:43.992321,-92.0
2023-08-15 18:14:44.000011,-97.0
2023-08-15 18:14:44.007701,-102.0
2023-08-15 18:14:44.015390,-102.0
2023-08-15 18:14:44.023080,-97.0
2023-08-15 18:14:44.030769,-92.0
2023-08-15 18:14:44.038459,-88.0
2023-08-15 18:14:44.046149,-90.0
2023-08-15 18:14:44.053838,-92.0
2023-08-15 18:14:44.061528,-85.0
2023-08-15 18:14:44.069218,-76.0
2023-08-15 18:14:44.076907,-78.0
2023-08-15 18:14:44.084597,-76.0
2023-08-15 18:14:44.092286,-59.0
2023-08-15 18:14:44.099976,-49.0
2023-08-15 18:14:44.107666,-59.0
2023-08-15 18:14:44.115355,-80.0
2023-08-15 18:14:44.123045,-109.0
2023-08-15 18:14:44.130734,-114.0
2023-08-15 18:14:44.138424,-97.0
2023-08-15 18:14:44.146114,-97.0
2023-08-15 18:14:44.153803,-104.0
2023-08-15 18:14:44.161493,-66.0
2023-08-15 18:14:44.169183,78.0
2023-08-15 18:14:44.176872,352.0
2023-08-15 18:14:44.184562,549.0
2023-08-15 18:14:44.192251,333.0
2023-08-15 18:14:44.199941,-228.0
2023-08-15 18:14:44.207631,-583.0
2023-08-15 18:14:44.215320,-454.0
2023-08-15 18:14:44.223010,-180.0
2023-08-15 18:14:44.230699,-92.0
2023-08-15 18:14:44.238389,-99.0
2023-08-15 18:14:44.246079,-76.0
2023-08-15 18:14:44.253768,-59.0
2023-08-15 18:14:44.261458,-66.0
2023-08-15 18:14:44.269148,-54.0
2023-08-15 18:14:44.276837,-38.0
2023-08-15 18:14:44.284527,-33.0
2023-08-15 18:14:44.292216,-23.0
2023-08-15 18:14:44.299906,-9.0
2023-08-15 18:14:44.307596,-4.0
2023-08-15 18:14:44.315285,4.0
2023-08-15 18:14:44.322975,19.0
2023-08-15 18:14:44.330664,33.0
2023-08-15 18:14:44.338354,49.0
2023-08-15 18:14:44.346044,71.0
2023-08-15 18:14:44.353733,88.0
2023-08-15 18:14:44.361423,104.0
2023-08-15 18:14:44.369113,128.0
2023-08-15 18:14:44.376802,145.0
2023-08-15 18:14:44.384492,154.0
2023-08-15 18:14:44.392181,161.0
2023-08-15 18:14:44.399871,166.0
2023-08-15 18:14:44.407561,159.0
2023-08-15 18:14:44.415250,138.0
2023-08-15 18:14:44.422940,104.0
2023-08-15 18:14:44.430629,54.0
2023-08-15 18:14:44.438319,0.0
2023-08-15 18:14:44.446009,-47.0
2023-08-15 18:14:44.453698,-90.0
2023-08-15 18:14:44.461388,-126.0
2023-08-15 18:14:44.469078,-147.0
2023-08-15 18:14:44.476767,-157.0
2023-08-15 18:14:44.484457,-164.0
2023-08-15 18:14:44.492146,-169.0
2023-08-15 18:14:44.499836,-171.0
2023-08-15 18:14:44.507526,-169.0
2023-08-15 18:14:44.515215,-164.0
2023-08-15 18:14:44.522905,-161.0
2023-08-15 18:14:44.530594,-159.0
2023-08-15 18:14:44.538284,-152.0
2023-08-15 18:14:44.545974,-140.0
2023-08-15 18:14:44.553663,-130.0
2023-08-15 18:14:44.561353,-126.0
2023-08-15 18:14:44.569043,-126.0
2023-08-15 18:14:44.576732,-123.0
2023-08-15 18:14:44.584422,-116.0
2023-08-15 18:14:44.592111,-114.0
2023-08-15 18:14:44.599801,-109.0
2023-08-15 18:14:44.607491,-107.0
2023-08-15 18:14:44.615180,-114.0
2023-08-15 18:14:44.622870,-121.0
2023-08-15 18:14:44.630559,-116.0
2023-08-15 18:14:44.638249,-116.0
2023-08-15 18:14:44.645939,-121.0
2023-08-15 18:14:44.653628,-121.0
2023-08-15 18:14:44.661318,-121.0
2023-08-15 18:14:44.669008,-121.0
2023-08-15 18:14:44.676697,-114.0
2023-08-15 18:14:44.684387,-114.0
2023-08-15 18:14:44.692076,-114.0
2023-08-15 18:14:44.699766,-109.0
2023-08-15 18:14:44.707456,-104.0
2023-08-15 18:14:44.715145,-102.0
2023-08-15 18:14:44.722835,-97.0
2023-08-15 18:14:44.730524,-88.0
2023-08-15 18:14:44.738214,-71.0
2023-08-15 18:14:44.745904,-59.0
2023-08-15 18:14:44.753593,-64.0
2023-08-15 18:14:44.761283,-80.0
2023-08-15 18:14:44.768973,-104.0
2023-08-15 18:14:44.776662,-111.0
2023-08-15 18:14:44.784352,-99.0
2023-08-15 18:14:44.792041,-95.0
2023-08-15 18:14:44.799731,-99.0
2023-08-15 18:14:44.807421,-71.0
2023-08-15 18:14:44.815110,42.0
2023-08-15 18:14:44.822800,292.0
2023-08-15 18:14:44.830489,542.0
2023-08-15 18:14:44.838179,435.0
2023-08-15 18:14:44.845869,-88.0
2023-08-15 18:14:44.853558,-554.0
2023-08-15 18:14:44.861248,-535.0
2023-08-15 18:14:44.868938,-235.0
2023-08-15 18:14:44.876627,-90.0
2023-08-15 18:14:44.884317,-90.0
2023-08-15 18:14:44.892006,-69.0
2023-08-15 18:14:44.899696,-52.0
2023-08-15 18:14:44.907386,-57.0
2023-08-15 18:14:44.915075,-45.0
2023-08-15 18:14:44.922765,-30.0
2023-08-15 18:14:44.930454,-30.0
2023-08-15 18:14:44.938144,-23.0
2023-08-15 18:14:44.945834,-7.0
2023-08-15 18:14:44.953523,7.0
2023-08-15 18:14:44.961213,19.0
2023-08-15 18:14:44.968903,30.0
2023-08-15 18:14:44.976592,45.0
2023-08-15 18:14:44.984282,57.0
2023-08-15 18:14:44.991971,73.0
2023-08-15 18:14:44.999661,90.0
2023-08-15 18:14:45.007351,99.0
2023-08-15 18:14:45.015040,114.0
2023-08-15 18:14:45.022730,138.0
2023-08-15 18:14:45.030419,164.0
2023-08-15 18:14:45.038109,173.0
2023-08-15 18:14:45.045799,164.0
2023-08-15 18:14:45.053488,157.0
2023-08-15 18:14:45.061178,142.0
2023-08-15 18:14:45.068868,109.0
2023-08-15 18:14:45.076557,57.0
2023-08-15 18:14:45.084247,0.0
2023-08-15 18:14:45.091936,-47.0
2023-08-15 18:14:45.099626,-88.0
2023-08-15 18:14:45.107316,-126.0
2023-08-15 18:14:45.115005,-152.0
2023-08-15 18:14:45.122695,-166.0
2023-08-15 18:14:45.130384,-176.0
2023-08-15 18:14:45.138074,-178.0
2023-08-15 18:14:45.145764,-176.0
2023-08-15 18:14:45.153453,-171.0
2023-08-15 18:14:45.161143,-171.0
2023-08-15 18:14:45.168833,-169.0
2023-08-15 18:14:45.176522,-161.0
2023-08-15 18:14:45.184212,-149.0
2023-08-15 18:14:45.191901,-147.0
2023-08-15 18:14:45.199591,-147.0
2023-08-15 18:14:45.207281,-142.0
2023-08-15 18:14:45.214970,-140.0
2023-08-15 18:14:45.222660,-130.0
2023-08-15 18:14:45.230349,-126.0
2023-08-15 18:14:45.238039,-123.0
2023-08-15 18:14:45.245729,-119.0
2023-08-15 18:14:45.253418,-119.0
2023-08-15 18:14:45.261108,-121.0
2023-08-15 18:14:45.268798,-116.0
2023-08-15 18:14:45.276487,-111.0
2023-08-15 18:14:45.284177,-114.0
2023-08-15 18:14:45.291866,-116.0
2023-08-15 18:14:45.299556,-114.0
2023-08-15 18:14:45.307246,-114.0
2023-08-15 18:14:45.314935,-116.0
2023-08-15 18:14:45.322625,-119.0
2023-08-15 18:14:45.330314,-114.0
2023-08-15 18:14:45.338004,-109.0
2023-08-15 18:14:45.345694,-109.0
2023-08-15 18:14:45.353383,-109.0
2023-08-15 18:14:45.361073,-107.0
2023-08-15 18:14:45.368763,-99.0
2023-08-15 18:14:45.376452,-92.0
2023-08-15 18:14:45.384142,-97.0
2023-08-15 18:14:45.391831,-88.0
2023-08-15 18:14:45.399521,-61.0
2023-08-15 18:14:45.407211,-59.0
2023-08-15 18:14:45.414900,-71.0
2023-08-15 18:14:45.422590,-90.0
2023-08-15 18:14:45.430279,-109.0
2023-08-15 18:14:45.437969,-111.0
2023-08-15 18:14:45.445659,-107.0
2023-08-15 18:14:45.453348,-104.0
2023-08-15 18:14:45.461038,-99.0
2023-08-15 18:14:45.468728,-69.0
2023-08-15 18:14:45.476417,59.0
2023-08-15 18:14:45.484107,335.0
2023-08-15 18:14:45.491796,535.0
2023-08-15 18:14:45.499486,314.0
2023-08-15 18:14:45.507176,-249.0
2023-08-15 18:14:45.514865,-626.0
2023-08-15 18:14:45.522555,-478.0
2023-08-15 18:14:45.530244,-142.0
2023-08-15 18:14:45.537934,-61.0
2023-08-15 18:14:45.545624,-107.0
2023-08-15 18:14:45.553313,-78.0
2023-08-15 18:14:45.561003,-54.0
2023-08-15 18:14:45.568693,-73.0
2023-08-15 18:14:45.576382,-64.0
2023-08-15 18:14:45.584072,-45.0
2023-08-15 18:14:45.591761,-42.0
2023-08-15 18:14:45.599451,-35.0
2023-08-15 18:14:45.607141,-21.0
2023-08-15 18:14:45.614830,-9.0
2023-08-15 18:14:45.622520,4.0
2023-08-15 18:14:45.630209,19.0
2023-08-15 18:14:45.637899,30.0
2023-08-15 18:14:45.645589,45.0
2023-08-15 18:14:45.653278,64.0
2023-08-15 18:14:45.660968,88.0
2023-08-15 18:14:45.668658,107.0
2023-08-15 18:14:45.676347,123.0
2023-08-15 18:14:45.684037,142.0
2023-08-15 18:14:45.691726,159.0
2023-08-15 18:14:45.699416,166.0
2023-08-15 18:14:45.707106,164.0
2023-08-15 18:14:45.714795,157.0
2023-08-15 18:14:45.722485,138.0
2023-08-15 18:14:45.730174,107.0
2023-08-15 18:14:45.737864,52.0
2023-08-15 18:14:45.745554,-14.0
2023-08-15 18:14:45.753243,-71.0
2023-08-15 18:14:45.760933,-114.0
2023-08-15 18:14:45.768623,-145.0
2023-08-15 18:14:45.776312,-166.0
2023-08-15 18:14:45.784002,-183.0
2023-08-15 18:14:45.791691,-199.0
2023-08-15 18:14:45.799381,-199.0
2023-08-15 18:14:45.807071,-192.0
2023-08-15 18:14:45.814760,-192.0
2023-08-15 18:14:45.822450,-188.0
2023-08-15 18:14:45.830139,-178.0
2023-08-15 18:14:45.837829,-176.0
2023-08-15 18:14:45.845519,-166.0
2023-08-15 18:14:45.853208,-159.0
2023-08-15 18:14:45.860898,-157.0
2023-08-15 18:14:45.868588,-149.0
2023-08-15 18:14:45.876277,-145.0
2023-08-15 18:14:45.883967,-142.0
2023-08-15 18:14:45.891656,-133.0
2023-08-15 18:14:45.899346,-128.0
2023-08-15 18:14:45.907036,-126.0
2023-08-15 18:14:45.914725,-121.0
2023-08-15 18:14:45.922415,-121.0
2023-08-15 18:14:45.930104,-119.0
2023-08-15 18:14:45.937794,-116.0
2023-08-15 18:14:45.945484,-116.0
2023-08-15 18:14:45.953173,-116.0
2023-08-15 18:14:45.960863,-116.0
2023-08-15 18:14:45.968553,-116.0
2023-08-15 18:14:45.976242,-114.0
2023-08-15 18:14:45.983932,-114.0
2023-08-15 18:14:45.991621,-114.0
2023-08-15 18:14:45.999311,-111.0
2023-08-15 18:14:46.007001,-109.0
2023-08-15 18:14:46.014690,-111.0
2023-08-15 18:14:46.022380,-111.0
2023-08-15 18:14:46.030069,-102.0
2023-08-15 18:14:46.037759,-95.0
2023-08-15 18:14:46.045449,-90.0
2023-08-15 18:14:46.053138,-71.0
2023-08-15 18:14:46.060828,-61.0
2023-08-15 18:14:46.068518,-71.0
2023-08-15 18:14:46.076207,-85.0
2023-08-15 18:14:46.083897,-107.0
2023-08-15 18:14:46.091586,-116.0
2023-08-15 18:14:46.099276,-107.0
2023-08-15 18:14:46.106966,-102.0
2023-08-15 18:14:46.114655,-107.0
2023-08-15 18:14:46.122345,-97.0
2023-08-15 18:14:46.130034,-21.0
2023-08-15 18:14:46.137724,195.0
2023-08-15 18:14:46.145414,471.0
2023-08-15 18:14:46.153103,468.0
2023-08-15 18:14:46.160793,28.0
2023-08-15 18:14:46.168483,-492.0
2023-08-15 18:14:46.176172,-587.0
2023-08-15 18:14:46.183862,-271.0
2023-08-15 18:14:46.191551,-54.0
2023-08-15 18:14:46.199241,-85.0
2023-08-15 18:14:46.206931,-92.0
2023-08-15 18:14:46.214620,-49.0
2023-08-15 18:14:46.222310,-54.0
2023-08-15 18:14:46.229999,-59.0
2023-08-15 18:14:46.237689,-42.0
2023-08-15 18:14:46.245379,-35.0
2023-08-15 18:14:46.253068,-30.0
2023-08-15 18:14:46.260758,-14.0
2023-08-15 18:14:46.268448,-4.0
2023-08-15 18:14:46.276137,0.0
2023-08-15 18:14:46.283827,7.0
2023-08-15 18:14:46.291516,21.0
2023-08-15 18:14:46.299206,40.0
2023-08-15 18:14:46.306896,57.0
2023-08-15 18:14:46.314585,80.0
2023-08-15 18:14:46.322275,99.0
2023-08-15 18:14:46.329964,111.0
2023-08-15 18:14:46.337654,123.0
2023-08-15 18:14:46.345344,140.0
2023-08-15 18:14:46.353033,154.0
2023-08-15 18:14:46.360723,154.0
2023-08-15 18:14:46.368413,145.0
2023-08-15 18:14:46.376102,123.0
2023-08-15 18:14:46.383792,95.0
2023-08-15 18:14:46.391481,54.0
2023-08-15 18:14:46.399171,0.0
2023-08-15 18:14:46.406861,-57.0
2023-08-15 18:14:46.414550,-104.0
2023-08-15 18:14:46.422240,-140.0
2023-08-15 18:14:46.429929,-166.0
2023-08-15 18:14:46.437619,-178.0
2023-08-15 18:14:46.445309,-183.0
2023-08-15 18:14:46.452998,-185.0
2023-08-15 18:14:46.460688,-185.0
2023-08-15 18:14:46.468378,-183.0
2023-08-15 18:14:46.476067,-178.0
2023-08-15 18:14:46.483757,-173.0
2023-08-15 18:14:46.491446,-166.0
2023-08-15 18:14:46.499136,-154.0
2023-08-15 18:14:46.506826,-152.0
2023-08-15 18:14:46.514515,-154.0
2023-08-15 18:14:46.522205,-147.0
2023-08-15 18:14:46.529894,-135.0
2023-08-15 18:14:46.537584,-133.0
2023-08-15 18:14:46.545274,-133.0
2023-08-15 18:14:46.552963,-123.0
2023-08-15 18:14:46.560653,-119.0
2023-08-15 18:14:46.568343,-116.0
2023-08-15 18:14:46.576032,-111.0
2023-08-15 18:14:46.583722,-109.0
2023-08-15 18:14:46.591411,-111.0
2023-08-15 18:14:46.599101,-111.0
2023-08-15 18:14:46.606791,-109.0
2023-08-15 18:14:46.614480,-107.0
2023-08-15 18:14:46.622170,-104.0
2023-08-15 18:14:46.629859,-102.0
2023-08-15 18:14:46.637549,-104.0
2023-08-15 18:14:46.645239,-107.0
2023-08-15 18:14:46.652928,-104.0
2023-08-15 18:14:46.660618,-99.0
2023-08-15 18:14:46.668308,-97.0
2023-08-15 18:14:46.675997,-92.0
2023-08-15 18:14:46.683687,-90.0
2023-08-15 18:14:46.691376,-85.0
2023-08-15 18:14:46.699066,-76.0
2023-08-15 18:14:46.706756,-66.0
2023-08-15 18:14:46.714445,-57.0
2023-08-15 18:14:46.722135,-45.0
2023-08-15 18:14:46.729824,-42.0
2023-08-15 18:14:46.737514,-57.0
2023-08-15 18:14:46.745204,-80.0
2023-08-15 18:14:46.752893,-90.0
2023-08-15 18:14:46.760583,-80.0
2023-08-15 18:14:46.768273,-78.0
2023-08-15 18:14:46.775962,-88.0
2023-08-15 18:14:46.783652,-78.0
2023-08-15 18:14:46.791341,-26.0
2023-08-15 18:14:46.799031,123.0
2023-08-15 18:14:46.806721,407.0
2023-08-15 18:14:46.814410,566.0
2023-08-15 18:14:46.822100,268.0
2023-08-15 18:14:46.829789,-302.0
2023-08-15 18:14:46.837479,-580.0
2023-08-15 18:14:46.845169,-368.0
2023-08-15 18:14:46.852858,-95.0
2023-08-15 18:14:46.860548,-61.0
2023-08-15 18:14:46.868238,-90.0
2023-08-15 18:14:46.875927,-61.0
2023-08-15 18:14:46.883617,-49.0
2023-08-15 18:14:46.891306,-54.0
2023-08-15 18:14:46.898996,-40.0
2023-08-15 18:14:46.906686,-28.0
2023-08-15 18:14:46.914375,-28.0
2023-08-15 18:14:46.922065,-16.0
2023-08-15 18:14:46.929754,-2.0
2023-08-15 18:14:46.937444,7.0
2023-08-15 18:14:46.945134,19.0
2023-08-15 18:14:46.952823,30.0
2023-08-15 18:14:46.960513,45.0
2023-08-15 18:14:46.968203,61.0
2023-08-15 18:14:46.975892,83.0
2023-08-15 18:14:46.983582,107.0
2023-08-15 18:14:46.991271,128.0
2023-08-15 18:14:46.998961,149.0
2023-08-15 18:14:47.006651,169.0
2023-08-15 18:14:47.014340,176.0
2023-08-15 18:14:47.022030,176.0
2023-08-15 18:14:47.029719,171.0
2023-08-15 18:14:47.037409,157.0
2023-08-15 18:14:47.045099,138.0
2023-08-15 18:14:47.052788,104.0
2023-08-15 18:14:47.060478,47.0
2023-08-15 18:14:47.068168,-11.0
2023-08-15 18:14:47.075857,-54.0
2023-08-15 18:14:47.083547,-97.0
2023-08-15 18:14:47.091236,-138.0
2023-08-15 18:14:47.098926,-159.0
2023-08-15 18:14:47.106616,-169.0
2023-08-15 18:14:47.114305,-178.0
2023-08-15 18:14:47.121995,-178.0
2023-08-15 18:14:47.129684,-176.0
2023-08-15 18:14:47.137374,-173.0
2023-08-15 18:14:47.145064,-166.0
2023-08-15 18:14:47.152753,-166.0
2023-08-15 18:14:47.160443,-154.0
2023-08-15 18:14:47.168133,-138.0
2023-08-15 18:14:47.175822,-138.0
2023-08-15 18:14:47.183512,-142.0
2023-08-15 18:14:47.191201,-133.0
2023-08-15 18:14:47.198891,-126.0
2023-08-15 18:14:47.206581,-123.0
2023-08-15 18:14:47.214270,-114.0
2023-08-15 18:14:47.221960,-114.0
2023-08-15 18:14:47.229649,-119.0
2023-08-15 18:14:47.237339,-111.0
2023-08-15 18:14:47.245029,-104.0
2023-08-15 18:14:47.252718,-107.0
2023-08-15 18:14:47.260408,-107.0
2023-08-15 18:14:47.268098,-104.0
2023-08-15 18:14:47.275787,-107.0
2023-08-15 18:14:47.283477,-109.0
2023-08-15 18:14:47.291166,-107.0
2023-08-15 18:14:47.298856,-109.0
2023-08-15 18:14:47.306546,-111.0
2023-08-15 18:14:47.314235,-107.0
2023-08-15 18:14:47.321925,-102.0
2023-08-15 18:14:47.329614,-104.0
2023-08-15 18:14:47.337304,-102.0
2023-08-15 18:14:47.344994,-97.0
2023-08-15 18:14:47.352683,-99.0
2023-08-15 18:14:47.360373,-90.0
2023-08-15 18:14:47.368063,-66.0
2023-08-15 18:14:47.375752,-59.0
2023-08-15 18:14:47.383442,-73.0
2023-08-15 18:14:47.391131,-90.0
2023-08-15 18:14:47.398821,-109.0
2023-08-15 18:14:47.406511,-107.0
2023-08-15 18:14:47.414200,-90.0
2023-08-15 18:14:47.421890,-88.0
2023-08-15 18:14:47.429579,-90.0
2023-08-15 18:14:47.437269,-57.0
2023-08-15 18:14:47.444959,71.0
2023-08-15 18:14:47.452648,335.0
2023-08-15 18:14:47.460338,552.0
2023-08-15 18:14:47.468028,380.0
2023-08-15 18:14:47.475717,-171.0
2023-08-15 18:14:47.483407,-585.0
2023-08-15 18:14:47.491096,-495.0
2023-08-15 18:14:47.498786,-195.0
2023-08-15 18:14:47.506476,-88.0
2023-08-15 18:14:47.514165,-97.0
2023-08-15 18:14:47.521855,-73.0
2023-08-15 18:14:47.529544,-64.0
2023-08-15 18:14:47.537234,-73.0
2023-08-15 18:14:47.544924,-61.0
2023-08-15 18:14:47.552613,-47.0
2023-08-15 18:14:47.560303,-38.0
2023-08-15 18:14:47.567993,-23.0
2023-08-15 18:14:47.575682,-11.0
2023-08-15 18:14:47.583372,-2.0
2023-08-15 18:14:47.591061,9.0
2023-08-15 18:14:47.598751,19.0
2023-08-15 18:14:47.606441,35.0
2023-08-15 18:14:47.614130,54.0
2023-08-15 18:14:47.621820,71.0
2023-08-15 18:14:47.629509,88.0
2023-08-15 18:14:47.637199,114.0
2023-08-15 18:14:47.644889,140.0
2023-08-15 18:14:47.652578,159.0
2023-08-15 18:14:47.660268,166.0
2023-08-15 18:14:47.667958,171.0
2023-08-15 18:14:47.675647,176.0
2023-08-15 18:14:47.683337,169.0
2023-08-15 18:14:47.691026,145.0
2023-08-15 18:14:47.698716,104.0
2023-08-15 18:14:47.706406,54.0
2023-08-15 18:14:47.714095,0.0
2023-08-15 18:14:47.721785,-57.0
2023-08-15 18:14:47.729474,-99.0
2023-08-15 18:14:47.737164,-133.0
2023-08-15 18:14:47.744854,-154.0
2023-08-15 18:14:47.752543,-166.0
2023-08-15 18:14:47.760233,-171.0
2023-08-15 18:14:47.767923,-173.0
2023-08-15 18:14:47.775612,-169.0
2023-08-15 18:14:47.783302,-164.0
2023-08-15 18:14:47.790991,-161.0
2023-08-15 18:14:47.798681,-157.0
2023-08-15 18:14:47.806371,-149.0
2023-08-15 18:14:47.814060,-142.0
2023-08-15 18:14:47.821750,-135.0
2023-08-15 18:14:47.829439,-130.0
2023-08-15 18:14:47.837129,-123.0
2023-08-15 18:14:47.844819,-119.0
2023-08-15 18:14:47.852508,-114.0
2023-08-15 18:14:47.860198,-111.0
2023-08-15 18:14:47.867888,-107.0
2023-08-15 18:14:47.875577,-99.0
2023-08-15 18:14:47.883267,-97.0
2023-08-15 18:14:47.890956,-99.0
2023-08-15 18:14:47.898646,-97.0
2023-08-15 18:14:47.906336,-97.0
2023-08-15 18:14:47.914025,-99.0
2023-08-15 18:14:47.921715,-92.0
2023-08-15 18:14:47.929404,-92.0
2023-08-15 18:14:47.937094,-99.0
2023-08-15 18:14:47.944784,-97.0
2023-08-15 18:14:47.952473,-90.0
2023-08-15 18:14:47.960163,-90.0
2023-08-15 18:14:47.967853,-90.0
2023-08-15 18:14:47.975542,-88.0
2023-08-15 18:14:47.983232,-85.0
2023-08-15 18:14:47.990921,-88.0
2023-08-15 18:14:47.998611,-88.0
2023-08-15 18:14:48.006301,-76.0
2023-08-15 18:14:48.013990,-57.0
2023-08-15 18:14:48.021680,-49.0
2023-08-15 18:14:48.029369,-57.0
2023-08-15 18:14:48.037059,-78.0
2023-08-15 18:14:48.044749,-99.0
2023-08-15 18:14:48.052438,-107.0
2023-08-15 18:14:48.060128,-95.0
2023-08-15 18:14:48.067818,-90.0
2023-08-15 18:14:48.075507,-92.0
2023-08-15 18:14:48.083197,-71.0
2023-08-15 18:14:48.090886,30.0
2023-08-15 18:14:48.098576,280.0
2023-08-15 18:14:48.106266,535.0
2023-08-15 18:14:48.113955,428.0
2023-08-15 18:14:48.121645,-104.0
2023-08-15 18:14:48.129334,-583.0
2023-08-15 18:14:48.137024,-554.0
2023-08-15 18:14:48.144714,-214.0
2023-08-15 18:14:48.152403,-61.0
2023-08-15 18:14:48.160093,-95.0
2023-08-15 18:14:48.167783,-78.0
2023-08-15 18:14:48.175472,-47.0
2023-08-15 18:14:48.183162,-57.0
2023-08-15 18:14:48.190851,-52.0
2023-08-15 18:14:48.198541,-35.0
2023-08-15 18:14:48.206231,-28.0
2023-08-15 18:14:48.213920,-19.0
2023-08-15 18:14:48.221610,-2.0
2023-08-15 18:14:48.229299,7.0
2023-08-15 18:14:48.236989,16.0
2023-08-15 18:14:48.244679,35.0
2023-08-15 18:14:48.252368,49.0
2023-08-15 18:14:48.260058,64.0
2023-08-15 18:14:48.267748,83.0
2023-08-15 18:14:48.275437,109.0
2023-08-15 18:14:48.283127,130.0
2023-08-15 18:14:48.290816,149.0
2023-08-15 18:14:48.298506,169.0
2023-08-15 18:14:48.306196,183.0
2023-08-15 18:14:48.313885,195.0
2023-08-15 18:14:48.321575,199.0
2023-08-15 18:14:48.329264,188.0
2023-08-15 18:14:48.336954,166.0
2023-08-15 18:14:48.344644,130.0
2023-08-15 18:14:48.352333,76.0
2023-08-15 18:14:48.360023,16.0
2023-08-15 18:14:48.367713,-38.0
2023-08-15 18:14:48.375402,-80.0
2023-08-15 18:14:48.383092,-119.0
2023-08-15 18:14:48.390781,-142.0
2023-08-15 18:14:48.398471,-159.0
2023-08-15 18:14:48.406161,-164.0
2023-08-15 18:14:48.413850,-164.0
2023-08-15 18:14:48.421540,-161.0
2023-08-15 18:14:48.429229,-161.0
2023-08-15 18:14:48.436919,-157.0
2023-08-15 18:14:48.444609,-152.0
2023-08-15 18:14:48.452298,-147.0
2023-08-15 18:14:48.459988,-140.0
2023-08-15 18:14:48.467678,-130.0
2023-08-15 18:14:48.475367,-123.0
2023-08-15 18:14:48.483057,-121.0
2023-08-15 18:14:48.490746,-119.0
2023-08-15 18:14:48.498436,-109.0
2023-08-15 18:14:48.506126,-104.0
2023-08-15 18:14:48.513815,-102.0
2023-08-15 18:14:48.521505,-97.0
2023-08-15 18:14:48.529194,-92.0
2023-08-15 18:14:48.536884,-95.0
2023-08-15 18:14:48.544574,-102.0
2023-08-15 18:14:48.552263,-99.0
2023-08-15 18:14:48.559953,-95.0
2023-08-15 18:14:48.567643,-95.0
2023-08-15 18:14:48.575332,-97.0
2023-08-15 18:14:48.583022,-99.0
2023-08-15 18:14:48.590711,-102.0
2023-08-15 18:14:48.598401,-99.0
2023-08-15 18:14:48.606091,-97.0
2023-08-15 18:14:48.613780,-99.0
2023-08-15 18:14:48.621470,-107.0
2023-08-15 18:14:48.629159,-109.0
2023-08-15 18:14:48.636849,-104.0
2023-08-15 18:14:48.644539,-102.0
2023-08-15 18:14:48.652228,-102.0
2023-08-15 18:14:48.659918,-97.0
2023-08-15 18:14:48.667608,-90.0
2023-08-15 18:14:48.675297,-85.0
2023-08-15 18:14:48.682987,-83.0
2023-08-15 18:14:48.690676,-71.0
2023-08-15 18:14:48.698366,-52.0
2023-08-15 18:14:48.706056,-47.0
2023-08-15 18:14:48.713745,-59.0
2023-08-15 18:14:48.721435,-78.0
2023-08-15 18:14:48.729124,-95.0
2023-08-15 18:14:48.736814,-97.0
2023-08-15 18:14:48.744504,-90.0
2023-08-15 18:14:48.752193,-88.0
2023-08-15 18:14:48.759883,-90.0
2023-08-15 18:14:48.767573,-61.0
2023-08-15 18:14:48.775262,76.0
2023-08-15 18:14:48.782952,357.0
2023-08-15 18:14:48.790641,549.0
2023-08-15 18:14:48.798331,323.0
2023-08-15 18:14:48.806021,-235.0
2023-08-15 18:14:48.813710,-606.0
2023-08-15 18:14:48.821400,-452.0
2023-08-15 18:14:48.829089,-114.0
2023-08-15 18:14:48.836779,-38.0
2023-08-15 18:14:48.844469,-92.0
2023-08-15 18:14:48.852158,-69.0
2023-08-15 18:14:48.859848,-45.0
2023-08-15 18:14:48.867538,-54.0
2023-08-15 18:14:48.875227,-49.0
2023-08-15 18:14:48.882917,-33.0
2023-08-15 18:14:48.890606,-28.0
2023-08-15 18:14:48.898296,-21.0
2023-08-15 18:14:48.905986,-9.0
2023-08-15 18:14:48.913675,2.0
2023-08-15 18:14:48.921365,14.0
2023-08-15 18:14:48.929054,30.0
2023-08-15 18:14:48.936744,45.0
2023-08-15 18:14:48.944434,59.0
2023-08-15 18:14:48.952123,78.0
2023-08-15 18:14:48.959813,104.0
2023-08-15 18:14:48.967503,126.0
2023-08-15 18:14:48.975192,145.0
2023-08-15 18:14:48.982882,161.0
2023-08-15 18:14:48.990571,171.0
2023-08-15 18:14:48.998261,178.0
2023-08-15 18:14:49.005951,176.0
2023-08-15 18:14:49.013640,166.0
2023-08-15 18:14:49.021330,147.0
2023-08-15 18:14:49.029019,114.0
2023-08-15 18:14:49.036709,64.0
2023-08-15 18:14:49.044399,0.0
2023-08-15 18:14:49.052088,-59.0
2023-08-15 18:14:49.059778,-102.0
2023-08-15 18:14:49.067468,-130.0
2023-08-15 18:14:49.075157,-154.0
2023-08-15 18:14:49.082847,-173.0
2023-08-15 18:14:49.090536,-183.0
2023-08-15 18:14:49.098226,-183.0
2023-08-15 18:14:49.105916,-176.0
2023-08-15 18:14:49.113605,-176.0
2023-08-15 18:14:49.121295,-183.0
2023-08-15 18:14:49.128984,-180.0
2023-08-15 18:14:49.136674,-171.0
2023-08-15 18:14:49.144364,-166.0
2023-08-15 18:14:49.152053,-157.0
2023-08-15 18:14:49.159743,-149.0
2023-08-15 18:14:49.167433,-149.0
2023-08-15 18:14:49.175122,-145.0
2023-08-15 18:14:49.182812,-140.0
2023-08-15 18:14:49.190501,-133.0
2023-08-15 18:14:49.198191,-130.0
2023-08-15 18:14:49.205881,-128.0
2023-08-15 18:14:49.213570,-126.0
2023-08-15 18:14:49.221260,-123.0
2023-08-15 18:14:49.228949,-121.0
2023-08-15 18:14:49.236639,-121.0
2023-08-15 18:14:49.244329,-119.0
2023-08-15 18:14:49.252018,-119.0
2023-08-15 18:14:49.259708,-121.0
2023-08-15 18:14:49.267398,-121.0
2023-08-15 18:14:49.275087,-119.0
2023-08-15 18:14:49.282777,-119.0
2023-08-15 18:14:49.290466,-116.0
2023-08-15 18:14:49.298156,-114.0
2023-08-15 18:14:49.305846,-116.0
2023-08-15 18:14:49.313535,-114.0
2023-08-15 18:14:49.321225,-111.0
2023-08-15 18:14:49.328914,-111.0
2023-08-15 18:14:49.336604,-109.0
2023-08-15 18:14:49.344294,-104.0
2023-08-15 18:14:49.351983,-97.0
2023-08-15 18:14:49.359673,-88.0
2023-08-15 18:14:49.367363,-78.0
2023-08-15 18:14:49.375052,-66.0
2023-08-15 18:14:49.382742,-57.0
2023-08-15 18:14:49.390431,-64.0
2023-08-15 18:14:49.398121,-85.0
2023-08-15 18:14:49.405811,-104.0
2023-08-15 18:14:49.413500,-109.0
2023-08-15 18:14:49.421190,-102.0
2023-08-15 18:14:49.428879,-97.0
2023-08-15 18:14:49.436569,-102.0
2023-08-15 18:14:49.444259,-85.0
2023-08-15 18:14:49.451948,-2.0
2023-08-15 18:14:49.459638,216.0
2023-08-15 18:14:49.467328,478.0
2023-08-15 18:14:49.475017,447.0
2023-08-15 18:14:49.482707,-7.0
2023-08-15 18:14:49.490396,-509.0
2023-08-15 18:14:49.498086,-571.0
2023-08-15 18:14:49.505776,-245.0
2023-08-15 18:14:49.513465,-45.0
2023-08-15 18:14:49.521155,-80.0
2023-08-15 18:14:49.528844,-88.0
2023-08-15 18:14:49.536534,-49.0
2023-08-15 18:14:49.544224,-57.0
2023-08-15 18:14:49.551913,-66.0
2023-08-15 18:14:49.559603,-52.0
2023-08-15 18:14:49.567293,-52.0
2023-08-15 18:14:49.574982,-45.0
2023-08-15 18:14:49.582672,-28.0
2023-08-15 18:14:49.590361,-16.0
2023-08-15 18:14:49.598051,-9.0
2023-08-15 18:14:49.605741,7.0
2023-08-15 18:14:49.613430,23.0
2023-08-15 18:14:49.621120,40.0
2023-08-15 18:14:49.628809,57.0
2023-08-15 18:14:49.636499,76.0
2023-08-15 18:14:49.644189,97.0
2023-08-15 18:14:49.651878,116.0
2023-08-15 18:14:49.659568,126.0
2023-08-15 18:14:49.667258,130.0
2023-08-15 18:14:49.674947,145.0
2023-08-15 18:14:49.682637,149.0
2023-08-15 18:14:49.690326,145.0
2023-08-15 18:14:49.698016,135.0
2023-08-15 18:14:49.705706,109.0
2023-08-15 18:14:49.713395,66.0
2023-08-15 18:14:49.721085,14.0
2023-08-15 18:14:49.728774,-38.0
2023-08-15 18:14:49.736464,-83.0
2023-08-15 18:14:49.744154,-121.0
2023-08-15 18:14:49.751843,-149.0
2023-08-15 18:14:49.759533,-161.0
2023-08-15 18:14:49.767223,-169.0
2023-08-15 18:14:49.774912,-173.0
2023-08-15 18:14:49.782602,-176.0
2023-08-15 18:14:49.790291,-176.0
2023-08-15 18:14:49.797981,-173.0
2023-08-15 18:14:49.805671,-164.0
2023-08-15 18:14:49.813360,-159.0
2023-08-15 18:14:49.821050,-159.0
2023-08-15 18:14:49.828739,-154.0
2023-08-15 18:14:49.836429,-147.0
2023-08-15 18:14:49.844119,-142.0
2023-08-15 18:14:49.851808,-133.0
2023-08-15 18:14:49.859498,-123.0
2023-08-15 18:14:49.867188,-126.0
2023-08-15 18:14:49.874877,-126.0
2023-08-15 18:14:49.882567,-119.0
2023-08-15 18:14:49.890256,-116.0
2023-08-15 18:14:49.897946,-116.0
2023-08-15 18:14:49.905636,-114.0
2023-08-15 18:14:49.913325,-111.0
2023-08-15 18:14:49.921015,-114.0
2023-08-15 18:14:49.928704,-119.0
2023-08-15 18:14:49.936394,-119.0
2023-08-15 18:14:49.944084,-111.0
2023-08-15 18:14:49.951773,-109.0
2023-08-15 18:14:49.959463,-111.0
2023-08-15 18:14:49.967153,-111.0
2023-08-15 18:14:49.974842,-109.0
2023-08-15 18:14:49.982532,-109.0
2023-08-15 18:14:49.990221,-107.0
2023-08-15 18:14:49.997911,-99.0
2023-08-15 18:14:50.005601,-95.0
2023-08-15 18:14:50.013290,-97.0
2023-08-15 18:14:50.020980,-97.0
2023-08-15 18:14:50.028669,-88.0
2023-08-15 18:14:50.036359,-78.0
2023-08-15 18:14:50.044049,-71.0
2023-08-15 18:14:50.051738,-64.0
2023-08-15 18:14:50.059428,-59.0
2023-08-15 18:14:50.067118,-57.0
2023-08-15 18:14:50.074807,-61.0
2023-08-15 18:14:50.082497,-78.0
2023-08-15 18:14:50.090186,-102.0
2023-08-15 18:14:50.097876,-104.0
2023-08-15 18:14:50.105566,-97.0
2023-08-15 18:14:50.113255,-99.0
2023-08-15 18:14:50.120945,-95.0
2023-08-15 18:14:50.128634,-61.0
2023-08-15 18:14:50.136324,54.0
2023-08-15 18:14:50.144014,307.0
2023-08-15 18:14:50.151703,533.0
2023-08-15 18:14:50.159393,380.0
2023-08-15 18:14:50.167082,-147.0
2023-08-15 18:14:50.174772,-557.0
2023-08-15 18:14:50.182462,-480.0
2023-08-15 18:14:50.190151,-185.0
2023-08-15 18:14:50.197841,-83.0
2023-08-15 18:14:50.205531,-111.0
2023-08-15 18:14:50.213220,-83.0
2023-08-15 18:14:50.220910,-61.0
2023-08-15 18:14:50.228599,-76.0
2023-08-15 18:14:50.236289,-69.0
2023-08-15 18:14:50.243979,-61.0
2023-08-15 18:14:50.251668,-61.0
2023-08-15 18:14:50.259358,-47.0
2023-08-15 18:14:50.267047,-28.0
2023-08-15 18:14:50.274737,-19.0
2023-08-15 18:14:50.282427,-14.0
2023-08-15 18:14:50.290116,-11.0
2023-08-15 18:14:50.297806,0.0
2023-08-15 18:14:50.305496,21.0
2023-08-15 18:14:50.313185,40.0
2023-08-15 18:14:50.320875,54.0
2023-08-15 18:14:50.328564,73.0
2023-08-15 18:14:50.336254,97.0
2023-08-15 18:14:50.343944,114.0
2023-08-15 18:14:50.351633,128.0
2023-08-15 18:14:50.359323,142.0
2023-08-15 18:14:50.367012,142.0
2023-08-15 18:14:50.374702,133.0
2023-08-15 18:14:50.382392,114.0
2023-08-15 18:14:50.390081,88.0
2023-08-15 18:14:50.397771,52.0
2023-08-15 18:14:50.405461,0.0
2023-08-15 18:14:50.413150,-54.0
2023-08-15 18:14:50.420840,-97.0
2023-08-15 18:14:50.428529,-130.0
2023-08-15 18:14:50.436219,-152.0
2023-08-15 18:14:50.443909,-164.0
2023-08-15 18:14:50.451598,-171.0
2023-08-15 18:14:50.459288,-171.0
2023-08-15 18:14:50.466977,-173.0
2023-08-15 18:14:50.474667,-171.0
2023-08-15 18:14:50.482357,-166.0
2023-08-15 18:14:50.490046,-159.0
2023-08-15 18:14:50.497736,-147.0
2023-08-15 18:14:50.505426,-140.0
2023-08-15 18:14:50.513115,-140.0
2023-08-15 18:14:50.520805,-138.0
2023-08-15 18:14:50.528494,-128.0
2023-08-15 18:14:50.536184,-121.0
2023-08-15 18:14:50.543874,-121.0
2023-08-15 18:14:50.551563,-116.0
2023-08-15 18:14:50.559253,-111.0
2023-08-15 18:14:50.566942,-116.0
2023-08-15 18:14:50.574632,-119.0
2023-08-15 18:14:50.582322,-114.0
2023-08-15 18:14:50.590011,-114.0
2023-08-15 18:14:50.597701,-114.0
2023-08-15 18:14:50.605391,-114.0
2023-08-15 18:14:50.613080,-116.0
2023-08-15 18:14:50.620770,-111.0
2023-08-15 18:14:50.628459,-107.0
2023-08-15 18:14:50.636149,-104.0
2023-08-15 18:14:50.643839,-104.0
2023-08-15 18:14:50.651528,-107.0
2023-08-15 18:14:50.659218,-104.0
2023-08-15 18:14:50.666907,-99.0
2023-08-15 18:14:50.674597,-97.0
2023-08-15 18:14:50.682287,-95.0
2023-08-15 18:14:50.689976,-92.0
2023-08-15 18:14:50.697666,-88.0
2023-08-15 18:14:50.705356,-85.0
2023-08-15 18:14:50.713045,-71.0
2023-08-15 18:14:50.720735,-52.0
2023-08-15 18:14:50.728424,-47.0
2023-08-15 18:14:50.736114,-57.0
2023-08-15 18:14:50.743804,-76.0
2023-08-15 18:14:50.751493,-95.0
2023-08-15 18:14:50.759183,-95.0
2023-08-15 18:14:50.766872,-85.0
2023-08-15 18:14:50.774562,-85.0
2023-08-15 18:14:50.782252,-80.0
2023-08-15 18:14:50.789941,-28.0
2023-08-15 18:14:50.797631,133.0
2023-08-15 18:14:50.805321,416.0
2023-08-15 18:14:50.813010,578.0
2023-08-15 18:14:50.820700,285.0
2023-08-15 18:14:50.828389,-307.0
2023-08-15 18:14:50.836079,-614.0
2023-08-15 18:14:50.843769,-421.0
2023-08-15 18:14:50.851458,-152.0
2023-08-15 18:14:50.859148,-95.0
2023-08-15 18:14:50.866837,-95.0
2023-08-15 18:14:50.874527,-64.0
2023-08-15 18:14:50.882217,-59.0
2023-08-15 18:14:50.889906,-64.0
2023-08-15 18:14:50.897596,-49.0
2023-08-15 18:14:50.905286,-35.0
2023-08-15 18:14:50.912975,-28.0
2023-08-15 18:14:50.920665,-19.0
2023-08-15 18:14:50.928354,-9.0
2023-08-15 18:14:50.936044,2.0
2023-08-15 18:14:50.943734,16.0
2023-08-15 18:14:50.951423,26.0
2023-08-15 18:14:50.959113,38.0
2023-08-15 18:14:50.966802,59.0
2023-08-15 18:14:50.974492,78.0
2023-08-15 18:14:50.982182,90.0
2023-08-15 18:14:50.989871,109.0
2023-08-15 18:14:50.997561,135.0
2023-08-15 18:14:51.005251,149.0
2023-08-15 18:14:51.012940,157.0
2023-08-15 18:14:51.020630,164.0
2023-08-15 18:14:51.028319,161.0
2023-08-15 18:14:51.036009,154.0
2023-08-15 18:14:51.043699,133.0
2023-08-15 18:14:51.051388,92.0
2023-08-15 18:14:51.059078,38.0
2023-08-15 18:14:51.066767,-21.0
2023-08-15 18:14:51.074457,-76.0
2023-08-15 18:14:51.082147,-116.0
2023-08-15 18:14:51.089836,-145.0
2023-08-15 18:14:51.097526,-164.0
2023-08-15 18:14:51.105216,-176.0
2023-08-15 18:14:51.112905,-178.0
2023-08-15 18:14:51.120595,-180.0
2023-08-15 18:14:51.128284,-178.0
2023-08-15 18:14:51.135974,-171.0
2023-08-15 18:14:51.143664,-166.0
2023-08-15 18:14:51.151353,-159.0
2023-08-15 18:14:51.159043,-152.0
2023-08-15 18:14:51.166732,-145.0
2023-08-15 18:14:51.174422,-140.0
2023-08-15 18:14:51.182112,-130.0
2023-08-15 18:14:51.189801,-123.0
2023-08-15 18:14:51.197491,-121.0
2023-08-15 18:14:51.205181,-114.0
2023-08-15 18:14:51.212870,-109.0
2023-08-15 18:14:51.220560,-107.0
2023-08-15 18:14:51.228249,-102.0
2023-08-15 18:14:51.235939,-102.0
2023-08-15 18:14:51.243629,-104.0
2023-08-15 18:14:51.251318,-102.0
2023-08-15 18:14:51.259008,-97.0
2023-08-15 18:14:51.266697,-99.0
2023-08-15 18:14:51.274387,-102.0
2023-08-15 18:14:51.282077,-104.0
2023-08-15 18:14:51.289766,-107.0
2023-08-15 18:14:51.297456,-107.0
2023-08-15 18:14:51.305146,-102.0
2023-08-15 18:14:51.312835,-102.0
2023-08-15 18:14:51.320525,-99.0
2023-08-15 18:14:51.328214,-99.0
2023-08-15 18:14:51.335904,-95.0
2023-08-15 18:14:51.343594,-88.0
2023-08-15 18:14:51.351283,-88.0
2023-08-15 18:14:51.358973,-80.0
2023-08-15 18:14:51.366662,-66.0
2023-08-15 18:14:51.374352,-69.0
2023-08-15 18:14:51.382042,-73.0
2023-08-15 18:14:51.389731,-80.0
2023-08-15 18:14:51.397421,-107.0
2023-08-15 18:14:51.405111,-114.0
2023-08-15 18:14:51.412800,-99.0
2023-08-15 18:14:51.420490,-97.0
2023-08-15 18:14:51.428179,-97.0
2023-08-15 18:14:51.435869,-69.0
2023-08-15 18:14:51.443559,40.0
2023-08-15 18:14:51.451248,297.0
2023-08-15 18:14:51.458938,537.0
2023-08-15 18:14:51.466627,402.0
2023-08-15 18:14:51.474317,-130.0
2023-08-15 18:14:51.482007,-573.0
2023-08-15 18:14:51.489696,-516.0
2023-08-15 18:14:51.497386,-188.0
2023-08-15 18:14:51.505076,-57.0
2023-08-15 18:14:51.512765,-90.0
2023-08-15 18:14:51.520455,-76.0
2023-08-15 18:14:51.528144,-52.0
2023-08-15 18:14:51.535834,-64.0
2023-08-15 18:14:51.543524,-61.0
2023-08-15 18:14:51.551213,-42.0
2023-08-15 18:14:51.558903,-35.0
2023-08-15 18:14:51.566592,-33.0
2023-08-15 18:14:51.574282,-23.0
2023-08-15 18:14:51.581972,-11.0
2023-08-15 18:14:51.589661,0.0
2023-08-15 18:14:51.597351,11.0
2023-08-15 18:14:51.605041,26.0
2023-08-15 18:14:51.612730,42.0
2023-08-15 18:14:51.620420,61.0
2023-08-15 18:14:51.628109,80.0
2023-08-15 18:14:51.635799,102.0
2023-08-15 18:14:51.643489,123.0
2023-08-15 18:14:51.651178,142.0
2023-08-15 18:14:51.658868,159.0
2023-08-15 18:14:51.666557,166.0
2023-08-15 18:14:51.674247,169.0
2023-08-15 18:14:51.681937,161.0
2023-08-15 18:14:51.689626,145.0
2023-08-15 18:14:51.697316,111.0
2023-08-15 18:14:51.705006,64.0
2023-08-15 18:14:51.712695,7.0
2023-08-15 18:14:51.720385,-47.0
2023-08-15 18:14:51.728074,-92.0
2023-08-15 18:14:51.735764,-126.0
2023-08-15 18:14:51.743454,-149.0
2023-08-15 18:14:51.751143,-161.0
2023-08-15 18:14:51.758833,-166.0
2023-08-15 18:14:51.766522,-166.0
2023-08-15 18:14:51.774212,-164.0
2023-08-15 18:14:51.781902,-164.0
2023-08-15 18:14:51.789591,-161.0
2023-08-15 18:14:51.797281,-154.0
2023-08-15 18:14:51.804971,-147.0
2023-08-15 18:14:51.812660,-142.0
2023-08-15 18:14:51.820350,-135.0
2023-08-15 18:14:51.828039,-128.0
2023-08-15 18:14:51.835729,-121.0
2023-08-15 18:14:51.843419,-114.0
2023-08-15 18:14:51.851108,-109.0
2023-08-15 18:14:51.858798,-107.0
2023-08-15 18:14:51.866487,-104.0
2023-08-15 18:14:51.874177,-102.0
2023-08-15 18:14:51.881867,-97.0
2023-08-15 18:14:51.889556,-95.0
2023-08-15 18:14:51.897246,-97.0
2023-08-15 18:14:51.904936,-102.0
2023-08-15 18:14:51.912625,-109.0
2023-08-15 18:14:51.920315,-114.0
2023-08-15 18:14:51.928004,-107.0
2023-08-15 18:14:51.935694,-104.0
2023-08-15 18:14:51.943384,-109.0
2023-08-15 18:14:51.951073,-116.0
2023-08-15 18:14:51.958763,-121.0
2023-08-15 18:14:51.966452,-119.0
2023-08-15 18:14:51.974142,-111.0
2023-08-15 18:14:51.981832,-109.0
2023-08-15 18:14:51.989521,-104.0
2023-08-15 18:14:51.997211,-97.0
2023-08-15 18:14:52.004901,-97.0
2023-08-15 18:14:52.012590,-92.0
2023-08-15 18:14:52.020280,-73.0
2023-08-15 18:14:52.027969,-59.0
2023-08-15 18:14:52.035659,-64.0
2023-08-15 18:14:52.043349,-80.0
2023-08-15 18:14:52.051038,-104.0
2023-08-15 18:14:52.058728,-116.0
2023-08-15 18:14:52.066417,-107.0
2023-08-15 18:14:52.074107,-104.0
2023-08-15 18:14:52.081797,-114.0
2023-08-15 18:14:52.089486,-107.0
2023-08-15 18:14:52.097176,-47.0
2023-08-15 18:14:52.104866,140.0
2023-08-15 18:14:52.112555,430.0
2023-08-15 18:14:52.120245,511.0
2023-08-15 18:14:52.127934,138.0
2023-08-15 18:14:52.135624,-423.0
2023-08-15 18:14:52.143314,-618.0
2023-08-15 18:14:52.151003,-340.0
2023-08-15 18:14:52.158693,-78.0
2023-08-15 18:14:52.166382,-78.0
2023-08-15 18:14:52.174072,-102.0
2023-08-15 18:14:52.181762,-64.0
2023-08-15 18:14:52.189451,-61.0
2023-08-15 18:14:52.197141,-69.0
2023-08-15 18:14:52.204831,-54.0
2023-08-15 18:14:52.212520,-42.0
2023-08-15 18:14:52.220210,-38.0
2023-08-15 18:14:52.227899,-28.0
2023-08-15 18:14:52.235589,-14.0
2023-08-15 18:14:52.243279,0.0
2023-08-15 18:14:52.250968,14.0
2023-08-15 18:14:52.258658,28.0
2023-08-15 18:14:52.266347,47.0
2023-08-15 18:14:52.274037,61.0
2023-08-15 18:14:52.281727,76.0
2023-08-15 18:14:52.289416,97.0
2023-08-15 18:14:52.297106,116.0
2023-08-15 18:14:52.304796,133.0
2023-08-15 18:14:52.312485,145.0
2023-08-15 18:14:52.320175,157.0
2023-08-15 18:14:52.327864,164.0
2023-08-15 18:14:52.335554,164.0
2023-08-15 18:14:52.343244,154.0
2023-08-15 18:14:52.350933,130.0
2023-08-15 18:14:52.358623,90.0
2023-08-15 18:14:52.366312,35.0
2023-08-15 18:14:52.374002,-19.0
2023-08-15 18:14:52.381692,-66.0
2023-08-15 18:14:52.389381,-104.0
2023-08-15 18:14:52.397071,-135.0
2023-08-15 18:14:52.404761,-154.0
2023-08-15 18:14:52.412450,-166.0
2023-08-15 18:14:52.420140,-166.0
2023-08-15 18:14:52.427829,-164.0
2023-08-15 18:14:52.435519,-164.0
2023-08-15 18:14:52.443209,-161.0
2023-08-15 18:14:52.450898,-161.0
2023-08-15 18:14:52.458588,-154.0
2023-08-15 18:14:52.466277,-145.0
2023-08-15 18:14:52.473967,-138.0
2023-08-15 18:14:52.481657,-133.0
2023-08-15 18:14:52.489346,-133.0
2023-08-15 18:14:52.497036,-138.0
2023-08-15 18:14:52.504726,-135.0
2023-08-15 18:14:52.512415,-126.0
2023-08-15 18:14:52.520105,-123.0
2023-08-15 18:14:52.527794,-126.0
2023-08-15 18:14:52.535484,-121.0
2023-08-15 18:14:52.543174,-119.0
2023-08-15 18:14:52.550863,-119.0
2023-08-15 18:14:52.558553,-114.0
2023-08-15 18:14:52.566242,-111.0
2023-08-15 18:14:52.573932,-114.0
2023-08-15 18:14:52.581622,-116.0
2023-08-15 18:14:52.589311,-119.0
2023-08-15 18:14:52.597001,-121.0
2023-08-15 18:14:52.604691,-119.0
2023-08-15 18:14:52.612380,-114.0
2023-08-15 18:14:52.620070,-111.0
2023-08-15 18:14:52.627759,-109.0
2023-08-15 18:14:52.635449,-111.0
2023-08-15 18:14:52.643139,-109.0
2023-08-15 18:14:52.650828,-97.0
2023-08-15 18:14:52.658518,-90.0
2023-08-15 18:14:52.666207,-90.0
2023-08-15 18:14:52.673897,-78.0
2023-08-15 18:14:52.681587,-59.0
2023-08-15 18:14:52.689276,-57.0
2023-08-15 18:14:52.696966,-69.0
2023-08-15 18:14:52.704656,-90.0
2023-08-15 18:14:52.712345,-107.0
2023-08-15 18:14:52.720035,-104.0
2023-08-15 18:14:52.727724,-97.0
2023-08-15 18:14:52.735414,-95.0
2023-08-15 18:14:52.743104,-92.0
2023-08-15 18:14:52.750793,-57.0
2023-08-15 18:14:52.758483,83.0
2023-08-15 18:14:52.766172,361.0
2023-08-15 18:14:52.773862,535.0
2023-08-15 18:14:52.781552,290.0
2023-08-15 18:14:52.789241,-264.0
2023-08-15 18:14:52.796931,-604.0
2023-08-15 18:14:52.804621,-426.0
2023-08-15 18:14:52.812310,-107.0
2023-08-15 18:14:52.820000,-52.0
2023-08-15 18:14:52.827689,-99.0
2023-08-15 18:14:52.835379,-69.0
2023-08-15 18:14:52.843069,-47.0
2023-08-15 18:14:52.850758,-61.0
2023-08-15 18:14:52.858448,-49.0
2023-08-15 18:14:52.866137,-33.0
2023-08-15 18:14:52.873827,-30.0
2023-08-15 18:14:52.881517,-23.0
2023-08-15 18:14:52.889206,-9.0
2023-08-15 18:14:52.896896,0.0
2023-08-15 18:14:52.904586,11.0
2023-08-15 18:14:52.912275,26.0
2023-08-15 18:14:52.919965,42.0
2023-08-15 18:14:52.927654,59.0
2023-08-15 18:14:52.935344,78.0
2023-08-15 18:14:52.943034,97.0
2023-08-15 18:14:52.950723,116.0
2023-08-15 18:14:52.958413,135.0
2023-08-15 18:14:52.966102,149.0
2023-08-15 18:14:52.973792,164.0
2023-08-15 18:14:52.981482,169.0
2023-08-15 18:14:52.989171,166.0
2023-08-15 18:14:52.996861,159.0
2023-08-15 18:14:53.004551,140.0
2023-08-15 18:14:53.012240,102.0
2023-08-15 18:14:53.019930,49.0
2023-08-15 18:14:53.027619,-7.0
2023-08-15 18:14:53.035309,-66.0
2023-08-15 18:14:53.042999,-114.0
2023-08-15 18:14:53.050688,-140.0
2023-08-15 18:14:53.058378,-157.0
2023-08-15 18:14:53.066067,-169.0
2023-08-15 18:14:53.073757,-176.0
2023-08-15 18:14:53.081447,-178.0
2023-08-15 18:14:53.089136,-185.0
2023-08-15 18:14:53.096826,-185.0
2023-08-15 18:14:53.104516,-176.0
2023-08-15 18:14:53.112205,-171.0
2023-08-15 18:14:53.119895,-166.0
2023-08-15 18:14:53.127584,-159.0
2023-08-15 18:14:53.135274,-147.0
2023-08-15 18:14:53.142964,-140.0
2023-08-15 18:14:53.150653,-138.0
2023-08-15 18:14:53.158343,-130.0
2023-08-15 18:14:53.166032,-126.0
2023-08-15 18:14:53.173722,-126.0
2023-08-15 18:14:53.181412,-123.0
2023-08-15 18:14:53.189101,-119.0
2023-08-15 18:14:53.196791,-114.0
2023-08-15 18:14:53.204481,-111.0
2023-08-15 18:14:53.212170,-114.0
2023-08-15 18:14:53.219860,-114.0
2023-08-15 18:14:53.227549,-109.0
2023-08-15 18:14:53.235239,-102.0
2023-08-15 18:14:53.242929,-107.0
2023-08-15 18:14:53.250618,-111.0
2023-08-15 18:14:53.258308,-107.0
2023-08-15 18:14:53.265997,-104.0
2023-08-15 18:14:53.273687,-107.0
2023-08-15 18:14:53.281377,-104.0
2023-08-15 18:14:53.289066,-104.0
2023-08-15 18:14:53.296756,-97.0
2023-08-15 18:14:53.304446,-88.0
2023-08-15 18:14:53.312135,-85.0
2023-08-15 18:14:53.319825,-78.0
2023-08-15 18:14:53.327514,-61.0
2023-08-15 18:14:53.335204,-49.0
2023-08-15 18:14:53.342894,-52.0
2023-08-15 18:14:53.350583,-69.0
2023-08-15 18:14:53.358273,-95.0
2023-08-15 18:14:53.365962,-104.0
2023-08-15 18:14:53.373652,-92.0
2023-08-15 18:14:53.381342,-88.0
2023-08-15 18:14:53.389031,-90.0
2023-08-15 18:14:53.396721,-78.0
2023-08-15 18:14:53.404411,-14.0
2023-08-15 18:14:53.412100,173.0
2023-08-15 18:14:53.419790,457.0
2023-08-15 18:14:53.427479,535.0
2023-08-15 18:14:53.435169,164.0
2023-08-15 18:14:53.442859,-392.0
2023-08-15 18:14:53.450548,-583.0
2023-08-15 18:14:53.458238,-316.0
2023-08-15 18:14:53.465927,-76.0
2023-08-15 18:14:53.473617,-71.0
2023-08-15 18:14:53.481307,-85.0
2023-08-15 18:14:53.488996,-52.0
2023-08-15 18:14:53.496686,-47.0
2023-08-15 18:14:53.504376,-49.0
2023-08-15 18:14:53.512065,-40.0
2023-08-15 18:14:53.519755,-30.0
2023-08-15 18:14:53.527444,-26.0
2023-08-15 18:14:53.535134,-14.0
2023-08-15 18:14:53.542824,-2.0
2023-08-15 18:14:53.550513,9.0
2023-08-15 18:14:53.558203,21.0
2023-08-15 18:14:53.565892,35.0
2023-08-15 18:14:53.573582,52.0
2023-08-15 18:14:53.581272,66.0
2023-08-15 18:14:53.588961,85.0
2023-08-15 18:14:53.596651,102.0
2023-08-15 18:14:53.604341,119.0
2023-08-15 18:14:53.612030,133.0
2023-08-15 18:14:53.619720,140.0
2023-08-15 18:14:53.627409,147.0
2023-08-15 18:14:53.635099,159.0
2023-08-15 18:14:53.642789,157.0
2023-08-15 18:14:53.650478,138.0
2023-08-15 18:14:53.658168,116.0
2023-08-15 18:14:53.665857,76.0
2023-08-15 18:14:53.673547,21.0
2023-08-15 18:14:53.681237,-28.0
2023-08-15 18:14:53.688926,-71.0
2023-08-15 18:14:53.696616,-116.0
2023-08-15 18:14:53.704306,-149.0
2023-08-15 18:14:53.711995,-164.0
2023-08-15 18:14:53.719685,-171.0
2023-08-15 18:14:53.727374,-176.0
2023-08-15 18:14:53.735064,-171.0
2023-08-15 18:14:53.742754,-166.0
2023-08-15 18:14:53.750443,-171.0
2023-08-15 18:14:53.758133,-169.0
2023-08-15 18:14:53.765822,-159.0
2023-08-15 18:14:53.773512,-149.0
2023-08-15 18:14:53.781202,-145.0
2023-08-15 18:14:53.788891,-138.0
2023-08-15 18:14:53.796581,-133.0
2023-08-15 18:14:53.804271,-130.0
2023-08-15 18:14:53.811960,-128.0
2023-08-15 18:14:53.819650,-119.0
2023-08-15 18:14:53.827339,-111.0
2023-08-15 18:14:53.835029,-111.0
2023-08-15 18:14:53.842719,-114.0
2023-08-15 18:14:53.850408,-109.0
2023-08-15 18:14:53.858098,-109.0
2023-08-15 18:14:53.865787,-111.0
2023-08-15 18:14:53.873477,-109.0
2023-08-15 18:14:53.881167,-107.0
2023-08-15 18:14:53.888856,-109.0
2023-08-15 18:14:53.896546,-111.0
2023-08-15 18:14:53.904236,-109.0
2023-08-15 18:14:53.911925,-109.0
2023-08-15 18:14:53.919615,-107.0
2023-08-15 18:14:53.927304,-102.0
2023-08-15 18:14:53.934994,-99.0
2023-08-15 18:14:53.942684,-95.0
2023-08-15 18:14:53.950373,-88.0
2023-08-15 18:14:53.958063,-83.0
2023-08-15 18:14:53.965752,-66.0
2023-08-15 18:14:53.973442,-54.0
2023-08-15 18:14:53.981132,-61.0
2023-08-15 18:14:53.988821,-80.0
2023-08-15 18:14:53.996511,-102.0
2023-08-15 18:14:54.004201,-107.0
2023-08-15 18:14:54.011890,-99.0
2023-08-15 18:14:54.019580,-97.0
2023-08-15 18:14:54.027269,-97.0
2023-08-15 18:14:54.034959,-66.0
2023-08-15 18:14:54.042649,57.0
2023-08-15 18:14:54.050338,318.0
2023-08-15 18:14:54.058028,554.0
2023-08-15 18:14:54.065717,411.0
2023-08-15 18:14:54.073407,-138.0
2023-08-15 18:14:54.081097,-573.0
2023-08-15 18:14:54.088786,-499.0
2023-08-15 18:14:54.096476,-195.0
2023-08-15 18:14:54.104166,-88.0
2023-08-15 18:14:54.111855,-104.0
2023-08-15 18:14:54.119545,-78.0
2023-08-15 18:14:54.127234,-61.0
2023-08-15 18:14:54.134924,-69.0
2023-08-15 18:14:54.142614,-57.0
2023-08-15 18:14:54.150303,-42.0
2023-08-15 18:14:54.157993,-38.0
2023-08-15 18:14:54.165682,-26.0
2023-08-15 18:14:54.173372,-9.0
2023-08-15 18:14:54.181062,0.0
2023-08-15 18:14:54.188751,11.0
2023-08-15 18:14:54.196441,28.0
2023-08-15 18:14:54.204131,35.0
2023-08-15 18:14:54.211820,42.0
2023-08-15 18:14:54.219510,64.0
2023-08-15 18:14:54.227199,85.0
2023-08-15 18:14:54.234889,102.0
2023-08-15 18:14:54.242579,121.0
2023-08-15 18:14:54.250268,135.0
2023-08-15 18:14:54.257958,147.0
2023-08-15 18:14:54.265647,157.0
2023-08-15 18:14:54.273337,159.0
2023-08-15 18:14:54.281027,149.0
2023-08-15 18:14:54.288716,126.0
2023-08-15 18:14:54.296406,85.0
2023-08-15 18:14:54.304096,33.0
2023-08-15 18:14:54.311785,-19.0
2023-08-15 18:14:54.319475,-69.0
2023-08-15 18:14:54.327164,-111.0
2023-08-15 18:14:54.334854,-145.0
2023-08-15 18:14:54.342544,-164.0
2023-08-15 18:14:54.350233,-176.0
2023-08-15 18:14:54.357923,-180.0
2023-08-15 18:14:54.365612,-178.0
2023-08-15 18:14:54.373302,-176.0
2023-08-15 18:14:54.380992,-180.0
2023-08-15 18:14:54.388681,-185.0
2023-08-15 18:14:54.396371,-178.0
2023-08-15 18:14:54.404061,-166.0
2023-08-15 18:14:54.411750,-159.0
2023-08-15 18:14:54.419440,-157.0
2023-08-15 18:14:54.427129,-149.0
2023-08-15 18:14:54.434819,-142.0
2023-08-15 18:14:54.442509,-135.0
2023-08-15 18:14:54.450198,-130.0
2023-08-15 18:14:54.457888,-123.0
2023-08-15 18:14:54.465577,-121.0
2023-08-15 18:14:54.473267,-121.0
2023-08-15 18:14:54.480957,-121.0
2023-08-15 18:14:54.488646,-119.0
2023-08-15 18:14:54.496336,-119.0
2023-08-15 18:14:54.504026,-116.0
2023-08-15 18:14:54.511715,-116.0
2023-08-15 18:14:54.519405,-119.0
2023-08-15 18:14:54.527094,-119.0
2023-08-15 18:14:54.534784,-116.0
2023-08-15 18:14:54.542474,-111.0
2023-08-15 18:14:54.550163,-109.0
2023-08-15 18:14:54.557853,-111.0
2023-08-15 18:14:54.565542,-107.0
2023-08-15 18:14:54.573232,-99.0
2023-08-15 18:14:54.580922,-95.0
2023-08-15 18:14:54.588611,-90.0
2023-08-15 18:14:54.596301,-71.0
2023-08-15 18:14:54.603991,-59.0
2023-08-15 18:14:54.611680,-71.0
2023-08-15 18:14:54.619370,-92.0
2023-08-15 18:14:54.627059,-111.0
2023-08-15 18:14:54.634749,-114.0
2023-08-15 18:14:54.642439,-104.0
2023-08-15 18:14:54.650128,-102.0
2023-08-15 18:14:54.657818,-102.0
2023-08-15 18:14:54.665507,-80.0
2023-08-15 18:14:54.673197,16.0
2023-08-15 18:14:54.680887,259.0
2023-08-15 18:14:54.688576,514.0
2023-08-15 18:14:54.696266,430.0
2023-08-15 18:14:54.703956,-73.0
2023-08-15 18:14:54.711645,-561.0
2023-08-15 18:14:54.719335,-549.0
2023-08-15 18:14:54.727024,-202.0
2023-08-15 18:14:54.734714,-42.0
2023-08-15 18:14:54.742404,-90.0
2023-08-15 18:14:54.750093,-80.0
2023-08-15 18:14:54.757783,-42.0
2023-08-15 18:14:54.765472,-54.0
2023-08-15 18:14:54.773162,-54.0
2023-08-15 18:14:54.780852,-35.0
2023-08-15 18:14:54.788541,-35.0
2023-08-15 18:14:54.796231,-35.0
2023-08-15 18:14:54.803921,-19.0
2023-08-15 18:14:54.811610,-2.0
2023-08-15 18:14:54.819300,7.0
2023-08-15 18:14:54.826989,23.0
2023-08-15 18:14:54.834679,42.0
2023-08-15 18:14:54.842369,59.0
2023-08-15 18:14:54.850058,78.0
2023-08-15 18:14:54.857748,97.0
2023-08-15 18:14:54.865437,119.0
2023-08-15 18:14:54.873127,138.0
2023-08-15 18:14:54.880817,157.0
2023-08-15 18:14:54.888506,171.0
2023-08-15 18:14:54.896196,178.0
2023-08-15 18:14:54.903886,180.0
2023-08-15 18:14:54.911575,173.0
2023-08-15 18:14:54.919265,157.0
2023-08-15 18:14:54.926954,123.0
2023-08-15 18:14:54.934644,73.0
2023-08-15 18:14:54.942334,19.0
2023-08-15 18:14:54.950023,-33.0
2023-08-15 18:14:54.957713,-80.0
2023-08-15 18:14:54.965402,-119.0
2023-08-15 18:14:54.973092,-145.0
2023-08-15 18:14:54.980782,-159.0
2023-08-15 18:14:54.988471,-169.0
2023-08-15 18:14:54.996161,-169.0
2023-08-15 18:14:55.003851,-169.0
2023-08-15 18:14:55.011540,-166.0
2023-08-15 18:14:55.019230,-161.0
2023-08-15 18:14:55.026919,-154.0
2023-08-15 18:14:55.034609,-147.0
2023-08-15 18:14:55.042299,-140.0
2023-08-15 18:14:55.049988,-133.0
2023-08-15 18:14:55.057678,-130.0
2023-08-15 18:14:55.065367,-126.0
2023-08-15 18:14:55.073057,-119.0
2023-08-15 18:14:55.080747,-116.0
2023-08-15 18:14:55.088436,-114.0
2023-08-15 18:14:55.096126,-107.0
2023-08-15 18:14:55.103816,-104.0
2023-08-15 18:14:55.111505,-109.0
2023-08-15 18:14:55.119195,-109.0
2023-08-15 18:14:55.126884,-104.0
2023-08-15 18:14:55.134574,-104.0
2023-08-15 18:14:55.142264,-107.0
2023-08-15 18:14:55.149953,-107.0
2023-08-15 18:14:55.157643,-104.0
2023-08-15 18:14:55.165332,-104.0
2023-08-15 18:14:55.173022,-104.0
2023-08-15 18:14:55.180712,-102.0
2023-08-15 18:14:55.188401,-102.0
2023-08-15 18:14:55.196091,-99.0
2023-08-15 18:14:55.203781,-90.0
2023-08-15 18:14:55.211470,-83.0
2023-08-15 18:14:55.219160,-83.0
2023-08-15 18:14:55.226849,-73.0
2023-08-15 18:14:55.234539,-59.0
2023-08-15 18:14:55.242229,-57.0
2023-08-15 18:14:55.249918,-69.0
2023-08-15 18:14:55.257608,-88.0
2023-08-15 18:14:55.265297,-107.0
2023-08-15 18:14:55.272987,-102.0
2023-08-15 18:14:55.280677,-92.0
2023-08-15 18:14:55.288366,-95.0
2023-08-15 18:14:55.296056,-92.0
2023-08-15 18:14:55.303746,-54.0
2023-08-15 18:14:55.311435,92.0
2023-08-15 18:14:55.319125,376.0
2023-08-15 18:14:55.326814,545.0
2023-08-15 18:14:55.334504,278.0
2023-08-15 18:14:55.342194,-290.0
2023-08-15 18:14:55.349883,-621.0
2023-08-15 18:14:55.357573,-418.0
2023-08-15 18:14:55.365262,-92.0
2023-08-15 18:14:55.372952,-57.0
2023-08-15 18:14:55.380642,-116.0
2023-08-15 18:14:55.388331,-76.0
2023-08-15 18:14:55.396021,-47.0
2023-08-15 18:14:55.403711,-66.0
2023-08-15 18:14:55.411400,-57.0
2023-08-15 18:14:55.419090,-38.0
2023-08-15 18:14:55.426779,-38.0
2023-08-15 18:14:55.434469,-28.0
2023-08-15 18:14:55.442159,-7.0
2023-08-15 18:14:55.449848,4.0
2023-08-15 18:14:55.457538,14.0
2023-08-15 18:14:55.465227,28.0
2023-08-15 18:14:55.472917,47.0
2023-08-15 18:14:55.480607,64.0
2023-08-15 18:14:55.488296,83.0
2023-08-15 18:14:55.495986,104.0
2023-08-15 18:14:55.503676,123.0
2023-08-15 18:14:55.511365,142.0
2023-08-15 18:14:55.519055,159.0
2023-08-15 18:14:55.526744,173.0
2023-08-15 18:14:55.534434,178.0
2023-08-15 18:14:55.542124,178.0
2023-08-15 18:14:55.549813,169.0
2023-08-15 18:14:55.557503,145.0
2023-08-15 18:14:55.565192,109.0
2023-08-15 18:14:55.572882,61.0
2023-08-15 18:14:55.580572,7.0
2023-08-15 18:14:55.588261,-45.0
2023-08-15 18:14:55.595951,-85.0
2023-08-15 18:14:55.603641,-119.0
2023-08-15 18:14:55.611330,-142.0
2023-08-15 18:14:55.619020,-157.0
2023-08-15 18:14:55.626709,-159.0
2023-08-15 18:14:55.634399,-159.0
2023-08-15 18:14:55.642089,-161.0
2023-08-15 18:14:55.649778,-159.0
2023-08-15 18:14:55.657468,-154.0
2023-08-15 18:14:55.665157,-147.0
2023-08-15 18:14:55.672847,-140.0
2023-08-15 18:14:55.680537,-135.0
2023-08-15 18:14:55.688226,-133.0
2023-08-15 18:14:55.695916,-128.0
2023-08-15 18:14:55.703606,-121.0
2023-08-15 18:14:55.711295,-114.0
2023-08-15 18:14:55.718985,-109.0
2023-08-15 18:14:55.726674,-111.0
2023-08-15 18:14:55.734364,-114.0
2023-08-15 18:14:55.742054,-109.0
2023-08-15 18:14:55.749743,-104.0
2023-08-15 18:14:55.757433,-102.0
2023-08-15 18:14:55.765122,-102.0
2023-08-15 18:14:55.772812,-102.0
2023-08-15 18:14:55.780502,-102.0
2023-08-15 18:14:55.788191,-104.0
2023-08-15 18:14:55.795881,-102.0
2023-08-15 18:14:55.803571,-99.0
2023-08-15 18:14:55.811260,-97.0
2023-08-15 18:14:55.818950,-99.0
2023-08-15 18:14:55.826639,-109.0
2023-08-15 18:14:55.834329,-104.0
2023-08-15 18:14:55.842019,-92.0
2023-08-15 18:14:55.849708,-90.0
2023-08-15 18:14:55.857398,-85.0
2023-08-15 18:14:55.865087,-66.0
2023-08-15 18:14:55.872777,-57.0
2023-08-15 18:14:55.880467,-64.0
2023-08-15 18:14:55.888156,-83.0
2023-08-15 18:14:55.895846,-102.0
2023-08-15 18:14:55.903536,-107.0
2023-08-15 18:14:55.911225,-97.0
2023-08-15 18:14:55.918915,-97.0
2023-08-15 18:14:55.926604,-95.0
2023-08-15 18:14:55.934294,-76.0
2023-08-15 18:14:55.941984,14.0
2023-08-15 18:14:55.949673,249.0
2023-08-15 18:14:55.957363,511.0
2023-08-15 18:14:55.965052,447.0
2023-08-15 18:14:55.972742,-42.0
2023-08-15 18:14:55.980432,-537.0
2023-08-15 18:14:55.988121,-552.0
2023-08-15 18:14:55.995811,-202.0
2023-08-15 18:14:56.003501,-28.0
2023-08-15 18:14:56.011190,-83.0
2023-08-15 18:14:56.018880,-80.0
2023-08-15 18:14:56.026569,-38.0
2023-08-15 18:14:56.034259,-47.0
2023-08-15 18:14:56.041949,-49.0
2023-08-15 18:14:56.049638,-33.0
2023-08-15 18:14:56.057328,-26.0
2023-08-15 18:14:56.065017,-21.0
2023-08-15 18:14:56.072707,-4.0
2023-08-15 18:14:56.080397,9.0
2023-08-15 18:14:56.088086,21.0
2023-08-15 18:14:56.095776,33.0
2023-08-15 18:14:56.103466,45.0
2023-08-15 18:14:56.111155,61.0
2023-08-15 18:14:56.118845,78.0
2023-08-15 18:14:56.126534,97.0
2023-08-15 18:14:56.134224,121.0
2023-08-15 18:14:56.141914,138.0
2023-08-15 18:14:56.149603,157.0
2023-08-15 18:14:56.157293,176.0
2023-08-15 18:14:56.164982,183.0
2023-08-15 18:14:56.172672,180.0
2023-08-15 18:14:56.180362,173.0
2023-08-15 18:14:56.188051,157.0
2023-08-15 18:14:56.195741,128.0
2023-08-15 18:14:56.203431,83.0
2023-08-15 18:14:56.211120,28.0
2023-08-15 18:14:56.218810,-28.0
2023-08-15 18:14:56.226499,-76.0
2023-08-15 18:14:56.234189,-107.0
2023-08-15 18:14:56.241879,-123.0
2023-08-15 18:14:56.249568,-138.0
2023-08-15 18:14:56.257258,-147.0
2023-08-15 18:14:56.264947,-152.0
2023-08-15 18:14:56.272637,-152.0
2023-08-15 18:14:56.280327,-149.0
2023-08-15 18:14:56.288016,-145.0
2023-08-15 18:14:56.295706,-142.0
2023-08-15 18:14:56.303396,-135.0
2023-08-15 18:14:56.311085,-128.0
2023-08-15 18:14:56.318775,-123.0
2023-08-15 18:14:56.326464,-123.0
2023-08-15 18:14:56.334154,-119.0
2023-08-15 18:14:56.341844,-116.0
2023-08-15 18:14:56.349533,-109.0
2023-08-15 18:14:56.357223,-107.0
2023-08-15 18:14:56.364912,-107.0
2023-08-15 18:14:56.372602,-104.0
2023-08-15 18:14:56.380292,-99.0
2023-08-15 18:14:56.387981,-102.0
2023-08-15 18:14:56.395671,-104.0
2023-08-15 18:14:56.403361,-107.0
2023-08-15 18:14:56.411050,-111.0
2023-08-15 18:14:56.418740,-116.0
2023-08-15 18:14:56.426429,-114.0
2023-08-15 18:14:56.434119,-111.0
2023-08-15 18:14:56.441809,-111.0
2023-08-15 18:14:56.449498,-107.0
2023-08-15 18:14:56.457188,-107.0
2023-08-15 18:14:56.464877,-109.0
2023-08-15 18:14:56.472567,-109.0
2023-08-15 18:14:56.480257,-104.0
2023-08-15 18:14:56.487946,-95.0
2023-08-15 18:14:56.495636,-90.0
2023-08-15 18:14:56.503326,-80.0
2023-08-15 18:14:56.511015,-61.0
2023-08-15 18:14:56.518705,-54.0
2023-08-15 18:14:56.526394,-64.0
2023-08-15 18:14:56.534084,-85.0
2023-08-15 18:14:56.541774,-102.0
2023-08-15 18:14:56.549463,-107.0
2023-08-15 18:14:56.557153,-95.0
2023-08-15 18:14:56.564842,-90.0
2023-08-15 18:14:56.572532,-95.0
2023-08-15 18:14:56.580222,-69.0
2023-08-15 18:14:56.587911,49.0
2023-08-15 18:14:56.595601,307.0
2023-08-15 18:14:56.603291,540.0
2023-08-15 18:14:56.610980,399.0
2023-08-15 18:14:56.618670,-142.0
2023-08-15 18:14:56.626359,-576.0
2023-08-15 18:14:56.634049,-495.0
2023-08-15 18:14:56.641739,-173.0
2023-08-15 18:14:56.649428,-61.0
2023-08-15 18:14:56.657118,-97.0
2023-08-15 18:14:56.664807,-73.0
2023-08-15 18:14:56.672497,-54.0
2023-08-15 18:14:56.680187,-66.0
2023-08-15 18:14:56.687876,-54.0
2023-08-15 18:14:56.695566,-35.0
2023-08-15 18:14:56.703256,-38.0
2023-08-15 18:14:56.710945,-28.0
2023-08-15 18:14:56.718635,-9.0
2023-08-15 18:14:56.726324,-2.0
2023-08-15 18:14:56.734014,9.0
2023-08-15 18:14:56.741704,30.0
2023-08-15 18:14:56.749393,45.0
2023-08-15 18:14:56.757083,61.0
2023-08-15 18:14:56.764772,78.0
2023-08-15 18:14:56.772462,92.0
2023-08-15 18:14:56.780152,114.0
2023-08-15 18:14:56.787841,135.0
2023-08-15 18:14:56.795531,147.0
2023-08-15 18:14:56.803221,161.0
2023-08-15 18:14:56.810910,173.0
2023-08-15 18:14:56.818600,171.0
2023-08-15 18:14:56.826289,164.0
2023-08-15 18:14:56.833979,142.0
2023-08-15 18:14:56.841669,109.0
2023-08-15 18:14:56.849358,64.0
2023-08-15 18:14:56.857048,11.0
2023-08-15 18:14:56.864737,-38.0
2023-08-15 18:14:56.872427,-76.0
2023-08-15 18:14:56.880117,-104.0
2023-08-15 18:14:56.887806,-128.0
2023-08-15 18:14:56.895496,-140.0
2023-08-15 18:14:56.903186,-145.0
2023-08-15 18:14:56.910875,-149.0
2023-08-15 18:14:56.918565,-149.0
2023-08-15 18:14:56.926254,-147.0
2023-08-15 18:14:56.933944,-142.0
2023-08-15 18:14:56.941634,-142.0
2023-08-15 18:14:56.949323,-138.0
2023-08-15 18:14:56.957013,-135.0
2023-08-15 18:14:56.964702,-133.0
2023-08-15 18:14:56.972392,-126.0
2023-08-15 18:14:56.980082,-119.0
2023-08-15 18:14:56.987771,-116.0
2023-08-15 18:14:56.995461,-123.0
2023-08-15 18:14:57.003151,-126.0
2023-08-15 18:14:57.010840,-119.0
2023-08-15 18:14:57.018530,-116.0
2023-08-15 18:14:57.026219,-121.0
2023-08-15 18:14:57.033909,-119.0
2023-08-15 18:14:57.041599,-116.0
2023-08-15 18:14:57.049288,-119.0
2023-08-15 18:14:57.056978,-121.0
2023-08-15 18:14:57.064667,-119.0
2023-08-15 18:14:57.072357,-114.0
2023-08-15 18:14:57.080047,-114.0
2023-08-15 18:14:57.087736,-114.0
2023-08-15 18:14:57.095426,-114.0
2023-08-15 18:14:57.103116,-111.0
2023-08-15 18:14:57.110805,-109.0
2023-08-15 18:14:57.118495,-107.0
2023-08-15 18:14:57.126184,-111.0
2023-08-15 18:14:57.133874,-102.0
2023-08-15 18:14:57.141564,-78.0
2023-08-15 18:14:57.149253,-71.0
2023-08-15 18:14:57.156943,-83.0
2023-08-15 18:14:57.164632,-97.0
2023-08-15 18:14:57.172322,-114.0
2023-08-15 18:14:57.180012,-111.0
2023-08-15 18:14:57.187701,-99.0
2023-08-15 18:14:57.195391,-104.0
2023-08-15 18:14:57.203081,-107.0
2023-08-15 18:14:57.210770,-73.0
2023-08-15 18:14:57.218460,57.0
2023-08-15 18:14:57.226149,323.0
2023-08-15 18:14:57.233839,549.0
2023-08-15 18:14:57.241529,368.0
2023-08-15 18:14:57.249218,-204.0
2023-08-15 18:14:57.256908,-602.0
2023-08-15 18:14:57.264597,-480.0
2023-08-15 18:14:57.272287,-176.0
2023-08-15 18:14:57.279977,-80.0
2023-08-15 18:14:57.287666,-95.0
2023-08-15 18:14:57.295356,-71.0
2023-08-15 18:14:57.303046,-59.0
2023-08-15 18:14:57.310735,-66.0
2023-08-15 18:14:57.318425,-52.0
2023-08-15 18:14:57.326114,-35.0
2023-08-15 18:14:57.333804,-30.0
2023-08-15 18:14:57.341494,-21.0
2023-08-15 18:14:57.349183,-9.0
2023-08-15 18:14:57.356873,0.0
2023-08-15 18:14:57.364562,14.0
2023-08-15 18:14:57.372252,30.0
2023-08-15 18:14:57.379942,49.0
2023-08-15 18:14:57.387631,69.0
2023-08-15 18:14:57.395321,83.0
2023-08-15 18:14:57.403011,102.0
2023-08-15 18:14:57.410700,126.0
2023-08-15 18:14:57.418390,145.0
2023-08-15 18:14:57.426079,159.0
2023-08-15 18:14:57.433769,169.0
2023-08-15 18:14:57.441459,173.0
2023-08-15 18:14:57.449148,166.0
2023-08-15 18:14:57.456838,157.0
2023-08-15 18:14:57.464527,138.0
2023-08-15 18:14:57.472217,99.0
2023-08-15 18:14:57.479907,49.0
2023-08-15 18:14:57.487596,-4.0
2023-08-15 18:14:57.495286,-54.0
2023-08-15 18:14:57.502976,-88.0
2023-08-15 18:14:57.510665,-114.0
2023-08-15 18:14:57.518355,-133.0
2023-08-15 18:14:57.526044,-145.0
2023-08-15 18:14:57.533734,-159.0
2023-08-15 18:14:57.541424,-166.0
2023-08-15 18:14:57.549113,-164.0
2023-08-15 18:14:57.556803,-159.0
2023-08-15 18:14:57.564492,-157.0
2023-08-15 18:14:57.572182,-154.0
2023-08-15 18:14:57.579872,-149.0
2023-08-15 18:14:57.587561,-142.0
2023-08-15 18:14:57.595251,-135.0
2023-08-15 18:14:57.602941,-128.0
2023-08-15 18:14:57.610630,-123.0
2023-08-15 18:14:57.618320,-119.0
2023-08-15 18:14:57.626009,-121.0
2023-08-15 18:14:57.633699,-121.0
2023-08-15 18:14:57.641389,-116.0
2023-08-15 18:14:57.649078,-111.0
2023-08-15 18:14:57.656768,-111.0
2023-08-15 18:14:57.664457,-111.0
2023-08-15 18:14:57.672147,-114.0
2023-08-15 18:14:57.679837,-114.0
2023-08-15 18:14:57.687526,-116.0
2023-08-15 18:14:57.695216,-116.0
2023-08-15 18:14:57.702906,-119.0
2023-08-15 18:14:57.710595,-116.0
2023-08-15 18:14:57.718285,-114.0
2023-08-15 18:14:57.725974,-114.0
2023-08-15 18:14:57.733664,-111.0
2023-08-15 18:14:57.741354,-109.0
2023-08-15 18:14:57.749043,-102.0
2023-08-15 18:14:57.756733,-97.0
2023-08-15 18:14:57.764422,-99.0
2023-08-15 18:14:57.772112,-88.0
2023-08-15 18:14:57.779802,-69.0
2023-08-15 18:14:57.787491,-59.0
2023-08-15 18:14:57.795181,-69.0
2023-08-15 18:14:57.802871,-90.0
2023-08-15 18:14:57.810560,-114.0
2023-08-15 18:14:57.818250,-111.0
2023-08-15 18:14:57.825939,-99.0
2023-08-15 18:14:57.833629,-99.0
2023-08-15 18:14:57.841319,-99.0
2023-08-15 18:14:57.849008,-71.0
2023-08-15 18:14:57.856698,47.0
2023-08-15 18:14:57.864387,309.0
2023-08-15 18:14:57.872077,533.0
2023-08-15 18:14:57.879767,359.0
2023-08-15 18:14:57.887456,-195.0
2023-08-15 18:14:57.895146,-614.0
2023-08-15 18:14:57.902835,-502.0
2023-08-15 18:14:57.910525,-161.0
2023-08-15 18:14:57.918215,-54.0
2023-08-15 18:14:57.925904,-92.0
2023-08-15 18:14:57.933594,-66.0
2023-08-15 18:14:57.941284,-47.0
2023-08-15 18:14:57.948973,-61.0
2023-08-15 18:14:57.956663,-52.0
2023-08-15 18:14:57.964352,-35.0
2023-08-15 18:14:57.972042,-30.0
2023-08-15 18:14:57.979732,-21.0
2023-08-15 18:14:57.987421,-7.0
2023-08-15 18:14:57.995111,4.0
2023-08-15 18:14:58.002800,16.0
2023-08-15 18:14:58.010490,33.0
2023-08-15 18:14:58.018180,49.0
2023-08-15 18:14:58.025869,66.0
2023-08-15 18:14:58.033559,83.0
2023-08-15 18:14:58.041249,104.0
2023-08-15 18:14:58.048938,126.0
2023-08-15 18:14:58.056628,145.0
2023-08-15 18:14:58.064317,164.0
2023-08-15 18:14:58.072007,176.0
2023-08-15 18:14:58.079697,178.0
2023-08-15 18:14:58.087386,178.0
2023-08-15 18:14:58.095076,169.0
2023-08-15 18:14:58.102765,145.0
2023-08-15 18:14:58.110455,109.0
2023-08-15 18:14:58.118145,61.0
2023-08-15 18:14:58.125834,7.0
2023-08-15 18:14:58.133524,-49.0
2023-08-15 18:14:58.141214,-92.0
2023-08-15 18:14:58.148903,-123.0
2023-08-15 18:14:58.156593,-145.0
2023-08-15 18:14:58.164282,-161.0
2023-08-15 18:14:58.171972,-171.0
2023-08-15 18:14:58.179662,-171.0
2023-08-15 18:14:58.187351,-173.0
2023-08-15 18:14:58.195041,-176.0
2023-08-15 18:14:58.202730,-171.0
2023-08-15 18:14:58.210420,-166.0
2023-08-15 18:14:58.218110,-161.0
2023-08-15 18:14:58.225799,-154.0
2023-08-15 18:14:58.233489,-145.0
2023-08-15 18:14:58.241179,-138.0
2023-08-15 18:14:58.248868,-133.0
2023-08-15 18:14:58.256558,-130.0
2023-08-15 18:14:58.264247,-126.0
2023-08-15 18:14:58.271937,-119.0
2023-08-15 18:14:58.279627,-116.0
2023-08-15 18:14:58.287316,-114.0
2023-08-15 18:14:58.295006,-109.0
2023-08-15 18:14:58.302695,-107.0
2023-08-15 18:14:58.310385,-109.0
2023-08-15 18:14:58.318075,-109.0
2023-08-15 18:14:58.325764,-109.0
2023-08-15 18:14:58.333454,-109.0
2023-08-15 18:14:58.341144,-109.0
2023-08-15 18:14:58.348833,-109.0
2023-08-15 18:14:58.356523,-109.0
2023-08-15 18:14:58.364212,-109.0
2023-08-15 18:14:58.371902,-107.0
2023-08-15 18:14:58.379592,-104.0
2023-08-15 18:14:58.387281,-102.0
2023-08-15 18:14:58.394971,-99.0
2023-08-15 18:14:58.402660,-99.0
2023-08-15 18:14:58.410350,-97.0
2023-08-15 18:14:58.418040,-88.0
2023-08-15 18:14:58.425729,-80.0
2023-08-15 18:14:58.433419,-83.0
2023-08-15 18:14:58.441109,-73.0
2023-08-15 18:14:58.448798,-52.0
2023-08-15 18:14:58.456488,-45.0
2023-08-15 18:14:58.464177,-54.0
2023-08-15 18:14:58.471867,-71.0
2023-08-15 18:14:58.479557,-95.0
2023-08-15 18:14:58.487246,-97.0
2023-08-15 18:14:58.494936,-90.0
2023-08-15 18:14:58.502625,-88.0
2023-08-15 18:14:58.510315,-88.0
2023-08-15 18:14:58.518005,-59.0
2023-08-15 18:14:58.525694,52.0
2023-08-15 18:14:58.533384,302.0
2023-08-15 18:14:58.541074,526.0
2023-08-15 18:14:58.548763,366.0
2023-08-15 18:14:58.556453,-176.0
2023-08-15 18:14:58.564142,-595.0
2023-08-15 18:14:58.571832,-497.0
2023-08-15 18:14:58.579522,-157.0
2023-08-15 18:14:58.587211,-40.0
2023-08-15 18:14:58.594901,-83.0
2023-08-15 18:14:58.602590,-59.0
2023-08-15 18:14:58.610280,-33.0
2023-08-15 18:14:58.617970,-47.0
2023-08-15 18:14:58.625659,-40.0
2023-08-15 18:14:58.633349,-23.0
2023-08-15 18:14:58.641039,-26.0
2023-08-15 18:14:58.648728,-23.0
2023-08-15 18:14:58.656418,-11.0
2023-08-15 18:14:58.664107,-7.0
2023-08-15 18:14:58.671797,2.0
2023-08-15 18:14:58.679487,19.0
2023-08-15 18:14:58.687176,33.0
2023-08-15 18:14:58.694866,49.0
2023-08-15 18:14:58.702555,71.0
2023-08-15 18:14:58.710245,90.0
2023-08-15 18:14:58.717935,111.0
2023-08-15 18:14:58.725624,133.0
2023-08-15 18:14:58.733314,147.0
2023-08-15 18:14:58.741004,159.0
2023-08-15 18:14:58.748693,164.0
2023-08-15 18:14:58.756383,166.0
2023-08-15 18:14:58.764072,159.0
2023-08-15 18:14:58.771762,140.0
2023-08-15 18:14:58.779452,109.0
2023-08-15 18:14:58.787141,61.0
2023-08-15 18:14:58.794831,7.0
2023-08-15 18:14:58.802520,-45.0
2023-08-15 18:14:58.810210,-85.0
2023-08-15 18:14:58.817900,-119.0
2023-08-15 18:14:58.825589,-140.0
2023-08-15 18:14:58.833279,-149.0
2023-08-15 18:14:58.840969,-161.0
2023-08-15 18:14:58.848658,-171.0
2023-08-15 18:14:58.856348,-171.0
2023-08-15 18:14:58.864037,-169.0
2023-08-15 18:14:58.871727,-164.0
2023-08-15 18:14:58.879417,-159.0
2023-08-15 18:14:58.887106,-152.0
2023-08-15 18:14:58.894796,-145.0
2023-08-15 18:14:58.902485,-138.0
2023-08-15 18:14:58.910175,-133.0
2023-08-15 18:14:58.917865,-128.0
2023-08-15 18:14:58.925554,-128.0
2023-08-15 18:14:58.933244,-123.0
2023-08-15 18:14:58.940934,-119.0
2023-08-15 18:14:58.948623,-111.0
2023-08-15 18:14:58.956313,-109.0
2023-08-15 18:14:58.964002,-109.0
2023-08-15 18:14:58.971692,-109.0
2023-08-15 18:14:58.979382,-107.0
2023-08-15 18:14:58.987071,-109.0
2023-08-15 18:14:58.994761,-109.0
2023-08-15 18:14:59.002450,-109.0
2023-08-15 18:14:59.010140,-109.0
2023-08-15 18:14:59.017830,-109.0
2023-08-15 18:14:59.025519,-107.0
2023-08-15 18:14:59.033209,-104.0
2023-08-15 18:14:59.040899,-102.0
2023-08-15 18:14:59.048588,-102.0
2023-08-15 18:14:59.056278,-102.0
2023-08-15 18:14:59.063967,-102.0
2023-08-15 18:14:59.071657,-97.0
2023-08-15 18:14:59.079347,-95.0
2023-08-15 18:14:59.087036,-92.0
2023-08-15 18:14:59.094726,-88.0
2023-08-15 18:14:59.102415,-80.0
2023-08-15 18:14:59.110105,-73.0
2023-08-15 18:14:59.117795,-66.0
2023-08-15 18:14:59.125484,-54.0
2023-08-15 18:14:59.133174,-40.0
2023-08-15 18:14:59.140864,-45.0
2023-08-15 18:14:59.148553,-66.0
2023-08-15 18:14:59.156243,-90.0
2023-08-15 18:14:59.163932,-99.0
2023-08-15 18:14:59.171622,-95.0
2023-08-15 18:14:59.179312,-92.0
2023-08-15 18:14:59.187001,-92.0
2023-08-15 18:14:59.194691,-88.0
2023-08-15 18:14:59.202380,-28.0
2023-08-15 18:14:59.210070,166.0
2023-08-15 18:14:59.217760,445.0
2023-08-15 18:14:59.225449,473.0
2023-08-15 18:14:59.233139,47.0
2023-08-15 18:14:59.240829,-492.0
2023-08-15 18:14:59.248518,-611.0
2023-08-15 18:14:59.256208,-292.0
2023-08-15 18:14:59.263897,-59.0
2023-08-15 18:14:59.271587,-80.0
2023-08-15 18:14:59.279277,-90.0
2023-08-15 18:14:59.286966,-52.0
2023-08-15 18:14:59.294656,-54.0
2023-08-15 18:14:59.302345,-57.0
2023-08-15 18:14:59.310035,-40.0
2023-08-15 18:14:59.317725,-28.0
2023-08-15 18:14:59.325414,-26.0
2023-08-15 18:14:59.333104,-11.0
2023-08-15 18:14:59.340794,0.0
2023-08-15 18:14:59.348483,9.0
2023-08-15 18:14:59.356173,16.0
2023-08-15 18:14:59.363862,26.0
2023-08-15 18:14:59.371552,42.0
2023-08-15 18:14:59.379242,64.0
2023-08-15 18:14:59.386931,83.0
2023-08-15 18:14:59.394621,102.0
2023-08-15 18:14:59.402310,123.0
2023-08-15 18:14:59.410000,145.0
2023-08-15 18:14:59.417690,154.0
2023-08-15 18:14:59.425379,157.0
2023-08-15 18:14:59.433069,161.0
2023-08-15 18:14:59.440759,164.0
2023-08-15 18:14:59.448448,154.0
2023-08-15 18:14:59.456138,123.0
2023-08-15 18:14:59.463827,78.0
2023-08-15 18:14:59.471517,21.0
2023-08-15 18:14:59.479207,-33.0
2023-08-15 18:14:59.486896,-78.0
2023-08-15 18:14:59.494586,-114.0
2023-08-15 18:14:59.502275,-138.0
2023-08-15 18:14:59.509965,-157.0
2023-08-15 18:14:59.517655,-166.0
2023-08-15 18:14:59.525344,-166.0
2023-08-15 18:14:59.533034,-164.0
2023-08-15 18:14:59.540724,-164.0
2023-08-15 18:14:59.548413,-159.0
2023-08-15 18:14:59.556103,-157.0
2023-08-15 18:14:59.563792,-154.0
2023-08-15 18:14:59.571482,-145.0
2023-08-15 18:14:59.579172,-135.0
2023-08-15 18:14:59.586861,-128.0
2023-08-15 18:14:59.594551,-123.0
2023-08-15 18:14:59.602240,-119.0
2023-08-15 18:14:59.609930,-119.0
2023-08-15 18:14:59.617620,-116.0
2023-08-15 18:14:59.625309,-109.0
2023-08-15 18:14:59.632999,-102.0
2023-08-15 18:14:59.640689,-99.0
2023-08-15 18:14:59.648378,-102.0
2023-08-15 18:14:59.656068,-102.0
2023-08-15 18:14:59.663757,-102.0
2023-08-15 18:14:59.671447,-107.0
2023-08-15 18:14:59.679137,-107.0
2023-08-15 18:14:59.686826,-104.0
2023-08-15 18:14:59.694516,-104.0
2023-08-15 18:14:59.702205,-104.0
2023-08-15 18:14:59.709895,-99.0
2023-08-15 18:14:59.717585,-102.0
2023-08-15 18:14:59.725274,-104.0
2023-08-15 18:14:59.732964,-104.0
2023-08-15 18:14:59.740654,-99.0
2023-08-15 18:14:59.748343,-97.0
2023-08-15 18:14:59.756033,-92.0
2023-08-15 18:14:59.763722,-90.0
2023-08-15 18:14:59.771412,-88.0
2023-08-15 18:14:59.779102,-88.0
2023-08-15 18:14:59.786791,-85.0
2023-08-15 18:14:59.794481,-80.0
2023-08-15 18:14:59.802170,-69.0
2023-08-15 18:14:59.809860,-52.0
2023-08-15 18:14:59.817550,-45.0
2023-08-15 18:14:59.825239,-57.0
2023-08-15 18:14:59.832929,-95.0
2023-08-15 18:14:59.840619,-121.0
2023-08-15 18:14:59.848308,-109.0
2023-08-15 18:14:59.855998,-99.0
2023-08-15 18:14:59.863687,-109.0
2023-08-15 18:14:59.871377,-114.0
2023-08-15 18:14:59.879067,-83.0
2023-08-15 18:14:59.886756,52.0
2023-08-15 18:14:59.894446,321.0
2023-08-15 18:14:59.902135,514.0
2023-08-15 18:14:59.909825,288.0
2023-08-15 18:14:59.917515,-276.0
2023-08-15 18:14:59.925204,-626.0
2023-08-15 18:14:59.932894,-459.0
2023-08-15 18:14:59.940584,-154.0
2023-08-15 18:14:59.948273,-85.0
2023-08-15 18:14:59.955963,-109.0
2023-08-15 18:14:59.963652,-80.0
2023-08-15 18:14:59.971342,-69.0
2023-08-15 18:14:59.979032,-78.0
2023-08-15 18:14:59.986721,-61.0
2023-08-15 18:14:59.994411,-42.0
2023-08-15 18:15:00.002100,-38.0
2023-08-15 18:15:00.009790,-30.0
2023-08-15 18:15:00.017480,-19.0
2023-08-15 18:15:00.025169,-7.0
2023-08-15 18:15:00.032859,9.0
2023-08-15 18:15:00.040549,26.0
2023-08-15 18:15:00.048238,38.0
2023-08-15 18:15:00.055928,54.0
2023-08-15 18:15:00.063617,76.0
2023-08-15 18:15:00.071307,97.0
2023-08-15 18:15:00.078997,114.0
2023-08-15 18:15:00.086686,133.0
2023-08-15 18:15:00.094376,149.0
2023-08-15 18:15:00.102065,164.0
2023-08-15 18:15:00.109755,169.0
2023-08-15 18:15:00.117445,161.0
2023-08-15 18:15:00.125134,157.0
2023-08-15 18:15:00.132824,140.0
2023-08-15 18:15:00.140514,99.0
2023-08-15 18:15:00.148203,52.0
2023-08-15 18:15:00.155893,2.0
2023-08-15 18:15:00.163582,-54.0
2023-08-15 18:15:00.171272,-102.0
2023-08-15 18:15:00.178962,-130.0
2023-08-15 18:15:00.186651,-145.0
2023-08-15 18:15:00.194341,-157.0
2023-08-15 18:15:00.202030,-161.0
2023-08-15 18:15:00.209720,-164.0
2023-08-15 18:15:00.217410,-161.0
2023-08-15 18:15:00.225099,-157.0
2023-08-15 18:15:00.232789,-152.0
2023-08-15 18:15:00.240479,-149.0
2023-08-15 18:15:00.248168,-145.0
2023-08-15 18:15:00.255858,-138.0
2023-08-15 18:15:00.263547,-128.0
2023-08-15 18:15:00.271237,-123.0
2023-08-15 18:15:00.278927,-119.0
2023-08-15 18:15:00.286616,-114.0
2023-08-15 18:15:00.294306,-109.0
2023-08-15 18:15:00.301995,-107.0
2023-08-15 18:15:00.309685,-102.0
2023-08-15 18:15:00.317375,-99.0
2023-08-15 18:15:00.325064,-109.0
2023-08-15 18:15:00.332754,-114.0
2023-08-15 18:15:00.340444,-109.0
2023-08-15 18:15:00.348133,-107.0
2023-08-15 18:15:00.355823,-109.0
2023-08-15 18:15:00.363512,-109.0
2023-08-15 18:15:00.371202,-114.0
2023-08-15 18:15:00.378892,-119.0
2023-08-15 18:15:00.386581,-114.0
2023-08-15 18:15:00.394271,-111.0
2023-08-15 18:15:00.401960,-114.0
2023-08-15 18:15:00.409650,-116.0
2023-08-15 18:15:00.417340,-111.0
2023-08-15 18:15:00.425029,-107.0
2023-08-15 18:15:00.432719,-109.0
2023-08-15 18:15:00.440409,-107.0
2023-08-15 18:15:00.448098,-99.0
2023-08-15 18:15:00.455788,-92.0
2023-08-15 18:15:00.463477,-92.0
2023-08-15 18:15:00.471167,-80.0
2023-08-15 18:15:00.478857,-59.0
2023-08-15 18:15:00.486546,-54.0
2023-08-15 18:15:00.494236,-64.0
2023-08-15 18:15:00.501925,-85.0
2023-08-15 18:15:00.509615,-107.0
2023-08-15 18:15:00.517305,-102.0
2023-08-15 18:15:00.524994,-90.0
2023-08-15 18:15:00.532684,-90.0
2023-08-15 18:15:00.540374,-83.0
2023-08-15 18:15:00.548063,-28.0
2023-08-15 18:15:00.555753,145.0
2023-08-15 18:15:00.563442,430.0
2023-08-15 18:15:00.571132,545.0
2023-08-15 18:15:00.578822,199.0
2023-08-15 18:15:00.586511,-378.0
2023-08-15 18:15:00.594201,-611.0
2023-08-15 18:15:00.601890,-368.0
2023-08-15 18:15:00.609580,-109.0
2023-08-15 18:15:00.617270,-78.0
2023-08-15 18:15:00.624959,-80.0
2023-08-15 18:15:00.632649,-49.0
2023-08-15 18:15:00.640339,-52.0
2023-08-15 18:15:00.648028,-64.0
2023-08-15 18:15:00.655718,-47.0
2023-08-15 18:15:00.663407,-33.0
2023-08-15 18:15:00.671097,-28.0
2023-08-15 18:15:00.678787,-19.0
2023-08-15 18:15:00.686476,-7.0
2023-08-15 18:15:00.694166,7.0
2023-08-15 18:15:00.701855,21.0
2023-08-15 18:15:00.709545,35.0
2023-08-15 18:15:00.717235,52.0
2023-08-15 18:15:00.724924,66.0
2023-08-15 18:15:00.732614,83.0
2023-08-15 18:15:00.740304,102.0
2023-08-15 18:15:00.747993,121.0
2023-08-15 18:15:00.755683,138.0
2023-08-15 18:15:00.763372,154.0
2023-08-15 18:15:00.771062,164.0
2023-08-15 18:15:00.778752,169.0
2023-08-15 18:15:00.786441,164.0
2023-08-15 18:15:00.794131,152.0
2023-08-15 18:15:00.801820,128.0
2023-08-15 18:15:00.809510,88.0
2023-08-15 18:15:00.817200,35.0
2023-08-15 18:15:00.824889,-19.0
2023-08-15 18:15:00.832579,-64.0
2023-08-15 18:15:00.840269,-102.0
2023-08-15 18:15:00.847958,-130.0
2023-08-15 18:15:00.855648,-149.0
2023-08-15 18:15:00.863337,-159.0
2023-08-15 18:15:00.871027,-166.0
2023-08-15 18:15:00.878717,-169.0
2023-08-15 18:15:00.886406,-171.0
2023-08-15 18:15:00.894096,-166.0
2023-08-15 18:15:00.901785,-166.0
2023-08-15 18:15:00.909475,-171.0
2023-08-15 18:15:00.917165,-169.0
2023-08-15 18:15:00.924854,-157.0
2023-08-15 18:15:00.932544,-147.0
2023-08-15 18:15:00.940234,-145.0
2023-08-15 18:15:00.947923,-140.0
2023-08-15 18:15:00.955613,-133.0
2023-08-15 18:15:00.963302,-128.0
2023-08-15 18:15:00.970992,-121.0
2023-08-15 18:15:00.978682,-119.0
2023-08-15 18:15:00.986371,-116.0
2023-08-15 18:15:00.994061,-114.0
2023-08-15 18:15:01.001750,-109.0
2023-08-15 18:15:01.009440,-109.0
2023-08-15 18:15:01.017130,-109.0
2023-08-15 18:15:01.024819,-109.0
2023-08-15 18:15:01.032509,-111.0
2023-08-15 18:15:01.040199,-114.0
2023-08-15 18:15:01.047888,-114.0
2023-08-15 18:15:01.055578,-111.0
2023-08-15 18:15:01.063267,-109.0
2023-08-15 18:15:01.070957,-109.0
2023-08-15 18:15:01.078647,-107.0
2023-08-15 18:15:01.086336,-104.0
2023-08-15 18:15:01.094026,-104.0
2023-08-15 18:15:01.101715,-102.0
2023-08-15 18:15:01.109405,-97.0
2023-08-15 18:15:01.117095,-90.0
2023-08-15 18:15:01.124784,-85.0
2023-08-15 18:15:01.132474,-83.0
2023-08-15 18:15:01.140164,-71.0
2023-08-15 18:15:01.147853,-54.0
2023-08-15 18:15:01.155543,-52.0
2023-08-15 18:15:01.163232,-61.0
2023-08-15 18:15:01.170922,-83.0
2023-08-15 18:15:01.178612,-102.0
2023-08-15 18:15:01.186301,-102.0
2023-08-15 18:15:01.193991,-92.0
2023-08-15 18:15:01.201680,-92.0
2023-08-15 18:15:01.209370,-90.0
2023-08-15 18:15:01.217060,-54.0
2023-08-15 18:15:01.224749,78.0
2023-08-15 18:15:01.232439,352.0
2023-08-15 18:15:01.240129,535.0
2023-08-15 18:15:01.247818,285.0
2023-08-15 18:15:01.255508,-283.0
2023-08-15 18:15:01.263197,-621.0
2023-08-15 18:15:01.270887,-435.0
2023-08-15 18:15:01.278577,-111.0
2023-08-15 18:15:01.286266,-54.0
2023-08-15 18:15:01.293956,-97.0
2023-08-15 18:15:01.301645,-64.0
2023-08-15 18:15:01.309335,-47.0
2023-08-15 18:15:01.317025,-64.0
2023-08-15 18:15:01.324714,-52.0
2023-08-15 18:15:01.332404,-33.0
2023-08-15 18:15:01.340094,-30.0
2023-08-15 18:15:01.347783,-23.0
2023-08-15 18:15:01.355473,-9.0
2023-08-15 18:15:01.363162,-2.0
2023-08-15 18:15:01.370852,7.0
2023-08-15 18:15:01.378542,19.0
2023-08-15 18:15:01.386231,23.0
2023-08-15 18:15:01.393921,35.0
2023-08-15 18:15:01.401610,57.0
2023-08-15 18:15:01.409300,76.0
2023-08-15 18:15:01.416990,92.0
2023-08-15 18:15:01.424679,116.0
2023-08-15 18:15:01.432369,135.0
2023-08-15 18:15:01.440059,147.0
2023-08-15 18:15:01.447748,152.0
2023-08-15 18:15:01.455438,152.0
