time,ECG
2023-08-15 14:28:17.493138,-122.0
2023-08-15 14:28:17.500827,-129.0
2023-08-15 14:28:17.508517,-129.0
2023-08-15 14:28:17.516206,-127.0
2023-08-15 14:28:17.523896,-119.0
2023-08-15 14:28:17.531586,-117.0
2023-08-15 14:28:17.539275,-115.0
2023-08-15 14:28:17.546965,-119.0
2023-08-15 14:28:17.554654,-122.0
2023-08-15 14:28:17.562344,-122.0
2023-08-15 14:28:17.570033,-117.0
2023-08-15 14:28:17.577723,-115.0
2023-08-15 14:28:17.585413,-115.0
2023-08-15 14:28:17.593102,-115.0
2023-08-15 14:28:17.600792,-107.0
2023-08-15 14:28:17.608481,-100.0
2023-08-15 14:28:17.616171,-100.0
2023-08-15 14:28:17.623861,-115.0
2023-08-15 14:28:17.631550,-119.0
2023-08-15 14:28:17.639240,-103.0
2023-08-15 14:28:17.646929,-81.0
2023-08-15 14:28:17.654619,-62.0
2023-08-15 14:28:17.662308,-43.0
2023-08-15 14:28:17.669998,-38.0
2023-08-15 14:28:17.677688,-45.0
2023-08-15 14:28:17.685377,-57.0
2023-08-15 14:28:17.693067,-69.0
2023-08-15 14:28:17.700756,-79.0
2023-08-15 14:28:17.708446,-81.0
2023-08-15 14:28:17.716136,-83.0
2023-08-15 14:28:17.723825,-91.0
2023-08-15 14:28:17.731515,-100.0
2023-08-15 14:28:17.739204,-93.0
2023-08-15 14:28:17.746894,-83.0
2023-08-15 14:28:17.754583,-93.0
2023-08-15 14:28:17.762273,-103.0
2023-08-15 14:28:17.769963,-88.0
2023-08-15 14:28:17.777652,-50.0
2023-08-15 14:28:17.785342,59.0
2023-08-15 14:28:17.793031,323.0
2023-08-15 14:28:17.800721,673.0
2023-08-15 14:28:17.808411,958.0
2023-08-15 14:28:17.816100,793.0
2023-08-15 14:28:17.823790,-69.0
2023-08-15 14:28:17.831479,-721.0
2023-08-15 14:28:17.839169,-417.0
2023-08-15 14:28:17.846858,-55.0
2023-08-15 14:28:17.854548,-177.0
2023-08-15 14:28:17.862238,-220.0
2023-08-15 14:28:17.869927,-112.0
2023-08-15 14:28:17.877617,-124.0
2023-08-15 14:28:17.885306,-148.0
2023-08-15 14:28:17.892996,-107.0
2023-08-15 14:28:17.900686,-103.0
2023-08-15 14:28:17.908375,-112.0
2023-08-15 14:28:17.916065,-83.0
2023-08-15 14:28:17.923754,-62.0
2023-08-15 14:28:17.931444,-57.0
2023-08-15 14:28:17.939133,-52.0
2023-08-15 14:28:17.946823,-45.0
2023-08-15 14:28:17.954513,-35.0
2023-08-15 14:28:17.962202,-23.0
2023-08-15 14:28:17.969892,-7.0
2023-08-15 14:28:17.977581,14.0
2023-08-15 14:28:17.985271,35.0
2023-08-15 14:28:17.992961,55.0
2023-08-15 14:28:18.000650,67.0
2023-08-15 14:28:18.008340,79.0
2023-08-15 14:28:18.016029,103.0
2023-08-15 14:28:18.023719,127.0
2023-08-15 14:28:18.031408,131.0
2023-08-15 14:28:18.039098,131.0
2023-08-15 14:28:18.046788,129.0
2023-08-15 14:28:18.054477,119.0
2023-08-15 14:28:18.062167,115.0
2023-08-15 14:28:18.069856,107.0
2023-08-15 14:28:18.077546,88.0
2023-08-15 14:28:18.085236,57.0
2023-08-15 14:28:18.092925,28.0
2023-08-15 14:28:18.100615,-2.0
2023-08-15 14:28:18.108304,-40.0
2023-08-15 14:28:18.115994,-83.0
2023-08-15 14:28:18.123683,-124.0
2023-08-15 14:28:18.131373,-141.0
2023-08-15 14:28:18.139063,-148.0
2023-08-15 14:28:18.146752,-165.0
2023-08-15 14:28:18.154442,-174.0
2023-08-15 14:28:18.162131,-162.0
2023-08-15 14:28:18.169821,-153.0
2023-08-15 14:28:18.177510,-155.0
2023-08-15 14:28:18.185200,-155.0
2023-08-15 14:28:18.192890,-148.0
2023-08-15 14:28:18.200579,-143.0
2023-08-15 14:28:18.208269,-136.0
2023-08-15 14:28:18.215958,-129.0
2023-08-15 14:28:18.223648,-127.0
2023-08-15 14:28:18.231338,-134.0
2023-08-15 14:28:18.239027,-141.0
2023-08-15 14:28:18.246717,-134.0
2023-08-15 14:28:18.254406,-129.0
2023-08-15 14:28:18.262096,-127.0
2023-08-15 14:28:18.269785,-127.0
2023-08-15 14:28:18.277475,-127.0
2023-08-15 14:28:18.285165,-129.0
2023-08-15 14:28:18.292854,-129.0
2023-08-15 14:28:18.300544,-124.0
2023-08-15 14:28:18.308233,-129.0
2023-08-15 14:28:18.315923,-131.0
2023-08-15 14:28:18.323613,-124.0
2023-08-15 14:28:18.331302,-119.0
2023-08-15 14:28:18.338992,-124.0
2023-08-15 14:28:18.346681,-122.0
2023-08-15 14:28:18.354371,-112.0
2023-08-15 14:28:18.362060,-117.0
2023-08-15 14:28:18.369750,-124.0
2023-08-15 14:28:18.377440,-122.0
2023-08-15 14:28:18.385129,-117.0
2023-08-15 14:28:18.392819,-115.0
2023-08-15 14:28:18.400508,-119.0
2023-08-15 14:28:18.408198,-124.0
2023-08-15 14:28:18.415888,-110.0
2023-08-15 14:28:18.423577,-91.0
2023-08-15 14:28:18.431267,-79.0
2023-08-15 14:28:18.438956,-71.0
2023-08-15 14:28:18.446646,-64.0
2023-08-15 14:28:18.454335,-57.0
2023-08-15 14:28:18.462025,-62.0
2023-08-15 14:28:18.469715,-76.0
2023-08-15 14:28:18.477404,-93.0
2023-08-15 14:28:18.485094,-107.0
2023-08-15 14:28:18.492783,-107.0
2023-08-15 14:28:18.500473,-103.0
2023-08-15 14:28:18.508163,-100.0
2023-08-15 14:28:18.515852,-95.0
2023-08-15 14:28:18.523542,-91.0
2023-08-15 14:28:18.531231,-95.0
2023-08-15 14:28:18.538921,-105.0
2023-08-15 14:28:18.546610,-103.0
2023-08-15 14:28:18.554300,-76.0
2023-08-15 14:28:18.561990,-4.0
2023-08-15 14:28:18.569679,230.0
2023-08-15 14:28:18.577369,639.0
2023-08-15 14:28:18.585058,1035.0
2023-08-15 14:28:18.592748,1035.0
2023-08-15 14:28:18.600438,222.0
2023-08-15 14:28:18.608127,-711.0
2023-08-15 14:28:18.615817,-611.0
2023-08-15 14:28:18.623506,-98.0
2023-08-15 14:28:18.631196,-124.0
2023-08-15 14:28:18.638885,-237.0
2023-08-15 14:28:18.646575,-122.0
2023-08-15 14:28:18.654265,-100.0
2023-08-15 14:28:18.661954,-153.0
2023-08-15 14:28:18.669644,-115.0
2023-08-15 14:28:18.677333,-76.0
2023-08-15 14:28:18.685023,-91.0
2023-08-15 14:28:18.692713,-88.0
2023-08-15 14:28:18.700402,-59.0
2023-08-15 14:28:18.708092,-47.0
2023-08-15 14:28:18.715781,-40.0
2023-08-15 14:28:18.723471,-26.0
2023-08-15 14:28:18.731160,-14.0
2023-08-15 14:28:18.738850,-9.0
2023-08-15 14:28:18.746540,4.0
2023-08-15 14:28:18.754229,26.0
2023-08-15 14:28:18.761919,45.0
2023-08-15 14:28:18.769608,62.0
2023-08-15 14:28:18.777298,83.0
2023-08-15 14:28:18.784988,115.0
2023-08-15 14:28:18.792677,124.0
2023-08-15 14:28:18.800367,127.0
2023-08-15 14:28:18.808056,146.0
2023-08-15 14:28:18.815746,160.0
2023-08-15 14:28:18.823435,150.0
2023-08-15 14:28:18.831125,141.0
2023-08-15 14:28:18.838815,129.0
2023-08-15 14:28:18.846504,107.0
2023-08-15 14:28:18.854194,79.0
2023-08-15 14:28:18.861883,47.0
2023-08-15 14:28:18.869573,2.0
2023-08-15 14:28:18.877263,-45.0
2023-08-15 14:28:18.884952,-86.0
2023-08-15 14:28:18.892642,-119.0
2023-08-15 14:28:18.900331,-153.0
2023-08-15 14:28:18.908021,-179.0
2023-08-15 14:28:18.915710,-191.0
2023-08-15 14:28:18.923400,-198.0
2023-08-15 14:28:18.931090,-206.0
2023-08-15 14:28:18.938779,-206.0
2023-08-15 14:28:18.946469,-198.0
2023-08-15 14:28:18.954158,-191.0
2023-08-15 14:28:18.961848,-182.0
2023-08-15 14:28:18.969538,-179.0
2023-08-15 14:28:18.977227,-184.0
2023-08-15 14:28:18.984917,-179.0
2023-08-15 14:28:18.992606,-165.0
2023-08-15 14:28:19.000296,-160.0
2023-08-15 14:28:19.007985,-155.0
2023-08-15 14:28:19.015675,-148.0
2023-08-15 14:28:19.023365,-148.0
2023-08-15 14:28:19.031054,-153.0
2023-08-15 14:28:19.038744,-150.0
2023-08-15 14:28:19.046433,-143.0
2023-08-15 14:28:19.054123,-136.0
2023-08-15 14:28:19.061813,-141.0
2023-08-15 14:28:19.069502,-155.0
2023-08-15 14:28:19.077192,-155.0
2023-08-15 14:28:19.084881,-141.0
2023-08-15 14:28:19.092571,-139.0
2023-08-15 14:28:19.100260,-146.0
2023-08-15 14:28:19.107950,-143.0
2023-08-15 14:28:19.115640,-134.0
2023-08-15 14:28:19.123329,-131.0
2023-08-15 14:28:19.131019,-131.0
2023-08-15 14:28:19.138708,-131.0
2023-08-15 14:28:19.146398,-131.0
2023-08-15 14:28:19.154088,-127.0
2023-08-15 14:28:19.161777,-122.0
2023-08-15 14:28:19.169467,-115.0
2023-08-15 14:28:19.177156,-117.0
2023-08-15 14:28:19.184846,-124.0
2023-08-15 14:28:19.192535,-117.0
2023-08-15 14:28:19.200225,-112.0
2023-08-15 14:28:19.207915,-112.0
2023-08-15 14:28:19.215604,-115.0
2023-08-15 14:28:19.223294,-112.0
2023-08-15 14:28:19.230983,-105.0
2023-08-15 14:28:19.238673,-95.0
2023-08-15 14:28:19.246363,-91.0
2023-08-15 14:28:19.254052,-76.0
2023-08-15 14:28:19.261742,-55.0
2023-08-15 14:28:19.269431,-50.0
2023-08-15 14:28:19.277121,-59.0
2023-08-15 14:28:19.284810,-74.0
2023-08-15 14:28:19.292500,-83.0
2023-08-15 14:28:19.300190,-91.0
2023-08-15 14:28:19.307879,-95.0
2023-08-15 14:28:19.315569,-103.0
2023-08-15 14:28:19.323258,-105.0
2023-08-15 14:28:19.330948,-100.0
2023-08-15 14:28:19.338638,-100.0
2023-08-15 14:28:19.346327,-95.0
2023-08-15 14:28:19.354017,-88.0
2023-08-15 14:28:19.361706,-86.0
2023-08-15 14:28:19.369396,-76.0
2023-08-15 14:28:19.377085,0.0
2023-08-15 14:28:19.384775,210.0
2023-08-15 14:28:19.392465,553.0
2023-08-15 14:28:19.400154,965.0
2023-08-15 14:28:19.407844,1054.0
2023-08-15 14:28:19.415533,273.0
2023-08-15 14:28:19.423223,-611.0
2023-08-15 14:28:19.430913,-481.0
2023-08-15 14:28:19.438602,-59.0
2023-08-15 14:28:19.446292,-153.0
2023-08-15 14:28:19.453981,-239.0
2023-08-15 14:28:19.461671,-127.0
2023-08-15 14:28:19.469360,-131.0
2023-08-15 14:28:19.477050,-167.0
2023-08-15 14:28:19.484740,-122.0
2023-08-15 14:28:19.492429,-100.0
2023-08-15 14:28:19.500119,-105.0
2023-08-15 14:28:19.507808,-93.0
2023-08-15 14:28:19.515498,-81.0
2023-08-15 14:28:19.523187,-79.0
2023-08-15 14:28:19.530877,-67.0
2023-08-15 14:28:19.538567,-47.0
2023-08-15 14:28:19.546256,-31.0
2023-08-15 14:28:19.553946,-19.0
2023-08-15 14:28:19.561635,-7.0
2023-08-15 14:28:19.569325,11.0
2023-08-15 14:28:19.577015,33.0
2023-08-15 14:28:19.584704,57.0
2023-08-15 14:28:19.592394,74.0
2023-08-15 14:28:19.600083,83.0
2023-08-15 14:28:19.607773,98.0
2023-08-15 14:28:19.615462,117.0
2023-08-15 14:28:19.623152,131.0
2023-08-15 14:28:19.630842,139.0
2023-08-15 14:28:19.638531,136.0
2023-08-15 14:28:19.646221,134.0
2023-08-15 14:28:19.653910,124.0
2023-08-15 14:28:19.661600,98.0
2023-08-15 14:28:19.669290,79.0
2023-08-15 14:28:19.676979,62.0
2023-08-15 14:28:19.684669,23.0
2023-08-15 14:28:19.692358,-21.0
2023-08-15 14:28:19.700048,-57.0
2023-08-15 14:28:19.707737,-91.0
2023-08-15 14:28:19.715427,-119.0
2023-08-15 14:28:19.723117,-141.0
2023-08-15 14:28:19.730806,-158.0
2023-08-15 14:28:19.738496,-174.0
2023-08-15 14:28:19.746185,-184.0
2023-08-15 14:28:19.753875,-182.0
2023-08-15 14:28:19.761565,-177.0
2023-08-15 14:28:19.769254,-170.0
2023-08-15 14:28:19.776944,-162.0
2023-08-15 14:28:19.784633,-158.0
2023-08-15 14:28:19.792323,-153.0
2023-08-15 14:28:19.800012,-146.0
2023-08-15 14:28:19.807702,-141.0
2023-08-15 14:28:19.815392,-136.0
2023-08-15 14:28:19.823081,-131.0
2023-08-15 14:28:19.830771,-127.0
2023-08-15 14:28:19.838460,-131.0
2023-08-15 14:28:19.846150,-141.0
2023-08-15 14:28:19.853840,-141.0
2023-08-15 14:28:19.861529,-136.0
2023-08-15 14:28:19.869219,-141.0
2023-08-15 14:28:19.876908,-146.0
2023-08-15 14:28:19.884598,-139.0
2023-08-15 14:28:19.892287,-136.0
2023-08-15 14:28:19.899977,-141.0
2023-08-15 14:28:19.907667,-139.0
2023-08-15 14:28:19.915356,-136.0
2023-08-15 14:28:19.923046,-136.0
2023-08-15 14:28:19.930735,-134.0
2023-08-15 14:28:19.938425,-131.0
2023-08-15 14:28:19.946115,-129.0
2023-08-15 14:28:19.953804,-124.0
2023-08-15 14:28:19.961494,-122.0
2023-08-15 14:28:19.969183,-124.0
2023-08-15 14:28:19.976873,-119.0
2023-08-15 14:28:19.984562,-110.0
2023-08-15 14:28:19.992252,-107.0
2023-08-15 14:28:19.999942,-110.0
2023-08-15 14:28:20.007631,-107.0
2023-08-15 14:28:20.015321,-107.0
2023-08-15 14:28:20.023010,-110.0
2023-08-15 14:28:20.030700,-107.0
2023-08-15 14:28:20.038390,-103.0
2023-08-15 14:28:20.046079,-105.0
2023-08-15 14:28:20.053769,-117.0
2023-08-15 14:28:20.061458,-122.0
2023-08-15 14:28:20.069148,-98.0
2023-08-15 14:28:20.076837,-74.0
2023-08-15 14:28:20.084527,-59.0
2023-08-15 14:28:20.092217,-52.0
2023-08-15 14:28:20.099906,-47.0
2023-08-15 14:28:20.107596,-52.0
2023-08-15 14:28:20.115285,-64.0
2023-08-15 14:28:20.122975,-83.0
2023-08-15 14:28:20.130665,-95.0
2023-08-15 14:28:20.138354,-103.0
2023-08-15 14:28:20.146044,-103.0
2023-08-15 14:28:20.153733,-98.0
2023-08-15 14:28:20.161423,-95.0
2023-08-15 14:28:20.169112,-95.0
2023-08-15 14:28:20.176802,-95.0
2023-08-15 14:28:20.184492,-88.0
2023-08-15 14:28:20.192181,-81.0
2023-08-15 14:28:20.199871,-74.0
2023-08-15 14:28:20.207560,-2.0
2023-08-15 14:28:20.215250,198.0
2023-08-15 14:28:20.222940,515.0
2023-08-15 14:28:20.230629,913.0
2023-08-15 14:28:20.238319,1028.0
2023-08-15 14:28:20.246008,297.0
2023-08-15 14:28:20.253698,-575.0
2023-08-15 14:28:20.261387,-462.0
2023-08-15 14:28:20.269077,-47.0
2023-08-15 14:28:20.276767,-153.0
2023-08-15 14:28:20.284456,-254.0
2023-08-15 14:28:20.292146,-136.0
2023-08-15 14:28:20.299835,-131.0
2023-08-15 14:28:20.307525,-172.0
2023-08-15 14:28:20.315215,-122.0
2023-08-15 14:28:20.322904,-95.0
2023-08-15 14:28:20.330594,-110.0
2023-08-15 14:28:20.338283,-95.0
2023-08-15 14:28:20.345973,-74.0
2023-08-15 14:28:20.353662,-69.0
2023-08-15 14:28:20.361352,-59.0
2023-08-15 14:28:20.369042,-43.0
2023-08-15 14:28:20.376731,-28.0
2023-08-15 14:28:20.384421,-14.0
2023-08-15 14:28:20.392110,-4.0
2023-08-15 14:28:20.399800,9.0
2023-08-15 14:28:20.407490,31.0
2023-08-15 14:28:20.415179,52.0
2023-08-15 14:28:20.422869,69.0
2023-08-15 14:28:20.430558,88.0
2023-08-15 14:28:20.438248,105.0
2023-08-15 14:28:20.445937,119.0
2023-08-15 14:28:20.453627,129.0
2023-08-15 14:28:20.461317,134.0
2023-08-15 14:28:20.469006,131.0
2023-08-15 14:28:20.476696,127.0
2023-08-15 14:28:20.484385,117.0
2023-08-15 14:28:20.492075,103.0
2023-08-15 14:28:20.499765,88.0
2023-08-15 14:28:20.507454,62.0
2023-08-15 14:28:20.515144,21.0
2023-08-15 14:28:20.522833,-16.0
2023-08-15 14:28:20.530523,-50.0
2023-08-15 14:28:20.538212,-88.0
2023-08-15 14:28:20.545902,-122.0
2023-08-15 14:28:20.553592,-134.0
2023-08-15 14:28:20.561281,-148.0
2023-08-15 14:28:20.568971,-170.0
2023-08-15 14:28:20.576660,-174.0
2023-08-15 14:28:20.584350,-160.0
2023-08-15 14:28:20.592040,-160.0
2023-08-15 14:28:20.599729,-172.0
2023-08-15 14:28:20.607419,-162.0
2023-08-15 14:28:20.615108,-146.0
2023-08-15 14:28:20.622798,-143.0
2023-08-15 14:28:20.630487,-141.0
2023-08-15 14:28:20.638177,-141.0
2023-08-15 14:28:20.645867,-148.0
2023-08-15 14:28:20.653556,-148.0
2023-08-15 14:28:20.661246,-141.0
2023-08-15 14:28:20.668935,-136.0
2023-08-15 14:28:20.676625,-129.0
2023-08-15 14:28:20.684315,-129.0
2023-08-15 14:28:20.692004,-141.0
2023-08-15 14:28:20.699694,-143.0
2023-08-15 14:28:20.707383,-143.0
2023-08-15 14:28:20.715073,-143.0
2023-08-15 14:28:20.722762,-141.0
2023-08-15 14:28:20.730452,-136.0
2023-08-15 14:28:20.738142,-141.0
2023-08-15 14:28:20.745831,-146.0
2023-08-15 14:28:20.753521,-148.0
2023-08-15 14:28:20.761210,-148.0
2023-08-15 14:28:20.768900,-141.0
2023-08-15 14:28:20.776590,-131.0
2023-08-15 14:28:20.784279,-129.0
2023-08-15 14:28:20.791969,-124.0
2023-08-15 14:28:20.799658,-124.0
2023-08-15 14:28:20.807348,-139.0
2023-08-15 14:28:20.815037,-136.0
2023-08-15 14:28:20.822727,-117.0
2023-08-15 14:28:20.830417,-119.0
2023-08-15 14:28:20.838106,-127.0
2023-08-15 14:28:20.845796,-117.0
2023-08-15 14:28:20.853485,-103.0
2023-08-15 14:28:20.861175,-110.0
2023-08-15 14:28:20.868865,-122.0
2023-08-15 14:28:20.876554,-115.0
2023-08-15 14:28:20.884244,-110.0
2023-08-15 14:28:20.891933,-117.0
2023-08-15 14:28:20.899623,-105.0
2023-08-15 14:28:20.907312,-88.0
2023-08-15 14:28:20.915002,-81.0
2023-08-15 14:28:20.922692,-64.0
2023-08-15 14:28:20.930381,-38.0
2023-08-15 14:28:20.938071,-28.0
2023-08-15 14:28:20.945760,-31.0
2023-08-15 14:28:20.953450,-40.0
2023-08-15 14:28:20.961139,-57.0
2023-08-15 14:28:20.968829,-79.0
2023-08-15 14:28:20.976519,-86.0
2023-08-15 14:28:20.984208,-76.0
2023-08-15 14:28:20.991898,-74.0
2023-08-15 14:28:20.999587,-83.0
2023-08-15 14:28:21.007277,-81.0
2023-08-15 14:28:21.014967,-74.0
2023-08-15 14:28:21.022656,-79.0
2023-08-15 14:28:21.030346,-79.0
2023-08-15 14:28:21.038035,-62.0
2023-08-15 14:28:21.045725,-31.0
2023-08-15 14:28:21.053414,76.0
2023-08-15 14:28:21.061104,323.0
2023-08-15 14:28:21.068794,661.0
2023-08-15 14:28:21.076483,963.0
2023-08-15 14:28:21.084173,795.0
2023-08-15 14:28:21.091862,-76.0
2023-08-15 14:28:21.099552,-651.0
2023-08-15 14:28:21.107242,-306.0
2023-08-15 14:28:21.114931,-23.0
2023-08-15 14:28:21.122621,-184.0
2023-08-15 14:28:21.130310,-194.0
2023-08-15 14:28:21.138000,-86.0
2023-08-15 14:28:21.145689,-115.0
2023-08-15 14:28:21.153379,-127.0
2023-08-15 14:28:21.161069,-83.0
2023-08-15 14:28:21.168758,-83.0
2023-08-15 14:28:21.176448,-93.0
2023-08-15 14:28:21.184137,-74.0
2023-08-15 14:28:21.191827,-62.0
2023-08-15 14:28:21.199517,-47.0
2023-08-15 14:28:21.207206,-33.0
2023-08-15 14:28:21.214896,-28.0
2023-08-15 14:28:21.222585,-21.0
2023-08-15 14:28:21.230275,0.0
2023-08-15 14:28:21.237964,21.0
2023-08-15 14:28:21.245654,23.0
2023-08-15 14:28:21.253344,26.0
2023-08-15 14:28:21.261033,45.0
2023-08-15 14:28:21.268723,67.0
2023-08-15 14:28:21.276412,79.0
2023-08-15 14:28:21.284102,95.0
2023-08-15 14:28:21.291792,105.0
2023-08-15 14:28:21.299481,107.0
2023-08-15 14:28:21.307171,115.0
2023-08-15 14:28:21.314860,122.0
2023-08-15 14:28:21.322550,112.0
2023-08-15 14:28:21.330239,93.0
2023-08-15 14:28:21.337929,81.0
2023-08-15 14:28:21.345619,69.0
2023-08-15 14:28:21.353308,45.0
2023-08-15 14:28:21.360998,9.0
2023-08-15 14:28:21.368687,-31.0
2023-08-15 14:28:21.376377,-67.0
2023-08-15 14:28:21.384067,-98.0
2023-08-15 14:28:21.391756,-127.0
2023-08-15 14:28:21.399446,-148.0
2023-08-15 14:28:21.407135,-162.0
2023-08-15 14:28:21.414825,-167.0
2023-08-15 14:28:21.422514,-160.0
2023-08-15 14:28:21.430204,-160.0
2023-08-15 14:28:21.437894,-162.0
2023-08-15 14:28:21.445583,-153.0
2023-08-15 14:28:21.453273,-141.0
2023-08-15 14:28:21.460962,-134.0
2023-08-15 14:28:21.468652,-136.0
2023-08-15 14:28:21.476342,-131.0
2023-08-15 14:28:21.484031,-129.0
2023-08-15 14:28:21.491721,-134.0
2023-08-15 14:28:21.499410,-124.0
2023-08-15 14:28:21.507100,-115.0
2023-08-15 14:28:21.514789,-117.0
2023-08-15 14:28:21.522479,-110.0
2023-08-15 14:28:21.530169,-103.0
2023-08-15 14:28:21.537858,-115.0
2023-08-15 14:28:21.545548,-129.0
2023-08-15 14:28:21.553237,-127.0
2023-08-15 14:28:21.560927,-119.0
2023-08-15 14:28:21.568617,-122.0
2023-08-15 14:28:21.576306,-129.0
2023-08-15 14:28:21.583996,-129.0
2023-08-15 14:28:21.591685,-129.0
2023-08-15 14:28:21.599375,-124.0
2023-08-15 14:28:21.607064,-115.0
2023-08-15 14:28:21.614754,-110.0
2023-08-15 14:28:21.622444,-110.0
2023-08-15 14:28:21.630133,-105.0
2023-08-15 14:28:21.637823,-103.0
2023-08-15 14:28:21.645512,-112.0
2023-08-15 14:28:21.653202,-112.0
2023-08-15 14:28:21.660892,-95.0
2023-08-15 14:28:21.668581,-103.0
2023-08-15 14:28:21.676271,-117.0
2023-08-15 14:28:21.683960,-110.0
2023-08-15 14:28:21.691650,-93.0
2023-08-15 14:28:21.699339,-76.0
2023-08-15 14:28:21.707029,-57.0
2023-08-15 14:28:21.714719,-52.0
2023-08-15 14:28:21.722408,-55.0
2023-08-15 14:28:21.730098,-45.0
2023-08-15 14:28:21.737787,-47.0
2023-08-15 14:28:21.745477,-67.0
2023-08-15 14:28:21.753167,-88.0
2023-08-15 14:28:21.760856,-110.0
2023-08-15 14:28:21.768546,-119.0
2023-08-15 14:28:21.776235,-115.0
2023-08-15 14:28:21.783925,-112.0
2023-08-15 14:28:21.791614,-107.0
2023-08-15 14:28:21.799304,-100.0
2023-08-15 14:28:21.806994,-100.0
2023-08-15 14:28:21.814683,-100.0
2023-08-15 14:28:21.822373,-93.0
2023-08-15 14:28:21.830062,-86.0
2023-08-15 14:28:21.837752,-43.0
2023-08-15 14:28:21.845442,155.0
2023-08-15 14:28:21.853131,522.0
2023-08-15 14:28:21.860821,893.0
2023-08-15 14:28:21.868510,1001.0
2023-08-15 14:28:21.876200,393.0
2023-08-15 14:28:21.883889,-589.0
2023-08-15 14:28:21.891579,-721.0
2023-08-15 14:28:21.899269,-174.0
2023-08-15 14:28:21.906958,-79.0
2023-08-15 14:28:21.914648,-237.0
2023-08-15 14:28:21.922337,-148.0
2023-08-15 14:28:21.930027,-86.0
2023-08-15 14:28:21.937717,-139.0
2023-08-15 14:28:21.945406,-124.0
2023-08-15 14:28:21.953096,-86.0
2023-08-15 14:28:21.960785,-88.0
2023-08-15 14:28:21.968475,-79.0
2023-08-15 14:28:21.976164,-59.0
2023-08-15 14:28:21.983854,-47.0
2023-08-15 14:28:21.991544,-33.0
2023-08-15 14:28:21.999233,-16.0
2023-08-15 14:28:22.006923,-11.0
2023-08-15 14:28:22.014612,-4.0
2023-08-15 14:28:22.022302,21.0
2023-08-15 14:28:22.029992,50.0
2023-08-15 14:28:22.037681,59.0
2023-08-15 14:28:22.045371,64.0
2023-08-15 14:28:22.053060,88.0
2023-08-15 14:28:22.060750,112.0
2023-08-15 14:28:22.068439,122.0
2023-08-15 14:28:22.076129,136.0
2023-08-15 14:28:22.083819,148.0
2023-08-15 14:28:22.091508,158.0
2023-08-15 14:28:22.099198,155.0
2023-08-15 14:28:22.106887,139.0
2023-08-15 14:28:22.114577,124.0
2023-08-15 14:28:22.122267,110.0
2023-08-15 14:28:22.129956,79.0
2023-08-15 14:28:22.137646,50.0
2023-08-15 14:28:22.145335,26.0
2023-08-15 14:28:22.153025,-16.0
2023-08-15 14:28:22.160714,-67.0
2023-08-15 14:28:22.168404,-95.0
2023-08-15 14:28:22.176094,-124.0
2023-08-15 14:28:22.183783,-155.0
2023-08-15 14:28:22.191473,-160.0
2023-08-15 14:28:22.199162,-160.0
2023-08-15 14:28:22.206852,-170.0
2023-08-15 14:28:22.214542,-174.0
2023-08-15 14:28:22.222231,-162.0
2023-08-15 14:28:22.229921,-158.0
2023-08-15 14:28:22.237610,-162.0
2023-08-15 14:28:22.245300,-153.0
2023-08-15 14:28:22.252989,-146.0
2023-08-15 14:28:22.260679,-148.0
2023-08-15 14:28:22.268369,-143.0
2023-08-15 14:28:22.276058,-131.0
2023-08-15 14:28:22.283748,-122.0
2023-08-15 14:28:22.291437,-117.0
2023-08-15 14:28:22.299127,-119.0
2023-08-15 14:28:22.306816,-127.0
2023-08-15 14:28:22.314506,-127.0
2023-08-15 14:28:22.322196,-124.0
2023-08-15 14:28:22.329885,-129.0
2023-08-15 14:28:22.337575,-136.0
2023-08-15 14:28:22.345264,-141.0
2023-08-15 14:28:22.352954,-143.0
2023-08-15 14:28:22.360644,-143.0
2023-08-15 14:28:22.368333,-139.0
2023-08-15 14:28:22.376023,-134.0
2023-08-15 14:28:22.383712,-129.0
2023-08-15 14:28:22.391402,-129.0
2023-08-15 14:28:22.399091,-134.0
2023-08-15 14:28:22.406781,-127.0
2023-08-15 14:28:22.414471,-119.0
2023-08-15 14:28:22.422160,-115.0
2023-08-15 14:28:22.429850,-122.0
2023-08-15 14:28:22.437539,-127.0
2023-08-15 14:28:22.445229,-115.0
2023-08-15 14:28:22.452919,-105.0
2023-08-15 14:28:22.460608,-112.0
2023-08-15 14:28:22.468298,-110.0
2023-08-15 14:28:22.475987,-100.0
2023-08-15 14:28:22.483677,-95.0
2023-08-15 14:28:22.491366,-98.0
2023-08-15 14:28:22.499056,-100.0
2023-08-15 14:28:22.506746,-100.0
2023-08-15 14:28:22.514435,-95.0
2023-08-15 14:28:22.522125,-98.0
2023-08-15 14:28:22.529814,-95.0
2023-08-15 14:28:22.537504,-71.0
2023-08-15 14:28:22.545194,-57.0
2023-08-15 14:28:22.552883,-52.0
2023-08-15 14:28:22.560573,-35.0
2023-08-15 14:28:22.568262,-23.0
2023-08-15 14:28:22.575952,-40.0
2023-08-15 14:28:22.583641,-62.0
2023-08-15 14:28:22.591331,-69.0
2023-08-15 14:28:22.599021,-76.0
2023-08-15 14:28:22.606710,-81.0
2023-08-15 14:28:22.614400,-76.0
2023-08-15 14:28:22.622089,-76.0
2023-08-15 14:28:22.629779,-86.0
2023-08-15 14:28:22.637469,-83.0
2023-08-15 14:28:22.645158,-71.0
2023-08-15 14:28:22.652848,-67.0
2023-08-15 14:28:22.660537,-62.0
2023-08-15 14:28:22.668227,-40.0
2023-08-15 14:28:22.675916,76.0
2023-08-15 14:28:22.683606,340.0
2023-08-15 14:28:22.691296,714.0
2023-08-15 14:28:22.698985,1068.0
2023-08-15 14:28:22.706675,846.0
2023-08-15 14:28:22.714364,-129.0
2023-08-15 14:28:22.722054,-666.0
2023-08-15 14:28:22.729744,-251.0
2023-08-15 14:28:22.737433,-11.0
2023-08-15 14:28:22.745123,-201.0
2023-08-15 14:28:22.752812,-189.0
2023-08-15 14:28:22.760502,-95.0
2023-08-15 14:28:22.768191,-139.0
2023-08-15 14:28:22.775881,-143.0
2023-08-15 14:28:22.783571,-91.0
2023-08-15 14:28:22.791260,-86.0
2023-08-15 14:28:22.798950,-83.0
2023-08-15 14:28:22.806639,-64.0
2023-08-15 14:28:22.814329,-59.0
2023-08-15 14:28:22.822019,-52.0
2023-08-15 14:28:22.829708,-33.0
2023-08-15 14:28:22.837398,-19.0
2023-08-15 14:28:22.845087,-16.0
2023-08-15 14:28:22.852777,-9.0
2023-08-15 14:28:22.860466,11.0
2023-08-15 14:28:22.868156,31.0
2023-08-15 14:28:22.875846,47.0
2023-08-15 14:28:22.883535,71.0
2023-08-15 14:28:22.891225,91.0
2023-08-15 14:28:22.898914,100.0
2023-08-15 14:28:22.906604,117.0
2023-08-15 14:28:22.914294,136.0
2023-08-15 14:28:22.921983,141.0
2023-08-15 14:28:22.929673,141.0
2023-08-15 14:28:22.937362,141.0
2023-08-15 14:28:22.945052,129.0
2023-08-15 14:28:22.952741,115.0
2023-08-15 14:28:22.960431,100.0
2023-08-15 14:28:22.968121,79.0
2023-08-15 14:28:22.975810,47.0
2023-08-15 14:28:22.983500,14.0
2023-08-15 14:28:22.991189,-19.0
2023-08-15 14:28:22.998879,-59.0
2023-08-15 14:28:23.006569,-100.0
2023-08-15 14:28:23.014258,-124.0
2023-08-15 14:28:23.021948,-141.0
2023-08-15 14:28:23.029637,-155.0
2023-08-15 14:28:23.037327,-160.0
2023-08-15 14:28:23.045016,-165.0
2023-08-15 14:28:23.052706,-162.0
2023-08-15 14:28:23.060396,-158.0
2023-08-15 14:28:23.068085,-150.0
2023-08-15 14:28:23.075775,-146.0
2023-08-15 14:28:23.083464,-139.0
2023-08-15 14:28:23.091154,-134.0
2023-08-15 14:28:23.098844,-127.0
2023-08-15 14:28:23.106533,-115.0
2023-08-15 14:28:23.114223,-117.0
2023-08-15 14:28:23.121912,-122.0
2023-08-15 14:28:23.129602,-115.0
2023-08-15 14:28:23.137291,-112.0
2023-08-15 14:28:23.144981,-117.0
2023-08-15 14:28:23.152671,-122.0
2023-08-15 14:28:23.160360,-122.0
2023-08-15 14:28:23.168050,-119.0
2023-08-15 14:28:23.175739,-117.0
2023-08-15 14:28:23.183429,-117.0
2023-08-15 14:28:23.191119,-117.0
2023-08-15 14:28:23.198808,-119.0
2023-08-15 14:28:23.206498,-119.0
2023-08-15 14:28:23.214187,-117.0
2023-08-15 14:28:23.221877,-115.0
2023-08-15 14:28:23.229566,-115.0
2023-08-15 14:28:23.237256,-112.0
2023-08-15 14:28:23.244946,-107.0
2023-08-15 14:28:23.252635,-100.0
2023-08-15 14:28:23.260325,-107.0
2023-08-15 14:28:23.268014,-119.0
2023-08-15 14:28:23.275704,-115.0
2023-08-15 14:28:23.283394,-100.0
2023-08-15 14:28:23.291083,-105.0
2023-08-15 14:28:23.298773,-115.0
2023-08-15 14:28:23.306462,-105.0
2023-08-15 14:28:23.314152,-91.0
2023-08-15 14:28:23.321841,-93.0
2023-08-15 14:28:23.329531,-105.0
2023-08-15 14:28:23.337221,-100.0
2023-08-15 14:28:23.344910,-76.0
2023-08-15 14:28:23.352600,-79.0
2023-08-15 14:28:23.360289,-95.0
2023-08-15 14:28:23.367979,-91.0
2023-08-15 14:28:23.375669,-69.0
2023-08-15 14:28:23.383358,-74.0
2023-08-15 14:28:23.391048,-95.0
2023-08-15 14:28:23.398737,-71.0
2023-08-15 14:28:23.406427,-21.0
2023-08-15 14:28:23.414116,-21.0
2023-08-15 14:28:23.421806,-50.0
2023-08-15 14:28:23.429496,-52.0
2023-08-15 14:28:23.437185,-59.0
2023-08-15 14:28:23.444875,-86.0
2023-08-15 14:28:23.452564,-103.0
2023-08-15 14:28:23.460254,-95.0
2023-08-15 14:28:23.467944,-98.0
2023-08-15 14:28:23.475633,-100.0
2023-08-15 14:28:23.483323,-79.0
2023-08-15 14:28:23.491012,-88.0
2023-08-15 14:28:23.498702,-129.0
2023-08-15 14:28:23.506391,-93.0
2023-08-15 14:28:23.514081,-33.0
2023-08-15 14:28:23.521771,-9.0
2023-08-15 14:28:23.529460,131.0
2023-08-15 14:28:23.537150,414.0
2023-08-15 14:28:23.544839,742.0
2023-08-15 14:28:23.552529,956.0
2023-08-15 14:28:23.560219,512.0
2023-08-15 14:28:23.567908,-395.0
2023-08-15 14:28:23.575598,-572.0
2023-08-15 14:28:23.583287,-119.0
2023-08-15 14:28:23.590977,-69.0
2023-08-15 14:28:23.598666,-266.0
2023-08-15 14:28:23.606356,-201.0
2023-08-15 14:28:23.614046,-107.0
2023-08-15 14:28:23.621735,-150.0
2023-08-15 14:28:23.629425,-162.0
2023-08-15 14:28:23.637114,-117.0
2023-08-15 14:28:23.644804,-95.0
2023-08-15 14:28:23.652493,-95.0
2023-08-15 14:28:23.660183,-88.0
2023-08-15 14:28:23.667873,-79.0
2023-08-15 14:28:23.675562,-62.0
2023-08-15 14:28:23.683252,-57.0
2023-08-15 14:28:23.690941,-55.0
2023-08-15 14:28:23.698631,-23.0
2023-08-15 14:28:23.706321,11.0
2023-08-15 14:28:23.714010,4.0
2023-08-15 14:28:23.721700,4.0
2023-08-15 14:28:23.729389,40.0
2023-08-15 14:28:23.737079,59.0
2023-08-15 14:28:23.744768,69.0
2023-08-15 14:28:23.752458,91.0
2023-08-15 14:28:23.760148,112.0
2023-08-15 14:28:23.767837,115.0
2023-08-15 14:28:23.775527,91.0
2023-08-15 14:28:23.783216,81.0
2023-08-15 14:28:23.790906,93.0
2023-08-15 14:28:23.798596,86.0
2023-08-15 14:28:23.806285,62.0
2023-08-15 14:28:23.813975,40.0
2023-08-15 14:28:23.821664,33.0
2023-08-15 14:28:23.829354,-2.0
2023-08-15 14:28:23.837043,-40.0
2023-08-15 14:28:23.844733,-55.0
2023-08-15 14:28:23.852423,-115.0
2023-08-15 14:28:23.860112,-158.0
2023-08-15 14:28:23.867802,-146.0
2023-08-15 14:28:23.875491,-148.0
2023-08-15 14:28:23.883181,-179.0
2023-08-15 14:28:23.890871,-210.0
2023-08-15 14:28:23.898560,-203.0
2023-08-15 14:28:23.906250,-179.0
2023-08-15 14:28:23.913939,-194.0
2023-08-15 14:28:23.921629,-196.0
2023-08-15 14:28:23.929318,-172.0
2023-08-15 14:28:23.937008,-153.0
2023-08-15 14:28:23.944698,-134.0
2023-08-15 14:28:23.952387,-141.0
2023-08-15 14:28:23.960077,-177.0
2023-08-15 14:28:23.967766,-172.0
2023-08-15 14:28:23.975456,-148.0
2023-08-15 14:28:23.983146,-165.0
2023-08-15 14:28:23.990835,-194.0
2023-08-15 14:28:23.998525,-170.0
2023-08-15 14:28:24.006214,-134.0
2023-08-15 14:28:24.013904,-150.0
2023-08-15 14:28:24.021593,-162.0
2023-08-15 14:28:24.029283,-148.0
2023-08-15 14:28:24.036973,-158.0
2023-08-15 14:28:24.044662,-165.0
2023-08-15 14:28:24.052352,-148.0
2023-08-15 14:28:24.060041,-158.0
2023-08-15 14:28:24.067731,-177.0
2023-08-15 14:28:24.075421,-150.0
2023-08-15 14:28:24.083110,-136.0
2023-08-15 14:28:24.090800,-162.0
2023-08-15 14:28:24.098489,-158.0
2023-08-15 14:28:24.106179,-117.0
2023-08-15 14:28:24.113868,-105.0
2023-08-15 14:28:24.121558,-127.0
2023-08-15 14:28:24.129248,-143.0
2023-08-15 14:28:24.136937,-129.0
2023-08-15 14:28:24.144627,-112.0
2023-08-15 14:28:24.152316,-136.0
2023-08-15 14:28:24.160006,-143.0
2023-08-15 14:28:24.167696,-110.0
2023-08-15 14:28:24.175385,-98.0
2023-08-15 14:28:24.183075,-98.0
2023-08-15 14:28:24.190764,-95.0
2023-08-15 14:28:24.198454,-117.0
2023-08-15 14:28:24.206143,-117.0
2023-08-15 14:28:24.213833,-64.0
2023-08-15 14:28:24.221523,-40.0
2023-08-15 14:28:24.229212,-57.0
2023-08-15 14:28:24.236902,-47.0
2023-08-15 14:28:24.244591,-26.0
2023-08-15 14:28:24.252281,-45.0
2023-08-15 14:28:24.259971,-71.0
2023-08-15 14:28:24.267660,-91.0
2023-08-15 14:28:24.275350,-107.0
2023-08-15 14:28:24.283039,-98.0
2023-08-15 14:28:24.290729,-86.0
2023-08-15 14:28:24.298418,-86.0
2023-08-15 14:28:24.306108,-95.0
2023-08-15 14:28:24.313798,-107.0
2023-08-15 14:28:24.321487,-98.0
2023-08-15 14:28:24.329177,-74.0
2023-08-15 14:28:24.336866,-76.0
2023-08-15 14:28:24.344556,-57.0
2023-08-15 14:28:24.352246,117.0
2023-08-15 14:28:24.359935,452.0
2023-08-15 14:28:24.367625,798.0
2023-08-15 14:28:24.375314,913.0
2023-08-15 14:28:24.383004,414.0
2023-08-15 14:28:24.390693,-462.0
2023-08-15 14:28:24.398383,-671.0
2023-08-15 14:28:24.406073,-213.0
2023-08-15 14:28:24.413762,-62.0
2023-08-15 14:28:24.421452,-182.0
2023-08-15 14:28:24.429141,-129.0
2023-08-15 14:28:24.436831,-76.0
2023-08-15 14:28:24.444521,-115.0
2023-08-15 14:28:24.452210,-98.0
2023-08-15 14:28:24.459900,-67.0
2023-08-15 14:28:24.467589,-59.0
2023-08-15 14:28:24.475279,-47.0
2023-08-15 14:28:24.482968,-55.0
2023-08-15 14:28:24.490658,-45.0
2023-08-15 14:28:24.498348,-9.0
2023-08-15 14:28:24.506037,2.0
2023-08-15 14:28:24.513727,-2.0
2023-08-15 14:28:24.521416,9.0
2023-08-15 14:28:24.529106,28.0
2023-08-15 14:28:24.536796,43.0
2023-08-15 14:28:24.544485,52.0
2023-08-15 14:28:24.552175,59.0
2023-08-15 14:28:24.559864,67.0
2023-08-15 14:28:24.567554,91.0
2023-08-15 14:28:24.575243,117.0
2023-08-15 14:28:24.582933,134.0
2023-08-15 14:28:24.590623,153.0
2023-08-15 14:28:24.598312,162.0
2023-08-15 14:28:24.606002,153.0
2023-08-15 14:28:24.613691,134.0
2023-08-15 14:28:24.621381,129.0
2023-08-15 14:28:24.629071,150.0
2023-08-15 14:28:24.636760,136.0
2023-08-15 14:28:24.644450,91.0
2023-08-15 14:28:24.652139,76.0
2023-08-15 14:28:24.659829,43.0
2023-08-15 14:28:24.667518,-50.0
2023-08-15 14:28:24.675208,-105.0
2023-08-15 14:28:24.682898,-91.0
2023-08-15 14:28:24.690587,-83.0
2023-08-15 14:28:24.698277,-127.0
2023-08-15 14:28:24.705966,-158.0
2023-08-15 14:28:24.713656,-141.0
2023-08-15 14:28:24.721346,-131.0
2023-08-15 14:28:24.729035,-134.0
2023-08-15 14:28:24.736725,-131.0
2023-08-15 14:28:24.744414,-127.0
2023-08-15 14:28:24.752104,-110.0
2023-08-15 14:28:24.759793,-110.0
2023-08-15 14:28:24.767483,-110.0
2023-08-15 14:28:24.775173,-83.0
2023-08-15 14:28:24.782862,-95.0
2023-08-15 14:28:24.790552,-139.0
2023-08-15 14:28:24.798241,-112.0
2023-08-15 14:28:24.805931,-74.0
2023-08-15 14:28:24.813621,-112.0
2023-08-15 14:28:24.821310,-129.0
2023-08-15 14:28:24.829000,-100.0
2023-08-15 14:28:24.836689,-98.0
2023-08-15 14:28:24.844379,-107.0
2023-08-15 14:28:24.852068,-105.0
2023-08-15 14:28:24.859758,-100.0
2023-08-15 14:28:24.867448,-95.0
2023-08-15 14:28:24.875137,-107.0
2023-08-15 14:28:24.882827,-134.0
2023-08-15 14:28:24.890516,-127.0
2023-08-15 14:28:24.898206,-100.0
2023-08-15 14:28:24.905896,-93.0
2023-08-15 14:28:24.913585,-105.0
2023-08-15 14:28:24.921275,-119.0
2023-08-15 14:28:24.928964,-107.0
2023-08-15 14:28:24.936654,-95.0
2023-08-15 14:28:24.944343,-107.0
2023-08-15 14:28:24.952033,-110.0
2023-08-15 14:28:24.959723,-98.0
2023-08-15 14:28:24.967412,-95.0
2023-08-15 14:28:24.975102,-105.0
2023-08-15 14:28:24.982791,-112.0
2023-08-15 14:28:24.990481,-91.0
2023-08-15 14:28:24.998171,-74.0
2023-08-15 14:28:25.005860,-59.0
2023-08-15 14:28:25.013550,-38.0
2023-08-15 14:28:25.021239,-45.0
2023-08-15 14:28:25.028929,-55.0
2023-08-15 14:28:25.036618,-52.0
2023-08-15 14:28:25.044308,-91.0
2023-08-15 14:28:25.051998,-115.0
2023-08-15 14:28:25.059687,-86.0
2023-08-15 14:28:25.067377,-83.0
2023-08-15 14:28:25.075066,-105.0
2023-08-15 14:28:25.082756,-115.0
2023-08-15 14:28:25.090445,-117.0
2023-08-15 14:28:25.098135,-107.0
2023-08-15 14:28:25.105825,-98.0
2023-08-15 14:28:25.113514,-98.0
2023-08-15 14:28:25.121204,-81.0
2023-08-15 14:28:25.128893,2.0
2023-08-15 14:28:25.136583,246.0
2023-08-15 14:28:25.144273,620.0
2023-08-15 14:28:25.151962,927.0
2023-08-15 14:28:25.159652,819.0
2023-08-15 14:28:25.167341,38.0
2023-08-15 14:28:25.175031,-699.0
2023-08-15 14:28:25.182720,-532.0
2023-08-15 14:28:25.190410,-100.0
2023-08-15 14:28:25.198100,-119.0
2023-08-15 14:28:25.205789,-194.0
2023-08-15 14:28:25.213479,-117.0
2023-08-15 14:28:25.221168,-107.0
2023-08-15 14:28:25.228858,-119.0
2023-08-15 14:28:25.236548,-98.0
2023-08-15 14:28:25.244237,-88.0
2023-08-15 14:28:25.251927,-67.0
2023-08-15 14:28:25.259616,-57.0
2023-08-15 14:28:25.267306,-79.0
2023-08-15 14:28:25.274995,-79.0
2023-08-15 14:28:25.282685,-57.0
2023-08-15 14:28:25.290375,-52.0
2023-08-15 14:28:25.298064,-45.0
2023-08-15 14:28:25.305754,-16.0
2023-08-15 14:28:25.313443,9.0
2023-08-15 14:28:25.321133,4.0
2023-08-15 14:28:25.328823,2.0
2023-08-15 14:28:25.336512,28.0
2023-08-15 14:28:25.344202,64.0
2023-08-15 14:28:25.351891,93.0
2023-08-15 14:28:25.359581,79.0
2023-08-15 14:28:25.367270,62.0
2023-08-15 14:28:25.374960,103.0
2023-08-15 14:28:25.382650,124.0
2023-08-15 14:28:25.390339,88.0
2023-08-15 14:28:25.398029,76.0
2023-08-15 14:28:25.405718,81.0
2023-08-15 14:28:25.413408,62.0
2023-08-15 14:28:25.421098,47.0
2023-08-15 14:28:25.428787,43.0
2023-08-15 14:28:25.436477,2.0
2023-08-15 14:28:25.444166,-52.0
2023-08-15 14:28:25.451856,-79.0
2023-08-15 14:28:25.459545,-100.0
2023-08-15 14:28:25.467235,-127.0
2023-08-15 14:28:25.474925,-146.0
2023-08-15 14:28:25.482614,-160.0
2023-08-15 14:28:25.490304,-162.0
2023-08-15 14:28:25.497993,-155.0
2023-08-15 14:28:25.505683,-153.0
2023-08-15 14:28:25.513373,-160.0
2023-08-15 14:28:25.521062,-167.0
2023-08-15 14:28:25.528752,-153.0
2023-08-15 14:28:25.536441,-136.0
2023-08-15 14:28:25.544131,-136.0
2023-08-15 14:28:25.551820,-131.0
2023-08-15 14:28:25.559510,-129.0
2023-08-15 14:28:25.567200,-119.0
2023-08-15 14:28:25.574889,-91.0
2023-08-15 14:28:25.582579,-88.0
2023-08-15 14:28:25.590268,-117.0
2023-08-15 14:28:25.597958,-131.0
2023-08-15 14:28:25.605648,-119.0
2023-08-15 14:28:25.613337,-107.0
2023-08-15 14:28:25.621027,-119.0
2023-08-15 14:28:25.628716,-134.0
2023-08-15 14:28:25.636406,-127.0
2023-08-15 14:28:25.644095,-100.0
2023-08-15 14:28:25.651785,-95.0
2023-08-15 14:28:25.659475,-122.0
2023-08-15 14:28:25.667164,-129.0
2023-08-15 14:28:25.674854,-103.0
2023-08-15 14:28:25.682543,-115.0
2023-08-15 14:28:25.690233,-146.0
2023-08-15 14:28:25.697923,-131.0
2023-08-15 14:28:25.705612,-105.0
2023-08-15 14:28:25.713302,-103.0
2023-08-15 14:28:25.720991,-103.0
2023-08-15 14:28:25.728681,-103.0
2023-08-15 14:28:25.736370,-103.0
2023-08-15 14:28:25.744060,-103.0
2023-08-15 14:28:25.751750,-88.0
2023-08-15 14:28:25.759439,-88.0
2023-08-15 14:28:25.767129,-122.0
2023-08-15 14:28:25.774818,-129.0
2023-08-15 14:28:25.782508,-98.0
2023-08-15 14:28:25.790198,-95.0
2023-08-15 14:28:25.797887,-95.0
2023-08-15 14:28:25.805577,-67.0
2023-08-15 14:28:25.813266,-55.0
2023-08-15 14:28:25.820956,-52.0
2023-08-15 14:28:25.828645,-35.0
2023-08-15 14:28:25.836335,-52.0
2023-08-15 14:28:25.844025,-81.0
2023-08-15 14:28:25.851714,-81.0
2023-08-15 14:28:25.859404,-88.0
2023-08-15 14:28:25.867093,-95.0
2023-08-15 14:28:25.874783,-86.0
2023-08-15 14:28:25.882473,-74.0
2023-08-15 14:28:25.890162,-81.0
2023-08-15 14:28:25.897852,-88.0
2023-08-15 14:28:25.905541,-76.0
2023-08-15 14:28:25.913231,-64.0
2023-08-15 14:28:25.920920,-71.0
2023-08-15 14:28:25.928610,-76.0
2023-08-15 14:28:25.936300,2.0
2023-08-15 14:28:25.943989,220.0
2023-08-15 14:28:25.951679,508.0
2023-08-15 14:28:25.959368,788.0
2023-08-15 14:28:25.967058,802.0
2023-08-15 14:28:25.974748,179.0
2023-08-15 14:28:25.982437,-517.0
2023-08-15 14:28:25.990127,-421.0
2023-08-15 14:28:25.997816,-52.0
2023-08-15 14:28:26.005506,-107.0
2023-08-15 14:28:26.013195,-194.0
2023-08-15 14:28:26.020885,-95.0
2023-08-15 14:28:26.028575,-79.0
2023-08-15 14:28:26.036264,-115.0
2023-08-15 14:28:26.043954,-88.0
2023-08-15 14:28:26.051643,-71.0
2023-08-15 14:28:26.059333,-76.0
2023-08-15 14:28:26.067023,-55.0
2023-08-15 14:28:26.074712,-35.0
2023-08-15 14:28:26.082402,-40.0
2023-08-15 14:28:26.090091,-35.0
2023-08-15 14:28:26.097781,-11.0
2023-08-15 14:28:26.105470,14.0
2023-08-15 14:28:26.113160,35.0
2023-08-15 14:28:26.120850,21.0
2023-08-15 14:28:26.128539,14.0
2023-08-15 14:28:26.136229,55.0
2023-08-15 14:28:26.143918,83.0
2023-08-15 14:28:26.151608,88.0
2023-08-15 14:28:26.159298,107.0
2023-08-15 14:28:26.166987,134.0
2023-08-15 14:28:26.174677,146.0
2023-08-15 14:28:26.182366,155.0
2023-08-15 14:28:26.190056,155.0
2023-08-15 14:28:26.197745,153.0
2023-08-15 14:28:26.205435,160.0
2023-08-15 14:28:26.213125,139.0
2023-08-15 14:28:26.220814,103.0
2023-08-15 14:28:26.228504,105.0
2023-08-15 14:28:26.236193,93.0
2023-08-15 14:28:26.243883,45.0
2023-08-15 14:28:26.251573,9.0
2023-08-15 14:28:26.259262,-11.0
2023-08-15 14:28:26.266952,-50.0
2023-08-15 14:28:26.274641,-88.0
2023-08-15 14:28:26.282331,-115.0
2023-08-15 14:28:26.290020,-143.0
2023-08-15 14:28:26.297710,-155.0
2023-08-15 14:28:26.305400,-146.0
2023-08-15 14:28:26.313089,-131.0
2023-08-15 14:28:26.320779,-124.0
2023-08-15 14:28:26.328468,-124.0
2023-08-15 14:28:26.336158,-119.0
2023-08-15 14:28:26.343848,-105.0
2023-08-15 14:28:26.351537,-98.0
2023-08-15 14:28:26.359227,-103.0
2023-08-15 14:28:26.366916,-115.0
2023-08-15 14:28:26.374606,-110.0
2023-08-15 14:28:26.382295,-95.0
2023-08-15 14:28:26.389985,-86.0
2023-08-15 14:28:26.397675,-76.0
2023-08-15 14:28:26.405364,-74.0
2023-08-15 14:28:26.413054,-71.0
2023-08-15 14:28:26.420743,-74.0
2023-08-15 14:28:26.428433,-91.0
2023-08-15 14:28:26.436122,-98.0
2023-08-15 14:28:26.443812,-93.0
2023-08-15 14:28:26.451502,-88.0
2023-08-15 14:28:26.459191,-83.0
2023-08-15 14:28:26.466881,-88.0
2023-08-15 14:28:26.474570,-100.0
2023-08-15 14:28:26.482260,-98.0
2023-08-15 14:28:26.489950,-88.0
2023-08-15 14:28:26.497639,-88.0
2023-08-15 14:28:26.505329,-91.0
2023-08-15 14:28:26.513018,-93.0
2023-08-15 14:28:26.520708,-93.0
2023-08-15 14:28:26.528397,-83.0
2023-08-15 14:28:26.536087,-79.0
2023-08-15 14:28:26.543777,-93.0
2023-08-15 14:28:26.551466,-98.0
2023-08-15 14:28:26.559156,-81.0
2023-08-15 14:28:26.566845,-81.0
2023-08-15 14:28:26.574535,-88.0
2023-08-15 14:28:26.582225,-81.0
2023-08-15 14:28:26.589914,-86.0
2023-08-15 14:28:26.597604,-93.0
2023-08-15 14:28:26.605293,-81.0
2023-08-15 14:28:26.612983,-64.0
2023-08-15 14:28:26.620672,-57.0
2023-08-15 14:28:26.628362,-47.0
2023-08-15 14:28:26.636052,-28.0
2023-08-15 14:28:26.643741,-31.0
2023-08-15 14:28:26.651431,-45.0
2023-08-15 14:28:26.659120,-40.0
2023-08-15 14:28:26.666810,-38.0
2023-08-15 14:28:26.674500,-69.0
2023-08-15 14:28:26.682189,-93.0
2023-08-15 14:28:26.689879,-81.0
2023-08-15 14:28:26.697568,-67.0
2023-08-15 14:28:26.705258,-79.0
2023-08-15 14:28:26.712947,-74.0
2023-08-15 14:28:26.720637,-52.0
2023-08-15 14:28:26.728327,-71.0
2023-08-15 14:28:26.736016,-93.0
2023-08-15 14:28:26.743706,-69.0
2023-08-15 14:28:26.751395,-14.0
2023-08-15 14:28:26.759085,139.0
2023-08-15 14:28:26.766775,412.0
2023-08-15 14:28:26.774464,750.0
2023-08-15 14:28:26.782154,961.0
2023-08-15 14:28:26.789843,486.0
2023-08-15 14:28:26.797533,-448.0
2023-08-15 14:28:26.805222,-630.0
2023-08-15 14:28:26.812912,-150.0
2023-08-15 14:28:26.820602,-71.0
2023-08-15 14:28:26.828291,-225.0
2023-08-15 14:28:26.835981,-146.0
2023-08-15 14:28:26.843670,-105.0
2023-08-15 14:28:26.851360,-158.0
2023-08-15 14:28:26.859050,-119.0
2023-08-15 14:28:26.866739,-64.0
2023-08-15 14:28:26.874429,-81.0
2023-08-15 14:28:26.882118,-83.0
2023-08-15 14:28:26.889808,-62.0
2023-08-15 14:28:26.897497,-47.0
2023-08-15 14:28:26.905187,-31.0
2023-08-15 14:28:26.912877,-16.0
2023-08-15 14:28:26.920566,-16.0
2023-08-15 14:28:26.928256,-7.0
2023-08-15 14:28:26.935945,21.0
2023-08-15 14:28:26.943635,38.0
2023-08-15 14:28:26.951325,47.0
2023-08-15 14:28:26.959014,76.0
2023-08-15 14:28:26.966704,98.0
2023-08-15 14:28:26.974393,103.0
2023-08-15 14:28:26.982083,119.0
2023-08-15 14:28:26.989772,141.0
2023-08-15 14:28:26.997462,148.0
2023-08-15 14:28:27.005152,150.0
2023-08-15 14:28:27.012841,153.0
2023-08-15 14:28:27.020531,148.0
2023-08-15 14:28:27.028220,143.0
2023-08-15 14:28:27.035910,136.0
2023-08-15 14:28:27.043600,117.0
2023-08-15 14:28:27.051289,83.0
2023-08-15 14:28:27.058979,52.0
2023-08-15 14:28:27.066668,14.0
2023-08-15 14:28:27.074358,-33.0
2023-08-15 14:28:27.082047,-64.0
2023-08-15 14:28:27.089737,-88.0
2023-08-15 14:28:27.097427,-119.0
2023-08-15 14:28:27.105116,-141.0
2023-08-15 14:28:27.112806,-155.0
2023-08-15 14:28:27.120495,-170.0
2023-08-15 14:28:27.128185,-167.0
2023-08-15 14:28:27.135875,-155.0
2023-08-15 14:28:27.143564,-155.0
2023-08-15 14:28:27.151254,-158.0
2023-08-15 14:28:27.158943,-158.0
2023-08-15 14:28:27.166633,-146.0
2023-08-15 14:28:27.174322,-129.0
2023-08-15 14:28:27.182012,-127.0
2023-08-15 14:28:27.189702,-124.0
2023-08-15 14:28:27.197391,-119.0
2023-08-15 14:28:27.205081,-122.0
2023-08-15 14:28:27.212770,-117.0
2023-08-15 14:28:27.220460,-107.0
2023-08-15 14:28:27.228150,-110.0
2023-08-15 14:28:27.235839,-119.0
2023-08-15 14:28:27.243529,-119.0
2023-08-15 14:28:27.251218,-107.0
2023-08-15 14:28:27.258908,-112.0
2023-08-15 14:28:27.266597,-122.0
2023-08-15 14:28:27.274287,-112.0
2023-08-15 14:28:27.281977,-115.0
2023-08-15 14:28:27.289666,-129.0
2023-08-15 14:28:27.297356,-131.0
2023-08-15 14:28:27.305045,-136.0
2023-08-15 14:28:27.312735,-139.0
2023-08-15 14:28:27.320425,-129.0
2023-08-15 14:28:27.328114,-115.0
2023-08-15 14:28:27.335804,-124.0
2023-08-15 14:28:27.343493,-148.0
2023-08-15 14:28:27.351183,-143.0
2023-08-15 14:28:27.358872,-122.0
2023-08-15 14:28:27.366562,-107.0
2023-08-15 14:28:27.374252,-124.0
2023-08-15 14:28:27.381941,-148.0
2023-08-15 14:28:27.389631,-136.0
2023-08-15 14:28:27.397320,-110.0
2023-08-15 14:28:27.405010,-100.0
2023-08-15 14:28:27.412700,-88.0
2023-08-15 14:28:27.420389,-67.0
2023-08-15 14:28:27.428079,-55.0
2023-08-15 14:28:27.435768,-67.0
2023-08-15 14:28:27.443458,-79.0
2023-08-15 14:28:27.451147,-79.0
2023-08-15 14:28:27.458837,-93.0
2023-08-15 14:28:27.466527,-110.0
2023-08-15 14:28:27.474216,-103.0
2023-08-15 14:28:27.481906,-107.0
2023-08-15 14:28:27.489595,-131.0
2023-08-15 14:28:27.497285,-119.0
2023-08-15 14:28:27.504975,-91.0
2023-08-15 14:28:27.512664,-95.0
2023-08-15 14:28:27.520354,-112.0
2023-08-15 14:28:27.528043,-100.0
2023-08-15 14:28:27.535733,-59.0
2023-08-15 14:28:27.543422,55.0
2023-08-15 14:28:27.551112,330.0
2023-08-15 14:28:27.558802,726.0
2023-08-15 14:28:27.566491,1030.0
2023-08-15 14:28:27.574181,759.0
2023-08-15 14:28:27.581870,-210.0
2023-08-15 14:28:27.589560,-764.0
2023-08-15 14:28:27.597250,-345.0
2023-08-15 14:28:27.604939,-50.0
2023-08-15 14:28:27.612629,-218.0
2023-08-15 14:28:27.620318,-213.0
2023-08-15 14:28:27.628008,-103.0
2023-08-15 14:28:27.635697,-136.0
2023-08-15 14:28:27.643387,-148.0
2023-08-15 14:28:27.651077,-103.0
2023-08-15 14:28:27.658766,-93.0
2023-08-15 14:28:27.666456,-93.0
2023-08-15 14:28:27.674145,-76.0
2023-08-15 14:28:27.681835,-62.0
2023-08-15 14:28:27.689525,-55.0
2023-08-15 14:28:27.697214,-50.0
2023-08-15 14:28:27.704904,-38.0
2023-08-15 14:28:27.712593,-16.0
2023-08-15 14:28:27.720283,2.0
2023-08-15 14:28:27.727972,16.0
2023-08-15 14:28:27.735662,26.0
2023-08-15 14:28:27.743352,43.0
2023-08-15 14:28:27.751041,62.0
2023-08-15 14:28:27.758731,76.0
2023-08-15 14:28:27.766420,103.0
2023-08-15 14:28:27.774110,131.0
2023-08-15 14:28:27.781799,131.0
2023-08-15 14:28:27.789489,129.0
2023-08-15 14:28:27.797179,146.0
2023-08-15 14:28:27.804868,139.0
2023-08-15 14:28:27.812558,115.0
2023-08-15 14:28:27.820247,100.0
2023-08-15 14:28:27.827937,79.0
2023-08-15 14:28:27.835627,45.0
2023-08-15 14:28:27.843316,11.0
2023-08-15 14:28:27.851006,-23.0
2023-08-15 14:28:27.858695,-69.0
2023-08-15 14:28:27.866385,-119.0
2023-08-15 14:28:27.874074,-146.0
2023-08-15 14:28:27.881764,-158.0
2023-08-15 14:28:27.889454,-189.0
2023-08-15 14:28:27.897143,-206.0
2023-08-15 14:28:27.904833,-206.0
2023-08-15 14:28:27.912522,-208.0
2023-08-15 14:28:27.920212,-203.0
2023-08-15 14:28:27.927902,-203.0
2023-08-15 14:28:27.935591,-210.0
2023-08-15 14:28:27.943281,-206.0
2023-08-15 14:28:27.950970,-201.0
2023-08-15 14:28:27.958660,-196.0
2023-08-15 14:28:27.966349,-174.0
2023-08-15 14:28:27.974039,-165.0
2023-08-15 14:28:27.981729,-172.0
2023-08-15 14:28:27.989418,-158.0
2023-08-15 14:28:27.997108,-139.0
2023-08-15 14:28:28.004797,-141.0
2023-08-15 14:28:28.012487,-146.0
2023-08-15 14:28:28.020177,-153.0
2023-08-15 14:28:28.027866,-170.0
2023-08-15 14:28:28.035556,-165.0
2023-08-15 14:28:28.043245,-146.0
2023-08-15 14:28:28.050935,-141.0
2023-08-15 14:28:28.058624,-150.0
2023-08-15 14:28:28.066314,-158.0
2023-08-15 14:28:28.074004,-153.0
2023-08-15 14:28:28.081693,-153.0
2023-08-15 14:28:28.089383,-148.0
2023-08-15 14:28:28.097072,-146.0
2023-08-15 14:28:28.104762,-165.0
2023-08-15 14:28:28.112452,-158.0
2023-08-15 14:28:28.120141,-139.0
2023-08-15 14:28:28.127831,-153.0
2023-08-15 14:28:28.135520,-160.0
2023-08-15 14:28:28.143210,-136.0
2023-08-15 14:28:28.150899,-131.0
2023-08-15 14:28:28.158589,-143.0
2023-08-15 14:28:28.166279,-131.0
2023-08-15 14:28:28.173968,-124.0
2023-08-15 14:28:28.181658,-131.0
2023-08-15 14:28:28.189347,-127.0
2023-08-15 14:28:28.197037,-124.0
2023-08-15 14:28:28.204727,-136.0
2023-08-15 14:28:28.212416,-136.0
2023-08-15 14:28:28.220106,-127.0
2023-08-15 14:28:28.227795,-124.0
2023-08-15 14:28:28.235485,-117.0
2023-08-15 14:28:28.243174,-88.0
2023-08-15 14:28:28.250864,-76.0
2023-08-15 14:28:28.258554,-76.0
2023-08-15 14:28:28.266243,-55.0
2023-08-15 14:28:28.273933,-55.0
2023-08-15 14:28:28.281622,-86.0
2023-08-15 14:28:28.289312,-103.0
2023-08-15 14:28:28.297002,-103.0
2023-08-15 14:28:28.304691,-105.0
2023-08-15 14:28:28.312381,-115.0
2023-08-15 14:28:28.320070,-122.0
2023-08-15 14:28:28.327760,-115.0
2023-08-15 14:28:28.335449,-105.0
2023-08-15 14:28:28.343139,-105.0
2023-08-15 14:28:28.350829,-110.0
2023-08-15 14:28:28.358518,-103.0
2023-08-15 14:28:28.366208,-93.0
2023-08-15 14:28:28.373897,-38.0
2023-08-15 14:28:28.381587,136.0
2023-08-15 14:28:28.389277,426.0
2023-08-15 14:28:28.396966,802.0
2023-08-15 14:28:28.404656,1023.0
2023-08-15 14:28:28.412345,508.0
2023-08-15 14:28:28.420035,-440.0
2023-08-15 14:28:28.427724,-611.0
2023-08-15 14:28:28.435414,-153.0
2023-08-15 14:28:28.443104,-95.0
2023-08-15 14:28:28.450793,-244.0
2023-08-15 14:28:28.458483,-167.0
2023-08-15 14:28:28.466172,-119.0
2023-08-15 14:28:28.473862,-167.0
2023-08-15 14:28:28.481552,-141.0
2023-08-15 14:28:28.489241,-100.0
2023-08-15 14:28:28.496931,-98.0
2023-08-15 14:28:28.504620,-91.0
2023-08-15 14:28:28.512310,-86.0
2023-08-15 14:28:28.519999,-88.0
2023-08-15 14:28:28.527689,-69.0
2023-08-15 14:28:28.535379,-47.0
2023-08-15 14:28:28.543068,-45.0
2023-08-15 14:28:28.550758,-38.0
2023-08-15 14:28:28.558447,-14.0
2023-08-15 14:28:28.566137,2.0
2023-08-15 14:28:28.573827,16.0
2023-08-15 14:28:28.581516,43.0
2023-08-15 14:28:28.589206,64.0
2023-08-15 14:28:28.596895,79.0
2023-08-15 14:28:28.604585,100.0
2023-08-15 14:28:28.612274,115.0
2023-08-15 14:28:28.619964,117.0
2023-08-15 14:28:28.627654,127.0
2023-08-15 14:28:28.635343,139.0
2023-08-15 14:28:28.643033,134.0
2023-08-15 14:28:28.650722,119.0
2023-08-15 14:28:28.658412,100.0
2023-08-15 14:28:28.666102,83.0
2023-08-15 14:28:28.673791,64.0
2023-08-15 14:28:28.681481,40.0
2023-08-15 14:28:28.689170,-9.0
2023-08-15 14:28:28.696860,-69.0
2023-08-15 14:28:28.704549,-103.0
2023-08-15 14:28:28.712239,-117.0
2023-08-15 14:28:28.719929,-136.0
2023-08-15 14:28:28.727618,-162.0
2023-08-15 14:28:28.735308,-184.0
2023-08-15 14:28:28.742997,-191.0
2023-08-15 14:28:28.750687,-184.0
2023-08-15 14:28:28.758377,-177.0
2023-08-15 14:28:28.766066,-177.0
2023-08-15 14:28:28.773756,-177.0
2023-08-15 14:28:28.781445,-170.0
2023-08-15 14:28:28.789135,-160.0
2023-08-15 14:28:28.796824,-153.0
2023-08-15 14:28:28.804514,-148.0
2023-08-15 14:28:28.812204,-153.0
2023-08-15 14:28:28.819893,-158.0
2023-08-15 14:28:28.827583,-153.0
2023-08-15 14:28:28.835272,-143.0
2023-08-15 14:28:28.842962,-131.0
2023-08-15 14:28:28.850652,-129.0
2023-08-15 14:28:28.858341,-139.0
2023-08-15 14:28:28.866031,-139.0
2023-08-15 14:28:28.873720,-141.0
2023-08-15 14:28:28.881410,-150.0
2023-08-15 14:28:28.889099,-143.0
2023-08-15 14:28:28.896789,-124.0
2023-08-15 14:28:28.904479,-131.0
2023-08-15 14:28:28.912168,-153.0
2023-08-15 14:28:28.919858,-148.0
2023-08-15 14:28:28.927547,-134.0
2023-08-15 14:28:28.935237,-134.0
2023-08-15 14:28:28.942927,-139.0
2023-08-15 14:28:28.950616,-139.0
2023-08-15 14:28:28.958306,-139.0
2023-08-15 14:28:28.965995,-139.0
2023-08-15 14:28:28.973685,-134.0
2023-08-15 14:28:28.981374,-124.0
2023-08-15 14:28:28.989064,-124.0
2023-08-15 14:28:28.996754,-127.0
2023-08-15 14:28:29.004443,-129.0
2023-08-15 14:28:29.012133,-143.0
2023-08-15 14:28:29.019822,-139.0
2023-08-15 14:28:29.027512,-112.0
2023-08-15 14:28:29.035202,-115.0
2023-08-15 14:28:29.042891,-134.0
2023-08-15 14:28:29.050581,-124.0
2023-08-15 14:28:29.058270,-117.0
2023-08-15 14:28:29.065960,-124.0
2023-08-15 14:28:29.073649,-117.0
2023-08-15 14:28:29.081339,-107.0
2023-08-15 14:28:29.089029,-110.0
2023-08-15 14:28:29.096718,-107.0
2023-08-15 14:28:29.104408,-91.0
2023-08-15 14:28:29.112097,-71.0
2023-08-15 14:28:29.119787,-50.0
2023-08-15 14:28:29.127477,-38.0
2023-08-15 14:28:29.135166,-47.0
2023-08-15 14:28:29.142856,-69.0
2023-08-15 14:28:29.150545,-79.0
2023-08-15 14:28:29.158235,-83.0
2023-08-15 14:28:29.165924,-91.0
2023-08-15 14:28:29.173614,-93.0
2023-08-15 14:28:29.181304,-95.0
2023-08-15 14:28:29.188993,-98.0
2023-08-15 14:28:29.196683,-98.0
2023-08-15 14:28:29.204372,-95.0
2023-08-15 14:28:29.212062,-100.0
2023-08-15 14:28:29.219751,-93.0
2023-08-15 14:28:29.227441,-76.0
2023-08-15 14:28:29.235131,-59.0
2023-08-15 14:28:29.242820,38.0
2023-08-15 14:28:29.250510,287.0
2023-08-15 14:28:29.258199,615.0
2023-08-15 14:28:29.265889,944.0
2023-08-15 14:28:29.273579,826.0
2023-08-15 14:28:29.281268,-50.0
2023-08-15 14:28:29.288958,-663.0
2023-08-15 14:28:29.296647,-321.0
2023-08-15 14:28:29.304337,-33.0
2023-08-15 14:28:29.312026,-203.0
2023-08-15 14:28:29.319716,-218.0
2023-08-15 14:28:29.327406,-103.0
2023-08-15 14:28:29.335095,-139.0
2023-08-15 14:28:29.342785,-174.0
2023-08-15 14:28:29.350474,-122.0
2023-08-15 14:28:29.358164,-95.0
2023-08-15 14:28:29.365854,-95.0
2023-08-15 14:28:29.373543,-76.0
2023-08-15 14:28:29.381233,-67.0
2023-08-15 14:28:29.388922,-71.0
2023-08-15 14:28:29.396612,-64.0
2023-08-15 14:28:29.404301,-43.0
2023-08-15 14:28:29.411991,-16.0
2023-08-15 14:28:29.419681,-2.0
2023-08-15 14:28:29.427370,2.0
2023-08-15 14:28:29.435060,19.0
2023-08-15 14:28:29.442749,33.0
2023-08-15 14:28:29.450439,50.0
2023-08-15 14:28:29.458129,81.0
2023-08-15 14:28:29.465818,95.0
2023-08-15 14:28:29.473508,91.0
2023-08-15 14:28:29.481197,100.0
2023-08-15 14:28:29.488887,124.0
2023-08-15 14:28:29.496576,131.0
2023-08-15 14:28:29.504266,129.0
2023-08-15 14:28:29.511956,134.0
2023-08-15 14:28:29.519645,112.0
2023-08-15 14:28:29.527335,76.0
2023-08-15 14:28:29.535024,67.0
2023-08-15 14:28:29.542714,50.0
2023-08-15 14:28:29.550404,0.0
2023-08-15 14:28:29.558093,-38.0
2023-08-15 14:28:29.565783,-62.0
2023-08-15 14:28:29.573472,-98.0
2023-08-15 14:28:29.581162,-129.0
2023-08-15 14:28:29.588851,-153.0
2023-08-15 14:28:29.596541,-174.0
2023-08-15 14:28:29.604231,-186.0
2023-08-15 14:28:29.611920,-189.0
2023-08-15 14:28:29.619610,-184.0
2023-08-15 14:28:29.627299,-177.0
2023-08-15 14:28:29.634989,-170.0
2023-08-15 14:28:29.642679,-162.0
2023-08-15 14:28:29.650368,-150.0
2023-08-15 14:28:29.658058,-143.0
2023-08-15 14:28:29.665747,-150.0
2023-08-15 14:28:29.673437,-153.0
2023-08-15 14:28:29.681126,-141.0
2023-08-15 14:28:29.688816,-139.0
2023-08-15 14:28:29.696506,-141.0
2023-08-15 14:28:29.704195,-139.0
2023-08-15 14:28:29.711885,-136.0
2023-08-15 14:28:29.719574,-141.0
2023-08-15 14:28:29.727264,-148.0
2023-08-15 14:28:29.734954,-143.0
2023-08-15 14:28:29.742643,-141.0
2023-08-15 14:28:29.750333,-146.0
2023-08-15 14:28:29.758022,-139.0
2023-08-15 14:28:29.765712,-134.0
2023-08-15 14:28:29.773401,-139.0
2023-08-15 14:28:29.781091,-139.0
2023-08-15 14:28:29.788781,-139.0
2023-08-15 14:28:29.796470,-139.0
2023-08-15 14:28:29.804160,-131.0
2023-08-15 14:28:29.811849,-129.0
2023-08-15 14:28:29.819539,-131.0
2023-08-15 14:28:29.827229,-131.0
2023-08-15 14:28:29.834918,-131.0
2023-08-15 14:28:29.842608,-127.0
2023-08-15 14:28:29.850297,-115.0
2023-08-15 14:28:29.857987,-119.0
2023-08-15 14:28:29.865676,-131.0
2023-08-15 14:28:29.873366,-122.0
2023-08-15 14:28:29.881056,-107.0
2023-08-15 14:28:29.888745,-110.0
2023-08-15 14:28:29.896435,-117.0
2023-08-15 14:28:29.904124,-112.0
2023-08-15 14:28:29.911814,-105.0
2023-08-15 14:28:29.919504,-105.0
2023-08-15 14:28:29.927193,-100.0
2023-08-15 14:28:29.934883,-95.0
2023-08-15 14:28:29.942572,-98.0
2023-08-15 14:28:29.950262,-95.0
2023-08-15 14:28:29.957951,-93.0
2023-08-15 14:28:29.965641,-93.0
2023-08-15 14:28:29.973331,-98.0
2023-08-15 14:28:29.981020,-95.0
2023-08-15 14:28:29.988710,-74.0
2023-08-15 14:28:29.996399,-52.0
2023-08-15 14:28:30.004089,-45.0
2023-08-15 14:28:30.011779,-38.0
2023-08-15 14:28:30.019468,-33.0
2023-08-15 14:28:30.027158,-40.0
2023-08-15 14:28:30.034847,-57.0
2023-08-15 14:28:30.042537,-69.0
2023-08-15 14:28:30.050226,-83.0
2023-08-15 14:28:30.057916,-86.0
2023-08-15 14:28:30.065606,-76.0
2023-08-15 14:28:30.073295,-74.0
2023-08-15 14:28:30.080985,-76.0
2023-08-15 14:28:30.088674,-76.0
2023-08-15 14:28:30.096364,-83.0
2023-08-15 14:28:30.104054,-86.0
2023-08-15 14:28:30.111743,-71.0
2023-08-15 14:28:30.119433,-47.0
2023-08-15 14:28:30.127122,35.0
2023-08-15 14:28:30.134812,266.0
2023-08-15 14:28:30.142501,603.0
2023-08-15 14:28:30.150191,922.0
2023-08-15 14:28:30.157881,869.0
2023-08-15 14:28:30.165570,86.0
2023-08-15 14:28:30.173260,-656.0
2023-08-15 14:28:30.180949,-457.0
2023-08-15 14:28:30.188639,-57.0
2023-08-15 14:28:30.196329,-143.0
2023-08-15 14:28:30.204018,-218.0
2023-08-15 14:28:30.211708,-112.0
2023-08-15 14:28:30.219397,-110.0
2023-08-15 14:28:30.227087,-146.0
2023-08-15 14:28:30.234776,-105.0
2023-08-15 14:28:30.242466,-76.0
2023-08-15 14:28:30.250156,-81.0
2023-08-15 14:28:30.257845,-67.0
2023-08-15 14:28:30.265535,-43.0
2023-08-15 14:28:30.273224,-43.0
2023-08-15 14:28:30.280914,-43.0
2023-08-15 14:28:30.288604,-28.0
2023-08-15 14:28:30.296293,-14.0
2023-08-15 14:28:30.303983,4.0
2023-08-15 14:28:30.311672,23.0
2023-08-15 14:28:30.319362,31.0
2023-08-15 14:28:30.327051,28.0
2023-08-15 14:28:30.334741,43.0
2023-08-15 14:28:30.342431,71.0
2023-08-15 14:28:30.350120,88.0
2023-08-15 14:28:30.357810,100.0
2023-08-15 14:28:30.365499,117.0
2023-08-15 14:28:30.373189,124.0
2023-08-15 14:28:30.380879,127.0
2023-08-15 14:28:30.388568,119.0
2023-08-15 14:28:30.396258,103.0
2023-08-15 14:28:30.403947,98.0
2023-08-15 14:28:30.411637,91.0
2023-08-15 14:28:30.419326,76.0
2023-08-15 14:28:30.427016,59.0
2023-08-15 14:28:30.434706,31.0
2023-08-15 14:28:30.442395,-19.0
2023-08-15 14:28:30.450085,-67.0
2023-08-15 14:28:30.457774,-91.0
2023-08-15 14:28:30.465464,-115.0
2023-08-15 14:28:30.473154,-146.0
2023-08-15 14:28:30.480843,-165.0
2023-08-15 14:28:30.488533,-167.0
2023-08-15 14:28:30.496222,-172.0
2023-08-15 14:28:30.503912,-170.0
2023-08-15 14:28:30.511601,-162.0
2023-08-15 14:28:30.519291,-158.0
2023-08-15 14:28:30.526981,-158.0
2023-08-15 14:28:30.534670,-162.0
2023-08-15 14:28:30.542360,-160.0
2023-08-15 14:28:30.550049,-153.0
2023-08-15 14:28:30.557739,-150.0
2023-08-15 14:28:30.565428,-146.0
2023-08-15 14:28:30.573118,-139.0
2023-08-15 14:28:30.580808,-136.0
2023-08-15 14:28:30.588497,-136.0
2023-08-15 14:28:30.596187,-127.0
2023-08-15 14:28:30.603876,-122.0
2023-08-15 14:28:30.611566,-136.0
2023-08-15 14:28:30.619256,-143.0
2023-08-15 14:28:30.626945,-127.0
2023-08-15 14:28:30.634635,-129.0
2023-08-15 14:28:30.642324,-141.0
2023-08-15 14:28:30.650014,-129.0
2023-08-15 14:28:30.657703,-110.0
2023-08-15 14:28:30.665393,-112.0
2023-08-15 14:28:30.673083,-136.0
2023-08-15 14:28:30.680772,-143.0
2023-08-15 14:28:30.688462,-124.0
2023-08-15 14:28:30.696151,-117.0
2023-08-15 14:28:30.703841,-119.0
2023-08-15 14:28:30.711531,-112.0
2023-08-15 14:28:30.719220,-124.0
2023-08-15 14:28:30.726910,-136.0
2023-08-15 14:28:30.734599,-117.0
2023-08-15 14:28:30.742289,-105.0
2023-08-15 14:28:30.749978,-112.0
2023-08-15 14:28:30.757668,-119.0
2023-08-15 14:28:30.765358,-117.0
2023-08-15 14:28:30.773047,-115.0
2023-08-15 14:28:30.780737,-112.0
2023-08-15 14:28:30.788426,-103.0
2023-08-15 14:28:30.796116,-93.0
2023-08-15 14:28:30.803806,-86.0
2023-08-15 14:28:30.811495,-67.0
2023-08-15 14:28:30.819185,-40.0
2023-08-15 14:28:30.826874,-38.0
2023-08-15 14:28:30.834564,-64.0
2023-08-15 14:28:30.842253,-81.0
2023-08-15 14:28:30.849943,-83.0
2023-08-15 14:28:30.857633,-95.0
2023-08-15 14:28:30.865322,-112.0
2023-08-15 14:28:30.873012,-105.0
2023-08-15 14:28:30.880701,-95.0
2023-08-15 14:28:30.888391,-98.0
2023-08-15 14:28:30.896081,-98.0
2023-08-15 14:28:30.903770,-93.0
2023-08-15 14:28:30.911460,-98.0
2023-08-15 14:28:30.919149,-95.0
2023-08-15 14:28:30.926839,-83.0
2023-08-15 14:28:30.934528,-57.0
2023-08-15 14:28:30.942218,83.0
2023-08-15 14:28:30.949908,424.0
2023-08-15 14:28:30.957597,836.0
2023-08-15 14:28:30.965287,1052.0
2023-08-15 14:28:30.972976,637.0
2023-08-15 14:28:30.980666,-366.0
2023-08-15 14:28:30.988356,-793.0
2023-08-15 14:28:30.996045,-301.0
2023-08-15 14:28:31.003735,-43.0
2023-08-15 14:28:31.011424,-210.0
2023-08-15 14:28:31.019114,-186.0
2023-08-15 14:28:31.026803,-95.0
2023-08-15 14:28:31.034493,-136.0
2023-08-15 14:28:31.042183,-136.0
2023-08-15 14:28:31.049872,-86.0
2023-08-15 14:28:31.057562,-79.0
2023-08-15 14:28:31.065251,-81.0
2023-08-15 14:28:31.072941,-69.0
2023-08-15 14:28:31.080631,-59.0
2023-08-15 14:28:31.088320,-47.0
2023-08-15 14:28:31.096010,-28.0
2023-08-15 14:28:31.103699,-16.0
2023-08-15 14:28:31.111389,-9.0
2023-08-15 14:28:31.119078,4.0
2023-08-15 14:28:31.126768,23.0
2023-08-15 14:28:31.134458,33.0
2023-08-15 14:28:31.142147,50.0
2023-08-15 14:28:31.149837,79.0
2023-08-15 14:28:31.157526,103.0
2023-08-15 14:28:31.165216,115.0
2023-08-15 14:28:31.172906,131.0
2023-08-15 14:28:31.180595,143.0
2023-08-15 14:28:31.188285,143.0
2023-08-15 14:28:31.195974,141.0
2023-08-15 14:28:31.203664,136.0
2023-08-15 14:28:31.211353,122.0
2023-08-15 14:28:31.219043,100.0
2023-08-15 14:28:31.226733,79.0
2023-08-15 14:28:31.234422,59.0
2023-08-15 14:28:31.242112,26.0
2023-08-15 14:28:31.249801,-23.0
2023-08-15 14:28:31.257491,-67.0
2023-08-15 14:28:31.265181,-98.0
2023-08-15 14:28:31.272870,-131.0
2023-08-15 14:28:31.280560,-160.0
2023-08-15 14:28:31.288249,-177.0
2023-08-15 14:28:31.295939,-189.0
2023-08-15 14:28:31.303628,-206.0
2023-08-15 14:28:31.311318,-215.0
2023-08-15 14:28:31.319008,-210.0
2023-08-15 14:28:31.326697,-201.0
2023-08-15 14:28:31.334387,-194.0
2023-08-15 14:28:31.342076,-194.0
2023-08-15 14:28:31.349766,-194.0
2023-08-15 14:28:31.357456,-184.0
2023-08-15 14:28:31.365145,-172.0
2023-08-15 14:28:31.372835,-167.0
2023-08-15 14:28:31.380524,-167.0
2023-08-15 14:28:31.388214,-167.0
2023-08-15 14:28:31.395903,-162.0
2023-08-15 14:28:31.403593,-158.0
2023-08-15 14:28:31.411283,-150.0
2023-08-15 14:28:31.418972,-148.0
2023-08-15 14:28:31.426662,-153.0
2023-08-15 14:28:31.434351,-165.0
2023-08-15 14:28:31.442041,-167.0
2023-08-15 14:28:31.449731,-155.0
2023-08-15 14:28:31.457420,-153.0
2023-08-15 14:28:31.465110,-155.0
2023-08-15 14:28:31.472799,-150.0
2023-08-15 14:28:31.480489,-143.0
2023-08-15 14:28:31.488178,-141.0
2023-08-15 14:28:31.495868,-136.0
2023-08-15 14:28:31.503558,-136.0
2023-08-15 14:28:31.511247,-143.0
2023-08-15 14:28:31.518937,-141.0
2023-08-15 14:28:31.526626,-131.0
2023-08-15 14:28:31.534316,-131.0
2023-08-15 14:28:31.542006,-129.0
2023-08-15 14:28:31.549695,-119.0
2023-08-15 14:28:31.557385,-115.0
2023-08-15 14:28:31.565074,-119.0
2023-08-15 14:28:31.572764,-119.0
2023-08-15 14:28:31.580453,-122.0
2023-08-15 14:28:31.588143,-127.0
2023-08-15 14:28:31.595833,-122.0
2023-08-15 14:28:31.603522,-110.0
2023-08-15 14:28:31.611212,-115.0
2023-08-15 14:28:31.618901,-122.0
2023-08-15 14:28:31.626591,-110.0
2023-08-15 14:28:31.634281,-88.0
2023-08-15 14:28:31.641970,-71.0
2023-08-15 14:28:31.649660,-57.0
2023-08-15 14:28:31.657349,-43.0
2023-08-15 14:28:31.665039,-43.0
2023-08-15 14:28:31.672728,-59.0
2023-08-15 14:28:31.680418,-76.0
2023-08-15 14:28:31.688108,-83.0
2023-08-15 14:28:31.695797,-95.0
2023-08-15 14:28:31.703487,-105.0
2023-08-15 14:28:31.711176,-105.0
2023-08-15 14:28:31.718866,-95.0
2023-08-15 14:28:31.726556,-91.0
2023-08-15 14:28:31.734245,-95.0
2023-08-15 14:28:31.741935,-95.0
2023-08-15 14:28:31.749624,-88.0
2023-08-15 14:28:31.757314,-83.0
2023-08-15 14:28:31.765003,-67.0
2023-08-15 14:28:31.772693,35.0
2023-08-15 14:28:31.780383,282.0
2023-08-15 14:28:31.788072,623.0
2023-08-15 14:28:31.795762,965.0
2023-08-15 14:28:31.803451,874.0
2023-08-15 14:28:31.811141,7.0
2023-08-15 14:28:31.818831,-671.0
2023-08-15 14:28:31.826520,-369.0
2023-08-15 14:28:31.834210,-33.0
2023-08-15 14:28:31.841899,-189.0
2023-08-15 14:28:31.849589,-232.0
2023-08-15 14:28:31.857278,-124.0
2023-08-15 14:28:31.864968,-141.0
2023-08-15 14:28:31.872658,-162.0
2023-08-15 14:28:31.880347,-117.0
2023-08-15 14:28:31.888037,-110.0
2023-08-15 14:28:31.895726,-124.0
2023-08-15 14:28:31.903416,-103.0
2023-08-15 14:28:31.911105,-86.0
2023-08-15 14:28:31.918795,-88.0
2023-08-15 14:28:31.926485,-76.0
2023-08-15 14:28:31.934174,-62.0
2023-08-15 14:28:31.941864,-50.0
2023-08-15 14:28:31.949553,-33.0
2023-08-15 14:28:31.957243,-14.0
2023-08-15 14:28:31.964933,0.0
2023-08-15 14:28:31.972622,11.0
2023-08-15 14:28:31.980312,33.0
2023-08-15 14:28:31.988001,57.0
2023-08-15 14:28:31.995691,74.0
2023-08-15 14:28:32.003380,91.0
2023-08-15 14:28:32.011070,107.0
2023-08-15 14:28:32.018760,115.0
2023-08-15 14:28:32.026449,122.0
2023-08-15 14:28:32.034139,122.0
2023-08-15 14:28:32.041828,112.0
2023-08-15 14:28:32.049518,100.0
2023-08-15 14:28:32.057208,88.0
2023-08-15 14:28:32.064897,67.0
2023-08-15 14:28:32.072587,38.0
2023-08-15 14:28:32.080276,2.0
2023-08-15 14:28:32.087966,-43.0
2023-08-15 14:28:32.095655,-88.0
2023-08-15 14:28:32.103345,-122.0
2023-08-15 14:28:32.111035,-148.0
2023-08-15 14:28:32.118724,-174.0
2023-08-15 14:28:32.126414,-186.0
2023-08-15 14:28:32.134103,-194.0
2023-08-15 14:28:32.141793,-196.0
2023-08-15 14:28:32.149483,-196.0
2023-08-15 14:28:32.157172,-194.0
2023-08-15 14:28:32.164862,-191.0
2023-08-15 14:28:32.172551,-184.0
2023-08-15 14:28:32.180241,-174.0
2023-08-15 14:28:32.187930,-172.0
2023-08-15 14:28:32.195620,-170.0
2023-08-15 14:28:32.203310,-162.0
2023-08-15 14:28:32.210999,-158.0
2023-08-15 14:28:32.218689,-153.0
2023-08-15 14:28:32.226378,-148.0
2023-08-15 14:28:32.234068,-146.0
2023-08-15 14:28:32.241758,-141.0
2023-08-15 14:28:32.249447,-139.0
2023-08-15 14:28:32.257137,-139.0
2023-08-15 14:28:32.264826,-139.0
2023-08-15 14:28:32.272516,-134.0
2023-08-15 14:28:32.280205,-131.0
2023-08-15 14:28:32.287895,-136.0
2023-08-15 14:28:32.295585,-136.0
2023-08-15 14:28:32.303274,-131.0
2023-08-15 14:28:32.310964,-129.0
2023-08-15 14:28:32.318653,-127.0
2023-08-15 14:28:32.326343,-124.0
2023-08-15 14:28:32.334033,-124.0
2023-08-15 14:28:32.341722,-124.0
2023-08-15 14:28:32.349412,-127.0
2023-08-15 14:28:32.357101,-127.0
2023-08-15 14:28:32.364791,-122.0
2023-08-15 14:28:32.372480,-119.0
2023-08-15 14:28:32.380170,-119.0
2023-08-15 14:28:32.387860,-119.0
2023-08-15 14:28:32.395549,-117.0
2023-08-15 14:28:32.403239,-117.0
2023-08-15 14:28:32.410928,-115.0
2023-08-15 14:28:32.418618,-110.0
2023-08-15 14:28:32.426308,-112.0
2023-08-15 14:28:32.433997,-127.0
2023-08-15 14:28:32.441687,-134.0
2023-08-15 14:28:32.449376,-124.0
2023-08-15 14:28:32.457066,-107.0
2023-08-15 14:28:32.464755,-88.0
2023-08-15 14:28:32.472445,-69.0
2023-08-15 14:28:32.480135,-64.0
2023-08-15 14:28:32.487824,-57.0
2023-08-15 14:28:32.495514,-55.0
2023-08-15 14:28:32.503203,-69.0
2023-08-15 14:28:32.510893,-83.0
2023-08-15 14:28:32.518583,-88.0
2023-08-15 14:28:32.526272,-93.0
2023-08-15 14:28:32.533962,-100.0
2023-08-15 14:28:32.541651,-98.0
2023-08-15 14:28:32.549341,-98.0
2023-08-15 14:28:32.557030,-100.0
2023-08-15 14:28:32.564720,-98.0
2023-08-15 14:28:32.572410,-91.0
2023-08-15 14:28:32.580099,-83.0
2023-08-15 14:28:32.587789,-76.0
2023-08-15 14:28:32.595478,-23.0
2023-08-15 14:28:32.603168,177.0
2023-08-15 14:28:32.610858,541.0
2023-08-15 14:28:32.618547,956.0
2023-08-15 14:28:32.626237,1109.0
2023-08-15 14:28:32.633926,488.0
2023-08-15 14:28:32.641616,-496.0
2023-08-15 14:28:32.649305,-618.0
2023-08-15 14:28:32.656995,-134.0
2023-08-15 14:28:32.664685,-93.0
2023-08-15 14:28:32.672374,-246.0
2023-08-15 14:28:32.680064,-158.0
2023-08-15 14:28:32.687753,-107.0
2023-08-15 14:28:32.695443,-153.0
2023-08-15 14:28:32.703133,-129.0
2023-08-15 14:28:32.710822,-93.0
2023-08-15 14:28:32.718512,-93.0
2023-08-15 14:28:32.726201,-81.0
2023-08-15 14:28:32.733891,-57.0
2023-08-15 14:28:32.741580,-55.0
2023-08-15 14:28:32.749270,-47.0
2023-08-15 14:28:32.756960,-28.0
2023-08-15 14:28:32.764649,-11.0
2023-08-15 14:28:32.772339,0.0
2023-08-15 14:28:32.780028,16.0
2023-08-15 14:28:32.787718,35.0
2023-08-15 14:28:32.795408,52.0
2023-08-15 14:28:32.803097,71.0
2023-08-15 14:28:32.810787,91.0
2023-08-15 14:28:32.818476,115.0
2023-08-15 14:28:32.826166,136.0
2023-08-15 14:28:32.833855,150.0
2023-08-15 14:28:32.841545,158.0
2023-08-15 14:28:32.849235,165.0
2023-08-15 14:28:32.856924,165.0
2023-08-15 14:28:32.864614,150.0
2023-08-15 14:28:32.872303,134.0
2023-08-15 14:28:32.879993,115.0
2023-08-15 14:28:32.887683,95.0
2023-08-15 14:28:32.895372,69.0
2023-08-15 14:28:32.903062,21.0
2023-08-15 14:28:32.910751,-23.0
2023-08-15 14:28:32.918441,-59.0
2023-08-15 14:28:32.926130,-103.0
2023-08-15 14:28:32.933820,-141.0
2023-08-15 14:28:32.941510,-167.0
2023-08-15 14:28:32.949199,-184.0
2023-08-15 14:28:32.956889,-198.0
2023-08-15 14:28:32.964578,-208.0
2023-08-15 14:28:32.972268,-208.0
2023-08-15 14:28:32.979958,-206.0
2023-08-15 14:28:32.987647,-201.0
2023-08-15 14:28:32.995337,-196.0
2023-08-15 14:28:33.003026,-189.0
2023-08-15 14:28:33.010716,-184.0
2023-08-15 14:28:33.018405,-191.0
2023-08-15 14:28:33.026095,-201.0
2023-08-15 14:28:33.033785,-191.0
2023-08-15 14:28:33.041474,-174.0
2023-08-15 14:28:33.049164,-167.0
2023-08-15 14:28:33.056853,-174.0
2023-08-15 14:28:33.064543,-177.0
2023-08-15 14:28:33.072233,-162.0
2023-08-15 14:28:33.079922,-155.0
2023-08-15 14:28:33.087612,-160.0
2023-08-15 14:28:33.095301,-150.0
2023-08-15 14:28:33.102991,-146.0
2023-08-15 14:28:33.110680,-162.0
2023-08-15 14:28:33.118370,-167.0
2023-08-15 14:28:33.126060,-146.0
2023-08-15 14:28:33.133749,-143.0
2023-08-15 14:28:33.141439,-155.0
2023-08-15 14:28:33.149128,-155.0
2023-08-15 14:28:33.156818,-148.0
2023-08-15 14:28:33.164508,-148.0
2023-08-15 14:28:33.172197,-160.0
2023-08-15 14:28:33.179887,-143.0
2023-08-15 14:28:33.187576,-107.0
2023-08-15 14:28:33.195266,-105.0
2023-08-15 14:28:33.202955,-131.0
2023-08-15 14:28:33.210645,-134.0
2023-08-15 14:28:33.218335,-122.0
2023-08-15 14:28:33.226024,-127.0
2023-08-15 14:28:33.233714,-127.0
2023-08-15 14:28:33.241403,-115.0
2023-08-15 14:28:33.249093,-98.0
2023-08-15 14:28:33.256783,-91.0
2023-08-15 14:28:33.264472,-76.0
2023-08-15 14:28:33.272162,-50.0
2023-08-15 14:28:33.279851,-40.0
2023-08-15 14:28:33.287541,-45.0
2023-08-15 14:28:33.295230,-52.0
2023-08-15 14:28:33.302920,-79.0
2023-08-15 14:28:33.310610,-95.0
2023-08-15 14:28:33.318299,-69.0
2023-08-15 14:28:33.325989,-64.0
2023-08-15 14:28:33.333678,-103.0
2023-08-15 14:28:33.341368,-100.0
2023-08-15 14:28:33.349057,-76.0
2023-08-15 14:28:33.356747,-79.0
2023-08-15 14:28:33.364437,-79.0
2023-08-15 14:28:33.372126,-69.0
2023-08-15 14:28:33.379816,-74.0
2023-08-15 14:28:33.387505,-83.0
2023-08-15 14:28:33.395195,0.0
2023-08-15 14:28:33.402885,297.0
2023-08-15 14:28:33.410574,730.0
2023-08-15 14:28:33.418264,1097.0
2023-08-15 14:28:33.425953,970.0
2023-08-15 14:28:33.433643,38.0
2023-08-15 14:28:33.441332,-709.0
2023-08-15 14:28:33.449022,-400.0
2023-08-15 14:28:33.456712,-23.0
2023-08-15 14:28:33.464401,-167.0
2023-08-15 14:28:33.472091,-215.0
2023-08-15 14:28:33.479780,-112.0
2023-08-15 14:28:33.487470,-131.0
2023-08-15 14:28:33.495160,-150.0
2023-08-15 14:28:33.502849,-103.0
2023-08-15 14:28:33.510539,-103.0
2023-08-15 14:28:33.518228,-115.0
2023-08-15 14:28:33.525918,-83.0
2023-08-15 14:28:33.533607,-55.0
2023-08-15 14:28:33.541297,-50.0
2023-08-15 14:28:33.548987,-50.0
2023-08-15 14:28:33.556676,-35.0
2023-08-15 14:28:33.564366,-16.0
2023-08-15 14:28:33.572055,-2.0
2023-08-15 14:28:33.579745,11.0
2023-08-15 14:28:33.587435,31.0
2023-08-15 14:28:33.595124,57.0
2023-08-15 14:28:33.602814,79.0
2023-08-15 14:28:33.610503,93.0
2023-08-15 14:28:33.618193,115.0
2023-08-15 14:28:33.625882,146.0
2023-08-15 14:28:33.633572,162.0
2023-08-15 14:28:33.641262,167.0
2023-08-15 14:28:33.648951,182.0
2023-08-15 14:28:33.656641,177.0
2023-08-15 14:28:33.664330,150.0
2023-08-15 14:28:33.672020,136.0
2023-08-15 14:28:33.679710,124.0
2023-08-15 14:28:33.687399,88.0
2023-08-15 14:28:33.695089,55.0
2023-08-15 14:28:33.702778,19.0
2023-08-15 14:28:33.710468,-31.0
2023-08-15 14:28:33.718157,-74.0
2023-08-15 14:28:33.725847,-105.0
2023-08-15 14:28:33.733537,-143.0
2023-08-15 14:28:33.741226,-177.0
2023-08-15 14:28:33.748916,-184.0
2023-08-15 14:28:33.756605,-182.0
2023-08-15 14:28:33.764295,-189.0
2023-08-15 14:28:33.771985,-191.0
2023-08-15 14:28:33.779674,-179.0
2023-08-15 14:28:33.787364,-177.0
2023-08-15 14:28:33.795053,-174.0
2023-08-15 14:28:33.802743,-153.0
2023-08-15 14:28:33.810432,-143.0
2023-08-15 14:28:33.818122,-141.0
2023-08-15 14:28:33.825812,-129.0
2023-08-15 14:28:33.833501,-117.0
2023-08-15 14:28:33.841191,-122.0
2023-08-15 14:28:33.848880,-122.0
2023-08-15 14:28:33.856570,-122.0
2023-08-15 14:28:33.864260,-124.0
2023-08-15 14:28:33.871949,-117.0
2023-08-15 14:28:33.879639,-122.0
2023-08-15 14:28:33.887328,-131.0
2023-08-15 14:28:33.895018,-134.0
2023-08-15 14:28:33.902707,-136.0
2023-08-15 14:28:33.910397,-136.0
2023-08-15 14:28:33.918087,-131.0
2023-08-15 14:28:33.925776,-129.0
2023-08-15 14:28:33.933466,-129.0
2023-08-15 14:28:33.941155,-136.0
2023-08-15 14:28:33.948845,-134.0
2023-08-15 14:28:33.956535,-117.0
2023-08-15 14:28:33.964224,-112.0
2023-08-15 14:28:33.971914,-122.0
2023-08-15 14:28:33.979603,-122.0
2023-08-15 14:28:33.987293,-119.0
2023-08-15 14:28:33.994982,-112.0
2023-08-15 14:28:34.002672,-100.0
2023-08-15 14:28:34.010362,-93.0
2023-08-15 14:28:34.018051,-95.0
2023-08-15 14:28:34.025741,-88.0
2023-08-15 14:28:34.033430,-83.0
2023-08-15 14:28:34.041120,-105.0
2023-08-15 14:28:34.048810,-134.0
2023-08-15 14:28:34.056499,-143.0
2023-08-15 14:28:34.064189,-122.0
2023-08-15 14:28:34.071878,-91.0
2023-08-15 14:28:34.079568,-81.0
2023-08-15 14:28:34.087257,-74.0
2023-08-15 14:28:34.094947,-50.0
2023-08-15 14:28:34.102637,-43.0
2023-08-15 14:28:34.110326,-57.0
2023-08-15 14:28:34.118016,-64.0
2023-08-15 14:28:34.125705,-76.0
2023-08-15 14:28:34.133395,-91.0
2023-08-15 14:28:34.141085,-103.0
2023-08-15 14:28:34.148774,-107.0
2023-08-15 14:28:34.156464,-107.0
2023-08-15 14:28:34.164153,-103.0
2023-08-15 14:28:34.171843,-93.0
2023-08-15 14:28:34.179532,-91.0
2023-08-15 14:28:34.187222,-100.0
2023-08-15 14:28:34.194912,-95.0
2023-08-15 14:28:34.202601,-83.0
2023-08-15 14:28:34.210291,-50.0
2023-08-15 14:28:34.217980,103.0
2023-08-15 14:28:34.225670,397.0
2023-08-15 14:28:34.233360,790.0
2023-08-15 14:28:34.241049,1092.0
2023-08-15 14:28:34.248739,695.0
2023-08-15 14:28:34.256428,-297.0
2023-08-15 14:28:34.264118,-599.0
2023-08-15 14:28:34.271807,-146.0
2023-08-15 14:28:34.279497,-67.0
2023-08-15 14:28:34.287187,-251.0
2023-08-15 14:28:34.294876,-182.0
2023-08-15 14:28:34.302566,-115.0
2023-08-15 14:28:34.310255,-162.0
2023-08-15 14:28:34.317945,-153.0
2023-08-15 14:28:34.325635,-110.0
2023-08-15 14:28:34.333324,-100.0
2023-08-15 14:28:34.341014,-93.0
2023-08-15 14:28:34.348703,-76.0
2023-08-15 14:28:34.356393,-62.0
2023-08-15 14:28:34.364082,-57.0
2023-08-15 14:28:34.371772,-59.0
2023-08-15 14:28:34.379462,-50.0
2023-08-15 14:28:34.387151,-26.0
2023-08-15 14:28:34.394841,-11.0
2023-08-15 14:28:34.402530,0.0
2023-08-15 14:28:34.410220,21.0
2023-08-15 14:28:34.417910,31.0
2023-08-15 14:28:34.425599,35.0
2023-08-15 14:28:34.433289,64.0
2023-08-15 14:28:34.440978,100.0
2023-08-15 14:28:34.448668,105.0
2023-08-15 14:28:34.456357,103.0
2023-08-15 14:28:34.464047,119.0
2023-08-15 14:28:34.471737,127.0
2023-08-15 14:28:34.479426,119.0
2023-08-15 14:28:34.487116,107.0
2023-08-15 14:28:34.494805,93.0
2023-08-15 14:28:34.502495,76.0
2023-08-15 14:28:34.510185,55.0
2023-08-15 14:28:34.517874,23.0
2023-08-15 14:28:34.525564,-4.0
2023-08-15 14:28:34.533253,-40.0
2023-08-15 14:28:34.540943,-88.0
2023-08-15 14:28:34.548632,-115.0
2023-08-15 14:28:34.556322,-131.0
2023-08-15 14:28:34.564012,-158.0
2023-08-15 14:28:34.571701,-170.0
2023-08-15 14:28:34.579391,-170.0
2023-08-15 14:28:34.587080,-177.0
2023-08-15 14:28:34.594770,-170.0
2023-08-15 14:28:34.602460,-148.0
2023-08-15 14:28:34.610149,-146.0
2023-08-15 14:28:34.617839,-148.0
2023-08-15 14:28:34.625528,-143.0
2023-08-15 14:28:34.633218,-141.0
2023-08-15 14:28:34.640907,-143.0
2023-08-15 14:28:34.648597,-146.0
2023-08-15 14:28:34.656287,-139.0
2023-08-15 14:28:34.663976,-129.0
2023-08-15 14:28:34.671666,-136.0
2023-08-15 14:28:34.679355,-141.0
2023-08-15 14:28:34.687045,-136.0
2023-08-15 14:28:34.694734,-146.0
2023-08-15 14:28:34.702424,-158.0
2023-08-15 14:28:34.710114,-148.0
2023-08-15 14:28:34.717803,-139.0
2023-08-15 14:28:34.725493,-150.0
2023-08-15 14:28:34.733182,-160.0
2023-08-15 14:28:34.740872,-153.0
2023-08-15 14:28:34.748562,-143.0
2023-08-15 14:28:34.756251,-141.0
2023-08-15 14:28:34.763941,-141.0
2023-08-15 14:28:34.771630,-146.0
2023-08-15 14:28:34.779320,-150.0
2023-08-15 14:28:34.787009,-148.0
2023-08-15 14:28:34.794699,-129.0
2023-08-15 14:28:34.802389,-129.0
2023-08-15 14:28:34.810078,-139.0
2023-08-15 14:28:34.817768,-131.0
2023-08-15 14:28:34.825457,-122.0
2023-08-15 14:28:34.833147,-124.0
2023-08-15 14:28:34.840837,-124.0
2023-08-15 14:28:34.848526,-105.0
2023-08-15 14:28:34.856216,-103.0
2023-08-15 14:28:34.863905,-127.0
2023-08-15 14:28:34.871595,-131.0
2023-08-15 14:28:34.879284,-112.0
2023-08-15 14:28:34.886974,-107.0
2023-08-15 14:28:34.894664,-119.0
2023-08-15 14:28:34.902353,-117.0
2023-08-15 14:28:34.910043,-91.0
2023-08-15 14:28:34.917732,-71.0
2023-08-15 14:28:34.925422,-62.0
2023-08-15 14:28:34.933112,-52.0
2023-08-15 14:28:34.940801,-55.0
2023-08-15 14:28:34.948491,-74.0
2023-08-15 14:28:34.956180,-91.0
2023-08-15 14:28:34.963870,-98.0
2023-08-15 14:28:34.971559,-103.0
2023-08-15 14:28:34.979249,-105.0
2023-08-15 14:28:34.986939,-100.0
2023-08-15 14:28:34.994628,-95.0
2023-08-15 14:28:35.002318,-100.0
2023-08-15 14:28:35.010007,-103.0
2023-08-15 14:28:35.017697,-86.0
2023-08-15 14:28:35.025387,-83.0
2023-08-15 14:28:35.033076,-93.0
2023-08-15 14:28:35.040766,-74.0
2023-08-15 14:28:35.048455,55.0
2023-08-15 14:28:35.056145,333.0
2023-08-15 14:28:35.063834,680.0
2023-08-15 14:28:35.071524,927.0
2023-08-15 14:28:35.079214,635.0
2023-08-15 14:28:35.086903,-220.0
2023-08-15 14:28:35.094593,-608.0
2023-08-15 14:28:35.102282,-234.0
2023-08-15 14:28:35.109972,-52.0
2023-08-15 14:28:35.117662,-194.0
2023-08-15 14:28:35.125351,-174.0
2023-08-15 14:28:35.133041,-105.0
2023-08-15 14:28:35.140730,-141.0
2023-08-15 14:28:35.148420,-139.0
2023-08-15 14:28:35.156109,-91.0
2023-08-15 14:28:35.163799,-86.0
2023-08-15 14:28:35.171489,-93.0
2023-08-15 14:28:35.179178,-74.0
2023-08-15 14:28:35.186868,-62.0
2023-08-15 14:28:35.194557,-59.0
2023-08-15 14:28:35.202247,-43.0
2023-08-15 14:28:35.209937,-28.0
2023-08-15 14:28:35.217626,-26.0
2023-08-15 14:28:35.225316,-16.0
2023-08-15 14:28:35.233005,0.0
2023-08-15 14:28:35.240695,14.0
2023-08-15 14:28:35.248384,31.0
2023-08-15 14:28:35.256074,50.0
2023-08-15 14:28:35.263764,62.0
2023-08-15 14:28:35.271453,71.0
2023-08-15 14:28:35.279143,88.0
2023-08-15 14:28:35.286832,105.0
2023-08-15 14:28:35.294522,105.0
2023-08-15 14:28:35.302212,91.0
2023-08-15 14:28:35.309901,91.0
2023-08-15 14:28:35.317591,88.0
2023-08-15 14:28:35.325280,79.0
2023-08-15 14:28:35.332970,71.0
2023-08-15 14:28:35.340659,59.0
2023-08-15 14:28:35.348349,38.0
2023-08-15 14:28:35.356039,7.0
2023-08-15 14:28:35.363728,-35.0
2023-08-15 14:28:35.371418,-81.0
2023-08-15 14:28:35.379107,-115.0
2023-08-15 14:28:35.386797,-139.0
2023-08-15 14:28:35.394487,-155.0
2023-08-15 14:28:35.402176,-162.0
2023-08-15 14:28:35.409866,-167.0
2023-08-15 14:28:35.417555,-172.0
2023-08-15 14:28:35.425245,-174.0
2023-08-15 14:28:35.432934,-165.0
2023-08-15 14:28:35.440624,-155.0
2023-08-15 14:28:35.448314,-150.0
2023-08-15 14:28:35.456003,-146.0
2023-08-15 14:28:35.463693,-141.0
2023-08-15 14:28:35.471382,-139.0
2023-08-15 14:28:35.479072,-134.0
2023-08-15 14:28:35.486762,-131.0
2023-08-15 14:28:35.494451,-131.0
2023-08-15 14:28:35.502141,-127.0
2023-08-15 14:28:35.509830,-122.0
2023-08-15 14:28:35.517520,-122.0
2023-08-15 14:28:35.525209,-127.0
2023-08-15 14:28:35.532899,-127.0
2023-08-15 14:28:35.540589,-129.0
2023-08-15 14:28:35.548278,-131.0
2023-08-15 14:28:35.555968,-134.0
2023-08-15 14:28:35.563657,-131.0
2023-08-15 14:28:35.571347,-134.0
2023-08-15 14:28:35.579037,-134.0
2023-08-15 14:28:35.586726,-129.0
2023-08-15 14:28:35.594416,-124.0
2023-08-15 14:28:35.602105,-129.0
2023-08-15 14:28:35.609795,-134.0
2023-08-15 14:28:35.617484,-131.0
2023-08-15 14:28:35.625174,-124.0
2023-08-15 14:28:35.632864,-124.0
2023-08-15 14:28:35.640553,-124.0
2023-08-15 14:28:35.648243,-124.0
2023-08-15 14:28:35.655932,-124.0
2023-08-15 14:28:35.663622,-117.0
2023-08-15 14:28:35.671312,-110.0
2023-08-15 14:28:35.679001,-110.0
2023-08-15 14:28:35.686691,-112.0
2023-08-15 14:28:35.694380,-110.0
2023-08-15 14:28:35.702070,-112.0
2023-08-15 14:28:35.709759,-112.0
2023-08-15 14:28:35.717449,-103.0
2023-08-15 14:28:35.725139,-86.0
2023-08-15 14:28:35.732828,-69.0
2023-08-15 14:28:35.740518,-57.0
2023-08-15 14:28:35.748207,-43.0
2023-08-15 14:28:35.755897,-40.0
2023-08-15 14:28:35.763587,-64.0
2023-08-15 14:28:35.771276,-88.0
2023-08-15 14:28:35.778966,-91.0
2023-08-15 14:28:35.786655,-95.0
2023-08-15 14:28:35.794345,-103.0
2023-08-15 14:28:35.802034,-105.0
2023-08-15 14:28:35.809724,-103.0
2023-08-15 14:28:35.817414,-103.0
2023-08-15 14:28:35.825103,-103.0
2023-08-15 14:28:35.832793,-98.0
2023-08-15 14:28:35.840482,-93.0
2023-08-15 14:28:35.848172,-93.0
2023-08-15 14:28:35.855862,-83.0
2023-08-15 14:28:35.863551,-11.0
2023-08-15 14:28:35.871241,218.0
2023-08-15 14:28:35.878930,587.0
2023-08-15 14:28:35.886620,973.0
2023-08-15 14:28:35.894309,953.0
2023-08-15 14:28:35.901999,131.0
2023-08-15 14:28:35.909689,-632.0
2023-08-15 14:28:35.917378,-426.0
2023-08-15 14:28:35.925068,-59.0
2023-08-15 14:28:35.932757,-172.0
2023-08-15 14:28:35.940447,-237.0
2023-08-15 14:28:35.948137,-134.0
2023-08-15 14:28:35.955826,-141.0
2023-08-15 14:28:35.963516,-165.0
2023-08-15 14:28:35.971205,-119.0
2023-08-15 14:28:35.978895,-100.0
2023-08-15 14:28:35.986584,-110.0
2023-08-15 14:28:35.994274,-93.0
2023-08-15 14:28:36.001964,-74.0
2023-08-15 14:28:36.009653,-64.0
2023-08-15 14:28:36.017343,-57.0
2023-08-15 14:28:36.025032,-43.0
2023-08-15 14:28:36.032722,-28.0
2023-08-15 14:28:36.040411,-16.0
2023-08-15 14:28:36.048101,-2.0
2023-08-15 14:28:36.055791,14.0
2023-08-15 14:28:36.063480,33.0
2023-08-15 14:28:36.071170,50.0
2023-08-15 14:28:36.078859,64.0
2023-08-15 14:28:36.086549,83.0
2023-08-15 14:28:36.094239,100.0
2023-08-15 14:28:36.101928,107.0
2023-08-15 14:28:36.109618,110.0
2023-08-15 14:28:36.117307,110.0
2023-08-15 14:28:36.124997,107.0
2023-08-15 14:28:36.132686,107.0
2023-08-15 14:28:36.140376,98.0
2023-08-15 14:28:36.148066,76.0
2023-08-15 14:28:36.155755,59.0
2023-08-15 14:28:36.163445,38.0
2023-08-15 14:28:36.171134,0.0
2023-08-15 14:28:36.178824,-33.0
2023-08-15 14:28:36.186514,-62.0
2023-08-15 14:28:36.194203,-93.0
2023-08-15 14:28:36.201893,-129.0
2023-08-15 14:28:36.209582,-158.0
2023-08-15 14:28:36.217272,-172.0
2023-08-15 14:28:36.224961,-174.0
2023-08-15 14:28:36.232651,-172.0
2023-08-15 14:28:36.240341,-162.0
2023-08-15 14:28:36.248030,-160.0
2023-08-15 14:28:36.255720,-160.0
2023-08-15 14:28:36.263409,-155.0
2023-08-15 14:28:36.271099,-148.0
2023-08-15 14:28:36.278789,-143.0
2023-08-15 14:28:36.286478,-136.0
2023-08-15 14:28:36.294168,-136.0
2023-08-15 14:28:36.301857,-148.0
2023-08-15 14:28:36.309547,-148.0
2023-08-15 14:28:36.317236,-141.0
2023-08-15 14:28:36.324926,-141.0
2023-08-15 14:28:36.332616,-141.0
2023-08-15 14:28:36.340305,-136.0
2023-08-15 14:28:36.347995,-141.0
2023-08-15 14:28:36.355684,-150.0
2023-08-15 14:28:36.363374,-150.0
2023-08-15 14:28:36.371064,-143.0
2023-08-15 14:28:36.378753,-146.0
2023-08-15 14:28:36.386443,-160.0
2023-08-15 14:28:36.394132,-162.0
2023-08-15 14:28:36.401822,-155.0
2023-08-15 14:28:36.409511,-153.0
2023-08-15 14:28:36.417201,-146.0
2023-08-15 14:28:36.424891,-146.0
2023-08-15 14:28:36.432580,-148.0
2023-08-15 14:28:36.440270,-143.0
2023-08-15 14:28:36.447959,-139.0
2023-08-15 14:28:36.455649,-136.0
2023-08-15 14:28:36.463339,-139.0
2023-08-15 14:28:36.471028,-141.0
2023-08-15 14:28:36.478718,-131.0
2023-08-15 14:28:36.486407,-112.0
2023-08-15 14:28:36.494097,-91.0
2023-08-15 14:28:36.501786,-79.0
2023-08-15 14:28:36.509476,-67.0
2023-08-15 14:28:36.517166,-64.0
2023-08-15 14:28:36.524855,-74.0
2023-08-15 14:28:36.532545,-91.0
2023-08-15 14:28:36.540234,-100.0
2023-08-15 14:28:36.547924,-105.0
2023-08-15 14:28:36.555614,-107.0
2023-08-15 14:28:36.563303,-107.0
2023-08-15 14:28:36.570993,-110.0
2023-08-15 14:28:36.578682,-112.0
2023-08-15 14:28:36.586372,-107.0
2023-08-15 14:28:36.594061,-105.0
2023-08-15 14:28:36.601751,-105.0
2023-08-15 14:28:36.609441,-100.0
2023-08-15 14:28:36.617130,-95.0
2023-08-15 14:28:36.624820,-35.0
2023-08-15 14:28:36.632509,234.0
2023-08-15 14:28:36.640199,711.0
2023-08-15 14:28:36.647889,1152.0
2023-08-15 14:28:36.655578,1085.0
2023-08-15 14:28:36.663268,148.0
2023-08-15 14:28:36.670957,-754.0
2023-08-15 14:28:36.678647,-548.0
2023-08-15 14:28:36.686336,-71.0
2023-08-15 14:28:36.694026,-160.0
2023-08-15 14:28:36.701716,-249.0
2023-08-15 14:28:36.709405,-129.0
2023-08-15 14:28:36.717095,-122.0
2023-08-15 14:28:36.724784,-160.0
2023-08-15 14:28:36.732474,-117.0
2023-08-15 14:28:36.740164,-91.0
2023-08-15 14:28:36.747853,-98.0
2023-08-15 14:28:36.755543,-83.0
2023-08-15 14:28:36.763232,-67.0
2023-08-15 14:28:36.770922,-59.0
2023-08-15 14:28:36.778611,-43.0
2023-08-15 14:28:36.786301,-21.0
2023-08-15 14:28:36.793991,-11.0
2023-08-15 14:28:36.801680,-2.0
2023-08-15 14:28:36.809370,14.0
2023-08-15 14:28:36.817059,33.0
2023-08-15 14:28:36.824749,57.0
2023-08-15 14:28:36.832439,83.0
2023-08-15 14:28:36.840128,103.0
2023-08-15 14:28:36.847818,117.0
2023-08-15 14:28:36.855507,134.0
2023-08-15 14:28:36.863197,155.0
2023-08-15 14:28:36.870886,167.0
2023-08-15 14:28:36.878576,165.0
2023-08-15 14:28:36.886266,153.0
2023-08-15 14:28:36.893955,139.0
2023-08-15 14:28:36.901645,124.0
2023-08-15 14:28:36.909334,107.0
2023-08-15 14:28:36.917024,79.0
2023-08-15 14:28:36.924714,40.0
2023-08-15 14:28:36.932403,-4.0
2023-08-15 14:28:36.940093,-52.0
2023-08-15 14:28:36.947782,-91.0
2023-08-15 14:28:36.955472,-122.0
2023-08-15 14:28:36.963161,-153.0
2023-08-15 14:28:36.970851,-174.0
2023-08-15 14:28:36.978541,-184.0
2023-08-15 14:28:36.986230,-189.0
2023-08-15 14:28:36.993920,-191.0
2023-08-15 14:28:37.001609,-189.0
2023-08-15 14:28:37.009299,-182.0
2023-08-15 14:28:37.016989,-174.0
2023-08-15 14:28:37.024678,-170.0
2023-08-15 14:28:37.032368,-165.0
2023-08-15 14:28:37.040057,-160.0
2023-08-15 14:28:37.047747,-158.0
2023-08-15 14:28:37.055436,-148.0
2023-08-15 14:28:37.063126,-139.0
2023-08-15 14:28:37.070816,-136.0
2023-08-15 14:28:37.078505,-136.0
2023-08-15 14:28:37.086195,-134.0
2023-08-15 14:28:37.093884,-136.0
2023-08-15 14:28:37.101574,-139.0
2023-08-15 14:28:37.109264,-139.0
2023-08-15 14:28:37.116953,-139.0
2023-08-15 14:28:37.124643,-134.0
2023-08-15 14:28:37.132332,-136.0
2023-08-15 14:28:37.140022,-136.0
2023-08-15 14:28:37.147711,-136.0
2023-08-15 14:28:37.155401,-141.0
2023-08-15 14:28:37.163091,-141.0
2023-08-15 14:28:37.170780,-139.0
2023-08-15 14:28:37.178470,-136.0
2023-08-15 14:28:37.186159,-139.0
2023-08-15 14:28:37.193849,-139.0
2023-08-15 14:28:37.201539,-136.0
2023-08-15 14:28:37.209228,-136.0
2023-08-15 14:28:37.216918,-134.0
2023-08-15 14:28:37.224607,-136.0
2023-08-15 14:28:37.232297,-139.0
2023-08-15 14:28:37.239986,-134.0
2023-08-15 14:28:37.247676,-112.0
2023-08-15 14:28:37.255366,-93.0
2023-08-15 14:28:37.263055,-81.0
2023-08-15 14:28:37.270745,-69.0
2023-08-15 14:28:37.278434,-62.0
2023-08-15 14:28:37.286124,-74.0
2023-08-15 14:28:37.293814,-91.0
2023-08-15 14:28:37.301503,-95.0
2023-08-15 14:28:37.309193,-105.0
2023-08-15 14:28:37.316882,-115.0
2023-08-15 14:28:37.324572,-115.0
2023-08-15 14:28:37.332261,-112.0
2023-08-15 14:28:37.339951,-117.0
2023-08-15 14:28:37.347641,-112.0
2023-08-15 14:28:37.355330,-107.0
2023-08-15 14:28:37.363020,-103.0
2023-08-15 14:28:37.370709,-98.0
2023-08-15 14:28:37.378399,-83.0
2023-08-15 14:28:37.386089,2.0
2023-08-15 14:28:37.393778,246.0
2023-08-15 14:28:37.401468,647.0
2023-08-15 14:28:37.409157,1083.0
2023-08-15 14:28:37.416847,1049.0
2023-08-15 14:28:37.424536,122.0
2023-08-15 14:28:37.432226,-673.0
2023-08-15 14:28:37.439916,-402.0
2023-08-15 14:28:37.447605,-52.0
2023-08-15 14:28:37.455295,-220.0
2023-08-15 14:28:37.462984,-263.0
2023-08-15 14:28:37.470674,-148.0
2023-08-15 14:28:37.478363,-172.0
2023-08-15 14:28:37.486053,-191.0
2023-08-15 14:28:37.493743,-134.0
2023-08-15 14:28:37.501432,-124.0
2023-08-15 14:28:37.509122,-131.0
2023-08-15 14:28:37.516811,-105.0
2023-08-15 14:28:37.524501,-86.0
2023-08-15 14:28:37.532191,-81.0
2023-08-15 14:28:37.539880,-69.0
2023-08-15 14:28:37.547570,-50.0
2023-08-15 14:28:37.555259,-38.0
2023-08-15 14:28:37.562949,-23.0
2023-08-15 14:28:37.570638,-4.0
2023-08-15 14:28:37.578328,11.0
2023-08-15 14:28:37.586018,26.0
2023-08-15 14:28:37.593707,43.0
2023-08-15 14:28:37.601397,64.0
2023-08-15 14:28:37.609086,88.0
2023-08-15 14:28:37.616776,105.0
2023-08-15 14:28:37.624466,119.0
2023-08-15 14:28:37.632155,127.0
2023-08-15 14:28:37.639845,127.0
2023-08-15 14:28:37.647534,124.0
2023-08-15 14:28:37.655224,117.0
2023-08-15 14:28:37.662913,105.0
2023-08-15 14:28:37.670603,91.0
2023-08-15 14:28:37.678293,69.0
2023-08-15 14:28:37.685982,38.0
2023-08-15 14:28:37.693672,-2.0
2023-08-15 14:28:37.701361,-40.0
2023-08-15 14:28:37.709051,-74.0
2023-08-15 14:28:37.716741,-107.0
2023-08-15 14:28:37.724430,-134.0
2023-08-15 14:28:37.732120,-150.0
2023-08-15 14:28:37.739809,-160.0
2023-08-15 14:28:37.747499,-167.0
2023-08-15 14:28:37.755188,-165.0
2023-08-15 14:28:37.762878,-153.0
2023-08-15 14:28:37.770568,-148.0
2023-08-15 14:28:37.778257,-148.0
2023-08-15 14:28:37.785947,-143.0
2023-08-15 14:28:37.793636,-136.0
2023-08-15 14:28:37.801326,-134.0
2023-08-15 14:28:37.809016,-131.0
2023-08-15 14:28:37.816705,-129.0
2023-08-15 14:28:37.824395,-134.0
2023-08-15 14:28:37.832084,-134.0
2023-08-15 14:28:37.839774,-129.0
2023-08-15 14:28:37.847463,-124.0
2023-08-15 14:28:37.855153,-127.0
2023-08-15 14:28:37.862843,-129.0
2023-08-15 14:28:37.870532,-129.0
2023-08-15 14:28:37.878222,-129.0
2023-08-15 14:28:37.885911,-136.0
2023-08-15 14:28:37.893601,-139.0
2023-08-15 14:28:37.901291,-134.0
2023-08-15 14:28:37.908980,-131.0
2023-08-15 14:28:37.916670,-131.0
2023-08-15 14:28:37.924359,-131.0
2023-08-15 14:28:37.932049,-129.0
2023-08-15 14:28:37.939738,-127.0
2023-08-15 14:28:37.947428,-124.0
2023-08-15 14:28:37.955118,-124.0
2023-08-15 14:28:37.962807,-124.0
2023-08-15 14:28:37.970497,-127.0
2023-08-15 14:28:37.978186,-129.0
2023-08-15 14:28:37.985876,-129.0
2023-08-15 14:28:37.993566,-127.0
2023-08-15 14:28:38.001255,-112.0
2023-08-15 14:28:38.008945,-100.0
2023-08-15 14:28:38.016634,-91.0
2023-08-15 14:28:38.024324,-76.0
2023-08-15 14:28:38.032013,-64.0
2023-08-15 14:28:38.039703,-79.0
2023-08-15 14:28:38.047393,-95.0
2023-08-15 14:28:38.055082,-105.0
2023-08-15 14:28:38.062772,-115.0
2023-08-15 14:28:38.070461,-124.0
2023-08-15 14:28:38.078151,-127.0
2023-08-15 14:28:38.085841,-122.0
2023-08-15 14:28:38.093530,-119.0
2023-08-15 14:28:38.101220,-117.0
2023-08-15 14:28:38.108909,-112.0
2023-08-15 14:28:38.116599,-110.0
2023-08-15 14:28:38.124288,-103.0
2023-08-15 14:28:38.131978,-93.0
2023-08-15 14:28:38.139668,-31.0
2023-08-15 14:28:38.147357,170.0
2023-08-15 14:28:38.155047,522.0
2023-08-15 14:28:38.162736,956.0
2023-08-15 14:28:38.170426,1066.0
2023-08-15 14:28:38.178116,304.0
2023-08-15 14:28:38.185805,-584.0
2023-08-15 14:28:38.193495,-469.0
2023-08-15 14:28:38.201184,-59.0
2023-08-15 14:28:38.208874,-165.0
2023-08-15 14:28:38.216563,-256.0
2023-08-15 14:28:38.224253,-139.0
2023-08-15 14:28:38.231943,-139.0
2023-08-15 14:28:38.239632,-179.0
2023-08-15 14:28:38.247322,-136.0
2023-08-15 14:28:38.255011,-110.0
2023-08-15 14:28:38.262701,-115.0
2023-08-15 14:28:38.270391,-95.0
2023-08-15 14:28:38.278080,-79.0
2023-08-15 14:28:38.285770,-79.0
2023-08-15 14:28:38.293459,-64.0
2023-08-15 14:28:38.301149,-43.0
2023-08-15 14:28:38.308838,-31.0
2023-08-15 14:28:38.316528,-23.0
2023-08-15 14:28:38.324218,-9.0
2023-08-15 14:28:38.331907,7.0
2023-08-15 14:28:38.339597,26.0
2023-08-15 14:28:38.347286,45.0
2023-08-15 14:28:38.354976,62.0
2023-08-15 14:28:38.362666,81.0
2023-08-15 14:28:38.370355,98.0
2023-08-15 14:28:38.378045,107.0
2023-08-15 14:28:38.385734,117.0
2023-08-15 14:28:38.393424,115.0
2023-08-15 14:28:38.401113,105.0
2023-08-15 14:28:38.408803,100.0
2023-08-15 14:28:38.416493,91.0
2023-08-15 14:28:38.424182,74.0
2023-08-15 14:28:38.431872,59.0
2023-08-15 14:28:38.439561,38.0
2023-08-15 14:28:38.447251,4.0
2023-08-15 14:28:38.454941,-35.0
2023-08-15 14:28:38.462630,-71.0
2023-08-15 14:28:38.470320,-105.0
2023-08-15 14:28:38.478009,-131.0
2023-08-15 14:28:38.485699,-148.0
2023-08-15 14:28:38.493388,-162.0
2023-08-15 14:28:38.501078,-165.0
2023-08-15 14:28:38.508768,-160.0
2023-08-15 14:28:38.516457,-158.0
2023-08-15 14:28:38.524147,-155.0
2023-08-15 14:28:38.531836,-146.0
2023-08-15 14:28:38.539526,-141.0
2023-08-15 14:28:38.547216,-134.0
2023-08-15 14:28:38.554905,-129.0
2023-08-15 14:28:38.562595,-129.0
2023-08-15 14:28:38.570284,-131.0
2023-08-15 14:28:38.577974,-129.0
2023-08-15 14:28:38.585663,-124.0
2023-08-15 14:28:38.593353,-127.0
2023-08-15 14:28:38.601043,-127.0
2023-08-15 14:28:38.608732,-122.0
2023-08-15 14:28:38.616422,-122.0
2023-08-15 14:28:38.624111,-122.0
2023-08-15 14:28:38.631801,-122.0
2023-08-15 14:28:38.639491,-127.0
2023-08-15 14:28:38.647180,-139.0
2023-08-15 14:28:38.654870,-136.0
2023-08-15 14:28:38.662559,-131.0
2023-08-15 14:28:38.670249,-129.0
2023-08-15 14:28:38.677938,-129.0
2023-08-15 14:28:38.685628,-129.0
2023-08-15 14:28:38.693318,-129.0
2023-08-15 14:28:38.701007,-127.0
2023-08-15 14:28:38.708697,-122.0
2023-08-15 14:28:38.716386,-119.0
2023-08-15 14:28:38.724076,-117.0
2023-08-15 14:28:38.731766,-117.0
2023-08-15 14:28:38.739455,-115.0
2023-08-15 14:28:38.747145,-115.0
2023-08-15 14:28:38.754834,-115.0
2023-08-15 14:28:38.762524,-115.0
2023-08-15 14:28:38.770213,-117.0
2023-08-15 14:28:38.777903,-110.0
2023-08-15 14:28:38.785593,-91.0
2023-08-15 14:28:38.793282,-71.0
2023-08-15 14:28:38.800972,-57.0
2023-08-15 14:28:38.808661,-47.0
2023-08-15 14:28:38.816351,-52.0
2023-08-15 14:28:38.824040,-74.0
2023-08-15 14:28:38.831730,-88.0
2023-08-15 14:28:38.839420,-95.0
2023-08-15 14:28:38.847109,-105.0
2023-08-15 14:28:38.854799,-110.0
2023-08-15 14:28:38.862488,-112.0
2023-08-15 14:28:38.870178,-110.0
2023-08-15 14:28:38.877868,-110.0
2023-08-15 14:28:38.885557,-107.0
2023-08-15 14:28:38.893247,-107.0
2023-08-15 14:28:38.900936,-110.0
2023-08-15 14:28:38.908626,-110.0
2023-08-15 14:28:38.916315,-88.0
2023-08-15 14:28:38.924005,14.0
2023-08-15 14:28:38.931695,268.0
2023-08-15 14:28:38.939384,651.0
2023-08-15 14:28:38.947074,1023.0
2023-08-15 14:28:38.954763,855.0
2023-08-15 14:28:38.962453,-81.0
2023-08-15 14:28:38.970143,-666.0
2023-08-15 14:28:38.977832,-299.0
2023-08-15 14:28:38.985522,-45.0
2023-08-15 14:28:38.993211,-225.0
2023-08-15 14:28:39.000901,-222.0
2023-08-15 14:28:39.008590,-124.0
2023-08-15 14:28:39.016280,-162.0
2023-08-15 14:28:39.023970,-172.0
2023-08-15 14:28:39.031659,-122.0
2023-08-15 14:28:39.039349,-112.0
2023-08-15 14:28:39.047038,-117.0
2023-08-15 14:28:39.054728,-98.0
2023-08-15 14:28:39.062418,-86.0
2023-08-15 14:28:39.070107,-79.0
2023-08-15 14:28:39.077797,-62.0
2023-08-15 14:28:39.085486,-50.0
2023-08-15 14:28:39.093176,-40.0
2023-08-15 14:28:39.100865,-21.0
2023-08-15 14:28:39.108555,-4.0
2023-08-15 14:28:39.116245,9.0
2023-08-15 14:28:39.123934,26.0
2023-08-15 14:28:39.131624,43.0
2023-08-15 14:28:39.139313,55.0
2023-08-15 14:28:39.147003,67.0
2023-08-15 14:28:39.154693,83.0
2023-08-15 14:28:39.162382,93.0
2023-08-15 14:28:39.170072,98.0
2023-08-15 14:28:39.177761,98.0
2023-08-15 14:28:39.185451,98.0
2023-08-15 14:28:39.193140,93.0
2023-08-15 14:28:39.200830,81.0
2023-08-15 14:28:39.208520,67.0
2023-08-15 14:28:39.216209,50.0
2023-08-15 14:28:39.223899,26.0
2023-08-15 14:28:39.231588,-4.0
2023-08-15 14:28:39.239278,-38.0
2023-08-15 14:28:39.246968,-74.0
2023-08-15 14:28:39.254657,-103.0
2023-08-15 14:28:39.262347,-127.0
2023-08-15 14:28:39.270036,-143.0
2023-08-15 14:28:39.277726,-153.0
2023-08-15 14:28:39.285415,-155.0
2023-08-15 14:28:39.293105,-150.0
2023-08-15 14:28:39.300795,-148.0
2023-08-15 14:28:39.308484,-146.0
2023-08-15 14:28:39.316174,-143.0
2023-08-15 14:28:39.323863,-136.0
2023-08-15 14:28:39.331553,-131.0
2023-08-15 14:28:39.339243,-129.0
2023-08-15 14:28:39.346932,-127.0
2023-08-15 14:28:39.354622,-122.0
2023-08-15 14:28:39.362311,-122.0
2023-08-15 14:28:39.370001,-117.0
2023-08-15 14:28:39.377690,-110.0
2023-08-15 14:28:39.385380,-115.0
2023-08-15 14:28:39.393070,-122.0
2023-08-15 14:28:39.400759,-124.0
2023-08-15 14:28:39.408449,-124.0
2023-08-15 14:28:39.416138,-124.0
2023-08-15 14:28:39.423828,-124.0
2023-08-15 14:28:39.431518,-122.0
2023-08-15 14:28:39.439207,-122.0
2023-08-15 14:28:39.446897,-122.0
2023-08-15 14:28:39.454586,-122.0
2023-08-15 14:28:39.462276,-122.0
2023-08-15 14:28:39.469965,-119.0
2023-08-15 14:28:39.477655,-122.0
2023-08-15 14:28:39.485345,-122.0
2023-08-15 14:28:39.493034,-115.0
2023-08-15 14:28:39.500724,-110.0
2023-08-15 14:28:39.508413,-110.0
2023-08-15 14:28:39.516103,-107.0
2023-08-15 14:28:39.523793,-103.0
2023-08-15 14:28:39.531482,-98.0
2023-08-15 14:28:39.539172,-103.0
2023-08-15 14:28:39.546861,-110.0
2023-08-15 14:28:39.554551,-110.0
2023-08-15 14:28:39.562240,-110.0
2023-08-15 14:28:39.569930,-107.0
2023-08-15 14:28:39.577620,-95.0
2023-08-15 14:28:39.585309,-76.0
2023-08-15 14:28:39.592999,-59.0
2023-08-15 14:28:39.600688,-43.0
2023-08-15 14:28:39.608378,-33.0
2023-08-15 14:28:39.616068,-43.0
2023-08-15 14:28:39.623757,-62.0
2023-08-15 14:28:39.631447,-71.0
2023-08-15 14:28:39.639136,-83.0
2023-08-15 14:28:39.646826,-93.0
2023-08-15 14:28:39.654515,-98.0
2023-08-15 14:28:39.662205,-100.0
2023-08-15 14:28:39.669895,-105.0
2023-08-15 14:28:39.677584,-107.0
2023-08-15 14:28:39.685274,-107.0
2023-08-15 14:28:39.692963,-103.0
2023-08-15 14:28:39.700653,-100.0
2023-08-15 14:28:39.708343,-93.0
2023-08-15 14:28:39.716032,-50.0
2023-08-15 14:28:39.723722,124.0
2023-08-15 14:28:39.731411,474.0
2023-08-15 14:28:39.739101,889.0
2023-08-15 14:28:39.746790,1049.0
2023-08-15 14:28:39.754480,452.0
2023-08-15 14:28:39.762170,-488.0
2023-08-15 14:28:39.769859,-587.0
2023-08-15 14:28:39.777549,-122.0
2023-08-15 14:28:39.785238,-98.0
2023-08-15 14:28:39.792928,-246.0
2023-08-15 14:28:39.800618,-162.0
2023-08-15 14:28:39.808307,-122.0
2023-08-15 14:28:39.815997,-167.0
2023-08-15 14:28:39.823686,-141.0
2023-08-15 14:28:39.831376,-103.0
2023-08-15 14:28:39.839065,-107.0
2023-08-15 14:28:39.846755,-93.0
2023-08-15 14:28:39.854445,-69.0
2023-08-15 14:28:39.862134,-67.0
2023-08-15 14:28:39.869824,-62.0
2023-08-15 14:28:39.877513,-45.0
2023-08-15 14:28:39.885203,-28.0
2023-08-15 14:28:39.892893,-14.0
2023-08-15 14:28:39.900582,4.0
2023-08-15 14:28:39.908272,16.0
2023-08-15 14:28:39.915961,23.0
2023-08-15 14:28:39.923651,40.0
2023-08-15 14:28:39.931340,62.0
2023-08-15 14:28:39.939030,79.0
2023-08-15 14:28:39.946720,88.0
2023-08-15 14:28:39.954409,98.0
2023-08-15 14:28:39.962099,105.0
2023-08-15 14:28:39.969788,112.0
2023-08-15 14:28:39.977478,112.0
2023-08-15 14:28:39.985168,100.0
2023-08-15 14:28:39.992857,86.0
2023-08-15 14:28:40.000547,76.0
2023-08-15 14:28:40.008236,69.0
2023-08-15 14:28:40.015926,52.0
2023-08-15 14:28:40.023615,26.0
2023-08-15 14:28:40.031305,-7.0
2023-08-15 14:28:40.038995,-43.0
2023-08-15 14:28:40.046684,-79.0
2023-08-15 14:28:40.054374,-105.0
2023-08-15 14:28:40.062063,-119.0
2023-08-15 14:28:40.069753,-129.0
2023-08-15 14:28:40.077443,-141.0
2023-08-15 14:28:40.085132,-146.0
2023-08-15 14:28:40.092822,-141.0
2023-08-15 14:28:40.100511,-134.0
2023-08-15 14:28:40.108201,-131.0
2023-08-15 14:28:40.115890,-124.0
2023-08-15 14:28:40.123580,-119.0
2023-08-15 14:28:40.131270,-119.0
2023-08-15 14:28:40.138959,-117.0
2023-08-15 14:28:40.146649,-112.0
2023-08-15 14:28:40.154338,-112.0
2023-08-15 14:28:40.162028,-112.0
2023-08-15 14:28:40.169717,-110.0
2023-08-15 14:28:40.177407,-112.0
2023-08-15 14:28:40.185097,-112.0
2023-08-15 14:28:40.192786,-110.0
2023-08-15 14:28:40.200476,-107.0
2023-08-15 14:28:40.208165,-107.0
2023-08-15 14:28:40.215855,-107.0
2023-08-15 14:28:40.223545,-110.0
2023-08-15 14:28:40.231234,-112.0
2023-08-15 14:28:40.238924,-107.0
2023-08-15 14:28:40.246613,-105.0
2023-08-15 14:28:40.254303,-105.0
2023-08-15 14:28:40.261992,-112.0
2023-08-15 14:28:40.269682,-119.0
2023-08-15 14:28:40.277372,-115.0
2023-08-15 14:28:40.285061,-115.0
2023-08-15 14:28:40.292751,-117.0
2023-08-15 14:28:40.300440,-115.0
2023-08-15 14:28:40.308130,-119.0
2023-08-15 14:28:40.315820,-127.0
2023-08-15 14:28:40.323509,-122.0
2023-08-15 14:28:40.331199,-119.0
2023-08-15 14:28:40.338888,-117.0
2023-08-15 14:28:40.346578,-98.0
2023-08-15 14:28:40.354267,-79.0
2023-08-15 14:28:40.361957,-71.0
2023-08-15 14:28:40.369647,-55.0
2023-08-15 14:28:40.377336,-45.0
2023-08-15 14:28:40.385026,-55.0
2023-08-15 14:28:40.392715,-69.0
2023-08-15 14:28:40.400405,-88.0
2023-08-15 14:28:40.408095,-103.0
2023-08-15 14:28:40.415784,-110.0
2023-08-15 14:28:40.423474,-112.0
2023-08-15 14:28:40.431163,-115.0
2023-08-15 14:28:40.438853,-112.0
2023-08-15 14:28:40.446542,-112.0
2023-08-15 14:28:40.454232,-107.0
2023-08-15 14:28:40.461922,-103.0
2023-08-15 14:28:40.469611,-100.0
2023-08-15 14:28:40.477301,-95.0
2023-08-15 14:28:40.484990,-67.0
2023-08-15 14:28:40.492680,91.0
2023-08-15 14:28:40.500370,455.0
2023-08-15 14:28:40.508059,913.0
2023-08-15 14:28:40.515749,1140.0
2023-08-15 14:28:40.523438,594.0
2023-08-15 14:28:40.531128,-445.0
2023-08-15 14:28:40.538817,-687.0
2023-08-15 14:28:40.546507,-184.0
2023-08-15 14:28:40.554197,-79.0
2023-08-15 14:28:40.561886,-249.0
2023-08-15 14:28:40.569576,-179.0
2023-08-15 14:28:40.577265,-110.0
2023-08-15 14:28:40.584955,-160.0
2023-08-15 14:28:40.592645,-148.0
2023-08-15 14:28:40.600334,-105.0
2023-08-15 14:28:40.608024,-103.0
2023-08-15 14:28:40.615713,-98.0
2023-08-15 14:28:40.623403,-79.0
2023-08-15 14:28:40.631092,-71.0
2023-08-15 14:28:40.638782,-59.0
2023-08-15 14:28:40.646472,-38.0
2023-08-15 14:28:40.654161,-26.0
2023-08-15 14:28:40.661851,-16.0
2023-08-15 14:28:40.669540,0.0
2023-08-15 14:28:40.677230,19.0
2023-08-15 14:28:40.684920,33.0
2023-08-15 14:28:40.692609,47.0
2023-08-15 14:28:40.700299,71.0
2023-08-15 14:28:40.707988,88.0
2023-08-15 14:28:40.715678,100.0
2023-08-15 14:28:40.723367,112.0
2023-08-15 14:28:40.731057,122.0
2023-08-15 14:28:40.738747,127.0
2023-08-15 14:28:40.746436,119.0
2023-08-15 14:28:40.754126,107.0
2023-08-15 14:28:40.761815,93.0
2023-08-15 14:28:40.769505,83.0
2023-08-15 14:28:40.777195,64.0
2023-08-15 14:28:40.784884,38.0
2023-08-15 14:28:40.792574,9.0
2023-08-15 14:28:40.800263,-31.0
2023-08-15 14:28:40.807953,-74.0
2023-08-15 14:28:40.815642,-110.0
2023-08-15 14:28:40.823332,-136.0
2023-08-15 14:28:40.831022,-158.0
2023-08-15 14:28:40.838711,-167.0
2023-08-15 14:28:40.846401,-172.0
2023-08-15 14:28:40.854090,-174.0
2023-08-15 14:28:40.861780,-172.0
2023-08-15 14:28:40.869470,-162.0
2023-08-15 14:28:40.877159,-153.0
2023-08-15 14:28:40.884849,-146.0
2023-08-15 14:28:40.892538,-143.0
2023-08-15 14:28:40.900228,-141.0
2023-08-15 14:28:40.907917,-136.0
2023-08-15 14:28:40.915607,-131.0
2023-08-15 14:28:40.923297,-131.0
2023-08-15 14:28:40.930986,-134.0
2023-08-15 14:28:40.938676,-134.0
2023-08-15 14:28:40.946365,-131.0
2023-08-15 14:28:40.954055,-131.0
2023-08-15 14:28:40.961745,-131.0
2023-08-15 14:28:40.969434,-131.0
2023-08-15 14:28:40.977124,-134.0
2023-08-15 14:28:40.984813,-134.0
2023-08-15 14:28:40.992503,-131.0
2023-08-15 14:28:41.000192,-131.0
2023-08-15 14:28:41.007882,-131.0
2023-08-15 14:28:41.015572,-129.0
2023-08-15 14:28:41.023261,-131.0
2023-08-15 14:28:41.030951,-131.0
2023-08-15 14:28:41.038640,-127.0
2023-08-15 14:28:41.046330,-127.0
2023-08-15 14:28:41.054020,-127.0
2023-08-15 14:28:41.061709,-122.0
2023-08-15 14:28:41.069399,-119.0
2023-08-15 14:28:41.077088,-119.0
2023-08-15 14:28:41.084778,-112.0
2023-08-15 14:28:41.092467,-107.0
2023-08-15 14:28:41.100157,-110.0
2023-08-15 14:28:41.107847,-107.0
2023-08-15 14:28:41.115536,-103.0
2023-08-15 14:28:41.123226,-103.0
2023-08-15 14:28:41.130915,-105.0
2023-08-15 14:28:41.138605,-110.0
2023-08-15 14:28:41.146295,-115.0
2023-08-15 14:28:41.153984,-117.0
2023-08-15 14:28:41.161674,-115.0
2023-08-15 14:28:41.169363,-95.0
2023-08-15 14:28:41.177053,-76.0
2023-08-15 14:28:41.184742,-62.0
2023-08-15 14:28:41.192432,-52.0
2023-08-15 14:28:41.200122,-47.0
2023-08-15 14:28:41.207811,-57.0
2023-08-15 14:28:41.215501,-69.0
2023-08-15 14:28:41.223190,-83.0
2023-08-15 14:28:41.230880,-95.0
2023-08-15 14:28:41.238570,-105.0
2023-08-15 14:28:41.246259,-100.0
2023-08-15 14:28:41.253949,-100.0
2023-08-15 14:28:41.261638,-100.0
2023-08-15 14:28:41.269328,-98.0
2023-08-15 14:28:41.277017,-98.0
2023-08-15 14:28:41.284707,-100.0
2023-08-15 14:28:41.292397,-93.0
2023-08-15 14:28:41.300086,-74.0
2023-08-15 14:28:41.307776,19.0
2023-08-15 14:28:41.315465,266.0
2023-08-15 14:28:41.323155,661.0
2023-08-15 14:28:41.330845,1083.0
2023-08-15 14:28:41.338534,994.0
2023-08-15 14:28:41.346224,55.0
2023-08-15 14:28:41.353913,-637.0
2023-08-15 14:28:41.361603,-313.0
2023-08-15 14:28:41.369292,-31.0
2023-08-15 14:28:41.376982,-220.0
2023-08-15 14:28:41.384672,-242.0
2023-08-15 14:28:41.392361,-141.0
2023-08-15 14:28:41.400051,-177.0
2023-08-15 14:28:41.407740,-189.0
2023-08-15 14:28:41.415430,-139.0
2023-08-15 14:28:41.423120,-131.0
2023-08-15 14:28:41.430809,-134.0
2023-08-15 14:28:41.438499,-112.0
2023-08-15 14:28:41.446188,-98.0
2023-08-15 14:28:41.453878,-88.0
2023-08-15 14:28:41.461567,-74.0
2023-08-15 14:28:41.469257,-59.0
2023-08-15 14:28:41.476947,-50.0
2023-08-15 14:28:41.484636,-35.0
2023-08-15 14:28:41.492326,-19.0
2023-08-15 14:28:41.500015,2.0
2023-08-15 14:28:41.507705,21.0
2023-08-15 14:28:41.515395,35.0
2023-08-15 14:28:41.523084,47.0
2023-08-15 14:28:41.530774,64.0
2023-08-15 14:28:41.538463,79.0
2023-08-15 14:28:41.546153,91.0
2023-08-15 14:28:41.553842,100.0
2023-08-15 14:28:41.561532,98.0
2023-08-15 14:28:41.569222,91.0
2023-08-15 14:28:41.576911,83.0
2023-08-15 14:28:41.584601,74.0
2023-08-15 14:28:41.592290,59.0
2023-08-15 14:28:41.599980,43.0
2023-08-15 14:28:41.607669,19.0
2023-08-15 14:28:41.615359,-11.0
2023-08-15 14:28:41.623049,-43.0
2023-08-15 14:28:41.630738,-71.0
2023-08-15 14:28:41.638428,-105.0
2023-08-15 14:28:41.646117,-134.0
2023-08-15 14:28:41.653807,-150.0
2023-08-15 14:28:41.661497,-160.0
2023-08-15 14:28:41.669186,-160.0
2023-08-15 14:28:41.676876,-155.0
2023-08-15 14:28:41.684565,-155.0
2023-08-15 14:28:41.692255,-155.0
2023-08-15 14:28:41.699944,-148.0
2023-08-15 14:28:41.707634,-139.0
2023-08-15 14:28:41.715324,-134.0
2023-08-15 14:28:41.723013,-129.0
2023-08-15 14:28:41.730703,-127.0
2023-08-15 14:28:41.738392,-127.0
2023-08-15 14:28:41.746082,-129.0
2023-08-15 14:28:41.753772,-129.0
2023-08-15 14:28:41.761461,-127.0
2023-08-15 14:28:41.769151,-129.0
2023-08-15 14:28:41.776840,-129.0
2023-08-15 14:28:41.784530,-129.0
2023-08-15 14:28:41.792219,-131.0
2023-08-15 14:28:41.799909,-131.0
2023-08-15 14:28:41.807599,-129.0
2023-08-15 14:28:41.815288,-129.0
2023-08-15 14:28:41.822978,-127.0
2023-08-15 14:28:41.830667,-124.0
2023-08-15 14:28:41.838357,-127.0
2023-08-15 14:28:41.846047,-129.0
2023-08-15 14:28:41.853736,-122.0
2023-08-15 14:28:41.861426,-119.0
2023-08-15 14:28:41.869115,-119.0
2023-08-15 14:28:41.876805,-117.0
2023-08-15 14:28:41.884494,-112.0
2023-08-15 14:28:41.892184,-115.0
2023-08-15 14:28:41.899874,-115.0
2023-08-15 14:28:41.907563,-112.0
2023-08-15 14:28:41.915253,-115.0
2023-08-15 14:28:41.922942,-117.0
2023-08-15 14:28:41.930632,-117.0
2023-08-15 14:28:41.938322,-115.0
2023-08-15 14:28:41.946011,-115.0
2023-08-15 14:28:41.953701,-115.0
2023-08-15 14:28:41.961390,-117.0
2023-08-15 14:28:41.969080,-129.0
2023-08-15 14:28:41.976769,-139.0
2023-08-15 14:28:41.984459,-134.0
2023-08-15 14:28:41.992149,-117.0
2023-08-15 14:28:41.999838,-98.0
2023-08-15 14:28:42.007528,-83.0
2023-08-15 14:28:42.015217,-69.0
2023-08-15 14:28:42.022907,-57.0
2023-08-15 14:28:42.030597,-57.0
2023-08-15 14:28:42.038286,-71.0
2023-08-15 14:28:42.045976,-86.0
2023-08-15 14:28:42.053665,-95.0
2023-08-15 14:28:42.061355,-112.0
2023-08-15 14:28:42.069044,-122.0
2023-08-15 14:28:42.076734,-117.0
2023-08-15 14:28:42.084424,-110.0
2023-08-15 14:28:42.092113,-112.0
2023-08-15 14:28:42.099803,-107.0
2023-08-15 14:28:42.107492,-107.0
2023-08-15 14:28:42.115182,-103.0
2023-08-15 14:28:42.122872,-88.0
2023-08-15 14:28:42.130561,-45.0
2023-08-15 14:28:42.138251,119.0
2023-08-15 14:28:42.145940,436.0
2023-08-15 14:28:42.153630,848.0
2023-08-15 14:28:42.161319,1073.0
2023-08-15 14:28:42.169009,524.0
2023-08-15 14:28:42.176699,-438.0
2023-08-15 14:28:42.184388,-568.0
2023-08-15 14:28:42.192078,-112.0
2023-08-15 14:28:42.199767,-98.0
2023-08-15 14:28:42.207457,-249.0
2023-08-15 14:28:42.215147,-162.0
2023-08-15 14:28:42.222836,-122.0
2023-08-15 14:28:42.230526,-170.0
2023-08-15 14:28:42.238215,-143.0
2023-08-15 14:28:42.245905,-107.0
2023-08-15 14:28:42.253594,-115.0
2023-08-15 14:28:42.261284,-107.0
2023-08-15 14:28:42.268974,-83.0
2023-08-15 14:28:42.276663,-74.0
2023-08-15 14:28:42.284353,-69.0
2023-08-15 14:28:42.292042,-52.0
2023-08-15 14:28:42.299732,-38.0
2023-08-15 14:28:42.307422,-26.0
2023-08-15 14:28:42.315111,-11.0
2023-08-15 14:28:42.322801,9.0
2023-08-15 14:28:42.330490,26.0
2023-08-15 14:28:42.338180,38.0
2023-08-15 14:28:42.345869,55.0
2023-08-15 14:28:42.353559,74.0
2023-08-15 14:28:42.361249,88.0
2023-08-15 14:28:42.368938,98.0
2023-08-15 14:28:42.376628,103.0
2023-08-15 14:28:42.384317,103.0
2023-08-15 14:28:42.392007,100.0
2023-08-15 14:28:42.399697,93.0
2023-08-15 14:28:42.407386,81.0
2023-08-15 14:28:42.415076,71.0
2023-08-15 14:28:42.422765,55.0
2023-08-15 14:28:42.430455,31.0
2023-08-15 14:28:42.438144,0.0
2023-08-15 14:28:42.445834,-33.0
2023-08-15 14:28:42.453524,-64.0
2023-08-15 14:28:42.461213,-95.0
2023-08-15 14:28:42.468903,-122.0
2023-08-15 14:28:42.476592,-141.0
2023-08-15 14:28:42.484282,-158.0
2023-08-15 14:28:42.491972,-162.0
2023-08-15 14:28:42.499661,-160.0
2023-08-15 14:28:42.507351,-165.0
2023-08-15 14:28:42.515040,-177.0
2023-08-15 14:28:42.522730,-174.0
2023-08-15 14:28:42.530419,-165.0
2023-08-15 14:28:42.538109,-158.0
2023-08-15 14:28:42.545799,-155.0
2023-08-15 14:28:42.553488,-155.0
2023-08-15 14:28:42.561178,-155.0
2023-08-15 14:28:42.568867,-153.0
2023-08-15 14:28:42.576557,-153.0
2023-08-15 14:28:42.584247,-146.0
2023-08-15 14:28:42.591936,-143.0
2023-08-15 14:28:42.599626,-153.0
2023-08-15 14:28:42.607315,-160.0
2023-08-15 14:28:42.615005,-153.0
2023-08-15 14:28:42.622694,-150.0
2023-08-15 14:28:42.630384,-150.0
2023-08-15 14:28:42.638074,-141.0
2023-08-15 14:28:42.645763,-146.0
2023-08-15 14:28:42.653453,-150.0
2023-08-15 14:28:42.661142,-141.0
2023-08-15 14:28:42.668832,-136.0
2023-08-15 14:28:42.676522,-141.0
2023-08-15 14:28:42.684211,-141.0
2023-08-15 14:28:42.691901,-141.0
2023-08-15 14:28:42.699590,-141.0
2023-08-15 14:28:42.707280,-136.0
2023-08-15 14:28:42.714969,-131.0
2023-08-15 14:28:42.722659,-131.0
2023-08-15 14:28:42.730349,-131.0
2023-08-15 14:28:42.738038,-129.0
2023-08-15 14:28:42.745728,-127.0
2023-08-15 14:28:42.753417,-124.0
2023-08-15 14:28:42.761107,-122.0
2023-08-15 14:28:42.768797,-119.0
2023-08-15 14:28:42.776486,-117.0
2023-08-15 14:28:42.784176,-115.0
2023-08-15 14:28:42.791865,-112.0
2023-08-15 14:28:42.799555,-115.0
2023-08-15 14:28:42.807244,-115.0
2023-08-15 14:28:42.814934,-112.0
2023-08-15 14:28:42.822624,-112.0
2023-08-15 14:28:42.830313,-107.0
2023-08-15 14:28:42.838003,-88.0
2023-08-15 14:28:42.845692,-69.0
2023-08-15 14:28:42.853382,-55.0
2023-08-15 14:28:42.861072,-38.0
2023-08-15 14:28:42.868761,-33.0
2023-08-15 14:28:42.876451,-43.0
2023-08-15 14:28:42.884140,-59.0
2023-08-15 14:28:42.891830,-69.0
2023-08-15 14:28:42.899519,-83.0
2023-08-15 14:28:42.907209,-91.0
2023-08-15 14:28:42.914899,-88.0
2023-08-15 14:28:42.922588,-88.0
2023-08-15 14:28:42.930278,-91.0
2023-08-15 14:28:42.937967,-95.0
2023-08-15 14:28:42.945657,-98.0
2023-08-15 14:28:42.953346,-91.0
2023-08-15 14:28:42.961036,-81.0
2023-08-15 14:28:42.968726,-71.0
2023-08-15 14:28:42.976415,4.0
2023-08-15 14:28:42.984105,234.0
2023-08-15 14:28:42.991794,589.0
2023-08-15 14:28:42.999484,958.0
2023-08-15 14:28:43.007174,915.0
2023-08-15 14:28:43.014863,88.0
2023-08-15 14:28:43.022553,-625.0
2023-08-15 14:28:43.030242,-373.0
2023-08-15 14:28:43.037932,-31.0
2023-08-15 14:28:43.045621,-170.0
2023-08-15 14:28:43.053311,-227.0
2023-08-15 14:28:43.061001,-124.0
2023-08-15 14:28:43.068690,-141.0
2023-08-15 14:28:43.076380,-165.0
2023-08-15 14:28:43.084069,-122.0
2023-08-15 14:28:43.091759,-107.0
2023-08-15 14:28:43.099449,-110.0
2023-08-15 14:28:43.107138,-88.0
2023-08-15 14:28:43.114828,-69.0
2023-08-15 14:28:43.122517,-62.0
2023-08-15 14:28:43.130207,-50.0
2023-08-15 14:28:43.137896,-35.0
2023-08-15 14:28:43.145586,-26.0
2023-08-15 14:28:43.153276,-11.0
2023-08-15 14:28:43.160965,7.0
2023-08-15 14:28:43.168655,23.0
2023-08-15 14:28:43.176344,40.0
2023-08-15 14:28:43.184034,55.0
2023-08-15 14:28:43.191724,69.0
2023-08-15 14:28:43.199413,88.0
2023-08-15 14:28:43.207103,105.0
2023-08-15 14:28:43.214792,110.0
2023-08-15 14:28:43.222482,112.0
2023-08-15 14:28:43.230171,112.0
2023-08-15 14:28:43.237861,105.0
2023-08-15 14:28:43.245551,93.0
2023-08-15 14:28:43.253240,81.0
2023-08-15 14:28:43.260930,71.0
2023-08-15 14:28:43.268619,52.0
2023-08-15 14:28:43.276309,28.0
2023-08-15 14:28:43.283999,7.0
2023-08-15 14:28:43.291688,-16.0
2023-08-15 14:28:43.299378,-47.0
2023-08-15 14:28:43.307067,-86.0
2023-08-15 14:28:43.314757,-119.0
2023-08-15 14:28:43.322446,-141.0
2023-08-15 14:28:43.330136,-148.0
2023-08-15 14:28:43.337826,-148.0
2023-08-15 14:28:43.345515,-148.0
2023-08-15 14:28:43.353205,-146.0
2023-08-15 14:28:43.360894,-141.0
2023-08-15 14:28:43.368584,-136.0
2023-08-15 14:28:43.376274,-129.0
2023-08-15 14:28:43.383963,-124.0
2023-08-15 14:28:43.391653,-122.0
2023-08-15 14:28:43.399342,-117.0
2023-08-15 14:28:43.407032,-112.0
2023-08-15 14:28:43.414721,-112.0
2023-08-15 14:28:43.422411,-110.0
2023-08-15 14:28:43.430101,-107.0
2023-08-15 14:28:43.437790,-107.0
2023-08-15 14:28:43.445480,-115.0
2023-08-15 14:28:43.453169,-122.0
2023-08-15 14:28:43.460859,-119.0
2023-08-15 14:28:43.468549,-115.0
2023-08-15 14:28:43.476238,-117.0
2023-08-15 14:28:43.483928,-119.0
2023-08-15 14:28:43.491617,-122.0
2023-08-15 14:28:43.499307,-127.0
2023-08-15 14:28:43.506996,-127.0
2023-08-15 14:28:43.514686,-122.0
2023-08-15 14:28:43.522376,-122.0
2023-08-15 14:28:43.530065,-119.0
2023-08-15 14:28:43.537755,-115.0
2023-08-15 14:28:43.545444,-115.0
2023-08-15 14:28:43.553134,-112.0
2023-08-15 14:28:43.560824,-107.0
2023-08-15 14:28:43.568513,-105.0
2023-08-15 14:28:43.576203,-105.0
2023-08-15 14:28:43.583892,-107.0
2023-08-15 14:28:43.591582,-110.0
2023-08-15 14:28:43.599271,-112.0
2023-08-15 14:28:43.606961,-107.0
2023-08-15 14:28:43.614651,-103.0
2023-08-15 14:28:43.622340,-103.0
2023-08-15 14:28:43.630030,-105.0
2023-08-15 14:28:43.637719,-105.0
2023-08-15 14:28:43.645409,-103.0
2023-08-15 14:28:43.653099,-100.0
2023-08-15 14:28:43.660788,-95.0
2023-08-15 14:28:43.668478,-81.0
2023-08-15 14:28:43.676167,-59.0
2023-08-15 14:28:43.683857,-45.0
2023-08-15 14:28:43.691546,-33.0
2023-08-15 14:28:43.699236,-28.0
2023-08-15 14:28:43.706926,-38.0
2023-08-15 14:28:43.714615,-52.0
2023-08-15 14:28:43.722305,-64.0
2023-08-15 14:28:43.729994,-79.0
2023-08-15 14:28:43.737684,-86.0
2023-08-15 14:28:43.745374,-83.0
2023-08-15 14:28:43.753063,-83.0
2023-08-15 14:28:43.760753,-83.0
2023-08-15 14:28:43.768442,-79.0
2023-08-15 14:28:43.776132,-76.0
2023-08-15 14:28:43.783821,-76.0
2023-08-15 14:28:43.791511,-69.0
2023-08-15 14:28:43.799201,-45.0
2023-08-15 14:28:43.806890,67.0
2023-08-15 14:28:43.814580,357.0
2023-08-15 14:28:43.822269,752.0
2023-08-15 14:28:43.829959,1023.0
2023-08-15 14:28:43.837649,742.0
2023-08-15 14:28:43.845338,-184.0
2023-08-15 14:28:43.853028,-726.0
2023-08-15 14:28:43.860717,-337.0
2023-08-15 14:28:43.868407,-21.0
2023-08-15 14:28:43.876096,-155.0
2023-08-15 14:28:43.883786,-174.0
2023-08-15 14:28:43.891476,-81.0
2023-08-15 14:28:43.899165,-103.0
2023-08-15 14:28:43.906855,-117.0
2023-08-15 14:28:43.914544,-74.0
2023-08-15 14:28:43.922234,-64.0
2023-08-15 14:28:43.929924,-64.0
2023-08-15 14:28:43.937613,-45.0
2023-08-15 14:28:43.945303,-35.0
2023-08-15 14:28:43.952992,-33.0
2023-08-15 14:28:43.960682,-21.0
2023-08-15 14:28:43.968371,-2.0
2023-08-15 14:28:43.976061,9.0
2023-08-15 14:28:43.983751,16.0
2023-08-15 14:28:43.991440,23.0
2023-08-15 14:28:43.999130,38.0
2023-08-15 14:28:44.006819,57.0
2023-08-15 14:28:44.014509,79.0
2023-08-15 14:28:44.022199,93.0
2023-08-15 14:28:44.029888,107.0
2023-08-15 14:28:44.037578,117.0
2023-08-15 14:28:44.045267,127.0
2023-08-15 14:28:44.052957,131.0
2023-08-15 14:28:44.060646,129.0
2023-08-15 14:28:44.068336,117.0
2023-08-15 14:28:44.076026,107.0
2023-08-15 14:28:44.083715,98.0
2023-08-15 14:28:44.091405,79.0
2023-08-15 14:28:44.099094,59.0
2023-08-15 14:28:44.106784,38.0
2023-08-15 14:28:44.114474,16.0
2023-08-15 14:28:44.122163,-14.0
2023-08-15 14:28:44.129853,-52.0
2023-08-15 14:28:44.137542,-88.0
2023-08-15 14:28:44.145232,-107.0
2023-08-15 14:28:44.152921,-124.0
2023-08-15 14:28:44.160611,-134.0
2023-08-15 14:28:44.168301,-141.0
2023-08-15 14:28:44.175990,-148.0
2023-08-15 14:28:44.183680,-153.0
2023-08-15 14:28:44.191369,-148.0
2023-08-15 14:28:44.199059,-143.0
2023-08-15 14:28:44.206749,-136.0
2023-08-15 14:28:44.214438,-129.0
2023-08-15 14:28:44.222128,-131.0
2023-08-15 14:28:44.229817,-134.0
2023-08-15 14:28:44.237507,-129.0
2023-08-15 14:28:44.245196,-124.0
2023-08-15 14:28:44.252886,-124.0
2023-08-15 14:28:44.260576,-129.0
2023-08-15 14:28:44.268265,-131.0
2023-08-15 14:28:44.275955,-131.0
2023-08-15 14:28:44.283644,-129.0
2023-08-15 14:28:44.291334,-131.0
2023-08-15 14:28:44.299023,-131.0
2023-08-15 14:28:44.306713,-129.0
2023-08-15 14:28:44.314403,-131.0
2023-08-15 14:28:44.322092,-129.0
2023-08-15 14:28:44.329782,-127.0
2023-08-15 14:28:44.337471,-122.0
2023-08-15 14:28:44.345161,-122.0
2023-08-15 14:28:44.352851,-122.0
2023-08-15 14:28:44.360540,-122.0
2023-08-15 14:28:44.368230,-119.0
2023-08-15 14:28:44.375919,-117.0
2023-08-15 14:28:44.383609,-115.0
2023-08-15 14:28:44.391298,-110.0
2023-08-15 14:28:44.398988,-110.0
2023-08-15 14:28:44.406678,-112.0
2023-08-15 14:28:44.414367,-110.0
2023-08-15 14:28:44.422057,-115.0
2023-08-15 14:28:44.429746,-117.0
2023-08-15 14:28:44.437436,-105.0
2023-08-15 14:28:44.445126,-88.0
2023-08-15 14:28:44.452815,-79.0
2023-08-15 14:28:44.460505,-67.0
2023-08-15 14:28:44.468194,-52.0
2023-08-15 14:28:44.475884,-50.0
2023-08-15 14:28:44.483573,-64.0
2023-08-15 14:28:44.491263,-81.0
2023-08-15 14:28:44.498953,-93.0
2023-08-15 14:28:44.506642,-103.0
2023-08-15 14:28:44.514332,-105.0
2023-08-15 14:28:44.522021,-103.0
2023-08-15 14:28:44.529711,-103.0
2023-08-15 14:28:44.537401,-100.0
2023-08-15 14:28:44.545090,-98.0
2023-08-15 14:28:44.552780,-98.0
2023-08-15 14:28:44.560469,-95.0
2023-08-15 14:28:44.568159,-88.0
2023-08-15 14:28:44.575848,-74.0
2023-08-15 14:28:44.583538,16.0
2023-08-15 14:28:44.591228,299.0
2023-08-15 14:28:44.598917,726.0
2023-08-15 14:28:44.606607,1085.0
2023-08-15 14:28:44.614296,908.0
2023-08-15 14:28:44.621986,-50.0
2023-08-15 14:28:44.629676,-740.0
2023-08-15 14:28:44.637365,-393.0
2023-08-15 14:28:44.645055,-38.0
2023-08-15 14:28:44.652744,-189.0
2023-08-15 14:28:44.660434,-220.0
2023-08-15 14:28:44.668123,-110.0
2023-08-15 14:28:44.675813,-134.0
2023-08-15 14:28:44.683503,-155.0
2023-08-15 14:28:44.691192,-107.0
2023-08-15 14:28:44.698882,-95.0
2023-08-15 14:28:44.706571,-100.0
2023-08-15 14:28:44.714261,-81.0
2023-08-15 14:28:44.721951,-67.0
2023-08-15 14:28:44.729640,-62.0
2023-08-15 14:28:44.737330,-47.0
2023-08-15 14:28:44.745019,-33.0
2023-08-15 14:28:44.752709,-23.0
2023-08-15 14:28:44.760398,-16.0
2023-08-15 14:28:44.768088,-7.0
2023-08-15 14:28:44.775778,11.0
2023-08-15 14:28:44.783467,31.0
2023-08-15 14:28:44.791157,47.0
2023-08-15 14:28:44.798846,64.0
2023-08-15 14:28:44.806536,83.0
2023-08-15 14:28:44.814226,98.0
2023-08-15 14:28:44.821915,107.0
2023-08-15 14:28:44.829605,110.0
2023-08-15 14:28:44.837294,107.0
2023-08-15 14:28:44.844984,98.0
2023-08-15 14:28:44.852673,83.0
2023-08-15 14:28:44.860363,69.0
2023-08-15 14:28:44.868053,52.0
2023-08-15 14:28:44.875742,31.0
2023-08-15 14:28:44.883432,2.0
2023-08-15 14:28:44.891121,-31.0
2023-08-15 14:28:44.898811,-69.0
2023-08-15 14:28:44.906501,-103.0
2023-08-15 14:28:44.914190,-134.0
2023-08-15 14:28:44.921880,-160.0
2023-08-15 14:28:44.929569,-179.0
2023-08-15 14:28:44.937259,-186.0
2023-08-15 14:28:44.944948,-189.0
2023-08-15 14:28:44.952638,-191.0
2023-08-15 14:28:44.960328,-191.0
2023-08-15 14:28:44.968017,-186.0
2023-08-15 14:28:44.975707,-182.0
2023-08-15 14:28:44.983396,-174.0
2023-08-15 14:28:44.991086,-167.0
2023-08-15 14:28:44.998776,-160.0
2023-08-15 14:28:45.006465,-153.0
2023-08-15 14:28:45.014155,-148.0
2023-08-15 14:28:45.021844,-146.0
2023-08-15 14:28:45.029534,-143.0
2023-08-15 14:28:45.037223,-141.0
2023-08-15 14:28:45.044913,-136.0
2023-08-15 14:28:45.052603,-136.0
2023-08-15 14:28:45.060292,-141.0
2023-08-15 14:28:45.067982,-143.0
2023-08-15 14:28:45.075671,-143.0
2023-08-15 14:28:45.083361,-146.0
2023-08-15 14:28:45.091051,-146.0
2023-08-15 14:28:45.098740,-143.0
2023-08-15 14:28:45.106430,-143.0
